0.034537 0.018096 0.077614 0.01267 0.013821 0.025824 0.048841 0.031907 
0.064625 0.024344 0.042923 0.036675 0.015959 0.013986 0.025659 0.018754 
0.12151 0.00297 0.087479 0.0037921 0.020233 0.015959 0.023028 0.01563 
0.15242 0.0031344 0.034866 0.01826 0.021384 0.034044 0.0028056 0.005765 
0.16114 0.01152 0.03799 0.033058 0.022535 0.017932 -0.006566 0.035853 
0.082875 0.030756 0.0028056 0.042923 0.0093821 0.020398 0.035031 0.01826 
-0.039942 0.043416 -0.01232 0.042758 0.021384 0.022864 0.02829 0.03536 
-0.2545 0.08567 -0.018075 0.038319 0.058377 0.035688 0.043251 0.035853 
-0.31895 0.11362 -0.0026201 0.056898 0.057062 0.034702 0.055254 0.072188 
-0.15437 0.11395 0.045553 0.037168 0.045224 0.027796 0.0227 0.044238 
0.04917 0.058871 0.031085 0.01711 0.012013 0.0090533 0.026974 0.019576 
0.14157 0.021549 0.06035 -0.00081153 0.027139 -0.0040998 0.031907 0.027139 
0.15341 0.0054362 0.070544 0.036182 0.026317 0.015794 0.024508 0.0041209 
0.13943 0.01004 0.1054 0.011191 0.015465 0.024015 0.025659 0.0013258 
0.10376 0.032564 0.050814 0.013492 0.009711 0.021056 0.015465 0.013821 
0.064461 0.035031 0.038977 0.032893 0.0082312 0.0092177 0.024508 0.022535 
0.059693 0.031907 0.0421 0.041443 0.021549 0.015959 0.022206 0.015137 
0.042594 0.035031 0.05065 0.02122 0.031414 0.036675 0.050321 0.03536 
0.011684 0.042265 0.062652 0.014808 0.0032988 0.013492 0.020398 0.024179 
0.0021479 0.043087 0.03388 0.025824 0.025001 0.014972 0.021549 0.054103 
0.019247 0.055911 0.01974 0.060186 0.024179 0.022371 0.015465 0.018918 
0.057884 0.054596 0.0060938 0.024837 0.047033 0.024179 0.018754 0.029441 
0.027796 0.050321 0.0324 0.032236 0.018754 0.029441 0.014972 0.010369 
0.026152 0.02829 0.0018191 0.041936 0.022371 0.013492 0.047362 0.041278 
0.024673 0.040456 0.0051074 0.050157 0.01974 0.014315 0.028947 0.020891 
0.011026 0.061337 0.012342 0.024508 0.02829 0.014972 0.018096 0.064296 
-0.01939 0.070544 0.020727 0.019247 0.049335 0.027961 0.018918 0.024344 
-0.032708 0.063803 0.034373 0.023193 0.038812 0.04506 0.028125 0.037332 
-0.0078813 0.040785 0.028454 0.035031 0.025495 0.025659 0.02533 0.027468 
0.022864 0.040621 0.026152 0.017603 0.020233 -0.0049219 0.039799 0.031414 
0.024837 0.044896 0.029112 0.0088889 0.031085 0.0082312 0.031085 0.036346 
0.048184 0.054596 0.052952 0.044402 0.03536 0.021056 0.033715 0.044731 
0.049664 0.047526 0.014808 0.024015 0.019411 0.020562 0.025166 0.036182 
0.047855 0.048513 0.017603 0.0090533 0.020562 0.017438 0.020233 0.019247 
0.04654 0.037826 0.013328 0.01563 0.020069 0.013164 0.014315 0.022864 
0.048841 0.04358 0.032893 0.047362 0.044896 0.012177 0.047197 0.016781 
0.029769 0.053609 0.035688 0.024179 0.022042 0.03947 0.044896 0.033058 
0.032729 0.04917 0.016288 0.023357 0.025166 0.015465 0.029441 0.023686 
0.026317 0.041278 0.036346 0.041607 0.053281 0.033551 0.024179 0.025988 
0.024015 0.045882 0.030098 0.051472 0.043745 0.018425 0.023028 0.011191 
0.01711 0.038648 0.021056 0.03947 0.061995 0.041443 0.0082312 0.027139 
0.031907 0.062817 0.0031344 0.016288 0.022864 0.032071 0.027139 0.030098 
0.039141 0.043909 0.015301 0.023357 0.012506 0.022042 0.036675 0.033551 
0.027961 0.032893 0.0014903 0.021549 0.02533 0.0082312 0.017767 -0.0073881 
0.040785 0.02829 0.020398 0.01826 0.052459 0.016123 0.024179 0.033715 
0.042758 0.026152 0.029769 0.023522 0.031907 0.025824 0.00050378 0.040621 
0.053938 0.047362 0.024837 0.03947 0.023851 0.026317 0.01415 0.026974 
0.061172 0.0689 0.02533 0.035688 0.015465 0.016616 0.038483 0.0087245 
0.042429 0.055747 0.044731 0.024015 0.032564 0.005765 0.027139 0.024344 
0.056733 0.040128 0.064461 0.017274 0.046704 -0.00031829 0.011848 -0.00097594 
0.026646 0.035853 0.023522 0.027139 0.016616 0.028783 0.024508 0.02533 
0.029934 0.05476 0.022864 0.019905 0.023522 0.028125 0.012999 0.026481 
0.027961 0.059035 0.013986 0.016781 0.032564 0.022206 -0.00097594 -0.030735 
0.025001 0.053774 0.045718 0.019905 0.045224 0.02533 0.044238 0.025988 
0.010369 0.037661 0.01415 0.025166 0.038483 0.0098754 0.034866 0.034537 
0.037826 0.037826 0.027303 0.022371 0.015301 0.026152 0.024508 0.025824 
0.031414 0.060679 0.02829 0.012177 0.03092 0.021056 0.026646 0.019905 
0.044567 0.053774 0.048841 0.021878 0.027961 0.013986 0.018425 0.043416 
0.051636 0.053609 0.055747 0.046046 0.052952 0.027961 0.038155 0.010697 
0.032893 0.043087 0.019083 0.025495 0.024837 0.029605 0.028454 0.033058 
0.041114 0.061337 0.031907 0.016945 0.029605 0.037168 0.033551 0.02681 
0.034537 0.043087 0.03536 0.0082312 0.014479 -0.0052507 0.044402 0.036017 
0.033551 0.046046 0.064296 0.032564 0.041278 0.014808 0.017932 0.014643 
0.046046 0.033222 0.027468 0.021056 0.049992 0.026974 0.010862 0.048019 
0.038319 0.032564 0.023522 0.023028 0.023522 0.037497 0.010697 0.014315 
0.039634 0.0056006 0.03388 0.032729 0.035195 0.030098 0.019083 0.026317 
0.015465 0.029934 0.047855 0.045718 0.03536 0.025495 0.041936 0.029112 
0.025001 0.042265 0.055418 0.032729 0.027961 -0.00064712 0.039305 0.026974 
0.030263 0.065612 0.019083 0.019576 0.017438 0.010369 0.028454 0.023686 
0.01563 0.052623 0.03092 0.040128 0.012999 0.035195 0.020233 0.020727 
0.031742 0.051801 0.048184 0.024179 0.030592 -0.00097594 0.021384 -0.0075525 
0.041607 0.031578 0.069393 0.01267 0.023522 0.013328 0.02681 0.015137 
0.033387 0.036675 0.026646 0.016781 0.032893 0.02533 0.04654 0.020398 
0.089945 0.044402 0.034044 0.03651 0.024015 0.014315 0.019576 0.014479 
0.1835 0.029605 0.045389 0.037168 0.013657 0.032893 0.014315 0.013164 
0.22 -0.00015387 0.063474 0.037168 0.01267 0.020562 0.013986 0.013492 
0.12069 0.025166 0.062323 0.018425 0.022042 0.022206 0.023193 0.012999 
-0.025309 0.069064 0.021713 0.067091 0.014808 0.024508 0.027139 0.028783 
-0.23477 0.12727 0.0039565 0.042923 0.027796 0.027139 0.044402 0.051636 
-0.38011 0.14782 0.011848 0.026646 0.026152 0.0324 0.054925 0.041278 
-0.26667 0.097837 0.05065 0.024673 0.041772 0.027468 0.044402 0.070708 
-0.060987 0.02533 0.0082312 0.029276 0.034702 0.016288 0.026974 0.018589 
0.11707 0.011684 0.036839 0.017274 0.019411 0.016452 0.018589 0.03651 
0.19221 0.010533 0.060679 0.0014903 0.019247 0.033715 0.020398 0.010204 
0.16344 0.02829 0.072846 0.024015 0.012999 0.020069 0.029934 0.026974 
0.12891 0.009711 0.054267 0.021549 0.034866 0.0028056 0.014808 0.019576 
0.099645 0.023028 0.030756 0.01974 0.0074092 0.011191 0.019576 0.035031 
0.065447 0.031578 0.021549 0.014972 0.0085601 0.033222 0.027468 0.023357 
0.061501 0.031742 0.031742 0.02829 0.012013 0.057227 0.029934 -0.0088678 
0.034702 0.057391 0.045389 0.054925 0.025988 0.02829 0.017767 0.030263 
0.032893 0.050157 0.024673 0.043745 0.031742 0.027139 0.05476 0.032236 
0.012342 0.051965 0.010862 0.054267 0.021056 0.019083 0.034209 0.028947 
-0.025802 0.0324 0.025495 0.067749 0.022371 -0.00015387 0.041772 0.03388 
-0.0080457 0.03799 0.032893 0.050814 0.024015 0.039305 0.019247 0.040292 
0.013986 0.038319 0.021056 0.039305 0.051143 0.022535 0.014315 0.010862 
0.020233 0.071037 0.0060938 0.032564 0.027632 0.01826 0.01563 0.027468 
0.032893 0.069722 0.018425 0.037826 0.023851 0.016123 0.040292 0.021384 
0.01974 0.031742 0.040292 0.012506 0.010369 0.031085 0.026481 0.062323 
0.023851 0.023357 0.057884 0.0070803 0.025988 0.033058 0.0227 0.036839 
0.034866 0.048184 0.036839 0.0060938 0.030263 0.011848 0.038812 0.036182 
0.024508 0.076956 0.032236 0.026152 0.011355 0.011355 0.03388 0.023686 
0.015301 0.077614 0.036675 0.014315 0.023522 0.024508 0.040128 0.022206 
0.01711 0.047197 0.049499 0.010697 0.029934 0.036675 0.044402 0.026974 
0.043745 0.038319 0.029112 0.028783 0.037661 0.044073 0.041607 0.01826 
0.03799 0.020069 -0.010019 0.053116 0.028454 0.021384 0.024015 0.017438 
0.041936 0.030756 -0.013471 0.037168 0.016616 0.019083 0.038483 0.040292 
0.019576 0.051965 0.00099702 0.035688 0.015465 0.016123 0.011355 0.036346 
0.018754 0.048513 0.029605 0.047362 0.033058 0.027961 0.021056 0.037168 
0.024179 0.041114 0.027961 0.055418 0.05065 0.019905 0.030427 0.049664 
0.036346 0.028619 0.033222 0.034209 0.028947 0.0080668 0.03799 0.042429 
0.060844 0.042429 0.056569 0.019576 0.02533 0.033387 0.020891 0.015465 
0.051636 0.062323 0.08419 0.07038 0.029441 0.025988 0.016452 0.025988 
0.047855 0.042594 0.037332 0.066763 0.033222 0.045553 0.011191 0.022371 
0.048019 0.035688 0.038155 0.043087 0.042758 0.0324 0.017438 0.028619 
0.061501 0.019083 0.054596 0.013821 0.035524 0.010533 0.033551 0.038812 
0.031249 0.019083 0.073175 0.014643 0.012177 0.025001 0.026481 0.020069 
0.031907 0.043745 0.084519 0.0059294 0.020069 0.022042 0.034866 0.023522 
0.041114 0.045882 0.029276 0.0088889 0.03092 0.030756 0.018918 0.020233 
0.035853 0.048184 0.018918 0.005765 0.019247 0.018754 0.020069 0.019576 
0.0227 0.034044 0.0031344 0.060515 0.026152 0.033715 0.042265 0.0075736 
0.034373 0.038977 -0.008539 0.030756 0.026481 0.025166 0.03388 0.028125 
0.049335 0.020398 -0.032708 0.020233 0.052952 0.0011614 0.10277 0.0054362 
0.048019 0.048184 -0.014458 0.012013 0.029276 0.03388 0.018918 0.034866 
0.05213 0.029769 0.018096 0.031085 0.012177 0.020069 0.017932 0.010862 
0.042265 0.038977 0.049499 0.020398 0.040128 -0.016266 1.0539e-005 0.029769 
0.042429 0.047197 0.064296 0.020562 0.029934 0.01826 0.012013 0.023357 
0.059528 0.049335 0.056898 0.0227 0.034866 0.031742 0.045718 0.044073 
0.047362 0.06479 0.036182 0.038483 0.017932 0.034044 0.035031 0.017767 
0.056733 0.059528 0.053938 0.032071 0.020562 0.009711 0.03799 0.03651 
0.028947 0.039963 0.068407 0.013821 0.026152 0.016781 0.024508 0.021056 
0.0047785 0.023193 0.023028 0.036675 0.038977 0.0227 0.032564 0.03092 
0.024015 0.027961 0.043909 0.033715 0.037826 0.027468 0.021549 0.017438 
0.017438 0.07449 0.038155 0.020727 0.020562 0.02533 0.032236 0.029605 
0.014972 0.053774 0.047362 0.03651 0.025988 0.014479 0.076299 0.027632 
0.02681 0.050814 0.048677 0.027468 0.019083 0.010697 0.031907 0.021878 
0.03651 0.04095 0.031414 0.033387 0.034044 0.040785 0.027632 0.044073 
0.027961 0.037826 0.018918 0.020069 0.01563 0.028947 0.014972 0.020727 
0.036675 0.062652 0.032071 0.026152 0.013328 0.010862 0.026974 0.0034632 
0.027961 0.061666 0.045718 0.049828 0.025988 0.01267 0.028783 0.022864 
0.028454 0.044073 0.0082312 0.025824 0.042923 0.023522 0.043745 0.021713 
0.042429 0.021713 0.022864 0.0028056 0.035524 0.028125 0.034537 0.018425 
0.048677 0.028947 0.030098 0.016288 0.030756 0.032236 0.033387 0.036182 
0.018754 0.046211 0.04506 0.062981 -0.00064712 -0.0019624 0.029112 -0.00064712 
0.020562 0.066105 0.0421 0.013164 0.024179 0.020727 0.024015 0.026152 
0.023686 0.050157 0.016945 -0.0050863 0.023522 -0.0044286 0.025166 0.016616 
0.027632 0.042429 0.025001 0.013164 0.013492 0.036839 0.041443 0.045553 
0.02829 0.029112 0.028125 0.033058 0.00050378 0.036839 0.035524 0.050814 
0.023851 0.027468 0.054103 0.0018191 0.026152 0.015137 0.032071 0.031414 
0.029605 0.033715 0.0013258 0.011684 0.017767 0.01267 0.022864 0.01267 
0.017438 0.048184 0.012013 0.027303 0.013821 0.027468 0.020562 0.046375 
0.020891 0.036675 0.01563 0.051308 0.02533 0.034373 0.026481 0.027303 
0.036675 0.044402 0.030756 0.031578 0.025659 0.020562 0.027139 0.051308 
0.041278 0.047691 0.013492 0.026152 0.036017 0.025001 0.026317 0.031085 
0.043251 0.046704 -0.011005 0.040456 0.03651 0.020398 0.018918 0.035031 
0.03092 0.051965 0.0087245 0.029934 0.0227 0.018918 0.027303 0.035195 
0.0065871 0.031085 0.037332 0.021878 0.037661 0.046046 0.016945 0.037004 
0.034044 0.031742 0.061008 0.017274 0.030592 0.024837 0.014972 0.028619 
0.033387 0.029934 0.018589 0.052952 0.068571 0.033387 0.059693 0.02533 
0.016288 0.044402 0.017438 0.047526 0.046375 0.017932 0.035031 0.035524 
0.019247 0.069229 0.013164 0.027796 0.024837 0.029605 0.032729 0.020727 
0.0087245 0.037004 -0.018897 0.032893 0.051801 0.0093821 -0.02646 0.039799 
0.013657 0.040456 0.011026 0.043745 0.028454 0.01711 0.01563 0.017603 
0.022864 0.036182 0.020727 0.013328 0.021713 -0.00064712 0.01152 0.019083 
0.02533 0.046211 0.020727 0.0095465 0.011848 0.012177 0.031742 0.025988 
0.023522 0.045718 0.035524 0.045882 0.025166 0.025001 0.028125 0.039305 
0.027796 0.067749 0.049006 0.060844 0.018754 0.019247 0.025824 0.030263 
0.028619 0.04358 0.03799 0.034209 0.063968 0.011684 0.017767 0.035195 
0.05065 0.031578 0.037661 0.029276 0.024508 0.019083 0.017932 0.027632 
0.038483 0.029769 0.057884 0.033551 0.022042 0.01711 0.01826 0.04358 
0.028947 0.030756 0.089287 0.040456 -0.0096899 0.040456 0.042265 0.037826 
0.03799 0.053281 0.044238 0.028619 0.023522 0.02829 0.037497 0.042429 
0.0087245 0.054925 0.013657 0.042594 0.019576 0.017274 0.033387 0.036346 
0.018096 0.049828 0.018425 0.048184 0.02533 0.013492 0.013821 0.051636 
0.017274 0.039634 0.054925 0.069558 0.044896 0.025659 0.032071 0.037497 
0.029769 0.034209 0.070544 0.029769 0.02533 0.03388 0.023028 0.033551 
0.017932 0.057391 0.041607 0.0056006 0.013657 0.036839 0.066763 0.024015 
0.020891 0.049992 0.05065 0.048019 0.022042 0.01563 0.029441 0.024015 
0.032564 0.036839 0.034209 0.038155 0.01563 0.015959 0.010204 0.030756 
0.038977 0.01563 0.041936 0.058049 0.050486 0.0080668 0.004943 0.0065871 
0.041936 0.035853 0.0070803 0.02829 0.033058 0.025659 0.014808 0.022206 
0.048841 0.047033 -0.0022913 0.064461 0.019905 0.0021479 0.026152 0.018096 
0.031414 0.055254 0.017274 0.028783 0.03092 0.020069 0.042429 0.02533 
0.0011614 0.055418 0.051965 0.018754 0.023193 0.021713 0.048348 0.031742 
0.017767 0.046375 0.042594 0.023851 0.01152 0.035524 0.033222 0.032564 
0.019905 0.019083 0.029112 0.066269 0.019247 0.022535 0.013821 0.030756 
0.040456 0.032729 0.034373 0.030427 0.018918 0.01563 0.015301 0.025988 
0.038977 0.038483 0.0421 0.026481 0.016781 0.013492 0.017767 0.025166 
0.026481 0.03651 0.056733 -0.0024557 0.033222 0.021878 0.0085601 0.032071 
0.026646 0.038483 0.0324 0.045882 0.035688 0.037497 0.032071 0.025988 
0.023193 0.0079024 0.017603 0.025988 0.045882 0.049006 0.029605 0.027303 
0.019247 0.035195 0.025988 0.023851 0.026152 0.013328 0.01974 0.013986 
0.029769 0.065283 0.056569 0.01152 0.007738 0.0088889 0.023193 0.031742 
0.029605 0.048677 0.035853 0.036839 0.013328 0.017932 0.018589 0.021713 
0.039799 0.045389 0.054267 0.015959 0.052623 0.033058 0.039799 0.044731 
0.046211 0.03092 0.047691 0.023522 0.017438 0.025659 0.041772 0.026646 
0.06479 0.034866 0.038812 0.047197 0.022206 0.016452 0.026646 0.024508 
0.070708 0.062323 0.071202 0.013986 0.03092 0.012506 0.016781 0.019576 
0.041936 0.043251 0.015137 0.024673 0.028125 0.032071 0.025659 0.02681 
0.027139 0.042265 0.0064227 0.0082312 0.016123 0.024179 0.0023123 0.00050378 
0.023686 0.017767 0.034044 0.03536 0.021056 0.025988 0.034866 0.018589 
0.032729 0.024179 0.067913 0.017603 -0.0057439 0.017438 0.033222 0.036017 
0.02681 0.043745 0.025659 0.0037921 0.024508 0.014808 0.025988 0.015301 
0.026317 0.025988 0.0062583 0.011848 0.036839 0.025659 0.0052718 0.033387 
0.03092 0.047033 0.021384 0.041443 0.027961 0.034866 0.018754 0.021713 
0.04358 0.037332 0.029276 0.018589 0.012342 0.028619 0.01152 0.03651 
0.054432 0.0098754 0.061666 0.011848 0.031249 0.023193 0.040621 0.028619 
0.033058 0.048184 0.0051074 0.017274 0.026646 0.0085601 0.040128 0.036839 
0.025659 0.065118 0.01267 0.023686 0.054267 0.049006 0.025001 0.040128 
0.011355 0.058377 0.025659 0.014808 0.012506 0.033058 0.034866 0.049992 
-0.0004827 0.054103 0.047691 0.016616 0.0041209 0.011355 0.028454 0.053116 
0.019905 0.036346 0.011684 0.024344 0.022371 0.0074092 0.011684 0.043909 
0.023193 0.052459 0.021549 0.043745 0.045718 0.0011614 0.037168 0.026646 
0.029441 0.047033 0.0082312 0.018754 0.038155 0.041114 0.038483 0.036839 
0.028125 0.061337 0.03651 0.01563 0.020398 0.024179 0.026974 0.017932 
0.034044 0.039963 0.038319 0.018589 0.024508 0.039963 0.030756 0.016781 
0.027468 0.03092 0.013986 0.03388 0.033058 0.023028 0.016945 0.021549 
0.03651 0.013657 0.027632 0.02829 0.063639 0.03092 0.022371 0.046868 
0.041278 0.040621 0.030427 0.026974 0.020562 0.037826 0.039141 0.020398 
0.059857 0.065776 0.050157 0.04654 0.022535 0.03092 0.04654 0.032893 
0.041607 0.050979 0.019083 0.024508 0.026317 0.016123 0.034373 0.028619 
0.049006 0.034537 0.019905 0.018096 0.042265 0.025495 0.029769 0.02829 
0.035688 0.04358 0.024673 0.010533 0.033222 0.031578 0.016288 0.040785 
0.028125 0.04506 0.048019 0.035524 0.027139 0.024673 0.016945 0.019905 
0.051636 0.024837 0.016123 0.032893 0.018425 0.011355 -0.00081153 0.037004 
0.020233 0.03799 0.024344 0.02122 0.0421 0.023522 0.041278 0.021384 
0.041443 0.022864 0.041278 0.026317 0.049499 0.0079024 0.03388 0.035853 
0.036182 0.028454 0.056569 0.046375 0.013986 0.03799 0.026974 0.017767 
0.046211 0.013328 0.052787 0.023522 0.042265 0.013164 0.0056006 0.025166 
0.042429 0.042923 0.011684 0.023686 0.026317 0.012177 0.0095465 0.012342 
0.018096 0.065283 0.023028 0.020891 0.052952 0.0092177 0.018096 0.042265 
0.024015 0.052459 0.025824 0.051308 0.040292 0.012013 0.036839 0.029605 
0.036346 0.041114 0.057062 0.01974 0.020891 0.031907 0.029441 0.039305 
0.046704 0.041278 0.01711 0.020233 0.01152 0.017274 0.0090533 0.0324 
0.035688 0.040456 0.021056 0.024673 0.026317 0.011355 0.018425 0.044073 
0.059693 0.072024 0.034702 0.034209 0.015465 0.0074092 0.016123 0.027303 
0.023522 0.05772 0.054596 0.022206 0.014315 0.022371 0.023193 0.042429 
0.011684 0.031578 0.050321 0.041443 0.0019835 0.010369 0.031907 0.053609 
0.02533 0.028619 0.03388 0.054267 0.029769 0.023522 0.025659 0.032071 
0.051472 0.037826 0.022864 0.053938 0.078436 0.032729 0.022535 0.021878 
0.021878 0.050814 0.037826 0.016452 0.01711 0.017932 0.021878 0.025495 
0.012177 0.057884 0.054596 0.013492 0.024015 0.025495 0.036839 0.028125 
0.013328 0.037332 0.044402 0.065776 0.038977 0.014972 0.070873 0.044896 
0.016452 0.047691 0.028454 0.028619 0.025495 0.025824 0.044731 0.032564 
0.022206 0.03536 0.024179 0.018425 0.046868 0.021056 0.027139 -0.013471 
0.022371 0.036675 0.052294 0.020233 0.015794 0.014972 0.01711 0.027961 
0.051143 0.048348 0.032564 0.053281 0.0227 0.029605 0.034044 0.035853 
0.050814 0.043251 0.026646 0.031907 0.02681 0.024673 0.022371 0.027303 
0.04358 0.039963 0.015301 0.028947 0.037004 0.022864 0.016288 0.022206 
0.019411 0.0421 0.053938 0.030098 0.026481 0.0090533 0.043745 0.03536 
0.0324 0.049006 0.06479 0.052623 0.029934 0.0093821 0.041772 0.0324 
0.073997 0.089287 0.0060938 0.009711 0.010862 0.025659 0.032893 0.051472 
0.028783 0.061666 0.033058 0.020069 0.027632 0.010697 0.016288 0.025001 
0.06035 0.036017 0.036017 0.014479 0.03388 0.010204 0.0083956 0.028619 
0.13056 0.019576 0.053281 0.039634 0.018754 0.010697 0.016781 0.0074092 
0.15752 0.012506 0.04095 0.033715 -0.011334 0.030756 0.051143 0.0227 
0.12644 0.020891 0.037497 0.031414 0.03947 0.024344 0.027468 0.01711 
0.063803 0.042758 0.02829 0.012835 0.044731 0.030263 0.029441 0.027303 
-0.11031 0.060515 0.049006 0.023522 0.016123 0.022042 0.034702 0.031742 
-0.32717 0.1008 0.031907 0.0227 0.01415 0.029112 0.039963 0.0786 
-0.28854 0.13351 0.013657 0.040292 0.011684 0.057884 0.03947 0.082382 
-0.072496 0.085835 0.025001 0.034866 0.036182 0.031249 0.044073 0.044567 
0.11214 0.068736 0.029934 0.024508 0.044731 0.012506 0.043745 0.012342 
0.17133 0.0227 0.055089 0.020727 0.023851 0.005765 0.022042 0.0041209 
0.14256 -0.0013048 0.016616 0.038648 0.020069 0.010697 -0.0075525 0.020891 
0.12529 0.019411 0.0095465 0.072681 0.034373 0.020727 0.01004 0.0085601 
0.085999 0.029605 0.016288 0.031578 0.041772 0.020727 0.019083 0.015465 
0.059528 0.044402 0.046046 0.015465 0.028947 0.022206 0.02122 0.0095465 
0.040785 0.038319 0.039799 0.014643 0.020727 0.019905 0.032564 0.028454 
0.010533 0.04358 0.03388 0.026974 0.01152 -0.008539 0.029112 0.028125 
0.023851 0.034537 0.024837 0.023028 0.036346 0.026974 0.033715 0.037661 
0.024837 0.068242 0.027632 0.037497 0.043251 0.016288 0.02681 0.027796 
0.022206 0.061995 0.041607 0.048841 0.034373 0.021384 0.025001 0.034373 
0.031907 0.05772 0.012177 0.077449 0.035031 -0.0011404 0.03947 0.029112 
0.027632 0.034866 0.022535 0.027139 0.022042 0.030427 0.047526 0.023686 
0.037661 0.031742 0.04358 0.025495 0.042758 0.03536 0.02681 0.023028 
0.01711 0.027796 0.063145 0.030592 0.022864 0.017438 0.023522 0.024673 
0.01711 0.040128 0.03092 0.025001 0.020233 0.02122 0.019247 0.02829 
0.025659 0.0592 0.0056006 0.0092177 0.025495 0.01267 0.022535 0.03651 
1.0539e-005 0.04506 0.013492 0.019247 0.034537 0.031742 0.032071 0.031249 
0.0034632 0.044402 0.049664 0.01711 0.058213 0.037826 0.028783 0.050486 
0.018096 0.03947 0.042758 0.031414 0.012177 0.020398 0.033222 0.024344 
0.010697 0.06479 -0.029091 0.025824 0.022371 0.048841 0.033715 0.019083 
0.029769 0.053281 0.0019835 0.013492 0.01152 0.030592 0.031578 0.018589 
0.049992 0.047691 0.017767 0.040621 0.032564 0.043909 0.044567 0.026317 
0.040292 0.031414 0.051965 0.034044 0.031578 0.017438 0.026974 0.021549 
0.041114 0.020727 0.013328 0.019411 0.02533 0.0093821 0.035031 0.033551 
0.062159 0.053445 0.035195 0.018589 0.035031 -0.0011404 0.020233 0.048513 
0.059364 0.053281 0.016288 0.038155 0.030592 0.018918 0.027796 0.012999 
0.032071 0.072681 0.03799 0.016123 0.043251 0.04654 0.027632 0.018096 
0.045389 0.054432 0.016452 0.012177 0.014479 0.016781 0.018425 0.018754 
0.052952 0.042923 -0.022514 0.020069 0.0090533 0.029276 0.0056006 0.047362 
0.0324 0.046868 -0.0027845 0.040456 0.015959 0.02122 0.035688 0.028125 
0.030263 0.042758 0.022206 0.020069 0.035524 0.035853 0.037168 0.031742 
0.026317 0.059693 0.052787 0.017438 0.024837 0.035524 0.013821 -0.014951 
0.031907 0.041443 0.039634 0.0324 0.017438 0.028619 0.015959 0.033551 
0.026317 0.067091 0.056898 0.052623 0.0072447 0.039305 0.012999 0.005765 
0.028619 0.024344 0.039634 0.036182 0.019083 0.017438 0.020233 0.028783 
0.036182 0.038812 0.051801 0.030427 0.032564 0.028947 0.03092 0.01152 
0.051308 0.05476 0.049499 0.049828 0.014643 0.021384 0.034209 0.033715 
0.050979 0.050486 0.028783 0.043909 0.027303 0.025824 0.044567 0.016452 
0.064625 0.024673 0.056404 0.027303 0.028619 0.021878 0.01826 0.027961 
0.067256 0.019576 0.074819 0.030592 0.03388 0.01826 0.024508 0.029934 
0.054267 0.029112 0.08978 0.048513 0.028125 0.03947 0.017603 0.023357 
0.039305 0.047691 0.025001 0.020562 0.018589 0.020398 0.041443 0.012506 
0.0227 0.076299 -0.015444 -0.011992 0.015794 0.029934 0.024837 0.03388 
0.028947 0.041278 -0.0073881 0.0041209 0.01974 0.028125 0.019411 0.030098 
0.017438 0.03388 0.014479 0.035031 0.049006 0.029769 0.031414 0.018754 
0.019247 0.037168 0.022371 0.011355 0.022206 0.029769 0.011848 0.02533 
0.024344 0.041278 0.015301 0.0059294 0.024015 0.030756 0.016288 0.0042853 
0.026152 0.068078 0.023522 0.020398 0.018096 0.019905 0.03799 0.02681 
0.045882 0.060679 0.04358 0.045224 0.017274 0.010697 0.031907 0.026317 
0.027303 0.042429 0.065612 0.023028 0.041936 0.023522 0.032564 0.034702 
0.041936 0.040292 0.030427 0.017932 0.01826 0.027303 0.020727 0.021713 
0.03651 0.019905 0.024508 0.019247 0.015137 0.011684 0.021384 0.039305 
0.036675 0.066105 0.044567 0.041772 0.023686 0.0090533 0.028454 0.012013 
0.044567 0.058871 0.053445 0.038319 0.033387 0.024179 0.040621 0.036839 
0.027632 0.053609 0.042923 0.028619 0.034044 0.039799 0.033715 0.021384 
0.015794 0.01563 0.047526 0.06183 0.017274 0.029934 0.027961 0.043745 
0.017438 0.034209 0.029441 0.044073 0.024015 0.023686 0.010697 0.018918 
-0.0055795 0.033715 0.048677 0.030592 0.031907 0.012506 0.021384 0.033551 
0.016616 0.051308 0.052459 0.026974 0.055911 0.013328 0.062488 0.009711 
0.016781 0.034373 0.022206 0.047197 0.03092 0.046046 0.050321 0.029112 
0.029605 0.018918 0.018918 0.046375 0.032729 0.031907 0.029276 0.025659 
0.041936 0.033058 0.038977 0.018589 0.037332 0.032564 0.030263 0.027961 
0.031414 0.047526 0.052294 0.024673 0.029605 0.031907 0.01974 0.013986 
0.030098 0.059364 0.017438 0.044567 0.024837 0.019576 0.025824 0.018096 
0.03947 0.051636 0.026974 0.024344 0.034537 0.020069 -0.0047575 0.029112 
0.021713 0.046868 0.017274 0.014643 0.03651 0.016616 0.033058 0.028947 
0.011355 0.038483 0.042594 -0.013143 0.038648 0.012177 0.037168 0.0324 
0.013164 0.047691 0.057227 0.051636 0.039799 0.015137 0.033715 0.029276 
0.01563 0.053938 0.034044 0.017603 0.019576 0.029276 0.020398 0.03651 
0.01004 0.052952 0.030592 0.020562 0.022864 0.016288 0.013821 0.018096 
0.016781 0.037497 0.030427 0.020891 0.031414 0.013164 0.0095465 0.038483 
0.020233 0.026481 0.078765 0.044238 0.060022 0.010204 0.027632 0.037332 
0.016452 0.03947 0.0088889 0.026646 0.03536 0.015137 0.042429 0.036017 
0.022535 0.051143 0.0090533 0.027796 0.013492 0.035524 0.022864 0.019905 
0.01711 0.068242 0.0026412 0.03536 0.0227 0.033387 0.02533 0.038977 
0.01415 0.056076 0.061666 0.034702 0.02681 0.028783 0.032564 0.026152 
0.025659 0.047855 0.033551 0.024673 0.033058 0.047197 0.017767 0.025659 
0.027961 0.046704 0.019247 0.021878 0.018425 0.026317 0.034044 0.01974 
0.029769 0.0023123 0.017767 0.041607 0.0047785 0.012177 0.041443 0.044896 
0.028947 0.054267 0.03536 0.025988 0.032236 0.018425 0.034044 0.030756 
-0.0031133 0.044731 0.046375 0.022864 0.037332 0.0039565 0.0227 0.037168 
0.020562 0.035688 0.014315 0.023522 0.045882 0.01563 0.015959 0.028947 
0.0028056 0.046375 0.015137 0.046046 0.019905 0.024179 0.018589 0.025988 
0.020562 0.037332 0.011355 0.034537 0.014808 0.026646 0.031085 0.024344 
0.027139 0.029605 0.040785 0.030098 0.028947 0.0075736 0.034866 0.015137 
0.036017 0.068407 0.029276 0.020398 0.053116 -0.014951 0.023851 0.020562 
0.03799 0.053609 0.027139 0.034866 0.018589 0.010862 0.024673 0.028125 
0.017603 0.018425 0.0324 0.027961 0.013164 0.011355 0.015137 0.035195 
0.035031 0.027468 0.05476 0.016945 0.013821 0.01826 0.031249 0.023686 
0.048184 0.041772 0.066763 0.017603 0.034044 0.020233 0.037168 0.022371 
0.048348 0.044073 0.02533 0.048841 0.047362 0.031414 0.035853 0.039141 
0.036017 0.053774 0.0087245 0.029605 0.026646 0.024344 0.028783 0.056898 
0.013986 0.06035 -0.0070593 0.035195 0.049664 0.037661 0.026974 0.036182 
0.0054362 0.078436 0.00297 0.028783 0.032893 0.028783 0.0090533 0.047691 
0.018754 0.058542 -0.011498 0.050321 0.023851 0.021056 0.029934 0.015794 
0.045882 0.064132 0.00297 0.019576 0.018096 0.0079024 0.038648 0.031085 
0.054596 0.04095 0.034373 0.014972 -0.022843 0.058049 0.016123 0.0098754 
0.037332 0.023028 0.057555 0.032236 0.012999 0.028947 0.041772 0.034373 
0.065776 0.00297 0.062323 0.037661 0.026646 0.019905 0.023028 0.026974 
0.045882 0.023357 0.053609 0.027961 0.033222 0.022371 0.01152 0.039634 
0.042758 0.062159 0.04358 0.037826 -0.0068948 0.028619 0.029934 0.024015 
0.031907 0.050157 0.0421 0.053938 0.018589 0.013492 0.027468 0.041443 
0.030592 0.054925 0.079916 0.029934 0.015959 0.02533 0.046704 0.02681 
0.038812 0.049335 0.047033 0.020727 0.020562 0.019083 0.043745 0.022535 
0.039305 0.042923 0.040456 0.024179 0.015794 0.017274 0.026481 0.027139 
0.004943 0.03388 0.068736 0.056733 0.0059294 0.0227 0.027468 0.014808 
0.041278 0.042429 0.061995 0.028125 0.025824 0.017767 0.022042 0.022042 
0.06331 0.024508 0.081889 0.023357 0.021713 0.0227 0.020398 0.035853 
0.050979 0.027961 0.038648 0.022535 0.034209 0.022371 0.039305 0.025166 
0.031249 0.039305 0.035688 0.042758 0.037004 -0.0029489 0.023851 0.025824 
0.01711 0.036675 0.01826 0.032236 0.01415 0.019905 0.026317 0.033222 
0.0083956 0.060844 0.028619 0.024508 0.021878 0.032564 0.014808 0.023357 
0.017767 0.064296 -0.010676 0.040456 0.032071 0.041443 0.0047785 0.036182 
0.01974 0.047855 0.0095465 0.035524 0.017603 0.016945 0.017932 0.029769 
0.041443 0.04358 0.044402 0.027632 0.010204 0.01711 0.040621 0.047362 
0.047855 0.039799 0.047197 0.011355 0.024673 0.013492 0.037004 0.025659 
0.062817 0.048677 0.035688 0.011355 0.026646 0.020398 0.010369 0.013328 
0.049006 0.074983 0.01974 0.031085 0.035688 0.032893 0.019905 0.025166 
0.035195 0.064296 0.028125 0.030427 0.028454 0.024673 0.016616 0.0324 
0.017438 0.041772 0.03651 0.030592 0.022864 0.023357 0.017603 0.027303 
0.034209 0.011026 0.059693 0.040785 0.023522 0.021549 0.039963 0.040292 
0.036839 0.014972 0.032729 0.051472 0.037497 0.027961 0.035195 0.024508 
0.037826 0.040785 0.03536 0.03799 0.031085 0.020891 0.027139 0.023028 
0.01711 0.030263 0.044402 0.030263 0.0087245 0.019576 0.025988 0.019247 
0.033715 0.038648 0.04917 0.048348 0.0227 0.024179 0.024015 0.029605 
0.035853 0.046211 0.045224 0.026481 0.029934 0.010533 0.019411 0.035031 
0.014808 0.032893 0.023357 0.016123 0.030098 0.030263 0.042923 0.023522 
0.022206 0.06331 0.040785 0.016288 0.012999 1.0539e-005 0.036346 0.028619 
0.046375 0.047197 0.03947 0.044073 0.021713 0.019411 0.026974 0.025988 
0.056076 0.034373 0.061501 0.020398 0.034373 0.020562 0.027961 0.035524 
0.052623 0.026317 0.038319 0.025824 0.04917 0.017603 0.047855 0.024837 
0.031085 0.031742 0.027468 0.00033937 0.026974 0.022371 0.014643 0.026481 
0.04095 0.058213 0.022371 0.034373 0.021878 0.013657 0.039305 0.018425 
0.019905 0.060679 0.036182 0.018096 0.027303 0.023028 0.053609 0.036675 
0.029605 0.072024 0.023357 0.02681 0.036839 0.040621 0.037661 0.01415 
0.034373 0.04358 0.01152 0.033058 0.044073 0.031578 0.029276 0.024179 
-0.023994 0.070215 -0.0040998 0.06742 0.054596 0.020069 0.031249 0.039141 
0.0034632 0.065283 0.01826 0.037661 0.022371 0.025659 0.032729 0.034044 
-0.016431 0.079916 0.042594 0.027796 0.027632 0.01004 0.030756 0.030756 
0.013328 0.050486 0.034702 0.040292 0.0054362 0.0062583 0.022042 0.012506 
0.041607 0.023028 0.038319 0.018425 0.012999 0.032893 0.028454 0.010862 
0.039305 0.011191 0.034373 -0.0078813 0.017274 0.040621 0.0082312 0.02681 
0.047855 0.02829 0.026481 0.023851 0.028947 0.016123 0.012013 0.029769 
0.044567 0.040292 -0.024816 0.045718 0.025001 0.019247 0.0227 0.031907 
0.0324 0.023851 -0.013307 0.054925 0.062817 0.020233 0.036017 0.026646 
0.053116 0.021713 0.014972 0.0083956 0.004943 0.048348 0.042429 0.034702 
0.035031 0.044896 0.037661 0.016945 0.026481 0.030263 0.026481 0.031085 
0.015794 0.043251 0.062323 0.033715 0.027796 0.017274 0.026481 0.020233 
0.028783 0.050486 0.031742 0.013492 0.037661 0.0082312 0.036017 0.029276 
0.034537 0.056733 0.026152 0.020562 0.012506 0.029276 0.01004 0.012999 
0.024508 0.057062 0.036017 0.03388 0.012835 0.035195 0.027303 0.015794 
0.034866 0.042758 0.049499 0.047197 0.01563 0.026152 0.028947 0.01826 
0.038977 0.047197 0.028454 0.015794 0.031742 0.01711 0.028619 0.018918 
0.020233 0.042758 0.015959 0.027303 0.049499 0.0227 0.024344 0.017932 
0.0095465 0.069886 0.015959 0.042594 0.043909 0.034209 0.040128 0.038319 
0.020891 0.056076 0.011026 0.037168 0.014808 0.037168 0.027796 0.042923 
0.02829 0.04917 0.034866 0.027468 0.016616 0.018425 0.028619 0.051143 
0.040292 0.044896 -0.00031829 0.031578 0.049499 0.018918 0.029769 0.029605 
0.047855 0.033058 0.020233 0.053281 0.038977 0.018589 0.03092 0.033715 
0.023851 0.047526 0.023686 0.063474 0.055089 0.022371 0.025659 0.027303 
0.021056 0.047197 0.056076 0.023193 0.037826 0.022864 0.020398 0.03651 
0.0083956 0.024837 0.023028 -0.009361 0.035853 0.0075736 0.037661 0.027468 
0.031414 0.026974 0.034044 0.014643 0.037004 0.019247 0.025166 0.041278 
0.021549 0.017767 0.052294 0.010862 0.020562 0.016945 0.035524 0.027139 
0.010204 0.041607 0.046375 0.012999 0.01267 0.034537 0.032071 0.020562 
0.021549 0.057391 0.039634 0.0062583 0.021549 0.022371 0.031085 0.02533 
0.028947 0.039634 0.0070803 0.062817 0.028454 0.01974 0.026646 0.045882 
0.039141 0.027796 0.019905 0.035031 0.033058 0.016288 0.023193 0.027139 
0.03651 0.033058 0.020398 0.034537 0.020727 0.0324 0.013986 0.036017 
0.064625 0.037004 0.053609 0.020398 0.025988 0.040292 0.037497 0.03092 
0.15719 0.065776 0.033222 0.040621 0.030592 0.014479 0.022864 0.025495 
0.22246 0.005765 0.037826 0.01267 0.0421 0.01711 0.015465 0.00099702 
0.22033 -0.0011404 0.060844 -0.00031829 0.034373 0.0024767 0.023686 0.0070803 
0.093891 0.026974 0.06183 0.01711 0.017274 0.021549 0.024673 0.019411 
-0.10275 0.085999 0.035195 0.048513 0.026974 0.033387 0.036182 0.030098 
-0.30383 0.13664 0.005765 0.031249 0.057555 0.043251 0.052787 0.065776 
-0.34246 0.14174 -0.0019624 0.026481 0.033058 0.032236 0.034209 0.073339 
-0.19498 0.076792 0.025988 0.036839 0.029605 0.036675 0.016288 0.047691 
0.029934 0.021056 0.061008 0.032893 0.028783 0.041114 0.015301 0.029441 
0.14486 -0.016266 0.034537 -0.0070593 0.018096 0.038483 0.033715 0.024508 
0.16064 0.023193 0.026974 0.016945 0.029769 0.030098 0.017274 0.00050378 
0.13812 0.03388 0.033058 0.037826 0.025988 0.021384 0.05772 0.016288 
0.12201 0.025824 0.058049 0.03947 0.029934 0.0065871 0.031414 0.0092177 
0.10392 0.010533 0.049006 0.010533 0.026974 0.025495 0.0227 0.03388 
0.081889 0.024344 0.044238 0.011684 0.042429 0.010204 0.018918 0.024179 
0.043416 0.040456 0.029769 0.03799 0.026481 0.016781 0.01152 0.02122 
0.005765 0.052952 0.012342 0.010204 0.028783 -0.011498 0.014972 0.014643 
0.016945 0.061666 0.035853 0.012835 0.0083956 0.013986 0.043745 0.034866 
0.011191 0.056898 0.0060938 0.024015 0.021384 0.037332 0.032236 0.014808 
0.0072447 0.036839 -0.0036066 0.033715 0.033551 0.025659 0.01563 0.032893 
0.013164 0.027632 0.025988 0.036839 0.0080668 -0.004593 0.011684 0.051472 
0.0079024 0.069722 0.051636 0.029112 0.010697 0.0070803 0.028619 0.023522 
0.0036276 0.066105 0.040128 0.043251 0.025659 0.024837 0.022864 0.034044 
0.0042853 0.05065 0.056404 0.0689 0.019083 0.021713 0.029934 0.016288 
0.01415 0.037661 0.061501 0.038155 0.024344 0.018096 0.040785 0.025495 
0.014479 0.0014903 0.087808 0.046046 0.024015 0.01711 0.030592 0.024179 
0.027139 0.041278 0.077285 0.034537 0.027468 0.015959 0.03092 0.036182 
0.028947 0.047033 0.034537 0.049499 0.032729 0.028619 0.029276 0.053938 
0.029769 0.040128 0.057555 0.021056 0.026481 0.033222 0.020562 0.037004 
0.015959 0.042758 0.074161 0.027796 0.0037921 0.021878 0.02681 0.029769 
0.023851 0.026974 0.099316 0.029276 0.013164 0.010533 0.026481 0.033551 
0.018918 0.0324 0.027632 0.029276 0.024015 0.017603 0.037497 0.012835 
0.02533 0.054925 0.0052718 0.016452 0.025988 0.0098754 0.035031 0.045224 
0.020398 0.044402 -0.02235 0.01415 0.01974 0.033058 0.029605 0.018425 
0.02829 0.032893 0.01152 0.030427 0.0051074 0.012177 0.032071 0.032071 
0.039305 0.02533 0.015794 0.010533 0.016616 0.010369 0.033387 0.026317 
0.056898 0.027303 0.038648 0.027468 0.024344 0.012013 0.01563 0.029605 
0.058049 0.063639 0.025988 0.01826 0.031414 0.029769 0.018425 0.01974 
0.055254 0.05213 0.037168 0.066269 0.025988 0.022206 0.024837 0.028125 
0.052459 0.039141 0.049499 0.049664 0.021549 0.023851 0.0079024 0.027796 
0.053116 0.024344 0.0019835 0.021056 0.021549 0.0227 0.0059294 0.034044 
0.043745 0.025166 0.015959 0.0069159 0.035195 0.019576 0.018425 0.013657 
0.048513 0.031742 0.027961 0.045553 0.014479 0.032236 0.046868 0.015301 
0.046211 0.045882 0.052459 0.014315 0.019905 0.051308 0.041607 0.043416 
0.029605 0.05213 0.025659 0.025659 0.023357 0.019905 0.023686 0.018918 
0.014479 0.04095 0.020069 0.0095465 0.034209 0.016616 0.016288 0.019247 
0.021056 0.015959 0.041936 0.053445 0.063639 0.013164 0.024673 0.027139 
0.01004 0.021384 0.046046 0.035195 0.027961 0.032236 0.027468 0.04917 
-0.010019 0.053774 0.075805 0.015465 0.027139 0.031742 0.038648 0.029441 
0.010862 0.048513 0.05624 0.035853 0.03799 0.020727 0.027303 0.039799 
0.061008 0.051636 0.037661 0.025166 0.04654 0.0062583 0.010862 0.00033937 
0.08008 0.034373 0.029441 0.027961 0.023851 0.007738 0.018425 0.028783 
0.080573 0.0064227 0.069393 0.030263 0.017438 0.027632 0.044238 -0.01939 
0.061995 0.03092 0.03092 0.043745 0.026481 0.034209 0.02681 0.031085 
0.055582 0.062652 0.03092 0.038155 0.028454 0.028619 0.044896 0.025166 
0.038155 0.045389 0.046704 0.038319 0.053609 0.01826 0.034209 0.032564 
0.016781 0.071037 0.053445 0.033551 0.037826 0.020891 0.020069 0.03651 
0.033222 0.069393 0.017274 0.089287 0.046046 0.042594 0.017767 0.031578 
0.031414 0.069393 -0.017582 0.063803 0.0421 0.020069 0.024508 0.023028 
0.038977 0.075805 -0.027775 0.047526 0.0786 0.020069 0.013492 0.025824 
0.020891 0.027961 -0.011827 0.0034632 0.026481 0.017438 0.043087 0.022864 
0.020233 0.045718 0.035031 0.018425 0.0037921 -0.001798 0.04358 0.021878 
0.026974 0.076792 0.0072447 -0.0060728 0.0036276 0.027303 0.021549 0.03388 
0.046868 0.11806 0.023193 -0.024816 0.027303 0.021878 0.01711 0.025824 
0.038977 0.13056 0.034866 -0.012814 0.017438 0.018589 0.018096 0.019247 
0.049828 0.11724 0.067091 0.026481 0.01826 0.0023123 0.012999 0.016452 
0.038648 0.085341 0.0093821 0.034537 0.017438 0.016781 0.033551 0.02122 
0.071531 0.03092 -0.0075525 0.035688 0.029276 0.036182 0.026152 0.015301 
0.12546 -0.029255 0.020069 0.024837 0.052294 0.024837 0.026317 0.024673 
0.15489 -0.063124 0.053938 0.043251 0.037826 0.019083 0.018754 0.016288 
0.12217 -0.05326 0.067749 0.025001 0.024837 0.025166 0.0079024 0.023686 
0.041936 -0.016266 0.048513 0.020562 0.015794 0.014972 0.014972 0.015301 
-0.094034 0.057227 0.031414 0.041936 0.035195 0.036346 0.047033 0.044567 
-0.30761 0.13006 0.0037921 0.051965 0.050321 0.036675 0.054596 0.071366 
-0.30169 0.16623 0.010204 0.034044 0.042758 0.019083 0.043251 0.077943 
-0.094527 0.13647 -0.0082102 0.02122 0.028125 0.021713 0.029441 0.048841 
0.083533 0.084519 0.015137 0.034209 0.032236 0.031907 0.018096 0.031578 
0.14864 0.063803 0.052787 0.011355 0.041607 0.041936 0.025495 0.0070803 
0.15407 0.04917 0.050486 -0.0055795 0.029769 0.021878 0.036017 0.015465 
0.1174 0.033387 0.070051 -0.023501 0.035195 0.029605 0.039305 0.019411 
0.093398 0.036182 0.032564 0.037497 0.024015 0.021384 0.042429 0.024508 
0.070215 0.0065871 0.0067515 0.029276 0.028783 0.019905 0.022535 0.025001 
0.044073 0.0037921 0.033222 0.030263 0.035853 0.021384 0.015137 0.027468 
0.043909 -0.014458 0.047855 0.047855 0.0021479 0.012177 0.00050378 0.030263 
0.022206 -0.0083746 0.018918 0.0592 0.015137 0.019411 0.030427 0.027961 
0.017932 0.0047785 0.020233 0.032893 0.023193 0.014479 0.031907 0.035031 
0.014315 0.037826 0.033222 0.017767 0.049992 0.02122 0.014315 0.010533 
0.0062583 0.011355 0.044896 0.0421 0.013986 0.027796 0.020891 0.034866 
0.0098754 0.061501 0.065283 0.064954 0.004943 0.05065 0.017767 0.031085 
-0.0040998 0.11625 -0.021692 0.055089 0.029112 0.020562 0.030427 0.039634 
-0.010019 0.14881 -0.021199 0.017274 0.028125 0.0065871 0.059035 0.02122 
0.0064227 0.1636 0.0036276 0.029112 0.041443 0.021878 0.039634 0.041443 
0.028783 0.089616 0.034702 0.037826 0.0092177 0.031742 0.03388 0.034209 
0.0060938 -0.0052507 0.028783 -0.0013048 0.019905 0.030263 0.0324 0.039634 
0.0028056 -0.028762 0.032729 0.0041209 0.022042 0.022042 0.023522 0.030427 
-0.0096899 -0.0052507 0.023686 0.042758 0.01711 0.020233 0.032236 0.048841 
0.00033937 0.017603 0.073997 0.018754 0.013986 0.013164 0.039141 0.03388 
0.01711 -0.016431 0.065447 0.030427 0.019576 0.017767 0.041114 0.048348 
0.015301 -0.10538 0.040785 0.01711 0.025659 0.028783 0.027139 0.031907 
0.036182 -0.11113 0.049335 0.050157 0.055089 0.031414 0.045718 0.049499 
0.064625 -0.010348 0.030592 0.040128 0.053445 0.026317 0.0324 0.020233 
0.062159 0.1026 0.019083 0.04654 0.029605 0.005765 0.025495 0.016616 
0.029605 0.17725 -0.012814 0.041278 0.027796 0.025495 0.035195 0.024344 
0.035195 0.13434 0.019411 0.058542 0.032729 0.019083 0.046046 0.029769 
0.062323 0.01974 0.067749 0.027961 0.043251 0.0016547 0.04095 0.0093821 
0.072517 0.022535 0.10688 0.013986 0.013821 0.0037921 0.024344 0.016123 
0.07038 0.017274 0.047033 0.0075736 0.035031 0.029441 0.01826 0.020233 
0.069229 0.014643 0.040292 0.039305 0.038483 0.023193 0.011191 0.014808 
0.04917 -0.014951 0.019411 0.019083 0.046868 0.010862 0.036675 0.02829 
0.044896 -0.00097594 0.026974 0.019411 0.040621 0.018096 0.02829 0.018096 
0.053774 -0.051615 0.043909 0.01267 0.016945 -0.01232 0.020398 0.030427 
0.048019 -0.092554 0.037168 0.018754 0.0046141 0.02533 0.020069 0.009711 
0.034044 -0.10439 0.060844 0.0047785 0.004943 0.022206 0.01415 0.025166 
0.013821 -0.018239 0.064132 0.0052718 0.043087 0.016288 0.042758 0.017932 
0.022042 0.071695 0.071695 0.01711 0.028783 0.01004 0.048184 0.037168 
0.025824 0.13286 0.023686 0.03651 0.018918 0.020562 0.032236 0.026481 
0.032236 0.1659 0.046211 0.026152 0.028619 0.037004 0.025495 0.037168 
0.04654 0.15308 0.042594 0.023522 0.019576 0.03092 0.012999 0.016452 
0.084684 0.13319 0.032071 0.053609 0.025824 0.014315 0.015137 0.027468 
0.072024 0.1174 0.0034632 0.036346 0.01415 0.015794 0.011848 0.017932 
0.07038 0.080902 -0.014622 0.029605 -0.0027845 0.023193 0.01711 0.029276 
0.046868 0.066434 -0.01232 0.0227 0.013986 0.025659 0.037332 0.013328 
0.038977 0.059693 0.026317 0.06594 0.038319 0.037004 0.041936 0.020069 
0.025659 0.089452 0.0011614 0.056898 0.037661 0.015465 0.016123 0.019576 
0.045718 0.1105 -0.029091 0.04654 0.024837 0.014643 0.01152 0.0085601 
0.031907 0.096357 -0.014458 0.034537 0.023522 0.030098 0.023357 0.026974 
0.03536 0.049992 0.019905 0.054267 0.029605 0.01563 0.032564 0.041772 
0.025166 0.0032988 0.084355 0.011191 0.037168 0.011191 0.037004 0.028947 
0.01004 0.021713 0.077449 -0.033037 0.0014903 0.0021479 0.027796 0.019576 
0.026481 -0.012814 0.056569 0.012013 0.0093821 0.016123 0.026317 0.041936 
0.012999 -0.0067304 0.051308 0.030592 0.022206 0.037497 0.025824 0.018589 
0.04095 0.036675 0.080573 -0.00097594 0.018096 0.026974 0.026317 0.032729 
0.03651 0.024015 0.09833 0.0041209 0.033551 0.026152 0.017438 0.024179 
0.033715 0.048841 0.05772 0.03388 0.023193 0.027632 0.027796 0.027468 
0.018425 0.089945 0.046704 0.045224 0.031249 0.025001 0.029934 0.023357 
0.019083 0.11148 0.021384 0.0421 0.066269 0.033715 0.030427 0.029605 
-0.0034422 0.10556 0.038483 0.034866 0.044896 0.010369 0.019905 0.03799 
0.012506 0.026481 -0.0027845 0.026974 0.013492 0.019083 0.029769 0.045882 
0.022535 -0.057863 0.023686 0.032564 0.01711 0.025659 0.025166 0.022864 
0.044238 -0.0080457 -0.006566 0.020891 0.01004 0.032564 0.039634 0.033222 
0.044731 0.050321 -0.061151 0.032236 0.01826 0.037168 0.026646 0.01415 
0.016452 0.064954 -0.10423 0.042758 0.049664 0.032893 0.01826 0.031085 
0.0060938 0.099152 -0.11903 0.020398 0.03799 0.028454 0.03092 0.035853 
0.00050378 0.15587 -0.086142 0.023028 0.042594 0.030098 0.025001 0.047033 
0.0032988 0.16377 -0.041257 0.037168 0.046046 0.049335 0.023851 0.053938 
0.020398 0.15686 -0.0004827 0.05772 0.048184 0.034044 0.043745 0.044238 
0.030756 0.12661 0.0098754 0.056404 0.039963 0.024015 0.044238 0.045718 
0.043087 0.093891 0.084848 0.037004 0.023193 0.012835 0.014643 0.0070803 
0.049992 0.039799 0.17922 0.032564 0.018425 0.016452 0.015301 0.027468 
0.051143 -0.066248 0.256 0.037332 0.032729 0.026974 0.0087245 0.013492 
0.049992 -0.16079 0.27212 0.0041209 0.043909 0.026152 0.015959 0.013164 
0.023522 -0.1746 0.17478 -0.022679 0.039141 0.024344 0.038812 0.014479 
0.020727 -0.078744 0.14716 0.013657 0.026974 0.027961 0.03092 0.024837 
0.033715 -0.020706 0.099974 0.024837 0.024015 0.0028056 0.021384 0.01415 
0.050814 -0.045039 0.086163 0.0019835 0.029934 0.02533 0.014972 0.028619 
0.021713 0.054432 -0.010183 -0.0036066 0.013986 0.020891 0.03092 0.024673 
-0.0022913 0.12003 -0.050629 0.042758 0.017767 0.014643 0.028619 0.044073 
-0.012156 0.046211 0.00066819 0.062159 0.029112 0.022042 0.043416 0.046046 
-0.0091966 -0.044217 0.054432 0.02122 0.029934 0.033715 0.044731 0.053116 
0.0227 -0.0406 0.037497 -0.001798 0.036839 0.028619 0.025495 0.031414 
0.036346 0.064461 -0.074469 -0.0070593 0.013657 0.0016547 0.028619 0.040785 
0.019411 0.19928 -0.11689 -0.037147 0.009711 0.018096 0.017767 0.025824 
0.016288 0.23019 -0.094363 -0.048656 0.01563 0.021713 0.023193 0.050979 
0.036839 0.19616 -0.047012 -0.022185 0.031085 0.031578 0.037332 0.031085 
0.0082312 0.14864 -0.042901 0.043087 0.044238 0.033222 0.041936 0.033387 
0.0421 0.10195 -0.0031133 0.025495 0.020891 0.024344 0.027961 0.013164 
0.080573 0.040456 0.10063 0.03947 0.017274 1.0539e-005 0.013657 -0.0027845 
0.12957 -0.10406 0.13516 0.030098 0.037332 0.012835 -0.0055795 0.0013258 
0.10343 -0.19022 0.079258 0.08304 0.049335 0.020562 -0.0016336 0.0018191 
0.067749 -0.082361 -0.057041 0.10211 0.041443 0.037826 0.041772 0.032729 
0.057391 0.23775 -0.064111 0.083697 0.036017 0.015301 0.037497 0.014479 
0.06035 0.46662 -0.011498 0.077285 0.034866 0.03947 0.035688 0.011026 
0.062323 0.41269 0.071531 0.055911 0.045718 0.02681 0.032893 0.011026 
0.033387 0.21737 0.03388 0.045718 0.073504 0.046375 0.038483 0.048184 
0.013657 0.11461 0.054103 0.06479 0.067091 0.031907 0.037661 0.025495 
0.0026412 0.070215 0.13483 0.018589 0.041772 0.020562 0.045718 0.044073 
0.058049 -0.081045 0.26751 -0.043066 -0.016924 0.024179 0.034209 0.0067515 
0.068571 -0.36334 0.29365 -0.04882 -0.0088678 0.0069159 0.017932 0.026974 
0.060186 -0.55472 0.27458 -0.033694 -0.027118 0.014479 -0.012485 0.023357 
0.06742 -0.37551 0.21819 0.038483 -0.0083746 0.0095465 0.010369 0.031249 
0.063968 -0.025967 0.12908 0.03651 0.01974 0.01152 0.0083956 0.033551 
0.054267 0.28428 0.030098 0.01974 0.022042 0.0098754 0.038648 0.022371 
0.043909 0.45905 -0.076606 0.031578 0.042923 0.020727 0.048677 0.028619 
0.0046141 0.47122 -0.13925 0.052787 0.013328 0.025988 0.034373 0.038977 
-0.018897 0.3096 -0.11771 0.023686 0.021878 0.025988 0.029934 0.045553 
-0.0036066 0.10688 -0.034352 0.025495 0.029934 0.025495 0.016781 0.060844 
-0.014787 -0.017746 0.0051074 0.026152 0.037497 0.018754 0.027796 0.018918 
-0.0073881 -0.084498 0.07597 0.061008 0.032564 0.033715 0.027468 0.032893 
0.043251 -0.14451 0.10441 0.0324 0.010697 0.026152 0.038977 0.025988 
0.067091 -0.19548 0.071366 0.030592 0.025659 -0.0022913 0.022042 0.020398 
0.051965 -0.16243 0.029441 0.025001 0.024508 -0.0080457 0.011191 0.0088889 
0.036839 -0.030242 0.010204 0.033715 0.019905 0.0056006 0.012342 0.0080668 
-0.012978 0.1396 0.016452 -0.0095255 -0.023994 0.033058 -0.023172 0.034537 
-0.028104 0.30204 -0.10686 -0.029913 -0.024158 0.011355 0.022864 0.018754 
-0.016102 0.35827 -0.19449 -0.017582 0.0051074 0.016452 0.024179 0.040292 
0.019247 0.31404 -0.22047 -0.0138 0.038977 0.012999 0.018096 0.037332 
0.029605 0.28527 -0.21751 0.028783 0.057062 0.030263 0.024179 0.052459 
0.022864 0.31223 -0.24628 0.07038 0.088465 0.051308 0.036182 0.033387 
0.0014903 0.29069 -0.18693 0.1202 0.076299 0.072188 0.012013 0.046704 
0.010533 0.092904 -0.008539 0.090109 0.075641 0.03092 0.03799 0.030427 
0.015465 -0.075784 0.099974 0.090438 0.067091 0.033387 0.06035 0.032564 
0.023193 -0.1746 0.16015 0.11806 0.050814 0.034866 0.046046 0.019247 
0.014479 -0.20452 0.1613 0.16064 0.062488 0.043251 0.040292 0.052459 
-0.01676 -0.16539 0.13845 0.13483 0.077121 0.020398 0.031414 0.012013 
-0.025802 -0.045861 0.022535 0.15785 0.091096 0.016945 0.030756 0.043745 
-0.033694 -0.0047575 -0.10275 0.17412 0.086821 0.016781 0.024015 0.066927 
-0.042901 -0.031721 -0.099953 0.18251 0.081231 0.054925 0.052787 0.05476 
-0.028926 -0.10456 0.022206 0.12973 0.039305 0.022864 0.067585 0.046375 
0.011026 -0.26946 0.18119 0.048184 0.02681 0.032729 0.038483 0.044402 
0.039963 -0.3954 0.36008 -0.02942 -0.012485 0.019576 0.027139 0.053116 
0.056076 -0.52513 0.3466 -0.080717 -0.056712 0.014972 0.013328 0.037332 
0.078107 -0.48419 0.22148 -0.12445 -0.068714 0.0090533 0.01415 0.013821 
0.12151 -0.26996 0.052459 -0.11607 -0.055068 -0.020377 0.036839 -0.014951 
0.11477 -0.042408 -0.070194 -0.082361 -0.006566 -0.0052507 0.022864 -0.00064712 
0.081067 0.15883 -0.13875 -0.037805 -0.0026201 -0.013143 0.01415 -0.0059084 
0.070873 0.41844 -0.21077 -0.028762 0.013492 0.011848 0.0060938 0.018918 
0.047691 0.57283 -0.18545 0.016616 0.015301 0.012342 -0.0039354 0.019905 
0.031249 0.54192 -0.16934 0.072188 0.039305 0.027139 0.0227 0.025659 
0.036346 0.46119 -0.13662 0.10359 0.054267 0.014643 0.038155 0.004943 
0.075476 0.25929 -0.0083746 0.077121 0.020727 0.0036276 0.0095465 -0.004593 
0.090438 -0.067728 0.10589 0.062159 0.0092177 0.007738 -0.0026201 -0.015773 
0.031085 -0.27259 0.15374 0.096686 0.029769 0.026974 0.0070803 0.021056 
-0.0032777 -0.24743 0.030098 0.10589 0.064296 0.034702 0.028454 0.030756 
-0.056219 -0.028269 -0.058192 0.11691 0.061666 0.020891 0.052787 0.061995 
-0.084005 0.15522 -0.099131 0.10474 0.061501 0.031578 0.062981 0.062981 
-0.052437 0.2394 -0.0016336 0.10869 0.071531 0.053774 0.043745 0.086821 
-0.037147 0.14617 0.097672 0.027632 0.045882 0.048677 0.049828 0.066434 
-0.014293 0.036182 0.1373 -0.015444 0.044073 0.025001 0.036675 0.05065 
0.040621 -0.12133 0.19912 -0.046519 0.0046141 0.014643 0.027468 0.025166 
0.074819 -0.23707 0.2611 -0.044546 -0.010348 -0.00064712 0.0042853 0.01152 
0.075148 -0.10489 0.25715 -0.054082 -0.020706 0.014972 -0.0077169 -0.012649 
0.08156 0.0421 0.12677 -0.060658 -0.0059084 0.0087245 0.016781 -0.0049219 
0.052787 0.054267 -0.0022913 -0.014458 0.015959 -0.0067304 0.012999 0.016781 
0.044238 -0.006566 -0.12429 0.028125 0.0069159 0.01004 0.024508 0.016452 
0.019247 0.11033 -0.16851 0.021056 0.025495 0.021056 0.023028 0.025166 
0.013986 0.2486 -0.10768 0.019411 0.029769 0.026974 0.031249 0.016945 
-0.024652 0.16097 0.025166 -0.0014692 0.030592 0.014643 0.034702 0.023686 
0.0039565 -0.024816 0.10672 0.010204 -0.0075525 0.0024767 0.02829 0.0069159 
0.061008 -0.065262 0.11691 0.042265 0.010697 0.019576 0.027796 0.018425 
0.07301 0.19205 0.067913 0.06331 0.029112 0.015794 0.022371 0.009711 
0.043745 0.40694 0.024015 0.067749 0.060022 0.031414 0.026974 0.040292 
0.036017 0.39411 0.1271 -0.00031829 0.062323 0.034537 0.041936 0.037332 
0.057884 0.14667 0.38507 -0.04471 0.017274 0.022206 0.03947 0.046704 
0.10047 -0.080881 0.55409 -0.065919 -0.013143 0.023357 0.047197 0.028947 
0.15505 -0.27127 0.58911 -0.029748 -0.022185 0.013492 0.016616 0.01267 
0.22049 -0.4296 0.56066 -0.054246 -0.031557 0.010204 -0.0042642 -0.027775 
0.2731 -0.43717 0.40299 -0.065919 -0.044874 -0.025638 -0.035174 -0.043724 
0.28741 -0.3497 0.071366 -0.053917 -0.041586 -0.031721 -0.015609 -0.022021 
0.2371 -0.039449 -0.27933 -0.0138 -0.028269 0.00066819 0.0011614 -0.019555 
0.10967 0.34955 -0.57527 -0.011005 0.02681 0.007738 0.027468 0.018589 
-0.079401 0.51265 -0.51691 0.00083261 0.041278 0.03947 0.041278 0.022535 
-0.34213 0.49638 -0.3788 0.025495 0.069229 0.039799 0.048348 0.066598 
-0.49076 0.32719 -0.14632 0.07449 0.092247 0.070544 0.085341 0.041772 
-0.53581 0.20816 -0.062138 0.062159 0.092247 0.068242 0.093069 0.10688 
-0.33885 0.10787 0.0069159 0.06742 0.10014 0.071859 0.11099 0.093069 
-0.044546 0.037826 0.097015 0.059035 0.08863 0.016288 0.068571 0.073832 
0.18547 0.031742 0.18876 0.078929 0.048841 0.03651 0.05772 0.037168 
0.28017 -0.011334 0.22082 0.040456 0.039305 0.019411 0.047033 0.030098 
0.22049 0.092411 0.1687 0.034373 0.050486 0.026317 0.010204 0.032236 
0.15555 0.4265 0.11066 0.027303 0.0421 0.026317 -0.014622 0.026152 
0.080902 0.88374 0.011026 0.033387 0.011191 0.012342 -0.0026201 0.0013258 
0.059693 1.1577 -0.12166 0.0069159 0.012999 0.00050378 0.016616 0.0062583 
0.040785 1.0041 -0.27999 0.016781 0.012835 0.004943 -0.029913 -0.030406 
0.042758 0.49309 -0.27177 0.050157 0.025824 0.014643 -0.020377 -0.022514 
0.055089 -0.19926 -0.10817 0.021056 -0.031392 0.02122 -0.021528 -0.053588 
0.069558 -0.78128 0.099481 0.019576 0.01152 0.014315 0.01563 -0.0022913 
0.07301 -1.1182 0.20997 0.014808 0.026152 -0.0088678 0.043745 0.029276 
0.083204 -1.0904 0.22575 0.049664 0.031907 0.031907 0.074161 0.074983 
0.062817 -0.87746 0.18909 0.029605 0.039305 0.042429 0.076627 0.069229 
0.047691 -0.85099 0.24811 0.036675 0.026152 0.044402 0.072846 0.064625 
0.095535 -0.74232 0.29612 0.03536 0.021878 0.044567 0.060844 0.042429 
0.14519 -0.50063 0.25206 0.036017 0.019576 0.01826 0.045553 0.0067515 
0.20553 -0.40954 0.29776 -0.0087034 0.020233 0.010533 0.0042853 -0.015609 
0.2759 -0.2282 0.38721 -0.061316 -0.026624 0.013492 -0.0054151 -0.035996 
0.23874 0.093562 0.37455 -0.079895 -0.050136 -0.014129 -0.036489 -0.043559 
0.069229 0.39592 0.24729 -0.039449 -0.042737 -0.015116 -0.030406 -0.020377 
-0.11771 0.80235 -0.0138 -0.0057439 0.018096 0.0056006 -0.0068948 0.012999 
-0.23313 1.117 -0.26963 0.062981 0.049499 0.033551 0.012177 0.042758 
-0.23116 1.1057 -0.38242 0.11017 0.068571 0.058871 0.048184 0.082711 
-0.21274 0.84165 -0.38833 0.13023 0.068736 0.076299 0.063639 0.08567 
-0.18545 0.59453 -0.41168 0.10688 0.084519 0.064296 0.072353 0.10507 
-0.13119 0.32308 -0.37633 0.097672 0.088465 0.050321 0.061995 0.093233 
-0.069536 0.070051 -0.29215 0.10063 0.059528 0.067256 0.059857 0.090274 
-0.018239 -0.076442 -0.17197 0.083862 0.058213 0.062159 0.03947 0.063803 
-0.0082102 -0.096665 -0.11557 0.054596 0.03536 0.063474 0.034537 0.068407 
0.020562 -0.11722 -0.042244 0.024508 0.035853 0.037332 0.048184 0.038977 
0.10869 -0.19219 0.08863 0.058706 0.0065871 0.018918 0.024508 0.024673 
0.16689 -0.38554 0.23529 -0.022514 -0.017253 0.0069159 -0.0059084 -0.012485 
0.21342 -0.4495 0.40546 -0.047176 -0.048656 -0.00097594 -0.0080457 0.0018191 
0.23611 -0.42714 0.4214 -0.036325 -0.034681 -0.009361 -0.003771 -0.019555 
0.2366 -0.26338 0.31092 -0.0090322 -0.011334 -0.01528 0.0072447 -0.0039354 
0.15505 -0.14895 0.18728 -0.014622 -0.033037 0.019247 0.015959 0.010204 
0.12316 -0.20945 0.09126 -0.004593 -0.009361 0.015959 0.032729 0.012835 
0.10885 -0.11705 -0.021692 0.01004 0.018096 0.0069159 0.026974 0.012506 
0.066598 0.0786 -0.037476 0.039305 0.013657 0.0011614 0.013164 0.012177 
0.083533 0.059364 -0.039942 0.0011614 -0.0080457 0.0037921 0.0023123 0.011684 
0.084026 -0.073647 0.0083956 0.013328 0.007738 -0.008539 0.012177 0.015465 
0.079587 -0.036818 -0.011498 0.04506 0.0044497 0.044238 0.027796 0.01267 
0.024344 0.14091 -0.073318 0.087972 0.045718 0.038812 0.03947 0.011191 
0.034373 0.34035 -0.01232 0.073175 0.065612 0.026646 0.035195 0.033715 
0.10918 0.45231 0.054596 0.041607 0.039634 0.036346 0.025166 0.027303 
0.18514 0.41105 0.03388 0.046211 0.017274 0.011191 0.01152 0.07597 
0.21178 0.22115 -0.17082 0.039634 0.02681 0.035195 0.020727 0.069722 
0.11691 0.059693 -0.26206 0.042758 0.04654 0.02829 0.041278 0.061501 
-0.091732 0.11642 -0.27472 0.095535 0.076299 0.037661 0.06479 0.043745 
-0.37321 0.2976 -0.2134 0.12332 0.086821 0.058542 0.068242 0.030098 
-0.43075 0.25222 -0.075127 0.09833 0.080738 0.069558 0.065118 0.0041209 
-0.2499 0.032893 0.063145 0.060515 0.078272 0.049006 0.041936 0.027468 
-0.092226 -0.10472 0.16097 0.047526 0.071859 0.021713 0.030263 0.045718 
-0.13892 -0.14188 0.16804 0.083368 0.014643 -0.0047575 0.050814 0.080738 
-0.21175 0.043416 0.12069 0.045553 0.022371 0.01152 0.041936 0.094548 
-0.080881 0.20306 -0.010019 0.037168 0.031578 0.030263 0.01826 0.082875 
0.10622 0.26061 -0.089266 0.025001 0.049664 0.016288 0.015959 0.048841 
0.21112 0.23792 -0.070687 0.063145 0.029605 0.023028 0.01563 0.012999 
0.24153 0.18662 0.043251 0.020398 0.023522 0.01267 0.012835 0.0087245 
0.23118 0.147 0.13976 -0.0029489 0.0080668 0.0065871 0.031085 -0.018897 
0.20914 0.12135 0.21358 -0.022843 0.0047785 0.022206 0.017274 -0.0090322 
0.15324 0.010862 0.27507 0.0026412 0.023851 0.015301 0.012999 -0.0034422 
0.086492 -0.035503 0.20914 0.013328 0.027303 0.015794 0.037661 -0.00097594 
0.01563 -0.0013048 0.016616 0.037004 0.03651 0.017767 0.030592 0.0021479 
-0.060494 0.092247 -0.19498 0.071202 0.044402 0.033387 0.036839 0.041772 
-0.0868 0.10096 -0.17164 0.069393 0.065612 0.039799 0.040292 0.029441 
-0.065262 0.00297 -0.088115 0.026317 0.030756 0.012013 0.024673 0.034866 
-0.028433 -0.15421 0.0031344 0.012177 0.025495 0.0019835 0.018918 0.013821 
-0.017088 -0.25664 0.04506 0.026646 0.033715 0.0075736 0.022864 0.029112 
-0.032215 -0.2111 0.058049 0.027796 0.042265 0.031249 0.011848 0.026481 
-0.065426 -0.0062372 0.054267 0.022535 0.061337 0.059693 0.022042 0.048348 
-0.079566 0.13976 0.047691 0.035195 0.034044 0.027303 0.015137 0.030427 
-0.084498 0.16179 0.064625 0.076299 0.039963 0.03092 0.053281 0.050814 
-0.068057 0.10655 0.032236 0.031907 0.055747 0.062488 0.040785 0.062817 
-0.040271 0.025824 0.066763 0.047691 0.061172 0.033551 0.031249 0.059693 
-0.0004827 0.047197 0.090274 0.041443 0.049335 0.042265 0.035031 0.039634 
-0.01939 0.068571 0.086657 0.066434 0.037497 0.028125 0.023357 0.039141 
-0.0014692 0.045718 0.046704 0.038319 0.03799 0.0054362 0.045718 0.037004 
-0.016102 0.037332 0.031414 0.018589 0.038155 0.021878 0.031742 0.036346 
0.0046141 0.077943 0.044402 0.015959 0.049992 0.03388 0.024673 0.03947 
0.0054362 0.14716 0.08715 0.031249 0.03388 0.013328 0.037497 0.02829 
-0.0021268 0.15456 0.082053 0.00297 0.013657 0.025988 0.015465 0.032236 
-0.00015387 0.055911 0.090274 0.0014903 -0.004593 0.010204 0.016616 0.051143 
0.0088889 -0.050136 0.15522 -0.0014692 0.027796 -0.00015387 0.028947 0.041772 
0.052623 -0.0090322 0.23923 0.0021479 0.018754 0.004943 0.021056 0.0093821 
0.074654 0.064296 0.21506 0.013492 0.012999 0.01711 0.018754 0.016781 
0.14223 0.12316 0.093562 0.028619 0.023686 0.020069 0.020398 -0.01232 
0.16327 0.1733 0.0041209 0.034702 0.042265 0.017603 0.025166 -0.016102 
0.14864 0.070544 -0.042244 0.031907 0.046046 0.025001 0.033058 0.0059294 
0.15259 -0.23905 -0.0024557 0.018425 -0.016266 0.034373 0.017438 0.049006 
0.15078 -0.61292 0.068407 -0.010183 0.00033937 -0.0075525 0.033387 0.020727 
0.12332 -0.70401 0.10211 0.018096 0.0092177 -0.0098543 0.015465 0.028947 
0.074161 -0.30235 0.042429 0.020398 0.028125 0.0044497 -0.0036066 0.01711 
0.12102 0.18843 -0.024323 0.03092 0.037004 0.031578 0.011026 0.019247 
0.11329 0.4316 -0.038298 0.041278 0.020069 0.031085 0.030427 0.021878 
0.050486 0.39181 -0.031064 0.071531 0.028783 -0.001798 0.02122 0.017932 
-0.14073 0.31585 -0.013965 0.033715 0.028454 0.016945 0.05624 0.012506 
-0.31599 0.25189 0.018096 0.031249 0.05772 0.024508 0.053116 0.044402 
-0.22409 0.14765 0.054432 0.027961 0.015137 0.042594 0.038812 0.048184 
0.0044497 0.13746 -0.0032777 0.036182 0.015959 0.012835 0.018918 0.041772 
0.15571 0.079094 0.0072447 0.017767 0.020398 0.01711 0.026974 0.041443 
0.21128 -0.071509 0.041114 -0.00031829 0.029441 0.0095465 0.01711 0.0227 
0.2001 -0.21044 0.07597 0.0032988 0.021056 0.020069 0.034702 0.026152 
0.1659 -0.28459 0.082711 0.036346 0.01563 0.040128 0.032236 0.021713 
0.10359 -0.26601 0.014972 0.0052718 -0.0042642 0.018096 0.018918 0.025659 
0.12003 -0.18824 -0.048327 0.0031344 0.01004 -0.0016336 0.016616 0.0079024 
0.1373 -0.19186 -0.044546 0.0021479 0.024179 0.0044497 0.016123 0.018589 
0.22098 -0.20353 0.019247 0.021878 -0.0090322 0.013164 0.015959 -0.037147 
0.30352 -0.15141 0.063639 -0.0049219 -0.0090322 0.012177 0.01415 -0.019884 
0.28757 0.1105 0.085835 0.009711 -0.016102 -0.016924 0.0227 -0.043395 
0.14716 0.548 0.056733 0.01152 -0.01676 -0.017746 0.0082312 -0.012649 
-0.09239 0.86368 -0.039942 0.0023123 -0.014129 -0.0088678 0.018425 0.016288 
-0.23116 0.83967 -0.044381 0.024179 -0.0082102 0.024837 0.036346 0.070708 
-0.082854 0.53386 0.0092177 -0.0022913 -0.004593 0.023357 0.047362 0.052787 
0.20339 -0.1524 0.19057 0.023028 -0.0075525 0.013986 0.03799 0.020398 
0.40217 -0.73064 0.28264 0.00297 0.0044497 -0.01117 0.016452 -0.023336 
0.36221 -0.87434 0.28658 -0.0060728 -0.018568 -0.0019624 0.00017495 -0.017582 
0.048019 -0.66438 0.20717 0.00297 0.010533 0.026481 0.023686 -0.0091966 
-0.44259 -0.22951 0.067256 0.058377 0.045882 0.024837 0.048841 0.056898 
-0.62032 0.27277 -0.090417 0.057884 0.072188 0.036346 0.049006 0.099974 
-0.28574 0.63202 -0.19778 0.062652 0.064954 0.05213 0.063474 0.081395 
0.15111 0.75155 -0.35315 0.060515 0.0421 0.013821 0.039634 0.062817 
0.48092 0.71916 -0.35874 0.058377 0.023851 0.012999 0.0092177 0.0080668 
0.53107 0.61377 -0.21784 0.0098754 0.010697 0.013164 0.0095465 -0.0060728 
0.35465 0.46514 -0.06444 -0.0057439 0.030098 0.010533 0.017438 -0.02087 
-0.11163 0.32966 -0.019226 0.020562 0.028783 0.017767 0.05213 0.031249 
-0.57659 0.34709 -0.022843 0.062652 0.039634 0.05213 0.077943 0.052952 
-0.58974 0.36485 -0.029091 0.048348 0.055911 0.06183 0.078929 0.067585 
-0.30317 0.3027 -0.03912 0.01711 0.039634 0.029934 0.048513 0.060515 
0.020069 0.15259 0.040292 0.036017 0.038648 -0.00097594 0.042429 0.060022 
0.20323 -0.088608 0.10162 0.020727 0.031085 0.014972 0.00099702 0.025824 
0.27655 -0.70993 0.29793 -0.0078813 0.0018191 0.011684 0.0067515 0.00050378 
0.33459 -1.5236 0.52597 -0.050136 -0.012156 0.010862 0.004943 -0.05441 
0.3193 -1.8829 0.6284 -0.032379 -0.014622 -0.012978 0.0024767 -0.043395 
0.24055 -1.4998 0.47599 -0.030735 -0.039449 -0.0047575 -0.0019624 -0.02646 
0.099645 -0.5243 0.23808 0.0052718 -0.0044286 0.0059294 0.011848 0.020233 
-0.014129 0.39148 -0.015444 0.069064 0.019905 0.033715 0.027632 0.031249 
-0.076606 0.9523 -0.1404 0.11954 0.062323 0.039141 0.034702 0.076299 
-0.080059 1.0866 -0.13432 0.08304 0.09833 0.043416 0.049664 0.050814 
-0.067399 0.85398 -0.093048 0.050814 0.041114 0.020398 0.051472 0.055582 
-0.048985 0.61804 -0.033037 0.020562 0.013657 0.019905 0.048019 0.036346 
-0.035832 0.38523 0.038977 -0.0044286 0.01004 0.028619 0.035031 0.035853 
-0.013636 0.19846 0.097179 -0.045368 0.014972 0.024179 0.027139 0.028947 
-0.023665 0.025001 -0.021034 -0.0021268 0.010204 0.020069 0.036839 0.030427 
-0.032708 0.071202 -0.2208 0.034209 0.055418 0.032564 0.033387 0.038483 
-0.035338 0.29398 -0.34345 0.076956 0.040621 0.034702 0.04917 0.042429 
-0.0503 0.35794 -0.3035 0.07449 0.056569 0.046375 0.042758 0.041443 
-0.061973 0.19813 -0.13744 0.0786 0.063639 0.043745 0.049006 0.0324 
-0.035996 -0.065262 0.0042853 0.077121 0.034866 0.029605 0.024508 0.056076 
0.0031344 -0.19153 0.11362 0.071037 0.0059294 0.03799 0.025824 0.033058 
0.012835 -0.23625 0.24137 0.04506 0.017767 0.029934 0.029605 0.042594 
0.014643 -0.21274 0.38211 0.073668 0.047526 0.025659 0.032236 0.026152 
0.017274 -0.25056 0.31371 0.14338 0.088794 0.040456 0.057884 0.048019 
0.020891 -0.32438 0.17643 0.13697 0.067585 0.025001 0.03651 0.0324 
0.029934 -0.38817 0.088794 0.072846 0.076792 0.042429 0.0227 0.042265 
0.038155 -0.33457 0.062652 -0.0013048 0.057884 0.047197 0.031742 0.02533 
0.043416 -0.24349 0.066269 -0.03764 0.052952 0.052459 0.018918 0.045882 
0.049664 -0.093376 -0.014622 -0.061316 0.01267 0.029276 0.052787 0.031085 
0.094713 0.0016547 0.076792 -0.074798 -0.020706 0.012835 0.026974 0.025495 
0.13927 0.042923 0.23216 -0.076771 -0.016595 0.0085601 0.0016547 -0.013636 
0.15686 0.10507 0.25896 -0.025474 -0.014622 0.018096 0.00033937 -0.0044286 
0.11642 -0.015609 0.088794 -0.010019 -0.033859 -0.0087034 -0.0077169 -0.0073881 
0.10556 -0.16901 -0.067728 0.021384 -0.020048 0.00050378 0.0016547 -0.0039354 
0.10326 0.11 -0.15174 0.042265 -0.018733 0.018096 0.023522 0.01415 
0.063145 0.70946 -0.24858 0.08008 0.012835 0.0023123 0.017603 0.00050378 
0.019905 1.0611 -0.32487 0.082546 0.047526 0.014972 0.028783 0.0075736 
-0.066084 0.82077 -0.33506 0.089616 0.034537 0.020891 0.022535 0.045224 
-0.084498 0.48865 -0.2185 0.099152 0.034044 0.04095 0.034702 0.074654 
-0.064604 0.27064 -0.082361 0.08978 0.056404 0.026481 0.050486 0.063474 
-0.040928 0.15193 0.0054362 0.050321 0.063639 0.041443 0.05772 0.076956 
-0.017253 0.069886 -0.0042642 0.032729 0.065283 0.035853 0.055911 0.060844 
0.024344 -0.10719 0.015137 0.044567 0.037168 0.026974 0.039799 0.056076 
0.11543 -0.21175 0.070708 0.061666 0.013328 0.016123 0.032893 0.040785 
0.20635 -0.3081 0.12792 0.01974 0.024508 0.017603 0.017274 0.038812 
0.22411 -0.26519 0.14979 0.037004 0.051143 0.035195 -0.0054151 -0.0022913 
0.14683 -0.037805 0.13993 0.030427 0.03947 0.029934 0.024508 0.00066819 
-0.060658 0.18037 0.11674 0.036017 0.017603 0.030427 0.033551 0.0064227 
-0.22474 0.23266 0.10063 0.022864 0.027139 0.01415 0.030263 0.058871 
-0.20666 0.20569 0.11033 0.022371 0.026152 0.030592 0.025988 0.043251 
-0.12182 0.10902 0.045389 0.058542 0.031249 0.033715 0.019905 0.074654 
-0.018075 0.056076 -0.0055795 0.028619 0.0090533 0.022864 0.05065 0.060022 
0.037168 -0.13727 -0.043395 0.041936 0.016781 0.036017 0.049992 0.082382 
0.053116 -0.20995 -0.05885 0.033387 0.037168 0.023522 0.051636 0.05213 
0.05772 0.0011614 -0.093048 0.043416 0.042923 0.019905 0.029605 0.04095 
0.031414 0.27672 -0.11787 0.011684 0.030427 0.027468 0.022535 0.035195 
0.022206 0.48092 -0.065097 -0.011498 0.016945 0.0060938 0.018096 0.027303 
-0.017746 0.4533 -0.12609 0.009711 0.026646 0.0054362 0.023686 0.025824 
-0.012485 0.036017 -0.031064 0.017603 0.044238 0.019411 0.041607 0.0047785 
0.047855 -0.42664 0.12365 -0.052931 0.048513 0.046704 0.039141 0.021713 
0.13845 -0.6999 0.20191 -0.088115 -0.0049219 0.012013 0.0041209 -0.0036066 
0.28938 -0.31155 0.070873 -0.053917 -0.0138 -0.017253 -0.0036066 -0.0087034 
0.30911 0.5388 -0.14451 -0.040435 -0.027447 -0.012156 -0.021034 -0.032708 
0.25978 1.2487 -0.26585 -0.0088678 -0.017746 -0.0082102 -0.0087034 -0.020541 
0.15357 1.3497 -0.29149 0.041443 0.0085601 0.0026412 0.014808 -0.0057439 
-0.052437 0.89689 -0.078086 0.098659 0.014808 0.026646 0.048184 0.037497 
-0.34723 -0.014458 0.26488 0.062817 0.059364 0.047526 0.064461 0.05476 
-0.42335 -0.93764 0.61788 0.0227 0.056569 0.048184 0.05476 0.10474 
-0.21323 -1.4965 0.64862 0.06479 0.021713 0.02681 0.039963 0.043909 
0.085999 -1.5139 0.53534 0.098001 -0.0016336 0.01826 0.0036276 0.0082312 
0.21474 -1.1192 0.38885 0.08156 0.0046141 0.01152 0.027303 -0.030735 
0.22476 -0.71437 0.41072 0.055582 0.018096 -0.00097594 0.023522 -0.013307 
0.21523 -0.40428 0.37619 0.048677 0.03651 0.0013258 0.02829 -0.014129 
0.15522 -0.023336 0.20142 0.019411 0.034373 0.011848 0.0039565 0.011684 
0.050979 0.58861 -0.050629 -0.024323 0.025659 0.033387 0.01974 0.0227 
-0.022679 1.2492 -0.22688 -0.020706 0.034537 0.042265 0.041772 0.062323 
-0.021034 1.4117 -0.34822 -0.025309 0.054267 0.031742 0.056733 0.079258 
0.029605 0.98337 -0.40757 0.020562 0.046704 0.02829 0.04095 0.086985 
0.080902 0.53057 -0.36926 0.011026 0.020233 0.030592 0.031907 0.067913 
0.030427 0.32769 -0.33605 0.063803 0.029276 0.038977 0.024344 0.038977 
-0.15207 0.20816 -0.2545 0.083697 0.057391 0.033222 0.035195 0.062488 
-0.35775 0.058542 -0.26618 0.11592 0.092082 0.049006 0.03651 0.057884 
-0.31435 -0.1473 -0.16851 0.11181 0.092576 0.046704 0.059364 0.031742 
-0.10258 -0.14862 -0.014129 0.11231 0.086328 0.067256 0.069229 0.010862 
0.031578 0.12644 0.17314 0.047526 0.05065 0.043909 0.033715 0.023686 
0.1322 0.35317 0.18004 0.029441 -0.001798 0.0088889 0.01004 0.0080668 
0.21474 0.34923 0.065447 0.0052718 -0.009361 -0.018075 -0.0095255 0.01974 
0.2588 0.20832 0.1008 0.0085601 -0.030406 -0.0057439 -0.016595 0.013657 
0.24597 -0.20189 0.21539 0.024344 -0.021034 0.0083956 0.010533 0.014315 
0.21013 -0.97513 0.36041 0.017603 0.0047785 0.015465 0.019576 -0.066741 
0.12595 -1.7684 0.54652 0.0090533 0.0034632 0.019411 0.0046141 -0.093541 
0.043909 -1.7424 0.52038 -0.03353 -0.0039354 0.00099702 -0.0068948 -0.065591 
0.03388 -0.64202 0.20224 -0.017088 -0.012814 -0.0016336 0.0031344 0.013328 
0.049499 0.2879 -0.1182 0.015465 0.0079024 0.026481 0.034866 0.046375 
0.10408 0.28214 -0.18627 0.05065 0.043909 0.020069 0.060515 0.078107 
0.21441 -0.33753 -0.023007 0.03388 0.041114 0.01267 0.067749 0.051143 
0.29892 -0.52299 0.17593 -0.0014692 -0.020541 0.0042853 0.032236 0.035688 
0.23134 0.15883 0.068407 -0.047341 -0.040764 0.017767 0.013657 0.0421 
0.068078 1.0763 -0.14336 -0.003771 -0.017746 0.029441 0.02681 0.056898 
-0.096172 1.5476 -0.17657 0.028947 0.007738 0.011355 0.030263 0.051308 
-0.11459 1.4225 0.075148 0.057884 -0.0022913 0.019083 0.0227 0.010862 
-0.053917 0.89294 0.40759 0.034373 -0.028597 0.0036276 0.017603 -0.0027845 
0.010697 0.31881 0.61475 0.042265 0.0031344 0.0093821 -0.014787 -0.011992 
-0.018239 -0.073154 0.47221 0.091589 0.056898 0.031742 -0.017417 -0.017088 
-0.10423 -0.26519 -0.011005 0.17117 0.12431 0.050814 -0.0072237 -0.042901 
-0.033201 -0.68116 -0.39623 0.08567 0.086163 0.037497 0.025166 0.0056006 
0.0065871 -1.0932 -0.43174 0.01267 0.068571 0.044402 0.037661 0.045224 
-0.029913 -0.98959 -0.3959 0.022371 0.067091 0.069722 0.093562 0.084355 
-0.094199 -0.50753 -0.42418 0.022371 0.079587 0.056898 0.08008 0.11378 
-0.13333 -0.043559 -0.33917 0.023193 0.077449 0.055418 0.084684 0.13335 
-0.11968 0.35597 -0.24086 0.014643 0.036182 0.058049 0.060844 0.094055 
-0.063453 0.61327 -0.20008 0.03536 0.015137 0.027632 0.057062 0.080738 
0.015465 0.61541 -0.10834 0.025001 0.025988 0.043416 0.037168 0.050157 
0.084355 0.37274 0.0037921 0.022864 0.043087 0.025495 0.051801 0.058706 
0.16196 0.028947 0.13039 0.025824 0.0227 0.0059294 0.02829 0.015794 
0.26735 -0.36055 0.23216 0.064296 0.024508 0.0067515 0.021878 0.01826 
0.43867 -0.49767 0.25271 0.026974 0.01152 0.0016547 0.00099702 -0.010676 
0.49687 -0.3012 0.19501 0.035688 0.025988 0.014808 0.0064227 -0.025474 
0.36238 -0.021363 0.21654 0.032893 0.032236 0.0074092 -0.0014692 -0.0049219 
0.17939 -0.050136 0.3683 0.028454 0.02681 -0.00015387 0.029276 -0.0060728 
-0.19482 -0.22655 0.55968 -0.018075 0.028619 0.012342 0.015959 0.0056006 
-0.66997 -0.18841 0.59059 -0.048163 0.0090533 0.033715 0.01267 0.043087 
-0.62969 -0.071181 0.35103 -0.013965 -0.004593 0.033715 0.0069159 0.06035 
-0.21586 0.31338 -0.02942 0.066434 0.00033937 0.026646 0.021878 0.025495 
0.088136 0.85036 -0.25384 0.056076 0.013821 0.021549 0.033551 0.028454 
0.16755 0.96101 -0.22244 0.00099702 0.0054362 0.020891 0.038812 0.014479 
0.15456 0.47747 -0.16227 -0.03501 -0.011663 0.009711 0.021384 0.0065871 
0.19862 -0.18216 -0.13136 -0.019061 -0.0021268 0.015301 0.0032988 -0.010348 
0.23578 -0.55143 -0.07973 -0.012814 0.011191 0.015137 0.0021479 0.0098754 
0.20898 -0.30235 -0.034516 0.0028056 0.022371 0.0085601 0.0064227 0.01415 
0.19829 0.022206 0.044238 0.0059294 0.0083956 -0.006566 -0.0070593 0.048513 
0.30763 -0.19581 0.13088 0.0059294 0.020398 -0.0019624 0.0090533 0.074654 
0.4316 -0.30563 0.10063 0.01267 0.0036276 -0.0019624 0.01152 0.057555 
0.40315 0.22263 -0.076935 0.065612 0.030756 0.01711 0.021713 0.016616 
0.17034 0.89426 -0.25746 0.14437 0.11165 0.037661 0.049335 0.0054362 
-0.30037 1.0761 -0.34444 0.16574 0.15308 0.071366 0.090767 0.009711 
-0.96 0.91974 -0.29133 0.17051 0.15176 0.093562 0.10491 0.12069 
-1.1073 0.69926 -0.194 0.1322 0.10869 0.078765 0.10688 0.16245 
-0.6971 0.53896 -0.062302 0.09833 0.071366 0.031085 0.085506 0.12957 
-0.2277 0.52564 -0.042573 0.0421 0.014972 0.025166 0.029769 0.092576 
0.17643 0.57743 -0.1358 0.005765 -0.041586 0.034209 -0.023829 0.065612 
0.41943 0.57645 -0.22474 0.027139 -0.018733 0.023357 -0.00097594 0.0324 
0.49144 0.49358 -0.13843 0.040128 0.012835 0.014972 -0.028104 0.0075736 
0.36238 0.39378 -0.028433 0.057555 0.027468 0.014808 0.030427 0.0036276 
-0.056548 0.37537 -0.023665 0.086328 0.093233 0.040785 0.049828 0.00050378 
-0.54913 0.29102 0.024344 0.062159 0.10014 0.063639 0.050321 0.08567 
-0.60816 0.068571 0.11181 0.054267 0.070051 0.0421 0.045553 0.10869 
-0.26486 -0.26618 0.24449 0.023686 0.046211 0.025001 0.044896 0.11543 
0.13499 -0.5248 0.3216 -0.0095255 0.054103 0.01974 0.01974 0.04506 
0.51479 -0.79378 0.37455 -0.055561 0.038319 0.0093821 0.016616 -0.015938 
0.71817 -0.97266 0.45774 -0.065262 -0.019719 0.0087245 -0.00081153 -0.078415 
0.53271 -1.0807 0.4727 -0.091239 -0.016924 -0.00031829 -0.008539 -0.090417 
0.077121 -1.5325 0.52022 -0.06444 -0.024652 0.01004 0.0034632 -0.079566 
-0.20501 -2.0016 0.4995 -0.039613 -0.0042642 0.024344 0.012013 -0.016102 
-0.27982 -1.8289 0.38244 -0.048985 -0.012156 0.015794 0.016288 0.031249 
-0.10867 -0.7604 0.15078 -0.051287 -0.031721 0.017603 0.024015 0.070873 
0.084026 0.51249 -0.18413 -0.0042642 -0.0052507 0.020562 0.036839 0.024344 
0.17232 1.2502 -0.46577 0.041443 -0.0098543 0.0032988 0.016123 0.029441 
0.23858 1.2737 -0.52282 0.041278 0.032893 0.00050378 0.020891 -0.0067304 
0.27754 0.93158 -0.4199 0.057884 0.01415 0.032729 0.010533 0.018096 
0.183 0.8765 -0.19416 0.043909 0.044896 0.026481 0.013328 0.021384 
0.022535 0.80827 0.0059294 0.089452 0.040292 0.005765 0.033715 0.026974 
-0.095349 0.63366 0.040621 0.069393 0.062159 0.034044 0.057555 0.040621 
-0.1912 0.57579 -0.073318 0.095371 0.0786 0.040292 0.0592 0.083862 
-0.22359 0.44113 -0.14402 0.12233 0.094877 0.07301 0.055089 0.10754 
-0.15059 0.17034 -0.047505 0.12644 0.038483 0.041936 0.084026 0.077943 
-0.035667 -0.18413 0.019083 0.053281 0.051965 0.033715 0.042265 0.08419 
0.030592 -0.58366 0.15144 -0.011498 0.054103 0.026974 0.044567 0.061008 
0.068736 -0.92827 0.3318 -0.003771 0.027139 0.029441 0.049992 0.046211 
0.18613 -0.97809 0.41335 0.00066819 0.029605 0.034702 0.024015 0.0060938 
0.32144 -0.81088 0.41779 -0.054575 0.0039565 0.023193 0.010697 -0.034188 
0.30796 -0.42516 0.41105 -0.052602 0.010533 0.015465 0.020233 -0.056055 
0.16936 0.0062583 0.43472 -0.045368 -0.011827 -0.0014692 -0.0072237 -0.036818 
-0.047669 -0.040435 0.43768 -0.041751 -0.039942 -0.0031133 -0.010841 -0.011334 
-0.20205 -0.31435 0.23858 -0.023994 -0.025474 0.0032988 0.0079024 0.034044 
-0.1473 -0.20485 -0.1695 0.0067515 -0.010019 -0.013307 0.011026 0.043087 
-0.055561 0.28379 -0.43651 0.056076 0.0037921 0.0098754 0.014315 0.068736 
-0.0011404 0.82455 -0.56574 0.068571 0.019083 0.015301 0.017767 0.061172 
0.10655 1.093 -0.52546 0.075312 0.015301 0.013492 0.028947 0.050157 
0.3752 1.0726 -0.47449 0.070544 0.01152 0.015959 -0.0088678 0.015794 
0.69877 0.71192 -0.29018 0.12694 0.0046141 -0.033859 -0.015116 -0.020706 
0.69729 0.3706 0.0036276 0.011848 -0.010512 -0.023665 -0.006566 -0.080388 
0.48947 -0.0068948 0.19122 -0.027447 -0.035832 -0.018733 -0.0049219 -0.063124 
0.03092 -0.21389 0.043416 0.036346 0.021878 0.030427 0.051143 -0.0047575 
-0.4028 0.054596 -0.1695 0.090931 0.050979 0.041114 0.065612 0.051143 
-0.48978 0.38918 -0.21981 0.083697 0.064296 0.017767 0.056076 0.088958 
-0.23231 0.37323 -0.043724 0.012177 0.020069 0.012342 0.047526 0.029112 
-0.081045 0.33081 0.20355 -0.01528 0.012999 -0.012485 0.025166 -0.012485 
-0.19498 0.26916 0.33936 0.0026412 0.037332 0.042594 0.031742 0.00033937 
-0.23017 -0.26864 0.49736 -0.017582 0.052787 0.029769 0.04654 0.058377 
0.0046141 -1.2648 0.54356 -0.0096899 0.045389 0.021549 0.026646 0.062981 
0.25798 -1.888 0.53896 0.043745 0.034209 0.0227 0.013328 0.072353 
0.41499 -1.5455 0.57135 0.083368 0.047526 0.026646 0.025001 0.018425 
0.46333 -0.85987 0.57349 0.025988 0.010862 0.0046141 0.0072447 -0.023501 
0.38326 -0.074798 0.30434 -0.060987 -0.052766 -0.050464 -0.031228 -0.0965 
0.22279 0.94079 -0.3155 -0.041915 -0.071838 -0.034352 -0.04471 -0.088937 
0.035853 2.1548 -0.91544 0.013821 -0.039942 -0.011992 -0.042573 -0.040106 
-0.17164 3.023 -1.263 0.079258 0.014972 0.027139 0.013492 0.020727 
-0.21948 2.8594 -1.1376 0.12891 0.056569 0.066269 0.063803 0.062488 
-0.24382 1.7892 -0.73179 0.15259 0.0786 0.055089 0.063639 0.089287 
-0.24891 0.59059 -0.10423 0.10195 0.068078 0.051472 0.066927 0.087643 
-0.27209 -0.30761 0.34035 0.044896 0.03092 0.01004 0.098659 0.11411 
-0.27144 -0.97792 0.54225 0.028619 0.054432 0.049664 0.092247 0.10195 
-0.21521 -1.6257 0.57118 0.036839 0.053774 0.029112 0.085177 0.095535 
-0.10456 -1.835 0.60538 -0.013307 0.0013258 0.034044 0.074983 0.073832 
0.057227 -1.4892 0.62396 -0.062631 0.0034632 0.0083956 0.051636 0.051472 
0.1687 -0.87977 0.56691 -0.087129 -0.015609 0.0064227 0.01267 0.00033937 
0.16821 0.012013 0.36304 -0.045696 -0.011334 0.0067515 -0.019555 -0.020048 
0.15341 0.40003 0.11905 0.011026 0.0042853 0.015137 -0.039284 -0.020377 
0.10113 0.31601 -0.042737 0.070544 0.0062583 0.007738 -0.048985 -0.015609 
0.069722 0.0087245 -0.18824 0.10145 0.039305 0.033222 -0.027118 0.016123 
0.15308 -0.052931 -0.25269 0.095535 0.077943 0.034044 0.016288 0.036182 
0.21967 0.50312 -0.32388 0.066598 0.10425 0.048513 0.036839 0.053609 
0.1225 0.91646 -0.36893 0.096521 0.088794 0.053445 0.080573 0.08008 
-0.086307 0.57299 -0.2134 0.14617 0.098001 0.051636 0.10326 0.10113 
-0.2476 -0.31879 0.13746 0.13499 0.083697 0.056733 0.087479 0.062323 
-0.28015 -0.98894 0.50904 0.090438 0.071366 0.051308 0.066269 0.018096 
-0.0050863 -1.2783 0.72869 0.0028056 0.01415 0.02533 0.017767 -0.067892 
0.42699 -1.9116 0.84411 -0.089595 -0.062302 -0.021856 -0.041751 -0.12001 
0.61985 -2.4086 0.70699 -0.15306 -0.11689 -0.054904 -0.065591 -0.15141 
0.39132 -1.2719 0.30894 -0.16407 -0.10916 -0.045039 -0.071674 -0.083347 
0.020562 0.78772 -0.18808 -0.090088 -0.046354 0.022042 -0.025145 -0.0026201 
-0.21554 1.8753 -0.46413 0.041443 0.021549 0.023028 0.024673 0.14321 
-0.17904 1.7836 -0.56163 0.046375 0.087972 0.054925 0.061337 0.21441 
-0.03616 1.2961 -0.498 0.098166 0.11921 0.07449 0.10178 0.19369 
0.01267 0.91234 -0.40839 0.16952 0.15028 0.072517 0.10852 0.147 
-0.09946 0.64172 -0.23855 0.18695 0.15374 0.10425 0.097508 0.061008 
-0.22787 -0.18495 0.17445 0.11296 0.11855 0.06594 0.11017 0.047855 
-0.22376 -1.0177 0.44278 0.037661 0.062323 0.074654 0.12497 0.10573 
-0.10456 -1.0989 0.42946 -0.0052507 0.037497 0.038648 0.10441 0.11083 
0.018425 -0.59911 0.13319 0.018754 0.031742 0.012999 0.059364 0.082875 
0.040785 0.023028 -0.081045 0.018589 0.013657 0.014808 -0.025145 0.059035 
0.015465 0.45231 -0.11656 0.055254 0.010697 -0.010019 -0.034352 0.046046 
0.010862 0.51167 0.02122 0.031085 0.020727 0.0095465 -0.0083746 0.02829 
0.12266 0.09422 0.22937 0.00050378 0.0056006 0.012835 -0.014458 -0.0088678 
0.31355 -0.69102 0.43834 -0.068386 -0.040271 -0.0060728 -0.0096899 -0.05589 
0.53551 -0.85461 0.45396 -0.11442 -0.088937 -0.035174 -0.056055 -0.11245 
0.70469 -0.36203 0.25403 -0.089595 -0.095021 -0.036983 -0.096829 -0.10982 
0.57086 0.65142 -0.082525 -0.069536 -0.059836 -0.045368 -0.05589 -0.10406 
0.14206 1.3827 -0.41776 0.013328 0.017438 -0.0054151 -0.038133 -0.031557 
-0.30103 1.667 -0.5955 0.10458 0.063803 0.044567 0.01415 0.01004 
-0.5146 1.5379 -0.6292 0.17248 0.08978 0.054432 0.074326 0.084684 
-0.54173 0.90001 -0.4763 0.13171 0.092247 0.048677 0.065283 0.13467 
-0.4222 0.071037 -0.33852 0.086821 0.095371 0.050814 0.076134 0.16229 
-0.109 -0.47991 -0.25335 0.069393 0.084519 0.029769 0.052952 0.12924 
0.23151 -0.48172 -0.19959 0.081889 0.07301 0.054596 0.053281 0.076627 
0.47566 -0.38274 -0.14582 0.072517 0.10326 0.055582 0.071037 0.026646 
0.45198 -0.36236 -0.10998 0.06594 0.081724 0.048677 0.093726 0.023028 
0.14864 -0.3007 -0.041422 0.040456 0.0689 0.043416 0.071037 0.046211 
-0.26322 -0.088608 0.078107 0.034044 0.034044 0.007738 0.053609 0.066434 
-0.34657 0.10474 0.1835 -0.014293 0.011026 0.00083261 0.037004 0.059035 
-0.12905 0.28708 0.35482 -0.055561 -0.01676 -0.0138 0.036182 0.0046141 
0.10474 0.55672 0.41516 -0.039449 -0.012649 -0.020377 0.033222 -0.016431 
0.13894 0.76717 0.42551 -0.015773 -0.018239 -0.031392 0.058377 -0.047669 
-0.079895 0.67526 0.39345 -0.039942 -0.0095255 -0.0011404 0.066598 -0.037805 
-0.26042 0.37191 0.27606 -0.042737 -0.009361 0.027468 0.040128 -0.01117 
-0.10768 -0.13432 0.051143 0.015137 0.0069159 0.015794 0.010369 0.055911 
0.1761 -0.79049 -0.084827 0.047197 0.025659 -0.0021268 0.018754 0.041772 
0.2851 -1.1767 -0.11656 0.034537 0.034702 0.0072447 0.016123 0.054596 
0.11083 -0.27884 -0.24349 0.030098 0.054432 0.024673 0.050486 0.054267 
-0.4467 0.96709 -0.31945 0.049499 0.064132 0.053445 0.050486 0.1105 
-0.92794 1.3277 -0.25746 0.078107 0.061008 0.041443 0.054596 0.15144 
-0.7484 0.95855 -0.077922 0.073175 0.096193 0.03651 0.03536 0.16722 
-0.065591 0.37323 0.10277 0.033222 0.070215 0.013164 0.0023123 0.059528 
0.58598 -0.057699 0.29217 -0.03764 -0.012649 0.011684 -0.049807 -0.055068 
0.95411 -0.44654 0.34364 -0.12478 -0.049642 -0.023501 -0.05326 -0.13432 
0.9061 -0.89654 0.43801 -0.12478 -0.07266 -0.013143 -0.013143 -0.10735 
0.57036 -0.82978 0.40792 -0.053917 -0.03205 -0.031228 -0.0087034 -0.046519 
0.21441 -0.016266 0.064296 0.082053 0.0052718 -0.020212 -0.0055795 -0.02942 
-0.044217 0.44689 -0.17525 0.14338 0.040621 0.0079024 0.0074092 1.0539e-005 
-0.18035 0.26899 -0.1644 0.1853 0.070544 0.017767 0.035524 0.03651 
-0.3127 0.053938 -0.099953 0.147 0.089123 0.044238 0.077285 0.098659 
-0.37222 0.3489 -0.23938 0.17133 0.090767 0.05476 0.10425 0.11987 
-0.022514 0.7767 -0.35742 0.14338 0.085177 0.071695 0.097508 0.086985 
0.22345 0.77309 -0.28064 0.12513 0.071859 0.061172 0.061501 0.04506 
0.022535 0.10129 -0.08828 0.071202 0.064625 0.03651 0.046704 0.027468 
-0.20748 -0.65074 0.19139 0.026974 0.04654 0.011026 0.037332 0.019083 
-0.12938 -0.74281 0.37783 -0.0064016 -0.010348 0.015465 0.038812 0.062159 
0.11987 -0.3668 0.40447 -0.00031829 -0.0057439 0.017932 0.033551 0.031907 
0.13286 0.00066819 0.37882 0.017767 0.011355 0.021713 0.014808 0.025824 
-0.11311 0.017767 0.28576 0.038155 0.040621 0.025988 0.029769 0.034373 
-0.56952 -0.76139 0.23858 0.071366 0.060515 0.046375 0.052294 0.10622 
-0.57346 -1.674 0.48766 0.044238 0.048513 0.046211 0.060844 0.097015 
-0.11837 -1.4457 0.65471 -0.010019 0.012999 0.035031 0.026317 0.0421 
0.159 -0.31073 0.49753 -0.080059 -0.010512 0.014808 0.014315 -0.006566 
0.32012 0.61097 0.1197 -0.080881 -0.032708 -0.016266 -0.016102 -0.03057 
0.55606 1.0893 -0.15388 -0.02235 -0.039778 -0.0138 -0.023336 -0.027447 
0.75007 0.67345 -0.17525 0.026481 -0.022021 -0.0067304 -0.025802 -0.024652 
0.78673 -0.23132 -0.068057 0.032236 -0.011827 0.0075736 -0.019061 -0.028597 
0.5166 -0.27045 -0.041093 0.012013 0.00297 0.0026412 -0.019555 -0.089431 
0.035031 0.4311 -0.20501 0.040128 0.00066819 0.024508 0.0085601 -0.11376 
-0.40067 0.68381 -0.26996 0.06183 0.0060938 0.00017495 0.032071 -0.047669 
-0.55291 0.48602 -0.21734 0.029605 -0.0087034 0.034866 0.01826 0.061995 
-0.32438 0.11066 -0.003771 0.024508 0.020398 0.046375 0.029934 0.072517 
0.00099702 -0.1182 -0.0052507 0.077943 0.072353 0.048841 0.031907 0.10721 
0.17824 -0.095185 -0.059672 0.12546 0.050486 0.056076 0.036346 0.10211 
0.25288 -0.057041 -0.12725 0.11888 0.059857 0.049992 0.052459 0.096521 
0.24466 -0.30218 -0.074304 0.10819 0.077121 0.069229 0.053609 0.076299 
0.14469 -0.79394 0.10787 0.081231 0.083533 0.05476 0.042923 0.061172 
0.039141 -1.0146 0.23578 0.07301 0.047526 0.039305 0.02829 0.034044 
0.025495 -0.74774 0.27458 0.022206 0.020727 0.044567 0.021878 0.059364 
-0.034023 -0.18874 0.27014 0.048513 0.035031 0.046868 0.040456 0.037661 
-0.16309 0.20027 0.19566 0.079751 0.071531 0.05624 0.064954 0.056898 
-0.27949 0.34199 0.023028 0.057391 0.070873 0.061337 0.064296 0.039305 
-0.25911 0.7841 -0.11196 0.011191 0.033222 0.013821 0.056569 -0.020377 
-0.14171 1.3893 -0.32684 -0.006566 0.014479 0.0227 0.0079024 -0.012156 
-0.043888 1.3625 -0.3862 0.018754 0.015959 0.038483 0.03388 0.041772 
0.082217 0.89705 -0.25615 0.0092177 0.026974 0.036346 0.02533 0.068078 
0.33032 0.50427 -0.14007 -0.039778 -0.016431 0.0018191 0.013657 0.025824 
0.69532 0.13269 -0.024323 -0.074798 -0.089266 -0.044381 -0.034023 -0.069208 
0.82833 -0.2841 -0.043559 -0.10176 -0.093541 -0.038791 -0.040928 -0.11311 
0.46892 -0.57198 -0.083347 -0.10094 -0.074962 -0.012814 -0.014622 -0.096336 
-0.18693 -1.3211 0.059693 -0.087951 -0.034516 0.007738 -0.0021268 -0.034188 
-0.71585 -1.7753 0.33837 -0.11343 -0.06296 0.035853 0.03651 0.051472 
-0.5881 -0.50293 0.36978 -0.062302 -0.032215 0.020398 0.045389 0.051472 
-0.27555 0.71406 0.26521 -0.030077 0.0019835 0.03092 0.042594 0.082546 
-0.015773 0.54669 0.17939 0.00099702 0.062323 0.039799 0.03947 0.086163 
0.22082 0.13499 0.11937 0.022042 0.074654 0.047855 0.053281 0.1003 
0.33657 0.08978 0.10606 0.025988 0.076299 0.043745 0.030756 0.027468 
0.28231 0.23677 -0.036325 0.081724 0.10326 0.064461 0.065447 0.025659 
0.14239 0.32522 -0.1455 0.1248 0.13565 0.064954 0.091753 0.040456 
0.014315 0.19221 -0.15865 0.096357 0.10754 0.072681 0.075805 0.09833 
-0.050629 0.21342 -0.11771 0.027961 0.027632 0.027632 0.032236 0.092904 
-0.12133 0.45149 -0.11409 -0.011334 -0.0138 0.0044497 0.013164 0.08156 
-0.25121 0.63761 -0.21685 0.044567 -0.0055795 -0.0031133 0.013492 0.059857 
-0.26502 0.71949 -0.36959 0.16689 0.051801 0.0085601 0.035031 0.064296 
-0.11064 0.877 -0.41694 0.19928 0.089287 0.044402 0.04506 0.010204 
0.16722 0.7767 -0.18035 0.12135 0.077285 0.036017 0.051965 -0.060823 
0.28017 0.53748 0.14141 0.031742 0.061172 0.037826 0.039799 -0.03616 
0.12924 0.43637 0.27244 -0.021363 0.021878 0.0064227 0.025988 -0.0095255 
-0.062631 0.10474 0.12727 -0.078908 -0.0031133 0.024015 0.022864 0.027139 
-0.17049 -0.22902 -0.060165 -0.074633 -0.040271 0.0085601 0.0085601 0.039799 
-0.079237 -0.40412 -0.17427 -0.045532 -0.036325 0.0019835 0.023851 0.032729 
0.085506 -0.54321 -0.089102 -0.036654 -0.031228 -0.010512 0.028125 0.011191 
0.14009 -0.57527 0.021549 -0.061151 0.010697 0.0059294 0.016616 0.01004 
0.097344 -0.28015 0.20224 -0.057699 0.016781 0.018754 0.013164 0.0013258 
0.094055 -0.057863 0.37389 -0.071345 -0.015609 -0.00097594 -0.0077169 0.017932 
0.087643 0.013657 0.33114 -0.056548 -0.028597 0.0051074 -0.0052507 -0.0072237 
0.026317 0.053116 0.021713 -0.038133 0.0021479 0.02122 0.032236 0.027796 
0.02681 -0.006566 -0.22754 0.040621 0.031907 0.01267 0.040456 0.0069159 
0.0324 -0.23954 -0.0075525 0.07038 0.044731 0.026317 0.014479 -0.0067304 
0.0047785 -0.09387 0.29168 0.13105 0.058542 0.028947 0.01267 -0.019226 
-0.095349 0.27409 0.41105 0.15407 0.081889 0.0421 0.024673 0.033387 
-0.31632 0.64271 0.38178 0.1955 0.13006 0.046211 0.041607 0.049992 
-0.48156 0.62018 0.23989 0.21408 0.094055 0.033222 0.042594 0.10014 
-0.38094 0.063474 0.098988 0.16558 0.064954 0.034209 0.070215 0.13795 
-0.048492 -0.65173 0.018918 0.084355 0.065776 0.032893 0.070051 0.18284 
0.41499 -0.88289 0.12217 0.043416 0.063968 0.040456 0.068407 0.15949 
0.91317 -0.89045 0.1345 0.013986 0.03947 0.024015 0.013821 0.023193 
1.1373 -0.60783 0.13072 -0.031886 -0.022021 0.010204 -0.028762 -0.15996 
0.63399 0.18662 0.028619 -0.013471 -0.016102 0.014315 -0.02087 -0.23214 
-0.18265 0.44376 0.064625 -0.021199 0.01826 0.017767 0.010204 -0.12215 
-0.48715 -0.11179 -0.012649 -0.011663 -0.016595 0.010697 0.016616 -0.0019624 
-0.28903 -0.56212 -0.072167 -0.061316 -0.043395 -0.016266 0.024179 0.066434 
0.017767 -0.39672 0.010533 -0.058356 -0.077264 -0.029255 0.012835 0.036346 
0.159 1.1014 -0.10784 -0.050958 -0.095843 -0.038627 -0.018568 -0.0040998 
0.066269 2.6323 -0.33013 0.066434 -0.027118 -0.011334 0.0052718 -0.011992 
-0.071016 2.2022 -0.20633 0.06183 0.021549 -0.0047575 0.038319 0.072681 
-0.14369 0.3609 0.19205 0.031907 0.023193 0.03092 0.058049 0.11494 
-0.023501 -1.3056 0.55474 0.0324 0.092411 0.090767 0.060515 0.1539 
0.058706 -1.9659 0.56313 0.072846 0.12431 0.086163 0.069393 0.14798 
-0.043888 -1.7206 0.30385 0.06331 0.1179 0.08156 0.060679 0.14042 
-0.060165 -1.1149 0.17051 0.030756 0.070873 0.044567 0.031085 0.010204 
0.18448 -0.23083 0.041114 -0.0042642 0.0062583 0.0042853 -0.0050863 -0.04619 
0.26242 0.25058 0.01974 -0.042244 -0.042408 -0.0039354 -0.030735 -0.088773 
0.078765 0.11083 -0.01528 -0.0088678 -0.031886 -0.00031829 -0.042737 -0.043724 
-0.10916 0.13401 -0.07414 0.058049 0.020398 0.0036276 -0.018075 -0.00097594 
-0.13678 0.20684 -0.091732 0.12612 0.037497 -0.001798 0.0092177 0.045224 
-0.0068948 0.1562 0.0064227 0.12792 0.030098 0.01974 0.038483 0.095699 
0.10589 0.14338 0.12809 0.098001 0.023193 0.02533 0.069886 0.10195 
0.147 0.32243 0.044896 0.073997 0.049992 0.029276 0.062652 0.069722 
0.022206 0.44163 -0.055232 0.10474 0.090767 0.038812 0.055418 0.047033 
-0.073976 0.15505 0.043087 0.096521 0.081067 0.053281 0.069558 0.052623 
0.19895 -0.46216 0.24795 0.082382 0.071037 0.065776 0.061501 0.012999 
0.5845 -1.0473 0.35202 0.035195 0.034373 0.032893 0.024344 -0.079072 
0.60292 -0.93534 0.26192 -0.030242 -0.0073881 -0.0014692 0.00017495 -0.10554 
0.2657 0.16475 0.036346 -0.13251 -0.083347 -0.024323 0.0056006 -0.063453 
-0.1358 1.2474 -0.29297 -0.089759 -0.050464 -0.017253 0.012835 0.014315 
-0.33391 0.90166 -0.55801 0.017438 0.019083 0.034373 0.041772 0.11165 
-0.34986 -0.057041 -0.68428 0.10803 0.073339 0.042265 0.070544 0.14486 
-0.194 -0.1649 -0.76336 0.067913 0.072681 0.04095 0.064625 0.13187 
-0.052602 0.67477 -0.83801 0.060679 0.024179 0.033222 0.039141 0.063145 
-0.066741 1.5623 -0.62131 0.03651 0.0069159 0.0046141 0.02681 0.01711 
-0.12593 1.7928 -0.303 0.053116 0.015794 1.0539e-005 0.00297 -0.024487 
-0.14846 1.6448 -0.13103 0.073997 0.078272 0.030592 0.023851 0.034537 
-0.062302 1.2402 0.084519 0.074161 0.076134 0.031249 0.050321 0.077121 
-0.047341 0.58648 0.60061 0.076134 0.053281 0.02533 0.041443 0.070051 
-0.14434 -0.31221 1.159 -0.038462 0.026646 0.027468 0.052623 0.035195 
-0.27522 -1.4564 1.4207 -0.13875 0.020891 0.025166 0.033551 -0.0047575 
-0.2282 -2.4848 1.3688 -0.1547 0.017603 0.0083956 0.0031344 -0.027282 
0.13023 -2.3529 0.71159 -0.022843 0.026974 -0.010348 0.012999 -0.0138 
0.42058 -1.4957 -0.13547 0.12579 0.046046 -0.0026201 -0.0022913 0.00066819 
0.43357 -0.67113 -0.61523 0.13121 0.053938 0.021056 0.0093821 0.019411 
0.31733 0.24318 -0.70664 0.094548 0.052787 0.01152 0.020069 0.0074092 
0.25847 0.96545 -0.61194 0.047526 -0.014293 -0.013471 -0.0075525 -0.04471 
0.21079 0.84839 -0.42122 -0.050629 -0.034352 -0.03205 -0.02646 -0.052931 
0.15242 0.24745 -0.37074 -0.071838 -0.023501 -0.009361 -0.0072237 -0.032215 
0.098166 0.46234 -0.64285 0.043909 0.025495 0.020562 0.024344 0.016452 
-0.12988 0.84395 -0.7433 0.23348 0.082875 0.050321 0.039141 0.085506 
-0.35578 1.0347 -0.5978 0.30319 0.13499 0.059528 0.08156 0.13516 
-0.45163 1.0847 -0.21965 0.29661 0.12677 0.061501 0.099645 0.12201 
-0.56722 0.90363 0.21654 0.22575 0.14108 0.066434 0.086492 0.15012 
-0.57725 0.50098 0.57151 0.10819 0.15193 0.083862 0.081231 0.13121 
-0.46249 0.051143 0.77078 -0.0070593 0.099974 0.05624 0.08863 0.12825 
-0.28031 -0.25138 0.87025 -0.070523 0.048348 0.037332 0.050157 0.069393 
-0.008539 -0.54601 0.84247 -0.1085 -0.02087 -0.0040998 0.018425 0.013164 
0.21983 -0.64745 0.56379 -0.1524 -0.055397 -0.028104 -0.011663 -0.037805 
0.30681 -0.52135 0.19024 -0.19219 -0.099131 -0.044381 -0.025638 -0.03205 
0.43916 -0.25368 -0.16654 -0.1667 -0.096994 -0.045861 -0.027447 -0.028597 
0.72014 -0.018733 -0.45344 -0.076935 -0.059672 -0.03353 -0.02942 -0.038956 
0.94967 0.2103 -0.58629 -0.053095 -0.037147 -0.045203 -0.038627 -0.081045 
1.0426 -0.063453 -0.49093 -0.023007 -0.010512 0.0011614 -0.038956 -0.12429 
0.74464 -0.67672 -0.24875 0.021384 0.00297 0.0079024 -0.012814 -0.10637 
-0.2647 -0.94915 0.1978 0.076134 0.029605 0.020891 0.01826 -0.024652 
-1.0759 -0.55423 0.57365 0.071695 0.067913 0.036675 0.051965 0.088465 
-1.0662 0.19879 0.59453 0.0786 0.079094 0.024673 0.063968 0.076627 
-0.48238 0.54948 0.37405 0.1202 0.098659 0.059693 0.054103 0.10655 
-0.03205 0.26981 0.16558 0.13976 0.090274 0.05772 0.050157 0.11642 
0.067585 -0.14566 0.049664 0.11017 0.075641 0.048019 0.061172 0.11625 
-0.0019624 -0.15043 -0.12314 0.085999 0.095535 0.03388 0.059035 0.12924 
-0.010019 0.27705 -0.29149 0.089123 0.082711 0.036346 0.047197 0.11329 
0.25765 0.47911 -0.3007 0.063803 0.03651 0.03536 0.040292 0.0324 
0.5702 0.28247 -0.058356 -0.043395 -0.031557 -0.0021268 -0.0052507 -0.06148 
0.65273 0.07449 0.15982 -0.10752 -0.068879 -0.019061 -0.041257 -0.1233 
0.60078 -0.22047 0.32604 -0.11048 -0.079072 -0.059836 -0.047012 -0.10078 
0.37208 -0.437 0.3119 -0.051615 -0.037147 0.0028056 0.011026 -0.02646 
0.020891 -0.5317 0.23529 -0.02498 -0.019061 0.046704 0.053116 0.12135 
-0.0021268 -0.41678 0.096028 0.029112 0.044731 0.050979 0.1008 0.15916 
-0.0080457 0.14683 -0.12774 0.11954 0.12546 0.082382 0.13401 0.11132 
-0.38916 0.58648 -0.32717 0.14864 0.16821 0.10902 0.12628 0.068571 
-0.65764 0.66046 -0.41185 0.13056 0.12381 0.12661 0.13878 0.08304 
-0.69151 0.38523 -0.31665 0.06183 0.060844 0.076792 0.074983 0.10063 
-0.71782 0.68496 -0.2647 0.044238 0.022206 0.031578 0.019411 0.14091 
-0.84244 0.91793 -0.057863 -0.0050863 0.011191 0.014808 -0.020541 0.15949 
-0.79098 0.20816 0.32654 -0.050629 0.0039565 0.020891 -0.022679 0.14453 
-0.29659 -0.35874 0.53978 -0.065755 -0.025638 0.027796 -0.051615 0.071531 
0.32835 -0.38209 0.33903 -0.053095 -0.022021 0.0085601 -0.020706 -0.047834 
0.62429 -0.1792 -0.11048 0.024673 0.029276 0.023851 0.0087245 -0.096007 
0.81222 -0.6052 -0.18019 0.10211 0.088958 0.038648 0.062323 -0.057863 
0.9985 -1.9682 0.35679 0.084848 0.083697 0.04095 0.084519 0.01152 
1.0315 -1.8592 0.75007 -0.011827 0.012999 0.025166 0.027139 -0.027611 
0.77933 0.11609 0.41187 -0.14451 -0.084005 -0.037311 -0.038462 -0.061151 
0.23594 2.0447 -0.23592 -0.11607 -0.10456 -0.048656 -0.030242 -0.037147 
-0.36006 2.4057 -0.80841 -0.0064016 -0.041751 -0.025638 -0.018075 -0.0077169 
-0.54486 1.743 -0.98959 0.083697 -0.0091966 -0.0016336 -0.014951 -0.0052507 
-0.40445 1.1685 -0.88667 0.055254 0.021549 0.026317 -0.0072237 -0.063946 
-0.32832 0.78936 -0.4906 0.083204 0.050979 0.025166 0.0051074 -0.076442 
-0.12445 -0.1843 0.18267 0.11773 0.083204 0.038977 0.0098754 -0.033201 
0.47237 -1.6297 1.0506 0.035853 0.031578 0.041443 0.020069 -0.047176 
0.76075 -2.5767 1.4985 -0.05737 0.0088889 0.015794 0.0056006 -0.025802 
0.53682 -1.9006 1.2783 -0.080881 0.015301 0.015465 0.019576 0.010862 
0.16344 -0.72177 0.6238 -0.051122 0.05065 0.027796 0.026317 0.089287 
-0.31829 0.34594 -0.047669 -0.013636 0.036675 0.036675 0.053281 0.14848 
-0.63808 1.0958 -0.49389 0.0082312 0.021056 0.049006 0.064132 0.20208 
-0.61473 1.5312 -0.72341 0.022206 0.012342 0.060844 0.069722 0.14913 
-0.42089 1.8109 -0.86316 0.08863 0.029605 0.040292 0.057555 0.1077 
-0.20189 1.6818 -0.7193 0.091425 0.061172 0.014315 0.047691 0.072353 
-0.045861 0.97762 -0.14221 0.095699 0.060186 0.0032988 0.025166 0.032236 
0.016123 0.19994 0.31947 0.13697 0.071037 0.025495 0.035688 0.017603 
0.035853 -0.4513 0.51397 0.18235 0.075805 0.050157 0.049499 -0.0057439 
0.17084 -1.1557 0.67066 0.073668 0.045882 0.015465 0.036182 -0.00015387 
0.27146 -1.4605 0.58631 -0.024816 0.0023123 -0.0036066 0.010533 -0.051287 
0.36567 -1.446 0.29661 0.025988 -0.048492 -0.0072237 -0.043724 -0.065919 
0.40891 -1.1445 0.095042 0.075148 -0.019061 -0.021199 -0.028104 -0.080223 
0.51216 -1.0394 0.27721 0.035853 -0.024158 -0.02794 -0.020541 -0.082525 
0.67033 -0.66455 0.37257 -0.041422 -0.045696 -0.035832 -0.031721 -0.14254 
0.62396 0.27803 0.23529 -0.11639 -0.035996 -0.010019 -0.0072237 -0.13316 
0.37685 0.85957 -0.029091 -0.09239 -0.024158 0.012506 0.017767 -0.074469 
0.13993 0.54636 -0.088937 -0.083018 0.019905 0.051143 0.053281 0.054267 
-0.11705 0.20142 -0.065097 0.018589 0.076134 0.058049 0.070051 0.15604 
-0.34148 0.2805 -0.13695 0.073504 0.087314 0.052623 0.071859 0.21769 
-0.35562 0.46267 -0.22902 0.12316 0.073997 0.048019 0.034373 0.18909 
-0.2716 0.58236 -0.16555 0.13335 0.079587 0.025824 0.065118 0.147 
-0.21652 0.6044 -0.0055795 0.099152 0.059693 0.038319 0.08863 0.10474 
-0.12083 0.60719 0.099152 0.056076 0.027139 0.013986 0.056076 0.074819 
0.11559 0.87848 -0.0024557 -0.0072237 -0.046354 -0.01676 0.010204 0.02533 
0.26554 1.388 -0.4878 0.037168 -0.067728 -0.047505 -0.01117 -0.013965 
0.27425 1.549 -0.88552 0.11872 -0.023501 -0.012814 -0.012485 -0.011992 
0.16821 1.0809 -0.97529 0.17906 0.046046 0.040456 0.038977 0.015465 
-0.042408 0.32654 -0.69875 0.16146 0.10113 0.059528 0.077449 0.089452 
-0.059014 -0.54075 -0.011663 0.06331 0.085835 0.05624 0.0689 0.08978 
0.028125 -1.4601 0.66852 0.019247 0.07301 0.04506 0.0421 0.048841 
0.11609 -2.7492 1.1746 0.067256 0.074161 0.041114 0.027632 -0.0064016 
0.15094 -3.4295 1.4462 -0.012814 0.053609 0.026646 0.0056006 -0.031557 
0.040128 -2.2064 1.2575 -0.099295 -0.027282 0.0046141 0.026317 -0.028926 
0.022864 -0.29347 0.62676 -0.17147 -0.042244 0.0037921 0.035524 0.0098754 
0.098166 0.95904 -0.26157 -0.098309 -0.0078813 0.029934 0.043251 0.021384 
0.17001 1.6072 -0.92942 -0.02942 0.024673 0.04095 0.042594 0.050486 
0.071037 1.8225 -0.92958 0.014315 -0.0004827 0.016123 0.025495 0.043416 
0.079751 1.3836 -0.51033 -0.014129 -0.065755 -0.026296 -0.022185 0.024673 
0.08419 0.32128 0.0064227 -0.019719 -0.044874 -0.034023 -0.023501 -0.029748 
-0.23214 -0.25368 0.23858 0.0227 0.034209 0.031907 0.038483 -0.0059084 
-0.40034 0.37471 -0.0503 0.13467 0.11428 0.069229 0.06479 0.021549 
-0.19663 0.9666 -0.37025 0.17791 0.12792 0.060679 0.046375 0.058706 
-0.0011404 0.79199 -0.43536 0.15522 0.10852 0.058871 0.052952 0.088794 
0.010204 0.2006 -0.27275 0.092904 0.058871 0.043251 0.048348 0.12957 
-0.15799 -0.028926 -0.16572 -0.0034422 0.035031 0.033058 0.032729 0.11839 
-0.43125 0.33772 -0.13234 -0.037805 0.04654 0.056733 0.054925 0.13713 
-0.51608 0.84839 -0.32734 -0.0070593 0.086492 0.058049 0.091918 0.16706 
-0.37995 1.1287 -0.73212 0.17593 0.11954 0.071037 0.091753 0.16722 
-0.15454 1.1769 -0.9628 0.3295 0.17084 0.13516 0.062323 0.12316 
0.024837 0.89936 -0.71897 0.32637 0.15768 0.072353 0.057062 0.0786 
0.092904 -0.10275 -0.095021 0.13105 0.079258 0.052623 0.051636 0.016452 
0.19977 -1.7411 0.68841 0.027468 0.051472 0.028125 0.025824 -0.050958 
0.32604 -2.8817 1.4427 -0.096665 -0.028597 -0.013636 -0.025967 -0.12083 
0.50509 -3.268 2.0688 -0.2739 -0.17805 -0.078579 -0.11508 -0.27012 
0.78509 -3.3317 2.1162 -0.42878 -0.26404 -0.12757 -0.17608 -0.32388 
0.81452 -2.2306 0.99225 -0.37255 -0.27867 -0.13448 -0.14714 -0.27259 
0.4311 0.18317 -0.4906 -0.099789 -0.15125 -0.076442 -0.082361 -0.1182 
-0.13234 2.0738 -1.044 0.072846 -0.049149 -0.012156 0.00297 0.028619 
-0.32931 2.5646 -0.73229 0.051965 -0.022679 -0.004593 0.022206 0.063968 
-0.30054 2.4163 -0.36154 0.046868 0.01563 0.033551 0.018754 0.045882 
-0.29577 2.0236 -0.34871 0.14831 0.061008 0.042923 0.054925 0.10359 
-0.36071 1.423 -0.26946 0.147 0.12003 0.083533 0.09981 0.15555 
-0.30448 0.43817 0.030098 0.10787 0.12694 0.11115 0.11773 0.18843 
-0.19975 -0.40067 0.14733 0.10902 0.13779 0.094055 0.13697 0.15966 
-0.14862 -0.75152 -0.0036066 0.15078 0.11 0.083204 0.11642 0.17939 
-0.10982 -0.65337 0.0062583 0.098823 0.11905 0.068078 0.10096 0.14798 
-0.088608 -0.51839 0.15883 0.067913 0.080244 0.058213 0.062323 0.1054 
-0.0965 -0.25138 0.19221 0.053774 0.10507 0.026152 0.044073 0.086821 
-0.17279 0.085506 0.033715 0.13467 0.13565 0.0689 0.045389 0.075641 
-0.18019 0.22 -0.1695 0.19862 0.14009 0.08156 0.067749 0.044402 
-0.097651 -0.080881 -0.12988 0.21917 0.14437 0.06742 0.054267 -0.0062372 
-0.016266 -0.82091 0.12069 0.23003 0.1299 0.069229 0.029605 -0.025309 
0.048348 -1.3118 0.43735 0.18415 0.10556 0.039141 0.0227 0.0051074 
0.015137 -1.1688 0.58516 0.10474 0.030263 0.0227 0.023851 0.066105 
0.048677 -0.4615 0.53255 0.01711 -0.02942 0.0067515 0.022206 0.059857 
0.27212 -0.093048 0.35514 -0.079566 -0.092226 -0.02498 0.0059294 0.0056006 
0.64862 -0.40395 0.32555 -0.21406 -0.15109 -0.075784 -0.059672 -0.12823 
0.76339 -0.39738 0.17955 -0.26042 -0.13908 -0.080881 -0.075455 -0.16835 
0.5873 0.40595 -0.27736 -0.18117 -0.11557 -0.056548 -0.078908 -0.1598 
0.37011 1.2818 -0.6634 -0.041257 -0.071181 -0.041422 -0.049149 -0.099131 
0.31273 1.4294 -0.52578 -0.014951 -0.075949 -0.060165 -0.054082 -0.076935 
0.22131 0.65027 0.17347 -0.080552 -0.071838 -0.0503 -0.024487 -0.074633 
0.0080668 0.20651 0.56313 -0.067399 -0.029584 -0.0022913 0.018096 0.0026412 
-0.15437 -0.49931 0.56839 0.0083956 0.0062583 0.037826 0.053609 0.084026 
-0.22409 -0.86102 0.38359 0.028783 0.055254 0.047362 0.086821 0.11461 
-0.29873 -0.10932 0.12743 0.066105 0.093069 0.05065 0.071202 0.14667 
-0.36417 0.86466 -0.21208 0.13039 0.12069 0.075312 0.088958 0.17084 
-0.42385 1.1072 -0.39951 0.19435 0.15259 0.11083 0.12069 0.20487 
-0.41398 1.0167 -0.45065 0.19501 0.18152 0.11231 0.14585 0.20931 
-0.26026 0.65915 -0.38077 0.17232 0.1465 0.097672 0.10524 0.20323 
-0.13629 0.31157 -0.23543 0.10408 0.13516 0.06594 0.092576 0.14617 
-0.14698 0.19747 -0.21241 0.08304 0.11165 0.061501 0.093726 0.10622 
-0.025309 -0.033365 -0.23247 0.084519 0.092576 0.05065 0.049006 0.055254 
0.17149 -0.2739 -0.2037 0.10113 0.072681 0.029934 0.032071 0.0079024 
0.37093 -0.40593 -0.026953 0.023522 0.045224 0.0018191 0.0054362 -0.031721 
0.45938 -0.62641 0.23512 -0.091897 0.01267 -0.01117 -0.0087034 -0.060329 
0.41121 -0.31928 0.50279 -0.2545 -0.053095 -0.026624 -0.034681 -0.065919 
0.25814 0.45511 0.5725 -0.28607 -0.074962 0.013492 -0.022679 -0.063289 
0.096193 0.50904 0.33147 -0.17953 -0.089102 -0.0054151 -0.026131 -0.042573 
-0.0044286 0.16114 0.11592 -0.07266 -0.085156 -0.03057 -0.017088 -0.047341 
0.19912 -0.22803 -0.063124 -0.065591 -0.05589 -0.036325 -0.0042642 -0.027611 
0.64287 -0.42533 -0.0050863 -0.055397 -0.071838 -0.02794 -0.025474 -0.07266 
0.94687 -0.45887 0.060844 -0.006566 -0.057041 -0.004593 -0.033694 -0.07973 
0.694 -0.22951 -0.13267 0.089945 0.027139 -0.00031829 -0.014129 -0.056055 
0.079916 0.16969 -0.52578 0.19303 0.12003 0.049335 0.034537 0.0028056 
-0.39491 0.40217 -0.61259 0.19879 0.11707 0.051801 0.048513 0.042429 
-0.54321 0.38753 -0.33983 0.063145 0.076956 0.056733 0.059857 0.097508 
-0.24447 0.43719 -0.03616 -0.11064 0.02533 0.029112 0.026481 0.12003 
0.32654 0.3678 0.16344 -0.071181 0.048513 0.0324 0.035853 0.10639 
0.27212 0.38967 0.19303 0.023522 0.13483 0.064296 0.064625 0.13861 
-0.37206 0.66835 0.31716 0.13401 0.14716 0.082382 0.083368 0.11921 
-0.96132 0.94145 0.48092 0.15604 0.1567 0.10458 0.071531 0.12135 
-1.3028 0.79594 0.38474 0.15193 0.084026 0.066927 0.085012 0.14075 
-1.0465 0.27754 0.063968 0.10737 0.052623 0.039963 0.075641 0.19106 
-0.17065 -0.017911 -0.27029 0.080573 -0.008539 0.005765 0.034537 0.15522 
0.7185 -0.12938 -0.267 -0.059507 -0.052109 -0.019226 0.025166 0.0034632 
0.97005 -0.30333 -0.090253 -0.1598 -0.090253 -0.041915 0.039141 -0.18084 
0.57118 -0.86497 0.097672 -0.21833 -0.072003 -0.018897 0.08304 -0.16572 
0.043087 -1.0665 0.12727 -0.16753 -0.067892 -0.010348 0.075312 -0.065426 
-0.10193 -0.52496 -0.11985 0.010369 -0.021363 0.010369 0.037168 0.041607 
0.1128 -0.17065 -0.25056 0.14502 0.03651 0.046046 0.0032988 0.063145 
0.32078 -0.6874 0.18169 0.15308 0.031907 0.043251 -0.013307 0.059364 
0.28626 -0.98713 0.53699 0.049828 0.037661 0.021549 -0.042408 0.020233 
0.098166 -0.39573 0.41253 0.035524 0.029276 0.0227 -0.060823 -0.012814 
-0.0082102 0.32752 -0.017582 0.11148 0.037004 0.0039565 -0.080223 -0.048492 
0.012999 0.37356 -0.31024 0.18843 0.023357 0.0028056 -0.10242 -0.054739 
-0.085156 0.40874 -0.35216 0.10507 0.01711 0.0054362 -0.058521 -0.016102 
-0.19827 0.52778 -0.096665 0.024179 0.037497 0.004943 0.045718 0.072188 
-0.17608 0.38934 0.36123 -0.056383 -0.0090322 0.031249 0.12283 0.10129 
-0.036818 0.1881 0.65734 -0.055232 -0.025309 0.0093821 0.15456 0.05476 
0.017438 0.20503 0.36452 -0.050793 -0.0052507 0.033551 0.11674 0.074983 
-0.053753 0.39789 -0.10538 -0.046354 -0.020541 0.051308 0.079587 0.061501 
-0.24579 0.39329 -0.20452 0.023028 0.016616 0.016288 0.043251 0.054925 
-0.29692 0.19649 -0.18627 0.14223 0.050814 0.022042 0.018425 0.036346 
-0.10637 0.029934 -0.34263 0.22822 0.075476 0.053609 0.01563 0.054267 
0.12217 -0.059836 -0.49142 0.23348 0.1276 0.050321 0.03092 0.088794 
0.16459 -0.22672 -0.46479 0.1927 0.13088 0.054925 0.05476 0.10869 
0.06594 -0.13103 -0.25269 0.16656 0.088301 0.047691 0.060515 0.078436 
0.18991 0.37487 0.16114 0.16623 0.10967 0.017603 0.041443 0.035031 
0.36238 0.81402 0.4658 0.12595 0.11642 0.046704 0.039305 0.01152 
-0.020377 0.62248 0.40332 0.11905 0.13762 0.10228 0.066927 0.055747 
-0.64942 -0.23543 0.41302 0.0032988 0.055254 0.066434 0.077121 0.070544 
-0.66027 -0.47399 0.4048 -0.18331 -0.055068 0.022864 0.063145 0.095535 
-0.10637 0.49654 0.16081 -0.30925 -0.1376 -0.044381 1.0539e-005 -0.010348 
0.40134 0.72754 -0.18216 -0.32109 -0.15881 -0.051944 -0.039942 -0.11837 
0.44804 -0.26831 -0.25993 -0.30925 -0.11541 -0.05178 -0.084169 -0.18232 
0.33673 -1.5333 0.049335 -0.23428 -0.109 -0.045861 -0.064604 -0.14813 
0.29349 -1.921 0.32423 -0.10308 -0.059672 -0.02235 -0.026789 -0.073318 
0.08978 -1.2117 0.42847 0.013821 -0.014129 -0.0029489 0.00033937 0.019083 
0.04917 -0.16276 0.23496 0.080409 0.0013258 -0.0060728 0.0024767 0.019905 
0.1932 0.51775 0.11477 0.18087 -0.011663 -0.026131 -0.037969 -0.01676 
0.46793 -0.21702 0.21441 0.29579 0.0075736 -0.013965 -0.040764 -0.068879 
0.82964 -1.3459 0.47007 0.35613 0.074983 -0.017253 -0.049807 -0.1182 
0.68677 -0.26996 0.48207 0.30352 0.095206 0.018425 -0.032215 -0.1187 
-0.12149 1.7052 0.079422 0.2269 0.11395 0.049828 -0.0042642 -0.020541 
-0.82567 2.1834 -0.60043 0.092411 0.083368 0.079751 0.077285 0.1373 
-0.93468 1.7497 -1.3137 0.019905 0.092576 0.084848 0.12085 0.23923 
-0.71519 1.2121 -1.3363 -0.087293 0.058871 0.067913 0.1322 0.29234 
-0.19992 0.6164 -0.60405 -0.16638 0.040292 0.01563 0.10852 0.20553 
0.57957 -0.099789 0.20717 -0.18101 0.0031344 0.037826 0.051308 0.098001 
1.2484 -0.8773 0.65471 -0.12149 -0.015116 0.01152 0.0024767 -0.027118 
1.5375 -1.0272 0.69269 -0.087129 -0.0138 -0.0027845 -0.0087034 -0.10686 
1.0376 -0.3954 0.44755 -0.0011404 -0.00097594 -0.014787 -0.029913 -0.17838 
-0.012978 0.18794 0.2999 0.085999 0.021056 -0.0040998 -0.028597 -0.16128 
-0.55982 0.17807 0.36008 0.14716 0.034702 0.036839 -0.0054151 -0.090417 
-0.56968 -0.31912 0.58664 0.13746 0.049335 0.030263 0.011191 0.043416 
-0.40856 -0.80348 0.8326 0.032729 0.017438 0.0042853 0.013328 0.02533 
-0.22984 -1.0248 0.72261 -0.017253 0.012342 -0.0138 0.029934 0.03799 
-0.047834 -0.62591 0.21161 -0.013965 0.0026412 0.01267 0.041114 0.037168 
0.055582 0.048677 -0.33424 0.042594 0.020398 0.020069 0.038483 0.059035 
0.1003 0.34775 -0.58958 0.054432 -0.02087 0.032893 0.037004 0.073339 
0.032729 0.3854 -0.47778 0.075805 0.058871 0.03536 0.040785 0.058049 
-0.063124 0.46678 -0.34279 0.043909 0.08419 0.023357 0.044896 0.095206 
-0.054575 0.53518 -0.25582 -0.0014692 0.058377 0.03799 0.057391 0.082217 
0.12447 0.30516 -0.19515 -0.021363 0.050157 0.01826 0.031414 0.064132 
0.29448 0.099481 -0.13941 -0.012978 0.01826 0.017438 0.015137 0.048019 
0.26932 0.16327 -0.2374 0.040621 0.052787 0.0093821 0.025495 0.034702 
-0.16095 0.56954 -0.40395 0.11707 0.056404 0.049499 0.050814 0.026974 
-0.48452 0.71998 -0.52694 0.14091 0.070708 0.067256 0.057227 0.064132 
-0.38768 0.36402 -0.46528 0.17462 0.0592 0.047855 0.08008 0.04917 
-0.16243 -0.30646 -0.10308 0.1174 0.057884 0.037661 0.059857 0.086163 
0.10096 -0.015444 0.32111 0.081067 0.014808 0.0074092 0.027796 0.035853 
0.43045 0.49391 0.50279 0.078272 -0.0090322 -0.012156 0.00050378 0.029112 
0.5115 0.29875 0.54208 0.11198 0.024673 0.0056006 0.014972 -0.0032777 
0.36402 -0.571 0.5531 0.11378 0.078765 0.029769 0.013986 -0.032215 
-0.10439 -1.0238 0.67049 0.075148 0.13006 0.062159 0.075476 -0.03353 
-0.46347 -0.69513 0.61574 0.05624 0.11066 0.086492 0.12464 0.087479 
-0.46676 -0.16523 0.30681 -0.013143 0.076627 0.078107 0.12908 0.1756 
-0.24941 -0.11837 0.053774 -0.11343 0.0075736 0.051143 0.083533 0.18366 
0.041443 -0.41497 -0.091404 -0.12297 -0.020706 0.022864 0.045224 0.14174 
0.090603 0.12053 -0.20403 -0.038298 0.035853 0.036675 0.03536 0.14469 
-0.20584 1.044 -0.34559 0.050486 0.076956 0.055418 0.061501 0.15012 
-0.4809 1.3546 -0.40658 0.14305 0.12431 0.085177 0.086985 0.11658 
-0.53532 1.2547 -0.4855 0.19764 0.15818 0.081724 0.067256 0.056733 
-0.41431 0.85513 -0.49241 0.17725 0.1442 0.054103 0.039141 -0.014787 
-0.082196 0.16525 -0.081374 0.014808 0.012177 0.0014903 -0.0095255 -0.039778 
0.27392 -0.63693 0.29941 -0.13152 -0.1016 -0.053917 -0.033037 -0.024487 
0.45774 -0.72785 0.30812 -0.12577 -0.099295 -0.03501 -0.021199 -0.0098543 
0.32802 -0.18742 0.06594 -0.064275 -0.028762 -0.0078813 0.0064227 -0.001798 
0.10787 0.54323 -0.2328 -0.017088 0.027632 0.01152 0.0088889 0.019247 
-0.13037 0.70074 -0.39623 0.090931 0.034537 0.034866 0.051308 0.083697 
-0.20452 0.14552 -0.22737 0.19435 0.078765 0.081395 0.079422 0.13598 
-0.18528 -0.48846 -0.10406 0.26603 0.11576 0.096686 0.073832 0.13006 
0.0051074 -1.1729 0.2805 0.15522 0.09422 0.073339 0.047691 0.070544 
0.37915 -2.0856 1.1262 -0.10012 -0.014951 -0.00015387 -0.01676 -0.075949 
0.50756 -1.6737 1.4725 -0.25286 -0.087786 -0.044217 -0.053917 -0.14171 
0.29201 -0.036325 0.7864 -0.19433 -0.047341 -0.032708 -0.042573 -0.10686 
-0.080388 1.3956 -0.29347 -0.055726 0.01004 0.026481 0.0046141 0.013986 
-0.34279 1.8066 -1.066 0.070708 0.04506 0.012506 0.01563 0.066927 
-0.28755 1.3896 -1.0575 0.048348 -0.0080457 -0.0091966 0.012835 0.043416 
0.059528 0.60966 -0.41546 -0.097158 -0.1621 -0.10357 -0.047176 -0.084169 
0.28231 0.17018 0.19303 -0.20682 -0.17936 -0.069701 -0.055397 -0.081374 
0.26784 -0.24118 0.33541 -0.16687 -0.12297 -0.060987 -0.036983 -0.043559 
0.19451 -0.22918 0.18202 -0.03501 -0.027447 0.0075736 0.034537 0.00099702 
0.098659 0.092904 0.19649 0.034373 0.040128 0.03947 0.064296 0.047197 
0.099481 -0.28426 0.38655 0.058213 0.082711 0.041772 0.047526 0.038319 
0.10951 -0.72275 0.42091 0.10293 0.10754 0.081067 0.10836 0.073668 
0.077778 -0.63413 0.39428 0.13828 0.084026 0.059364 0.081067 0.065447 
0.03388 -0.4102 0.34955 0.057884 0.050979 0.034866 0.037332 0.037497 
-0.031064 -0.14106 0.044731 0.05476 0.046704 0.0037921 0.0062583 -0.0072237 
-0.10719 0.19369 -0.26618 0.042758 0.041278 0.028947 -0.0052507 0.017767 
-0.046847 0.40611 -0.12873 0.0079024 0.042265 0.038155 0.0067515 0.042758 
-0.01939 0.70107 0.079422 -0.044874 0.040456 0.038812 0.040128 0.094877 
-0.10456 1.281 0.0013258 -0.027611 0.046375 0.040621 -0.0055795 0.05772 
-0.18759 1.6134 -0.33145 0.045389 0.064954 0.053116 0.031742 0.085835 
-0.093376 1.2262 -0.61095 0.085177 0.06594 0.040621 0.033715 0.012506 
0.13154 0.47698 -0.63759 0.030098 -0.0014692 -0.0077169 0.0092177 -0.058685 
0.47714 -0.14385 -0.53088 -0.054082 -0.069372 -0.063289 -0.042737 -0.15454 
0.88143 -0.8094 -0.13382 -0.070523 -0.080223 -0.072003 -0.049807 -0.15355 
0.84707 -1.0899 0.46349 -0.068714 -0.071509 -0.038956 -0.026296 -0.1358 
0.48289 -1.2758 0.69039 0.0037921 -0.033365 -0.0075525 -0.027611 -0.08384 
0.35219 -1.6591 0.54258 0.033222 -0.015773 -0.0031133 -0.014293 -0.043066 
0.15111 -1.9723 0.038648 0.029934 0.020069 0.039305 0.048348 0.089616 
-0.24513 -1.9231 -0.36367 -0.0021268 0.028783 0.061008 0.089452 0.18004 
-0.40872 -1.2712 -0.01676 -0.031886 0.07597 0.053445 0.11017 0.18399 
-0.22261 -0.25138 0.44228 -0.10209 0.060186 0.034702 0.046868 0.086821 
-0.0098543 0.65158 0.43817 -0.15733 -0.048985 -0.014787 -0.017417 -0.044052 
0.070215 1.5483 0.22542 -0.22047 -0.11278 -0.047834 -0.056383 -0.13481 
-0.063124 2.9671 0.053445 -0.18232 -0.12281 -0.058521 -0.063618 -0.1307 
-0.27588 3.5683 -0.1108 0.031085 -0.017746 -0.013471 0.0079024 -0.035174 
-0.34131 2.5078 -0.35496 0.31141 0.091918 0.076134 0.092082 0.063968 
-0.060987 0.88357 -0.39162 0.39871 0.1761 0.074983 0.08567 0.090931 
0.34643 -0.35151 -0.45377 0.34446 0.16936 0.060844 0.075148 0.075476 
0.49654 -1.0619 -0.30284 0.24976 0.14733 0.062323 0.065283 0.10326 
0.50575 -1.2185 0.040292 0.24729 0.14256 0.06331 0.061501 0.11477 
0.4413 -1.1996 0.18251 0.23266 0.11543 0.069886 0.061337 0.14354 
0.10129 -1.0108 0.28642 0.15061 0.1174 0.057062 0.086163 0.15127 
-0.14237 -0.66948 0.33541 0.044402 0.075476 0.040292 0.059528 0.094713 
-0.024652 -0.25039 0.22411 0.028125 0.077943 0.043909 0.040621 0.038812 
-0.016266 0.22953 -0.0050863 0.039634 0.079094 0.079916 0.063639 0.040456 
-0.33375 0.69515 -0.16835 0.10622 0.094384 0.079587 0.066269 -0.014129 
-0.86053 0.49588 -0.39656 0.17199 0.11115 0.079094 0.070215 0.051308 
-1.1185 -0.05178 -0.40922 0.1539 0.12579 0.074654 0.097672 0.1105 
-0.59056 -0.19614 -0.34427 -0.035996 0.065283 0.06479 0.078929 0.16574 
0.14519 -0.35167 -0.050629 -0.18594 -0.038956 0.012999 0.030098 0.066927 
0.86154 -0.91199 0.4801 -0.28804 -0.13727 -0.053588 -0.051451 -0.077922 
1.158 -1.3276 0.91728 -0.26618 -0.16572 -0.074798 -0.085813 -0.15322 
0.92369 -1.2522 1.0115 -0.0965 -0.098144 -0.056055 -0.07266 -0.12692 
0.27277 0.18876 0.74793 0.12562 -0.032708 -0.034352 -0.022185 -0.063782 
-0.47597 1.8378 0.3563 0.29332 0.051801 0.038812 0.038319 0.062488 
-0.72029 2.0174 -0.021692 0.27968 0.11066 0.070544 0.10836 0.18695 
-0.48189 1.1077 -0.57577 0.29382 0.18169 0.093891 0.12825 0.20323 
-0.18315 -0.069536 -0.95079 0.33673 0.21934 0.08419 0.1225 0.12431 
-0.0868 -1.2867 -0.43355 0.23233 0.12266 0.066763 0.064132 0.025166 
0.02829 -2.1987 0.76815 -0.10932 -0.038791 0.0044497 0.0041209 -0.028433 
0.41746 -1.5614 1.281 -0.4125 -0.16259 -0.059014 -0.060165 -0.10045 
0.80284 0.60061 0.54143 -0.43766 -0.21471 -0.11623 -0.11311 -0.13777 
0.81764 1.63 -0.47169 -0.16621 -0.12609 -0.081868 -0.092719 -0.14993 
0.20125 1.2022 -0.87204 0.10162 -0.0016336 0.0023123 -0.024816 -0.11705 
-0.65107 0.93454 -0.87434 0.24449 0.08304 0.054596 0.037332 0.01711 
-0.98252 1.1142 -0.54305 0.31536 0.13384 0.070215 0.093069 0.19172 
-0.47449 0.75155 0.055747 0.20536 0.12842 0.055089 0.096357 0.22312 
0.23446 0.17297 0.58236 0.019411 0.054596 0.033222 0.06479 0.17445 
0.23677 -0.03205 0.52712 0.0324 0.055582 0.062323 0.084355 0.14815 
-0.28179 0.1784 0.31799 0.17725 0.11905 0.066763 0.074326 0.14946 
-0.66027 0.19649 0.33624 0.16722 0.14864 0.063474 0.0786 0.14864 
-0.644 -0.22425 0.55836 0.035853 0.097837 0.03651 0.066105 0.1368 
-0.29643 -0.55916 0.45692 -0.094527 0.0023123 0.044402 0.058213 0.05476 
0.15883 -0.66258 0.17741 -0.13152 -0.037805 0.007738 0.0227 -0.051122 
0.5651 -0.57034 -0.033201 -0.12971 -0.053753 -0.0096899 -0.023336 -0.10275 
0.31092 -0.4204 -0.25845 -0.071509 -0.039449 -0.015444 -0.029913 -0.07414 
-0.27834 -0.28278 -0.35249 0.0016547 -0.031557 0.0014903 0.0052718 0.019905 
-0.067564 -0.26716 -0.34296 0.044402 -0.026296 0.030098 0.02829 0.03092 
0.51035 0.047691 -0.35266 0.016452 0.034044 0.044238 0.053609 0.0092177 
0.53847 0.7892 -0.4587 0.02829 0.098001 0.051636 0.057555 0.031085 
0.21243 0.88324 -0.44078 0.074819 0.09833 0.053938 0.07597 0.14634 
-0.15881 0.64287 -0.55669 0.16262 0.10408 0.064625 0.067749 0.16903 
-0.46775 0.61706 -0.5562 0.15028 0.12151 0.089945 0.077614 0.16985 
-0.6902 0.35728 -0.29741 0.092247 0.091589 0.066105 0.067749 0.079751 
-0.77569 0.2953 -0.093376 0.046375 0.044073 0.032893 0.050321 0.068242 
-0.34098 0.060844 0.16179 0.054267 0.0085601 0.011191 0.032893 0.023686 
0.33344 -0.56228 0.38655 -0.019226 -0.019719 0.012999 0.016288 -0.024652 
0.98633 -1.0236 0.87584 -0.22326 -0.13432 -0.051287 -0.078086 -0.15848 
1.3957 -1.8097 1.6407 -0.3885 -0.2397 -0.12462 -0.16325 -0.29561 
1.3129 -2.3761 1.8918 -0.45607 -0.28295 -0.18331 -0.17197 -0.37403 
0.77161 -1.5682 1.1192 -0.35644 -0.23346 -0.121 -0.11343 -0.20797 
0.095042 0.10211 -0.067892 -0.15816 -0.12215 -0.050793 -0.042573 -0.041751 
-0.42204 1.0077 -0.85362 0.089123 0.030263 0.036182 0.043909 0.092082 
-0.64186 1.4258 -0.94652 0.21605 0.17659 0.082382 0.10063 0.17807 
-0.51888 1.6833 -0.75383 0.23973 0.18317 0.10376 0.12414 0.1881 
-0.34493 1.913 -0.70549 0.20849 0.18432 0.087314 0.11099 0.13746 
-0.093376 1.7321 -0.71535 0.17889 0.10096 0.062488 0.071202 0.027961 
0.07301 1.1363 -0.67162 0.088136 0.069064 0.033058 0.041607 0.007738 
0.035853 0.4944 -0.57379 0.08567 0.060186 0.030263 0.036839 0.043251 
-0.087622 -0.1182 -0.52036 0.18859 0.095042 0.057062 0.077449 0.1299 
-0.15306 -0.67195 -0.20008 0.23463 0.12464 0.072681 0.088465 0.13023 
-0.024652 -1.0269 0.23874 0.093726 0.11198 0.075148 0.069393 0.12085 
0.17495 -0.94142 0.52334 -0.031392 0.054103 0.041772 0.062981 0.084848 
0.16064 -0.57544 0.55425 -0.091239 0.0034632 0.01826 0.050979 0.056404 
0.11313 -0.36795 0.57562 -0.10275 -0.011992 0.012177 0.021549 0.0014903 
0.11674 -0.23198 0.53337 -0.073811 0.017438 0.015137 0.009711 -0.0060728 
0.18711 -0.065755 0.34281 -0.022679 0.066269 0.034209 0.014808 -0.01528 
0.32489 -0.014458 0.19879 -0.033201 0.032236 0.0046141 0.0018191 -0.012156 
0.40677 -0.045039 0.12628 -0.1279 -0.037969 -0.021034 -0.017088 -0.1062 
0.51446 -0.055397 0.0092177 -0.16736 -0.056712 -0.040435 -0.041093 -0.16128 
0.52646 -0.017582 -0.11426 -0.11722 -0.056055 -0.02942 -0.028269 -0.099131 
0.18678 0.1904 -0.21093 0.045224 -0.0031133 0.020891 0.017603 0.01974 
-0.40823 0.68627 -0.26322 0.13171 0.043251 0.034373 0.08863 0.12842 
-0.78358 0.97268 -0.27357 0.13845 0.10984 0.064132 0.13812 0.20092 
-0.79476 0.45314 -0.22277 0.12464 0.12316 0.076299 0.14864 0.21062 
-0.49109 -0.74462 0.036839 0.13647 0.090767 0.066927 0.11296 0.17314 
-0.096665 -1.1912 0.34577 0.047855 0.037826 0.023851 0.062488 0.11707 
0.19468 -0.51378 0.39411 -0.085485 -0.017911 0.0014903 -0.00097594 0.043416 
0.39033 0.31634 0.087972 -0.099295 -0.039449 -0.018404 -0.05326 -0.02794 
0.57645 0.82652 -0.38488 0.020233 -0.0052507 -0.017911 -0.066577 -0.11212 
0.51956 1.3569 -0.59895 0.24992 0.085341 0.026646 -0.045203 -0.14911 
0.36649 1.0195 -0.42664 0.32982 0.12217 0.043251 -0.036325 -0.095185 
0.38293 0.042265 0.0088889 0.28642 0.12743 0.051308 0.0042853 0.039799 
0.26225 -0.47728 0.23282 0.2759 0.098166 0.055089 0.048841 0.13286 
-0.036818 -0.67343 0.2736 0.19484 0.084519 0.0592 0.094384 0.16623 
-0.37962 -0.80874 0.51315 0.020562 0.061008 0.064296 0.12858 0.10474 
-0.65419 -0.79115 0.94112 -0.16687 0.015959 0.045389 0.092082 -0.020377 
-0.39573 -0.54995 1.0228 -0.31386 -0.046025 0.020891 0.055911 -0.037311 
-0.016595 -0.18545 0.65882 -0.41152 -0.10357 -0.025145 0.0062583 -0.016266 
0.040292 0.74333 -0.16243 -0.35315 -0.13333 -0.029913 -0.0406 0.0039565 
0.10113 1.7292 -0.89621 -0.12955 -0.075291 -0.023007 -0.049807 0.02533 
0.45675 1.6136 -1.1435 0.12924 0.01563 -0.0059084 -0.030242 0.048184 
0.47385 0.77933 -0.91331 0.27935 0.093891 0.056076 0.040456 0.09685 
0.082217 -0.27177 -0.36811 0.30303 0.14453 0.072846 0.073668 0.074654 
-0.15552 -1.1331 0.28806 0.20849 0.10392 0.053445 0.043251 -0.012156 
0.026481 -1.4324 0.89294 0.026646 -0.00064712 0.029605 0.010204 -0.04882 
0.018096 -0.97266 0.92533 0.056733 -0.01232 0.027796 -0.0064016 -0.047998 
-0.28623 -0.2032 0.40348 0.19402 0.072517 0.035195 0.041607 0.035524 
-0.47991 0.34298 -0.25878 0.24088 0.13746 0.069558 0.077285 0.12381 
-0.37666 0.46695 -0.58645 0.16755 0.11428 0.066434 0.087972 0.1539 
-0.1381 0.49079 -0.39836 0.12875 0.083204 0.043909 0.064461 0.11707 
0.05476 0.49227 0.0064227 0.12743 0.054267 0.027139 0.027961 0.08156 
0.12825 0.54093 0.44574 0.14272 0.079258 0.024344 0.024837 0.055582 
0.159 0.40069 0.633 0.11148 0.093398 0.034373 0.042923 0.065447 
0.21835 0.32654 0.29546 0.08304 0.066598 0.059364 0.050814 0.039634 
0.21572 0.37372 -0.19367 0.080573 0.091425 0.077449 0.069722 0.073504 
0.079916 0.083204 -0.41069 0.095042 0.083862 0.049499 0.063145 0.039799 
-0.038298 -1.2513 -0.061973 0.024015 0.037661 0.020233 0.027796 0.0069159 
-0.15914 -2.3537 0.45363 -0.13366 -0.058192 -0.0083746 -0.0070593 -0.082525 
-0.092061 -2.3197 0.96446 -0.2739 -0.17953 -0.051122 -0.060165 -0.13201 
0.2371 -1.2676 1.0232 -0.3178 -0.21915 -0.10275 -0.096994 -0.18232 
0.70716 0.41894 0.66359 -0.20847 -0.15881 -0.087622 -0.07562 -0.13695 
0.87913 1.6285 0.20043 -0.0082102 -0.060823 -0.043395 -0.028597 -0.06855 
0.71225 1.8931 -0.045532 0.061666 -0.017417 0.020398 0.00050378 0.013986 
0.34939 1.6578 -0.2476 0.098659 0.059364 0.049499 0.015794 0.046211 
-0.30563 0.91876 -0.44062 0.11855 0.1391 0.085506 0.070215 0.076956 
-0.75777 0.030427 -0.44851 0.13927 0.18662 0.11543 0.10606 0.11757 
-0.49471 -1.2847 -0.12741 0.06742 0.14897 0.085012 0.11115 0.083204 
-0.12462 -1.991 0.18267 -0.10489 0.013328 0.03651 0.034702 0.025659 
