0.051801 0.034537 0.021878 0.009711 0.0070803 0.02122 0.027961 0.032564 
0.030098 0.026317 0.023851 0.018589 0.013492 0.01267 0.028619 0.02533 
0.0324 0.051801 0.0075736 0.022371 0.024179 0.014972 0.027303 0.0093821 
0.026152 0.049664 0.005765 0.0034632 0.034866 0.023522 0.028947 0.038155 
0.020891 0.036839 0.010697 0.035524 0.014479 0.041443 0.0324 0.028125 
0.019247 0.03947 0.019083 0.02533 0.040621 -0.010676 0.039305 0.038155 
0.011026 0.051965 0.03799 0.03388 0.032564 0.01267 0.020891 0.028125 
0.037168 0.064461 0.0023123 0.023686 0.032893 -0.0082102 0.01826 0.027796 
0.034702 0.066105 0.024673 0.047197 0.020398 0.01711 0.020233 0.025824 
0.049992 0.033222 0.045389 0.028454 0.0046141 0.022535 0.031907 0.018425 
0.037332 0.036346 0.06479 0.018754 0.021384 0.011026 0.034209 0.013164 
0.039634 0.024015 0.044402 0.0046141 0.04095 0.010204 0.039963 0.032236 
0.058377 0.055911 0.03536 0.038319 0.024508 0.012177 0.033058 0.010697 
0.065776 0.046046 0.036346 0.015959 0.012835 0.03092 0.03092 0.038648 
0.062981 0.037661 0.044731 0.033058 0.047526 0.025824 0.0046141 0.0074092 
0.040292 0.028783 0.042429 0.022371 0.030098 0.017438 0.016616 0.030756 
0.042429 0.026317 0.021878 0.046868 0.040785 0.023193 0.010697 0.02829 
0.033387 0.035853 0.031414 0.026974 0.027468 0.01152 0.040785 0.025659 
0.049828 0.061172 0.044402 0.014972 0.027468 0.031907 0.031578 0.0083956 
0.038977 0.057391 0.050321 0.019905 0.026646 0.025495 0.029276 0.044896 
0.03388 0.05624 0.011026 0.058706 0.0421 0.029605 0.027632 0.040785 
0.016288 0.044896 0.01004 0.025988 0.038977 0.028454 0.024508 0.036182 
0.033715 0.044073 0.016945 0.028125 0.032729 0.01974 0.034373 0.03947 
0.016781 0.071037 0.042923 0.020069 0.0227 0.040128 0.049992 0.01974 
0.034537 0.06331 0.029276 0.031742 0.032729 0.0072447 0.038483 0.027961 
0.045718 0.047362 0.0037921 -0.014951 0.028947 0.01826 0.017438 0.013492 
0.04506 0.042594 0.018425 0.010533 0.023357 0.010862 0.016123 0.024179 
0.032236 0.038977 0.039963 0.056569 0.0016547 -0.0060728 0.022535 -0.0095255 
0.033715 0.039963 0.049499 0.020891 0.009711 0.026974 0.024179 0.031742 
0.03799 0.037168 0.028619 -0.011992 0.028947 0.029934 0.041278 0.032564 
0.022206 0.035688 0.013164 0.013986 0.023522 0.018096 0.037332 0.01711 
0.032893 0.047197 0.0090533 0.054267 0.022371 0.015959 0.021878 0.018918 
0.014315 0.032893 0.038319 0.044896 -0.00097594 0.026317 0.026481 0.033715 
0.01826 0.05772 0.017438 0.030427 0.026974 0.033715 0.022042 0.026974 
0.024179 0.0592 0.031578 0.024837 0.03536 0.018589 0.013164 0.058377 
0.019905 0.051965 0.024179 0.055582 0.023357 0.021056 0.032071 0.025824 
0.023851 0.040456 0.047691 0.021713 0.0083956 0.021878 0.028947 0.047691 
0.026317 0.024344 0.03651 0.01267 0.027632 0.039141 0.018589 0.021549 
0.025824 0.023686 0.016616 0.032071 0.036182 0.030756 0.016616 0.033715 
0.036675 0.058542 0.0083956 0.051308 0.012506 0.013657 0.033222 0.027303 
0.037661 0.047855 0.024015 0.019083 0.010697 0.018589 0.0082312 0.032729 
0.017932 0.049006 0.045553 0.011026 0.019083 0.0088889 0.0059294 0.022864 
0.035524 0.028947 0.032729 0.017438 0.037332 0.032729 0.018918 0.026152 
0.031414 0.019905 0.039963 0.031085 0.051308 0.025495 0.0028056 0.021384 
0.017932 0.059035 0.03536 0.026317 0.02533 0.018589 0.0051074 0.024837 
0.01563 0.071531 0.050486 0.032564 0.030098 0.0083956 0.020562 0.028783 
0.027303 0.049499 0.017932 0.05772 0.038648 0.037332 0.024837 0.025166 
0.0034632 0.032893 0.0069159 0.078272 0.056733 0.037004 0.034209 0.02533 
0.010862 0.052952 0.023357 0.048348 0.03388 0.040456 0.040785 0.028454 
0.018918 0.035688 0.03388 0.016288 0.026481 0.012342 0.019247 0.035031 
0.044896 0.044238 0.029276 0.035195 0.01826 0.0023123 0.012177 0.0067515 
0.034373 0.052294 0.020069 0.030427 0.030427 0.033058 0.005765 0.026974 
0.032729 0.040456 0.032071 0.01974 0.040785 0.026481 0.017438 0.022864 
0.028783 0.028783 0.025166 0.007738 0.020562 0.013328 0.048513 0.031578 
0.016123 0.033715 0.067913 0.026317 0.0070803 -0.014458 0.036839 0.036017 
0.031742 0.055911 0.029769 0.032729 0.025001 0.025659 0.030756 0.036017 
0.037332 0.05065 0.017274 0.028783 0.048019 0.036839 0.015959 0.01826 
0.02829 0.040456 0.012835 0.020727 0.025495 0.032236 0.028783 0.037168 
0.01267 0.0421 0.04506 0.053281 0.0324 0.011848 0.021878 0.01711 
0.02829 0.037661 0.06594 0.034209 0.024015 -0.0064016 0.045882 0.024344 
0.019247 0.037332 0.042758 0.014643 0.033387 0.014808 0.036346 0.030263 
0.012999 0.051965 0.049992 -0.0073881 0.053774 0.024837 0.031249 0.034044 
0.011684 0.03388 0.052294 0.045882 0.033551 0.043251 0.017603 0.027961 
0.0324 0.034866 0.055418 0.031907 0.031085 0.027303 0.017438 0.02533 
0.027468 0.037661 0.020562 0.031907 0.026974 0.010697 0.031742 0.033222 
0.031414 0.047033 0.029934 0.03092 0.025659 0.02122 0.041278 0.031907 
0.022535 0.028619 0.031578 0.053938 0.023522 0.046868 0.023193 0.036017 
0.046704 0.039634 0.036346 0.028454 0.023522 0.031085 0.020727 0.026646 
0.043909 0.020233 0.022042 0.029276 0.040292 0.018425 0.023193 0.036346 
0.038812 0.037168 0.021713 0.02829 0.03947 0.026152 0.026317 0.021713 
0.024837 0.020069 -0.0080457 0.075312 0.03799 0.020398 0.00017495 0.016123 
0.029934 0.054103 0.036346 0.010697 0.023193 0.030263 0.038155 0.018918 
0.025824 0.0786 0.056733 0.010369 0.028947 0.024015 0.035031 0.034866 
0.035195 0.050321 0.030263 0.01826 0.033715 0.012999 0.01826 0.025659 
0.03092 0.029934 0.034209 0.034866 0.03536 0.010697 0.02533 0.036346 
0.023357 0.067256 0.036182 0.0046141 0.02829 0.032071 0.018096 0.015137 
0.032071 0.05065 0.049006 0.014643 0.02829 0.025659 0.032071 0.033387 
0.038648 0.065612 0.035195 0.010862 0.022206 0.011684 0.054267 0.020069 
0.031578 0.040456 0.034373 0.024344 0.026152 0.016945 0.045389 0.03947 
0.022371 0.047526 0.045224 0.015301 0.029605 0.0018191 0.02681 0.017274 
0.031907 0.029441 0.058377 0.022206 0.011848 0.025659 0.023686 0.029769 
0.059364 0.041607 0.04654 0.054432 0.018096 0.032729 0.033222 0.03536 
0.043909 0.05772 0.01711 0.029934 0.022535 0.0093821 0.042923 0.012013 
0.048019 0.058213 0.01152 0.022535 0.033058 0.015465 0.03536 0.028947 
0.059035 0.044238 0.04654 0.030098 0.0021479 0.023357 0.052787 0.038483 
0.044731 0.037497 0.062488 0.047691 0.012177 0.025495 0.030756 0.022535 
0.041114 0.025659 0.013164 0.02829 0.018589 0.030756 0.036675 0.009711 
0.031414 0.055582 0.029441 0.017932 0.03651 0.0041209 0.024344 0.025001 
0.010697 0.051472 0.047197 0.016945 0.031249 0.01415 0.034209 0.033387 
0.017932 0.046704 0.048513 0.030263 0.023686 0.029934 0.0421 0.031414 
0.022864 0.043087 0.015794 0.026152 0.03092 0.026481 0.037004 0.035688 
0.030756 0.034209 0.01563 0.020727 0.037168 0.010369 0.013821 0.029769 
0.027303 0.060186 0.020233 0.022864 0.045718 0.01004 0.01826 0.02829 
0.034209 0.055254 0.036675 0.038977 0.0087245 0.0014903 0.012342 0.029441 
0.043745 0.037661 0.045224 0.024344 0.021056 0.026646 0.021878 0.016781 
0.065447 0.03536 0.0042853 0.011355 0.043087 0.014808 0.040456 0.0324 
0.053609 0.033222 0.020727 0.0013258 0.048841 0.018918 0.029934 0.031742 
0.029441 0.060844 0.023522 0.024508 0.018918 0.020891 0.024508 0.049828 
0.026481 0.057555 0.045882 0.015301 0.0046141 0.02533 0.018096 0.028454 
0.015959 0.037497 0.0095465 0.014972 0.0093821 0.036839 0.023522 0.037826 
0.023193 0.041278 0.014808 0.017603 0.012835 0.021056 0.023522 0.026152 
0.031742 0.033058 0.0042853 0.037004 0.049006 0.011191 0.03092 0.025824 
0.028454 0.031907 0.045224 0.025659 0.021384 0.023193 0.034702 0.0028056 
0.027796 0.058706 0.028947 0.019905 0.024673 0.025001 0.027796 0.045389 
0.031578 0.04506 0.032236 0.044896 0.01974 0.028783 0.044238 0.033387 
0.024837 0.030427 0.024344 0.041443 0.030263 0.022535 0.017438 0.040292 
0.05065 0.032729 0.014808 0.009711 -0.014293 0.023522 0.045553 0.025495 
0.036675 0.025495 0.044402 0.026974 0.024673 0.011848 0.037826 0.016945 
0.049335 0.051472 0.017438 0.043416 0.030756 0.026646 0.033387 0.012999 
0.0592 0.06331 0.026646 0.024015 0.059035 0.035524 0.015137 -0.006566 
0.036839 0.040292 0.018425 0.030098 0.053938 0.024179 0.020398 0.034537 
0.040128 0.046704 0.06742 0.020069 0.023522 0.016288 0.031742 0.048677 
0.029605 0.019247 0.029605 0.052623 0.016945 0.016616 0.021713 0.048677 
0.012177 0.04917 0.027632 0.039141 0.021056 0.027632 0.026317 0.038812 
0.020233 0.055911 0.027468 0.027303 0.038812 0.025001 0.029605 0.029605 
0.025988 0.033222 0.040621 0.018425 0.03092 0.018918 0.023028 0.033387 
0.031249 0.039141 0.041114 0.0689 0.026317 0.028783 0.016781 0.037826 
0.02681 0.039799 0.009711 0.031742 0.021713 0.02829 0.0090533 0.014972 
0.010369 0.022535 0.00017495 0.02681 0.038977 0.022864 0.01563 0.024673 
0.022206 0.061008 0.02829 0.028454 0.033551 0.024673 0.042429 0.023357 
0.016452 0.037168 0.05624 0.060844 0.0069159 0.0067515 0.039634 0.029769 
0.025495 0.04358 0.020727 0.034702 0.023357 0.0070803 0.031249 0.027139 
0.021549 0.043087 0.030592 0.024344 0.027468 0.014479 0.014808 0.046046 
0.041278 0.033058 0.035524 0.0324 0.048348 0.032564 0.023028 0.022042 
0.051965 0.057555 0.043416 0.0227 0.012506 0.026317 0.017767 0.029441 
0.04358 0.047197 0.027961 0.021878 0.031742 0.016616 0.05065 0.030592 
0.025988 0.046211 0.024837 0.027303 0.032729 0.013328 0.032236 0.034209 
0.0093821 0.02681 0.038155 0.0592 0.052294 0.026646 0.026317 0.019083 
0.01415 0.038977 0.036182 0.044567 0.028783 0.029605 0.028783 0.018754 
0.0047785 0.058377 0.060022 0.034044 0.018096 0.035031 0.019247 0.015137 
0.018754 0.053445 0.007738 0.033222 0.014972 0.028947 0.02681 0.020891 
0.032564 0.036675 0.0082312 0.044567 0.02122 0.017438 0.051308 0.039305 
0.019905 0.031414 0.022042 0.050321 0.034209 0.039634 0.041936 0.017274 
0.028454 0.015959 0.056404 0.023193 0.023851 0.017603 0.026646 0.032236 
0.028783 0.029934 0.031085 0.010204 0.015137 0.00297 0.018425 0.033715 
0.040785 0.053609 0.053281 0.051143 0.023522 0.010204 0.029934 0.019083 
0.057391 0.067749 0.040128 0.048348 0.030756 0.012999 0.02533 0.022206 
0.050486 0.042429 0.043087 0.026317 0.033715 0.03092 0.036675 0.031742 
0.042594 0.037661 0.03536 0.025824 0.036839 0.01563 0.030263 0.033715 
0.025001 0.053609 0.011684 0.031085 0.025495 0.012342 0.026646 0.038648 
0.020562 0.055089 0.015137 0.014315 0.046375 0.03092 0.034537 0.02829 
0.017932 0.049499 0.041278 0.0074092 0.041772 0.019411 0.029276 0.042265 
0.013328 0.038155 0.044896 0.016123 0.013164 0.030098 0.017932 0.026317 
0.018425 0.037004 0.027139 0.043745 0.01004 0.039799 0.038483 0.026317 
0.020069 0.033715 0.0090533 0.024179 0.024508 0.017274 0.034209 0.024837 
0.037168 0.049006 0.041114 -0.0054151 0.035524 -0.001798 0.043909 0.017767 
0.041936 0.039799 0.042923 0.025988 0.03947 0.019411 0.031742 0.020398 
0.037168 0.022864 0.048348 0.031085 0.043745 0.038648 0.044896 0.023357 
0.028619 0.0421 0.041772 0.012506 0.024837 0.012835 0.01974 0.019411 
0.046868 0.05624 0.020398 0.021878 0.025988 -0.00064712 0.028619 0.039305 
0.049664 0.053445 0.052787 0.026646 0.022864 0.01826 0.032893 0.038812 
0.048184 0.069393 0.054925 0.041443 0.031249 0.033222 0.023357 0.026646 
0.035524 0.064132 0.017274 0.033058 0.016616 0.029276 0.034537 0.022535 
0.028619 0.048513 0.019576 0.020562 0.02122 0.023193 0.018754 0.032564 
0.0087245 0.061666 0.023686 0.039634 0.033715 0.038319 0.018918 0.031085 
0.020891 0.049664 0.046375 0.040292 0.031085 0.020727 0.032564 0.019247 
0.029769 0.066927 0.021056 0.044896 -0.0016336 0.040621 0.027796 0.032071 
0.023193 0.06594 0.01974 0.019083 0.019905 0.020727 0.021713 0.017932 
0.017274 0.042758 0.0064227 0.032893 0.031249 0.010369 0.020891 0.036182 
0.023193 0.037332 0.042594 0.020727 0.041114 0.014479 0.026317 0.036017 
0.034373 0.043909 0.046375 0.01152 0.022206 0.016123 0.029276 0.029112 
0.030098 0.031578 0.020727 0.010697 0.043909 0.035195 0.032893 0.021549 
0.033715 0.054432 0.0227 0.041114 0.028947 0.031249 0.037004 0.03799 
0.033715 0.036182 0.027796 0.029112 0.036017 0.024837 0.018918 0.023851 
0.040292 0.037826 0.065612 0.016452 0.043251 0.0075736 0.025166 0.037497 
0.03388 0.0324 0.022535 0.017932 0.022042 0.025495 0.032893 0.020727 
0.047691 0.047197 0.027303 0.030592 0.020891 0.031249 0.017767 0.034866 
0.029605 0.041278 0.035853 0.020727 0.026974 0.016945 0.030427 0.029605 
0.020233 0.048348 0.048841 0.02533 0.037332 0.019083 0.037826 0.055747 
0.022535 0.04917 0.044896 0.02122 0.016945 0.0083956 0.016945 0.02829 
0.025659 0.030592 0.020398 0.054103 0.0028056 0.041114 0.024015 0.031085 
0.0095465 0.035524 0.021549 0.026481 0.022864 0.034044 0.026152 0.027961 
0.035688 0.065776 0.036017 0.023357 0.025495 0.022206 0.030098 0.013821 
0.028947 0.053938 0.044567 0.0227 0.03651 0.012999 0.024015 0.025824 
0.032564 0.027139 0.0069159 0.037661 0.025659 0.040128 0.037826 0.016616 
0.03536 0.022371 0.023686 0.011191 0.025659 0.045718 0.015137 0.023686 
0.03799 0.033222 0.031907 0.0083956 0.027468 0.029605 0.016781 0.017274 
0.028125 0.05624 0.068242 0.022371 0.034044 0.023193 0.0060938 0.031249 
0.033222 0.06331 0.032729 0.033715 0.031249 0.015301 0.0227 0.031578 
0.043909 0.052623 0.024508 0.015959 0.020233 0.023028 0.039141 0.029934 
0.03651 0.027303 0.034866 0.016616 0.020562 0.040456 0.035853 0.024508 
0.058871 0.017438 0.045224 0.038977 0.033387 0.023522 0.024344 0.031085 
0.046211 0.028619 0.069064 0.049335 0.043745 0.016616 0.025495 0.011355 
0.048184 0.058377 0.023522 0.028783 0.031085 0.020069 0.0013258 0.030263 
0.029276 0.039963 0.023851 0.016781 0.029441 0.022206 0.023522 0.028125 
0.01563 0.053116 0.034537 0.047855 0.03092 0.038648 0.031414 0.030263 
0.019905 0.044731 0.060515 0.024508 0.0059294 0.065447 0.018918 0.0051074 
0.016123 0.046211 0.014315 0.020069 0.028619 0.0227 0.032236 0.035524 
0.013164 0.073668 0.0079024 0.015137 0.054596 0.01152 0.01711 0.034537 
0.010204 0.048348 0.014479 0.05476 0.023851 0.03651 0.027303 0.041936 
0.044073 0.03388 0.025988 0.023686 0.03536 0.019083 0.015137 0.014315 
0.031907 0.019411 0.035524 0.010369 0.047526 0.01711 0.023851 0.028619 
0.054432 0.026317 0.0034632 0.035524 0.047526 -0.010183 0.029934 0.021384 
0.038319 0.056569 0.013328 0.044731 0.027303 0.00297 0.018425 0.030263 
0.024015 0.04095 0.0324 0.016945 0.03092 0.026317 0.014315 0.028947 
0.031249 0.037497 0.051965 0.019905 0.022535 0.025824 0.024673 0.014643 
0.015301 0.017767 0.027303 0.015794 0.019905 0.025495 0.022535 0.031414 
0.022371 0.0095465 0.040128 0.04654 0.0074092 0.028783 0.04095 0.042265 
0.03092 0.053116 0.040128 0.011848 0.018754 0.021713 0.042594 0.018425 
0.038977 0.06331 0.055089 0.018918 0.038812 0.025166 0.038319 0.034702 
0.037826 0.037497 0.032729 0.044567 0.048184 0.014643 0.030756 0.025824 
0.021549 0.045718 0.00033937 0.067749 0.033551 0.032893 0.024673 0.018096 
0.032893 0.049828 0.017603 0.043909 0.026481 0.010369 -0.00097594 0.030098 
0.02533 0.055418 0.034373 0.020562 0.029605 0.023028 0.029441 0.025824 
0.033551 0.062159 0.045389 0.040621 0.044073 0.0421 0.049664 0.043909 
0.040621 0.036346 0.030592 0.034537 0.031742 0.022371 0.042758 0.022206 
0.034537 0.035688 0.0036276 0.027468 0.018096 0.029934 0.029441 0.030263 
0.023028 0.039634 0.027468 0.022535 0.030098 0.0085601 0.012342 0.024015 
0.016288 0.031085 0.056733 0.036182 0.02122 0.024837 0.013986 0.046211 
0.027468 0.051636 0.053116 0.018754 0.034044 0.017767 0.020398 0.027468 
0.042758 0.038483 0.031742 0.017932 0.0024767 0.020069 0.033058 0.03651 
0.034373 0.039305 0.023851 0.020727 0.010862 0.017438 0.029934 0.023028 
0.028619 0.04506 0.026974 0.05624 0.029276 0.017932 0.024344 0.036346 
0.064954 0.018425 0.053609 0.034209 0.058049 0.038648 0.015137 0.037168 
0.040621 0.040456 0.013986 0.018589 0.049828 0.019576 0.017932 0.022371 
0.020398 0.073832 -0.0078813 0.026152 0.029441 0.013164 0.04095 0.031907 
0.028619 0.062817 -0.0078813 0.062323 0.029112 0.028783 0.040128 0.027632 
0.037332 0.044567 0.028619 0.03651 0.027139 0.021056 0.029441 0.021056 
0.051143 0.02681 0.025166 0.029112 0.033387 0.030427 0.029276 0.019083 
0.046704 0.030756 0.048348 0.031085 0.0051074 0.011355 0.013986 0.01974 
0.053445 0.053281 0.047855 0.043416 -0.0019624 0.0024767 0.0093821 0.014315 
0.043745 0.033387 0.068407 0.015959 0.020233 0.011026 0.024837 0.029934 
0.046375 0.034866 0.0592 0.0037921 0.020398 0.0039565 0.023851 0.027632 
0.016123 0.045882 0.012177 0.026974 0.034537 0.034044 0.034373 0.042758 
0.0056006 0.090109 0.017932 0.051308 0.034537 0.01711 0.026152 0.010697 
-0.0029489 0.092082 -0.00097594 0.042594 0.039141 0.01974 0.0324 0.037497 
0.017767 0.062981 0.02122 0.012342 0.041772 0.032071 0.050814 0.020069 
0.019247 0.039963 0.0032988 0.041443 0.048348 0.039963 0.027961 0.04506 
0.027303 0.018918 0.013164 0.046211 0.012506 0.0324 0.042758 0.028454 
0.060022 0.021549 0.025001 0.035853 0.028783 0.0013258 0.037168 0.030427 
0.066269 0.055254 0.046375 0.023522 0.018754 0.020398 0.014972 0.01267 
0.039799 0.057227 0.037661 0.029605 0.037332 0.01267 0.014972 0.027139 
0.043416 0.04095 0.022371 0.030756 0.034866 0.03092 0.017603 0.017438 
0.056569 0.035524 0.005765 0.02681 0.029441 0.028947 0.03388 0.0227 
0.044238 0.020069 0.026317 0.017932 0.023193 0.02681 0.045882 0.017767 
0.029605 0.010369 0.047691 0.036017 0.024673 -0.00064712 0.031742 0.0065871 
0.017603 0.071695 0.020233 0.031578 0.037168 0.023193 0.031085 0.02681 
0.01415 0.068078 0.0093821 0.0421 0.022371 0.036346 0.022206 0.03536 
0.016945 0.059364 0.035853 0.046211 0.01152 0.054267 0.0069159 0.047691 
0.0083956 0.051965 0.047197 0.036346 0.034209 0.031578 0.021713 0.036675 
0.0074092 0.058377 0.036346 0.0019835 0.041772 0.028947 0.027139 0.013328 
0.031249 0.055747 0.035524 -0.0011404 0.028454 0.019083 0.031742 0.012999 
0.04654 0.041278 0.022206 0.0054362 0.031414 0.033058 0.031414 0.021549 
0.042594 0.045553 0.030263 0.053774 0.038155 0.026481 0.025988 0.022371 
0.049006 0.049006 0.040128 0.043909 0.052459 0.028783 0.037497 0.028947 
0.023357 0.034866 0.0062583 0.039799 0.045882 0.026481 0.033222 0.022042 
0.017438 0.049499 -0.0044286 0.049499 0.034044 0.041278 0.049006 0.030592 
0.02829 0.054103 -0.0055795 0.06183 0.014479 0.012342 0.026152 0.012506 
0.030263 0.018425 0.041772 0.027796 0.024508 0.023193 0.030592 0.046375 
0.063639 -0.015938 0.03388 0.011191 0.026317 0.0059294 0.0087245 0.0065871 
0.031414 0.033387 0.071859 -0.010841 0.020562 0.01826 0.025001 0.024508 
0.031414 0.073668 0.09274 -0.018733 0.030263 0.031414 0.027632 0.014808 
0.059528 0.050157 0.072846 -0.011663 0.023357 0.016781 0.040621 0.022371 
0.051801 0.030263 0.026974 0.031414 0.04095 0.034044 0.031249 0.014972 
0.046046 0.01563 -0.009361 0.049992 0.058377 0.01415 0.018754 0.034044 
0.035853 0.033058 -0.020377 0.061337 0.025659 0.031085 0.031907 0.035524 
0.009711 0.045718 -0.019884 0.018918 0.0056006 0.038319 0.018754 0.041936 
-0.0083746 0.079094 0.022535 0.03651 0.01152 0.0083956 0.032564 0.031414 
-0.022679 0.080244 0.016452 0.031414 0.019576 0.013492 0.05065 0.03536 
-0.037969 0.090438 0.023851 0.013492 0.012506 0.013986 0.027468 0.038483 
-0.0042642 0.051308 0.039305 -0.00031829 -0.0011404 0.017603 0.014479 0.032564 
0.03799 -0.019719 0.079916 -0.004593 0.00083261 0.01711 0.0070803 0.012506 
0.068078 -0.050958 0.10869 0.023686 0.015301 0.01826 0.013164 -0.0042642 
0.086657 -0.05326 0.064625 0.011684 0.041607 -0.0024557 0.029441 0.0092177 
0.077943 -0.014622 0.024344 0.0044497 0.043416 0.025001 0.040456 0.0083956 
0.037826 0.052294 0.018096 0.040128 0.073339 0.048348 0.04917 0.027468 
0.025495 0.098001 0.013821 0.084519 0.04917 0.043909 0.039963 0.030263 
0.013164 0.13023 -0.059014 0.0689 0.04654 0.0324 0.034209 0.029441 
0.0018191 0.12891 0.00017495 0.042594 0.032564 0.032893 0.031085 0.037004 
-0.0014692 0.093398 0.012999 0.038483 0.030756 0.029934 0.041936 0.031085 
0.024015 0.076463 0.062652 0.03388 0.0062583 0.034209 0.051965 0.029276 
0.021056 0.15407 0.043087 0.017932 0.024837 0.0095465 0.029112 0.037661 
-0.0052507 0.2754 -0.043888 0.027796 0.052294 0.0098754 0.020233 0.038319 
-0.020706 0.32818 -0.057863 0.037332 0.029441 0.014479 0.023686 0.052459 
-0.029584 0.23841 -0.01232 0.037826 0.027961 0.025824 0.00017495 0.044073 
-0.017746 0.096521 0.031578 0.012177 0.015959 0.031742 0.027961 0.040292 
0.018096 -0.010512 0.032893 -0.0024557 0.033387 0.00066819 0.049335 0.035524 
0.050157 -0.0965 0.05624 0.0046141 0.009711 0.0039565 0.036182 0.033058 
0.052294 -0.15964 0.066927 0.013821 0.024344 0.0088889 0.031249 0.011026 
0.063639 -0.23329 0.087808 0.029112 0.018918 0.039799 0.028619 0.033387 
0.060022 -0.32306 0.071531 0.02533 0.037332 0.026481 0.034209 0.027796 
0.070215 -0.30876 0.064132 0.059035 0.062488 0.024015 0.01974 0.033715 
0.074654 -0.20255 0.058542 0.042429 0.021056 0.01267 0.030756 0.021549 
0.092411 -0.047834 0.08304 0.033058 0.036346 0.016288 0.015137 0.029276 
0.071202 0.13088 0.095206 0.018425 0.027796 0.027961 0.012506 0.014643 
0.04917 0.24005 0.074819 0.037004 0.022864 0.021056 0.021056 0.028947 
0.075148 0.18514 0.06183 0.026646 0.0026412 0.017603 0.019905 0.023028 
0.073339 0.093233 0.05213 0.026317 0.012013 0.0054362 0.0062583 0.017932 
0.080244 0.10359 0.07597 0.032236 0.01415 0.030098 0.027139 0.013821 
0.082053 0.24449 0.036839 0.072024 0.02681 0.044238 0.022371 0.0093821 
0.054103 0.32654 0.034044 0.031742 0.020233 0.01826 0.023028 0.026152 
0.012835 0.26653 -0.051287 0.014479 0.016781 0.017603 0.021713 0.027632 
-0.027611 0.14338 -0.052602 0.038648 0.018096 0.0013258 0.015137 0.0421 
-0.028269 -0.0014692 -0.025967 0.039141 0.012013 0.019411 0.026317 0.035853 
-0.0067304 -0.017088 -0.045039 0.0018191 0.046704 0.020233 0.029605 0.063145 
-0.0011404 -0.025309 -0.011992 0.0095465 0.0227 0.011848 0.028783 0.043416 
0.022371 -0.049149 0.037826 0.025824 0.029441 0.029112 0.027468 0.04506 
0.023522 -0.076935 0.094384 0.041936 0.031085 0.016781 0.013821 0.022535 
0.035688 -0.1039 0.092411 0.024344 0.050157 0.027632 0.016288 0.030756 
0.033715 -0.042573 0.10326 0.029769 0.042923 0.034537 0.027796 0.034044 
0.034209 0.0080668 0.058706 0.039963 0.038319 0.034209 0.049499 0.046211 
0.040785 -0.0031133 0.065776 0.053774 0.043251 0.023357 0.036839 0.039305 
0.066598 -0.077428 0.086985 0.01974 0.025988 0.015137 0.020398 0.034702 
0.079422 -0.2568 0.14009 0.026152 0.0059294 0.043251 -0.021199 0.028619 
0.078436 -0.28031 0.13631 0.018589 0.016123 0.018425 0.011191 0.018589 
0.046046 -0.19482 0.14174 0.011684 0.019083 0.0042853 0.016452 0.019247 
0.030592 -0.09091 0.10343 0.024508 0.013821 -0.020212 0.013492 0.00050378 
0.00017495 0.14305 -0.014129 0.026481 0.040292 0.023522 0.030098 0.036839 
-0.026624 0.2754 -0.095185 0.042265 0.060679 0.035688 -0.0044286 0.045389 
-0.031064 0.21704 -0.065591 0.031907 0.02533 0.034044 -0.00015387 0.038977 
-0.021692 0.19484 -0.0095255 0.026317 0.025001 0.032729 0.027632 0.048348 
-0.0016336 0.13023 -0.012814 -0.0068948 0.01974 0.01004 0.01415 0.032236 
0.02681 0.0098754 0.02122 0.027796 0.038648 0.020562 0.039799 0.020233 
0.072846 -0.085649 0.068242 0.030592 0.025001 0.03388 0.017438 0.020891 
0.11609 -0.11541 0.092576 0.036675 0.02681 0.0028056 0.0079024 0.01267 
0.10951 0.072188 0.089616 0.023193 0.026152 0.0014903 0.015301 0.00297 
0.089452 0.33426 0.023522 0.056569 0.023028 -0.0055795 0.029112 0.018754 
0.05476 0.42568 -0.046519 0.026317 0.020069 0.00017495 0.055911 0.018096 
0.02681 0.2269 -0.012649 0.022042 0.011848 0.019083 0.048513 0.024179 
0.016452 -0.043559 0.026317 0.032236 0.012342 0.025988 0.043416 0.053774 
-0.01232 -0.12478 0.036346 0.044896 0.035195 0.025166 0.051636 0.032236 
-0.0078813 -0.10308 0.099152 0.023851 0.042758 0.011191 0.036182 0.04095 
0.027468 -0.063782 0.12694 0.0092177 0.024344 0.042429 0.021056 0.019411 
0.031414 0.049828 0.13056 -0.0036066 0.016616 0.021056 0.032071 0.038483 
0.029276 0.19353 0.032564 0.026317 0.0085601 0.0019835 0.034702 0.023357 
-0.013307 0.35975 -0.048985 0.032564 0.018589 0.016452 0.038977 0.03388 
-0.042573 0.36205 -0.12757 0.039799 0.034209 0.010369 0.023028 0.056569 
-0.051287 0.20142 -0.12231 0.061995 0.038977 0.041443 0.017932 0.047691 
-0.023336 -0.030735 -0.048492 0.066763 0.025495 0.033222 0.017932 0.047197 
0.0026412 -0.15487 -0.022679 0.016452 0.024673 0.0088889 0.007738 0.027796 
0.034373 -0.19975 0.052294 0.0056006 0.020891 -0.0087034 0.043909 0.022042 
0.063803 -0.15059 0.11 0.024344 0.019576 0.015794 0.028125 0.0065871 
0.097508 -0.060658 0.12644 0.054103 0.025166 0.017767 0.028125 0.0079024 
0.11329 0.043416 0.060186 0.053445 0.041607 0.010533 0.036017 0.01711 
0.022206 0.15489 0.02122 0.041772 0.04506 0.02122 0.033551 0.023357 
-0.039284 0.34627 -0.029913 0.064954 0.054925 0.028619 0.047526 0.05065 
-0.080717 0.59141 -0.09091 0.0324 0.041278 0.051308 0.064954 0.053116 
-0.026953 0.58204 -0.10932 0.051308 0.044073 0.052952 0.066763 0.055254 
0.0046141 0.32358 -0.085813 0.042923 0.068242 0.045553 0.051308 0.053445 
0.015959 0.078929 -0.030077 0.064132 0.076463 0.028947 0.050486 0.037332 
0.024344 -0.06148 0.0037921 0.057884 0.040292 0.030756 0.050979 0.040292 
0.064461 -0.094856 0.034537 0.039799 0.016123 0.036839 0.030592 0.015301 
0.11428 -0.0771 0.027303 0.044073 0.0074092 0.024508 0.033222 0.013821 
0.076792 -0.10834 0.050321 0.047033 0.031578 0.016616 0.040785 0.029276 
0.0072447 -0.1256 0.09685 0.009711 0.03388 0.0059294 0.016781 0.051143 
0.0074092 -0.15766 0.10195 0.010862 0.018096 0.029112 0.023686 0.036346 
0.025001 -0.12708 0.15357 0.039305 0.0072447 0.016945 -0.003771 0.029441 
0.052459 -0.14089 0.098166 0.042758 0.025659 0.021713 0.02681 0.017932 
0.057062 -0.19054 0.064625 0.030756 0.0036276 0.015794 0.037332 0.01563 
0.075805 -0.24365 0.092411 0.024015 0.009711 0.0093821 0.031907 0.040621 
0.093069 -0.23148 0.10425 -0.0013048 0.0060938 0.016781 0.021713 0.00297 
0.10441 -0.090253 0.0421 0.00297 0.0026412 0.021056 -0.012485 0.0072447 
0.087808 0.35038 -0.022185 -0.0034422 0.014643 0.011191 -0.00031829 -0.0088678 
0.01004 0.76355 -0.11409 0.019905 0.018096 0.01004 -0.020212 0.016452 
-0.0088678 0.77407 -0.15306 0.031249 0.043909 0.027796 0.027468 0.026974 
-0.034681 0.41516 -0.11113 0.044567 0.036675 0.051636 0.02681 0.025988 
-0.021692 0.1003 -0.019226 0.028619 0.040456 0.041114 0.028947 0.032893 
-0.024323 0.061172 0.0034632 0.026152 0.044238 0.033222 0.032729 0.04917 
-0.039284 0.16245 0.014808 0.052459 0.055254 0.017932 0.051801 0.027139 
-0.046683 0.1955 0.05624 0.057227 0.046211 0.03947 0.030263 0.062817 
-0.026624 0.16837 0.034044 0.021056 0.040128 0.070051 0.037497 0.045389 
-0.042244 0.097344 0.050157 0.034209 0.070215 0.034702 0.03947 0.052787 
0.023193 -0.10209 0.094055 0.048184 0.036182 0.019247 0.030592 0.0026412 
0.068571 -0.24069 0.13483 0.02122 0.031249 0.010862 0.017438 0.026317 
0.068407 -0.32931 0.069886 0.036839 0.033222 0.0037921 0.0070803 0.0087245 
0.030263 -0.30021 0.021384 0.030592 0.027961 0.023028 0.0075736 0.026152 
-0.027611 -0.22951 0.004943 0.046375 0.041114 0.022864 0.0324 0.032893 
-0.028269 -0.17657 0.0324 0.014808 0.021549 0.004943 0.047691 0.029769 
0.039141 -0.090253 0.050814 0.0014903 0.0046141 -0.0004827 0.012835 0.020891 
0.1271 -0.090253 0.036346 -0.026131 -0.0042642 0.0026412 -0.0054151 0.016452 
0.16919 -0.16605 0.1026 0.0079024 0.021713 0.025988 -0.020048 0.0014903 
0.17248 -0.24891 0.16229 -0.014293 0.0047785 0.014479 -0.0036066 -0.03616 
0.20421 -0.2134 0.18925 -0.035174 -0.011827 0.0042853 -0.0029489 -0.021363 
0.14453 -0.13119 0.11395 -0.016102 -0.0073881 0.005765 0.01711 -0.029255 
0.073832 0.1008 0.040292 0.020398 0.020069 0.013821 0.027468 -0.00015387 
-0.00081153 0.40858 -0.055232 0.031578 0.020069 0.030098 0.031414 0.021713 
-0.045696 0.52153 -0.073154 0.07301 -0.0019624 0.029605 0.039963 0.03799 
-0.024158 0.41236 -0.068386 0.069229 0.030756 0.023357 0.029112 0.032729 
0.0095465 0.23825 -0.017253 0.035031 0.028783 0.017603 0.048677 0.040785 
0.079094 -0.042573 0.038812 0.014972 0.043251 0.036017 0.059035 0.020069 
0.17758 -0.42664 0.096357 0.01974 0.012342 0.013164 0.039634 0.035688 
0.16656 -0.65436 0.12464 0.01974 0.01152 -0.0019624 0.045553 0.028125 
0.021878 -0.5003 0.062159 0.031907 0.015959 0.0054362 0.052952 0.059857 
-0.11212 -0.090253 0.039141 0.029605 0.038319 0.01974 0.054596 0.059035 
-0.18775 0.1345 0.06479 0.020233 0.01563 0.033222 0.067749 0.061008 
-0.2522 0.13006 0.10376 0.017932 0.022206 0.016945 0.049828 0.059528 
-0.18463 -0.028597 0.072517 0.031907 0.037497 0.030263 0.0227 0.061995 
0.0047785 -0.15651 0.085012 0.019247 0.044238 0.048677 0.00050378 0.036017 
0.21556 -0.096665 0.14075 0.013821 0.050979 0.028454 -0.017746 0.0227 
0.21819 0.17347 0.11296 0.0031344 0.01152 0.048677 -0.020541 -0.016924 
0.20536 0.18876 0.040292 0.028125 0.016781 0.016288 -0.0068948 -0.0072237 
0.13582 -0.0088678 0.01974 0.042265 0.032071 0.0092177 0.020562 0.0093821 
0.083533 -0.17805 0.04095 0.040621 0.037661 0.01415 0.022535 0.00050378 
0.082875 -0.43963 0.12266 0.049992 0.010697 0.029769 0.025001 0.023686 
0.10113 -0.70006 0.17445 0.0019835 0.013164 0.0059294 0.014479 0.0098754 
0.076627 -0.59944 0.12464 -0.0019624 0.0046141 0.0026412 0.026646 0.019411 
-0.036654 -0.069865 0.040292 0.013328 0.0082312 0.010697 0.052787 0.035031 
-0.10373 0.51923 -0.058356 0.062981 0.03651 0.016123 0.062981 0.05624 
-0.13037 0.74448 -0.062302 0.052952 0.012013 0.044073 0.035853 0.075805 
-0.11689 0.58187 -0.031557 0.01826 0.022864 0.012999 0.040785 0.076792 
-0.011334 0.42288 0.041607 -0.012156 0.012999 0.00297 0.034866 0.039634 
0.13795 0.3313 0.11576 0.0079024 0.027139 -0.0011404 0.011848 0.023193 
0.21095 0.34232 0.090931 0.016288 0.038812 0.016616 0.034209 0.0014903 
0.14371 0.44097 0.013164 0.049664 0.037826 0.041443 0.030098 0.027796 
0.019411 0.4311 -0.095514 0.052787 0.049664 0.03947 0.030263 0.032236 
-0.075127 0.38063 -0.14056 0.074161 0.040785 0.024015 0.024673 0.060515 
-0.10998 0.30664 -0.13777 0.05772 0.06331 0.026152 0.023851 0.043745 
-0.13234 0.33854 -0.10604 0.065283 0.036839 0.029934 0.010204 0.064954 
-0.14993 0.38984 -0.11722 0.072024 0.02122 0.040128 0.036017 0.055747 
-0.12626 0.29974 -0.049971 0.076463 0.037004 0.02829 0.048841 0.07301 
0.028619 0.057884 0.066434 0.044567 0.020562 0.011848 0.049828 0.031414 
0.16327 -0.23329 0.15785 0.014315 0.026317 0.017438 0.010862 0.0065871 
0.12003 -0.5396 0.17067 0.03651 0.022535 0.031414 0.0021479 -0.0027845 
0.027139 -0.48337 0.083862 0.042923 0.044731 0.049828 0.014808 0.035688 
-0.084005 -0.09091 -0.012649 0.057555 0.085012 0.060844 0.034866 0.058542 
-0.098967 0.26521 -0.057699 0.058542 0.066105 0.040785 0.095042 0.062488 
-0.067399 0.31141 -0.068221 0.065118 0.031414 0.031249 0.073832 0.053445 
0.033715 0.073997 -0.037969 0.01415 0.013164 0.016616 0.03651 0.017932 
0.13187 -0.14846 0.032729 -0.029091 0.0018191 0.0069159 0.0014903 0.0023123 
0.18761 -0.13925 0.12497 -0.033037 0.029934 -0.013636 -0.014458 -0.0027845 
0.23101 0.095042 0.12825 0.0032988 -0.009361 0.021878 -0.013143 -0.008539 
0.20208 0.61689 0.056898 -0.0059084 -0.0039354 0.018096 -0.0064016 -0.0039354 
0.11757 0.85579 -0.052273 0.012999 -0.0026201 0.011191 -0.0060728 0.019411 
0.037332 0.7453 -0.099789 0.034209 -0.022843 0.024344 -0.023172 -0.013307 
0.00083261 0.4653 -0.097322 0.074819 0.011191 -0.00097594 0.0060938 0.017932 
0.039634 0.076792 -0.0054151 0.029276 0.0028056 0.010533 0.01152 0.015137 
0.072681 -0.32652 0.16048 -0.0138 -0.017746 0.0014903 0.004943 -0.0072237 
0.098988 -0.3229 0.20783 -0.034188 -0.021199 0.014808 0.015301 -0.018897 
0.030592 -0.11146 0.13056 0.00017495 -0.031228 -0.0019624 0.019576 0.016616 
-0.041422 0.019411 0.0592 -0.022514 -0.013965 0.00297 0.018096 0.028783 
-0.12429 0.13302 -0.015773 0.018425 0.020891 0.035524 0.017274 0.06742 
-0.15289 0.20799 -0.034516 0.064461 0.069558 0.0592 0.043909 0.061501 
-0.16983 0.17314 -0.038133 0.11461 0.11181 0.056898 0.072517 0.074819 
-0.17476 -0.059836 -0.018897 0.12529 0.13417 0.071695 0.099974 0.088301 
-0.11409 -0.23592 -0.050958 0.13664 0.11855 0.070215 0.082711 0.083204 
-0.025967 -0.17805 -0.063289 0.10129 0.10984 0.053281 0.066269 0.062488 
0.060022 -0.038956 -0.060329 0.079422 0.1003 0.067256 0.045224 0.035853 
0.12694 0.13368 -0.07003 0.031249 0.067749 0.050321 0.032564 0.029441 
0.12743 0.019247 -0.10094 0.019083 0.016123 0.01267 0.030756 0.0085601 
0.12332 -0.22096 -0.086471 0.036839 -0.014293 -0.01528 0.037661 0.029276 
0.075312 -0.26042 -0.03501 0.0087245 0.0016547 0.02533 0.031742 0.037168 
0.059364 -0.087129 0.0070803 -0.004593 0.021056 0.037004 0.022206 0.045224 
0.10737 0.1151 0.052294 -0.008539 0.029934 0.016616 0.005765 0.012342 
0.17018 0.092247 0.11592 0.009711 -0.011827 0.0024767 0.0013258 -0.009361 
0.17001 -0.22507 0.20651 -0.017582 -0.029748 0.0075736 0.031907 0.0083956 
0.10672 -0.41086 0.22904 -0.012978 -0.024816 0.01974 0.0079024 -0.023665 
0.090603 -0.3349 0.18481 -0.0098543 0.0062583 0.0093821 0.0032988 -0.059507 
0.18218 -0.19153 0.15456 0.026646 0.01415 -0.014458 0.0042853 -0.065262 
0.35794 -0.47038 0.18942 -0.025145 -0.030406 -0.022679 -0.027118 -0.093212 
0.46152 -0.83061 0.21539 -0.031886 -0.025309 -0.019061 -0.02794 -0.052437 
0.28675 -0.60684 0.13039 0.0075736 0.010533 0.014643 0.010533 0.017274 
-0.093541 0.056898 0.048348 0.077449 0.044567 0.024179 0.060515 0.090603 
-0.29248 0.56247 0.023851 0.016945 0.014972 0.024344 0.0592 0.10425 
-0.13037 0.61212 0.13072 -0.032215 0.0059294 0.046046 0.047033 0.064625 
0.022042 0.39296 0.2269 -0.01676 0.030098 0.026481 0.037168 0.051636 
0.03799 0.059035 0.26274 0.037497 0.075148 0.047362 0.027961 0.047691 
-0.041586 -0.27768 0.15505 0.043745 0.076792 0.04654 0.053445 0.066763 
-0.048163 -0.54354 0.091918 0.034209 0.063968 0.051472 0.063803 0.06331 
-0.078415 -0.37288 0.051143 0.032071 0.04917 0.030756 0.049006 0.05624 
-0.082854 0.29497 -0.097487 0.066269 0.048348 0.03388 0.041772 0.044238 
-0.10883 0.7767 -0.30218 0.079258 0.059857 0.044896 0.037661 0.041114 
-0.13333 0.82734 -0.42878 0.10293 0.053774 0.032564 0.032893 0.056404 
-0.094363 0.63021 -0.42648 0.09981 0.077449 0.033387 0.048841 0.081067 
-0.0032777 0.42732 -0.33687 0.093233 0.059364 0.033715 0.062817 0.046375 
0.11905 0.14354 -0.20584 0.027468 0.064954 0.051636 0.024344 0.022535 
0.14453 -0.17591 -0.038462 0.020069 0.030756 0.025495 0.018589 0.014808 
0.16738 -0.4222 0.1442 0.0026412 -0.021856 0.0036276 0.0034632 0.01563 
0.19994 -0.56639 0.25929 -0.043724 -0.011663 0.0026412 0.00033937 -0.020541 
0.21161 -0.64498 0.27754 -0.051615 -0.011334 -0.0067304 0.0075736 0.007738 
0.20651 -0.73097 0.27803 -0.025802 0.0093821 0.016452 0.020891 -0.030242 
0.15555 -0.61638 0.27179 0.022535 -0.0021268 0.013986 0.016616 0.0037921 
0.065118 0.02122 0.26685 -0.011827 -0.014129 0.0054362 -0.0022913 -0.030077 
0.010697 0.8987 0.21506 -0.066577 -0.025638 -0.010183 -0.0013048 0.011848 
-0.025145 1.4452 0.1909 -0.086471 -0.039942 -0.009361 -0.025474 0.0042853 
0.00017495 1.3364 0.073997 -0.025309 -0.031721 -0.00015387 1.0539e-005 0.020562 
0.066269 0.67855 -0.023172 0.0034632 -0.028926 0.011026 0.037826 0.037168 
0.061501 0.06035 -0.049478 0.045718 0.035688 0.013657 0.049664 0.064132 
-0.017746 -0.26996 0.012999 0.082053 0.058377 0.055089 0.05213 0.099481 
-0.15125 -0.31928 -0.024816 0.12332 0.095206 0.062488 0.06331 0.11461 
-0.30646 -0.18857 -0.068057 0.11658 0.089616 0.069722 0.064132 0.11921 
-0.36285 -0.19202 -0.14303 0.16837 0.074326 0.057555 0.029769 0.085341 
-0.26486 -0.23839 -0.13497 0.12053 0.068407 0.023522 0.055747 0.049499 
-0.05885 -0.12182 -0.10275 0.092576 0.030592 -0.013636 0.0093821 -0.02235 
0.12858 -0.062302 -0.022843 -0.023172 -0.0057439 -0.0014692 -0.0060728 -0.045039 
0.22098 -0.072167 0.064296 -0.056219 -0.0077169 0.025659 -0.030077 -0.011334 
0.15028 0.19369 0.06742 -0.0138 0.019083 0.013821 0.0031344 0.015137 
0.045718 0.67263 0.072846 0.025659 0.041772 0.038648 0.022206 0.037168 
0.046704 0.78772 0.097179 0.011848 0.067091 0.01826 0.04654 0.052787 
0.11609 0.17281 0.20964 -0.0075525 0.0098754 0.031414 0.043251 0.037661 
0.24663 -0.63216 0.32062 -0.0073881 -0.0090322 0.02681 0.028125 0.029934 
0.39526 -1.0549 0.34446 -0.038133 -0.014293 -0.0057439 0.0034632 -0.010019 
0.43982 -0.75103 0.21424 -0.035503 -0.014129 -0.015773 0.016452 0.0024767 
0.24433 0.020727 -0.017253 0.007738 -0.0019624 -0.0077169 0.014479 0.0227 
-0.13875 0.80284 -0.20732 0.08567 0.020727 0.027961 0.038648 0.058706 
-0.65584 1.1647 -0.33753 0.11855 0.017274 0.025001 0.055418 0.057884 
-0.8824 1.0916 -0.30596 0.1299 0.0421 0.026974 0.053609 0.058542 
-0.69151 0.72146 -0.19515 0.064461 0.057555 0.028125 0.038155 0.054596 
-0.26733 0.2195 -0.025802 0.039634 0.061008 0.040785 0.01711 0.039799 
0.083533 -0.15914 0.060679 0.017438 0.090438 0.057391 0.020727 0.033551 
0.2782 -0.13251 0.081889 0.033551 0.1105 0.064132 0.047526 0.028619 
0.33163 0.088465 0.094548 0.054925 0.13072 0.056404 0.046046 0.020891 
0.34396 0.037826 0.11165 0.079751 0.076463 0.034209 0.033387 0.018096 
0.34248 -0.27045 0.15407 0.043745 0.024837 0.039634 0.022371 0.020562 
0.29793 -0.46577 0.20125 0.021713 -0.0078813 0.019905 0.016945 0.005765 
0.23463 -0.75415 0.24285 0.0087245 -0.0087034 0.012506 0.0085601 -0.0067304 
0.11231 -1.0047 0.20191 0.05213 -0.00031829 0.031249 0.037497 -0.019226 
-0.13678 -0.87352 0.13006 0.020562 -0.015609 0.0011614 0.013328 0.025824 
-0.21652 -0.36581 0.10376 0.010369 -0.006566 0.01711 0.042758 0.057227 
-0.06707 0.19977 0.032236 0.024837 0.01563 0.015301 0.025166 0.074983 
0.11872 0.463 -0.0029489 0.030263 0.041114 0.018918 0.015137 0.0689 
0.16179 0.45412 -0.044052 0.019411 0.015301 0.010533 0.029276 0.042265 
0.15818 0.3946 -0.059672 0.03799 -0.0067304 0.034373 0.028125 0.034373 
0.017274 0.43258 -0.0771 0.056733 0.034044 0.037826 0.041607 0.0227 
-0.24513 0.48026 -0.12067 0.083697 0.062159 0.044073 0.045389 0.019576 
-0.35299 0.39575 -0.16901 0.055254 0.092082 0.047197 0.054432 0.069393 
-0.17871 0.2246 -0.12478 0.053116 0.056404 0.034866 0.045882 0.051636 
0.027961 -0.010841 -0.055068 0.034209 0.038319 0.045718 0.057227 0.059857 
0.10885 -0.1085 -0.024487 0.045389 0.037661 0.040785 0.04506 0.042429 
0.12069 -0.15372 -0.038627 0.048841 0.06035 0.021878 0.03947 0.055254 
0.049828 -0.17772 0.0065871 0.042429 0.025659 0.015959 0.043745 0.053281 
-0.049149 -0.22096 0.054267 0.053116 0.027139 0.011026 0.021056 0.055911 
-0.082032 -0.27308 0.068736 0.031907 0.020727 0.028947 0.0088889 0.072681 
0.056076 -0.23017 0.081395 0.013821 0.037661 0.030756 0.0052718 0.031249 
0.30237 -0.084827 0.072846 0.016123 0.034373 0.0080668 -0.00064712 -0.043395 
0.35712 0.090438 0.11526 0.023686 -0.0040998 0.013164 0.010533 -0.076606 
0.15818 0.15653 0.091589 0.018096 -0.009361 -0.0077169 0.026481 -0.024323 
-0.024323 0.14141 0.034702 0.029112 0.024673 0.044896 0.046704 0.039305 
-0.045696 0.092411 -0.02235 0.031578 0.052952 0.051965 0.051143 0.077778 
0.039799 0.027796 -0.0034422 0.0036276 0.041936 0.018096 0.01974 0.045718 
0.14601 0.06035 0.038812 -0.029748 0.017767 -0.0016336 0.013657 0.019083 
0.14026 0.28214 0.024179 -0.014293 0.0031344 0.0064227 0.0046141 -0.0057439 
-0.0060728 0.42798 0.0032988 0.047197 0.019905 0.018425 0.016452 0.048019 
-0.13234 0.19829 0.037826 0.1003 0.025166 0.015959 0.01826 0.059035 
-0.10225 -0.25532 0.057884 0.066269 0.027139 0.014643 0.020891 0.063639 
-0.045532 -0.37617 0.08567 0.058542 0.032071 0.0028056 0.035524 0.042265 
-0.027447 -0.030899 0.030592 0.030756 0.03947 0.051472 0.074161 0.058213 
-0.050136 0.41006 -0.13103 0.056076 0.073504 0.048348 0.062488 0.04917 
-0.078086 0.64139 -0.1695 0.030756 0.024673 0.024179 0.034537 0.070215 
-0.088444 0.60785 -0.13448 0.016616 -0.0062372 0.0065871 0.0227 0.057227 
-0.02794 0.25041 -0.001798 0.0059294 0.012177 0.0011614 0.012999 0.038319 
0.031414 -0.10752 0.072024 0.033715 0.0070803 0.014972 0.020891 0.023522 
0.12102 -0.096829 0.070215 0.016781 0.0079024 0.0024767 0.034537 -0.0011404 
0.29546 0.19188 0.026317 0.0021479 -0.0067304 0.0026412 0.035524 -0.035338 
0.47993 0.39592 -0.010348 0.054432 -0.0011404 0.0070803 0.0037921 -0.064933 
0.51808 0.37372 -0.023007 0.037332 0.018754 0.011355 0.0059294 -0.051615 
0.42403 0.12825 -0.0080457 0.023522 0.062981 0.04506 0.037168 -0.028104 
0.28214 -0.17065 0.031907 0.017274 0.033222 0.012999 0.010533 0.021384 
0.23693 -0.50441 0.11033 0.014643 0.024673 -0.0083746 0.01152 0.021878 
0.25485 -0.66932 0.21621 -0.006566 0.0051074 -0.020212 0.015465 -0.009361 
0.22098 -0.32553 0.16081 -0.014787 0.027961 -0.0042642 -0.012156 -0.027118 
0.043087 0.11494 0.092247 0.014972 0.053445 0.041278 0.0070803 -0.023665 
-0.35315 0.36435 0.027961 0.059693 0.028947 0.047855 0.020727 0.0018191 
-0.61555 0.38589 -0.0067304 0.054267 0.041114 0.038483 0.038319 0.11609 
-0.56228 0.22148 -0.016595 0.057062 0.028947 0.039634 0.048841 0.11905 
-0.34394 0.10672 -0.0042642 0.028783 0.059528 0.044402 0.033551 0.11132 
-0.094692 -0.0052507 0.036346 0.049499 0.0023123 0.044731 0.019411 0.021384 
0.046868 -0.055561 0.046868 0.015137 0.018425 0.040621 0.019411 -0.0026201 
0.15555 0.071695 0.016616 0.029276 0.042265 0.014315 0.047197 -0.020048 
0.2588 0.29628 -0.055232 0.022535 0.028947 0.0080668 0.032564 0.010862 
0.27705 0.39707 -0.059507 0.029112 0.038812 -0.013636 0.046704 -0.011992 
0.21589 0.36682 -0.020706 0.02122 0.011355 0.0026412 0.033715 0.044731 
0.11576 0.23496 0.029276 0.045553 0.015137 0.0088889 0.019576 0.047855 
0.042429 0.2075 0.11247 0.049992 0.028619 0.016945 0.027632 0.035524 
-0.0031133 0.25304 0.16081 0.049499 0.022864 -0.0029489 0.016123 0.011848 
-0.021034 0.11625 0.19895 0.004943 -0.0073881 0.025001 0.019905 0.00099702 
0.058377 -0.37436 0.19665 -0.024323 -0.0055795 0.0059294 0.028454 -0.0060728 
0.12529 -0.89456 0.14453 -0.0096899 0.014808 -0.0040998 0.024837 -0.033037 
0.11148 -1.0011 -0.008539 0.029276 0.034044 0.019083 0.0067515 0.026317 
0.040456 -0.74445 -0.081703 0.046211 0.046868 0.030592 0.024837 0.038977 
0.016123 -0.44687 -0.071016 0.049335 0.044567 0.046868 0.028619 0.053445 
0.0060938 -0.17279 -0.043066 0.045553 0.020562 0.042758 0.032729 0.034373 
0.019905 0.12349 -0.067235 0.01826 0.017438 0.029441 0.027139 0.024015 
0.043087 0.3757 -0.06 -0.0004827 0.015794 -0.0034422 0.02122 -0.0047575 
0.086821 0.34281 0.10277 -0.014129 -0.013307 -0.0027845 -0.0047575 -0.01676 
0.12447 0.19846 0.27935 -0.014458 -0.023172 0.0024767 -0.018568 -0.035338 
0.12217 0.22575 0.32391 -0.039613 -0.010676 -0.027118 -0.012978 -0.015116 
-0.0031133 0.30878 0.14009 -0.023665 0.0036276 -0.0042642 -0.02087 0.012506 
-0.15536 0.35925 0.009711 0.030592 0.043416 0.0023123 0.024673 0.057062 
-0.28607 0.6649 -0.12774 0.10754 0.050486 0.050979 0.052459 0.076792 
-0.32553 0.75944 -0.085156 0.10392 0.06183 0.068078 0.073997 0.10376 
-0.27259 0.52597 0.055089 0.068242 0.077943 0.057884 0.05624 0.08567 
-0.17147 0.013657 0.22756 0.076134 0.078272 0.043416 0.047033 0.094548 
-0.07266 -0.51608 0.23923 0.057884 0.040785 0.02533 0.0421 0.067749 
0.019247 -0.94356 0.16426 0.026646 0.024179 0.046046 0.044731 0.056569 
0.10754 -1.2071 0.097179 0.02829 0.047033 0.02681 0.039141 0.049006 
0.14946 -1.3293 0.14765 0.02122 0.051143 0.016945 0.044731 0.025988 
0.20701 -1.1543 0.25732 -0.026789 0.0064227 0.026974 0.033058 0.025495 
0.37044 -0.73689 0.36172 -0.10735 -0.0032777 0.013986 0.032564 -0.0055795 
0.47895 -0.22688 0.38951 -0.11048 -0.0034422 -0.00081153 0.016945 -0.054575 
0.47254 0.25419 0.23726 -0.028926 -0.016266 -0.006566 0.0093821 -0.064275 
0.22657 1.0324 -0.012978 0.057227 0.0026412 -0.0049219 -0.0019624 -0.023501 
-0.22441 1.7829 -0.35956 0.10063 0.014643 0.0056006 0.023357 0.043416 
-0.64137 1.8508 -0.53598 0.11839 0.063474 0.0421 0.036675 0.12644 
-0.66718 1.2905 -0.46791 0.064461 0.051636 0.068242 0.014315 0.13384 
-0.33145 0.37619 -0.30054 0.036675 0.048841 0.021713 0.012506 0.097179 
0.049499 -0.42418 -0.075455 0.015137 0.036675 0.023851 0.030756 0.049335 
0.24301 -0.66438 0.075148 0.020398 0.022371 0.020727 0.044402 0.011355 
0.24153 -0.42993 0.093891 0.054925 0.045224 0.041278 0.053938 -0.013307 
0.18021 -0.1769 0.065118 0.048677 0.058377 0.036017 0.040785 0.03092 
0.15834 -0.24382 0.1465 0.039305 0.054267 0.018589 0.022206 0.009711 
0.18415 -0.31977 0.24269 -0.0070593 0.018754 0.022371 0.049828 0.0051074 
0.21046 0.041114 0.2685 0.0041209 0.0044497 0.0046141 0.037661 -0.0016336 
0.14174 0.47287 0.2024 -0.012814 0.020562 0.035688 0.03536 0.041772 
0.074326 0.067585 0.21917 -0.023829 0.033387 0.019905 0.0026412 0.045389 
-0.0004827 -0.62525 0.17232 0.014643 0.024179 0.023193 -0.02646 0.06331 
-0.083676 -0.61013 -0.020212 0.072188 0.016616 0.01267 0.027632 0.076792 
-0.15158 0.009711 -0.17312 0.071859 0.027632 0.020891 0.11231 0.079751 
-0.1501 0.60226 -0.25763 0.050321 0.025824 0.040456 0.13351 0.077614 
-0.0087034 0.73938 -0.22902 0.022206 0.031085 0.028783 0.14272 0.057391 
0.1197 0.57431 -0.20929 0.054267 0.059528 0.027303 0.10441 0.038977 
0.1128 0.31914 -0.1644 0.062652 0.089123 0.058377 0.043251 0.029605 
0.087479 0.050157 -0.11804 0.078765 0.083204 0.064625 -0.0070593 0.046704 
0.10195 -0.082525 -0.052109 0.052294 0.055911 0.040292 -0.063782 0.019905 
0.14996 0.056898 0.017932 0.052294 0.016288 0.0083956 -0.0503 0.025988 
0.17807 0.19155 0.16327 0.00066819 -0.0096899 -0.0083746 -0.030899 -0.022185 
0.1373 -0.12873 0.30911 -0.03764 -0.038462 -0.027282 1.0539e-005 -0.021199 
0.0421 -0.43947 0.32769 -0.037147 -0.028597 -0.01939 0.029934 0.010204 
-0.067564 -0.1552 0.25041 -0.0073881 -0.001798 -0.0087034 0.060844 0.019247 
-0.12889 0.43702 0.17265 0.0227 -0.013143 0.019576 0.099645 0.026317 
-0.11491 0.78624 0.016945 0.038812 0.0042853 -0.0060728 0.087808 0.061501 
-0.11639 0.73938 -0.12346 0.045553 0.029441 0.036675 0.075148 0.081231 
-0.032708 0.49851 -0.18545 0.032071 0.084684 0.048841 0.056076 0.07449 
0.043745 0.14634 -0.19087 0.040292 0.082053 0.064954 0.072188 0.058213 
0.14815 -0.1501 -0.1381 0.072188 0.06742 0.044731 0.067256 0.042758 
0.25567 -0.40675 -0.083347 0.057227 0.039799 0.034702 0.028947 0.0080668 
0.26455 -0.49701 -0.014458 0.05772 0.0060938 0.0064227 0.014479 0.0088889 
0.16853 -0.25812 -0.011498 0.044238 0.018589 0.0062583 0.00083261 0.011355 
0.072353 0.09833 -0.041915 0.079587 0.027796 0.0042853 0.03092 0.036346 
-0.069865 0.31848 -0.056055 0.079422 0.04654 0.023193 0.025166 0.028454 
-0.23855 0.26603 -0.065919 0.01563 0.062817 0.036182 0.054267 0.058377 
-0.31945 0.046868 0.039141 0.028619 0.073339 0.051143 0.044073 0.061172 
-0.24234 -0.071345 0.053116 0.03799 0.077614 0.045224 0.076134 0.050321 
-0.057699 0.025166 0.0037921 0.093891 0.068078 0.032564 0.064954 0.036675 
0.086328 0.23249 -0.07414 0.070215 0.047033 0.015465 0.062652 0.0070803 
0.16985 0.30615 -0.074962 0.033715 0.018918 -0.0014692 0.040621 -0.016431 
0.20273 0.14272 0.016123 -0.0077169 -0.0095255 -0.0022913 0.015959 -0.0029489 
0.1664 -0.12396 0.15209 -0.012814 -0.026296 0.0036276 -0.0077169 -0.0034422 
0.15555 -0.49109 0.22805 -0.023665 -0.0022913 -0.010676 -0.045532 0.019576 
0.17824 -0.58908 0.30056 -0.042408 0.014808 -0.0049219 -0.054246 -0.0021268 
0.1807 -0.30481 0.38918 -0.04882 0.018425 0.0016547 -0.024158 -0.017582 
0.14552 -0.060165 0.40447 -0.018568 -0.030899 0.00297 0.0072447 -0.017417 
0.041443 -0.0095255 0.35005 -0.018568 -0.02235 0.012506 0.038812 0.0032988 
-0.051122 -0.2425 0.1761 0.027303 0.020398 0.02829 0.052623 0.039799 
-0.077264 -0.41859 -0.017417 0.079587 0.058377 0.034702 0.049664 0.066598 
-0.10768 0.0069159 -0.17476 0.10277 0.04358 0.03536 0.06479 0.067913 
-0.16144 0.58565 -0.19844 0.092411 0.021384 0.035853 0.047033 0.063474 
-0.17772 0.85957 -0.19038 0.091918 0.033387 0.024344 0.022042 0.083862 
-0.14862 0.84954 -0.16243 0.068078 -0.001798 -0.019719 0.0056006 0.067585 
-0.10521 0.70781 -0.12346 0.021878 -0.019061 -0.028104 -0.0004827 0.061008 
-0.027775 0.48635 -0.071509 0.018589 -0.016102 0.0037921 -0.0067304 0.014479 
0.050979 0.12036 -0.025309 -0.0083746 0.0083956 0.0018191 -0.0098543 -0.0039354 
0.062323 -0.44571 0.049664 -0.0049219 0.060844 0.022206 -0.0026201 0.010369 
0.066763 -0.94915 0.1807 -0.0068948 0.12579 0.075641 0.009711 0.0060938 
0.039963 -1.1933 0.27524 0.038483 0.16706 0.092904 0.052459 0.085012 
0.082546 -1.0493 0.26883 0.12102 0.18202 0.13368 0.06742 0.079587 
0.20734 -0.45278 0.14996 0.14913 0.15045 0.10984 0.065118 0.038155 
0.25617 0.04917 0.080738 0.070708 0.062817 0.051472 0.078929 -0.003771 
0.25863 0.22986 0.031249 0.024508 -0.0088678 0.013492 0.041772 -0.017088 
0.2657 0.25255 0.023522 0.0059294 -0.045696 -0.013636 -0.0059084 -0.070687 
0.22361 0.15867 -0.012485 -0.0088678 -0.059178 0.0090533 -0.064768 -0.071509 
0.081231 0.52301 -0.086471 -0.052437 -0.051451 -0.014787 -0.066248 -0.045368 
-0.14484 1.3485 -0.21784 -0.078744 -0.036489 -0.030077 -0.035338 0.0075736 
-0.4033 1.6696 -0.32027 -0.034516 -0.049149 -0.034681 -0.0138 0.06183 
-0.53779 1.1736 -0.21323 0.053281 0.018425 0.0095465 0.024673 0.12381 
-0.31451 0.20142 -0.097487 0.051636 0.031249 0.035853 0.019905 0.11198 
0.0023123 -0.48435 0.042429 0.11625 0.049335 0.017767 0.046704 0.10228 
0.10129 -0.6389 0.14979 0.092411 0.095042 0.043416 0.057884 0.10129 
0.11954 -0.50129 0.26768 0.052294 0.068571 0.045882 0.064625 0.082546 
0.10556 -0.24151 0.24038 0.0051074 0.0092177 0.039141 0.069393 0.028619 
0.11247 -0.18857 0.18399 -0.022679 -0.00064712 0.020069 0.03536 -0.017746 
0.080244 -0.43125 0.18481 -0.015444 0.010369 0.020891 0.0062583 -0.045203 
-0.018075 -0.53844 0.16689 -0.032543 0.010369 0.033551 0.014479 -0.01117 
-0.048656 -0.3857 0.17133 -0.025638 0.0088889 0.026481 0.01004 0.004943 
0.11378 -0.27308 0.19501 -0.027118 0.0042853 0.032893 -0.016102 -0.001798 
0.29283 -0.28245 0.15226 -0.034681 0.0060938 0.0062583 -0.034681 -0.034845 
0.5286 -0.47317 0.092411 -0.015609 -0.039942 -0.018733 -0.051944 -0.098473 
0.74957 -0.46906 0.00050378 0.01826 -0.075455 -0.045532 -0.047998 -0.07973 
0.71242 -0.14911 -0.13136 0.019083 -0.048656 -0.035338 -0.03616 -0.0503 
0.54471 0.3147 -0.16506 0.038977 -0.0039354 0.013492 -0.00081153 -0.0055795 
0.34248 0.75286 -0.19038 0.084684 0.089945 0.050321 0.05065 0.064296 
-0.042901 0.95476 -0.17608 0.088465 0.15456 0.085341 0.12381 0.11592 
-0.43766 0.81846 -0.14796 0.11165 0.15407 0.097015 0.13976 0.1197 
-0.70023 0.59355 -0.12659 0.13105 0.086163 0.073504 0.11839 0.10803 
-0.97907 0.56198 -0.12083 0.11362 0.057227 0.055254 0.11362 0.047033 
-1.1775 0.5868 -0.18282 0.12628 0.010369 0.040621 0.085341 0.059364 
-0.68691 0.41368 -0.083512 0.053938 -0.035996 -0.013965 0.034866 0.044731 
-0.023665 0.11346 0.075641 -0.022679 -0.032708 -0.032379 -0.0042642 0.03536 
0.38523 0.037497 0.12447 -0.0868 0.033551 0.029934 -0.0039354 0.012177 
0.54833 0.040621 0.14469 -0.062467 0.10063 0.077121 0.0054362 0.031085 
0.5508 -0.060165 0.17248 -0.011498 0.083862 0.079916 0.028454 0.010533 
0.48651 -0.49833 0.19287 0.045882 0.063639 0.059364 0.033222 0.0026412 
0.37191 -1.302 0.29809 0.017438 0.0046141 0.011191 0.027632 -0.0036066 
0.30582 -1.8725 0.43078 -0.039942 -0.072167 -0.03057 0.0032988 -0.009361 
0.17051 -1.1624 0.37076 -0.052602 -0.1256 -0.061809 -0.035338 -0.012649 
0.023357 0.13023 0.17873 -0.027282 -0.074633 -0.038298 -0.032215 0.021878 
-0.065097 0.67986 -0.01232 -0.017088 0.0075736 0.01711 -0.014458 0.05772 
-0.091075 0.52268 -0.12905 0.026646 0.075641 0.046211 0.025988 0.054432 
-0.095021 0.35745 -0.23609 0.095535 0.11132 0.088465 0.049499 0.032893 
-0.16769 0.31996 -0.28147 0.15735 0.095042 0.085012 0.09833 0.059364 
-0.22211 0.37142 -0.26864 0.14552 0.093398 0.067749 0.089287 0.077943 
-0.20567 0.44919 -0.18742 0.11198 0.066434 0.043416 0.06183 0.078436 
-0.12314 0.54373 -0.084498 0.073339 0.062488 0.010204 0.034537 0.049664 
0.014315 0.57234 0.0075736 0.050979 0.019576 0.010862 0.033715 0.0062583 
0.14009 0.59585 0.037004 0.009711 -0.011334 0.0036276 0.072024 0.01415 
0.10014 0.60851 0.0592 -0.031228 -0.022679 0.015794 0.14568 0.014479 
0.019247 0.49703 0.04095 -0.0024557 -0.035832 -0.021199 0.094055 0.0019835 
-0.041257 0.2856 -0.0057439 -0.03912 -0.010019 -0.020212 0.013657 0.036182 
0.05772 0.10096 -0.0078813 -0.03616 0.0082312 0.025988 -0.0024557 -0.0021268 
0.17807 -0.034023 0.02533 0.012506 0.061337 0.054925 -0.0040998 0.0075736 
0.12118 -0.38965 0.14552 0.083862 0.11872 0.072681 0.027632 0.07597 
-0.096007 -0.80068 0.22049 0.09422 0.12875 0.099974 0.058213 0.097344 
-0.035503 -1.3816 0.31832 0.069229 0.099152 0.066269 0.044238 0.095371 
0.084355 -1.4779 0.31749 0.033715 0.028783 0.02829 0.004943 0.043909 
0.0098754 -0.34542 0.1197 0.041114 -0.037805 -0.00081153 -0.021528 0.027139 
-0.21685 0.9421 -0.043724 0.035524 0.0046141 0.023686 0.027961 0.057227 
-0.38044 1.421 -0.039449 0.026317 0.039963 0.018754 0.043745 0.10014 
-0.34263 1.3388 -0.052931 0.009711 0.0044497 0.033551 0.054596 0.099316 
-0.19104 0.70765 -0.060987 0.017438 0.018918 0.022206 0.043745 0.07597 
0.12562 -0.18989 0.015794 0.026152 0.036839 0.020398 0.038812 0.01974 
0.42831 -1.0049 0.21194 0.022535 0.061337 0.038977 0.010862 -0.047012 
0.47303 -1.4781 0.35301 0.0080668 0.051965 0.014479 0.0092177 -0.035174 
0.3655 -1.302 0.30434 0.011355 -0.012978 -0.0052507 0.024179 -0.027775 
0.29464 -0.70171 0.2098 -0.035667 -0.026953 -0.004593 0.053774 -0.016431 
0.27524 -0.080552 0.051965 0.022042 0.010862 0.0083956 0.095371 0.004943 
0.16442 0.6843 -0.10752 0.053116 0.0054362 0.013164 0.11411 0.036675 
0.0092177 1.1761 -0.13662 0.023357 -0.0068948 0.0074092 0.087479 0.055582 
-0.098967 1.2949 -0.07562 0.0016547 -0.0067304 0.004943 0.041443 0.060515 
-0.16523 1.1481 -0.079237 -0.026789 -0.013307 0.013986 -0.0029489 0.039634 
-0.19022 0.81715 -0.10982 0.016616 0.0072447 0.020727 -0.028269 0.056898 
-0.13563 0.43768 -0.14418 0.037332 0.046868 0.018918 -0.072003 0.023851 
-0.067564 0.1932 -0.17262 0.017767 0.046704 0.017274 -0.15158 0.044402 
0.070051 -0.011663 -0.066741 0.028947 0.026481 -0.018897 -0.2157 0.00050378 
0.12184 -0.25121 0.068571 0.064461 -0.00064712 -0.032543 -0.21636 0.0051074 
0.18728 -0.48386 0.19879 0.080573 -0.030406 -0.032379 -0.084991 0.0098754 
0.20997 -0.55472 0.18958 0.071366 -0.058192 -0.010512 0.13203 0.038812 
0.038648 -0.44884 0.18892 0.043087 -0.039449 0.0083956 0.25354 0.061337 
-0.074962 -0.47564 0.21112 0.017603 0.0070803 0.017438 0.25387 0.054925 
0.036182 -0.40642 0.18613 -0.025474 0.070215 0.012999 0.14667 0.0011614 
0.11559 -0.18035 0.13384 1.0539e-005 0.16969 0.059857 0.055254 -0.019719 
0.083697 0.08567 0.038812 0.060679 0.18629 0.086163 0.010369 0.017767 
0.1197 0.15587 -0.048492 0.099481 0.14765 0.079258 0.069064 0.054925 
0.15341 0.17347 -0.11442 0.092576 0.090274 0.053116 0.10935 0.076463 
0.13976 0.30138 -0.11442 0.058377 0.044731 0.052952 0.09274 0.057884 
0.20832 0.13565 -0.10834 0.049335 0.0013258 0.030592 0.065118 0.054925 
0.171 -0.097322 -0.17377 0.048677 -0.023829 0.030098 0.014315 0.061995 
-0.13004 0.10326 -0.22474 0.062817 -0.021856 0.024179 -0.019555 0.11329 
-0.45361 0.22148 -0.26535 0.056404 -0.017746 -0.014951 -0.042573 0.097508 
-0.43421 0.24564 -0.15339 0.047526 0.02533 1.0539e-005 -0.08269 0.036839 
-0.016102 0.33443 -0.009361 0.00017495 0.011848 -0.008539 -0.14287 -0.020706 
0.46448 0.63876 0.07038 -0.073976 -0.012978 0.012342 -0.22277 -0.045039 
0.52712 0.96364 0.058871 -0.081374 -0.023665 -0.022021 -0.18084 -0.10028 
0.32128 0.81945 0.11987 -0.034845 -0.013636 -0.017088 -0.0027845 -0.04471 
0.26998 -0.33687 0.3073 -0.02794 -0.026296 0.0013258 0.15735 -0.0077169 
0.38622 -1.2456 0.4362 -0.034845 -0.026789 0.0421 0.19731 0.027632 
0.52926 -1.1382 0.3387 -0.028926 -0.03616 0.020233 0.085835 -0.0014692 
0.39789 -0.62361 0.20619 0.01974 0.017438 0.016945 0.0028056 0.034209 
0.062159 -0.36926 0.11526 0.066598 0.10754 0.045389 -0.021034 0.049335 
-0.26749 -0.43634 0.017767 0.081889 0.10754 0.050979 0.016781 0.025659 
-0.49586 0.10474 -0.12642 0.11592 0.13565 0.084026 0.06331 0.026646 
-0.80907 0.97219 -0.27242 0.14963 0.11872 0.088136 0.044567 0.012342 
-0.70598 1.0131 -0.24677 0.10704 0.084519 0.068407 0.032071 0.0036276 
-0.28015 0.49638 -0.20567 0.098001 0.053281 0.034702 0.097837 0.076956 
-0.10209 0.2851 -0.10867 0.073504 0.010862 0.05772 0.16656 0.14535 
-0.1473 0.58056 -0.09387 0.042265 -0.001798 0.051636 0.17462 0.12201 
-0.26305 0.85973 -0.11426 -0.032708 -0.017746 0.011191 0.14174 0.076134 
-0.3423 0.79413 -0.13678 -0.058028 0.031249 0.014315 0.043251 0.025659 
-0.1011 0.59946 -0.17493 -0.021363 0.062323 0.014643 0.0036276 0.030098 
0.070708 0.26455 -0.28229 0.11115 0.077285 0.025001 0.028947 0.059364 
0.2126 -0.29314 -0.27884 0.17758 0.12233 0.073997 0.050979 0.089287 
0.32917 -0.57494 -0.14336 0.18366 0.095371 0.06035 0.076463 0.058213 
0.42765 -0.729 0.13927 0.082711 0.019247 0.010533 0.007738 0.047855 
0.70091 -1.1706 0.53814 -0.051615 -0.09239 -0.037969 -0.075784 -0.039284 
0.98041 -1.242 0.74086 -0.18939 -0.084334 -0.034188 -0.085649 -0.15421 
0.91498 -1.1261 0.76388 -0.20222 -0.043559 -0.00081153 -0.098638 -0.2157 
0.20306 -0.96263 0.58417 -0.13744 -0.024487 -0.017911 -0.14944 -0.13612 
-0.61013 -0.5973 0.3313 -0.015444 0.00050378 0.012177 -0.14237 -0.017253 
-0.97463 -0.099953 0.098659 0.10787 0.088301 0.059857 -0.012814 0.12283 
-0.7877 0.16179 -0.0060728 0.159 0.11477 0.075148 0.078765 0.18843 
-0.11015 0.20191 0.037497 0.098001 0.013164 0.013164 0.05065 0.12332 
0.45757 0.2662 0.061337 -0.048163 -0.10291 -0.049149 -0.010512 -0.088115 
0.61952 0.38737 0.081724 -0.11311 -0.092554 -0.035503 0.015959 -0.19466 
0.32292 0.52975 -0.13908 -0.012814 0.049006 0.055418 0.10524 -0.1741 
-0.54206 0.95739 -0.39097 0.13746 0.17215 0.13976 0.20964 -0.075291 
-1.168 1.1359 -0.48024 0.1105 0.16393 0.091425 0.20503 0.14897 
-0.70746 0.71866 -0.26157 0.036017 0.061172 0.047362 0.13105 0.21062 
-0.062631 0.3221 -0.088608 0.024673 0.015301 0.0046141 0.029441 0.20767 
0.1835 0.19994 0.0060938 0.04506 0.0028056 -0.020706 -0.022021 0.15538 
0.087314 0.12299 -0.014622 0.060186 0.027632 -0.0021268 -0.015444 0.12233 
0.0072447 0.011191 0.066269 0.072517 0.047526 0.018754 -0.0059084 0.086492 
0.025166 -0.11163 0.20208 0.076792 0.047691 0.0090533 -0.013965 0.038319 
0.083697 -0.12971 0.28593 0.13023 0.029605 0.0011614 -0.021692 -0.029913 
0.088794 -0.38274 0.23446 0.10458 0.01267 -0.024158 -0.02235 -0.025309 
0.15144 -0.5955 0.1733 0.0026412 -0.074798 -0.038133 -0.030899 -0.04882 
0.3124 -0.54075 0.18152 -0.13448 -0.12922 -0.019719 -0.03616 -0.042901 
0.28691 -0.46725 0.17511 -0.11459 -0.086471 0.030098 0.025001 -0.00015387 
0.1419 -0.52661 0.12628 -0.03353 -0.0068948 0.024508 0.073832 0.055582 
0.034866 -0.60931 0.059035 0.042265 0.043909 0.041607 0.063474 0.045553 
0.14716 -0.29906 0.0072447 0.062488 0.086985 0.030427 0.056076 0.037332 
0.21062 0.47467 -0.15306 0.10491 0.14091 0.058871 0.069064 0.043087 
0.075641 1.1868 -0.29561 0.094055 0.18037 0.055911 0.084026 0.10293 
-0.11015 1.3785 -0.30711 0.076463 0.18761 0.11625 0.1294 0.1493 
-0.24003 0.82734 -0.15602 0.060022 0.13697 0.097015 0.1003 0.13927 
-0.11935 0.38474 0.17232 0.0042853 0.029441 0.049992 0.020233 0.064954 
0.23611 0.033222 0.33459 -0.038791 -0.064111 -0.029748 -0.046025 -0.0068948 
0.60111 -0.49389 0.2006 -0.015938 -0.10735 -0.06296 -0.077593 -0.049807 
0.6774 -0.37058 -0.20238 0.071859 -0.11146 -0.077428 -0.067728 -0.027282 
0.40891 0.38227 -0.52874 0.10392 -0.078086 -0.035338 0.0093821 -0.0034422 
0.066763 0.85316 -0.54387 0.069393 -0.065591 -0.031886 0.019247 0.0036276 
-0.23198 0.76454 -0.22787 -0.01528 -0.038462 -0.064111 0.0075736 -0.0044286 
-0.51707 0.37126 0.16492 -0.076113 -0.021692 -0.012978 0.022371 -0.00064712 
-0.64153 0.020891 0.3318 -0.065591 0.042758 0.027796 0.054925 0.10902 
-0.33556 -0.16013 0.30286 0.020398 0.055089 0.062159 0.069722 0.1419 
0.12036 -0.28508 0.34413 0.076463 0.054432 0.049992 0.087479 0.087972 
0.37093 -0.37781 0.46596 0.035195 0.0080668 0.017603 0.038483 -0.0138 
0.26554 -0.43996 0.51791 -0.09239 0.024673 0.0227 0.017274 -0.057863 
0.14601 -0.3839 0.50838 -0.0868 0.10211 0.064461 0.046375 -0.031392 
0.24482 0.12743 0.30829 -0.0019624 0.15883 0.091918 0.10129 0.061666 
0.29645 0.14223 0.027961 0.10408 0.12973 0.067913 0.11181 0.095864 
0.23315 0.0016547 -0.26963 0.11576 0.082217 0.053938 0.098823 0.10359 
0.01267 0.27754 -0.48353 0.17725 0.058706 0.0324 0.082053 0.09274 
-0.3617 0.78459 -0.60585 0.22542 0.035195 0.042758 0.068078 0.15818 
-0.41185 0.78739 -0.50063 0.16081 0.0028056 0.017932 0.040621 0.10113 
-0.064275 -0.052109 -0.17262 -0.022185 -0.031228 -0.010183 -0.0090322 0.013328 
0.24548 -0.88421 0.14009 -0.11607 -0.0039354 -0.017746 -0.015938 -0.049807 
0.40726 -1.2162 0.35925 -0.13037 -0.019555 0.0090533 -0.019061 -0.08121 
0.46333 -1.0228 0.48848 -0.028269 0.031249 0.037004 0.012835 -0.061809 
0.24564 -0.31517 0.32555 0.041114 0.051801 0.050321 0.03651 0.043745 
-0.044381 0.39707 0.01267 0.090767 0.053445 0.036182 0.058377 0.12398 
-0.16194 0.58368 -0.091404 0.080902 0.036017 0.010862 0.040621 0.12003 
-0.18956 0.20027 0.1003 0.027961 -0.0091966 0.012177 0.017932 0.071531 
-0.16325 -0.12001 0.2292 -0.02235 0.00017495 0.016123 0.0056006 -0.012649 
-0.032708 0.28987 0.11132 -0.0064016 0.025495 0.0067515 0.017438 -0.047998 
0.12694 0.91399 -0.1136 0.05476 0.043251 -0.0026201 -0.020048 -0.08121 
0.27212 1.1098 -0.2185 0.022535 0.0026412 -0.026789 -0.055561 -0.069701 
0.33837 1.1644 -0.1986 -0.0064016 -0.019884 -0.018075 -0.051287 -0.11163 
0.53403 0.77621 -0.11903 -0.0031133 -0.0036066 -0.014293 -0.009361 -0.11048 
0.46004 0.044731 -0.081045 0.043745 0.035853 0.019083 0.078436 -0.017417 
-0.0029489 -0.68773 0.042265 0.051472 0.070873 0.042429 0.1031 0.10129 
-0.25269 -1.5484 0.25995 0.051472 0.051636 0.042594 0.068078 0.10211 
-0.32273 -2.0463 0.45116 0.016123 0.044731 0.041114 0.01004 0.057391 
-0.28656 -1.5068 0.33689 0.061008 0.050814 0.033715 0.0087245 0.031907 
-0.31221 -0.19367 0.014479 0.086163 0.089123 0.042758 0.023357 0.06331 
-0.37255 0.6261 -0.14944 0.083862 0.06594 0.046211 -0.0016336 0.1008 
-0.39836 0.59946 -0.13415 0.060679 0.049992 0.02681 -0.0034422 0.13795 
-0.28788 0.39921 -0.033859 0.021713 0.034866 0.012999 -0.0054151 0.074983 
-0.14862 0.83704 -0.12314 0.011684 0.04917 0.01563 0.030263 0.064461 
-0.094527 1.1626 -0.24003 0.063803 0.07038 0.021549 0.048184 0.027632 
0.22131 0.97745 -0.26749 0.072681 0.017603 0.019247 0.033387 -0.033201 
0.64188 0.50657 -0.19005 0.087643 -0.025474 0.014315 0.025824 -0.046683 
0.63777 0.041936 -0.086142 0.03388 -0.032872 0.0028056 0.023028 0.0069159 
0.33262 -0.28771 0.031578 0.021384 0.0039565 -0.0096899 0.012013 0.051636 
0.25502 -0.59254 0.20865 0.019905 0.014479 0.007738 -0.023665 0.0034632 
0.34676 -0.99683 0.41055 0.0095465 0.044073 0.011848 -0.055561 -0.10045 
0.1613 -1.3576 0.52285 -0.014293 0.046046 0.016452 -0.068386 -0.14319 
-0.10653 -1.6721 0.52581 -0.020541 0.044073 0.016781 -0.036983 -0.069865 
-0.32882 -1.3613 0.31618 -0.029584 0.0023123 -0.016102 0.01152 0.027961 
-0.34707 0.11 -0.12757 0.022206 -0.0059084 -0.001798 0.023851 0.085177 
-0.10686 1.5894 -0.38258 0.047855 0.0064227 0.028619 0.052787 0.089616 
-0.019555 1.7537 -0.35397 0.10359 0.063803 0.064625 0.064954 0.1174 
0.011684 1.0981 -0.19202 0.1202 0.059693 0.050321 0.070215 0.093233 
-0.0055795 0.56543 -0.12346 0.073175 -0.0026201 0.014972 0.058871 0.080244 
-0.055561 0.28346 -0.11837 0.037661 -0.022514 -0.020706 0.071531 0.062159 
-0.011334 -0.05178 -0.074304 0.022206 -0.041093 -0.013636 0.064461 0.076956 
0.092576 -0.34033 -0.0019624 0.041278 -0.027611 -0.024816 0.040785 0.00066819 
0.013492 -0.25828 0.034537 0.043745 -0.0029489 -0.017746 0.031414 -0.020541 
-0.25631 0.12776 -0.0091966 0.057884 0.03388 0.033551 0.041278 0.032071 
-0.33095 0.36961 0.027632 0.0034632 0.080573 0.059364 0.025659 0.086985 
0.032564 0.2029 0.10359 -0.00081153 0.11444 0.072353 -0.014622 0.054596 
0.25814 0.020727 0.16689 -0.06707 0.099481 0.069064 -0.053588 0.028454 
0.22328 0.12924 0.15867 -0.043395 0.086657 0.04358 -0.051287 -0.00064712 
0.094055 0.30648 0.19566 -0.01676 -0.011827 0.011684 -0.042079 -0.018404 
-0.037805 0.15571 0.16229 0.047033 -0.020212 0.00017495 0.026646 0.030098 
-0.13218 -0.091897 0.055089 0.053116 0.025166 0.0227 0.076463 0.092576 
-0.14188 -0.14073 -0.028433 0.040292 0.02122 0.026481 0.099316 0.10721 
-0.062796 0.10984 -0.11442 0.074654 0.059857 0.02829 0.076134 0.076956 
0.021878 0.32687 -0.11524 0.11609 0.10819 0.047197 0.056569 0.050321 
0.1322 0.071366 -0.047834 0.062159 0.14733 0.071531 0.013986 -0.047669 
0.10852 -0.11409 -0.024487 0.02829 0.12102 0.083368 0.024179 -0.023007 
-0.094856 0.11362 -0.11968 0.082875 0.038155 0.061337 0.065118 0.048019 
0.017767 -0.11722 -0.010183 0.081724 0.0075736 0.022206 0.080244 0.060844 
0.26948 -0.42582 0.17117 -0.015773 -0.032872 0.0051074 0.018918 -0.049971 
0.14831 0.12053 0.044073 -0.014787 0.027303 0.030098 0.011191 -0.0059084 
-0.14385 0.66934 -0.1381 0.033387 0.069393 0.072024 0.06742 0.055747 
-0.11935 0.46596 0.0056006 0.058049 0.0592 0.070708 0.10902 0.12381 
0.11 0.21737 0.29596 -0.011334 0.015959 0.040456 0.095042 0.05065 
0.11411 0.44031 0.45182 -0.065097 -0.012814 0.009711 0.020891 -0.02235 
-0.13267 -0.22491 0.53123 -0.061151 -0.031886 -0.019884 -0.014129 -0.012485 
-0.44325 -1.4407 0.38901 0.0095465 -0.0042642 0.0052718 -0.011334 0.088301 
-0.30169 -2.283 0.25535 0.037661 0.01974 0.010204 -0.0031133 0.1003 
0.58417 -2.0874 0.14585 -0.0014692 0.013821 -0.014293 -0.030899 0.012342 
1.413 -0.68921 0.040456 -0.022021 -0.0057439 0.00297 -0.023665 -0.076606 
1.4704 1.0383 -0.15174 -0.065755 -0.055726 0.020562 0.009711 -0.094363 
0.75303 1.959 -0.26272 -0.020377 0.0060938 0.014972 0.0054362 -0.12692 
-0.48271 2.0233 -0.33194 0.046211 0.038483 0.024344 0.01974 -0.12873 
-1.545 1.5286 -0.41661 0.13286 0.062652 0.016288 0.052294 -0.001798 
-1.6788 0.93421 -0.3275 0.13532 0.0592 0.0421 0.085177 0.21572 
-0.94668 0.53748 -0.16424 0.083204 0.028125 0.035195 0.078272 0.25584 
-0.15224 0.19303 -0.023501 0.052294 0.00083261 0.024015 0.059857 0.17117 
0.34166 -0.19318 0.053281 0.052787 0.022535 0.020233 0.050486 0.079587 
0.69318 -0.53368 0.11674 -0.01117 0.060679 0.027303 0.023851 0.0051074 
0.73593 -0.69266 0.097015 -0.0024557 0.094384 0.05772 0.038812 -0.0078813 
0.51232 -0.58645 0.072188 0.054267 0.12414 0.082875 0.051965 0.0019835 
0.26685 -0.42566 0.040785 0.10129 0.11872 0.067091 0.032071 -0.0088678 
0.022864 -0.35956 0.057555 0.046375 0.066763 0.03651 0.021056 -0.078579 
-0.0965 -0.3497 0.073668 0.030756 0.037497 0.013986 0.031085 -0.013471 
-0.15964 -0.13251 0.10622 0.01563 -0.036983 0.037497 0.054267 -0.0091966 
-0.20797 0.092411 0.20865 -0.0059084 -0.031392 0.018754 0.029276 0.043909 
-0.12659 0.15818 0.17577 -0.057699 -0.051944 -0.0027845 0.020727 0.039141 
-0.031721 0.062488 0.13171 -0.061809 -0.064768 -0.038462 -0.025145 0.024344 
0.048513 0.18383 0.10688 -0.040106 -0.056219 -0.071016 -0.031721 -0.011827 
0.15637 0.19287 0.099645 -0.0072237 -0.042079 -0.0087034 -0.031721 -0.0039354 
0.35038 0.25896 -0.015444 0.007738 0.0074092 0.0044497 -0.010512 0.015465 
0.38984 0.020398 -0.026953 0.050979 0.037168 -0.0087034 0.013821 0.019411 
0.29069 -0.45196 0.10589 0.021713 1.0539e-005 -0.016595 -0.004593 -0.03616 
0.13417 -0.60454 0.26505 -0.011498 -0.02087 -0.014622 -0.033037 -0.080717 
0.028783 -0.36663 0.20635 0.0075736 0.0095465 0.043251 -0.016431 -0.044381 
0.01974 0.06331 0.044402 0.02829 0.071202 0.069393 0.0011614 0.048019 
-0.056219 0.38737 -0.066248 0.077778 0.077449 0.046211 0.017274 0.082546 
-0.133 0.64764 -0.071016 0.04095 0.048841 0.024344 0.023522 0.088136 
-0.12659 0.89475 -0.031228 0.020727 1.0539e-005 0.01152 0.029441 0.082546 
-0.16194 0.90675 -0.036654 0.011684 0.01415 0.019411 0.076627 0.095864 
-0.30103 0.62133 -0.067399 0.067749 0.060844 0.038483 0.13631 0.14979 
-0.41119 0.2001 -0.10258 0.067913 0.053938 0.023522 0.13253 0.13203 
-0.27588 -0.19367 -0.039284 0.1031 0.045553 0.00297 0.11559 0.10211 
0.038483 -0.42516 -0.020706 0.077943 0.040128 0.029769 0.10063 0.065447 
0.40496 -0.73344 0.053281 0.081889 0.051472 0.0088889 0.060186 0.058871 
0.60785 -1.1402 0.16722 0.048184 0.051801 0.015794 0.0052718 0.018096 
0.64632 -1.3758 0.3341 -0.0044286 -0.028926 -0.0034422 -0.035338 -0.028269 
0.53616 -0.88273 0.475 -0.097487 -0.056383 -0.015444 -0.083183 -0.18216 
-0.023501 0.19944 0.35695 -0.080388 -0.0042642 0.025824 -0.06296 -0.12379 
-0.57149 1.2362 -0.024487 -0.0088678 0.036839 0.019083 -0.029913 -0.038956 
-0.656 2.2114 -0.48928 0.1054 0.031742 0.023193 0.0037921 0.064625 
-0.29117 2.3987 -0.63808 0.16607 0.066105 0.045389 0.042594 0.12299 
0.096521 1.6736 -0.44769 0.1493 0.048184 0.045553 0.062488 0.065612 
0.19303 0.55688 -0.11097 0.058049 0.060186 0.059693 0.026152 0.0098754 
0.1442 -0.38932 0.085506 -0.013143 0.05624 0.03651 0.023193 0.012506 
0.15719 -0.84294 0.14963 -0.0083746 0.079587 0.03092 0.03651 0.051472 
0.10162 -0.802 0.11609 0.0019835 0.10326 0.020398 0.046046 0.050486 
-0.12889 -0.42401 0.061501 0.01152 0.091425 0.04506 0.051308 0.10326 
-0.35726 -0.066577 0.025824 0.04917 0.08419 0.05772 0.080902 0.13368 
-0.062467 0.035031 0.03536 0.081889 0.034044 0.035031 0.075312 0.13236 
0.43883 0.16146 0.079916 0.069064 0.026317 0.026317 0.046868 0.039141 
0.30434 0.22641 0.089287 0.071859 0.020069 0.040621 0.049664 -0.038791 
-0.1113 0.048513 0.09685 0.069886 0.060515 0.01826 0.070215 -0.052931 
-0.26387 -0.10965 0.16245 0.087314 -0.0049219 0.01974 0.012506 0.052459 
-0.21356 -0.098967 0.16837 0.064461 -0.064604 -0.025145 0.017274 0.085999 
-0.024816 -0.64646 0.18744 0.027139 -0.088115 -0.050629 -0.01676 0.075641 
0.55524 -1.5904 0.33673 -0.077757 -0.058521 -0.058028 -0.047834 -0.010019 
0.85825 -2.0139 0.42124 -0.12281 0.050486 0.017767 -0.029091 -0.084663 
0.66227 -0.94307 0.19681 -0.10258 0.11592 0.066763 0.0060938 -0.1404 
-0.035996 0.76339 -0.23346 0.065447 0.17593 0.097672 0.082875 0.0016547 
-0.30004 1.5756 -0.5396 0.17692 0.12644 0.067913 0.15916 0.13434 
-0.042737 1.3564 -0.57281 0.20043 0.059528 0.061337 0.18613 0.20799 
-0.10998 0.9546 -0.37633 0.13532 0.035688 0.040456 0.12546 0.13335 
-0.60947 0.91793 -0.121 0.038648 -0.0049219 0.018425 0.077614 0.029769 
-0.81515 0.99192 0.036017 -0.015773 -0.011005 0.0018191 0.038812 -0.015116 
-0.54091 0.43456 0.15357 -0.027282 -0.0098543 -0.023665 -0.024323 -0.018568 
0.10754 -0.68165 0.23397 -0.03057 -0.029748 0.0039565 -0.038791 -0.041586 
0.83211 -1.407 0.20931 -0.020541 -0.036489 0.012999 -0.060165 -0.06855 
0.82668 -0.97513 -0.0044286 -0.00081153 -0.02794 -0.0067304 -0.030242 -0.052437 
0.37668 -0.073976 -0.096007 0.024673 0.013492 0.02533 -0.0088678 0.017274 
-0.0011404 0.35876 0.044567 0.035524 0.077285 0.043909 0.033387 0.098494 
-0.16292 0.11806 0.27129 0.04654 0.097837 0.062488 0.024508 0.078929 
-0.25286 -0.10653 0.28691 0.065612 0.05624 0.037826 0.026481 0.037004 
-0.26601 0.062159 0.050321 0.080738 -0.0068948 0.036839 0.027139 0.049828 
-0.2032 0.23183 -0.11672 0.05772 0.025495 0.011848 0.04654 0.067091 
-0.078579 0.40315 -0.12659 0.037168 0.033551 0.016288 0.031414 0.051308 
0.083533 0.63514 -0.0014692 0.019905 0.020727 0.018096 0.016452 0.026646 
0.16886 0.52005 0.12694 -0.049149 0.027139 0.01563 0.0062583 -0.020048 
0.18284 -0.206 0.17084 -0.028433 0.046211 0.024837 0.028783 0.010697 
0.14913 -0.98581 0.026974 0.029934 0.079916 0.04358 0.060186 0.027796 
0.11378 -1.0353 -0.14303 0.12184 0.063145 0.055418 0.058706 0.069722 
0.1516 -0.73755 -0.093705 0.08863 0.011684 0.027139 0.028125 0.043251 
0.24893 -0.29182 0.041772 -0.031886 -0.040435 0.0051074 -0.010348 0.025001 
0.038319 0.31996 0.044073 -0.040106 -0.040928 -0.019884 0.0054362 0.04095 
-0.38439 0.67082 0.014643 0.0227 -0.0062372 -0.00081153 0.031578 0.065447 
-0.53154 0.79643 0.016781 0.024344 0.0016547 0.020069 0.023851 0.02829 
-0.20173 0.67674 0.035195 0.037168 0.017438 0.047691 -0.0054151 -0.023336 
0.22789 0.26669 0.18481 0.0047785 0.0064227 0.019411 -0.0059084 -0.12642 
0.50821 -0.040928 0.31075 -0.014458 -0.018075 -0.00064712 -0.015773 -0.1547 
0.49868 -0.35167 0.27064 -0.036325 -0.027611 -0.012485 0.00066819 -0.028762 
0.35712 -0.77668 0.10573 -0.032543 -0.019719 0.0018191 0.025659 0.0324 
0.42107 -0.99699 0.088301 -0.0022913 -0.076771 0.0034632 0.019083 0.046868 
0.33311 -0.54107 0.17215 0.015794 -0.019226 -0.0024557 0.0056006 0.058542 
-0.17493 0.20799 0.13713 0.028125 0.039141 0.056076 0.0092177 0.11428 
-0.35858 0.2828 0.074326 0.047033 0.074161 0.042265 0.0421 0.090603 
-0.21586 0.085012 -0.047341 0.016616 0.066434 0.10754 0.016781 0.069064 
-0.16917 0.28773 -0.22803 0.13088 0.14042 0.1026 0.083368 0.044073 
-0.094363 0.40217 -0.28738 0.14519 0.19961 0.11346 0.090109 0.069393 
0.056569 0.38951 -0.16062 0.078436 0.12053 0.06479 0.017274 0.013328 
0.083533 0.61985 -0.030899 0.0095465 0.021713 0.018754 -0.075291 0.018754 
-0.062796 0.69713 0.12776 -0.038298 -0.028433 -0.02087 -0.086142 -0.0040998 
-0.14911 0.15571 0.20339 -0.034845 -0.049478 -0.012156 -0.033694 0.053774 
-0.07003 -0.25088 0.21556 -0.016595 0.0069159 0.013164 0.043745 0.00066819 
0.10902 -0.29117 0.23101 0.041278 0.0059294 0.028619 0.064625 -0.031557 
0.16574 -0.3127 0.2103 0.037332 -0.0032777 0.041936 0.061008 -0.0011404 
0.041114 -0.21356 0.07301 0.050814 0.0013258 0.033387 0.069393 0.061337 
-0.1256 -0.14632 0.004943 0.054432 0.050814 0.052459 0.079587 0.12316 
-0.2573 0.010697 0.070051 0.058706 0.11181 0.071366 0.055418 0.13006 
-0.28344 0.33574 0.01974 0.037497 0.091753 0.049992 0.035524 0.10277 
-0.16473 0.36517 -0.0503 0.10639 0.036839 0.004943 0.022371 0.062159 
0.27442 -0.50638 0.045389 0.07449 -0.032872 -0.029091 0.007738 -0.017417 
0.71209 -0.87993 0.18892 -0.0042642 -0.084005 -0.065426 -0.022679 -0.090746 
0.40743 0.19188 0.065612 -0.096172 -0.07562 -0.061645 -0.048656 -0.075291 
-0.057205 0.96348 -0.052273 -0.099131 -0.060494 -0.03353 -0.048656 -0.035174 
0.0047785 0.54718 -0.086636 -0.058028 -0.001798 0.020069 -0.038133 -0.031392 
0.50986 0.27524 -0.13941 0.039305 0.08863 0.05772 0.02122 -0.0078813 
0.55951 0.62248 -0.30481 0.093726 0.17199 0.099316 0.054267 0.05065 
0.041443 0.92961 -0.38899 0.15916 0.19007 0.11757 0.12398 0.10228 
-0.45492 0.92648 -0.30218 0.20931 0.15423 0.11839 0.14881 0.1539 
-0.60766 0.80021 -0.096994 0.23298 0.10688 0.080738 0.098988 0.10014 
-0.6121 0.53699 0.14979 0.1636 0.072517 0.044238 0.071531 0.089616 
-0.51362 0.26209 0.34857 0.015959 -0.0039354 0.0056006 0.031249 0.057884 
-0.376 -0.25072 0.43735 -0.068386 0.0064227 -0.0024557 0.034373 0.065612 
-0.064111 -1.1856 0.50838 -0.077922 0.029769 0.0083956 0.054267 0.043416 
0.31864 -1.6163 0.52926 -0.076277 0.069064 0.047526 0.054267 0.042265 
0.26274 -1.0249 0.36057 -0.042737 0.10244 0.049499 0.072024 0.039963 
0.070873 0.20536 -0.0016336 0.023357 0.055418 0.036839 0.11148 0.096357 
0.10244 0.5485 -0.26108 0.063803 -0.0031133 0.025495 0.097179 0.085177 
0.3951 -0.043559 -0.19959 0.027139 -0.05326 -0.0031133 0.03947 -0.015116 
0.75237 -1.0731 -0.068057 -0.016266 -0.088608 -0.052602 -0.057699 -0.16588 
0.78311 -1.1468 -0.2111 -0.018568 -0.12034 -0.077264 -0.14796 -0.20238 
0.317 0.13549 -0.44292 0.032729 -0.046847 -0.0503 -0.15536 -0.097816 
-0.12873 1.1286 -0.42056 0.037497 -0.023829 -0.020706 -0.055561 -0.00097594 
-0.23724 0.93618 -0.068221 0.020398 -0.015609 0.013821 0.098001 0.10458 
-0.37502 0.40348 0.21737 0.024508 -0.018897 0.028947 0.13993 0.18876 
-0.5636 0.30878 0.30697 -0.011827 -0.0090322 -0.00081153 0.050321 0.19122 
-0.45163 0.31092 0.23233 -0.032379 0.050814 0.0016547 -0.13432 0.15176 
-0.16079 0.25255 0.095864 0.020891 0.1345 0.040621 -0.15684 0.10113 
0.076792 0.29809 -0.091075 0.17117 0.22822 0.070544 -0.030406 0.044567 
0.23151 0.3096 -0.21488 0.16031 0.13335 0.077121 0.11822 -0.010512 
0.70683 0.15193 -0.1187 0.090767 0.052294 0.041114 0.20849 -0.054904 
0.93207 -0.22491 0.020398 0.031907 0.0075736 0.035853 0.20799 -0.041915 
0.56017 -0.6172 0.10951 0.051965 0.023686 0.034702 0.1225 0.0013258 
-0.18298 -0.52809 0.13335 0.013657 0.010533 0.010862 0.033222 0.040292 
-0.81992 -0.098802 0.032071 -0.0044286 0.0021479 0.014315 -0.014951 0.045882 
-0.98368 0.14042 -0.10653 0.0065871 0.012177 -0.0055795 -0.026789 0.11428 
-0.66258 0.17511 -0.1935 0.08008 0.03092 0.018096 0.027796 0.10819 
-0.27982 0.068078 -0.18134 0.090109 0.0044497 0.012835 -0.016266 0.029276 
0.35564 -0.15536 -0.059836 0.023357 -0.039942 -0.03353 -0.036983 -0.060329 
0.66901 0.044073 0.086657 -0.047834 -0.058685 -0.031064 -0.051287 -0.068714 
0.378 0.34988 0.14157 -0.058685 -0.058356 -0.028269 1.0539e-005 -0.038298 
0.040128 -0.053588 0.25913 -0.061645 -0.041422 -0.027118 0.01563 0.0031344 
0.01711 -0.92925 0.37356 -0.067235 -0.051287 -0.0082102 0.021713 0.016123 
0.18744 -1.3669 0.35531 -0.068714 -0.011827 0.029934 -0.0029489 0.0079024 
0.29168 -0.93945 0.21835 0.023028 0.081889 0.092576 0.0067515 -0.0095255 
0.3678 -0.52841 0.24466 0.071695 0.12135 0.070544 -0.0055795 -0.025145 
0.41417 -0.50901 0.35547 0.060515 0.082875 0.029276 0.0011614 -0.020212 
0.35219 -0.54206 0.30796 0.031742 0.014972 0.019083 0.0039565 -0.0021268 
0.19435 0.24992 0.00099702 0.0092177 -0.025802 -0.012649 0.0044497 0.026317 
-0.11278 1.4261 -0.33194 -0.028926 0.0083956 -0.010183 0.022042 0.072353 
-0.33178 1.6108 -0.36828 -0.032543 0.086492 0.034373 0.045553 0.096028 
-0.29824 1.0439 -0.24464 0.02122 0.15555 0.095371 0.061666 0.08978 
-0.20584 0.54537 -0.17525 0.10096 0.12036 0.089452 0.066598 0.06594 
-0.26124 0.41417 -0.27292 0.18925 0.092411 0.053938 0.076627 0.062652 
-0.33901 0.62692 -0.30843 0.23266 0.052294 0.029112 0.055911 0.096028 
-0.19054 0.92862 -0.18249 0.18777 0.0070803 0.0016547 0.011026 0.034209 
0.11757 0.67246 0.078272 0.02681 -0.048492 0.0092177 0.0013258 0.0090533 
0.31486 -0.18578 0.32884 -0.082525 -0.050958 0.0039565 0.015794 -0.01232 
0.21276 -0.59303 0.32752 -0.032543 0.0011614 0.01415 0.061501 -0.003771 
-0.0055795 -0.44687 0.19681 0.067913 0.084684 0.045718 0.10491 0.017767 
-0.2642 -0.31468 0.095371 0.025824 0.075641 0.049828 0.071859 0.043087 
-0.43914 -0.17624 0.16936 -0.031228 0.013657 0.034373 0.020891 0.024673 
-0.25467 -0.084827 0.1881 -0.022021 -0.0029489 0.0054362 -0.025638 0.0046141 
0.27146 -0.13021 0.14683 -0.014293 -0.0013048 0.0036276 -0.014951 -0.046519 
0.58664 -0.16079 0.0060938 0.0079024 0.03947 0.00083261 0.049499 0.010862 
0.41762 0.28658 -0.14813 0.075148 0.073668 0.055089 0.10211 0.08304 
0.1442 0.90971 -0.17854 0.098166 0.072681 0.069722 0.11609 0.098823 
0.036839 1.1774 -0.14928 0.060186 0.05065 0.067091 0.10704 0.063968 
-0.015116 0.81863 -0.057041 0.012506 0.037826 0.017603 0.073504 0.0079024 
-0.20962 0.31174 -0.0047575 0.040621 0.034866 -0.00081153 0.059857 -0.0050863 
-0.4033 0.21474 0.085506 0.056569 0.029605 0.036017 0.038977 0.025001 
-0.49635 0.13943 0.096028 0.024015 0.047033 0.046375 0.041443 0.092576 
-0.34904 -0.14878 0.056898 0.011848 0.046704 0.0592 0.038812 0.11888 
-0.18841 0.021384 -0.20238 0.05213 0.076463 0.042758 0.031742 0.093069 
0.13351 0.17758 -0.25072 0.091918 0.048513 0.01826 0.0090533 0.040621 
0.49687 0.013821 -0.053588 0.065283 0.0039565 0.018754 0.01826 0.029934 
0.45659 -0.11409 0.1373 0.0074092 -0.070687 0.0095465 0.034209 0.039799 
0.34183 0.03799 0.12891 -0.028104 0.0044497 0.0013258 0.041772 0.014315 
0.44113 -0.0052507 0.21013 -0.016431 0.017767 0.018918 0.054596 -0.048656 
0.36912 -0.67178 0.4556 -0.028433 0.010204 0.02533 0.062981 -0.090746 
0.16344 -1.651 0.66276 -0.051451 0.0098754 0.045553 0.066763 -0.044874 
0.0032988 -1.8756 0.63021 -0.025802 -0.010841 0.01004 0.072188 0.032236 
-0.12363 -0.93698 0.317 0.027468 0.010533 0.0093821 0.094384 0.10885 
-0.27884 0.14387 -0.0062372 0.028947 -0.0095255 0.0032988 0.10063 0.14552 
-0.2106 0.32851 -0.14221 0.015794 0.0079024 0.026152 0.079587 0.12957 
-0.10489 0.071037 -0.12856 -0.0090322 0.014808 0.052787 0.026974 0.07449 
-0.19054 0.36172 -0.29232 0.091589 0.067749 0.037332 -0.045861 0.093069 
-0.35644 0.83343 -0.39557 0.1202 0.08419 -0.00015387 -0.095349 0.042429 
-0.020706 0.52515 -0.25039 0.06035 0.0095465 -0.021363 -0.082525 -0.033694 
0.49309 0.27951 -0.13021 0.057062 -0.0054151 -0.00064712 0.042265 0.019247 
0.36271 0.68989 -0.090581 0.04654 -0.013965 0.010204 0.14009 0.082546 
0.028783 1.0072 -0.12018 0.024015 -0.004593 0.013821 0.12398 0.058377 
0.14733 0.31536 0.031414 0.011355 0.0047785 0.015301 0.056569 -0.025802 
0.46678 -0.94997 0.1932 -0.011334 0.029441 0.044896 -0.015938 -0.096994 
0.77884 -1.6425 0.35153 -0.017088 0.063803 0.071366 -0.053753 -0.11491 
0.68151 -1.532 0.38293 -0.0013048 0.060186 0.039305 -0.083183 -0.10357 
0.42091 -0.60437 0.24992 0.016945 0.012506 -0.011498 -0.11442 -0.056383 
0.082053 0.53205 0.073997 0.010697 -0.054739 -0.047176 -0.11376 -0.056219 
-0.35381 0.91991 0.024673 0.041936 -0.071345 -0.0406 -0.075455 -0.02087 
-0.86464 0.66063 0.087314 -0.01939 -0.098144 -0.033037 -0.020541 0.012835 
-1.46 0.29727 0.015301 -0.052931 -0.087622 -0.031721 0.05772 0.18613 
-1.2423 -0.17706 0.0065871 -0.040106 -0.053917 -0.046025 0.087643 0.26159 
-0.099295 -0.68214 0.21885 -0.079401 -0.0082102 -0.022185 0.019576 0.080902 
0.90133 -1.0054 0.34528 -0.053424 0.096521 0.026152 -0.022185 -0.1205 
1.2292 -0.79148 0.12497 0.1105 0.20043 0.094877 0.022371 -0.1016 
1.0325 -0.28475 -0.16769 0.26768 0.28889 0.14404 0.11625 -0.021199 
0.5286 0.18728 -0.34164 0.28921 0.22444 0.13516 0.091589 0.022535 
-0.10423 0.597 -0.31698 0.2126 0.12464 0.078272 0.11329 0.094548 
-0.58744 0.60604 -0.16358 0.084519 0.012177 0.041936 0.039141 0.15719 
-0.63693 0.38178 0.0042853 0.0095465 -0.012156 0.01563 0.0042853 0.19714 
-0.44095 0.48191 0.083204 -0.066577 -0.02498 0.021384 -0.025967 0.16656 
-0.54107 0.87732 0.048019 -0.076771 -0.011334 -0.0022913 -0.031721 0.053445 
-0.32586 1.0888 0.028783 -0.06444 -0.045203 -0.0083746 -0.06444 -0.036325 
0.43784 0.89886 -0.001798 -0.019226 -0.12511 -0.045696 -0.061151 -0.095843 
0.9426 0.27507 -0.036983 -0.021363 -0.18759 -0.09239 -0.078415 -0.10439 
0.52548 -0.34246 0.012506 -0.024158 -0.12593 -0.073811 -0.092883 -0.15536 
-0.11163 -0.65551 0.15094 -0.032872 -0.014129 -0.031228 -0.054082 -0.14139 
-0.076277 -0.5881 0.16936 0.0023123 0.1613 0.061501 -0.0078813 -0.097816 
0.41203 -0.26026 -0.024487 0.043909 0.26801 0.15226 0.061501 -0.00097594 
0.25337 0.17873 -0.20797 0.08567 0.24367 0.12825 0.10951 0.079258 
-0.062796 0.51528 -0.15602 0.097015 0.14765 0.099974 0.088958 0.072353 
-0.25845 0.61936 -0.079401 0.11148 0.064954 0.064296 0.096028 0.1516 
-0.40247 0.68792 -0.20896 0.09981 0.021878 0.03799 0.10787 0.20684 
-0.36466 0.83852 -0.31418 0.10425 -0.0029489 0.022371 0.096357 0.23989 
-0.2744 0.97499 -0.28196 0.10244 -0.021363 0.0056006 0.05772 0.16262 
-0.20353 0.9352 -0.23987 0.071531 -0.017582 -0.025638 0.04095 0.12003 
-0.3206 0.96726 -0.26831 0.076792 0.031249 0.016288 0.063968 0.099152 
-0.52085 0.73872 -0.14961 0.11921 0.13351 0.079916 0.095206 0.12694 
-0.35003 0.089616 0.083204 0.048184 0.095864 0.073997 0.078929 0.058213 
0.22772 -0.55193 0.2851 0.0026412 0.10704 0.061008 0.061008 -0.052931 
0.50509 -1.0951 0.37948 0.0092177 0.1299 0.08304 0.05476 -0.078744 
0.47171 -1.799 0.50016 -0.031721 0.058377 0.028947 0.014479 -0.11245 
0.39099 -1.7265 0.60061 -0.11919 -0.057205 0.0065871 -0.049149 -0.097651 
0.25469 -0.65978 0.42157 -0.12264 -0.10883 -0.040271 -0.055068 -0.021692 
0.1562 0.58894 0.056733 -0.0406 -0.066084 -0.030406 -0.0044286 0.10556 
0.038812 1.2709 -0.30827 0.063145 0.0046141 0.00033937 0.018754 0.18695 
-0.07003 1.3786 -0.50688 0.17051 0.07301 0.01711 0.037004 0.1567 
-0.47893 1.0947 -0.41579 0.14174 0.059693 0.057391 0.061501 0.085999 
-0.8459 0.44343 -0.17756 0.028947 0.051636 0.04358 0.068242 0.038155 
-0.58629 0.18119 -0.02794 -0.0013048 0.013492 0.041443 0.086657 0.019411 
0.22246 0.34002 -0.080717 0.029112 0.010697 0.014479 0.072681 -0.0047575 
0.68151 0.23282 -0.075455 0.013328 -0.014622 -0.02498 0.053938 -0.0044286 
0.76667 -0.50901 0.084355 0.047197 -0.018733 0.024179 0.031578 -0.011663 
0.86417 -1.2058 0.2486 -0.008539 -0.041422 -0.023172 0.03092 -0.0082102 
0.69992 -0.93978 0.18596 -0.011005 -0.085485 -0.048985 0.025659 0.016616 
0.5212 -0.58382 0.14568 -0.050629 -0.030077 -0.047341 -0.065426 -0.091239 
0.41039 -1.154 0.28494 -0.074304 0.027303 0.0079024 -0.059014 -0.12116 
0.054103 -1.3115 0.35613 -0.03764 0.095535 0.027961 -0.016102 -0.045532 
-0.24118 -0.81877 0.29135 0.047691 0.12891 0.082217 0.096357 0.12743 
-0.44851 0.11066 0.051308 0.064625 0.11609 0.076627 0.16311 0.25715 
-0.49783 1.2374 -0.19137 0.047197 0.029112 0.030427 0.11543 0.24367 
-0.11952 1.6558 -0.25697 0.036839 0.0069159 0.044073 0.047855 0.13417 
0.23677 0.89114 -0.037805 0.037332 0.05476 0.068242 0.022535 0.00050378 
0.1368 -0.32849 0.2879 -0.018733 0.052294 0.041443 0.034866 -0.089595 
0.041772 -0.86974 0.57562 -0.032543 -0.010676 -0.016102 -0.031557 -0.11771 
0.13993 -0.31797 0.6797 -0.0087034 -0.098309 -0.052931 -0.0014692 -0.075291 
0.16278 0.056569 0.6963 -0.019061 -0.083347 -0.017746 0.0087245 -0.0098543 
0.053609 -0.40395 0.45478 0.021384 -0.031228 0.0013258 0.0098754 0.052787 
-0.10456 -1.206 0.11148 0.078272 0.012013 0.0059294 0.01974 0.08156 
-0.087786 -1.8334 -0.13744 0.10672 0.021384 0.023193 0.043909 0.10672 
-0.017088 -1.4657 -0.22162 0.080902 0.10441 0.052294 0.086821 0.11148 
0.10063 -0.74676 -0.18545 0.048348 0.15045 0.092904 0.076956 0.096193 
0.232 0.15735 -0.26848 0.096686 0.13697 0.053281 0.041936 0.024179 
0.21638 1.3512 -0.35726 0.11937 0.080573 0.027468 0.0067515 -0.049642 
0.027468 2.3719 -0.3446 0.036017 -0.05885 -0.057699 -0.060987 -0.12593 
-0.029584 2.7517 -0.14287 -0.059836 -0.16703 -0.091732 -0.095349 -0.10998 
0.04917 2.273 -0.039613 -0.086964 -0.16818 -0.089266 -0.079237 -0.07414 
0.11083 0.92714 0.068736 -0.077264 -0.11459 -0.062138 -0.04323 -0.028104 
0.15818 -0.8362 0.29513 -0.10209 -0.049971 -0.018568 0.047855 -0.035832 
0.34002 -1.8814 0.6312 -0.080223 0.035524 0.03388 0.10162 -0.056219 
0.42847 -1.9149 0.77374 -0.010512 0.076627 0.071695 0.12365 -0.055397 
0.24334 -1.3659 0.5337 0.087479 0.087643 0.075641 0.10885 0.062817 
-0.029748 -0.66948 0.21457 0.11214 0.086163 0.047691 0.069229 0.13187 
-0.023665 -0.43585 0.12661 0.062159 0.087808 0.015959 0.032729 0.086985 
0.30894 -0.18956 0.050157 0.035524 0.10606 0.057062 0.013657 0.020891 
0.30862 0.31223 -0.11475 0.073504 0.13499 0.098988 -0.0004827 -0.012814 
-0.37896 0.76043 -0.22441 0.11362 0.16163 0.11 -0.067235 0.039634 
-1.1456 0.95772 -0.29199 0.11181 0.11378 0.077778 -0.10176 0.16755 
-1.0726 0.70518 -0.19548 0.10441 0.049664 0.041607 -0.017582 0.23118 
-0.37469 0.38046 -0.059507 0.060844 0.00033937 0.032729 0.13302 0.15752 
0.10556 0.56346 -0.0095255 0.015465 -0.014787 0.019247 0.14601 0.08419 
0.13154 0.99817 -0.075291 0.010533 -0.016431 0.020727 0.12168 0.028125 
-0.041422 1.1134 -0.20978 0.054267 -0.0042642 0.014479 0.05772 0.0021479 
-0.07003 0.79413 -0.24546 0.080244 0.010533 0.0021479 0.012013 -0.045532 
0.019576 0.13582 -0.24579 0.069393 -0.0059084 0.01267 -0.040764 -0.041422 
0.16015 -0.63611 -0.035338 0.039634 0.029934 0.016616 0.0095465 -0.037969 
0.33048 -0.94109 0.14256 -0.0011404 0.029769 0.01826 0.0083956 0.01004 
0.36682 -0.86431 0.26685 -0.028762 0.059693 0.010533 -0.026789 -0.0406 
0.26242 -0.55275 0.24466 -0.020048 0.048348 0.0080668 -0.034023 -0.047998 
0.072846 0.025001 0.19451 0.0031344 0.00050378 0.0032988 -0.056055 -0.071838 
-0.12659 0.66868 0.064625 0.014479 -0.024816 0.00066819 -0.015609 0.0021479 
-0.29544 0.91152 -0.03616 0.019411 -0.033037 0.012177 0.066105 0.099974 
-0.30383 0.83622 -0.14023 0.014808 0.0065871 0.040128 0.10129 0.14716 
-0.22474 0.6164 -0.28541 0.033058 0.051801 0.07597 0.095535 0.16114 
-0.22507 0.2948 -0.33211 0.075312 0.089452 0.086657 0.064461 0.13072 
-0.061316 0.030592 -0.18972 0.053609 0.057062 0.072024 0.028783 0.055747 
0.25239 0.020233 -0.085649 0.065118 0.079916 0.04358 0.03651 -0.022843 
0.37783 0.1299 -0.094199 0.072517 0.056404 0.027961 0.052459 -0.057699 
0.35054 0.27376 -0.031886 0.064461 0.046211 0.02829 0.032564 -0.048985 
-0.084663 0.56921 -0.084498 0.045553 0.031742 0.049828 0.06331 0.049335 
-0.45821 0.62939 -0.11738 0.082053 0.067749 0.037004 0.069393 0.13105 
-0.43108 0.41368 -0.11722 0.10491 0.059364 0.024344 0.052787 0.19155 
0.071695 -0.034188 -0.019884 0.082711 0.036839 -0.010348 0.020562 0.10063 
0.44146 -0.12708 0.0023123 0.01974 0.025824 0.019247 0.025988 0.0031344 
0.11444 0.12299 -0.033037 0.00066819 0.0046141 0.038812 0.038812 -0.0088678 
-0.30136 -0.052602 -0.071674 0.05772 0.036839 0.045553 0.06479 0.028619 
-0.40478 -0.64531 -0.10373 0.030592 -0.0011404 0.013492 0.0072447 0.035688 
-0.24382 -1.0854 -0.073811 0.037168 0.012506 0.011684 -0.01676 0.027303 
-0.20205 -0.60799 -0.027447 0.044073 -0.0091966 0.013164 -0.021856 0.025166 
-0.26009 0.48372 -0.025802 0.020069 -0.017746 -0.0026201 0.031907 0.046704 
-0.10324 1.0457 -0.069208 0.030756 -0.029255 0.00017495 0.04358 0.082217 
0.16048 0.73807 0.043251 -0.022514 -0.036489 0.0072447 0.009711 0.12053 
0.43702 0.054267 0.16985 -0.075291 -0.019884 -0.019555 0.016123 0.035195 
0.7088 -0.42237 0.14864 -0.011334 0.023028 0.013492 0.076299 -0.006566 
0.77309 -0.27834 0.020562 0.054267 0.1105 0.049992 0.10721 -0.024816 
0.60867 -0.29396 0.044896 0.11576 0.16146 0.072353 0.12727 -0.023501 
0.54702 -1.0988 0.34281 0.082382 0.16015 0.062488 0.062323 -0.065262 
0.52038 -1.7508 0.60768 0.033715 0.082875 0.050979 -0.027775 -0.11376 
0.25107 -1.3883 0.58796 -0.024487 0.021549 0.045224 -0.045039 -0.086307 
-0.0088678 -0.48846 0.24729 -0.042573 -0.050136 -0.014293 -0.060165 -0.041257 
-0.182 0.63827 -0.13547 -0.022679 -0.061151 -0.026953 -0.025802 0.0072447 
-0.51493 1.6001 -0.4347 0.028454 -0.019061 -0.010348 0.044073 0.10803 
-0.77569 1.571 -0.46939 0.060679 0.024344 0.037168 0.091753 0.19073 
-0.74281 0.97186 -0.39261 0.11132 0.010862 -0.0055795 0.099645 0.21112 
-0.72144 0.81912 -0.37765 0.14486 -0.063289 -0.026624 0.090109 0.25271 
-0.57034 0.68003 -0.26979 0.15176 -0.059836 -0.016266 0.057391 0.21852 
-0.069536 -0.045532 -0.0040998 0.029112 -0.019884 -0.015609 0.06331 0.15275 
1.0181 -1.1192 0.31092 -0.056383 0.08863 0.044567 0.057227 0.0014903 
1.6816 -1.5649 0.54521 -0.063618 0.24005 0.1003 0.030592 -0.092226 
1.3206 -1.349 0.79972 0.01974 0.34429 0.10967 -0.024487 -0.19992 
0.44557 -0.69957 0.81912 -0.011005 0.19649 0.077449 -0.072167 -0.21323 
-0.31024 -0.30333 0.59305 -0.09091 -0.0138 0.0036276 -0.075949 -0.13021 
-0.15964 -0.03912 0.29004 -0.12823 -0.1279 -0.02942 -0.041915 -0.021528 
0.25041 0.24745 0.10622 -0.11557 -0.157 -0.056877 -0.039778 -0.013965 
0.067256 0.44311 -0.080717 -0.080223 -0.10554 -0.053095 -0.05589 -0.13777 
-0.31813 -0.060987 -0.12478 -0.0077169 -0.089102 -0.034845 -0.054739 -0.20238 
-0.15783 -0.67376 0.0052718 0.050979 -0.080552 -0.013636 -0.021363 -0.0771 
-0.19712 -0.28788 0.020562 0.06035 -0.032215 0.0082312 0.031742 0.091096 
-0.28278 0.44048 -0.089102 0.084026 0.06035 0.023686 0.072681 0.2269 
-0.21373 0.61492 -0.13185 0.11822 0.099974 0.035853 0.10211 0.24548 
-0.049478 0.43489 -0.14961 0.14946 0.14913 0.069064 0.090603 0.17511 
0.21145 0.3022 -0.15816 0.078929 0.14223 0.08419 0.03947 0.047855 
0.39921 0.2149 -0.028269 0.0064227 0.069886 0.039634 -0.0054151 -0.06148 
0.29004 0.20799 0.081395 -0.025145 0.00297 -0.010348 -0.022021 -0.051944 
-0.021692 0.47829 0.092247 -0.0068948 -0.056219 -0.020541 0.0047785 -0.0050863 
-0.14434 0.46218 0.063639 -0.0064016 0.0034632 0.011355 0.074326 0.040456 
-0.15339 0.31536 0.083533 0.0079024 0.092576 0.067091 0.089452 0.0421 
-0.080223 0.14124 0.17741 -0.041257 0.062323 0.030098 0.040456 0.025824 
0.13746 -0.15816 0.29744 -0.0080457 0.0051074 -0.004593 -0.024816 -0.027282 
0.45412 -0.55669 0.35432 -0.00081153 -0.014951 -0.0067304 -0.041093 -0.022021 
0.34791 -0.63791 0.18465 0.047362 0.023851 0.029276 0.01563 0.0052718 
-0.16161 -0.25088 -0.12363 0.11691 0.076134 0.057555 0.037168 0.07301 
-0.50392 0.31338 -0.27193 0.16623 0.094384 0.044238 0.065776 0.09274 
-0.52677 0.609 -0.13514 0.087479 0.013986 0.024344 0.052459 0.12924 
-0.11278 0.25584 0.10737 -0.074304 -0.066906 -0.00015387 0.01152 0.054596 
0.41022 -0.17904 0.24614 -0.12001 -0.069043 -0.0044286 -0.030077 -0.034352 
0.62034 -0.037969 0.094877 -0.056383 -0.016266 0.0075736 -0.024323 -0.08269 
0.44311 0.42288 -0.068057 -0.015116 0.02681 0.0065871 -0.010183 -0.037476 
0.2366 0.45873 -0.16769 0.036675 0.048677 0.012013 0.024179 0.038648 
0.081395 0.2851 -0.16506 0.093891 0.058706 0.050486 0.051801 0.074326 
-0.0503 0.1562 -0.060329 0.090274 0.083368 0.069229 0.079916 0.092411 
-0.34526 0.25222 0.010697 0.041607 0.12908 0.12891 0.093726 0.058377 
-0.67935 0.45577 0.016945 0.066269 0.032236 0.055418 0.12398 0.041772 
-1.133 0.60275 -0.046025 0.05772 0.0042853 0.084519 0.19583 0.11115 
-0.99995 0.45478 0.019905 0.029441 -0.00064712 0.020069 0.084026 0.097344 
-0.052766 0.19566 0.10507 -0.028762 -0.0064016 0.013492 -0.022679 0.00083261 
0.90133 0.32785 -0.033201 -0.0078813 0.010697 -0.0039354 -0.047834 0.033222 
1.0682 0.034209 -0.094034 0.06035 -0.004593 0.00083261 -0.0098543 0.070051 
0.51545 -0.68954 0.077449 0.043251 -0.019884 0.005765 -0.028433 0.022535 
0.073997 -0.94685 0.13368 0.012342 -0.010676 -0.014293 -0.11574 -0.078908 
-0.014129 -0.24201 -0.048656 0.032564 0.039305 0.012999 -0.17542 -0.12083 
0.053609 0.439 -0.23625 0.10507 0.049335 0.01563 -0.13925 -0.10554 
-0.027611 0.36353 -0.2009 0.095699 0.0592 0.041772 0.13598 -0.0090322 
-0.2596 -0.20238 -0.057041 0.0786 0.062323 0.042758 0.32177 0.072846 
-0.3885 -0.48041 0.031907 0.034866 0.050157 0.060022 0.31453 0.16903 
-0.19515 -0.25845 0.071037 0.063968 0.027961 0.045389 0.18399 0.17314 
0.2292 -0.003771 0.073997 0.048841 0.022206 0.045553 0.095206 0.1442 
0.3392 0.24269 0.10819 0.042758 0.038648 0.031578 0.028619 0.10787 
-0.050958 0.60588 0.061501 0.038812 0.014479 0.016781 -0.008539 0.1539 
-0.44769 0.98863 -0.11524 0.10392 0.070051 0.027632 -0.028269 0.1853 
-0.46035 0.76075 -0.18907 0.13828 0.081067 0.040292 -0.02498 0.17265 
-0.20567 0.0056006 -0.084334 0.12628 0.092576 0.025659 -0.01939 0.10819 
0.244 -0.66734 0.018425 0.030427 0.066269 0.017438 -0.0011404 0.023193 
0.69844 -0.71223 0.010533 -0.003771 0.071202 0.011684 0.0046141 -0.077757 
0.64928 -0.44243 -0.09946 0.054925 0.097015 0.058542 0.037826 -0.13958 
0.49588 -0.875 0.036839 0.023193 0.03388 0.04358 0.015959 -0.17394 
0.34594 -1.7357 0.57365 -0.11409 -0.094692 -0.033859 -0.045203 -0.22688 
-0.15733 -1.0113 0.76634 -0.16506 -0.13908 -0.06855 -0.073154 -0.21784 
-0.56409 0.84082 0.5212 -0.16029 -0.06296 -0.038956 -0.052109 -0.09798 
-0.57823 1.5971 0.18629 -0.087951 0.0083956 0.027468 -0.01676 0.095864 
-0.39787 1.3426 -0.073811 0.064954 0.067913 0.02829 0.038155 0.17429 
-0.29906 0.94934 -0.2938 0.14239 0.090931 0.050814 0.10014 0.18794 
-0.031064 0.682 -0.37469 0.18284 0.12168 0.073504 0.13401 0.14519 
0.21934 0.072517 -0.28837 0.14305 0.12579 0.10491 0.16393 0.11724 
0.11642 -0.19844 -0.13991 0.10787 0.081395 0.072024 0.12562 0.12365 
0.27919 -0.14056 0.025988 -0.0054151 0.032071 0.026974 0.029112 0.094548 
0.70387 -0.18594 0.14815 -0.087458 -0.048327 -0.048327 -0.069372 -0.050464 
0.51578 -0.72094 0.22444 -0.061316 -0.045368 -0.060329 -0.10949 -0.10423 
0.098166 -1.1645 0.19007 0.009711 -0.0406 -0.027611 -0.10406 -0.11064 
-0.18298 -0.89078 0.09126 0.057062 -0.016102 -0.010183 -0.044874 -0.042244 
-0.51871 -0.15454 0.0065871 0.08715 0.0065871 -0.0078813 0.0592 0.011355 
-0.55028 0.39247 0.092411 0.05624 0.033387 0.010697 0.082546 0.070215 
-0.28952 0.26061 0.098988 0.058871 0.025495 0.013164 0.090767 0.03651 
-0.0078813 0.2292 0.039799 -0.0060728 -0.023007 0.025166 0.037168 0.0060938 
0.14108 0.46974 -0.011992 0.051308 -0.036818 0.0016547 0.024344 -0.0083746 
0.50361 0.4071 0.063803 0.0082312 0.011684 0.021056 -0.00064712 0.0051074 
1.0332 -0.046683 0.15883 -0.011498 0.058871 0.06331 0.039634 0.0093821 
0.90116 -0.08121 0.061666 0.00083261 0.14206 0.10113 0.067913 0.056569 
0.17215 0.26011 -0.014951 0.057391 0.16426 0.10622 0.060679 0.085177 
-0.29889 0.58352 -0.05589 0.06479 0.087643 0.049006 0.018754 0.061501 
-0.56607 0.69022 -0.038133 0.054596 0.004943 -0.0062372 0.013492 0.0079024 
-0.63331 0.62741 -0.071509 0.0036276 -0.087951 -0.037969 0.025824 0.013657 
-0.51592 0.32292 0.011191 -0.041257 -0.078908 -0.018568 0.038812 0.041278 
-0.19564 -0.23921 0.23282 -0.041915 -0.014622 0.019905 0.047691 0.028454 
0.18481 -0.64893 0.39362 -0.057041 0.039305 0.02681 0.049499 0.00050378 
0.35778 -0.65189 0.28806 -0.00097594 0.1031 0.044073 0.048677 0.025988 
0.2925 -0.69809 -0.0040998 0.056733 0.038319 0.032564 0.036017 0.075312 
0.32029 -0.75415 -0.10653 0.068078 -0.0064016 0.012177 0.024179 0.042265 
0.44294 -0.5978 -0.036489 0.03799 -0.036325 0.0052718 0.016123 0.012177 
0.34051 -0.045203 -0.030077 0.041443 0.0064227 0.0028056 -0.031557 -0.00064712 
0.11362 0.70864 -0.18874 0.062488 0.046868 -0.0072237 -0.09946 0.011848 
-0.11442 1.01 -0.17246 0.12447 0.016945 -0.00064712 -0.096665 0.0052718 
-0.19827 0.66441 0.028125 0.004943 -0.055726 -0.0067304 -0.021034 0.03388 
-0.091732 0.24252 0.1784 -0.1011 -0.080388 -0.018897 0.0044497 0.004943 
-0.051287 0.14239 0.11395 -0.10637 -0.018733 -0.017582 0.084519 -0.0098543 
-0.13021 0.012342 -0.024652 -0.0088678 0.088958 0.058049 0.12957 -0.019226 
-0.11639 -0.027282 -0.15059 0.1008 0.16985 0.11362 0.17314 0.046704 
-0.13004 0.13253 -0.24431 0.20651 0.16952 0.11855 0.20668 0.18728 
-0.10768 0.366 -0.27357 0.24022 0.10178 0.080573 0.25222 0.27738 
0.1664 0.44738 -0.26502 0.19764 0.065283 0.039634 0.20553 0.25469 
0.46218 0.60423 -0.12149 0.069229 0.035688 0.034044 0.13976 0.11822 
0.59174 0.41959 0.08863 -0.040271 0.032729 0.011026 0.028125 -0.049807 
0.26916 -0.10801 0.25436 -0.087951 0.035524 0.010204 -0.087129 -0.18857 
-0.25319 -0.73278 0.22378 -0.026789 0.065612 0.026974 -0.1353 -0.2106 
-0.49027 -1.01 0.11855 0.022864 0.061008 0.040128 -0.14122 -0.063946 
-0.79476 -0.78523 0.067091 0.071695 0.047033 0.026646 -0.1404 0.16558 
-0.72242 -0.28064 0.12233 0.074654 0.030263 0.024673 -0.14763 0.21095 
-0.15339 0.42403 0.15505 0.056569 0.018425 0.020562 -0.081703 0.1641 
0.39296 0.65109 0.079916 0.012999 0.0046141 0.017932 0.04095 0.1008 
0.96134 0.32193 0.034044 -0.012649 -0.019226 -0.0024557 0.099974 0.044238 
0.77111 0.2292 -0.033201 0.022042 0.01152 0.017438 0.12973 -0.025309 
-0.18545 0.50739 -0.054246 0.05476 0.049828 0.05213 0.11362 -0.038298 
-0.66504 0.16919 0.048677 0.051308 0.064296 0.0421 0.068571 -0.1136 
-0.2693 -0.77569 0.24121 -0.0034422 -0.037805 0.0095465 -0.032872 -0.16243 
0.37455 -0.96164 0.26801 -0.031721 -0.11623 -0.050958 -0.091404 -0.18611 
0.80021 -0.38422 0.052459 -0.052766 -0.11261 -0.035832 -0.049971 -0.07266 
0.53649 0.083533 -0.12083 0.00099702 0.016616 0.035524 0.033222 0.11691 
-0.13201 0.85102 -0.44818 0.059857 0.14864 0.08008 0.098659 0.22444 
-0.58464 1.4975 -0.59813 0.17396 0.21934 0.13105 0.16837 0.24005 
-0.63759 1.0679 -0.3201 0.159 0.18317 0.10524 0.14617 0.17643 
-0.44621 0.024508 0.062159 0.088794 0.073175 0.064625 0.07038 0.085341 
-0.1376 -0.84014 0.22493 0.026974 0.020233 0.013328 0.015137 0.05624 
0.11378 -0.77783 0.26636 0.020727 -0.013471 -0.024816 -0.011663 0.07449 
0.42864 -0.4079 0.25058 0.014808 -0.033365 -0.034845 -0.049314 0.024508 
0.66145 -0.63643 0.26225 -0.049807 -0.10735 -0.082854 -0.044874 -0.047669 
0.29217 -0.34213 0.22887 -0.12807 -0.12757 -0.053588 -0.073154 -0.08269 
-0.25993 0.98995 0.064296 -0.10275 -0.07414 -0.020706 -0.067399 -0.077593 
-0.40001 1.7223 -0.14385 -0.014622 0.0021479 0.01152 -0.0062372 -0.021692 
-0.13908 1.2027 -0.20419 0.0592 0.067585 0.050321 0.038483 0.0019835 
0.12398 0.36764 -0.04471 0.063474 0.095206 0.046375 0.041443 -0.039778 
0.42124 -0.29396 0.11888 0.083204 0.10228 0.060515 0.043251 -0.069208 
0.57513 -0.24266 0.17708 0.034209 0.081231 0.038319 0.0227 -0.018239 
0.39016 -0.10554 0.1858 0.010369 0.032236 0.026152 0.011355 0.028947 
0.26981 -0.57757 0.21654 0.010204 0.01267 0.012835 -0.0024557 0.0080668 
0.27491 -1.2481 0.26357 -0.0052507 -0.01117 -0.008539 -0.019555 0.0018191 
0.053281 -1.2508 0.21737 -0.019061 -0.0060728 -0.0070593 0.0036276 -0.01676 
-0.1746 -0.62345 0.068736 -0.0044286 -0.061645 -0.038627 0.029441 -0.021034 
-0.27719 0.20471 -0.032379 0.038977 -0.059507 -0.047505 0.023193 -0.0052507 
-0.37074 0.86121 -0.0503 0.082053 -0.032543 -0.025145 0.043416 0.065283 
-0.35151 0.91859 -0.11639 0.087643 0.026481 0.026152 0.076134 0.13762 
-0.1986 0.48355 -0.10965 0.020891 0.06183 0.066434 0.08978 0.15292 
0.066434 0.11066 -0.04619 -0.021856 0.098659 0.075805 0.073339 0.091753 
0.36008 -0.31566 0.12217 -0.059343 0.086985 0.059364 0.050157 -0.017417 
0.57365 -0.41349 0.049006 -0.065097 0.074983 0.013492 0.017274 -0.053588 
0.66424 -0.061973 -0.076771 0.042923 0.076627 0.034702 0.010862 0.009711 
0.50673 0.24466 -0.15306 0.12497 0.033387 0.036346 0.045389 0.065283 
0.2468 0.25058 -0.067564 0.08008 0.0090533 0.027796 0.052623 0.064132 
0.015301 0.19007 0.096193 0.013164 0.011191 0.010697 0.04654 0.024673 
-0.18775 0.22953 0.14585 0.025166 0.050157 0.026974 0.07597 -0.024323 
-0.37107 0.25962 0.14798 0.075312 0.0036276 0.055582 0.084026 0.0095465 
-0.42286 0.11214 0.22049 0.039305 -0.023665 0.015465 0.069393 0.0786 
-0.27785 0.0092177 0.34923 0.035853 -0.056712 -0.0090322 0.05213 0.14733 
-0.12198 0.10655 0.2468 0.017932 -0.059014 -0.028762 0.032729 0.14026 
-0.059343 0.15275 0.085341 0.0083956 -0.020212 -0.01117 0.027139 0.19813 
-0.121 0.22328 -0.022843 -0.02794 0.017274 0.029276 0.023522 0.10441 
-0.08269 -0.0021268 -0.069372 -0.012156 0.08419 0.046868 0.028125 0.08156 
0.14469 -0.16999 -0.13744 0.10293 0.20306 0.099152 0.064461 0.027139 
0.062652 -0.026296 -0.16999 0.2052 0.24844 0.11329 0.073504 -0.052602 
-0.43388 0.24482 -0.18183 0.14223 0.18415 0.10951 0.077449 -0.061973 
-0.72177 0.36353 -0.076277 0.092247 0.12973 0.090931 0.068571 0.028619 
-0.015773 -0.047669 0.085341 0.070051 0.065776 0.048677 0.083368 0.083862 
0.56247 -0.52184 0.056898 0.031249 -0.017582 -0.0070593 0.053774 0.12381 
0.40858 -0.047505 -0.030242 -0.029748 -0.11491 -0.035667 0.0013258 0.1128 
-0.14319 0.52301 0.026646 -0.10341 -0.20682 -0.079237 -0.059178 0.033551 
0.22772 0.013164 0.37405 -0.12034 -0.1912 -0.10012 -0.066084 -0.04471 
1.5376 -0.96493 0.52433 -0.1113 -0.11442 -0.084169 -0.051122 -0.16638 
1.866 -1.2693 0.2754 -0.039449 0.053116 0.020069 0.022535 -0.20682 
0.76799 -0.70516 0.00083261 0.11165 0.26866 0.13384 0.098823 -0.072332 
-0.36926 0.21375 -0.10143 0.23923 0.35202 0.21556 0.12431 0.019411 
-1.2135 0.78739 -0.028104 0.17741 0.23463 0.16673 0.10556 0.045224 
-1.9128 1.0381 0.022864 0.06183 0.075312 0.068242 0.073504 0.21145 
-1.6665 0.96792 0.065118 -0.0062372 -0.014787 0.0072447 0.032071 0.29776 
-0.61292 0.38079 0.067091 0.0054362 -0.027775 -0.0067304 0.025988 0.21589 
-0.16111 -0.35414 0.03092 0.041936 0.012013 0.013328 0.010369 0.092411 
-0.33917 -0.70138 -0.024323 0.086163 0.046046 0.013328 -0.0047575 0.028947 
-0.44341 -0.68855 -0.027118 0.084848 0.024673 -0.0021268 -0.0078813 -0.017088 
-0.1838 0.17922 -0.27949 0.11526 -0.020377 0.00033937 -0.010019 -0.020377 
0.68496 1.3717 -0.63134 0.09685 -0.0067304 0.0037921 0.012999 0.0092177 
1.1927 1.6433 -0.6338 0.08419 0.03536 0.026646 0.062981 0.086328 
1.0654 1.178 -0.28015 0.03536 0.035853 0.0044497 0.038977 0.029112 
0.73478 0.33443 0.12858 -0.0026201 -0.0054151 0.0051074 0.019411 -0.023007 
0.17149 -0.34986 0.29875 -0.034188 0.0052718 0.017438 1.0539e-005 -0.033694 
-0.095021 -0.76353 0.51364 -0.083183 0.037168 0.038648 -0.006566 -0.031721 
0.093562 -1.7152 0.80794 -0.1353 0.007738 0.0023123 -0.049642 -0.062796 
0.26422 -2.4632 0.81386 -0.090417 0.00050378 -0.019719 -0.027447 -0.081539 
0.20076 -1.7822 0.54998 -0.028926 -0.021856 -0.044546 -0.0036066 -0.031721 
-0.22507 -0.24825 0.18054 0.028947 -0.032543 -0.014951 0.011684 0.051308 
-0.65682 0.96973 -0.081539 0.035524 -0.02235 0.017932 0.045224 0.078107 
-0.75662 1.2093 -0.18331 0.040621 0.010369 0.038977 0.053609 0.044731 
-0.56179 0.67378 -0.23099 0.028783 0.038977 0.043745 0.051472 0.10672 
-0.43223 0.37109 -0.33868 0.10113 0.074983 0.041772 0.075805 0.14141 
-0.32586 0.60703 -0.43125 0.14979 0.099645 0.0421 0.0592 0.1248 
-0.17525 0.95312 -0.47778 0.1174 0.012835 -0.00031829 -0.029091 -0.062796 
0.29546 0.57612 -0.31402 0.0013258 -0.087786 -0.075784 -0.090253 -0.15273 
1.2175 -0.39261 -0.058192 -0.057041 -0.082525 -0.062302 -0.071181 -0.13053 
1.3505 -0.87615 0.1955 -0.075949 -0.047012 -0.034023 -0.0027845 -0.049314 
0.53205 -0.57922 0.21457 -0.010183 0.00297 0.011848 0.068736 -0.0050863 
-0.015773 -0.090088 0.30681 0.016781 0.027632 0.049335 0.055582 0.011191 
-0.087951 0.01415 0.37882 0.014972 0.02533 0.041936 0.048348 0.030592 
-0.06855 0.04506 0.33492 0.017603 0.080902 0.069886 0.029934 0.074326 
0.076956 0.092576 0.21819 -0.011663 0.15193 0.10228 0.024508 0.068242 
0.29908 0.24597 -0.013143 0.011026 0.14552 0.097672 0.013986 0.054103 
0.15094 0.14831 -0.15733 0.069558 0.10606 0.066598 0.019905 0.033058 
-0.34641 0.14848 -0.13119 0.10326 0.014808 0.020069 0.018425 0.10145 
-0.56475 0.23216 -0.12396 0.052623 -0.024158 0.0046141 0.03536 0.16278 
-0.35003 0.17873 -0.145 0.040621 -0.029913 -0.0088678 0.012342 0.1322 
-0.035832 0.01152 -0.13382 0.046375 -0.03057 -0.00097594 -0.013471 0.028947 
0.13368 -0.13892 -0.091732 0.079422 -0.018733 -0.0013048 0.026317 0.0028056 
0.097179 -0.24135 0.01267 0.064461 0.010862 0.011355 0.074161 0.076134 
0.12727 -0.095021 0.15587 0.043745 0.039141 0.0090533 0.088136 0.065612 
0.25781 0.048019 0.20076 -0.025638 0.032071 -0.0077169 0.034866 0.035195 
0.46596 -0.1889 0.25962 -0.013307 -0.0073881 0.0021479 0.010204 -0.017417 
0.51824 -0.0034422 0.20191 -0.037969 -0.0064016 -0.0024557 0.016616 -0.060494 
0.082546 0.53567 0.045718 0.034044 0.028619 0.0019835 0.053938 -0.073647 
-0.39442 0.7504 -0.12149 0.066434 0.056898 0.0095465 0.067913 -0.018733 
-0.48139 0.50591 -0.052109 0.020891 0.068078 0.039963 0.037497 0.037497 
-0.44588 0.40398 0.0031344 -0.032708 0.046375 0.06331 0.037332 0.14009 
-0.30794 0.32325 -0.013143 -0.0049219 0.049335 0.079258 0.058377 0.15341 
-0.024158 0.061995 -0.11426 0.10984 0.085177 0.070051 0.08715 0.1562 
0.50394 -0.52874 -0.1473 0.1664 0.11592 0.061666 0.079587 0.069722 
0.9814 -1.3408 0.1562 0.088794 0.065776 0.041443 0.0046141 -0.001798 
0.9763 -1.3146 0.48832 -0.018404 -0.0078813 -0.0039354 -0.062467 -0.076442 
0.57086 -0.28558 0.47566 0.0011614 -0.01232 -0.016266 -0.061973 -0.080881 
0.13615 0.59634 0.12809 0.037826 0.032236 0.0052718 -0.011663 -0.016924 
-0.023994 0.68184 -0.11228 0.047362 0.051965 0.011848 0.028454 0.072846 
-0.060823 0.65816 -0.20847 0.013492 0.011355 0.032071 0.046704 0.11263 
-0.31172 1.2214 -0.30843 0.029934 -0.017253 0.013821 0.028454 0.1294 
-0.51099 1.5596 -0.41168 0.012506 -0.0098543 -0.0075525 0.022042 0.09126 
-0.36367 1.1456 -0.37551 0.028454 0.032893 0.0095465 0.004943 0.020398 
0.28987 0.2052 -0.25088 0.031742 0.015794 -0.0052507 -0.0049219 -0.081374 
0.69203 -0.5414 -0.0072237 0.075641 0.029112 0.029769 0.0072447 -0.23675 
0.15555 -0.61062 0.1026 0.10491 0.079751 0.057555 0.079916 -0.1917 
-0.41185 -0.2499 -0.018897 0.11444 0.093069 0.049664 0.10721 -0.0060728 
-0.69118 -0.12198 0.1174 -0.0050863 0.0037921 -0.0022913 0.1026 0.16262 
-0.62049 -0.27867 0.33953 -0.11426 -0.041422 0.0062583 0.066269 0.19468 
-0.20699 -0.16506 0.35268 -0.11541 -0.0019624 0.039305 0.050486 0.18843 
0.095699 0.25798 0.10458 0.033715 0.11806 0.077614 0.057555 0.13023 
0.076463 0.52646 -0.059343 0.18202 0.15916 0.12217 0.060844 0.098823 
-0.10373 0.42962 -0.10686 0.1955 0.054596 0.060515 0.039634 0.086657 
-0.2425 0.28626 0.0036276 0.092247 -0.017088 0.033222 0.021878 0.082217 
-0.23527 0.32111 0.048513 -0.021692 -0.0138 0.017438 -0.0068948 0.030592 
-0.050958 0.40841 -0.15158 -0.05178 0.025001 0.018425 -0.026789 0.0092177 
0.38408 0.48799 -0.41102 0.034373 0.087808 0.021384 0.0079024 0.015301 
0.54274 0.76174 -0.58941 0.10441 0.10622 0.047526 0.050157 0.063968 
0.33459 0.96463 -0.60273 0.14141 0.097672 0.050979 0.09126 0.064625 
-0.22293 0.88571 -0.31353 0.10063 0.050486 0.038648 0.11198 0.16081 
-0.75021 0.48816 0.10178 0.060022 0.041278 0.047033 0.097179 0.21441 
-0.56837 -0.82913 0.49095 0.01267 0.027139 0.023028 0.051965 0.13351 
0.16574 -2.526 0.83112 -0.02498 -0.035832 0.01826 -0.026953 -0.093705 
0.7601 -2.6854 0.8012 -0.065591 -0.073647 -0.013636 -0.12034 -0.29561 
0.55326 -1.5387 0.44557 -0.060823 -0.089266 -0.045532 -0.11623 -0.34016 
0.27475 0.074161 0.13368 -0.053095 -0.083347 -0.056548 -0.10028 -0.30892 
0.5143 1.2716 0.028947 -0.075291 -0.084005 -0.047176 -0.082032 -0.19827 
0.24301 2.1445 -0.1912 -0.0039354 0.024673 -0.00064712 0.0067515 -0.041093 
-0.40987 1.961 -0.3617 0.061501 0.12069 0.076299 0.06479 0.097508 
-0.59615 0.28872 0.010697 0.069722 0.13598 0.053609 0.06594 0.159 
-0.024816 -2.3373 0.63202 -0.051287 0.020891 0.021878 0.090767 0.16919 
0.53452 -4.2276 0.9592 -0.13711 -0.074304 -0.033859 0.10408 0.09685 
0.60357 -3.2118 0.57924 -0.14352 -0.10949 -0.03616 0.065447 0.004943 
0.10688 0.23726 -0.11935 -0.0072237 -0.031557 -0.013636 0.0083956 -0.035996 
-0.39212 2.312 -0.52365 0.10688 0.053609 0.02829 -0.0050863 0.0037921 
-0.56426 2.4125 -0.5756 0.17297 0.087643 0.04358 -0.0050863 0.051801 
-0.47942 1.793 -0.51543 0.13746 0.10606 0.05624 0.0036276 0.10984 
-0.28278 0.92747 -0.23905 0.087643 0.091753 0.069229 0.0062583 0.077614 
-0.14451 -0.0021268 0.06331 0.031578 0.10819 0.076627 -0.015773 0.058871 
0.030756 -0.47087 0.23463 0.038648 0.079751 0.066269 0.039799 0.045389 
0.24893 -0.5225 0.24055 0.048513 0.071531 0.032729 0.1465 0.062652 
0.31585 -0.44506 0.16294 0.066269 0.065447 0.034537 0.17955 0.035688 
0.11576 -0.46528 0.10589 0.079422 0.024344 0.031907 0.16985 0.069393 
-0.11935 -0.51 0.068242 0.10507 -0.0047575 0.010862 0.1562 0.080244 
-0.097322 -0.57396 0.10228 0.043416 -0.040106 -0.008539 0.045553 0.051143 
0.034537 -0.6514 0.15407 -0.0082102 -0.055232 -0.039778 -0.050793 0.0324 
0.096686 -0.74692 0.29612 -0.093705 -0.069536 -0.034188 -0.084169 -0.010512 
0.25452 -0.89095 0.45593 -0.15552 -0.05885 -0.049971 -0.11113 -0.072167 
0.94638 -0.80479 0.40891 -0.13547 -0.0098543 -0.011663 -0.090581 -0.11163 
1.2058 0.15933 0.15703 0.016452 0.15735 0.060022 -0.017746 -0.11919 
0.58779 0.92895 0.023028 0.10392 0.20832 0.11313 0.0227 -0.084005 
-0.21323 0.84773 0.11609 0.024508 0.096357 0.071531 0.013657 -0.037311 
-0.57692 0.64468 0.21457 -0.029255 -0.089102 -0.038133 -0.0068948 -0.057534 
-0.34805 0.24499 0.17034 0.029605 -0.15454 -0.075949 -0.020706 -0.0036066 
-0.0138 -0.3252 0.11872 0.051801 -0.082361 -0.061809 -0.011992 0.059035 
0.081395 -0.52989 0.11214 -0.04323 -0.023665 -0.0406 0.004943 0.11148 
0.0036276 -0.5511 0.079422 -0.039284 0.040785 0.0031344 -0.0059084 0.093398 
-0.088115 -0.35118 -0.028433 0.074326 0.12201 0.072353 0.068736 0.11642 
-0.3326 0.33772 -0.26042 0.21424 0.20191 0.13483 0.16492 0.12102 
-0.5687 0.94572 -0.42483 0.2103 0.20076 0.14256 0.18366 0.13434 
-0.26502 1.0549 -0.40593 0.15587 0.14979 0.091096 0.15571 0.14239 
0.026317 0.8913 -0.24497 0.10655 0.065776 0.049828 0.099152 0.14765 
0.13319 0.70239 -0.031392 0.034044 -0.011663 0.0046141 0.034373 0.10803 
0.20339 0.84214 0.028947 -0.021528 -0.044874 -0.013143 0.012506 0.070215 
0.024837 1.1674 -0.1039 -0.0138 -0.014622 -0.008539 0.0098754 0.11346 
-0.19153 0.68677 -0.1136 0.019411 -0.024158 -0.018404 0.011848 0.12908 
-0.24661 -0.42089 0.067256 -0.019061 -0.056877 -0.021363 -0.025802 0.094384 
-0.14829 -0.5705 0.043251 -0.010348 -0.018897 0.0021479 0.029441 0.08863 
0.1225 0.037826 -0.092883 0.069886 0.068736 0.054596 0.063639 0.040785 
0.35827 0.55293 -0.18594 0.12497 0.13088 0.091589 0.08419 -0.010512 
0.512 0.26965 -0.078579 0.095864 0.086985 0.072188 0.037168 -0.029748 
0.47796 -0.41727 0.052623 0.05624 -0.014293 1.0539e-005 -0.019719 -0.079895 
0.26833 -0.84113 0.20388 -0.026131 -0.064933 -0.051615 -0.047341 -0.12741 
-0.0077169 -0.98368 0.36386 -0.070687 -0.036325 -0.016266 -0.032543 -0.16901 
-0.34822 -0.27111 0.28593 -0.064111 0.085835 0.046211 0.0227 -0.055397 
-0.76155 0.92369 0.01826 0.025001 0.15259 0.10178 0.08008 0.09126 
-0.57708 1.6223 -0.30087 0.093069 0.16656 0.10425 0.098823 0.19155 
-0.09239 1.6828 -0.51559 0.14486 0.10145 0.089287 0.066105 0.21293 
-0.10028 1.5952 -0.5128 0.13056 0.077285 0.042265 0.046046 0.19895 
-0.50507 1.1511 -0.29429 0.12694 0.06331 0.033387 0.067256 0.17396 
-0.25023 0.43604 -0.092719 0.11033 0.018425 0.028125 0.057062 0.19172 
0.49177 -0.16703 0.064954 0.09274 -0.050136 -0.0059084 0.038648 0.15078 
0.87141 -0.65386 0.11444 -0.010841 -0.079895 -0.033694 0.00297 0.07449 
0.9403 -1.0716 0.18942 -0.062138 -0.066906 -0.02235 -0.010348 -0.083018 
1.0574 -1.2694 0.23693 -0.092554 0.0021479 0.019247 -0.04619 -0.17443 
1.1151 -0.93238 0.080409 -0.041257 0.0592 0.048184 -0.041915 -0.17493 
0.42601 -0.16572 -0.063453 -0.018568 0.057227 0.032729 -0.0077169 -0.1284 
-0.73212 0.4413 -0.099953 0.047033 0.055582 0.045553 0.087314 -0.052602 
-1.6833 0.55803 -0.035174 0.11214 0.060844 0.068736 0.13762 0.11444 
-1.846 0.061337 0.15916 0.09981 0.013328 0.044402 0.13236 0.17807 
-1.2811 -0.26979 0.29694 0.033058 -0.055726 0.022042 0.11888 0.18448 
-0.5784 -0.058028 0.23315 0.013492 -0.065591 -0.023665 0.093398 0.18432 
-0.17312 0.14321 0.22592 -0.070687 -0.052273 -0.036983 0.0016547 0.065283 
0.36961 -0.206 0.23052 -0.099624 -0.056712 -0.049314 -0.070687 -0.10784 
1.2131 -0.28936 0.19172 -0.0771 0.0052718 -0.022021 -0.14106 -0.23527 
1.7124 -0.22409 0.11625 0.017274 0.047362 0.00033937 -0.15026 -0.20403 
1.766 -0.35414 0.0041209 0.08567 0.086328 0.040456 0.017603 -0.076935 
1.2111 -0.5197 -0.0049219 0.11214 0.086163 0.062652 0.16919 0.031085 
0.26242 -0.27242 -0.042901 0.068736 0.034044 0.064461 0.16426 0.048513 
-0.64614 0.069064 -0.06296 0.032236 -0.028597 0.029112 0.041607 0.00033937 
-1.1846 0.10195 -0.052273 -0.0075525 -0.071181 -0.02087 -0.092883 -0.06148 
-0.96066 0.039634 -0.015773 -0.033037 -0.054575 -0.026131 -0.19285 -0.019061 
-0.050136 0.085835 -0.109 -0.003771 -0.018733 -0.0054151 -0.21389 0.01004 
0.70124 0.049992 -0.11278 0.028947 0.041936 0.027632 -0.089266 0.060515 
0.6848 -0.44999 0.063145 -0.017088 0.05065 0.034537 0.045224 0.022042 
0.29119 -0.77438 0.2759 -0.063124 0.035688 0.0087245 0.14552 0.035524 
-0.011992 -0.31073 0.27524 -0.020706 0.051965 0.021549 0.17297 0.045553 
-0.069865 -0.11672 0.2269 0.069886 0.091425 0.037332 0.10918 -0.0013048 
-0.12774 -0.30333 0.17363 0.12612 0.083204 0.069558 0.0065871 -0.062302 
-0.44884 0.055582 -0.013636 0.13368 0.10293 0.060186 0.053281 0.030592 
-0.5322 0.43735 -0.046519 0.098988 0.069722 0.029605 0.10688 0.13236 
0.030756 0.35514 0.11132 -0.028269 -0.037311 -0.010348 0.10244 0.065118 
0.37718 0.42847 0.17084 -0.056219 -0.072825 -0.026953 0.070544 0.047362 
0.28921 0.49112 -0.030735 -0.014129 -0.010348 0.01711 0.061172 0.039141 
0.15324 0.4658 -0.060494 0.025824 0.053774 0.023028 -0.0083746 0.015301 
-0.0022913 0.39921 -0.20288 0.067913 0.074326 0.037497 -0.03912 0.020233 
-0.16309 0.089616 -0.27933 0.1271 -0.003771 0.009711 -0.061645 0.07449 
-0.092883 -0.3104 -0.20386 0.11855 -0.084005 -0.040764 -0.097487 0.045553 
0.14272 -0.87138 0.21819 0.016945 -0.091239 -0.037147 -0.12149 -0.0078813 
0.25699 -1.4725 0.72097 -0.14385 -0.023007 -0.021363 -0.090088 -0.06148 
-0.00081153 -1.157 0.74185 -0.18397 0.081395 0.032236 0.0039565 -0.060823 
-0.06444 0.032564 0.30122 -0.038462 0.24712 0.12085 0.11888 0.024344 
-0.15207 0.89064 -0.14533 0.12332 0.30631 0.15555 0.15719 0.11395 
-0.39228 0.73839 -0.20995 0.18284 0.20273 0.12053 0.14091 0.12036 
-0.23148 0.08863 -0.16638 0.20092 0.10277 0.070215 0.13006 0.1299 
0.10606 0.18794 -0.12116 0.12809 0.013657 0.030263 0.14469 0.12957 
0.25913 1.0136 -0.16062 0.087643 -0.045039 -0.0138 0.15094 0.12414 
0.10836 1.2446 -0.21882 0.044567 -0.053424 0.011684 0.035031 0.095864 
0.071037 1.0355 -0.20057 -0.074633 -0.085978 -0.048163 -0.11853 -0.049642 
0.24712 0.21835 0.014643 -0.15651 -0.12823 -0.080717 -0.20468 -0.19729 
0.18333 -0.32915 0.048184 -0.11113 -0.067564 -0.053588 -0.13119 -0.15405 
-0.10505 -0.36647 -0.024487 0.015301 -0.016102 -0.038133 -0.02235 -0.049642 
-0.3012 -0.71256 0.11231 0.061337 0.046211 0.037168 0.065447 0.011848 
0.27064 -0.98351 0.24647 0.074819 0.091589 0.042758 0.10902 -0.0098543 
0.79808 -1.2296 0.43045 0.020398 0.049992 0.040292 0.094384 -0.00015387 
0.63629 -0.98696 0.41861 0.0054362 0.022535 0.038648 0.068078 0.052294 
0.043087 0.50262 0.11148 0.031249 0.024179 0.034866 0.050979 0.077943 
-0.37222 1.585 -0.12692 0.067256 0.064132 0.055582 0.066927 0.11115 
-0.54321 1.292 -0.15848 0.079422 0.059364 0.02681 0.078929 0.15045 
-0.4763 0.35909 -0.031721 0.081067 0.047526 0.029276 0.073339 0.13713 
-0.31862 -0.13366 0.0072447 0.031578 0.017438 0.021056 0.045224 0.10195 
-0.34904 0.35958 -0.029913 0.017603 0.061337 0.048513 0.034866 0.1179 
-0.47893 1.2565 -0.157 0.055418 0.097672 0.089945 0.08978 0.17281 
-0.47909 1.4077 -0.23329 0.1202 0.094384 0.094713 0.16212 0.23298 
-0.11524 0.47139 -0.20501 0.076463 0.060844 0.041772 0.14404 0.14683 
0.26422 -0.51641 0.052294 -0.034188 -0.0096899 0.0023123 0.083204 -0.0049219 
0.50608 -0.8043 0.2953 -0.09798 -0.032379 -0.011663 0.0054362 -0.15552 
0.79791 -0.62016 0.24959 -0.049642 -0.060329 -0.019719 -0.038956 -0.16161 
0.79577 -0.24809 0.00033937 -0.0055795 -0.026624 -0.013965 -0.037476 -0.069372 
0.90675 -0.28081 -0.11097 0.017274 -0.054575 -0.046519 -0.051122 0.00083261 
0.84691 -0.41267 -0.0021268 -0.010019 -0.035996 -0.0067304 -0.017582 -0.0057439 
0.46908 -0.07003 0.05065 -0.014293 0.0016547 0.034702 0.015301 -0.03616 
0.33525 0.26784 0.17955 -0.021528 0.015959 0.018589 -0.07266 -0.19646 
-0.29314 0.024508 0.20651 0.019247 0.044731 0.015301 -0.13415 -0.3201 
-1.7868 0.043251 0.025166 0.10935 0.091918 0.051143 -0.021528 -0.11837 
-1.8799 -0.080223 -0.1136 0.14617 0.11674 0.074819 0.14174 0.19665 
-0.56541 -0.22244 -0.05737 0.086821 0.064954 0.077285 0.15768 0.29234 
0.60522 0.050814 0.0090533 0.034866 0.01152 0.023193 0.060844 0.1756 
1.0585 0.086163 0.075641 0.0065871 -0.031557 -0.017088 -0.07414 0.055418 
1.0557 0.052623 0.14897 -0.022514 -0.039613 -0.06296 -0.13843 -0.021034 
0.74283 0.25814 0.10606 -0.0042642 -0.025638 -0.047176 -0.0771 -0.031886 
0.16114 0.43932 0.010697 0.031249 -0.036818 -0.014129 0.048019 -0.02794 
-0.41217 0.50953 -0.1404 0.083533 0.00050378 0.038319 0.18909 -0.0014692 
-0.65255 0.38211 -0.19515 0.0421 0.037168 0.048841 0.25239 0.067256 
-0.4347 0.1419 -0.1792 0.0075736 0.049499 0.038155 0.16738 0.13467 
-0.085978 0.063474 -0.14023 0.075641 0.069886 0.058871 0.033058 0.065447 
0.19813 -0.059836 -0.059836 0.066927 0.022206 0.0227 -0.041751 0.0036276 
0.11296 -0.11475 -0.0090322 0.013492 -0.0047575 -0.046354 -0.012485 -0.043395 
0.061337 -0.17147 0.065283 0.0042853 0.01711 -0.019061 0.0087245 0.052294 
0.20191 -0.19466 0.16064 0.040128 0.068736 0.020562 0.054432 0.07301 
0.19714 -0.035667 0.12842 0.085506 0.06742 0.048184 0.03651 0.074819 
