-0.21734 0.19829 0.01826 -0.022021 -0.017746 0.20454 0.1077 0.093069 
-0.13547 0.1174 0.065776 -0.0024557 0.0065871 0.22937 0.080738 0.050157 
-0.017417 -0.028433 0.062817 0.077285 0.068736 0.1858 0.07301 0.03947 
0.041114 -0.011827 0.030592 0.090767 0.088794 -0.01117 0.057555 0.054103 
0.026481 0.061337 0.0087245 0.06331 0.06183 -0.13678 0.031249 0.089123 
-0.0050863 0.094713 0.0098754 0.031578 0.015794 -0.10637 0.025495 0.063474 
0.01826 0.091589 0.034044 0.0060938 0.007738 -0.026789 -0.0095255 0.047526 
0.014643 0.064461 0.06035 0.0080668 -0.012978 -0.034681 -0.012814 0.037497 
0.041936 0.03799 0.041936 0.041607 -0.00015387 -0.052602 -0.0075525 0.02829 
0.047855 0.079258 -0.049478 0.075312 0.057062 -0.076442 -0.017088 0.026152 
0.015959 0.15472 -0.084005 0.13351 0.098823 -0.024323 0.017603 0.03388 
-0.039942 0.19796 -0.084498 0.087643 0.085506 0.031742 0.037661 0.045882 
-0.047998 0.1807 -0.025309 0.038812 0.019083 0.05772 0.018754 0.02533 
0.023028 0.11905 -0.0095255 0.024015 -0.0026201 0.025495 -0.0080457 -0.010348 
0.13549 0.015959 0.0075736 0.0069159 0.017932 -0.02646 -0.02498 -0.0406 
0.20799 -0.075455 0.086163 -0.0082102 0.077614 -0.043559 -0.021856 -0.076113 
0.14124 -0.090417 0.059528 0.011191 0.073668 -0.018733 0.024673 -0.056877 
0.023028 -0.028433 0.021056 0.029934 0.028947 0.036017 0.071366 0.025001 
-0.064275 -0.019226 0.047197 0.048019 -0.020377 0.035524 0.090767 0.085999 
-0.04471 -0.03616 0.11033 -0.0024557 -0.048985 0.081067 0.068736 0.077943 
0.00297 -0.01232 0.14831 0.032564 -0.041751 0.10063 0.026646 0.088794 
0.018589 0.01974 0.1077 0.025659 -0.012814 0.081067 0.036017 0.044073 
-0.036983 0.086985 0.029441 0.052623 0.016288 0.078765 0.072024 0.085506 
-0.02942 0.13993 0.0016547 0.067585 0.080902 0.079587 0.080902 0.068736 
0.041278 0.1197 -0.0087034 0.050979 0.077449 0.031414 0.042923 0.042923 
0.06742 0.051965 -0.030735 0.034866 0.054432 -0.10324 0.017274 0.010862 
0.010204 0.0689 -0.050793 0.03651 0.043251 -0.1011 0.01974 0.025495 
0.045882 0.11526 -0.021199 0.028619 0.03536 -0.11261 0.022864 0.017438 
0.049992 0.17774 0.0069159 0.023357 0.034866 -0.1381 0.011355 0.013821 
-0.057699 0.20273 -0.02235 0.044073 0.036346 -0.1404 0.027796 0.04654 
-0.05441 0.15028 -0.019884 0.069722 0.037168 -0.027611 0.023522 0.040621 
0.064954 0.041114 -0.028926 0.0592 0.061337 0.10819 0.016616 0.009711 
0.18333 -0.11656 0.017274 0.012999 0.024673 0.18152 0.030427 -0.04323 
0.28017 -0.21554 0.16607 -0.0138 -0.016924 0.19599 0.0082312 -0.063124 
0.17199 -0.11607 0.27507 -0.063946 -0.07266 0.15735 0.016123 -0.03501 
-0.034352 -0.017088 0.14568 -0.030242 -0.029255 0.11855 0.023028 0.029441 
-0.13284 0.0046141 0.041114 0.031742 0.017932 0.099481 0.019576 0.059528 
-0.11607 0.092247 -0.035667 0.068242 0.040128 0.015301 0.01415 0.085177 
-0.063124 0.2098 -0.046354 0.027796 0.043087 -0.10982 -0.020706 0.043745 
-0.046683 0.26587 -0.044052 0.022206 0.041278 -0.19959 -0.01676 0.047033 
-0.054575 0.20898 -0.028926 0.032236 0.062159 -0.23872 -0.024487 0.022206 
0.013164 0.072846 0.020727 0.076792 0.061008 -0.25269 -0.026296 0.024015 
0.069393 -0.038791 0.044238 0.093726 0.08715 -0.2254 0.030098 0.024344 
0.032893 -0.10357 0.098988 0.058542 0.05624 -0.15996 0.03799 0.042265 
0.045389 -0.13645 0.12579 0.016123 0.028947 -0.084827 0.019576 0.016781 
0.11477 -0.16555 0.16031 -0.0070593 -0.017088 -0.012978 0.0014903 0.0018191 
0.18629 -0.09387 0.14108 -0.021199 -0.031064 0.030098 -0.00064712 -0.02942 
0.10704 0.052459 0.10672 0.011355 -0.014622 0.036346 0.028947 0.010862 
0.02829 0.1197 -0.0096899 0.012342 -0.041586 0.08304 0.036017 0.030098 
0.077943 0.085341 -0.04619 0.032893 -0.012814 0.1197 0.032893 0.035031 
0.10113 0.029441 -0.029255 0.037004 0.065612 0.16706 0.021549 0.048841 
0.026317 0.089287 -0.018568 0.072188 0.14354 0.18695 0.048677 0.085012 
-0.089759 0.16574 -0.039449 0.10376 0.13483 0.079258 0.043745 0.087314 
-0.10867 0.13335 -0.031392 0.08715 0.080738 -0.16753 0.034209 0.066598 
-0.039778 0.028454 0.073339 0.031249 -0.0055795 -0.31731 -0.01676 0.024673 
0.011355 0.046704 0.09422 0.0067515 -0.054575 -0.25352 -0.034681 -0.0021268 
-0.0052507 0.13203 0.093562 0.021384 -0.030406 -0.15289 -0.045368 -0.019061 
0.028125 0.061666 0.068242 -0.023829 -0.041586 0.062817 -0.026789 -0.022679 
0.14996 -0.28689 0.21654 -0.069536 -0.025474 0.29448 -0.020706 -0.030077 
0.26784 -0.42697 0.23052 -0.044217 -0.01232 0.40644 0.034866 -0.042901 
0.25222 -0.035996 0.035688 0.061337 0.0092177 0.40546 0.10984 -0.0062372 
0.079916 0.24959 -0.12642 0.067256 0.043087 0.3826 0.17182 0.035524 
-0.145 0.3415 -0.206 0.093726 0.13384 0.29826 0.1756 0.13253 
-0.25187 0.3586 -0.17377 0.11165 0.19254 0.16755 0.12809 0.14469 
-0.18495 0.22723 -0.067235 0.1299 0.17643 0.051965 0.066105 0.11592 
-0.033859 0.1031 0.064954 0.067091 0.10721 -0.029913 0.047197 0.060679 
0.11444 -0.03616 0.10556 0.012835 0.010533 -0.10423 0.0026412 0.030263 
0.17314 -0.047505 0.11066 -0.016266 -0.023007 -0.16079 -0.030899 -0.011005 
0.1299 -0.036818 0.1151 -0.013143 -0.039613 -0.19614 -0.039778 -0.0026201 
0.021713 -0.056877 0.13878 -0.018733 -0.033365 -0.13514 -0.038133 0.00297 
0.0019835 -0.0406 0.092576 -0.014129 -0.040271 -0.0068948 0.0046141 0.0087245 
0.060186 -0.0072237 0.054103 0.00297 -0.0091966 0.073504 0.029441 0.0031344 
0.083862 0.0028056 0.029605 0.038977 -0.0027845 0.084848 0.027796 0.0039565 
0.063968 -0.010183 -0.018404 0.03799 0.026974 0.11839 0.039141 0.038319 
0.0082312 0.0227 -0.047012 0.069886 0.088301 0.18794 0.062652 0.048841 
-0.074798 0.090109 -0.047669 0.078272 0.095371 0.1978 0.080738 0.067256 
-0.0031133 0.067585 0.036017 0.053609 0.091918 0.15242 0.061995 0.036839 
0.088958 0.020727 0.11 0.00033937 0.056076 0.050814 0.058706 0.01267 
0.12431 0.055911 0.11576 0.0036276 0.031907 -0.016431 0.032893 0.024015 
0.065447 0.11921 0.034044 0.042758 0.0018191 -0.1016 0.017438 0.046375 
0.0018191 0.14404 -0.02087 0.052294 -0.010183 -0.28327 0.011191 0.03651 
0.053609 0.12908 -0.021363 0.047855 -0.017253 -0.44884 -0.019719 0.017767 
0.17758 0.047526 0.031578 -0.0044286 -0.021856 -0.39113 -0.048163 -0.037147 
0.16064 0.058706 0.038977 0.0054362 -0.052273 -0.15865 -0.024323 -0.025309 
0.012506 0.063639 -0.0052507 0.0088889 -0.021199 0.041936 -0.012485 -0.0042642 
-0.18331 0.15292 -0.071345 0.017932 0.015794 0.25074 -0.0072237 0.055089 
-0.35545 0.30878 -0.11064 0.03388 0.024179 0.4607 0.0070803 0.098494 
-0.28821 0.35547 -0.066741 0.046704 -0.010512 0.51742 0.01711 0.079587 
-0.1039 0.22526 -0.028926 0.013164 -0.015938 0.4408 0.054925 0.041936 
0.013328 0.020398 0.051143 0.021713 0.05772 0.3341 0.12579 0.04358 
0.11132 -0.066413 0.060844 0.023851 0.14749 0.24532 0.12431 0.014808 
0.14239 -0.066741 0.042758 0.029769 0.13664 0.17149 0.10359 0.01267 
0.024344 -0.13629 0.064461 -0.0031133 0.13203 0.15012 0.09274 0.053938 
-0.0098543 -0.24431 0.1442 0.045882 0.087314 0.083862 0.067256 0.037332 
0.20191 -0.33408 0.18794 0.048184 0.044402 -0.15043 0.0070803 -0.014622 
0.40266 -0.28673 0.18103 0.019905 -0.027611 -0.40823 -0.0052507 -0.074633 
0.32966 -0.06444 0.088136 0.00297 0.010697 -0.41365 -0.0049219 -0.03353 
0.15226 0.1904 -0.034023 -0.02794 0.024015 -0.25664 -0.02942 0.011191 
-0.020212 0.27212 -0.076442 0.0039565 0.0075736 -0.13399 -0.012814 0.063474 
-0.099624 0.27294 -0.053753 0.036346 -0.011663 -0.023829 0.013164 0.066763 
-0.066906 0.22871 -0.023172 0.013328 -0.039613 0.036017 -0.011663 0.024837 
0.0056006 0.07301 0.058049 -0.019555 -0.045039 0.054267 -0.022021 -0.037476 
0.066269 -0.10982 0.14223 -0.066741 -0.083676 0.0056006 -0.02235 -0.056055 
0.062981 -0.20781 0.16146 -0.042244 -0.040764 0.0026412 0.02829 -0.023829 
-0.0064016 -0.13218 0.089945 0.0065871 0.083368 0.038977 0.054596 0.048348 
-0.067235 0.026481 -0.035503 0.091753 0.14453 0.095206 0.030427 0.061008 
-0.061645 0.12135 -0.10867 0.13056 0.11806 0.15703 -0.051944 0.061501 
0.03799 0.15472 -0.031557 0.062488 0.025001 0.16163 -0.049807 0.027139 
0.11724 0.11872 0.054925 0.022042 0.0082312 0.11313 0.011355 0.029112 
0.036182 0.077285 0.10918 0.0014903 0.012342 0.086163 0.066598 0.045389 
-0.067892 0.060515 0.062323 0.045718 0.041772 0.12036 0.12381 0.086328 
-0.018897 0.051801 0.045718 0.048677 0.0088889 0.17265 0.11132 0.052623 
0.054103 0.1031 0.018589 0.06742 -0.0078813 0.12875 0.092082 0.034209 
-0.038791 0.21178 0.0019835 0.043416 -0.035832 0.057555 0.077285 0.053609 
-0.25253 0.27129 -0.010183 0.033551 0.012835 -0.023994 0.05213 0.092247 
-0.19581 0.074983 -0.0039354 0.0070803 0.099152 -0.06444 -0.0034422 0.080902 
0.21309 -0.31451 0.080244 0.012835 0.12168 -0.073811 -0.05178 -0.026296 
0.60456 -0.43141 0.159 -0.026624 0.088136 -0.071509 -0.058685 -0.1182 
0.55261 -0.043066 0.12891 0.0026412 0.060022 -0.012814 -0.010348 -0.08532 
0.18054 0.2343 0.036675 0.0034632 0.078107 0.031578 0.045718 -0.02942 
-0.12873 0.15522 0.015465 -0.01939 -0.015938 0.012013 0.027303 0.030427 
-0.24579 0.093562 -0.089266 0.02829 -0.046025 -0.0016336 0.030263 0.08567 
-0.2014 0.19714 -0.18512 0.16673 0.020233 0.028125 0.069886 0.1174 
-0.038791 0.2006 -0.14106 0.18169 0.089616 0.00017495 0.064461 0.10408 
0.047526 0.039963 0.024673 0.093069 0.077943 -0.07414 0.041936 0.078765 
0.012013 -0.13021 0.20487 -0.029091 0.026317 -0.21817 0.028125 0.05772 
0.058213 -0.2379 0.2417 -0.031064 0.00066819 -0.39836 -0.016266 0.0016547 
0.12562 -0.20238 0.22592 -0.029748 0.0044497 -0.44391 -0.02235 -0.010183 
0.2024 -0.13859 0.12332 0.0079024 0.029276 -0.33983 -0.0004827 -0.030735 
0.171 -0.024816 0.056404 0.031907 -0.0047575 -0.12823 0.032893 0.013328 
0.046046 0.16656 0.012506 0.048513 0.0062583 0.10622 0.015137 0.048019 
-0.075291 0.24466 -0.0078813 0.0044497 -0.018568 0.30401 0.020891 0.097179 
-0.13103 0.21868 -0.0077169 -0.012485 -0.013636 0.45757 -0.00064712 0.057227 
-0.11689 0.18218 0.0051074 0.010204 0.0083956 0.46448 0.058377 0.056733 
-0.072825 0.1544 0.0026412 0.037004 0.046375 0.41154 0.12924 0.077943 
0.024837 0.16097 -0.023994 0.035195 0.082711 0.35071 0.13302 0.073668 
0.03651 0.171 -0.05885 0.079258 0.097179 0.24088 0.068571 0.046211 
0.050979 0.14256 -0.10554 0.097837 0.098494 0.076956 0.038977 0.029276 
0.062159 0.068242 -0.059507 0.056569 0.04506 -0.10538 0.0087245 -0.0091966 
0.075805 -0.0019624 0.028454 0.0031344 0.0014903 -0.26552 -0.029748 -0.026296 
0.057062 -0.023829 0.059857 -0.01117 -0.035832 -0.39573 -0.058192 -0.024652 
-0.043724 0.02533 0.037332 0.017767 -0.0036066 -0.37715 -0.0026201 0.01267 
-0.048492 0.03536 0.041114 0.021056 -0.03057 -0.32306 0.020069 0.033551 
-0.010183 0.028454 0.049499 0.057555 -0.017088 -0.22787 0.017932 0.010204 
0.055254 -0.047998 0.093891 0.056898 -0.0029489 -0.11064 0.023193 -0.0014692 
0.18892 -0.16013 0.17725 0.021713 0.014808 -0.08384 0.012506 -0.039778 
0.28839 -0.16457 0.16031 -0.026296 0.069886 -0.10373 0.015301 0.0046141 
0.096686 0.079751 -0.045532 -0.018404 0.042594 -0.16523 0.027303 0.050979 
-0.10176 0.32604 -0.14862 0.051801 0.032893 -0.23181 0.055418 0.13368 
-0.18101 0.36994 -0.16934 0.088136 0.0075736 -0.20518 0.05624 0.12628 
-0.19466 0.36616 -0.13711 0.049828 0.051143 -0.021363 0.024344 0.092411 
-0.10489 0.24137 -0.050793 0.03947 0.072353 0.21079 -0.0055795 0.027468 
0.02681 0.097015 0.08863 0.0056006 0.057555 0.39312 -0.037805 -0.018568 
0.086163 -0.1501 0.20454 0.0032988 0.024344 0.44409 -0.065097 -0.076113 
0.037826 -0.18052 0.20142 0.0092177 0.023686 0.38227 -0.034023 -0.018239 
-0.062796 -0.072989 0.089945 0.070873 0.061666 0.29102 0.046704 0.011684 
0.069558 -0.12264 0.0098754 0.062981 -0.013965 0.20734 0.076134 0.01826 
0.28346 -0.33211 0.068078 0.0069159 -0.071345 0.21128 0.059857 -0.01939 
0.25025 -0.29034 0.13499 -0.033365 -0.033365 0.24417 0.065118 0.012177 
0.01415 -0.028762 0.11411 0.0013258 0.045718 0.20602 0.082053 0.059035 
-0.029748 0.11477 0.068078 0.038812 0.063145 0.066434 0.046868 0.087314 
0.097508 0.082711 0.010533 0.041607 0.059035 -0.10554 0.050157 0.029769 
0.13631 0.14272 -0.0042642 0.05065 0.098494 -0.075291 0.076299 0.059035 
0.004943 0.26455 -0.049807 0.072188 0.088465 0.023193 0.11428 0.10359 
-0.074469 0.24433 -0.033037 0.054925 0.070544 0.042923 0.08304 0.085012 
-0.087129 0.14141 -0.0087034 0.01267 -0.030242 -0.017911 0.040456 0.028619 
0.011848 0.043909 0.042758 -0.010676 -0.05178 -0.094034 0.0019835 -0.027118 
0.092904 -0.006566 0.077778 0.0059294 -0.042573 -0.11376 0.00099702 -0.034023 
0.062488 0.064954 0.0079024 0.067091 0.004943 -0.095021 0.016781 -0.014951 
-0.073154 0.17001 -0.055232 0.066927 -0.01939 -0.11031 0.0046141 0.040456 
-0.1085 0.17939 -0.025474 0.048841 -0.0034422 -0.073482 -0.024652 0.038812 
-0.0021268 0.159 0.060022 0.0074092 0.022535 -0.054739 -0.044381 0.018425 
0.11231 -0.03616 0.10704 -0.019884 0.042594 -0.046519 -0.039778 0.00099702 
0.13697 -0.18216 0.074983 -0.026624 0.049992 -0.0004827 -0.023336 0.0059294 
0.048019 -0.056877 -0.006566 0.0044497 0.023193 0.094713 0.025659 0.057555 
0.015959 0.087479 -0.070687 0.057227 0.090931 0.1322 0.071695 0.072846 
0.0032988 0.074654 0.036182 0.055747 0.030592 0.0421 0.01711 0.0054362 
0.02681 -0.010841 0.096521 -0.011827 -0.045203 -0.10193 -0.011005 0.017932 
0.059364 -0.074798 0.12349 -0.07414 -0.13464 -0.097816 0.012177 0.0098754 
0.08419 -0.13744 0.16706 -0.068221 -0.093212 0.1904 0.14667 0.024015 
0.089616 -0.10768 0.16114 -0.00064712 0.097344 0.49112 0.2001 0.064625 
-0.0059084 0.052623 -0.00064712 0.08419 0.27294 0.59601 0.14782 0.11444 
-0.062467 0.18826 -0.11689 0.19451 0.28987 0.50394 0.012342 0.059857 
0.037168 0.16706 -0.11623 0.21046 0.13121 0.30237 -0.050793 0.030756 
0.16196 0.13039 -0.037147 0.1322 -0.014622 0.04917 -0.033694 -0.023501 
0.016945 0.095699 0.019247 -0.0021268 -0.083347 -0.094692 0.061995 0.013986 
-0.20008 0.13762 -0.030735 -0.031886 -0.030077 -0.035174 0.10474 0.049992 
-0.16966 0.1442 -0.018075 -0.020377 0.019411 0.15028 0.12069 0.078765 
0.1562 -0.083512 0.12069 -0.062631 0.0036276 0.28823 0.064954 0.013986 
0.33048 -0.21767 0.21145 -0.10045 -0.011992 0.20799 0.01415 -0.01117 
0.23446 -0.2282 0.14108 -0.085649 0.03092 -0.058028 -0.0059084 0.025166 
0.05624 -0.087293 0.077285 0.0082312 0.085012 -0.25894 0.050321 0.062817 
-0.02235 0.17824 -0.015609 0.039141 0.062817 -0.31583 0.018589 0.057884 
-0.063946 0.30796 -0.042737 0.075476 0.0087245 -0.23033 -0.006566 0.037497 
-0.11475 0.27787 -0.059836 0.098166 -0.019226 -0.11409 -0.017746 0.029112 
-0.074469 0.13762 -0.06444 0.11576 -0.018075 -0.061973 -0.016431 0.028947 
0.064954 -0.044217 0.066598 0.045882 -0.015773 -0.06707 0.00297 0.014479 
0.15999 -0.13744 0.20405 -0.019719 0.027303 -0.034352 0.031578 -0.028597 
0.19649 -0.060165 0.20208 -0.018568 0.068407 0.01711 0.031414 -0.02498 
0.083533 0.099974 0.05476 0.057062 0.066598 0.093726 0.058377 0.01152 
-0.13234 0.25008 -0.12281 0.070215 0.082875 0.16706 0.071859 0.094384 
-0.17789 0.24449 -0.11245 0.078765 0.060186 0.15653 0.057391 0.11115 
-0.095021 0.084026 0.022042 0.0088889 -0.02087 0.060844 0.034044 0.063145 
-0.084169 -0.0013048 0.068736 -0.020048 -0.04471 -0.010019 0.013821 0.040128 
0.0013258 -0.03616 0.055089 -0.01939 0.047526 -0.048327 -0.0090322 0.031414 
0.24236 -0.060658 0.0041209 0.040621 0.077943 -0.0070593 -0.0064016 -0.050464 
0.3318 -0.074469 -0.042244 0.088301 0.098001 0.023851 0.0060938 -0.066906 
0.20783 -0.026953 -0.00031829 0.11609 0.076792 0.076627 0.055418 -0.017253 
0.07301 0.045553 0.038977 0.021878 -0.01117 0.093891 0.073339 0.036182 
0.020727 0.050486 0.12036 -0.043888 -0.077428 0.032071 0.051143 0.025166 
0.017932 0.062159 0.12332 -0.038298 -0.098638 -0.041257 0.0067515 0.030427 
0.027468 0.075148 0.10819 0.01267 -0.053753 -0.10669 -0.025802 0.016123 
0.020069 0.02681 0.056898 0.023522 0.0085601 -0.06707 -0.038791 0.0042853 
0.051801 -0.0047575 0.025166 0.012835 0.025495 -0.01676 -0.011827 0.018918 
0.029112 0.053609 -0.041751 0.027632 0.046046 -0.004593 0.0072447 0.041936 
-0.072003 0.15604 -0.045368 0.068571 0.086163 -0.072332 0.045389 0.059035 
-0.14796 0.15752 -0.026953 0.048348 0.030592 -0.15898 0.015301 0.086657 
-0.1644 0.18498 -0.037805 0.027796 0.031578 -0.21159 -0.028597 0.077778 
-0.11607 0.20043 0.027961 0.040621 0.011684 -0.18413 -0.039942 0.039305 
0.086821 0.02122 0.1003 -0.01232 0.026317 -0.17657 -0.050136 -0.021692 
0.26653 -0.23411 0.1756 -0.0090322 0.076299 -0.11426 -0.10637 -0.067564 
0.29316 -0.194 0.087314 0.043909 0.1008 -0.078744 -0.081868 -0.058685 
0.12233 0.031085 0.004943 0.093069 0.07038 -0.11574 -0.10406 -0.034023 
-0.049807 0.17051 -0.075455 0.098823 0.0093821 -0.17591 -0.076935 0.033222 
-0.11311 0.13434 -0.0503 0.074326 -0.02087 -0.20929 -0.047834 0.059857 
0.0018191 0.0021479 0.04358 0.035688 0.0028056 -0.17098 0.009711 0.055582 
0.14535 -0.00064712 0.060022 0.00017495 0.034373 -0.1062 0.085506 0.0082312 
0.18909 0.02122 0.056569 -0.043724 0.048841 0.0098754 0.15324 0.00050378 
0.11115 -0.0073881 0.029934 0.0028056 0.065283 0.041936 0.16393 0.0028056 
0.0032988 -0.0014692 0.019905 0.025495 -0.017746 0.018918 0.091589 0.036675 
-0.010019 0.0046141 0.10737 0.01826 -0.092061 0.013328 0.021549 0.042594 
0.057062 -0.12708 0.20997 -0.060987 -0.075455 0.063968 0.0070803 0.037497 
0.052623 -0.10998 0.16722 -0.046025 -0.040764 0.14897 0.0036276 0.028619 
-0.012485 0.060679 0.04095 0.065447 0.014643 0.19846 0.019247 0.038977 
-0.062138 0.17511 -0.15043 0.14946 0.070215 0.23315 0.023193 0.051472 
-0.064604 0.22723 -0.15717 0.12842 0.090931 0.16936 0.011355 0.024508 
-0.032708 0.20273 -0.086307 0.088136 0.063145 0.036839 0.0041209 0.036017 
-0.04471 0.20372 -0.014129 0.062159 0.031085 -0.11343 -0.0138 0.040292 
-0.094692 0.20816 0.0044497 0.023357 0.024508 -0.19597 -0.0088678 0.059528 
-0.15783 0.2195 -0.0047575 0.0070803 0.054432 -0.20025 0.026974 0.076134 
-0.10012 0.13828 0.018754 0.011191 0.082217 -0.15585 0.040621 0.069886 
0.059857 0.01826 0.12316 0.012999 0.038483 -0.036983 0.03092 0.019411 
0.13023 0.0026412 0.16229 0.016452 0.03651 0.084848 0.033058 0.00083261 
0.10524 0.041772 0.059528 0.03651 0.016616 0.16738 0.023686 -0.01528 
0.035853 0.0075736 -0.00081153 0.036346 0.0093821 0.1927 0.03092 0.0037921 
-0.017417 0.041443 -0.087458 0.057391 0.045224 0.19336 0.068571 0.037168 
0.064954 -0.024652 -0.027447 0.062323 0.095206 0.21539 0.069886 0.058542 
0.18678 -0.095514 0.08567 0.043416 0.11757 0.18218 0.08715 0.0021479 
0.17939 -0.16243 0.15226 -0.0060728 0.11346 0.060515 0.069393 0.023193 
0.11839 -0.24677 0.15604 0.020069 0.067913 -0.047505 0.05772 0.015137 
0.086657 -0.19202 0.11329 0.055089 0.0060938 -0.039778 0.039799 0.018918 
0.065612 -0.00015387 0.054103 0.070051 -0.027282 0.016452 0.049006 0.024673 
-0.10719 0.17429 -0.037476 0.03947 -0.055068 0.087808 0.037168 0.073339 
-0.24316 0.28099 -0.059178 0.028125 -0.062467 0.21917 0.051801 0.078929 
-0.2208 0.30138 -0.034681 -0.0098543 -0.062631 0.30533 0.052787 0.074161 
-0.0080457 0.098166 0.064954 -0.05178 -0.019884 0.33492 0.076627 0.018425 
0.20043 -0.11228 0.14716 -0.035503 0.020727 0.36912 0.1026 -0.004593 
0.20191 -0.12856 0.09981 -0.021692 0.12924 0.39082 0.15176 0.025824 
0.13417 -0.063618 0.014479 0.039799 0.19237 0.37175 0.16163 0.052459 
0.18251 -0.010841 -0.021528 0.06035 0.18333 0.27294 0.12891 0.053445 
0.15078 0.0093821 -0.018897 0.069393 0.091753 0.077614 0.072517 0.037497 
0.075476 0.043251 -0.037476 0.090274 0.0421 -0.10817 0.027139 0.01415 
0.012342 0.079587 -0.011992 0.053116 0.004943 -0.17558 -0.0016336 0.043416 
-0.067892 0.12381 0.062981 -0.013965 -0.058521 -0.16325 0.033387 0.035195 
-0.13563 0.15966 0.085341 -0.060823 -0.060494 -0.11245 0.017932 0.026317 
-0.12757 0.16936 -0.0055795 0.018918 -0.032872 -0.08384 0.025988 0.035853 
-0.013471 0.14157 -0.036325 0.067091 0.014972 -0.049971 0.0085601 0.0034632 
0.061008 0.098166 0.027468 0.062817 -0.017417 -0.081374 -0.014458 0.040128 
0.014808 0.068571 0.079422 0.031085 -0.059014 -0.10258 -0.016595 0.031578 
-0.026953 0.074161 0.059364 -0.022843 -0.011005 -0.16851 0.0041209 0.052952 
0.015465 0.075476 0.037168 0.010697 0.078107 -0.13267 0.024673 0.044731 
0.027632 0.10408 -0.026131 0.089452 0.096686 0.0067515 0.038648 0.068407 
0.041772 0.058871 -0.081539 0.062488 -0.080552 0.019247 0.014315 0.042265 
0.13072 -0.14599 0.08156 -0.056877 -0.19844 -0.0034422 -0.050464 -0.011827 
0.22855 -0.24086 0.19714 -0.12675 -0.087622 0.041936 -0.06444 -0.069701 
0.21934 -0.15635 0.18596 -0.080717 0.15226 0.24482 0.0021479 -0.023994 
0.090603 -0.0013048 0.02533 0.066763 0.31223 0.2953 0.099481 0.026646 
0.015959 0.11362 -0.12166 0.19599 0.32835 0.15735 0.1294 0.080244 
-0.01528 0.11362 -0.13333 0.21227 0.19829 0.047526 0.12283 0.076134 
0.08978 0.057227 -0.051287 0.086492 0.036839 0.070544 0.088301 0.037168 
0.16475 0.0093821 0.099481 -0.01528 -0.047998 0.2098 0.055747 0.012999 
0.060844 0.03799 0.15867 -0.11097 -0.08121 0.39641 0.070215 0.028619 
-0.12692 0.048677 0.12842 -0.041915 -0.048656 0.57151 0.037826 0.063639 
-0.14796 -0.010512 0.095042 0.014479 1.0539e-005 0.50049 -0.0096899 0.050321 
-0.018897 -0.013143 0.0689 0.073832 0.016781 0.19895 -0.036325 0.0093821 
0.0227 0.063639 0.055582 0.045389 -0.001798 -0.086307 -0.021692 0.012999 
0.0092177 0.12036 -0.023007 0.059857 0.00083261 -0.1769 0.036182 0.049006 
-0.0032777 0.19369 -0.16835 0.11148 0.027796 -0.17706 0.08863 0.061172 
-0.038956 0.28576 -0.1866 0.10145 0.013164 -0.1838 0.066434 0.059528 
-0.047998 0.26899 -0.063289 0.05065 0.028454 -0.20912 0.022206 0.051472 
-0.038133 0.20487 0.078929 0.01415 0.052952 -0.30547 0.00066819 0.072681 
-0.023007 0.21621 0.082382 0.028619 0.067749 -0.40165 -0.0039354 0.044731 
0.031907 0.11148 0.095864 -0.03353 -0.0032777 -0.43634 -0.041257 0.015959 
0.067256 -0.12659 0.18366 -0.121 -0.050629 -0.31369 -0.044052 -0.030406 
0.088794 -0.26996 0.22937 -0.077593 -0.047998 -0.12116 -0.056712 -0.030735 
0.091753 -0.19383 0.035195 0.055254 0.0060938 0.043909 -0.047669 0.00050378 
0.030263 -0.068879 -0.10686 0.14798 0.10211 0.17955 -0.048327 0.047362 
0.10458 -0.0027845 -0.05326 0.14256 0.083697 0.16525 -0.074633 0.0079024 
0.19237 0.063474 -0.041915 0.036346 -0.0050863 0.14437 -0.08532 -0.012485 
0.16738 0.026152 0.034702 0.024837 0.0227 0.14404 -0.00081153 -0.02794 
0.10885 -0.035503 0.11461 0.021384 0.14634 0.18958 0.053445 0.0082312 
0.009711 -0.038956 0.089945 0.014479 0.18744 0.23118 0.068242 0.041772 
0.00083261 0.015465 0.064296 0.0047785 0.14338 0.21309 0.060844 0.069393 
0.0047785 0.082053 0.047691 0.052623 0.066269 0.10195 0.057227 0.052952 
-0.024323 0.14519 0.038483 0.061337 0.077449 -0.14023 0.020069 0.066763 
-0.016266 0.11033 0.034209 0.047362 0.016781 -0.3737 0.027961 0.051636 
-0.017253 0.061337 0.035031 0.0087245 -0.047505 -0.35364 0.052787 0.051143 
-0.089595 0.10639 -0.0022913 0.0065871 -0.10587 -0.19104 0.080244 0.072353 
-0.13267 0.2006 -0.051615 0.0034632 -0.1011 -0.060165 0.062817 0.070215 
-0.084827 0.16294 -0.038627 0.025495 -0.062467 0.097672 0.014808 0.025495 
0.089945 -0.013143 0.057227 0.0087245 -0.065097 0.20602 -0.054575 -0.054904 
0.072353 -0.048163 0.11477 -0.018897 -0.036654 0.15851 -0.040928 -0.036983 
-0.075127 0.15275 0.026481 0.009711 0.042594 0.10096 0.025495 0.03388 
-0.024487 0.1756 -0.038462 0.036017 0.10787 0.069886 0.076627 0.062159 
0.072024 0.053609 -0.022514 0.037332 0.10359 0.076134 0.052623 0.012999 
0.12464 -0.0096899 0.048513 0.053938 0.086163 0.078929 0.020233 0.0067515 
0.12891 -0.076277 0.10787 0.056404 0.072188 0.022042 0.0026412 -0.0098543 
0.14108 -0.12577 0.13647 0.044896 0.045553 -0.10324 -0.014787 0.013657 
0.15916 -0.075949 0.10935 0.048841 0.022371 -0.28771 -0.015938 0.015465 
0.066269 0.030592 0.039305 0.027468 -0.0073881 -0.43355 -0.0047575 0.042594 
-0.070194 0.19813 -0.025967 0.004943 -0.021692 -0.4199 -0.018239 0.049992 
-0.15437 0.28149 -0.019226 0.011026 -0.10291 -0.34526 -0.052766 0.081231 
-0.1404 0.26899 -0.070359 0.057555 -0.10883 -0.20337 -0.0503 0.04095 
-0.017746 0.074161 -0.010512 0.045718 -0.082854 -0.071509 -0.01232 0.01826 
0.1322 -0.085813 0.089616 -0.02498 -0.010348 0.061666 0.016781 -0.014787 
0.09833 0.010369 0.09422 -0.036325 0.046868 0.15999 0.060844 -0.0059084 
0.02533 0.095535 -0.048985 0.065283 0.091918 0.2126 0.066269 0.004943 
-0.020212 0.010369 -0.069536 0.092411 0.097672 0.17741 0.072353 0.046375 
-0.085649 -0.0036066 0.012506 0.06035 0.053445 0.17758 0.058871 0.09833 
-0.017746 0.017932 0.16229 -0.0049219 0.037826 0.23956 0.10474 0.053774 
0.059857 -0.012814 0.22378 -0.048163 0.0031344 0.159 0.061008 0.028619 
0.14733 -0.057205 0.11066 -0.091732 -0.027447 0.0070803 0.024015 -0.017417 
0.36649 -0.12379 0.033222 -0.04323 0.0087245 -0.047505 0.020398 -0.07562 
0.34166 -0.076935 0.055418 0.013492 0.077285 -0.011498 0.040292 -0.043888 
0.093069 0.01563 0.081724 0.044896 0.13467 0.0093821 0.022042 0.048841 
-0.035174 0.066927 -0.042901 0.096357 0.11576 0.085999 0.06742 0.03651 
-0.045696 0.18152 -0.17854 0.17215 0.067585 0.060844 0.03799 0.02533 
-0.096007 0.26077 -0.19646 0.17232 0.013821 -0.02087 0.019576 0.050157 
-0.12001 0.18152 -0.035503 0.14075 -0.011827 -0.10752 0.048184 0.10195 
-0.072496 -0.040928 0.14979 0.031249 -0.042573 -0.1085 0.020233 0.098166 
-0.044052 -0.10078 0.1539 -0.021199 -0.011334 -0.069536 0.037168 0.067913 
-0.021856 0.0013258 0.10524 -0.022843 0.0079024 -0.0083746 0.069064 0.041443 
0.065118 0.089616 0.055582 0.0088889 0.0085601 0.080573 0.058049 0.010369 
0.11609 0.10277 0.055582 -0.024158 0.022864 0.14305 0.018918 -0.028433 
0.081231 0.096357 0.015137 -0.025145 0.046211 0.13894 0.027303 0.012013 
0.017603 0.035195 0.011191 0.0087245 0.091425 0.19649 0.029276 0.018918 
-0.049971 -0.027447 0.037497 0.004943 0.082053 0.32818 -0.0019624 0.065612 
0.0085601 -0.090417 0.11609 -0.029255 0.034373 0.44804 0.013492 0.020727 
0.10885 -0.096007 0.11674 -0.0088678 0.00297 0.30812 0.039799 -0.0044286 
0.077778 0.031907 0.016781 0.071202 0.021056 0.14519 0.11346 0.022371 
0.069558 0.083697 -0.032708 0.11576 0.079916 0.065283 0.12875 0.044073 
0.00297 0.14683 -0.046354 0.099152 0.10589 0.12694 0.12398 0.061995 
-0.11294 0.21161 -0.025474 0.08978 0.11526 0.2098 0.075805 0.075148 
-0.082196 0.18037 -0.037311 0.065776 0.078107 0.14387 0.079587 0.061337 
0.14469 0.031742 0.024179 -0.013965 0.021056 -0.029255 0.058049 0.00066819 
0.25863 -0.082032 0.071695 0.0088889 0.0067515 -0.16983 0.033551 0.00066819 
0.10178 -0.012156 0.0064227 0.021549 0.02681 -0.1723 0.012013 0.015959 
-0.068714 0.047691 -0.0098543 0.084519 0.020069 -0.050136 0.00297 0.054925 
-0.10998 0.049335 0.024344 0.066434 -0.004593 0.01152 -0.017911 0.052787 
0.11428 -0.12577 0.057062 0.09422 -0.0027845 0.0065871 -0.01528 0.0082312 
0.24844 -0.13941 0.090109 0.042265 -0.014951 -0.031064 -0.057534 -0.048327 
0.22871 -0.024652 0.16558 -0.024816 -0.0026201 -0.091075 -0.088444 -0.054082 
0.10474 -0.0022913 0.12464 -0.062467 0.10392 -0.1381 -0.034845 -0.021856 
-0.081374 0.06183 0.014808 0.021713 0.18876 -0.12149 0.040292 0.073997 
-0.19942 0.08008 -0.028269 0.091425 0.16837 -0.012485 0.061501 0.11066 
-0.10505 0.046375 0.018096 0.10178 0.075312 0.059528 0.064132 0.11346 
0.044073 0.033551 0.043745 0.042429 -0.030077 0.040456 0.046704 0.048677 
0.05213 0.079587 0.033222 0.01415 -0.0503 0.034537 0.034373 0.050486 
-0.028597 0.1835 0.013821 0.024508 -0.024487 0.079422 0.043416 0.043087 
-0.083018 0.21769 0.015465 0.047855 -0.00015387 0.11905 0.071531 0.080409 
-0.024652 0.1248 0.080738 0.014643 0.011848 0.17199 0.079916 0.025001 
0.069064 0.033387 0.070051 -0.017088 0.017932 0.28724 0.080902 0.00297 
0.053281 0.01974 0.031742 1.0539e-005 0.026152 0.44524 0.06594 0.014972 
-0.029091 0.041278 -0.021199 0.025495 -0.051615 0.43439 0.051965 0.049664 
0.013986 0.020069 -0.0050863 0.0056006 -0.11048 0.26505 0.019576 0.021713 
0.17626 -0.094692 0.027796 -0.021363 -0.1159 0.1151 -0.018239 -0.025638 
0.34166 -0.23428 0.15637 -0.004593 -0.0406 -0.04619 -0.078908 -0.082361 
0.293 -0.088773 0.17396 -0.046683 0.061008 -0.0503 -0.026131 -0.084827 
-0.033694 0.15193 0.053774 -0.012485 0.21671 -0.0029489 0.055582 0.06479 
-0.17114 0.25551 -0.093705 0.1026 0.30237 0.0018191 0.096028 0.12776 
-0.17525 0.26274 -0.19942 0.19632 0.21753 -0.014622 0.088958 0.13762 
-0.10801 0.18547 -0.10752 0.1391 0.080902 -0.14911 0.023686 0.097179 
-0.013636 0.064296 0.03092 0.00033937 -0.083183 -0.37748 -0.046354 0.029441 
0.042758 0.033058 0.082711 0.005765 -0.087458 -0.50112 -0.061151 -0.012814 
0.004943 0.029441 0.03799 0.050321 -0.050629 -0.40346 -0.072989 -0.0054151 
-0.045203 -0.013307 0.056569 -0.022021 -0.081703 -0.26733 -0.056548 0.019905 
0.020562 -0.10275 0.1174 -0.047341 -0.054904 -0.10078 -0.021034 0.031742 
0.159 -0.1039 0.12973 -0.038956 -0.019719 0.042429 -0.032215 -0.032872 
0.13779 0.0031344 0.073175 0.033222 -0.0031133 0.15735 -0.026953 -0.040764 
0.052952 0.12003 0.0019835 0.025988 -0.033859 0.22592 0.021878 -0.066248 
0.058213 0.073668 0.042594 -0.013965 -0.079072 0.27573 0.028125 -0.025474 
0.03388 -0.0021268 0.13976 -0.063782 -0.10012 0.27129 0.085506 -0.0022913 
-0.014129 0.062159 0.10787 0.039141 -0.039449 0.2389 0.14371 0.070051 
0.025166 0.14042 -0.067399 0.12431 0.041114 0.20898 0.15127 0.040128 
0.012342 0.20701 -0.13991 0.15226 0.159 0.18547 0.11115 0.06331 
-0.052931 0.2052 -0.067399 0.099481 0.22427 -0.061645 0.090931 0.075476 
-0.076935 0.12792 0.080244 0.025988 0.17281 -0.35151 0.0046141 0.072681 
0.081889 -0.14878 0.19122 -0.10587 0.055747 -0.42829 -0.076113 -0.0047575 
0.30779 -0.31238 0.21326 -0.16638 -0.026131 -0.25861 -0.096994 -0.079072 
0.38457 -0.25828 0.10869 -0.048163 0.078107 -0.030242 -0.094856 -0.12281 
0.19879 -0.065919 -0.079401 0.13269 0.18974 0.10655 -0.022185 -0.061645 
-0.060987 0.0786 -0.1552 0.20553 0.19221 0.24137 0.040128 0.058213 
-0.16046 0.11165 -0.10932 0.1641 0.098001 0.2948 0.090931 0.12069 
-0.15092 0.11773 -0.016595 0.086657 -0.022185 0.30187 0.10178 0.16607 
-0.0771 0.11872 0.064461 0.0036276 -0.069701 0.27639 0.09422 0.12957 
-0.006566 0.10063 0.12628 -0.03764 -0.082196 0.1345 0.069229 0.076627 
0.06035 0.0786 0.085012 -0.021856 -0.063289 -0.051122 0.020398 0.0067515 
0.077449 0.097179 0.062652 -0.0004827 -0.078086 -0.14056 0.032729 1.0539e-005 
0.025988 0.14256 0.03092 -0.0014692 -0.031557 -0.19778 0.014479 -0.010512 
-0.092883 0.1927 0.0028056 0.016288 0.04917 -0.23214 0.014972 0.038812 
-0.16062 0.24844 -0.037147 0.070873 0.065283 -0.30235 0.020069 0.069886 
-0.067399 0.15028 -0.025967 0.086492 0.029276 -0.46183 -0.016431 0.066105 
0.070708 -0.016924 0.052787 0.016452 -0.029584 -0.44588 -0.0060728 0.023522 
0.1299 -0.057863 0.091096 -0.025802 0.034373 -0.24053 0.06479 0.014808 
0.15587 -0.03205 0.092576 -0.010183 0.1345 -0.017746 0.048513 0.013986 
0.12102 0.01974 0.0037921 0.047526 0.14486 0.14256 0.029769 -0.0050863 
0.02681 0.01563 -0.011827 0.059693 0.088794 0.28889 -0.042737 -0.031721 
0.017603 -0.02646 -0.011663 0.02681 -0.0049219 0.36715 -0.027282 -0.056712 
0.10491 -0.063289 0.065776 0.027632 -0.0036066 0.31453 -0.034845 -0.0771 
0.0421 0.013328 0.08715 0.055911 0.068736 0.29201 0.074161 0.00017495 
0.01563 0.056733 0.10178 0.028783 0.11855 0.33048 0.12201 0.058871 
0.072188 0.016288 0.085835 0.03388 0.084684 0.29727 0.1202 0.037497 
0.041278 0.018754 0.053445 0.054925 0.040785 0.14075 0.09422 0.085835 
-0.085813 0.13302 -0.030406 0.073175 -0.040271 -0.027775 0.068407 0.11773 
-0.076771 0.054432 -0.095514 0.0037921 -0.094856 -0.24135 0.031085 0.096357 
-0.0032777 -0.014129 -0.082854 -0.015773 -0.10373 -0.38028 -0.012485 0.031085 
-0.071674 0.14075 -0.041422 0.038155 -0.044546 -0.35677 -0.039613 0.036675 
-0.065755 0.21654 0.015137 0.019247 -0.017746 -0.23839 -0.027611 0.0087245 
-0.035667 0.1927 0.12332 -0.0064016 -0.00015387 -0.19005 -0.019061 0.0090533 
0.08419 0.17445 0.15127 0.027632 0.054432 -0.086142 0.023522 -0.031886 
0.22855 -0.021363 0.15242 0.024673 0.10162 0.20536 0.067585 0.012835 
0.3295 -0.17887 0.11855 0.00297 0.15916 0.34166 0.11017 0.0085601 
0.2343 -0.157 0.015137 0.047033 0.21539 0.25551 0.07038 0.048019 
0.10556 -0.14517 -0.035832 0.090109 0.1784 0.08008 -0.0024557 0.03947 
0.01415 -0.098473 -0.025145 0.10014 0.032729 -0.035503 -0.03764 0.012835 
-0.0016336 -0.034845 0.027468 0.045224 -0.013143 -0.028926 -0.033694 -0.0057439 
-0.05326 0.051636 0.044731 0.074983 -0.0138 0.10836 0.028619 0.078107 
-0.14007 0.18662 0.033058 0.051965 0.026481 0.26357 0.058377 0.12562 
-0.079401 0.15061 0.11987 -0.0087034 -0.0021268 0.34725 0.016288 0.093891 
0.045224 0.076792 0.18547 -0.10653 -0.089102 0.31733 0.00033937 0.0421 
0.033222 0.064461 0.14848 -0.11475 -0.11903 0.22674 0.058049 0.0421 
0.0093821 0.066105 0.056076 -0.0406 -0.10735 0.094055 0.082711 0.031414 
0.064461 0.15538 -0.056877 0.035853 -0.045368 -0.041257 0.040621 -0.021528 
0.077285 0.22739 -0.16572 0.082053 -0.0054151 -0.11459 0.032236 -0.035338 
0.052294 0.15949 -0.157 0.11263 0.096686 -0.098638 0.03651 -0.02646 
0.040621 0.076956 -0.07266 0.10425 0.12332 -0.029748 0.058542 0.030263 
-0.020541 0.056404 -0.056219 0.084519 0.13417 0.012342 0.05065 0.065612 
-0.03205 0.078107 -0.03205 0.042758 0.10145 0.015794 0.019905 0.090109 
-0.006566 0.068078 0.046211 0.013164 0.048677 -0.088937 0.02533 0.079916 
0.058871 -0.030242 0.11378 0.0034632 -0.0027845 -0.2402 0.026317 0.051308 
0.21095 -0.15898 0.14256 0.012177 -0.01232 -0.3035 -0.011334 -0.04619 
0.22263 -0.14467 0.06742 0.043251 0.03536 -0.19301 -0.0034422 -0.026624 
0.14634 -0.059343 0.085177 0.035031 -0.034023 -0.11837 -0.035667 -0.054739 
0.060844 -0.014293 0.15785 -0.0031133 -0.12774 -0.017417 -0.07266 -0.030899 
-0.10456 0.00083261 0.094384 -0.056219 -0.13399 0.15999 -0.040764 0.031249 
-0.34805 0.23381 -0.078415 -0.0036066 -0.051287 0.25271 0.040621 0.15357 
-0.39935 0.33936 -0.1912 0.012342 0.08419 0.21194 0.092411 0.16853 
-0.03764 0.16689 -0.081868 0.0059294 0.088301 0.023686 0.094548 0.13976 
0.23003 0.071202 0.067913 -0.010348 0.054596 -0.1256 0.058706 0.02681 
0.16163 0.090767 0.098001 0.0070803 0.0013258 -0.20863 -0.028926 0.0075736 
0.027139 -0.039778 0.1271 -0.030406 -0.012978 -0.032708 -0.046354 -0.031886 
0.25255 -0.32356 0.26587 -0.032379 0.065776 0.25419 -0.038791 -0.084827 
0.48076 -0.35907 0.23825 0.0083956 0.16706 0.34051 -0.041915 -0.10784 
0.3438 -0.082032 -0.019884 0.17741 0.2149 0.30451 0.070051 0.00050378 
-0.085649 0.26653 -0.31797 0.28691 0.17626 0.30862 0.17659 0.12201 
-0.31895 0.31404 -0.32273 0.24022 0.0088889 0.24022 0.15982 0.15061 
-0.10078 0.042594 -0.0088678 0.02681 -0.099624 0.19172 0.11609 0.074654 
0.14206 -0.11738 0.24976 -0.0965 -0.067564 0.18399 0.069722 0.012177 
0.17232 -0.1478 0.26768 -0.091404 0.061995 -0.11031 0.024015 0.0052718 
0.065118 -0.027447 0.11494 -0.018404 0.14502 -0.41694 0.033222 0.013986 
-0.052273 0.056404 -0.054575 0.058542 0.13762 -0.44012 0.028454 0.022535 
-0.0406 0.08419 -0.076442 0.069722 0.062817 -0.32125 0.018754 0.016123 
0.0024767 0.045718 0.019083 0.026646 -0.056877 -0.068057 -0.027282 -0.0014692 
0.037661 0.072681 0.036839 0.0075736 -0.06296 0.14864 -0.053753 -0.0062372 
-0.0026201 0.15933 0.044238 -0.019884 -0.024652 0.22838 -0.11722 0.027632 
-0.033365 0.17232 0.035031 -0.00064712 -0.010348 0.183 -0.09387 0.0227 
-0.043395 0.10507 0.072517 0.021384 0.028619 0.094877 -0.0073881 0.05213 
-0.049807 0.090274 0.011684 0.050321 0.04654 0.063803 0.087808 0.037168 
0.010533 0.055582 0.03388 0.021713 0.046704 0.087314 0.10474 0.037168 
0.056404 0.025659 0.062488 -0.0040998 0.04358 0.077778 0.092576 -0.00031829 
0.11214 1.0539e-005 0.067749 0.027796 0.029112 0.041443 0.037661 -0.001798 
0.11609 0.026152 0.0051074 0.0421 0.01826 -0.068386 0.037497 -0.016102 
0.021878 0.12283 -0.11475 0.066927 0.039963 -0.075455 0.075148 0.047855 
-0.076771 0.19862 -0.13777 0.054432 0.025001 -0.008539 0.090603 0.071695 
-0.066248 0.15308 -0.03912 0.056898 0.020069 0.017767 0.1174 0.084026 
0.0095465 0.057884 0.10606 0.031742 0.054925 0.051308 0.12875 0.051965 
0.069558 -0.076935 0.1659 0.019576 0.11329 0.047033 0.066269 0.015794 
0.13598 -0.16259 0.15456 -0.0016336 0.090109 -0.00031829 -0.014458 -0.028104 
0.15752 -0.21143 0.10704 0.0019835 -0.0047575 -0.10752 -0.082196 -0.034516 
0.13006 -0.18808 0.09274 0.022042 -0.022021 -0.17936 -0.11393 -0.01676 
0.0016547 -0.052109 0.032236 0.039634 -0.031721 -0.1136 -0.13251 0.019411 
-0.097816 0.058049 -0.019555 0.051472 0.022535 0.033222 -0.10357 0.041443 
0.059528 0.01826 0.064132 0.074654 0.056076 0.19879 -0.05178 0.0051074 
0.24318 -0.041093 0.14075 0.016616 0.02122 0.25765 -0.03764 -0.033037 
0.11395 0.070708 0.11609 -0.032708 -0.06855 0.21852 0.014315 -0.0031133 
-0.17739 0.29645 -0.043888 0.0088889 -0.052109 0.10178 0.045389 0.082711 
-0.28689 0.44475 -0.077757 0.027632 0.073339 0.049006 0.11559 0.12891 
-0.21586 0.35449 -0.054575 0.013986 0.11148 0.077285 0.17199 0.11822 
0.10474 0.041278 0.03651 0.084026 0.19665 0.10869 0.12069 0.0036276 
0.30845 -0.15125 0.022371 0.13138 0.17544 0.13056 0.060022 -0.066084 
0.3216 -0.13234 0.039634 0.057555 0.060515 0.016945 -0.014622 -0.10801 
0.19435 -0.086471 0.062817 -0.069536 -0.070194 -0.060987 -0.041915 -0.067235 
0.021878 0.011848 0.11263 -0.11196 -0.12462 -0.063453 -0.012978 0.020891 
-0.19909 0.1516 0.079422 -0.047998 -0.10472 0.039305 0.068407 0.11115 
-0.24924 0.232 -0.048163 0.088136 -0.029584 0.076792 0.077449 0.12677 
-0.12018 0.14519 -0.090088 0.11625 0.022042 -0.016102 0.034373 0.11083 
-0.042408 0.072517 -0.085813 0.13812 0.050814 -0.1233 -0.0004827 0.080738 
0.0056006 0.066269 -0.017746 0.10343 0.088465 -0.17098 0.01563 0.083368 
-0.0022913 0.041607 0.03651 0.024837 0.11329 -0.17772 0.031414 0.071202 
-0.013965 0.055747 0.1077 -0.0087034 0.076627 -0.18791 0.0064227 0.055254 
0.032071 0.03388 0.12283 -0.006566 0.019411 -0.1108 -0.021856 0.0041209 
0.091589 -0.00081153 0.16377 0.019411 -0.041422 -0.028269 -0.043395 -0.037147 
0.11905 -0.034188 0.1322 -0.0067304 -0.061973 -0.034023 -0.047341 -0.049478 
0.056898 0.071531 -0.01528 0.032564 0.0016547 -0.19054 -0.010183 -0.0004827 
-0.094856 0.2343 -0.16687 0.099974 0.072353 -0.21817 0.03799 0.060186 
-0.17016 0.26389 -0.16079 0.13697 0.076299 -0.13168 0.067256 0.093233 
-0.085813 0.097837 -0.0057439 0.065283 -0.0019624 0.012999 0.054267 0.086657 
0.11428 -0.16917 0.14108 -0.025145 -0.070194 0.17692 0.037497 0.010697 
0.29859 -0.26009 0.23808 -0.073647 -0.034023 0.33344 -0.010348 -0.025802 
0.32423 -0.10127 0.17314 -0.023336 0.069722 0.25107 -0.003771 -0.060987 
0.17593 -0.0014692 0.05772 -0.030735 0.15818 0.087479 0.055418 -0.03912 
0.019576 0.13631 -0.095678 -0.004593 0.12546 0.11066 0.088465 -0.021856 
-0.071838 0.35021 -0.22047 0.065447 0.057227 0.1932 0.080573 0.020233 
-0.084827 0.34018 -0.18874 0.087314 -0.0096899 0.2948 0.08567 0.037826 
-0.028269 0.19468 -0.046519 0.092904 -0.013471 0.31832 0.071037 0.093398 
-0.023336 0.029769 0.04654 0.062817 -0.018568 0.18037 0.066763 0.079422 
-0.0029489 -0.13892 0.14469 0.030592 -0.025474 -0.049642 0.029276 0.069886 
-0.031228 -0.16999 0.25156 0.0079024 0.049992 -0.088608 0.0592 0.080902 
0.023357 -0.18759 0.20964 -0.027118 0.11296 0.0062583 0.064461 0.072517 
0.12464 -0.18611 0.08863 0.0054362 0.096193 0.0065871 0.024837 -0.018733 
0.17873 -0.11656 0.021713 0.022206 -0.029913 -0.087622 -0.027611 -0.047669 
0.10622 0.0067515 0.060515 0.045389 -0.095185 -0.20074 -0.038133 -0.053424 
-0.010348 0.11181 0.095042 0.020233 -0.075949 -0.19926 0.00297 0.02681 
-0.03764 0.15127 0.063145 -0.044874 -0.04323 -0.13596 0.088465 0.086492 
-0.01117 0.11674 -0.010512 -0.021363 0.10754 -0.077922 0.052623 0.086492 
0.0042853 0.10392 -0.087786 0.028454 0.14979 -0.040106 0.03651 0.077614 
0.062981 0.10293 -0.087951 0.064954 0.14749 0.061008 0.037497 0.034044 
0.060844 0.15555 -0.10571 0.13006 0.10343 0.11724 0.04358 0.037826 
0.044238 0.1858 -0.12905 0.16804 0.084519 0.10556 0.059035 0.04358 
0.00297 0.17676 -0.089102 0.081395 0.00297 0.028947 0.051143 0.0324 
0.0011614 0.14091 -0.037311 0.025166 -0.014458 -0.0088678 0.0067515 0.017274 
0.0056006 0.036182 0.013164 -0.014622 -0.014787 0.05624 0.00083261 0.0095465 
-0.026131 -0.01528 0.12957 -0.036489 -0.024816 0.091753 -0.014622 0.01004 
-0.074304 -0.061645 0.19057 -0.065919 -0.052109 0.055254 -0.019719 0.01974 
-0.034023 -0.11097 0.23594 -0.053753 -0.043395 0.042758 -0.03764 -0.0050863 
0.14601 -0.20255 0.2172 -0.044052 -0.0087034 -0.074798 -0.03616 -0.039613 
0.17626 -0.14336 0.0592 0.057227 0.037497 -0.069865 0.024344 -0.032215 
0.0592 0.013986 -0.13366 0.11 0.083533 0.052787 0.068736 0.026974 
0.10819 0.050814 -0.14846 0.10524 0.10573 0.041114 0.065118 0.027139 
0.23068 -0.012978 -0.042901 0.056569 0.036839 -0.027775 0.0046141 0.0067515 
0.21885 0.0059294 0.03799 0.047033 -0.066741 0.048841 0.015137 -0.018239 
0.10589 0.020398 0.14601 -0.025309 -0.12231 0.15078 0.032893 0.0072447 
0.028619 -0.076606 0.22838 -0.087129 -0.11426 0.13187 0.013821 0.016781 
-0.051944 -0.076113 0.23512 -0.056548 0.0042853 0.1738 0.050321 0.084355 
-0.13432 0.10063 0.082217 0.074983 0.11905 0.27787 0.1008 0.079916 
-0.1552 0.26751 -0.059343 0.10014 0.078765 0.16294 0.06035 0.07038 
-0.11903 0.35547 -0.13991 0.050814 0.041772 -0.0039354 0.014479 0.054267 
-0.16029 0.25173 -0.10604 0.020727 0.073997 -0.074798 0.010369 0.091589 
-0.087458 0.099316 0.0013258 -0.017417 0.16064 -0.1136 0.014808 0.061995 
0.01152 0.10047 0.027961 -0.018239 0.19813 -0.10916 0.0032988 0.029112 
0.22542 -0.012978 0.032729 0.0083956 0.12085 -0.093048 0.010369 -0.027282 
0.24663 -0.1404 0.050321 0.0083956 -0.0047575 -0.16309 0.026646 -0.036654 
0.17478 -0.10768 0.090931 0.027961 -0.024323 -0.27785 0.044896 0.0062583 
0.11839 -0.064111 0.12924 0.02533 -0.022514 -0.22639 0.063145 0.00033937 
0.05772 0.06742 0.12036 0.068078 -0.00064712 -0.040271 0.020562 0.030263 
-0.00015387 0.15735 0.038483 0.1294 0.004943 0.044402 0.01415 0.033551 
0.023851 0.021056 0.024837 0.082875 -0.001798 0.050157 0.0070803 0.054432 
0.037497 0.0075736 -0.0067304 0.022371 0.037004 0.10688 0.035688 0.081395 
0.0059294 0.088958 -0.071016 0.016452 0.029769 0.10852 0.021384 0.048841 
0.025001 0.054596 -0.056712 0.049335 0.027961 0.1664 0.005765 -0.027282 
0.10162 -0.0013048 -0.0082102 0.016123 -0.0067304 0.40118 -0.010676 -0.024652 
0.06479 0.061501 0.011191 0.022371 0.0098754 0.57184 0.020562 -0.0059084 
-0.061809 0.18103 -0.037805 0.038648 0.013821 0.44689 0.031085 0.052952 
-0.14813 0.23989 -0.019719 0.052787 -0.020706 0.13697 0.10228 0.088465 
-0.14089 0.17363 0.052294 -0.041093 0.011355 -0.30744 0.071202 0.11773 
0.020891 0.093233 0.09833 -0.042573 0.08156 -0.44193 0.037497 0.053281 
0.093398 0.090603 0.060186 0.023193 0.16771 -0.26848 0.022864 0.074654 
0.11263 0.051965 0.061172 0.09981 0.15703 -0.02646 0.013328 0.018425 
0.061337 -0.016595 0.051636 0.081889 0.046704 0.090274 -0.040435 0.0227 
0.047197 -0.086142 0.032236 0.046704 -0.03205 0.11905 -0.049807 -0.021856 
0.089945 -0.059343 0.027961 0.020398 -0.084169 0.19649 -0.0080457 -0.032872 
0.06183 -0.03205 0.062981 0.0044497 -0.12494 0.28379 0.046375 0.011191 
0.016945 -0.052109 0.15653 -0.027775 -0.10604 0.27902 0.095206 0.024015 
-0.086636 0.054925 0.080738 -0.0052507 -0.049971 0.26225 0.1008 0.10573 
-0.047012 0.0031344 0.10491 -0.019719 0.018425 0.12908 0.059693 0.083368 
0.12546 -0.12642 0.21983 -0.05737 0.10704 0.010369 0.033222 0.048019 
0.039799 0.06479 0.12579 0.022042 0.24532 -0.057534 0.063474 0.081395 
-0.081703 0.30582 -0.17854 0.16278 0.28987 -0.066577 0.065283 0.10474 
-0.023172 0.35416 -0.28738 0.19583 0.16969 -0.07973 0.03651 0.030098 
0.14042 0.18942 -0.17082 0.08863 0.034209 -0.076442 -0.0072237 -0.039613 
0.147 0.022371 0.012506 0.024508 -0.088773 -0.022843 -0.004593 -0.060987 
0.072024 -0.027611 0.070215 0.0039565 -0.10686 -0.04471 -0.024158 -0.011498 
0.017603 -0.059672 0.089616 0.039799 -0.062302 -0.032708 0.018589 0.0016547 
-0.030735 -0.060823 0.10935 0.04654 0.024837 0.014479 0.028125 0.063474 
0.0080668 -0.094363 0.16015 0.012342 0.049828 0.022371 0.034866 0.036839 
0.05476 -0.097487 0.17445 -0.015609 -0.0075525 -0.033694 0.015794 0.020727 
0.05476 0.012835 0.091096 -0.011498 -0.08121 -0.10045 -0.013471 0.0051074 
-0.063289 0.17873 0.022206 -0.057041 -0.095185 -0.061973 -0.0078813 0.038812 
-0.084498 0.23118 -0.032872 -0.0138 -0.023336 0.0018191 0.02829 0.066598 
-0.06707 0.25567 -0.10308 0.069229 0.066763 0.05065 0.061008 0.1202 
-0.045532 0.17955 -0.079895 0.10704 0.13138 0.066763 0.10343 0.091589 
-0.015609 -0.0075525 0.051308 0.070215 0.11066 0.062323 0.098823 0.062488 
-0.045203 -0.079237 0.14058 0.016123 0.011191 0.011848 0.025824 0.035031 
0.038155 -0.20732 0.17889 0.011026 -0.03764 -0.021856 -0.033201 -0.027282 
0.26587 -0.27045 0.16229 0.016945 -0.014458 0.01415 -0.023172 -0.07562 
0.26554 -0.095514 0.051308 0.010862 0.01711 0.022206 0.016288 -0.036325 
0.05624 0.096357 -0.066741 -0.0070593 -0.00015387 -0.019555 0.028783 0.041114 
0.01415 0.093398 -0.042573 -0.0050863 0.062981 -0.0022913 0.038319 0.041278 
0.037497 0.11921 -0.015609 0.053116 0.080738 0.022371 0.04358 0.042594 
-0.021363 0.2149 -0.053424 0.060844 0.058049 0.012342 0.042923 0.037168 
-0.031557 0.20076 -0.006566 0.069886 0.032729 -0.061973 0.043416 0.025824 
-0.018075 0.06183 0.070051 0.047526 -0.070359 -0.17575 0.015137 -0.0016336 
-0.090253 -0.040764 0.14091 -0.027447 -0.20304 -0.37847 -0.048163 0.040128 
-0.16161 -0.073482 0.16031 -0.11886 -0.20584 -0.62361 -0.074469 0.047526 
0.039634 -0.13037 0.12644 -0.056877 -0.024652 -0.64038 -0.055561 0.040621 
0.26406 -0.098144 0.058213 0.042923 0.20175 -0.38061 -0.031886 0.0056006 
0.37389 -0.010348 -0.035503 0.14387 0.35087 -0.12264 0.015465 -0.023501 
0.30187 0.13878 -0.15865 0.17544 0.25798 -0.0004827 0.017767 -0.054739 
0.01974 0.29267 -0.18594 0.10129 0.085835 0.2999 -0.01117 0.017932 
-0.14385 0.31108 -0.095514 0.038319 -0.05885 0.49621 0.029934 0.044731 
-0.15569 0.14864 -0.0052507 -0.00031829 -0.079566 0.45198 0.088794 0.059364 
-0.0098543 -0.07003 0.1008 0.0024767 -0.075949 0.366 0.12431 0.04654 
0.018425 -0.11787 0.12727 -0.028926 -0.10653 0.23463 0.1294 0.062652 
-0.05326 0.033551 0.086163 -0.026296 -0.070359 0.065612 0.13351 0.078765 
-0.072825 0.10195 0.076463 -0.036818 0.0069159 -0.020541 0.11017 0.10228 
0.022864 0.04654 0.1003 -0.026624 0.10096 -0.031557 0.0421 0.039634 
0.11609 -0.066084 0.11543 0.028947 0.15423 0.0023123 -0.030735 0.0018191 
0.10639 -0.06444 0.050486 0.10573 0.16081 -0.048327 -0.011005 0.020727 
0.10129 -0.032872 -0.020212 0.13154 0.14848 -0.046683 1.0539e-005 0.033222 
0.14223 -0.013636 -0.052437 0.10359 0.090274 -0.145 0.00050378 -0.0014692 
0.10293 0.018425 -0.045039 0.064296 0.0014903 -0.14878 0.013328 0.01152 
0.028619 0.052787 -0.028269 0.035524 -0.058192 -0.0095255 0.0060938 0.022864 
-0.015938 0.098988 -0.0022913 -0.020212 -0.068714 0.26866 -0.024487 0.0039565 
0.018425 0.15768 0.0054362 -0.032872 -0.030242 0.58697 -0.041422 0.0060938 
0.025166 0.16821 0.040456 -0.017911 0.017767 0.65241 0.040456 0.0093821 
-0.0039354 0.14897 0.075312 0.04917 0.059364 0.37175 0.071859 0.059857 
-0.0027845 0.093562 0.044238 0.046211 0.089452 0.026974 0.052952 0.036017 
0.098494 0.031742 0.052459 0.062159 0.1174 -0.032543 0.061666 0.03388 
0.046211 0.03092 0.0074092 0.066269 0.12431 0.080573 0.12316 0.086657 
-0.049314 0.098659 0.018425 0.072353 0.11181 0.10836 0.12381 0.12332 
-0.10637 0.096521 0.022864 0.056569 0.0087245 0.016781 0.069722 0.090931 
-0.075455 0.048184 0.025988 0.026646 -0.10012 -0.11491 0.011355 0.038319 
0.03799 -0.030242 0.011191 -0.021363 -0.18463 -0.19498 -0.073154 -0.043395 
0.15982 -0.072003 0.026317 -0.063618 -0.13432 -0.17394 -0.10225 -0.063453 
0.17363 -0.076277 0.07038 -0.045368 -0.034352 -0.054246 -0.069043 -0.026624 
0.13401 -0.15618 0.15308 -0.040764 0.0031344 0.1003 0.0028056 0.0079024 
0.16344 -0.25319 0.30927 -0.068057 0.028947 0.19369 0.061995 -0.034516 
0.30089 -0.17197 0.31569 -0.059672 0.1636 0.33213 0.10622 -0.028269 
0.20257 0.13779 0.079094 0.092247 0.34906 0.39312 0.13927 0.043745 
-0.12922 0.40233 -0.26733 0.24252 0.30253 0.36139 0.17643 0.16788 
-0.26174 0.3831 -0.32356 0.25058 0.13072 0.22098 0.12612 0.16607 
-0.18972 0.23068 -0.1404 0.087479 -0.047834 0.065447 0.012835 0.089616 
-0.18413 0.21424 0.011684 -0.0075525 -0.11113 -0.021363 -0.025638 0.045553 
-0.36778 0.24597 0.0028056 -0.0088678 -0.07562 -0.010348 0.0034632 0.073832 
-0.31254 0.11214 -0.034023 0.049499 -0.026953 0.036675 0.046704 0.14354 
0.092576 -0.011992 0.064296 0.031249 0.012177 0.025495 0.032236 0.032893 
0.49966 -0.16194 0.18218 -0.014293 0.042429 0.016123 -0.018897 -0.12231 
0.49506 -0.2014 0.19665 -0.028433 0.027961 -0.009361 -0.016431 -0.16391 
0.25584 -0.14237 0.065283 0.0031344 0.0044497 -0.052931 -0.015773 -0.066577 
-0.012978 -0.028597 -0.0034422 -0.031228 -0.048985 -0.12692 0.0046141 0.0060938 
-0.045368 -0.0047575 0.053609 -0.01939 -0.062302 -0.14813 0.0054362 0.040456 
0.064296 -0.072496 0.1636 0.0093821 0.03947 -0.13053 0.0021479 0.023357 
0.084848 -0.0022913 0.10425 0.067585 0.035524 -0.12922 0.0093821 0.060515 
-0.0026201 0.087314 0.02122 0.056569 0.0037921 -0.12955 0.023193 0.058377 
-0.023994 0.11411 0.0059294 0.037168 0.021384 -0.13349 0.035524 0.06331 
-0.00081153 0.089452 0.027468 0.041278 -0.004593 -0.096007 0.036839 0.038648 
0.00099702 0.089123 0.03799 0.029769 0.047855 -0.084498 0.012835 0.042594 
-0.029748 0.11494 -0.02942 0.032729 0.060515 -0.15635 0.022042 0.031742 
-0.021856 0.15653 -0.037311 0.035524 0.038155 -0.34542 0.0041209 0.037497 
-0.019226 0.1733 -0.0011404 0.031085 -0.006566 -0.45574 0.0056006 0.0064227 
-0.0016336 0.17462 0.014643 0.027303 -0.012649 -0.37255 -0.0019624 0.024179 
-0.0032777 0.13368 0.021713 -0.017088 -0.016266 -0.14171 -0.0026201 0.028454 
-0.0042642 0.025166 0.020891 -0.0016336 -0.0080457 0.13499 -0.014293 0.052459 
-0.010019 -0.0027845 0.01415 0.042923 0.01267 0.35498 -0.059507 -0.0013048 
0.066269 0.0093821 -0.035667 0.066763 0.0421 0.34857 -0.047505 -0.023501 
0.12497 0.031578 -0.006566 0.083368 0.058542 0.12135 0.0047785 -0.0029489 
0.055418 0.015137 0.046211 0.040292 0.0067515 -0.041915 0.090603 0.0032988 
0.020727 -0.041751 0.12661 0.025659 0.0021479 0.0037921 0.16952 0.057062 
0.038155 -0.055726 0.11181 0.021878 0.037661 0.14881 0.15144 0.018754 
0.072353 -0.038956 0.078107 0.027303 0.045224 0.13927 0.066927 -0.0054151 
0.070708 -0.029748 0.053774 -0.006566 0.039141 0.0075736 -0.025802 -0.039942 
0.093562 -0.0019624 0.071202 0.0039565 0.054103 -0.03057 -0.046683 0.0031344 
0.097179 0.068078 0.023193 0.036182 0.11921 -0.011663 -0.0064016 0.0014903 
0.081231 0.091753 0.036839 0.068242 0.18399 -0.00097594 0.049006 0.034702 
0.08715 0.11839 0.004943 0.040621 0.10063 -0.06148 0.06479 0.016945 
0.092904 0.16048 -0.052437 0.061995 -0.027282 -0.16079 0.027632 0.01974 
0.098823 0.14667 -0.068879 0.020233 -0.086636 -0.20896 -0.030735 0.0079024 
0.047362 0.078107 0.034044 -0.012978 -0.092719 -0.18775 -0.046683 0.04506 
-0.035667 -0.037147 0.16607 -0.038462 -0.05326 -0.14829 -0.023829 0.059364 
-0.098967 -0.098309 0.11477 0.0080668 -0.0067304 -0.12955 -0.01232 0.054596 
-0.20518 -0.10521 0.0421 0.023028 -0.003771 -0.075455 -0.0040998 0.030263 
-0.19153 -0.043395 0.015959 0.073832 0.025495 0.048513 0.012999 0.056898 
-0.097322 0.071366 0.046046 0.061666 0.049335 0.18826 0.062817 0.054925 
0.043251 0.11263 0.047362 0.037497 0.073668 0.34117 0.096028 0.054596 
0.13664 0.064461 0.064132 0.016945 0.04358 0.45708 0.12644 0.041607 
0.10277 0.072846 0.054432 0.033715 0.060844 0.52942 0.15801 0.051965 
0.051308 0.079916 -0.029748 0.10228 0.042923 0.4413 0.14519 0.060022 
0.062488 0.11378 0.0051074 0.06594 0.067913 0.23545 0.090767 0.040621 
0.1008 0.11937 0.051308 0.0065871 0.058871 0.025824 0.0042853 0.02533 
0.079258 0.10589 0.021384 -0.047505 -0.048163 -0.17558 -0.038627 -0.0021268 
0.037497 -0.0036066 0.049664 -0.01117 -0.053588 -0.24447 -0.03912 0.017274 
0.049992 -0.15043 0.14963 -0.032379 -0.0016336 -0.23198 -0.053917 -0.029584 
0.064296 -0.087786 0.12842 -0.0032777 0.057555 -0.077264 -0.089102 -0.022185 
-0.037147 0.13615 0.00017495 0.057391 0.035688 0.10655 -0.082854 0.013657 
-0.077922 0.22328 -0.11212 0.16886 0.033222 -0.035667 -0.016924 0.038319 
-0.072496 0.15982 -0.14303 0.15966 0.070051 -0.49372 0.086985 0.095864 
-0.11672 0.12513 -0.082032 0.071695 0.05476 -0.68675 0.13713 0.14864 
-0.15618 0.086657 0.010204 -0.047176 0.0067515 -0.5054 0.12595 0.092247 
-0.019884 0.0074092 0.1733 -0.056055 -0.014787 0.0069159 0.021056 0.023522 
0.18991 -0.21471 0.22246 -0.05737 0.037826 0.57727 -0.033201 -0.040271 
0.32835 -0.25779 0.14749 -0.031392 0.092576 0.93734 -0.0032777 -0.041422 
0.24712 -0.040928 -0.0073881 0.034537 0.17725 0.9495 0.083533 0.0067515 
0.14996 0.18218 -0.052602 0.082217 0.21506 0.77226 0.17363 0.067749 
0.071037 0.23874 -0.040928 0.07038 0.10918 0.57151 0.17133 0.018096 
0.034702 0.10556 -0.013143 0.031085 0.033222 0.47862 0.12266 0.046868 
-0.065426 0.019576 -0.017746 0.04358 0.00297 0.43752 0.062159 0.056076 
-0.11985 0.058377 -0.0034422 0.057391 -0.014951 0.29612 -0.0029489 0.088794 
-0.05178 0.079258 0.038977 -0.011663 -0.10357 -0.20173 -0.084169 0.029441 
0.064132 0.11313 0.035688 -0.025967 -0.083347 -0.65205 -0.066084 0.013821 
0.05476 0.069393 0.045224 -0.0073881 -0.0096899 -0.74413 -0.029748 0.023686 
0.034373 0.0016547 0.054267 0.055582 0.052952 -0.5756 -0.003771 0.027796 
-0.0019624 0.0069159 0.061666 0.077943 0.012177 -0.38192 0.0047785 0.028619 
-0.021034 0.054267 0.052952 0.035853 -0.046519 -0.43388 0.0085601 0.040128 
-0.043395 0.081724 0.046868 0.025001 -0.0091966 -0.53203 -0.024323 0.068242 
-0.059343 0.18317 -0.027118 0.08304 0.069393 -0.49981 0.028454 0.068407 
-0.062631 0.1641 -0.063618 0.056733 0.16048 -0.23905 0.085341 0.12168 
0.066598 0.055747 0.018918 0.088794 0.16771 0.063474 0.062488 0.073175 
0.26242 -0.085978 0.11987 0.066105 0.14469 0.21737 -0.0082102 -0.014293 
0.20454 -0.068057 0.099152 0.035853 0.096686 0.49391 -0.062467 -0.082525 
0.041607 0.06331 -0.009361 0.024015 0.062488 0.72162 -0.014293 -0.026953 
-0.016595 0.11231 -0.0011404 0.0047785 -0.039778 0.59207 0.058049 -0.019884 
0.039799 -0.0052507 0.057062 -0.033859 -0.11442 0.40957 0.059528 -0.046847 
0.12398 -0.061809 0.042758 -0.054246 -0.10521 0.43406 0.036675 -0.074798 
0.098659 0.019411 -0.095514 0.011355 -0.018897 0.58138 0.026152 0.022371 
0.082711 0.055582 -0.11409 0.024179 0.00050378 0.50131 0.0075736 0.055254 
0.036675 0.03092 0.03092 0.031578 0.0070803 0.32226 -0.013471 0.078765 
-0.018075 -0.0032777 0.11148 -0.0016336 0.035195 0.14091 0.067913 0.08863 
0.026317 -0.032708 0.1271 -0.029913 0.026974 -0.11755 0.11362 0.013164 
0.13779 -0.063782 0.14782 -0.019061 0.051636 -0.33474 0.049335 -0.023336 
0.10277 -0.0021268 0.13039 0.058706 0.07301 -0.41382 0.041607 0.020891 
0.015794 0.058049 0.048348 0.071037 0.09422 -0.41859 0.035524 0.050486 
0.030756 0.10836 -0.0080457 0.086492 0.020727 -0.37502 0.018754 0.064954 
0.005765 0.11395 -0.054739 0.081067 0.0046141 -0.33375 -0.0022913 0.049828 
-0.035832 0.094548 -0.015938 0.075148 0.015301 -0.31155 -0.033201 0.052787 
-0.04471 0.056898 0.01267 0.036182 0.034702 -0.26042 -0.03353 0.022371 
0.034866 0.028947 0.035031 0.034866 0.023028 -0.15898 -0.028926 -0.059836 
0.10458 0.013492 0.027468 0.0044497 -0.00081153 0.028619 -0.0057439 -0.094199 
0.087972 0.0028056 0.0689 -0.0070593 -0.0072237 0.21687 0.013328 -0.056383 
0.040621 -0.030242 0.10967 -0.028926 -0.022843 0.29168 0.069064 0.014808 
-0.018239 -0.0082102 0.095699 -0.014458 -0.06148 0.27606 0.083204 0.060022 
-0.045368 0.089123 0.039634 0.012177 -0.050793 0.25567 0.096028 0.10622 
-0.047012 0.14009 -0.0047575 0.0054362 -0.03764 0.29349 0.091589 0.065283 
-0.067892 0.13631 -0.017911 -0.014129 0.0052718 0.34413 0.07038 0.045882 
-0.12642 0.11921 -0.040271 0.01563 0.019083 0.23381 0.03651 0.059364 
-0.084498 0.072517 0.057062 0.0019835 0.018425 0.0088889 0.024508 0.03388 
0.098494 0.091753 0.092082 -0.031721 0.022864 -0.14517 0.02681 -0.022514 
0.15801 0.082217 0.088301 0.0067515 0.075312 -0.20205 0.013657 0.013821 
0.13894 -0.037147 0.020069 0.047362 0.09833 -0.26486 0.025824 0.045882 
0.088958 -0.037147 -0.038791 0.1368 0.17988 -0.2476 0.051801 0.10606 
0.094055 0.044731 -0.041751 0.14437 0.16903 -0.25368 0.063803 0.079258 
0.033058 0.22707 -0.058356 0.13549 0.097672 -0.22425 0.063968 0.056404 
-0.17131 0.33624 -0.053753 0.071531 -0.00015387 -0.121 0.078765 0.078436 
-0.34296 0.29283 -0.0088678 -0.0016336 -0.076606 0.020233 0.049992 0.07038 
-0.21356 0.026646 0.1202 -0.070687 -0.16901 -0.015444 -0.023829 -0.032708 
0.048348 -0.1205 0.11905 -0.11163 -0.19531 -0.14599 -0.055068 -0.073647 
0.25584 -0.21636 0.10819 -0.087293 -0.089266 -0.096336 -0.00097594 -0.083018 
0.45445 -0.26519 0.14486 -0.09239 -0.040106 0.05772 0.031907 -0.092883 
0.5189 -0.25302 0.15028 -0.063782 0.031907 0.12003 -0.001798 -0.11722 
0.30434 -0.18561 0.054432 0.059857 0.13006 0.14371 -0.018404 -0.06 
-0.00015387 -0.052931 -0.056219 0.12085 0.17166 0.11165 -0.0072237 0.057555 
-0.11837 0.062652 -0.074469 0.14913 0.11395 0.032071 0.0060938 0.097837 
-0.10768 0.10589 -0.0088678 0.10721 0.080244 -0.032215 -0.003771 0.13878 
-0.1062 0.18974 0.044238 0.080244 0.067256 -0.11804 0.017767 0.14437 
-0.12544 0.21342 0.041936 0.047855 0.030098 -0.19663 0.03947 0.14256 
-0.13415 0.25732 0.014643 0.074326 0.024673 -0.22918 0.073175 0.095535 
-0.12527 0.26061 0.033387 0.012177 0.0088889 -0.2351 0.062652 0.13631 
-0.070523 0.17001 0.076134 -0.016595 -0.001798 -0.18019 0.067749 0.05624 
0.045389 0.023193 0.11198 -0.019226 -0.0052507 -0.03057 0.068571 0.064296 
0.17347 -0.11311 0.1368 -0.0090322 0.023193 0.11296 -0.0024557 0.0031344 
0.13812 -0.081539 0.04654 0.0041209 0.13401 0.15012 -0.077922 0.042758 
-0.059672 0.049006 -0.064275 0.097015 0.17166 0.16229 -0.017582 0.07301 
-0.11146 0.13878 -0.091075 0.11609 0.09833 0.14963 0.039141 0.085341 
0.071859 0.12694 -0.11245 0.031578 -0.049149 0.12661 0.023193 -0.017746 
0.13269 0.13713 -0.066741 -0.02087 -0.10127 -0.0059084 -0.023172 -0.071345 
0.095206 0.053938 0.040128 -0.02794 -0.076935 -0.16424 -0.019884 -0.047341 
0.10524 -0.032872 0.1276 0.028125 0.028454 -0.29495 0.0074092 0.023193 
0.12151 -0.097816 0.11411 0.035195 0.12069 -0.30991 0.017274 0.03388 
0.11296 -0.10373 0.12233 0.0046141 0.095371 -0.24546 -0.0055795 0.023522 
0.095699 -0.054575 0.091753 0.0088889 0.031578 -0.16243 -0.025638 0.0052718 
0.046375 -0.016431 0.043251 0.061995 0.0042853 -0.047176 -0.023665 0.019576 
-0.0027845 0.041772 -0.023994 0.071695 0.025659 0.2195 0.022206 0.052787 
-0.062467 0.054267 -0.012649 0.075805 0.042758 0.3946 0.034866 0.060022 
0.0079024 0.021549 0.057555 0.040128 0.014808 0.46497 0.0227 0.071531 
0.046704 0.051801 0.080738 0.078107 0.02681 0.34035 0.08304 0.074326 
-0.04323 0.18202 -0.0057439 0.10984 0.094548 0.16771 0.16969 0.14453 
-0.067728 0.18942 -0.091239 0.11444 0.13269 0.020069 0.14075 0.11806 
-0.031228 0.069064 -0.035503 0.051965 0.088301 -0.23148 0.061172 0.054596 
-0.013965 -0.05589 0.057391 0.022042 -0.023007 -0.48271 0.039963 0.014972 
0.024508 -0.065755 0.094548 -0.031228 -0.11607 -0.46906 0.010697 -0.025309 
0.11707 -0.074962 0.083368 -0.042079 -0.099953 -0.23444 -0.014787 -0.023994 
0.20553 -0.14352 0.17988 -0.16375 -0.084498 0.11757 -0.084334 -0.08532 
0.12842 -0.018239 0.2657 -0.18939 0.012506 0.43423 -0.10834 -0.10735 
-0.053424 0.15472 0.15949 -0.10308 0.16969 0.7864 -0.039449 -0.026624 
-0.080881 0.26011 -0.052109 0.099481 0.23134 0.85727 0.098659 0.034373 
-0.081868 0.36369 -0.27785 0.27212 0.16245 0.70206 0.21654 0.12529 
-0.13843 0.37241 -0.33917 0.33689 0.072681 0.52614 0.23035 0.1174 
-0.14928 0.16936 -0.16868 0.16821 -0.041422 0.38951 0.15127 0.099316 
0.041772 -0.13793 0.087314 -0.011005 -0.042901 0.31585 0.086328 0.0041209 
0.21194 -0.29561 0.19385 -0.044217 0.039141 0.1202 0.045553 -0.015773 
0.21819 -0.25615 0.18267 -0.026624 0.07038 -0.22606 0.055089 -0.02794 
0.16821 -0.13103 0.1174 -0.035503 0.041772 -0.42993 0.032071 0.012013 
0.12184 0.011355 0.072188 0.0014903 0.009711 -0.38472 0.036182 0.047033 
0.06594 0.10819 0.058049 0.063639 0.020891 -0.21603 0.032893 0.077778 
-0.013965 0.074161 0.10014 0.069886 0.063968 -0.029091 0.046046 0.097015 
0.020233 -0.011827 0.13417 0.017767 0.071859 0.086328 0.020727 0.037332 
0.11642 -0.066906 0.18728 -0.026789 0.0024767 0.14404 0.016123 -0.03057 
0.029934 0.068078 0.11165 -0.0026201 0.010369 0.22772 0.036017 -0.024816 
-0.13497 0.29004 -0.10489 -0.025145 -0.012485 0.23973 0.054432 -0.00081153 
-0.25763 0.39756 -0.2573 0.028125 0.009711 0.19435 0.044567 0.017274 
-0.22507 0.29415 -0.218 0.092904 0.031907 0.20306 0.069064 0.038155 
0.010697 0.12398 -0.038956 0.14338 0.054103 0.17955 0.093726 0.01711 
0.21506 -0.013965 0.051636 0.071695 0.050486 0.14716 0.078765 0.037497 
0.22739 -0.084005 0.085506 0.03799 0.021056 0.095042 0.020233 0.0079024 
0.11132 -0.027118 0.059528 0.019411 -0.014458 -0.059836 -0.0039354 0.016781 
-0.089266 0.085341 0.046704 0.03536 -0.064111 -0.17542 0.010697 0.02829 
-0.3127 0.24285 0.020891 0.016781 -0.030077 -0.16111 0.015301 0.071695 
-0.3035 0.1128 0.057062 0.020562 0.046868 -0.023994 0.037497 0.073175 
0.068571 -0.2203 0.18103 -0.0034422 0.067749 0.090438 0.010533 0.0227 
0.36912 -0.33852 0.20372 -0.010348 0.025001 0.1373 -0.052109 -0.050958 
0.3831 -0.14632 0.09126 0.014972 0.051965 0.11576 -0.06 -0.023829 
0.16821 0.10803 -0.066906 0.059857 0.10951 0.15719 0.00033937 -0.0024557 
-0.025145 0.20701 -0.12823 0.071531 0.097837 0.33377 0.05772 0.051472 
-0.043888 0.15357 -0.059672 0.044402 0.017438 0.35712 0.085999 0.038977 
0.082217 0.056076 0.060844 -0.0016336 -0.061151 0.11231 0.072846 0.015959 
0.1442 0.014315 0.096357 0.00297 -0.019884 -0.16309 0.033551 0.004943 
-0.0080457 0.019905 0.098988 0.033551 0.0324 -0.41152 0.037332 0.028125 
-0.093212 -0.0057439 0.099316 0.040785 0.0098754 -0.70894 0.02122 0.042758 
0.0059294 -0.12642 0.10639 -0.0027845 -0.016266 -0.65123 -0.014458 -0.0024557 
0.1391 -0.10587 0.058706 0.01826 -0.0050863 -0.35611 -0.0098543 0.0014903 
0.085506 0.011848 0.022042 0.021056 -0.00031829 -0.13958 -0.035832 0.039141 
0.048348 0.067585 0.034702 0.021384 -0.0022913 0.13203 -0.048492 0.041607 
0.054596 0.09833 0.041443 0.0039565 0.0064227 0.24071 -0.063124 0.010204 
0.080902 0.11165 0.03388 0.0075736 -0.022679 0.11724 -0.078744 0.010697 
0.033387 0.15735 0.0056006 0.015137 -0.00015387 -0.067399 -0.020377 0.016123 
-0.0024557 0.20027 -0.059178 0.033551 0.051636 -0.10456 0.053609 0.06479 
-0.034023 0.22789 -0.13547 0.067913 0.11494 -0.056548 0.051636 0.070215 
-0.024158 0.22723 -0.10932 0.085999 0.081724 0.029934 0.027139 0.0689 
0.074983 0.14239 -0.012649 0.066105 0.01267 0.048019 -0.026624 -0.0082102 
0.11872 0.029441 0.072681 -0.014293 -0.047176 -0.10801 -0.061316 0.0069159 
-0.0068948 -0.056055 0.16212 -0.055068 -0.071016 -0.24825 -0.048985 0.024344 
-0.24497 -0.07414 0.17232 -0.028269 -0.046847 -0.21882 0.00099702 0.081231 
-0.29561 -0.023994 0.086985 0.063639 -0.023336 -0.12445 0.04506 0.0592 
-0.070852 -0.018897 -0.019884 0.11214 0.058377 -0.014622 0.053281 0.038155 
0.12546 -0.022843 0.035031 0.08567 0.084848 -0.011498 0.067091 -0.0095255 
0.27491 -0.096007 0.17807 0.0059294 0.090603 -0.015444 0.033715 -0.028762 
0.35317 -0.14993 0.22871 -0.063782 0.042429 1.0539e-005 0.03799 -0.033859 
0.21391 -0.051122 0.057062 -0.038956 0.048677 0.061501 0.046375 0.068242 
-0.038956 0.17117 -0.12462 0.063639 0.087808 0.061666 0.049335 0.099481 
-0.088115 0.21506 -0.13382 0.10754 0.068407 0.01711 0.0014903 0.087314 
-0.00015387 0.15966 -0.0088678 0.061172 0.051801 -0.06444 -0.0042642 0.081395 
0.04095 0.065447 0.096686 0.045882 0.080244 -0.20337 0.019411 0.057555 
0.036182 0.0085601 0.079587 0.040128 0.073668 -0.24349 0.011848 0.03388 
0.065118 0.037826 0.0014903 0.066763 0.028454 -0.26601 -0.0004827 0.0047785 
0.044731 0.084026 -0.012978 0.094713 0.055089 -0.20337 0.017932 0.01267 
0.016616 0.066598 0.025824 0.041772 -0.023829 -0.09387 0.030098 0.016781 
0.018096 0.05065 -0.043395 0.0070803 -0.13366 0.056733 0.0028056 0.0421 
0.016781 0.068242 -0.03912 0.022042 -0.16128 0.19353 0.013164 0.035195 
0.013164 0.011684 0.031414 -0.021528 -0.14007 0.35202 0.024015 0.027139 
-0.0050863 -0.015609 0.10951 -0.049149 -0.050629 0.4847 0.015465 -0.0067304 
-0.054904 -0.010512 0.094548 -0.038462 0.060186 0.61032 0.038812 0.039963 
-0.099295 0.081395 0.062652 0.044567 0.1807 0.71225 0.081231 0.068078 
0.0227 0.073175 0.071202 0.004943 0.21671 0.53764 0.13302 0.080902 
0.22115 -0.079401 0.18465 -0.0088678 0.18711 0.14387 0.084026 -0.010512 
0.32752 -0.10357 0.18629 0.0046141 0.068242 -0.1455 0.031249 -0.026953 
0.16936 0.08008 -0.016102 0.14108 0.011848 -0.12955 0.025001 0.0011614 
0.015794 0.097837 -0.10308 0.18366 0.040456 0.014643 0.026317 0.050321 
0.010369 -0.016266 -0.033365 0.094055 0.12233 0.0059294 0.016288 0.022371 
0.020233 -0.01117 -0.018568 0.02122 0.19616 -0.067399 0.03947 0.024837 
-0.030735 0.16558 -0.10686 0.052294 0.16278 -0.10209 0.065612 0.049664 
-0.083183 0.30927 -0.11064 0.046704 0.065118 -0.047341 0.043087 0.075805 
-0.13695 0.28067 -0.062467 0.015794 -0.049478 0.030756 0.060844 0.086985 
-0.11541 0.12381 0.055254 -0.015116 -0.076935 -0.0016336 0.034702 0.08008 
-0.016431 -0.037311 0.16837 -0.0027845 -0.081045 -0.2379 -0.006566 0.020562 
0.12924 -0.12873 0.1419 0.012835 -0.025474 -0.33983 -0.022514 -0.022021 
0.21852 -0.14895 0.095699 0.025001 0.00083261 -0.23839 -0.013143 -0.051122 
0.16081 -0.15405 0.069393 0.01152 -0.0138 -0.06855 0.0092177 -0.041915 
0.066763 -0.064275 0.061501 0.018754 -0.03353 0.1687 0.064461 -0.00064712 
0.040292 -0.032543 0.016616 -0.010019 -0.037311 0.38375 0.099152 0.0080668 
0.054596 0.0095465 0.022371 -0.0040998 0.011684 0.56905 0.077449 0.054925 
0.028619 0.094384 0.042923 0.052952 0.087972 0.56296 0.05772 0.039799 
0.020069 0.077614 0.12283 0.079094 0.17824 0.40924 0.036017 0.060186 
0.017438 0.013657 0.14617 0.065447 0.18596 0.14469 0.050486 0.07038 
0.0079024 -0.0026201 0.072681 0.074326 0.13861 -0.060494 0.10737 0.092411 
0.00297 0.055582 -0.033365 0.067256 0.029112 -0.16013 0.067256 0.026481 
0.0044497 0.11132 -0.098473 0.0023123 -0.085156 -0.16818 -0.030077 -0.017417 
0.019905 0.098494 -0.11607 -0.0026201 -0.12133 -0.1667 -0.098473 -0.054904 
0.082546 0.013328 -0.02087 -0.0068948 -0.067399 -0.055561 -0.07825 -0.030899 
0.17232 -0.045696 0.095699 -0.012978 -0.021528 0.014479 -0.055561 -0.020541 
0.18695 -0.0087034 0.13203 -0.01528 0.030098 -0.049149 0.014315 -0.012485 
0.053774 0.11461 0.049664 0.014315 0.1031 -0.16703 0.072353 0.027796 
-0.06444 0.14519 -0.021199 0.064954 0.08419 -0.047669 0.094713 0.082711 
-0.12889 0.18415 -0.052931 0.10441 0.043909 0.14848 0.066434 0.10178 
-0.31221 0.33196 -0.10686 0.076463 0.018425 0.34018 0.071531 0.15144 
-0.40165 0.30533 -0.05441 0.049992 -0.072003 0.36731 0.057227 0.14058 
-0.21734 -0.00015387 0.06479 -0.015773 -0.1404 0.34298 0.025166 0.10293 
0.1659 -0.22935 0.19649 -0.072825 -0.11245 0.25271 0.030756 -0.017746 
0.56905 -0.30169 0.30878 -0.16539 0.009711 0.12168 0.028454 -0.14566 
0.63909 -0.1769 0.23578 -0.083512 0.19122 0.093726 0.049006 -0.15388 
0.27771 -0.014293 0.045882 0.10145 0.31141 0.11 0.063803 -0.034023 
-0.029913 0.082217 -0.16851 0.25403 0.25485 0.084355 0.072188 0.081067 
-0.10653 0.12135 -0.14944 0.17445 0.058542 -0.15421 0.023686 0.08304 
-0.10702 0.11609 -0.023007 0.062652 -0.044052 -0.34707 -0.033201 0.066927 
-0.093376 0.075312 0.13302 -0.033365 -0.095678 -0.41974 -0.045861 0.040785 
-0.086964 0.013164 0.18777 -0.12215 -0.15043 -0.39623 -0.063782 0.056733 
-0.066084 0.041772 0.063803 -0.10735 -0.13514 -0.33013 -0.037969 0.047691 
0.023193 0.1128 -0.046354 0.026317 -0.009361 -0.21471 0.005765 0.03947 
0.059364 0.19435 -0.13777 0.14272 0.11411 -0.088115 0.044073 0.029934 
-0.00097594 0.19879 -0.074304 0.14157 0.11099 -0.0070593 0.085835 0.044073 
-0.033037 0.11033 0.012342 0.054267 0.010204 0.01152 0.033715 0.031249 
-0.032215 0.038648 0.051143 -0.0049219 -0.083018 0.023193 0.00033937 0.036675 
-0.016102 0.0227 0.046868 0.018754 -0.066906 0.070873 -0.03764 0.016452 
0.0070803 0.045718 0.074819 -0.0039354 -0.0059084 0.1932 -0.032215 0.029934 
-0.023829 0.020069 0.090767 -0.010348 0.060186 0.24959 0.015301 0.032564 
0.011684 0.017438 0.069722 -0.0050863 0.055089 0.29037 0.086163 0.067585 
0.048348 0.043909 0.020233 0.053281 0.031742 0.24696 0.089287 0.019247 
0.0060938 0.093891 -0.031064 0.026317 0.030098 0.13631 0.062981 0.044238 
-0.003771 0.16377 0.0064227 0.027796 0.050486 0.0090533 0.047526 0.045389 
0.079094 0.13088 -0.0078813 0.031414 0.09126 -0.035338 0.037826 0.048841 
0.063474 0.12168 -0.033037 0.069886 0.084848 -0.032872 0.028947 0.036017 
0.0088889 0.11494 -0.042737 0.02681 0.04654 -0.065591 -0.013471 0.015137 
0.023028 0.068571 0.03092 0.0031344 0.0083956 -0.073647 -0.02646 0.0060938 
0.078272 0.030427 0.01004 0.03092 0.021549 -0.078415 -0.019555 -0.0027845 
0.057227 0.062488 -0.0078813 0.05772 -0.0091966 -0.12231 0.019083 0.017767 
-0.0070593 0.083204 0.023522 -0.0029489 -0.034516 -0.12511 0.071859 0.0032988 
-0.045039 0.02681 0.10787 -0.031392 -0.04619 -0.15355 0.059035 0.041936 
-0.036489 -0.08121 0.17791 -0.0024557 0.011191 -0.14023 0.048677 0.035688 
-0.0091966 -0.057863 0.075148 0.02681 0.043087 -0.17509 0.025495 0.018589 
0.10787 -0.004593 -0.060658 0.06035 0.054103 -0.16046 -0.01117 -0.049478 
0.16755 0.04358 -0.091568 0.073175 0.060515 -0.13629 -0.054575 -0.027118 
0.045882 0.075476 -0.073811 0.080902 0.11099 -0.087129 -0.0014692 0.016288 
-0.0073881 -0.025638 -0.012649 0.059693 0.15028 0.06594 0.063145 0.085999 
0.052952 -0.053753 0.094713 0.022206 0.082875 0.18235 0.090603 0.05065 
0.16459 -0.052766 0.17051 -0.041422 0.019576 0.15933 0.036839 0.041443 
0.15308 -0.017582 0.18629 0.0072447 -0.014787 0.14469 0.040456 0.02122 
0.0070803 0.097344 0.14223 0.046704 0.00066819 0.23759 0.071202 0.097508 
0.0018191 0.019083 0.063803 0.027139 0.045389 0.18432 0.013492 0.080902 
0.040785 -0.072496 0.085999 -0.0080457 0.056076 0.0013258 -0.010676 0.074983 
0.082546 0.063968 0.025824 0.01152 0.054267 -0.13448 -0.015773 0.0041209 
-0.0091966 0.23923 -0.063618 0.052294 0.075476 -0.21965 -0.016924 0.013492 
-0.13333 0.29859 -0.17394 0.072517 0.067585 -0.24036 0.0065871 0.062159 
-0.1667 0.16015 -0.14369 0.057884 -0.021692 -0.18463 -0.014293 0.040456 
-0.020048 -0.036654 0.013657 0.037004 -0.080552 -0.066413 -0.035174 -0.0080457 
0.12365 -0.18857 0.1105 0.012999 -0.088937 0.027468 -0.012649 -0.047176 
0.18054 -0.14665 0.096193 0.03092 -0.047998 0.036017 0.0092177 -0.031064 
0.13417 -0.068386 0.0786 0.020727 0.016123 0.059364 0.05476 0.012177 
0.075148 -0.034188 0.11757 0.048677 0.049664 0.11839 0.097344 0.052952 
0.047855 0.018096 0.13582 0.0028056 0.057884 0.17725 0.10737 0.082382 
0.029276 0.025166 0.13565 0.020562 0.068078 0.18448 0.071695 0.065612 
0.010204 0.089616 0.068736 0.028947 0.062159 0.12217 0.091589 0.044238 
0.0054362 0.094713 0.042429 0.037004 0.025495 0.051801 0.069393 0.04506 
0.029276 0.082217 0.038812 0.034866 0.041278 -0.0047575 0.039963 0.034537 
0.010204 0.045224 0.052623 0.03388 0.055582 0.00017495 0.028454 0.026481 
0.018425 0.070544 0.028125 0.044073 0.053116 -0.013143 0.023522 0.013492 
0.012835 0.12299 -0.039613 0.067256 0.05213 -0.12971 0.01004 0.028125 
-0.043395 0.20175 -0.10998 0.074326 0.024508 -0.16227 0.0083956 0.041443 
-0.14188 0.22164 -0.11064 0.079258 -0.0055795 -0.087951 0.03536 0.069064 
-0.17098 0.15357 -0.030406 0.047526 -0.019719 0.043251 0.087314 0.056733 
-0.056877 0.016123 0.073668 -0.010183 -0.0090322 0.16064 0.086163 0.038648 
0.15505 -0.18068 0.21441 -0.059178 0.0083956 0.15308 0.031085 -0.032872 
0.39164 -0.26782 0.25469 -0.033365 0.077285 0.12266 0.0087245 -0.058028 
0.36254 -0.14582 0.1687 0.052623 0.10376 0.15259 0.031578 -0.03501 
0.20043 -0.04471 0.026317 0.13598 0.17001 0.20783 0.017767 0.0079024 
0.083204 -0.061151 -0.12133 0.15292 0.16245 0.32604 0.044896 0.043416 
-0.02087 -0.023501 -0.18643 0.10704 0.038977 0.44837 0.056569 0.093233 
-0.1085 0.09126 -0.091404 -0.0019624 -0.096172 0.27606 0.033222 0.11559 
-0.13004 0.17577 0.07597 -0.075949 -0.12642 0.0054362 0.024015 0.072517 
-0.11508 0.159 0.13861 -0.10554 -0.051287 -0.20715 0.034537 0.0324 
-0.019884 0.070873 0.17051 -0.026953 0.025824 -0.26913 -0.015116 0.011191 
0.030098 0.053938 0.088136 0.086985 0.078765 -0.15141 -0.035503 0.019083 
0.018918 0.11872 -0.025967 0.12233 0.077614 -0.088773 -0.02646 0.023028 
0.0088889 0.18481 -0.12905 0.11888 0.016781 -0.15026 -0.03501 0.0093821 
0.034866 0.11494 -0.11607 0.075476 -0.026624 -0.15174 -0.037147 -0.01117 
0.058213 0.052952 0.00017495 0.036017 -0.064111 -0.014951 0.012013 0.010369 
0.11329 0.064132 0.086492 -0.018075 -0.038791 0.20734 0.098988 0.011355 
0.11461 0.13187 0.079258 -0.049807 0.04654 0.43982 0.16344 0.019083 
0.082382 0.081724 0.07038 -0.02235 0.08715 0.50871 0.16229 0.019576 
0.023028 -0.0022913 0.036017 0.04095 0.077449 0.42223 0.1465 0.049499 
-0.04882 0.014643 0.0034632 0.07038 0.071366 0.3387 0.11395 0.073339 
-0.063453 0.02829 0.043251 0.073997 0.047033 0.12727 0.070215 0.082711 
-0.070523 0.018754 0.026152 0.059035 0.047691 -0.19038 0.025988 0.08304 
-0.07266 0.1077 0.005765 0.069886 0.084848 -0.27604 -0.039449 0.073668 
-0.079895 0.14798 -0.017911 0.054103 0.039799 -0.16407 -0.027447 0.035195 
-0.0068948 0.11642 0.0014903 0.033222 0.019083 -0.059343 0.021549 -0.006566 
0.051801 0.070544 0.050486 0.025001 0.02681 -0.021856 0.033551 -0.00064712 
0.12628 0.027303 0.072024 -0.025967 0.0085601 0.047197 0.004943 -0.0036066 
0.26455 -0.074798 0.087643 -0.047176 -0.033694 0.051472 -0.039284 -0.042737 
0.24449 -0.12494 0.047526 -0.048163 -0.076771 0.01974 -0.078908 -0.017746 
0.093562 -0.025967 0.016452 0.0065871 -0.022843 0.12743 -0.072989 0.0074092 
-0.016431 0.062159 -0.02235 0.047855 0.057391 0.2708 -0.09387 0.019576 
-0.0057439 0.045224 0.021713 0.029441 0.05624 0.34725 -0.019884 0.045224 
-0.031064 0.084848 0.059528 0.020727 0.040785 0.37224 0.15324 0.08863 
-0.042573 0.10639 0.05772 0.031578 -0.017911 0.17626 0.18892 0.095699 
-0.05441 0.16212 -0.032708 0.044402 -0.01117 -0.058192 0.10606 0.071531 
-0.16029 0.25535 -0.055232 0.058871 0.071366 -0.15191 0.038648 0.077121 
-0.16621 0.19912 0.054267 0.051308 0.039305 -0.18775 0.00050378 0.060186 
-0.029255 -0.022185 0.2366 -0.025802 -0.025474 -0.35759 -0.026131 -0.0078813 
0.15883 -0.24957 0.25452 -0.072989 -0.031392 -0.44029 -0.081868 -0.080717 
0.28938 -0.29478 0.064461 0.0082312 0.078272 -0.34361 -0.096007 -0.048656 
0.30845 -0.13711 -0.10998 0.096028 0.12891 -0.15898 -0.092061 -0.052931 
0.20076 0.023193 -0.16966 0.066763 0.030592 -0.065755 -0.098144 -0.0026201 
0.040128 0.14042 -0.14681 0.013821 -0.012814 0.016781 -0.05178 0.012177 
-0.03057 0.21309 -0.11755 0.022864 0.025001 0.18202 0.027303 0.071695 
0.0031344 0.20586 -0.066248 0.059528 0.084355 0.30911 0.081889 0.072517 
-0.0055795 0.20355 -0.018075 0.064132 0.051143 0.29431 0.098659 0.067256 
-0.045203 0.19895 0.062159 0.043909 0.042265 0.33837 0.088465 0.034702 
-0.093376 0.11494 0.13878 0.0090533 0.0047785 0.23085 0.094384 0.07449 
-0.06148 -0.052931 0.20323 -0.031721 -0.016595 0.076956 0.12924 0.059693 
-0.036818 -0.12396 0.25896 -0.016595 -0.032215 -0.11113 0.1197 0.0421 
0.0042853 -0.16736 0.17791 -0.023994 -0.0070593 -0.17772 0.053774 0.0088889 
0.084026 -0.17624 0.11559 0.028125 0.020233 -0.15618 0.018096 -0.02235 
0.16541 -0.099953 0.0087245 0.031578 0.047362 -0.13415 -0.060658 -0.039613 
0.17149 0.01974 -0.0091966 0.034044 0.049664 -0.13284 -0.02942 -0.004593 
0.093562 0.13286 0.010697 0.029276 0.032729 -0.21899 0.0051074 0.057227 
0.030427 0.12957 0.06479 0.023686 0.037826 -0.21373 0.034537 0.067585 
0.00050378 0.030427 0.02533 0.039141 0.027303 -0.060823 0.033387 0.049828 
-0.0091966 0.022206 -0.013965 0.044073 0.03092 0.050486 0.022371 0.029112 
0.046704 0.06742 -0.069208 0.009711 0.029934 0.097837 0.016781 0.024179 
0.065118 0.10704 -0.047998 0.073668 0.041607 0.075312 0.031907 0.01826 
0.025988 0.08419 0.062981 0.081067 0.05476 0.030098 0.038648 0.045882 
-0.025309 0.022206 0.1276 -0.0062372 0.040621 -0.017746 0.024179 0.042594 
0.02122 -0.081045 0.17922 -0.071509 -0.0078813 0.016123 0.027796 0.018425 
0.055254 -0.047998 0.11658 -0.039942 -0.029255 -0.01528 0.027796 -0.0067304 
0.041936 0.11773 -0.025474 0.051143 0.031907 -0.072496 0.023193 0.015301 
-0.014622 0.15653 -0.14566 0.11231 0.07038 -0.056548 0.026646 0.028454 
0.011026 0.08156 -0.073811 0.072188 0.08863 -0.033201 0.054267 0.025824 
0.072024 -0.0050863 0.025824 0.020233 0.045718 0.029934 0.073668 0.017603 
0.029934 0.045882 0.031742 0.078929 0.048019 0.077121 0.099974 0.075641 
-0.027282 0.11033 -0.017746 0.083697 0.070544 0.15176 0.10852 0.1008 
-0.016431 0.16442 0.015301 0.028125 0.044402 0.17363 0.078929 0.068078 
0.014643 0.075641 0.094877 -0.031392 -0.015116 0.12546 0.070215 0.015137 
0.04654 -0.0022913 0.12858 -0.028926 -0.05441 0.050486 0.035688 0.017438 
0.00050378 0.0074092 0.099481 -0.01939 -0.034188 -0.018404 0.035195 0.016945 
-0.029913 0.064132 0.0052718 0.015137 -0.033037 -0.10127 0.049499 0.047855 
-0.062302 0.13779 -0.026131 0.044896 0.0095465 -0.087786 0.053445 0.053281 
-0.044381 0.071859 0.035688 0.032729 0.084026 -0.07003 0.071531 0.049664 
0.039963 -0.062631 0.12349 0.0018191 0.13253 -0.12182 0.057227 0.020727 
0.12003 -0.11837 0.10408 0.038319 0.15374 -0.1741 0.0093821 -0.039284 
0.19303 -0.088444 0.030427 0.052787 0.10639 -0.16983 -0.029584 -0.061809 
0.1636 0.038648 -0.0503 0.10178 0.034702 -0.094199 -0.011827 -0.038133 
0.010204 0.21589 -0.058356 0.1008 0.024015 0.027139 -0.0082102 0.051801 
-0.015609 0.17889 0.010697 0.10754 0.040292 0.1927 -0.018075 0.076792 
0.10589 -0.013636 0.10655 0.053281 0.022206 0.28741 0.012999 0.084026 
0.16262 -0.10998 0.13993 0.023522 0.041936 0.32571 0.071202 0.048019 
0.13993 -0.04882 0.097015 -0.02498 0.022042 0.35975 0.10063 -0.0095255 
-0.051287 0.10096 0.055089 -0.035503 -0.033694 0.36682 0.15341 0.0028056 
-0.35693 0.23463 -0.07266 -0.028926 -0.069536 0.13516 0.12858 0.076463 
-0.37222 0.28231 -0.1256 0.026481 -0.011005 -0.10061 0.09126 0.071859 
-0.085485 0.16969 -0.098802 0.084026 0.14239 -0.23527 0.076792 0.066763 
0.12381 0.023028 0.012835 0.081395 0.1442 -0.28097 0.010369 0.021713 
0.16853 -0.057699 0.077614 0.08156 0.10491 -0.33539 -0.041422 0.005765 
0.12677 -0.087458 0.084519 0.034209 0.046868 -0.19844 -0.03057 -0.022185 
0.071695 -0.047012 0.051636 -0.017911 -0.029584 -0.055232 -0.011498 0.0093821 
0.10359 0.026481 0.0059294 -0.026953 -0.11968 0.033058 -0.041915 -0.033694 
0.085999 0.050486 0.016123 0.011191 -0.10061 0.03651 -0.06 -0.017746 
0.01004 0.14963 -0.0047575 0.019083 -0.071345 0.037332 -0.08269 0.0079024 
-0.15405 0.23101 -0.014622 0.033222 -0.0067304 0.076792 -0.0406 0.056569 
-0.23066 0.20964 0.039799 0.0082312 0.050486 0.16525 -0.0016336 0.098659 
-0.092061 -0.0138 0.1613 0.020562 0.042923 0.21556 0.031578 0.063803 
0.3489 -0.2647 0.19221 -0.0019624 0.099316 0.27705 0.010369 -0.048163 
0.54882 -0.17427 0.10129 0.01826 0.16081 0.20043 -0.0083746 -0.1113 
0.35893 0.038812 -0.021363 0.072024 0.096521 0.027468 0.032071 -0.052602 
0.047197 0.095206 -0.076113 0.074161 0.0037921 -0.011827 0.076792 0.06331 
-0.11541 0.038648 -0.036489 0.041443 -0.003771 0.066598 0.1031 0.09833 
-0.15552 0.0051074 -0.025474 0.027303 0.019411 0.21391 0.081231 0.10195 
-0.13119 0.019083 0.0047785 0.0324 0.012999 0.15867 0.056733 0.079916 
0.013657 0.02533 0.057555 0.0037921 -0.024487 -0.034023 -0.0050863 0.023522 
0.073997 0.074326 0.060022 -0.021199 -0.014129 -0.13777 -0.0052507 0.025824 
-0.027118 0.17478 -0.0027845 0.010204 0.027139 -0.10456 0.013164 0.049335 
-0.051615 0.1955 -0.020048 0.0324 0.03947 -0.043066 0.029276 0.082711 
-0.00097594 0.10573 0.047691 0.029769 -0.0060728 -0.033201 0.026974 0.063145 
-0.023336 0.17495 0.038319 0.01152 0.038155 0.0046141 0.035688 0.078272 
-0.099789 0.2486 -0.063289 0.042594 0.092904 0.12332 0.035524 0.044402 
-0.034352 0.19698 -0.069701 0.064625 0.065118 0.13006 0.016616 -0.022185 
0.043745 0.036839 0.0075736 0.017438 0.022535 0.099481 -0.011992 -0.061151 
0.078272 -0.16325 0.14535 0.01152 -0.040271 0.029934 -0.016431 -0.019226 
0.075476 -0.16917 0.17725 0.019411 -0.044052 -0.027775 -0.014951 0.013492 
0.0051074 0.01267 0.025001 0.053938 0.005765 -0.053588 0.0082312 0.088465 
0.0051074 0.086821 0.021878 0.020398 0.081889 -0.03912 0.034044 0.083697 
0.1271 -0.018075 0.095699 0.023193 0.10195 -0.20551 0.043251 0.065283 
0.2343 -0.19597 0.15012 0.0070803 0.019411 -0.33227 0.019247 0.020069 
0.21556 -0.15865 0.044402 0.059364 -0.040435 -0.19153 -0.022679 -0.030735 
0.13105 -0.056712 0.011848 -0.003771 -0.073482 0.081395 -0.060987 -0.045368 
0.010862 -0.0013048 0.038483 -0.064275 -0.047669 0.37931 -0.033694 -0.023829 
0.01711 0.017438 0.050979 -0.031228 0.01711 0.51923 0.01004 0.02533 
0.11724 -0.047176 0.071202 0.0786 0.091425 0.45281 0.061666 0.03388 
0.085506 0.027961 0.016123 0.13927 0.16788 0.41664 0.1174 0.08008 
-0.046847 0.16508 -0.043559 0.16278 0.18021 0.40085 0.18629 0.11296 
-0.1062 0.20997 -0.067892 0.089616 0.11773 0.31684 0.18399 0.13631 
-0.079072 0.18761 -0.015116 0.032236 -0.0029489 0.17281 0.10984 0.06479 
-0.025145 0.11707 -0.028597 -0.0088678 -0.01939 -0.12577 0.029276 0.044731 
0.0037921 0.11346 -0.023501 0.0023123 -0.004593 -0.46873 -0.0072237 0.012999 
-0.033037 0.13056 0.012342 0.021056 0.0074092 -0.56787 -0.044381 0.02533 
-0.029091 0.12661 0.080244 0.037332 -0.01528 -0.42944 -0.019555 0.015137 
0.083368 0.022535 0.085341 -0.0055795 -0.015938 -0.24365 -0.010841 -0.0029489 
0.14091 -0.025145 0.087643 -0.011827 -0.0049219 -0.03616 -0.014293 -0.016431 
0.10063 -0.022679 0.068407 0.024837 0.044073 0.099481 -0.001798 0.013328 
0.029769 0.017603 0.048019 0.032729 0.041278 0.10967 0.036675 0.027139 
-0.024487 0.070873 0.058049 0.016452 0.01711 0.099974 0.037168 0.075312 
-0.076113 0.082053 -0.017582 0.055254 0.017274 0.11461 0.060515 0.06742 
-0.06296 0.073339 -0.025309 0.086985 0.0421 0.092411 0.046704 0.059364 
0.015137 0.0016547 0.048841 0.064461 0.037497 0.038977 0.0011614 0.013821 
0.14782 -0.09798 0.17922 -0.014951 -0.02794 -0.11639 -0.033037 -0.029091 
0.26324 -0.1598 0.18909 -0.079237 -0.0026201 -0.26996 -0.037476 -0.080552 
0.22526 -0.11886 0.13154 -0.043066 0.07038 -0.21077 -0.012814 -0.040106 
0.14371 -0.071345 0.040128 -0.0024557 0.14075 -0.043559 0.039634 0.00066819 
0.028125 0.038155 -0.0082102 0.064954 0.13039 0.15209 0.06742 0.034044 
-0.058521 0.15176 -0.069865 0.099316 0.058871 0.30681 0.055911 0.058706 
-0.022185 0.16377 -0.09091 0.10688 0.011848 0.3535 0.071037 0.053609 
-0.043559 0.18284 -0.064275 0.076792 0.024015 0.29694 0.088465 0.073832 
-0.14517 0.21835 -0.04619 0.061995 0.045718 0.21753 0.11329 0.10885 
-0.12363 0.20158 -0.011005 0.029934 0.036839 0.16179 0.11543 0.09422 
0.023522 0.089452 0.0011614 0.01826 0.021878 0.098659 0.066763 0.030427 
0.099152 -0.02646 0.089945 -0.017746 -0.028762 -0.06444 0.037168 -0.013307 
0.093726 -0.050958 0.11822 -0.037805 -0.028269 -0.21225 0.0087245 -0.032379 
0.10392 -0.042901 0.10162 -0.0040998 -0.0068948 -0.43306 -0.010348 -0.039942 
0.074983 -0.0068948 0.042265 0.035195 -0.03205 -0.60964 -0.012978 -0.029584 
0.073504 0.0088889 0.034866 0.018589 -0.040106 -0.50342 -0.0072237 0.011355 
0.11724 0.00017495 0.085835 0.0072447 -0.017746 -0.36318 0.015137 0.03092 
0.10014 0.014479 0.13598 -0.020212 0.0090533 -0.15766 -0.0072237 0.05065 
-0.044217 0.08567 0.092411 0.020727 0.063968 0.18826 0.0059294 0.070708 
-0.22261 0.15768 -0.0098543 0.043251 0.12727 0.45692 0.0095465 0.13335 
-0.15487 0.087643 0.019905 0.049664 0.10145 0.53271 0.037661 0.078929 
0.079916 -0.035338 0.06331 0.031414 0.032564 0.41581 0.026646 -0.0024557 
0.21934 0.031249 0.055911 0.046046 -0.00064712 0.20355 0.018754 -0.050629 
0.16229 0.15078 -0.081374 0.013328 -0.069865 0.10244 -0.0026201 -0.02646 
0.012506 0.22657 -0.16407 -0.014951 -0.08121 0.29563 -0.024158 -0.02498 
-0.038956 0.17971 -0.13251 0.011191 -0.034188 0.30714 -0.014951 0.01267 
-0.074304 0.11691 -0.035174 0.038977 0.034866 0.048677 0.032564 0.036675 
-0.016595 0.053938 0.075805 0.014479 0.068242 -0.18808 0.087643 0.041936 
0.035195 -0.023829 0.13105 -0.02498 0.061337 -0.39097 0.01004 0.029934 
0.084519 -0.061973 0.14535 0.027303 0.087808 -0.38044 -0.034188 -0.0095255 
0.079751 -0.015444 0.064625 0.055089 0.047362 -0.26963 -0.028597 0.0024767 
-0.0072237 0.059364 0.018425 0.10113 0.019411 -0.19614 0.019247 0.03092 
-0.052931 0.1179 -0.043066 0.10228 -0.013636 -0.067728 0.050979 0.07038 
-0.080388 0.13401 0.0011614 0.071695 -0.00097594 0.095371 0.067256 0.091425 
-0.087951 0.10819 0.039963 0.032236 0.051143 0.24581 0.09422 0.1031 
-0.020377 -0.027775 0.11 -0.0014692 0.070873 0.3119 0.077285 0.070708 
0.09422 -0.074469 0.13746 -0.029584 0.0592 0.25666 0.019411 0.013328 
0.09981 0.02681 0.08567 -0.0059084 0.019411 0.24055 -0.028433 -0.021528 
0.0041209 0.12842 0.0080668 -0.0055795 0.024837 0.3096 0.0023123 0.017932 
-0.070523 0.19435 -0.052109 0.024508 0.060679 0.27376 0.066269 0.024179 
-0.067892 0.19928 -0.045696 0.062652 0.076627 0.13516 0.097508 0.027468 
0.0056006 0.08978 -0.042079 0.067256 0.046868 -0.075127 0.047033 -0.0075525 
0.041443 0.032729 -0.02235 0.027632 0.0324 -0.17969 -0.014622 0.023357 
-0.04323 0.081231 -0.0055795 0.034209 0.058049 -0.14319 -0.021199 0.068736 
-0.049314 0.095864 0.062488 0.052294 0.052294 -0.11968 -0.052273 0.094877 
0.18909 -0.044874 0.17758 0.015465 -0.042079 -0.094363 -0.045039 0.0039565 
0.28132 -0.12083 0.15818 -0.069043 -0.076113 -0.043066 -0.052931 -0.035174 
0.22657 -0.14911 0.13236 -0.072332 -0.031886 0.011848 -0.027775 -0.017911 
0.17791 -0.20781 0.01826 0.0039565 0.042429 0.065283 -0.0072237 -0.010183 
0.18251 -0.25943 -0.02087 0.058377 0.060515 0.11132 -0.028269 -0.03912 
0.19205 -0.25943 -0.010019 0.080573 0.076627 0.10836 -0.028104 -0.044546 
0.11674 -0.133 0.014315 0.10556 0.093069 0.088794 0.032236 -0.0042642 
-0.023336 0.072681 0.011026 0.11411 0.092411 0.042429 0.092904 0.068407 
-0.10669 0.20586 0.028454 0.073997 0.062323 -0.16177 0.12349 0.14239 
-0.13399 0.2736 0.021878 0.0065871 -0.0032777 -0.25993 0.14075 0.1271 
-0.11886 0.23578 0.057555 -0.01528 -0.070359 -0.15635 0.11954 0.10063 
-0.073482 0.14749 0.10326 -0.027775 -0.064768 0.0079024 0.049828 0.048348 
-0.07973 0.14963 0.12201 -0.0014692 0.016616 0.071366 0.013164 0.040785 
-0.069536 0.19912 0.038977 0.027468 0.11099 0.10984 -0.0064016 0.015137 
0.005765 0.17265 -0.073482 0.080573 0.11362 0.17363 -0.017253 0.036675 
0.15801 -0.017582 -0.051451 0.1276 0.08715 0.22246 -0.023829 -0.0068948 
0.16969 -0.060823 -0.018239 0.086985 0.06183 0.20125 0.030263 0.014643 
0.076299 0.007738 0.026481 0.046704 0.029769 0.0039565 0.076299 0.015465 
0.036182 0.022864 0.02829 0.0014903 -0.012814 -0.27966 0.1105 0.052952 
0.049499 0.016945 0.050814 -0.013965 -0.059343 -0.38126 0.10359 0.057062 
0.056076 0.0014903 0.050321 0.0018191 -0.018733 -0.26848 0.055089 0.029276 
0.08419 -0.054739 0.080244 0.04095 -0.012156 -0.14106 -0.008539 -0.0055795 
0.052294 -0.028926 -0.0075525 0.038483 -0.00081153 0.10852 -0.065262 0.024344 
-0.012485 0.059528 -0.028926 0.042594 -0.023665 0.25041 -0.065262 0.06035 
-0.025802 -0.0039354 0.1294 -0.051944 -0.039449 0.14157 -0.012156 0.037168 
0.12743 -0.13826 0.23792 -0.11919 -0.039778 0.093562 0.060022 -0.037805 
0.28773 -0.19548 0.17051 -0.072332 0.076134 0.16212 0.11148 -0.06855 
0.31338 -0.017417 -0.065591 0.11888 0.18333 0.34018 0.16311 -0.023007 
0.10392 0.27606 -0.24908 0.20635 0.15933 0.34035 0.16706 0.044896 
-0.080223 0.28527 -0.17197 0.1368 0.060679 -0.0004827 0.060844 0.097672 
-0.11771 0.14453 0.01267 0.0324 -0.034681 -0.2305 -0.025145 0.048348 
-0.060658 -0.046025 0.14733 -0.0075525 -0.0072237 -0.2471 -0.00081153 0.074654 
-0.028597 -0.076935 0.10458 -0.018733 0.039799 -0.22639 0.034044 0.051965 
-0.030899 0.044731 0.043251 0.031578 0.053774 -0.30202 0.044896 0.017932 
-0.019061 0.11592 0.03092 0.043909 0.064132 -0.20534 0.055418 0.013821 
0.038319 0.0041209 0.12743 -0.0054151 0.076956 -0.027447 0.060679 0.015465 
0.11444 -0.047176 0.11609 -0.028597 0.063968 0.11132 0.035688 -0.006566 
0.074983 0.035853 0.05772 0.0064227 0.017274 0.21474 -0.022679 0.0019835 
-0.020541 0.15505 -0.018568 0.073504 0.016616 0.26094 -0.043066 0.013657 
-0.074962 0.12842 -0.02498 0.095864 0.081067 0.29349 0.012835 0.063639 
-0.040435 0.069722 -0.022679 0.08863 0.098823 0.2098 0.071037 0.066763 
0.039963 0.068078 0.010862 0.077449 0.030098 0.12727 0.11 0.065118 
0.097179 0.033551 0.070708 0.04506 -0.0044286 0.058049 0.11231 0.013164 
0.070708 0.015959 0.10721 -0.019226 -0.045368 0.026152 0.045718 0.013657 
0.019576 0.052459 0.058542 -0.036489 -0.09091 -0.0049219 -0.023829 -0.016595 
-0.033365 0.13549 -0.06444 -0.049971 -0.074798 -0.029913 -0.059014 0.00297 
-0.066413 0.25074 -0.12774 -0.0031133 -0.00015387 -0.03353 -0.072003 0.0024767 
-0.06707 0.28198 -0.11722 0.036346 0.062981 -0.06444 -0.0044286 0.047197 
-0.036489 0.2006 -0.03205 0.049828 0.11592 -0.1455 0.070708 0.062652 
-0.057205 0.12497 0.011026 0.077943 0.12398 -0.10735 0.10721 0.075641 
-0.056877 0.062159 0.058706 0.078272 0.10425 0.08419 0.080409 0.075312 
0.016781 -0.041751 0.13647 0.0054362 0.06331 0.1544 0.035688 0.027961 
0.086492 -0.099131 0.1909 -0.034516 0.037004 0.12809 -0.014129 0.0042853 
0.10819 -0.11952 0.11954 -0.0044286 0.056569 0.057227 -0.036654 -0.011663 
0.038977 -0.011334 0.025001 0.091096 0.065283 0.029605 0.020233 0.020562 
-0.043724 0.16919 -0.069865 0.10737 0.03092 0.084684 0.054432 0.039963 
-0.064111 0.23183 -0.082032 0.063145 -0.025638 0.22345 0.034866 0.0079024 
-0.011663 0.13483 0.059528 0.02533 -0.023829 0.33213 0.005765 -0.024487 
0.13713 -0.081868 0.11872 -0.014951 0.01711 0.32884 0.0075736 -0.0047575 
0.18711 -0.11031 0.13434 -0.035503 0.044567 0.1271 -0.0083746 0.014808 
0.15703 -0.018733 0.086163 -0.0004827 0.11592 -0.11705 0.028125 0.033715 
0.03651 0.096521 0.041278 0.071202 0.12792 -0.11048 0.099645 0.061995 
-0.045861 0.11066 -0.055397 0.062981 0.044567 -0.14878 0.052294 0.052952 
-0.017088 0.044567 -0.082525 0.052623 -0.015444 -0.21767 -0.0062372 0.010204 
0.082546 -0.060987 0.016616 -0.011005 -0.076442 -0.29988 -0.076771 0.0039565 
0.14881 -0.16835 0.15111 0.0036276 -0.059178 -0.2933 -0.10604 -0.027775 
0.12316 -0.12609 0.18087 -0.0062372 -0.056383 -0.22425 -0.093541 -0.017253 
0.086492 -0.047341 0.071366 -0.0013048 -0.023829 -0.09798 -0.056383 -0.025802 
-0.0011404 0.090438 -0.018075 0.037661 -0.0059084 -0.0075525 -0.010676 0.034209 
-0.083183 0.17133 -0.05326 0.057227 0.018918 -0.086471 -0.01232 0.025001 
-0.086964 0.19369 -0.027775 0.025495 -0.010512 -0.20715 -0.016102 0.033715 
-0.04619 0.16706 -0.023501 0.0098754 0.021713 -0.22573 0.018425 0.028783 
-0.043066 0.13582 0.030263 0.023357 0.066105 -0.0078813 0.079587 0.062817 
-0.014622 0.13828 0.052787 0.047526 0.075476 0.055254 0.10195 0.06183 
0.014479 0.098823 0.0786 0.016288 0.048677 0.0093821 0.084519 0.044073 
0.024837 0.094548 0.077778 0.023851 0.022864 0.12694 0.076956 0.038812 
0.015959 0.0786 -0.0057439 0.0046141 -0.003771 0.36994 0.10556 0.043745 
0.013657 0.064132 -0.020541 0.030427 0.0080668 0.56412 0.10392 0.05624 
-0.024158 0.099974 0.012177 0.031742 0.035195 0.54981 0.056569 0.045224 
-0.014622 0.08419 0.028947 0.027796 0.028783 0.29431 0.0031344 0.050814 
0.039799 0.020398 -0.020048 0.044402 0.051965 0.070051 0.0013258 0.034373 
0.17018 -0.061316 -0.025802 0.060844 0.037168 -0.020212 0.018425 0.032236 
0.29086 -0.15651 0.083862 -0.0044286 -0.016266 -0.053095 -0.0047575 -0.021528 
0.3096 -0.21537 0.18218 -0.027118 -0.057041 -0.022843 -0.042901 -0.061809 
0.18185 -0.15602 0.16377 0.0052718 -0.017911 0.031414 -0.034681 -0.059343 
-0.014129 -0.049971 0.078436 0.084026 0.044402 -0.049642 0.0014903 0.010697 
-0.1011 -0.017088 0.043416 0.050321 0.050814 -0.19186 0.027139 0.042429 
-0.055068 -0.03616 0.043909 0.011848 0.051472 -0.24365 0.057884 0.06742 
-0.047834 0.038648 0.03536 0.020233 0.030756 -0.22852 0.054267 0.071531 
-0.0044286 0.095042 0.00017495 0.069393 0.052623 -0.1381 0.058542 0.069886 
-0.008539 0.14305 0.038977 0.060515 0.058049 -0.052602 0.069558 0.05624 
-0.049314 0.19796 0.011191 -0.0044286 0.017603 0.046704 0.078107 0.070544 
-0.11097 0.1733 -0.023501 0.023357 -0.0014692 0.15999 0.048841 0.088958 
-0.090088 0.13368 -0.022843 -0.003771 0.022042 0.24137 0.042594 0.062488 
0.070544 0.099645 -0.042901 0.010204 0.069886 0.28445 0.020891 0.014972 
0.17199 0.089123 -0.041751 0.023522 0.067749 0.24828 0.044238 -0.011992 
0.16048 0.10343 -0.015444 0.047691 0.083368 0.13105 0.066598 -0.041751 
0.1225 0.10737 0.056404 0.024344 0.061995 0.055418 0.040456 -0.0019624 
0.0095465 0.10902 0.042594 0.025495 0.097837 0.04917 0.034537 0.045882 
-0.054904 0.072188 0.040456 0.050979 0.079587 0.089123 0.072353 0.080902 
-0.044217 0.01152 0.10918 0.053938 0.06183 0.084355 0.10113 0.07301 
0.0026412 -0.078579 0.078436 0.056898 0.046704 0.059035 0.051143 0.046704 
0.029112 -0.11048 0.04358 0.047526 0.030263 0.028619 0.018589 0.0060938 
-0.02942 -0.084991 0.046211 0.013821 0.055747 0.033387 0.0011614 0.050979 
-0.060494 -0.023501 0.019083 0.054267 0.061008 0.049828 0.0079024 0.063145 
-0.04471 0.031907 0.010697 0.053774 0.057555 0.035195 0.019247 0.06183 
0.053774 -0.0087034 0.070708 0.021713 0.01152 -0.087458 0.0095465 0.032236 
0.19616 -0.038627 0.074654 -0.0036066 -0.055397 -0.26124 -0.022185 -0.0067304 
0.21901 -0.091075 0.13976 -0.022021 -0.039284 -0.3372 -0.01117 -0.030899 
0.16179 -0.086142 0.15357 -0.0087034 0.048677 -0.37272 0.027468 -0.003771 
0.16508 -0.023007 0.079751 0.048513 0.10425 -0.28936 0.041278 0.038155 
0.11165 0.070708 -0.060165 0.10688 0.077614 -0.093705 0.025988 0.040456 
-0.021363 0.16393 -0.13136 0.1225 0.06183 0.068571 0.024837 0.054267 
-0.096665 0.22641 -0.11179 0.068571 -0.010183 0.25239 0.025495 0.051801 
-0.12873 0.22411 -0.04882 0.0085601 -0.069865 0.45527 0.02829 0.049992 
-0.059672 0.12842 0.045718 0.0042853 -0.064275 0.55589 0.018425 0.020398 
0.050979 0.035688 0.11691 -0.017746 0.053116 0.54554 0.067585 -0.0080457 
0.066763 0.016781 0.085012 0.0069159 0.11132 0.49144 0.13812 -0.012814 
0.050321 -0.021528 0.044896 0.034209 0.11822 0.3678 0.12579 0.023851 
0.0072447 -0.070359 0.082711 0.044073 0.076956 0.06183 0.066269 0.037004 
0.01711 0.00050378 0.091589 0.0083956 0.053445 -0.23033 0.01267 0.043087 
0.013986 0.087643 0.10014 -0.026624 0.023522 -0.46775 -0.040928 0.037168 
0.042429 0.087972 0.051472 0.02829 0.022042 -0.51428 -0.028104 0.031249 
0.076956 0.096357 0.0052718 0.05772 0.037661 -0.40757 -0.0054151 0.029605 
0.080409 0.08008 -0.0503 0.049828 0.0011614 -0.25911 -0.0073881 0.0074092 
0.017603 0.11346 -0.088937 0.040292 -0.025474 -0.12231 -0.02942 -0.03057 
-0.023336 0.14963 -0.076935 0.040456 -0.029255 -0.073811 -0.023007 -0.059507 
-0.0075525 0.10458 -0.0090322 0.079916 -0.0067304 -0.022843 -0.015938 -0.027282 
-0.024816 0.090438 0.01267 0.061666 0.024508 -0.045203 -0.00097594 0.027139 
0.026152 0.065283 -0.0059084 0.066269 0.048677 -0.182 -0.008539 0.057062 
0.048348 0.049664 0.043909 0.074654 0.075476 -0.24135 -0.0082102 0.04358 
0.026481 0.044238 0.10737 0.037661 0.031742 -0.16391 0.0018191 0.068407 
-0.038298 0.046704 0.14223 -0.0054151 1.0539e-005 0.048513 0.06742 0.080573 
-0.048327 0.061995 0.093233 -0.013143 -0.018404 0.34281 0.079751 0.063968 
0.04095 0.054432 0.086985 -0.015444 -0.0070593 0.48651 0.058871 -0.001798 
0.11937 0.062817 0.068407 -0.0075525 0.0042853 0.50904 0.069393 0.0037921 
0.15209 -0.02794 0.069886 -0.055068 -0.020048 0.39937 0.076627 -0.018733 
0.16064 -0.051287 0.032729 -0.046519 -0.0098543 0.26176 0.062159 -0.013471 
0.12365 -0.03353 -0.03912 0.023522 0.040456 0.25633 0.0689 -0.019555 
0.072188 -0.020541 -0.050464 0.050486 0.03947 0.22 0.083533 0.0087245 
0.036182 -0.03057 0.017603 0.031414 -0.026789 0.0011614 0.0019835 0.01267 
-0.039778 0.031578 0.064461 0.03092 0.011026 -0.21208 0.028947 0.078929 
-0.057534 0.13713 0.032236 0.045224 0.062488 -0.3423 0.017274 0.092576 
-0.03501 0.17445 0.015301 0.061008 0.11773 -0.38883 0.043251 0.048513 
0.0085601 0.12973 0.034866 0.038155 0.058213 -0.27851 0.034209 0.017932 
0.030263 0.079587 0.049664 0.031414 0.0093821 -0.14303 -0.010841 -0.045696 
0.048841 0.045553 -0.0072237 0.029769 -0.017911 0.0042853 -0.033859 -0.052931 
0.030756 0.071859 -0.056219 0.033387 -0.045696 0.089616 -0.016924 -0.02087 
-0.012485 0.12036 -0.030899 -0.016924 -0.084334 0.072024 0.012177 0.047526 
-0.098638 0.13631 0.071695 -0.023007 -0.067564 0.050486 0.023686 0.10491 
-0.12873 0.14683 0.091425 0.023522 0.0016547 0.081395 0.043416 0.097837 
-0.0062372 0.10441 0.069558 -0.0067304 0.067749 0.17676 0.046046 0.034373 
0.11888 0.031907 0.051308 0.036346 0.11822 0.068571 0.043251 0.018096 
0.16196 -0.033037 -0.017253 0.06479 0.10408 -0.14336 0.019083 -0.011334 
0.17232 -0.062796 -0.034023 0.15242 0.10573 -0.18611 0.0023123 0.010862 
0.12579 0.0054362 -0.05326 0.10392 0.10277 -0.21702 0.011848 0.037497 
0.02122 0.055089 -0.011005 0.054432 0.07038 -0.18397 0.03092 0.062323 
-0.006566 0.12365 0.009711 0.012835 -0.015938 -0.029913 0.028619 0.064954 
-0.042573 0.14206 0.031578 0.026152 -0.039613 0.11378 0.031414 0.085835 
-0.02794 0.025659 0.094877 -0.029913 -0.05885 0.20372 0.069064 0.025495 
-0.0055795 -0.097158 0.12003 -0.052437 -0.028269 0.34216 0.071037 0.0079024 
0.0075736 -0.17969 0.13532 -0.032872 0.050979 0.42699 0.053938 -0.053424 
0.093726 -0.21225 0.14798 0.012506 0.061501 0.41812 0.049992 -0.037311 
0.16985 -0.15668 0.12595 -0.00031829 0.016616 0.32785 0.028947 -0.018404 
0.12414 -0.027775 0.01563 0.022864 0.028125 0.1465 -0.0024557 0.037004 
0.023028 0.080573 -0.049971 0.071695 0.074983 -0.069701 -0.0050863 0.078107 
0.0083956 0.12447 -0.048327 0.068571 0.032893 -0.18183 0.0024767 0.081395 
0.024344 0.096357 0.024344 0.018589 -0.027775 -0.31566 -0.017088 0.066598 
0.052459 0.057555 0.082875 -0.010512 0.0028056 -0.41349 0.02533 0.04917 
0.05772 0.054925 0.072024 0.052787 0.093562 -0.40856 0.029605 0.049499 
0.019083 0.095206 -0.031721 0.11444 0.1077 -0.28985 0.030756 0.065776 
-0.057863 0.16623 -0.065755 0.090109 0.019905 -0.15372 -0.015938 0.058377 
-0.073318 0.17626 0.00050378 0.021549 -0.0019624 -0.0075525 -0.020706 0.041114 
-0.021856 0.11362 0.021549 -0.027282 0.026481 0.16311 0.047855 0.040456 
-0.08269 0.20125 -0.021692 0.013328 0.12809 0.29678 0.13434 0.060022 
0.04358 0.14272 0.010862 0.0039565 0.11428 0.34298 0.12283 0.010533 
0.147 -0.0083746 0.093233 0.0227 0.049992 0.34018 0.054596 -0.036983 
0.033387 -0.12659 0.058871 0.034702 -0.04471 0.35745 0.040456 0.013492 
-0.1187 -0.10998 0.024179 0.0080668 -0.032215 0.11214 0.064625 0.074326 
-0.10028 -0.03501 0.009711 -0.017911 -0.06444 -0.23855 0.0095465 0.087643 
0.10129 -0.061316 0.015137 -0.0082102 -0.069865 -0.3127 0.0093821 -0.010841 
0.15801 -0.098473 0.048841 0.0592 0.032893 -0.19301 -0.0091966 0.0080668 
0.09274 -0.13053 0.11691 0.045718 0.11165 0.0052718 -0.015938 0.023522 
0.090274 -0.073647 0.1345 0.057884 0.24482 0.11198 -0.050958 0.053116 
0.10228 0.053938 0.11198 0.044567 0.16179 -0.008539 -0.0771 0.029441 
0.10573 0.15571 0.053609 0.097508 0.08863 -0.1718 -0.028433 0.039799 
-0.0026201 0.20898 -0.064604 0.12727 0.052294 -0.22803 0.059364 0.087972 
-0.13727 0.25304 -0.12215 0.14321 0.012506 -0.1085 0.1299 0.13812 
-0.2111 0.22871 -0.076935 0.06594 -0.01939 0.20191 0.094055 0.10688 
-0.14813 0.15012 0.037497 0.027303 -0.080059 0.48881 0.038977 0.069393 
0.046704 0.075476 0.08715 -0.040106 -0.07266 0.52729 0.04095 -0.020706 
0.16212 -0.019555 0.062323 -0.021856 -0.018897 0.4681 0.10063 -0.076442 
0.11263 -0.037476 0.059528 -0.059014 0.0021479 0.41779 0.16788 -0.02498 
0.050814 -0.0050863 0.060679 -0.021528 -0.017746 0.44311 0.16262 0.031907 
0.021878 -0.022514 -0.0064016 -0.0098543 0.021056 0.39987 0.10474 0.048841 
0.0095465 0.020398 -0.069043 0.044073 0.062652 0.21572 0.043087 0.040128 
0.073175 0.044731 -0.038956 0.065447 0.10918 -0.042737 -0.016924 0.011684 
0.159 0.036017 0.030427 0.055254 0.073504 -0.30843 -0.069208 -0.060165 
0.16212 0.020233 0.063968 0.043251 0.013328 -0.48978 -0.11985 -0.077264 
0.091589 0.00066819 0.04917 0.02829 -0.019555 -0.47531 -0.14023 -0.074633 
-0.024816 0.022371 0.044731 0.034209 -0.010183 -0.32652 -0.080881 -0.012156 
-0.09091 0.084519 0.051801 0.014315 0.025824 -0.14385 0.0042853 0.060186 
-0.11228 0.13647 0.052294 0.0026412 0.025495 0.014972 0.086657 0.11148 
-0.11228 0.13894 0.018754 0.056569 0.05065 0.12792 0.10951 0.12727 
-0.11031 0.12858 -0.00064712 0.1197 0.09422 -0.0013048 0.083533 0.1345 
0.048184 0.10441 0.00297 0.096686 0.072517 -0.20748 0.028783 0.038812 
0.18514 0.10672 0.026317 0.0592 0.049992 -0.23247 -0.021199 -0.0072237 
0.2024 -0.022185 0.090767 -0.0024557 -0.036983 -0.12116 -0.030735 -0.03912 
0.14585 -0.068057 0.07597 -0.024158 -0.057699 0.087479 -0.027775 -0.026789 
0.10195 -0.030406 0.045553 -0.06296 -0.0054151 0.33311 0.022535 -0.020377 
0.052294 -0.00097594 0.013986 -0.034188 0.046046 0.46432 0.094713 0.012177 
0.077943 -0.00031829 0.039799 -0.012978 0.038155 0.46382 0.11017 0.0013258 
0.10869 -0.013143 -0.0050863 0.061501 0.04358 0.47961 0.11954 -0.0073881 
0.090438 -0.036983 0.013986 0.049828 0.014808 0.53518 0.11559 -0.0052507 
0.065283 0.0036276 0.037497 0.0227 0.028783 0.38786 0.077614 0.0018191 
0.028454 0.063968 0.051636 0.011848 0.028619 0.046704 0.010533 0.030427 
-0.0031133 0.09685 0.026481 0.0421 0.0070803 -0.27111 -0.041093 0.036182 
-0.041915 0.13072 0.00297 0.025988 -0.00015387 -0.50523 -0.028269 0.026974 
-0.1011 0.18021 -0.023007 0.048019 -0.0091966 -0.5613 -0.03057 0.036839 
-0.19038 0.26537 -0.050136 0.046868 -0.018404 -0.44522 -0.041751 0.053609 
-0.15109 0.19468 -0.054904 0.048184 -0.039284 -0.28393 -0.093376 -0.0047575 
0.032236 0.083533 -0.017911 0.016123 -0.00064712 -0.077922 -0.036325 -0.0026201 
0.16212 -0.010841 0.056404 -0.014129 0.07449 0.081231 0.042429 -0.012485 
0.14239 -0.01117 0.062817 0.030592 0.050157 0.14568 0.034209 -0.0014692 
0.078272 0.0069159 0.041443 0.034373 0.042594 0.11411 0.0026412 0.019083 
0.093398 -0.038791 0.011848 -0.006566 -0.0040998 0.062488 -0.0090322 0.011684 
0.18629 -0.13366 0.080573 -0.050629 -0.017746 0.035853 -0.014129 -0.041422 
0.1539 -0.07003 0.10178 0.0085601 -0.0026201 0.031249 0.039634 -0.024816 
0.0082312 -0.02087 0.08156 0.038155 0.052459 0.051965 0.12184 0.027303 
-0.051451 -0.010019 0.10096 0.031907 0.076627 0.076299 0.12349 0.10967 
-0.080223 0.070051 0.05213 0.034537 0.067256 0.032236 0.082217 0.096193 
-0.05441 0.089452 0.0074092 0.048677 0.0070803 -0.10883 0.0079024 0.073832 
0.039634 0.0047785 0.038977 -0.0013048 -0.019555 -0.22524 -0.036983 0.025166 
0.08978 -0.047176 0.10524 -0.010841 0.027139 -0.22277 -0.029913 0.019576 
0.12677 -0.048492 0.053938 0.049499 0.057391 -0.16786 0.042429 0.027961 
0.097015 -0.0004827 0.00017495 0.13187 0.10408 -0.037969 0.067256 0.046211 
0.034537 0.070708 -0.048985 0.13713 0.1026 0.027303 0.059857 0.061008 
0.021056 0.10195 -0.01528 0.070051 0.061666 0.053609 0.053281 0.06742 
0.0786 0.071531 0.031249 0.026152 0.015794 0.054925 0.042594 0.031414 
0.074161 0.073504 0.025659 0.021384 -0.024158 0.061172 0.016288 0.027632 
-0.026131 0.13236 0.0098754 -0.030242 -0.035338 0.038977 0.029769 0.049006 
-0.021692 0.16064 0.047526 -0.037969 -0.030899 -0.069043 0.014808 0.042594 
0.061337 0.077449 0.11033 -0.02087 0.031907 -0.12988 0.0031344 0.016452 
0.046211 0.040456 0.061008 0.025659 0.065447 -0.11113 0.018096 -0.0091966 
-0.077264 0.057391 -0.022185 0.027961 0.071037 -0.083676 0.0093821 0.04506 
-0.2305 0.054432 -0.017582 0.051308 0.014808 -0.073154 -0.0096899 0.046375 
-0.22211 0.082875 -0.0029489 0.072188 -0.033037 -0.073647 0.015794 0.072681 
-0.14204 0.10145 -0.035667 0.080244 -0.029584 0.021878 0.014972 0.079751 
-0.0054151 0.10737 0.017274 0.048184 0.015465 0.088136 0.047691 0.087808 
0.085012 0.040128 0.087808 -0.00031829 0.099974 0.17593 0.080244 0.064954 
0.14683 -0.063782 0.13401 0.014643 0.14848 0.28691 0.097508 0.042923 
0.23463 -0.19301 0.2075 0.018589 0.1276 0.31782 0.072353 -0.033694 
0.29546 -0.27472 0.15768 -0.0029489 0.031742 0.244 0.03947 -0.047998 
0.21276 -0.17032 0.053774 0.03799 0.0016547 -0.043888 0.020891 -0.046683 
0.066763 0.040292 -0.025638 0.081067 0.009711 -0.22228 0.031085 0.046375 
0.0051074 0.16097 -0.014622 0.080573 0.056569 -0.17295 0.030756 0.057884 
-0.011827 0.18662 -0.018568 0.053281 0.07301 -0.018075 0.096028 0.11543 
-0.05737 0.12957 -0.011498 0.01974 0.027796 0.10491 -0.0019624 0.072846 
-0.05737 0.07301 0.068242 -0.0091966 0.01563 0.13779 -0.043395 0.027796 
-0.044052 0.086985 0.10145 -0.030735 -0.02235 0.12003 -0.043724 -0.0064016 
-0.069208 0.085177 0.10688 -0.0096899 0.0072447 0.097344 0.021056 0.045224 
-0.020212 0.051308 0.033387 0.0092177 0.041772 0.084684 0.069722 0.052952 
0.0011614 0.025988 0.034537 0.061501 0.051801 0.16262 0.070051 0.068571 
-0.019061 0.073832 -0.010348 0.089616 0.096357 0.25074 0.086985 0.062323 
0.0092177 0.10589 -0.026624 0.11083 0.14108 0.18169 0.046868 0.046704 
0.0042853 0.13417 -0.096336 0.080902 0.083533 0.11855 0.051801 0.051636 
0.020891 0.15555 -0.030899 0.035688 0.033387 0.095699 0.038483 0.015301 
0.048348 0.13943 0.041114 -0.017746 -0.0072237 0.095535 0.0090533 -0.017088 
0.065612 0.059035 0.084848 -0.016431 -0.049149 0.029934 -0.045861 -0.050958 
0.11921 0.0072447 0.032729 0.018918 -0.066906 -0.09946 -0.056548 -0.029091 
0.098001 0.0013258 0.0059294 0.022371 -0.12692 -0.23296 -0.013307 -0.022185 
0.026317 0.035031 -0.018075 -0.0060728 -0.028104 -0.15783 0.027139 0.024673 
-0.045039 0.059528 -0.0060728 0.013986 0.10425 0.024673 0.10178 0.040456 
-0.16934 0.098166 0.036675 0.06594 0.16623 0.18794 0.11395 0.12118 
-0.28426 0.1636 0.038483 0.066927 0.11 0.26817 0.058213 0.10869 
-0.17147 0.11346 0.09126 -0.013636 0.007738 0.16442 0.013492 0.06331 
0.037497 0.03947 0.12908 -0.052602 -0.013965 0.062159 0.0074092 -0.024487 
0.18235 -0.026789 0.11954 -0.00097594 0.022535 0.023193 0.023686 -0.034188 
0.21128 -0.034352 0.0098754 0.061337 0.10704 0.04654 0.033551 -0.034023 
0.15275 -0.0080457 -0.10028 0.086328 0.13697 0.14913 0.058213 0.009711 
0.11148 0.062817 -0.080388 0.057062 0.10869 0.24038 0.027961 0.032893 
0.091096 0.13565 -0.051122 0.063145 0.010697 0.1927 -0.0022913 0.046046 
0.042429 0.17971 -0.028433 0.038977 -0.03764 0.062652 0.027961 0.030756 
-0.038298 0.19451 -0.051287 0.048019 -0.052109 -0.0014692 0.032071 0.01415 
-0.054575 0.091589 0.032893 0.030263 -0.032872 -0.10127 0.012999 0.029441 
-0.042244 0.00297 0.07301 0.03536 -0.024816 -0.23806 -0.00081153 0.020398 
0.15012 -0.17739 0.16706 -0.024487 0.014479 -0.4199 0.0079024 -0.031721 
0.29579 -0.25121 0.15226 -0.034516 0.042429 -0.37091 0.014479 -0.049971 
0.088301 -0.049478 0.038648 0.0070803 0.064132 -0.2397 0.054267 0.033551 
-0.087293 0.097179 -0.040271 0.069393 0.068078 -0.0049219 0.025495 0.055911 
-0.0095255 0.030263 0.026974 0.05624 0.074161 0.30171 -0.004593 0.031578 
0.1276 -0.025309 0.06479 0.020727 0.034044 0.46218 0.017767 0.0026412 
0.094055 0.029769 0.046868 0.011684 -0.0021268 0.50082 0.070544 0.025001 
0.060186 0.10425 0.037497 0.011355 -0.041586 0.51742 0.096686 0.016945 
0.10491 0.07597 0.05624 -0.020706 -0.032708 0.40858 0.11132 0.0072447 
0.12875 0.058871 0.042594 0.014808 -0.003771 0.24071 0.098001 0.0067515 
0.062488 0.1105 -0.010676 0.014643 0.0074092 0.049828 0.037826 0.029276 
-0.035338 0.13828 -0.05178 0.033058 -0.029255 -0.17591 -0.023665 0.014643 
-0.074962 0.12217 -0.031064 0.011684 -0.02646 -0.38143 -0.066413 0.037168 
-0.066906 0.093398 0.012835 -0.0080457 -0.00015387 -0.58645 -0.077264 0.041114 
-0.021856 0.10195 0.045553 0.037332 0.076956 -0.55883 -0.053917 0.048348 
0.026152 0.051472 0.049664 0.079258 0.10458 -0.35167 -0.023172 0.064954 
0.023193 0.026646 0.036675 0.057555 0.059857 -0.068057 0.01563 0.045389 
0.038648 -0.037476 0.046046 0.030263 0.0092177 0.050979 0.050814 0.011684 
0.091425 -0.1039 0.073175 0.036346 0.011684 0.06183 0.082875 0.00099702 
0.13565 -0.10965 0.0324 0.049006 0.033387 0.042265 0.049006 -0.014293 
0.14124 -0.11245 0.069886 0.0324 0.01563 0.041607 0.06035 -0.0057439 
0.12776 -0.049971 0.090603 0.027139 0.049499 0.18876 0.057227 0.017438 
0.082382 -0.0078813 0.11461 0.057391 0.065776 0.2565 0.071531 0.056898 
0.047855 0.022042 0.10491 0.015794 0.053609 0.13286 0.071366 0.067091 
0.021878 0.049828 0.061337 0.0095465 0.0069159 -0.0068948 0.050979 0.046046 
0.034702 0.062981 0.0087245 -0.020541 -0.05178 -0.024816 0.013492 0.026974 
0.033222 0.087972 -0.0064016 0.0080668 -0.069372 0.049664 0.011191 -0.0013048 
0.0031344 0.070708 0.031414 -0.0055795 -0.044381 0.094548 0.019247 0.01974 
0.01563 0.053281 0.025824 0.007738 0.009711 0.063145 0.013164 0.037497 
-0.024158 0.080738 0.027303 0.049499 -0.0091966 0.0047785 -0.013143 0.08156 
-0.061316 0.14157 0.035688 0.066269 0.041772 -0.037311 -0.039284 0.056569 
-0.021692 0.13927 0.034044 0.039141 0.058213 0.030263 -0.043066 0.045224 
0.055582 0.07038 0.023522 0.00033937 0.050321 0.00083261 -0.015116 -0.0013048 
0.039634 0.028783 0.037826 -0.017746 0.012177 -0.13843 -0.00097594 0.0227 
0.05624 -0.010676 0.061337 0.020891 0.0056006 -0.32208 -0.0075525 -0.0050863 
0.031578 -0.020377 0.052952 0.024673 0.012506 -0.39047 0.0018191 0.029276 
0.025824 -0.05885 0.035031 0.089945 0.060515 -0.29939 0.013328 0.0044497 
0.061172 -0.0022913 -0.050464 0.12398 0.11905 -0.121 0.052459 0.032564 
0.074654 0.023028 -0.011334 0.094055 0.077121 0.048348 0.071037 0.030427 
-0.0039354 0.13154 0.050321 -0.0011404 0.014972 0.18202 0.05476 0.052294 
-0.030899 0.11066 0.12562 -0.028597 0.017932 0.27409 0.024179 0.050321 
-0.037805 -0.038627 0.12085 -0.0070593 0.018096 0.28543 0.037332 0.060679 
0.036182 -0.069208 0.12135 0.017603 0.01711 0.31437 0.039141 0.052294 
0.025824 0.023193 0.051472 0.009711 0.01563 0.35728 0.058377 0.057555 
-0.051451 0.1105 -0.0004827 0.0080668 0.0080668 0.39395 0.090931 0.061666 
-0.089759 0.1904 0.0087245 0.030263 0.03947 0.32785 0.085012 0.083697 
-0.057041 0.20109 -0.023994 0.030756 0.076792 0.069393 0.086492 0.066434 
0.034537 0.18613 -0.012485 0.028454 0.06479 -0.10571 0.071531 0.035031 
0.082546 0.13105 -0.0031133 0.044073 0.063145 -0.18134 0.030592 0.010204 
0.025495 0.062817 0.038319 0.069722 0.031742 -0.20255 -0.021363 0.0018191 
-0.0042642 1.0539e-005 0.016123 0.043909 0.022371 -0.17723 -0.016595 0.029276 
0.039305 -0.061316 0.026974 0.035853 0.030427 -0.14681 -0.023994 0.031085 
0.040456 -0.06296 0.016945 0.038812 0.018096 -0.12823 -0.027118 0.012999 
-0.029584 0.077943 -0.010019 0.039963 0.00083261 -0.22211 -0.010841 0.010533 
-0.022021 0.13368 -0.027118 0.041936 0.017274 -0.17871 0.0013258 0.062981 
0.0072447 0.10063 -0.010841 0.034702 0.057555 -0.043559 0.038155 0.044073 
-0.03205 0.044731 0.03536 0.028619 0.072517 0.092411 0.073175 0.069886 
-0.03353 0.029934 0.077614 0.087314 0.058049 0.19813 0.09126 0.073668 
0.039141 0.0421 0.088794 0.021384 0.037826 0.2611 0.079916 0.051308 
0.12283 0.014479 0.07597 -0.016266 0.015794 0.26274 0.077778 0.0069159 
0.13088 0.030592 0.026152 -0.0011404 -0.001798 0.29398 0.079422 0.018425 
0.068736 0.061501 -0.058685 0.054432 0.018096 0.2297 0.061666 0.0083956 
0.029441 0.062159 -0.024323 0.051636 0.041114 0.059364 0.023686 0.014315 
0.037497 0.03388 0.016123 0.010369 0.027139 -0.11031 0.012999 -0.0049219 
0.039963 0.039305 0.096686 -0.009361 0.02681 -0.094692 0.033222 0.0059294 
-0.024323 0.03947 0.088465 0.021384 0.045224 -0.046683 0.065283 0.022042 
-0.065262 0.07301 0.031907 0.024015 0.049335 0.085177 0.048513 0.048841 
-0.056548 0.058542 0.012177 0.05476 0.070873 0.17034 0.050814 0.045389 
-0.017911 0.052952 -0.010019 0.031578 0.090767 0.17396 0.064461 0.04506 
0.02122 0.055089 0.028947 0.046046 0.082546 0.086657 -0.006566 0.052623 
0.021713 0.072681 0.053938 0.042758 0.079751 -0.02942 -0.089102 0.022206 
0.045553 0.13582 0.02681 0.0689 0.07038 0.034702 -0.035174 0.020891 
0.073832 0.14371 -0.013143 0.037661 0.0034632 0.12529 0.0067515 0.00050378 
0.054925 0.055089 0.055418 -0.034516 -0.044546 0.11543 -0.037147 -0.015609 
0.10737 -0.0039354 0.12595 -0.066577 -0.094856 0.021056 -0.015938 -0.024652 
0.2006 -0.073976 0.1003 -0.025967 -0.07562 -0.10341 0.013328 -0.0068948 
0.12842 -0.028269 0.019083 0.048019 -0.028762 -0.16999 0.028783 0.019576 
-0.10291 0.1294 -0.12429 0.12447 0.10244 -0.15881 0.020233 0.093069 
-0.24053 0.21901 -0.12396 0.17117 0.19731 -0.11015 -0.0024557 0.12792 
-0.22343 0.14437 -0.020048 0.14634 0.20882 -0.073482 -0.012156 0.096193 
-0.020048 -0.026953 0.13039 0.074819 0.082217 -0.080552 0.032071 0.0095465 
0.29628 -0.25467 0.15045 -0.009361 -0.029584 -0.068879 0.0092177 -0.065262 
0.37997 -0.25763 0.12381 -0.052931 -0.065755 0.02122 -0.016266 -0.081539 
0.23381 -0.073976 0.079916 -0.03912 -0.073154 0.11724 0.014479 -0.009361 
0.048513 0.093069 0.069064 -0.011334 -0.04471 0.22657 0.10984 0.057555 
-0.072003 0.18103 0.028454 -0.018733 -0.033037 0.32506 0.15456 0.081067 
-0.091075 0.19451 -0.014458 -0.004593 -0.011663 0.17182 0.1225 0.049335 
-0.014129 0.11526 0.010204 0.00297 -0.018075 -0.0080457 0.05213 0.019905 
0.070873 0.017603 0.053445 0.024344 -0.0068948 -0.05326 -0.0077169 0.021878 
0.087808 0.00033937 0.074819 0.032729 0.049006 -0.11393 -0.0138 0.011026 
0.027961 0.033387 -0.006566 -0.0091966 0.050486 -0.20222 -0.050464 0.013164 
0.019905 0.037004 0.0060938 0.047855 0.0047785 -0.3668 -0.061809 0.0059294 
0.034209 0.0069159 0.053116 0.050486 0.047197 -0.42007 -0.013965 0.02533 
0.080902 0.052623 0.041443 0.073175 0.062817 -0.25138 0.0036276 0.0039565 
0.04358 0.10902 -0.049478 0.043909 0.068078 0.0090533 -0.026131 0.024179 
-0.02794 0.19418 -0.060329 0.022371 0.010862 0.2514 -0.059507 0.058542 
-0.0016336 0.14815 0.017932 -0.015938 -0.070687 0.46185 -0.037311 0.017767 
0.066434 -0.035996 0.10441 -0.046683 -0.07266 0.49144 0.072024 0.012999 
0.12217 -0.14533 0.11198 -0.010841 -0.0014692 0.3683 0.12036 0.036182 
0.067256 -0.15602 0.043416 0.078765 0.091753 0.30007 0.15193 0.054432 
-0.054246 -0.060329 -0.0042642 0.11461 0.1174 0.19879 0.13467 0.068571 
-0.058521 0.056076 0.02122 0.083204 0.13532 0.035195 0.077943 0.086328 
0.02829 0.067585 0.08008 -0.0021268 0.039305 -0.16818 0.016781 0.062323 
0.10458 0.071366 0.060186 0.012999 -0.0070593 -0.33457 -0.032215 0.045718 
0.10129 0.077943 0.022535 0.035031 0.030427 -0.31649 0.016123 0.042594 
0.073339 0.063639 -0.0016336 0.05772 0.038483 -0.25927 0.0013258 0.017274 
0.0059294 0.080573 0.04917 0.089287 0.041278 -0.20271 -0.023829 0.019083 
-0.078744 0.056569 0.050979 0.042429 -0.006566 -0.12971 0.028947 0.021549 
0.0093821 -0.0052507 0.054432 -0.02235 0.00033937 0.069064 0.068078 0.00099702 
0.18399 -0.088773 0.028947 -0.042079 -0.015773 0.24647 0.062981 -0.055232 
0.24696 -0.11853 0.041114 -0.0091966 0.0070803 0.29415 0.098659 -0.056548 
0.12299 -0.033859 0.055911 0.058706 0.014479 0.24104 0.098659 0.00033937 
-0.02794 0.067749 0.00083261 0.014643 -0.0019624 0.19533 0.10556 0.040621 
-0.071345 0.074819 0.017932 -0.039284 -0.041751 0.11066 0.10967 0.040292 
-0.011334 0.027468 0.098494 -0.071016 -0.010183 0.069722 0.089287 0.059035 
-0.032215 0.099481 0.13417 -0.015116 0.062323 0.066105 0.072846 0.10359 
-0.074304 0.19484 0.020069 0.072517 0.14749 0.096357 0.08008 0.11477 
-0.011663 0.16393 -0.055561 0.14321 0.15061 0.075805 0.062817 0.069064 
0.12102 0.073175 -0.069372 0.1516 0.080409 -0.1917 0.029112 0.021384 
0.088301 0.098823 -0.072167 0.1202 0.032893 -0.34674 0.033715 0.046375 
-0.083347 0.14174 -0.068879 0.077614 0.013821 -0.3377 0.040785 0.086492 
-0.15651 0.1174 -0.041586 0.012999 0.0059294 -0.35183 0.037332 0.11099 
-0.077264 0.072517 0.06594 -0.0034422 0.00099702 -0.19466 0.0082312 0.053609 
0.042923 0.061172 0.1054 -0.014951 -0.012978 0.11477 -0.025145 0.0069159 
0.10063 0.038812 0.15423 -0.013965 -0.025967 0.3461 -0.082525 -0.071838 
0.19057 -0.057041 0.10244 -0.028597 -0.027775 0.42831 -0.071016 -0.077593 
0.17758 -0.077264 0.077285 -0.0031133 0.013164 0.49292 -0.0022913 -0.09239 
0.072353 0.01826 0.034373 0.0036276 0.055254 0.48141 0.098166 -0.014622 
-0.051451 0.11526 -0.004593 0.016288 0.10228 0.45511 0.18054 0.04506 
-0.065919 0.15489 -0.019061 0.04917 0.086492 0.2925 0.16574 0.090438 
-0.0068948 0.097837 0.0087245 0.056569 0.053774 -0.0062372 0.083697 0.083697 
0.010204 0.030756 0.036346 0.066105 0.054432 -0.1307 0.066105 0.071859 
-0.0022913 0.038319 0.043416 0.041936 0.06594 -0.18298 0.01004 0.067256 
-0.023172 0.086985 0.01004 0.064954 0.0786 -0.2277 -0.0075525 0.050157 
-0.0073881 0.13927 -0.051287 0.080409 0.013821 -0.31698 -0.03912 0.010533 
0.0056006 0.16229 -0.041257 0.036839 -0.0077169 -0.26174 -0.049642 0.013328 
0.017438 0.082546 0.0014903 0.030592 -0.036489 -0.20633 -0.018733 0.031907 
0.066105 -0.099624 0.14617 -0.0068948 -0.035832 -0.20616 -0.027282 0.0051074 
0.086492 -0.10965 0.15703 -0.008539 -0.050464 -0.18578 -0.020048 0.0011614 
0.087643 -0.05326 0.11806 -0.025802 0.0024767 -0.13382 -0.0040998 -0.014458 
0.11 -0.012485 0.080244 -0.038462 0.056898 0.0014903 0.031907 -0.0083746 
0.11148 0.022535 0.076627 -0.01528 0.045224 0.17281 0.016945 -0.016924 
0.073668 0.11609 0.031085 0.014479 0.044402 0.29415 -0.0039354 0.0044497 
0.010862 0.21227 -0.07003 0.057555 0.026646 0.30878 0.0026412 0.035688 
-0.087951 0.18794 -0.10719 0.064954 0.070873 0.2486 0.030427 0.12464 
-0.12198 0.025166 0.038812 0.047362 0.072846 0.2075 0.047691 0.10721 
-0.031886 -0.10702 0.1516 0.044731 0.090931 0.18859 0.050157 0.087314 
0.041772 -0.10078 0.17347 -0.00081153 0.096686 0.17281 0.060022 0.062817 
0.06742 -0.0080457 0.068736 0.040292 0.095535 0.082875 0.039141 0.016616 
0.12201 0.08863 -0.11261 0.074983 0.069886 -0.076113 -0.0095255 -0.034023 
0.12529 0.095535 -0.10784 0.10425 0.021056 -0.15158 -0.027611 -0.011663 
0.047033 0.059857 -0.0771 0.10145 -0.0044286 -0.17164 -0.020541 0.014479 
0.022864 0.023028 -0.0082102 0.043251 -0.036654 -0.14336 -0.0031133 0.03651 
0.055911 0.038319 0.084684 -0.0024557 -0.034188 -0.14073 0.0090533 0.033222 
0.070215 0.090438 0.1105 -0.02087 -0.01117 -0.14484 0.0056006 0.033715 
0.099645 0.057884 0.10852 -0.0067304 0.031085 -0.074962 0.030263 0.034373 
0.11428 -0.022679 0.077778 -0.011992 0.0082312 -0.044874 0.017438 0.050979 
0.10688 -0.11294 0.097672 0.0072447 0.020727 0.080738 0.01267 0.021549 
0.056733 -0.14254 0.091425 0.0095465 0.029934 0.24828 0.02681 0.018589 
-0.083183 0.0042853 0.067749 0.021056 0.014315 0.28609 0.025001 0.034209 
-0.18594 0.08304 0.020398 0.024344 0.013821 0.19122 0.043251 0.061501 
-0.16572 0.1105 0.036017 0.035853 0.010533 0.073668 0.03536 0.08419 
-0.065591 0.10885 0.044073 0.011026 0.04095 -0.014951 0.065776 0.049335 
0.064296 0.079258 0.061666 0.027632 0.049006 -0.17443 0.033058 -0.00015387 
0.15933 0.083862 0.040128 0.059035 0.071859 -0.21998 0.0592 -0.031064 
0.1567 0.081395 -0.010841 0.081724 0.06183 -0.12609 0.051308 0.0031344 
0.095699 0.055418 -0.023007 0.056404 0.054925 -0.029255 0.0074092 0.030427 
