0.55441 -0.076935 0.11017 0.063803 0.039799 0.014808 0.033551 -0.020048 
0.35284 0.046211 0.043909 0.075805 0.050486 0.014315 0.045553 -0.0011404 
0.10655 0.10047 -0.014787 0.029276 0.055254 0.030263 0.035031 0.032893 
-0.071674 0.090931 -0.084827 -0.026953 0.036675 0.039799 0.03799 0.038155 
-0.20238 -0.045532 -0.080388 0.044567 0.053609 0.034537 0.070215 0.021384 
-0.1815 -0.26305 -0.04471 0.051965 0.027961 0.026152 0.042265 0.017932 
-0.15174 -0.38505 -0.031721 0.077121 0.025824 0.013821 0.012013 0.026317 
-0.11146 -0.31106 -0.020212 0.014808 0.017603 0.0032988 0.011684 0.017767 
-0.080059 -0.21504 -0.034188 0.0023123 0.010697 0.0067515 0.036017 0.054103 
-0.0013048 -0.023994 -0.0022913 0.048841 0.046704 0.039141 0.04095 0.056569 
0.074983 0.16442 0.009711 0.037004 0.083368 0.025824 0.048677 0.083862 
0.15324 0.25995 0.069722 0.080244 0.075312 0.03799 0.053774 0.076956 
0.17955 0.24663 0.13269 0.034373 0.020069 0.042594 0.047691 0.076299 
0.12349 0.16327 0.13006 0.01004 0.00050378 0.016123 0.041114 0.038155 
0.10836 0.14223 0.1054 -0.0050863 -0.015609 -0.006566 0.01711 0.028619 
0.037661 0.079422 0.14009 0.010697 -0.0027845 0.013328 -0.0057439 -0.023829 
0.0036276 -0.004593 0.18284 0.08419 0.011848 0.0024767 -0.0077169 -0.028926 
0.013986 0.088794 0.19402 0.10885 0.04095 0.02681 0.024015 0.0082312 
0.01974 0.18383 0.14963 0.10359 0.041114 0.031907 0.039634 0.023028 
0.031742 0.13269 -0.0072237 0.00017495 0.019576 0.0060938 0.010862 0.0051074 
0.021878 0.1248 -0.080223 -0.073482 0.019083 -0.020048 0.010697 -0.0057439 
0.015794 0.085012 -0.13086 -0.06855 -0.0070593 0.012506 0.030427 0.021878 
-0.023172 -0.024323 -0.18068 -0.073647 -0.0070593 0.018425 0.040456 0.021878 
-0.049478 -0.097651 -0.13037 0.019576 0.037497 0.024837 0.026152 0.045553 
-0.047176 -0.084334 -0.052766 0.066105 0.057062 0.059528 0.051143 0.058706 
-0.058685 -0.072167 0.047526 0.10819 0.061008 0.060679 0.065612 0.060022 
-0.013965 -0.047176 0.091918 0.078436 0.052459 0.044731 0.061995 0.063968 
0.013821 -0.033201 0.11395 0.036017 0.042923 0.046211 0.021713 0.018754 
0.028947 -0.052766 0.22575 0.16278 0.072188 0.028125 0.0092177 0.027303 
0.091425 0.0085601 0.28346 0.22345 0.10211 0.023357 0.020233 0.0046141 
0.10096 0.10293 0.21375 0.21474 0.084519 0.061008 0.042265 0.011684 
0.066434 0.20503 0.094548 0.18317 0.078436 0.061337 0.075312 0.030756 
0.029605 0.17215 0.039799 0.0064227 0.016123 0.042758 0.044567 0.023357 
0.058542 0.17889 -0.063782 -0.039284 0.0093821 0.049499 0.037168 0.062323 
0.10178 0.2126 -0.1547 -0.15257 -0.012978 0.013821 0.037004 0.084355 
0.05065 0.23068 -0.12478 -0.11952 -0.004593 0.011684 0.030592 0.048677 
-0.01676 0.21408 -0.02942 -0.029913 0.020069 0.032893 0.018754 0.013986 
-0.023172 0.15144 0.079094 0.067749 0.046046 0.026974 0.018096 0.0092177 
0.03651 0.13302 0.13762 0.15867 0.039799 0.030098 0.014315 0.033715 
0.12908 0.12579 0.12661 0.13565 0.048348 0.055254 0.035853 0.044402 
0.1299 0.10228 0.047691 0.055418 0.023357 0.024015 0.039305 0.026481 
0.027468 -0.062302 -0.10193 -0.045861 -0.019555 -0.0070593 0.01974 0.01711 
-0.097487 -0.29314 -0.20386 -0.08828 -0.01939 0.0069159 -0.0049219 -0.019884 
-0.14615 -0.41316 -0.21126 -0.063946 -0.015116 -0.0042642 -0.0088678 -0.010348 
-0.13875 -0.37567 -0.18167 -0.0503 -0.0026201 -0.0073881 -0.0073881 -0.0032777 
-0.055726 -0.25368 -0.066413 -0.011827 0.0042853 0.011191 0.0039565 0.019083 
0.011355 -0.18446 0.039141 1.0539e-005 0.024344 0.015465 0.0075736 0.03388 
0.053281 -0.070359 0.097179 0.0019835 0.011848 0.017767 0.015465 0.038977 
0.11198 0.16146 0.1151 0.028619 0.01711 0.04917 0.062817 0.060186 
0.13056 0.32456 0.14765 0.021878 0.0037921 0.047526 0.057555 0.062159 
0.11905 0.37718 0.10721 0.061666 0.031907 0.036182 0.041114 0.050157 
0.085999 0.35564 0.12447 0.07449 0.010862 0.052787 0.004943 0.019247 
0.050486 0.18826 0.077285 0.045389 0.018918 0.015465 0.024673 0.020398 
0.047362 0.063968 0.0021479 0.033387 0.012177 0.018754 0.022206 0.018918 
0.0026412 0.071531 0.037826 0.029605 0.037497 0.032564 0.029769 0.04095 
-0.032543 0.041443 0.047691 0.056076 0.068078 0.055418 0.062323 0.048184 
-0.065426 -0.10061 -0.081539 0.014972 0.054925 0.038648 0.045224 0.047033 
-0.054575 -0.20797 -0.16259 0.0070803 0.031907 0.031414 0.046046 0.021056 
0.038319 -0.12856 -0.049642 0.038319 0.027632 0.0095465 0.0085601 0.0034632 
0.076134 0.072353 0.15176 0.084519 0.034702 0.012013 -0.0022913 0.013164 
0.078436 0.25387 0.24647 0.14272 0.055418 0.026974 0.020233 0.016288 
0.051801 0.20438 0.14026 0.13713 0.064461 0.044731 0.031414 0.037332 
0.082875 0.087643 0.0087245 0.13088 0.072517 0.023357 0.027796 0.032564 
0.091425 -0.0016336 0.012177 0.094548 0.06594 0.013821 0.020727 0.069064 
0.070051 -0.10094 0.065612 0.019247 0.051801 0.037661 0.0095465 0.068736 
-0.0080457 -0.27472 0.037497 -0.046683 -0.0090322 0.0072447 0.014808 0.059035 
-0.069208 -0.51444 -0.035996 -0.16835 -0.051615 -0.010183 -0.0004827 0.0098754 
-0.097487 -0.53844 -0.10045 -0.1723 -0.069208 -0.0022913 -0.0016336 -0.017417 
-0.066248 -0.23066 -0.10982 -0.13366 -0.047834 0.00050378 0.0069159 -0.047834 
0.0016547 0.12809 -0.077922 -0.11146 -0.052273 -0.016924 -0.019555 -0.019061 
0.070873 0.33344 -0.060658 -0.046354 -0.018897 -0.00064712 0.0019835 0.01152 
0.12858 0.32999 0.00017495 -0.012978 0.018754 0.011684 0.023193 0.040292 
0.087643 0.10524 0.047855 0.065776 0.064954 0.034209 0.034702 0.053116 
0.024837 -0.049314 -0.041093 0.062323 0.055254 0.052459 0.025495 0.035524 
0.024015 -0.0087034 -0.13053 0.061337 0.03388 0.0324 0.038977 0.038648 
0.058049 0.11395 -0.12725 0.05476 0.0019835 0.009711 0.025824 0.041278 
0.055911 0.088136 0.031249 0.096686 0.027468 0.017603 0.019247 0.050814 
-0.0082102 0.067585 0.15571 0.15341 0.083862 0.034702 0.042758 0.024179 
-0.050958 0.06479 0.13253 0.12464 0.0786 0.039963 0.03651 0.038319 
-0.066577 -0.0064016 -0.003771 0.069229 0.082217 0.037332 0.038812 0.022864 
-0.039942 -0.016595 0.030427 0.059857 0.056733 0.021878 0.032729 0.027796 
0.042758 0.079751 0.16114 0.046868 0.052787 0.0082312 0.025988 0.044896 
0.072188 0.10984 0.17971 0.026974 0.033551 0.027961 0.021549 0.01711 
0.01974 -0.05178 0.10145 -0.022021 -0.022514 0.0051074 0.029934 0.012999 
0.017767 -0.075455 0.03092 -0.032379 0.0023123 0.010533 0.034702 0.030756 
0.01267 0.16393 -0.043888 -0.051944 -0.0026201 0.028783 0.031249 0.057555 
0.0032988 0.37356 -0.076935 -0.13727 -0.00015387 -0.0057439 0.01563 0.039963 
-0.036325 0.30714 -0.10258 -0.097816 -0.006566 -0.004593 0.0092177 0.015959 
-0.014787 0.083697 -0.0080457 -0.052931 0.042758 0.024837 0.024837 -0.012485 
0.061172 0.037168 0.098823 0.046868 0.038812 0.027139 0.024015 0.027303 
-0.014622 0.14453 0.18432 0.14996 0.07038 0.037168 0.026481 0.048019 
-0.17591 0.19073 0.14321 0.1465 0.045718 0.030427 0.013657 0.1003 
-0.18989 0.12217 0.14387 0.14174 0.026317 -0.0004827 0.01267 0.073504 
0.095371 0.060679 0.25978 0.15982 0.045718 0.0092177 0.024015 0.056898 
0.73363 0.27064 0.40069 0.25222 0.092247 0.076299 0.071695 0.018589 
0.7961 0.45429 0.33624 0.18974 0.10688 0.093562 0.08715 -0.025474 
0.27771 0.35695 0.17199 0.0689 0.086985 0.0689 0.067256 -0.073976 
-0.13004 0.13549 -0.01117 -0.0077169 0.052459 0.080244 0.060679 -0.048656 
-0.18183 -0.10702 -0.17328 -0.11952 -0.0036066 0.0093821 0.013492 0.039963 
-0.096007 -0.27012 -0.32438 -0.1552 -0.051122 -0.027447 -0.0075525 0.069393 
-0.011334 -0.1649 -0.28179 -0.14846 -0.064768 -0.020048 -0.013471 0.07301 
-0.05441 -0.037311 -0.18084 -0.10735 -0.056383 -0.023007 -0.0091966 0.054103 
-0.18249 0.10195 -0.073318 0.031249 -0.0088678 -0.011498 0.019576 0.038648 
-0.2642 0.18284 0.14437 0.13088 0.045718 0.038812 0.032564 0.017274 
-0.19104 0.12135 0.22312 0.19862 0.09274 0.054432 0.016123 0.039799 
0.10819 0.12217 0.25222 0.14289 0.059857 0.052952 0.025495 -0.018733 
0.49555 0.29431 0.32752 0.083697 0.059035 0.046868 0.037661 -0.0039354 
0.45675 0.39592 0.34084 0.077285 0.041936 0.047526 0.03536 -0.0072237 
0.10606 0.19583 0.18119 -0.026789 0.019083 0.012835 0.0092177 0.0031344 
-0.090581 0.0072447 -0.0024557 -0.037805 -0.011827 0.017274 0.0019835 0.021713 
-0.094199 -0.021856 0.064625 0.012342 0.01415 0.017438 0.027961 0.071037 
-0.042737 0.00017495 0.19649 0.12381 0.053774 0.04095 0.035853 0.07449 
0.027632 0.066598 0.066269 0.1128 0.043416 0.070051 0.033058 0.034537 
0.07038 0.13319 -0.016102 0.066763 0.049664 0.043087 0.039305 0.058706 
0.1493 0.2297 0.096028 0.10507 0.050979 0.016616 0.052294 0.039799 
0.12431 0.21753 0.11329 0.019411 0.038977 0.032893 0.045389 0.048019 
0.10129 0.049992 -0.077757 -0.083018 -0.0054151 -0.0039354 0.020398 0.025001 
0.0227 -0.15848 -0.23921 -0.12905 -0.017582 -0.0039354 -0.0014692 0.03536 
0.022371 -0.133 -0.24283 -0.1108 -0.019719 0.027796 0.034373 0.047197 
0.037004 0.082217 -0.13218 -0.023007 0.0037921 0.028619 0.049335 0.029276 
0.025824 0.14338 -0.079895 0.0085601 0.0064227 0.004943 0.03388 -0.0082102 
0.016452 -0.016924 -0.032872 0.062652 0.0052718 0.0064227 0.00017495 -0.025638 
0.0023123 -0.20584 0.0060938 0.099152 0.038812 0.012013 -0.010348 -0.030899 
0.026481 -0.1912 -0.03057 0.1003 0.077449 0.032236 0.016123 0.026974 
0.062981 -0.1159 -0.057534 0.082382 0.073339 0.046375 0.046211 0.078107 
0.0011614 -0.20962 -0.083183 -0.030406 0.035031 0.046211 0.037497 0.061008 
-0.045696 -0.40379 -0.0019624 -0.026131 0.023028 0.025824 0.028783 0.053116 
-0.10373 -0.55193 0.039963 -0.0011404 0.027468 -0.00081153 0.019905 -0.020706 
-0.10801 -0.37633 -0.014787 -0.015609 -0.0021268 -0.0054151 0.011355 -0.045203 
-0.095349 0.010369 -0.070523 -0.055068 -0.051451 -0.021856 -0.0049219 -0.051287 
-0.030242 0.2948 -0.11722 -0.10505 -0.033201 -0.013965 0.0052718 -0.004593 
0.057227 0.43489 -0.12445 -0.05737 0.00083261 0.032564 0.037004 0.043087 
0.1026 0.44952 -0.082032 -0.068221 0.024508 0.02533 0.060679 0.07597 
0.11707 0.44557 0.05213 -0.016102 0.026646 0.035688 0.044731 0.098988 
0.033058 0.27968 0.15982 0.027303 0.035688 0.035853 0.025824 0.087972 
-0.097816 -0.039613 0.11198 -0.023994 0.01415 0.010697 0.0065871 0.068407 
-0.15306 -0.33654 -0.041586 -0.042244 -0.053917 -0.022185 0.015465 -0.0054151 
-0.037805 -0.32684 -0.16818 -0.11015 -0.02235 0.004943 0.0034632 0.0032988 
0.15686 -0.12396 -0.10768 -0.038462 0.0064227 0.0011614 0.0032988 -0.0073881 
0.1105 -0.052273 0.1442 0.15637 0.075641 0.041278 0.017274 -0.011005 
-0.047669 -0.18101 0.35794 0.32423 0.11839 0.06594 0.042429 -0.0067304 
-0.11935 -0.21044 0.28609 0.3757 0.1248 0.053445 0.058213 0.039634 
-0.11689 -0.15191 0.16936 0.31519 0.12283 0.049992 0.042758 0.064625 
-0.034681 -0.066577 0.13795 0.21128 0.094384 0.028947 0.0070803 0.053609 
0.062488 -0.052273 0.052459 0.036675 0.017603 0.0024767 -0.018897 0.0011614 
0.10211 0.025166 -0.18315 -0.16391 -0.011992 -0.004593 0.018589 -0.032215 
0.12579 0.14404 -0.38603 -0.22524 -0.017088 0.025824 0.037826 0.0039565 
0.14798 0.23644 -0.364 -0.22195 -0.021692 0.021384 0.041772 0.033715 
0.13779 0.25206 -0.31533 -0.18084 -0.023336 0.011355 0.036182 0.092411 
0.047033 0.17873 -0.38751 -0.17476 -0.043395 0.0082312 0.012342 0.074819 
-0.021199 0.0324 -0.33852 -0.15454 -0.026789 -0.0004827 0.01711 0.060022 
-0.091404 -0.17279 -0.14533 -0.042901 0.033222 0.0013258 0.014479 0.049664 
-0.12708 -0.1233 0.1761 0.062488 0.059693 0.029769 0.01415 0.025988 
-0.10653 0.11033 0.414 0.16771 0.077449 0.012177 0.033222 0.05772 
-0.01528 0.24153 0.47796 0.20849 0.082382 0.044731 0.061501 0.031742 
0.03799 0.13056 0.50871 0.21391 0.080902 0.079258 0.041772 0.050814 
0.044896 0.053281 0.50345 0.30056 0.097508 0.048019 0.038812 0.027139 
0.040128 0.12398 0.69926 0.37866 0.10852 0.031907 0.039141 0.043745 
0.047362 0.055254 0.79199 0.42634 0.12464 0.053938 0.04506 0.031085 
0.041114 -0.038627 0.41368 0.24828 0.099152 0.033222 0.030098 0.041278 
0.010533 0.084848 -0.17525 -0.036818 0.021384 0.0024767 0.01974 0.01974 
0.0074092 0.19287 -0.48221 -0.218 -0.036654 0.0095465 0.0069159 0.030756 
0.03651 0.30319 -0.45065 -0.26831 -0.057699 -0.0138 -0.011992 0.025659 
0.070215 0.23562 -0.27801 -0.22293 -0.067728 -0.029584 0.0047785 0.013328 
0.14091 0.070051 -0.093048 -0.13497 -0.052931 0.010204 -0.0090322 0.021384 
0.1733 -0.072989 -0.04619 -0.023336 0.0079024 0.014808 0.034209 0.035853 
0.15489 -0.22409 -0.065097 0.047033 0.018096 0.032236 0.037168 0.026646 
0.069064 -0.10242 0.025166 0.12283 0.065612 0.064461 0.072188 0.05772 
0.012506 0.26028 0.20553 0.2149 0.098988 0.072353 0.064625 0.075476 
-0.025802 0.49424 0.43883 0.22953 0.10787 0.049992 0.041278 0.066763 
-0.0027845 0.49769 0.54866 0.26998 0.10803 0.062817 0.036017 0.075805 
-0.044381 0.21227 0.41121 0.19714 0.082546 0.044731 0.035853 0.02829 
-0.014622 -0.11343 0.20717 0.13088 0.07038 0.042594 0.060186 0.0072447 
0.051801 -0.19761 0.066434 0.048677 0.065447 0.062981 0.051636 -0.010348 
0.0075736 -0.16687 -0.12396 -0.097322 -0.013307 -0.0039354 0.0090533 -0.017582 
-0.093705 -0.3617 -0.36318 -0.22918 -0.049642 -0.045696 -0.016266 -0.035174 
-0.036325 -0.35693 -0.47038 -0.24513 -0.065591 -0.0052507 -0.0078813 0.010204 
0.18481 0.094384 -0.24957 -0.10373 0.012506 0.014643 0.010533 0.036675 
0.33591 0.46547 0.035195 0.10129 0.061008 0.024344 0.040785 0.059693 
0.29201 0.487 0.19895 0.18728 0.091753 0.065283 0.041278 0.092411 
0.12497 0.2754 0.14667 0.1516 0.054267 0.031907 0.034702 0.050979 
-0.047998 0.037497 0.053281 0.036675 -0.0036066 0.0051074 0.026974 0.030592 
-0.10225 -0.09946 0.016781 -0.085156 -0.036818 -0.0011404 0.010369 0.01415 
-0.073482 -0.2203 0.040292 -0.055068 -0.014622 0.0051074 0.012835 0.030592 
-0.010841 -0.13843 0.088794 0.057227 0.025166 0.011191 0.014808 0.0083956 
0.0042853 -0.063124 0.14782 0.17824 0.066763 0.053445 0.06035 -0.012485 
0.036346 0.16097 0.24038 0.10556 0.088465 0.063474 0.048841 -0.028104 
0.10129 0.31848 0.19977 0.025988 0.073339 0.041936 0.040785 0.057555 
0.087643 0.20734 -0.05178 -0.066248 -0.0013048 0.039799 0.045389 0.055254 
-0.00015387 0.017274 -0.24118 -0.14385 -0.034188 0.0056006 -0.0004827 0.030263 
-0.027282 -0.10834 -0.29906 -0.12133 -0.052437 -0.003771 -0.013636 0.024179 
-0.071509 -0.10324 -0.20699 -0.063289 -0.026624 -0.011827 -0.010019 -0.00081153 
-0.13267 -0.012156 -0.10554 -0.039449 0.010204 0.0036276 -0.0013048 0.051636 
-0.14878 0.13467 0.0070803 0.082875 0.022864 0.012506 0.016781 0.046868 
-0.10012 0.23348 0.10819 0.086492 0.032564 0.011355 0.077449 0.069229 
0.29267 0.28971 0.12546 0.074326 0.063474 0.048841 0.057227 0.037004 
0.50164 0.32588 0.22707 0.027139 0.051801 0.052952 0.053116 0.040456 
0.44343 0.27853 0.19698 0.0016547 0.03388 0.040785 0.03388 -0.061809 
0.24417 0.01563 0.019247 -0.034516 0.031907 0.037004 0.038812 -0.077757 
-0.087458 -0.22557 -0.12314 -0.10456 -0.032872 0.011026 -0.0034422 -0.0503 
-0.26733 -0.22935 -0.14434 -0.0095255 -0.0052507 -0.0064016 -0.00064712 0.020562 
-0.22014 -0.12198 -0.20699 0.0093821 0.015465 0.0087245 -0.0036066 0.057391 
-0.020541 -0.003771 -0.29774 -0.030735 0.015465 0.0062583 0.0087245 0.06035 
0.14042 0.023522 -0.33079 -0.090581 0.0047785 0.014808 0.052294 0.074326 
0.079094 0.048019 -0.33211 -0.16424 -0.018733 0.013328 0.020562 0.053445 
-0.17624 -0.044217 -0.35973 -0.1986 -0.070687 -0.010841 0.018425 0.050979 
-0.32076 -0.098473 -0.43519 -0.24858 -0.092061 -0.036818 -0.02087 0.01415 
-0.23444 -0.098309 -0.2545 -0.13267 -0.072496 -0.018568 0.010369 0.016945 
0.20208 -0.017253 0.27228 0.091753 0.022535 0.021056 0.021056 -0.0055795 
0.4972 -0.0013048 0.65734 0.29661 0.11033 0.06594 0.060515 0.022371 
0.32752 0.067256 0.6358 0.31634 0.12743 0.10376 0.059693 0.085177 
-0.027611 0.23381 0.40299 0.17758 0.084848 0.059693 0.048019 0.074983 
-0.18545 0.36041 0.43834 0.20372 0.075805 0.056898 0.033387 0.041772 
0.050979 0.43637 0.65273 0.31749 0.1151 0.067913 0.031085 0.042265 
0.32982 0.36665 0.52992 0.33246 0.12497 0.074654 0.052787 0.036017 
0.18465 0.15061 0.055911 0.16821 0.069393 0.044731 0.033222 0.01152 
-0.021856 0.10951 -0.28755 -0.080223 0.013657 0.039141 0.054925 0.016781 
-0.14911 -0.06296 -0.50227 -0.30185 -0.067399 -0.013965 0.013821 0.0039565 
-0.18972 -0.33243 -0.57264 -0.37683 -0.090746 -0.040106 -0.016102 0.029441 
-0.2157 -0.46939 -0.21126 -0.20616 -0.044217 -0.0077169 -0.015444 -0.0031133 
-0.12675 -0.24234 0.12053 0.050157 0.039634 0.0041209 0.021549 0.014972 
0.013657 0.085999 0.062159 0.043909 0.054103 0.0032988 0.0037921 0.0044497 
0.15999 0.27179 -0.096665 0.0085601 0.037497 0.026646 0.012342 0.010862 
0.21079 0.38178 0.089452 0.025659 0.0018191 0.042758 0.021878 0.036839 
0.1955 0.30993 0.317 0.12316 0.034866 0.051965 0.051143 0.096686 
0.18136 0.14946 0.25946 0.16459 0.026646 0.072517 0.064296 0.11411 
0.10228 -0.047505 0.14749 0.11411 0.037497 0.03947 0.03092 0.055582 
0.10425 -0.19433 0.046704 0.083697 0.048184 0.0060938 0.027632 0.045389 
0.094713 -0.24628 -0.11393 0.030592 0.033715 0.029112 0.023522 0.022864 
0.050814 -0.24431 -0.33638 0.037661 -0.07003 -0.020706 0.027468 0.047033 
-0.032379 -0.062467 -0.22228 0.053609 0.053938 0.022535 0.022864 0.042265 
-0.098802 0.0087245 0.13828 0.25107 0.094713 0.044402 0.014479 0.038812 
-0.19531 -0.0022913 0.366 0.32571 0.082382 0.0095465 -0.016431 0.011026 
-0.21702 0.23792 0.61821 0.28576 0.095699 0.018918 0.016288 -0.00015387 
-0.15865 0.46037 0.69729 0.2052 0.079258 0.044896 0.045389 -0.029091 
-0.097322 0.37882 0.49703 0.10376 0.049828 0.02533 0.017438 -0.0013048 
-0.066577 0.010533 0.37027 0.014479 0.032893 0.03651 0.009711 0.011191 
0.043909 -0.22425 0.23578 0.08008 0.032729 0.039799 0.037332 0.019247 
0.34972 -0.12675 0.10622 0.10129 0.06479 0.0421 0.06594 0.0090533 
0.44393 -0.06148 -0.014787 0.10622 0.064132 0.049006 0.061995 0.0080668 
0.20421 -0.062796 -0.083676 0.039963 0.062159 0.037826 0.041936 0.0095465 
-0.059507 -0.031392 -0.11442 -0.0057439 0.015137 0.026152 0.01415 -0.00031829 
-0.18019 0.050157 -0.1039 -0.052273 0.0011614 0.014315 0.024015 0.033222 
-0.17608 0.084355 -0.14418 -0.093212 -0.028104 -0.0080457 0.012013 0.020891 
-0.15076 -0.13349 -0.16243 -0.052766 -0.027775 0.0054362 0.011848 0.061501 
-0.099295 -0.23724 -0.072496 -0.017911 -0.0059084 0.0098754 0.0095465 0.064625 
0.013986 -0.11311 -0.058028 0.019411 0.03092 0.023193 0.01563 0.054596 
0.096193 -0.036983 -0.12938 0.030263 0.041607 0.039963 0.050814 0.066269 
0.13072 -0.010183 -0.10883 0.03799 0.043909 0.036675 0.046211 0.037826 
0.059364 0.061172 -0.023994 0.089616 0.04506 0.0324 0.030427 0.06183 
0.034209 0.11 0.082875 0.062652 0.039634 0.03536 0.021549 0.034209 
-0.028762 0.11444 0.091096 0.026317 0.054432 0.033222 0.044238 0.0324 
-0.028597 0.15949 0.034537 0.012342 0.007738 0.01152 0.026974 0.005765 
-0.020048 0.1756 -0.029255 -0.03205 0.01267 0.016288 0.025495 0.01152 
0.0028056 0.13993 -0.09798 -0.051451 -0.00064712 0.0092177 0.0095465 0.0018191 
0.029605 0.10589 -0.17114 -0.11722 -0.0067304 0.0060938 0.011191 0.016123 
0.056733 0.073997 -0.2037 -0.12577 -0.024652 0.0056006 0.022206 0.011026 
0.01826 0.013986 -0.10998 -0.062631 -0.016102 0.017932 -0.00031829 0.0034632 
-0.014622 -0.14813 0.03388 0.014315 0.022206 -0.0004827 0.0011614 -0.024652 
-0.032708 -0.21882 0.066927 0.11888 0.044402 0.031907 0.020562 -0.0054151 
0.0095465 -0.046025 -0.043888 0.048348 0.031578 0.01152 0.038812 -0.015773 
0.068078 0.1659 -0.076771 -0.030406 0.005765 0.019905 0.029276 0.029605 
0.072024 0.26209 0.1613 -0.0013048 0.00033937 0.034866 0.029934 0.037826 
0.078929 0.21194 0.34495 0.065612 0.031414 0.022206 0.017603 0.026646 
0.11707 0.21227 0.14815 0.031249 0.013821 0.01974 0.045389 0.060679 
0.12201 0.15982 -0.24529 -0.096336 0.015301 0.041114 0.0421 0.050814 
0.062159 -0.010841 -0.51428 -0.14961 0.00017495 0.020727 0.024015 0.040292 
0.010533 -0.16079 -0.35348 -0.12314 0.0059294 -0.00031829 0.012999 0.012999 
-0.018404 -0.16276 -0.14698 -0.11475 -0.04471 0.0046141 0.0088889 0.027468 
0.0016547 -0.080552 -0.19564 -0.16884 -0.065591 -0.019226 0.017438 -0.012814 
0.045718 0.015794 -0.25483 -0.19449 -0.04882 -0.022021 0.015794 0.0036276 
0.038155 0.11017 -0.027447 0.028125 0.031249 0.03388 0.024837 0.0090533 
0.055089 0.17971 0.17807 0.13565 0.068571 0.042265 0.043909 0.053774 
0.063639 0.1927 0.19435 0.11033 0.044402 0.037004 0.066598 0.082382 
0.092082 0.21391 -0.092061 -0.0082102 0.020562 0.030592 0.041443 0.046046 
0.091096 0.20043 -0.31895 -0.16934 -0.033201 0.034373 0.0074092 0.044731 
0.12266 0.17067 -0.22195 -0.16835 -0.035832 0.016452 0.020233 0.023357 
0.12069 0.14289 -0.091732 -0.14632 -0.017088 0.038812 0.033715 0.038319 
0.1299 0.18432 -0.033201 -0.064933 0.009711 0.02829 0.038977 0.043416 
0.12299 0.19566 0.039634 0.029605 0.022535 0.025824 0.0064227 0.052787 
0.052459 0.13351 -0.010348 0.027468 -0.0004827 0.0079024 -0.0019624 0.016288 
-0.018075 0.11296 -0.070687 0.034866 -0.0022913 0.0024767 0.01974 0.052294 
-0.12116 -0.058356 0.00083261 0.038483 0.020069 0.015465 0.034209 0.022371 
-0.057205 -0.098309 0.15999 0.14075 0.061008 0.05213 0.045224 0.048019 
0.14996 0.14469 0.33213 0.24844 0.12595 0.07597 0.053116 0.11773 
0.25206 0.27935 0.62133 0.33821 0.14009 0.067256 0.058213 0.097837 
0.20471 0.20438 0.96989 0.47287 0.11543 0.070544 0.041607 0.074654 
0.055747 -0.065097 0.8451 0.40809 0.13384 0.067913 0.049828 0.029441 
-0.10752 -0.27472 0.44475 0.26603 0.084684 0.054432 0.030427 -0.001798 
-0.17673 -0.19663 0.038812 0.13631 0.08156 0.055747 0.016288 -0.038133 
-0.24957 -0.27916 -0.3372 -0.06 0.014315 0.029769 -0.020541 -0.04882 
-0.28574 -0.38883 -0.47531 -0.23707 -0.047341 -0.012485 -0.0034422 -0.06707 
-0.16161 -0.040106 -0.33145 -0.30087 -0.062467 -0.049478 -0.02087 -0.010841 
0.07597 0.4847 -0.09239 -0.19235 -0.036818 -0.0057439 0.0028056 0.021384 
0.24943 0.65471 0.12908 -0.030077 0.0059294 0.011191 0.030427 0.073339 
0.23529 0.40217 0.19287 0.058213 0.024673 0.024508 0.041607 0.050321 
0.13812 0.070708 0.20898 0.14634 0.025659 0.030427 0.030098 0.045718 
0.078929 -0.0096899 0.35038 0.22296 0.0592 0.025659 0.041772 0.080573 
0.062981 -0.017911 0.34627 0.27606 0.08863 0.065612 0.047197 0.078107 
-0.018568 -0.24464 0.087314 0.17297 0.088958 0.066434 0.044402 0.077778 
-0.036818 -0.41744 -0.13267 0.091589 0.093398 0.055254 0.055582 0.052787 
-0.027282 -0.13267 -0.13908 0.051965 0.085835 0.047526 0.031578 0.06479 
0.030427 0.14683 -0.13448 0.0079024 0.055254 0.041607 0.021384 0.013821 
0.14404 0.24729 -0.24168 -0.038133 0.0044497 0.0075736 0.0227 0.011848 
0.17051 0.31782 -0.21389 -0.11327 -0.037805 -0.011334 0.013492 -0.019226 
0.026152 0.085506 -0.0013048 -0.10143 -0.006566 0.0051074 0.0072447 -0.017746 
-0.099131 -0.26042 0.14371 -0.026296 0.011848 0.018425 0.016452 0.0075736 
-0.14582 -0.4301 0.17758 0.04095 0.029934 0.031907 0.017932 0.026152 
-0.11672 -0.32504 0.14519 0.092904 0.05213 0.028125 0.018425 0.0044497 
-0.15552 -0.2374 0.31305 0.13056 0.066434 0.0031344 0.019576 -0.035667 
-0.19778 -0.29149 0.79051 0.36534 0.078929 0.019083 -0.0075525 -0.032543 
-0.09798 -0.14237 1.1422 0.61541 0.18909 0.072846 0.038155 0.0039565 
0.020398 0.13351 0.86236 0.59223 0.20586 0.092082 0.033387 0.064461 
0.11214 0.44541 0.29119 0.36468 0.13154 0.071531 0.080573 0.060186 
0.13697 0.414 -0.23411 0.0062583 0.059857 0.055418 0.067749 0.07301 
0.12546 0.18448 -0.50014 -0.23855 -0.030242 0.015465 0.036182 0.049992 
0.02681 -0.068714 -0.60125 -0.37124 -0.085485 -0.0090322 -0.00064712 0.034209 
-0.10752 -0.33013 -0.59665 -0.35562 -0.096336 -0.034352 -0.0050863 -0.0016336 
-0.047176 -0.22359 -0.48221 -0.28443 -0.089102 -0.049642 0.009711 0.01004 
0.076956 0.11724 -0.31895 -0.26601 -0.060494 -0.025474 -0.0077169 0.044896 
0.13499 0.29365 -0.18232 -0.18002 -0.046683 -0.0042642 -0.012978 0.021384 
0.16475 0.29102 -0.059672 -0.11327 -0.03057 -0.018733 0.014643 0.0021479 
0.13762 0.16031 -0.02794 -0.074798 -0.01528 0.0072447 0.035524 -0.018733 
0.08304 0.077121 -0.12429 -0.05441 -0.022185 0.045553 0.010862 0.012506 
0.081067 0.17544 -0.05885 -0.01676 -0.00064712 0.029769 0.018425 0.019905 
0.11674 0.36682 0.13631 0.13516 0.048513 0.032564 0.056898 0.097672 
0.14108 0.44196 0.22 0.17215 0.090603 0.076299 0.066598 0.085999 
0.10589 0.30977 0.16623 0.12102 0.088794 0.029605 0.027796 0.079916 
0.010862 0.15555 0.18169 0.0592 0.03651 0.0047785 0.02122 0.045882 
-0.19827 -0.0019624 0.26472 0.079587 0.012342 0.032729 0.0047785 0.03388 
-0.35956 -0.32125 0.14058 0.062159 0.007738 -0.0064016 -0.0044286 0.0083956 
-0.28196 -0.69332 -0.072167 -0.015938 -0.019555 -0.035174 0.0014903 -0.014622 
0.18859 -0.50984 -0.075455 0.066763 0.016945 0.027468 0.029276 0.0095465 
0.49966 -0.13547 -0.096829 0.10162 0.058377 0.05772 0.05772 0.04095 
0.28658 0.084026 -0.15816 0.034866 0.053445 0.036017 0.040785 0.066105 
0.013821 0.12644 -0.29988 -0.050793 0.015794 0.041607 0.051143 0.027468 
-0.075455 0.088136 -0.34312 -0.11311 -0.0036066 0.017932 0.026317 0.032564 
0.012177 0.16459 -0.18841 -0.087622 -0.0024557 0.0018191 0.026481 0.050486 
0.10852 0.24926 -0.055726 -0.11541 -0.029748 0.020727 0.031085 0.066269 
0.13138 0.39263 0.063968 -0.14878 -0.036654 0.011026 0.038648 0.041772 
0.089452 0.50558 0.2195 -0.078579 -0.028104 -0.001798 0.016452 0.038319 
0.08304 0.43373 0.17626 -0.064604 -0.028597 -0.0070593 -0.02498 0.0011614 
0.069393 0.366 -0.14615 -0.14763 -0.050629 -0.010676 -0.010183 -0.00031829 
0.035688 0.32341 -0.28837 -0.1695 -0.03764 -0.0072237 0.018096 0.012999 
-0.010676 0.24203 0.012506 -0.050464 -0.0027845 0.00017495 0.023851 0.0095465 
0.020233 0.1516 0.36419 0.13598 0.035031 0.019247 0.016945 0.037004 
0.088958 0.083533 0.40299 0.18185 0.074819 0.045882 0.052952 0.081724 
0.13713 -0.011498 0.036839 0.10819 0.084519 0.069393 0.079751 0.092247 
0.079751 -0.18167 -0.14648 0.11263 0.067749 0.068242 0.077943 0.049828 
-0.041751 -0.279 0.17889 0.23775 0.085341 0.060186 0.040456 0.030756 
-0.20863 -0.24628 0.63054 0.46612 0.1054 0.03651 0.024508 0.030098 
-0.21948 -0.11212 0.33574 0.35514 0.083204 0.029769 0.015301 0.0421 
-0.031721 0.097672 -0.33622 0.054103 0.049006 0.031085 0.018096 0.060515 
0.32407 0.33558 -0.62641 -0.1792 0.033058 0.039799 0.053445 0.019576 
0.5388 0.38721 -0.4324 -0.21192 0.02122 0.030098 0.041114 -0.026131 
0.256 0.22986 -0.0067304 -0.20468 0.0042853 0.018754 0.029441 -0.044546 
-0.05885 0.019411 0.25732 -0.11886 -0.015116 0.007738 0.0065871 0.016945 
-0.19679 -0.15569 0.32835 0.018754 0.023193 0.024837 0.032729 0.016781 
-0.13892 -0.26881 0.26094 0.072188 0.04506 0.029934 0.037826 0.056076 
-0.062631 -0.14237 0.15045 0.11872 0.058213 0.042429 0.032729 0.033551 
-0.023007 0.01974 0.25156 0.18218 0.077449 0.051965 0.025001 0.058377 
0.0324 0.061008 0.42206 0.22427 0.077943 0.018589 0.024015 0.043909 
0.048677 -0.12149 0.24712 0.21967 0.062817 0.0023123 0.034702 0.019083 
-0.011663 -0.23527 0.028783 0.082382 0.025824 -0.0091966 -0.014458 1.0539e-005 
-0.043066 -0.109 -0.1963 -0.014293 -0.0031133 -0.019719 -0.017746 -0.012978 
-0.042079 0.051636 -0.24743 -0.098967 -0.0050863 -0.0044286 0.00297 0.0060938 
-0.017911 0.099645 -0.27719 -0.11179 0.0075736 0.034209 0.047362 0.0092177 
-0.042901 0.012342 -0.23313 -0.062302 0.017603 0.031249 0.042429 0.0024767 
-0.044381 -0.16128 -0.16934 -0.052437 0.0072447 -0.0014692 0.037661 0.0056006 
0.015137 -0.084169 -0.047998 0.016616 0.024344 0.046046 0.024508 0.056569 
0.1197 0.16459 -0.025474 0.058049 0.046046 0.044567 0.045718 0.072024 
0.18136 0.29661 -0.022843 0.043745 0.058871 0.040621 0.031907 0.070051 
0.13006 0.21474 0.068571 0.011355 0.041607 0.046704 0.024015 0.036182 
0.02829 0.089287 0.21687 -0.013965 0.025495 0.024673 0.015301 0.02533 
-0.07414 -0.010512 0.27129 0.043909 0.019083 0.004943 0.013328 0.020562 
-0.17591 -0.19844 0.16262 0.12283 0.04506 0.023357 0.045882 -0.017417 
-0.24908 -0.34279 0.059364 0.2223 0.089616 0.037826 0.032071 -0.025309 
-0.17608 -0.15585 0.19879 0.27507 0.094713 0.046375 0.0023123 -0.038133 
0.05065 0.092082 0.40611 0.21523 0.063803 0.042758 0.012506 0.007738 
0.15111 0.013821 0.43489 0.15028 0.047033 0.011684 0.038648 0.040292 
0.13335 -0.26765 0.21013 0.021713 0.010369 -0.015116 0.025001 0.085999 
-0.014951 -0.40198 -0.073318 -0.047834 -0.00015387 0.013821 0.021713 0.068571 
-0.1598 -0.24973 -0.10028 -0.048163 -0.00031829 0.01974 0.01563 0.025166 
-0.16325 0.025824 -0.13481 -0.072496 -0.0067304 0.0026412 0.0037921 -0.016102 
0.10376 0.17692 -0.33309 -0.12346 -0.031064 -0.018075 0.0227 -0.032708 
0.42305 0.27557 -0.3668 -0.16687 -0.019719 0.030263 0.028947 -0.052766 
0.29596 0.35071 -0.20814 -0.11343 0.031742 0.063968 0.057555 -0.069372 
-0.00064712 0.39428 -0.077264 -0.073811 0.034209 0.064625 0.049499 -0.045039 
-0.13662 0.34627 -0.044546 -0.14632 -0.010348 0.0090533 0.051143 0.012506 
-0.045861 0.3193 0.14026 -0.098473 -0.022021 -0.026296 0.011684 0.069886 
0.067749 0.24203 0.21605 -0.052931 -0.03057 -0.041751 -0.00081153 0.064954 
0.17248 0.081724 -0.0075525 0.011191 -0.0042642 -0.0032777 0.0092177 0.08863 
0.1659 -0.021692 -0.14698 0.066763 0.053609 -0.0082102 0.044567 0.099481 
0.10096 -0.015938 -0.085485 0.17676 0.080409 0.077778 0.062488 0.10228 
0.083368 0.11099 0.28938 0.39345 0.10096 0.12184 0.066105 0.089452 
0.090438 0.11247 0.39345 0.40578 0.1516 0.098001 0.069393 0.097508 
-0.014787 -0.23428 0.061337 0.19829 0.12135 0.071531 0.048841 0.048677 
-0.16457 -0.53548 0.022042 0.033058 0.043416 0.0074092 0.029605 0.0039565 
-0.25121 -0.56705 0.2246 -0.029748 0.0072447 -0.015444 -0.013143 -0.045368 
-0.20995 -0.38159 0.072846 -0.11705 -0.053917 -0.06 -0.032543 -0.090253 
-0.074633 -0.23132 -0.29725 -0.26075 -0.10982 -0.064275 -0.043395 -0.088115 
0.078107 -0.032708 -0.43207 -0.22968 -0.067892 -0.043724 -0.0080457 -0.057205 
0.16541 0.31914 -0.26864 -0.14402 -0.030406 -0.00031829 0.026974 0.038155 
0.23858 0.62709 -0.011334 0.039799 0.054267 0.050486 0.067749 0.095371 
0.24614 0.81074 0.29349 0.22411 0.086657 0.054596 0.0592 0.12743 
0.14058 0.72458 0.4316 0.19977 0.088465 0.079422 0.055747 0.079587 
-0.0070593 0.48799 0.39493 0.12875 0.080738 0.066927 0.065447 0.047197 
0.051636 0.34429 0.37504 0.10343 0.084848 0.047197 0.045224 0.039963 
0.095699 0.23151 0.22526 0.10836 0.060022 0.043416 0.048348 0.051801 
0.059035 0.042429 -0.041586 0.047691 0.021549 0.032729 0.01711 0.045882 
0.018918 -0.15174 -0.20633 -0.021856 -0.0077169 0.0065871 0.048348 0.031578 
-0.008539 -0.32092 -0.087293 0.036346 0.025495 0.024179 0.036182 0.037168 
-0.021363 -0.22359 0.2006 0.11181 0.053609 0.030592 0.028783 0.061172 
0.019247 0.0689 0.32604 0.18629 0.052294 0.02533 0.012506 0.038648 
0.06479 0.35794 0.18958 0.14798 0.056733 0.030592 0.015301 0.051143 
0.090767 0.42354 -0.10735 -0.004593 0.027303 0.0036276 0.020891 0.063474 
0.0095465 0.21408 -0.41776 -0.15355 -0.019555 -0.011992 0.0059294 0.029112 
-0.048985 -0.0083746 -0.4421 -0.28311 -0.079237 -0.012814 0.0024767 0.019247 
0.038155 -0.13004 -0.2642 -0.26535 -0.072825 0.0075736 0.015794 -0.016266 
0.14206 -0.12807 -0.19071 -0.23165 -0.052602 0.0064227 0.035031 -0.028104 
0.16278 -0.072003 -0.1455 -0.12889 -0.032215 0.0064227 0.014315 -0.026131 
0.08156 -0.15454 -0.085156 0.0039565 -0.0036066 0.01711 -0.0087034 0.032729 
0.031907 -0.16062 -0.10982 0.062652 0.038319 0.017767 0.019576 0.04506 
0.022864 0.0088889 0.16048 0.3101 0.1026 0.033715 0.049828 0.079258 
-0.032872 0.15703 0.44442 0.50394 0.14683 0.043416 0.026974 0.047033 
-0.10965 0.076956 0.35761 0.33098 0.095864 -0.0049219 -0.0088678 -0.0072237 
-0.13481 -0.052437 0.26455 0.14979 0.028783 -0.0070593 -0.026624 0.012342 
-0.054246 0.011848 0.39 0.085012 0.053281 0.028125 -0.00064712 0.023357 
-0.04471 0.11296 0.47796 0.15193 0.087972 0.050157 0.047362 0.052787 
-0.068057 -0.064604 0.25239 0.093233 0.095699 0.046375 0.049992 0.043251 
-0.12215 -0.39195 0.076463 -0.014951 0.060844 0.078765 0.057227 0.012835 
-0.018239 -0.3395 0.14946 -0.035996 0.01415 0.021878 0.0421 0.040785 
0.14058 -0.012485 -0.049314 -0.046025 0.016781 0.020069 0.039634 0.081889 
0.18021 0.24597 -0.23625 -0.10028 -0.010183 0.021384 0.020069 0.076956 
0.10178 0.33805 -0.425 -0.20485 -0.05589 -0.0064016 -0.01939 0.10737 
0.094055 0.42436 -0.47695 -0.25039 -0.067235 -0.015609 0.010697 0.10228 
0.10162 0.41877 -0.30415 -0.20156 -0.08384 -0.0091966 0.01004 0.067913 
0.19994 0.41976 -0.1723 -0.16095 -0.067564 -0.021528 -0.017582 -0.01528 
0.36994 0.44738 -0.070687 -0.10275 -0.019226 -0.010676 -0.01232 -0.072825 
0.28445 0.41713 0.13861 -0.030406 0.018425 0.042265 0.016616 -0.035338 
-0.011827 0.14371 0.28083 -0.04882 0.0079024 0.023357 -0.0031133 -0.035174 
-0.27242 -0.29774 0.35071 -0.030077 -0.011992 -0.020212 -0.0096899 -0.038791 
-0.33901 -0.55028 0.22411 -0.062467 -0.020212 -0.02087 -0.023994 -0.075455 
-0.17279 -0.73936 0.053116 0.079751 0.052623 0.028619 0.01563 -0.015444 
0.044238 -0.72242 0.08567 0.25584 0.11378 0.0786 0.062652 0.066434 
0.063474 -0.41152 0.19681 0.44212 0.17955 0.1105 0.083204 0.081724 
0.0098754 -0.13201 0.098166 0.47467 0.1978 0.093398 0.067091 0.062981 
0.016123 0.0031344 0.005765 0.32193 0.16541 0.094384 0.052952 0.077285 
0.08567 0.22822 0.17133 0.25584 0.11757 0.093726 0.073668 0.11181 
0.16278 0.64435 0.20734 0.13532 0.083204 0.065118 0.077614 0.12891 
0.17429 0.81222 0.21589 -0.014622 0.0042853 0.012835 0.052787 0.11526 
0.035688 0.41055 0.027796 -0.21192 -0.08121 -0.018568 -0.011005 0.060186 
-0.2397 -0.31928 -0.38685 -0.37025 -0.13152 -0.050136 -0.035996 -0.016266 
-0.2813 -0.43404 -0.63939 -0.31172 -0.080388 -0.0406 -0.044874 -0.061151 
0.05065 0.18547 -0.33687 -0.17262 -0.032543 0.015465 0.011355 -0.024158 
0.55622 0.63465 0.049664 -0.047176 0.0072447 0.030592 0.036017 0.00297 
0.51693 0.36567 0.14815 -0.10341 -0.024816 -0.004593 0.012835 -0.006566 
0.044402 -0.077757 -0.085649 -0.17493 -0.050136 -0.011992 -0.019555 -0.011334 
-0.32273 -0.16966 -0.10784 -0.049807 0.01415 0.00033937 0.057391 0.018754 
-0.32997 -0.12379 0.30467 0.22493 0.12233 0.05624 0.060844 0.056898 
-0.026789 -0.26289 0.46974 0.40562 0.16311 0.097015 0.062488 0.060679 
0.22822 -0.3349 0.15587 0.33837 0.13779 0.08156 0.063639 0.045718 
0.23529 -0.063124 -0.018897 0.25584 0.12957 0.082875 0.067091 0.042265 
0.17117 0.13088 0.081724 0.18152 0.090603 0.08978 0.088958 0.07449 
0.024015 -0.089595 0.066598 0.028783 0.032564 0.056898 0.04358 0.045553 
-0.094363 -0.23033 0.23364 0.064625 0.048184 0.035524 0.04506 0.06035 
-0.14221 -0.049314 0.31634 0.10293 0.05772 0.053445 0.016945 0.060186 
-0.16177 0.13483 0.19944 0.049006 0.014315 -0.0057439 -0.010183 0.015301 
-0.038627 0.1299 0.049664 -0.019226 0.015301 -0.017582 0.0044497 -0.015444 
0.038319 0.0016547 0.047855 -0.057205 -0.019555 -0.010019 -0.00097594 -0.018897 
0.035688 0.0056006 -0.11212 -0.041257 -0.017746 0.0095465 0.0046141 -0.018733 
-0.030242 0.23085 -0.2665 -0.13727 -0.025309 0.037004 0.032236 0.0052718 
-0.05885 0.30533 -0.35447 -0.18019 -0.043395 0.0065871 0.0075736 -0.01528 
0.0042853 0.0044497 -0.30958 -0.14796 -0.06 -0.017911 -0.0055795 0.024673 
0.020398 -0.24201 -0.25927 -0.014458 0.0227 0.015465 0.01711 0.053445 
0.031742 -0.16457 -0.10554 0.10277 0.069722 0.05476 0.052623 0.057391 
0.070215 0.087314 0.34742 0.22887 0.1202 0.077449 0.06035 0.083697 
0.13598 0.22509 0.56379 0.33147 0.13762 0.079587 0.076463 0.077614 
-0.0096899 0.24926 0.31536 0.25123 0.10014 0.058542 0.040292 0.082875 
-0.21143 0.14979 0.15472 0.08715 0.028947 0.01267 0.0041209 0.037661 
-0.16391 0.031249 0.23233 -0.00031829 -0.016431 -0.0057439 0.0080668 0.057884 
0.21194 -0.12264 0.11872 -0.036325 -0.022514 0.012999 0.050486 0.070873 
0.59124 -0.051944 -0.14139 -0.073318 0.013986 0.043251 0.073997 0.048348 
0.40776 0.068407 -0.35101 -0.16473 -0.028269 -0.0016336 0.031742 0.00050378 
0.011848 0.079422 -0.33737 -0.15996 -0.054575 -0.032708 -0.016266 -0.035174 
-0.10176 0.15916 -0.2642 -0.0868 -0.021199 -0.010841 0.0065871 0.030756 
-0.11837 0.12612 -0.29692 -0.12346 0.0059294 -0.010019 -0.0004827 0.012835 
-0.13514 0.0083956 -0.28558 -0.099953 -0.0032777 -0.0090322 -0.0057439 -0.0095255 
-0.083512 -0.0050863 0.028783 -0.0096899 0.027139 0.0080668 0.014808 -0.009361 
-0.013307 -0.056383 0.17248 0.079258 0.060515 0.034537 0.050321 0.060515 
0.0031344 -0.30695 0.097015 0.12809 0.074654 0.059857 0.069722 0.072517 
-0.05178 -0.43223 0.26406 0.23496 0.09126 0.064296 0.058542 0.062159 
0.0046141 -0.063946 0.68726 0.41631 0.11461 0.059035 0.056076 0.085506 
0.061172 0.35547 0.83918 0.37076 0.11954 0.039963 0.036839 0.07449 
0.083204 0.40496 0.585 0.17248 0.068407 0.030592 0.041607 0.041607 
0.085506 0.36172 0.044073 -0.079401 -0.0080457 -0.020212 0.01004 0.011355 
0.11247 0.40529 -0.30629 -0.25039 -0.052273 -0.02646 0.00066819 0.031907 
0.12579 0.36189 -0.21192 -0.14648 -0.037476 0.00083261 0.016123 0.046704 
0.13878 0.21556 -0.08532 -0.044217 0.013164 0.01267 0.031249 0.07449 
0.12217 0.11559 -0.057534 0.033715 0.042923 0.026317 0.055254 0.053445 
0.0098754 0.089945 0.043087 0.075312 0.046375 0.060186 0.032071 0.0072447 
-0.098309 -0.19104 -0.074469 0.025988 0.043909 0.047526 0.032071 -0.030735 
-0.11064 -0.24677 -0.21011 -0.0049219 0.035853 0.028783 0.046704 0.017767 
-0.049971 0.060515 -0.25253 -0.088444 0.019576 0.02122 0.053116 0.058871 
-0.020377 0.21704 -0.33802 -0.16934 -0.048492 -0.036489 -0.0024557 0.024508 
0.0018191 0.15456 -0.37683 -0.22425 -0.10061 -0.064933 -0.047505 -0.054246 
0.062817 0.047691 -0.097322 -0.098473 -0.05441 -0.021692 -0.034681 -0.059836 
0.22328 0.25025 0.21671 0.093726 0.024508 0.01415 0.035853 0.0083956 
0.30352 0.53304 0.37208 0.12102 0.050157 0.05213 0.053938 0.098659 
0.24005 0.52235 0.34298 0.1026 0.045718 0.050321 0.044238 0.098001 
0.147 0.33509 0.31634 0.099481 0.056404 0.03651 0.045224 0.086492 
0.050157 0.070873 0.25633 0.069229 0.043745 0.017438 0.050979 0.097015 
-0.11623 -0.4176 -0.13316 -0.015938 0.0044497 -0.0032777 0.028619 0.056076 
-0.26026 -0.72834 -0.49931 -0.16605 -0.034516 -0.02498 -0.0098543 -0.047998 
-0.20173 -0.41628 -0.46396 -0.075455 -0.028926 -0.01939 0.0088889 -0.096665 
-0.056877 -0.054575 -0.24579 0.0051074 0.014643 0.020727 0.0044497 -0.055561 
-0.003771 0.020727 -0.077593 0.056898 0.026974 -0.0050863 0.027468 0.0026412 
0.095864 0.23496 0.20454 0.10211 0.036675 0.028125 0.05065 0.065612 
0.21276 0.47303 0.28921 0.016945 0.051308 0.06742 0.067585 0.097508 
0.2731 0.46103 0.01415 -0.12281 -0.0054151 0.018589 0.02829 0.046868 
0.22624 0.31536 -0.23757 -0.24431 -0.038462 -0.0078813 0.030427 0.0018191 
0.12085 0.16245 -0.38291 -0.18463 0.02829 0.028619 0.0092177 -0.0090322 
0.025659 0.10474 -0.16013 0.033222 0.070051 0.051801 0.01563 0.025659 
-0.03912 -0.011334 0.12743 0.2565 0.10096 0.030098 -0.0075525 0.019576 
-0.090417 -0.087951 0.15653 0.28165 0.064625 0.040785 0.0028056 0.036017 
-0.019719 0.056733 0.097015 0.12875 0.040128 0.025495 0.046375 0.042923 
0.085999 0.11313 0.029605 0.0036276 0.025495 0.039305 0.055747 0.10622 
0.0083956 -0.34855 -0.15717 -0.16638 -0.011992 0.053116 0.064954 0.057884 
-0.14665 -0.96707 -0.45821 -0.28525 -0.028762 0.0013258 0.022864 0.01152 
-0.17821 -0.70861 0.026152 0.061008 0.060186 0.03651 0.033222 -0.031557 
-0.094034 0.068078 1.2548 0.6848 0.21654 0.070051 0.028783 -0.053917 
0.0324 0.51808 1.6915 0.95378 0.27919 0.09833 0.027303 -0.011663 
0.086657 0.4339 0.80104 0.56494 0.18021 0.077285 0.034373 -0.0083746 
-0.051287 0.052294 -0.28147 0.012835 0.032236 0.036675 0.030098 0.018425 
-0.093705 -0.12692 -0.85247 -0.31797 -0.10965 -0.013307 0.030263 0.027632 
0.13286 0.19698 -0.9378 -0.5049 -0.12231 -0.031228 0.01563 0.08008 
0.38573 0.55359 -0.73952 -0.48945 -0.12281 -0.021856 0.0019835 0.096686 
0.33295 0.4755 -0.50688 -0.40724 -0.12264 -0.04882 -0.03353 0.04654 
0.096521 0.20635 -0.36137 -0.3127 -0.10193 -0.074469 -0.036654 -0.017746 
-0.083676 0.026152 -0.14287 -0.21833 -0.084498 -0.05326 -0.041422 -0.016595 
-0.091897 -0.057534 0.091918 -0.066084 -0.033859 0.0059294 -0.018733 -0.0088678 
-0.010019 -0.20222 0.38178 0.14848 0.034702 0.027303 0.020727 0.0092177 
0.042758 -0.47958 0.6483 0.37224 0.1465 0.080902 0.076134 0.034537 
0.02533 -0.54058 0.97071 0.56675 0.20914 0.13598 0.08715 0.034866 
-0.08384 -0.33934 0.91909 0.57891 0.22805 0.13483 0.083533 0.059693 
-0.14073 -0.41974 0.45314 0.378 0.171 0.086985 0.059693 0.037332 
-0.10078 -0.57659 0.01974 0.20355 0.096028 0.064461 0.055582 0.077121 
-0.041915 -0.29034 -0.095349 0.12562 0.0689 0.038648 0.069722 0.075641 
0.0018191 0.15785 -0.25697 0.0088889 0.026974 0.007738 0.031907 0.057884 
0.048348 0.36353 -0.53713 -0.11755 -0.049807 0.041278 -0.0050863 0.044896 
0.054267 0.40085 -0.69184 -0.20584 -0.054082 -0.0039354 0.015794 0.063639 
-0.078908 0.45757 -0.43684 -0.21356 -0.060329 -0.02794 0.066763 0.025988 
-0.10028 0.55737 0.2417 -0.22491 -0.013471 0.062159 0.046375 0.020891 
0.22065 0.51693 0.62511 -0.21734 -0.0077169 0.026317 0.015301 -0.001798 
0.55441 0.29382 0.40151 -0.20978 -0.045696 -0.006566 0.0069159 -0.003771 
0.39164 -0.010183 0.10754 -0.16424 -0.018733 0.0036276 0.026974 0.01267 
0.0019835 -0.26946 0.10721 0.13499 0.05065 0.0034632 0.01004 -0.0014692 
-0.16884 -0.37173 0.34051 0.5337 0.14206 0.029441 0.018425 0.033387 
-0.02235 -0.10143 0.48372 0.79873 0.21424 0.1105 0.060844 0.10984 
0.15209 0.26669 0.29924 0.65438 0.21671 0.12266 0.088794 0.12349 
0.045718 0.055418 -0.2961 0.12562 0.09126 0.070051 0.081395 0.022864 
-0.25434 -0.35496 -0.45394 -0.18808 -0.015609 0.0095465 -0.0054151 -0.084334 
-0.37304 -0.10702 0.23841 -0.12215 -0.018897 -0.036654 -0.046847 -0.067564 
-0.32306 0.26899 0.76717 0.034866 -0.0004827 -0.011992 -0.019884 0.051801 
-0.29297 0.12003 0.61952 0.0032988 0.02533 0.030592 0.016616 0.083862 
-0.1649 -0.21932 0.23726 -0.098967 -0.0078813 -0.00097594 0.029276 0.086163 
0.099316 -0.10439 0.23282 -0.010348 -0.00015387 0.00297 0.014808 0.032071 
0.34512 0.19731 0.51298 0.14371 0.057391 0.049664 0.027303 -0.062302 
0.48569 0.46004 0.41318 0.21885 0.089452 0.072188 0.048184 0.0018191 
0.44278 0.73642 -0.076113 0.08419 0.065612 0.059364 0.091096 0.061337 
0.24449 0.682 -0.45722 -0.040764 0.049499 0.079751 0.077614 0.096686 
0.00050378 0.22131 -0.62953 -0.1473 0.02829 0.021878 0.073668 0.077449 
-0.11196 -0.23477 -0.61506 -0.1838 -0.014293 0.0095465 0.027632 0.048841 
-0.10735 -0.32799 -0.50869 -0.12133 -0.0031133 0.018096 0.023522 -0.0027845 
-0.031228 -0.2961 -0.33687 -0.13103 -0.012485 0.0090533 0.015794 -0.022021 
-0.074798 -0.43256 -0.27177 -0.1473 -0.069865 -0.0083746 -0.0022913 -0.032872 
-0.17493 -0.43897 -0.14533 -0.068879 -0.043724 -0.0031133 0.0023123 0.013328 
-0.12675 -0.0004827 0.13746 -0.003771 -0.021199 -0.018239 0.0093821 0.020069 
0.025988 0.53205 0.34709 0.034537 -0.026296 -0.032708 -0.0072237 0.015959 
0.30319 0.80219 0.33229 0.0095465 -0.0031133 -0.011005 1.0539e-005 0.039963 
0.38556 0.8206 0.16607 0.005765 0.028619 0.0026412 0.0021479 0.033387 
0.25008 0.62511 0.16327 0.029441 0.055089 0.030427 0.024673 0.051472 
0.053281 0.12858 0.34347 0.19188 0.11148 0.07597 0.060186 0.023028 
-0.036325 -0.49224 0.34594 0.38014 0.13812 0.071366 0.06183 0.033222 
-0.079895 -0.59171 0.24384 0.37093 0.12957 0.064954 0.045224 0.010862 
-0.058685 -0.058356 0.075641 0.26685 0.10589 0.078272 0.056076 0.029605 
0.15785 0.45922 -0.20304 0.083204 0.071859 0.076299 0.086328 0.074161 
0.29332 0.57349 -0.51592 -0.14648 0.035853 0.056898 0.08863 0.10573 
0.24137 0.33015 -0.76583 -0.3252 -0.02942 0.010862 0.029769 0.038483 
0.15735 0.14338 -0.59287 -0.42566 -0.11508 -0.059178 -0.034681 0.0039565 
0.14437 0.13335 -0.045039 -0.28525 -0.081374 -0.087951 -0.054575 0.040621 
-0.08384 -0.15996 0.1054 -0.21274 -0.039778 -0.0050863 0.00297 -0.0075525 
-0.26716 -0.60487 -0.094199 -0.22261 -0.039942 -0.029748 -0.0090322 -0.034681 
-0.17772 -0.62838 -0.098144 -0.13744 -0.060658 -0.036654 -0.017088 -0.034516 
-0.025309 -0.42451 0.21621 0.13253 0.021713 0.010533 0.011355 0.0082312 
-0.086964 -0.18594 0.75714 0.54833 0.13598 0.033058 0.075476 0.010204 
-0.18315 -0.045861 0.98107 0.77818 0.21326 0.063474 0.036675 0.00099702 
-0.076442 0.34051 0.66622 0.68266 0.21145 0.091425 0.073832 0.087479 
-0.06296 0.53633 -0.092883 0.23331 0.11724 0.099316 0.065283 0.13368 
-0.0406 0.41927 -0.62772 -0.31583 -0.050629 -0.017088 0.0031344 0.050486 
0.15341 0.23381 -0.65353 -0.49307 -0.13547 -0.071181 -0.03616 -0.021856 
0.46596 -0.12823 -0.57692 -0.48863 -0.14319 -0.058356 -0.0072237 -0.075127 
0.26126 -0.7073 -0.82337 -0.52743 -0.18446 -0.085156 -0.035996 -0.076442 
-0.085813 -0.72341 -0.86842 -0.55406 -0.21685 -0.11228 -0.05589 -0.044874 
-0.12626 -0.017253 -0.39064 -0.38324 -0.14533 -0.065426 -0.030077 0.0037921 
0.028454 0.60325 0.038812 -0.12083 -0.022843 0.00050378 0.016452 0.055911 
0.084848 0.44245 0.1442 -0.0098543 0.019247 0.026481 0.024673 0.042265 
0.03651 0.090438 0.30467 0.12036 0.061995 0.035853 0.026974 0.027468 
0.040456 0.058377 0.62626 0.36057 0.12612 0.051801 0.056733 0.06479 
0.061337 0.14683 0.71077 0.40809 0.16015 0.08567 0.076463 0.093891 
0.095864 0.13384 0.38753 0.3484 0.12036 0.08978 0.071202 0.074161 
0.06183 0.10507 0.15341 0.25567 0.10935 0.070544 0.063145 0.057884 
-0.096007 -0.10472 0.017438 0.26833 0.085999 0.060186 0.010862 -0.0039354 
-0.16177 -0.2716 0.026481 0.26209 0.097837 0.045718 0.030592 -0.011334 
-0.12198 -0.2744 0.16607 0.2486 0.10047 0.066763 0.039305 0.058871 
-0.076771 -0.13596 0.1516 0.11592 0.064461 0.056404 0.041114 0.070215 
-0.028104 -0.057041 -0.11524 -0.12511 1.0539e-005 0.026974 0.019576 0.068736 
-0.0039354 -0.059178 -0.3127 -0.26124 -0.055068 -0.023829 0.010533 -0.0034422 
0.02533 0.0092177 -0.38768 -0.29741 -0.067728 -0.038133 -0.029091 -0.029255 
0.033715 -0.0034422 -0.36713 -0.28837 -0.097651 -0.043724 -0.036489 -0.02942 
0.068736 0.026974 -0.42631 -0.24414 -0.069043 -0.027118 -0.023172 0.019083 
0.082053 0.26192 -0.46364 -0.22935 -0.044381 -0.010183 0.011355 0.018589 
0.08156 0.41647 -0.32915 -0.19202 -0.026296 0.016452 0.03651 0.062652 
0.018589 0.22772 0.16196 -0.064933 0.00017495 0.034373 0.042265 0.080573 
-0.035338 0.046704 0.82882 0.11609 0.06035 0.038977 0.034866 0.070873 
-0.03616 0.04095 1.0256 0.3461 0.12069 0.072024 0.04358 0.053281 
-0.0044286 -0.056877 0.73511 0.48602 0.18251 0.081067 0.061172 0.038812 
-0.009361 -0.15421 0.64977 0.64616 0.22789 0.089287 0.0592 0.03651 
-0.029913 -0.24135 0.49391 0.59404 0.20832 0.094384 0.031249 -0.021034 
0.032236 -0.097158 0.12875 0.36008 0.12447 0.063145 0.033058 -0.0090322 
0.12497 0.11576 -0.12149 0.11724 0.049828 0.042594 0.040785 0.022371 
0.13039 0.14617 -0.15257 -0.040106 0.010204 0.060515 0.04506 0.091425 
0.16311 0.11526 -0.010183 -0.041422 -0.0022913 0.038155 0.050979 0.11905 
0.22674 0.22131 -0.028762 -0.055726 0.021713 0.044073 0.061337 0.11592 
0.091753 0.2468 -0.43207 -0.15717 0.0095465 0.034209 0.047033 0.030756 
-0.0503 0.13565 -0.70976 -0.2864 -0.016595 0.0064227 0.047362 0.004943 
-0.0090322 0.096028 -0.65337 -0.2859 -0.01939 0.010369 0.031907 0.037004 
0.10935 0.00050378 -0.51559 -0.22639 -0.04471 0.01711 0.027303 0.039799 
0.067585 -0.06148 -0.22968 -0.17082 -0.035667 0.010862 0.029605 0.095371 
0.042429 0.033551 -0.031228 -0.038627 0.00033937 0.027632 0.069393 0.10967 
0.028783 -0.038627 -0.00081153 0.025988 0.049499 0.062652 0.068078 0.12858 
0.011026 -0.25647 0.15785 0.052623 0.032564 0.014972 0.026646 0.028947 
-0.042408 -0.35266 0.44541 0.15374 0.037168 0.0023123 -0.0098543 -0.017088 
-0.15372 -0.21652 0.7693 0.30845 0.085835 0.01563 -0.01528 -0.084827 
-0.17049 0.2662 1.0962 0.51084 0.15752 0.036839 0.01974 -0.06707 
-0.079401 0.67016 1.1396 0.56395 0.1756 0.071859 0.021056 -0.055397 
0.15505 0.85283 0.8571 0.36369 0.13368 0.092576 0.055747 0.062488 
0.33459 0.70716 0.5138 0.19303 0.13171 0.10721 0.086328 0.15242 
0.28757 0.36156 0.072353 0.013328 0.087314 0.10145 0.13088 0.14864 
0.053938 -0.04471 -0.3252 -0.16934 -0.0029489 0.041443 0.065447 0.065447 
-0.056219 -0.39031 -0.59336 -0.28558 -0.082032 -0.039449 -0.024652 -0.026624 
-0.074633 -0.38209 -0.72045 -0.30185 -0.099953 -0.048163 -0.033859 -0.039449 
-0.0088678 -0.2328 -0.70746 -0.22507 -0.082032 -0.02235 -0.0011404 -0.027775 
0.058706 -0.016431 -0.55916 -0.206 -0.05441 1.0539e-005 0.0070803 0.036182 
0.093726 0.13039 -0.25088 -0.10817 -0.031721 -0.0072237 0.024837 0.042429 
0.10162 0.023193 0.17462 0.075312 0.035195 0.018589 0.022535 0.056898 
0.053445 -0.14763 0.37734 0.16377 0.054596 0.032236 0.019411 0.043909 
-0.07266 -0.23165 0.24417 0.060844 -0.0055795 -0.0049219 0.011355 0.017767 
-0.18298 -0.21915 -0.03764 -0.087622 -0.052931 0.0018191 -0.039613 -0.0016336 
-0.16966 -0.11886 -0.11212 -0.075784 -0.028762 0.0018191 0.0064227 0.02122 
-0.094692 0.082382 0.051965 -0.032872 0.026317 0.045553 0.039634 -0.0080457 
0.079751 0.25748 0.25978 0.13697 0.10113 0.056898 0.059528 -0.070194 
0.23134 0.4556 0.3438 0.21983 0.11214 0.086328 0.056898 -0.010183 
0.10967 0.47517 0.20323 0.20454 0.077285 0.055418 0.038812 -0.00097594 
-0.13086 0.27853 0.0059294 0.19451 0.060515 0.037332 0.020727 0.030756 
-0.020541 -0.1159 -0.014293 0.17824 0.06594 0.042594 0.02829 0.024344 
0.34857 -0.29117 0.26192 0.15292 0.06742 0.027139 0.049828 0.030427 
0.39345 -0.089431 0.42946 0.040621 0.046211 0.039963 0.049664 0.0421 
0.17971 0.12053 0.45905 -0.040928 0.0085601 0.016288 0.037661 0.047197 
-0.033694 0.26373 0.25403 -0.059672 -0.025145 -0.028269 -0.0096899 0.034209 
-0.09239 0.27524 0.0018191 -0.08269 -0.011334 -0.019719 0.0064227 0.023028 
-0.10291 0.14223 -0.086471 -0.047341 -0.0042642 0.03947 0.015794 0.060515 
-0.071838 0.05772 -0.12001 -0.017417 -0.0091966 -0.014293 -0.0047575 0.031907 
-0.012156 0.13532 -0.16506 -0.0083746 -0.0052507 0.0026412 0.022371 0.040292 
0.023851 0.25732 -0.20403 -0.057041 0.0026412 0.020891 0.025001 0.030263 
-0.041751 0.24252 -0.21702 -0.14007 -0.015773 -0.00031829 0.0037921 -0.0095255 
-0.090253 0.12365 -0.21438 -0.11787 -0.044217 -0.027775 -0.040271 -0.037147 
-0.022679 0.060515 -0.2762 -0.18084 -0.042408 -0.014622 -0.025309 -0.012814 
0.17396 0.068407 -0.37189 -0.21488 -0.049807 -0.0072237 0.00297 0.0072447 
0.30796 -0.098473 -0.5248 -0.25713 -0.046354 0.012013 0.042265 0.051472 
0.22822 -0.28821 -0.6435 -0.30185 -0.03057 0.015137 0.03536 0.038812 
0.10721 -0.12445 -0.53647 -0.22228 -0.031228 0.010533 0.005765 0.037004 
0.017274 0.076627 -0.40543 -0.15569 -0.022843 -0.0096899 0.0041209 0.0085601 
0.040785 0.2417 -0.053917 0.054925 0.058213 0.038483 0.049992 0.041114 
0.14206 0.30418 0.58746 0.51446 0.22378 0.11329 0.11263 0.092247 
0.15851 0.1567 0.83902 0.64369 0.28264 0.14486 0.12809 0.13779 
0.11773 -0.06444 0.96052 0.61262 0.26768 0.18119 0.12201 0.11411 
0.1419 -0.07973 1.0878 0.48553 0.21967 0.13894 0.10967 0.087479 
0.065118 -0.05326 0.82438 0.31092 0.12168 0.051965 0.062817 0.033715 
-0.081703 -0.30843 0.11395 0.13187 0.020233 -0.010183 -0.014622 -0.0075525 
-0.25023 -0.50392 -0.73837 -0.27719 -0.11738 -0.093705 -0.082525 -0.036983 
-0.37255 -0.37502 -1.3334 -0.68855 -0.27456 -0.16407 -0.13563 -0.12314 
-0.41826 0.077449 -1.1274 -0.79657 -0.27686 -0.13514 -0.087786 -0.098473 
-0.28837 0.47813 -0.5294 -0.54321 -0.15059 -0.072496 -0.029913 0.020562 
-0.12971 0.41516 -0.095185 -0.1843 -0.024652 -0.0054151 0.0054362 0.059693 
0.16311 0.16936 0.35498 0.24745 0.11083 0.054432 0.028125 0.030098 
0.42387 -0.071838 0.69088 0.65717 0.23183 0.12168 0.090438 0.056404 
0.50789 -0.20288 0.74596 0.77933 0.30993 0.15538 0.11231 0.042265 
0.44031 -0.19696 0.67148 0.62232 0.25123 0.16459 0.11428 0.027468 
0.15374 0.29168 0.43965 0.27524 0.14124 0.087479 0.1077 0.10524 
-0.13251 0.69663 0.086492 -0.12626 0.0074092 0.024344 0.046211 0.10573 
-0.26502 0.43784 -0.1039 -0.33819 -0.069372 0.0046141 0.031742 0.1003 
-0.20057 -0.14714 -0.11376 -0.35562 -0.10094 -0.039778 -0.0095255 0.024837 
-0.074962 -0.583 -0.18857 -0.31484 -0.1182 -0.061151 -0.029913 -0.046519 
0.12036 -0.58662 -0.59484 -0.30202 -0.11656 -0.062631 -0.043559 -0.084827 
0.06183 -0.24151 -0.62969 -0.096994 -0.01676 -0.03057 -0.0054151 -0.02087 
-0.15816 0.17248 -0.12281 0.24597 0.079422 0.031907 0.025495 0.083368 
-0.15026 0.55409 0.4676 0.44508 0.17314 0.086985 0.041772 0.12381 
0.058213 0.5965 0.51709 0.41335 0.17528 0.089452 0.10195 0.073668 
0.29332 0.26422 0.46366 0.26587 0.14157 0.088136 0.071531 -0.0090322 
0.21983 -0.29232 0.53551 0.11559 0.049335 0.043909 0.027632 -0.033859 
-0.094692 -0.76731 0.32308 0.065447 -0.022514 -0.0095255 -0.0082102 -0.0036066 
-0.1644 -0.86283 0.093233 0.059857 -0.0029489 -0.013965 -0.0054151 0.078765 
-0.094199 -0.51625 -0.10357 -0.011005 -0.0057439 0.011355 0.012835 0.023851 
0.076627 0.11411 -0.27325 -0.13859 0.00066819 0.027796 0.030592 0.029605 
0.18662 0.6649 -0.27637 -0.17904 -0.0052507 0.0051074 0.019411 0.024344 
0.054267 0.70288 -0.15421 -0.14615 -0.049807 -0.011827 0.0021479 -0.0090322 
-0.24727 0.11757 -0.12823 -0.13448 -0.051287 -0.027118 -0.051122 -0.098473 
-0.39656 -0.50457 0.14289 0.14667 0.050321 -0.018075 -0.0039354 -0.087786 
-0.18249 -0.38949 0.65882 0.44672 0.14124 0.067913 0.047526 -0.0096899 
0.078929 0.088465 0.90199 0.55836 0.18613 0.10113 0.071202 0.040292 
0.17856 0.33377 0.74777 0.46793 0.18481 0.082217 0.080409 0.080738 
0.19287 0.31355 0.48026 0.28921 0.15028 0.099481 0.092082 0.10474 
0.17758 0.2001 0.12694 0.16294 0.11773 0.08863 0.084026 0.1031 
0.13795 0.096193 -0.16243 -0.038791 0.02681 0.024015 0.055089 0.08008 
0.047033 0.024508 -0.38636 -0.16572 -0.047669 -0.0088678 0.0079024 0.048348 
-0.025802 0.0067515 -0.5248 -0.29495 -0.10604 -0.032708 -0.025474 0.0036276 
-0.024323 0.081231 -0.56623 -0.352 -0.14517 -0.050629 -0.014129 0.01826 
0.037332 0.19912 -0.45969 -0.27209 -0.094527 -0.028269 0.0036276 0.037004 
0.048513 0.14963 -0.36252 -0.22014 -0.066906 -0.019555 -0.0054151 0.031907 
0.075148 0.026974 -0.31254 -0.20633 -0.073976 -0.031228 -0.028433 -0.024816 
0.1516 -0.031392 -0.13695 -0.14171 -0.028269 -0.018075 -0.0077169 -0.0067304 
0.15637 -0.15651 0.20257 0.062652 0.045389 0.03092 0.045882 0.026974 
0.084355 -0.20978 0.41072 0.19583 0.064132 0.048677 0.046704 0.054267 
0.073832 -0.19564 0.40578 0.18004 0.053116 0.045389 0.048348 0.085177 
0.097179 -0.027282 0.33689 0.17067 0.064625 0.069393 0.066105 0.098659 
0.087972 0.2634 0.2611 0.13006 0.059364 0.047197 0.061008 0.094548 
0.047526 0.33936 -0.039613 0.057884 0.022535 0.016288 0.036675 -0.0082102 
-0.090581 0.32835 -0.28837 0.034702 0.018918 0.029605 0.00099702 -0.047998 
-0.19745 0.14881 -0.3081 0.023193 0.021384 0.01267 -0.0013048 -0.073318 
-0.19893 -0.13037 -0.32553 -0.0077169 -0.010676 -0.0070593 0.011026 -0.087129 
-0.17789 -0.35808 -0.62805 -0.24447 -0.057041 -0.017088 -0.010512 -0.042244 
-0.20534 -0.42418 -0.78572 -0.35052 -0.072332 -0.008539 0.019247 0.049006 
-0.14698 -0.028269 -0.45311 -0.27061 -0.047012 0.0052718 0.021549 0.10162 
0.068078 0.52942 0.11214 -0.076277 0.025659 0.049499 0.050979 0.09833 
0.4676 0.6312 0.53123 0.11937 0.060515 0.058706 0.068736 0.082875 
0.66079 0.43965 0.79216 0.23151 0.10672 0.053774 0.072024 0.045553 
0.49194 0.49161 1.0093 0.36452 0.14321 0.098988 0.074654 0.10359 
0.28478 0.5531 0.81353 0.27902 0.10343 0.054267 0.067585 0.13056 
0.15176 0.33196 0.12053 -0.033859 -0.0050863 0.016781 0.044238 0.09685 
0.01004 0.027961 -0.39853 -0.21932 -0.04323 -0.004593 0.0037921 0.055089 
-0.16638 -0.35479 -0.64877 -0.2568 -0.01676 -0.016924 0.0021479 0.0056006 
-0.30415 -0.71305 -0.87549 -0.23888 -0.020377 -0.0032777 -0.0032777 -0.067892 
-0.32273 -0.80315 -0.82847 -0.11524 -0.029913 -0.010183 -0.004593 -0.064604 
-0.21274 -0.46281 -0.30448 0.12414 0.01415 0.0042853 0.0037921 -0.020048 
-0.062467 0.19796 0.402 0.33213 0.085835 -0.022843 0.0016547 0.020891 
0.14157 0.71603 0.70436 0.32736 0.10359 0.05476 0.020069 0.045882 
0.30812 1.0468 0.61755 0.25798 0.10014 0.055418 0.059857 0.068407 
0.33213 0.89294 0.34857 0.10869 0.086985 0.052459 0.096686 0.15176 
0.23742 0.3752 0.009711 -0.095678 0.053116 0.067091 0.048184 0.079422 
0.0062583 -0.082196 -0.22178 -0.19729 -0.025474 0.018918 0.01563 0.030592 
-0.098967 -0.1353 -0.19614 -0.23411 -0.061973 -0.020706 -0.022843 -0.013965 
-0.10587 -0.10439 -0.0082102 -0.097487 -0.03353 -0.027775 -0.016595 -0.011827 
-0.083183 -0.21932 0.12562 -0.013965 -0.010183 -0.0083746 0.0016547 -0.006566 
-0.04323 -0.39212 -0.047505 0.023686 0.024344 0.021056 0.026152 0.019411 
-0.040928 -0.571 -0.28245 0.079751 0.077943 0.060679 0.044238 0.03388 
-0.083183 -0.43092 -0.0090322 0.20701 0.099316 0.053281 0.033715 0.021384 
-0.23099 -0.16259 0.20503 0.27047 0.097015 0.02122 0.019576 -0.019719 
-0.13234 0.159 0.22246 0.19353 0.080902 0.039963 0.014315 -0.0070593 
0.18136 0.35449 0.28247 0.12102 0.06479 0.045553 0.028454 0.063474 
0.29217 0.43587 0.51808 0.14568 0.082546 0.044731 0.042265 0.082875 
0.18103 0.43867 0.63037 0.16706 0.098166 0.038977 0.048348 0.10918 
0.032236 0.38523 0.40562 0.17429 0.066763 0.031907 0.043087 0.092247 
-0.053588 0.22361 0.053445 0.044402 0.037661 0.023851 0.033387 0.07038 
0.08978 0.020727 -0.22935 -0.052766 0.019083 0.023357 0.0079024 0.0016547 
0.29776 -0.20814 -0.33441 -0.13086 -0.012156 -0.0059084 -0.0031133 -0.043066 
0.29398 -0.24168 -0.24743 -0.12462 1.0539e-005 -0.0060728 0.0024767 -0.062302 
0.066434 -0.11508 -0.097322 -0.0060728 0.031742 0.053116 0.013328 -0.041257 
-0.11853 -0.0771 -0.0406 0.037332 0.036182 0.040621 0.036839 0.0011614 
-0.17213 -0.03353 -0.11409 0.033387 0.018589 0.0090533 0.033222 0.034537 
-0.084005 0.090931 0.00050378 0.053116 0.023686 0.015465 0.041607 0.081231 
-0.096994 0.053281 0.15571 0.024015 0.021549 0.021713 0.0069159 0.032729 
-0.12577 0.023193 0.24959 -0.019884 -0.0077169 -0.0034422 -0.012649 0.0069159 
-0.0138 0.079587 0.25584 -0.048656 0.0014903 0.013657 -0.011334 0.020069 
0.089123 0.062488 0.015794 -0.027775 0.023028 0.026152 0.020891 0.039305 
0.077778 0.059693 -0.080717 0.092247 0.06035 0.025659 0.027961 -0.0014692 
0.084026 0.058049 -0.013965 0.2223 0.079258 0.06742 0.041936 0.035031 
0.031085 0.079916 -0.0091966 0.23989 0.090931 0.078272 0.06331 0.043416 
-0.033201 0.037332 -0.13432 0.17922 0.075476 0.018589 0.047197 0.060679 
-0.1284 -0.21586 -0.27653 -0.032708 0.0067515 0.0024767 0.01711 0.034044 
-0.096829 -0.40264 0.11033 -0.066906 -0.021034 -0.028269 0.020398 0.034373 
0.051636 -0.34493 0.55425 0.064296 -0.013143 -0.0091966 0.01711 0.055254 
0.16689 -0.055561 0.56379 0.13335 0.033222 0.026152 0.033387 0.072024 
0.1276 0.14354 0.159 0.012835 0.017932 0.023686 0.049335 0.061172 
-0.0057439 0.22493 -0.19449 -0.14714 -0.02942 -0.039613 -0.0021268 -0.022514 
0.048677 0.40726 -0.18495 -0.2037 -0.05441 -0.028269 -0.038133 -0.078579 
0.19961 0.40825 -0.13366 -0.10982 -0.014129 0.014479 -0.0090322 -0.10341 
0.26406 0.25666 -0.10784 0.079094 0.049828 0.047691 0.054267 -0.016102 
0.26636 0.26603 -0.032379 0.15933 0.08304 0.077614 0.093069 0.095042 
0.19649 0.18909 -0.21751 0.10524 0.055089 0.090438 0.080244 0.14469 
-0.0050863 -0.077593 -0.33671 -0.084663 0.00066819 0.033222 0.037332 0.076134 
-0.15454 -0.27703 -0.18627 -0.19268 -0.052273 -0.031064 -0.016266 0.0028056 
-0.24858 -0.22622 0.03947 -0.13333 -0.041422 -0.01939 -0.019061 -0.045039 
-0.21455 -0.04882 0.17807 -0.096829 0.016452 -0.0014692 0.0080668 -0.036983 
-0.12922 -0.12363 0.439 0.16755 0.053445 0.028125 0.026152 -0.010183 
-0.030077 -0.23477 0.77457 0.38704 0.13072 0.064132 0.028619 0.022371 
0.047197 -0.19778 0.57842 0.40118 0.12973 0.066105 0.068571 0.090109 
0.061501 -0.18331 0.05476 0.2246 0.087808 0.055911 0.058542 0.12135 
0.0034632 0.060679 -0.14813 0.1248 0.043416 0.046704 0.041772 0.093398 
-0.018075 0.42798 -0.22113 0.072846 -0.001798 -0.00064712 -0.0034422 0.029112 
-0.014622 0.40694 -0.31402 -0.12116 -0.023501 -0.027282 -0.025967 0.0062583 
0.017274 0.10129 -0.24118 -0.12346 0.013164 0.030098 0.019247 -0.027611 
0.21556 0.095042 -0.014293 -0.076771 0.019083 0.026646 0.057555 -0.0026201 
0.32243 0.19731 0.10195 -0.057534 0.0074092 0.028619 0.032236 0.015137 
0.23627 0.10688 0.046375 -0.039613 -0.011827 0.029769 0.0026412 0.027796 
0.0069159 0.12135 -0.052109 -0.040271 -0.010676 0.015137 0.033222 0.026646 
-0.11179 0.28609 -0.1621 -0.042737 0.0075736 0.0046141 0.011684 0.027796 
-0.12083 0.40595 -0.091897 -0.074633 -0.011334 0.017274 0.012013 0.06742 
-0.052931 0.47369 0.18794 -0.04323 -0.0075525 0.0090533 0.010204 0.051636 
0.12233 0.3951 0.35514 0.050157 0.0034632 0.0021479 0.019247 0.040621 
0.12135 0.11592 0.17889 0.0028056 0.0046141 0.0070803 0.019411 0.025166 
0.015465 -0.19761 0.14864 0.10688 0.047033 0.00017495 0.035688 0.045389 
-0.049149 -0.56541 0.19139 0.24301 0.078272 0.054103 0.03947 0.069393 
-0.12314 -0.74182 -0.23083 0.10902 0.028125 0.030263 0.015137 0.052459 
0.05772 -0.60848 -0.58152 -0.056877 0.00066819 0.010369 0.032236 -0.0073881 
0.17939 -0.4712 -0.53088 -0.1016 0.031249 0.031414 0.024179 -0.034681 
0.084355 -0.1501 -0.16177 0.10096 0.077449 0.076627 0.03651 0.018589 
0.087972 0.33755 0.41664 0.2634 0.12677 0.094877 0.069558 0.018754 
0.15933 0.47862 0.78032 0.35761 0.17955 0.09274 0.091753 0.017603 
0.065447 0.40447 0.77851 0.27212 0.16722 0.064296 0.061666 -0.028269 
-0.1011 0.34824 0.48964 0.033715 0.0036276 0.0023123 -0.0032777 0.024837 
-0.035996 0.34923 0.11609 -0.11672 -0.0049219 -0.022021 -0.018075 0.060679 
0.028619 0.20832 -0.13974 -0.17525 -0.035174 0.0024767 0.025659 0.08715 
0.047197 -0.03205 -0.38126 -0.25631 -0.073976 -0.048656 -0.0011404 0.04358 
-0.014787 -0.16375 -0.42105 -0.30136 -0.10834 -0.089431 -0.034188 -0.036983 
-0.077593 -0.13185 -0.25187 -0.21192 -0.072825 -0.049642 -0.036489 -0.030077 
-0.064604 0.038977 -0.058685 -0.0073881 0.016616 0.029934 0.030592 0.017274 
-0.029091 0.19402 -0.028104 0.08567 0.085177 0.035853 0.059693 0.06479 
0.024179 0.20339 0.028454 0.15423 0.084848 0.056569 0.060186 0.063145 
0.1202 0.045718 0.18613 0.22476 0.08567 0.054596 0.0592 0.081231 
0.13565 -0.13908 0.13664 0.22033 0.051143 0.055582 0.052294 0.058049 
0.07597 -0.218 -0.23757 0.051636 0.011191 0.031907 0.04095 0.040128 
0.095535 -0.24069 -0.40297 -0.090746 0.012835 0.027139 0.030263 -0.027447 
0.14305 -0.094527 -0.18183 -0.044381 0.029276 0.037826 0.036017 0.021713 
0.087643 0.10885 0.15078 0.016781 0.059035 0.03947 0.034537 0.038812 
-0.029091 0.19418 0.16459 -0.011827 0.023522 0.022371 0.027632 0.0069159 
-0.19334 0.21621 0.1932 -0.010019 0.01563 0.0018191 0.024837 0.023686 
-0.25187 0.2172 0.40282 0.053445 0.04095 0.0023123 0.01152 0.017932 
0.01267 0.14174 0.52926 0.15456 0.044238 0.025988 0.0087245 0.010697 
0.50756 0.085506 0.2953 0.07301 -0.0024557 0.01267 0.037168 -0.00031829 
0.58763 0.18202 -0.035174 -0.041915 -0.0091966 -0.0011404 0.035195 0.027632 
0.29217 0.22772 -0.19614 -0.050958 -0.022514 -0.00081153 0.013986 0.037332 
-0.05737 0.016945 -0.14895 -0.061151 -0.0032777 -0.014293 0.0069159 0.02681 
-0.20189 -0.11623 0.0014903 0.03092 0.0080668 0.0083956 0.028454 0.021056 
-0.18841 -0.081868 -0.10998 0.01974 0.024344 0.0041209 0.018589 0.034866 
-0.08384 0.02681 -0.35677 -0.071674 0.0042853 -0.014129 0.042594 0.036182 
0.081395 0.07597 -0.61555 -0.19334 -0.038791 -0.010348 0.025824 0.072188 
0.23479 0.091918 -0.65255 -0.3058 -0.066413 0.0024767 0.026317 0.099481 
0.21391 -0.12445 -0.66718 -0.3423 -0.084005 -0.025638 0.029441 0.061008 
-0.029091 -0.34296 -0.64104 -0.40954 -0.099789 -0.030406 0.016945 -0.048492 
-0.20912 -0.098967 0.1858 -0.062467 -0.015116 0.019247 -0.010512 -0.081539 
-0.17098 0.30894 1.2275 0.53682 0.17692 0.057227 0.011355 -0.045368 
-0.10193 0.29431 1.336 0.71159 0.23923 0.061008 0.046046 -0.015773 
-0.14287 -0.017253 1.1221 0.70683 0.22624 0.10819 0.062652 0.021056 
-0.13563 -0.18824 1.0018 0.61854 0.22427 0.11329 0.08419 0.051965 
-0.065919 -0.22869 0.52087 0.378 0.15292 0.07449 0.073504 0.10244 
0.085012 -0.08384 -0.061645 0.15292 0.099974 0.10359 0.077449 0.12776 
0.18958 0.037826 -0.40412 -0.10653 0.038648 0.056404 0.069064 0.13203 
0.11954 0.042429 -0.48567 -0.27193 -0.071509 0.023851 0.041772 0.08304 
0.062323 0.096521 -0.48205 -0.376 -0.11574 -0.029255 -0.00015387 0.039634 
0.10211 0.26274 -0.44637 -0.34016 -0.12396 -0.056055 -0.025967 0.0067515 
0.057555 0.33426 -0.30218 -0.23592 -0.081045 -0.0034422 0.018096 -0.0064016 
-0.040928 0.27935 -0.11376 -0.15848 -0.052931 1.0539e-005 -0.010676 -0.038627 
-0.021528 0.15292 0.082875 -0.039449 -0.013965 -0.00015387 -0.025145 -0.033694 
0.057227 0.082217 0.14996 0.039305 0.013492 0.0042853 0.01004 0.029605 
0.10737 0.04506 0.043416 0.081067 0.045389 0.037004 0.017438 0.039963 
0.18152 0.091425 -0.10752 0.071202 0.031742 0.033387 0.027961 0.040785 
0.10639 0.016781 -0.093705 0.089616 0.046868 0.032729 0.046046 -0.012978 
-0.047505 -0.21274 0.026152 0.20273 0.10524 0.085341 0.037497 0.028619 
-0.059836 -0.29232 0.22805 0.31092 0.13039 0.086657 0.041772 0.044238 
-0.032543 -0.17739 0.30681 0.34018 0.13878 0.088465 0.053938 0.058542 
0.023851 0.0011614 0.24433 0.17873 0.12184 0.10376 0.072024 0.056733 
0.015301 0.12694 0.10721 0.040785 0.058542 0.061008 0.042429 0.05213 
-0.021199 0.22246 0.013328 -0.020212 0.0059294 0.030756 0.020233 0.047526 
-0.066906 0.25896 -0.042737 -0.069536 0.015301 0.038483 0.026152 0.027961 
-0.062138 0.21983 -0.016266 -0.036983 -0.011827 0.004943 0.0074092 0.021713 
-0.058356 0.088794 0.10935 -0.014129 -0.0060728 -0.0026201 -0.0026201 -0.0080457 
0.0037921 0.031414 0.24482 0.01415 0.0098754 0.017603 -0.0011404 0.033387 
0.023851 -0.077757 0.22263 0.0067515 0.0082312 0.014972 -0.012485 0.027303 
0.022371 -0.033859 0.01974 -0.066906 -0.026296 -0.018075 -0.021692 0.0014903 
0.020069 0.00099702 -0.25319 -0.19498 -0.041751 -0.014787 -0.0060728 -0.035832 
0.072681 -0.32027 -0.57971 -0.32323 -0.067892 -0.0032777 0.011026 0.028125 
0.068736 -0.25565 -0.55225 -0.25088 -0.039284 0.0016547 0.0227 0.050814 
-0.039449 0.058871 -0.25253 -0.094199 -0.00015387 0.03092 0.02533 0.013492 
-0.025145 0.183 0.065283 0.081231 0.062652 0.058706 0.056898 0.020069 
0.10754 0.32654 0.54488 0.38425 0.14996 0.097837 0.06183 0.068571 
0.12069 0.50673 1.1106 0.65421 0.23578 0.13434 0.086492 0.08304 
0.024179 0.39132 1.0292 0.60029 0.20651 0.10458 0.051308 0.02829 
-0.034023 0.035195 0.01711 0.15999 0.086821 0.032071 0.024179 -0.010019 
-0.006566 -0.032543 -0.66521 -0.18446 0.007738 0.012013 0.027303 0.014479 
0.072517 0.10211 -0.65584 -0.26601 -0.051615 -0.0090322 0.012177 0.033387 
0.048348 0.036675 -0.39656 -0.25105 -0.082196 -0.0044286 -0.0060728 0.016288 
-0.0503 -0.29659 -0.18956 -0.13991 -0.041257 -0.015116 -0.020377 -0.0088678 
-0.09239 -0.30859 0.24236 0.067585 0.013328 0.014643 -0.010183 -0.01939 
0.033387 0.058871 0.45659 0.16262 0.035195 0.0042853 0.01152 0.02681 
0.07301 0.29201 0.22871 0.094384 0.022864 0.019905 0.025659 0.041772 
0.029276 0.25321 -0.23395 -0.092226 -0.0070593 0.010862 0.0047785 0.019411 
0.061666 0.29135 -0.55143 -0.22178 -0.041093 -0.0019624 0.01267 0.027632 
0.06183 0.34347 -0.4786 -0.30432 -0.032872 0.014972 0.031742 0.019905 
-0.0039354 0.13434 -0.12133 -0.18824 -0.0138 0.035688 0.02533 0.049499 
0.0090533 -0.17312 0.11296 -0.054575 0.019905 0.0024767 0.018096 0.041114 
-0.0040998 -0.58514 0.06331 -0.061151 -0.0072237 -0.0060728 0.0021479 0.013821 
-0.0075525 -0.72555 0.32884 0.15653 0.050486 0.036182 0.015794 -0.0077169 
0.053938 -0.40379 0.60621 0.36731 0.11954 0.063639 0.059035 -0.0027845 
0.10787 0.17067 0.46974 0.34758 0.14305 0.084848 0.073668 0.033058 
0.088465 0.58006 0.15604 0.23644 0.11099 0.072024 0.053609 0.068407 
0.082382 0.56938 -0.21208 0.026974 0.062981 0.052459 0.045882 0.088465 
0.13878 0.37372 -0.42681 -0.10308 0.015301 0.020069 0.050979 0.05772 
0.22345 0.11033 -0.31287 -0.16062 -0.022185 0.014643 0.024837 0.045553 
0.10819 -0.16276 -0.085156 -0.10965 -0.043724 -0.029091 -0.00031829 0.036839 
-0.046354 -0.16309 0.19944 -0.037969 -0.033859 -0.041422 -0.017417 0.019411 
-0.010676 0.09274 0.34462 0.029112 -0.01117 0.0052718 0.0079024 0.0060938 
0.054432 0.21309 0.22361 0.13878 0.047691 0.023028 0.022371 -0.022185 
0.060515 0.23512 0.10047 0.147 0.08156 0.049499 0.034209 -0.011827 
0.11888 0.21786 0.076134 0.1248 0.084026 0.077285 0.041278 0.035853 
0.059693 0.10935 -0.029748 0.070708 0.050814 0.049992 0.040456 0.047033 
0.053609 -0.044217 -0.1376 -0.025967 0.043251 0.012177 0.035853 0.076956 
0.14239 -0.056219 -0.071345 -0.038133 0.0067515 0.044402 0.043087 0.088958 
0.13105 0.038977 0.21358 -0.027282 0.01563 0.014972 0.029276 0.051965 
-0.16309 -0.0091966 0.28165 -0.0014692 0.015137 0.020891 0.025166 0.015959 
-0.45607 -0.20863 0.053609 -0.022514 -0.0016336 0.010369 0.029112 0.0074092 
-0.42894 -0.36532 -0.031886 0.044402 -0.022185 -0.0064016 0.0031344 0.034866 
-0.089431 -0.15585 0.16459 0.23397 0.047526 -0.00064712 0.030263 0.0324 
0.42206 0.16673 0.26537 0.28214 0.10869 0.079587 0.057227 -0.0078813 
0.53025 0.081889 0.12283 0.19928 0.097672 0.072353 0.081889 -0.046683 
0.37405 0.034044 -0.017582 0.03799 0.084848 0.049992 0.06331 0.050157 
0.16558 0.020727 -0.25697 -0.10571 -0.0060728 0.02122 0.029276 0.077614 
0.032071 0.032071 -0.35496 -0.12905 -0.042573 -0.035832 -0.015444 0.077614 
0.039141 0.14124 -0.040435 -0.029748 -0.021856 -0.027611 -0.0029489 0.060186 
0.063803 0.25699 0.34594 0.17429 0.021713 0.015959 0.023357 0.066434 
-0.0087034 0.32341 0.48059 0.21901 0.080244 0.02829 0.06183 0.089616 
-0.081539 0.27179 0.30352 0.095042 0.060679 0.044567 0.042758 0.068571 
-0.075455 0.056076 0.077285 -0.040928 0.014643 0.040785 0.013164 0.052952 
0.063803 -0.074798 -0.015444 -0.077428 0.02122 0.0067515 0.039141 0.021056 
0.15226 0.072846 -0.060165 -0.027611 0.020727 0.014808 0.029441 -0.0077169 
0.088794 0.25419 -0.097158 -0.038791 -0.0070593 0.014315 0.0036276 -0.033859 
-0.066741 0.17462 -0.14303 -0.09091 -0.057534 -0.041422 -0.042901 -0.06296 
-0.055232 0.092576 -0.11607 -0.098473 -0.086307 -0.044052 -0.011005 -0.027447 
-0.01528 -0.23411 -0.059343 -0.055232 -0.03912 -0.014951 0.0083956 0.062323 
-0.022185 -0.54551 -0.0019624 -0.037147 -0.010019 -0.012978 -0.0054151 0.080738 
-0.00031829 -0.49192 -0.21932 -0.12988 -0.008539 -0.018239 0.00066819 0.068242 
-0.003771 -0.14763 -0.32997 -0.13678 -0.0011404 0.037826 -0.0044286 0.022864 
-0.036818 0.13138 -0.13185 -0.024158 0.049664 0.025824 0.03388 0.0060938 
-0.13218 0.34544 0.24433 0.13828 0.099152 0.055911 0.058049 0.03651 
-0.27144 0.32637 0.44541 0.33328 0.12727 0.086492 0.047362 0.072188 
-0.31435 0.26685 0.43127 0.30483 0.13187 0.082217 0.051801 0.08978 
-0.1108 0.13664 0.25074 0.19698 0.055582 0.02122 0.038648 0.070544 
0.35219 0.16278 0.024837 0.073504 0.004943 -0.0087034 -0.001798 -0.0067304 
0.83819 0.19599 -0.29955 -0.079237 -0.026953 -0.038298 0.0064227 -0.074962 
0.63794 0.32423 -0.47153 -0.17016 -0.041093 -0.015116 0.0034632 -0.014458 
0.07449 0.35547 -0.41941 -0.18495 -0.014129 0.015137 0.012999 0.040128 
-0.17838 0.24466 -0.21521 -0.11343 -0.0016336 0.019905 0.039305 0.075641 
-0.23675 0.05065 -0.01528 -0.057699 0.028947 -0.0040998 0.033222 0.069064 
-0.2642 -0.32964 0.073997 -0.0072237 0.023193 0.018589 0.010533 -0.0068948 
-0.10719 -0.40987 0.38753 0.12842 0.060515 0.0227 0.022864 -0.022021 
0.03388 -0.19219 0.92155 0.33525 0.11707 0.042429 0.044896 0.0037921 
0.029441 -0.16292 0.76865 0.39378 0.12102 0.045718 0.03947 0.023522 
-0.11508 -0.27094 0.031742 0.14157 0.042429 0.025495 0.005765 0.01563 
-0.27078 -0.29561 -0.41513 -0.09387 -0.011663 -0.010019 0.0087245 0.029605 
-0.32109 -0.057534 -0.41776 -0.21241 -0.038298 -0.0036066 0.020727 0.04654 
-0.12182 0.3221 -0.31418 -0.2859 -0.053424 0.0075736 0.019905 0.065283 
0.15226 0.49539 -0.25582 -0.20814 -0.041257 0.0019835 0.015794 0.018754 
0.37997 0.37866 -0.18578 -0.084663 0.027961 0.031249 0.039141 -0.0090322 
0.25732 0.0039565 -0.13185 0.049499 0.068571 0.029112 0.023686 -0.051287 
0.055911 -0.31829 0.16623 0.32062 0.090767 0.048348 0.028619 0.00099702 
-0.023665 -0.30794 0.4459 0.47106 0.15851 0.088136 0.064132 0.057884 
0.0044497 -0.094527 0.27244 0.37175 0.14042 0.083368 0.08156 0.082053 
0.027632 0.0079024 -0.039942 0.098988 0.069229 0.040292 0.055582 0.07449 
0.013492 0.079094 -0.071016 -0.0868 0.01974 0.02122 0.042429 0.053774 
-0.0072237 0.27655 0.096357 -0.084991 0.018425 0.032893 0.021384 0.038483 
-0.042244 0.40151 0.12431 -0.10061 0.0019835 0.0227 0.012506 0.0082312 
-0.017417 0.42091 0.0032988 -0.093048 -0.0024557 0.015301 0.027468 0.033058 
0.069886 0.3387 -0.24168 -0.10439 -0.0138 0.026481 0.051472 0.017767 
0.12743 0.1562 -0.52611 -0.14632 -0.021528 0.007738 0.044238 0.040292 
0.093233 0.013821 -0.61802 -0.19811 -0.058028 -0.0138 0.014479 0.016945 
0.08156 0.036675 -0.37551 -0.15898 -0.03057 0.017932 0.00083261 0.018589 
0.096521 -0.021034 -0.010841 -0.0039354 0.032564 0.028947 0.032071 0.022206 
0.047691 -0.2032 0.37997 0.073175 0.085177 0.043745 0.056076 0.03092 
-0.029255 -0.30925 0.73774 0.24548 0.12727 0.060022 0.028783 -0.031392 
-0.109 -0.16473 0.99389 0.38129 0.11839 0.036839 0.017767 -0.030406 
-0.095021 0.11822 0.69778 0.42255 0.088301 0.045224 0.033387 -0.052109 
-0.093541 0.1345 0.16821 0.19205 0.053938 0.043745 0.017603 -0.0088678 
-0.061316 0.10129 -0.2767 -0.089431 -0.0062372 0.015465 0.037004 0.02122 
0.022864 -0.018239 -0.70023 -0.28623 -0.054739 0.004943 0.031907 0.048019 
0.12595 -0.1672 -0.70894 -0.30415 -0.041586 0.0227 0.025001 0.069886 
0.088465 -0.31632 -0.33079 -0.1427 0.0070803 0.01415 0.056404 0.01267 
0.13664 -0.045861 0.34561 0.18563 0.11115 0.066927 0.085012 0.058542 
0.19484 0.1807 0.70617 0.4681 0.17149 0.1276 0.10556 0.10474 
0.1077 0.16656 0.56066 0.52466 0.16788 0.075805 0.066269 0.072024 
0.0069159 0.08567 0.45544 0.37504 0.14585 0.033387 0.055089 0.073339 
-0.015609 0.11017 0.57414 0.33492 0.11937 0.069064 0.061501 0.081067 
0.090603 0.3124 0.38326 0.12727 0.037168 0.031742 0.034044 0.05772 
0.22279 0.55491 0.040456 -0.12198 -0.016924 0.0026412 0.0082312 0.020398 
0.29119 0.59157 -0.17377 -0.23625 -0.052437 0.0067515 -0.004593 -0.020048 
0.17084 0.30303 -0.19268 -0.2573 -0.075455 -0.047998 -0.021856 -0.038791 
0.019576 -0.10801 -0.21521 -0.20403 -0.065919 -0.052931 -0.014458 0.0036276 
-0.1016 -0.34016 -0.18413 -0.10406 -0.051615 -0.0068948 -0.0062372 0.0044497 
-0.2762 -0.5345 -0.21899 -0.058028 -0.01117 0.012177 0.026646 0.041278 
-0.25384 -0.5225 -0.34197 -0.049807 -0.0050863 0.010204 0.05476 0.073997 
-0.1016 -0.30087 -0.43223 -0.1016 -0.020377 0.029605 0.038483 0.080409 
0.073997 0.041443 -0.36663 -0.095514 -0.010512 -0.00081153 0.0080668 0.047526 
0.10672 0.31157 -0.040764 0.0046141 -0.00031829 1.0539e-005 -0.013143 -0.016102 
0.14881 0.48339 0.2759 0.14881 0.076299 0.053609 0.031414 -0.00064712 
0.15818 0.52959 0.41187 0.24384 0.13056 0.10014 0.06331 0.0054362 
0.038319 0.26061 0.41812 0.18152 0.11822 0.071695 0.050979 -0.024158 
-0.10012 -0.21438 0.41927 0.12891 0.038319 0.03388 0.0064227 -0.05441 
-0.1108 -0.53762 0.50098 0.10376 0.023851 -0.026624 -0.010512 0.018096 
-0.08828 -0.66356 0.4265 0.077614 -0.020706 -0.030899 -0.020048 0.03651 
0.032236 -0.28064 0.074326 0.015465 -0.024323 -0.0098543 0.0085601 0.086163 
0.16179 0.42617 -0.16424 -0.084498 -0.022514 -0.008539 0.0069159 0.052623 
0.15637 0.62528 -0.24513 -0.068386 -0.011827 -0.00064712 0.0028056 0.027796 
0.10392 0.40151 -0.20288 -0.024487 0.011848 0.035524 -0.0091966 0.016781 
0.10507 0.2463 -0.10554 0.024344 0.057062 0.037826 0.065447 0.061172 
0.13615 0.21112 0.026481 0.026974 0.037826 0.031085 0.051965 0.076134 
0.14124 0.079422 0.16031 -0.034023 -0.021034 0.0227 0.03651 0.07449 
0.094877 -0.087129 0.012835 -0.075949 -0.040928 0.0051074 0.025988 0.044567 
0.052294 -0.012814 -0.22293 -0.17756 -0.047176 0.0046141 0.017438 0.017274 
0.012013 0.071037 -0.26749 -0.19449 -0.044052 0.01826 0.027632 -0.0021268 
-0.030735 0.022535 -0.23938 -0.14599 -0.0004827 0.030427 0.025166 -0.013143 
-0.10702 -0.16736 -0.080388 0.056404 0.065612 0.026646 0.0080668 -0.037147 
-0.15322 -0.20419 0.21983 0.37948 0.12118 0.03651 -0.0057439 -0.036818 
-0.066413 -0.10949 0.50131 0.414 0.14749 0.04917 0.032236 0.01826 
0.011355 0.040292 0.4579 0.3244 0.098823 0.028947 0.05065 0.032564 
0.092576 0.06479 0.21802 0.16064 0.069886 0.051801 0.056733 0.078436 
0.057227 -0.12297 -0.19696 -0.087129 0.0092177 0.048348 0.041443 0.051965 
0.047362 -0.1279 -0.4301 -0.1741 -0.034681 0.0080668 0.024015 0.041772 
0.033058 -0.079072 -0.32865 -0.22014 -0.035996 -0.030406 0.0087245 0.0032988 
0.014479 -0.090253 -0.24217 -0.17986 -0.042573 -0.00031829 -0.0060728 -0.018897 
0.0074092 -0.023336 -0.26831 -0.1598 -0.053095 -0.012485 -0.024487 -0.015938 
0.028619 0.29957 -0.2545 -0.15865 -0.045861 -0.014293 -0.015444 -0.0068948 
0.09274 0.57941 -0.079895 -0.090088 -0.016102 0.014479 0.022371 0.056898 
0.17807 0.53584 0.086985 -0.093705 -0.014787 -0.004593 0.020562 0.052787 
0.17824 0.39329 0.062488 -0.015116 0.0028056 -0.0011404 -0.00081153 0.056733 
0.13845 0.32243 -0.0039354 -0.042079 0.0085601 0.01004 0.019411 0.05065 
0.099974 0.25452 -0.011498 -0.070194 0.0075736 0.03536 0.04654 0.062159 
0.024508 -0.001798 0.060186 0.029934 0.024179 0.014479 0.020891 0.021056 
-0.028269 -0.2448 0.13762 0.081067 0.041443 0.0227 -0.0082102 -0.0082102 
-0.064604 -0.37946 0.010697 0.058377 0.044238 -0.010019 0.0072447 -0.0075525 
-0.11015 -0.38077 -0.29215 -0.023501 0.014972 0.014643 0.021384 0.025001 
-0.039942 -0.18331 -0.17673 0.025988 0.064132 0.016452 0.037497 0.071531 
0.040785 -0.019226 -0.050464 0.040128 0.040621 0.030427 0.044731 0.08304 
0.1202 0.16936 -0.045203 -0.00097594 0.048348 0.059528 0.079422 0.081067 
0.15193 0.24269 -0.17427 0.029112 0.071859 0.093398 0.064132 0.039963 
0.10113 0.33772 -0.11294 0.1031 0.082382 0.073175 0.079422 0.020398 
0.076956 0.46892 0.20109 0.19468 0.098988 0.064132 0.039141 0.009711 
0.048184 0.30829 0.31141 0.22937 0.092082 0.055089 0.030427 0.017603 
-0.015773 -0.038791 0.45083 0.27425 0.1202 0.044402 0.024344 -0.00081153 
-0.19202 -0.35677 0.75927 0.39428 0.16212 0.053445 0.026317 -0.0068948 
-0.32799 -0.45788 0.95674 0.40134 0.17297 0.076627 0.028125 -0.003771 
-0.18939 -0.37041 0.76059 0.33295 0.12036 0.061337 0.041443 0.043251 
-0.038298 -0.090417 0.27113 0.17149 0.10096 0.060844 0.040128 0.086492 
-0.0075525 0.15752 -0.30761 -0.05885 0.0085601 0.034537 0.024179 0.099316 
0.050321 0.26965 -0.62887 -0.218 -0.075455 -0.034023 0.017603 0.081889 
0.36369 0.45248 -0.53253 -0.2499 -0.067564 -0.024323 0.016781 -0.0039354 
0.57957 0.57497 -0.27867 -0.17706 -0.035996 0.034373 0.01711 -0.01528 
0.32308 0.31289 -0.09239 -0.12741 -0.014622 0.0072447 0.0032988 -0.038791 
-0.019061 -0.019226 0.037332 -0.060494 0.004943 -0.0040998 0.0095465 0.022042 
-0.10045 -0.023336 0.12529 0.041443 0.027961 0.031578 0.031907 0.067749 
-0.071181 0.024179 0.18892 0.10721 0.049335 0.050814 0.048841 0.11477 
-0.11837 -0.23707 0.1008 0.094548 0.038155 0.030756 0.025001 0.0689 
-0.18084 -0.50984 -0.026789 0.013821 -0.00097594 0.019083 0.020069 0.020069 
-0.19153 -0.58843 -0.13958 -0.018568 0.0011614 -0.014787 0.01563 -0.021528 
-0.13349 -0.33671 -0.084827 0.048184 0.026481 0.020398 0.015137 -0.011334 
-0.027118 -0.075949 0.047362 0.097179 0.068736 0.065118 0.021384 0.0098754 
0.092247 0.16574 0.16179 0.1756 0.099645 0.063474 0.040621 0.039141 
0.13779 0.27754 0.20882 0.16245 0.10063 0.057227 0.058377 0.089616 
0.095699 0.32621 0.15357 0.10869 0.075476 0.063803 0.047855 0.024344 
0.016945 0.29365 -0.0096899 -0.049971 -0.0082102 0.010369 0.0072447 0.0016547 
-0.057699 0.031249 -0.39688 -0.27752 -0.10719 -0.054575 -0.029913 -0.0040998 
-0.10028 -0.056219 -0.63331 -0.38258 -0.145 -0.06296 -0.013636 0.034866 
-0.145 0.19106 -0.4028 -0.36729 -0.12725 -0.053424 -0.020541 0.019576 
-0.11294 0.39559 -0.010841 -0.23198 -0.061645 -0.01676 0.0032988 -0.018568 
0.29102 0.27738 0.33229 0.06742 0.049664 0.049664 0.057555 -0.067892 
0.54981 0.0067515 0.92057 0.49029 0.19402 0.093891 0.087643 -0.053917 
0.28478 -0.13695 1.5143 0.86795 0.30434 0.12332 0.092082 -0.0034422 
-0.084663 -0.14434 1.4924 0.85036 0.28099 0.11181 0.081067 0.072024 
-0.15733 -0.041586 0.76799 0.59634 0.22871 0.11346 0.073175 0.11707 
0.011191 0.06594 0.079751 0.2389 0.12579 0.077285 0.072681 0.17034 
0.1761 0.14091 -0.31912 -0.12873 0.00083261 0.041772 0.079916 0.16903 
0.17281 0.10458 -0.53154 -0.35249 -0.086636 -0.011992 0.031085 0.065447 
0.021713 0.057555 -0.56689 -0.45311 -0.1358 -0.048327 0.0021479 -0.031064 
-0.059672 -0.017417 -0.67343 -0.4347 -0.1353 -0.077593 -0.040928 -0.095843 
-0.062138 -0.18528 -0.75909 -0.34772 -0.12018 -0.06148 -0.055232 -0.080717 
-0.052109 -0.25697 -0.64301 -0.20436 -0.063618 -0.035174 -0.00097594 -0.040764 
-0.095349 -0.48583 -0.37896 -0.035996 -0.025967 0.0085601 0.011684 0.013164 
-0.07003 -0.46873 -0.13777 0.0052718 -0.0040998 0.026152 0.017767 0.017274 
0.034866 -0.16769 -0.049149 -0.014293 -0.01939 -0.010019 -0.010019 0.027139 
0.13828 0.17462 -0.0022913 -0.062631 -0.035174 -0.009361 0.026974 0.021713 
0.15505 0.36024 -0.065262 -0.1011 -0.0052507 0.017932 0.031414 0.04095 
0.11099 0.32522 -0.18298 -0.087458 -0.019555 0.024837 0.029276 0.049828 
0.055911 0.29349 -0.19071 -0.12281 -0.010348 0.0075736 -0.0057439 0.016452 
0.058213 0.40776 0.15061 -0.011334 0.0060938 0.016452 0.022371 0.038483 
0.1276 0.63514 0.475 0.048019 0.027139 0.021549 0.03799 0.048019 
0.15538 0.69219 0.56148 0.11428 0.048348 0.021878 0.038319 0.029112 
0.057884 0.56116 0.64731 0.23858 0.071859 0.036839 0.019083 0.010533 
-0.094692 0.22312 0.60933 0.29908 0.090274 0.033715 0.0064227 0.01826 
-0.12198 -0.1667 0.35103 0.3854 0.12579 0.046868 0.062488 0.016452 
-0.03205 -0.39294 0.060844 0.30631 0.14042 0.092247 0.077943 0.050321 
-0.02646 -0.58284 -0.1889 0.11773 0.079751 0.075312 0.052623 0.049992 
-0.075455 -0.59878 -0.27588 -0.013471 0.026152 0.027468 0.019247 0.026481 
-0.045696 -0.37781 -0.25269 -0.14352 -0.0090322 0.043745 0.043087 0.040785 
0.018918 -0.16736 -0.22737 -0.18989 -0.016102 0.0042853 0.034537 0.014972 
0.078272 0.082053 -0.15059 -0.18019 -0.019226 0.00050378 -0.0049219 0.053938 
0.18843 0.4773 -0.047834 -0.10719 -0.01939 0.0083956 0.013328 0.05624 
0.28823 0.77095 0.076299 -0.0050863 0.012177 0.012506 0.0024767 0.11444 
0.28773 0.75434 0.079751 0.089616 0.039305 0.030592 0.050321 0.08863 
0.23298 0.48536 -0.078415 0.16377 0.064132 0.093726 0.063474 0.08419 
0.057391 0.27787 -0.16424 0.062488 0.071037 0.056733 0.049992 0.068571 
-0.24513 0.10869 -0.15388 -0.064275 0.044402 0.044402 0.02533 0.040621 
-0.47876 -0.34296 -0.18709 -0.17328 -0.025145 0.00017495 -0.0096899 -0.0049219 
-0.449 -0.87631 -0.17854 -0.18512 -0.063782 -0.043066 -0.042244 -0.063124 
0.0083956 -0.78687 -0.095678 -0.084169 -0.10045 -0.060987 -0.02235 -0.11771 
0.45396 -0.12609 -0.17871 -0.024816 -0.027282 0.0019835 -0.0060728 -0.071509 
0.37093 0.37701 -0.21603 0.10458 0.072024 0.050814 0.038483 0.025495 
0.098494 0.34446 -0.077264 0.23101 0.11543 0.074983 0.065447 0.038977 
-0.0057439 0.21885 -0.029913 0.16558 0.1105 0.070708 0.060844 0.089616 
-0.076935 0.023686 0.0041209 0.040292 0.047526 0.022864 0.030592 0.086657 
-0.15914 0.039799 0.63531 0.11576 0.08419 0.014808 0.018096 0.058049 
-0.15865 0.22509 1.3627 0.40134 0.14371 0.073668 0.061995 0.039141 
-0.056055 0.23266 1.3048 0.42765 0.16985 0.078929 0.072188 0.055089 
0.052787 0.08863 0.37619 0.15209 0.079094 0.053116 0.05065 0.02829 
0.067091 0.03388 -0.38357 -0.098144 0.030427 0.054432 0.039141 0.020398 
0.065612 -0.063124 -0.63413 -0.22096 -0.010348 0.014479 0.027961 0.04654 
0.10096 -0.17016 -0.55143 -0.17509 -0.042737 -0.011334 0.019247 0.056733 
0.08419 -0.25171 -0.37124 -0.13777 -0.05441 0.004943 0.0088889 0.076134 
0.046868 -0.25878 -0.30876 -0.13218 -0.050136 -0.020212 -0.018404 0.02533 
0.052952 -0.024323 -0.2037 -0.083018 -0.020048 -0.0027845 0.00017495 0.016288 
0.094713 0.29004 0.076299 -0.0078813 0.013986 0.016616 0.01711 0.014315 
0.11066 0.4487 0.27639 0.08715 0.035524 0.033058 0.03092 0.024015 
-0.00097594 0.36682 0.26225 0.043251 0.018918 0.01974 0.016288 0.011191 
-0.05885 0.25847 0.19517 0.024508 0.036346 0.024015 0.0041209 0.017603 
-0.018075 0.22592 0.1373 0.10228 0.049828 0.043416 0.034209 0.012835 
0.037497 0.26916 0.14798 0.12858 0.068078 0.044896 0.043416 0.046211 
0.054596 -0.04323 0.061337 0.14519 0.048677 0.035688 0.042758 0.030098 
0.0059294 -0.41793 0.058871 0.14733 0.071037 0.034044 0.043416 0.038483 
0.037332 -0.39919 0.048841 0.1544 0.072188 0.031085 0.028947 0.01711 
0.18794 -0.063782 -0.15322 0.0092177 0.045553 0.026646 0.026974 -0.02794 
0.13993 0.027468 -0.41415 -0.19811 -0.010019 -0.00015387 0.0088889 -0.015609 
-0.14336 -0.18183 -0.37567 -0.20386 -0.024487 -0.0024557 -0.01117 -0.053095 
-0.3497 -0.37025 -0.23395 -0.17756 -0.047341 -0.0082102 -0.024323 -0.044874 
-0.22359 -0.31813 0.0036276 -0.036654 -0.017582 0.013821 0.016945 0.0092177 
0.060844 -0.04619 0.36369 0.12299 0.028454 0.013821 0.07449 0.13039 
0.22279 0.19369 0.7208 0.34068 0.1105 0.064296 0.063968 0.12546 
0.32341 0.44343 0.85858 0.38556 0.12858 0.091096 0.069558 0.1202 
0.33065 0.52564 0.50328 0.21687 0.090274 0.04506 0.046868 0.059035 
0.15275 0.38227 -0.019555 -0.034681 0.025166 -0.0013048 0.035195 -0.015444 
-0.14204 0.12809 -0.31862 -0.19663 -0.031721 0.018754 0.017603 -0.025309 
-0.34822 -0.16753 -0.33622 -0.18627 -0.021363 -0.0011404 -0.0068948 -0.032215 
-0.37584 -0.376 -0.010512 -0.023501 -0.013143 -0.01676 0.009711 0.025824 
-0.22787 -0.32487 0.45626 0.21457 0.022535 -0.0026201 0.013821 0.020562 
0.074161 -0.052437 0.64813 0.3586 0.068736 0.0051074 0.017932 -0.0021268 
0.38079 0.084355 0.29793 0.18925 0.046868 0.020562 0.011355 -0.02087 
0.37619 -0.053753 -0.18495 -0.026624 0.019247 0.048513 0.056569 0.042429 
0.19747 -0.052109 -0.48633 -0.15355 0.038483 0.051636 0.084026 0.061008 
0.10293 0.19336 -0.50342 -0.18397 0.0088889 0.039634 0.053774 0.061337 
0.086821 0.35399 -0.36663 -0.11327 -0.023994 0.014315 0.019411 0.042429 
0.081231 0.3757 -0.13908 -0.063289 0.020398 0.0093821 0.016288 0.050979 
0.034702 0.11263 0.0085601 -0.0019624 0.0093821 0.009711 0.013164 0.059035 
-0.01232 -0.16983 0.058871 0.03799 0.029605 0.018096 0.034537 0.046868 
-0.092226 -0.32438 -0.018568 -0.02794 0.0093821 -0.0022913 0.0062583 0.026646 
-0.13152 -0.21159 -0.014129 -0.013307 -0.0096899 -0.014293 -0.013965 -0.010019 
-0.072167 0.19796 0.15883 -0.0087034 -0.023501 -0.0087034 -0.017088 -0.00015387 
0.00033937 0.33837 0.24022 -0.0032777 -0.0096899 -0.022843 0.0062583 -0.024323 
0.069886 0.21704 0.13384 0.0044497 -0.0077169 -0.009361 0.015465 0.0060938 
0.09422 0.14864 0.015301 -0.0039354 0.01004 0.032236 0.03092 0.027632 
0.087808 0.09685 -0.060165 0.041772 0.029112 0.042265 0.037826 0.048019 
0.079258 0.013821 -0.066577 0.0074092 0.030263 0.033551 0.047197 0.036675 
0.11494 0.090274 0.26768 0.11707 0.05624 0.05624 0.047526 0.033715 
0.12497 0.22608 0.44755 0.19994 0.068407 0.050486 0.05213 0.056404 
0.11296 0.22542 0.17791 0.093726 0.052952 0.03651 0.065118 0.042429 
0.02829 0.1664 -0.019061 0.050814 0.06035 0.057062 0.046704 0.053774 
-0.015116 0.12365 -0.17476 -0.01939 0.045389 0.019411 0.054432 0.052294 
0.0041209 0.1174 -0.41892 -0.109 0.022864 0.039634 0.050157 0.069064 
0.013164 0.028783 -0.46298 -0.21882 -0.0072237 0.055418 0.041772 0.05065 
-0.047998 -0.35085 -0.49389 -0.32454 -0.047505 -0.0091966 -0.0004827 0.011191 
-0.0021268 -0.30169 -0.57198 -0.27341 -0.07414 -0.028597 -0.0021268 0.0026412 
0.11148 0.079751 -0.45229 -0.17904 -0.028762 0.00297 -0.0072237 0.018096 
0.094548 0.23578 -0.057534 0.086163 0.033058 -0.0062372 -0.014293 -0.0080457 
-0.075291 0.13582 0.74152 0.51167 0.15407 0.037168 -0.034845 -0.011827 
-0.20025 0.20849 1.3919 0.7453 0.22213 0.078436 0.027632 0.051308 
-0.13941 0.22016 1.1759 0.60982 0.18728 0.047033 0.12398 0.10326 
0.010862 -0.11639 0.76339 0.36616 0.1128 0.060022 0.077121 0.05476 
0.45511 -0.28459 0.41844 0.27836 0.1299 0.12743 0.10047 0.01826 
0.54471 -0.086964 -0.27472 -0.06296 0.042923 0.068736 0.075641 0.04506 
0.22608 0.18974 -0.95408 -0.40297 -0.10127 -0.017417 0.025824 0.038977 
-0.044217 0.19566 -1.0001 -0.4638 -0.11853 -0.017088 -0.0095255 0.052623 
-0.31928 0.01267 -0.69381 -0.30383 -0.055561 -0.01232 -0.0077169 0.034373 
-0.52135 -0.11475 -0.26174 -0.034681 -0.0059084 -0.010841 -0.004593 0.0013258 
-0.32586 -0.0059084 0.13401 0.050486 0.038155 0.023193 0.013328 0.019411 
0.22033 0.244 0.37471 0.096686 0.038319 0.027139 0.035688 0.035524 
0.62709 0.33262 0.45445 0.10787 0.035031 0.028783 0.034044 -0.019884 
0.50164 0.293 0.32835 0.13795 0.059035 0.047855 0.03799 0.0051074 
0.14256 0.20865 0.12332 0.097837 0.036346 0.039141 0.027139 0.049828 
-0.088608 0.062981 -0.010841 0.041114 0.0044497 0.037661 0.0324 0.065776 
-0.16128 -0.20156 -0.066906 0.038483 0.03092 0.01004 0.021056 0.051308 
-0.14287 -0.35003 -0.048492 0.090767 0.061666 0.0064227 0.015794 0.02829 
-0.053753 -0.13053 -0.00031829 0.10951 0.063474 0.024344 0.011191 0.037826 
-0.022679 0.2218 -0.0032777 0.084848 0.062488 0.031578 0.019905 0.028783 
-0.073482 0.2851 -0.057041 -0.022021 0.018918 0.021878 0.023522 0.0067515 
-0.083512 0.21605 -0.133 -0.063946 -0.015116 0.0070803 0.0028056 0.0019835 
0.031249 0.19517 -0.18545 -0.073647 -0.014458 0.01563 0.012342 0.039963 
0.10408 0.13746 -0.088444 -0.038462 0.0087245 0.018754 0.032893 0.054432 
0.11231 0.020727 -0.042737 0.030427 0.042429 0.024015 0.051308 0.058871 
0.062488 -0.13218 0.025001 0.067749 0.060679 0.053116 0.056569 0.052952 
0.014315 -0.17016 0.15407 0.14469 0.079587 0.048184 0.025824 0.024837 
0.034537 -0.079566 0.29628 0.19188 0.072681 0.013164 0.0019835 0.0051074 
0.011848 -0.0068948 0.28182 0.19928 0.062817 0.023686 0.0031344 -0.0082102 
0.031085 -0.10078 -0.22491 0.00033937 0.016288 0.021878 -0.0059084 0.030427 
0.074326 -0.25746 -0.48205 -0.19235 -0.057041 -0.020212 -0.0027845 0.046046 
-0.009361 -0.26667 0.037497 -0.003771 -0.008539 -0.0011404 0.0052718 0.026974 
-0.16128 -0.20879 0.65783 0.1738 0.067913 0.033058 0.010369 -0.037969 
-0.068879 -0.10752 0.8571 0.18333 0.069722 0.017438 0.025824 -0.04882 
0.20388 0.26899 0.81649 0.17182 0.066434 0.040785 0.035688 0.028454 
0.31634 0.76881 0.62117 0.18498 0.07597 0.055418 0.044073 0.08863 
0.2223 0.79134 0.18942 0.11674 0.039963 0.01711 0.03799 0.090274 
0.049006 0.43258 -0.29265 -0.052931 -0.012649 -0.00081153 0.033222 0.035688 
-0.11656 0.039141 -0.6195 -0.19498 -0.043395 0.00083261 -0.0019624 -0.048492 
-0.20666 -0.28393 -0.66406 -0.20962 -0.058192 -0.00031829 0.011848 -0.099131 
-0.05885 -0.44571 -0.41398 -0.18627 -0.028597 -0.001798 0.014479 0.019247 
0.075148 -0.33063 -0.084498 -0.094527 -0.0098543 0.025166 0.016781 0.060679 
0.057555 -0.13514 0.058377 -0.06148 -0.011005 -0.011663 0.028783 0.068571 
-0.024487 0.056898 0.10228 -0.0032777 -0.0077169 -0.0059084 0.020233 0.065776 
-0.036654 0.1539 0.045389 -0.0067304 0.0037921 0.0070803 0.0056006 0.062488 
-0.060987 0.065447 -0.11639 -0.046354 0.0062583 -0.0049219 0.0072447 0.034044 
-0.019719 0.021878 -0.27505 -0.068879 -0.0090322 -0.023336 0.033058 0.040785 
0.040785 0.0421 -0.18972 -0.063782 -0.01939 0.015137 0.0039565 0.025495 
0.02829 0.21638 0.12085 0.024508 0.049499 0.045718 0.004943 -0.0096899 
-0.00097594 0.30286 0.34396 0.10885 0.066105 0.050814 0.039141 -0.016595 
0.018918 0.17676 0.25781 0.095042 0.056898 0.053938 0.038812 0.019083 
0.031578 -0.040764 0.063803 0.021549 0.023357 0.020562 0.036017 0.049499 
-0.018239 -0.15158 0.22279 0.020562 0.018918 0.021713 0.023357 0.054432 
-0.06444 -0.30235 0.29908 0.079587 0.036839 0.024344 -0.00081153 0.030427 
-0.034188 -0.25532 0.19501 0.092904 0.030592 0.0069159 0.021549 -0.021199 
0.037497 0.074654 0.21802 0.11839 0.053445 0.014808 0.038812 0.017274 
0.095864 0.27721 0.19616 0.12595 0.045553 0.048513 0.02533 0.039141 
0.12447 0.21917 -0.037147 -0.0032777 0.0032988 0.0093821 0.016945 0.058871 
0.1567 0.094548 -0.15076 -0.045368 -0.016431 0.0041209 0.024673 0.048677 
0.13072 0.06594 -0.0868 -0.045368 0.017932 0.056404 0.06594 0.044238 
0.076299 0.062817 -0.10604 -0.044874 0.030427 0.042923 0.048677 0.051636 
-0.029913 -0.030242 -0.19087 -0.071674 0.020398 0.013328 0.043745 0.043745 
-0.1016 -0.012814 -0.17443 -0.06444 0.013164 0.030098 0.0085601 0.015301 
0.011684 0.10918 -0.0052507 0.055089 0.040785 0.044073 0.045553 0.021713 
0.14223 0.17626 0.070873 0.067256 0.051801 0.051636 0.05624 0.027139 
0.1105 0.14437 -0.0771 -0.0034422 0.04917 0.074983 0.052623 0.007738 
0.064461 0.057555 -0.10883 -0.014293 0.030098 0.043087 0.0421 0.037332 
0.057884 -0.010348 0.016616 0.025166 0.013821 0.0041209 0.043087 0.065776 
0.053116 -0.036489 0.088465 0.096357 0.015794 0.0036276 0.0082312 0.058706 
0.020398 -0.011005 0.16377 0.10524 -0.011334 -0.014787 -0.010183 0.026646 
-0.077428 -0.10604 0.14634 0.073175 0.0092177 -0.003771 -0.0090322 0.019576 
-0.17312 -0.145 0.19583 0.13039 0.035688 0.028454 0.0064227 -0.024816 
-0.1718 -0.10061 0.33788 0.20799 0.078107 0.048513 0.020562 -0.038791 
-0.089924 -0.13563 0.1396 0.12151 0.043251 0.023028 0.025988 -0.047998 
-0.074798 -0.13086 -0.11015 -0.0098543 0.03388 0.037826 0.024673 -0.026296 
-0.079895 0.067913 -0.36877 -0.095185 0.014479 0.034044 0.021878 0.0056006 
0.029112 0.31667 -0.36285 -0.079401 0.016288 0.027796 0.039305 0.05476 
0.14798 0.4071 -0.086307 0.028619 0.037661 0.061666 0.077778 0.098494 
0.15768 0.22542 0.011355 0.0689 0.047362 0.043087 0.063968 0.097179 
0.11872 -0.11541 -0.0064016 0.028454 0.029276 0.019083 0.028619 0.086328 
0.13812 -0.22524 0.1465 0.12825 0.024344 0.034373 0.043909 0.033222 
0.16064 -0.08532 0.25732 0.16821 0.066434 0.033387 0.061172 0.07449 
0.10803 0.077614 0.16788 0.15012 0.041443 0.028125 0.04358 0.051801 
0.029441 0.093726 0.036839 0.032071 0.042429 0.040128 0.035524 0.017603 
0.020562 0.10935 -0.064111 -0.10423 0.0072447 0.034044 0.028125 0.011848 
0.019576 0.21358 -0.06707 -0.096665 -0.025309 -0.0004827 0.034537 0.005765 
0.075641 0.36419 0.053938 -0.079566 -0.01676 0.0056006 0.038483 0.010533 
0.083368 0.32095 0.16212 0.00033937 -0.0054151 0.017932 0.0041209 0.035195 
0.049335 0.1026 0.12957 0.052787 0.012835 0.0024767 0.00050378 0.047855 
-0.038627 0.016288 -0.03057 0.033058 0.019247 0.0036276 0.017767 0.031742 
-0.060329 -0.014293 -0.23379 0.091589 0.036182 0.017932 0.029276 0.01974 
-0.025802 -0.084827 -0.19844 0.098988 0.051472 -0.0055795 0.036017 -0.050793 
0.067091 -0.18002 0.0032988 0.15242 0.062488 0.026974 0.022042 -0.0082102 
0.1151 -0.16177 0.12875 0.15555 0.073997 0.060186 0.051143 0.020398 
0.08715 -0.057205 0.2417 0.13499 0.083368 0.06742 0.059364 0.058049 
0.064296 0.054596 0.30187 0.084026 0.059693 0.042923 0.06035 0.066598 
0.026646 0.15538 0.14815 -0.069536 0.013657 0.018096 0.042265 0.062652 
0.013821 0.28346 0.037497 -0.076606 0.01415 0.02681 0.029441 0.049992 
-0.018897 0.37257 0.14815 0.04654 0.074983 0.032893 0.01563 0.0082312 
0.0592 0.43686 0.26422 0.18383 0.095371 0.05772 0.040785 -0.0040998 
0.21917 0.3849 0.10343 0.16163 0.066434 0.047197 0.016781 -0.0083746 
0.16837 -0.071838 -0.1575 -0.05326 0.00099702 0.0052718 0.01004 0.051143 
-0.0087034 -0.57264 -0.31698 -0.1501 -0.034845 -0.01528 -0.0027845 0.052294 
-0.1358 -0.56245 -0.28541 -0.1838 -0.056712 -0.023007 0.01563 0.051965 
-0.16194 -0.14484 -0.049807 -0.11196 -0.039284 -0.011334 0.023357 0.052952 
-0.10752 0.12316 0.20783 0.022371 0.016123 0.013986 0.01267 0.056404 
0.01152 0.15686 0.2103 0.010204 0.020398 0.0227 0.010533 0.031414 
0.20388 0.15209 0.041772 0.010369 0.009711 0.0087245 0.016781 0.0079024 
0.34676 0.18942 0.12102 0.044731 0.037168 0.042429 0.037004 0.02122 
0.26948 0.24828 0.2537 0.15489 0.060186 0.024508 0.055911 0.049828 
0.16919 0.23858 0.19287 0.18892 0.066763 0.0421 0.032236 0.07301 
0.035853 0.18037 0.0034632 0.074326 0.069722 0.046868 0.039799 0.044567 
-0.051122 0.15308 -0.030242 -0.00031829 0.010862 0.0052718 0.015465 0.016123 
-0.12248 0.064296 0.047691 -0.050629 -0.004593 -0.00031829 -0.0080457 -0.029913 
-0.12873 0.0064227 0.062323 -0.022514 0.00066819 0.022206 -0.0019624 -0.0049219 
-0.087786 -0.016102 -0.15224 -0.033201 0.00099702 -0.0049219 0.013164 0.01415 
-0.016431 0.10491 -0.24891 -0.031721 0.020398 0.0056006 0.020398 0.027632 
-0.017088 0.0786 -0.36926 -0.025638 0.019247 0.031907 0.041772 0.021713 
0.015137 0.020891 -0.39244 -0.13629 -0.0096899 0.0079024 0.013821 0.031414 
0.23233 0.33903 0.047526 -0.085485 0.024344 0.022371 0.025166 0.059364 
0.40365 0.56362 0.4852 0.13088 0.075805 0.062652 0.055747 0.087972 
0.23397 0.4094 0.72557 0.22822 0.093891 0.053938 0.074983 0.083697 
-0.099953 -0.20222 0.60851 0.22312 0.086821 0.036346 0.037004 0.048019 
-0.28936 -0.71174 0.36632 0.13187 0.059035 0.046211 0.020891 0.029934 
-0.22441 -0.79624 0.066763 0.051801 0.030427 -0.0068948 0.010862 0.026974 
-0.064933 -0.6075 -0.3395 -0.072825 -0.0011404 -0.0050863 0.033715 0.026317 
0.010204 -0.1843 -0.45509 -0.12116 -0.035667 -0.008539 0.023851 0.023522 
-0.0096899 0.21046 -0.28673 -0.069208 -0.018568 -0.012978 0.012506 0.031249 
-0.023665 0.42798 -0.041422 0.026317 0.034866 0.022535 0.018096 0.020069 
-0.11804 0.33032 0.034866 0.047033 0.042758 0.040292 0.011191 -0.0034422 
-0.07003 0.13779 0.012835 1.0539e-005 0.0011614 0.013164 0.041114 -0.023829 
0.1299 0.18004 0.21194 0.058049 0.013328 0.01152 0.018096 -0.010348 
0.37175 0.36287 0.35186 0.12562 0.042923 0.049828 0.035031 0.02829 
0.49079 0.47911 0.20125 0.07301 0.063639 0.054596 0.052294 0.046704 
0.33065 0.34577 -0.040435 0.020398 0.057391 0.040785 0.062323 0.076627 
0.070051 0.13236 -0.12379 -0.036983 0.037332 0.016288 0.046704 0.054432 
0.019905 0.094877 -0.02235 0.020727 0.028783 0.021878 0.026481 0.069393 
0.036675 0.088794 0.056898 0.057884 0.056569 0.051308 0.045389 0.082546 
-0.095514 -0.29478 -0.090746 -0.073811 -0.0068948 0.00297 0.013492 0.040128 
-0.31073 -0.65041 -0.30761 -0.17591 -0.0771 -0.034681 -0.038133 -0.059507 
-0.4153 -0.41612 -0.3132 -0.22918 -0.078744 -0.065591 -0.049149 -0.083512 
-0.45574 0.068407 -0.1358 -0.10916 -0.014458 -0.024158 -0.030242 -0.03912 
-0.3589 0.20964 -0.048656 0.017932 0.034866 0.018754 0.0083956 -0.02087 
-0.012649 0.12809 0.040292 0.11477 0.088465 0.048348 0.052787 -0.0059084 
0.4607 -0.14319 0.16837 0.21704 0.078765 0.065776 0.056898 0.010862 
0.47369 -0.31797 0.22411 0.20947 0.10507 0.066927 0.049828 0.039141 
0.26521 -0.083512 0.17248 0.14141 0.091425 0.092082 0.067091 0.094548 
0.17182 0.20306 -0.016595 0.12184 0.089945 0.08419 0.10096 0.13088 
0.067256 0.18843 -0.017582 0.19057 0.088794 0.065447 0.066269 0.069229 
-0.14977 -0.10571 0.15571 0.31749 0.08715 0.016123 0.0034632 0.0069159 
-0.15454 -0.19877 0.31207 0.25518 0.072188 0.00033937 -0.019555 -0.036325 
-0.0042642 0.013821 0.36961 0.14387 0.060679 0.044238 0.015301 0.03536 
0.10655 0.28691 0.29283 0.01826 0.027632 0.023357 0.039634 0.052459 
0.11231 0.30862 0.16229 -0.062631 -0.023172 0.0064227 0.031249 0.043087 
0.049006 0.13384 -0.032872 -0.10406 -0.039284 -0.0021268 0.0044497 0.031742 
0.029769 0.16755 -0.19745 -0.15372 -0.027118 0.0026412 0.0227 0.051965 
-0.12297 0.2879 -0.24941 -0.12955 -0.004593 0.018918 0.028947 0.088465 
-0.23806 0.13335 -0.16161 -0.11097 -0.0098543 -0.0014692 0.010369 0.066598 
-0.15437 0.0098754 -0.043395 -0.058521 -0.026789 -0.028433 -0.0082102 0.040785 
0.31289 0.079587 0.037168 0.017603 0.0046141 1.0539e-005 0.052952 -0.058356 
0.48372 0.019411 0.012999 0.056569 0.076956 0.066927 0.05624 -0.061809 
0.10672 -0.27341 -0.041751 0.040456 0.03947 0.018589 0.055418 -0.060494 
-0.17197 -0.41119 -0.011498 -0.018568 -0.01117 0.00297 0.0098754 -0.0040998 
-0.19252 -0.2282 -0.00015387 0.018754 -0.036983 0.020233 -0.015444 -0.0047575 
-0.027775 0.051636 -0.065097 0.036839 -0.0052507 0.0092177 0.016123 0.054103 
0.10819 0.25798 -0.043724 0.045389 0.026152 0.023193 0.037826 0.074983 
0.052787 0.23858 0.016945 0.12546 0.037168 0.037661 0.043416 0.082711 
0.0070803 -0.067564 -0.099295 0.042923 0.046704 0.038483 0.023193 0.067913 
0.058871 -0.27226 -0.35315 -0.074469 0.01152 0.0064227 0.0021479 0.011848 
0.060515 -0.023172 -0.3104 -0.10752 0.030592 0.043909 0.056733 0.0036276 
0.070708 0.28609 -0.10669 -0.066248 0.064954 0.080573 0.08978 0.02829 
-0.0082102 0.18777 0.010533 0.02681 0.049499 0.051472 0.05213 0.053116 
-0.08384 -0.025309 0.028454 -0.0073881 0.027961 0.023028 0.00297 -0.010841 
-0.14533 -0.1136 0.18251 -0.016595 -0.029913 -0.023501 -0.02794 -0.0070593 
-0.12166 -0.03205 0.50131 0.14108 -0.0087034 -0.030735 0.0088889 -0.030406 
-0.036983 0.25485 0.66441 0.27573 0.058871 0.032236 0.014808 0.023851 
0.11115 0.3244 0.53304 0.31207 0.086657 0.048513 0.031085 0.059528 
0.14963 0.20076 0.56888 0.24696 0.097179 0.058542 0.056404 0.089123 
0.15308 0.22855 0.47402 0.1248 0.076134 0.054103 0.059857 0.07038 
0.12644 0.23825 -0.012978 -0.053917 0.0042853 0.0082312 0.023357 0.031414 
0.12447 0.15637 -0.3686 -0.12149 0.019083 0.013821 0.031249 0.034209 
0.10491 0.0227 -0.42796 -0.091239 0.0088889 0.035524 0.034866 0.0088889 
0.062817 0.02533 -0.32964 -0.060494 0.039799 0.034866 0.040128 0.031085 
0.056076 0.041772 -0.25631 0.0024767 0.022535 0.031249 0.03388 0.034866 
0.0031344 -0.03764 -0.067399 -0.041751 -0.0027845 0.029769 0.017274 0.011026 
-0.06148 -0.13777 0.06479 -0.021528 -0.011663 0.014315 -0.0078813 0.0019835 
-0.11015 -0.25286 -0.011992 -0.049149 -0.011498 -0.01232 0.0074092 0.015959 
-0.1011 -0.24365 -0.20978 -0.10784 -0.02794 0.0079024 0.016616 0.019247 
-0.06 -0.10538 -0.19104 -0.1039 -0.044217 -0.0083746 0.010369 0.042923 
-0.023007 0.053116 -0.05737 -0.076935 -0.03501 0.0047785 0.0016547 0.046375 
-0.059672 -0.047998 -0.012814 -0.045696 -0.0027845 0.019411 0.0087245 0.032729 
-0.021692 -0.014787 0.087808 0.0092177 0.020727 0.019411 0.021384 0.0075736 
0.15949 0.20142 0.25633 0.075805 0.061501 0.020727 0.026152 -0.0004827 
0.27458 0.41466 0.50789 0.24203 0.09685 0.07301 0.041114 0.051636 
0.1955 0.48684 0.50509 0.23742 0.096357 0.05476 0.042923 0.049664 
0.15407 0.51907 0.17297 0.12497 0.081889 0.028783 0.044731 0.077943 
0.13532 0.4681 -0.099789 0.024837 0.047691 0.058871 0.06035 0.078107 
0.049828 0.30155 -0.1547 -0.049807 0.0075736 0.023686 0.025824 0.026481 
-0.00031829 -0.049971 -0.20863 -0.059014 -0.015773 -0.015938 0.0051074 0.0075736 
-0.063124 -0.41481 -0.24168 -0.041751 -0.0050863 0.010533 -0.0095255 0.022371 
-0.084827 -0.57889 -0.21208 -0.02942 0.010204 -0.0050863 0.040785 0.018096 
-0.057205 -0.35627 0.12743 0.078272 0.021878 0.0044497 0.032729 0.049335 
0.083368 0.060844 0.41729 0.10869 0.040621 0.018096 0.033387 0.046704 
0.069229 0.16212 0.43604 0.19632 0.094713 0.038483 0.025495 -0.012978 
-0.031886 0.11165 0.40069 0.19599 0.15275 0.070051 0.0689 -0.016102 
0.015959 0.15703 0.33295 0.13615 0.095206 0.072846 0.078436 0.010697 
0.042758 0.21885 0.13828 0.0067515 -0.0034422 0.012999 0.029934 0.043909 
-0.041257 0.080902 -0.17706 -0.099953 -0.042737 -0.024323 -0.009361 0.010697 
-0.03616 0.0039565 -0.34575 -0.12494 -0.037805 -0.0073881 0.0026412 0.042594 
0.088136 0.16623 -0.25171 -0.083676 0.0067515 0.0092177 0.035853 0.088958 
0.18448 0.28214 -0.023007 0.044073 0.034373 0.025495 0.051143 0.086492 
0.20208 0.28593 0.079751 0.080244 0.049992 0.04358 0.041278 0.068407 
0.1465 0.18974 0.060022 0.05476 0.059364 0.037168 0.045553 0.052294 
0.078929 -0.0032777 0.00066819 0.027468 0.052623 0.0069159 0.05213 0.029934 
0.096521 -0.11952 -0.060329 -0.041257 0.010533 -0.0011404 0.033222 -0.0032777 
0.08978 -0.14698 -0.052766 -0.094199 -0.035174 -0.0072237 0.023851 -0.030735 
0.071202 -0.11787 0.022371 -0.087786 -0.031228 -0.012814 -0.0042642 -0.015609 
0.032729 -0.10867 0.075476 0.029934 0.020727 0.029934 0.025001 0.031085 
0.0019835 0.030756 -0.0075525 0.053116 0.016616 0.023028 0.030098 0.016781 
-0.075784 0.19583 -0.14434 0.01711 -0.016595 -0.0049219 0.0023123 -0.0011404 
-0.10752 0.15834 -0.18282 0.046375 -0.0016336 -0.017746 -0.0070593 -0.022843 
-0.10637 -0.032215 -0.1358 0.11543 0.045553 0.024837 0.007738 0.0032988 
-0.10456 -0.1889 0.049664 0.16919 0.094877 0.033058 0.044731 0.011848 
-0.0082102 -0.19334 0.10326 0.12036 0.058871 0.051801 0.05772 0.058706 
0.072353 -0.23592 -0.09946 0.0013258 0.017274 0.060022 0.036839 0.027796 
0.088958 -0.059836 -0.18117 -0.041093 0.016123 0.037168 0.041936 0.062981 
0.090767 0.32045 0.02122 -0.061809 0.022042 0.058213 0.05772 0.093562 
0.080573 0.44459 0.22855 -0.013636 0.027468 0.054596 0.063474 0.055747 
0.02681 0.1544 0.3147 0.032071 0.039634 0.022371 0.019905 0.012177 
0.051472 -0.21669 0.37603 0.16245 0.054596 0.014479 0.0026412 -0.047834 
0.11313 -0.23921 0.47418 0.30549 0.078436 0.0227 0.0054362 0.0072447 
0.12217 -0.11146 0.32884 0.2195 0.069393 0.02829 0.026481 0.0072447 
0.08156 0.074326 -0.024652 0.086985 0.032729 0.024015 0.023193 0.057227 
0.048348 0.29842 -0.23707 -0.034681 0.0088889 0.020562 0.028619 0.053609 
0.013328 0.32637 -0.3446 -0.15355 -0.029255 0.0052718 0.010697 0.04358 
-0.015444 0.23841 -0.37255 -0.17427 -0.054904 -0.028597 0.010533 0.030756 
-0.010841 0.13236 -0.28903 -0.1741 -0.038791 0.019247 0.025166 0.016945 
0.0032988 -0.055232 -0.23313 -0.094034 -0.028762 0.0092177 0.012013 0.022042 
0.025824 -0.18824 -0.050958 -0.036325 0.0041209 0.010697 0.0074092 0.039963 
0.071202 -0.11623 0.15768 -0.008539 0.081231 0.021878 0.01267 0.045389 
0.076134 -0.035338 0.1909 0.090767 0.048184 0.020233 0.055418 0.029769 
0.019411 -0.026131 0.051801 0.080902 0.060515 0.023522 0.01826 0.069393 
-0.0024557 0.062981 -0.13399 0.034537 0.016781 0.05065 0.019905 0.019083 
-0.017253 0.33459 -0.12938 0.0056006 0.024508 0.014972 0.025824 0.0056006 
-0.033201 0.3877 -0.0067304 0.030756 0.026974 0.015137 0.020398 -0.0067304 
-0.040271 0.2514 0.18152 0.11033 0.055911 0.057227 0.025166 -0.0027845 
-0.0029489 0.17018 0.48536 0.22838 0.1271 0.083697 0.05772 0.01974 
0.076792 -0.015773 0.68249 0.29069 0.1345 0.066105 0.047526 0.076627 
0.024673 -0.49241 0.39132 0.11165 0.066269 0.056076 0.023193 0.059364 
-0.077757 -0.76994 -0.087293 -0.0503 0.0044497 -0.0075525 -0.0014692 0.026646 
-0.017746 -0.36038 -0.37979 -0.087458 -0.051122 0.011191 -0.01232 0.073339 
0.064461 0.22263 -0.34312 -0.083676 -0.0096899 0.025495 0.015959 0.094055 
-0.015938 0.32292 -0.18282 -0.084991 -0.0059084 0.0067515 0.023193 0.081067 
-0.052109 0.11625 -0.10489 -0.15733 -0.019555 -0.0073881 0.01004 -0.022021 
0.069558 0.081231 0.042265 -0.075127 0.0026412 0.024015 0.029605 -0.068221 
0.28593 0.25074 0.26866 0.10129 0.057391 0.031249 0.041114 -0.05589 
0.32769 0.32095 0.52433 0.22937 0.097344 0.053609 0.042758 0.042594 
0.12858 0.22213 0.58006 0.25074 0.11198 0.0689 0.056569 0.063474 
-0.16046 -0.056548 0.26998 0.13384 0.082382 0.047033 0.053938 0.044238 
-0.29561 -0.38784 -0.2739 -0.056383 -0.012814 0.0018191 -0.01676 -0.0049219 
-0.12527 -0.37863 -0.55472 -0.19564 -0.072332 -0.017088 -0.036325 -0.032543 
0.03947 -0.083676 -0.26913 -0.12429 -0.047998 -0.014293 -0.0029489 0.032729 
-0.078744 0.18415 -0.051287 -0.0059084 0.009711 0.015959 0.052787 0.1003 
-0.1963 0.26488 -0.11689 0.018918 0.039634 0.055582 0.061008 0.13598 
-0.069536 0.17018 -0.12642 0.072517 0.06035 0.044567 0.032236 0.050321 
0.4214 0.12497 0.2172 0.20076 0.078765 0.027632 0.047691 -0.0016336 
0.67164 0.26357 0.46875 0.2052 0.099152 0.074161 0.077449 -0.00015387 
0.43998 0.38753 0.43489 0.15637 0.058871 0.047691 0.067749 0.029934 
0.024673 0.18728 0.31782 0.062488 0.054103 0.027139 0.034209 0.019083 
-0.19104 0.048019 0.18678 0.0088889 0.012999 0.013986 0.011848 0.023522 
-0.29939 -0.048985 -0.041751 -0.12149 -0.010183 0.00033937 0.00297 0.00050378 
-0.39162 -0.16999 -0.1113 -0.11771 -0.020706 -0.014293 0.009711 -0.022679 
-0.3081 -0.13875 0.074654 0.010204 0.02681 0.00083261 0.028947 -0.017911 
-0.084005 -0.075949 0.19468 0.06742 0.039799 0.018754 0.022535 0.0070803 
0.064461 0.039305 -0.024487 0.04917 0.029934 -0.025145 0.016616 0.024837 
0.1761 0.11592 -0.29084 -0.035338 -0.0083746 0.0026412 0.018096 0.020069 
0.20717 0.13023 -0.37041 -0.068386 -0.022679 -0.009361 0.021713 0.059857 
0.25683 0.088958 -0.39623 -0.093541 -0.023994 -0.0050863 0.028125 0.074161 
0.17495 0.020727 -0.2841 -0.096665 0.027468 0.040621 0.061337 0.079916 
0.022206 -0.087786 -0.084005 -0.011827 0.060679 0.066927 0.067749 0.027468 
-0.094363 -0.29972 0.26044 0.08419 0.085835 0.082711 0.049992 0.0018191 
-0.10604 -0.27259 0.30467 0.12085 0.042429 0.007738 0.0031344 -0.036654 
-0.11722 -0.10571 0.038155 0.075312 0.016945 0.010533 -0.010841 -0.061973 
-0.065591 0.23644 0.32637 0.1807 0.076627 0.033387 0.019247 -0.012156 
0.013492 0.45905 0.71801 0.34758 0.12957 0.058213 0.062488 0.036839 
-0.019226 0.25156 0.46053 0.24005 0.046704 0.06183 0.04506 0.032893 
-0.09387 -0.1404 0.049828 0.068407 0.016781 0.019083 0.029441 0.026481 
-0.031557 -0.1501 -0.0087034 0.033058 0.01711 0.014643 0.041278 0.042429 
0.077285 0.0074092 -0.12725 -0.021199 0.020398 0.024508 0.034537 0.036839 
0.09833 0.24433 -0.19581 -0.021034 0.0095465 0.014315 0.052787 0.049335 
0.13105 0.34018 -0.14763 -0.034188 0.00099702 0.0031344 0.016945 0.025988 
0.096357 0.22345 -0.031064 -0.012156 -0.00097594 0.014643 0.0021479 0.024837 
-0.0011404 0.0087245 -0.010019 -0.044052 0.0034632 -0.0062372 0.0021479 0.012835 
-0.20945 -0.065426 -0.06444 -0.10949 0.0059294 -0.018733 0.015301 0.025166 
-0.23247 0.030098 -0.096665 -0.063453 -0.038956 -0.0029489 -0.0034422 0.036839 
-0.023007 0.19451 -0.049807 -0.022185 -0.0082102 0.013986 -0.0032777 0.066927 
0.45314 0.35514 0.013328 0.082711 0.051801 0.036839 0.053116 0.024673 
0.63448 0.41055 0.051472 0.10951 0.082546 0.084026 0.095206 0.055911 
0.32473 0.24104 0.064461 0.069393 0.06742 0.048184 0.072188 0.088136 
0.014643 0.037497 0.053281 0.049335 0.031085 0.021713 0.033551 0.050486 
-0.12511 -0.0075525 0.1294 0.054432 0.03799 0.037661 0.032893 0.050979 
-0.27127 -0.1644 0.078929 0.069558 0.041443 0.01415 0.018096 0.028783 
-0.49257 -0.47893 -0.16013 -0.051287 0.0013258 -0.0026201 0.015959 0.038319 
-0.48896 -0.54913 -0.23724 -0.089266 -0.03501 -0.01117 -0.0044286 0.058377 
-0.13168 -0.18643 -0.24858 -0.088444 -0.031064 -0.023336 -0.026953 0.057555 
0.5046 0.17314 -0.3178 -0.14566 -0.02942 -0.008539 -0.01676 -0.013636 
0.81008 0.53748 -0.23461 -0.087293 0.02122 0.072353 0.043745 -0.081868 
0.57316 0.58384 0.22624 0.0689 0.078929 0.05772 0.041114 -0.070523 
0.1613 0.24877 0.50756 0.14634 0.089287 0.047526 0.04095 -0.0044286 
-0.14895 -0.091568 0.27195 0.07449 0.082875 0.063639 0.03092 0.0324 
-0.28985 -0.20041 -0.021363 -0.048492 0.012835 0.0019835 0.009711 0.013657 
-0.29955 -0.19844 -0.049314 -0.034516 0.0037921 -0.0016336 0.022206 0.032893 
-0.1473 -0.21159 0.21572 0.085999 0.042429 0.05213 0.024344 0.070873 
-0.041093 -0.19054 0.44508 0.25091 0.097015 0.075312 0.034044 0.11247 
0.055418 0.031742 0.45133 0.34955 0.12562 0.077121 0.043909 0.069722 
0.15522 0.32802 0.34068 0.34248 0.11346 0.077943 0.034373 0.069722 
0.16393 0.44804 -0.019719 0.20191 0.058706 0.015137 0.029769 0.057391 
0.16278 0.47698 -0.31122 -0.10735 -0.023994 -0.015116 0.0227 0.054432 
0.13088 0.43883 -0.40708 -0.28327 -0.053917 -0.0027845 0.0056006 0.057227 
0.052623 0.17396 -0.36663 -0.32208 -0.069701 -0.0078813 0.020727 0.048677 
0.019576 -0.14336 -0.31172 -0.25236 -0.046519 0.00297 0.021549 0.015465 
0.00033937 -0.39392 -0.18874 -0.11656 -0.024816 0.020727 -0.00097594 -0.027447 
-0.031064 -0.5705 -0.067892 -0.040271 -0.0075525 0.013492 -0.019555 -0.020212 
-0.041422 -0.59402 -0.014787 0.035853 0.0090533 -0.0062372 0.0062583 -0.021363 
0.01152 -0.46692 0.0028056 0.022535 0.02829 0.019247 0.051143 0.018096 
0.13795 -0.023336 0.14206 0.078929 0.034866 0.025166 0.02533 0.044567 
0.23331 0.5263 0.32571 0.14206 0.068407 0.028783 0.027632 0.065283 
0.19172 0.72672 0.32062 0.12644 0.054432 0.02681 0.0037921 0.037497 
0.11165 0.54685 0.21293 0.11642 0.020891 -0.0014692 0.048184 0.017274 
1.0539e-005 0.12381 0.1465 0.088794 0.03536 0.024179 0.050157 -0.013143 
-0.12363 -0.054739 0.2292 0.16426 0.089123 0.074654 0.076134 -0.021528 
-0.13284 -0.046025 0.19435 0.16475 0.080409 0.070215 0.067749 0.030592 
-0.064604 -0.052766 0.030263 0.027961 0.038319 0.042758 0.055418 0.060844 
-0.072167 -0.16177 -0.14763 -0.041915 0.0014903 0.016945 0.033058 0.052623 
-0.080223 -0.18594 -0.16342 -0.086307 -0.0044286 -0.0021268 0.011848 0.04358 
0.052787 -0.0054151 -0.07973 -0.021692 0.019411 0.01415 0.03947 0.058542 
0.1978 0.092247 -0.028104 -0.027282 0.027796 0.02829 0.033715 0.01826 
0.14058 0.12447 -0.024487 -0.051287 -0.0070593 0.02829 0.057391 0.030592 
0.073668 0.079094 -0.00064712 0.0070803 -0.0095255 -0.0019624 0.024015 0.032071 
0.071366 0.037661 -0.010841 -0.0039354 0.010369 0.034373 0.019083 0.052294 
0.059035 0.032893 -0.0021268 -0.0095255 0.00066819 0.013328 0.01563 0.03947 
0.021056 0.09981 0.10343 0.01004 0.016123 0.019905 0.026646 0.046211 
-0.012485 0.22937 0.27721 0.13861 0.052294 0.020233 0.025988 0.030756 
-0.0054151 0.34955 0.4288 0.30434 0.075641 0.029605 0.028947 0.015465 
-0.0090322 0.30352 0.34068 0.24597 0.080902 0.034373 0.021713 0.029112 
0.03092 0.12332 0.10836 0.13269 0.059693 0.028783 0.022042 0.030427 
0.047033 -0.21734 -0.44292 -0.12198 -0.034516 0.00050378 0.025001 0.032071 
-0.0021268 -0.41497 -0.90689 -0.36055 -0.1062 -0.026624 -0.0011404 -0.0055795 
-0.068879 -0.1889 -0.74265 -0.44851 -0.13399 -0.013636 -0.017582 1.0539e-005 
-0.05589 0.21128 -0.27144 -0.40395 -0.09239 -0.015938 0.0052718 0.015959 
0.013164 0.35317 0.088136 -0.20567 -0.045532 0.0046141 0.04506 0.03947 
0.031414 0.19649 0.19599 -0.0022913 0.038648 0.019576 0.056404 0.041607 
0.049006 0.13319 0.5942 0.34972 0.16821 0.074326 0.051472 0.066598 
0.12349 0.31749 1.0202 0.61821 0.21885 0.10556 0.084684 0.080244 
0.13368 0.46596 0.68397 0.47566 0.18498 0.098988 0.068571 0.085999 
0.091425 0.33657 0.14552 0.2588 0.13023 0.10376 0.077943 0.088958 
-0.022679 -0.12412 -0.057863 0.13582 0.10803 0.048513 0.031742 0.012999 
-0.24891 -0.75317 -0.15848 0.053938 0.031249 -0.0083746 -0.034188 -0.08121 
-0.41135 -0.97891 0.08715 0.073668 0.0093821 -0.021528 -0.045368 -0.087951 
-0.32553 -0.81252 0.33476 0.17199 0.065283 0.012013 0.020562 0.020727 
-0.084663 -0.43174 0.14354 0.24844 0.10754 0.050814 0.058377 0.057227 
0.068078 0.13088 -0.2397 0.044238 0.076627 0.020562 0.03092 0.10343 
0.25123 0.62314 -0.26289 -0.10505 0.0039565 0.010533 0.028125 0.042758 
0.30089 0.70683 -0.098638 -0.1478 -0.017582 0.02829 0.025166 0.072024 
0.19007 0.51693 -0.01232 -0.21948 -0.047505 0.025001 0.0324 0.064296 
0.067256 0.29974 -0.051615 -0.20025 -0.061151 0.0011614 -0.0036066 0.03947 
0.031249 0.23479 -0.018733 -0.12757 -0.04471 -0.021692 -0.012156 0.0044497 
0.054267 0.23085 0.0065871 -0.041422 -0.013965 -0.011827 -0.0055795 -0.0052507 
-0.0021268 0.08304 -0.054575 0.0013258 -0.0042642 -0.0087034 0.015465 -0.0036066 
-0.057534 -0.024487 -0.049149 0.044896 0.020069 -0.0049219 0.012013 -0.013965 
-0.019555 -0.096994 -0.01117 0.09422 0.040456 0.033387 0.014479 0.017274 
-0.03353 -0.2499 0.0051074 0.10113 0.079258 0.038483 0.026974 0.019576 
-0.12379 -0.41908 0.032729 0.11313 0.076956 0.032893 0.072846 0.0046141 
-0.17969 -0.40198 0.12349 0.15144 0.07301 0.068736 0.052787 0.009711 
-0.16391 -0.19877 0.11576 0.11822 0.057062 0.031414 0.018425 0.038155 
-0.011334 -0.023665 -0.0096899 0.05624 0.017603 0.015301 0.020398 0.020562 
0.18695 0.16377 -0.02646 -0.0138 0.040621 0.045224 0.025659 0.0324 
0.26932 0.24647 0.056898 0.038648 0.034044 0.036346 0.036182 0.021384 
0.2782 0.244 0.16146 0.083697 0.047691 0.046868 0.028454 0.0092177 
0.25633 0.22246 0.18103 0.092411 0.063145 0.042758 0.02681 0.034702 
0.10129 0.031907 0.19139 0.077285 0.040456 0.020727 0.012999 0.017932 
-0.013307 -0.078744 0.23775 0.048184 0.01711 0.0032988 0.024015 0.035031 
-0.070194 -0.064604 0.14716 0.063145 0.018425 0.026152 0.0095465 0.016781 
-0.085978 -0.024652 -0.094199 -0.014458 0.016123 0.0092177 0.0095465 0.016123 
-0.11113 -0.06444 -0.24151 -0.046683 0.017932 -0.00015387 0.0034632 -0.0060728 
-0.060165 -0.01117 -0.12856 -0.012485 -0.00031829 1.0539e-005 0.0051074 -0.0032777 
0.047855 0.2075 0.037661 0.021878 0.019247 0.025001 0.034209 0.011848 
0.11806 0.28675 0.14289 0.15111 0.038977 0.02829 0.025824 0.062159 
0.12431 0.17873 0.11987 0.08863 0.04358 0.030756 0.020891 0.051308 
0.086492 -0.0032777 -0.0034422 -0.015773 0.028619 0.0037921 0.0093821 0.03536 
0.050321 -0.040106 -0.039449 -0.025967 0.00050378 0.007738 0.03947 -0.0068948 
0.015959 -0.013636 -0.1649 -0.066577 0.00083261 0.026974 0.024015 -0.017582 
0.034702 0.044896 -0.27555 -0.06 -0.010019 0.020727 0.01267 -0.0016336 
0.066763 0.10326 -0.24365 -0.067564 -0.014293 0.0074092 0.011848 0.01826 
0.098166 0.159 -0.11146 -0.076442 -0.023501 0.025659 0.040292 0.082217 
0.1465 0.19764 0.064461 -0.062467 -0.012978 0.020891 0.053938 0.093891 
0.20487 0.18646 0.087972 -0.071838 -0.0072237 0.013821 0.048348 0.099481 
0.18399 0.11181 0.036017 0.012835 0.0064227 0.017767 0.017603 0.046868 
0.087808 0.016452 0.28017 0.12184 0.031907 -0.0021268 -0.01528 0.029605 
0.023357 -0.020212 0.33426 0.11083 0.011026 -0.0039354 0.011026 0.00297 
-0.0070593 -0.046683 -0.084991 -0.066741 -0.020048 -0.0027845 -0.016924 -0.0011404 
0.0324 0.026317 -0.34592 -0.17838 -0.034023 -0.0024557 0.0056006 -0.017088 
0.11378 0.20438 -0.20205 -0.078086 0.04095 0.020398 0.029934 -0.011005 
0.17774 0.28428 0.13335 0.024344 0.051308 0.0592 0.066105 0.074161 
0.1128 0.23611 0.25222 0.12595 0.061337 0.038977 0.061666 0.020727 
-0.0039354 0.14453 0.21769 0.12579 0.057884 0.0421 0.034044 0.062817 
-0.080717 0.11691 0.10113 0.095699 0.05624 0.013164 0.025659 0.033058 
-0.017746 0.20388 -0.069865 0.020891 0.030756 0.026317 0.025824 0.031907 
0.032564 0.25896 -0.011827 0.0032988 0.020727 0.02681 0.036839 0.016452 
0.040785 0.17906 0.058542 0.0060938 0.026317 0.023686 0.039963 0.029276 
0.017932 0.079422 0.05772 0.011355 0.032236 0.044402 0.051472 0.069886 
-0.029913 0.011848 -0.012978 -0.0047575 0.039799 0.019247 0.03799 0.07449 
-0.072167 -0.059672 -0.12922 0.010204 0.023028 0.024837 0.05065 0.061501 
-0.13168 -0.18528 -0.11853 -0.016266 0.013986 0.030592 0.0324 0.043251 
-0.058028 -0.31862 -0.17328 -0.034023 0.016452 0.0079024 0.0072447 0.026481 
0.12842 -0.10324 -0.10258 -0.02235 0.055911 0.038155 0.022864 0.023522 
0.3267 -0.07003 0.096686 0.039963 0.059857 0.047526 0.042265 0.0036276 
0.19237 -0.31928 0.2925 0.10326 0.039963 0.0016547 0.0098754 -0.04323 
-0.08121 -0.16194 0.43373 0.15259 0.031578 -0.016266 -0.02087 -0.01676 
-0.056712 0.2879 0.29234 0.14289 0.022042 -0.0072237 -0.028433 -0.015444 
0.17248 0.70732 0.1539 0.093726 0.0075736 -0.019226 -0.010841 -0.019884 
0.2731 0.81978 0.033715 0.033551 0.016616 0.015794 0.031249 -0.025802 
0.048019 0.41812 -0.3178 -0.079401 0.014643 0.077943 0.060515 0.023193 
-0.23855 -0.0032777 -0.37633 -0.07003 0.063968 0.0786 0.077449 0.05624 
-0.24283 -0.26618 0.021384 0.11839 0.10195 0.066269 0.090274 0.082217 
-0.10916 -0.4102 0.41154 0.22592 0.084355 0.047855 0.038812 0.071202 
0.0036276 -0.54223 0.38704 0.16245 0.040456 0.007738 0.014643 0.047197 
0.028619 -0.67441 0.26932 0.069393 0.01826 -0.0060728 -0.0054151 0.052294 
0.011191 -0.27851 0.55244 0.11296 0.049006 0.043909 0.013492 0.06742 
-0.16128 0.23003 0.6552 0.24236 0.0786 0.034209 0.032893 0.077943 
