0.028454 0.071859 0.023357 0.011848 0.036182 0.035853 0.021056 0.018918 
0.027961 0.059035 0.0227 0.020069 0.019247 0.017603 0.026974 0.042758 
0.037661 0.046704 0.019083 0.024508 0.020233 0.029276 0.034209 0.0421 
0.037826 0.034373 0.016781 0.014479 0.016616 0.010697 0.023686 0.04917 
0.028619 0.049664 0.027632 0.047033 0.024179 -0.0095255 0.026152 0.031742 
0.012835 0.074161 0.027303 0.026646 0.041443 0.033058 0.02533 0.026974 
0.01415 0.076956 0.033058 0.038319 0.048184 0.031578 0.026646 0.017767 
0.025495 0.039305 0.037826 0.060022 0.05213 0.022371 0.038319 0.015794 
0.067256 0.06594 0.025659 0.034373 0.028783 0.043416 0.02681 0.036839 
0.059364 0.0592 0.035031 0.040456 0.00083261 -0.0029489 0.032729 0.031085 
0.056076 0.049335 0.038812 0.012177 0.0087245 0.010533 0.013821 0.039305 
0.043251 0.044238 0.05772 0.03388 0.020562 0.023686 0.039141 0.023522 
0.029769 0.060844 0.024673 0.016123 0.01004 0.012013 0.025824 0.03799 
0.03388 0.058542 0.015794 0.032893 0.0095465 0.03092 0.012342 0.018096 
0.034866 0.052787 0.016123 0.040292 0.021384 0.031742 0.019905 0.023851 
0.040292 0.076627 0.016123 0.021384 0.020398 0.021056 0.0421 0.029769 
0.038155 0.049664 0.0056006 0.034537 0.037004 0.0088889 0.03947 0.031085 
0.054267 0.048513 0.022371 0.026646 0.026646 0.028125 0.033222 0.026317 
0.042594 0.053774 0.031907 0.011355 0.020562 0.015137 0.01826 0.026974 
0.020398 0.054103 0.036346 0.024837 0.021384 0.01152 0.038977 0.037826 
0.034044 0.018589 0.045882 0.020562 0.019247 0.030263 0.036182 0.023522 
0.032236 0.014972 0.049006 0.044402 0.024015 0.019247 0.025988 0.018425 
0.0227 0.04654 0.04917 0.025988 0.020233 -0.017253 0.0072447 0.031907 
0.023193 0.037004 0.025495 0.032893 0.028783 0.020727 0.0095465 0.031249 
0.005765 -0.0082102 -0.0016336 0.054596 0.023686 0.016288 0.051143 0.022864 
0.010533 0.012342 0.01826 0.031578 0.035853 0.010204 0.026974 0.042758 
0.028619 0.015465 0.0051074 0.068571 0.025166 0.022042 0.015465 0.0421 
0.052294 0.025824 0.01826 0.030592 0.016452 0.025001 0.023686 0.037168 
0.054432 0.048841 0.012999 0.032236 0.0019835 0.016123 0.035853 0.016288 
0.04358 0.058213 0.014315 0.030263 0.013986 0.028783 0.041443 0.016452 
0.033551 0.055089 0.01974 0.013492 0.014315 0.011355 0.0072447 0.018589 
0.039141 0.077121 0.052459 0.026974 0.016781 0.010533 0.027139 0.019083 
0.037497 0.088301 0.050157 0.025659 0.014643 0.02829 0.038648 0.040621 
0.015959 0.054267 0.046704 0.023686 0.028783 0.021549 0.061501 0.020398 
0.028125 0.037826 0.041607 0.024837 0.038155 0.010204 0.032071 0.03947 
0.017932 0.05624 0.018754 0.011684 0.010697 0.037168 0.027139 0.0062583 
0.027303 0.041443 0.01711 0.038812 0.016781 0.01711 0.0051074 0.038483 
0.023193 0.041443 -0.0068948 0.039634 -0.0040998 0.032893 0.038977 0.022864 
0.025001 0.025988 0.0095465 0.034702 0.023028 0.046211 0.0227 0.030592 
0.029112 0.048348 0.056404 0.030098 0.0056006 0.015794 0.019247 0.0079024 
0.016616 0.032729 0.028783 0.014479 0.027468 0.012177 0.028947 0.027796 
0.029112 0.051965 0.041936 0.035524 0.023851 0.023522 0.024508 0.021384 
0.021056 0.035031 0.025824 0.019576 0.035195 0.015959 0.038648 0.021384 
0.016945 0.012835 0.041443 0.023357 0.037004 0.016781 0.04506 0.036839 
0.017767 0.014315 0.037004 0.018754 0.020727 0.03947 0.020562 0.022042 
0.034373 0.042923 0.060679 0.010533 0.021713 0.022206 0.01415 0.03536 
0.017932 0.013657 0.037168 0.021713 0.021056 0.022864 0.028947 0.018425 
0.034702 0.027961 0.013986 0.012013 0.0324 0.048677 0.027961 0.041278 
0.055418 0.051472 0.013657 0.060679 0.043416 0.036346 0.012177 0.047033 
0.051308 0.066598 0.01711 0.027468 0.032893 0.022371 0.016288 0.036675 
0.0016547 0.03092 0.031085 0.018096 0.028947 0.034044 0.02829 0.031578 
0.014972 0.0098754 0.010697 0.025001 0.02829 0.012835 0.037168 0.019083 
0.010204 0.03388 0.010204 0.0082312 0.036346 0.024508 0.024508 0.047691 
0.020069 0.020398 0.010862 0.027139 0.016781 0.020233 0.024344 0.025659 
0.02681 0.015959 0.02533 0.010862 0.015465 0.0088889 0.026152 0.035195 
0.035688 0.045224 0.048184 0.031414 0.018096 0.012999 0.043251 0.015959 
0.044073 0.075148 0.082217 0.033715 0.038483 0.051636 0.039305 0.047855 
0.029276 0.095371 0.085341 0.04358 0.039634 0.029934 0.021056 0.03092 
0.050486 0.079587 0.054432 0.061666 0.035524 0.023193 0.033058 0.042923 
0.034537 0.078272 0.038155 0.031085 0.038977 0.029934 0.04654 0.0080668 
0.031085 0.049992 0.026152 0.044402 0.042429 0.020233 0.039634 0.031414 
0.012013 -0.014622 0.0090533 0.004943 0.041772 -0.0024557 -0.009361 0.025495 
0.0059294 0.0082312 0.007738 0.013492 0.026974 0.02681 0.0037921 0.029441 
-0.0011404 -0.016924 -0.0044286 0.016452 0.0085601 0.012506 0.026974 0.020069 
-0.016595 -0.015773 -0.0014692 0.0054362 -0.0044286 0.0083956 0.027468 0.015301 
0.016781 0.020233 0.015794 0.017603 0.026646 0.015959 0.019411 0.027961 
0.049006 0.1225 0.047526 0.019083 0.032236 0.029605 0.030427 0.019083 
0.087972 0.12858 0.057227 0.040621 0.059857 0.038483 0.038155 0.034209 
0.063803 0.067749 0.06331 0.046046 0.044567 0.040785 0.051801 0.018425 
0.046046 0.037826 0.047362 0.026152 0.053938 0.011684 0.017932 0.04506 
0.0090533 -0.0042642 0.017603 0.027796 0.041114 0.017767 0.0090533 0.035195 
0.021056 -0.011663 0.026481 0.0098754 0.015301 0.025495 0.023686 0.049006 
0.027632 0.03388 0.019576 0.018096 0.016123 0.010369 0.04506 0.01974 
0.032236 0.060186 0.016616 0.034373 0.011191 0.01563 0.037497 0.026646 
0.038977 0.041772 0.020562 0.031249 0.04506 0.039141 0.016616 -0.016924 
0.049499 0.048677 0.042429 0.043745 0.020891 0.020233 0.0069159 0.038977 
0.018425 0.044731 0.020562 0.0227 0.0021479 0.010369 0.048677 0.029276 
0.01152 0.014808 0.021549 0.021384 0.017603 0.024179 0.033715 0.012999 
0.010697 -0.030077 0.012013 0.0067515 0.022042 0.020727 0.022535 0.022371 
0.00297 0.011026 0.018754 0.015137 0.033222 0.011684 0.009711 0.0041209 
0.041772 0.021056 0.04095 0.054596 0.031085 0.050157 0.00050378 0.018096 
0.055582 0.040785 0.049006 0.0082312 0.017274 0.026646 0.025166 0.021878 
0.059857 0.093726 0.026481 0.017932 0.026481 0.0069159 0.029441 0.0421 
0.038155 0.082546 0.03092 0.026152 0.013657 0.030263 0.014479 0.034044 
0.044731 0.081231 0.027632 0.036017 0.022535 0.023686 0.020562 0.037661 
0.037332 0.066763 0.038155 0.06331 0.036839 0.013821 0.053445 0.0059294 
0.045224 0.085012 0.035195 0.041114 0.051472 0.023357 0.032236 0.033715 
0.064461 0.044238 0.027961 0.042758 0.06183 0.02829 0.02829 0.012999 
0.048513 0.029769 0.0090533 0.0227 0.038977 0.020069 0.01267 0.024673 
0.0421 0.044567 0.01563 0.010533 0.016781 0.035688 0.015794 0.037826 
0.056898 0.048513 0.03388 0.027796 0.014479 0.022864 0.022535 0.027468 
0.062159 0.073668 0.060515 0.021384 0.023357 0.009711 0.015301 0.044238 
0.064132 0.072024 0.058706 0.051308 0.031907 0.033387 0.024179 0.033222 
0.047197 0.047033 0.031578 0.032071 0.025166 0.024508 0.013492 0.030098 
0.0059294 -0.00064712 0.021878 0.012835 0.017767 0.019083 0.023357 0.017274 
0.0016547 -0.01676 0.007738 0.02829 0.011684 0.034702 0.007738 -0.0004827 
-0.0049219 -0.0054151 0.0032988 0.013164 0.02122 0.017274 0.016945 -0.003771 
0.012013 0.0098754 0.0051074 0.049828 0.027303 0.026646 0.021384 0.023522 
0.032236 0.057391 0.03536 0.019083 0.027961 0.026646 0.014808 0.040621 
0.039799 0.096686 0.042594 0.045718 0.036675 0.025824 0.040621 0.026646 
0.027632 0.10935 0.042265 0.03388 0.038812 0.0069159 0.0021479 0.032071 
0.024344 0.096357 0.027961 0.026481 0.0085601 0.025988 0.00033937 0.030263 
0.032236 0.059035 0.037661 0.049664 0.0074092 0.035031 0.0079024 0.038648 
0.031249 0.060679 0.04654 0.023851 0.029112 0.016945 0.036182 0.035853 
0.047855 0.023357 0.043251 0.041936 0.036182 0.032893 0.030263 0.064296 
0.05065 0.03651 0.021056 0.020891 0.029934 0.031578 0.02829 0.032893 
0.052787 0.076134 0.042429 0.026974 0.046868 0.021878 0.020891 0.04506 
0.029276 0.056404 0.032236 0.037004 0.029112 0.029112 0.031249 0.024344 
0.021384 0.053774 0.047526 0.02533 0.0088889 0.017438 0.028619 0.029605 
0.016288 0.053116 0.025166 0.048513 0.018754 0.01415 0.016123 0.0083956 
0.020069 0.054103 0.03536 0.028454 0.022535 0.026974 0.019576 0.020233 
0.026317 0.039141 0.041278 -0.016595 0.010533 0.02681 0.016123 0.011684 
0.033715 0.029769 0.022206 0.027468 0.021549 0.013986 0.038155 0.024673 
0.023851 0.070544 0.042265 0.0095465 0.0016547 0.024015 0.017932 0.025166 
0.047033 0.032893 0.034537 0.037332 0.037168 0.023851 0.0095465 0.027632 
0.055911 0.027961 0.056076 0.031907 0.035195 0.032729 0.029769 0.048184 
0.046211 0.06183 0.049664 0.017767 0.031578 0.039963 0.040128 0.039634 
0.019247 0.042758 0.050321 0.035524 0.020069 0.045718 0.044896 0.034209 
0.027961 0.032071 0.029769 0.018096 0.024837 0.018425 0.025824 0.022371 
0.024344 0.038648 0.044896 0.038812 0.01152 0.015959 0.028947 0.038812 
0.01563 0.046211 0.025495 0.015959 0.028947 0.017274 0.0227 0.024837 
0.041936 0.041443 0.024837 0.0014903 0.038319 0.0093821 0.026317 0.024837 
0.012013 0.047362 0.026646 0.028619 0.028619 0.021384 0.029276 0.019411 
-0.010841 0.097179 0.026974 0.034044 0.044073 0.033551 0.028125 0.021549 
-0.023007 0.068407 0.035853 0.046211 0.053938 0.050814 0.027961 0.026481 
0.015301 0.067256 0.038483 0.026317 0.031742 0.025988 0.041114 0.029605 
0.017603 0.11198 0.063803 0.031249 0.023522 0.03947 0.019576 0.055911 
0.030756 0.066434 0.068571 0.039963 0.014972 0.019905 0.021056 0.034044 
0.02829 0.044238 0.025166 0.048677 0.050321 0.023028 0.016123 0.047526 
0.034044 0.018096 0.014315 0.062159 0.033058 0.041607 0.046211 0.036182 
0.046868 0.039634 0.011684 0.034702 0.047855 0.033222 0.051965 0.047691 
0.03536 -0.0011404 0.023686 0.061995 0.044073 0.0421 0.027796 0.031249 
0.020233 0.0024767 0.021056 0.028619 0.038648 0.011026 0.051636 0.036017 
0.029769 0.016452 0.0019835 0.0083956 0.019247 0.0064227 0.023522 0.028619 
0.020069 -0.0077169 0.012506 0.015794 0.0037921 0.016945 0.024344 0.019083 
0.01563 -0.016266 0.0069159 0.01415 0.0070803 0.021878 0.019247 0.026317 
0.028125 -0.011334 0.01563 0.041114 0.013986 0.014315 0.020398 0.012013 
0.027139 0.025988 0.056733 0.032564 0.045389 0.023851 0.0046141 0.03536 
0.041114 0.058706 0.078929 0.015465 0.029605 0.034044 0.041607 0.0037921 
0.025001 0.12562 0.076792 0.017767 0.022042 0.018096 0.028454 0.031085 
0.027961 0.14913 0.048841 0.023028 0.031085 0.021713 0.024837 0.023193 
0.014479 0.11444 0.026646 0.055747 0.05213 0.023193 0.024344 0.031742 
0.020398 0.066927 0.014643 0.013986 0.029769 0.0065871 0.030592 0.027632 
0.017767 0.052787 0.010204 0.026481 0.024344 0.037497 0.027961 0.041772 
0.020891 0.029934 0.0079024 0.024015 0.016781 0.033715 0.032893 0.020562 
0.034702 0.0072447 1.0539e-005 0.0031344 0.019247 0.025001 0.02681 0.017767 
0.059364 -0.0083746 -0.011005 0.023686 0.010204 0.011848 0.020891 0.033222 
0.047855 0.064954 0.039141 0.02681 0.021549 0.026152 0.041936 0.0083956 
-0.0067304 0.068407 0.07597 0.050979 0.028619 0.02533 0.034866 0.01974 
-0.012978 0.021549 0.068078 0.042758 0.029769 0.020891 0.02681 0.017438 
0.0056006 0.022371 0.028947 0.014315 0.053281 0.02829 0.017603 0.044731 
0.014643 -0.02498 0.020727 0.03536 0.030098 0.0075736 0.027468 0.019905 
0.023522 0.0067515 0.015301 0.021713 -0.0026201 -0.0064016 0.029441 0.0075736 
0.050157 0.024508 0.00099702 0.038483 0.011355 0.0088889 0.012835 0.011848 
0.096686 0.061337 0.0026412 0.01152 0.019247 -0.012485 0.010533 0.019576 
0.10145 0.033551 0.0090533 0.014643 0.017274 -0.0042642 0.01267 0.023028 
0.081231 0.032729 0.015794 0.023193 0.028947 0.0064227 0.040621 0.0036276 
0.021713 0.061995 0.026152 0.012342 0.017603 0.010369 0.01563 0.034537 
0.012999 0.044402 0.040456 0.059364 0.028947 0.016945 -0.0059084 0.020562 
0.029605 0.053609 0.038319 0.021713 0.04095 0.031085 0.037168 0.040785 
0.045882 0.087479 0.03947 0.019576 0.046704 0.03092 0.068571 0.032893 
0.031414 0.067585 0.059364 0.027796 0.028125 0.025001 0.044238 0.047691 
0.033551 0.050979 0.053609 0.016452 0.011848 0.034209 0.029276 0.026481 
0.029934 0.057062 0.040621 0.034537 -0.0075525 0.014315 0.012835 0.024508 
0.028783 0.060679 0.031907 -0.0022913 0.013821 0.011191 0.016945 0.023522 
0.052787 0.053938 0.025988 0.014808 0.0092177 0.027632 0.028619 0.037661 
0.037004 0.017603 0.011191 0.034044 0.017767 0.031578 0.019411 0.025001 
0.050979 0.035031 0.016781 0.033715 0.039963 0.026481 0.009711 0.023193 
0.029934 0.031742 0.029441 0.04654 0.046704 0.037497 0.010862 0.028947 
0.032893 0.022535 0.033222 0.024344 0.040456 0.02681 0.047362 0.0095465 
0.045718 0.067091 0.027468 0.027632 0.03388 0.039305 0.024508 0.041278 
0.046046 0.061008 0.031578 0.031414 0.028783 0.035195 0.020727 0.028619 
0.031414 0.034537 0.042594 0.024344 0.010533 -0.0026201 0.012506 0.034866 
0.03092 0.036346 0.029769 0.049828 0.01826 -0.0044286 0.02122 0.00297 
0.028454 0.037826 0.033551 0.012506 0.0067515 -0.0049219 0.021878 0.0059294 
0.024508 0.019247 0.0095465 0.038812 0.013328 -0.016102 0.026646 -0.010183 
0.016288 0.034209 0.012342 0.0046141 0.0065871 -0.0032777 -0.0062372 -0.0036066 
0.016616 0.072353 0.020069 0.01563 0.034537 0.037332 0.035031 0.016616 
0.031578 0.065283 0.017932 0.044896 0.049335 0.047526 0.049828 0.044402 
0.0080668 0.088301 0.043251 0.02829 0.03388 0.05213 0.040292 0.058049 
-0.035832 0.10178 0.058542 0.055582 0.051965 0.078436 0.031414 0.064132 
-0.037311 0.071037 0.052294 0.035524 0.063474 0.054925 0.021549 0.061501 
0.01152 0.020069 0.03799 0.051308 0.060186 0.060515 0.021713 0.047197 
0.10425 0.013328 0.034866 0.040456 0.048184 0.039305 0.013328 0.047691 
0.23446 0.066434 0.040456 0.021384 0.026646 -0.010183 -0.0062372 0.040128 
0.18185 0.053774 0.037004 0.030263 0.013821 -0.023665 0.0019835 0.025001 
0.059035 0.019083 0.027961 0.016616 0.017438 -0.012814 0.018425 0.00050378 
-0.021692 0.041936 0.0067515 0.0090533 0.011684 -0.0087034 0.023193 0.044402 
-0.014129 0.044896 0.016288 0.023357 -0.0011404 0.015137 0.043909 0.042429 
-0.009361 0.037004 0.014643 0.013164 0.018918 0.031249 0.034209 0.0592 
-0.0083746 0.03536 0.023357 0.042429 0.01974 0.033551 0.011191 0.04095 
-0.05326 0.03388 0.042429 0.018589 0.024508 0.032071 0.039141 -0.014951 
-0.06148 0.026152 0.03651 0.037497 0.036017 0.040621 0.02122 -0.0073881 
-0.032872 0.048513 0.020233 0.045553 0.025824 0.050486 0.027632 -0.01117 
0.042923 0.0689 0.03651 0.026152 0.032893 0.038812 0.019247 0.05213 
0.049828 0.051143 0.043087 0.039963 0.039799 0.057884 0.054432 0.055418 
0.066434 0.05213 0.072681 0.025166 0.044896 0.031578 0.037826 0.052787 
0.05772 0.061172 0.068736 0.060844 0.01974 0.0090533 0.025824 0.042758 
0.053116 0.051636 0.044402 0.017438 0.012999 0.063474 0.034866 0.052623 
0.019247 0.063474 0.024837 0.018918 0.026974 0.043251 0.047691 0.026152 
0.032729 0.060844 0.017767 0.035524 0.012999 0.01711 0.046375 0.037332 
0.026152 0.076134 0.020891 0.024179 0.039963 0.034702 0.037497 0.032564 
0.024015 0.059528 0.027303 0.050814 0.048841 0.03388 0.03092 0.03947 
0.014808 0.041772 0.026317 0.034537 0.049664 0.01711 0.014972 0.044731 
0.022042 0.071859 0.028125 0.044073 0.042265 0.024344 0.02681 0.0324 
-0.0072237 0.017438 0.019905 0.024344 0.028783 -0.0083746 0.0079024 0.01974 
0.0083956 0.012177 0.027632 0.0074092 0.017767 -0.0078813 0.0042853 -0.008539 
0.020891 0.020398 0.040128 0.037497 0.013821 0.017603 0.027961 0.039141 
0.030427 0.046704 0.053116 0.040128 0.022206 0.012013 0.043416 0.047526 
0.034866 0.031249 0.051636 0.038155 0.007738 0.012177 0.0324 0.064461 
0.023522 0.022864 0.018918 0.050157 0.0227 0.04654 0.013492 0.050321 
-0.032543 0.057062 0.012342 0.024344 0.0324 0.025659 0.0098754 0.061337 
-0.029584 0.03651 0.025824 0.031085 0.031085 0.017767 0.019411 0.06035 
-0.016431 0.032729 0.0067515 0.020233 0.035195 0.035195 0.047691 0.043251 
0.055254 0.06035 0.023193 0.02533 0.031414 0.038977 0.044238 0.046046 
0.18613 0.062981 -0.0011404 0.0227 0.058049 0.0092177 0.042265 0.0075736 
0.18547 0.060186 0.04358 0.040456 0.019247 0.015794 -0.048656 -0.054575 
0.089287 0.084684 0.044896 0.038155 0.015465 -0.015444 -0.087786 -0.12363 
-0.0064016 0.082546 0.04917 0.0085601 0.0039565 -0.022679 -0.080223 -0.10883 
-0.028104 0.031907 0.037004 0.025495 0.013657 0.0324 0.0085601 -0.065919 
-0.014293 0.0069159 0.034044 0.016288 0.025659 0.049335 0.090767 0.042429 
0.021549 0.018589 0.031249 0.017274 0.046375 0.049335 0.12053 0.08304 
0.025659 -0.0062372 -0.003771 0.037332 0.057391 0.056076 0.092411 0.12069 
0.022042 0.00066819 0.020727 0.014808 0.060679 0.04917 0.039305 0.089123 
0.019411 0.034044 0.0098754 0.042265 0.0421 0.030427 0.028947 0.065447 
0.026646 0.028947 0.013986 0.016288 0.036675 0.040785 0.022864 0.048348 
0.025824 0.015959 0.011191 0.013986 0.023028 0.023357 0.022535 0.044402 
0.066105 0.053445 0.029441 0.045718 0.020398 0.01415 0.017932 0.027632 
0.12776 0.090931 0.048019 0.043416 0.023028 0.023522 0.018096 0.035195 
0.11395 0.082875 0.059528 0.071366 0.025659 0.014972 0.019247 0.032893 
0.06035 0.046868 0.037332 0.053116 0.0047785 -0.023501 0.045224 0.015301 
0.026152 0.070873 0.044896 0.0070803 0.020233 0.015794 0.025166 0.022535 
-0.021692 0.037661 0.030427 -0.003771 0.0044497 -0.012485 0.0054362 0.011848 
0.0024767 0.036839 0.041607 -0.00097594 -0.0068948 -0.011827 0.00297 -0.011334 
-0.003771 0.011191 0.024179 0.049499 -0.014622 0.013986 -0.0042642 -0.048163 
0.0046141 0.0037921 0.0079024 0.01974 -0.0024557 0.015959 0.027796 -0.0073881 
0.020233 0.023028 0.019083 0.021549 0.019576 0.01826 -0.0031133 -0.022185 
0.038483 0.03651 0.025659 0.038977 0.034702 0.034702 0.00017495 0.0034632 
0.066927 0.056898 0.033715 0.012177 0.024344 0.0227 0.021549 0.030263 
0.049499 0.040621 0.018918 0.036675 0.023193 0.022206 0.056569 0.0021479 
0.057062 0.033222 0.015137 0.018589 0.037661 0.026152 0.0060938 0.019576 
0.052787 0.057884 0.052294 0.030263 0.055911 0.009711 0.0041209 0.02681 
0.039634 0.036839 0.04358 0.016123 0.016123 0.018096 0.02533 0.060515 
0.01974 0.026646 0.022042 0.0056006 0.014315 0.053116 0.080573 0.082217 
0.021878 0.014972 0.041443 0.025988 0.017274 0.04654 0.1202 0.12661 
0.046375 0.041114 0.024015 0.01267 0.01826 0.022864 0.078765 0.11444 
0.021549 0.049499 0.031578 0.050979 0.014315 0.018754 0.022206 0.069886 
0.035195 0.060022 0.019083 0.029276 0.037004 0.0021479 0.02533 -0.0057439 
0.034537 0.081889 0.042758 0.035688 0.033058 -0.015116 0.0082312 -0.053917 
0.038977 0.06479 0.048019 0.05065 0.052787 0.016452 0.03799 -0.03764 
0.047526 0.069886 0.048184 0.034537 0.061172 0.038977 0.036346 -0.006566 
0.047033 0.084848 0.043416 0.047855 0.034702 0.036017 0.026974 0.041936 
0.015959 0.045718 0.021878 0.0046141 0.011026 0.011848 0.043087 0.0088889 
-0.016595 0.013164 0.027468 0.0064227 -0.0054151 -0.022679 0.032564 0.060515 
-0.02794 0.0087245 0.036182 0.0080668 0.004943 -0.036818 0.017438 0.039305 
0.005765 0.025001 0.024015 -0.0059084 -0.0052507 0.010533 0.0095465 0.048841 
0.012177 0.0036276 -0.0027845 0.0065871 0.033715 0.026317 0.018589 0.015301 
0.0042853 -0.0072237 -0.024323 -0.0073881 0.042429 0.044238 0.04358 0.020398 
-0.0049219 0.0039565 -0.00081153 0.029276 0.055089 0.078929 0.040292 -0.026953 
0.0082312 0.017932 0.017603 0.034702 0.078272 0.10869 0.075312 0.019576 
0.056733 0.06183 0.019083 0.061008 0.082382 0.13401 0.089945 0.092411 
0.069229 0.085835 0.058049 0.066763 0.085177 0.11921 0.077614 0.1225 
0.055582 0.10984 0.052459 0.036182 0.065118 0.077449 0.03388 0.096521 
0.032729 0.058377 0.039141 0.037332 0.040621 0.03536 0.03092 0.058377 
0.017767 0.048841 0.038648 0.031578 0.01826 -0.0077169 0.02829 0.06479 
-0.01117 0.043251 0.034044 -0.0054151 0.00017495 -0.02794 0.030756 0.030427 
-0.010019 0.022864 0.043909 0.0080668 -0.0042642 -0.046354 -0.0029489 -0.013143 
-0.015773 0.021878 0.055418 -0.021692 0.020233 -0.028269 -0.0050863 -0.0052507 
0.030427 0.052952 0.029441 0.039963 0.011191 0.014315 0.027468 0.039305 
0.048019 0.055747 0.024179 0.029934 0.033222 -0.011827 0.070215 0.087479 
0.042923 0.05476 0.021713 0.037826 0.037004 0.014643 0.091753 0.11724 
0.0032988 0.073504 0.030427 0.039305 0.0083956 0.027961 0.055089 0.15242 
0.038483 0.055911 0.022206 0.025988 0.0090533 -0.009361 0.0065871 0.10047 
0.045882 0.013986 0.035853 0.077449 0.0016547 -0.010841 -0.050629 0.038812 
0.0065871 0.037004 0.01826 0.027961 0.025166 -0.0016336 0.019905 0.0060938 
0.0090533 0.058213 0.021878 0.035195 0.043745 0.038812 0.062652 0.01004 
-0.0068948 0.031414 0.031085 0.018918 0.060186 0.061501 0.085341 -0.023172 
0.01826 0.046046 0.036182 0.021384 0.053445 0.054925 0.063145 0.016781 
0.030756 0.064954 0.052952 0.069229 0.054925 0.032071 0.047362 0.028454 
0.05476 0.071037 0.061995 0.040292 0.052787 0.062817 0.052787 0.058871 
0.048019 0.07301 0.049499 0.060844 0.039963 0.09685 0.023028 0.023028 
0.033551 0.066434 0.038483 0.043251 0.042594 0.066269 0.0018191 0.022535 
0.037661 0.064296 0.042758 0.047691 0.038483 0.056569 0.0036276 0.0072447 
0.029441 0.056898 0.024015 0.031578 0.014643 0.0044497 -0.063946 -0.064604 
0.016616 0.027303 0.0034632 0.0080668 -0.021034 -0.072496 -0.17361 -0.12182 
0.0085601 0.043416 1.0539e-005 0.0092177 -0.0060728 -0.090581 -0.17312 -0.10719 
0.047855 0.037826 0.031414 0.015301 0.014972 -0.013471 -0.053753 0.042594 
0.061172 0.056733 0.033387 0.03536 0.026152 0.031414 0.098659 0.091918 
0.059857 0.054267 0.057062 0.077614 0.054596 0.079258 0.13434 0.1202 
0.067913 0.075312 0.063803 0.059857 0.082053 0.11872 0.13236 0.12464 
0.048841 0.061008 0.067585 0.076463 0.094055 0.096357 0.10474 0.11263 
0.023851 0.056898 0.07449 0.026317 0.064954 0.072846 0.069722 0.03092 
0.036017 0.069229 0.029441 0.039963 0.046046 0.03388 0.077778 0.028947 
0.045553 0.042429 0.00083261 0.042923 0.005765 -0.044052 0.021384 -0.0096899 
0.062488 0.034209 0.010862 0.0051074 -0.0091966 -0.090417 -0.042737 -0.0082102 
0.056733 0.075312 0.027796 0.033715 -0.017746 -0.082032 -0.09387 -0.010183 
0.041936 0.058542 0.02122 0.013657 -0.027447 -0.065097 -0.060823 -0.046519 
0.0082312 0.045718 0.04358 0.01974 -0.01528 -0.053424 1.0539e-005 -0.047998 
0.010204 0.048513 0.020233 0.023193 -0.020706 0.0075736 0.07449 -0.041915 
0.032236 0.056733 0.048348 0.020562 -0.01232 0.024179 0.0786 0.019247 
0.054925 0.042758 0.040456 0.035688 -0.006566 0.0060938 0.054103 0.013821 
0.073339 0.037168 0.058049 0.027303 -0.0040998 0.013657 -0.0024557 0.0028056 
0.076299 0.050979 0.039141 0.01267 -0.0016336 -0.001798 -0.051287 -0.024816 
0.070051 0.031249 0.033222 0.015301 0.0064227 -0.0049219 -0.069208 -0.021199 
0.04095 0.023357 0.0069159 -0.008539 -0.02087 -0.028433 -0.09387 -0.056877 
0.020398 0.05476 0.0039565 0.032729 0.00066819 -0.041093 -0.090581 -0.068879 
0.0059294 0.04358 0.0079024 0.012177 0.0034632 -0.02235 -0.095021 -0.063453 
0.026646 0.043909 0.020233 0.01563 0.041443 0.047526 0.022535 0.007738 
0.058542 0.079751 0.046046 0.038319 0.062323 0.1077 0.10704 0.13105 
0.058706 0.087972 0.047197 0.057391 0.082382 0.10063 0.11888 0.14026 
0.0082312 0.031249 0.057227 0.073339 0.098988 0.067913 0.0032988 0.13171 
-0.0075525 -0.0067304 0.037497 0.062981 0.09833 -0.010512 -0.11031 -0.0070593 
-0.054904 0.019411 0.069393 0.082053 0.060515 -0.01676 -0.088773 -0.058192 
-0.098967 0.026317 0.079916 0.02681 0.031742 0.025659 0.01152 -0.094034 
-0.06707 0.037168 0.047855 0.011355 -0.043724 0.0062583 0.0689 -0.04471 
-0.014622 0.018589 0.0080668 0.012999 -0.038627 0.046868 0.081067 -0.0083746 
0.037826 0.028125 -0.0055795 0.00297 0.0024767 0.11921 0.077614 0.059035 
0.064296 -0.0039354 0.0072447 -0.0090322 0.0227 0.11987 0.079422 0.097015 
0.098659 0.0054362 -0.0031133 -0.0067304 -0.012814 0.079916 0.096686 0.099152 
0.083533 0.043251 0.0046141 -0.025967 -0.027611 0.10195 0.088958 0.11231 
0.074326 0.044073 -0.0057439 -0.017088 -0.031721 0.071859 0.16377 0.076299 
0.058542 0.011684 -0.0067304 -0.018897 -0.028269 0.045718 0.19024 0.060515 
0.022042 0.047526 -0.0004827 0.007738 -0.01939 0.035031 0.15686 0.032729 
0.024837 0.055418 0.03651 0.029441 0.026152 -0.0052507 0.1077 0.073175 
0.038977 0.046046 0.06742 0.056404 0.079587 0.014808 0.037826 0.091753 
0.038648 0.04095 0.079094 0.065776 0.1202 0.082053 -0.022021 0.062159 
-0.015444 0.027139 0.043087 0.04506 0.094055 0.061008 -0.038462 0.0011614 
-0.021199 -0.02646 0.0041209 0.058542 0.073504 0.048841 -0.022021 0.0019835 
-0.020377 -0.0057439 0.0032988 0.0090533 0.047855 0.028783 -0.051122 -0.013965 
0.032564 0.063803 0.043416 0.053281 0.084026 0.04095 -0.020048 0.0054362 
0.078929 0.080573 0.049664 0.10326 0.13023 0.072517 0.017603 0.071366 
0.069722 0.079916 0.063145 0.079422 0.10244 0.12053 0.083204 0.041114 
0.031742 0.063968 0.047526 0.050321 0.024015 0.062652 0.055747 0.038319 
-0.0091966 0.03651 0.012013 -0.0073881 -0.030899 -0.011992 0.041114 0.016616 
0.046046 0.0046141 -0.00081153 -0.020706 -0.069043 -0.035174 0.025001 0.047033 
0.1179 0.013328 0.0065871 -0.023829 -0.055232 -0.052273 0.030756 0.0065871 
0.10819 0.040292 0.014643 -0.0039354 -0.025638 -0.0090322 0.072846 0.013164 
0.1026 0.028619 0.052952 0.039963 0.041114 0.079916 0.07449 0.03651 
0.066927 0.01152 0.054596 0.026974 0.093891 0.10639 0.10129 0.054103 
-0.081045 0.014643 0.020398 0.041114 0.065776 0.063639 0.071202 0.062488 
-0.14287 -0.004593 0.01974 0.012835 0.037004 0.018096 0.088794 0.12332 
-0.075784 0.017438 0.018096 0.021384 0.0087245 -0.03205 0.053609 0.12957 
0.062159 0.05772 0.033551 0.038812 0.015137 -0.062467 0.0026412 0.066105 
0.13779 0.10737 0.06479 0.044731 0.05476 -0.029748 -0.0138 0.044073 
0.11822 0.095206 0.058377 0.07301 0.047855 -0.011005 0.037168 0.037826 
0.099316 0.09833 0.028619 0.011026 0.034373 -0.017253 0.043416 0.055089 
0.051143 0.087808 0.025166 0.0090533 0.025166 -0.0016336 0.021056 0.041278 
0.037004 0.03092 0.024015 -0.0050863 0.0087245 -0.025145 0.0011614 0.056733 
0.024015 0.0070803 0.047033 0.0056006 0.035031 0.016288 0.025659 0.025001 
0.015301 0.048184 0.063145 0.05772 0.063968 0.11033 0.062159 0.01974 
0.026317 0.060679 0.059364 0.047855 0.061666 0.11181 0.063474 0.03799 
0.015301 0.0090533 0.025988 0.021713 0.046046 0.1322 0.10589 0.080738 
-0.028762 -0.0075525 -0.019719 0.013328 0.0075736 0.14223 0.15078 0.070215 
0.011026 0.023522 0.01415 0.016781 0.013821 0.12661 0.14782 0.15028 
0.015465 0.01152 0.019905 0.044073 0.028454 0.086163 0.11625 0.23562 
0.0044497 0.0092177 0.0047785 0.0090533 0.031249 0.049335 0.066763 0.16146 
0.04358 0.014479 0.030263 0.037826 0.010204 -0.01676 0.022042 0.036675 
0.076627 0.068736 0.033715 0.018096 0.034209 -0.11541 -0.11804 -0.11311 
0.051965 0.093398 0.047033 0.022535 -0.0016336 -0.21027 -0.25138 -0.16029 
0.01267 0.05624 0.077285 0.030263 -0.018568 -0.21504 -0.25056 -0.14615 
-0.024652 0.02122 0.0786 0.035031 -0.050958 -0.20238 -0.14171 -0.070687 
-0.028433 -0.030735 0.062981 0.043251 -0.059836 -0.14221 -0.047834 -0.0059084 
0.034209 -0.034188 0.026481 -0.011334 -0.049642 -0.079072 -0.0052507 0.02122 
0.15111 0.062981 0.012342 0.00099702 -0.047998 -0.089431 -0.081868 -0.048163 
0.24252 0.12661 0.0092177 0.0064227 -0.025967 -0.07973 -0.045532 -0.057041 
0.13105 0.098166 0.005765 0.0085601 -0.0039354 -0.031557 0.048348 0.079751 
-0.011334 0.089945 0.011355 0.056898 0.059693 0.01563 0.13845 0.11543 
-0.064604 0.028619 0.0065871 0.038483 0.11757 0.10704 0.13121 0.15209 
-0.056548 0.0088889 0.012999 0.033222 0.1077 0.15423 0.084026 0.13631 
-0.023994 0.051965 0.032893 0.011684 0.058871 0.13023 0.031249 0.12151 
-0.011498 0.060186 0.039634 0.020233 0.044073 0.15144 0.061501 0.10244 
-0.016431 0.054925 0.062488 0.056076 0.033222 0.17248 0.097672 0.13269 
-0.0057439 0.037332 0.064625 0.032236 0.056733 0.15818 0.068407 0.13861 
0.010204 0.053774 0.049335 0.034044 0.081889 0.13121 -0.006566 0.098659 
-0.020706 0.040292 0.019905 0.029276 0.11181 0.12085 -0.048492 0.03947 
-0.082196 -0.0036066 0.0088889 0.030098 0.13368 0.10162 -0.051287 -0.016595 
-0.069701 -0.012978 0.0052718 0.059364 0.079422 0.11083 0.012342 -0.01676 
0.022042 -0.0022913 -0.00015387 0.01826 0.01563 0.05772 0.068571 -0.013965 
0.047362 0.01974 0.017274 0.0016547 -0.07266 -0.066741 0.0032988 -0.041751 
0.045718 0.058213 0.023357 -0.0091966 -0.13234 -0.20041 -0.11426 -0.19482 
0.033551 0.062488 -0.0060728 -0.027118 -0.14829 -0.24908 -0.20847 -0.36121 
-0.017746 0.0019835 -0.025802 -0.014458 -0.10932 -0.23066 -0.19153 -0.44835 
0.018096 0.01004 0.019247 -0.009361 0.0032988 -0.10916 -0.040764 -0.25878 
0.1151 0.092411 0.08156 0.086492 0.1128 0.070544 0.080244 0.038319 
0.18514 0.12053 0.10984 0.090438 0.16327 0.14174 0.1299 0.17248 
0.21013 0.10195 0.070051 0.087479 0.15127 0.20027 0.093562 0.16245 
0.18843 0.10474 0.062323 0.08863 0.095535 0.20783 0.080409 0.1197 
0.17182 0.080738 0.042758 0.047691 0.078765 0.12809 0.044731 0.039634 
0.1225 0.059364 0.03092 0.071859 0.047033 0.042758 -0.0078813 0.024673 
0.072353 0.11773 0.041772 0.030098 0.019576 0.030263 -0.0042642 0.10195 
0.061172 0.14174 0.047362 0.0041209 0.023193 0.044402 0.01563 0.15801 
-0.025474 0.066598 0.00033937 -0.0029489 0.050321 0.063803 0.016288 0.13269 
-0.098967 0.012013 -0.0068948 0.0069159 0.083862 0.10589 0.032729 0.076134 
-0.13152 0.049828 0.020727 0.053281 0.1151 0.10145 0.090109 0.068571 
-0.121 0.070215 0.072188 0.064296 0.1026 0.028947 0.075805 0.023193 
-0.13021 0.053281 0.075476 0.052623 0.061337 0.058542 0.034537 -0.029255 
-0.16144 0.0074092 0.051143 0.034866 0.0041209 0.034866 0.024508 -0.057041 
-0.26338 -0.045368 -0.045203 0.0041209 -0.046354 0.018096 -0.0039354 -0.063124 
-0.19548 -0.091732 -0.052931 -0.027118 -0.076113 0.0026412 -0.041422 -0.11557 
0.034373 -0.037805 -0.060494 -0.059836 -0.0042642 0.031414 -0.032708 -0.13481 
0.2006 0.055911 -0.00031829 0.048019 0.13976 0.13006 0.022371 -0.10127 
0.28806 0.085506 0.060022 0.094384 0.18958 0.17791 0.12973 -0.056219 
0.24236 0.086492 0.071037 0.089616 0.15209 0.11181 0.16015 0.043251 
0.1636 0.13582 0.080409 0.088794 0.078765 0.025988 0.15768 0.12414 
0.14815 0.14437 0.1008 0.048677 -0.010841 0.0014903 0.10869 0.13697 
0.13549 0.1202 0.10376 0.045553 -0.051615 -0.068714 0.055254 0.068736 
0.11115 0.087643 0.092082 0.0051074 -0.047669 -0.082525 0.025001 0.028619 
0.070708 0.089123 0.068571 0.0095465 -0.059014 -0.064275 0.024015 0.051965 
0.049006 0.052294 0.026646 0.019247 -0.058685 -0.068879 0.017932 0.056898 
0.0026412 0.025495 0.0024767 -0.0011404 -0.042079 -0.080223 -0.0019624 0.038648 
-0.025309 0.040456 0.018425 0.019247 -0.010183 -0.039613 0.018754 0.049828 
-0.045532 0.020069 0.028454 0.0098754 0.015794 -0.021692 0.017767 0.045882 
-0.075291 -0.023501 0.0082312 0.0067515 0.01563 0.034373 0.034537 0.039634 
-0.061809 -0.03764 -0.019226 0.0098754 0.020398 0.091589 0.075805 0.061995 
-0.063453 -0.010183 -0.014129 0.019576 0.019411 0.072681 0.083862 0.060679 
0.00017495 0.01974 0.0088889 0.044731 0.04654 0.066598 0.085506 0.088958 
0.06742 0.047691 0.043416 0.035195 0.062323 0.074654 0.060515 0.067585 
0.082546 0.079587 0.06479 0.047033 0.033715 0.024837 0.050321 0.065612 
0.085835 0.062981 0.084355 0.034537 0.00297 -0.032543 0.03388 0.05476 
0.088465 0.055582 0.051143 0.0083956 -0.017253 -0.034188 0.038319 0.079094 
0.078272 0.068407 0.038155 0.025988 -0.034023 -0.058521 0.06742 0.11395 
0.094384 0.063968 0.030098 0.0088889 -0.020212 -0.019555 0.072681 0.14946 
0.10458 0.051308 0.016123 0.031742 -0.016595 0.011848 0.053445 0.16015 
0.083204 0.035853 0.016945 0.0060938 -0.028597 -0.034023 0.047362 0.11576 
0.069393 0.018589 0.029934 0.005765 -0.02235 -0.069208 0.010862 0.11773 
0.068242 -0.025474 0.0013258 0.016288 -0.033365 -0.075784 0.020069 0.16393 
0.05624 -0.02942 -0.0068948 -0.0036066 -0.018075 -0.046847 0.038319 0.22542 
0.01563 0.059857 0.013492 0.031249 0.021056 -0.0087034 0.071531 0.17363 
-0.061316 0.072188 0.035688 0.022371 0.060186 0.018096 0.061172 0.017767 
-0.12494 0.022042 0.021878 -0.0050863 0.054596 -0.021199 -0.025967 -0.17608 
-0.092554 -0.0021268 -0.0026201 -0.015609 -0.016431 -0.069536 -0.067235 -0.19153 
-0.012485 -0.011663 0.00083261 -0.018568 -0.023172 -0.0067304 -0.023501 -0.12412 
0.062488 -0.012156 -0.013965 0.043251 0.047197 0.053609 0.017767 -0.091732 
0.05065 0.056898 0.048019 0.047362 0.10228 0.11214 -0.0054151 -0.099624 
0.13401 0.098001 0.047362 0.084684 0.08008 0.083204 -0.065755 -0.095349 
0.21178 0.06183 0.035031 0.038977 0.01152 -0.008539 -0.075455 0.011848 
0.25008 0.081067 0.053445 0.039963 -0.011827 -0.037476 0.00033937 0.13138 
0.16525 0.10458 0.059693 0.049992 0.0018191 0.020891 0.074819 0.23233 
0.10902 0.053609 0.038155 -0.0004827 0.015301 0.015959 0.093891 0.23003 
0.090603 0.042923 0.036017 0.029441 0.010369 0.042594 0.066763 0.18613 
0.012506 0.055089 0.068571 0.03947 0.054103 0.063145 0.053938 0.078929 
-0.081703 0.048019 0.049335 0.030427 0.061008 0.031578 0.034866 0.011026 
-0.075784 -0.011005 0.022371 0.035688 0.027632 0.013164 0.015137 -0.019719 
0.035195 0.0062583 -0.0095255 -0.0077169 -0.0090322 0.03799 0.0054362 -0.0022913 
0.19303 0.055418 -0.019226 0.0092177 0.010697 0.011355 0.013492 0.01152 
0.19796 0.057884 0.016616 0.011026 0.040785 0.013328 0.060022 0.025659 
-0.0034422 0.034044 0.028619 0.034373 0.049499 0.014643 0.009711 0.032729 
-0.23444 0.037168 0.017438 0.043909 0.03947 0.0087245 -0.0067304 0.013164 
-0.30662 0.020069 0.0013258 0.015465 0.032893 -0.011992 -0.0070593 -0.048492 
-0.33013 -0.031721 -0.0022913 0.019083 0.0064227 0.011848 -0.022185 -0.14993 
-0.19926 -0.016102 0.0082312 0.0060938 1.0539e-005 0.0095465 -0.022514 -0.13021 
0.13121 0.047691 0.020398 0.01563 0.027796 0.03651 0.0051074 0.0090533 
0.28773 0.094548 0.066269 0.063639 0.0592 0.080244 0.055089 0.13236 
0.21441 0.11855 0.082217 0.051801 0.065283 0.10096 0.062652 0.10639 
0.078765 0.12924 0.082053 0.072188 0.085506 0.10589 0.0689 0.032071 
-0.02942 0.079258 0.033222 0.035853 0.076627 0.095371 0.012506 -0.052109 
-0.069701 0.019905 -0.0082102 0.0016547 0.026317 0.0075736 -0.064111 -0.038133 
-0.038791 0.016781 -0.013143 -0.00031829 0.016288 0.040292 -0.044381 0.081724 
-0.02942 0.011848 -0.013965 -0.0049219 0.029441 0.093069 0.01152 0.13779 
-0.026624 0.021549 0.020069 0.032893 0.053938 0.075476 0.042758 0.12201 
-0.012649 0.048348 0.026317 0.021384 0.059693 0.068078 0.018754 0.042594 
-0.15964 0.024673 -0.0011404 0.03388 0.043416 0.0011614 -0.039449 -0.053095 
-0.30942 -0.024652 -0.0049219 0.011026 0.019411 -0.050958 -0.046354 -0.13777 
-0.23872 -0.013143 0.0051074 0.010533 0.039141 -0.038956 -0.015609 -0.12642 
0.089945 0.036017 0.034209 0.040621 0.076627 0.043251 0.025166 -0.098802 
0.58039 0.092082 0.06331 0.044567 0.10343 0.090767 0.060186 -0.045532 
0.54866 0.050157 0.054103 0.073504 0.069558 0.099316 0.071366 0.013821 
0.13203 0.0028056 0.005765 0.026974 0.057391 0.12201 0.1008 0.066434 
-0.088115 -0.0049219 -0.0049219 0.012506 0.042758 0.12727 0.076463 0.11329 
-0.07003 0.080902 0.042758 0.048513 0.072024 0.12118 0.048348 0.0098754 
-0.055232 0.18103 0.12102 0.10524 0.14765 0.15818 0.05624 0.13072 
-0.043888 0.16442 0.094055 0.090438 0.094055 0.1419 0.065612 0.13812 
-0.0013048 0.081889 0.058871 0.041607 0.017932 0.031742 0.082711 0.16755 
-0.014458 -0.036654 -0.021363 0.0092177 -0.056712 0.012835 0.038155 0.081724 
-0.0059084 -0.035832 -0.032215 -0.019884 -0.055232 0.0095465 -0.0047575 -0.05885 
-0.016595 0.025166 0.0098754 -0.0050863 -0.029748 -0.034516 -0.018733 -0.18446 
0.00066819 0.073339 0.051801 0.038812 0.00033937 -0.051451 -0.01117 -0.20551 
-0.0060728 0.090931 0.077943 0.024837 -0.02235 -0.039942 0.00297 -0.10308 
0.053938 0.056076 0.034044 0.021384 0.004943 -0.055068 0.0059294 0.049664 
0.15374 0.021549 0.02533 0.028454 -0.0050863 -0.034352 0.012177 0.15292 
0.16755 0.022206 0.031578 0.037332 0.037497 -0.017746 0.016452 0.13812 
0.12497 0.066269 0.056898 0.092904 0.087808 0.029605 0.0023123 0.08715 
0.10639 0.076463 0.061666 0.067913 0.067256 0.030098 -0.059178 -0.065755 
0.094384 0.060844 0.055911 0.035031 0.033551 0.031249 -0.08532 -0.1718 
0.091096 0.072024 0.067256 0.018096 0.011355 -0.0032777 -0.095843 -0.17591 
0.092082 0.065447 0.025988 0.01004 0.036675 0.044896 -0.015444 -0.044217 
0.017767 -0.0024557 0.0079024 0.035853 0.03651 0.04358 -0.018075 -0.0039354 
-0.041751 -0.033201 -0.011498 -0.03501 0.005765 -0.0057439 -0.064275 -0.0068948 
0.011355 0.019083 0.014315 -0.011005 0.0070803 -0.0078813 -0.041586 0.045718 
0.11263 0.041607 0.054432 0.017767 0.033551 0.035688 0.0227 0.098823 
0.18942 0.089616 0.047033 0.071531 0.075148 0.079587 0.11494 0.21424 
0.21934 0.12858 0.078765 0.098823 0.12102 0.13828 0.21572 0.37372 
0.17478 0.10819 0.10655 0.090274 0.11822 0.18695 0.31766 0.46908 
0.00066819 0.012835 0.045718 0.073997 0.043416 0.15703 0.33015 0.39263 
-0.14303 -0.076277 -0.040764 -0.037147 -0.047834 0.065283 0.19287 0.17659 
-0.092883 -0.051122 -0.052273 -0.026131 -0.075784 -0.0039354 0.062652 -0.089266 
-0.081539 0.004943 0.022042 0.015301 -0.03057 -0.004593 0.05213 -0.13678 
-0.1358 -0.025638 0.029112 0.0052718 0.0021479 -0.0042642 0.055582 -0.052931 
-0.03501 0.0026412 0.027139 0.035688 0.0062583 0.022864 0.096521 0.069722 
0.10902 0.037826 0.030756 0.032236 0.038155 0.052459 0.10408 0.1008 
0.17971 0.067749 0.051308 0.0042853 0.016616 0.027961 0.057884 -0.046025 
0.099645 0.061337 0.04917 -0.013636 -0.00031829 -0.032872 -0.045039 -0.36959 
0.01267 0.028619 0.014972 -0.024323 -0.044381 -0.12001 -0.095514 -0.37156 
-0.020541 0.026152 0.031907 0.039634 -0.010841 -0.11113 -0.11146 -0.13875 
-0.032708 0.06742 0.078765 0.042758 0.031907 -0.010019 -0.083512 -0.0004827 
0.17166 0.14124 0.094713 0.07038 0.091425 0.031414 -0.040435 0.082217 
0.30056 0.12168 0.077614 0.078107 0.10063 0.022864 -0.016102 0.091753 
0.20553 0.078107 0.058049 0.061172 0.064954 0.025001 0.015959 0.13483 
-0.016431 0.049828 0.0062583 0.048677 0.0021479 -0.012814 0.027961 0.12973 
-0.17624 -0.014787 -0.014622 -0.022514 -0.041422 -0.032543 0.060844 0.1294 
-0.23263 -0.081045 -0.033365 -0.03057 -0.034188 -0.027282 0.061008 0.13467 
-0.1187 -0.0057439 0.010533 -0.031228 -0.037476 -0.0042642 0.10984 0.2075 
-0.066084 0.031578 0.065776 0.011355 -0.021692 0.012013 0.11707 0.18909 
-0.070194 0.013328 0.025001 0.017932 -0.0050863 0.04506 0.12529 0.19944 
-0.1016 -0.029255 0.0023123 0.0028056 -0.033037 -0.0004827 0.11674 0.20339 
-0.17673 -0.045203 -0.030735 -0.008539 -0.052109 -0.042573 0.036182 0.1128 
-0.28212 -0.054246 -0.013307 -0.026789 -0.017088 -0.014951 0.026646 0.05213 
-0.37748 -0.077428 0.017274 0.014479 0.027468 -0.022843 -0.048656 -0.11755 
-0.26256 -0.0013048 0.034866 0.058377 0.061172 0.010862 -0.025802 -0.15914 
0.0082312 0.03799 0.042265 0.036675 0.045718 0.046704 0.02681 -0.14319 
0.23611 0.12644 0.052459 0.064625 0.020562 0.021384 0.071859 -0.076442 
0.37093 0.16952 0.057555 0.035195 0.050814 0.024015 0.036675 -0.020541 
0.39543 0.13927 0.044402 0.03651 0.042594 0.0018191 0.0034632 -0.027447 
0.26718 0.13894 0.083533 0.073997 0.058213 0.016781 -0.003771 -0.045203 
0.09274 0.17906 0.10507 0.065118 0.059857 0.00297 -0.011005 -0.11689 
-0.076771 0.14502 0.074654 0.048513 0.0095465 -0.036818 -0.061809 -0.17936 
-0.10324 0.044073 0.0088889 -0.02646 -0.037476 -0.083018 -0.1039 -0.12626 
-0.054246 -0.011005 -0.010841 -0.0138 -0.022514 -0.089759 -0.10094 -0.00081153 
-0.1113 -0.052437 -0.042408 -0.038133 -0.022021 -0.050793 -0.066741 0.041443 
-0.13843 -0.070359 -0.033037 -0.0082102 -0.00097594 -0.012649 -0.03353 0.11839 
-0.06148 -0.02498 0.0072447 0.034866 0.031578 0.0064227 -0.05326 0.12612 
0.031742 0.056733 0.01267 0.036346 0.0592 0.030098 -0.068714 0.069393 
0.065118 0.11231 0.06035 0.075312 0.075148 -0.0021268 -0.061809 0.01004 
0.1299 0.16804 0.1026 0.091753 0.10326 0.058377 0.045224 0.0016547 
0.23529 0.16837 0.1031 0.11313 0.074161 0.10195 0.086328 -0.0032777 
0.033715 0.11921 0.072517 0.088465 0.096028 0.1026 0.073504 -0.0062372 
-0.25894 0.026481 0.025001 0.019247 0.056569 0.01004 -0.0031133 -0.051287 
-0.29659 -0.047669 -0.043066 -0.0083746 -0.0098543 -0.061151 -0.12905 -0.11097 
-0.096829 -0.041257 -0.058028 -0.039778 -0.031886 -0.11459 -0.17887 -0.092719 
0.45708 0.072846 0.018918 0.035524 0.033387 -0.05326 -0.13267 0.0028056 
0.69893 0.15308 0.085835 0.13812 0.11346 0.043745 -0.034681 0.12612 
0.35695 0.12447 0.084684 0.082711 0.064461 0.033058 -0.012978 0.11987 
-0.06148 0.089123 0.062817 0.080738 0.029934 0.0070803 0.013657 0.14289 
-0.2739 0.027303 0.036675 0.019576 0.013164 0.0082312 0.025824 0.17971 
-0.21751 -0.03912 -0.023172 -0.025145 -0.0080457 0.0092177 0.023193 0.20208 
-0.080223 0.028947 -0.017417 -0.0044286 0.025988 0.061501 0.058871 0.13631 
0.018754 0.12069 0.055418 0.028619 0.08304 0.14881 0.11526 -0.04882 
0.076956 0.14321 0.077449 0.034044 0.035688 0.12036 0.12694 -0.16555 
0.056898 0.058377 0.03536 0.0087245 0.0052718 0.082546 0.0689 -0.19252 
0.13549 -0.0019624 0.084519 -0.017582 0.0026412 0.054267 -0.0014692 -0.095843 
0.35301 0.011026 -0.016266 0.0079024 0.0082312 0.03947 0.037168 -0.065262 
0.59914 0.082217 0.0018191 0.055254 0.079094 0.07597 0.048513 0.03651 
0.57299 0.17084 0.071859 0.095371 0.096521 0.1128 0.073175 0.14404 
0.47171 0.14387 0.070051 0.071695 0.11888 0.11395 0.073504 0.22674 
0.25321 0.12053 0.047526 0.088794 0.11181 0.098166 0.065118 0.20043 
0.055254 0.053445 0.019905 0.063639 0.088465 0.060022 0.037497 0.061501 
-0.074633 0.019576 0.026646 0.039799 0.038155 0.017274 -0.013636 -0.0087034 
-0.080059 0.009711 0.049664 0.050814 0.022042 -0.013471 -0.01676 0.077943 
-0.12823 -0.0014692 0.056898 0.01974 0.018589 0.013492 0.036346 0.17297 
-0.3303 -0.055068 0.01415 0.017932 -0.022679 0.032071 0.065776 0.21062 
-0.57938 -0.14336 -0.049971 -0.050629 -0.060329 0.056569 0.018096 0.11329 
-0.68411 -0.13316 -0.055561 -0.049971 -0.022843 0.12316 0.010533 0.015959 
-0.56607 -0.082196 -0.037311 0.019083 0.039141 0.19599 0.068078 -0.049971 
-0.23329 -0.0059084 0.020233 0.06742 0.10573 0.20388 0.14108 -0.099789 
0.12168 0.051472 0.055254 0.082382 0.082382 0.10556 0.14946 -0.048327 
0.43439 0.087972 0.03388 0.014643 -0.037311 -0.035667 0.086492 0.057391 
0.54159 0.07038 0.040621 -0.0026201 -0.077593 -0.12659 0.052459 0.17412 
0.4362 0.062488 0.020069 -0.024323 -0.087129 -0.12363 0.028783 0.18991 
0.28593 0.06479 0.026974 -0.01676 -0.026624 -0.090253 0.090274 0.14848 
0.16327 0.10655 0.060679 0.051143 0.051965 -0.04323 0.14782 0.074983 
0.11494 0.11477 0.090931 0.045224 0.082053 0.035195 0.24943 0.10293 
0.038977 0.08978 0.085506 0.040785 0.085341 0.1442 0.28543 0.088794 
0.00099702 0.074161 0.014972 0.035853 0.069064 0.15423 0.22756 0.028947 
0.038483 0.011191 0.004943 0.041936 0.03388 0.12168 0.13138 -0.016266 
0.029276 -0.024652 0.031249 0.05213 -0.028597 0.063474 0.0060938 -0.094363 
-0.033037 -0.0138 0.050486 0.037826 -0.022514 0.016452 -0.064768 -0.11804 
-0.1039 0.0093821 0.04654 0.032564 -0.011663 0.0011614 -0.10784 -0.15043 
-0.076771 0.025824 0.057062 0.025495 -0.026296 -0.040106 -0.0771 -0.099624 
-0.052931 0.04917 0.051472 0.031085 0.012506 -0.056383 -0.049314 -0.043066 
-0.052437 0.088136 0.031578 0.048513 0.044567 -0.012814 -0.0040998 -0.038791 
-0.059343 0.038319 0.015794 0.015137 0.064625 0.052623 0.025001 -0.055397 
-0.046683 0.004943 0.010204 0.01974 0.064954 0.068571 0.07597 0.023851 
-0.015773 0.050486 0.049335 0.024673 0.050321 0.027796 0.037168 0.03947 
-0.10982 0.089945 0.10211 0.061666 0.041936 0.005765 0.00050378 0.14453 
-0.34838 0.053774 0.072024 0.071695 0.028783 -0.025802 -0.0087034 0.20355 
-0.4222 -0.01117 0.015794 0.017438 0.0031344 -0.013636 -0.058028 0.025659 
-0.23231 -0.011992 0.0018191 0.015959 -0.0068948 -0.057041 -0.21011 -0.19466 
0.32259 0.035524 -0.013471 -0.031557 -0.042408 -0.11475 -0.20123 -0.15996 
0.71357 0.049992 0.030592 -0.017911 -0.025802 -0.079401 0.0016547 0.13138 
0.51643 0.088794 0.054925 0.035688 0.032564 0.0024767 0.08419 0.232 
0.15851 0.07449 0.0324 0.047197 0.068407 -0.0054151 -0.0080457 0.11083 
-0.010512 0.081724 0.058049 0.060844 0.094055 0.054267 -0.13645 -0.11294 
0.015794 0.098166 0.033551 0.033715 0.077778 0.19698 -0.018239 -0.15717 
0.1784 0.1008 0.061172 0.040292 0.085506 0.2902 0.22361 -0.022021 
0.2759 0.075641 0.055418 0.044073 0.084519 0.25354 0.28001 0.10655 
0.16952 0.09126 0.064954 0.067256 0.12842 0.20783 0.15045 0.13088 
-0.052109 0.10507 0.091589 0.13171 0.12299 0.10606 -0.021856 0.076134 
-0.12708 0.039141 0.054267 0.053609 0.0786 -0.11311 -0.10998 0.11691 
-0.069208 -0.024652 -0.00064712 0.015959 -0.036654 -0.32043 -0.19778 0.13105 
-0.10801 -0.096829 -0.073482 -0.099789 -0.12642 -0.45722 -0.2402 0.12792 
-0.028597 -0.1381 -0.095678 -0.11376 -0.1404 -0.34805 -0.1376 0.060515 
0.04654 -0.11524 -0.051122 -0.047176 -0.092883 -0.15569 0.0065871 -0.046354 
0.16623 0.022535 0.0042853 -0.036654 -0.04619 -0.034023 0.14815 -0.12938 
0.29398 0.18925 0.10113 0.053445 0.027961 0.12299 0.26998 -0.031886 
0.29398 0.25304 0.13812 0.083697 0.094548 0.23134 0.30072 0.016616 
0.051636 0.22444 0.14174 0.10408 0.13269 0.24466 0.2999 -0.0064016 
-0.3132 0.12332 0.094548 0.09685 0.087479 0.12398 0.16508 0.013328 
-0.39277 0.020398 0.03799 0.065447 0.073832 0.054103 -0.0044286 0.12349 
-0.12642 -0.011334 -0.0011404 0.064954 0.086328 0.067585 -0.081868 0.14979 
0.024344 0.0051074 0.0031344 0.015301 0.045718 0.0786 -0.089595 0.017274 
0.044567 -0.0138 0.017274 -0.013471 -0.0088678 0.075805 -0.13333 -0.023501 
-0.006566 0.0070803 0.014479 0.0085601 0.0082312 0.047855 -0.15076 0.01004 
0.065118 0.043087 0.019083 0.012013 0.0324 0.072846 -0.082361 0.10211 
0.11148 0.087808 0.019083 0.034209 0.017932 0.067256 -0.0083746 0.091753 
0.1396 0.070873 0.028619 0.0019835 0.0026412 0.024015 0.020891 0.08863 
0.18777 0.058377 0.023522 -0.0098543 0.016781 -0.0019624 0.042758 0.11658 
0.19287 0.028947 0.016945 -0.0031133 0.035853 0.0018191 0.076299 0.13302 
0.094384 -0.047505 -0.020706 -0.020048 0.013657 -0.063618 0.071037 0.11757 
0.067585 -0.029091 -0.022514 0.0018191 -0.0014692 -0.1455 0.018754 0.13615 
0.13499 0.053609 0.013986 0.0044497 -0.01232 -0.12971 0.028125 0.16969 
0.1881 0.051965 0.010862 0.0069159 -0.036489 -0.10489 0.096028 0.089945 
0.1687 0.018754 -0.00031829 -0.018075 -0.05178 -0.033859 0.15982 -0.018404 
0.072681 0.026481 0.015137 -0.0095255 -0.031557 0.027796 0.16475 -0.033859 
-0.040928 0.067585 0.0052718 0.045389 0.011848 0.078272 0.15933 0.089945 
-0.090253 0.062323 0.051801 0.054267 0.069229 0.11428 0.13269 0.2103 
-0.072003 0.083204 0.085999 0.10869 0.12529 0.15834 0.13368 0.26176 
-0.12018 0.12792 0.10162 0.12447 0.15061 0.16064 0.095371 0.041607 
-0.35529 0.068242 0.07597 0.075805 0.080409 0.091918 -0.0080457 -0.36449 
-0.47367 0.00050378 0.050979 0.028125 -0.0059084 -0.0095255 -0.079566 -0.47153 
-0.45739 -0.075127 -0.0040998 -0.066906 -0.053424 -0.11245 -0.1307 -0.36137 
-0.44358 -0.068386 -0.051122 -0.040271 -0.044381 -0.1011 -0.058356 -0.24135 
-0.38833 -0.052766 -0.0059084 -0.0034422 0.023851 0.052623 0.072188 -0.18578 
-0.20156 0.0054362 0.014972 0.039141 0.058213 0.078929 0.14058 -0.063124 
-0.020706 0.037332 0.035031 0.052459 0.03536 0.048184 0.15456 0.11609 
0.067585 0.013328 -0.0070593 0.0064227 -0.0042642 -0.054082 0.10359 0.29826 
0.19616 0.0072447 -0.031064 -0.0090322 -0.019061 -0.066741 0.021384 0.31585 
0.33969 0.072517 -0.0050863 -0.021856 0.027961 -0.0503 -0.03205 0.20619 
0.36485 0.1008 0.024344 0.028947 0.036182 -0.030735 -0.10752 -0.03501 
0.37783 0.10376 0.057227 0.063639 0.046375 -0.036818 -0.14533 -0.04619 
0.35498 0.11017 0.090931 0.04917 0.031414 -0.064275 -0.16934 -0.0064016 
0.29086 0.1396 0.099316 0.10195 0.01415 -0.039613 -0.1649 -0.023501 
0.1761 0.12497 0.094055 0.0592 0.0087245 -0.038791 -0.14928 -0.047505 
0.051472 0.11066 0.037826 0.053445 0.019247 0.009711 -0.067399 -0.080717 
-0.044874 0.071366 0.0014903 0.0052718 0.01267 0.10162 -0.0082102 -0.10094 
-0.1649 0.018096 -0.023829 -0.024816 0.019411 0.13499 -0.028762 -0.21751 
-0.10752 0.020233 -0.021034 0.027139 0.056076 0.16442 -0.04323 -0.2106 
0.058049 0.075476 0.049664 0.075476 0.14519 0.22904 -0.0098543 -0.16095 
0.17988 0.11543 0.10441 0.15028 0.21408 0.26291 0.049992 -0.19778 
0.12349 0.072353 0.080409 0.11674 0.18136 0.20208 0.050157 -0.17723 
-0.16128 -0.024487 0.022864 0.040292 0.066598 0.036017 -0.064111 -0.12478 
-0.33523 -0.034188 0.015137 0.0072447 -0.021199 -0.12379 -0.080552 0.066269 
-0.29265 -0.080388 0.032236 -0.0077169 -0.066084 -0.18611 -0.035338 0.25485 
-0.31336 -0.080717 0.0093821 -0.00031829 -0.06444 -0.13645 0.0047785 0.10836 
-0.32208 -0.041586 0.0069159 -0.014293 -0.017253 -0.053753 0.013821 -0.036325 
-0.085485 0.0088889 0.025988 0.020727 -0.0032777 0.016781 0.076792 0.26258 
0.29776 0.082711 0.00066819 0.021878 -0.033365 0.040621 0.12529 0.40019 
0.37471 0.043909 -0.013965 -0.024487 -0.050464 0.058049 0.14042 0.27507 
0.45001 0.043416 -0.026789 0.0034632 -0.016595 0.067585 0.050814 0.085835 
0.51693 0.087479 0.038977 0.028125 0.021384 0.081395 -0.0034422 0.0062583 
0.54356 0.1419 0.091589 0.044238 0.039634 0.11395 0.029441 0.022206 
0.49654 0.1419 0.065612 0.061995 0.087808 0.13861 0.12529 0.071859 
0.23298 0.06331 0.04917 0.058377 0.10737 0.16048 0.16393 0.040456 
-0.10012 0.041936 0.045224 0.076299 0.10425 0.1396 0.12513 -0.0096899 
-0.30383 0.034209 0.049664 0.0421 0.067749 0.013492 0.0032988 -0.06444 
-0.31764 -0.0050863 0.026974 -0.0004827 -0.010348 -0.12741 -0.098309 -0.22491 
-0.1307 -0.012814 0.01004 -0.031721 -0.068386 -0.2134 -0.1358 -0.19038 
-0.094199 -0.0029489 0.029276 -0.01117 -0.095021 -0.18348 -0.1113 -0.061151 
-0.17213 0.038648 0.051308 0.026974 -0.033365 -0.073482 -0.035667 0.20668 
-0.14533 0.023357 0.042758 0.044073 0.02829 0.045389 0.05065 0.28527 
-0.076771 0.0080668 0.011191 0.074326 0.06035 0.1197 0.10524 0.22592 
0.045389 0.084355 0.013328 0.040128 0.0689 0.16344 0.10474 0.070215 
0.12283 0.052952 0.022535 0.013986 0.070873 0.20109 0.096686 -0.022843 
0.1904 0.066763 0.04917 0.038483 0.05624 0.16952 0.12957 0.024508 
0.25781 0.12957 0.058213 0.052459 0.04095 0.073668 0.14782 0.10293 
0.21523 0.086985 0.075476 0.059528 0.035688 0.079751 0.17577 0.1853 
0.086821 0.034702 0.05213 0.031249 0.043745 0.11231 0.21358 0.1955 
0.016123 0.052459 0.049992 0.045224 0.030756 0.035195 0.16393 0.25847 
0.047197 0.074161 0.062488 0.07301 0.025495 -0.016595 0.055582 0.23331 
0.067585 0.052459 0.046375 0.062159 0.076956 0.03388 0.055911 0.18054 
-0.015116 -0.0070593 0.014972 0.061172 0.11822 0.080244 0.11839 0.147 
-0.071838 -0.023501 0.0036276 0.018425 0.061008 0.049828 0.10639 0.18169 
-0.085485 -0.0049219 0.024508 0.034702 0.031414 -0.080223 -0.017582 -0.0075525 
-0.039613 -0.003771 0.017438 0.015301 -0.011498 -0.14007 -0.11952 -0.24562 
0.11017 0.058213 0.012835 -0.0055795 -0.027775 -0.12577 -0.09239 -0.21356 
0.32341 0.1248 0.029769 0.012177 -0.038791 -0.121 0.0034632 -0.014458 
0.39575 0.11987 0.054267 -0.0011404 -0.010019 -0.041257 0.047197 0.13286 
0.26044 0.11757 0.088794 0.034209 0.037497 0.083204 0.14634 0.1373 
-0.056548 0.092411 0.076134 0.051308 0.059364 0.16064 0.18004 0.10408 
-0.42105 0.021878 0.040621 0.02681 0.0592 0.13253 0.16146 0.013328 
-0.58826 -0.047341 -0.024323 0.012835 0.014315 0.044402 0.047033 -0.014622 
-0.39688 -0.077264 -0.032215 -0.027611 -0.037476 -0.03501 0.027303 0.055418 
0.24762 0.0227 0.0026412 0.035195 -0.0095255 0.0075736 0.087643 0.21983 
0.62051 0.11658 0.070051 0.051472 0.042594 0.032236 0.080902 0.27294 
0.44672 0.13121 0.058049 0.059693 0.039305 -0.028269 0.022042 0.19024 
0.2269 0.091589 0.032729 0.055747 0.018589 -0.064111 -0.02087 0.036017 
0.087808 0.041443 0.030427 0.016781 0.021878 -0.022514 -0.02794 -0.083018 
0.015794 0.042429 0.065118 0.091589 0.071859 0.043087 -0.038627 -0.1011 
-0.089595 0.097179 0.10655 0.10359 0.12661 0.072024 -0.028597 -0.023501 
-0.14829 0.073339 0.10162 0.097344 0.11937 0.081395 0.045718 0.023686 
-0.12988 0.01004 0.074819 0.069558 0.060515 0.037497 0.030592 -0.074304 
-0.10489 0.029934 0.007738 0.019083 0.029934 -0.022185 -0.071509 -0.2425 
0.050814 0.058049 -0.0077169 0.015137 -0.0036066 -0.030735 -0.12363 -0.27752 
0.2657 0.061995 -0.027282 -0.036983 -0.026624 -0.043395 -0.11261 -0.11311 
0.25863 0.068407 -0.026296 -0.027282 0.017438 -0.015609 -0.078908 0.0042853 
0.25222 0.094384 -0.0014692 0.0052718 0.054596 0.062159 -0.080881 0.044896 
0.24614 0.085506 0.011848 0.0227 0.076956 0.10244 -0.07266 0.11115 
0.2052 0.08863 0.029441 0.052294 0.093562 0.11642 0.00050378 0.22378 
0.093562 0.097508 0.040785 0.04917 0.074326 0.087808 0.082875 0.29957 
-0.089595 0.043416 0.025001 0.022864 0.0037921 -0.026296 0.10524 0.28724 
-0.12626 0.024179 0.025824 0.00297 -0.015773 -0.085649 0.039799 0.21145 
0.028619 0.040456 0.019411 -0.023994 -0.082525 -0.14533 -0.097651 0.0072447 
0.026481 0.027632 -0.0029489 -0.039449 -0.10258 -0.27094 -0.18117 -0.2596 
-0.14763 -0.017253 0.00297 -0.07414 -0.075127 -0.22951 -0.16555 -0.58382 
-0.12462 -0.048327 -0.026624 -0.01232 -0.032379 -0.034188 0.038319 -0.63463 
0.069064 0.017438 -0.0022913 0.023851 0.041278 0.2052 0.34265 -0.25401 
0.18678 0.073997 0.034866 0.046375 0.12891 0.36254 0.48174 0.19188 
0.18629 0.11231 0.043745 0.10211 0.13631 0.35547 0.3364 0.31881 
0.18826 0.16459 0.069229 0.070215 0.098659 0.18613 0.1419 0.27639 
0.16163 0.1396 0.067256 0.06183 0.032236 -0.016924 -0.11015 0.16969 
0.030427 0.03651 0.01711 -0.011334 0.0044497 -0.030077 -0.27259 0.073997 
-0.017088 -0.0064016 0.013986 -0.008539 0.023522 -0.00064712 -0.24118 0.033387 
-0.024158 0.0324 0.042758 0.020233 0.010204 -0.056712 -0.22195 -0.05178 
0.089945 0.091589 0.068242 0.02122 -0.014458 -0.13316 -0.2111 -0.2231 
0.31963 0.12085 0.058542 0.043251 0.0013258 -0.10604 -0.18002 -0.26437 
0.4658 0.1271 0.032729 0.017438 0.038648 -0.015444 -0.096829 -0.11491 
0.38194 0.089287 0.010697 0.041772 0.092576 0.10852 -0.025967 0.034044 
-0.064275 -0.031886 -0.018733 0.026481 0.057227 0.096686 0.029112 0.043416 
-0.32273 -0.036654 -0.060987 -0.022679 0.015465 0.072188 0.11724 0.082053 
-0.437 -0.076771 -0.076277 -0.031721 -0.023665 0.053774 0.13417 0.31223 
-0.46692 -0.10669 -0.056877 -0.06855 -0.041586 -0.080059 0.033715 0.33624 
-0.44407 -0.080552 -0.030735 -0.014622 -0.0029489 -0.084991 0.0072447 0.27212 
-0.40658 0.043416 0.027139 0.018096 0.053938 0.024179 0.089616 0.069558 
-0.59829 -0.029748 0.013492 -0.018404 0.024344 0.093398 0.15374 -0.18413 
-0.71979 -0.068879 0.0090533 0.014479 0.018096 0.18202 0.2976 -0.16046 
-0.40905 -0.0034422 0.057391 0.070051 0.058213 0.24548 0.35219 -0.12281 
0.16722 0.069064 0.10951 0.11346 0.054925 0.072188 0.19862 -0.11853 
0.55688 0.097508 0.09685 0.075312 0.0051074 -0.2106 0.031085 -0.10719 
0.81567 0.15489 0.08567 0.033058 -0.01939 -0.13645 0.12381 0.16755 
0.77868 0.17429 0.068571 0.05065 0.0016547 0.042923 0.27047 0.26965 
0.45856 0.095535 0.051143 0.037168 0.03651 0.21885 0.29793 0.21671 
0.23003 0.073668 0.037497 0.073997 0.082546 0.3073 0.19435 0.12809 
0.15999 0.098166 0.05213 0.069064 0.12135 0.27146 0.14256 0.11263 
0.068571 0.073175 0.075312 0.066927 0.093726 0.14174 0.074819 0.12973 
-0.011334 0.027303 0.052623 0.07449 0.055254 -0.018733 -0.027775 0.1613 
-0.18101 -0.011334 0.033058 0.034044 0.030756 -0.13349 -0.26108 -0.018733 
-0.43733 -0.060165 0.0044497 0.034866 0.0324 -0.18643 -0.38061 -0.23954 
-0.52085 -0.099953 -0.027447 -0.038133 -0.0049219 -0.17838 -0.31303 -0.20353 
-0.44391 -0.1085 -0.051615 -0.02942 -0.042901 -0.17164 -0.1912 -0.025967 
-0.43289 -0.075949 -0.039284 0.0014903 -0.015609 -0.076277 -0.088773 0.11888 
-0.45673 -0.025967 -0.0072237 0.045553 0.0080668 0.039963 -0.0088678 0.1659 
-0.30465 0.055254 0.029769 0.028454 0.0019835 -0.0039354 0.029441 0.022371 
-0.028762 0.068078 -0.0059084 0.0064227 -0.050629 -0.068386 0.059364 -0.10258 
0.19895 0.051636 0.028947 0.015794 0.0026412 0.032071 0.17577 -0.029748 
0.40348 0.078929 0.029605 0.028125 0.046211 0.17708 0.25946 0.11658 
0.37438 0.086821 0.06479 0.077285 0.069064 0.20635 0.26537 0.29365 
0.28247 0.10737 0.11115 0.12924 0.075641 0.086328 0.16837 0.33969 
0.2024 0.10244 0.16311 0.10178 0.034702 -0.1085 0.0024767 0.21885 
0.034537 0.049006 0.09126 0.048348 -0.038627 -0.28903 -0.13777 0.012013 
-0.17838 -0.0090322 0.010533 -0.016595 -0.11393 -0.22589 -0.15914 -0.17772 
-0.2841 -0.018568 0.00297 -0.026953 -0.030406 0.060186 0.061008 -0.17016 
-0.29413 0.040128 0.039141 0.072024 0.11461 0.34692 0.2292 -0.2009 
-0.042573 0.12694 0.077449 0.091918 0.22131 0.50427 0.22164 -0.20879 
0.16262 0.11625 0.098494 0.13023 0.22345 0.48043 0.078436 -0.11311 
0.27688 0.075805 0.058871 0.094713 0.16097 0.30648 -0.016924 0.12891 
0.2583 0.015137 0.021549 0.035031 0.049335 0.0090533 -0.18331 0.2588 
0.10721 -0.013143 -0.027118 -0.039613 -0.052273 -0.30843 -0.38784 0.12546 
-0.11607 -0.030242 -0.091897 -0.13053 -0.11343 -0.40116 -0.44358 -0.15618 
-0.35825 -0.05441 -0.038627 -0.10521 -0.10439 -0.34049 -0.31961 -0.49487 
-0.12856 0.055089 0.08419 -0.032215 -0.03057 -0.24908 -0.13547 -0.14122 
0.43702 0.16015 0.12513 0.010533 0.024837 -0.12922 0.075641 0.50904 
0.75023 0.17791 0.10754 0.082875 0.056404 0.0090533 0.22476 0.69943 
0.95082 0.2001 0.08304 0.077778 0.041278 0.1225 0.39477 0.57497 
0.79462 0.17133 0.059364 0.11411 -0.019226 0.090109 0.39016 0.35909 
0.34035 0.15028 0.10951 0.11132 -0.031228 0.05213 0.28346 0.087972 
-0.16473 0.10672 0.079258 0.09833 0.0065871 0.030263 0.12644 -0.2693 
-0.56064 -0.0072237 -0.024323 0.021713 -0.019061 -0.079401 -0.095349 -0.73278 
-0.60733 -0.063124 -0.086307 -0.050958 -0.030406 -0.0042642 -0.062467 -0.83653 
-0.76517 -0.12577 -0.098144 -0.043395 -0.021363 0.085012 -0.023829 -0.70467 
-0.88141 -0.1205 -0.072003 -0.034023 -0.006566 0.056898 -0.051615 -0.37304 
-0.67704 -0.08384 -0.014787 0.054103 0.031249 0.087972 0.020562 0.049006 
-0.27226 -0.038462 0.03536 0.086163 0.091425 0.09833 0.13812 0.30253 
0.30105 0.060186 0.1368 0.13171 0.13105 0.09126 0.1197 0.43817 
0.87667 0.18678 0.17643 0.20767 0.15374 0.094877 0.067585 0.42946 
1.1106 0.23973 0.14913 0.17955 0.19977 0.11691 0.049006 0.47582 
0.85052 0.21178 0.054267 0.11872 0.16788 0.058049 -0.10554 0.40907 
0.39921 0.13072 -0.025638 -0.054082 0.01974 -0.10143 -0.31155 0.097837 
0.030592 -0.013143 -0.058521 -0.16013 -0.10571 -0.18808 -0.28327 -0.1182 
-0.13366 -0.028762 -0.045039 -0.13399 -0.1108 -0.18216 -0.035174 -0.051122 
-0.10423 0.037004 -0.013307 -0.090746 -0.067564 -0.14073 0.058213 0.0037921 
-0.020706 0.030427 -0.0029489 -0.014458 -0.073154 -0.13349 0.05213 -0.051615 
0.0031344 0.049335 -0.0029489 -0.03353 -0.05885 -0.14813 0.012999 -0.050464 
0.0227 0.050979 0.023686 0.0014903 -0.052766 -0.062467 0.070873 -0.032215 
0.082217 0.094384 0.095042 0.033387 -0.022843 0.058871 0.13647 0.066105 
0.092904 0.094055 0.071531 0.077285 0.054925 0.21671 0.21079 0.10096 
0.13138 0.10524 0.075312 0.13598 0.10885 0.26587 0.24252 0.12381 
0.092411 0.047362 -0.0004827 0.040128 0.073997 0.17643 0.1294 0.039799 
-0.0039354 -0.0049219 0.00297 -0.0024557 0.052787 0.026974 -0.033037 -0.03353 
-0.0057439 0.011191 0.0080668 0.023193 0.01974 -0.076771 -0.11212 -0.070852 
0.027303 0.044567 0.022864 0.0092177 0.0079024 -0.04323 -0.076277 -0.073976 
0.018754 0.048184 0.013821 0.031907 0.029441 -0.015773 0.019905 -0.029255 
0.034866 0.052459 0.021713 0.043251 0.0689 0.063803 0.14552 0.052952 
0.097672 0.05476 0.033387 0.025166 0.064461 0.092082 0.24236 0.17593 
0.2006 0.060186 -0.0027845 0.013492 0.057391 0.089616 0.29826 0.29546 
0.13269 0.038812 0.031907 0.033222 0.026646 0.045718 0.21062 0.28132 
0.056733 0.07301 0.073339 0.055911 0.031578 0.018918 0.12233 0.13861 
0.084848 0.099974 0.063145 0.042429 0.10343 0.044402 0.048677 0.084848 
0.082217 0.079094 0.048841 0.080409 0.088136 0.010369 -0.049971 0.062817 
0.08008 0.03388 0.01415 0.050814 0.060186 0.025001 -0.11031 0.096028 
0.026152 -0.0091966 -0.019884 -0.01676 0.0093821 -0.0019624 -0.13037 -0.031557 
-0.14007 -0.09091 -0.018897 -0.053588 -0.047341 -0.031392 -0.19877 -0.18348 
-0.15947 -0.096336 -0.0039354 -0.061809 -0.067892 -0.03205 -0.2836 -0.20222 
-0.071509 -0.050629 0.036017 0.0026412 -0.027611 -0.028597 -0.25828 -0.15799 
0.028454 0.013821 0.041936 -0.011992 -0.024652 -0.053753 -0.27933 -0.075291 
0.041443 0.064461 0.060186 0.0079024 -0.0096899 -0.055726 -0.23609 0.0060938 
0.056569 0.13598 0.10113 0.041278 0.030263 -0.012156 -0.20386 0.094055 
0.17215 0.18942 0.088958 0.037661 0.085012 0.10425 -0.070359 0.1636 
0.24367 0.16196 0.074161 0.073339 0.12299 0.21145 0.06742 0.17199 
0.087479 0.048184 -0.0039354 0.020233 0.094548 0.20405 0.10096 0.050814 
-0.10045 -0.063453 -0.067399 -0.01939 0.073175 0.17593 0.040128 -0.02498 
-0.1279 -0.023007 -0.0031133 0.01974 0.054596 0.14831 -0.0082102 -0.10752 
-0.13284 0.0095465 0.03947 0.040292 0.060022 0.12562 0.090603 -0.11607 
-0.095349 0.0052718 0.057062 0.056898 0.06331 0.13499 0.19731 0.027961 
-0.066741 0.032893 0.039141 0.031578 0.063474 0.10902 0.17232 0.14881 
-0.0503 0.03092 0.027796 0.020233 0.0044497 -0.03616 0.01415 0.14897 
-0.0073881 -0.0039354 0.0098754 -0.034516 -0.059672 -0.13925 -0.039778 0.068078 
0.35745 0.054432 0.025824 -0.049807 -0.063946 -0.11541 0.054432 0.032071 
0.51676 0.094877 0.071202 0.023357 0.02122 0.042758 0.1636 0.04654 
0.19254 0.057062 0.051308 0.018096 0.10902 0.26324 0.20997 0.17429 
-0.19992 0.046046 0.084026 0.072353 0.1008 0.31667 0.21046 0.13828 
-0.35183 0.057227 0.1128 0.047691 0.091096 0.24318 0.19796 0.069393 
-0.23444 0.040785 0.066269 0.06183 0.076463 0.16031 0.12053 0.072681 
-0.035503 0.08419 0.080573 0.085012 0.080738 0.073504 0.041443 0.085177 
0.036017 0.0786 0.035688 0.047526 0.063474 -0.011005 -0.12396 0.055911 
-0.0073881 -0.01939 -0.017088 0.039141 0.031085 -0.082032 -0.15207 -0.024487 
-0.031557 -0.060165 -0.033694 -0.0036066 -0.0067304 -0.045368 -0.12659 -0.095349 
-0.057041 -0.050958 -0.030242 -0.0032777 1.0539e-005 -0.031557 -0.036818 -0.1649 
0.033551 -0.028762 0.0080668 0.012999 -0.013143 -0.053753 0.017274 -0.23 
0.051801 0.0227 0.073504 0.042429 0.012506 -0.038791 0.068407 -0.2009 
0.014808 0.074654 0.1105 0.078765 0.028619 -0.06444 0.095535 -0.041257 
-0.038298 0.10458 0.076463 0.024837 -0.0068948 -0.073647 0.090438 0.024673 
-0.0055795 0.098659 0.043745 0.0098754 0.015794 0.070544 0.11395 0.12431 
-0.17805 0.071859 0.017603 -0.0016336 0.012013 0.13993 0.14141 0.11691 
-0.2864 0.064954 0.034702 0.01711 0.027303 0.12217 0.1493 0.14091 
-0.15141 0.090603 0.06035 0.094055 0.063803 0.12529 0.1539 0.17248 
0.43752 0.13401 0.084026 0.098988 0.088958 0.090931 0.17856 0.20191 
0.68825 0.072846 0.046375 0.068407 0.04917 0.005765 0.13828 0.17478 
0.11642 -0.03353 -0.0019624 0.038483 -0.0036066 -0.049807 0.088794 0.064625 
-0.51115 -0.15043 -0.031228 -0.013143 -0.044546 -0.11343 0.00050378 -0.05885 
-0.43256 -0.17525 -0.036983 -0.025802 -0.079566 -0.17246 -0.063618 -0.17262 
-0.042573 -0.062467 -0.010348 -0.042244 -0.080059 -0.095843 -0.054904 -0.14928 
0.18333 0.062817 0.065118 0.047855 0.033222 0.059693 0.041607 0.0031344 
0.19172 0.14831 0.10869 0.067749 0.17528 0.22049 0.037661 0.13154 
0.17988 0.20536 0.091096 0.12135 0.20355 0.37109 0.019083 0.13795 
0.21654 0.21474 0.071202 0.10984 0.17528 0.30187 0.017767 0.16015 
0.24548 0.16459 0.028454 0.042429 0.087808 0.15571 0.0080668 0.1054 
0.21967 0.10819 -0.021528 0.041772 -0.0083746 -0.045696 -0.076442 -0.024158 
0.13532 0.041278 -0.034681 -0.03501 -0.056548 -0.35644 -0.27867 -0.18759 
0.018425 0.0018191 -0.03912 -0.058192 -0.13168 -0.54288 -0.37091 -0.2596 
-0.079401 -0.031557 -0.041257 -0.05737 -0.11541 -0.4883 -0.22014 -0.25598 
-0.17295 -0.04619 -0.045203 -0.046847 -0.042901 -0.29659 0.12513 -0.044052 
-0.15454 -0.056219 -0.018239 0.050157 0.038812 -0.065262 0.44146 0.085012 
-0.12133 -0.018733 0.03388 0.039799 -0.0062372 0.17133 0.74629 0.050486 
-0.2106 0.066269 0.12398 0.090274 0.0069159 0.35843 0.90823 0.12628 
-0.24595 0.16656 0.19024 0.15538 0.030427 0.28872 0.61295 0.19533 
-0.0078813 0.25962 0.25403 0.21227 0.1225 0.20438 0.097672 0.23792 
0.32391 0.22624 0.15456 0.1807 0.12957 0.24351 -0.22606 0.20931 
0.41137 0.15949 0.063803 0.071202 0.12612 0.33541 -0.36367 0.22493 
0.24614 0.0075736 -0.05441 -0.042737 0.062488 0.29957 -0.4541 0.28494 
0.047691 -0.15651 -0.17246 -0.18265 -0.056877 0.033222 -0.50622 0.1659 
-0.24234 -0.1935 -0.20353 -0.21044 -0.14813 -0.23773 -0.51855 -0.090417 
-0.42105 -0.1307 -0.11607 -0.085649 -0.11541 -0.49767 -0.43947 -0.20386 
-0.28804 -0.063618 -0.056548 -0.041422 -0.018075 -0.60964 -0.60076 -0.46413 
-0.091568 -0.066084 -0.010676 0.010862 0.053609 -0.38718 -0.39524 -0.54831 
0.026481 -0.010512 0.047526 0.094384 0.1271 0.11559 0.25354 -0.16342 
0.11198 0.081067 0.11165 0.19501 0.18744 0.47928 0.96019 0.17643 
0.20372 0.23298 0.1613 0.17692 0.15735 0.44903 1.1724 0.35761 
0.34084 0.32473 0.18415 0.14091 0.071037 0.12349 0.91202 0.41614 
0.44919 0.32259 0.17248 0.15785 0.019083 -0.13218 0.57513 0.36534 
0.27886 0.20092 0.10836 0.064954 -0.022021 -0.21537 0.11757 0.27672 
0.029276 0.0069159 0.0075736 -0.0075525 -0.034023 -0.095678 -0.26979 0.090767 
-0.070194 -0.09387 -0.068879 -0.034681 -0.07973 -0.08384 -0.39277 -0.10028 
-0.20896 -0.12034 -0.033201 -0.065919 -0.1279 -0.13349 -0.27555 -0.22261 
-0.36449 -0.090417 0.014315 -0.076113 -0.17756 -0.16095 -0.11459 -0.145 
-0.21751 0.047033 0.05476 -0.045696 -0.057205 -0.031557 0.060844 0.094055 
-0.036654 0.1271 0.078107 0.02681 0.090603 0.14667 0.10491 0.18613 
0.025988 0.10967 0.04358 0.047362 0.16114 0.19533 0.05476 0.057884 
0.00050378 0.064132 -0.014951 0.025659 0.17412 0.19632 -0.00097594 -0.084498 
-0.10439 0.0011614 -0.040435 0.051308 0.1442 0.18843 0.020891 -0.18528 
-0.05589 0.037332 0.030427 0.067091 0.11658 0.19287 0.059035 -0.11113 
0.20076 0.10491 0.078107 0.098823 0.11477 0.16706 0.13253 0.13384 
0.35219 0.10672 0.054103 0.063145 0.052952 0.12365 0.08567 0.32128 
0.38112 0.036839 0.0087245 -0.0091966 -0.034516 -0.031886 -0.081539 0.39954 
0.32966 -0.021199 -0.0068948 -0.0064016 -0.10521 -0.26026 -0.3326 0.39493 
0.2754 0.036675 -0.001798 -0.021692 -0.095843 -0.34411 -0.43421 0.30007 
0.21769 0.025166 0.0052718 0.0080668 -0.057699 -0.19137 -0.30695 0.13302 
-0.0042642 -0.013307 0.0083956 -0.0034422 -0.049807 -0.13974 -0.33885 -0.16802 
-0.31468 -0.025145 0.036017 -0.0095255 -0.077593 -0.24382 -0.5853 -0.59517 
-0.51608 -0.067564 0.061501 0.0052718 -0.10242 -0.14878 -0.47054 -0.83899 
-0.5493 -0.05441 0.077614 -0.0016336 -0.029091 0.10885 0.12266 -0.80068 
-0.33375 -0.025967 0.013328 0.015301 0.056569 0.35827 0.57628 -0.28064 
-0.020706 0.069064 0.020562 0.043087 0.21852 0.52778 0.86318 0.45971 
0.10737 0.086821 0.058049 0.11576 0.35416 0.52548 0.94293 0.94638 
0.29957 0.069558 0.053281 0.13072 0.31552 0.42814 0.86976 1.0102 
0.53863 0.086657 0.018589 0.084355 0.14585 0.25107 0.5092 0.58615 
0.55474 0.13121 0.08419 0.12349 0.075805 0.10819 0.096193 0.21556 
0.42321 0.16755 0.10145 0.090603 0.021056 0.018754 -0.25352 0.049664 
0.25123 0.17593 0.058706 0.0088889 -0.080881 -0.12642 -0.57889 -0.20863 
-0.022185 0.094384 0.0095465 -0.056712 -0.18134 -0.37896 -0.81334 -0.59615 
-0.4324 -0.039613 -0.029748 -0.12873 -0.23625 -0.58711 -0.92827 -0.73969 
-0.68444 -0.18134 -0.14911 -0.17969 -0.25417 -0.66619 -0.8819 -0.72851 
-0.50918 -0.20633 -0.19811 -0.19679 -0.19087 -0.74117 -0.85231 -0.55357 
-0.13925 -0.15207 -0.10127 -0.063289 -0.085813 -0.63791 -0.69497 -0.17345 
0.16771 0.018425 0.044073 0.059035 0.1322 -0.063124 -0.059178 0.32128 
0.53189 0.27294 0.19237 0.2024 0.31634 0.7134 0.80926 0.69351 
0.67575 0.35301 0.25962 0.29908 0.38737 1.2371 1.4163 0.70929 
0.51676 0.32341 0.24334 0.27146 0.31815 1.1923 1.4043 0.50805 
0.27376 0.22493 0.17117 0.21901 0.16442 0.72179 0.8331 0.33344 
-0.018075 0.067585 0.057555 0.033387 -0.017088 0.075805 0.14486 0.20208 
-0.1649 -0.075784 -0.0072237 -0.11459 -0.19778 -0.30004 -0.35019 -0.022185 
-0.053917 -0.15043 -0.087129 -0.13136 -0.17361 -0.3298 -0.52463 -0.35036 
0.18826 -0.13267 -0.084334 -0.088444 -0.080881 -0.24793 -0.55521 -0.62312 
0.26274 -0.067235 -0.03057 0.035524 0.072353 -0.11705 -0.48698 -0.56442 
0.20043 0.022535 -0.013143 0.044238 0.15176 -0.016431 -0.19498 -0.23559 
-0.032379 0.10113 -0.0039354 0.028947 0.095699 0.01415 0.035031 -0.046683 
-0.29232 0.056076 -0.03205 0.020727 0.02681 -0.027447 0.03092 -0.0090322 
-0.45098 -0.018404 -0.034188 -0.022021 -0.055232 -0.076277 -0.029913 -0.014951 
-0.40264 -0.031557 -0.051944 -0.029584 -0.10604 -0.14993 -0.064111 -0.023172 
-0.21915 0.047033 -0.014458 -0.067892 -0.15355 -0.1552 -0.011663 0.072024 
0.088958 0.12053 0.027139 -0.028926 -0.077264 -0.049478 0.099316 0.23266 
0.29678 0.098988 0.02681 0.039634 0.040785 0.067091 0.12299 0.23973 
0.30204 0.10129 0.034537 0.042594 0.10441 0.067091 -0.0014692 0.1225 
0.21934 0.057555 0.089452 0.11148 0.11214 0.10491 0.049992 -0.048163 
0.24597 0.069558 0.13171 0.11329 0.1345 0.16508 0.15193 -0.095185 
0.32818 0.075148 0.12398 0.15768 0.16853 0.21506 0.29776 -0.032543 
0.2736 0.0090533 0.090767 0.095535 0.09685 0.21638 0.31273 0.074326 
0.21885 -0.022021 0.0592 0.02681 0.0079024 0.10392 0.24959 0.11494 
0.20405 0.013492 0.039305 0.050321 -0.035174 0.012013 0.16163 0.15028 
0.16952 0.058377 0.06331 0.041443 -0.033037 -0.032215 0.10754 0.16393 
0.034537 0.10047 0.050486 0.062159 -0.016595 -0.080881 0.080738 0.16294 
-0.24529 0.073339 -0.011334 -0.029255 -0.063289 -0.092554 0.027139 0.089452 
-0.52381 0.048513 -0.052766 -0.046683 -0.029584 -0.056877 -0.042737 -0.025802 
-0.49981 0.075312 -0.011498 -0.00097594 0.027796 -0.039449 -0.12577 -0.074798 
-0.35249 0.089123 0.023851 0.00066819 0.01415 -0.076113 -0.19679 -0.12133 
-0.21175 0.028947 0.03092 1.0539e-005 -0.048985 -0.10045 -0.25121 -0.081539 
0.029934 0.012835 0.020562 -0.0087034 -0.050136 -0.08532 -0.19252 0.019083 
0.27129 -0.023665 0.010533 -0.012814 -0.018733 -0.015116 -0.054246 0.14256 
0.38112 -0.050464 0.019247 0.0037921 -0.015444 -0.028926 0.0039565 0.14354 
0.33147 -0.051451 -0.0052507 -0.0047575 -0.013307 -0.025802 0.037004 0.12579 
0.21967 -0.029913 -0.0036066 0.017767 0.086492 0.12332 0.16903 0.069229 
0.039634 0.037168 0.016123 0.03651 0.10458 0.171 0.10376 -0.17032 
-0.088608 0.12266 0.045389 0.080573 0.081395 0.082217 -0.11261 -0.24727 
-0.023829 0.070215 0.06742 0.057555 0.0082312 -0.042408 -0.18693 0.021549 
0.013657 0.0051074 0.065776 0.028454 -0.066248 -0.11607 -0.16884 0.12891 
-0.047998 -0.025474 0.024508 0.0069159 -0.11343 -0.19186 -0.20781 0.087643 
-0.0771 -0.024158 -0.0027845 -0.021856 -0.048985 -0.18446 -0.15848 0.037332 
-0.06444 -0.024652 0.014808 0.032564 0.046211 -0.10669 0.023357 0.11559 
0.020069 0.035195 0.067091 0.045389 0.043087 -0.05326 0.16969 0.17577 
-0.0095255 0.075476 0.086328 0.060186 0.016781 0.030263 0.24811 0.16278 
-0.041586 0.097179 0.076134 0.082382 0.062323 0.17363 0.34413 0.17922 
-0.11623 0.030756 0.055911 0.034537 0.099316 0.25617 0.27738 0.10293 
-0.1381 -0.0047575 -0.0016336 0.019411 0.077943 0.19139 0.13894 0.10113 
-0.093376 -0.0064016 -0.045532 -0.012649 0.018589 0.055911 -0.011663 0.15341 
-0.030077 -0.008539 -0.036489 -0.054739 -0.021363 -0.02646 -0.10242 0.096521 
0.052952 0.038977 -0.012814 0.0095465 -0.0096899 -0.071838 -0.19531 -0.0014692 
0.036839 0.085999 0.033387 0.023193 0.054432 -0.043888 -0.24316 -0.036983 
-0.021363 0.072353 0.067256 0.06742 0.12891 0.048841 -0.1524 -0.02087 
-0.050629 0.083368 0.096686 0.10129 0.24186 0.23381 0.068736 0.018918 
-0.12248 0.095864 0.096193 0.11757 0.27919 0.3027 0.14585 -0.0138 
-0.37255 0.080902 0.075641 0.13401 0.22378 0.20553 0.17478 -0.0049219 
-0.33523 0.079422 0.044731 0.086163 0.13582 0.16163 0.24433 0.13368 
-0.13826 0.069393 0.021878 0.036182 -0.0088678 0.18054 0.3466 0.25403 
0.47566 0.11592 -0.0083746 -0.062302 -0.12642 0.069558 0.3392 0.24893 
1.1146 0.11872 -0.023829 -0.10587 -0.10932 -0.095349 0.19583 0.15094 
0.92073 0.059528 -0.014129 -0.02942 0.012835 -0.081539 0.0069159 0.076134 
0.23775 0.015301 0.025166 0.042429 0.12973 -0.17312 -0.1455 0.064625 
-0.32356 -0.092719 0.0023123 0.08156 0.068736 -0.31007 -0.23707 -0.086307 
-0.46216 -0.073482 0.033715 0.039963 -0.014458 -0.19334 -0.10637 -0.15043 
-0.30021 0.042758 0.096028 0.057391 -0.051287 0.018589 0.13105 -0.094363 
-0.031557 0.13105 0.14617 0.07038 -0.094856 0.13483 0.27244 0.076463 
0.12661 0.13779 0.1128 0.066763 -0.080388 0.17462 0.32193 0.12891 
0.23019 0.1567 0.055911 0.083368 -0.016431 0.17626 0.30072 0.16015 
0.20487 0.23742 0.061008 0.028619 0.049006 0.14502 0.20027 0.1345 
0.20175 0.21769 0.030098 0.029605 0.079094 0.14996 0.07301 0.11658 
0.1733 0.18103 0.0032988 -0.016266 0.10096 0.14519 0.072681 0.12233 
0.033551 0.10491 -0.051287 -0.041751 0.10672 0.15292 0.089287 0.052787 
-0.095514 0.062159 -0.034188 0.010204 0.18892 0.20076 0.018589 -0.10127 
-0.15503 0.035853 0.045718 0.097179 0.27672 0.24449 -0.022514 -0.088115 
-0.15503 0.035688 0.086985 0.15045 0.28445 0.25074 0.0065871 0.0090533 
-0.016924 0.029112 0.068242 0.094877 0.21457 0.11313 -0.0039354 -0.0044286 
0.084355 0.013657 0.027139 0.064461 0.094877 -0.044381 -0.051615 -0.0057439 
0.15966 -0.026953 0.046375 0.066763 0.03799 -0.11705 -0.036489 0.016452 
0.19007 0.016781 0.015465 0.041607 0.053609 -0.059507 0.0080668 0.13335 
0.18514 0.034373 0.043745 0.090438 0.13532 0.091425 0.20454 0.17708 
0.10737 0.025166 0.049664 0.063639 0.14831 0.20306 0.30681 -0.052931 
0.031249 0.066269 0.052952 0.054925 0.0098754 0.18169 0.20421 -0.16111 
0.060022 0.099974 0.042923 0.026974 -0.10719 -0.028104 0.046046 -0.13464 
0.029276 0.051143 -0.02235 -0.068057 -0.22622 -0.25253 -0.074798 -0.056877 
-0.018239 -0.026624 -0.058356 -0.072496 -0.25615 -0.27538 -0.076277 0.034866 
0.036675 0.042923 -0.031557 -0.063453 -0.13053 -0.17197 -0.16243 0.030098 
0.15341 0.092904 0.064296 0.030098 0.059857 0.017603 -0.206 0.005765 
0.19353 0.12677 0.096193 0.085835 0.11231 0.11905 -0.078579 0.075476 
0.095699 0.098494 0.082217 0.049828 0.046046 0.095371 0.034373 0.074654 
0.06594 0.078436 0.071695 0.055747 0.060515 0.20701 0.15094 0.16673 
-0.0014692 0.055418 0.016945 0.013164 0.08978 0.33459 0.21441 0.15259 
-0.12494 0.03092 0.0070803 0.038648 0.1054 0.3655 0.17577 0.11263 
-0.21833 0.02681 0.018096 0.031578 0.077943 0.24153 0.096521 0.056569 
-0.22573 0.00083261 0.013328 0.021878 0.0227 -0.021692 -0.11278 -0.058028 
-0.18068 -0.022185 -0.0077169 0.013164 -0.006566 -0.27703 -0.30958 -0.10752 
-0.027282 -0.011005 -0.043066 -0.015116 -0.010841 -0.41201 -0.39935 -0.15388 
0.078929 -0.038627 -0.043724 0.016123 -0.009361 -0.41069 -0.43832 -0.21126 
0.058213 -0.097487 -0.0083746 -0.014951 -0.045861 -0.40034 -0.34624 -0.24645 
-0.024816 -0.091897 0.020727 -0.035996 -0.10045 -0.2374 -0.020541 -0.13004 
-0.075784 -0.047669 0.038155 -0.032543 -0.17049 -0.0080457 0.36156 -0.030735 
-0.014622 0.083368 0.14174 0.023686 -0.12379 0.14289 0.54225 0.14585 
0.083533 0.18711 0.18843 0.12875 0.00083261 0.20964 0.49818 0.26422 
0.10096 0.19649 0.13384 0.078107 0.016616 0.20372 0.3683 0.27853 
0.035524 0.061008 0.0075736 -0.010512 -0.03205 0.041278 0.026481 0.1031 
-0.030735 -0.043395 -0.056712 -0.027282 0.011848 -0.033037 -0.4227 -0.1769 
-0.074798 -0.0138 -0.040106 -0.027775 0.07597 0.14239 -0.6223 -0.29067 
-0.13991 -0.03205 -0.030242 0.01267 0.090767 0.23874 -0.59582 -0.19729 
-0.16638 -0.085485 -0.065262 -0.024487 0.011026 0.13647 -0.40428 -0.090746 
-0.073482 -0.044052 -0.061973 -0.06444 -0.053753 -0.13399 -0.27933 0.024344 
-0.010019 -0.033365 -0.047834 -0.05885 -0.10965 -0.52315 -0.25105 0.12513 
0.093069 -0.0054151 -0.010841 -0.038956 -0.083676 -0.58777 -0.12807 0.13878 
0.11115 -0.0049219 0.027303 0.023686 -0.055232 -0.34296 0.019083 0.086163 
0.092411 0.075805 0.093233 0.066598 0.063474 0.15735 0.45774 0.086657 
0.22148 0.12579 0.15735 0.16771 0.16656 0.53649 0.83375 0.039305 
0.23249 0.084355 0.11247 0.14486 0.042429 0.39707 0.87502 -0.026296 
0.08567 0.045882 0.057884 0.031578 -0.16457 -0.10242 0.46629 -0.0050863 
-0.03764 0.0014903 0.015465 -0.016924 -0.21866 -0.40691 0.024344 -0.033859 
-0.13662 0.043251 0.023686 -0.043724 -0.15585 -0.42072 -0.23461 -0.061809 
-0.16523 0.066598 0.05624 1.0539e-005 0.039141 -0.20551 -0.30679 -0.11475 
-0.02498 0.11132 0.058871 0.057391 0.13483 0.11214 -0.12182 -0.020212 
-0.011992 0.082053 0.05213 0.064132 0.13483 0.29135 0.068571 -0.012649 
0.020233 0.055254 0.038483 0.020562 0.048348 0.19254 0.042758 -0.064768 
0.28494 0.096028 0.042429 -0.044874 -0.047998 0.043745 0.024837 0.060515 
0.4362 0.092904 0.026152 -0.032543 -0.1404 -0.092061 0.00099702 0.22624 
0.36041 0.08008 0.031249 -0.01232 -0.062302 -0.080881 -0.061809 0.33805 
0.14058 0.094384 0.020233 0.020727 0.077121 0.11083 -0.078579 0.3073 
-0.020706 0.093726 0.059364 0.10935 0.14009 0.21112 -0.05326 0.28395 
-0.072496 0.043087 0.076956 0.098494 0.10491 0.1271 -0.003771 0.26488 
-0.033859 0.00297 0.018754 0.061008 0.029112 0.096028 0.076792 0.21095 
-0.024652 -0.011992 -0.041751 -0.026296 -0.038133 0.062159 0.12332 0.093069 
-0.19137 -0.049478 -0.040106 -0.047012 -0.075784 -0.10669 0.013821 -0.12725 
-0.33276 -0.077757 -0.03764 -0.029913 -0.029584 -0.25039 -0.047012 -0.25204 
-0.16654 0.023851 -0.0082102 0.020233 0.14239 -0.072989 -0.032872 -0.22458 
-0.025638 0.057062 0.030592 0.094055 0.2463 0.11987 0.045553 -0.1769 
-0.28377 0.023522 0.058377 0.082875 0.17199 0.099974 0.15818 -0.19729 
-0.43519 0.026317 0.087479 0.13121 0.13762 0.08419 0.24088 -0.031228 
-0.29149 0.049992 0.11231 0.12628 0.10244 0.058542 0.19122 0.053445 
-0.050793 0.10984 0.11099 0.10425 0.031085 -0.06855 0.056404 0.079094 
0.23841 0.17577 0.071695 0.027961 0.037497 -0.077428 -0.053917 -0.022021 
0.87979 0.19665 0.020233 -0.052766 0.11658 0.06183 -0.11837 -0.10637 
1.1567 0.15851 -0.021692 -0.0026201 0.094055 0.11083 -0.15898 -0.12873 
0.53156 0.031907 -0.051287 -0.038133 -0.062138 -0.00015387 -0.16227 -0.14615 
-0.21751 -0.05885 -0.078744 -0.051944 -0.1866 -0.10686 -0.0083746 -0.062138 
-0.23872 -0.008539 0.0324 0.049992 -0.11903 -0.10061 0.17429 0.18136 
0.050321 0.16426 0.19698 0.18826 0.1008 0.15883 0.27129 0.45281 
0.10145 0.18284 0.21178 0.21441 0.24663 0.4972 0.34018 0.49654 
0.0060938 0.087808 0.12792 0.11905 0.21309 0.59946 0.28626 0.34429 
-0.051287 0.0032988 0.028619 0.030592 0.1419 0.47467 0.13894 0.12168 
-0.071838 -0.012978 -0.038627 -0.020541 0.071531 0.17478 -0.1136 -0.04471 
-0.15536 -0.015609 -0.074633 -0.060987 0.021878 -0.098473 -0.41333 -0.066741 
-0.26913 -0.056712 -0.074962 -0.045368 -0.041751 -0.26815 -0.6685 -0.14911 
-0.20995 -0.061809 -0.076771 -0.066577 0.0013258 -0.2032 -0.49751 -0.37584 
0.0052718 0.013328 -0.029091 0.0039565 0.22559 0.12201 0.0014903 -0.29873 
0.10852 0.051801 0.022371 0.069393 0.28954 0.21605 0.29579 -0.066248 
0.079916 0.044896 0.055582 0.055582 0.16853 -0.010348 0.16607 0.030098 
-0.0039354 0.065447 0.075805 0.055582 0.012342 -0.21702 0.045553 0.061501 
-0.038462 0.068078 0.074326 0.046046 -0.0050863 -0.031228 0.21095 0.13894 
-0.18413 0.023686 0.1031 0.094713 0.024673 0.17922 0.40874 0.2001 
-0.21488 -0.0087034 0.041443 0.042265 -0.023501 0.25666 0.49901 0.28017 
0.037661 0.079094 0.059857 0.091589 0.040621 0.26702 0.39033 0.22904 
0.25551 0.073339 0.059857 0.097179 0.076627 0.18251 0.057391 -0.0083746 
0.29053 0.053116 -0.0090322 -0.0083746 0.041114 0.038319 -0.25384 -0.18759 
0.17725 -0.034681 -0.077922 -0.062302 -0.051944 -0.12626 -0.39754 -0.23724 
0.12661 -0.04471 -0.076771 -0.082525 -0.069536 -0.17509 -0.37403 -0.12905 
0.09274 0.026646 -0.021856 -0.029091 -0.010512 -0.10521 -0.2739 0.042594 
0.039305 0.053774 0.01152 0.033222 0.0421 -0.0019624 -0.12988 0.15061 
-0.037311 0.074819 0.046704 0.065283 0.044731 0.11987 0.060679 0.17971 
-0.052766 0.053445 0.065447 0.080244 0.019905 0.17215 0.2246 0.12233 
0.015301 0.06479 0.055911 -0.0077169 -0.047176 0.11444 0.24301 0.03947 
0.21128 0.13762 0.069558 0.014643 -0.019061 -0.019884 0.10704 -0.038298 
0.3221 0.17265 0.10721 0.071037 0.1322 -0.082854 -0.072825 -0.053588 
0.2468 0.15423 0.088794 0.052459 0.082546 -0.092554 -0.10456 -0.030899 
0.076463 0.090274 0.0074092 0.026646 -0.020377 -0.020377 0.029769 0.025495 
-0.059836 -0.016924 -0.014951 -0.022679 -0.03912 0.034209 0.15703 0.070873 
-0.12248 -0.06296 -0.038462 -0.0087034 -0.021856 0.037168 0.21769 0.13927 
-0.084827 -0.095021 -0.051615 -0.0096899 0.0070803 -0.025967 0.1881 0.25304 
0.037004 -0.0087034 -0.022185 0.0019835 0.014808 -0.057534 0.13384 0.43538 
0.12579 0.0019835 0.0093821 0.043745 0.057062 0.019411 0.11346 0.4778 
0.12102 -0.045039 0.0064227 0.023028 0.049499 0.098823 0.14289 0.23923 
0.077943 -0.0080457 0.031249 0.070215 0.070051 0.15768 0.15999 -0.095514 
0.11494 0.09126 0.086328 0.071859 0.038483 0.14815 0.17084 -0.24645 
0.029441 0.12612 0.079751 0.051965 -0.035338 -0.00097594 0.10113 -0.20715 
-0.16358 0.10803 0.061666 0.013821 -0.054575 -0.062631 0.073175 -0.15964 
-0.30613 0.084355 0.019247 -0.0050863 -0.012156 -0.022021 0.0069159 -0.15322 
-0.22606 0.042923 0.016452 0.029276 0.032564 -0.0087034 -0.074633 -0.1741 
0.032893 0.073175 0.019083 0.040785 0.04654 -0.087622 -0.19581 -0.074469 
0.1978 0.07597 -0.017253 0.0090533 -0.013471 -0.14862 -0.21438 0.10918 
0.18284 0.064461 -0.049314 -0.021856 -0.062138 -0.13316 -0.10045 0.27787 
0.068242 0.079916 -0.024652 -0.032543 -0.063124 -0.035174 0.067256 0.32012 
0.014808 0.064296 0.025659 0.01004 -0.025638 0.047526 0.11017 0.11822 
0.16656 0.098988 0.090438 0.023522 0.010697 0.09126 0.086821 0.0072447 
0.29053 0.074983 0.10589 0.074654 0.10721 0.1026 0.043251 -0.095185 
0.20158 0.0072447 0.08567 0.085341 0.14042 0.12957 -0.0080457 -0.14665 
0.054596 -0.00015387 0.063968 0.045882 0.064132 0.084684 -0.0087034 -0.15306 
-0.093048 -0.014458 0.066598 0.027139 -0.013471 -0.015938 -0.033365 -0.076606 
-0.059836 0.0227 0.017274 0.0032988 -0.046847 -0.076606 -0.05178 0.15472 
-0.07003 0.01826 0.015137 0.01415 -0.076277 -0.15372 -0.12741 0.329 
-0.10784 -0.029255 0.0088889 0.029769 -0.014129 -0.097487 -0.096665 0.25551 
-0.037147 -0.031886 0.0044497 -0.029255 0.013986 0.06742 -0.025802 0.035195 
0.08715 0.01004 -0.017746 0.044731 0.024015 0.19122 0.08419 -0.041751 
0.18399 0.070051 -0.012978 -0.014458 -0.015116 0.13368 0.12332 -0.096994 
0.049335 0.053609 -0.032379 -0.020377 -0.0024557 -0.024158 0.074326 -0.34016 
0.024673 0.056404 -0.022021 -0.04882 -0.0138 -0.16523 -0.10127 -0.57462 
0.11263 0.068736 0.023028 -0.02942 -0.015609 -0.32092 -0.27604 -0.45032 
-0.026131 0.077121 0.082382 0.05065 0.014643 -0.27637 -0.12905 0.0023123 
-0.35183 0.083368 0.13713 0.095042 0.087643 0.049335 0.30187 0.47073 
-0.4592 0.1294 0.17791 0.18662 0.20421 0.41466 0.66013 0.58467 
-0.15766 0.15637 0.13845 0.15144 0.16294 0.44787 0.61886 0.475 
0.21375 0.18119 0.10704 0.082382 0.060844 0.19336 0.33213 0.35597 
0.37093 0.15472 0.11263 0.072517 0.057884 -0.065426 0.053609 0.29464 
0.23545 0.062981 0.046868 0.025001 0.012999 -0.14846 -0.17821 0.11609 
0.13943 -0.087293 -0.032379 -0.00015387 -0.053095 -0.10538 -0.24825 -0.046683 
0.31125 -0.085649 -0.069701 -0.052931 -0.016102 0.040128 -0.18594 -0.10587 
0.35268 0.015959 -0.075949 -0.043724 0.017932 0.10655 -0.13991 -0.23806 
0.14946 0.04654 -0.030242 -0.025638 0.0052718 0.057555 -0.14007 -0.35134 
-0.036983 0.010697 0.032236 0.010369 -0.019884 -0.050136 -0.15141 -0.43749 
-0.047012 0.028947 0.082875 0.055254 -0.035338 -0.068714 -0.10719 -0.21817 
-0.093705 0.028947 0.068571 -0.00015387 -0.10012 -0.13497 -0.095349 -0.076606 
-0.21027 0.038155 0.05772 0.024837 -0.074304 -0.19712 -0.13152 -0.17147 
-0.39458 0.018754 0.007738 0.014643 0.0064227 -0.14434 -0.014458 -0.11639 
-0.4929 -0.047505 -0.019555 -0.00064712 0.052294 0.0013258 0.081724 0.029276 
-0.30284 -0.045368 0.0032988 0.054925 0.12875 0.10228 0.12529 0.19731 
0.10918 0.016123 0.041772 0.07449 0.18004 0.17314 0.089123 0.27409 
0.44294 0.11937 0.075148 0.11559 0.18103 0.19829 0.1276 0.25798 
0.40118 0.13203 0.091589 0.097015 0.14716 0.11921 0.023028 0.12053 
0.14305 0.091753 0.059528 0.053281 0.082382 -0.0024557 -0.18298 0.048513 
-0.1501 0.095864 0.082382 0.056898 0.027632 0.027961 -0.063618 0.077449 
-0.31829 0.12776 0.11346 0.091425 0.016452 0.12595 0.36632 0.17396 
-0.4153 0.022535 0.084848 0.071202 -0.068386 -0.02498 0.40036 0.077943 
0.084355 -0.055726 -0.010676 -0.068057 -0.15602 -0.34312 0.011026 0.15653 
0.71423 0.0056006 -0.034681 -0.059343 -0.10817 -0.40872 -0.20682 0.41894 
0.58384 0.038319 0.043745 0.045718 0.021384 -0.13563 -0.058028 0.32308 
0.27179 0.054432 0.073997 0.073997 0.08008 0.24778 0.34199 0.098494 
0.073175 0.080573 0.04095 0.071037 0.051308 0.31947 0.51824 0.028125 
-0.19005 0.055089 -0.029913 -0.036818 -0.0078813 0.11181 0.2828 -0.22984 
-0.20764 0.055254 -0.015938 -0.001798 0.052623 0.16146 0.14075 -0.2596 
-0.36252 0.091096 0.067913 0.095371 0.17281 0.31157 0.21441 -0.094034 
-0.56853 0.020891 0.071859 0.076792 0.16426 0.26702 0.13171 -0.0965 
-0.2813 -0.049807 0.03092 0.058377 0.023028 0.08978 -0.099789 -0.21636 
0.049335 -0.068879 0.024673 -0.012485 -0.08269 -0.1159 -0.24217 -0.24546 
0.064461 0.020727 0.034537 -0.031557 -0.10587 -0.27259 -0.35414 -0.11886 
0.038812 0.013328 -0.004593 -0.069701 -0.069372 -0.24316 -0.33309 0.040128 
0.11625 0.00099702 -0.036325 -0.055232 0.00297 -0.13284 -0.31829 0.057884 
0.25107 0.075476 0.035853 0.084684 0.17215 0.06035 -0.2938 0.019905 
0.23315 0.15028 0.12201 0.15818 0.22575 0.20503 -0.14221 0.080902 
0.14568 0.14256 0.10326 0.11313 0.13203 0.15768 0.035195 0.12266 
0.030592 0.056569 0.019411 -0.017253 -0.018568 0.011355 0.0062583 0.043909 
-0.011827 -0.0064016 -0.041422 -0.087786 -0.070687 0.041114 -0.11048 0.01711 
-0.0016336 -0.050464 -0.06 -0.072332 -0.0057439 0.2024 0.067091 0.071695 
0.02829 -0.061645 -0.042737 -0.059014 0.0047785 0.2731 0.2463 0.18448 
0.14256 0.066434 0.064461 0.05213 0.043745 0.17955 0.25156 0.17939 
0.18415 0.076627 0.087479 0.067256 0.052294 -0.1741 0.036182 0.020891 
0.15867 -0.01117 0.046704 0.018754 -0.0032777 -0.44144 -0.022679 -0.16983 
0.080244 -0.076935 -0.05441 -0.038298 -0.048656 -0.32553 0.16969 0.013657 
0.075148 -0.072989 -0.084991 -0.077428 -0.06148 -0.083676 0.33887 0.21967 
0.21885 0.021878 0.033551 0.058871 0.051636 0.1345 0.32193 0.25206 
0.35416 0.1761 0.16492 0.13943 0.13664 0.28806 0.30155 0.18596 
0.21589 0.20454 0.15851 0.12924 0.033551 0.16755 0.20454 0.12529 
-0.068879 0.078765 0.062488 0.047033 -0.033365 0.013492 0.0098754 0.082053 
-0.43766 -0.0042642 0.0064227 0.03651 0.063803 0.15916 -0.049807 -0.060823 
-0.61128 0.035195 0.050979 0.10967 0.1881 0.34495 -0.036325 -0.27144 
-0.498 0.085506 0.054596 0.083697 0.21112 0.30434 -0.14747 -0.45673 
-0.24562 0.097344 0.059693 0.079258 0.14042 0.17758 -0.27538 -0.38998 
0.11148 0.086163 0.012013 0.00033937 0.029112 0.023686 -0.25302 -0.19318 
0.33098 0.041772 -0.044874 -0.084827 -0.10472 -0.063289 -0.10373 0.042923 
0.44031 -0.023501 -0.079237 -0.059178 -0.081539 0.016452 0.084355 0.24203 
0.43735 -0.023007 -0.0059084 -0.022185 0.014972 0.10524 0.15982 0.33953 
0.30779 0.013657 0.031907 0.011848 0.024344 0.043909 0.15703 0.32111 
0.14716 0.0082312 0.031742 0.0072447 -0.027775 -0.056219 0.066269 0.19484 
0.10474 0.10688 0.057227 -0.0011404 -0.022679 -0.14139 -0.038298 0.13976 
0.12792 0.14552 0.013492 0.00066819 -0.041751 -0.16901 -0.074633 0.068407 
0.058871 0.12858 0.0056006 0.00017495 0.013821 -0.16786 -0.15355 0.019083 
-0.00081153 0.049006 0.015959 0.073997 0.076463 -0.21356 -0.23691 -0.08532 
0.031742 0.025166 0.065776 0.094384 0.10935 -0.10554 -0.13991 -0.070359 
0.067749 0.079587 0.07449 0.10737 0.092576 0.089945 0.10491 0.010533 
0.077943 0.088465 0.037332 0.055911 0.053938 0.17955 0.23348 0.078765 
-0.025802 -0.0070593 -0.0138 -0.027775 0.028125 0.15752 0.24597 0.084848 
-0.10784 -0.066741 -0.074798 -0.019226 -0.035667 0.067585 0.12875 0.034537 
-0.12215 -0.053424 0.019247 0.0023123 -0.019061 -0.0029489 -0.025638 -0.024652 
-0.05178 0.035524 0.078272 0.043087 0.050321 0.065118 -0.07825 -0.020212 
-0.02794 0.098494 0.11165 0.08156 0.056898 0.14749 0.0082312 0.04654 
-0.062138 0.063968 0.057227 0.04506 0.014972 0.088794 0.041278 0.034209 
-0.097651 -0.0083746 1.0539e-005 0.022535 -0.020377 -0.029255 -0.062796 0.025824 
-0.047669 -0.01676 -0.012978 0.0062583 -0.012814 -0.054575 -0.13711 -0.045368 
0.082711 0.039141 0.01267 0.0421 0.048513 -0.059507 -0.071509 -0.0091966 
0.14552 0.03799 0.023686 0.050321 0.066434 -0.099789 -0.038627 -0.068386 
0.15867 0.054925 0.045882 0.047691 0.058213 -0.0503 0.035524 -0.015609 
0.15456 0.13401 0.065283 0.051801 0.0070803 -0.048656 0.12414 0.022864 
0.1373 0.13812 0.040621 -0.017746 -0.056055 -0.076113 0.16146 0.093233 
0.12233 0.10047 0.029769 -0.0050863 -0.068057 -0.017417 0.15949 0.075148 
0.053281 0.11559 0.06479 0.020233 -0.035503 0.037332 0.12792 0.1031 
-0.010841 0.1105 0.070051 0.05772 0.011191 0.10228 0.13203 0.19024 
-0.15503 0.047362 0.025659 0.051143 0.03651 0.11411 0.095206 0.16936 
-0.13284 -0.0078813 -0.0073881 -0.0064016 0.021056 0.13072 0.071859 0.088136 
-0.0044286 -0.003771 -0.035667 0.011026 0.0042853 0.10458 0.012835 -0.0083746 
0.062817 -0.048656 -0.046354 -0.024323 0.049335 0.074326 -0.10406 -0.053917 
0.045882 -0.043559 0.013986 0.026481 0.1128 0.041936 -0.17114 -0.10324 
0.023193 0.020727 0.085999 0.10162 0.10803 -0.0026201 -0.12938 -0.012814 
0.0324 0.066105 0.12053 0.069886 0.032071 -0.054575 -0.0057439 0.055089 
0.083862 0.083862 0.089616 0.040292 -0.049642 -0.076277 0.059528 0.094877 
0.087972 0.053938 0.057555 0.012013 -0.036654 -0.12346 0.033058 0.066927 
0.069722 0.035031 0.030098 0.019905 0.014315 -0.060494 0.0079024 0.053116 
0.072188 -0.0011404 0.01826 0.027139 0.021878 -0.061973 0.0088889 -0.012156 
0.0324 -0.020706 -0.013636 -0.012156 -0.0055795 -0.01676 0.10474 -0.013143 
-0.088773 0.073668 0.020069 0.020398 -0.0042642 0.1077 0.19616 0.046704 
-0.096336 0.11165 0.032071 0.0227 0.036839 0.1761 0.18892 0.097015 
0.037826 0.089123 0.013986 0.027468 0.050321 0.13253 0.13483 0.11296 
0.19928 0.051472 0.01415 0.0227 0.014972 0.050321 0.087314 0.0786 
0.2223 0.03388 0.028783 0.02681 0.018425 0.014315 0.085506 0.094548 
0.073175 -0.02498 0.044402 0.025659 -0.026296 -0.054904 0.086821 0.047197 
-0.064111 -0.046683 0.046704 -0.0014692 -0.013143 -0.026624 0.0064227 -0.016595 
-0.20156 0.031742 0.041607 0.032236 0.017767 0.092247 -0.0083746 -0.07562 
-0.20995 0.01563 0.025659 0.0227 0.046211 0.068078 -0.11442 -0.14977 
-0.11738 0.021878 -0.003771 0.021713 0.046046 0.017932 -0.14698 -0.089595 
0.016452 0.088958 0.019905 0.036017 0.045553 -0.052602 -0.1376 -0.050464 
0.095206 0.12069 0.00297 0.030756 0.028783 -0.1358 -0.13021 -0.039284 
0.15555 0.084026 0.048019 0.055254 0.0082312 -0.070523 -0.064604 0.033387 
0.14206 0.10507 0.054596 0.073339 0.044073 0.039963 0.15045 0.19205 
-0.10735 0.10392 0.071531 0.063145 0.013492 0.13499 0.38688 0.22213 
-0.35134 0.021384 0.047526 0.041607 -0.012814 0.12776 0.50246 0.26209 
-0.31912 0.0046141 0.038648 0.039634 0.00050378 0.079916 0.32851 0.030098 
0.20635 0.12809 0.0786 0.075476 0.069064 0.040621 0.041772 -0.26256 
0.84658 0.14108 0.10935 0.09685 0.18284 0.094384 -0.17756 -0.37272 
0.85036 0.080738 0.055747 0.075641 0.17314 0.14387 -0.35956 -0.31007 
0.55458 0.0021479 -0.034188 0.018096 0.10063 1.0539e-005 -0.39754 -0.04882 
0.1026 -0.0031133 -0.04619 -0.03057 0.022206 -0.10127 -0.38505 0.20372 
-0.22113 -0.0087034 -0.076935 -0.015444 0.040621 -0.06707 -0.22145 0.36961 
-0.27867 -0.019555 -0.025638 -0.011334 0.084519 0.013328 0.014972 0.37307 
-0.4222 -0.039942 0.0074092 0.021713 0.069393 0.10113 0.30582 0.2565 
-0.55702 -0.056877 0.042758 0.04917 0.023357 0.20487 0.61755 0.089452 
-0.45344 0.037168 0.12299 0.075805 0.01415 0.21194 0.7938 0.080573 
-0.21866 0.15341 0.15703 0.12908 -0.0004827 0.16294 0.72245 0.1271 
0.057555 0.12316 0.11822 0.058871 0.0019835 0.10359 0.45198 0.12661 
0.27573 0.071695 0.053774 0.033058 -0.010183 0.029605 0.12661 0.044073 
0.23101 0.018096 0.010697 -0.036818 -0.062302 -0.18495 -0.2938 -0.16391 
0.054432 -0.028269 -0.04619 -0.061645 -0.098967 -0.3058 -0.60487 -0.32306 
-0.14862 -0.056383 -0.042901 -0.017911 -0.015609 -0.26683 -0.59961 -0.35545 
-0.26174 -0.042737 -0.044052 -0.012485 0.019576 -0.16818 -0.39491 -0.25549 
-0.11278 0.0041209 -0.0075525 0.027632 0.034702 -0.027282 -0.20255 -0.016431 
0.10737 0.062981 0.021549 0.01711 0.078929 0.11148 0.0047785 0.19665 
0.16673 0.094384 0.025495 0.039141 0.086328 0.21309 0.14321 0.22937 
0.10935 0.12431 0.040128 0.069064 0.12349 0.34561 0.27129 0.18728 
0.12694 0.12595 0.065776 0.077449 0.11494 0.33591 0.30566 0.092247 
0.23923 0.12085 0.079751 0.10524 0.079916 0.17889 0.14469 -0.060165 
0.19221 0.044731 0.069886 0.043909 0.06479 0.020233 -0.058192 -0.21044 
0.037497 0.037661 0.055254 0.014808 0.052294 -0.069865 -0.041751 -0.051944 
-0.13053 0.055911 0.051965 0.04917 0.0689 -0.05737 0.13894 0.22378 
-0.15914 0.12233 0.068736 0.060679 0.060186 -0.015116 0.20783 0.36748 
-0.13103 0.098166 0.047691 0.082875 0.014315 -0.049149 0.10606 0.24219 
0.037168 0.027961 -0.013965 -0.0014692 0.004943 -0.073318 -0.059014 0.072517 
0.26422 0.024015 -0.045861 -0.0068948 0.0036276 -0.090746 -0.17542 -0.11524 
0.42486 0.076956 0.012342 -0.0083746 -0.04619 -0.1233 -0.22277 -0.20008 
0.341 0.10491 0.061666 -0.0047575 -0.083676 -0.17542 -0.1478 -0.10127 
0.091096 0.037168 0.07301 0.039799 -0.093212 -0.20814 -0.08532 0.017603 
-0.18134 -0.045861 0.033058 0.030263 -0.046683 -0.16375 -0.084827 0.1008 
-0.31418 -0.053753 0.0056006 0.0098754 -0.011827 -0.076277 -0.095021 0.047691 
-0.43273 -0.12116 -0.053753 -0.061151 0.0026412 0.077449 -0.06148 -0.036489 
-0.34476 -0.072825 -0.036489 -0.053095 0.049006 0.27557 0.15209 0.02681 
-0.16243 0.03799 -0.0047575 0.01974 0.10524 0.41861 0.37537 0.076463 
-0.03912 0.058049 0.048677 0.057555 0.13483 0.32588 0.26439 -0.097651 
0.1345 0.10754 0.050486 0.078765 0.089452 0.1031 0.055582 -0.14385 
0.32769 0.16656 0.10113 0.11674 0.020727 0.02533 -0.0039354 -0.091239 
0.32571 0.21539 0.13943 0.1151 0.039305 0.048677 0.069393 -0.0039354 
0.18185 0.13631 0.07038 0.11083 0.066927 0.097672 0.22033 0.20273 
0.11674 0.063803 0.00033937 0.048019 0.09126 0.20635 0.35597 0.31108 
0.094384 -0.05737 -0.057534 0.037004 0.028619 0.12579 0.22411 0.1927 
0.063968 -0.13415 -0.068386 -0.057205 -0.088937 -0.1524 -0.10324 -0.066741 
0.10129 -0.071674 -0.014951 -0.08121 -0.14517 -0.34608 -0.32356 -0.1159 
0.18021 0.057555 0.075312 -0.011005 -0.064604 -0.31961 -0.3617 -0.038956 
0.24877 0.17725 0.11313 0.048184 0.062817 -0.12922 -0.25204 0.062981 
0.084026 0.14733 0.067913 0.096686 0.14634 0.058542 -0.13448 -0.0087034 
-0.12379 0.072353 0.020398 0.05476 0.11132 0.12546 -0.095678 -0.064275 
-0.16342 0.017767 0.0044497 0.014808 0.04095 0.090274 -0.046683 -0.10867 
-0.050793 -0.032215 -0.014458 0.00099702 0.01415 0.069229 -0.0014692 -0.10817 
0.092904 -0.0068948 -0.017746 -0.022021 -0.016595 0.0421 0.024837 -0.05178 
0.18021 0.071366 0.018754 0.0019835 -0.025967 -0.00015387 0.05065 -0.031557 
0.147 0.061995 -0.0052507 -0.016595 0.0021479 -0.034845 0.062652 0.015301 
0.064625 0.028125 0.0098754 0.014972 -0.0083746 -0.028597 0.081231 0.096028 
0.056898 0.055747 0.049006 0.029605 0.030098 -0.014458 0.092904 0.20882 
0.069229 0.08863 0.061172 0.03799 0.023193 0.02829 0.10803 0.20257 
0.021549 0.055254 0.052294 0.038319 0.014479 0.12414 0.089945 0.11526 
0.0227 0.049006 0.040456 0.031578 0.028947 0.097837 0.079587 0.063968 
0.047855 0.05772 0.0060938 0.025659 -0.062302 -0.023336 0.049992 0.0090533 
0.048348 0.020891 -0.013471 -0.030406 -0.1279 -0.12067 0.026152 -0.0138 
0.07038 0.029441 -0.0050863 -0.030735 -0.086307 -0.14467 0.062323 0.035853 
0.10507 0.061172 -0.0068948 0.0065871 -0.0098543 -0.10554 0.077614 0.084848 
0.098166 0.064954 0.019083 0.031578 0.037826 -0.044381 0.01267 0.058542 
0.012177 0.04654 0.016945 0.07597 0.056898 -0.062467 -0.061316 -0.010676 
-0.08828 0.012013 0.02533 0.019411 -0.017417 -0.079895 -0.049314 -0.087786 
-0.07973 0.0047785 0.033551 0.0034632 -0.033365 -0.031392 -0.023007 -0.076277 
0.0062583 -0.0022913 0.052952 0.0421 0.1419 0.23381 0.11083 0.073832 
0.11165 0.021056 0.069064 0.066105 0.30467 0.52482 0.26077 0.24104 
0.08863 0.1077 0.063474 0.11642 0.25798 0.5286 0.24005 0.23874 
-0.019226 0.078436 0.032564 0.018589 0.091425 0.20569 -0.021692 0.079422 
-0.052437 0.031249 -0.03764 -0.028597 -0.049478 -0.046354 -0.18315 -0.0047575 
0.03651 0.012013 -0.039613 -0.021856 0.046211 -0.036325 -0.18857 0.026317 
0.10162 0.01267 0.0052718 0.024673 0.066598 -0.15322 -0.21833 -0.037476 
0.10293 0.027632 0.037168 0.040292 -0.051944 -0.26765 -0.24661 -0.066084 
0.097015 0.040456 0.039634 0.030263 -0.10965 -0.32734 -0.15224 -0.13695 
-0.020212 0.040292 0.017438 0.041443 -0.030735 -0.27407 -0.045203 -0.12478 
-0.047505 0.031907 0.038155 0.073339 0.12398 -0.085978 0.1733 0.0070803 
-0.029584 0.058542 0.055254 0.096193 0.17265 0.10852 0.27984 -0.027775 
0.0079024 0.079422 0.063968 0.091753 0.11115 0.23381 0.26669 0.047526 
0.078765 0.097672 0.099974 0.049499 0.053774 0.35432 0.40019 0.19303 
0.1659 0.12792 0.13154 0.090274 0.054925 0.34035 0.40661 0.29365 
0.11592 0.099152 0.070544 0.04917 0.044402 0.25683 0.20964 0.18251 
-0.11278 0.062323 0.028125 -0.017746 -0.02498 0.15275 -0.046847 0.030756 
-0.17065 0.031907 -0.026624 -0.053753 -0.094034 -0.056055 -0.24036 0.071366 
-0.071509 -0.0034422 -0.044546 -0.076935 -0.077757 -0.17493 -0.30711 0.084684 
-0.00031829 0.012013 -0.012156 -0.022679 0.051143 -0.041422 -0.20518 0.030592 
-0.085978 -0.029913 -0.0057439 0.0324 0.11905 0.0054362 -0.070523 -0.080881 
-0.21241 -0.06444 -0.01676 0.054925 0.071202 -0.074962 -0.01232 -0.10094 
0.08715 -0.0027845 0.035853 0.074326 0.022206 -0.0095255 0.14157 -0.010841 
0.39099 0.11543 0.11905 0.10573 0.090767 0.1539 0.27738 0.17495 
0.31815 0.15604 0.12858 0.12677 0.12973 0.22361 0.26932 0.26685 
0.046211 0.097015 0.08156 0.038648 0.093726 0.26768 0.032893 0.19155 
-0.20518 -0.049149 -0.0049219 -0.011827 0.052459 0.3341 -0.16868 -0.046847 
-0.23921 -0.036325 -0.020048 -0.0138 0.063803 0.46349 -0.054082 -0.1187 
-0.10357 0.08863 0.043416 0.058377 0.1179 0.31848 -0.079895 -0.16555 
0.079587 0.13187 0.03651 0.050486 0.03799 -0.25023 -0.52184 -0.2522 
0.057391 -0.062796 -0.1011 -0.11278 -0.20567 -1.1428 -1.1787 -0.46643 
-0.13645 -0.21373 -0.15865 -0.16786 -0.26075 -1.3617 -1.2213 -0.68543 
-0.21899 -0.18084 -0.10883 -0.10521 -0.037476 -0.54091 -0.2933 -0.6246 
0.022535 -0.00015387 0.033551 0.040456 0.15571 0.47582 1.0327 -0.076442 
0.45856 0.24581 0.25469 0.25847 0.20635 1.1662 2.2768 0.85792 
0.69236 0.47418 0.41795 0.37701 0.24466 1.3566 2.811 1.3888 
0.62248 0.54356 0.35482 0.37372 0.19024 0.92024 2.0539 1.3201 
0.38934 0.32111 0.20783 0.16327 0.064461 0.24367 0.64862 1.0105 
-0.057534 0.035853 0.041772 -0.00081153 -0.071016 -0.27423 -0.60799 0.45988 
-0.71239 -0.11228 -0.079072 -0.10949 -0.15881 -0.52973 -1.2094 -0.16407 
-1.0164 -0.23872 -0.14944 -0.20222 -0.21291 -0.51543 -1.1976 -0.53269 
-0.64038 -0.23116 -0.16161 -0.16523 -0.16227 -0.40083 -0.95721 -0.71519 
-0.024323 -0.12462 -0.095021 -0.095514 -0.060494 -0.33063 -0.76912 -0.81844 
0.31486 0.023851 -0.0032777 0.029605 0.031578 -0.2157 -0.51674 -0.6606 
0.35021 0.073175 0.035195 0.072681 0.060515 -0.10423 -0.27505 -0.43486 
0.20635 0.016288 0.044731 0.027796 -0.038133 -0.094363 -0.099131 -0.24825 
-0.0073881 0.032071 0.03092 0.025001 -0.12955 -0.13251 0.063145 -0.050958 
-0.099789 0.017932 0.055254 -0.032379 -0.13793 -0.075455 0.16788 0.19944 
0.10524 0.068242 0.042758 -0.026131 -0.058685 0.012177 0.30368 0.41992 
0.30467 0.10721 0.030592 0.005765 -0.011663 0.072846 0.34577 0.50657 
0.22723 0.10524 0.03536 0.0090533 -0.0062372 0.12447 0.29612 0.463 
-0.025967 0.10474 0.030427 0.080902 0.019905 0.027632 0.17971 0.23364 
-0.15043 0.1026 0.044567 0.051143 0.1179 -0.026296 0.034537 -0.12823 
-0.14287 0.07038 0.015137 0.11296 0.21112 0.026481 -0.024323 -0.36992 
0.24548 0.04358 0.044238 0.082382 0.15061 0.06183 -0.00015387 -0.33013 
0.29004 -0.0039354 0.023357 0.011684 0.01267 0.11329 0.094548 -0.12083 
0.010862 -0.064275 -0.017582 -0.037476 -0.1011 0.10967 0.088794 -0.0052507 
-0.032708 -0.061809 -0.0064016 -0.041257 -0.058685 0.026481 0.01004 0.081395 
-0.038298 -0.043724 0.0046141 0.056076 0.13746 0.028454 -0.076113 0.18761 
-0.019719 0.026481 0.058377 0.088465 0.20734 0.066105 0.021384 0.28593 
0.079094 0.14913 0.13335 0.11461 0.085835 0.080244 0.21079 0.32785 
0.067749 0.2195 0.14289 0.097837 -0.076771 -0.021856 0.23808 0.26011 
-0.094527 0.1932 0.10524 0.012999 -0.14615 -0.11228 0.067749 0.1322 
-0.18545 0.095535 -0.0062372 -0.01232 -0.11426 -0.20879 -0.12626 0.01826 
-0.0062372 -0.0027845 -0.060823 -0.047012 -0.058192 -0.24661 -0.2647 -0.11787 
0.18794 -0.015444 -0.048985 -0.037476 -0.010841 -0.14566 -0.30662 -0.28854 
0.15028 0.007738 0.005765 0.027139 0.066269 0.05476 -0.21603 -0.33227 
0.0044497 -0.00031829 0.020233 0.046704 0.12217 0.18383 -0.0965 -0.10949 
-0.1284 -0.010676 0.023357 0.060679 0.14058 0.28872 0.026152 0.090438 
-0.046025 0.024015 0.027632 0.026152 0.12464 0.28872 0.060844 0.1761 
0.15653 0.017932 0.030427 0.028454 0.094055 0.14239 -0.018733 -0.0060728 
0.10754 -0.094856 -0.003771 -0.024487 -0.0021268 -0.03912 -0.21767 -0.22754 
-0.012485 -0.10637 -0.057534 -0.072003 -0.06148 -0.10719 -0.39195 -0.3885 
-0.063618 -0.041751 -0.038627 -0.032543 -0.030899 0.00050378 -0.33013 -0.44128 
0.0079024 0.014479 -0.010019 -0.00097594 0.011191 0.051636 -0.12363 -0.32027 
-0.029584 0.078929 1.0539e-005 0.04654 0.037004 0.047691 0.014315 -0.0771 
-0.072332 0.10902 0.020233 0.038977 0.078436 -0.02942 -0.016102 0.084519 
0.00050378 0.11296 0.048348 0.11148 0.16525 0.050157 0.11625 0.21671 
0.026481 0.10573 0.079422 0.14321 0.22164 0.26965 0.31634 0.38556 
0.076792 0.09981 0.063474 0.10145 0.22 0.3678 0.37044 0.38967 
0.16031 0.098988 0.055254 0.094877 0.13351 0.24269 0.2611 0.31207 
0.39674 0.090109 0.071695 0.07449 0.064625 0.11625 0.1544 0.20372 
0.50789 0.090109 0.080902 0.050321 0.037168 0.036346 0.067256 0.13779 
0.27064 0.10852 0.055089 0.032729 0.013164 0.010204 0.025495 0.075641 
-0.056712 0.042429 0.03388 -0.014458 -0.026789 -0.090746 -0.063618 0.027961 
-0.27949 -0.023007 -0.02498 -0.03205 -0.066741 -0.28919 -0.21833 -0.11475 
-0.1695 -0.031557 -0.014129 -0.042079 -0.044874 -0.3035 -0.1547 -0.17657 
-0.13563 -0.08532 -0.068221 -0.0503 -0.032543 -0.05326 0.042594 0.011191 
-0.22639 -0.15109 -0.065097 -0.004593 -0.0138 0.13401 0.13894 0.13664 
-0.1695 -0.089102 0.011026 0.050157 0.06035 0.23677 0.11033 0.19533 
0.058377 0.095371 0.040128 0.12332 0.12431 0.23841 0.034209 0.1419 
0.21013 0.15357 0.063803 0.06331 0.14305 0.13351 -0.17147 -0.048656 
0.27458 0.21934 0.086328 0.063968 0.10573 0.077943 -0.16703 -0.11985 
0.30944 0.24844 0.1031 0.031249 0.038483 0.072353 0.030427 0.014643 
0.13582 0.03947 0.072188 0.021384 -0.006566 -0.0052507 0.20701 0.039963 
-0.060165 -0.0771 0.048019 0.032236 -0.02942 -0.06707 0.20651 -0.10719 
-0.16588 0.014315 0.033551 0.01974 -0.018239 -0.06707 0.16673 -0.19137 
-0.10456 0.14831 0.051801 0.088136 0.072846 0.078272 0.36172 -0.05326 
0.066434 0.22 0.10672 0.11987 0.16623 0.31716 0.63481 0.19007 
0.12365 0.18103 0.073339 0.076792 0.1026 0.31947 0.6016 0.24236 
0.04654 0.040621 -0.015116 -0.0059084 -0.049807 0.072681 0.38392 0.27623 
0.0069159 -0.0503 -0.051944 -0.061151 -0.1085 -0.1016 0.15571 0.32769 
0.029276 -0.061973 -0.016431 -0.018404 -0.093705 -0.1912 -0.14467 0.21737 
0.096686 0.0059294 0.050814 -0.0036066 -0.020048 -0.19614 -0.35101 0.041443 
0.20092 0.067913 0.084026 0.029112 0.027796 -0.16013 -0.30892 0.066598 
0.183 0.070873 0.047197 0.00050378 0.016616 -0.15289 -0.20353 0.098988 
0.13269 0.030756 0.0075736 -0.04882 -0.02942 -0.15783 -0.15865 0.088301 
0.055254 0.0324 0.00083261 0.0074092 0.017767 -0.0042642 0.03651 0.10277 
-0.034352 -0.015938 0.035853 0.037004 0.05065 0.12513 0.2103 0.062323 
-0.093376 -0.029748 0.071531 0.052459 -0.01676 0.042265 0.17248 0.0069159 
-0.1792 -0.0011404 0.060022 0.051636 -0.055068 -0.10949 0.067256 0.01563 
-0.3857 -0.043395 0.028783 0.018918 -0.013471 -0.10373 0.013492 0.0011614 
-0.42072 -0.03501 0.0087245 0.037497 0.044238 0.0051074 0.013164 -0.048985 
-0.29758 0.044896 0.0021479 0.022206 0.10195 0.073339 0.022864 -0.060658 
-0.050958 0.17117 0.063474 0.081889 0.14552 0.16541 0.079422 -0.05441 
0.33689 0.23792 0.10819 0.10425 0.13516 0.16179 0.068407 0.028947 
0.53847 0.13861 0.074326 0.086163 0.056898 0.065612 0.039799 0.050321 
0.3775 0.023357 0.03536 0.030263 0.00099702 0.046375 0.083862 0.043745 
-0.052273 -0.017417 0.039963 0.0075736 0.012013 0.098494 0.15111 0.01826 
-0.30679 0.007738 0.021549 0.013986 -0.018404 0.035195 0.10392 -0.0022913 
-0.19696 0.042265 -0.003771 -0.024323 -0.042573 -0.07414 0.004943 -0.023007 
0.38869 0.11 -0.0090322 -0.045203 0.013657 -0.0503 -0.054575 0.007738 
0.80942 0.13006 0.046211 0.035688 0.036017 0.0074092 -0.045861 0.086821 
0.47434 0.05065 0.012177 0.0064227 0.032236 0.047526 -0.063946 0.12628 
-0.055068 -0.029748 -0.00081153 0.042758 0.0065871 0.085012 -0.047505 0.16097 
-0.33967 -0.10702 0.0092177 0.02829 0.054103 0.028619 -0.08828 0.10606 
-0.35677 -0.12577 -0.017582 -0.00097594 0.01152 -0.1039 -0.18479 0.016945 
-0.3012 -0.06444 -0.027775 -0.032215 -0.066577 -0.24464 -0.34181 -0.18578 
-0.24825 -0.042244 0.0087245 -0.031557 -0.060494 -0.23411 -0.25763 -0.25138 
-0.13908 0.052294 0.10178 0.082382 0.053445 0.12628 0.16196 -0.08384 
0.021713 0.14749 0.12858 0.10277 0.11691 0.36813 0.49884 0.1294 
0.17149 0.16738 0.10244 0.086985 0.066269 0.29628 0.46349 0.18235 
0.22739 0.14749 0.07449 0.073504 0.037826 0.08863 0.17067 0.11066 
0.19106 0.10491 0.052952 0.053774 0.022371 -0.023172 -0.10291 0.048841 
0.11592 0.037826 0.04358 0.027139 0.016452 -0.052273 -0.24151 -0.058685 
0.088465 -0.028433 -0.035503 -0.028269 0.034209 0.024837 -0.23428 -0.077264 
0.052787 -0.046519 -0.045861 -0.041751 -0.0039354 0.069558 -0.16128 -0.06444 
-0.0022913 -0.0098543 -0.062467 -0.059672 -0.043724 0.0037921 -0.13678 0.009711 
0.0083956 0.053774 -0.0019624 0.011684 0.021549 -0.010676 -0.10916 0.095371 
0.086328 0.092082 0.082053 0.084519 0.074161 0.0067515 -0.080552 0.11937 
0.037168 0.10902 0.088465 0.049499 0.065118 -0.018404 -0.010019 0.021549 
-0.095185 0.053609 0.061666 0.040292 0.036675 0.033715 0.030098 -0.12774 
-0.15454 0.025166 0.03388 0.019247 0.027139 0.069393 0.057391 -0.17641 
-0.12198 0.059528 0.041772 0.044567 0.013328 0.013328 0.033387 -0.12642 
0.064461 0.1299 0.065283 0.071202 -0.0024557 -0.044052 -0.033201 -0.024158 
0.19961 0.11296 0.037661 0.020727 -0.0060728 -0.070523 -0.094856 -0.0088678 
0.21013 0.043087 0.010369 0.024673 -0.0075525 -0.019555 -0.10719 0.065612 
0.19944 0.030098 0.022206 0.0014903 0.038977 0.068078 0.012999 0.13056 
0.19944 0.02681 0.017438 0.041607 0.11231 0.17429 0.15226 0.21704 
0.22098 0.073668 0.036017 0.083697 0.16607 0.23611 0.27886 0.25929 
0.017932 0.072681 0.054267 0.053116 0.10524 0.19106 0.30648 0.28165 
-0.29873 -0.01117 0.0042853 0.038483 -0.024652 0.11559 0.23825 0.15818 
-0.26404 -0.08121 -0.03764 -0.045039 -0.056877 -0.05178 0.046211 -0.08532 
-0.025638 -0.054246 -0.022514 -0.043888 -0.072989 -0.25154 -0.24645 -0.21323 
0.15818 0.032893 -0.026296 -0.040106 -0.076277 -0.37666 -0.54042 -0.3372 
0.061337 -0.0073881 -0.039284 -0.037311 -0.054739 -0.23707 -0.50556 -0.42467 
-0.14467 -0.046354 -0.010348 0.012342 0.043251 0.073832 -0.26174 -0.48008 
-0.19367 0.018918 0.042429 0.11214 0.25271 0.56625 0.26488 -0.13251 
-0.039613 0.073832 0.10441 0.22493 0.41105 0.8594 0.89788 0.49079 
0.098166 0.11609 0.13516 0.21474 0.34183 0.66457 0.96578 0.89196 
0.36369 0.24384 0.18218 0.17396 0.10935 0.12612 0.4556 0.77111 
0.50262 0.31273 0.18185 0.13713 -0.032215 -0.14303 -0.1524 0.41565 
0.27507 0.17166 0.089123 -0.0080457 -0.12511 -0.21175 -0.47383 1.0539e-005 
-0.068057 -0.0091966 -0.043066 -0.11278 -0.22524 -0.29232 -0.52069 -0.23855 
-0.23231 -0.029255 -0.057205 -0.13415 -0.18874 -0.35266 -0.40905 -0.22244 
-0.18348 -0.03057 -0.028269 -0.08121 -0.079895 -0.46035 -0.40839 -0.41448 
-0.25845 -0.10801 -0.0503 -0.044546 -0.0503 -0.534 -0.38028 -0.75826 
-0.38735 -0.14237 -0.10094 -0.047505 -0.015609 -0.3303 -0.0503 -0.70253 
-0.12363 -0.012814 -0.023172 0.022206 0.034209 0.15275 0.59207 0.043909 
0.1539 0.1271 0.11033 0.1174 0.16738 0.76256 1.1838 0.64024 
0.11378 0.17281 0.1881 0.19451 0.21654 0.96956 1.39 0.70748 
0.056733 0.16952 0.1396 0.16031 0.090767 0.54882 0.88143 0.44343 
0.1299 0.092411 0.046704 0.0421 -0.014129 -0.030735 0.041114 0.15078 
0.013328 -0.0068948 -0.036489 -0.044217 -0.082525 -0.53516 -0.75366 -0.10521 
-0.17476 -0.075127 -0.077757 -0.12116 -0.11935 -0.70516 -1.0667 -0.23658 
-0.13629 -0.096994 -0.051615 -0.092883 -0.062631 -0.51691 -0.74807 -0.22606 
0.097508 -0.011992 0.051801 0.032564 0.018425 -0.14336 -0.2254 -0.093705 
0.24893 0.0786 0.13056 0.12135 0.090767 0.20783 0.33114 0.12908 
0.17922 0.13878 0.14387 0.16969 0.13121 0.36205 0.66507 0.23956 
0.13351 0.17939 0.16393 0.13121 0.073339 0.23266 0.57053 0.22772 
-0.040106 0.11937 0.091753 0.071695 -0.030242 -0.057041 0.14848 0.12595 
-0.17591 0.036346 0.016288 -0.014293 -0.056383 -0.10932 -0.15848 0.089452 
-0.01676 0.011848 -0.055561 -0.055232 -0.0075525 0.044896 -0.14813 0.076956 
0.16146 0.0079024 -0.035832 -0.019226 0.049664 0.10622 -0.066577 0.10836 
0.13335 0.031414 -0.013307 -0.0075525 0.083533 0.11674 0.015137 -0.012978 
0.07301 0.034866 0.0067515 0.027303 0.049828 0.081889 0.0421 -0.16851 
0.0090533 0.032564 0.048019 1.0539e-005 -0.010512 0.0065871 0.045718 -0.22951 
0.012013 0.080902 0.050979 0.0011614 -0.064768 -0.10965 -0.0011404 -0.1233 
-0.040764 0.07449 0.049992 0.0026412 -0.075949 -0.16753 -0.076771 -0.046847 
-0.21718 -0.0090322 0.026481 0.025001 -0.0090322 -0.071509 -0.026789 0.047362 
-0.25615 -0.033859 0.012835 0.072681 0.015301 0.068078 0.1003 0.14437 
-0.075291 0.059528 0.053116 0.076956 0.044731 0.12628 0.13516 0.171 
0.068078 0.080573 0.057884 0.081724 0.022371 -0.024158 -0.018404 0.069229 
0.15407 0.010369 -0.012814 -0.022843 -0.11771 -0.39195 -0.38949 -0.16243 
0.23298 -0.030242 -0.086142 -0.10357 -0.18923 -0.57462 -0.55867 -0.37814 
0.2537 -0.0039354 -0.056548 -0.039942 -0.088115 -0.29511 -0.1672 -0.34624 
0.20865 0.054925 0.035688 0.030592 0.11872 0.20882 0.39756 0.024015 
0.2052 0.11757 0.1026 0.13121 0.35991 0.53337 0.7721 0.39625 
0.23956 0.21441 0.13894 0.17018 0.39871 0.39526 0.60571 0.52942 
0.16837 0.14009 0.12069 0.098494 0.15867 -0.10423 0.12036 0.45379 
-0.017088 0.036675 0.062159 0.034044 -0.10045 -0.44966 -0.33046 0.32769 
-0.23839 -0.020048 -0.029748 -0.078086 -0.23181 -0.43601 -0.48337 0.055911 
-0.27785 -0.060165 -0.045696 -0.085156 -0.21948 -0.11294 -0.36893 -0.31928 
-0.063946 -0.041586 -0.056712 -0.052273 -0.098967 0.29776 -0.10028 -0.28097 
0.16821 0.039305 -0.015773 -0.0029489 0.034373 0.56905 0.25008 0.0046141 
0.30418 0.12677 0.076134 0.058871 0.12809 0.67756 0.42749 0.30187 
0.27787 0.12677 0.077449 0.082382 0.19501 0.59815 0.35416 0.26899 
0.15604 0.052787 0.026974 0.069229 0.22805 0.33607 0.1026 0.080573 
-0.061645 -0.028433 -0.014787 0.01711 0.16623 -0.014951 -0.24743 -0.16884 
-0.22376 -0.1011 -0.027775 -0.023665 0.060515 -0.26568 -0.48254 -0.29758 
-0.21833 -0.072496 -0.011334 0.011191 0.03388 -0.2351 -0.39425 -0.21948 
-0.2032 -0.00064712 0.036675 0.014315 0.015301 -0.18972 -0.24283 -0.13793 
-0.11755 0.038977 0.063803 0.03092 -0.019061 -0.21915 -0.20633 -0.076277 
0.10918 0.031578 0.027139 0.016123 -0.0090322 -0.087951 -0.062796 0.03799 
0.22608 0.015959 0.0056006 0.021713 0.01004 0.084519 0.10195 0.12266 
0.27507 0.093726 0.01563 0.048019 0.039634 0.14354 0.19764 0.16048 
0.29415 0.13121 0.038155 0.055911 0.046704 0.17676 0.22592 0.19106 
0.25863 0.15719 0.072681 0.079094 0.085341 0.19024 0.18251 0.18481 
0.082217 0.12085 0.043745 0.016616 0.080244 0.11395 0.091096 0.11872 
-0.087786 0.027303 -0.012978 -0.023829 0.049992 0.042758 0.020562 -0.035338 
-0.10209 -0.046683 -0.040764 -0.031886 0.055582 0.094548 0.036182 -0.065755 
0.013328 -0.039942 -0.022679 -0.020541 0.077614 0.23611 0.14568 -0.042408 
0.21983 0.068571 0.046704 0.067749 0.086985 0.2805 0.18547 0.059528 
0.2588 0.16327 0.094384 0.071859 0.069393 0.21013 0.082711 0.12661 
0.11987 0.12201 0.091589 0.04654 0.041772 0.084848 -0.068386 0.077121 
-0.060658 0.060515 0.049499 0.0080668 0.0095465 0.012013 -0.089102 0.013657 
-0.084334 0.0011614 0.062159 0.037826 0.029112 -0.010019 -0.14911 -0.076442 
-0.050464 -0.018733 0.032564 0.072681 0.069064 0.015794 -0.14796 -0.083676 
-0.057205 -0.027118 -0.0013048 0.034866 0.029769 -0.033694 -0.10176 -0.062302 
-0.073482 -0.028762 -0.022514 0.0062583 -0.053095 -0.14484 -0.058356 -0.042244 
-0.093048 0.049335 -0.0032777 -0.019226 -0.11935 -0.1575 0.071531 0.082711 
-0.21932 0.13368 0.0592 0.0039565 -0.097651 -0.14369 0.10737 0.2389 
-0.2859 0.12431 0.068571 0.045389 -0.018239 -0.059343 0.1225 0.14963 
-0.14846 0.0064227 0.027632 0.01711 0.011191 0.076627 0.21128 0.030263 
0.44196 -0.01117 -0.00081153 0.014643 -0.014787 0.12003 0.17741 -0.056219 
0.75862 0.085341 0.050979 0.019083 -0.020377 0.037826 0.087972 -0.083676 
0.43094 0.11937 0.10408 0.036675 0.053445 0.14716 0.14371 -0.017088 
0.10984 0.13056 0.086821 0.10474 0.17511 0.2759 0.2565 0.10408 
-0.047012 0.1544 0.11642 0.12924 0.28971 0.3073 0.23348 0.11346 
-0.10686 0.11198 0.074654 0.1322 0.19829 0.08419 0.017932 0.022535 
-0.11968 0.016123 -0.00015387 0.0026412 -0.037476 -0.26864 -0.255 -0.029748 
-0.10061 0.013164 -0.031392 -0.054575 -0.15799 -0.42237 -0.3474 0.021713 
-0.016102 0.035688 -0.02498 -0.0057439 -0.053588 -0.12856 -0.17377 0.17478 
-0.041586 0.029934 0.0082312 0.031578 0.061008 0.16738 0.072681 0.14683 
0.021384 0.0062583 0.10458 0.082711 0.067091 0.27162 0.22575 0.08156 
0.033222 0.045882 0.051472 0.060022 0.012342 0.087314 0.22 -0.028433 
-0.13201 -0.089924 0.010862 -0.018568 -0.12133 -0.32536 -0.018733 -0.21274 
-0.31895 -0.18611 -0.063124 -0.082361 -0.16983 -0.6509 -0.27966 -0.25532 
-0.25647 -0.14681 -0.080059 -0.11196 -0.15602 -0.6001 -0.22277 -0.045039 
-0.031721 0.013164 0.017932 0.0060938 -0.073482 -0.26404 0.040128 0.22476 
0.12842 0.15407 0.12447 0.076134 -0.068714 -0.058685 0.27228 0.25206 
0.19616 0.23183 0.14946 0.096028 -0.087951 0.03388 0.26669 0.16936 
0.26242 0.28034 0.1179 0.063474 -0.027611 0.27721 0.32703 0.1391 
0.30648 0.24959 0.10606 0.0592 0.11625 0.53764 0.3216 0.11181 
0.18974 0.13319 0.074654 0.084519 0.16722 0.5092 0.098988 -0.032543 
0.0021479 0.01974 0.031742 0.029934 0.11855 0.33558 -0.029584 -0.11672 
-0.053095 -0.0503 -0.022679 0.031249 0.12266 0.11231 -0.11968 -0.12067 
-0.015773 -0.045532 -0.0060728 -0.0060728 0.09274 -0.20353 -0.18101 -0.096665 
-0.024487 -0.012485 -0.0019624 -0.016431 0.017438 -0.44736 -0.18495 -0.076442 
-0.054246 -0.02794 -0.021528 0.0032988 0.024508 -0.40165 -0.23707 -0.050464 
-0.036818 -0.0082102 0.00017495 0.03092 0.095042 -0.14418 0.00083261 0.090274 
-0.076277 0.00083261 0.063803 0.11296 0.09274 0.10244 0.38441 0.18843 
-0.067235 0.022042 0.03092 0.054596 0.044896 0.14009 0.5702 0.20092 
0.069064 0.053445 0.055582 0.024179 -0.027611 0.10129 0.49375 0.13976 
0.18843 0.13401 0.07038 0.055418 -0.051122 0.11559 0.35712 0.147 
0.1761 0.15144 0.090603 0.029769 0.0070803 0.10951 0.19583 0.15111 
0.050321 0.057062 0.034209 0.037497 0.015794 -0.003771 -0.06148 0.12053 
-0.15322 -0.099953 -0.042737 -0.034352 -0.038627 -0.19022 -0.3857 -0.026131 
-0.22573 -0.15503 -0.08121 -0.073647 -0.099295 -0.27094 -0.47926 -0.094692 
-0.0054151 -0.021856 -0.0088678 -0.03353 -0.026789 -0.027282 -0.22409 0.040128 
0.19813 0.098988 0.087643 0.023028 0.10441 0.26307 0.19501 0.15949 
0.13319 0.09981 0.092247 0.10162 0.14124 0.30155 0.31289 0.13746 
-0.10341 0.058871 0.058049 0.060515 0.085506 0.15555 0.18235 -0.07414 
-0.1358 0.0032988 0.025824 0.01826 0.042923 0.066269 0.085999 -0.24266 
-0.025474 0.00017495 -0.013471 0.013328 0.02681 0.070051 0.042758 -0.23444 
-0.0024557 0.073668 0.044731 0.060186 0.032893 0.085012 -0.097816 -0.015938 
-0.11968 0.066598 0.054267 0.062323 0.058871 0.046704 -0.19104 0.013657 
-0.15766 -0.016102 -0.015609 0.014972 0.095535 0.08715 -0.20205 -0.071181 
-0.1524 -0.057041 -0.035174 0.0065871 0.062488 0.087808 -0.23806 -0.12873 
-0.11574 -0.058028 -0.041586 -0.057863 -0.027611 -0.05737 -0.29117 -0.12675 
0.0069159 -0.06 -0.048327 -0.088115 -0.079566 -0.034681 -0.097651 -0.095349 
0.24055 0.062488 0.0079024 -0.028597 -0.011663 0.14289 0.17774 -0.033859 
0.40052 0.20865 0.082382 0.054596 0.06594 0.19879 0.41154 0.11378 
0.42321 0.28856 0.14075 0.16969 0.17626 0.14091 0.45067 0.22493 
0.29546 0.20536 0.12792 0.14486 0.159 -0.013471 0.35284 0.29497 
0.10935 0.043745 0.057555 0.08863 0.043416 -0.15684 0.049828 0.2662 
-0.21932 -0.021856 0.02829 0.069393 0.044402 -0.0070593 -0.26075 0.1373 
-0.32454 -0.081045 0.012835 0.054267 0.088794 0.23726 -0.31435 0.039799 
-0.094692 -0.019226 0.029605 0.039305 0.070708 0.33048 -0.043395 0.098166 
0.094713 0.030427 0.014972 -0.01939 0.031742 0.21358 0.12398 0.0023123 
-0.044217 -0.033365 -0.052931 -0.037969 -0.060494 -0.14944 -0.097816 -0.026624 
-0.36269 -0.12626 -0.12708 -0.15191 -0.16194 -0.58136 -0.5123 -0.20468 
-0.44917 -0.10439 -0.11804 -0.15832 -0.1455 -0.51411 -0.4273 -0.36088 
-0.087293 0.082217 0.020891 -0.02498 -0.023336 0.023686 0.17577 -0.16161 
0.11674 0.23775 0.14979 0.086985 0.08567 0.50049 0.72425 0.15867 
0.1345 0.29596 0.1761 0.15966 0.15111 0.55014 0.79035 0.25452 
0.16294 0.28198 0.15028 0.14272 0.10737 0.27672 0.42749 0.079258 
0.2708 0.11559 0.05213 0.056733 -0.0027845 -0.15569 -0.17608 -0.1358 
0.66457 -0.018568 -0.02646 -0.009361 -0.072167 -0.34707 -0.51987 -0.17016 
0.69828 -0.060987 -0.044874 -0.039284 -0.029255 -0.18775 -0.50112 -0.081374 
0.31141 -0.089924 -0.023336 0.0042853 0.034373 -0.027447 -0.32273 -0.0064016 
-0.042737 -0.079237 0.023522 0.024344 0.08156 0.075805 -0.22721 0.071202 
-0.28656 -0.039942 0.028125 0.045882 0.11198 0.079916 -0.15881 0.081889 
-0.39277 -0.029091 -0.0011404 0.030592 0.052623 -0.00064712 -0.10735 0.011026 
-0.23707 0.045718 0.019576 0.01004 0.018754 0.034044 0.073668 0.079258 
0.038319 0.14289 0.081067 0.077614 0.037332 0.19484 0.33509 0.25091 
0.15012 0.20964 0.077614 0.081889 0.084355 0.22542 0.35942 0.26455 
0.079587 0.22082 0.097015 0.11806 0.11888 0.1927 0.2611 0.1391 
-0.0062372 0.17873 0.083862 0.094384 0.11872 0.20076 0.094384 0.068078 
0.041114 0.090438 0.010204 0.0059294 0.049828 0.10951 0.059693 0.037661 
0.1054 -0.03057 -0.038462 -0.054246 -0.062467 -0.081703 -0.011498 -0.009361 
0.10819 -0.081868 -0.034516 -0.099295 -0.12034 -0.26568 -0.14007 -0.092883 
0.10951 -0.054575 -0.030406 -0.040106 -0.10653 -0.39442 -0.31402 -0.13777 
0.10655 0.027796 0.042265 0.047855 -0.037311 -0.37091 -0.31007 -0.09091 
-0.025638 0.057062 0.10491 0.10721 0.01563 -0.10752 -0.088608 -0.03616 
-0.16572 0.073668 0.11329 0.13368 0.09126 0.16722 0.26784 0.061666 
-0.12889 0.083204 0.066434 0.064954 0.10754 0.27343 0.42371 0.13861 
0.065118 0.062652 0.01415 0.01563 0.047362 0.18695 0.2514 0.060679 
0.33098 0.11494 0.019083 -0.015609 0.087808 0.19994 0.082546 0.04506 
