0.035195 0.036017 0.038977 0.019411 0.023193 0.024344 0.059035 0.0092177 
0.020233 0.039799 0.018589 0.029605 0.020398 0.023686 0.043251 0.031907 
0.0095465 0.048677 0.015465 0.05624 0.020562 0.03388 0.026317 0.031578 
0.021713 0.03651 0.020727 0.01826 0.02533 0.020727 0.021056 0.038319 
0.03947 0.048184 0.011026 0.044238 0.024673 0.02681 0.031414 0.02533 
0.032893 0.058213 0.029276 0.026317 0.036017 0.038812 0.033387 0.036346 
0.036675 0.035195 0.010369 0.0324 0.031414 0.022864 0.017767 0.015959 
0.040456 0.028619 0.018096 0.037168 0.014972 0.018096 0.018589 0.01563 
0.041607 0.062488 0.031742 0.037826 0.023851 0.035524 0.029112 0.021713 
0.030098 0.05213 0.045882 0.040785 0.013492 0.020398 0.027961 0.024673 
0.063145 0.040128 0.056733 0.02829 0.01974 0.023028 0.039963 0.029276 
0.06035 0.055747 0.070051 0.030098 0.028454 0.045224 0.037004 0.037826 
0.053445 0.077943 0.050486 0.028619 0.028783 0.033222 0.02681 0.044402 
0.0060938 0.022864 0.031249 0.035031 0.03651 0.032236 0.00297 0.027796 
0.0018191 0.028454 0.02122 0.056569 0.038812 0.026152 0.029112 0.033387 
-0.025474 0.053445 0.012013 0.053774 0.01974 0.028619 0.017274 0.016945 
-0.0070593 0.034702 0.024508 0.043745 0.018754 0.020398 0.025659 0.020562 
-0.0013048 0.039963 0.014972 0.033222 0.018754 0.019247 0.01563 0.035031 
0.020398 0.03947 0.011191 0.022864 0.015794 0.019247 0.022864 0.032564 
0.018096 0.03536 0.016781 0.035688 0.033058 0.012999 0.0324 0.040456 
0.0037921 0.026974 0.018589 0.024179 0.017767 0.022042 0.0056006 0.020891 
0.03799 0.024179 0.030592 0.037332 0.01974 0.01563 0.022206 0.031085 
0.040456 0.062488 0.044567 0.018754 0.022371 0.01563 0.02122 0.02829 
0.022206 0.042265 0.056733 0.01563 0.0324 0.029769 0.042429 0.037332 
0.032893 0.039141 0.039963 0.026481 0.034373 0.053938 0.0324 0.037661 
0.026974 0.058049 0.018754 0.010369 0.026974 0.017932 0.027303 0.035031 
0.038483 0.037168 0.0034632 0.040785 0.022042 0.017932 0.042923 0.025988 
0.02829 0.025495 0.012013 0.009711 0.017274 0.034044 0.037004 0.032564 
-0.0013048 0.034866 0.013328 0.0051074 0.037004 0.019905 0.031414 0.029769 
0.022371 0.024508 0.014643 0.0056006 0.02122 0.0095465 0.034702 0.035031 
0.028454 0.025988 -0.0054151 -0.010348 0.036839 0.033058 0.050814 0.035195 
0.030098 0.021384 0.0080668 0.018589 0.025166 0.015959 0.025166 0.025495 
0.0070803 0.045224 0.01004 0.007738 0.023193 0.011848 0.051472 0.024673 
0.061666 0.033387 0.029769 0.011026 0.026481 0.021713 0.012999 0.022864 
0.0421 0.066927 0.083204 0.0090533 0.018918 0.0085601 -0.0049219 0.04654 
0.069229 0.072188 0.042923 0.021713 0.020727 0.016781 0.021056 0.022042 
0.021384 0.06035 0.03092 0.047362 0.01152 0.038812 0.041607 0.03947 
0.012342 0.025001 0.004943 0.023851 0.0080668 0.0069159 0.029276 0.040128 
0.0075736 0.028947 -0.0011404 0.02122 0.0075736 0.0092177 0.020233 0.031249 
0.032729 0.048184 -0.029255 0.0083956 0.00083261 0.0080668 0.021549 0.033551 
0.030592 0.03799 0.027961 0.015794 0.021549 0.010862 0.030427 0.019083 
0.013164 0.034866 0.044567 0.040292 0.050814 -0.0059084 0.033715 0.018096 
-0.043724 0.051636 0.055582 0.050321 0.053938 0.037826 0.025495 0.0085601 
-0.074304 0.044402 0.041607 0.060022 0.036675 0.033715 0.016123 -0.001798 
-0.022021 0.06331 0.051965 0.047855 0.054267 0.032236 0.019247 0.017274 
0.013328 0.077614 0.047362 0.052623 0.04358 0.040292 0.023686 0.022535 
0.060844 0.048513 0.065283 0.027632 0.015301 0.043745 0.01974 0.004943 
0.12316 0.031249 0.052459 0.014808 0.018425 0.021713 0.023851 0.03388 
0.14174 0.044567 0.032564 0.048841 0.019905 0.044567 0.031085 0.038648 
0.10524 0.070051 0.039305 0.013164 0.031414 0.010204 0.06035 0.074654 
0.059528 0.064625 0.016288 0.012342 0.015301 -0.010183 0.038648 0.049499 
0.042758 0.066269 0.018096 0.012342 0.019083 0.0062583 0.010862 0.043416 
0.069722 0.087808 0.012506 -0.0096899 0.010697 -0.0034422 0.03947 0.033387 
0.072353 0.075312 0.040785 0.031414 0.021549 0.0014903 0.024508 0.044238 
0.048841 0.060679 0.035688 0.018425 0.038319 0.024179 0.031578 0.032564 
-0.014129 0.035195 0.036346 0.036182 0.029441 0.041772 0.025824 0.02122 
-0.043888 0.019576 0.048348 0.047526 0.052459 0.020891 0.027468 0.026974 
-0.009361 -0.0044286 0.051965 0.040456 0.031249 0.049006 0.030098 0.020562 
0.03651 -0.0036066 0.04506 0.039799 0.018918 0.020398 0.022371 0.023193 
0.05213 0.049664 0.032071 -0.0064016 0.01826 0.0019835 -0.01117 0.012013 
0.045224 0.032564 -0.0080457 0.031414 0.031578 0.018589 0.0042853 0.020398 
0.017767 0.02829 0.01711 0.012835 0.021549 0.015137 0.0046141 0.0098754 
-0.019884 0.03536 0.013164 0.018589 0.033058 0.022371 0.029605 0.020398 
-0.04619 0.0023123 0.012506 0.044402 0.040785 0.040128 0.032071 -0.017746 
0.0046141 0.026481 0.01974 0.039634 0.025659 0.031249 0.031907 0.031907 
0.071366 0.07038 0.0036276 0.052952 0.045553 0.022042 0.033058 0.047362 
0.081067 0.052952 -0.0004827 0.029934 0.030592 0.033222 0.035524 0.036839 
0.056898 0.036017 0.00099702 0.036182 0.05213 0.057391 0.046704 0.059035 
0.051801 0.056898 0.047362 0.055418 0.044238 0.044567 0.047362 0.037168 
0.050814 0.092247 0.086821 0.052952 0.071859 0.06594 0.027796 0.042758 
0.05624 0.083204 0.090438 0.051143 0.032893 0.056733 0.025988 0.038319 
0.032564 0.021384 0.045882 0.0227 0.021056 0.038483 0.039305 0.0324 
0.0051074 -0.036818 -0.010841 0.010533 0.0227 0.017274 0.013164 0.0059294 
0.017274 -0.093376 -0.01117 0.0036276 0.026974 -0.0021268 0.0047785 0.0018191 
0.036182 -0.0078813 -0.014129 0.0014903 0.012342 -0.018897 -0.023994 0.0016547 
0.072846 0.13121 0.015959 0.033058 0.0021479 -0.017253 -0.0014692 0.021549 
0.029441 0.17708 0.033222 0.0324 0.035853 0.0069159 0.011355 0.0083956 
-0.014293 0.12908 0.073175 0.085999 0.069393 0.040128 0.033551 0.050814 
-0.011498 0.089287 0.092576 0.053116 0.074983 0.038977 0.04506 0.054267 
0.0072447 0.06479 0.056569 0.048677 0.04917 0.084519 0.068078 0.043745 
0.074983 0.035688 0.0592 0.075148 0.038812 0.084355 0.08863 0.049335 
0.069393 0.020727 0.062981 0.046211 0.034373 0.056569 0.060022 0.037168 
0.046211 0.0060938 0.042429 0.062323 0.013986 0.045553 0.031414 0.040456 
0.030098 -0.0090322 0.020233 0.017274 0.011026 0.005765 -0.0091966 0.013328 
0.022864 -0.01939 -0.00031829 -0.010841 0.0047785 -0.00031829 0.016781 0.018096 
0.018589 -0.042737 -0.041257 -0.013307 0.00017495 -0.0078813 0.015465 0.011355 
0.0054362 -0.037805 -0.014787 -0.035667 0.00099702 -0.0039354 0.016123 0.016616 
-0.026624 -0.04619 -0.0095255 0.026317 0.027303 0.0059294 0.013657 0.01974 
-0.015444 -0.022185 0.014808 0.023193 0.024508 0.042429 0.041772 0.01826 
-0.001798 0.031414 0.012999 0.030592 0.0013258 0.036675 0.048348 0.051143 
-0.0082102 0.029441 0.0070803 0.01974 0.020562 0.013657 0.01267 0.02122 
-0.049642 0.022371 0.014315 0.0098754 0.023522 0.023028 0.024837 0.037826 
-0.062796 0.0689 0.020727 0.015794 0.016288 0.025824 0.0064227 0.01711 
-0.0036066 0.11017 0.033387 0.018096 0.028454 0.021878 0.028947 0.024179 
0.06479 0.1567 0.061995 0.028454 0.040456 0.023686 0.012999 0.010369 
0.22707 0.23315 0.073504 0.031249 0.030427 0.035195 0.026974 0.031414 
0.24976 0.26209 0.063639 0.031578 0.031414 0.012342 0.024837 0.029441 
0.15851 0.23085 0.067585 0.064296 0.023357 0.03799 0.047855 0.046704 
0.061666 0.17955 0.048184 0.011355 0.01152 0.022864 0.02829 0.039141 
0.0062583 0.13549 0.024837 0.043251 0.044238 0.0079024 0.036017 0.03536 
-0.017746 0.038155 0.023851 0.020562 0.026974 0.032071 0.028454 0.033715 
-0.018733 -0.038298 0.024015 0.029605 0.01974 0.014808 0.042758 0.024179 
-0.041422 -0.06 0.027468 0.031907 0.009711 0.011355 0.033058 0.023522 
-0.0088678 -0.081374 0.033387 0.023686 0.025659 0.023522 0.029276 0.02681 
0.016781 -0.071016 0.039305 0.071202 0.025988 0.01974 0.01711 0.022042 
0.011848 -0.057041 0.056569 0.023357 0.048841 0.011191 0.018425 0.024508 
0.014972 -0.0064016 0.062488 0.030592 0.05065 0.022864 0.042594 0.026974 
0.012999 -0.010348 0.050486 0.046868 0.040621 0.027468 0.035195 0.023686 
0.038648 0.0026412 0.056569 0.025495 0.022864 0.00099702 0.01711 0.02681 
0.032071 0.032236 0.023522 0.027303 -0.0050863 -0.019226 -0.0032777 0.017932 
0.005765 0.0028056 -0.025967 -0.031721 -0.012978 -0.016266 0.013821 -0.0014692 
0.029769 0.035688 -0.036983 -0.015116 -0.0082102 0.021549 0.023193 0.012506 
0.077121 0.15226 0.023686 -0.0024557 0.042594 0.065447 0.032729 0.036346 
0.063639 0.19007 0.082711 0.046046 0.071037 0.078436 0.045224 0.061337 
0.082875 0.18202 0.13401 0.064296 0.079094 0.07038 0.041772 0.045882 
0.068078 0.13499 0.13467 0.05476 0.05624 0.031578 0.037004 0.02122 
0.062652 0.097837 0.12398 0.06742 0.019083 -0.0047575 0.012013 0.042594 
0.045224 0.012835 0.065283 0.041936 -0.016266 -0.038298 0.0064227 0.036017 
0.072353 -0.04471 0.023686 0.0064227 -0.0059084 -0.040928 -0.0055795 -0.0022913 
0.054103 -0.039449 -0.026953 0.028947 0.014315 0.01152 0.012506 0.0054362 
0.029934 -0.11212 -0.035174 0.0065871 0.042594 0.037661 0.028454 0.024673 
0.015301 -0.15536 -0.02235 0.035031 0.053774 0.036675 0.048513 0.027303 
0.014643 -0.10883 -0.032215 0.0065871 0.062652 0.067913 0.043909 0.050321 
0.023028 -0.035667 -0.0031133 -0.026953 0.031578 0.062817 0.042923 0.022206 
-0.0075525 -0.07825 -0.059672 -0.0082102 0.028783 0.0031344 0.028947 0.022535 
0.0021479 -0.071674 -0.065755 -0.019226 -0.0039354 -0.022843 0.0016547 0.0227 
0.01974 0.11707 0.0014903 0.010369 -0.011827 -0.02942 -0.019884 0.020891 
0.05476 0.28626 0.086163 0.022206 -0.0060728 -0.010348 -0.00081153 0.034044 
0.048019 0.27836 0.14716 0.061666 0.038319 0.042429 0.057391 0.050321 
0.026152 0.2001 0.1539 0.072024 0.071859 0.05213 0.05065 0.058377 
0.041443 0.074161 0.10244 0.05213 0.051472 0.049828 0.047691 0.060186 
-0.011005 -0.032708 0.048513 0.053281 0.049828 0.04506 0.025166 0.041278 
-0.027282 -0.10406 0.027632 0.024015 0.047033 0.011355 0.047855 0.024837 
0.0090533 -0.14336 -0.004593 0.025001 0.037004 0.0013258 0.029605 0.038483 
0.028947 -0.157 -0.031064 -0.023501 -0.0016336 0.015301 0.015137 0.00017495 
0.022371 -0.12429 -0.042901 -0.009361 0.0019835 0.0023123 0.00083261 0.018754 
0.0083956 -0.030242 -0.026624 0.0042853 -0.012814 0.012506 -0.0011404 0.0088889 
-0.0057439 0.082217 -0.001798 0.012835 0.028454 0.057227 0.024673 0.023357 
0.050979 0.19468 0.019083 0.070215 0.060679 0.066927 0.042429 0.021713 
0.073997 0.25107 0.039141 0.029276 0.052294 0.075148 0.039799 0.026974 
0.063145 0.22641 0.050486 0.03092 0.060186 0.062652 0.041443 0.014808 
0.0324 0.14058 0.054103 0.04654 0.050814 0.032071 0.041278 0.01974 
0.01563 0.020891 0.025659 0.034537 0.049499 0.0037921 0.012177 0.018589 
0.0054362 -0.050136 -0.018568 0.058706 0.026974 0.01152 0.0060938 0.021056 
0.0075736 -0.12264 -0.03057 0.0054362 0.0047785 -0.0072237 -0.00097594 0.032071 
-0.0024557 -0.11607 -0.023994 0.015465 0.007738 -0.0057439 0.024837 0.029276 
0.013492 -0.06444 0.010697 0.0060938 0.0069159 0.033715 0.030592 0.033551 
0.013328 -0.087293 0.011355 0.011684 0.019247 0.02829 0.010369 0.011355 
-0.0004827 -0.049149 0.005765 0.042923 0.0085601 0.0093821 -0.0019624 0.044731 
0.0080668 0.046375 0.01826 0.032729 0.020562 0.036017 0.020562 0.025166 
0.040128 0.17314 0.048184 0.044731 0.030098 0.031578 0.032729 0.030263 
0.052294 0.24285 0.065283 0.031414 0.0095465 0.043087 0.01711 0.030263 
0.061666 0.25156 0.092576 0.021384 0.023193 0.047197 0.0067515 0.016781 
0.034373 0.23414 0.076299 0.044567 0.004943 0.027961 0.0051074 0.028783 
0.047691 0.17906 0.077285 0.046868 0.037332 0.016452 0.038319 0.015137 
0.045224 0.20931 0.090603 0.075148 0.028454 0.034373 0.032729 0.03651 
0.094713 0.29826 0.13039 0.02533 0.0324 0.025001 0.035688 0.016123 
0.041607 0.28247 0.12283 0.055582 0.038155 0.029934 0.028783 0.043416 
-0.0021268 0.18448 0.085835 0.044238 0.044402 0.028619 0.049335 0.022864 
0.029441 -0.023172 0.037497 0.038812 0.024673 0.032729 0.033222 0.01974 
0.010204 -0.10949 -0.028597 0.03651 0.039305 0.022206 0.026317 0.011848 
0.018589 -0.121 -0.044874 -0.0055795 0.0093821 0.016781 0.0060938 0.014315 
0.021056 -0.017253 -0.024487 -0.011005 -0.0072237 0.016452 0.015137 0.020398 
0.048677 0.12842 0.033715 0.017438 -0.0055795 -0.0039354 0.034373 0.0052718 
0.063968 0.11905 0.068407 0.037004 -0.0057439 0.033222 0.036839 0.037826 
0.065612 0.11494 0.092904 0.045553 0.02681 0.01974 0.035688 0.040456 
0.072846 0.14552 0.084355 0.035524 0.026974 0.019576 0.028619 0.059857 
0.05772 0.14749 0.066269 0.048513 0.024015 0.066269 0.065447 0.024179 
0.026974 0.10425 0.058049 0.046046 0.03947 0.028783 0.034209 0.037661 
0.036346 0.015137 0.04095 0.0082312 0.048513 0.0070803 0.009711 0.029605 
0.030756 0.027468 0.03388 0.050157 0.044073 0.024508 0.024837 0.040785 
0.035195 -0.014622 0.015301 0.025001 0.014808 0.013657 0.034866 0.027796 
0.04358 -0.023665 -0.012649 0.043909 0.012506 0.016452 0.035688 0.023193 
0.042594 -0.041257 -0.008539 0.045882 0.027139 0.013821 0.048348 0.047197 
0.031742 -0.10521 -0.0004827 0.040621 0.019905 0.017603 0.016945 0.034209 
0.034702 -0.13415 -0.0090322 0.046868 0.023686 0.0047785 0.0044497 0.029112 
0.036017 -0.12067 0.0024767 -0.0040998 0.023851 -0.0054151 0.022042 0.024179 
0.043251 -0.031392 0.0227 0.03651 0.025988 0.0047785 0.023851 0.047197 
-0.09091 0.024015 0.031742 0.025001 0.039634 0.0098754 0.0074092 0.060022 
-0.2596 0.041936 0.029769 0.03536 0.030427 0.021549 0.024673 0.076134 
-0.34098 0.0592 0.035524 0.032564 0.029276 0.030756 0.029276 0.044402 
-0.17295 0.037332 0.01267 -0.0075525 0.0085601 -0.0031133 0.01415 0.0016547 
0.33755 0.061172 -0.015773 -0.0036066 -0.025309 -0.015116 -0.030899 -0.010019 
0.65043 0.18514 0.041278 -0.0064016 1.0539e-005 0.016616 0.0098754 -0.016924 
0.60637 0.25354 0.081231 0.061666 0.046211 0.065447 0.062159 0.00297 
0.35662 0.29464 0.11115 0.066269 0.055911 0.052952 0.068736 0.02533 
0.088794 0.2075 0.10819 0.047197 0.049664 0.067913 0.042429 0.058706 
-0.10225 0.092904 0.081067 0.059528 0.039141 0.020562 0.034537 0.051143 
-0.17953 -0.024323 0.040128 0.015794 0.029441 0.0083956 0.02681 0.085341 
-0.17657 -0.12264 0.0080668 0.012999 0.0074092 0.036182 0.037332 0.05476 
-0.14336 -0.13037 -0.05589 -0.0078813 0.014315 0.0064227 0.022206 0.040621 
-0.12544 -0.14484 -0.086307 -0.0011404 0.0047785 0.0054362 0.016288 0.013986 
-0.063289 -0.10472 -0.094692 0.025001 0.01826 0.027632 0.026317 0.032071 
-0.0060728 -0.063124 -0.063289 -0.013307 0.0098754 -0.0047575 0.047526 0.029934 
0.019083 -0.059836 -0.044381 0.024015 0.024179 0.0070803 0.032729 0.045718 
0.0067515 -0.072332 -0.042573 -0.0032777 0.027139 0.01004 0.018589 0.031742 
0.03536 -0.094856 -0.047341 -0.0004827 0.021384 0.020069 0.0023123 0.00083261 
0.042265 -0.049642 -0.022185 0.014479 0.033387 0.004943 0.016288 0.017438 
0.070873 0.016452 0.0083956 -0.011663 0.0072447 0.042265 0.036017 0.0087245 
0.10787 0.013164 0.024673 0.0079024 0.016288 0.023851 0.02829 0.044731 
0.11099 0.0034632 0.038977 0.00099702 0.021713 0.01563 0.029605 0.02829 
0.11411 0.046211 0.065283 0.014808 0.0047785 0.045882 0.013328 0.017603 
0.078765 0.16623 0.055747 0.019905 0.024673 0.044731 0.044567 0.026317 
0.073175 0.27886 0.10244 0.024837 0.027468 0.020069 0.026481 0.039634 
0.019083 0.20224 0.075805 0.033387 0.030756 0.028125 -0.0036066 0.010204 
-0.0039354 0.091753 0.055418 0.01711 0.037826 0.0028056 0.0098754 0.01152 
-0.0029489 0.05624 0.048841 0.038319 0.070873 0.024837 0.036182 0.0014903 
0.013492 0.077943 0.055089 0.032236 0.029605 0.0592 0.040785 0.030098 
0.027468 0.061666 0.011848 0.00050378 0.039305 0.057227 0.032564 0.016288 
0.023028 0.0019835 -0.0095255 0.019905 0.01711 0.033058 0.013657 0.011026 
0.015794 -0.035503 -0.0032777 0.0034632 0.016123 0.026317 0.024673 0.038483 
0.01563 -0.10258 0.014808 0.022864 0.017274 0.017767 0.026481 0.023193 
0.00066819 -0.092719 0.031249 1.0539e-005 0.01415 0.0028056 0.016945 0.045389 
0.034373 -0.0138 0.025988 0.0070803 0.029112 0.022206 0.0072447 0.029276 
0.040785 0.071366 0.034373 0.021549 0.042429 0.016781 0.023522 0.04654 
0.0067515 0.10293 0.062817 0.018096 0.046375 0.022206 0.028783 0.0072447 
0.014479 0.13105 0.076956 0.062652 0.031249 0.031907 0.01826 0.013492 
0.009711 0.087808 0.068571 0.041114 0.027468 0.025988 0.016452 0.026317 
0.031907 0.041443 0.08978 0.039799 0.039799 0.030756 0.019083 0.041278 
0.059528 0.063474 0.090109 0.063803 0.016945 0.041114 0.049499 0.039799 
0.088465 0.18218 0.10129 0.027796 0.02533 0.043087 0.046704 0.042758 
0.044073 0.24564 0.08419 0.077614 0.0093821 0.033387 0.041607 0.034209 
-0.019061 0.20092 0.044073 0.04358 0.041772 0.023028 0.012506 0.0075736 
-0.045368 0.11132 0.03092 0.031578 0.046046 0.014643 0.0026412 0.0023123 
-0.034516 0.0032988 0.0028056 0.0069159 0.037497 0.010862 0.022535 -0.0016336 
-0.069043 -0.10998 0.0034632 0.024015 0.035688 0.043909 0.020562 0.029276 
-0.065262 -0.24809 -0.0072237 0.06035 0.040128 0.05065 0.018096 0.024508 
-0.095185 -0.26716 -0.00097594 0.052787 0.043416 0.042429 0.015959 0.019576 
-0.098967 -0.21965 -0.017417 0.054596 0.02122 0.0324 0.059857 0.007738 
-0.086636 -0.16621 -0.063618 0.011191 0.013821 0.03092 0.043416 0.0082312 
-0.060658 -0.09387 -0.10949 -0.012649 0.010862 0.017274 0.0093821 0.013164 
0.043909 -0.026789 -0.073976 0.009711 0.023028 0.0039565 -0.0082102 0.028783 
0.10244 0.10869 0.00297 0.018096 0.056076 0.030098 0.020069 0.047526 
0.10129 0.17659 0.070708 0.063145 0.062488 0.039799 0.036346 0.039141 
0.099316 0.21441 0.10507 0.031907 0.0592 0.088794 0.057062 0.063474 
0.071531 0.24433 0.15209 0.056898 0.033222 0.043909 0.026481 0.032564 
0.10556 0.30631 0.16114 0.076956 0.03799 0.0028056 0.025001 0.004943 
0.075805 0.28856 0.1396 0.047526 0.029605 -0.0047575 0.012177 -0.004593 
0.062323 0.27886 0.13253 0.048348 0.0082312 0.022042 0.026646 0.029934 
0.04506 0.22657 0.12579 0.055089 0.028454 0.0227 0.02533 0.02681 
0.029441 0.14157 0.11444 0.044402 0.041607 0.044731 0.010697 0.023357 
0.020562 0.061337 0.06035 0.0421 0.037004 0.049992 0.053281 0.043416 
0.023686 0.010862 0.045882 0.048019 0.051636 0.031742 0.032236 0.038483 
0.015959 -0.045532 -0.013471 0.053116 0.048184 0.025824 0.022535 0.037497 
-0.014293 -0.1455 -0.072332 0.020727 0.037168 0.03536 0.0087245 0.024837 
-0.048163 -0.19614 -0.09387 -0.006566 0.010369 -0.00081153 0.033222 0.063968 
-0.059672 -0.18232 -0.063782 0.0031344 -0.0004827 0.012999 0.025659 0.030098 
-0.030077 -0.10637 -0.05326 -0.0034422 0.0011614 0.033058 0.0079024 0.038155 
0.061666 0.018918 0.025988 0.056404 0.01004 0.036839 0.029112 0.02829 
0.13598 0.11231 0.033222 0.067749 0.031578 0.022371 0.038483 0.013164 
0.11905 0.15522 0.0421 0.049664 0.053609 0.039634 0.030756 0.0088889 
0.054103 0.15505 0.014808 0.00083261 0.06331 0.022042 0.010862 0.0031344 
0.040456 0.14979 0.025166 0.026974 0.044731 0.0047785 -0.0024557 0.017438 
0.034044 0.17758 0.052787 0.037004 0.016616 0.020069 0.01711 0.015301 
0.044567 0.23216 0.069722 0.027961 0.014808 0.01974 0.052294 0.05476 
0.051308 0.19829 0.067585 0.061008 0.019247 0.0052718 0.033715 0.043909 
0.089123 0.18481 0.067585 0.017438 0.007738 0.032729 0.024015 0.055089 
0.11033 0.19435 0.093398 0.035688 0.021384 0.029441 0.02681 0.042265 
0.089616 0.12365 0.093398 0.034373 0.0098754 0.016288 0.04358 0.050979 
0.039141 0.051143 0.064296 0.023851 0.037332 0.013821 0.027139 0.036182 
-0.00015387 0.0041209 0.022535 0.029934 0.035031 -0.0027845 0.022042 0.013821 
0.0070803 -0.019061 -0.0078813 -0.012814 0.010862 -0.0029489 0.00099702 0.0072447 
0.03947 0.014315 0.0046141 0.012342 0.026317 0.0080668 0.01974 0.014315 
0.049499 0.052459 0.037826 0.015137 0.028125 0.0056006 0.020069 0.021878 
0.051143 0.026317 0.037661 0.040128 0.03092 0.010204 0.016616 0.012342 
0.063639 -0.033365 0.013821 0.042429 0.019905 0.010533 0.0227 0.026317 
0.093069 -0.0036066 0.029112 0.039634 0.038483 0.041936 0.029605 0.015137 
0.085999 0.11855 0.033222 0.031907 0.022371 0.015959 0.045718 0.039141 
0.084355 0.15818 0.061337 0.016945 0.032729 0.020069 0.036675 0.02681 
0.048513 0.13582 0.065612 0.011684 0.040292 0.028125 0.017932 0.038648 
0.03947 0.098823 0.0421 0.026974 0.010369 0.010369 0.020727 0.031249 
0.016616 0.088794 0.0092177 -0.012156 -0.0088678 0.0059294 0.015465 0.035031 
-0.068057 0.061995 0.022864 0.022206 0.0037921 0.019411 0.022371 0.03388 
-0.17493 -0.016266 -0.0055795 0.026317 0.0324 0.048019 0.010204 0.039799 
-0.16999 0.039634 0.046375 0.033551 0.023028 0.015465 0.013986 0.045553 
0.10507 0.08978 0.053609 0.042429 0.045553 0.030427 0.038648 0.016945 
0.48257 0.05624 0.051472 0.03651 0.035853 0.025988 0.048513 0.030427 
0.63547 0.0087245 0.049992 0.042594 0.014808 -0.0040998 0.034373 0.021549 
0.2851 -0.11722 -0.0019624 0.017767 0.02533 0.014315 0.025824 0.028619 
-0.061973 -0.16342 -0.010019 -0.037476 0.02681 -0.0021268 -0.0070593 0.013492 
-0.18495 -0.11228 -0.011498 0.0090533 0.012835 0.018754 0.028454 0.02122 
-0.15289 -0.069372 -0.011498 0.012999 0.0047785 0.062159 0.038319 0.026317 
-0.1358 -0.2762 -0.041257 0.0085601 0.025166 0.042429 0.0324 0.029441 
-0.10341 -0.40543 -0.03912 -0.0075525 0.018096 0.03092 0.020727 0.019905 
-0.023007 -0.13941 -0.023172 0.018754 0.0024767 0.048841 0.025495 0.038155 
0.039634 0.18267 0.01267 0.0075736 0.0072447 0.019411 0.03947 0.028454 
0.051636 0.29596 0.054267 0.025824 0.025824 0.0021479 0.0023123 0.021878 
0.026974 0.24647 0.061008 0.029605 0.040456 0.024837 0.0036276 0.023686 
0.0036276 0.091425 0.065283 0.044402 0.039963 0.014972 -0.011005 0.026646 
-0.011498 -0.02942 0.053281 0.060186 0.028619 0.014808 0.042265 0.049828 
-0.064768 -0.036983 0.025495 0.041936 0.015794 0.053281 0.04095 0.026481 
-0.052931 -0.0138 0.030592 0.035524 0.012999 0.016123 0.02533 0.040128 
0.0095465 -0.011663 0.031249 0.03799 0.020727 0.0056006 0.039305 0.041114 
0.10622 -0.022679 0.029769 0.013328 0.0034632 0.024837 0.024508 0.030756 
0.23677 0.020069 0.026317 0.013986 0.019083 0.015465 0.031742 0.019247 
0.22641 0.034866 0.026974 0.0021479 0.014808 0.015465 0.020233 0.020398 
0.098001 0.027632 0.00297 0.0062583 0.03947 0.021713 0.013492 0.017932 
0.0026412 -0.034188 -0.01117 0.031085 0.053609 0.0039565 0.012835 0.040292 
-0.051451 -0.090746 -0.015444 0.045224 0.041772 0.03536 0.044073 0.029276 
-0.11903 -0.077428 0.019905 0.074161 0.051965 0.07038 0.03388 -0.0016336 
-0.073647 0.049006 0.032236 0.042265 0.048677 0.036182 0.023357 0.020891 
0.023028 0.14223 0.0070803 0.036017 0.029112 0.044896 0.021384 0.02122 
0.060186 0.1128 0.026152 0.0047785 0.014808 0.030427 0.045718 0.049828 
0.056733 0.062652 0.010204 0.011026 0.036675 0.032729 0.025659 0.052459 
0.030427 0.047526 0.025495 0.018754 0.023193 0.014808 0.025495 0.029276 
0.039305 0.010533 0.042923 0.033715 0.035031 0.023193 0.020233 0.025495 
0.0095465 -0.083183 0.051965 0.056404 0.03536 0.017932 0.016452 0.033387 
-0.022514 -0.092226 0.0421 0.043745 0.036182 0.0082312 0.025659 0.025659 
-0.053095 -0.05737 0.023522 0.037168 0.014808 0.012342 0.012342 0.0070803 
-0.059672 -0.026789 0.00050378 0.034702 0.016616 0.024508 0.014808 -0.0034422 
-0.11097 -0.0138 -0.016266 0.023357 0.0227 0.0082312 0.011848 0.0069159 
-0.091075 0.051965 -0.0080457 0.041114 0.020562 0.031414 0.042923 0.041114 
-0.0027845 0.10639 0.011191 0.044073 0.014315 0.044731 0.010533 0.054432 
0.051965 0.11757 0.054267 0.025495 0.043745 0.020398 0.044238 0.077285 
0.11477 0.14765 0.055582 0.044896 0.044238 0.048348 0.017767 0.071695 
0.23973 0.15144 0.050321 0.0095465 0.036839 0.017767 0.045389 0.030427 
0.2052 0.17347 0.075312 0.018918 0.025659 0.037661 0.027961 -0.0027845 
0.089123 0.17791 0.056076 0.0079024 0.01152 0.011191 0.01004 0.015794 
-0.028104 0.17478 0.069886 0.055089 0.025166 0.0098754 0.028947 0.037004 
-0.10472 0.1539 0.091753 0.040785 0.020069 0.020069 0.034209 0.025166 
-0.10587 0.1784 0.063145 0.037168 0.020727 0.018918 0.037661 0.034209 
-0.07973 0.21605 0.031414 0.051472 0.032564 0.037826 0.016781 0.031742 
-0.041257 0.20717 0.016616 0.011026 0.03947 0.018425 0.018096 0.020398 
0.0075736 0.18202 0.025001 -0.02794 0.046868 0.0024767 0.021549 0.0047785 
0.043251 0.12579 0.036182 0.021878 0.049992 0.026317 0.044731 0.033058 
0.016616 0.012013 0.0065871 0.019411 0.011191 0.014643 0.031742 0.038977 
0.025988 -0.08121 0.0054362 0.029112 0.012835 0.00083261 0.028125 0.028947 
0.022864 -0.11146 0.017603 0.017274 0.031085 0.024508 0.0039565 -0.0014692 
0.053445 -0.042737 0.059035 0.075476 0.029441 0.035195 0.042594 0.039963 
0.055089 0.01826 0.09274 0.054103 0.043745 0.013821 0.013164 0.069558 
0.078765 0.058049 0.095042 0.0421 0.035031 0.025166 0.019905 0.055089 
0.068078 0.10244 0.06183 0.031249 0.037168 0.0014903 0.029441 0.058213 
0.036839 -0.028433 -0.038791 0.0060938 0.038319 0.01826 0.025988 0.023193 
-0.029091 -0.10275 -0.077264 0.0083956 0.028619 0.030098 0.028454 0.012835 
-0.046847 -0.068879 -0.05737 -0.031064 0.026317 0.025988 0.033387 0.0085601 
-0.02235 0.039305 -0.0087034 -0.0050863 0.020891 0.019247 0.029605 0.020398 
0.02829 0.17922 0.088301 0.039305 0.031742 0.031578 0.050157 0.034373 
0.043745 0.27458 0.1003 0.051636 0.046046 0.024508 0.033222 0.037661 
0.090931 0.32588 0.13286 0.07597 0.029769 0.017438 0.019905 0.051143 
0.080244 0.34824 0.1391 0.036675 0.025659 0.044402 0.024508 0.038977 
0.097837 0.33081 0.1544 0.032564 0.026152 0.047855 0.019576 0.036675 
0.081395 0.22411 0.14289 0.033715 0.040292 0.01711 0.039305 0.027468 
0.053609 0.060186 0.098001 0.030592 0.041772 0.037661 0.028947 0.032729 
0.011355 -0.059178 0.025659 0.040456 0.035195 0.016781 0.0069159 0.020727 
-0.004593 -0.081045 -0.0073881 0.007738 0.021713 0.0054362 0.0028056 0.040292 
0.027468 -0.071181 -0.01939 0.030592 0.012342 0.025495 0.0021479 0.023522 
0.048677 -0.03057 -0.050793 0.019411 0.022864 0.021549 0.020233 0.038812 
0.03536 0.042594 0.00066819 0.04917 0.032236 0.025659 0.034537 -0.0042642 
0.070873 0.15209 0.065283 0.078929 0.062652 0.050814 0.044731 0.047526 
0.10622 0.13072 0.071202 0.045224 0.027961 0.0421 0.052787 0.049664 
0.043909 -0.079072 -0.0095255 0.039634 0.02829 0.021713 0.042429 0.027468 
-0.012649 -0.22573 -0.067399 -0.035996 0.019411 0.016945 0.025001 0.036675 
0.010204 -0.13925 -0.06 -0.042573 0.012835 -0.00031829 0.01415 0.00083261 
0.065118 0.05213 -0.029091 0.0090533 -0.023172 -0.015444 -0.0022913 0.017438 
0.068736 0.11526 0.012342 -0.0047575 -0.003771 0.0093821 0.0064227 0.0072447 
0.060844 0.093562 0.045882 0.065283 -0.028269 0.020233 0.045882 0.031578 
0.051472 0.044731 0.05476 0.048677 0.029276 0.029605 0.035853 0.049664 
0.050979 0.00066819 0.079751 0.051965 0.040292 0.053445 0.047526 0.068078 
0.010862 -0.070852 0.0786 0.058542 0.040292 0.073997 0.046375 0.055254 
-0.028104 -0.098309 0.041607 0.0036276 0.030756 0.04654 0.054925 0.027303 
-0.028762 -0.048492 0.028454 0.04095 0.035853 0.02829 0.022206 0.037661 
0.036182 0.05624 0.04917 0.047197 0.054103 0.039141 0.026974 0.027961 
0.098659 0.12595 0.085835 0.080409 0.0041209 0.030263 0.029441 0.073339 
0.14009 0.15851 0.075148 0.046704 0.01826 0.0090533 0.045224 0.035853 
0.087314 0.084848 0.060844 0.038483 -0.0026201 0.0088889 0.026974 0.02681 
0.054267 0.043909 0.035031 0.032236 0.015465 -0.0027845 0.0032988 0.00050378 
0.034866 0.08567 0.025659 0.0021479 -0.0026201 -0.0082102 0.0070803 0.0421 
0.020891 0.095371 -0.025309 0.0062583 -0.0075525 -0.004593 0.0019835 0.026974 
0.025495 0.10803 -0.028926 -0.027775 -0.0034422 -0.02498 -0.010841 0.035524 
0.034866 0.056076 -0.029913 -0.0042642 0.0080668 0.0080668 -0.0075525 0.0014903 
0.067913 0.0041209 0.0036276 0.043909 0.056076 0.076956 0.031742 0.0074092 
0.080409 0.033551 0.028125 0.051308 0.053116 0.068407 0.050486 0.0046141 
0.08978 0.043087 0.056404 0.072517 0.029605 0.07301 0.077121 0.020891 
0.039963 -0.05885 0.020233 0.026646 0.01267 0.096521 0.049335 0.070215 
-0.011334 -0.21751 -0.032379 0.0021479 0.014643 0.03651 0.025001 0.047362 
-0.010183 -0.30761 -0.057205 0.013492 0.019576 -0.01676 -0.0021268 0.03092 
0.0019835 -0.28558 -0.020706 0.019576 0.0034632 -0.023829 0.0039565 0.012835 
0.028125 -0.21784 0.048513 0.04654 0.038977 -0.021692 0.0065871 0.027961 
0.023522 -0.10078 0.071859 0.044238 0.043416 0.0092177 0.020233 0.028783 
0.040292 0.035195 0.069722 0.052294 0.036675 0.041114 0.03092 0.041278 
0.011848 0.15785 0.064954 0.028783 0.026152 -0.0096899 0.0074092 0.020069 
-0.022185 0.18202 0.03092 0.0047785 -0.02646 -0.03057 0.023522 0.015137 
-0.019226 0.15703 0.012013 0.00017495 0.0026412 0.0095465 -0.0050863 0.0059294 
0.00297 0.16344 0.016945 -0.0090322 -0.016431 0.022535 0.02122 0.042265 
0.049828 0.14305 0.031907 0.023193 -0.0014692 0.041114 0.027303 0.04358 
0.079094 0.13828 0.040292 0.027632 0.015301 0.050157 0.062159 0.057555 
0.085999 0.088958 0.030427 0.029276 0.024015 0.010204 0.022371 0.073175 
0.044402 0.029441 0.012013 0.019905 0.041114 0.010204 0.017274 0.021878 
0.012835 0.033551 0.026152 -0.02235 0.034373 0.0019835 0.0060938 0.018918 
-0.010512 0.027139 0.022371 0.01004 0.021878 -0.0042642 0.0060938 -0.001798 
0.0018191 0.066434 0.0421 -0.011992 0.0064227 -0.028104 0.0075736 0.0041209 
0.0227 0.14108 0.020562 -0.0014692 0.01004 0.0021479 0.0067515 0.019576 
0.0064227 0.18876 0.086821 0.049828 0.019247 0.027139 -0.0080457 0.020727 
0.061501 0.15045 0.058542 0.039141 0.039963 0.035853 0.03388 0.051801 
0.038319 0.078107 0.023028 0.081395 0.093069 0.11148 0.031085 0.054267 
0.019247 0.076299 0.0079024 0.066269 0.11313 0.11214 0.051308 0.048184 
0.0085601 0.058706 0.012342 0.070873 0.10063 0.085835 0.057884 0.027303 
-0.089759 0.064625 0.015794 0.055418 0.082217 0.065447 0.046046 0.063474 
-0.16161 -0.038627 0.034209 0.053938 0.038483 0.038977 0.047855 0.020891 
-0.17756 -0.23839 -0.00015387 0.043251 -0.0068948 -0.020048 -0.0026201 0.007738 
-0.078086 -0.39277 -0.026953 0.015959 -0.018075 -0.034023 0.0041209 -0.018404 
0.11395 -0.36351 -0.031392 -0.0036066 -0.013965 -0.0047575 0.0052718 0.0044497 
0.21753 -0.23214 -0.035174 0.012506 0.0065871 -0.019226 0.030592 -0.01117 
0.21243 -0.041586 -0.018568 -0.0019624 -0.00081153 0.0034632 0.024508 0.0070803 
0.13483 0.21704 0.062981 0.0069159 -0.009361 0.024344 0.021878 0.04095 
0.04917 0.32259 0.11658 0.024179 0.025824 0.024673 0.030098 0.062159 
-0.0047575 0.31273 0.10918 0.038483 0.023851 0.014315 0.021878 0.044896 
-0.021363 0.27573 0.090603 0.00099702 0.025166 0.023357 0.011026 0.031742 
-0.02498 0.25518 0.067749 -0.0055795 0.0080668 0.00099702 0.0024767 0.032236 
-0.016595 0.20816 0.047197 0.037168 0.0028056 0.023193 0.03092 0.023357 
-0.0019624 0.16903 0.05624 0.051143 0.052787 0.055089 0.037661 0.033387 
-0.026953 0.14437 0.054432 0.074983 0.064132 0.049499 0.058213 0.0034632 
0.0031344 0.11773 0.042594 0.046046 0.060844 0.05772 0.026481 0.027303 
0.030592 0.051143 0.012506 0.035688 0.071859 0.048513 0.023193 0.015301 
0.060186 0.038155 -0.051615 0.037168 0.051636 0.02681 0.011355 0.030263 
0.033551 0.029441 -0.03616 0.014479 0.058542 0.05065 0.048677 0.012506 
0.035195 -0.0070593 -0.03353 0.045553 0.038977 0.078107 0.070708 0.013986 
0.025824 1.0539e-005 0.010533 0.033387 0.027961 0.054596 0.051965 0.024837 
0.067585 0.071366 0.062159 0.046868 0.031249 0.00297 0.027961 0.03536 
0.072681 0.13269 0.069393 0.020398 0.01267 0.0032988 0.020398 0.046704 
0.059528 0.14239 0.055254 0.0069159 0.020562 -0.0019624 0.033387 0.019576 
-0.078579 0.11263 0.09422 0.041936 0.013328 -0.014622 0.010533 0.040785 
-0.22441 0.085341 0.13072 0.039799 0.010204 0.011848 0.024015 0.039799 
-0.24414 0.010862 0.10787 0.062652 0.035853 0.01415 0.021384 0.033222 
-0.063124 -0.013471 0.079916 0.049992 0.040785 0.0095465 0.0324 0.017274 
0.40414 0.058377 0.020398 0.021056 0.040292 0.0082312 0.021056 0.0082312 
0.6113 0.063145 -0.021856 -0.0031133 0.0052718 -0.008539 -0.00081153 0.01415 
0.4288 0.08419 -0.026624 -0.025474 -0.019226 0.0054362 0.00297 0.031742 
0.23101 0.10293 0.014808 0.04358 0.025824 0.057884 0.012835 0.059364 
0.019905 0.091589 0.045389 0.072517 0.066927 0.092576 0.061172 0.036839 
-0.15257 0.086492 0.078765 0.085012 0.069722 0.092411 0.058706 0.0090533 
-0.21866 0.070051 0.081067 0.073175 0.065118 0.066763 0.046868 -0.033201 
-0.15059 0.0689 0.042923 0.034702 0.033387 -0.0014692 0.019083 -0.015444 
-0.072989 0.029934 0.03651 0.020891 0.019247 -0.0138 0.047855 0.028125 
0.01152 0.020398 0.025001 -0.0091966 0.015301 -0.01232 0.017274 0.066763 
-0.0965 0.036675 -0.0013048 -0.035667 -0.0078813 -0.023172 0.011684 0.052952 
-0.27407 -0.043724 0.0098754 -0.028269 -0.015773 -0.026296 -0.014951 0.059857 
-0.27949 -0.054246 -0.014458 -0.030735 0.0013258 0.0023123 -0.0022913 0.038812 
-0.14287 -0.014787 -0.017088 0.0085601 0.005765 -0.0052507 -0.001798 0.029441 
0.32884 0.11674 0.031742 0.021713 0.0227 0.01711 0.031249 0.015137 
0.58697 0.21293 0.094055 0.080409 0.043416 0.052787 0.041278 0.019083 
0.37504 0.16903 0.12644 0.073832 0.058706 0.061337 0.055582 0.039799 
0.17511 -0.051287 0.074819 0.035524 0.039634 0.04506 0.056733 -0.0019624 
0.032564 -0.25598 -0.027282 0.017438 0.023686 0.02533 0.0324 0.036346 
-0.0090322 -0.11755 -0.045368 -0.015773 0.0011614 0.012177 -0.0098543 0.0072447 
0.042429 0.18925 -0.008539 0.028125 0.0036276 0.014643 -0.0004827 0.038483 
0.039963 0.27031 0.025495 0.0095465 0.0064227 0.024508 0.035195 0.027632 
-0.01676 0.183 0.054596 0.010204 0.010697 0.031085 0.019083 0.025824 
-0.020212 0.094877 0.07597 0.024673 0.020069 0.020891 0.014643 0.0090533 
-0.057863 -0.031228 0.033058 0.0072447 0.029441 0.037004 0.01004 0.027961 
-0.049971 -0.093048 -0.020212 0.038155 0.04654 0.049828 0.02122 0.022371 
-0.038956 -0.079566 -0.00015387 0.027139 0.04654 0.026317 0.038977 0.054432 
-0.010512 0.0013258 0.043909 0.029769 0.046211 0.040785 0.035688 0.044896 
0.012342 0.014643 0.012835 0.015301 0.021878 0.053774 0.045882 0.0324 
0.050979 0.010204 0.0083956 0.021056 0.015465 0.027632 0.028454 0.040785 
0.0421 -0.034516 -0.031557 0.03536 0.0074092 0.013657 0.024344 0.030592 
0.039634 -0.091404 -0.036983 -0.0083746 0.017932 0.035524 0.018425 0.050157 
0.0689 -0.028104 -0.016431 0.036182 0.046046 0.029605 0.028125 0.03947 
0.04506 0.081067 0.033058 0.054925 0.056733 0.028454 0.024344 0.0227 
0.0051074 0.16294 0.062817 0.070051 0.063145 0.025495 0.030098 -0.0049219 
-0.0075525 0.091096 0.058871 0.066434 0.036839 0.042594 0.025988 -0.012649 
-0.039613 0.005765 0.033387 0.0080668 0.03388 0.071037 0.024673 0.027796 
-0.16802 -0.0029489 -0.0050863 0.012835 0.018589 0.095042 0.032564 0.06183 
-0.19301 -0.056219 -0.051615 -0.016924 -0.0013048 0.060844 0.035195 0.057227 
0.077778 0.02681 -0.013143 -0.0088678 0.017438 0.03651 0.041114 -0.010676 
0.57908 0.14305 0.027961 0.037004 0.032729 -0.0072237 0.027468 -0.014293 
0.57201 0.14634 0.029276 0.036346 0.037661 -0.092226 0.0044497 -0.040764 
0.19764 0.02681 0.020562 0.041114 -0.028926 -0.14122 -0.017746 0.017932 
-0.090417 -0.047176 0.00066819 -0.013143 -0.012649 -0.090746 0.00099702 0.042758 
-0.1376 -0.014129 0.0072447 0.0013258 0.044073 -0.0062372 0.012177 0.077449 
-0.10242 -0.029748 0.0421 0.045389 0.081724 0.10622 0.043251 0.078765 
-0.10143 -0.20156 0.045553 0.079751 0.11543 0.17807 0.072681 0.052787 
-0.098802 -0.44539 -0.0019624 0.083204 0.069393 0.12381 0.088958 0.05772 
-0.15881 -0.52989 -0.041586 0.016452 0.0064227 0.038483 0.045882 0.015137 
-0.18134 -0.34312 -0.040435 0.00017495 -0.081374 -0.012649 0.00033937 0.028619 
-0.30876 0.12579 0.014972 0.0042853 -0.011663 0.011684 -0.035503 0.012342 
-0.23757 0.51183 0.10408 0.026317 0.017932 0.056898 -0.0068948 0.03536 
-0.085978 0.54619 0.12085 0.054925 0.044567 0.086492 0.046704 -0.0024557 
0.3295 0.49407 0.13549 0.064625 0.044073 0.052459 0.051143 0.017932 
0.67279 0.4311 0.1248 0.056733 0.078272 -0.017746 0.048513 0.029276 
0.47566 0.24499 0.032564 0.023522 0.0024767 -0.08532 0.0044497 0.030592 
0.17363 0.055418 -0.021034 -0.010183 -0.049478 -0.14582 0.0014903 0.047033 
0.025659 -0.0057439 0.00297 0.0069159 -0.0072237 -0.13925 -0.027447 0.043087 
-0.04323 -0.0036066 0.064954 -0.0013048 -0.0047575 -0.11755 -0.049314 0.033715 
-0.093376 -0.11919 0.050321 0.030427 -0.025802 -0.13514 -0.070852 0.005765 
-0.13053 -0.23231 0.027796 -0.015444 -0.084169 -0.10225 -0.016431 0.020069 
-0.12231 -0.24349 0.0036276 -0.0040998 -0.063782 0.0013258 0.064461 0.017274 
-0.11212 -0.28738 -0.012814 0.019247 -0.0016336 0.12908 0.10672 0.026481 
-0.11541 -0.27505 -0.016431 0.042429 0.12283 0.25354 0.11905 0.020398 
-0.040271 -0.047012 0.011684 0.079258 0.19714 0.34166 0.12875 0.0324 
0.025824 0.19336 0.082711 0.071366 0.2098 0.33722 0.1567 0.030592 
0.1003 0.34709 0.12562 0.088958 0.16327 0.25255 0.14124 0.067091 
0.14469 0.3655 0.078272 0.073175 0.056404 0.097344 0.094713 0.067091 
0.15127 0.28527 0.043745 0.036017 0.0069159 -0.021528 0.035195 0.052459 
0.12825 0.18333 0.059364 0.049992 -0.013307 -0.066906 0.030592 0.055254 
0.11526 0.16656 0.061666 0.012342 -0.014622 -0.1187 -0.0068948 0.026317 
0.063145 0.15686 0.043745 -0.034516 -0.076935 -0.19498 -0.059178 -0.014787 
0.0059294 0.068736 0.004943 -0.075949 -0.078908 -0.24875 -0.078415 -0.044381 
-0.0031133 0.033551 0.045224 -0.031886 -0.02942 -0.16407 -0.016102 -0.0052507 
-0.004593 -0.0068948 0.051965 0.04506 0.035688 0.0079024 0.03947 0.03947 
-0.022185 -0.11985 0.015959 0.036346 0.085012 0.091918 0.06594 0.062652 
-0.020048 -0.12133 0.028783 0.073504 0.078272 0.090274 0.076299 0.035853 
-0.024487 -0.087622 0.048184 0.043909 0.052952 0.062488 0.06742 0.038977 
-0.0055795 -0.06 0.039634 0.027632 0.037497 0.045882 0.098659 0.062159 
0.019247 0.071531 0.068736 0.068571 0.036346 0.062323 0.094713 0.043909 
0.046375 0.24252 0.12743 0.061008 0.022206 0.066763 0.071037 0.042758 
0.093726 0.39822 0.15374 0.071695 0.040621 0.027796 0.045224 0.044567 
0.08863 0.30566 0.14733 0.049499 0.054925 -0.0044286 0.030427 0.048348 
0.026317 0.075641 0.048348 -0.0047575 -0.017253 -0.080552 -0.011334 -0.0004827 
0.00297 -0.050629 -0.02087 -0.020048 -0.01939 -0.063124 0.0036276 -0.010019 
-0.010512 -0.046683 -0.0059084 -0.0072237 0.025495 0.082382 0.061666 0.016781 
-0.088773 -0.019061 0.019576 0.040621 0.084684 0.19714 0.11888 0.038319 
-0.2134 -0.035174 -0.001798 -0.00031829 0.099152 0.19501 0.12118 0.027468 
-0.19548 -0.053917 -0.032708 -0.014293 0.049335 0.092904 0.071531 0.068242 
-0.067892 0.01826 -0.020048 0.028125 0.031578 -0.021528 0.016616 0.066598 
0.095371 0.16525 0.013164 0.047197 0.023686 -0.082854 -0.0098543 0.040456 
0.20931 0.35449 0.083697 0.090931 0.073504 -0.059343 -0.0072237 0.036675 
0.28626 0.40414 0.12151 0.086328 0.082217 0.01415 -0.015938 0.00033937 
0.43998 0.37438 0.13894 0.10672 0.050486 0.024508 0.030263 -0.0059084 
0.47665 0.35136 0.15127 0.089452 0.038812 0.059035 0.073668 0.0031344 
0.20142 0.1853 0.081067 0.042594 0.024673 0.038977 0.067913 0.072846 
-0.03205 0.056733 0.0087245 0.022535 0.0056006 -0.01676 0.044073 0.069722 
-0.13415 0.020891 -0.024652 -0.011498 0.004943 -0.046025 -0.013636 0.056404 
-0.19285 -0.13119 -0.091568 -0.0091966 0.012342 -0.054904 -0.037476 0.012835 
-0.22852 -0.36006 -0.12281 -0.011005 0.010204 -0.045861 -0.044217 -0.015773 
-0.17246 -0.45953 -0.10061 0.0034632 0.025659 0.0054362 0.005765 0.0069159 
-0.078086 -0.36844 -0.029584 0.08008 0.035524 0.040785 0.028454 0.053281 
-0.026296 -0.35792 -0.046847 0.048184 0.026646 0.0060938 0.017603 0.053116 
-0.078086 -0.24694 -0.060987 0.023193 -0.018404 -0.066741 -0.017911 0.02533 
-0.063782 -0.053753 -0.04619 -0.047505 -0.045368 -0.089266 -0.03764 0.011355 
0.036839 0.17791 0.007738 -0.039613 -0.044217 -0.079566 -0.050136 0.0095465 
0.19205 0.40019 0.080902 -0.0062372 -0.020706 -0.037147 -0.03501 0.014479 
0.28478 0.51857 0.097672 0.0036276 -0.0040998 0.0080668 -0.018404 0.0037921 
0.31141 0.53633 0.089123 0.044731 0.025824 0.03092 0.01974 0.038977 
0.19533 0.38869 0.10589 0.064625 0.055911 0.032071 0.017767 0.022864 
0.0067515 0.25271 0.091096 0.078107 0.061995 0.028783 0.016945 0.015137 
-0.058356 0.23003 0.084355 0.063803 0.052459 0.044238 0.0018191 -0.017911 
-0.091075 0.14552 0.044731 0.031742 0.025001 0.013821 0.0047785 -0.0090322 
-0.065591 0.0021479 -0.010512 0.046704 0.03092 -0.0054151 0.013821 0.029605 
-0.010512 -0.17493 -0.03205 0.011026 0.019083 0.0062583 0.0044497 0.073504 
0.018096 -0.28903 -0.065262 0.03536 0.010533 -0.0067304 -0.0036066 0.080738 
0.065283 -0.35973 -0.081374 -0.0070593 0.0046141 0.0095465 -0.0054151 0.059528 
0.18761 -0.33293 -0.070523 0.0013258 0.01826 0.045553 0.056569 0.06331 
0.18054 -0.20222 -0.042244 0.027468 0.024673 0.084848 0.043416 0.019576 
-0.0078813 -0.17591 -0.074633 0.013821 0.02533 0.090603 -0.0057439 -0.037969 
-0.07414 -0.12133 -0.078908 -0.012649 0.016781 0.090109 -0.045368 -0.076442 
-0.0054151 0.018096 0.0060938 -0.011663 0.04506 0.10836 -0.0059084 -0.035667 
0.034537 0.14453 0.081889 0.020562 0.049992 0.060679 0.016288 0.0041209 
-0.073154 0.24499 0.09833 0.0324 0.018918 0.0046141 -0.0072237 0.0069159 
-0.12609 0.37455 0.1202 0.042429 0.0059294 -0.034188 -0.024652 0.023193 
-0.020048 0.50476 0.18925 0.09833 -0.018404 -0.019719 0.0054362 0.039141 
0.1544 0.40595 0.19994 0.06594 0.0079024 -0.016431 0.017767 0.059035 
0.37668 0.21753 0.13434 0.043745 0.09422 -0.011992 0.0065871 0.023686 
0.32703 0.056404 0.044731 0.036839 0.061666 0.013492 -0.0082102 0.040621 
0.095864 -0.27407 -0.030242 0.015137 0.032071 0.066434 0.0065871 0.041607 
-0.13843 -0.46084 -0.10982 0.0090533 0.030756 0.089287 0.071859 0.070051 
-0.23675 -0.1746 -0.071674 -0.020048 0.022371 0.12644 0.070215 0.07301 
-0.30744 0.1835 0.068571 0.025659 0.049828 0.13565 0.065283 0.07449 
-0.25779 0.086492 0.07038 0.017932 0.016123 0.052459 0.012506 0.0072447 
-0.023007 -0.36647 -0.051615 -0.019719 -0.0080457 -0.017088 0.020069 -0.065591 
0.36221 -0.51444 -0.10209 0.004943 0.0031344 -0.031886 0.0080668 -0.054246 
0.44048 -0.42253 -0.073318 -0.029913 0.044238 -0.023336 0.014479 0.0060938 
0.14815 -0.16934 -0.021363 -0.021034 0.0079024 -0.034188 -0.0070593 0.043416 
-0.07825 0.13302 0.019083 -0.044217 -0.024652 -0.0040998 -0.0083746 0.035853 
-0.11787 0.23249 0.074326 -0.024323 -0.0054151 0.041443 0.020727 0.047197 
-0.10949 0.171 0.1299 0.045224 0.055911 0.11954 0.059035 0.024837 
-0.13941 0.20635 0.19007 0.077778 0.10047 0.21556 0.052623 0.0075736 
-0.072003 0.32456 0.18974 0.085341 0.10408 0.22838 0.055747 0.0026412 
0.047033 0.38359 0.14716 0.050814 0.1391 0.24219 0.061995 0.051801 
0.0421 0.31799 0.073668 0.054925 0.16442 0.26883 0.071202 0.075641 
-0.0067304 0.11494 -0.021363 0.021056 0.11822 0.1738 0.040456 0.076463 
-0.07003 -0.12955 -0.10176 0.023193 0.019247 0.034373 0.038483 0.080409 
-0.0088678 -0.17542 -0.079072 0.078272 -0.036983 -0.072003 0.047855 0.068736 
0.25156 -0.084005 0.010533 0.10655 -0.017253 -0.079237 0.069558 0.053938 
0.37011 -0.087129 0.046868 0.10507 0.024837 -0.047012 0.053938 0.020727 
0.16558 -0.11245 0.046704 0.0592 0.019247 -0.0068948 0.034866 0.01267 
-0.072332 -0.091732 0.08567 0.0044497 -0.018897 -0.0082102 -0.00081153 -0.060494 
-0.16391 -0.00015387 0.14091 -0.019719 -0.024816 -0.035996 -0.0026201 -0.072003 
-0.047669 0.084026 0.1738 -0.037311 -0.012156 -0.0091966 -0.0059084 0.0079024 
0.090109 0.13023 0.16393 0.03536 0.014808 0.00066819 0.024179 0.097179 
0.043745 0.12924 0.053116 0.013657 0.017438 -0.01232 0.035524 0.1008 
-0.022843 -0.044874 -0.093705 -0.02087 0.014315 0.015794 0.043745 0.06035 
-0.11015 -0.1473 -0.18972 -0.016431 0.013492 0.021713 0.032071 0.049664 
-0.095021 -0.079237 -0.17427 -0.027775 0.036675 0.0036276 0.019083 0.049499 
-0.066084 -0.017746 -0.1113 0.054267 0.056733 0.068242 0.052459 0.050486 
0.0032988 -0.026624 -0.049807 0.088794 0.090931 0.11494 0.072188 0.051143 
0.096686 -0.05589 -0.044217 0.058871 0.074161 0.082053 0.074819 0.079422 
0.19895 0.048184 0.0026412 0.042265 0.062488 0.037497 0.03092 0.0421 
0.26357 0.16541 0.088136 0.01415 0.047526 0.028454 0.025495 0.0324 
0.21326 0.30483 0.23085 0.06183 0.047362 0.028619 0.033715 0.053774 
0.15505 0.52202 0.32358 0.055254 0.013657 0.033058 0.056898 0.086163 
0.10376 0.60061 0.36287 0.075312 -0.014129 -0.011827 0.044402 0.07449 
0.045718 0.52975 0.3027 0.069886 -0.0027845 -0.055232 0.012342 0.055254 
-0.02794 0.39378 0.23808 0.077943 0.029769 -0.034023 0.014315 0.052459 
-0.13547 0.32489 0.1761 0.10195 0.050486 0.0324 0.063474 0.042758 
-0.1672 0.18613 0.11017 0.085341 0.058542 0.055418 0.05624 -0.0052507 
-0.028926 0.035524 0.00099702 0.078436 0.053281 0.0079024 0.064296 -0.001798 
0.12464 -0.045696 -0.10143 0.042594 0.038483 -0.026296 0.039799 0.054596 
-0.14895 -0.30613 -0.19877 -0.029255 -0.0027845 -0.10521 0.011355 0.058049 
-0.51049 -0.58744 -0.26272 -0.049971 -0.054739 -0.15602 -0.0039354 0.03092 
-0.62098 -0.6851 -0.27571 -0.14582 -0.086142 -0.12363 -0.057699 -0.02794 
-0.12988 -0.38718 -0.15898 -0.071016 -0.044052 -0.024487 -0.019061 -0.01117 
0.61262 0.13878 0.012999 -0.019555 0.031742 0.10359 0.047855 0.0013258 
0.96644 0.46678 0.10507 0.026152 0.075148 0.18794 0.12497 0.016452 
0.79676 0.41318 0.10524 0.063639 0.064132 0.12612 0.085341 0.090109 
0.23529 -0.0036066 0.052952 0.032893 0.078107 0.062817 0.019576 0.075641 
-0.21833 -0.34624 -0.042244 0.070215 0.094055 0.062817 -0.019555 0.021056 
-0.3395 -0.16227 -0.070523 0.055418 0.092904 0.10293 0.030427 -0.031392 
-0.22277 0.2121 0.01152 0.073504 0.041114 0.063639 0.081395 -0.0032777 
-0.05326 0.46908 0.099645 0.11148 -0.013143 0.017603 0.0786 0.050321 
0.0324 0.48503 0.13746 0.068736 -0.02942 -0.089431 0.039305 0.066269 
0.066598 0.26192 0.080738 0.031907 -0.046025 -0.1621 0.0069159 0.047526 
0.051636 0.17692 0.093726 -0.043066 -0.081045 -0.20173 -0.036325 0.0060938 
0.020727 0.18909 0.15456 -0.021199 -0.0868 -0.21751 -0.054904 -0.019555 
0.00050378 0.11576 0.16952 -0.013471 -0.041586 -0.18545 -0.059343 -0.021692 
0.020398 0.026152 0.1419 0.016452 -0.0011404 -0.088773 -0.022185 0.014315 
0.10063 0.051143 0.11346 0.066927 0.053774 -0.022843 0.014315 0.015794 
0.12612 0.048184 0.071531 0.024015 0.029441 0.00066819 0.0056006 0.033715 
0.072846 -0.013143 0.016288 0.036839 -0.00097594 0.060022 0.029605 -0.0026201 
-0.076935 -0.030899 -0.024652 0.0062583 -0.010183 0.086492 0.041114 0.024508 
-0.2032 0.0088889 -0.034681 0.0095465 0.059364 0.171 0.060679 0.022042 
-0.13859 0.082382 0.030592 0.069722 0.18909 0.30664 0.088794 0.073668 
0.20487 0.12908 0.081395 0.082546 0.28675 0.32489 0.093891 0.063968 
0.59996 0.05065 0.10787 0.10293 0.23003 0.23512 0.067091 0.057062 
0.48207 -0.077922 0.036182 0.050486 0.037332 -0.013636 0.010533 0.023357 
0.10096 -0.26108 -0.02235 -0.01232 -0.11771 -0.28163 -0.037147 -0.0073881 
-0.22589 -0.32668 -0.054739 -0.003771 -0.12462 -0.2813 -0.050464 -0.055232 
-0.30383 -0.20403 -0.076442 0.0051074 -0.035174 -0.034188 0.0092177 -0.036983 
-0.16375 -0.19301 -0.10078 0.046046 0.054103 0.14815 0.11148 0.013986 
-0.10061 -0.47153 -0.20468 -0.0031133 0.1031 0.18119 0.13269 0.014808 
-0.10078 -0.62624 -0.27308 -0.0049219 0.092082 0.16048 0.091589 0.038155 
-0.095349 -0.4176 -0.2499 -0.033694 0.046375 0.11888 0.033715 0.025166 
-0.028926 0.057555 -0.07973 -0.043724 -0.017746 0.064461 0.027468 0.038319 
0.0786 0.42288 0.11822 0.031578 -0.027611 -0.004593 -0.0098543 0.038319 
0.12842 0.57793 0.17873 0.011026 -0.011334 -0.064768 -0.040435 0.02122 
0.22098 0.55672 0.19353 0.020891 0.007738 -0.090088 -0.03205 0.023522 
0.23463 0.44491 0.18794 0.020727 0.0062583 -0.033037 -0.02498 0.011684 
0.1539 0.27672 0.13532 0.047033 -0.0050863 0.024837 -0.021528 -0.0019624 
0.064296 0.1276 0.11691 0.070051 0.025001 0.045389 0.035195 0.035688 
0.0062583 0.065283 0.11 0.093891 0.040621 0.060515 0.033058 0.049335 
0.045882 0.12053 0.12809 0.10458 0.077121 0.047197 0.0056006 0.051472 
0.037168 0.072846 0.11954 0.089123 0.086985 -0.0022913 0.0018191 0.058542 
-0.031557 -0.035174 0.084355 0.062817 0.082711 0.055911 0.034702 0.057391 
-0.10916 -0.16457 0.0075736 0.038812 0.039963 0.09833 0.062817 0.057227 
-0.15322 -0.31386 -0.059178 -0.02942 0.034044 0.074819 0.044731 0.04654 
-0.083676 -0.35841 -0.059014 0.011684 0.031907 0.019905 0.00066819 0.020891 
0.012506 -0.21323 0.020727 0.030756 0.023357 -0.027118 -0.026624 -0.028597 
0.043087 0.018425 0.022535 0.037826 0.0059294 -0.062631 -0.012156 -0.0055795 
-0.0060728 0.16344 -0.00064712 0.03092 0.010369 -0.0029489 -0.013965 0.0023123 
0.0072447 0.26258 0.019083 0.0072447 -0.006566 0.073997 0.039305 0.029769 
0.054596 0.28954 0.050979 0.058871 0.00017495 0.11428 0.082382 0.075148 
0.083368 0.17676 0.041936 0.01152 0.040128 0.12842 0.088465 0.057884 
0.09685 0.0075736 -0.021363 0.00083261 0.095864 0.18004 0.06331 0.061337 
0.11428 -0.069043 -0.069208 -0.021528 0.070544 0.14552 0.053938 0.033387 
0.075312 -0.0029489 -0.075127 -0.026624 0.015794 0.10359 0.05065 0.035195 
-0.028926 0.049499 -0.020377 -0.0082102 -0.024158 0.03092 0.023686 -0.0011404 
-0.11771 0.069229 0.030263 0.04506 -0.0052507 -0.085978 -0.032708 0.029441 
-0.12346 0.096193 0.080244 0.10672 0.031249 -0.10998 -0.033201 0.039305 
-0.10324 0.043745 0.12102 0.10639 0.083697 -0.023501 -0.0055795 0.045553 
0.043745 -0.014458 0.096357 0.081067 0.050979 -0.0057439 0.013986 0.030592 
0.080902 -0.055232 0.056569 0.053774 -0.010512 -0.016924 0.027303 0.0064227 
0.060844 -0.015773 0.030427 0.025824 -0.028433 -0.02646 0.022535 0.019905 
0.015794 0.028783 0.014972 0.045882 -0.018897 -0.02942 0.035524 0.045389 
0.018589 0.11296 -0.00031829 0.0019835 -0.029913 -0.048985 -0.012814 0.038812 
0.028125 0.2126 -0.028104 -0.017746 -0.010841 -0.011334 0.0056006 0.022864 
-0.049642 0.066105 -0.014458 -0.02498 0.0074092 -0.05441 -0.0138 0.02533 
-0.057863 -0.13612 -0.018404 -0.0095255 -0.0052507 -0.050629 -0.012814 0.027303 
0.0032988 -0.067564 -0.017417 0.017767 -0.017911 -0.038298 -0.011005 0.026646 
0.13697 0.21326 -0.014622 -0.027775 -0.003771 -0.028433 0.013492 0.016616 
0.293 0.41302 0.056733 0.0018191 0.0013258 0.013328 0.033715 0.019083 
0.27343 0.37553 0.13187 0.023522 0.011848 0.048841 0.032729 0.029605 
0.12053 0.23496 0.16558 0.022371 0.03799 0.023686 0.01004 0.023193 
-0.027611 0.055089 0.11855 0.047197 0.059364 0.02681 0.020727 -0.0078813 
-0.070194 -0.034352 0.066927 0.054432 0.14617 0.12299 0.013328 0.0065871 
-0.065426 -0.094527 0.0044497 0.056898 0.067256 0.039963 -0.044052 0.0092177 
-0.036654 -0.034681 -0.045368 0.00017495 -0.015116 -0.049642 0.011355 0.0051074 
0.045718 0.075805 -0.0004827 0.04358 -0.023829 -0.0098543 0.057555 0.055747 
0.12299 0.17133 0.028454 0.072517 0.007738 0.039305 0.089945 0.055911 
0.13253 0.13927 -0.010183 0.0324 0.036017 0.083697 0.059528 0.062488 
0.11263 0.032893 -0.015116 0.055747 0.039634 0.090109 0.06479 0.031578 
0.064954 -0.023665 0.044402 0.047033 0.07449 0.079094 0.048348 0.044238 
0.063474 -0.0090322 0.06035 0.048019 0.073339 0.097672 0.066763 0.049664 
0.031578 -0.0096899 0.079587 0.044402 0.061995 0.0592 0.049006 0.054103 
-0.00015387 0.0014903 0.082546 0.0026412 0.0024767 -0.055397 -0.020541 0.020069 
-0.07562 -0.066741 0.052459 -0.0090322 -0.029091 -0.12379 -0.057863 -0.028269 
-0.18052 -0.11919 0.013164 -0.018075 -0.024487 -0.093376 -0.073154 -0.0059084 
-0.21981 -0.057205 -0.010841 0.007738 -0.009361 -0.047998 0.0014903 0.022206 
-0.15585 -0.017088 -0.078086 0.018096 0.027303 -0.026296 -0.0013048 0.068571 
-0.0080457 0.058542 -0.069701 -0.022679 0.011191 -0.0077169 0.0056006 0.0039565 
0.26176 0.13401 -0.00097594 -0.017253 0.01711 0.0046141 0.0018191 -0.0088678 
0.43686 0.2052 0.067913 -0.0026201 0.029112 0.060515 0.055089 -0.0096899 
0.31832 0.22559 0.11461 0.038319 0.052294 0.12201 0.066434 0.037497 
0.10737 0.10967 0.079258 0.043416 0.022371 0.068736 0.069886 0.064954 
0.00050378 0.082546 0.040292 0.047526 0.009711 -0.0090322 0.03388 0.037497 
0.030592 0.12562 0.02681 0.044402 -0.010019 -0.046025 0.0067515 0.027796 
0.068078 0.15209 0.061337 0.043087 0.031414 0.028947 0.040292 0.014479 
0.058706 0.14091 0.10096 0.11 0.10819 0.1202 0.063803 0.032071 
0.043087 0.10277 0.096521 0.093398 0.14831 0.16804 0.087314 0.017603 
0.017438 0.080573 0.084519 0.08156 0.13483 0.10754 0.056898 0.037332 
0.020398 0.073668 0.1026 0.071202 0.08715 0.05213 0.06594 0.047526 
0.043416 -0.019719 0.1077 0.021878 0.049335 0.023851 0.039141 0.048184 
-0.040271 -0.17591 0.047526 0.044402 0.042594 0.084355 0.036182 0.028454 
-0.15503 -0.35825 -0.0073881 0.013164 0.032893 0.097344 -0.001798 -0.0021268 
-0.21948 -0.3742 -0.072167 -0.0054151 0.01563 0.0092177 0.015137 -0.022021 
-0.19367 -0.17525 -0.067892 -0.013143 -0.053588 -0.067399 -0.010183 -0.031886 
-0.11541 -0.081045 -0.035338 -0.050629 -0.084498 -0.14944 -0.039778 -0.013965 
-0.15174 -0.071016 0.027961 0.0036276 -0.059507 -0.13793 -0.03353 -0.032708 
-0.15931 0.072517 0.04917 0.011355 -0.011663 -0.076935 -0.0036066 0.0011614 
-0.020706 0.2588 0.079751 0.029112 0.02829 0.029112 0.071695 0.062159 
0.23134 0.27113 0.074326 0.043087 0.051965 0.15209 0.092082 0.11066 
0.56181 0.16311 0.021056 0.029112 0.083533 0.24301 0.13171 0.09274 
0.32835 -0.021856 -0.075291 0.04095 0.097179 0.22542 0.11609 0.11461 
-0.17772 -0.053424 -0.1136 0.034044 0.067585 0.13861 0.09833 0.075148 
-0.31172 0.10491 -0.045368 0.068078 0.075805 0.062817 0.058542 0.038155 
-0.031721 0.28823 0.091753 0.086492 0.057884 0.044073 0.062652 -0.021363 
0.57842 0.32571 0.12102 0.071037 0.050486 -0.032708 0.013986 -0.10472 
0.81682 0.11625 0.072517 0.066105 0.032236 -0.056383 0.0095465 -0.070687 
0.41302 -0.16046 -0.017253 0.020398 0.011355 -0.067892 -0.0098543 -0.024652 
-0.063289 -0.29544 -0.091239 0.010697 -0.014458 -0.03205 0.0018191 0.080738 
-0.2739 -0.28673 -0.07562 -0.022185 -0.042079 0.00050378 0.0056006 0.078929 
-0.36515 -0.10406 -0.0036066 -0.045861 -0.040435 -0.01528 -0.0024557 0.048184 
-0.43996 0.088301 0.10655 0.0037921 -0.018075 -0.079566 -0.011827 -0.015116 
-0.37321 0.15456 0.18711 0.030098 -0.0090322 -0.02942 -0.022514 0.013657 
-0.1986 0.22772 0.28346 0.10195 0.030592 -0.0047575 0.020233 0.06594 
0.030098 0.31667 0.30862 0.12316 0.041443 0.032729 0.04506 0.091589 
0.2851 0.29283 0.19287 0.078436 0.03092 0.040785 0.066927 0.03536 
0.27869 0.056733 0.06479 0.038155 0.053445 0.028619 0.054267 -0.018239 
0.00017495 -0.13004 -0.060823 0.011848 0.045718 0.07449 0.042594 0.004943 
-0.1644 -0.16325 -0.13021 0.020069 0.066763 0.12447 0.023851 0.032729 
-0.17082 -0.1547 -0.14566 -0.029913 0.012342 0.082053 0.048019 0.085506 
0.034537 0.0087245 -0.13267 -0.015116 -0.022514 0.031414 0.051308 0.1151 
0.28708 0.21523 -0.060494 -0.039449 -0.065591 -0.015609 0.034209 0.054103 
0.47895 0.28691 -0.016102 0.0041209 -0.015609 -0.059014 0.021384 -0.035174 
0.51002 0.16015 0.031414 0.085341 0.09274 0.045224 0.031578 -0.0091966 
0.25206 0.046704 0.023522 0.071695 0.14058 0.13615 0.066763 0.051143 
0.0067515 -0.022514 0.0036276 0.070873 0.1294 0.15637 0.061172 0.097672 
-0.14648 -0.045696 -0.037805 0.024179 0.09274 0.12677 0.03799 0.10441 
-0.34559 -0.035503 -0.069043 -0.027775 0.017438 0.086328 -0.0060728 0.046868 
-0.41398 0.027632 -0.061151 -0.050958 -0.042901 -0.02646 -0.016266 0.044567 
-0.31468 0.0036276 0.010533 -0.041751 -0.035996 -0.057534 -0.021692 0.017274 
-0.03501 -0.064933 0.024508 0.018589 0.036675 -0.0078813 -0.009361 0.018754 
0.47451 -0.063289 0.04358 0.057555 0.073832 -0.0082102 0.0082312 0.0072447 
0.61032 0.075805 0.099974 0.089452 0.071366 -0.066248 0.0031344 0.017438 
0.23315 0.23874 0.17067 0.087808 0.041607 -0.078744 -0.0011404 0.057884 
-0.060987 0.2902 0.22328 0.058213 0.024015 -0.047505 -0.011005 0.064132 
-0.018075 0.3267 0.25419 0.092247 0.020562 -0.00015387 0.0083956 0.076134 
0.070708 0.22904 0.19024 0.06183 0.018754 0.074983 -0.008539 0.045224 
-0.047341 0.054596 0.10524 0.037004 0.0016547 0.086163 0.022371 0.046211 
-0.21027 -0.056712 0.047526 0.015959 0.011355 0.082217 0.05624 0.066269 
-0.18282 -0.13974 0.00033937 0.0024767 0.024673 0.097015 0.088136 0.10244 
-0.10373 -0.27275 -0.05441 0.0421 0.051801 0.080409 0.047526 0.083368 
-0.0073881 -0.30514 -0.15421 -0.003771 0.055747 0.060186 0.049006 0.056569 
0.14634 -0.19235 -0.23559 -0.024487 0.049992 0.077614 0.013657 -0.02498 
0.097508 -0.095843 -0.19054 -0.066741 0.0042853 0.048677 -0.0014692 -0.029584 
0.025001 -0.020212 -0.10916 -0.050136 -0.023665 -0.040106 -0.0082102 -0.003771 
0.14124 0.18169 0.01711 0.028125 -0.0011404 -0.048163 -0.018568 0.033387 
0.19665 0.32193 0.080244 0.069722 0.047691 -0.024652 -0.00031829 0.077614 
0.12513 0.29793 0.076134 0.066105 0.027796 -0.050136 0.0031344 0.067256 
0.10145 0.2708 0.13023 0.041114 0.041772 -0.019061 -0.0049219 0.044567 
0.064461 0.3221 0.18366 0.067913 0.058706 0.011191 -0.01232 0.034373 
0.047526 0.30253 0.23545 0.073668 0.075148 0.005765 0.033058 0.076627 
0.032071 0.15144 0.16262 0.057884 0.070544 0.019411 0.033551 0.096357 
-0.042079 -0.048656 0.10244 0.075805 0.069558 0.053445 0.037004 0.1202 
-0.10801 -0.15931 0.042429 0.047526 0.049499 0.065118 0.025166 0.075148 
-0.16259 -0.26289 -0.021856 0.029934 0.012835 0.043909 0.0060938 0.031742 
-0.16062 -0.28163 -0.048656 0.023028 -0.0029489 0.043909 -0.015116 -0.032872 
-0.23411 -0.45509 -0.1547 -0.025967 -0.016924 0.025988 -0.033201 -0.059507 
-0.3224 -0.55834 -0.27851 -0.044874 -0.043724 -0.0064016 -0.0052507 -0.070359 
-0.28114 -0.32421 -0.30909 -0.099789 -0.10012 -0.075291 -0.029255 -0.091239 
0.036346 0.041772 -0.26782 -0.096007 -0.11261 -0.15059 -0.028762 -0.15388 
0.49062 0.30746 -0.13201 -0.084827 -0.082854 -0.12577 -0.037311 -0.12774 
0.54915 0.44952 0.059528 -0.029913 0.036675 -0.0042642 0.029605 -0.050136 
0.27672 0.4482 0.1544 0.069393 0.1276 0.12431 0.072517 0.056404 
0.042923 0.28626 0.19254 0.10063 0.13976 0.19024 0.13319 0.19073 
0.0023123 0.17922 0.22986 0.1641 0.099974 0.16163 0.12809 0.20158 
0.029276 0.14305 0.23348 0.14108 0.060515 0.075312 0.080573 0.13483 
-0.014622 0.059035 0.18333 0.091425 0.055254 0.058049 0.050979 0.059364 
-0.13185 -0.024816 0.12184 0.056898 0.13993 0.26981 0.076956 0.048184 
-0.19219 -0.084498 0.10819 0.032729 0.15357 0.26192 0.062981 0.012177 
-0.16621 -0.11228 0.067913 0.068736 0.052294 0.0069159 0.016945 -0.0077169 
-0.044381 -0.077593 0.027796 -0.0031133 -0.10225 -0.22195 -0.03205 -0.026789 
0.07301 0.065612 -0.0027845 -0.01676 -0.20666 -0.44078 -0.085978 -0.024816 
0.15176 0.22592 0.026974 -0.039613 -0.24809 -0.51888 -0.12248 -0.016431 
0.1276 0.30977 0.024344 -0.045696 -0.2014 -0.48419 -0.16539 -0.052602 
0.084848 0.36024 0.024837 -0.0070593 -0.11409 -0.37732 -0.16539 -0.016102 
-0.074798 0.34183 0.0074092 -0.028597 -0.080223 -0.24579 -0.12297 -0.024158 
-0.21488 0.2468 0.037826 -0.0034422 -0.037476 -0.031557 0.0067515 -0.0039354 
-0.20699 0.17297 0.057227 -0.0082102 0.00297 0.17034 0.10787 -0.017253 
-0.02942 0.13269 0.018918 -0.025145 0.072353 0.39082 0.17971 -0.001798 
0.37997 0.11313 -0.010841 0.039634 0.27754 0.6552 0.26225 0.035524 
0.48832 -0.017253 -0.00097594 0.11724 0.45429 0.76223 0.31684 0.080244 
0.17955 -0.40149 -0.02794 0.19221 0.56231 0.81287 0.30631 0.096357 
-0.034188 -0.57412 -0.088608 0.11132 0.46119 0.68364 0.24071 0.061666 
0.014972 -0.4028 -0.079237 0.045553 0.18087 0.18678 0.085012 0.048348 
0.068242 -0.10932 -0.0011404 -0.0070593 -0.19202 -0.29265 -0.086142 -0.026624 
0.047855 0.093398 0.046868 -0.029913 -0.28771 -0.46824 -0.15635 -0.030735 
-0.058685 0.17445 0.14864 0.0023123 -0.2111 -0.40445 -0.18183 -0.071674 
-0.35397 0.28412 0.23134 0.0024767 -0.10143 -0.26338 -0.1187 -0.068386 
-0.47136 0.42469 0.2514 -0.0019624 -0.063124 -0.11196 -0.015444 -0.0067304 
-0.28788 0.45511 0.24597 0.03651 -0.05589 -0.069536 0.068078 0.12299 
0.16837 0.37307 0.21621 0.048184 -0.035832 -0.069208 0.087643 0.14617 
0.49292 0.18892 0.17544 0.092576 0.01152 -0.046354 0.08304 0.1225 
0.45429 0.04358 0.10984 0.065776 0.046046 -0.028926 0.03651 0.066598 
0.26389 -0.013636 0.060022 0.046868 0.06035 -0.034516 0.018754 0.0056006 
0.29086 -0.03912 0.010204 0.041936 0.042923 0.0085601 0.027632 -0.0034422 
0.47336 0.011684 -0.021856 0.033715 0.082217 0.11921 0.062323 -0.0098543 
0.29596 -0.031721 -0.073154 0.075312 0.11888 0.19566 0.08978 0.051965 
-0.037805 -0.13925 -0.05737 0.048348 0.12776 0.24367 0.10293 0.03947 
-0.20238 -0.2009 -0.07562 0.039141 0.12365 0.22098 0.066434 0.037497 
-0.17361 -0.16292 -0.087129 -0.0022913 0.054925 0.09126 -0.030077 -0.0049219 
-0.07562 -0.080059 -0.07825 -0.042573 -0.009361 -0.024487 -0.073318 0.018589 
-0.018404 -0.011005 -0.057205 0.016452 0.00083261 -0.023665 -0.0060728 0.056569 
-0.015444 0.027468 -0.0083746 0.020069 0.03536 -0.0050863 0.091753 0.08978 
-0.0077169 -0.041915 0.059035 0.040785 0.046868 0.033715 0.090109 0.066269 
0.062323 0.00033937 0.12414 0.034537 0.052294 0.058213 0.051965 0.049992 
0.11822 0.12891 0.17001 0.048513 0.033715 0.011684 0.02829 0.03651 
0.13154 0.15012 0.12924 0.047197 0.02829 0.005765 0.016288 -0.041257 
0.066105 0.011848 0.022206 0.043745 -0.0027845 0.00033937 0.012999 -0.040435 
0.031249 -0.12626 -0.010019 0.043416 0.0031344 0.02829 0.0052718 0.011355 
0.024508 -0.12281 -0.080717 0.014315 0.01415 0.054267 0.033387 0.096521 
0.053609 -0.0049219 -0.058356 0.0095465 0.0060938 -0.0027845 0.01267 0.085012 
0.1197 0.12809 0.031414 0.034537 -0.030077 -0.087622 0.014643 0.077943 
0.11888 0.1738 0.047197 0.0324 -0.029255 -0.12955 -0.028269 0.038648 
0.082382 0.13878 0.063639 0.048677 -0.017088 -0.091404 -0.0080457 0.030592 
0.050486 0.12168 0.059035 0.024179 0.01826 -0.053095 -0.0091966 0.0037921 
0.037661 0.10688 0.11526 0.021384 0.036182 -0.027447 0.034209 0.01974 
0.02829 0.082875 0.14946 0.055418 0.027468 0.015465 0.067749 0.066105 
0.016452 0.0047785 0.15061 0.043909 -0.00031829 -0.025967 0.036839 0.067749 
-0.012978 -0.099953 0.088465 0.042758 -0.012485 -0.10669 -0.0052507 0.054432 
-0.029748 -0.045203 0.084355 -0.0016336 -0.034352 -0.055232 0.00017495 0.030592 
-0.019226 0.025495 0.086657 0.044073 0.004943 0.060679 0.068078 0.040621 
-0.03205 0.011355 0.0032988 -0.0072237 0.0088889 0.06742 0.060022 -0.040106 
-0.14451 -0.023501 -0.12577 -0.023994 -0.0019624 -0.025802 0.031907 -0.041751 
-0.071345 0.094055 -0.16703 0.015301 0.013328 -0.070852 -0.0062372 -0.019884 
-0.029255 0.17215 -0.1935 0.0052718 0.04654 -0.12544 0.039799 0.050814 
0.036675 0.14552 -0.17213 0.015465 0.015465 -0.047176 0.011191 0.074819 
0.03536 0.023193 -0.15914 -0.037969 0.01415 -0.028597 -0.026131 0.051472 
0.016616 0.0098754 -0.076113 -0.0031133 0.0046141 -0.024158 -0.03353 0.046046 
-0.0019624 0.081724 0.052459 0.051143 0.041936 -0.003771 -0.0036066 0.036839 
-0.014458 0.16426 0.15144 0.073832 0.046046 0.028454 0.027303 0.056076 
-0.026131 0.12497 0.14141 0.095371 0.066269 0.048513 0.05213 0.066763 
-0.075784 0.019083 0.090274 0.042923 0.049499 0.004943 0.050321 0.11362 
-0.095021 -0.01676 0.042923 0.013492 0.0046141 -0.028269 0.05476 0.097179 
-0.09239 -0.065097 0.023028 -0.009361 0.0023123 -0.06707 0.044731 0.066105 
-0.077922 -0.14007 -0.075949 -0.050958 -0.019719 -0.049971 0.013986 -0.0022913 
0.11444 0.026481 -0.010019 0.010533 0.019411 -0.0072237 -0.0059084 -0.029748 
0.27836 0.27129 0.14897 0.042923 0.028619 0.027796 0.033387 0.016945 
0.21753 0.38671 0.2223 0.099974 0.053609 0.088465 0.059857 0.03651 
0.16179 0.42009 0.18629 0.092904 0.083368 0.1003 0.053445 0.02533 
0.047855 0.38014 0.12102 0.058706 0.069558 0.097837 0.047033 0.0065871 
-0.010019 0.2565 0.066763 0.060844 0.071037 0.082875 0.036182 0.058213 
-0.033859 0.1294 0.012506 -0.0011404 0.058706 0.086492 0.057227 0.058049 
-0.097322 0.024015 -0.017088 0.020233 0.049828 0.061337 0.069886 0.06479 
-0.18479 -0.10143 -0.012156 0.022535 0.030098 0.065612 0.047526 0.011026 
-0.2647 -0.29133 -0.067728 0.00083261 0.0074092 0.031742 0.015794 -0.019555 
-0.22063 -0.53203 -0.13974 -0.0050863 -0.0036066 0.016123 0.022864 0.021549 
-0.12363 -0.54107 -0.14484 0.0085601 0.013821 0.027632 0.041114 0.047691 
-0.11064 -0.32208 -0.03057 0.045224 0.048019 0.018754 0.022535 0.057062 
-0.10193 -0.092226 0.0067515 -0.0014692 0.035195 -0.0068948 0.0026412 0.016123 
-0.019884 0.11691 -0.0055795 -0.031064 0.018425 0.012999 -0.018733 -0.014622 
0.12908 0.24153 0.067585 0.029112 0.057227 0.083204 0.015465 -0.061151 
0.22279 0.39164 0.14716 0.083368 0.09833 0.10852 0.061008 -0.031557 
0.29661 0.46037 0.13236 0.069393 0.083368 0.091589 0.062488 0.047362 
0.25633 0.38901 0.043745 -0.0021268 0.03388 0.079094 0.044402 0.087314 
0.1664 0.18662 -0.025309 0.0013258 0.011684 0.062652 0.038483 0.11066 
0.021549 -0.020212 -0.020212 0.0067515 0.0083956 0.035688 0.054925 0.1077 
-0.039449 -0.11311 0.00297 0.0092177 0.021878 0.076627 0.039634 0.056733 
-0.0055795 -0.15536 0.07449 0.057227 0.062981 0.10589 0.043416 0.014315 
0.072024 -0.15848 0.14963 0.061337 0.098659 0.13516 0.037004 -0.010676 
0.12332 -0.037805 0.14256 0.067091 0.080409 0.0786 0.037168 0.009711 
0.011026 -0.18545 -0.033694 0.00033937 0.02681 -0.047669 -0.020706 0.0059294 
-0.16966 -0.41316 -0.15865 -0.025802 -0.068714 -0.10554 -0.066577 -0.022679 
-0.2014 -0.30136 -0.182 -0.0077169 -0.051944 -0.10949 -0.066906 -0.0021268 
0.040128 -0.066248 -0.15552 -0.018733 0.0024767 -0.09239 -0.039284 -0.0064016 
0.16821 -0.021199 -0.094034 0.0421 0.01974 0.012342 0.018754 0.013657 
0.18333 -0.014129 -0.0083746 0.036182 0.058049 0.086657 0.041278 -0.024652 
0.22723 0.096028 0.068407 0.065283 0.051965 0.084355 0.071202 0.015465 
0.27031 0.20602 0.12349 0.067749 0.045224 0.10195 0.071531 0.029441 
0.054267 0.22082 0.13976 0.042758 0.06479 0.096028 0.05624 0.057227 
-0.2716 0.17412 0.069064 0.036346 0.058049 0.1276 0.038155 0.059364 
-0.39097 0.0042853 -0.011498 -0.04471 0.040128 0.15604 0.022864 0.067091 
-0.17065 -0.027282 0.045553 -0.016266 0.04095 0.13236 0.01974 0.024015 
0.35465 0.06331 0.17117 0.016616 0.030427 0.043909 0.035853 -0.021528 
0.57957 0.12447 0.21852 0.060844 0.037168 0.057555 0.053938 0.041607 
0.33541 0.074819 0.20257 0.10359 0.031907 0.10819 0.078272 0.037168 
0.044731 0.037661 0.098988 0.088958 0.053774 0.099645 0.084355 0.035853 
-0.024487 0.13762 0.025166 0.066927 0.046868 0.052459 0.056404 0.038648 
0.06331 0.18136 -0.028597 0.029441 0.017438 -0.0406 -0.00097594 0.03651 
0.0039565 0.058049 -0.078908 -0.022679 -0.0072237 -0.13514 -0.05589 0.0052718 
-0.031721 -0.068386 -0.1718 -0.017911 -0.0011404 -0.15454 -0.076771 -0.014787 
0.03536 -0.015773 -0.20863 -0.067399 -0.036325 -0.16029 -0.068221 -0.014787 
-0.085649 0.22016 -0.11738 -0.049149 -0.11212 -0.21948 -0.046847 0.013164 
-0.22491 0.33015 0.043909 -0.055397 -0.14402 -0.21077 -0.05178 0.04095 
-0.18643 0.2657 0.13236 -0.022843 -0.1233 -0.12741 -0.057863 0.046704 
-0.010512 0.060515 0.13976 0.01974 -0.053424 -0.054739 -0.045203 0.030098 
0.33196 -0.083676 0.147 0.055089 0.10047 0.17462 0.049499 0.022535 
0.19698 -0.14188 0.19073 0.1322 0.20224 0.39756 0.11313 0.024837 
0.033222 -0.1307 0.22016 0.14617 0.18777 0.4219 0.16475 0.055747 
0.19566 0.093233 0.19879 0.12579 0.19254 0.4043 0.15735 0.043745 
0.50197 0.27113 0.13236 0.15505 0.22608 0.41861 0.17626 0.021878 
0.55474 0.32933 0.10277 0.14798 0.29053 0.35613 0.16163 0.057227 
0.22542 0.23085 0.036182 0.13779 0.23167 0.19912 0.085341 0.071037 
-0.069372 0.061501 -0.061645 0.0042853 -0.028597 -0.11705 -0.014787 0.092411 
-0.1718 -0.0068948 -0.15339 -0.069043 -0.2208 -0.36877 -0.080552 0.063639 
-0.17558 -0.010841 -0.17904 -0.11179 -0.25549 -0.40461 -0.09798 0.013821 
-0.14451 -0.0016336 -0.17624 -0.11672 -0.19893 -0.31435 -0.10094 -0.0095255 
-0.11475 0.020891 -0.11623 -0.047505 -0.11639 -0.27308 -0.069536 -0.041422 
-0.029584 0.11494 0.0039565 0.0069159 -0.03501 -0.21619 -0.055232 0.01152 
0.026974 0.21868 0.099152 0.070708 0.011026 -0.11097 0.0039565 0.028125 
0.054103 0.25485 0.15587 0.050979 0.0056006 0.037661 0.040785 0.041607 
0.017274 0.15785 0.13943 0.050486 0.052623 0.22624 0.097015 0.038319 
0.015465 0.05476 0.10935 0.08863 0.18284 0.37734 0.13335 0.051801 
0.0093821 0.048184 0.11444 0.062817 0.25206 0.44163 0.16311 0.037826 
0.053281 0.082217 0.11954 0.082546 0.16771 0.37487 0.1636 0.066927 
0.077285 0.18448 0.1978 0.065612 0.08715 0.24926 0.090438 0.082382 
0.085835 0.23973 0.2075 0.056076 0.033551 0.074654 1.0539e-005 0.014643 
-0.022514 0.21326 0.13828 0.038648 0.03651 -0.071181 -0.035996 0.031578 
-0.044874 0.083533 0.047197 -0.0060728 -0.022843 -0.19301 -0.0072237 0.020727 
-0.073811 0.015137 -0.025474 0.0044497 -0.053424 -0.20633 -0.030899 0.048184 
-0.034023 -0.055068 -0.088608 -0.052602 -0.066577 -0.16769 -0.0088678 0.03947 
-0.039449 -0.095678 -0.097487 -0.04323 -0.0070593 -0.046519 -0.0021268 0.013164 
0.014972 -0.00081153 -0.023007 0.020891 0.066598 0.062159 0.03092 -0.038133 
0.069064 0.084355 0.0083956 0.017767 0.071366 0.039799 0.048841 -0.034516 
0.072188 0.08156 0.033387 0.083533 0.067256 0.047526 0.02533 -0.014129 
0.093891 0.052952 0.090931 0.082711 0.14733 0.11724 0.045718 0.04917 
0.020398 0.026646 0.11954 0.073997 0.13302 0.062652 0.036839 0.065283 
-0.072332 0.0034632 0.097508 0.036839 0.024179 -0.034352 0.028454 0.040292 
-0.079072 -0.092883 0.084519 0.0065871 -0.059836 -0.0503 0.021384 0.043251 
-0.021199 -0.21619 0.073504 0.063474 -0.058028 -0.068386 0.0067515 0.0592 
0.0052718 -0.28607 0.019411 0.040456 -0.030406 -0.075784 0.00033937 0.046704 
-0.010183 -0.22935 -0.056877 0.0016547 -0.031064 -0.096336 -0.023172 0.026481 
-0.0042642 -0.20715 -0.097487 -0.052109 -0.040764 -0.12659 -0.033694 0.031414 
-0.0073881 -0.088937 -0.056383 -0.038462 -0.030242 -0.052109 -0.019555 0.06742 
-0.011827 0.094548 -0.039778 0.0067515 0.015794 0.01415 0.044402 0.096357 
-0.012978 0.10162 -0.11097 0.0032988 0.029276 0.01826 0.041607 0.075805 
-0.049971 0.048513 -0.098802 0.033222 0.03947 0.0054362 0.007738 0.028125 
-0.11722 0.0689 0.028783 0.078929 0.072517 0.097508 -0.036325 -0.00015387 
-0.075949 0.12332 0.1641 0.085999 0.098001 0.19106 -0.0064016 -0.046519 
0.031578 0.095699 0.18399 0.060022 0.062323 0.19961 0.061666 -0.023994 
0.069393 -0.0088678 0.14864 0.012835 0.031907 0.17412 0.12973 -0.071016 
0.026152 -0.11491 0.056569 0.038648 0.039634 0.058213 0.087808 -0.10045 
-0.031064 -0.056055 0.011026 0.0090533 -0.032708 -0.082854 -0.011827 -0.10045 
-0.014293 0.12677 0.013164 -0.004593 -0.095514 -0.2208 -0.058192 -0.029913 
-0.024487 0.16821 0.035853 -0.0047575 -0.074304 -0.24316 -0.032379 0.053774 
-0.035503 0.039963 0.060844 0.014808 0.0092177 -0.084005 0.033058 0.12201 
-0.043888 -0.099295 0.070051 0.073175 0.084026 0.081067 0.097837 0.14667 
-0.015444 -0.18364 0.017767 0.055254 0.047033 0.051472 0.084355 0.082546 
0.066763 -0.12544 -0.031557 0.024015 0.014315 -0.045039 0.079258 0.067749 
0.15916 -0.010676 -0.032543 0.0098754 -0.011334 -0.044381 0.035688 0.053116 
0.18876 0.083368 -0.026953 0.01826 0.026974 0.02533 0.017274 0.0689 
0.14239 0.09833 -0.038133 0.031578 0.070544 0.037168 0.015794 0.040785 
0.075805 0.017438 -0.056712 0.0098754 0.086985 0.098823 -0.00064712 0.038648 
0.039305 0.030098 -0.014293 0.06035 0.14963 0.05476 0.060022 0.021878 
0.027632 0.050814 0.019576 0.039799 0.12842 0.0019835 0.035524 -0.0055795 
-0.028269 -0.003771 0.026317 0.031249 0.031907 -0.0050863 -0.015773 -0.0064016 
-0.10357 -0.10538 0.045718 -0.0098543 -0.051451 -0.045039 -0.018404 -0.018075 
-0.21307 -0.15191 0.0083956 -0.019555 -0.11064 -0.069208 0.010533 0.012506 
-0.24743 -0.080223 0.035031 0.022864 -0.11179 -0.071181 0.034702 0.062323 
-0.16062 0.033058 0.0082312 0.0016547 -0.069536 -0.024323 0.075641 0.10113 
-0.072825 0.11773 0.0065871 -0.0039354 -0.024158 0.037661 0.071695 0.083368 
0.15061 0.22953 0.033551 0.012013 0.042594 0.13203 0.05624 0.00099702 
0.40266 0.28691 0.061501 0.038319 0.072517 0.10392 0.052294 -0.040106 
0.23331 0.25222 0.064296 0.072188 0.095042 0.085835 0.035688 0.014808 
-0.061645 0.24795 0.062652 0.085012 0.10326 0.096686 0.015794 -0.025802 
-0.11393 0.30533 0.12365 0.083697 0.09833 0.059035 -0.040106 -0.077593 
0.15883 0.35778 0.14749 0.072846 0.05772 -0.0091966 -0.07562 -0.098638 
0.71965 0.3438 0.13072 0.0026412 -0.001798 -0.047669 -0.00081153 -0.017417 
0.83754 0.10458 0.087479 0.032729 -0.0050863 -0.051451 0.077943 0.073997 
0.38441 -0.21389 0.0075736 0.023686 0.011026 -0.03501 0.073504 0.11263 
-0.075949 -0.27588 -0.081374 0.0062583 0.04095 0.0064227 0.063474 0.10441 
-0.2573 -0.081703 -0.086142 -0.0077169 0.042758 0.047691 0.047691 0.073997 
-0.27292 0.11132 -0.018733 0.025166 0.028947 0.072846 0.037497 0.092411 
-0.28985 0.13434 0.032893 0.067913 0.080738 0.091918 0.038648 0.057555 
-0.24283 -0.032708 -0.034845 0.025001 0.048513 0.10655 0.015794 0.035195 
-0.18643 -0.1649 -0.066248 0.0067515 0.023851 0.069064 0.034702 0.027796 
-0.089595 -0.038298 0.016123 -0.031064 -0.0078813 0.035524 0.034209 0.03388 
0.045224 0.10359 0.085012 -0.0095255 -0.009361 0.032564 0.033551 0.012835 
0.18432 0.20421 0.09126 0.043909 0.0041209 0.04358 0.046211 0.029934 
0.2269 0.2126 0.06183 0.034044 0.034702 0.034866 0.078436 0.056076 
0.15686 0.15242 -0.025638 0.030263 0.068407 0.026481 0.029441 0.020398 
0.11905 0.16262 -0.076935 -0.016102 0.050321 -0.022021 0.0019835 0.036346 
0.17412 0.28182 -0.0062372 0.012013 0.047691 -0.029748 -0.010512 0.04358 
0.17001 0.47434 0.11987 0.038319 0.046046 -0.0019624 0.004943 0.04506 
0.15752 0.54784 0.24334 0.046704 0.020233 0.0031344 0.012013 0.031742 
0.17988 0.42946 0.20882 0.026974 -0.011827 0.00297 0.014808 0.055089 
0.16097 0.15851 0.11905 0.0039565 -0.024323 0.043416 0.024015 0.062323 
0.0786 0.013657 0.011026 -0.023665 -0.0087034 0.022371 0.007738 0.044402 
-0.0042642 -0.02498 0.0044497 0.019083 0.010533 0.015465 -0.0013048 -0.00097594 
-0.13941 -0.11376 0.010533 0.022371 0.059857 0.042429 -0.02794 -0.033201 
-0.27045 -0.4051 -0.0039354 0.072846 0.097837 0.053281 -0.020048 -0.026131 
-0.30974 -0.88684 -0.1427 0.049828 0.12233 0.085506 0.0013258 0.013328 
-0.23543 -1.0614 -0.31073 0.010862 0.054925 0.07597 0.013328 0.027796 
0.062323 -0.40494 -0.28179 -0.02794 0.025824 0.052294 0.048513 0.04654 
0.40595 0.37438 -0.0070593 0.0083956 0.0072447 0.071202 0.081395 0.05624 
0.21095 0.71916 0.20651 0.082217 0.032071 0.078436 0.078107 0.089287 
-0.22047 0.58072 0.21079 0.042758 0.023522 0.020398 0.062488 0.087643 
-0.41234 0.31388 0.14568 0.062323 0.028947 0.0046141 0.046868 0.087643 
-0.11787 0.089123 0.076627 0.020562 0.015137 0.0019835 0.010862 0.054925 
0.54965 0.029934 0.055911 0.01004 0.015465 -0.023172 0.013164 0.018918 
0.68627 -0.041422 0.033715 0.062652 0.018754 -0.0016336 -0.0011404 0.019083 
0.29431 -0.087786 -0.024158 -0.0021268 -0.0027845 0.029605 0.028619 0.013821 
0.0041209 -0.11146 -0.044546 -0.01676 -0.030077 0.022206 -0.016266 0.015959 
0.063639 -0.058685 -0.014787 -0.026131 0.0074092 0.0028056 -0.024323 0.0079024 
-0.022021 -0.026953 0.0026412 -0.0013048 0.039305 0.01267 -0.013143 -0.0031133 
-0.25204 -0.058521 -0.034188 -0.0036066 0.01004 -0.038133 1.0539e-005 0.030592 
-0.40116 -0.17756 -0.066577 0.014315 -0.003771 -0.11475 -0.0059084 0.033551 
-0.42631 -0.20468 -0.030242 0.038648 -0.046354 -0.11787 -0.0022913 0.036675 
-0.11574 -0.0024557 0.070051 0.034537 -0.0073881 -0.004593 0.017603 0.03092 
0.2223 0.14864 0.15324 0.08304 0.12644 0.11658 0.057884 0.062817 
0.24992 0.24367 0.15061 0.090931 0.18152 0.23611 0.07038 0.03092 
0.2394 0.30056 0.17429 0.10113 0.13105 0.21852 0.091918 0.061008 
0.10014 0.24926 0.18366 0.13631 0.058542 0.14667 0.099481 0.052952 
-0.039778 0.070051 0.14815 0.08978 0.024837 0.082382 0.076463 0.043087 
-0.065591 -0.15224 0.063803 0.087643 -0.0016336 0.083533 0.075148 0.046046 
-0.077428 -0.20781 0.035853 0.059857 0.044731 0.12644 0.074819 0.017767 
-0.17493 -0.41217 -0.064111 0.010862 0.034702 0.082217 0.045882 0.020069 
-0.23954 -0.7267 -0.27489 -0.053588 -0.021692 -0.067728 -0.0029489 -0.040928 
-0.17394 -0.52989 -0.36926 -0.12577 -0.078908 -0.17443 -0.031721 -0.056055 
0.0034632 0.037661 -0.218 -0.066577 -0.058356 -0.1649 -0.030242 -0.0095255 
0.16508 0.47533 0.051472 -0.004593 0.010533 -0.070359 -0.037147 0.032729 
0.1909 0.61821 0.27212 0.050486 0.032071 -0.034352 -0.033365 0.062323 
0.1174 0.5235 0.34183 0.066105 0.019905 -0.023007 -0.034845 0.036017 
0.048513 0.32177 0.29711 0.07449 0.026152 0.036182 0.0064227 0.039963 
0.10589 0.18087 0.20471 0.08008 0.027961 0.12102 0.047362 0.054267 
0.24926 0.11839 0.13039 0.060515 0.070215 0.18004 0.11839 0.062159 
0.25518 0.071366 0.069722 0.065283 0.1105 0.18958 0.10425 0.048513 
0.12283 0.013986 0.016123 0.058213 0.1026 0.11247 0.080244 0.041278 
-0.0032777 -0.013307 -0.024158 0.04358 0.036346 0.044567 0.023357 -0.0016336 
-0.065591 -0.038133 -0.056383 0.0046141 -0.029584 -0.042901 0.0052718 0.0062583 
-0.078086 -0.13086 -0.095843 -0.030899 -0.057699 -0.096829 -0.0077169 0.012177 
-0.10702 -0.18183 -0.06148 -0.014951 -0.049314 -0.095185 -0.014787 0.0056006 
-0.13678 -0.098802 0.0039565 -0.016266 -0.017417 -0.055397 -0.041586 0.024508 
0.025659 -0.052437 -0.010841 -0.020377 -0.02087 -0.060658 -0.014129 0.017767 
0.091096 0.061995 -0.044217 0.038319 0.027303 -0.0073881 0.010533 0.040128 
-0.13119 0.16574 0.010697 0.043251 0.081067 0.10573 0.052294 0.02533 
-0.33424 0.25962 0.074983 0.087808 0.11083 0.14453 0.10293 0.00050378 
-0.22951 0.34742 0.16114 0.10326 0.12727 0.16623 0.11888 -0.006566 
0.27195 0.48405 0.26866 0.097015 0.11806 0.2149 0.11461 0.050486 
0.6478 0.41516 0.24367 0.077943 0.099481 0.16344 0.096028 0.049992 
0.37734 0.15982 0.11937 0.013328 0.023686 0.027796 0.058213 0.037168 
0.00099702 -0.019555 0.013328 -0.011005 -0.042408 -0.090088 -0.010019 0.029769 
-0.13596 -0.0032777 -0.03353 -0.043066 -0.04619 -0.14319 -0.068221 0.017274 
-0.056548 0.1516 0.027139 0.0067515 0.016781 -0.097158 -0.091897 0.018754 
-0.0078813 0.17971 0.059857 0.04095 0.05065 -0.021692 -0.02498 0.022371 
-0.0044286 0.026974 -0.021363 0.02533 0.050814 -0.0050863 0.029112 0.06594 
0.0041209 -0.11787 -0.16276 0.012506 0.00066819 0.021384 0.046375 0.06183 
-0.03205 -0.1598 -0.22968 -0.014458 -0.019555 0.076956 0.027139 0.034866 
-0.053588 -0.071345 -0.18824 0.00050378 0.017603 0.089287 0.016288 0.020069 
-0.082525 -0.024816 -0.069865 0.0060938 0.046375 0.11165 0.04654 0.017274 
-0.062631 0.0060938 0.059857 0.0013258 0.044567 0.1664 0.086657 0.02122 
0.015465 -0.031064 0.14946 0.056404 0.051965 0.17363 0.11839 0.067256 
0.090603 -0.050958 0.16738 0.06742 0.0421 0.081724 0.09126 0.048019 
0.1613 -0.072167 0.093562 0.050321 0.012999 -0.048163 0.053609 0.0083956 
0.13401 -0.057863 0.020233 0.0026412 -0.012156 -0.1552 -0.0078813 -0.034188 
0.055418 0.020069 0.0036276 0.015794 -0.0049219 -0.18134 -0.072332 0.0021479 
-0.0011404 0.082382 0.021056 0.069393 -0.0040998 -0.1256 -0.08384 0.053445 
-0.10193 0.14387 0.023028 0.0085601 0.017274 -0.13316 -0.048163 0.062652 
-0.057205 0.22411 0.033222 0.032071 0.011191 -0.12642 0.01004 0.054432 
0.16788 0.28017 0.069558 0.017274 0.0074092 -0.053095 0.017603 -0.020377 
0.27639 0.32555 0.12102 0.027468 0.029769 -0.0016336 0.019083 -0.022021 
0.18728 0.36123 0.14239 0.072353 0.089123 0.054432 -0.017746 -0.036325 
0.086328 0.30681 0.10408 0.078272 0.12825 0.16804 0.035688 0.0088889 
1.0539e-005 0.18004 0.078436 0.079094 0.10737 0.16442 0.0062583 0.03388 
-0.060658 -0.012814 0.055911 0.046375 0.0082312 0.1003 0.029605 0.029441 
0.030756 -0.12198 0.024344 0.032071 -0.0090322 0.082546 0.052294 -0.0057439 
0.012506 -0.31205 -0.11245 0.027796 0.025659 0.089945 0.086492 -0.011498 
-0.15602 -0.45903 -0.17657 0.0044497 0.066434 0.13368 0.092411 0.023686 
-0.21866 -0.44999 -0.15026 0.031907 0.1026 0.16656 0.075805 0.076792 
-0.12807 -0.24957 -0.069701 -0.0072237 0.040128 0.03536 0.029112 0.09833 
0.24318 0.10885 0.033551 -0.012485 -0.065262 -0.1381 -0.029255 0.041278 
0.49325 0.2634 0.086985 -0.0067304 -0.10982 -0.21488 -0.051287 0.03536 
0.26883 0.16985 0.040785 -0.01528 -0.081374 -0.13695 -0.029091 0.028454 
-0.0080457 0.011191 0.0021479 0.036017 0.038155 0.0087245 0.034537 0.066763 
-0.1011 -0.020048 0.0031344 0.061337 0.09685 0.12727 0.083533 0.058706 
-0.080059 0.05624 0.079258 0.096193 0.10737 0.1248 0.10589 0.073339 
-0.074633 0.03388 0.059035 0.066927 0.067256 0.08419 0.049664 0.014315 
-0.08384 -0.14829 -0.0026201 0.032564 0.029112 -0.0042642 -0.01117 -0.021034 
-0.11343 -0.18117 -0.048163 0.0059294 -0.024487 -0.080223 -0.070359 -0.0013048 
-0.090581 -0.0021268 0.051636 -0.01939 -0.014458 -0.098144 -0.051122 0.022042 
-0.063453 0.14519 0.10885 0.027796 -0.0050863 -0.062302 -0.034188 0.065612 
-0.20337 0.2218 0.12299 -0.010348 -0.0098543 0.0069159 -0.021034 0.016452 
-0.22704 0.26636 0.13417 0.020233 0.0054362 0.099645 0.03799 -0.012978 
0.017603 0.17199 0.10885 0.049499 0.033222 0.14667 0.085341 -0.0031133 
0.42042 0.032729 0.12562 0.07449 0.085999 0.19846 0.13335 0.030263 
0.5582 -0.064933 0.10622 0.10326 0.11411 0.18958 0.12299 0.031414 
0.28773 -0.21586 -0.013471 0.023193 0.042758 0.12118 0.093562 0.030427 
0.18761 -0.18134 -0.13366 -0.049642 -0.032708 0.017274 0.060515 0.0090533 
0.26735 0.0093821 -0.12905 -0.071345 -0.064604 -0.034188 0.067091 0.078929 
0.13023 0.050486 -0.084005 -0.050958 -0.04882 -0.0503 0.026317 0.076627 
-0.084498 0.011026 0.017438 0.015301 0.010697 -0.069701 -0.015609 0.046868 
-0.17164 0.0592 0.051636 0.046704 0.046375 -0.10669 -0.038462 0.025495 
-0.11985 0.1562 0.017603 0.060515 0.050979 -0.089595 -0.02942 0.0018191 
-0.035174 0.22855 0.0060938 0.0042853 0.051308 -0.028597 -0.037147 0.027303 
0.01152 0.23742 0.020398 -0.013143 0.01826 0.011026 0.0054362 0.044402 
0.067913 0.19583 0.072517 0.034537 0.0051074 0.031742 0.055089 0.081889 
0.066105 0.14831 0.071366 0.022535 0.023357 0.072846 0.0421 0.059364 
0.067256 0.086492 0.062817 0.030592 0.056733 0.04917 0.017603 0.024673 
0.065447 0.09833 0.11066 0.059528 0.10392 0.14223 0.029276 0.036017 
0.046211 0.13993 0.17051 0.12464 0.12628 0.25814 0.099152 0.073504 
-0.094199 -0.071838 0.093069 0.098494 0.10819 0.28889 0.14535 0.043909 
-0.28114 -0.39754 -0.034352 0.036346 0.0689 0.18974 0.12398 -0.0064016 
-0.23707 -0.39639 -0.05178 0.025495 -0.021363 -0.009361 0.037332 -0.014787 
-0.034681 -0.10258 0.014643 -0.011663 -0.052931 -0.11245 0.030098 0.021878 
0.10852 0.077449 0.09981 0.02533 -0.0067304 -0.11311 0.064132 0.091589 
0.091096 0.049828 0.11148 0.047362 0.041936 -0.039449 0.051801 0.058871 
0.11247 0.079094 0.093233 0.058377 0.048513 -0.073811 0.017274 0.074819 
0.15226 0.19237 0.058377 0.058049 0.029769 -0.1062 -0.032215 0.073175 
0.090931 0.33361 0.048348 0.031414 0.010369 -0.094034 -0.034023 0.093726 
0.074654 0.40694 0.086492 0.046375 -0.0013048 -0.030735 -0.0095255 0.066763 
0.12184 0.27064 0.10458 0.004943 0.0092177 0.012013 0.0092177 0.01974 
0.21917 0.011848 0.071202 -0.020706 0.037168 0.048841 -0.0036066 -0.021034 
0.42782 -0.0095255 0.0075736 0.041278 0.089287 0.05213 0.020233 -0.021692 
0.32029 -0.00064712 -0.054739 0.021549 0.096357 0.058049 0.0037921 -0.065591 
-0.045368 0.0059294 -0.041586 0.038155 0.061008 0.063474 -0.0026201 -0.083512 
-0.26568 0.1174 0.064296 0.033387 0.029605 0.020233 -0.015444 -0.03353 
-0.33556 0.21769 0.1636 0.049664 0.033222 0.00017495 0.0044497 -0.020048 
-0.33194 0.10819 0.12661 0.036839 0.0014903 -0.022185 0.0056006 0.037168 
-0.29955 0.00297 0.0052718 -0.014293 -0.045696 -0.12264 -0.016102 0.090274 
-0.27949 -0.035832 -0.014951 0.007738 -0.11015 -0.21438 -0.042079 0.079587 
-0.097487 -0.012649 0.0046141 0.00066819 -0.058521 -0.098309 -0.055232 0.037497 
0.41121 0.16508 0.029276 0.041278 0.01563 0.035031 0.045718 0.053445 
0.7208 0.37619 0.10293 0.072024 0.082217 0.1567 0.19747 0.10392 
0.43801 0.27162 0.092576 0.042758 0.074161 0.15209 0.19632 0.065447 
-0.011992 -0.033365 -0.0027845 0.045224 0.046868 0.072353 0.074654 0.0032988 
-0.25664 -0.31139 -0.053753 -0.0026201 0.037826 0.048841 0.0082312 -0.0052507 
-0.24234 -0.34608 -0.023336 0.073668 0.084519 0.075805 0.0092177 0.063639 
-0.12511 -0.20715 0.027303 0.14338 0.16377 0.14256 0.047855 0.061172 
-0.010348 -0.065262 0.052952 0.12858 0.18235 0.15604 0.024508 0.040785 
0.023522 -0.0042642 0.022371 0.080902 0.11987 0.13056 -0.018239 -0.026789 
-0.027775 -0.15848 0.0080668 0.0067515 -0.054904 -0.05178 -0.057534 -0.068714 
-0.049149 -0.10604 0.035031 -0.021034 -0.13563 -0.17657 -0.024158 -0.056055 
0.012013 0.2075 0.12875 -0.043559 -0.12264 -0.20468 -0.01117 0.030263 
0.054925 0.36337 0.078272 -0.060165 -0.13925 -0.27752 -0.1108 0.034209 
0.026152 0.2292 -0.059178 -0.079237 -0.12462 -0.33112 -0.18611 -0.01232 
-0.039449 0.0095465 -0.1478 -0.11722 -0.074962 -0.19202 -0.12873 -0.033201 
-0.11196 -0.036983 -0.13991 -0.057534 -0.01528 0.066269 0.036182 -0.034516 
-0.090746 0.11592 -0.07562 -0.021528 0.080573 0.29119 0.13713 0.031907 
-0.009361 0.097837 -0.00064712 0.071037 0.3147 0.51331 0.19122 0.089123 
-0.030735 -0.15273 -0.025145 0.13286 0.38244 0.54981 0.21178 0.098659 
0.020562 -0.39491 -0.065262 0.090274 0.20257 0.28856 0.16985 0.070873 
0.10606 -0.2379 0.037826 0.12233 0.02829 0.032564 0.088794 0.072353 
0.16722 0.058049 0.095042 0.046211 -0.073318 -0.10406 0.0080668 0.034537 
0.34479 0.21802 0.09274 0.027961 -0.055561 -0.12741 -0.0024557 0.0075736 
0.40184 0.21638 0.088465 -0.0068948 -0.043066 -0.14385 -0.021856 0.017438 
0.13927 0.1613 0.11115 -0.024652 -0.10472 -0.17838 -0.040106 0.023028 
-0.12396 0.21506 0.075148 -0.047505 -0.17476 -0.18627 -0.039613 0.0592 
-0.032708 0.28757 0.049006 -0.0868 -0.16621 -0.071345 -0.0060728 0.06742 
0.19122 0.4071 0.0054362 -0.036818 -0.085813 0.027139 0.010204 0.013164 
0.24269 0.37356 -0.041093 -0.010676 0.0080668 0.020398 -0.016431 -0.060329 
0.04654 0.048184 -0.14089 -0.0044286 0.057555 -0.041093 -0.10373 -0.081703 
-0.5687 -0.51543 -0.23609 0.036839 0.10162 0.023028 -0.10291 -0.084827 
-0.95622 -0.78885 -0.19449 0.029441 0.082711 0.073339 0.010697 -0.0034422 
-0.75333 -0.68724 -0.073976 0.098988 0.11773 0.16903 0.076134 0.082217 
0.075476 -0.40182 0.047033 0.091918 0.26094 0.31881 0.21556 0.062159 
0.94572 0.22805 0.15785 0.13615 0.26899 0.39099 0.19961 0.026646 
1.0468 0.64698 0.2565 0.099152 0.13154 0.27162 0.21539 0.056733 
0.49309 0.61245 0.27442 -0.017253 -0.018404 0.063803 0.053609 0.089123 
-0.059014 0.45642 0.22953 -0.041422 -0.094692 -0.078086 -0.024323 0.039963 
-0.18709 0.43801 0.18267 -0.049807 -0.052273 -0.072167 -0.0082102 0.070051 
-0.10965 0.44376 0.15209 0.040292 0.032564 0.012342 0.032071 0.063803 
0.017932 0.26768 0.075476 0.069393 0.062159 -0.018897 0.019247 0.070873 
-0.075291 -0.1256 -0.11245 0.023357 0.023193 -0.06 0.019411 0.042429 
-0.31895 -0.29939 -0.21471 0.024015 -0.025309 -0.076606 -0.024652 0.021878 
-0.13349 -0.18923 -0.18331 -0.021856 -0.05178 -0.10702 -0.030242 -0.039613 
0.27327 -0.099624 -0.18348 -0.039942 -0.079401 -0.077757 0.010204 -0.061809 
0.52482 -0.11787 -0.1575 -0.011992 -0.05178 0.010533 0.040128 -0.043888 
0.43341 -0.10883 -0.033365 0.022864 0.022206 0.077614 0.093726 0.0093821 
0.23282 -0.015609 0.089452 0.08156 0.10195 0.14371 0.064954 0.056404 
0.19205 0.032564 0.14338 0.052787 0.082875 0.12151 0.038812 0.066927 
-0.025638 -0.15322 0.076299 0.033058 0.015465 0.012177 0.0039565 0.074983 
-0.17624 -0.075291 0.094713 -0.0088678 -0.018404 0.016781 0.035524 0.03092 
-0.17608 0.21638 0.13006 0.00033937 0.0087245 0.075148 0.06594 0.049828 
-0.070687 0.44524 0.18054 0.052294 0.0067515 0.066598 0.066598 0.0059294 
0.0074092 0.49424 0.22345 0.059857 0.040621 0.0047785 -0.0029489 0.022371 
-0.1159 0.3974 0.20536 0.097179 0.12464 0.055911 -0.0078813 0.0041209 
-0.27456 0.32308 0.20668 0.1368 0.17807 0.11428 0.025824 0.017274 
-0.18824 0.14371 0.12266 0.12661 0.14683 0.089616 0.038155 0.024837 
0.054267 -0.038298 -0.0014692 0.054103 0.044731 0.011026 0.010697 0.023851 
0.44261 -0.10143 -0.0067304 0.031414 -0.025145 -0.049314 0.051472 0.030263 
0.54389 -0.058521 0.012177 0.036017 -0.037147 -0.084498 0.040785 0.0227 
0.21769 -0.11903 -0.013143 -0.012156 -0.032708 -0.069865 0.019411 0.061501 
-0.0088678 -0.19942 -0.049314 -0.02087 -0.02087 -0.081374 0.022042 0.066105 
-0.050464 -0.17904 -0.060329 -0.011663 -0.045368 -0.10505 -0.0019624 0.051965 
-0.021528 -0.049971 0.00017495 0.010862 -0.037969 -0.066577 0.01152 0.028783 
0.004943 0.040621 0.056569 0.022371 -0.044381 -0.040106 -0.0004827 0.020727 
-0.039449 0.079094 0.10096 -0.0014692 -0.036818 -0.028104 0.0039565 0.0021479 
-0.037147 0.093726 0.1174 0.03388 -0.003771 -0.0068948 -0.004593 0.017932 
0.043416 0.18087 0.12891 0.049828 0.028947 0.023686 0.01711 0.0082312 
0.13105 0.2394 0.063803 0.058542 0.060515 0.038483 0.030756 -0.0055795 
0.1174 0.23627 -0.00031829 0.049006 0.080244 0.13762 0.06594 0.069393 
0.0054362 -0.0022913 -0.064933 0.057062 0.057555 0.20536 0.099316 0.088465 
-0.1062 -0.21455 -0.1358 0.00099702 0.017438 0.13368 0.095206 0.10491 
-0.012649 -0.16523 -0.10045 -0.047012 -0.024158 0.019576 0.05065 0.088958 
0.1756 -0.0040998 0.026646 -0.0088678 -0.0042642 -0.039613 0.02533 0.044402 
0.079751 0.11132 0.1031 0.029112 1.0539e-005 -0.1279 -0.025474 -0.05737 
-0.12593 0.20355 0.14026 0.030592 -0.01939 -0.16654 -0.069536 -0.06148 
-0.16111 0.17544 0.13549 0.051965 -0.022679 -0.11491 -0.032708 -0.026624 
-0.079072 0.04095 0.0786 0.051308 0.044896 -0.022514 0.018425 0.047691 
0.015301 -0.062796 0.04917 0.070051 0.10113 0.099316 0.078436 0.10672 
0.049006 -0.11968 0.044402 0.073997 0.11395 0.13993 0.083533 0.090603 
0.026974 -0.20699 0.017274 0.053774 0.081231 0.099316 0.099152 0.069229 
-0.012814 -0.19005 -0.023172 0.037332 0.041443 0.045389 0.060022 0.028783 
0.0092177 0.084684 0.025988 0.0080668 0.023028 0.0041209 0.0042853 0.045718 
0.0324 0.25929 0.10359 0.042594 -0.0004827 -0.056712 -0.018568 0.012999 
0.010697 0.1932 0.13154 0.021878 -0.018897 -0.081374 -0.016924 0.034866 
-0.014787 0.15226 0.12414 0.023686 -0.0031133 -0.023665 0.012506 0.034537 
0.00083261 0.2292 0.12266 0.045224 0.0092177 -0.021856 0.01415 0.048513 
-0.014458 0.20191 0.058213 -0.003771 0.012835 -0.004593 -0.0096899 0.05213 
-0.069043 -0.038791 -0.057041 0.0028056 0.022371 0.046868 0.031249 0.044731 
-0.12166 -0.43026 -0.15405 -0.03912 -0.0011404 0.048677 0.078107 0.016781 
-0.078415 -0.57757 -0.16424 -0.029091 -0.0054151 0.044238 0.045224 -0.030077 
0.01563 -0.25565 -0.043066 0.03536 0.032564 0.060679 0.013328 -0.038462 
0.075148 0.11494 0.058213 0.066269 0.070215 0.065118 0.013821 -0.036654 
0.083368 0.12513 0.030427 0.081395 0.079916 0.080738 0.016288 0.027468 
0.026152 -0.081045 -0.049807 0.0074092 0.055089 0.084848 0.012506 0.054925 
0.041772 -0.042408 -0.081539 -0.025967 0.0079024 0.017767 0.040292 0.076792 
0.038977 0.18481 -0.068057 -0.066248 -0.0091966 -0.028762 0.055911 0.057555 
0.021384 0.33344 -0.010348 -0.057863 -0.018239 -0.046354 0.047855 0.058542 
-0.0062372 0.36123 0.11494 0.024508 -0.035996 -0.10456 -0.0014692 0.017603 
-0.034516 0.1493 0.16508 0.023522 0.0041209 -0.14615 -0.10291 -0.01676 
-0.15552 -0.089266 0.10277 0.044896 0.0036276 -0.047998 -0.12034 -0.029091 
-0.29232 -0.024158 -0.0029489 0.012013 0.015137 0.039634 -0.072332 -0.0096899 
-0.25187 0.24186 0.012835 0.042923 0.049828 0.092576 0.05772 0.049828 
0.016123 0.23742 -0.023007 0.048184 0.067749 0.08419 0.085177 0.045553 
0.40052 -0.04882 -0.092719 0.038483 0.072024 0.10063 0.085999 0.033058 
0.40677 -0.16917 -0.071345 0.10507 0.094384 0.17001 0.12612 0.063968 
0.088136 -0.030899 -0.0072237 0.14157 0.1322 0.23841 0.14963 0.10507 
0.076956 0.15801 0.096357 0.11658 0.1368 0.16031 0.072024 0.014808 
0.56773 0.27096 0.21375 0.11263 0.13746 0.056898 0.0067515 -0.023665 
0.5383 0.15275 0.19599 0.087643 0.092904 0.061995 0.02681 -0.022021 
-0.080223 -0.14599 0.10293 0.061008 0.054925 0.097344 0.058377 0.039963 
-0.66981 -0.34592 0.032564 0.065447 0.046868 0.097015 0.073668 0.05772 
-0.8551 -0.4176 -0.068221 0.01563 0.0034632 0.03388 0.005765 0.050157 
-0.52924 -0.49816 -0.15668 -0.050629 -0.073154 -0.13201 -0.062796 0.055911 
0.0080668 -0.33917 -0.16851 -0.11097 -0.080223 -0.13596 -0.075291 -0.062467 
0.55326 0.15407 -0.075127 -0.034023 -0.016431 -0.063124 -0.04323 -0.065426 
0.70173 0.59963 0.094713 0.0036276 0.0032988 -0.018897 0.019411 0.004943 
0.45314 0.73905 0.20076 0.061337 0.015465 -0.045532 0.0024767 0.088794 
0.18119 0.6335 0.19435 0.045718 -0.01528 -0.048985 -0.011005 0.024015 
0.12694 0.58319 0.16064 0.021384 -0.0050863 -0.014787 -0.011005 0.0044497 
0.086163 0.42255 0.12464 0.057391 0.036017 0.012835 0.021384 0.037168 
-0.06444 -0.035832 0.053609 0.035853 0.044896 0.056076 0.0080668 0.037661 
-0.23609 -0.40889 -0.033201 0.065776 0.066598 0.1271 0.014808 0.069393 
-0.22754 -0.37567 -0.038298 0.072681 0.08304 0.15637 0.053281 0.079751 
-0.14961 -0.21586 -0.095843 0.032893 0.13335 0.23298 0.08863 0.078765 
-0.028762 -0.2425 -0.12396 0.046375 0.17922 0.28856 0.10162 0.01004 
0.11461 -0.36038 -0.16177 0.0011614 0.12381 0.21572 0.095042 -0.03057 
0.11707 -0.40839 -0.17147 0.026152 -0.0138 0.0034632 0.049664 -0.030406 
0.18333 -0.07266 -0.051451 0.028947 -0.081539 -0.17986 0.0059294 0.018754 
0.232 0.25255 0.06183 0.00050378 -0.11393 -0.30876 -0.037147 0.0069159 
0.12349 0.37372 0.18876 -0.0054151 -0.10571 -0.27884 -0.055232 -0.018897 
0.058377 0.39954 0.305 0.021384 0.0080668 0.004943 0.0051074 0.016288 
0.050157 0.39559 0.36386 0.11905 0.12677 0.23644 0.072188 0.061337 
0.070873 0.32555 0.27738 0.11625 0.17149 0.34627 0.11444 0.079094 
0.076299 0.29004 0.18284 0.087972 0.16459 0.36665 0.15472 0.088958 
0.096193 0.23496 0.12792 0.065612 0.13894 0.25074 0.15489 0.10178 
0.059528 0.15686 0.067585 0.026317 0.041607 0.034209 0.038977 0.021384 
-0.056219 0.067913 -0.034023 0.0074092 -0.028433 -0.08121 -0.021199 -0.017088 
-0.12889 -0.023336 -0.094692 -0.034845 -0.02794 -0.057205 0.00083261 -0.017088 
-0.087786 -0.074304 -0.12609 -0.02498 -0.040764 -0.046519 0.03947 0.032564 
0.018589 -0.13251 -0.1062 -0.0011404 -0.037476 -0.052931 0.033058 0.043909 
0.25091 -0.15783 -0.10719 -0.018239 -0.015938 -0.081703 0.02829 0.046704 
0.35235 -0.10423 -0.1279 -0.015938 0.0095465 -0.090253 -0.018075 -0.031392 
0.18284 -0.030242 -0.033201 -0.027282 -0.006566 -0.01939 -0.029584 -0.037311 
-0.070359 -0.060165 0.062488 0.0023123 -0.093541 -0.062467 0.005765 0.01974 
-0.23527 -0.15783 0.082217 -0.015116 -0.15372 -0.16095 0.0069159 0.091589 
-0.38833 -0.12823 0.041607 -0.016431 -0.11672 -0.19761 0.012177 0.12464 
-0.37617 -0.12494 -0.027775 -0.022679 -0.074633 -0.25434 -0.016102 0.066763 
-0.18397 0.013986 -0.046683 -0.050136 -0.050958 -0.26256 -0.089924 0.0093821 
0.24877 0.15999 -0.040271 -0.014622 -0.0083746 -0.18183 -0.14862 -0.078415 
0.56855 0.15785 -0.042573 -0.045696 0.0021479 -0.12182 -0.16901 -0.098309 
0.33953 0.037004 -0.017088 -0.033365 -0.018404 0.12332 0.011684 -0.0098543 
0.026152 0.0095465 0.057227 0.04506 0.073832 0.42436 0.18169 0.098494 
-0.14188 0.12497 0.12036 0.13713 0.31996 0.72047 0.32769 0.14864 
-0.069701 0.24466 0.14683 0.21161 0.51298 0.87108 0.38967 0.16426 
0.056404 0.2925 0.086163 0.11839 0.40661 0.59042 0.28264 0.13006 
0.024015 0.17824 -0.030077 -0.020541 0.12069 0.041278 0.020891 0.07301 
-0.086964 0.049335 -0.084169 -0.073647 -0.10998 -0.36581 -0.16901 -0.0014692 
-0.1108 -0.012978 -0.010348 0.0074092 -0.18923 -0.48337 -0.17246 0.018589 
-0.17493 0.046211 0.099152 0.098823 -0.16999 -0.38702 -0.027611 0.05624 
-0.029255 0.23825 0.18596 0.092082 -0.13547 -0.29511 -0.01676 0.046046 
0.14091 0.36156 0.2297 0.10803 -0.14139 -0.27111 -0.053917 0.05624 
0.4288 0.33936 0.21079 0.041772 -0.133 -0.20879 -0.066248 -0.014787 
0.76306 0.21276 0.14683 0.027139 -0.0050863 -0.073318 -0.010348 -0.02087 
0.5069 0.091753 0.095699 0.066598 0.18514 0.13647 0.045718 0.015959 
0.074983 0.070215 0.056733 0.057062 0.22065 0.20767 0.046375 0.068571 
-0.24628 -0.10028 -0.048656 0.009711 0.021384 0.018096 -0.016924 0.040785 
-0.50852 -0.38817 -0.18709 -0.11294 -0.19761 -0.14862 -0.043724 -0.043559 
-0.62361 -0.49356 -0.25647 -0.12198 -0.17164 -0.083018 -0.056219 -0.071345 
-0.34411 -0.40675 -0.33852 -0.087622 0.01974 0.18958 -0.0078813 -0.041093 
0.22361 -0.1769 -0.28015 -0.026624 0.17955 0.41664 0.1248 0.03947 
0.40513 0.048019 -0.18052 0.03799 0.19237 0.38704 0.19336 0.074161 
0.19533 0.16755 -0.033365 0.066763 0.19205 0.2902 0.22838 0.12053 
0.053774 0.27014 0.12825 0.15604 0.31305 0.39214 0.19829 0.12973 
0.16821 0.43406 0.25304 0.23644 0.32621 0.32473 0.1396 0.099974 
0.23414 0.48947 0.31437 0.19073 0.12381 -0.029913 0.0069159 0.026317 
-0.052602 0.3826 0.30155 0.077285 -0.16638 -0.40083 -0.12462 -0.0138 
-0.31205 0.13121 0.23364 -0.030899 -0.25039 -0.47991 -0.182 -0.010841 
-0.31188 -0.053424 0.14996 -0.016924 -0.10275 -0.22474 -0.11919 0.0052718 
-0.099953 -0.013307 0.16475 0.021549 0.094713 0.11839 0.0019835 0.024179 
0.30352 0.064625 0.17988 0.057555 0.17528 0.27771 0.095042 -0.0075525 
0.35975 0.026646 0.14519 0.10145 0.13088 0.21145 0.12497 -0.0072237 
0.20503 -0.15174 0.06183 0.047362 -0.00015387 0.012013 0.075805 -0.0064016 
0.16656 -0.13103 -0.032543 0.069886 -0.080223 -0.1016 0.031578 -0.003771 
0.19616 0.021713 -0.084005 0.047526 -0.052437 -0.12083 -0.0077169 -0.0050863 
0.20454 0.11494 -0.089266 0.013164 0.0062583 -0.089924 -0.016431 0.01004 
0.13664 0.13499 -0.068221 -0.012649 0.044731 0.020069 -0.025802 0.039305 
0.0014903 0.10277 -0.013307 -0.025638 0.076463 0.1659 0.024508 0.072024 
-0.11311 0.11198 0.0421 0.019905 0.11494 0.18563 0.041278 0.069229 
-0.16046 0.10178 0.077285 0.019411 0.10014 0.11642 0.019083 0.060186 
-0.14352 0.019411 0.068242 0.0042853 0.051965 -0.0091966 -0.016924 0.039305 
-0.10653 -0.089595 0.097508 0.017603 0.00033937 -0.059178 -0.049807 0.01711 
-0.13991 -0.14895 0.094384 0.072024 -0.012649 -0.10209 -0.045532 -0.030242 
-0.14681 -0.15437 0.05772 0.049992 -0.032379 -0.11196 0.0041209 -0.075127 
-0.098967 -0.11245 0.020891 0.01563 -0.072496 -0.12988 0.016945 0.011026 
0.011026 -0.085485 -0.087951 -0.034516 -0.095349 -0.12034 0.0028056 0.023522 
0.090767 -0.083676 -0.10505 -0.088608 -0.03764 -0.07414 -0.00081153 0.021713 
-0.028104 -0.093541 -0.099624 -0.023336 0.072024 0.11806 0.027468 0.014808 
-0.08121 0.10935 -0.0057439 0.093726 0.17774 0.38178 0.14913 0.041443 
-0.093376 0.3951 0.10589 0.11378 0.19024 0.51084 0.2662 0.069722 
-0.1718 0.42042 0.094055 0.089945 0.12069 0.42782 0.26653 0.077778 
0.12825 0.2417 0.091096 0.035031 -0.00081153 0.22476 0.20635 0.060679 
0.41039 0.01563 0.082382 0.025988 -0.050958 -0.034023 0.12661 0.037661 
0.51841 -0.073647 0.098494 0.046046 -0.057699 -0.19975 0.011026 -0.0082102 
0.48931 -0.1621 0.075476 0.023028 -0.047341 -0.29873 -0.093376 -0.02235 
0.28017 -0.28147 -0.0078813 0.0042853 -0.08532 -0.36778 -0.16013 -0.020212 
-0.19219 -0.48073 -0.11985 -0.10752 -0.12609 -0.36433 -0.20173 -0.025474 
-0.60043 -0.44966 -0.18298 -0.12067 -0.13695 -0.30021 -0.16095 -0.011334 
-0.6463 -0.13727 -0.11311 -0.067399 -0.080223 -0.24283 -0.13004 0.0087245 
-0.32536 0.32144 0.027468 -0.003771 -0.0096899 -0.13793 -0.0406 0.034373 
0.28478 0.69581 0.19024 0.066434 0.013821 0.027139 0.047691 0.056076 
0.59848 0.74711 0.27968 0.056898 0.015301 0.083862 0.11642 0.047855 
0.39345 0.49112 0.2149 0.049664 0.02122 0.16163 0.14174 0.076299 
0.082875 0.25041 0.034044 0.035524 0.026646 0.1562 0.13697 0.066927 
-0.0073881 0.15867 -0.071016 0.03092 0.03651 0.072846 0.055089 0.077449 
-0.049314 0.023028 -0.10505 0.04358 0.059528 0.072024 0.034044 0.057555 
-0.091239 -0.29807 -0.099295 0.0092177 0.063145 0.16442 0.07038 0.055418 
-0.17328 -0.6149 -0.14961 0.0064227 0.074983 0.1835 0.058706 0.032071 
-0.21586 -0.82765 -0.20616 -0.023007 0.043909 0.10787 0.043745 -0.010183 
-0.15405 -0.61309 -0.18693 -0.04471 -0.022843 -0.042737 -0.019226 -0.027282 
-0.043724 -0.17969 -0.045039 0.0036276 -0.0406 -0.19745 -0.072825 -0.022185 
-0.0032777 0.046046 0.11674 0.072517 0.0098754 -0.18298 -0.062631 0.0070803 
0.087479 0.13582 0.25189 0.16607 0.085999 0.012013 0.046211 0.020069 
0.11839 0.19616 0.22575 0.13499 0.10737 0.095206 0.1003 0.051965 
0.071366 0.13894 0.01563 -0.019884 -0.0040998 0.020891 0.069229 -0.0036066 
-0.10176 0.14157 -0.1524 -0.13136 -0.10045 -0.068714 0.0036276 0.02122 
-0.20814 0.29842 -0.13415 -0.14993 -0.10143 -0.095843 -0.047998 0.046704 
-0.070852 0.40266 -0.10916 -0.049642 0.0065871 -0.037969 -0.089431 0.07038 
0.24548 0.30927 -0.08269 0.0083956 0.072846 0.0324 -0.063618 0.044238 
0.48405 0.24466 0.017438 0.039963 0.061501 0.09126 0.054925 0.042429 
0.29365 0.19155 0.065283 0.094877 0.0592 0.18251 0.12776 0.053938 
-0.034352 0.014808 0.10244 0.086492 0.095699 0.25041 0.17659 0.08008 
-0.02646 -0.098638 0.093891 0.13302 0.19517 0.22115 0.1659 0.076627 
0.27705 -0.074798 0.086657 0.095371 0.13039 0.088301 0.1225 0.08419 
0.22049 -0.15783 0.057391 0.078929 0.082053 -0.0036066 0.041278 0.060844 
-0.0014692 -0.16934 0.056898 0.014315 0.049006 -0.0503 -0.022843 -0.016266 
-0.098309 -0.073318 0.08863 -0.0019624 0.019083 -0.096829 -0.054575 0.013164 
-0.08828 0.015794 0.065447 0.0087245 0.04095 -0.11755 -0.05885 0.016452 
-0.054904 -0.0039354 0.1151 0.039963 0.034702 -0.028104 -0.016924 0.057062 
-0.070687 0.044238 0.10441 0.07301 0.048348 -0.012485 -0.034352 0.0083956 
-0.074633 0.1271 0.034373 0.031907 0.036182 -0.0075525 -0.02942 0.00083261 
-0.040435 0.24597 -0.0013048 0.01974 0.036346 0.0042853 -0.031557 -0.021199 
0.061337 0.24038 0.012506 0.040456 0.051636 0.038977 0.028454 -0.00097594 
0.077121 0.023522 -0.011005 0.011026 0.051308 0.06594 0.051636 0.047526 
-0.01676 -0.19663 -0.11179 0.043251 0.028125 0.06183 0.037004 0.028619 
-0.14632 -0.05589 -0.10045 -0.0055795 0.023028 0.050321 0.017603 0.060022 
-0.47153 0.12332 0.0052718 0.0051074 0.012999 0.046046 0.033222 0.042265 
-0.76024 0.14749 0.10129 0.025495 0.021384 0.020891 -0.0062372 0.035031 
-0.52167 0.093398 0.076299 0.01563 0.034702 -0.014293 -0.047834 1.0539e-005 
0.097015 0.17708 0.11198 0.10836 0.095699 0.040292 0.025001 -0.0021268 
0.88702 0.39592 0.1248 0.13565 0.13582 0.1197 0.093891 -0.016102 
1.3931 0.39066 0.14798 0.14042 0.12217 0.13812 0.11494 0.0056006 
1.0763 0.24104 0.14437 0.073997 0.064954 0.11888 0.081067 0.044073 
0.3415 0.15127 0.099316 0.02122 0.01826 0.030263 0.02533 0.077449 
-0.14303 0.079258 0.031742 0.014808 -0.018733 -0.063618 -0.019555 0.047526 
-0.27226 -0.039942 0.009711 0.00297 -0.03057 -0.047341 0.012999 0.038648 
-0.28031 -0.11524 -0.018075 0.019083 -0.026296 0.0070803 0.016452 0.027796 
-0.29856 -0.14385 -0.084991 -0.061645 -0.056219 0.00017495 0.010697 -0.0022913 
-0.29067 -0.20732 -0.0868 -0.09091 -0.084663 -0.011827 0.0039565 0.0074092 
-0.16424 -0.059836 0.047197 -0.0080457 -0.0014692 0.01004 0.022206 0.034373 
0.0090533 0.2685 0.20355 0.059528 0.092082 0.027632 0.0046141 0.04095 
0.084026 0.32769 0.20619 0.11329 0.15423 -0.019719 -0.062796 -0.023007 
0.094548 0.24696 0.16508 0.1008 0.13023 0.11 -0.030242 -0.030735 
0.098823 0.17412 0.14798 0.14782 0.14289 0.27507 0.12579 0.056733 
0.14617 0.18333 0.16278 0.23446 0.15982 0.34462 0.25584 0.11905 
0.12529 -0.0029489 0.053609 0.13549 0.08304 0.19994 0.19303 0.093891 
0.044238 -0.26059 -0.085156 -0.0026201 -0.02087 0.02122 0.06594 0.020562 
-0.052273 -0.46035 -0.25779 -0.11837 -0.058192 -0.072003 -0.035832 -0.028104 
-0.13908 -0.55489 -0.31287 -0.14221 -0.063124 -0.16391 -0.12149 -0.05326 
-0.15947 -0.39409 -0.21751 -0.063453 0.0013258 -0.18808 -0.11508 -0.014458 
-0.075455 0.013657 -0.047834 0.0085601 0.0018191 -0.10028 -0.050136 0.018918 
0.052623 0.38819 0.10836 0.076463 -0.030899 -0.016431 0.031249 0.034373 
0.17117 0.49555 0.18317 0.049992 -0.040764 -0.061645 0.083533 0.059364 
0.19928 0.39066 0.15357 -0.0039354 -0.098144 -0.18117 0.023522 0.041607 
0.091096 0.21901 0.036182 -0.12231 -0.21702 -0.34674 -0.089759 -0.006566 
0.18119 0.24236 0.043251 -0.13563 -0.291 -0.44539 -0.10275 -0.01528 
0.32177 0.27228 0.13582 -0.056055 -0.17608 -0.27341 -0.058685 -0.0075525 
0.12316 0.10556 0.090767 -0.063453 -0.04619 -0.026789 -0.028433 -0.012156 
-0.1062 -0.18874 0.10178 -0.0031133 0.11576 0.17314 -0.01232 0.0072447 
-0.11311 -0.16621 0.13269 0.13187 0.38096 0.47188 0.11592 0.059528 
0.029441 0.12316 0.12727 0.21046 0.47056 0.77621 0.22592 0.069886 
0.17856 0.34528 0.09126 0.20569 0.45083 0.8599 0.25732 0.031249 
0.16623 0.34544 0.10178 0.1909 0.35925 0.75895 0.24351 0.065283 
0.062981 0.171 0.12644 0.24548 0.22509 0.52022 0.26932 0.12842 
-0.10834 -0.076277 0.098823 0.16623 0.071037 0.094877 0.20487 0.13368 
-0.30958 -0.33079 0.014643 0.036182 -0.11409 -0.31221 0.048184 0.10211 
-0.38653 -0.44276 -0.1039 -0.052109 -0.19877 -0.4587 -0.061809 0.06594 
-0.28179 -0.51756 -0.22491 -0.11738 -0.16835 -0.4518 -0.12938 -0.0044286 
-0.0057439 -0.54403 -0.28459 -0.1039 -0.14106 -0.42023 -0.15257 -0.085978 
0.35301 -0.36992 -0.2619 -0.13662 -0.17262 -0.33539 -0.13859 -0.10834 
0.47303 -0.083347 -0.19992 -0.10078 -0.10571 -0.23921 -0.064275 -0.11327 
0.1784 0.2149 -0.10637 -0.068386 -0.10965 -0.21734 -0.077428 -0.031886 
-0.13941 0.30878 0.0018191 -0.072003 -0.12856 -0.10932 -0.066741 0.010204 
-0.22557 0.31108 0.14683 0.0046141 -0.008539 0.13664 0.042594 0.10819 
-0.1205 0.39115 0.24926 0.077614 0.21013 0.4094 0.13434 0.13631 
0.014808 0.43078 0.28017 0.15505 0.40299 0.61952 0.18859 0.16229 
0.18103 0.38573 0.28346 0.13565 0.30615 0.47961 0.15242 0.097015 
0.20849 0.23627 0.28346 0.066763 0.062159 0.16097 0.088958 0.012835 
0.0786 0.07597 0.19813 0.037661 -0.12198 0.067585 0.09981 -0.022679 
-0.026296 0.037168 0.10392 0.020069 -0.075291 0.048019 0.10096 -0.012649 
-0.28706 -0.032708 -0.0067304 0.032729 -0.017088 -0.080388 -0.0049219 -0.019719 
-0.41924 -0.071674 -0.061973 0.039799 0.12825 -0.025145 -0.070852 -0.025638 
-0.067564 -0.0060728 -0.016431 0.12743 0.29234 0.19221 -0.0050863 0.021713 
0.31963 0.055254 0.036675 0.15045 0.29859 0.24301 0.090767 0.048348 
0.25567 0.046375 0.04358 0.11987 0.16015 0.1174 0.079916 0.090603 
0.35432 -0.0064016 0.037332 0.13138 0.025495 0.024015 0.06331 0.098988 
0.50443 -0.071509 -0.003771 0.012342 -0.091239 -0.089759 -0.041093 0.047033 
0.26537 -0.051615 -0.031557 -0.065755 -0.15454 -0.15109 -0.033694 0.0031344 
-0.071509 0.063639 0.012999 -0.050136 -0.10028 -0.1284 0.0088889 0.0098754 
-0.27884 0.11855 0.017603 -0.061316 -0.045203 -0.0868 0.028125 0.0034632 
-0.25138 0.14289 -0.0090322 -0.017088 -0.010676 0.016945 0.038483 -0.0049219 
-0.11656 0.16475 0.018425 -0.0087034 0.0079024 0.06479 0.042594 -0.010512 
-0.0040998 0.22953 0.10113 0.047362 0.026152 0.064132 0.07038 0.0088889 
0.15012 0.3022 0.16788 0.081067 0.030592 0.060515 0.024344 0.069393 
0.21441 0.30023 0.18761 0.053116 -0.019555 -0.010841 0.016452 0.1054 
-0.05326 0.0093821 0.064461 0.028125 -0.08828 -0.084827 -0.026131 0.071037 
-0.28245 -0.3691 -0.08384 -0.052931 -0.07825 -0.17591 -0.064933 -0.0055795 
-0.31238 -0.54403 -0.20288 -0.044546 -0.071838 -0.18068 -0.092719 -0.029255 
-0.083676 -0.42779 -0.24842 -0.054739 -0.019555 -0.12001 -0.047176 -0.012649 
0.31733 -0.062796 -0.13333 -0.0096899 0.055582 0.00050378 0.0098754 -0.0004827 
0.30155 0.12316 -0.030899 0.055254 0.11461 0.056733 -0.021363 -0.087129 
0.26011 0.20125 -0.023501 0.080902 0.19139 0.078272 -0.032543 -0.094034 
0.18826 0.1909 -0.062796 0.057062 0.11231 0.13779 0.043416 -0.010841 
0.10047 0.23644 0.0074092 -0.022679 0.0011614 0.20553 0.13943 0.062159 
0.065776 0.28741 0.11148 -0.052273 -0.0091966 0.20767 0.18958 0.13631 
0.081231 0.23282 0.18136 -0.087622 -0.061973 0.096521 0.1664 0.12365 
-0.061316 0.159 0.17478 -0.063453 -0.073647 -0.16046 -0.054082 0.043087 
-0.13021 0.16508 0.093069 -0.034023 -0.11064 -0.48369 -0.28475 -0.082196 
0.1756 0.19501 0.046868 0.016452 -0.076442 -0.51855 -0.33967 -0.064768 
0.439 0.15949 0.20635 0.22033 0.066434 -0.12725 -0.043066 0.10754 
0.23759 0.081395 0.26077 0.35301 0.14371 0.21013 0.19895 0.21769 
-0.12412 0.0046141 0.13269 0.21901 0.10211 0.28099 0.23627 0.17149 
-0.20156 -0.070852 -0.0083746 0.073339 0.057391 0.14897 0.13582 0.010697 
-0.096336 -0.057534 -0.021528 0.01563 0.074654 0.010369 0.032236 -0.11804 
-0.084498 -0.064604 -0.01117 0.049992 0.049664 -0.056712 0.023357 -0.17624 
-0.1649 -0.25056 -0.12478 -0.037805 -0.049478 -0.13284 -0.041586 -0.06444 
-0.19893 -0.20995 -0.21998 -0.12116 -0.12609 -0.17295 -0.056219 0.049499 
-0.2328 0.10178 -0.2282 -0.13415 -0.12708 -0.13991 -0.033037 0.10458 
-0.16687 0.2195 -0.21767 -0.1376 -0.098638 -0.087622 -0.0062372 0.087808 
0.013821 -0.10028 -0.24201 -0.066741 -0.05178 -0.015773 -0.0073881 0.053116 
0.44623 -0.14928 -0.12363 -0.001798 0.05624 0.0786 0.030427 0.021549 
0.20898 -0.0026201 0.032893 0.094877 0.1179 0.13351 0.050157 0.047855 
-0.47843 -0.12692 0.13828 0.098001 0.10129 0.057391 0.022371 0.065447 
-0.76879 -0.20205 0.20158 0.079751 0.057227 -0.022679 -0.0024557 0.055089 
-0.44522 -0.025967 0.20947 0.073668 -0.0052507 -0.10916 -0.018897 0.02122 
0.46481 0.17478 0.15456 0.032071 -0.014458 -0.13448 0.0062583 0.016781 
1.1402 0.27606 0.083204 0.0324 -0.010348 -0.11376 0.027303 0.061172 
1.1036 0.22361 0.1077 0.061501 0.0080668 -0.022185 0.071859 0.01711 
0.65964 0.050157 0.13269 0.09274 0.051965 0.10721 0.067913 -0.008539 
0.1664 -0.13497 0.1008 0.14124 0.097344 0.14946 0.087808 -0.019061 
-0.28147 -0.13612 0.047362 0.090767 0.10441 0.17034 0.091753 0.019083 
-0.5978 -0.11343 -0.070523 0.019083 0.093726 0.21868 0.08156 0.0082312 
-0.54847 -0.10176 -0.1353 -0.047012 0.0786 0.20257 0.073668 0.061995 
-0.25434 0.16097 -0.027282 -0.0098543 0.053938 0.17001 0.069558 0.057884 
0.032893 0.51972 0.24449 0.053281 0.041278 0.082546 0.03388 0.078929 
0.13894 0.59585 0.38079 0.064296 0.040292 -0.028433 0.0067515 0.084026 
0.080738 0.47237 0.34807 0.081889 -0.0087034 -0.021856 0.027796 0.075641 
0.036346 0.31273 0.20569 0.04095 0.0059294 0.024837 0.023851 0.07301 
0.031414 0.093562 0.026152 0.029934 0.028783 0.028454 0.016945 0.034209 
0.093562 -0.081539 -0.069701 0.055747 0.064625 0.038812 0.044238 0.060186 
0.15555 -0.088773 -0.065919 0.041114 0.088301 0.030427 0.060515 0.062488 
0.09422 -0.11557 -0.051451 0.04654 0.030098 -0.02498 0.0042853 0.040292 
-0.076277 -0.57626 -0.2037 -0.052437 -0.022514 -0.081868 -0.032708 -0.02235 
-0.1815 -1.1333 -0.4199 -0.11541 -0.057205 -0.059507 -0.026131 -0.033859 
-0.10456 -0.87385 -0.39573 -0.091732 -0.022185 0.010533 0.037004 0.0080668 
0.055582 -0.088444 -0.14221 -0.032872 -0.011334 0.055911 0.049664 0.013328 
0.16081 0.44508 0.14848 0.058871 0.051636 0.093233 0.042429 0.067585 
0.15127 0.56905 0.34725 0.079094 0.057555 0.11724 0.039305 0.052623 
0.11477 0.50838 0.36172 0.066763 0.046375 0.15308 0.079751 0.038977 
0.066434 0.26061 0.29382 0.061501 0.034537 0.14749 0.055089 0.004943 
0.01152 0.025659 0.1659 0.023028 0.021384 0.10343 0.03651 0.016452 
-0.032215 -0.00015387 0.075312 0.044567 0.017767 0.069064 0.048677 0.028454 
0.020562 0.10129 0.041443 0.011355 0.036839 0.088301 0.051801 0.036839 
0.081067 0.22131 0.043745 0.046375 0.041278 0.066598 0.051143 0.029112 
0.082217 0.27179 0.037826 0.029769 0.036017 0.024344 0.011684 0.028619 
0.08715 0.3415 -0.0024557 0.033551 0.034373 0.0059294 1.0539e-005 0.024837 
0.091918 0.3198 -0.088608 0.0047785 0.0018191 -0.018075 -0.0050863 0.017274 
0.097015 0.24778 -0.1478 -0.03501 -0.019884 -0.0090322 0.037004 0.055911 
0.088465 0.12727 -0.10834 -0.022679 0.014315 0.028783 0.029276 0.053445 
0.0018191 -0.089266 0.0024767 -0.00081153 0.043745 0.0060938 0.01415 0.043745 
-0.094199 -0.21767 0.10096 0.019576 0.048348 0.017438 0.024179 0.021384 
-0.12314 -0.1838 0.11411 0.038483 0.03651 0.013328 0.024673 0.041772 
-0.028269 0.009711 0.10277 0.058871 0.057062 0.038812 0.028947 0.034044 
0.027632 0.13088 0.094384 0.10228 0.063803 0.062652 0.030263 0.029276 
0.039799 0.061995 0.05213 0.072188 0.060679 0.096521 0.016616 0.016452 
0.14881 -0.0075525 0.011684 0.05213 0.041772 0.076134 0.026974 -0.016266 
0.13171 -0.050629 0.019905 0.033058 0.020891 0.058049 0.029605 0.004943 
0.0047785 -0.068386 0.0093821 0.0085601 0.036839 0.10228 0.030098 0.026317 
-0.10702 -0.065426 -0.018404 0.025495 0.053938 0.12677 0.041936 0.048841 
-0.1552 -0.097651 -0.045203 -0.041422 1.0539e-005 0.095206 0.056076 0.025659 
-0.10094 0.056076 -0.038462 -0.025474 -0.01528 0.061337 0.073339 0.046375 
-0.02235 0.23496 -0.043888 0.033222 0.02533 -0.022514 0.016452 0.0421 
0.020891 0.28034 -0.013471 0.0051074 0.014808 -0.075291 -0.0064016 0.037826 
0.03799 0.15505 -0.06148 0.066927 0.083368 -0.031228 -0.017088 -0.0073881 
0.065447 -0.0021268 -0.13464 0.031085 0.048677 -0.021856 0.0036276 0.034373 
0.075476 0.044731 -0.11787 0.038155 0.066269 -0.0067304 -0.020048 0.033387 
-0.00064712 0.15587 -0.038791 0.023686 0.055911 0.013164 0.00066819 0.027961 
-0.041422 0.20536 0.12973 0.053938 0.051472 0.029276 0.0070803 0.019083 
-0.023501 0.075805 0.19977 0.080409 0.059035 0.043745 0.03799 0.05476 
-0.026624 -0.088773 0.19024 0.029441 0.043909 0.019411 0.060022 0.033222 
-0.064768 -0.082525 0.18925 0.074326 0.033387 0.01826 0.017603 -0.02646 
-0.059672 0.051801 0.23792 0.092247 0.068571 0.041443 0.038319 -0.004593 
-0.089102 0.11132 0.16985 0.064296 0.060022 0.032729 0.027303 0.0028056 
0.0032988 0.097344 0.05065 0.031742 0.019247 -0.038462 -0.025309 -0.030242 
0.32325 0.11411 -0.046025 0.024673 0.027961 -0.035338 -0.014951 -0.025309 
0.46218 0.11543 -0.051944 0.064132 0.046211 -0.0039354 0.027632 0.026974 
0.23479 0.0064227 -0.089759 0.017274 -0.028269 -0.041586 0.0034632 0.044731 
-0.0047575 -0.0039354 -0.038956 -0.0031133 -0.07003 -0.13185 -0.0049219 0.042594 
-0.084498 0.041772 0.038319 -0.012156 -0.054575 -0.084991 0.014479 0.050486 
-0.094363 0.037826 0.077614 0.0031344 0.018754 0.029112 0.028454 0.044731 
-0.033365 0.06183 0.10458 0.066105 0.047033 0.050979 0.025824 0.047691 
0.015301 0.077778 0.047691 0.036839 0.076299 0.018918 -0.0049219 0.017438 
0.078436 0.073175 0.0021479 0.06479 0.10359 -0.010841 -0.029913 0.0060938 
0.11855 0.086657 0.0031344 0.093398 0.1105 0.024508 -0.021363 0.011191 
0.14585 0.086821 0.058706 0.12299 0.10178 0.18037 0.10178 0.095042 
0.13088 -0.0075525 0.063639 0.10885 0.057555 0.25123 0.15883 0.12414 
0.087314 -0.062467 0.037497 0.025001 0.020069 0.14256 0.11888 0.064625 
0.032071 0.04506 -0.031721 -0.021528 0.030427 0.032236 0.056733 0.023686 
-0.025145 0.073832 -0.07266 -0.098473 0.0018191 0.030427 0.023028 -0.0096899 
-0.077428 -0.098309 -0.065097 -0.086142 0.020069 0.075148 0.022535 -0.00064712 
-0.26371 -0.25368 -0.052109 -0.040764 0.0052718 0.05065 0.013821 0.013657 
-0.37666 -0.17377 0.046704 -0.017911 -0.018733 -0.03205 0.012999 0.032564 
-0.27818 -0.04323 0.090931 0.032893 -0.02794 -0.12314 -0.031886 -0.0026201 
0.099152 0.097015 0.17988 0.047033 -0.01676 -0.12363 -0.041586 -0.0057439 
0.58467 0.23545 0.20323 0.14206 0.13105 0.033551 0.019411 0.0080668 
0.46678 0.29678 0.13549 0.18432 0.18925 0.10819 0.049335 0.034373 
0.0070803 0.21621 0.019083 0.090767 0.072681 -0.026624 0.0013258 0.021878 
-0.048492 0.08715 -0.023172 0.024179 -0.085813 -0.13136 -0.035503 0.039799 
0.35251 0.034537 -0.00031829 -0.0026201 -0.10012 -0.099789 0.023028 0.039305 
0.47106 0.042429 0.052294 0.04095 -0.00015387 0.042594 0.10162 0.066105 
0.1978 0.066763 0.067913 0.060679 0.030592 0.073668 0.082217 0.073832 
-0.048656 0.098001 0.096357 0.043251 0.033387 0.047362 0.05772 0.027796 
-0.10768 0.15111 0.06479 0.033715 0.11888 0.071859 0.068736 0.057062 
-0.15585 -0.056055 0.013821 -0.025309 0.049828 0.068736 0.009711 0.047526 
-0.14171 -0.3012 -0.071181 -0.010512 0.018425 -0.015773 0.023851 0.050157 
-0.13366 -0.3058 -0.091239 -0.035174 -0.0060728 -0.038298 -0.018897 0.0052718 
-0.058028 -0.13037 -0.057041 -0.031228 -0.057041 0.022042 0.018918 -0.0070593 
0.060679 0.046375 0.013492 0.0085601 -0.043888 0.088465 0.052952 -0.0087034 
0.090109 0.17528 0.078107 0.051801 0.060515 0.19944 0.10195 0.013986 
0.062981 0.16738 0.040456 0.067913 0.14058 0.21852 0.057884 0.0092177 
-0.025474 0.048184 -0.009361 0.032564 0.15933 0.11411 -0.023501 -0.019555 
-0.011663 0.12217 0.041443 0.031578 0.089945 0.023357 -0.028104 0.0023123 
0.049664 0.18662 0.10441 0.035031 0.017767 0.053774 0.066269 0.051801 
0.11066 0.15966 0.13467 0.086821 0.024015 0.14552 0.15522 0.089287 
0.12464 0.098823 0.12776 0.12727 0.02829 0.12398 0.12595 0.082546 
0.11428 0.076627 0.06742 0.073339 0.045718 0.066434 0.061008 0.072188 
0.031907 -0.044381 -0.018568 0.031578 0.050321 -0.018568 -0.017911 0.044567 
-0.21702 -0.12659 -0.063124 -0.0078813 0.0042853 -0.11952 -0.031721 0.037004 
-0.33934 -0.10686 -0.045368 -0.047505 -0.095843 -0.21685 -0.054739 0.017274 
-0.19202 -0.02087 0.0042853 -0.015116 -0.065426 -0.1741 -0.03912 0.016616 
0.41795 0.14223 0.12661 0.053116 0.077285 0.0088889 0.049664 -0.031064 
0.78229 0.36287 0.22213 0.1128 0.15423 0.16294 0.14206 -0.023829 
0.4676 0.34216 0.14437 0.096193 0.1128 0.13845 0.12677 0.043745 
0.045389 0.069229 0.01152 0.0098754 0.021384 0.046704 0.064954 0.074326 
-0.17049 -0.14336 -0.094034 -0.0062372 0.0019835 -0.0029489 -0.018404 0.069558 
-0.20567 -0.060658 -0.11442 -0.025967 -0.023336 0.014808 -0.0090322 0.037168 
-0.16786 -0.0064016 -0.098967 -0.023829 -0.055561 -0.03353 -0.017746 0.0324 
-0.13464 -0.082854 -0.042573 -0.077593 -0.099131 -0.074469 -0.065262 -0.003771 
-0.068386 -0.12757 -0.0090322 -0.067892 -0.08828 -0.064604 -0.076113 -0.018404 
0.022371 -0.17164 -0.026296 -0.021528 -0.024652 0.0083956 -0.030735 0.0042853 
-0.0090322 -0.27933 -0.035996 -0.025802 0.048841 0.07301 0.059528 0.024015 
-0.062467 -0.084991 0.018425 0.037332 0.063803 0.078929 0.056404 0.0087245 
-0.027611 0.19484 0.10047 0.032236 0.054596 0.0064227 0.02533 0.0075736 
0.0016547 0.29596 0.11066 0.020069 0.018754 -0.071016 -0.0077169 0.023193 
-0.0054151 0.28067 0.12168 0.04358 0.028125 -0.029748 0.01563 0.074819 
-0.023501 0.23923 0.10967 0.089452 0.10113 0.082875 0.067913 0.12365 
-0.068879 0.12266 0.047526 0.10935 0.12381 0.16853 0.11494 0.12217 
-0.045368 0.089616 -0.03057 0.02533 0.043087 0.12875 0.097344 0.084026 
0.12118 0.070708 -0.012485 0.0065871 -0.0004827 0.013328 0.047197 0.019411 
0.16558 -0.086471 0.037661 0.0062583 -0.014951 -0.10735 -0.043395 -0.10193 
0.20964 -0.2185 -0.0080457 -0.035174 -0.051122 -0.13103 -0.074798 -0.1039 
0.2121 -0.10275 -0.047834 -0.023665 -0.047669 -0.16588 -0.081045 -0.055232 
0.079422 0.056569 0.037004 0.0095465 -0.044381 -0.13136 -0.065755 -0.0026201 
-0.073976 0.073175 0.15834 0.10014 -0.0055795 -0.02794 0.0059294 0.056076 
-0.087786 0.050979 0.1784 0.061666 0.01826 0.044238 0.05476 0.073175 
-0.059836 0.10376 0.10458 -0.031721 0.03388 0.10458 0.04506 0.066105 
-0.043066 0.10507 -0.038298 -0.04323 0.011355 0.1008 0.043251 0.046868 
-0.058356 0.14239 -0.093212 -0.06148 0.004943 0.062981 0.060844 0.026646 
-0.034845 0.13171 -0.10472 -0.017417 0.013986 -0.0052507 0.033551 0.048677 
-0.0075525 0.12447 -0.035174 -0.0034422 0.037004 -0.012978 -0.0022913 0.04358 
0.041936 0.07597 0.023028 0.02829 0.041278 -0.0080457 0.0075736 0.038648 
0.14075 0.10935 0.050979 0.074983 0.043909 0.0067515 0.047033 0.059693 
0.12743 0.18021 0.055911 0.095864 0.022864 0.035853 0.063803 0.025824 
0.023522 0.0092177 0.024015 0.074161 0.012835 -0.01117 0.024673 -0.017417 
-0.058685 -0.11442 0.0041209 0.0037921 0.004943 -0.010676 0.014315 -0.00097594 
-0.13152 -0.014622 0.0064227 0.0079024 0.060186 0.038977 -0.0073881 0.01415 
-0.18446 0.098823 -0.027282 -0.0078813 0.057227 0.02681 0.0037921 0.020891 
-0.22968 0.067256 -0.086964 -0.056548 0.037168 0.049992 -0.014787 0.054596 
