0.0028056 0.047033 0.031578 0.030427 0.029769 0.017438 0.01974 0.021878 
-0.020212 0.024837 0.03388 0.016781 0.045553 0.014479 0.015137 0.024344 
-0.047505 0.009711 0.015137 0.047691 0.064625 0.026646 -0.0055795 0.032071 
-0.02498 0.037004 0.0092177 0.024344 0.043416 0.021713 -0.00031829 0.027468 
0.056898 0.05772 -0.0062372 0.03651 0.037661 0.036675 0.022864 0.026152 
0.11115 0.082053 0.028783 0.061008 0.033222 0.053609 0.054432 0.056733 
0.11378 0.095206 0.040621 0.046868 0.03799 0.051636 0.047033 0.041936 
0.08978 0.10293 0.042429 0.049499 0.040128 0.048184 0.046868 0.048677 
0.066598 0.047855 0.012177 0.019247 0.014315 0.042265 0.031578 0.04358 
0.051636 0.038319 0.018589 0.0052718 0.0092177 0.024837 0.051801 0.044073 
0.040292 0.056569 0.028125 0.012177 0.023357 0.018589 0.027468 0.029605 
0.028619 0.031907 0.052459 0.00099702 0.0098754 0.020891 0.010204 0.02681 
0.02533 0.016945 0.047197 0.03536 0.030427 0.0087245 0.0019835 0.020727 
0.023851 0.059693 0.046375 -0.011005 0.025824 0.005765 -0.0004827 0.0085601 
1.0539e-005 0.047033 0.025988 0.0023123 0.015301 0.037168 0.039141 0.026317 
0.018918 0.039799 -0.0087034 0.0062583 0.061501 0.031907 0.022371 0.020891 
0.01415 0.033058 0.030756 0.013164 0.018918 0.022535 0.025166 0.04358 
0.063803 0.063968 0.033715 0.051143 0.032729 0.043251 0.029276 0.056076 
0.035524 0.037332 0.037168 0.020562 0.0054362 0.019083 0.041772 0.067585 
0.023686 0.019411 0.027468 0.01152 0.029276 0.0085601 0.019905 0.023686 
0.026974 0.040128 0.023028 0.00017495 0.046868 0.027632 0.016781 0.029276 
0.023028 0.042594 0.030098 0.016452 0.040292 0.014643 0.021384 0.023522 
0.01711 0.034044 0.04095 0.043909 0.0082312 0.011191 0.021384 0.0095465 
0.011191 0.04917 0.048677 0.00066819 0.012177 0.020562 0.028125 0.0098754 
0.026152 0.080902 0.061008 0.024344 0.0021479 0.0054362 0.0037921 -0.0072237 
0.023028 0.045882 0.046211 0.015794 0.030427 0.0052718 0.015137 0.01563 
0.018425 0.033715 0.053116 0.024344 0.043745 0.01974 0.020891 0.0054362 
0.0052718 0.042594 0.045882 0.050979 0.019905 0.031578 0.050321 0.035524 
-0.0013048 0.040128 0.030756 0.048348 0.031742 0.024673 0.052623 0.027961 
-0.011992 -0.0014692 0.025001 0.054103 0.033551 0.029112 0.03799 0.020398 
-0.028597 0.016123 0.0062583 0.016288 0.031249 0.018754 0.0046141 -0.02498 
-0.014129 0.033058 0.012506 0.0092177 0.038319 -0.0087034 0.014315 -0.0054151 
0.035195 0.053774 0.02122 0.01415 0.017767 -0.00064712 0.023851 0.027632 
0.06183 0.037661 0.05624 0.0056006 0.01711 0.0064227 0.034373 0.033058 
0.029934 0.063639 0.050157 0.044238 0.030756 -0.001798 0.011191 0.045224 
0.033551 0.041936 0.051801 0.037168 0.052623 0.022535 0.030098 0.042923 
0.02681 0.027961 0.041278 0.012342 0.038483 0.028125 0.051801 0.050157 
0.047855 0.064132 0.026974 0.017603 0.049006 0.010862 0.027139 0.033222 
0.072188 0.056076 0.020562 0.02533 0.040456 0.013164 0.031578 0.040456 
0.058049 0.058049 0.032564 0.060515 0.057555 0.017767 0.029934 0.02829 
0.045718 0.068736 0.029276 0.036346 0.021384 0.0028056 0.032564 0.027632 
-0.0098543 0.054103 0.014808 0.013986 0.019411 -0.0049219 0.0324 0.018096 
-0.0022913 0.024508 0.0069159 0.013164 0.0047785 0.011848 0.019411 0.023686 
0.012177 0.037004 0.023851 0.02122 0.014972 0.014643 0.02533 0.022042 
0.063474 0.06479 0.054267 0.050814 0.028619 0.041772 0.024015 0.017767 
0.086821 0.069064 0.053938 0.027632 0.03536 0.044731 0.049499 0.027303 
0.071859 0.070708 0.062488 0.038977 0.031249 0.0079024 0.029934 0.038155 
0.05624 0.073339 0.049828 0.023357 0.055582 0.004943 0.019083 0.044731 
0.034537 0.062323 0.036839 0.019247 0.044896 0.010697 0.01563 0.031907 
0.0031344 0.014643 0.0098754 0.040292 0.019576 0.012342 0.047855 0.044567 
-0.017253 0.0037921 0.01004 0.012999 0.01415 0.011848 0.038648 0.018096 
-0.028926 0.027632 0.029276 0.06331 0.038319 0.06035 0.033551 0.031742 
-0.018897 -0.014129 0.0088889 0.037661 0.032729 0.054267 0.037168 0.028783 
0.0324 0.037168 0.0042853 0.023686 0.016945 0.0054362 0.029112 0.034044 
0.038319 0.056404 -0.0019624 0.03092 0.019905 0.0034632 0.0062583 0.01711 
0.052294 0.038483 -0.001798 -0.0014692 0.027303 -0.0057439 -0.025309 0.014479 
0.048677 0.037168 0.033222 0.071366 0.040456 0.024344 0.026646 0.013164 
0.032071 0.10228 0.053281 0.038648 0.022206 0.05772 0.041278 -0.0047575 
0.037004 0.062981 0.069229 0.051636 0.034866 0.037661 0.055254 -0.0019624 
0.014479 0.026974 0.019411 0.073175 0.010533 0.051308 0.023357 -0.021199 
0.021878 0.026481 0.047197 0.041936 0.016616 0.037497 0.015959 0.014808 
0.004943 0.059693 0.060515 0.051472 0.033222 0.00017495 0.0082312 0.036675 
0.00083261 0.0592 0.05476 0.0019835 0.024179 0.0018191 0.022042 0.074161 
0.030592 0.070708 0.029441 0.0070803 0.027139 0.047691 0.023193 0.070544 
0.068571 0.086657 0.048841 0.057391 0.047526 0.0421 0.049664 0.083533 
0.079094 0.069393 0.041114 0.037826 0.039634 0.055418 0.064296 0.065776 
0.046375 0.0041209 -0.036818 0.044238 0.026974 0.063803 0.047526 0.051472 
-0.0075525 0.013657 -0.053917 -0.0047575 0.016288 0.0421 0.052294 0.028619 
0.01711 0.027961 -0.042079 -0.0019624 0.029441 -0.012156 0.026974 0.013657 
0.013657 0.023193 0.007738 0.0098754 0.021384 0.042758 0.017438 0.014479 
-0.083183 0.0088889 0.0067515 0.016945 0.025988 0.015959 -0.0078813 0.0056006 
-0.24842 0.024179 0.023357 0.025988 0.015137 0.012177 0.011848 0.012013 
-0.2231 0.0051074 0.043745 0.0013258 0.029605 0.032236 0.0085601 0.020398 
-0.036983 0.024179 0.06594 0.061008 0.043251 0.024179 0.014972 0.032729 
0.41105 0.094384 0.11148 0.088136 0.072681 0.033387 0.016781 0.017274 
0.64961 0.11033 0.097508 0.062159 0.046046 0.053445 0.041114 0.033387 
0.35383 0.090603 0.10606 0.074161 0.035853 0.045553 0.036675 0.0098754 
0.036346 0.072188 0.13039 0.036675 0.021713 0.018096 0.018754 0.017932 
-0.10045 0.091096 0.11 0.056404 0.026646 0.042923 0.017932 0.022206 
-0.10867 0.061666 0.070215 0.016452 0.019411 0.036839 0.016123 0.02681 
-0.087622 0.027961 0.04506 0.021549 0.018096 0.027796 0.031907 0.030592 
-0.065591 0.023357 0.044896 0.060186 0.027632 0.042265 0.034209 0.030098 
-0.042573 0.0070803 -0.0026201 0.022371 0.027796 0.037661 0.025659 0.031742 
-0.020541 0.013986 -0.034188 0.044731 0.024179 0.028619 0.0042853 0.019411 
0.00033937 0.025659 -0.040435 0.0021479 0.012835 0.048184 0.054925 0.043909 
0.0085601 0.037332 -0.023665 0.00033937 0.0023123 0.031742 0.019576 0.039799 
0.025659 0.018754 -0.036654 -0.0039354 -0.0004827 0.014808 0.0088889 0.023686 
0.029769 0.0036276 -0.043724 -0.016431 0.0036276 0.0067515 -0.028433 0.010697 
0.033387 0.038977 -0.018568 0.013986 0.016616 0.01563 0.0019835 0.016616 
0.051965 0.0082312 -0.019884 0.030263 0.024179 0.01563 0.025001 0.028454 
0.052459 0.029441 0.02122 0.034209 0.041936 0.032893 0.030263 0.042594 
0.050157 0.063803 0.073668 0.04358 0.053774 0.05624 0.037332 0.047197 
0.06035 0.065283 0.10688 0.022864 0.034044 0.05624 0.045718 0.045224 
0.053609 0.043416 0.098001 0.041607 0.015465 0.044238 0.053609 0.060022 
0.031907 0.042758 0.045718 -0.0039354 0.014479 0.053938 0.050486 0.026317 
0.026317 0.045718 0.019083 0.0018191 0.0092177 0.0041209 0.015137 0.045718 
0.0324 0.027303 0.028783 0.019576 0.0051074 0.031907 0.0047785 0.024673 
0.0041209 0.027632 0.031742 0.025001 0.022042 -0.037311 -0.021528 0.021713 
-0.00097594 0.051308 0.0080668 0.038648 0.00297 -0.018897 -0.01939 0.014808 
0.031414 0.054596 0.014315 0.0047785 0.018918 0.0042853 0.024837 0.028125 
0.088301 0.043251 0.027796 0.015301 0.037332 0.061008 0.047033 -0.0052507 
0.12201 0.06183 0.027303 0.032071 0.056404 0.072846 0.051308 0.038812 
0.10573 0.098823 0.073504 0.077449 0.059528 0.086163 0.077285 0.070215 
0.075641 0.08419 0.067256 0.074326 0.047526 0.055254 0.04358 0.067585 
0.063639 0.05065 0.039799 0.010533 0.022206 0.01415 0.032071 0.064954 
0.034209 0.073339 0.011684 -0.001798 0.0087245 -0.011334 0.04095 0.044238 
0.019576 0.018589 0.0056006 -0.0075525 0.01415 0.012999 0.045718 0.047526 
0.01974 -0.014787 0.016123 0.005765 0.027961 0.01826 0.032893 0.032729 
0.017767 0.023686 0.00066819 0.035688 0.028947 0.011026 0.01152 0.035524 
0.023193 0.025988 0.010697 0.0069159 0.046868 0.013657 -0.011827 0.004943 
0.053609 0.047691 0.00099702 0.02533 0.050321 0.019905 0.017438 0.037332 
0.035524 0.097672 0.010533 0.017603 0.027961 0.022371 0.050979 0.041772 
-0.0044286 0.072846 0.017932 0.0059294 0.016781 0.02681 0.031578 0.034537 
-0.045861 0.024508 0.022864 0.0064227 0.00066819 0.00066819 0.02829 0.022535 
-0.047998 0.0032988 0.031249 0.014479 0.022042 0.0059294 0.023357 0.013492 
-0.049149 0.049828 0.058871 0.051636 0.042265 0.035031 0.047033 0.03799 
-0.012649 0.042758 0.064132 0.02533 0.033222 0.01826 0.057062 0.051143 
0.031085 0.053281 0.046046 0.040292 0.042594 0.020562 0.038648 0.049335 
0.062488 0.069558 0.01563 0.040128 0.068736 -0.00031829 0.060186 0.016945 
0.099152 0.071859 0.034373 0.018096 0.029441 0.0090533 0.041443 0.033222 
0.0786 0.056076 0.078765 0.042758 0.018754 0.0041209 0.035195 0.03799 
0.026481 0.043416 0.075148 0.011848 0.010533 0.027961 0.027961 0.049499 
-0.039613 0.059528 0.066269 0.021384 0.014972 0.018754 -0.015116 0.053281 
-0.074962 0.041278 0.056733 0.040128 0.022206 0.0056006 0.0028056 0.050814 
-0.046025 0.053774 0.04358 0.044238 0.026974 0.015794 0.038812 0.011684 
0.047526 0.048019 0.04358 0.062981 0.045389 0.0026412 0.025001 0.01826 
0.18284 0.06183 0.06331 0.076134 0.053774 0.019083 0.038648 0.027632 
0.18646 0.063968 0.044567 0.0592 0.064132 0.062817 0.040128 0.016616 
0.072517 0.077778 0.043251 0.061172 0.038812 0.058871 0.068571 0.026646 
0.019083 0.055582 0.0037921 0.029605 0.020562 0.02829 0.033551 0.010697 
0.014479 0.037497 -0.00081153 0.049006 0.0095465 0.02681 0.017274 0.039305 
0.00099702 0.023357 0.0018191 0.037826 0.020562 0.022042 0.011684 0.034373 
-0.013471 0.032236 -0.024652 0.024344 0.014808 0.0024767 0.00099702 0.025824 
0.0070803 -0.0087034 -0.0096899 0.030098 0.015137 -0.018568 0.027796 0.022371 
-0.015609 0.0082312 0.01267 0.026152 0.039634 0.013164 0.017932 0.016452 
0.027796 0.038648 0.0064227 0.0592 0.044238 0.0021479 0.01152 0.036675 
0.016123 0.04358 0.044073 0.019083 0.037497 0.034866 0.015959 0.027468 
0.016781 0.038319 0.048841 0.025824 0.040292 0.030592 0.041278 0.037661 
0.0067515 0.029112 0.072681 -0.0073881 0.013986 0.018754 0.011684 0.00017495 
0.017932 0.085999 0.069229 -0.029913 0.010533 0.029112 -0.0091966 0.0069159 
0.034373 0.039141 0.083533 0.043416 0.012999 0.026317 0.0074092 0.017932 
0.053774 0.053938 0.05772 0.044073 0.019905 0.0085601 0.012506 0.037661 
0.027961 0.054596 0.019905 0.046046 0.01563 -0.0004827 -0.0075525 0.03092 
0.014643 0.037332 0.0021479 0.011848 0.014479 0.0016547 -0.027447 0.019083 
0.034702 0.034373 0.027139 0.060022 0.015301 0.00066819 -0.021363 0.0093821 
0.035524 0.035031 0.043416 0.090767 0.045553 0.010862 -0.02235 0.016288 
0.029934 0.052459 0.069558 0.077449 0.043416 0.017603 -0.0055795 0.009711 
0.027796 0.033387 0.054267 0.10277 0.044731 0.030263 0.0018191 0.019247 
0.02533 0.027961 0.023357 0.052952 0.02122 0.062981 0.033387 0.038812 
0.0054362 0.060515 0.030756 0.022864 0.011848 0.069064 0.018589 0.043087 
-0.022679 0.029112 0.0062583 0.026152 0.023193 0.066927 0.0026412 0.025495 
-0.038627 0.0095465 0.00017495 -0.003771 0.005765 0.011355 -0.012978 -0.0022913 
-0.016102 0.0070803 -0.0027845 0.047197 0.032729 0.019576 -0.022679 0.021549 
0.004943 0.03388 -0.00097594 0.005765 0.033222 0.0082312 -0.029091 0.015794 
0.037826 0.020562 0.011191 0.021384 0.03799 0.014479 -0.020212 0.029605 
0.055089 0.0075736 0.018918 0.020727 -0.0068948 0.031414 0.020069 -0.036325 
0.094713 0.038483 0.018918 0.0018191 0.0054362 0.0028056 -0.012156 0.0044497 
0.10178 0.057062 -0.0050863 0.034537 0.0026412 -0.0068948 -0.024652 0.014972 
0.093562 0.056569 0.013986 0.024179 0.0090533 0.024179 -0.019226 0.025659 
0.03651 0.0786 0.03092 0.032071 0.013492 0.022864 -0.0021268 0.01415 
-0.0036066 0.065612 0.038977 0.025824 0.017932 0.029769 0.01826 0.012177 
-0.0044286 0.041114 0.047362 0.010862 0.025824 0.039634 0.019905 -0.00015387 
-0.0022913 0.032729 0.050321 0.042923 0.041772 0.023686 0.0046141 0.024508 
0.0082312 0.040621 0.016945 0.011191 0.052952 0.018754 0.016945 0.040456 
0.038812 0.052294 0.035195 0.031742 0.031578 0.021713 0.011848 0.039305 
0.077121 0.066598 0.041772 0.020069 0.025166 0.02122 0.015465 0.049664 
0.07301 0.082875 0.05065 0.040621 0.0083956 0.020233 0.0016547 0.026481 
0.062159 0.049335 0.055254 0.067091 0.015137 0.031907 0.018425 0.02681 
0.028783 0.033387 0.027796 0.029112 0.010533 0.017932 0.060022 0.01974 
0.01152 0.023028 0.021056 0.023193 0.030756 0.026974 0.024508 0.050157 
-0.05589 0.015465 1.0539e-005 -0.016924 0.04095 0.036346 0.013657 0.050814 
-0.21586 -0.0034422 0.020891 -0.0050863 0.013986 0.0087245 0.0088889 0.031085 
-0.35282 -0.029584 0.014479 -0.030242 -0.0072237 0.017438 0.015137 0.037168 
-0.31353 0.011191 0.022206 -0.023007 -0.010512 0.0041209 -0.0013048 0.0023123 
0.035031 0.0018191 0.062652 0.0016547 0.012999 0.0011614 -0.0021268 -0.015116 
0.63564 0.096028 0.047526 0.011684 0.0075736 -0.010512 0.026481 -0.0095255 
0.78295 0.12825 0.051801 0.031578 0.0069159 0.066598 0.059528 0.073175 
0.36715 0.08978 0.051143 0.037826 0.039305 0.08156 0.11198 0.045882 
-0.028762 0.05476 0.036017 0.051801 0.029441 0.058542 0.058377 0.053609 
-0.16703 0.071531 0.062488 0.089287 0.063968 0.036839 0.021878 0.041443 
-0.14615 0.074983 0.082711 0.086985 0.06594 0.0034632 0.016945 0.030263 
-0.1039 0.054925 0.07038 0.06035 0.066434 -0.029913 0.036182 0.028619 
-0.050136 0.048841 0.056404 0.050979 0.028454 0.031578 0.066269 0.049499 
-0.023336 0.064296 0.048677 0.0013258 0.022206 0.056076 0.080902 0.050814 
0.025824 0.049499 0.032893 0.021878 0.02533 0.067913 0.092082 0.046046 
0.077943 0.06183 0.052459 0.029605 0.034044 0.082546 0.1225 0.055582 
0.096357 0.076299 0.024673 0.043416 0.030427 0.041278 0.10885 0.043416 
0.077121 0.073504 -0.0014692 0.018096 0.029605 -0.0036066 0.045553 0.04506 
0.060679 0.030098 -0.011498 -0.02235 0.03092 -0.025309 0.023193 0.016781 
0.036017 0.0227 -0.006566 0.012177 0.0098754 -0.044874 0.048019 0.018096 
0.016288 0.02533 -0.0054151 -0.00031829 0.026646 -0.012978 0.077285 0.023686 
0.016616 0.00050378 0.018589 0.025988 0.0227 0.021384 0.067585 0.044402 
-0.0013048 -0.004593 0.038155 0.046375 0.040456 0.025001 0.054596 0.025495 
-0.015444 0.017438 0.042429 0.056076 0.039634 0.033551 0.083533 0.043416 
-0.02646 0.0034632 0.028619 0.046046 0.010697 0.037168 0.083368 0.030427 
0.022535 0.007738 0.023028 -0.0040998 0.01974 0.038812 0.077614 0.0028056 
0.12003 0.023686 0.022042 -0.013636 0.01415 0.016945 0.034044 0.00083261 
0.10326 0.10277 0.036839 0.0098754 0.04506 0.0011614 0.025988 -0.025309 
0.012342 0.13368 0.05772 0.0592 0.091096 0.021713 0.034044 0.0074092 
0.056569 0.13532 0.085999 0.09981 0.095864 0.036839 0.077285 0.030098 
0.099316 0.099481 0.074161 0.085341 0.062323 0.054596 0.084848 0.083204 
0.091918 0.038977 0.03947 0.089452 0.024837 0.053116 0.081724 0.054596 
0.061008 0.0031344 0.01826 0.0592 0.01415 0.038812 0.077449 0.059528 
0.013657 0.037332 0.041607 0.050979 0.033387 0.055582 0.09981 0.048841 
0.013328 0.046046 0.028125 0.046704 0.056076 0.050814 0.08419 0.051636 
0.0023123 0.014972 -0.0049219 -0.018733 0.024508 0.013986 0.033222 0.019083 
-0.010841 0.0036276 -0.010019 -0.012156 0.01711 -0.013307 0.01974 0.0059294 
0.0083956 0.039799 0.004943 -0.024487 0.023686 0.010204 0.010862 0.016781 
0.005765 0.041278 0.052623 0.021056 0.034373 -0.0034422 0.027632 0.017932 
-0.030406 0.05065 0.10113 0.082382 0.040785 0.019247 0.027796 0.037168 
-0.061316 0.067585 0.067585 0.079258 0.026974 0.073504 0.063968 0.038648 
-0.066741 0.016288 0.051472 0.094548 0.02681 0.067585 0.08419 0.064461 
-0.069372 0.0024767 0.036182 0.02829 0.015794 0.041443 0.080409 0.049828 
-0.0055795 -0.014622 0.027632 0.035688 0.026317 -0.01939 0.03799 0.033551 
0.091918 -0.00097594 -0.020541 -0.0059084 0.0092177 -0.043724 -0.013965 -0.003771 
0.091753 -0.039778 -0.018239 -0.042408 0.013986 -0.031392 -0.010841 0.019411 
0.016288 0.041936 0.0088889 0.024837 0.018754 0.024179 0.0227 0.0324 
-0.08384 0.10326 0.053774 0.017603 0.047033 0.058706 0.054925 0.026317 
-0.060987 0.1105 0.06479 0.058049 0.0093821 0.08863 0.03388 -0.022843 
0.034373 0.10162 0.066763 0.022864 0.023851 0.0592 0.023522 -0.041422 
0.1276 0.081067 0.041607 -0.014622 -0.011005 0.0059294 0.012342 0.024508 
0.23331 0.020398 -0.034352 0.010862 -0.017582 -0.0073881 0.045882 0.037826 
0.15292 -0.0014692 -0.025802 -0.0075525 -0.012978 0.009711 0.049335 0.076956 
-0.01232 -0.014951 -0.0090322 -0.0016336 -0.0032777 -0.0039354 -0.0022913 0.043251 
-0.091732 0.010533 -0.0078813 -0.020706 -0.015116 -0.00031829 -0.016102 0.039634 
-0.10817 0.011684 -0.0087034 -0.034845 -0.0032777 0.040785 0.0034632 -0.0029489 
-0.081703 0.053938 0.017767 0.01711 0.024179 0.022042 -0.026296 -0.003771 
-0.033859 0.056733 0.033551 0.026481 0.046704 -0.011005 -0.070359 -0.029255 
0.0036276 0.057884 0.052623 0.073668 0.073832 0.012835 -0.068386 -0.0026201 
0.029934 0.080573 0.093562 0.081231 0.057391 0.047691 -0.019719 0.038483 
0.058542 0.11395 0.12727 0.090603 0.042265 0.069886 0.048348 0.072024 
0.083862 0.11872 0.10819 0.12431 0.035524 0.069064 0.041772 0.071531 
0.054103 0.07038 0.066763 0.044073 0.033222 -0.017746 -0.018075 0.026646 
0.045553 0.030592 -0.025638 0.009711 0.017603 -0.035996 -0.064768 0.013328 
0.065776 0.041772 0.0069159 0.011191 0.007738 0.054267 0.021713 0.025824 
0.015959 0.049664 0.055254 0.092904 0.028783 0.1105 0.062817 0.078107 
-0.13415 0.029605 0.08008 0.11247 0.038483 0.10852 0.053445 0.068571 
-0.19531 0.017438 0.033551 0.066105 0.044896 0.059857 0.024344 0.049664 
-0.078744 0.013986 -0.023336 0.015137 0.01974 -0.0055795 -0.030899 0.010533 
0.31733 0.028947 -0.035174 -0.05326 0.0051074 -0.02794 -0.020706 0.0047785 
0.60522 0.038483 -0.008539 -0.047341 0.00083261 0.00033937 -0.010841 0.013821 
0.38145 0.02829 0.0034632 -0.033694 0.0042853 0.021384 -0.00097594 0.030592 
0.02122 -0.045532 -0.0098543 -0.039778 0.017767 0.023522 0.015794 0.045718 
-0.13481 -0.064275 -0.024158 -0.0070593 0.027961 0.037661 0.012999 0.012999 
-0.14599 0.024179 -0.011005 -0.017746 0.050979 -0.0031133 -0.033694 0.0227 
-0.24858 0.097179 -0.014787 -0.0049219 0.011026 -0.069043 -0.10061 -0.0070593 
-0.28903 0.11461 0.013821 -0.015773 -0.027775 -0.087293 -0.11557 -0.022514 
-0.16227 0.067749 0.045553 0.029605 -0.01232 -0.052437 -0.057534 -0.01232 
0.14075 0.088136 0.11921 0.19303 0.07597 0.07597 0.027303 0.038812 
0.60752 0.17906 0.17593 0.21753 0.13647 0.20865 0.1248 0.074983 
0.53518 0.18251 0.13154 0.13417 0.10491 0.17906 0.1202 0.10408 
0.13762 0.083697 0.040456 0.012835 0.0421 0.05772 0.053281 0.075476 
-0.11656 -0.0098543 0.02681 -0.072167 0.025166 -0.0060728 0.014972 0.047033 
-0.1524 -0.058685 -0.039284 -0.061151 -0.038298 -0.043559 -0.037311 0.054267 
-0.10489 -0.013143 -0.018075 -0.036654 -0.011992 -0.046519 -0.042573 0.028947 
-0.043395 0.0019835 0.016123 0.033715 0.01974 -0.055726 -0.040106 0.044238 
-0.023336 -0.0064016 0.019905 0.030592 0.048348 -0.019884 -0.025638 0.02122 
-0.048163 -0.0082102 0.012013 0.0085601 0.029276 -0.0095255 0.0026412 0.039305 
-0.064604 0.024015 0.066598 0.082217 0.03947 0.059857 0.033222 0.042265 
-0.044546 0.057391 0.044073 0.044402 0.044402 0.061501 0.05476 0.045718 
0.057227 0.037661 0.0324 0.062323 0.065283 0.040128 0.038812 0.041772 
0.20076 0.084684 0.016288 0.025659 0.069558 0.030098 0.029276 0.042429 
0.19681 0.13351 0.052787 0.024344 0.05213 0.040128 0.03947 0.0023123 
0.092576 0.14667 0.060022 0.037497 0.031578 0.029276 0.038977 -0.0027845 
0.037004 0.13088 0.056569 -0.0024557 0.0016547 0.013657 0.022864 0.027961 
-0.021199 0.066927 0.086492 0.024015 -0.0082102 0.0062583 0.02829 -0.013143 
-0.10472 0.0047785 0.091096 -0.0031133 0.00099702 0.0095465 0.010533 -0.020541 
-0.063946 -0.00064712 0.037497 -0.0064016 0.023357 0.015137 -0.0022913 0.007738 
0.022042 0.048019 -0.00015387 0.020562 0.029934 0.01267 -0.021199 0.034373 
0.075148 0.024673 -0.016102 0.011355 0.04506 -0.010019 -0.0036066 0.036839 
0.14634 0.037661 -0.0091966 0.030756 0.020727 -0.0080457 0.030592 0.071859 
0.16459 0.027303 -0.0013048 0.039799 0.01152 0.010204 0.03536 0.064461 
-0.049478 -0.010019 0.030756 0.077614 0.019247 0.029276 0.030263 0.089287 
-0.25204 -0.077428 0.0016547 0.077778 0.027632 0.041772 0.03388 0.067091 
-0.23855 -0.05326 -0.017417 0.034209 0.038483 0.036675 0.037826 0.02122 
0.0085601 0.023193 -0.0044286 0.028947 0.028125 0.01563 0.031414 -0.018075 
0.47451 0.12069 0.041114 0.024015 0.04095 0.0093821 0.060186 -0.029913 
0.3997 0.11872 0.041278 0.034866 0.045718 0.023357 0.042429 0.0014903 
0.03799 0.049499 -0.0070593 -0.0080457 0.036182 0.00017495 0.04917 -0.003771 
-0.15503 -0.0068948 -0.058521 -0.075455 -0.028104 -0.031064 0.0083956 0.021056 
-0.12462 0.029934 -0.046683 -0.056055 -0.037805 0.0042853 0.024344 0.016616 
-0.062467 0.051636 0.034537 -0.03616 -0.012485 0.047526 0.049828 0.052459 
-0.010183 0.064625 0.08419 0.062652 0.0227 0.054925 0.073668 0.057391 
0.014808 0.043909 0.091589 0.078929 0.072353 0.059693 0.053281 0.037826 
0.0042853 0.052787 0.060022 0.064296 0.070215 -0.013143 -0.001798 0.012177 
0.014315 0.078436 0.043416 0.063474 0.071531 -0.031557 0.0088889 0.0082312 
0.015137 0.038155 0.06479 0.045224 0.042758 0.066105 0.06479 0.034209 
0.0062583 0.017274 0.060186 0.082546 0.030263 0.079422 0.11 0.022206 
-0.02646 0.0227 0.044731 0.0090533 0.0026412 0.041772 0.071037 0.020727 
-0.08121 0.025166 0.032236 -0.00031829 0.00050378 0.011848 0.03651 0.012999 
-0.14188 0.012999 -0.0082102 -0.0098543 -0.021856 -0.05441 -0.0014692 0.017274 
-0.096665 0.044567 -0.0078813 -0.018733 -0.012814 -0.094856 -0.013307 -0.0062372 
0.017767 0.097344 0.062488 0.11855 0.036675 0.016781 0.0786 0.070873 
0.21457 0.13072 0.12349 0.12825 0.066105 0.11214 0.12316 0.066598 
0.38934 0.11642 0.11822 0.098823 0.057062 0.14174 0.11017 0.056733 
0.2976 0.11707 0.083533 0.059693 0.064461 0.094055 0.076627 0.029934 
0.099316 0.069722 0.054432 0.050157 0.074654 0.057227 0.076956 0.026152 
-0.038627 0.041114 0.026481 0.065776 0.046704 0.011684 0.028783 0.0088889 
-0.066084 0.0052718 -0.010512 -0.015609 0.026974 0.028947 0.028619 0.029769 
-0.05885 -0.017088 -0.05178 -0.077757 -0.058356 0.0013258 0.062981 0.053938 
-0.056219 -0.060987 -0.094363 -0.12692 -0.10045 0.0016547 0.086821 0.048019 
-0.065919 -0.095514 -0.099953 -0.1039 -0.07266 0.026152 0.089945 0.038319 
-0.1284 -0.08532 -0.11903 -0.0406 -0.013307 -0.04323 -0.023665 -0.015938 
-0.20962 -0.069701 -0.11376 -0.065097 0.016123 -0.16654 -0.12494 -0.066577 
-0.12231 -0.017253 -0.038956 0.026152 0.079094 -0.16144 -0.16013 -0.069043 
0.082546 0.066269 0.13878 0.20257 0.14108 -0.016266 -0.021528 -0.0004827 
0.23562 0.17626 0.31305 0.36419 0.18876 0.20388 0.12266 0.093398 
0.24219 0.23874 0.32489 0.3586 0.1613 0.366 0.22904 0.1368 
-0.090088 0.13286 0.20619 0.19517 0.081889 0.24334 0.21375 0.14091 
-0.42385 0.0060938 0.055747 -0.0042642 0.014972 0.069064 0.11231 0.097508 
-0.32027 -0.053753 -0.052602 -0.15503 -0.040928 -0.029584 0.0079024 0.034702 
0.30746 0.052952 -0.028104 -0.15405 -0.054082 -0.075291 -0.017088 -0.015773 
1.0432 0.24252 0.036346 -0.073318 -0.0060728 -0.040764 0.0083956 -0.03912 
0.9426 0.28264 0.1008 -0.011827 0.044073 0.01152 0.040785 -0.060329 
0.2565 0.19073 0.06479 0.034866 0.036675 -0.0027845 0.020891 -0.01232 
-0.1963 0.065118 0.039799 0.013164 -0.006566 -0.027118 0.0047785 0.030592 
-0.29002 0.0036276 0.0013258 -0.026953 -0.037476 -0.017417 -0.0096899 0.070708 
-0.22228 -0.016924 -0.0019624 -0.014129 -0.026131 -0.012485 -0.0031133 0.057555 
-0.1547 -0.030899 -0.028433 -0.017417 -0.047998 -0.0096899 0.025659 0.059035 
-0.088773 -0.014293 -0.023501 0.0062583 -0.0032777 -0.0070593 -0.0011404 0.032236 
-0.042901 -0.033365 -0.039284 -0.027118 0.025495 -0.011992 -0.025638 0.015959 
-0.010183 -0.031557 -0.030406 -0.0098543 0.017932 -0.012978 -0.020541 0.027468 
0.047033 0.01826 -0.0077169 0.052294 0.060186 0.017603 0.011848 0.027632 
0.056404 -0.0042642 0.039963 0.077778 0.093726 0.022535 0.0082312 0.032729 
0.070544 0.005765 0.04506 0.13615 0.087972 0.055747 0.037826 0.027796 
0.045882 -0.018239 0.045882 0.096357 0.11724 0.087972 0.022206 0.030592 
0.054596 0.041607 0.066598 0.097837 0.089123 0.091425 0.03651 0.028783 
0.087808 0.11214 0.084519 0.11 0.052294 0.074654 0.061501 0.037661 
0.10277 0.12283 0.076463 0.037661 0.0227 0.038977 0.01415 0.0062583 
0.099152 0.12677 0.054432 0.025495 0.0041209 0.015794 0.0037921 0.013986 
0.09126 0.082875 0.06183 0.025495 0.025824 0.015301 0.021549 0.037497 
0.050157 0.040785 0.03536 0.026317 0.019576 0.0042853 0.016288 0.013657 
0.0083956 0.044896 0.01415 -0.023501 -0.0070593 -0.017582 -0.0067304 0.010697 
0.0026412 0.03651 0.0016547 0.0065871 -0.00015387 -0.043066 -0.01528 0.012835 
0.016781 0.039634 0.0075736 -0.010512 -0.035832 -0.014787 -0.01117 0.034702 
0.024508 0.043416 0.0069159 -0.039284 -0.035503 -0.0073881 0.038319 0.021878 
0.05065 0.079258 -0.012649 -0.021199 -0.031392 -0.012978 0.016123 0.06035 
0.075641 0.052952 -0.01528 -0.02646 -0.00064712 -0.046354 -0.021856 0.051636 
0.047526 0.051308 -0.0032777 -0.029748 0.022864 -0.052273 -0.057041 0.020562 
0.03799 0.056076 -0.009361 0.032729 0.044567 0.013328 -0.028269 -0.011663 
0.020891 0.017438 0.013328 0.022864 0.059528 0.093233 0.050157 0.045553 
0.01152 -0.023336 0.0024767 0.056404 0.047691 0.13368 0.076792 0.05213 
0.009711 -0.01939 -0.013143 0.012013 0.026481 0.060844 0.03092 0.055089 
-0.012156 0.020398 -0.0091966 -0.00097594 0.020398 -0.031886 -0.026624 0.0090533 
-0.010348 0.026317 0.021549 0.045224 0.02533 -0.050958 -0.042079 0.0016547 
-0.0098543 0.075312 0.087479 0.10803 0.050814 0.022371 0.0082312 0.037826 
0.00083261 0.079751 0.10721 0.1197 0.024015 0.083697 0.071695 0.080244 
0.02829 0.05624 0.053774 0.057227 0.01004 0.11181 0.067091 0.068571 
0.036675 0.037497 0.023028 0.0421 0.00050378 0.034866 0.039799 0.049499 
-0.0022913 -0.0034422 -0.011663 0.01152 0.015465 -0.01939 0.018918 0.04654 
-0.038956 -0.073976 -0.016924 -0.0090322 0.0070803 -0.023665 -0.025309 -0.0004827 
-0.033859 -0.056548 -0.02794 0.014643 0.010862 -0.035503 -0.027447 0.01826 
-0.0034422 -0.010019 -0.0098543 -0.0095255 -0.010676 0.036182 0.014808 0.047855 
-0.0080457 0.058049 0.0018191 -0.016595 -0.0034422 0.082711 0.058377 0.058213 
-0.017088 0.05065 0.035688 0.0065871 0.011684 0.058706 0.055089 0.045389 
-0.014129 0.047526 0.028454 -0.023007 0.02533 0.035688 0.0018191 0.035195 
-0.0059084 0.054925 0.042758 0.0062583 0.0082312 -0.034516 -0.055068 -0.0098543 
-0.048985 0.017603 0.050157 0.0036276 0.05772 -0.018568 -0.050793 -0.032379 
0.0014903 0.0032988 0.089123 0.079587 0.11017 0.037332 -0.010841 0.00297 
0.00033937 0.005765 0.062981 0.090603 0.067256 0.1077 0.018425 0.020398 
0.00017495 0.053938 0.07301 0.073175 0.020233 0.15308 0.10408 0.098659 
-0.00015387 0.083368 0.081231 0.10589 0.013657 0.1659 0.11411 0.1008 
-0.059343 0.075641 0.073832 0.083368 0.047526 0.086328 0.071366 0.084026 
-0.057041 0.071366 0.054925 0.06594 0.022042 -0.017417 0.012835 0.032071 
0.030756 0.034209 0.0075736 0.027139 0.0095465 -0.037147 -0.011663 -0.0026201 
0.12233 0.074983 0.00083261 -0.01676 0.0059294 -0.012978 -0.014622 -0.03501 
0.13664 0.13401 0.02122 0.019411 0.037004 0.015794 0.021878 -0.015773 
0.11181 0.14124 0.083697 0.048841 0.053774 0.064132 0.058213 0.028125 
0.027468 0.050979 0.065776 0.075476 0.028947 0.08567 0.077943 0.068242 
-0.0073881 -0.027447 0.034373 0.009711 0.0034632 0.031578 0.038319 0.070708 
0.11592 -0.011334 -0.010348 -0.0138 -0.010676 0.018754 0.031907 0.048841 
0.15587 -0.008539 0.0069159 -0.00031829 -0.0060728 0.010369 0.034537 0.051801 
-0.044874 -0.0064016 0.040456 0.042923 0.016781 0.027139 0.020398 0.024508 
-0.31797 0.019247 0.015301 0.022864 0.033222 0.036675 0.019576 0.014972 
-0.41201 -0.039449 -0.018897 0.045389 0.06183 0.033551 0.0011614 -0.025638 
-0.38538 -0.0096899 0.024508 0.065612 0.10014 0.059364 0.035853 -0.012156 
-0.10521 0.10228 0.074819 0.11806 0.13417 0.059693 0.032729 -0.078086 
0.47763 0.21309 0.10195 0.086492 0.073175 0.063968 0.045224 -0.026789 
0.95641 0.23611 0.090274 0.097837 0.012342 0.026317 0.05213 0.03536 
0.78838 0.14765 0.077449 0.04095 0.016616 0.015794 0.0592 0.084026 
0.23118 0.082546 0.085177 0.059693 0.023193 0.065283 0.091096 0.08304 
-0.13103 0.01152 0.047691 0.05213 0.048348 0.062652 0.06594 0.070051 
-0.25368 -0.017746 0.039141 0.014479 0.033222 0.039305 0.040292 0.046046 
-0.21932 0.0059294 0.010369 0.013492 0.014972 0.01563 0.0060938 -0.0024557 
-0.13547 -0.010183 -0.03501 -0.064768 -0.017911 -0.028926 0.0088889 -0.0021268 
-0.03764 -0.019226 -0.036654 -0.0771 -0.025145 -0.048492 -0.0078813 -0.032379 
-0.0034422 0.033222 -0.016102 -0.030406 -0.010183 -0.042079 -0.018075 -0.019719 
0.013986 0.077449 0.040128 0.0083956 -0.013471 -0.035832 -0.0055795 0.0018191 
0.010533 0.061337 0.06479 0.070215 0.052459 0.022864 0.031742 0.018096 
0.05065 0.099481 0.10902 0.073175 0.07301 0.10524 0.085999 0.047691 
0.07038 0.099645 0.10113 0.094713 0.066434 0.11214 0.09833 0.043909 
0.12414 0.084684 0.086657 0.048841 0.062159 0.071366 0.065776 0.046211 
0.21556 0.08715 0.069229 0.02533 0.056076 0.041607 0.047691 0.034702 
0.22328 0.11198 0.029605 0.031578 0.034209 0.016616 0.031414 0.037826 
0.12497 0.088301 0.0052718 0.020891 0.01826 -0.0027845 0.031907 -0.001798 
0.060679 0.051801 0.027632 0.042758 0.026152 0.00297 0.015301 0.022864 
0.021384 0.013657 0.011848 0.030098 0.020562 0.011191 0.011848 0.01004 
0.014643 0.039305 0.00050378 -0.01232 -0.015609 -0.023994 0.029441 0.026481 
-0.0021268 -0.0024557 -0.021363 0.01004 -0.00064712 -0.031557 0.017274 0.020562 
-0.0011404 -0.0034422 0.00017495 -0.00031829 0.0092177 -0.017088 0.0087245 0.025001 
-0.013143 0.048019 0.004943 0.027961 0.027796 -0.033201 0.00033937 0.02533 
-0.012485 0.0021479 0.0016547 -0.0060728 0.021878 0.0075736 0.022535 0.0060938 
-0.036818 -0.0096899 0.031578 -0.024487 0.036839 0.042429 0.048677 0.016616 
-0.12577 -0.00015387 0.023686 -0.011827 0.0013258 0.028125 0.041936 0.034537 
-0.14599 0.023686 0.033222 0.0018191 0.004943 0.0065871 0.032071 0.075148 
-0.080388 -0.014622 0.025659 0.074161 0.0019835 -0.026953 0.0028056 0.052623 
0.30023 0.020233 0.016781 0.04358 0.015465 -0.089102 -0.016595 0.020069 
0.62478 0.14913 0.03388 0.072353 0.065283 -0.057699 -0.027118 -0.018733 
0.4191 0.17314 0.084848 0.074326 0.060022 0.04095 0.040456 0.049499 
0.078436 0.10129 0.095535 0.080902 0.074161 0.10293 0.086821 0.063639 
-0.12988 0.0592 0.056898 0.10047 0.078272 0.1128 0.08304 0.056076 
-0.18956 -0.00097594 0.02122 0.019905 0.081889 0.026646 0.045882 0.0085601 
-0.14533 -0.045039 -0.0022913 -0.015938 -0.0080457 -0.024816 0.0072447 0.03536 
-0.11311 -0.037805 -0.043395 -0.030077 -0.058356 -0.0868 0.029112 0.040456 
-0.082032 0.009711 -0.0031133 -0.016266 -0.010512 -0.050464 0.0019835 0.02122 
-0.068057 0.047197 0.051308 0.047033 0.029276 -0.036654 0.0046141 0.027961 
-0.011992 0.038812 0.031414 0.03388 0.023357 -0.050629 -0.010348 0.050814 
0.019411 0.033222 0.0072447 0.01826 0.019576 -0.019719 -0.0091966 0.047691 
-0.031721 0.009711 0.0039565 0.0085601 -0.0057439 0.012999 0.029112 0.044238 
-0.095349 -0.030077 0.010533 0.01826 0.029276 0.048513 0.060186 0.069393 
-0.14007 -0.021856 0.01004 0.055582 0.049006 0.074983 0.055747 0.048348 
-0.11113 0.0092177 0.0031344 0.042429 0.044238 0.038812 0.025001 0.040621 
0.013164 0.03947 0.016288 0.066598 0.041114 -0.00064712 0.015959 0.021384 
0.18909 0.067256 0.018918 0.023686 0.024344 0.0016547 0.0023123 -0.022021 
0.29563 0.1077 0.026317 0.030592 0.029605 -0.0068948 -0.01117 -0.040271 
0.24088 0.098659 0.062981 0.034373 0.020069 0.0026412 0.018096 -0.02235 
0.10129 0.060022 0.069229 0.026646 0.043251 0.024179 0.011848 0.029441 
-0.017582 0.054596 0.043087 0.053609 0.0046141 0.0093821 0.035524 0.058542 
-0.067892 0.011848 -0.0060728 0.017932 0.0039565 -0.0026201 0.051143 0.084519 
-0.057863 -0.0016336 -0.0090322 -0.019719 0.016288 0.011355 0.027303 0.096686 
-0.043066 0.012177 0.0054362 0.00033937 0.026646 0.0047785 0.0044497 0.063474 
-0.038791 0.023357 0.010204 -0.0052507 0.015137 0.011026 -0.019061 0.010533 
-0.014458 0.02122 -0.0047575 0.024673 0.012177 0.034537 0.0090533 0.017932 
-0.0072237 0.042758 0.038648 0.027961 0.0324 0.058049 0.027303 0.020727 
0.027303 0.077285 0.07449 0.089452 0.070873 0.048019 0.028125 0.045389 
0.046868 0.077285 0.10655 0.13138 0.069722 0.053938 0.05065 0.051143 
0.011684 0.056076 0.08863 0.083368 0.050979 0.048184 0.044238 0.034209 
-0.016431 0.085835 0.072517 0.044896 0.03388 0.023686 0.055582 0.0088889 
-0.034188 0.056898 0.035688 -0.012814 -0.0049219 0.007738 0.038483 0.04917 
-0.099131 -0.023501 -0.041257 -0.10373 -0.055561 -0.064275 0.0059294 0.047033 
-0.12363 -0.049314 -0.063946 -0.099131 -0.06 -0.072496 -0.03205 -0.0034422 
-0.10456 0.025166 -0.018075 -0.04619 -0.0077169 0.0024767 -0.0049219 -0.0090322 
-0.016102 0.047691 0.029605 0.077778 0.067091 0.050979 -0.020377 -0.053424 
0.19468 0.091425 0.093233 0.1151 0.1299 0.085506 0.015301 0.023028 
0.25814 0.11724 0.11773 0.11921 0.096193 0.12201 0.06479 0.01415 
0.11526 0.061501 0.053281 0.063474 0.079094 0.11132 0.062817 0.0031344 
0.090438 0.048677 0.025659 0.004943 0.048513 0.076134 0.10014 0.012506 
0.13203 0.08156 0.046868 0.051143 0.010697 0.083204 0.1031 0.050979 
0.094384 0.13993 0.068078 0.038483 -0.025309 0.056898 0.074983 0.08304 
-0.028433 0.077449 0.042265 -0.0062372 -0.050464 -0.083183 -0.0073881 0.047855 
-0.19729 -0.023172 -0.015609 -0.07973 -0.055561 -0.11853 -0.049149 0.020069 
-0.26733 -0.027611 -0.031886 -0.061151 -0.02942 -0.053917 -0.021692 0.02122 
-0.21438 -0.010019 -0.014622 0.013657 0.031414 0.078272 0.034537 0.047033 
0.028125 0.014479 0.019576 0.037004 0.057884 0.159 0.073997 0.013492 
0.34281 0.12792 0.047197 0.068571 0.096028 0.10491 0.080409 0.042265 
0.39526 0.15489 0.061666 0.074654 0.097179 0.0042853 0.046046 0.024344 
0.16903 0.083862 0.051472 0.046211 0.068242 0.0098754 0.01563 0.043909 
0.022864 0.020233 0.080738 0.076627 0.063474 0.11428 0.079587 0.073832 
-0.034188 0.045718 0.047033 0.02533 0.014315 0.12036 0.076792 0.073668 
-0.024487 0.036839 0.029441 -0.0013048 0.0070803 0.06479 0.060186 0.033551 
-0.0027845 0.033715 0.049828 0.0075736 0.059528 -0.020377 -0.048985 -0.02087 
-0.012814 0.05065 0.054596 0.039305 0.064625 -0.059672 -0.058192 -0.019226 
0.0075736 0.044567 0.054103 0.067585 -0.0016336 -0.022679 0.01152 0.024344 
0.018589 0.02829 0.037332 0.028947 -0.029913 0.04095 0.082711 0.068571 
0.00099702 0.0036276 0.036346 0.071202 0.029441 0.079422 0.087314 0.053609 
0.0023123 0.061995 0.050321 0.044567 0.062817 0.057227 0.03388 0.056404 
0.074819 0.11609 0.039141 0.036017 0.082546 -0.04323 -0.063782 0.009711 
0.13039 0.15719 0.044567 0.056404 0.11132 -0.065262 -0.058521 -0.0087034 
0.031907 0.11428 0.011026 -0.00097594 0.066269 0.079094 0.051965 0.016452 
-0.015444 0.017438 0.033058 0.041607 1.0539e-005 0.17166 0.12447 0.060679 
0.062817 -0.00064712 0.053445 0.061008 0.037826 0.14321 0.089945 0.072188 
0.13647 0.030263 0.045224 0.023028 0.043087 0.073668 0.049828 0.028125 
0.24499 0.072681 0.027796 -0.0031133 0.00083261 -0.0087034 0.030756 0.022535 
0.24236 0.047526 0.0092177 -0.049478 -0.023994 -0.021528 0.039141 0.046704 
0.11461 0.053938 0.034209 -0.00097594 -0.0022913 0.0024767 0.052294 0.078436 
0.011848 0.075148 0.040128 -0.012485 0.0019835 -0.012485 0.0023123 0.029934 
-0.02235 0.054267 0.0075736 0.017438 0.0087245 -0.087458 -0.037311 0.0075736 
-0.028269 0.023193 0.01563 0.025495 0.055254 -0.080388 -0.075784 -0.035996 
0.004943 0.047197 0.059035 0.077943 0.070051 0.010697 -0.0080457 0.012999 
0.059528 0.064296 0.069229 0.14585 0.065612 0.078436 0.060022 0.062323 
0.08156 0.075476 0.10063 0.1641 0.086492 0.09274 0.080573 0.065612 
0.055747 0.046046 0.066269 0.13647 0.088136 0.070544 0.076792 0.021384 
0.021384 0.043909 0.014808 0.040785 0.045553 0.030427 0.039799 0.035031 
0.026152 0.01004 -0.0032777 -0.018239 0.040128 0.014808 0.037661 0.030427 
0.019083 -0.0014692 -0.0013048 -0.0021268 0.00017495 0.01004 0.0060938 0.016123 
0.011026 0.037332 -0.014787 -0.039449 0.011848 0.0046141 0.018589 0.03799 
0.0072447 0.020562 -0.017088 0.015301 0.0085601 0.0036276 0.016781 0.017932 
-0.037805 0.031742 0.0039565 0.0088889 -0.016266 0.025988 0.027139 0.049335 
-0.081539 0.0011614 0.0028056 -0.017746 -0.0024557 0.01563 0.007738 0.037661 
-0.082854 0.0069159 0.028454 0.0016547 0.0072447 0.0075736 -0.0014692 0.038648 
-0.032872 0.024837 0.050321 -0.0087034 0.018918 0.017274 0.015137 0.015959 
0.16919 0.061501 0.02681 0.0070803 0.01563 0.0019835 0.012835 0.026974 
0.3193 0.067256 0.0047785 -0.023994 -0.010183 0.010204 0.019905 0.016781 
0.22394 0.045389 0.013986 -0.023665 -0.050793 0.020727 0.034702 0.011355 
-0.0026201 0.030427 0.0098754 -0.0039354 -0.053095 -0.0029489 0.060515 0.037168 
-0.059672 0.037004 0.0074092 -0.0047575 -0.020541 -0.027611 0.011191 0.028619 
-0.060823 0.0069159 -0.034681 0.0046141 0.0059294 -0.044546 -0.027118 0.024344 
-0.09387 0.040128 0.029769 0.064954 0.082711 -0.017746 -0.024652 0.0072447 
-0.095843 0.088794 0.077614 0.12513 0.097015 0.070544 0.048677 0.021384 
-0.022185 0.077285 0.011848 0.049828 0.052459 0.076463 0.044731 0.018096 
0.035031 0.021384 -0.023829 -0.0070593 0.03651 0.034866 0.019247 0.018096 
0.042758 -0.0050863 -0.009361 0.043745 0.042923 0.065612 0.025659 0.028947 
0.049664 0.049664 0.050321 0.064625 0.064296 0.086821 0.033222 0.076956 
0.028454 0.023522 0.04358 0.074326 0.01563 0.059035 0.079094 0.073832 
0.00066819 0.024344 0.032236 0.031578 -0.0014692 0.044238 0.069722 0.070544 
0.0047785 0.014643 0.026646 0.010204 0.021549 0.044896 0.010533 0.045553 
-0.012156 0.023357 0.01711 -0.017746 0.0019835 -0.042244 -0.022843 -0.0096899 
-0.033859 0.025988 1.0539e-005 -0.095678 -0.043066 -0.046354 -0.034188 0.0056006 
-0.15372 0.012999 0.011848 -0.024487 -0.003771 -0.015773 -0.0022913 0.013164 
-0.27588 0.038648 0.0088889 -0.008539 0.024179 -0.044217 -0.021692 0.038483 
-0.22047 0.013164 -0.00031829 -0.0042642 -0.0004827 -0.043724 -0.017253 0.022535 
0.085506 0.030427 0.0054362 0.026317 0.014808 0.05213 0.051472 0.055582 
0.52087 0.095699 0.02681 0.029769 0.0227 0.096357 0.084848 0.032893 
0.52614 0.091425 0.028783 0.070873 0.05213 0.10589 0.081724 0.029441 
0.17955 0.063145 0.053445 0.069229 0.073832 0.089123 0.04095 0.018918 
-0.08384 0.032236 0.066598 0.065283 0.092082 0.033222 0.01826 0.023357 
-0.17624 0.018096 0.041936 0.053609 0.02829 -0.020048 0.018918 0.012506 
-0.15569 -0.0080457 0.056404 0.027303 0.024179 -0.023007 -0.0032777 0.015137 
-0.098967 -0.00097594 0.065447 0.058871 0.047526 0.05065 0.011026 0.030427 
-0.029584 0.057391 0.085012 0.052623 0.082546 0.084355 0.04917 0.064954 
0.014315 0.069886 0.066105 0.093398 0.085835 0.12053 0.053774 0.076627 
-0.00031829 0.056569 0.040128 0.047197 0.045718 0.032071 0.049992 0.029605 
-0.0004827 0.031249 0.011026 0.0098754 0.011684 0.01415 0.014972 0.031085 
-0.0059084 0.026481 -0.018075 -0.018733 -0.020706 0.017932 0.0042853 -0.0080457 
0.027961 0.025824 -0.0016336 -0.020212 -0.00015387 0.0062583 0.011191 0.0083956 
0.059857 0.077449 0.041278 0.026152 0.025988 -0.0050863 0.024837 0.0060938 
0.091425 0.1368 0.062323 0.041607 0.044238 0.041278 0.032236 0.05065 
0.098166 0.10589 0.06035 0.025988 0.038155 0.053938 0.038483 0.045224 
0.10195 0.074326 0.063145 0.061501 0.045882 0.038977 0.044402 0.040785 
0.073175 0.09274 0.056076 0.044567 0.0421 0.039799 0.048841 0.032071 
0.046868 0.080409 0.057227 0.034373 0.016781 0.03092 0.033387 0.023357 
0.017767 0.055911 0.015137 0.029276 0.01563 0.031742 0.034866 0.039634 
-0.023829 0.03651 0.041443 0.036839 0.035688 0.018589 0.0074092 0.032564 
-0.15947 -0.012485 0.025001 0.05065 0.032236 0.016288 -0.0031133 0.04506 
-0.33128 -0.061316 0.017438 0.004943 0.041936 -0.0075525 0.0047785 0.017438 
-0.24102 -0.047341 0.010862 0.0098754 0.024344 0.0064227 0.014315 0.034866 
0.12513 0.072024 0.029934 0.004943 0.033387 0.029276 0.020562 0.032893 
0.65257 0.17906 0.074983 0.064132 0.05772 0.01415 0.024837 0.0088889 
0.70502 0.20454 0.095699 0.082217 0.054267 0.059364 0.096193 0.0051074 
0.24186 0.11822 0.076792 0.037004 0.011191 0.041607 0.058871 0.0087245 
-0.12807 0.017603 0.025001 0.0062583 -0.031721 -0.01939 0.0031344 0.020069 
-0.19268 -0.006566 0.019905 -0.031557 -0.028433 -0.058521 -0.032379 0.025824 
-0.084991 0.039963 0.041114 0.0064227 0.01974 -0.057534 -0.012485 0.02681 
-0.0016336 0.07038 0.04095 0.04917 0.060186 0.011848 0.027468 0.042923 
1.0539e-005 0.055747 0.037826 0.047362 0.076134 0.1202 0.052459 0.065118 
-0.0096899 0.028454 0.03651 0.080573 0.08715 0.11888 0.049664 0.021878 
0.0039565 0.058213 0.046046 0.083368 0.091918 0.058871 0.049499 0.0023123 
-0.0021268 0.041607 0.051308 0.049499 0.060186 0.028783 0.024344 -0.0019624 
0.032729 0.071366 0.037497 0.014643 0.0062583 0.0013258 -0.0019624 0.020398 
0.090274 0.090109 0.024837 -0.019226 -0.020706 -0.010676 0.020727 0.015137 
0.10918 0.10491 0.023851 -0.00081153 -0.015116 0.018589 0.039634 0.038319 
0.065612 0.054432 0.025495 -0.0091966 -0.0054151 0.031249 0.060186 0.044896 
0.053774 0.02122 0.03536 0.01004 -0.0044286 -0.023172 0.016781 0.02533 
0.025988 0.031085 0.016123 0.010862 0.004943 -0.038956 -0.0057439 0.024508 
0.031414 0.0041209 0.0067515 0.016945 0.0052718 -0.017088 -0.01939 -0.0050863 
0.022206 0.0093821 -0.037311 0.037004 0.0028056 -0.023994 0.013986 0.019576 
0.022371 0.019247 -0.041915 -0.0087034 -0.013143 -0.019061 0.028125 0.019576 
0.029769 -0.0072237 -0.030077 0.015465 0.0014903 0.015794 0.025659 0.030756 
-0.029091 -0.011498 0.0072447 0.027303 0.040456 0.034373 0.030592 0.049664 
-0.094034 -0.02646 0.011355 0.01267 0.051636 0.042758 0.033058 0.024508 
-0.069208 0.0083956 0.01267 0.0044497 0.017932 0.064625 0.053445 0.00017495 
0.030427 0.0080668 0.027468 -0.0042642 0.012999 0.040292 0.036182 0.00033937 
0.21408 0.08419 0.065118 0.063474 0.045882 0.041936 0.025495 0.033222 
0.26472 0.21178 0.10754 0.076134 0.073997 0.032236 0.021384 0.036675 
0.17725 0.1562 0.10737 0.045718 0.048184 0.01267 0.010533 0.049828 
0.031249 0.059857 0.079587 0.048348 -0.0019624 0.0056006 0.022206 0.013328 
-0.040271 0.0041209 0.068242 0.048841 -0.010841 0.016616 0.02681 0.0032988 
-0.022843 -0.0070593 0.044731 0.081231 0.030098 0.0054362 0.0037921 -0.018075 
0.01004 -0.019884 0.005765 0.035195 0.06479 0.029441 0.042758 0.0088889 
0.00017495 0.0026412 -0.0062372 0.015794 0.04506 0.065776 0.04358 0.016452 
-0.018239 0.064461 -0.001798 0.029112 0.079422 0.028619 0.037497 0.049499 
-0.013636 0.023851 0.022864 0.032071 0.069722 -0.00097594 0.024673 0.04917 
-0.0032777 0.031249 0.0051074 0.047526 0.040128 0.010369 -0.0022913 0.069229 
0.020233 0.025824 -0.010183 -0.0067304 0.0092177 0.01563 0.039634 0.061337 
-0.013143 0.01563 0.00066819 -0.013965 0.022042 0.017767 0.056404 0.074654 
-0.08532 -0.031228 -0.028926 -0.023829 -0.011827 0.053609 0.030756 0.042758 
-0.23559 -0.055232 0.00083261 -0.017746 -0.016431 -0.0049219 -0.0042642 0.0026412 
-0.28278 -0.00081153 0.022371 0.052787 0.029276 -0.013471 -0.0091966 0.00297 
-0.23 0.0059294 0.041772 0.059693 0.055254 -0.030242 -0.026296 -0.02087 
0.026481 0.01267 0.049828 0.051965 0.033222 -0.037805 -0.0040998 0.0095465 
0.39855 0.096357 0.017603 0.040785 -0.0014692 0.0037921 0.044238 0.00033937 
0.45198 0.062323 -0.021856 -0.047834 -0.027282 0.064296 0.097672 0.070873 
0.22312 0.0011614 -0.075784 -0.08384 -0.07973 0.0028056 0.060844 0.077285 
0.083368 -0.020377 -0.076771 -0.11985 -0.052109 -0.1187 -0.058192 0.031742 
-0.082196 0.072024 0.017603 -0.0078813 -0.0059084 -0.071674 -0.061809 0.0070803 
-0.23707 0.17248 0.1544 0.15883 0.099645 0.14124 0.05476 0.0090533 
-0.19252 0.14848 0.18251 0.17725 0.16311 0.25929 0.14913 0.043416 
-0.042573 0.13927 0.17708 0.24137 0.20767 0.16919 0.092904 0.07038 
0.12053 0.11083 0.19418 0.21474 0.22394 0.0041209 -0.025145 0.044567 
0.19944 0.067913 0.12299 0.20635 0.18826 -0.065426 -0.056219 0.017932 
0.11411 0.041607 0.058377 0.12135 0.10902 0.073504 0.027468 0.062981 
0.14683 0.021056 0.022864 0.033222 0.027139 0.19122 0.14881 0.06183 
0.37833 0.012342 -0.017746 -0.029584 -0.035832 0.16985 0.13631 0.045389 
0.23759 0.053774 0.010862 -0.026953 -0.0044286 0.089287 0.081395 -0.021856 
-0.092554 0.1077 0.044402 0.017767 0.024344 -0.023665 0.033715 -0.032708 
-0.20107 0.051143 -0.0044286 -0.012978 -0.0073881 -0.09798 -0.023172 -0.010676 
-0.16424 0.0065871 -0.033201 -0.086307 -0.056877 -0.11294 -0.045861 0.0592 
-0.074633 0.0044497 -0.03057 -0.068057 -0.026131 -0.079072 -0.045039 0.054596 
-0.07266 -0.025802 0.0098754 -0.051122 -0.0078813 -0.035996 -0.031557 0.044731 
-0.076771 -0.018075 0.027796 0.0052718 -0.0073881 -0.00064712 -0.0022913 0.05065 
-0.025802 0.027961 0.037332 0.010697 0.01004 0.059857 0.055582 0.018918 
0.074326 0.079258 0.026974 0.039799 0.051636 0.052952 0.039634 0.030756 
0.14437 0.089452 0.03092 0.078765 0.050814 0.037168 0.050157 0.015137 
0.12908 0.089452 0.035031 0.051472 0.033715 0.034866 0.019083 0.030756 
0.1248 0.1054 0.034702 0.074161 0.026481 0.021713 0.041278 0.039963 
0.092082 0.0592 0.022042 0.039141 0.032071 0.0227 0.037004 0.04917 
0.078272 0.044073 0.02829 0.034373 0.036346 0.040128 0.0227 0.03947 
0.033058 0.070873 0.025659 0.040785 0.031907 0.02533 0.017603 0.014808 
-0.031392 0.076627 0.03388 0.016288 0.0095465 0.036182 0.063145 0.00033937 
-0.057205 0.056898 0.018425 0.015137 -0.051944 0.029441 0.084519 0.012342 
-0.03616 -0.012156 -0.037476 -0.10028 -0.099624 -0.0077169 0.091425 0.059364 
-0.048656 -0.020048 -0.087129 -0.15964 -0.13086 0.0056006 0.026974 0.017932 
-0.045368 -0.034516 -0.095514 -0.11919 -0.027282 -0.077593 -0.11459 -0.030735 
-0.0095255 0.03651 -0.02498 -0.02235 0.1391 -0.12642 -0.19054 -0.078415 
0.12743 0.10688 0.16179 0.19468 0.19057 -0.14648 -0.17361 -0.055397 
0.22164 0.12612 0.25485 0.26948 0.14206 0.061337 -0.0016336 0.030592 
0.1955 0.11231 0.2366 0.232 0.15949 0.30319 0.1927 0.12546 
0.11444 0.11214 0.17429 0.16031 0.1197 0.3581 0.26735 0.13351 
0.049828 0.11115 0.10655 0.15259 0.11099 0.28165 0.20569 0.13351 
0.030098 0.079587 0.06479 0.083368 0.049006 0.11494 0.13039 0.088465 
-0.03912 0.028454 -0.033694 -0.06855 -0.043559 -0.068386 -0.010183 0.017603 
-0.057534 -0.0072237 -0.080717 -0.11623 -0.07973 -0.10932 -0.063289 -0.0095255 
-0.051451 -0.037147 -0.095349 -0.15914 -0.096007 -0.10998 -0.053424 -0.0068948 
-0.041915 -0.03057 -0.079072 -0.099131 -0.071674 -0.090088 -0.060165 0.0047785 
-0.019719 0.0041209 -0.065755 -0.049314 -0.028762 -0.041093 -0.022021 0.0036276 
0.0037921 -0.0040998 -0.043395 -0.038298 -0.0059084 -0.040271 -0.023665 0.012999 
0.0023123 0.0052718 -0.053917 -0.0088678 -0.015444 0.005765 0.02681 -0.0013048 
0.0046141 -0.0064016 -0.033859 -0.033037 -0.014458 0.0070803 0.024179 0.024837 
0.0024767 0.0227 -0.0073881 -0.048985 -0.03501 -0.0022913 0.0021479 0.016945 
0.017603 -0.0064016 0.0014903 -0.02646 -0.013965 -0.02646 -0.019061 0.007738 
0.034866 0.020891 0.044567 -0.0088678 -0.026296 -0.028762 0.0072447 0.026317 
0.054596 0.11132 0.11083 0.085341 -0.0068948 -0.016595 0.033058 0.062488 
0.082053 0.12792 0.1373 0.074326 -0.0011404 -0.015116 0.03092 0.054596 
0.058871 0.12118 0.088794 0.024179 0.025824 0.027632 0.031085 0.039141 
0.032564 0.058377 0.031578 0.01004 0.03651 0.065612 0.054103 0.050979 
-0.0019624 0.0018191 -0.026624 -0.022021 0.0088889 0.082053 0.080902 0.037332 
-0.076277 -0.053588 -0.064933 -0.042244 -0.027118 0.073832 0.0324 0.039963 
-0.27818 -0.079895 -0.063124 -0.082525 -0.022021 -0.0021268 -0.024487 -0.009361 
-0.37239 -0.043888 -0.067728 -0.069536 -0.0026201 -0.037805 -0.03616 0.020891 
-0.2397 -0.024487 -0.019719 0.01415 0.022371 -0.037969 -0.011005 0.046375 
0.20355 0.054432 0.049828 0.075805 0.048348 -0.073318 -0.028926 0.0011614 
0.64649 0.19385 0.15275 0.22822 0.15275 0.051636 0.020891 -0.025309 
0.61443 0.17626 0.19172 0.26801 0.19287 0.21868 0.12036 0.024015 
0.29941 0.069558 0.14749 0.2223 0.16936 0.28034 0.15407 0.086657 
0.011684 0.037661 0.10967 0.13845 0.11378 0.17396 0.14354 0.083862 
-0.11459 0.050979 0.097015 0.10014 0.093233 0.080902 0.060515 0.081395 
-0.12593 0.059035 0.058542 0.057227 0.069886 0.027468 0.016123 0.049664 
-0.087293 0.051636 -0.0042642 -0.046683 -0.021199 -0.011005 0.0085601 0.039963 
-0.060658 0.070051 -0.011498 -0.037147 -0.0087034 -0.024323 0.029769 0.0087245 
-0.016266 0.059364 -0.017911 -0.033859 -0.0088678 -0.043395 0.0080668 0.018589 
-0.010348 0.047033 -0.019226 -0.039942 -0.012649 -0.064604 -0.027611 0.015959 
-0.0016336 0.053281 -0.037311 -0.033694 -0.031886 -0.066248 -0.031557 0.0019835 
0.029934 0.059364 -0.031557 -0.031064 -0.021692 -0.044546 0.0014903 -0.0032777 
0.052623 0.045882 0.005765 0.012177 -0.012485 -0.017582 0.015794 0.01711 
0.081067 0.035031 0.04358 0.024508 0.0075736 0.015137 0.023686 0.041278 
0.046704 0.062652 0.060679 0.035031 0.020727 0.03651 0.047691 0.061337 
0.032729 0.013164 0.049828 0.043909 0.028783 0.05213 0.037826 0.05213 
0.048184 -0.0080457 0.044731 0.044731 0.024179 0.090767 0.099152 0.03651 
0.055911 0.020398 0.0067515 0.044073 0.016945 0.080902 0.073504 0.032236 
0.004943 0.013492 -0.0057439 0.0034632 0.035031 0.042429 0.051472 0.026646 
0.031085 0.019247 0.0024767 -0.0026201 0.042758 -0.036983 -0.016102 0.010369 
0.015959 0.015137 0.014643 0.015794 0.038812 -0.094034 -0.039778 -0.046683 
0.025166 0.067913 0.039634 0.044896 0.061666 -0.046847 -0.031228 -0.020048 
0.03947 0.10178 0.091918 0.14354 0.10178 0.031249 0.0070803 -0.0088678 
0.054267 0.11115 0.14075 0.14486 0.10129 0.14617 0.078436 0.045718 
0.086328 0.12529 0.1396 0.11395 0.10951 0.1659 0.078272 0.071531 
0.06183 0.095206 0.091918 0.069886 0.082382 0.14026 0.11625 0.036839 
0.02829 0.055747 0.050321 0.025824 0.094548 0.097015 0.059528 -0.0032777 
0.035688 0.047855 0.031742 0.0037921 0.04095 0.024179 0.02533 -0.010676 
0.037004 0.043909 0.0093821 -0.016431 0.01415 -0.014458 0.007738 0.018096 
0.039963 0.030592 0.0031344 0.0014903 -0.017911 -0.015609 0.014315 0.013986 
0.034537 0.022535 0.012342 0.0075736 -0.013965 -0.03501 0.014315 0.057884 
0.046046 0.034373 -0.0080457 0.0013258 0.0018191 -0.039942 0.0051074 0.045389 
0.0059294 0.014643 -0.0055795 0.033058 -0.0072237 -0.0095255 0.009711 0.042429 
-0.043724 -0.0029489 0.0019835 0.005765 -0.0057439 -0.0055795 0.018589 0.038812 
-0.045861 0.015301 -0.00031829 0.027796 0.0047785 -0.012485 0.02681 0.027468 
-0.03764 0.0075736 0.017932 0.0018191 -0.00064712 0.012342 0.0075736 0.018754 
0.025495 0.053281 0.065118 0.016288 0.0421 0.0070803 0.0070803 -0.023501 
0.11428 0.093726 0.092082 0.053938 0.070051 0.023028 0.025824 -0.0095255 
0.094548 0.13417 0.090438 0.01563 0.054925 0.038155 0.036675 0.0060938 
0.0592 0.080902 0.036839 0.014643 0.0079024 0.0087245 0.0079024 0.046375 
0.0067515 0.023851 0.017274 -0.035503 -0.026624 -0.0057439 -0.014293 0.040621 
-0.041915 0.027468 0.0016547 0.009711 -0.00081153 0.018425 0.0052718 0.053774 
-0.098309 0.021056 0.012506 0.075312 0.025495 0.02829 0.040128 0.043416 
-0.099295 -0.009361 0.009711 0.0054362 -0.00064712 0.01004 0.031414 0.044567 
-0.094527 -0.060987 -0.028269 -0.020212 -0.03057 -0.014951 0.00033937 0.0062583 
-0.0044286 -0.038462 -0.03912 -0.051122 -0.043395 -0.068714 -0.012649 0.014972 
0.15012 -0.0052507 -0.009361 -0.0077169 0.0072447 -0.03057 0.0026412 0.029769 
0.16738 0.056569 0.017603 0.041936 0.053774 0.032236 0.028947 0.024508 
0.063968 0.13006 0.059528 0.050321 0.088958 0.027632 0.013492 -0.0021268 
0.065283 0.12644 0.068407 0.071531 0.072353 0.056404 0.02681 -0.012485 
0.052294 0.086821 0.08567 0.075148 0.056404 0.078436 0.038977 0.031249 
0.007738 0.094713 0.11872 0.14881 0.067091 0.096357 0.090767 0.10178 
-0.029584 0.042594 0.1003 0.15357 0.082546 0.097015 0.11576 0.10622 
-0.046847 -0.032543 0.019905 0.052623 0.062652 0.086821 0.076792 0.072681 
-0.054575 -0.021528 -0.023994 0.020069 0.0054362 1.0539e-005 0.0013258 0.028619 
0.019905 0.00066819 0.00017495 0.010697 0.0083956 0.0046141 -0.00015387 -0.010348 
0.056404 0.034866 0.0019835 0.00297 -0.0026201 0.0016547 0.013492 0.0032988 
0.077449 0.079258 0.016452 -0.0138 -0.0096899 -0.023336 0.024015 -0.00064712 
0.076463 0.082217 0.01563 -0.025145 -0.021199 -0.0072237 0.005765 0.036839 
0.032236 0.032236 0.03947 -0.019719 -0.016595 0.005765 0.005765 0.034702 
0.031907 0.016123 0.027961 -0.00097594 0.0044497 0.012999 0.0227 0.036675 
0.020398 0.044238 0.056569 0.023193 0.022206 0.014315 0.036346 0.05624 
-0.086636 0.052459 0.067091 0.044567 0.038319 0.036839 0.023522 0.021878 
-0.24941 0.037168 0.052952 0.037168 0.054267 0.03947 0.019411 0.041936 
-0.3303 -0.0060728 0.0098754 0.031414 0.01711 0.041443 0.030263 0.032071 
-0.11294 -0.0047575 -0.016266 -0.0087034 0.0018191 0.013164 0.019411 0.05065 
0.40184 0.054103 0.0021479 0.0018191 -0.017582 0.049006 0.017932 0.038648 
0.64155 0.088136 0.011026 0.016452 0.017274 0.042923 0.02681 0.021384 
0.53633 0.13056 0.015465 0.053116 0.041443 0.042758 0.025001 0.034044 
0.29809 0.082875 0.041772 0.05476 0.044238 0.033058 0.055254 0.040785 
-0.027611 0.047033 0.035195 0.028947 0.026317 -0.011992 0.020398 0.027961 
-0.20584 0.018589 0.041772 0.064625 0.034044 -0.003771 -0.0024557 0.030427 
-0.20797 0.018918 0.065283 0.03799 0.050979 0.023522 -0.010183 0.013328 
-0.11327 0.020727 0.07449 0.036346 0.042758 0.064461 0.046868 0.019247 
0.07038 0.07449 0.097179 0.098823 0.072353 0.091918 0.094384 0.063474 
0.13253 0.096686 0.058049 0.084848 0.058049 0.10228 0.076463 0.064461 
0.081724 0.048184 0.010697 0.0421 0.021384 0.034537 0.0324 0.061337 
0.023686 0.033058 -0.0075525 -0.010512 0.033387 0.014808 -0.0013048 0.026152 
-0.061316 0.051472 0.011848 0.037004 0.028125 -0.0083746 0.0074092 0.030098 
-0.1404 0.005765 -0.010841 0.020233 0.010862 -0.012814 0.0019835 0.0014903 
-0.10554 -0.010019 -0.0077169 -0.015938 -0.008539 -0.0075525 0.0060938 0.014972 
0.0011614 0.012177 0.0028056 0.031249 0.0032988 0.0052718 0.021878 0.02533 
0.19698 0.092576 0.026974 0.033387 0.040456 -0.0016336 0.044402 0.0046141 
0.28527 0.11609 0.055089 0.035031 0.043087 0.019083 0.047197 0.020398 
0.19928 0.072517 0.032564 -0.011005 0.0023123 0.063474 0.056733 0.04506 
0.078272 0.054267 0.0072447 -0.056548 -0.020706 0.075312 0.063639 0.086163 
-0.014951 -0.0088678 -0.012814 -0.023007 0.016781 0.065283 0.052294 0.023193 
-0.10472 0.032564 -0.00097594 0.013164 0.048019 -0.012649 -0.038462 -0.047669 
-0.096336 0.08715 0.055747 0.07449 0.066927 -0.11755 -0.11787 -0.078415 
-0.012814 0.091096 0.069886 0.069722 0.048348 -0.054246 -0.06 0.0047785 
0.03388 0.06594 0.079094 0.065776 0.052294 0.14437 0.10195 0.0786 
0.055254 0.032071 0.080244 0.08567 0.050157 0.13138 0.1225 0.085999 
0.02829 0.01152 0.033058 0.0018191 0.0064227 0.047691 0.034209 0.026481 
0.068078 0.00297 0.021878 0.024344 0.021878 0.021056 0.016452 0.038155 
0.13943 0.024508 0.035853 0.027139 0.041278 0.005765 0.043416 0.055418 
0.11576 0.056898 0.045553 0.041114 0.013657 0.02122 0.043087 0.031085 
0.066763 0.05772 0.043745 0.04358 0.027961 0.10688 0.072188 0.047362 
0.030756 0.081067 0.038483 0.042923 0.042594 0.060844 0.049499 0.022535 
-0.015773 0.070873 -0.016924 0.026152 0.031907 0.022535 0.029934 0.017603 
-0.023665 0.053281 -0.027447 -0.026296 0.013986 -0.011498 -0.00064712 0.013657 
-0.050464 0.022042 -0.017746 -0.014293 0.0046141 -0.047176 0.01152 0.039305 
-0.045861 -0.0014692 -0.044874 -0.022185 -0.029091 -0.035503 0.0051074 0.023357 
-0.077922 -0.0054151 -0.066413 -0.061809 -0.065591 0.018754 0.041443 0.045224 
-0.071674 -0.017253 -0.055561 -0.038627 -0.045532 0.019576 0.024673 0.0080668 
0.00033937 0.010862 -0.032543 -0.034516 0.0023123 -0.023829 -0.018404 -0.054082 
0.050979 0.055582 0.012506 0.020069 0.081067 0.01974 -0.053424 -0.077264 
0.019576 0.057884 0.083697 0.066763 0.09981 -0.014129 -0.069701 -0.059178 
0.014643 0.090931 0.17133 0.13483 0.096686 0.018754 0.0087245 0.050321 
0.1516 0.13056 0.2172 0.19632 0.12003 0.15193 0.1345 0.11378 
0.21621 0.13993 0.18185 0.14108 0.13812 0.19188 0.15193 0.12957 
0.1391 0.082217 0.086821 0.08715 0.082546 0.12168 0.089287 0.060515 
0.077285 0.058706 0.046868 0.05476 0.046375 0.093726 0.028783 0.034702 
0.045553 0.10359 0.019083 0.028619 0.037497 0.038977 0.018589 0.01004 
0.045882 0.070215 0.00297 0.0090533 0.014315 -0.0083746 0.034866 0.033551 
0.0026412 0.036017 -0.027611 -0.067235 -0.010183 -0.012649 0.014808 0.028783 
-0.037311 0.015137 -0.025802 -0.034681 -0.024487 -0.031557 -0.011005 0.034044 
-0.090746 0.0024767 -0.016102 -0.020212 -0.011005 -0.039613 -0.0031133 0.015301 
-0.13612 -0.063618 -0.0013048 -0.0029489 0.0042853 -0.018075 0.01004 0.0092177 
-0.15651 -0.048656 0.020398 0.032564 0.01711 -0.010348 0.0088889 -0.003771 
-0.12149 -0.0047575 0.0070803 -0.01528 -0.021363 -0.01232 -0.0026201 -0.011827 
-0.03057 0.014808 0.024344 0.023686 -0.012978 0.018589 -0.00015387 0.025824 
0.05065 0.038155 0.030592 0.029605 -0.0075525 0.00033937 0.017767 0.026974 
-0.089759 0.067913 0.024508 0.038648 0.023193 -0.019226 0.01826 0.060844 
-0.21866 0.057555 0.016945 0.040785 0.036017 0.026646 0.015465 0.037661 
-0.16029 0.022206 -0.017746 -0.00031829 0.036346 0.052623 0.018425 0.063803 
0.10359 0.019576 -0.014622 -0.010019 0.038155 0.020398 0.015959 0.048513 
0.57743 0.12661 0.0092177 -0.0068948 0.07301 -0.0021268 0.025495 0.0041209 
0.54455 0.1248 0.079916 0.037332 0.096028 0.047855 -0.012649 -0.0073881 
0.22345 0.095042 0.14716 0.15176 0.096357 0.069722 0.027139 0.021384 
0.01004 0.1054 0.14042 0.096357 0.042923 0.080573 0.044238 0.032893 
-0.10998 0.060186 0.1276 0.11592 0.011848 0.085012 0.076792 0.055254 
-0.090253 0.027796 0.093233 0.097344 0.0042853 0.06035 0.095699 0.069229 
-0.054739 0.037004 0.070708 0.092247 0.053116 0.056569 0.054432 0.057227 
-0.038791 0.018425 0.023522 0.058542 0.076134 -0.0040998 0.030756 0.042758 
-0.045368 0.0074092 -0.019061 -0.019884 0.029441 -0.028104 -0.018897 0.0072447 
-0.038627 0.0079024 -0.018733 -0.018239 0.023686 -0.040271 0.019905 0.011684 
-0.073647 -0.0062372 -0.031557 -0.05441 0.0054362 0.012999 0.01563 -0.0021268 
-0.060494 -0.025967 -0.028926 -0.061645 -0.01676 -0.011827 0.00066819 0.0024767 
-0.029913 -0.023501 -0.019719 -0.034188 -0.025802 -0.026953 -0.0087034 0.014972 
0.055089 0.035853 0.020233 -0.015609 -0.010676 0.00099702 0.014643 0.027303 
0.20865 0.088301 0.052952 0.056076 0.024837 0.029769 0.048184 0.045389 
0.28773 0.08567 0.067091 0.0059294 0.019576 0.026481 0.041772 0.045553 
0.15522 0.081067 0.058049 0.02829 0.026646 0.022535 0.01711 0.069064 
0.021384 0.064954 0.061337 0.01563 0.035853 0.004943 0.01711 0.033387 
-0.030077 0.020727 0.043745 0.014643 0.04917 -0.01232 0.026317 0.044238 
-0.0068948 0.010369 0.032071 0.045224 0.020069 0.014315 0.024837 0.012013 
0.012506 0.042429 0.049335 0.041607 0.0421 0.017932 0.027468 0.030756 
0.03092 0.024015 0.024179 0.041278 0.012013 0.023357 0.018589 0.020233 
0.02829 0.0059294 0.0018191 -0.024816 0.016123 0.039963 0.033715 0.031085 
0.023193 0.012177 -0.015116 -0.012814 -0.0031133 0.018754 0.025495 0.011355 
0.040292 0.068242 -0.012485 0.010204 0.0095465 0.0085601 0.018918 0.029276 
0.05065 0.053445 0.03092 0.0090533 0.017274 0.026152 0.037497 0.03947 
0.071366 0.060844 0.058213 0.056898 0.01711 0.024837 0.053281 0.040456 
0.081724 0.077943 0.066763 0.016781 0.020891 0.012013 0.043909 0.0592 
0.041607 0.037168 0.046704 0.026152 0.0026412 0.012342 0.045389 0.056569 
-0.094856 -0.0019624 0.024179 0.025824 0.02829 -0.010183 0.022535 0.049499 
-0.29972 -0.0034422 -0.0039354 0.0090533 0.0044497 -0.025145 -0.004593 0.007738 
-0.37452 -0.029913 0.0070803 0.018754 0.0069159 0.013657 0.020398 0.033222 
-0.13908 1.0539e-005 0.014479 0.012342 0.0032988 0.034866 0.040292 0.011026 
0.38014 0.060515 0.029276 0.045718 0.053774 -0.0026201 0.0034632 -0.036489 
0.61673 0.13154 0.050321 0.062981 0.085341 -0.0075525 -0.035667 -0.062796 
0.59042 0.1442 0.065118 0.094384 0.096028 0.035853 0.025988 -0.019226 
0.38721 0.13795 0.080244 0.11477 0.083533 0.057884 0.063968 0.045718 
0.071695 0.11378 0.057227 0.057062 0.03388 0.093398 0.071366 0.097344 
-0.14254 0.013164 0.036182 0.037497 0.022535 0.07449 0.055089 0.088465 
-0.17673 -0.00097594 0.060515 0.059693 0.033387 0.06594 0.066763 0.078436 
-0.15503 0.01152 0.03651 0.044402 0.025001 0.06331 0.063968 0.062817 
-0.10423 0.016452 -0.010841 0.022371 -0.0032777 -0.0029489 0.021384 0.039141 
-0.049642 -0.0036066 -0.016102 -0.0138 -0.0032777 -0.023994 0.0072447 0.044073 
-0.026131 0.0047785 -0.011498 -0.023994 0.0083956 -0.013965 -0.015609 0.01711 
-0.0088678 0.038648 -0.027611 0.011355 0.016452 -0.028926 -0.0057439 0.027303 
-0.04882 0.031085 0.0034632 0.0090533 0.021384 -0.020212 0.0085601 0.037497 
-0.10078 0.020562 0.037004 -0.017417 0.055089 -0.010512 0.034537 0.036675 
-0.11459 0.02122 0.013657 -0.0050863 0.0026412 0.015137 0.013328 0.04506 
-0.012156 0.0095465 0.041114 0.031578 -0.0059084 0.03799 -0.0016336 0.0034632 
0.099152 0.035031 0.047855 0.031085 0.047855 0.039634 0.022864 -0.03205 
0.20602 0.1054 0.074161 0.045718 0.06331 0.052294 0.016616 -0.043888 
0.16755 0.13943 0.077943 0.075641 0.098988 0.027796 0.022206 0.017603 
0.073339 0.10145 0.064296 0.052294 0.061995 0.068736 0.047526 0.040785 
0.13779 0.070215 0.095371 0.10145 0.091918 0.084355 0.058213 0.031249 
0.24071 0.11592 0.053774 0.050486 0.076299 0.060515 0.037661 0.023193 
0.15719 0.05213 0.0067515 0.0019835 0.014972 0.029276 -0.010348 0.047855 
0.038319 0.029112 -0.0062372 0.011848 -0.0068948 -0.00031829 0.0051074 0.058871 
0.00050378 0.059693 0.025166 0.020069 0.011026 0.012835 0.035524 0.075148 
-0.013143 0.052294 0.043087 0.083533 0.010204 0.01826 0.038155 0.060022 
0.0079024 0.081724 0.062323 0.072517 0.027303 0.030756 0.029276 0.069064 
0.036182 0.09422 0.042923 0.045224 0.043087 0.0064227 0.0079024 0.046704 
-0.025638 0.0689 -0.0070593 0.016452 0.04358 -0.0096899 -0.0064016 0.0087245 
-0.075455 -0.019884 -0.017417 -0.025967 0.034209 0.0070803 -0.00031829 -0.0075525 
-0.068714 -0.054246 -0.010348 0.039305 0.050157 0.024015 0.025659 -0.0036066 
-0.030735 -0.0075525 0.013657 0.0324 0.0072447 0.033387 0.026481 0.041443 
0.012835 0.026152 0.024344 0.0083956 0.0098754 0.051636 0.02122 0.037004 
0.042429 0.010862 -0.030735 -0.039942 -0.0078813 0.021056 0.029605 0.043087 
-0.015116 0.01711 -0.02235 -0.039778 0.0036276 0.028947 -0.017417 1.0539e-005 
-0.026789 0.062981 0.043909 0.053445 0.016616 0.053938 -0.0049219 0.034044 
-0.023007 0.045553 0.068407 0.055747 0.047033 0.015959 0.0083956 0.032071 
-0.012156 0.020233 0.049828 0.03092 0.040621 0.014315 0.02681 0.01711 
0.072188 0.055582 0.039305 0.025166 0.043416 -0.018733 -0.0075525 -0.032215 
0.10787 0.159 0.147 0.10293 0.11905 0.080902 0.063639 -0.0036066 
0.072681 0.19665 0.22394 0.20487 0.13187 0.18432 0.13779 0.066598 
0.048513 0.1299 0.16771 0.14009 0.085012 0.15259 0.10852 0.072188 
0.061501 0.053445 0.0421 0.063803 0.03799 0.075805 0.0786 0.058871 
0.0592 0.011026 -0.021856 -0.018075 -0.014622 -0.015773 0.015137 0.019083 
0.01563 0.0016547 -0.076606 -0.057699 -0.046683 -0.053424 -0.0087034 0.013821 
-0.0077169 0.015137 -0.081539 -0.053917 -0.047505 -0.069865 -0.03764 0.00017495 
-0.0138 -0.011992 -0.088444 -0.054739 -0.036818 -0.053424 -0.030242 0.019576 
-0.036983 -0.031064 -0.056055 0.0021479 0.0095465 -0.011827 0.0034632 0.020233 
-0.028269 0.013657 -0.037311 0.0019835 0.01711 0.0075736 -0.003771 0.018754 
-0.03353 0.0051074 -0.0064016 0.013986 0.021713 0.022371 0.0054362 0.0095465 
-0.015444 0.0024767 0.015959 0.033387 0.029934 0.049335 0.037332 0.021713 
0.014808 0.03388 0.04358 0.020562 0.028947 0.032071 0.04506 0.018918 
0.089452 0.069229 0.061172 0.058542 0.01563 0.05476 0.0090533 0.025659 
0.089945 0.080573 0.052294 0.023193 0.031249 0.064296 0.03651 0.026974 
0.041114 0.048184 0.037004 0.00050378 0.033222 0.021878 0.037168 0.01826 
0.0098754 0.038812 0.047526 0.0028056 0.038977 0.013821 0.032893 0.032893 
-0.014951 0.010369 0.038483 0.01563 0.017274 0.029769 0.045224 0.017274 
-0.02646 -0.012978 0.042758 0.025166 -0.0055795 0.026974 0.056404 0.040292 
0.015137 0.028125 0.034044 0.01563 -0.0054151 0.018589 0.028947 0.023028 
0.0227 0.015959 0.033551 0.01711 0.0011614 0.013164 0.020727 0.0098754 
0.016452 0.020069 0.023193 0.024344 -0.0049219 -0.015938 0.0095465 0.0044497 
0.017274 0.026481 0.050486 0.019411 0.013492 -0.0095255 0.021878 0.037661 
0.037497 0.048841 0.048348 0.041772 0.055089 0.048019 -0.00097594 0.018425 
0.023522 0.02122 0.054596 0.011848 0.096521 0.077778 0.023357 0.024508 
0.042923 0.033058 0.074819 0.071037 0.099152 0.11099 0.085506 0.055911 
0.0786 0.085177 0.11592 0.15752 0.13762 0.11658 0.088794 0.066269 
0.064461 0.084848 0.085012 0.12233 0.088958 0.057555 0.052294 0.062981 
0.046211 0.052459 0.02533 0.047197 0.0047785 -0.0055795 0.028947 0.045553 
0.041443 0.029769 -0.0062372 -0.010512 -0.029091 0.0036276 0.037332 0.043416 
0.037332 0.023851 -0.036818 -0.022843 -0.03057 -0.023994 0.01152 0.0092177 
0.016781 0.0034632 -0.013965 -0.0078813 -0.014129 -0.033201 -0.020377 0.018918 
-0.12971 -0.017746 -0.020706 -0.0029489 -0.014458 -0.013471 -0.0091966 0.011684 
-0.279 -0.0070593 0.0080668 0.013164 -0.0049219 0.0054362 0.010697 0.029769 
-0.23609 -0.0090322 0.015794 -0.011498 0.0034632 -0.0032777 0.02533 0.034209 
0.019905 -0.022021 0.018425 0.0014903 0.032071 0.024179 0.023851 0.01004 
0.49112 0.068736 0.029769 -0.0072237 0.037168 0.027961 0.0227 -0.032708 
0.51775 0.067256 0.014479 -0.0082102 0.0032988 -0.021856 -0.016431 -0.063124 
0.14585 0.022371 -0.018897 -0.020377 -0.0016336 -0.031228 -0.0068948 -0.010841 
-0.012814 0.038155 0.028783 0.020727 0.0018191 0.017603 0.033715 0.037826 
0.099152 0.12875 0.11395 0.15818 0.05772 0.058542 0.082053 0.099316 
0.1391 0.13203 0.12497 0.15111 0.071037 0.064132 0.086163 0.087314 
0.010204 0.089945 0.060515 0.059857 0.027961 0.056404 0.061008 0.08156 
-0.073647 0.061995 0.0037921 0.016616 0.04095 0.048184 0.053116 0.05624 
-0.10932 0.011848 -0.0054151 -0.010512 0.038648 0.038648 0.018754 0.047362 
-0.076771 0.0016547 0.0034632 1.0539e-005 0.0088889 -0.0027845 -0.013471 0.015137 
-0.057863 0.0014903 -0.0082102 -0.035503 0.0031344 -0.049149 -0.028433 -0.0052507 
-0.027775 0.023193 0.013821 -0.028104 -0.011498 -0.042737 0.0026412 0.016945 
0.035031 0.036346 0.059528 0.016781 0.00099702 0.0085601 0.037497 0.004943 
0.081231 0.053609 0.048841 0.03388 0.011684 0.031742 0.041443 0.061501 
0.079094 0.08008 0.033715 0.055418 0.019411 0.035195 0.021549 0.026974 
0.058871 0.067585 0.061172 0.048019 0.035853 0.03799 0.040621 0.04917 
0.06594 0.058049 0.070544 0.064132 0.062323 0.028947 0.043087 0.030427 
0.057391 0.064296 0.038977 0.033058 0.043251 0.0051074 0.014808 0.033551 
0.04506 0.037168 0.024344 0.026646 0.029934 0.017603 0.0087245 0.012999 
0.052787 0.047033 0.0013258 0.058542 -0.0022913 -0.006566 -0.0021268 0.0032988 
0.05213 0.051472 0.058049 0.041114 0.016945 0.01152 0.036839 0.0079024 
0.07301 0.093398 0.10754 0.060844 0.0023123 0.025495 0.046046 0.030263 
0.10359 0.066763 0.061995 0.048348 0.016945 0.036017 0.053938 0.033222 
0.099974 0.036017 0.034702 0.014972 0.015959 0.027796 0.03799 0.04358 
-0.039449 0.04654 0.0037921 0.016452 0.02533 0.012342 0.030427 0.040621 
-0.22984 0.031414 -0.014293 -0.01117 0.039799 -0.015773 0.0087245 0.036017 
-0.27867 0.0082312 -0.01939 -0.013636 0.015465 0.016452 0.020233 0.042594 
-0.060165 0.026152 -0.0096899 -0.03057 0.0069159 0.045718 0.03536 0.040785 
0.43538 0.08567 0.0082312 -0.025309 -0.004593 0.033715 0.044896 0.04654 
0.5965 0.091096 0.0064227 -0.0067304 -0.011498 0.015959 0.056733 0.037661 
0.2736 0.063803 0.0072447 -0.0078813 -0.018733 0.0037921 -0.004593 0.013328 
-0.019226 0.070873 0.028454 0.041443 0.0098754 -0.06148 -0.050629 -0.010348 
-0.14599 0.087808 0.079258 0.083533 0.090767 -0.059672 -0.078744 -0.0022913 
-0.11985 0.073504 0.13138 0.13516 0.1271 0.040456 -0.0057439 0.013164 
-0.11886 0.039305 0.13943 0.15144 0.10507 0.13187 0.067749 0.053281 
-0.10423 0.050321 0.14256 0.13812 0.088958 0.1738 0.13105 0.11674 
-0.1108 0.04506 0.13171 0.14864 0.079751 0.17939 0.13105 0.12973 
-0.12971 0.030592 0.080573 0.034702 0.042429 0.082711 0.076299 0.087479 
-0.090746 0.004943 0.0019835 -0.052273 -0.028433 -0.026296 0.033551 -0.024487 
0.13878 0.029112 -0.014458 -0.05178 -0.0503 -0.040928 -0.023007 -0.033694 
0.29892 0.069886 0.0036276 -0.014129 -0.037311 -0.045861 -0.011334 -0.032543 
0.19106 0.062981 -0.0047575 0.0069159 0.0042853 -0.022185 -0.0091966 0.015959 
0.045882 0.041278 -0.00064712 0.01004 0.019905 0.0062583 0.017932 0.025166 
-0.023172 0.024837 -0.0004827 0.0024767 0.025166 0.0079024 0.0018191 0.045389 
-0.033365 0.04358 0.00033937 0.021549 0.032564 0.011848 0.0056006 0.03388 
-0.020706 0.04506 0.016288 0.011026 0.031742 0.035853 0.018754 0.029605 
-0.076606 0.025824 0.018918 0.035688 0.014479 0.017274 0.033551 0.043251 
-0.090088 0.0074092 0.01563 0.022371 0.0054362 0.0031344 0.058049 0.042923 
-0.076606 0.016781 -0.004593 0.033058 0.011848 0.042429 0.015959 0.034209 
0.0082312 0.0039565 0.0060938 0.031578 0.0092177 0.037661 0.01563 0.017932 
0.15324 0.032564 0.00083261 0.029112 0.037332 0.030756 0.028947 0.024179 
0.22904 0.087808 0.020233 0.051801 0.055418 0.063474 0.056404 0.016123 
0.12003 0.093562 0.06035 0.046046 0.05213 0.045882 0.042429 0.039141 
0.031085 0.061501 0.082711 0.069886 0.054267 0.029441 0.025001 0.022535 
-0.0078813 0.047197 0.078436 0.048184 0.035031 0.050814 0.046046 0.013821 
-0.00064712 0.050486 0.088136 0.021549 0.024508 0.04654 0.0592 0.027303 
0.0082312 0.034866 0.054596 0.045882 0.031249 0.044731 0.03092 0.016945 
-0.0014692 0.024015 0.036346 0.012013 0.0082312 0.0056006 0.0041209 0.039799 
-0.0026201 0.060844 0.025659 0.018096 -0.02087 -0.028762 -0.031228 0.0087245 
0.011684 0.018754 -0.0057439 -0.0059084 0.0032988 -0.018733 0.018754 0.033058 
0.031578 0.019083 -0.017582 -0.017088 0.033058 0.030756 0.03651 0.051143 
0.074819 0.058871 0.024673 0.046704 0.079422 0.049992 0.02533 0.037661 
0.0592 0.038155 0.0087245 0.04095 0.049499 0.035031 0.012506 0.024673 
0.025495 0.032893 0.0074092 0.045224 0.020398 0.0087245 0.012506 0.045882 
0.0031344 0.01004 -0.012978 -0.0004827 0.021549 0.019576 0.023686 0.025001 
0.032236 0.037497 -0.0082102 0.011684 0.024508 0.019083 0.027632 0.012013 
0.058871 0.046704 0.021056 0.02829 0.019905 0.049664 0.04917 0.015794 
0.05624 0.019083 0.025824 0.028619 0.0059294 0.027468 0.041114 0.02533 
0.034373 0.027632 0.042758 0.051965 0.029769 0.028947 0.042429 0.041278 
0.0037921 0.052787 0.060022 0.013492 0.068407 0.040292 0.071202 0.035688 
0.032729 0.027632 0.033551 0.0095465 0.03947 0.0064227 0.013328 0.035688 
0.032893 0.01974 -0.017417 -0.042408 0.0041209 -0.022021 -0.0049219 0.009711 
0.039634 0.04506 -0.014293 -0.018075 -0.0080457 -0.0059084 -0.009361 0.019411 
0.048184 0.049006 0.024015 0.03651 0.010204 0.039634 0.063474 0.037497 
0.038977 0.067585 0.023686 0.024673 0.017274 0.026317 0.045553 0.054596 
0.025495 0.057062 0.0092177 -0.0026201 0.0072447 0.031742 0.024344 0.030427 
-0.0087034 0.020727 -0.015116 -0.019226 0.021713 -0.021199 -0.044874 -0.031557 
0.00033937 0.027303 0.021056 0.014808 0.076299 -0.075949 -0.080717 -0.043066 
0.018754 0.071695 0.11691 0.11855 0.10458 -0.018239 -0.015444 0.011191 
0.00297 0.072353 0.16262 0.15308 0.090438 0.1516 0.10129 0.035195 
0.0054362 0.03651 0.13516 0.14469 0.069558 0.16541 0.15735 0.040621 
0.018754 0.010533 0.061995 0.029112 0.049664 0.080738 0.070051 0.053445 
0.028947 0.028619 0.0021479 -0.056219 0.023028 0.0079024 0.04095 0.043087 
0.044567 0.015794 -0.033365 -0.038298 -0.018568 -0.0087034 0.029276 0.072517 
0.038648 0.049828 -0.013636 -0.0029489 0.0090533 0.011191 0.029605 0.038483 
0.025001 0.085012 -0.0057439 0.017603 0.0031344 0.0087245 0.018754 0.036182 
0.026317 0.079258 -0.027775 -0.0091966 0.011191 -0.0055795 0.023357 0.0070803 
0.028947 0.045389 -0.004593 0.0011614 0.035031 -0.01117 -0.0036066 0.016452 
0.020069 0.049992 0.00297 0.016288 0.041607 0.01415 0.0052718 0.018918 
-0.03764 0.078765 0.036839 0.018589 0.015794 0.0044497 -0.00064712 0.024673 
-0.08384 0.096357 0.058542 0.055089 0.038648 0.0032988 0.035524 0.04095 
-0.055397 0.092904 0.09126 0.053116 0.032071 0.038319 0.036017 0.037497 
0.019576 0.060186 0.080902 0.059693 0.034866 0.042429 0.021056 0.042429 
0.20208 0.015301 0.07038 0.056898 0.046704 0.027303 0.0052718 0.011026 
0.31305 0.02533 0.050321 0.04095 0.040621 0.053609 0.032893 0.023522 
0.1978 0.053116 0.0082312 0.07038 0.040621 -0.0032777 0.061501 0.018918 
0.01152 -0.0083746 0.013657 0.015959 0.027303 0.0059294 0.023028 0.047362 
-0.038298 0.026481 0.0046141 -0.011005 0.052787 0.033551 0.0072447 0.010369 
-0.075127 0.022535 0.028454 0.034537 0.026317 0.023686 0.027796 0.0092177 
-0.061316 0.066269 0.055747 0.02681 0.038812 0.0088889 0.024344 -0.060658 
-0.012156 0.046046 0.029934 0.036839 0.030263 0.044402 0.030592 -0.0047575 
0.045224 0.071859 0.029276 -0.018075 0.014643 0.032236 0.046211 0.015794 
0.012177 0.15883 0.063803 0.041443 0.048019 0.025495 0.030756 -0.0026201 
0.029112 0.16574 0.081395 0.038155 0.025988 0.030098 0.042594 0.048184 
0.056569 0.094548 0.060844 0.027796 -0.012156 0.0014903 0.045718 0.061337 
0.061008 0.034866 0.01974 0.030098 -0.0062372 -0.0047575 0.02681 0.075148 
0.048513 0.0026412 0.020398 0.034702 0.020727 0.024015 -0.0022913 0.053445 
0.01004 -0.0022913 0.013821 0.064132 0.02533 0.00297 0.017932 0.033551 
-0.014787 0.021878 0.023028 0.03947 0.055418 0.022535 0.0054362 0.015959 
0.0098754 0.055089 0.020562 0.043087 0.032071 0.028947 0.010369 0.0052718 
0.059857 0.034044 0.044731 0.074161 0.06742 0.063145 0.042923 0.036017 
0.065283 0.054925 0.016123 0.023028 0.035524 0.046211 0.025166 0.053774 
0.038812 0.05476 -0.006566 0.025495 0.017274 0.0021479 0.010533 0.04917 
0.031578 0.01415 -0.0042642 -0.015444 -0.015938 -0.0044286 0.051308 0.044731 
0.032236 0.0039565 0.012177 -0.027282 -0.0057439 -0.008539 0.0051074 0.062981 
0.015959 0.00083261 0.00297 -0.019061 0.0016547 0.0046141 -0.0050863 0.032729 
0.03536 0.054432 0.010533 -0.0016336 0.032729 -0.008539 -0.018897 0.025824 
0.018918 0.042758 0.00033937 0.035688 0.059364 0.0052718 -0.0011404 -0.032708 
0.049664 0.060186 0.02533 0.032729 0.052952 0.044238 -0.0049219 -0.018733 
0.039963 0.085177 0.016452 0.024508 0.0036276 0.083368 0.050979 -0.012978 
0.044238 0.046046 0.03651 0.027303 1.0539e-005 0.061008 0.052623 0.036182 
0.018425 0.046046 0.077121 0.079422 0.020891 0.031742 0.068571 0.047691 
-0.018075 0.049992 0.076792 0.098659 0.027632 -0.0026201 0.04358 0.052623 
-0.021692 0.028125 0.036182 0.029934 0.01415 -0.017582 0.022042 0.020398 
-0.068221 -0.022514 -0.014129 -0.0091966 -0.0070593 -0.053588 -0.037805 0.0092177 
-0.2185 -0.016266 0.011848 0.014315 -0.023665 -0.012814 -0.0077169 0.035688 
-0.15783 0.034866 0.041772 0.018589 -0.032379 0.060844 0.089452 0.068407 
0.04358 0.016945 0.029112 0.051801 -0.019226 0.071037 0.071859 0.055747 
0.44491 0.047197 -0.015444 0.0031344 0.0067515 -0.0042642 0.0014903 -0.0052507 
0.61081 0.15341 0.019083 0.029605 0.050486 0.0044497 0.0013258 -0.0032777 
0.27836 0.11954 0.021056 0.015465 0.06479 0.090438 0.040128 -0.00064712 
-0.053588 0.048184 0.0067515 0.012177 0.089945 0.030427 -0.014458 0.013492 
-0.1598 -0.0047575 0.011355 0.036346 0.10622 0.041278 -0.032379 0.014479 
-0.13053 0.025659 0.031578 0.024508 0.059857 0.086985 0.030427 0.064132 
-0.079237 -0.0032777 0.031742 0.048677 0.03092 0.068571 0.082546 0.065283 
-0.056548 -0.010183 0.0028056 -0.001798 0.0054362 0.022864 0.058213 0.065283 
-0.037805 0.0092177 0.042265 -0.0503 0.020562 0.0059294 0.02681 0.043251 
-0.03616 -0.03205 0.016781 -0.0067304 -0.014622 0.00017495 -0.0091966 -0.016266 
0.020069 -0.00031829 0.036675 0.044567 0.011191 -0.072332 -0.028762 -0.035832 
0.052623 0.049335 0.097015 0.1031 0.034373 -0.053424 -0.011663 0.0023123 
0.067585 0.097672 0.11806 0.14272 0.040785 0.075312 0.082217 0.067585 
0.12069 0.074983 0.14864 0.16278 0.073504 0.15407 0.13203 0.072517 
0.1054 0.10392 0.11 0.13993 0.071366 0.13253 0.10195 0.082382 
0.096521 0.10639 0.047362 0.078765 0.032564 0.044896 0.071531 0.039634 
0.069393 0.045389 -0.015938 0.00050378 0.02122 -0.024487 0.0067515 0.018425 
-0.027282 0.0079024 -0.024158 -0.052766 -0.010183 -0.0083746 0.017438 0.025988 
-0.14796 0.01826 -0.0082102 -0.035996 0.020233 0.052952 0.027632 0.0036276 
-0.20255 0.056569 0.012342 0.0074092 0.031742 0.033387 0.01974 -0.0016336 
-0.094692 0.042923 0.021056 -0.0029489 0.023851 -0.019555 0.0092177 -0.0044286 
0.17758 0.049335 0.037826 0.03536 -0.004593 -0.03912 -0.035338 -0.010676 
0.41976 0.073339 0.030263 0.0031344 0.023522 -0.037476 -0.011005 0.015794 
0.29201 0.083862 0.020891 0.037168 0.046046 0.04917 0.049335 0.056733 
0.093726 0.064954 0.048841 0.064625 0.066598 0.10622 0.090109 0.051636 
-0.018733 0.096193 0.070215 0.063639 0.075805 0.088958 0.066105 0.073339 
-0.04323 0.0421 0.061008 0.069558 0.038648 0.031414 0.030756 0.044402 
-0.071016 0.014315 0.04506 0.012506 0.016288 0.0095465 0.023193 0.038319 
-0.075949 0.033551 0.04917 0.011355 0.015794 -0.0068948 0.035688 0.025001 
-0.072003 0.027139 0.034209 0.018754 0.036182 0.00050378 0.031907 0.032071 
-0.044381 0.013986 0.023357 0.013164 0.042758 0.02829 0.031249 0.028454 
0.013657 0.036675 0.025659 0.028454 0.039963 0.0056006 0.019905 0.030427 
0.061172 0.059857 0.0067515 0.014972 0.022371 0.021878 0.023028 0.034537 
-0.082032 0.045718 0.019905 0.031249 0.0031344 0.02829 0.035195 0.014972 
-0.17608 0.019083 0.00066819 0.012999 0.01152 0.013164 0.017274 0.020069 
-0.068386 0.043087 0.018425 0.0092177 0.014972 0.010697 0.01415 0.012835 
0.36353 0.078765 0.022864 0.0092177 0.023851 0.037497 0.034866 0.03651 
0.55589 0.090438 0.031249 0.01004 0.041114 0.00083261 0.03388 0.011848 
0.29037 0.084355 0.024344 0.039799 0.040128 -0.01528 0.025166 0.036017 
-0.013965 0.057227 0.030592 0.016616 0.028125 0.0087245 0.0051074 0.030263 
-0.17016 0.018754 0.024837 0.0075736 0.030756 0.010697 -0.011498 0.021549 
-0.17065 -0.014129 0.030427 0.015137 0.018425 0.049335 0.014972 0.013328 
-0.17246 0.016945 0.046704 0.024179 0.0069159 0.053116 0.058213 0.042923 
-0.14434 0.031742 0.061172 0.078272 0.010204 0.020069 0.061501 0.035853 
-0.13481 0.070215 0.088301 0.073997 0.048348 0.014479 0.026481 0.018918 
-0.094527 0.12283 0.086492 0.049006 0.060679 0.024837 0.0011614 -0.011663 
0.060844 0.11148 0.051801 -0.021199 0.018918 0.023522 0.026481 -0.039449 
0.20947 0.1008 0.10293 -0.047834 -0.00064712 0.040785 0.024837 0.027468 
0.31799 0.079094 0.02533 0.00297 0.028947 0.045882 0.024179 0.058706 
0.24318 0.055254 0.0324 -0.02646 0.026317 -0.01528 0.024837 0.090109 
0.070873 0.019905 -0.011827 0.0042853 -0.016266 -0.012649 0.0042853 0.057555 
-0.036325 0.020233 0.0023123 -0.0095255 -0.014458 -0.0042642 0.017438 0.029769 
-0.039284 0.026152 -0.0016336 -0.021363 -0.0022913 -0.013965 0.0013258 0.0085601 
-0.030899 0.024015 -0.00015387 0.027303 -0.0014692 0.0080668 0.02122 -0.0049219 
-0.056383 0.013821 -0.0044286 0.044896 0.024015 0.046868 0.0227 -0.017417 
-0.057041 0.00017495 -0.0090322 0.051143 0.024837 0.039799 0.038648 0.0019835 
-0.027611 0.020727 -0.014129 0.015794 0.037826 0.033387 0.0031344 0.032564 
-0.0077169 -0.0027845 -0.029584 0.029112 0.056076 0.016616 0.012177 0.027796 
0.015301 0.012999 -0.033037 0.057884 0.028125 0.0021479 0.01826 0.031578 
0.030098 0.03799 -0.015444 0.034866 0.035853 0.0065871 0.012177 0.015301 
0.054103 0.04506 0.0080668 0.063145 0.021713 0.039799 0.026646 0.029934 
0.048019 0.029934 0.030592 0.028454 0.012342 0.043745 0.042265 0.040621 
0.049499 0.051308 0.0786 0.023193 0.017767 0.058377 0.045224 0.043909 
0.016616 0.048677 0.06035 0.032071 0.010533 0.05213 0.031414 0.034373 
0.012177 0.047855 0.070708 0.031578 0.029934 0.034537 0.042594 0.027632 
0.041936 0.050486 0.072681 0.014643 0.030592 -0.017088 -0.0036066 0.020891 
0.085012 0.062159 0.05624 0.0062583 0.027139 0.0046141 -0.0047575 0.024344 
0.046375 0.032071 0.077121 -0.0011404 1.0539e-005 0.021384 0.012013 0.030756 
0.027139 0.01974 0.065776 0.0095465 -0.00097594 0.028125 0.047362 0.024344 
-0.012156 0.04095 0.014643 0.00066819 0.023522 0.044567 0.024179 0.014479 
-0.0088678 0.040456 -0.0080457 0.036675 0.03388 0.032893 0.015794 0.0092177 
0.034373 0.044567 0.028454 0.053116 0.058213 0.082382 0.059693 0.057062 
0.036839 0.050486 0.044731 0.081231 0.069393 0.098494 0.070708 0.057062 
0.04654 0.039141 0.025495 0.036017 0.015301 0.076956 0.091096 0.07301 
0.0095465 0.033551 -0.0011404 0.013492 -0.00081153 0.018918 0.057062 0.036346 
0.0054362 0.020727 -0.02498 0.032729 0.0079024 -0.027447 -0.0039354 0.0052718 
0.021056 0.056733 -0.017088 -0.0078813 0.035524 -0.066248 -0.055561 -0.042737 
0.054925 0.047197 0.018754 0.044238 0.050486 -0.013143 0.00083261 0.0072447 
0.043745 0.043745 0.048513 0.033222 0.035195 0.032071 0.063803 0.074654 
0.037661 0.048019 0.040456 0.030098 0.013492 0.068407 0.06183 0.079258 
0.016452 0.012177 0.0090533 0.018918 0.025659 0.033222 0.0042853 0.05476 
-0.039449 -0.0040998 -0.0064016 0.021713 0.044896 -0.051122 -0.068221 -0.012649 
-0.056712 0.0069159 0.042429 0.09981 0.098659 -0.02087 -0.042408 0.0036276 
-0.05178 0.027468 0.061501 0.070873 0.061666 0.0689 0.046868 0.04917 
-0.0011404 0.014315 0.052294 0.043251 0.043251 0.17429 0.12201 0.1197 
0.089616 0.05476 0.058542 0.089123 0.073832 0.18481 0.13039 0.082217 
0.13532 0.13154 0.062323 0.051801 0.084684 0.071531 0.080244 0.020727 
0.028947 0.095535 0.0324 0.029769 0.030263 -0.017746 0.016452 0.017603 
-0.1016 0.013821 0.020891 -0.031721 -0.028762 -0.044052 -0.020377 0.041443 
-0.095021 0.013492 0.039963 -0.024323 -0.019719 -0.016431 -0.051615 0.047526 
0.08567 0.036839 0.049499 0.0088889 -0.0032777 -0.0044286 0.013164 0.0069159 
0.38014 0.097344 0.077614 0.050814 0.027961 0.03536 0.021713 0.0018191 
0.36156 0.076627 0.056404 0.065612 0.05065 0.02122 0.026974 -0.038298 
0.10836 0.062323 0.030592 0.022864 0.03388 -0.00015387 0.013986 0.018918 
-0.034188 0.054267 0.033387 0.016288 0.016452 0.0062583 0.015794 -0.0052507 
-0.051615 0.05772 0.028454 0.015465 0.023686 -0.0016336 0.026152 0.034702 
-0.01117 0.039963 0.026317 0.012177 0.0021479 0.004943 0.0036276 0.023193 
-0.023336 0.0080668 0.023357 0.044402 0.050157 0.0324 0.012013 0.057884 
-0.027282 -0.00031829 0.042265 0.04095 0.038977 0.040456 0.030098 0.04917 
-0.017746 0.022371 0.054432 0.057227 0.037497 0.051801 0.058871 0.079094 
-0.0091966 0.051472 0.065447 0.044896 0.028619 0.03092 0.036182 0.051308 
0.010369 0.047526 0.058706 0.020891 0.018918 0.01004 0.022864 0.043745 
0.028454 0.054596 0.061008 0.034702 0.045389 0.0037921 0.030756 0.044731 
0.076463 0.11165 0.056076 0.024015 0.045718 0.03092 0.024837 0.043745 
0.10836 0.076627 0.044238 0.040292 0.024015 0.028125 0.027961 0.044238 
0.10293 0.061172 0.025001 0.023357 0.037168 0.030263 0.028783 0.023522 
0.080409 0.054925 0.028454 0.027468 0.024179 0.063968 0.029934 0.041278 
0.070544 0.047197 0.019576 0.043416 0.037661 0.017932 0.017603 0.021878 
0.063803 0.019247 0.018589 0.016452 0.012342 -0.015773 0.029769 0.013164 
-0.0022913 0.047197 0.022535 0.03947 0.020891 0.0093821 0.020069 -0.023336 
-0.040271 0.11707 0.044238 0.027961 0.049828 0.03651 0.038977 -0.010019 
0.02681 0.081395 0.059035 0.029276 0.043745 0.042758 0.054103 0.023193 
0.084026 0.052952 0.033058 0.036839 -0.0096899 0.018754 0.04506 0.045389 
0.085999 0.043251 0.036839 0.022371 -0.0042642 -0.020048 0.027468 0.029441 
0.043087 0.032071 0.026646 0.025495 -0.0075525 -0.042737 -0.01939 0.0052718 
0.031414 0.020562 0.010533 0.0067515 -0.018404 -0.019061 -0.0088678 0.022864 
0.044238 0.025988 0.013492 0.0059294 0.004943 0.017274 0.027303 0.028619 
0.015465 0.040785 0.017438 0.0087245 0.014808 0.047033 0.05065 0.053609 
0.047033 0.039305 0.018589 0.033551 0.073668 0.048184 0.019083 0.015465 
0.011026 0.015465 0.013492 0.054596 0.047526 0.027303 0.00083261 0.034702 
-0.026953 0.048677 0.027303 0.009711 0.010369 0.022535 0.028454 0.026646 
-0.079401 0.010533 0.032893 0.0324 0.01152 0.053281 0.052294 0.033058 
-0.077593 0.013986 0.0046141 0.013164 0.00050378 0.009711 0.038812 0.01826 
-0.020212 0.007738 -0.0042642 -0.0070593 -0.0087034 -0.017253 -0.00081153 0.029441 
0.029441 0.030592 0.015959 0.017603 -0.00081153 0.0085601 -0.0070593 0.030263 
0.15653 0.048184 0.033058 -0.0004827 0.037004 0.041278 0.021056 0.017438 
0.19057 0.046704 0.021878 0.024508 0.059693 0.024344 0.038155 0.045389 
0.10343 0.061666 0.0069159 0.011355 0.011684 -0.0087034 0.014643 0.010204 
0.0095465 0.045882 0.00066819 0.03092 0.019905 -0.010512 0.06331 0.050157 
-0.017417 0.04095 0.04506 0.090767 0.040621 0.075312 0.063803 0.060022 
-0.059836 0.050979 0.023686 0.030098 0.066763 0.06183 0.068242 0.040456 
-0.05885 0.047855 -0.014458 0.019083 0.037332 -0.016102 -0.017417 0.0088889 
-0.057205 -0.0034422 -0.022185 -0.020541 -0.029584 -0.034845 -0.003771 0.013986 
-0.029255 0.019576 -0.041915 -0.047012 -0.01939 0.0032988 -0.012649 0.0093821 
0.031414 0.055911 0.018589 0.013164 0.028947 0.053609 0.034537 0.040785 
0.034866 0.11313 0.11526 0.11806 0.07449 0.082382 0.083533 0.065776 
0.058049 0.15522 0.15735 0.18678 0.078929 0.093562 0.092247 0.077449 
0.0592 0.10178 0.1003 0.098494 0.062652 0.054596 0.062323 0.076299 
-0.095514 -0.010183 0.0069159 0.02681 0.030098 0.022206 0.026974 0.052787 
-0.29873 -0.05178 -0.044217 -0.021034 0.0042853 0.014315 0.010697 0.040292 
-0.28377 -0.03764 -0.053753 -0.053588 -0.00015387 -0.017253 -0.012814 0.0098754 
0.0070803 -0.031721 -0.034023 -0.018404 0.0039565 -0.0021268 -0.020048 0.0028056 
0.50476 0.08863 0.010697 0.01563 0.036182 0.03651 0.020727 -0.0034422 
0.54817 0.13072 0.054432 0.040621 0.031249 0.015794 0.048841 -0.0082102 
0.19583 0.074654 0.027632 0.039799 0.021384 -0.0087034 0.023686 0.016781 
-0.10094 -0.013307 0.028125 -0.006566 0.033551 0.0227 0.021384 0.042923 
-0.21784 -0.028597 0.048348 0.054103 0.031742 0.024673 0.013986 0.062323 
-0.25993 0.0024767 0.059528 0.050979 0.055911 0.06035 0.040128 0.056076 
-0.34756 -0.011827 0.055254 0.032729 0.034373 0.031414 0.025166 0.044073 
-0.32652 -0.026131 0.013328 0.022371 -0.009361 0.020727 0.0037921 0.023686 
-0.13563 0.028783 0.017274 0.037332 0.020069 0.024837 0.028783 0.032236 
0.34643 0.15423 0.041278 0.083862 0.048184 0.051801 0.038155 0.0026412 
0.79035 0.18037 0.022535 0.042923 0.03388 0.042429 0.050486 0.024015 
0.63202 0.12792 0.016616 0.01711 0.030098 0.012506 0.036346 0.0087245 
0.19155 0.090438 0.0047785 0.013821 0.053116 0.0074092 0.03388 0.029934 
-0.075291 0.06742 0.037661 0.013657 0.036675 0.021549 0.016288 0.037497 
-0.14911 0.04506 0.044567 0.034866 0.035195 0.030427 0.014315 0.051472 
-0.12149 0.050321 0.042429 0.009711 0.014972 0.012506 0.029769 0.054103 
-0.062796 0.023193 0.050321 0.017274 0.0032988 0.025001 -0.00015387 0.058377 
-0.052273 0.014972 0.059693 0.0065871 0.010697 0.014315 0.012835 0.04506 
-0.03205 0.051143 0.080409 0.015465 0.038812 0.043745 0.029605 0.030098 
-0.031721 0.058213 0.055418 0.050814 0.033222 0.036346 0.047033 0.0093821 
-0.020048 0.027468 0.019411 0.017767 0.012835 0.01152 0.025495 -0.0050863 
0.027303 0.0021479 -0.0059084 0.0085601 -0.0034422 -0.017746 0.014643 0.020562 
0.059857 0.026481 -0.021034 -0.01676 0.022042 -0.018075 -0.010512 0.023028 
0.077778 -0.0004827 -0.025802 -0.013143 0.040292 -0.00015387 0.026974 0.03799 
0.089945 0.0024767 -0.016595 -0.008539 0.014643 0.032564 0.027796 0.028125 
0.085506 0.029934 0.011191 0.056733 0.050321 0.068242 -0.0013048 0.007738 
0.088301 0.070051 0.073832 0.11395 0.062652 0.02122 -0.016431 0.0090533 
0.098166 0.077943 0.091918 0.11494 0.083862 0.096521 0.04506 0.031742 
0.086985 0.0592 0.067091 0.058049 0.055582 0.12628 0.087972 0.065447 
0.12168 0.10852 0.035853 0.030263 0.033222 0.12003 0.084355 0.064461 
0.063145 0.060186 0.042758 0.0046141 0.035195 0.033387 0.045389 0.046868 
0.043251 0.064132 0.048019 0.061008 0.039634 -0.017253 0.011848 0.047197 
0.03536 0.062159 0.043087 0.018425 0.010204 -0.044874 0.02533 0.050321 
0.015301 0.038648 0.024344 0.012342 -0.010348 -0.021528 0.026152 0.023686 
-0.01232 0.03388 0.021549 0.0227 -0.0082102 0.015301 0.024508 -0.0062372 
0.015137 0.046375 0.046704 0.024015 0.011848 0.026646 0.00050378 -0.030735 
0.028947 0.049335 0.022042 0.056569 0.012013 0.026317 -0.001798 -0.034845 
0.026974 0.039634 0.018589 -0.0036066 0.01004 0.015465 0.020398 -0.003771 
0.042758 0.061995 0.019247 0.01563 0.017767 0.0098754 0.015465 0.0324 
0.053609 0.055089 0.013164 -0.0027845 0.024179 0.0039565 0.017932 0.043909 
0.048019 0.029441 0.010862 -0.0049219 0.035853 0.032729 0.011684 0.039141 
0.025001 0.030427 0.007738 0.026481 0.02829 0.019905 0.034866 0.041936 
0.0062583 0.037497 0.025001 0.01267 0.027961 0.019247 0.023851 0.019905 
-0.0044286 0.049499 0.035195 0.045718 0.038977 0.043416 0.032071 0.040456 
-0.028269 0.02829 0.023028 0.026317 0.036182 0.030756 0.01267 0.033551 
-0.087951 0.023028 0.016945 0.0065871 0.019083 0.0079024 0.024508 0.027632 
-0.084827 0.033222 0.046046 0.05213 0.02829 0.031578 0.038155 0.018754 
-0.053753 0.015959 0.022371 0.044896 0.040128 0.040456 0.039963 -0.0072237 
0.0324 0.031907 0.018589 0.057555 0.054267 0.020398 0.041443 0.013164 
0.16837 0.06742 0.057555 0.020891 0.047362 0.041278 0.035688 0.029605 
0.19698 0.10195 0.055911 0.0065871 0.026646 0.030592 0.041607 0.043416 
0.10984 0.07038 0.071695 0.03092 0.016123 0.024673 0.035688 0.04358 
0.0011614 0.038319 0.06479 0.016781 0.022371 0.037004 0.016945 0.035524 
-0.037805 0.043087 0.054103 0.072681 0.047362 0.024508 0.016452 0.041772 
-0.058028 0.032071 0.036675 0.056733 0.019247 0.013328 0.046046 0.036346 
-0.038462 0.023851 0.038977 0.0689 0.050814 0.048677 0.026317 0.024673 
-0.027282 0.058871 0.013328 0.073339 0.075148 0.037497 0.014808 0.039963 
-0.034352 0.02681 -0.0044286 0.040456 0.075312 0.024673 0.022042 0.034044 
-0.037476 0.016452 -0.018404 0.047526 0.036182 0.038977 0.033222 0.054596 
-0.029584 0.017438 0.01004 0.020891 0.021878 0.039799 0.052294 0.043087 
0.030263 0.036182 0.039799 0.042594 0.015137 0.02122 0.0227 0.037497 
0.090931 0.025824 0.067913 0.060844 0.012506 0.01152 0.016616 0.015137 
0.12381 0.024179 0.069722 0.026974 0.013492 -0.008539 0.025001 0.035524 
0.062981 0.054267 0.040128 0.031249 0.020562 -0.0019624 0.022535 0.025001 
0.016452 0.037004 0.028125 -0.031557 0.00033937 0.021878 0.023686 0.020562 
0.00033937 0.040621 0.01267 -0.012485 0.013492 0.036346 0.029441 0.056733 
0.038155 0.049664 0.045553 0.011684 0.026646 0.030427 0.05065 0.026481 
0.0069159 0.03799 0.018754 0.013986 0.020069 0.029934 0.042923 0.038319 
0.01711 0.047855 0.010369 0.027303 -0.010841 0.023193 -0.0073881 0.0070803 
-0.066248 0.019411 0.02122 0.03651 0.028947 -0.0095255 -0.009361 0.0013258 
-0.11064 0.0324 0.014972 0.048513 0.034537 -0.010841 -0.012485 -0.032379 
-0.087951 0.020727 0.0026412 0.023686 0.029441 0.029769 0.00066819 -0.0019624 
0.062817 0.059364 0.041772 0.055582 0.044073 0.055582 0.057555 0.034866 
0.29744 0.14354 0.085506 0.087808 0.069229 0.067585 0.047526 0.034537 
0.34199 0.12529 0.084684 0.059364 0.046868 0.029276 0.0059294 0.018918 
0.16327 0.049664 0.060515 0.037004 0.026646 0.025824 0.033058 0.043251 
0.010697 0.012835 0.025001 -0.017911 0.016616 0.023686 0.04917 0.063145 
-0.065262 0.023357 -0.0070593 -0.024816 -0.016595 -0.0091966 0.012013 0.031414 
-0.088608 0.0047785 0.0016547 0.01152 -0.026789 -0.037969 -0.0019624 0.048184 
-0.069701 0.0085601 0.022206 0.026646 -0.014458 -0.020706 0.03388 0.061666 
0.0016547 0.039963 0.048677 0.077778 0.0087245 0.041278 0.054103 0.056076 
0.029441 0.03092 0.061008 0.054596 0.06594 0.098001 0.057555 0.045553 
0.028783 0.028947 0.042429 0.068736 0.10721 0.073832 0.034044 0.021549 
0.0036276 0.030427 0.040456 0.048348 0.088136 0.0324 -0.017417 -0.022514 
-0.02235 0.018918 0.053609 0.04358 0.075148 0.045553 0.0036276 -0.038133 
-0.037969 0.028783 0.08419 0.10721 0.093891 0.11559 0.068571 0.024508 
-0.030735 0.0689 0.12529 0.082217 0.077778 0.10293 0.050157 -0.030406 
0.036839 0.068242 0.059035 0.024015 0.022864 0.0042853 0.0014903 -0.01117 
0.21556 0.086328 0.015959 -0.041751 -0.017746 -0.011498 0.00050378 0.0041209 
0.28609 0.10984 0.022206 -0.046683 -0.050958 -0.00081153 0.026481 0.04506 
0.23348 0.16245 0.024015 0.00099702 -0.031886 -0.016102 0.035688 0.051143 
0.092904 0.12546 0.014479 -0.017253 0.0052718 -0.01117 0.011191 0.047197 
0.0047785 0.0689 0.024179 -0.0031133 0.030592 0.020562 0.0056006 0.021878 
-0.0078813 0.045389 0.025166 0.033222 0.05213 0.0083956 0.014479 0.025988 
-0.015938 0.025001 0.030427 0.034209 0.03947 0.0031344 0.030592 0.021056 
-0.031557 -0.045696 0.0088889 0.047855 0.036182 0.0013258 -0.00064712 0.013657 
-0.01117 -0.032708 0.022535 0.018096 0.019083 -0.02646 0.0016547 0.01974 
0.0065871 0.0074092 0.025988 0.033551 0.015301 0.007738 0.048677 0.047691 
0.019411 -0.0031133 0.022535 0.024837 0.031742 0.078107 0.083697 0.057555 
0.040785 0.0085601 0.0072447 0.014808 0.015794 0.051636 0.08008 0.048841 
0.044896 0.037661 -0.00031829 0.027303 0.0034632 0.017767 0.033551 0.045882 
-0.0034422 0.029112 0.01267 0.0070803 0.036017 -0.0088678 -0.022185 0.021713 
-0.090581 0.005765 -0.00015387 0.0069159 0.059693 -0.0062372 -0.035667 0.028947 
-0.074304 0.023028 -0.031064 -0.038791 0.056076 0.028783 0.0032988 0.042265 
0.079916 0.037497 -0.029584 -0.044381 0.026317 0.055254 0.009711 0.018918 
0.2634 0.096686 0.029605 0.02681 0.052294 0.057555 -0.0060728 -0.046354 
0.25321 0.20092 0.12595 0.082875 0.080902 0.051965 0.035195 -0.082854 
0.11658 0.18333 0.13647 0.15916 0.021384 0.027796 0.073175 0.029605 
0.063474 0.08978 0.11905 0.090438 -0.0060728 0.047526 0.090603 0.10918 
0.017767 0.043251 0.065118 0.029934 0.00099702 0.03799 0.072681 0.12677 
-0.027775 -0.0060728 0.016288 -0.028104 -0.031392 0.038319 0.039305 0.074819 
-0.034516 -0.024487 -0.040106 -0.07003 -0.045039 -0.0021268 0.020727 0.062488 
-0.015116 -0.017088 0.0021479 -0.0034422 -0.05178 -0.0138 0.044073 0.05624 
0.0072447 -0.0019624 -0.022679 0.0083956 -0.0070593 0.0023123 0.015301 0.037661 
0.062652 0.029934 0.0092177 0.029276 0.033387 -0.032708 -0.042408 -0.021199 
0.055911 0.052459 0.025495 0.052294 0.054267 -0.08828 -0.090746 -0.032379 
0.029112 0.065447 0.055089 0.069722 0.035031 -0.039449 -0.0406 0.0031344 
0.047033 0.073832 0.08304 0.10145 0.048184 0.1202 0.079422 0.072681 
0.050321 0.069558 0.057884 0.077285 0.046211 0.16607 0.12973 0.088794 
-0.0068948 0.02681 0.028454 0.038977 0.073997 0.11905 0.060186 0.023522 
-0.042244 0.028947 0.015959 -0.0027845 0.028947 0.041114 0.03799 0.0067515 
-0.023007 0.049992 0.024837 -0.010676 -0.0011404 -0.01117 0.028125 0.013657 
0.029276 0.039634 0.022371 0.013328 -0.004593 -0.0095255 0.020398 0.044238 
0.054925 0.034209 0.014479 0.0083956 -0.027118 0.009711 0.0014903 0.027961 
0.029441 0.049992 0.036346 -0.0050863 -0.0052507 -0.020212 0.0026412 0.044073 
-0.12971 0.0070803 0.00050378 1.0539e-005 -0.013636 -0.036654 0.013492 0.034209 
-0.33046 -0.028597 0.013657 0.011026 -0.012649 -0.037147 -0.0083746 0.027303 
-0.38833 -0.020048 0.029769 0.022371 0.019083 -0.027282 -0.013636 0.032729 
-0.23675 -0.011498 0.007738 0.018425 0.023357 0.011355 0.0039565 0.015794 
0.32144 0.11559 0.048513 0.081395 0.070544 0.059035 0.066927 -0.0090322 
0.67411 0.16936 0.058213 0.061172 0.06742 0.06594 0.05772 -0.004593 
0.74908 0.147 0.036839 0.02681 0.043745 0.046211 0.05476 0.047033 
0.47714 0.050486 0.017438 0.014808 0.024837 0.031249 0.034702 0.049828 
0.038977 -0.0098543 -0.012156 0.010369 0.0072447 0.016288 0.018754 0.054103 
-0.22244 -0.0095255 -0.0064016 0.048677 0.022206 -0.010676 0.030592 0.041278 
-0.2665 -0.0044286 0.0054362 0.041114 0.038812 0.0013258 0.0026412 0.04095 
-0.19498 0.026317 0.038155 0.05065 0.047855 0.041114 0.026152 0.038319 
-0.133 0.050486 0.054103 0.054596 0.062488 0.029605 0.012013 0.030592 
-0.090746 0.05065 0.05772 0.026974 0.034866 0.037497 0.038483 1.0539e-005 
-0.051944 0.022864 0.037332 0.027139 0.0088889 0.01826 0.019905 0.015794 
-0.041422 0.017274 0.0227 0.0013258 -0.0019624 0.020891 0.011848 0.029934 
-0.010676 0.031249 0.043251 -0.010348 -0.0090322 0.016452 0.017438 0.031414 
0.027139 0.026974 0.06479 0.0065871 -0.0036066 0.0037921 0.02829 0.037168 
0.069886 0.043909 0.066434 0.038977 0.022206 0.0074092 0.048677 0.036839 
0.11954 0.10063 0.08715 0.085506 0.038648 0.047691 0.069393 0.08008 
0.095864 0.078929 0.074161 0.056733 0.045224 0.031085 0.041443 0.025495 
0.061008 0.044567 0.020562 0.03947 0.031742 0.0042853 0.01004 0.023028 
0.043087 0.013328 -0.011663 0.012177 0.025495 0.00033937 0.034537 0.026646 
0.010862 0.022535 -0.017417 -0.0021268 0.016616 -0.0083746 0.013986 0.0083956 
-0.0072237 0.03092 -0.015444 0.030098 0.045389 0.012835 0.034537 -0.0022913 
-0.015773 0.0074092 -0.017417 -0.014458 0.0085601 0.028783 0.0056006 0.0024767 
0.030592 0.061666 -0.0055795 0.025988 0.021549 0.015959 0.027303 0.0023123 
0.12612 0.056569 -0.0068948 -0.0052507 -0.0059084 -0.027775 0.0016547 0.023851 
0.13088 0.077449 0.031249 -0.021856 0.04095 -0.036654 -0.0067304 0.061337 
0.081067 0.091425 0.077943 0.073668 0.059035 0.023851 0.015959 0.040128 
0.040785 0.099481 0.14716 0.12562 0.066763 0.11231 0.071202 0.074654 
0.044896 0.055254 0.11198 0.1054 0.05476 0.12973 0.11066 0.064132 
0.015301 0.024344 0.016616 0.007738 0.018589 0.059528 0.057555 0.050157 
0.0052718 0.036839 -0.031886 -0.038956 -0.0091966 0.0011614 0.019083 0.0054362 
-0.024487 0.048841 -0.033859 -0.03764 -0.014787 -0.0039354 0.012013 0.024179 
-0.066413 0.030427 -0.035503 -0.055232 -0.046354 -0.034188 0.027796 -0.00081153 
-0.087951 0.020891 0.0014903 0.014808 -0.037476 -0.019719 -0.0054151 0.025001 
-0.081045 0.027303 0.046211 0.062652 0.023028 -0.0026201 0.0016547 0.011848 
0.0032988 0.076134 0.11576 0.12628 0.093562 0.036346 0.021384 0.020069 
0.094384 0.095042 0.12677 0.13894 0.11313 0.081231 0.039634 0.018425 
0.1294 0.10474 0.079751 0.07038 0.089287 0.069229 0.034209 -0.0021268 
0.18678 0.071531 0.053445 0.079094 0.055418 0.06594 0.047691 0.0011614 
0.10639 0.038648 0.059035 0.041936 0.041936 0.089616 0.057555 0.023028 
-0.0050863 0.0067515 0.038648 0.027632 0.024179 0.06035 0.056404 0.054103 
-0.12018 -0.032215 -0.017746 -0.004593 -0.0087034 0.013164 0.042923 0.02681 
-0.13415 -0.025474 -0.017253 -0.017088 -0.031392 -0.017417 0.0016547 0.013492 
-0.10916 0.02829 -0.028104 -0.013471 -0.0078813 -0.024816 -0.032379 -0.029584 
-0.1113 0.043745 -0.01939 -0.0088678 -0.0026201 -0.047669 -0.011663 0.010204 
-0.089759 0.049828 0.013821 0.019905 0.0085601 -0.036325 0.028947 0.057062 
-0.0044286 0.055254 0.041443 0.0592 0.029441 0.047526 0.051636 0.075476 
0.15209 0.097179 0.06331 0.080573 0.060679 0.081889 0.03536 0.078272 
0.30319 0.095206 0.06331 0.066763 0.067585 0.049992 0.034702 0.032071 
0.2731 0.091918 0.044402 0.014315 0.013986 0.04654 0.0023123 0.014643 
0.11625 0.077285 0.055747 0.017767 0.01974 0.052294 0.062817 0.022042 
0.057227 0.058213 0.091753 0.055418 0.06183 0.038155 0.038319 0.03092 
0.005765 0.038812 0.059364 0.049006 0.046375 0.044402 0.0047785 0.009711 
-0.01939 0.027961 0.020891 0.048841 0.029441 0.023686 0.011191 0.052294 
-0.031392 0.046211 0.030098 0.018425 0.031249 0.015465 0.034537 0.037004 
-0.017746 0.031907 0.023686 0.015137 0.028125 0.01563 0.03092 0.04506 
0.017767 0.045224 0.016288 0.014972 0.016288 0.00297 0.0092177 0.048019 
0.027796 0.071202 0.022864 0.013164 0.018096 -0.011005 0.01267 0.028454 
0.022371 0.059857 0.026317 0.052623 0.014972 0.02122 -0.0039354 0.0067515 
0.01004 0.015959 0.02681 0.029276 0.023851 0.038155 0.035688 0.023851 
0.037168 0.04095 0.072681 0.073504 0.017767 0.041936 0.061172 0.049499 
0.11329 0.0227 0.04654 0.037497 0.040785 0.077778 0.044238 0.023357 
0.088794 0.0079024 0.059693 0.041278 0.045882 0.051801 0.057555 0.034866 
0.03092 0.0095465 0.031414 0.018589 0.040621 0.010533 0.039799 0.00083261 
0.018425 0.044567 -0.011005 -0.021363 0.033551 -0.028597 -0.0024557 -0.016102 
0.012506 0.048513 0.021384 0.042758 0.03799 -0.0406 -0.041586 -0.011334 
0.060186 0.06035 0.062652 0.07301 0.039963 0.011026 0.02829 0.051636 
0.067913 0.073339 0.047033 0.059693 0.027961 0.053116 0.066927 0.060679 
0.048841 0.03947 -0.0029489 0.0080668 0.00099702 0.042265 0.059693 0.051965 
0.065447 0.009711 -0.01528 -0.0078813 0.010369 0.029605 0.059364 0.057555 
0.048348 0.042594 0.0079024 0.062488 0.024673 0.015301 0.041936 0.051965 
0.0095465 0.052623 0.030592 0.05772 0.05624 0.012177 0.018096 0.052459 
-0.14106 0.031907 0.042758 0.062652 0.057884 -0.023501 0.013657 0.044896 
-0.20123 -0.00031829 0.044896 0.025001 0.055089 -0.031228 -0.003771 0.058049 
-0.1187 0.0087245 0.016288 -0.013965 0.0085601 0.029769 0.018754 0.023851 
0.13335 0.01267 0.020562 0.019083 0.038155 0.05476 0.014643 0.015301 
0.54093 0.087314 0.013986 0.027139 0.046375 0.07449 0.062159 0.012999 
0.55754 0.14979 0.031578 0.012177 0.046704 0.057391 0.051801 0.023028 
0.14206 0.13499 0.040621 0.00033937 0.032564 0.01974 0.033715 -0.018897 
-0.12445 0.09126 0.051143 -0.0098543 0.052294 0.021878 0.03092 -0.0019624 
-0.16013 0.040128 0.021878 0.018918 0.025166 0.020891 0.01826 0.019247 
-0.092719 0.026152 0.00083261 0.0014903 0.019576 0.00017495 0.025659 0.03799 
-0.05589 -0.0057439 0.0016547 0.015959 -0.0049219 -0.027118 0.0092177 0.0036276 
-0.024816 -0.0077169 0.013986 0.0069159 0.0021479 -0.019719 -0.01528 0.029769 
-0.012814 0.0075736 0.036675 -0.0072237 -0.019719 -0.036983 -0.0068948 0.046704 
0.012177 0.0227 0.038319 0.01415 -0.021692 0.005765 0.046868 0.038812 
0.016288 0.004943 0.034373 0.0037921 -0.0055795 0.062652 0.051801 0.078436 
0.0019835 0.020562 0.015959 0.035195 0.029769 0.041607 0.030592 0.025495 
-0.053917 0.024508 0.00083261 0.0082312 0.042923 0.020891 -0.003771 0.04358 
-0.088773 0.0067515 0.00083261 0.019247 0.04095 0.031249 0.01152 0.017274 
-0.057041 -0.0004827 0.0042853 0.056733 0.026974 0.051143 0.071366 0.042594 
0.060679 0.046046 0.012013 0.014479 0.023028 0.046046 0.037661 0.010862 
0.19961 0.064625 0.016123 0.026481 0.017274 0.013164 -0.0075525 -0.0064016 
0.2103 0.079094 0.052787 0.028947 0.041114 -0.058356 -0.042901 0.032564 
0.061337 0.089945 0.081067 0.070544 0.058542 -0.10225 -0.056055 0.021056 
-0.14582 0.071695 0.096028 0.098823 0.079587 -0.0075525 -0.0036066 0.023193 
-0.25269 0.023522 0.11378 0.10852 0.080573 0.10622 0.064296 0.04506 
-0.17969 0.05476 0.10507 0.14042 0.08715 0.18843 0.072681 0.084519 
0.099316 0.09274 0.062323 0.06035 0.078107 0.20849 0.14371 0.046868 
0.48914 0.14239 0.055747 0.047033 0.039963 0.17445 0.19057 0.028947 
0.48618 0.10425 0.0227 -0.0050863 0.015959 0.058871 0.054267 0.034537 
0.15982 0.069393 -0.0013048 -0.06855 -0.019061 -0.041915 -0.018075 0.016123 
-0.074633 0.044402 -0.023007 -0.036489 -0.038791 -0.076606 -0.046847 0.019411 
-0.133 0.015794 -0.021856 -0.058521 -0.03353 -0.068386 -0.0027845 0.018918 
-0.121 0.010204 -0.0095255 -0.011498 -0.019719 -0.014129 -0.0052507 0.018754 
-0.10373 -0.0049219 0.01152 -0.0042642 0.0018191 -0.011663 0.00066819 0.025659 
-0.045861 0.0080668 0.026646 0.016781 0.019083 0.0083956 0.0047785 0.043416 
-0.021363 0.012506 0.051801 0.05772 0.048513 0.038155 0.024179 0.026317 
-0.0055795 0.034702 0.055254 0.028783 0.048184 0.015137 0.010697 0.025988 
-0.00015387 0.017767 0.069229 0.057227 0.035853 0.030756 0.01711 0.013492 
0.043745 0.034209 0.042429 0.039634 0.065776 0.04506 0.017603 0.028947 
0.051965 0.064296 0.030263 0.044402 0.03947 0.038648 0.023028 0.019083 
0.04358 0.072024 0.043416 0.061172 0.049828 0.051472 0.065118 0.055089 
0.040621 0.052294 0.037497 0.053116 0.038648 0.048513 0.034209 0.020233 
0.042758 0.044238 0.036182 0.066269 0.032564 0.020562 0.0082312 0.038977 
0.033387 0.061008 0.030098 0.032564 0.03947 0.023522 0.0098754 0.02681 
0.031249 0.027632 0.022042 0.0082312 0.052294 0.037661 0.05213 0.025824 
0.039963 0.040128 0.03651 0.035853 0.022864 0.016945 0.032236 0.031578 
0.015959 0.042429 0.050814 0.026481 0.0098754 0.021384 0.02533 0.029934 
-0.14632 0.038155 0.050321 0.051636 0.017438 0.064296 0.023522 0.050814 
-0.24677 0.024179 0.055254 0.019576 0.02122 0.024508 0.02533 0.025001 
-0.14911 0.044731 0.032893 -0.014293 0.0037921 -0.0026201 0.011684 0.026481 
0.16804 0.044402 0.0060938 0.013492 0.0079024 0.015465 0.011848 0.0047785 
0.57579 0.085999 0.037168 0.029934 0.029112 0.01415 0.027303 0.037826 
0.46086 0.088136 0.054596 0.043087 0.038155 0.013164 0.028125 0.025495 
0.11822 0.077121 0.053445 0.01267 0.031414 0.042429 0.051636 0.024508 
-0.08384 0.072188 0.048184 0.0065871 0.034044 0.041772 0.030427 0.011684 
-0.12034 0.049335 0.012835 -0.0016336 -0.0004827 0.019905 0.01974 0.01974 
-0.086471 0.029934 -0.018897 -0.035996 -0.014458 -0.0026201 0.0067515 0.034537 
-0.078415 0.018425 -0.013636 0.016452 -0.01528 -0.013143 0.027796 0.040456 
-0.042901 0.018754 0.0059294 0.0067515 0.0019835 -0.026131 0.018589 0.028783 
-0.033037 0.024344 0.036182 0.029605 0.014643 -0.021856 -0.0077169 0.0013258 
0.0028056 0.06594 0.066105 0.073832 0.041278 0.011848 0.0037921 0.045553 
0.038319 0.057555 0.045882 0.082053 0.0592 0.069064 0.064461 0.045553 
0.064625 0.039141 0.038319 0.052623 0.037004 0.080738 0.10737 0.072188 
0.048841 0.026152 -0.015116 0.0046141 0.009711 0.053116 0.058706 0.042758 
0.033715 0.0059294 0.0039565 0.0082312 0.00033937 -0.051287 -0.031228 0.11888 
0.027139 0.005765 -0.016266 0.011191 0.011684 -0.0057439 0.013328 0.024508 
-0.0060728 0.030263 -0.018404 0.0060938 -0.0026201 -0.0040998 -0.0039354 0.020891 
0.023686 0.018754 0.025988 0.025659 -0.0087034 -0.015116 0.01563 0.0052718 
0.055418 0.023851 0.064132 0.029605 -0.018239 0.0016547 0.0016547 -0.017911 
0.069229 0.048841 0.061337 0.029441 0.013328 -0.016431 -0.011663 -0.0040998 
0.033715 0.069064 0.071859 0.0090533 0.050486 0.00297 -0.0050863 0.0011614 
0.014479 0.045224 0.066105 0.025988 0.053116 0.018918 0.025824 0.032071 
0.042758 0.057227 0.020233 0.024015 0.031742 0.061008 0.0421 0.015301 
0.064461 0.073175 -0.0039354 0.0026412 0.057062 0.058049 0.066763 0.021384 
0.066269 0.056733 0.0046141 0.052787 0.044896 0.045389 0.039141 0.038155 
0.054267 0.048184 0.028783 0.035031 0.060679 0.015794 0.0047785 0.034537 
0.022206 0.058377 0.028125 0.025988 0.02533 -0.015609 0.014643 0.025824 
0.020069 0.057227 0.021549 0.020562 0.013821 0.0098754 0.013492 0.034866 
0.024508 0.014479 0.0046141 0.0072447 0.018918 0.036182 0.038648 0.03388 
0.0069159 0.0051074 0.020233 0.057555 0.025824 0.043909 0.056076 0.038155 
-0.038627 0.025988 0.032893 0.0054362 0.041607 0.043087 0.053938 0.042758 
-0.065591 -0.0062372 0.032236 0.013492 0.032729 0.022042 0.018918 0.041443 
-0.071509 0.019083 0.061995 0.048019 0.041607 0.0052718 0.01004 0.035853 
-0.081703 0.071366 0.086821 0.066927 0.048513 0.017603 0.019083 -0.00097594 
0.072188 0.12201 0.053281 0.058871 0.033387 0.016123 0.023851 0.00066819 
0.22213 0.064954 0.010697 0.025988 0.012999 -0.004593 0.012506 -0.0060728 
0.2126 0.064954 0.012342 0.010533 0.022371 -0.0044286 0.024344 0.043745 
0.22279 0.075148 0.0014903 0.039305 0.049664 0.031414 0.032236 0.04654 
0.14798 0.063803 0.016452 0.016452 0.062488 0.040785 0.069886 0.041772 
0.02829 0.029441 0.014808 0.039141 0.053938 0.048513 0.029605 0.04917 
-0.062138 0.037004 1.0539e-005 0.011355 0.033387 0.027468 0.012177 0.024179 
-0.080388 0.020891 0.012013 0.033058 0.03799 0.0044497 1.0539e-005 0.031249 
-0.06444 0.011355 0.030592 0.044238 0.048184 0.0421 0.021549 0.039963 
-0.03205 0.0421 0.049499 0.031085 0.043745 0.075148 0.046375 0.040292 
-0.015116 0.051965 0.057062 0.04095 0.050321 0.049992 0.023028 0.0085601 
0.0054362 0.04506 0.042429 0.015137 0.026646 0.0092177 0.017438 0.01711 
0.025495 0.058871 0.064625 0.082875 0.051801 0.031578 0.013821 0.024508 
0.047033 0.096193 0.070873 0.058871 0.059857 0.019576 0.049335 0.054432 
0.039634 0.062652 0.053774 0.022042 0.041772 0.028783 0.033551 0.035524 
0.0090533 0.027139 0.019083 0.012506 0.012835 0.024508 0.015301 0.021878 
0.02681 0.039141 0.005765 -0.0073881 0.015301 0.0052718 0.020562 0.021384 
0.044402 0.066269 0.013492 0.012835 0.023522 -0.00015387 0.037004 0.034044 
0.042265 0.051472 0.015137 0.0065871 0.013328 0.035688 0.034044 0.042594 
0.055911 0.044402 0.028947 0.012506 0.0075736 0.0064227 0.022535 0.031085 
0.033058 0.083368 0.058213 0.029934 0.00099702 0.017767 0.024179 0.042265 
0.0031344 0.038648 0.044567 0.038483 0.016452 0.042758 0.036182 0.014315 
0.018425 0.031414 0.052459 0.052459 0.054267 0.015137 0.040128 0.034702 
0.034044 0.047362 0.058871 0.0079024 0.040456 0.021384 0.020069 0.029112 
0.046211 0.068078 0.042758 0.030263 0.025659 0.047197 0.021549 0.042758 
0.070708 0.075805 0.039963 0.054596 0.035195 0.021549 0.0090533 0.031085 
0.047197 0.050157 0.027139 0.044402 0.062817 -0.0022913 0.025495 0.04506 
0.01267 0.044402 0.024179 0.047526 0.023028 0.027796 0.017438 0.021056 
0.0031344 0.016781 0.012835 0.016616 0.010204 0.022042 0.038483 0.044238 
0.00017495 0.016452 0.018096 0.018589 0.024179 -0.0021268 0.0046141 0.018754 
0.004943 0.040621 0.035524 0.015137 0.033715 0.025001 0.014643 0.014972 
0.021878 0.034373 0.041443 0.019576 0.022042 0.03536 0.065447 0.047362 
0.033058 0.027961 0.051801 0.028125 0.0075736 0.036346 0.059035 0.052294 
0.022535 0.046868 0.042923 -0.012814 0.005765 0.052787 0.050157 0.051636 
0.014972 0.04358 0.0037921 -0.01232 0.01152 0.038812 0.031907 0.012177 
-0.0004827 0.0032988 -0.028926 -0.037805 0.01152 0.024015 0.027796 -0.0034422 
0.017767 0.026152 -0.017746 0.012177 0.0080668 0.052623 0.045882 0.026481 
0.028947 0.07301 0.057227 0.080902 0.025988 -0.0040998 0.0044497 0.024837 
0.023522 0.044567 0.059857 0.058213 0.015465 -0.058192 -0.028762 0.0032988 
0.010533 0.034537 0.052623 0.058049 0.010204 0.0016547 1.0539e-005 0.027468 
0.02122 0.058049 0.043416 0.036017 0.029934 0.0062583 0.025495 0.018096 
0.030098 0.070051 0.059035 0.073668 0.075312 -0.004593 -0.020212 0.019411 
0.049499 0.06479 0.087479 0.10507 0.056898 -0.0050863 -0.0042642 0.049499 
0.073997 0.070544 0.094713 0.055911 0.045718 0.067749 0.04506 0.050486 
0.049006 0.057062 0.068571 0.048348 0.034373 0.14782 0.12332 0.06479 
0.037004 0.023028 0.043087 0.014972 0.057884 0.16755 0.099316 0.040128 
0.02122 0.029769 0.013657 0.011191 0.04358 0.066269 0.048019 0.036182 
0.02533 0.063803 0.017438 0.023522 0.015794 -0.021692 0.012506 0.018425 
0.026317 0.047362 0.00083261 -0.0052507 0.0031344 -0.031228 0.010862 0.027961 
0.072846 0.052623 -0.00081153 0.043745 0.016781 -0.025474 0.015137 0.029276 
0.089945 0.075312 0.00033937 0.0044497 0.017932 -0.025967 0.0018191 0.025659 
0.069393 0.045882 0.012177 0.01004 -0.003771 0.023686 0.0037921 0.0042853 
0.053445 0.017932 0.0031344 0.040292 0.0227 0.020562 0.017438 -0.0080457 
0.029112 0.014972 0.033551 0.039634 0.018918 0.011355 0.031414 0.03799 
-0.0027845 0.03092 0.050814 0.057884 0.027961 0.03388 0.034537 0.025001 
0.016781 0.018918 0.059035 0.03799 0.041607 0.023851 0.013492 0.024015 
0.018918 0.011684 0.073339 0.047362 0.040128 0.015794 0.0085601 0.0072447 
0.012342 0.022042 0.05065 0.029112 0.046046 0.032564 0.03799 0.015959 
0.033222 0.023193 0.020069 0.007738 0.039305 0.016123 0.044731 0.0031344 
0.041607 0.038483 0.0013258 0.03799 0.025988 0.0046141 0.01974 0.028125 
-0.010512 0.097344 -0.021856 0.015959 -0.00097594 -0.001798 0.0082312 0.066763 
0.048019 0.056076 0.012999 0.013657 0.0075736 0.013328 0.040456 0.031249 
0.074161 0.020398 0.010533 0.015959 0.0085601 0.028454 0.046046 0.023522 
0.022206 0.032893 0.020891 0.018918 0.010862 0.027468 0.058542 0.011026 
0.016123 0.044896 0.013328 0.049006 0.034044 0.012013 0.0065871 0.026646 
0.060022 0.044567 0.047197 -0.0052507 0.044073 0.015959 0.0064227 0.017603 
0.091589 0.041443 0.03947 0.015301 0.025824 0.053116 0.05213 0.040128 
0.085506 0.04506 0.070215 -0.0060728 -0.00064712 0.063803 0.0421 0.041772 
0.05624 0.047362 0.063639 0.037168 0.030756 0.024673 0.034866 0.058213 
0.022535 0.037497 0.033715 0.054596 0.036839 0.028619 0.025495 0.022864 
-0.0060728 0.014315 0.011191 0.033551 0.030592 0.037497 0.03388 0.029769 
-0.012814 0.042594 -0.021528 0.02533 0.049335 0.010862 0.016781 -0.003771 
0.00050378 0.022371 -0.0075525 0.007738 0.048019 0.0069159 -0.011005 -0.0042642 
0.029112 0.040621 0.055911 0.068407 0.047362 0.025001 0.026974 0.042265 
0.067091 0.087972 0.074326 0.095206 0.027961 0.041443 0.051636 0.054103 
0.066105 0.068571 0.064461 0.071202 0.039963 0.064954 0.083368 0.052459 
0.043909 0.050979 0.017767 0.049828 0.034866 0.038483 0.017438 0.03947 
0.01974 0.027796 -0.012485 -0.038462 -0.0039354 0.0074092 0.018918 0.022864 
0.012013 0.031414 -0.017417 -0.08269 -0.029584 -0.0060728 0.0083956 0.02681 
0.016123 0.023686 0.01004 -0.028597 -0.021528 0.012177 0.049006 0.03947 
0.035195 0.01267 0.016288 -0.013636 -0.01939 -0.024652 0.0023123 0.013986 
0.02829 0.07449 0.043745 0.072846 0.039305 -0.070687 -0.048492 0.014479 
0.035031 0.076463 0.068078 0.088136 0.077943 -0.038133 -0.062796 0.0059294 
0.0018191 0.042758 0.049335 0.025166 0.039799 0.031742 0.01267 0.035853 
0.014972 0.027468 0.012013 0.0028056 0.052459 0.13171 0.090438 0.074654 
0.0324 0.0065871 0.0051074 -0.0014692 0.077121 0.14371 0.09833 0.064132 
0.060022 0.010862 0.0046141 0.052952 0.071859 0.068736 0.046375 0.042758 
0.10852 0.020398 0.00083261 -0.0040998 0.0031344 -0.0011404 0.01711 0.032236 
0.10293 0.066105 0.010697 0.025166 0.0023123 0.0026412 0.033551 0.030592 
0.03388 0.076956 0.038812 0.017932 0.0075736 0.018754 0.032071 0.0087245 
-0.038791 0.095864 0.048841 0.019083 0.029112 0.022864 0.022535 0.01004 
-0.054082 0.082875 0.027961 0.011026 0.025988 0.021384 0.024508 0.02829 
0.00099702 0.018425 -0.0049219 -0.014458 0.0082312 -0.0052507 0.024179 0.038812 
0.027632 -0.0070593 -0.017417 0.013657 0.012342 -0.011334 0.020233 0.0065871 
0.028947 0.010369 0.0072447 0.0042853 0.02829 0.022535 0.0046141 0.036182 
0.0065871 0.03799 0.025824 0.028619 0.01974 0.019905 0.012013 0.031907 
0.0036276 0.032071 0.027303 0.032071 0.020069 0.012177 0.018425 0.020891 
-0.0138 0.0324 0.013821 0.02829 0.0088889 0.034209 0.036017 0.016945 
-0.039449 0.067585 0.043416 0.058377 0.024179 0.028125 0.028454 0.026317 
-0.027118 0.058377 0.049992 0.043416 0.028947 0.030427 0.024837 0.041443 
0.045882 0.08304 0.037004 0.020233 0.028125 -0.0034422 0.080244 0.047691 
0.1128 0.11658 0.0421 0.02122 0.040292 0.030427 0.037826 0.061337 
0.099974 0.11 0.041936 -0.01939 0.027139 0.051472 0.030098 0.074161 
0.072353 0.037168 0.013821 0.013657 0.037332 0.067091 0.037168 0.036839 
0.020069 0.022371 0.054432 0.021384 0.042758 0.013164 0.017932 0.034373 
0.020891 0.051965 0.037332 0.082711 0.062488 0.0036276 0.033222 0.043416 
-0.0029489 0.042758 0.022535 0.073668 0.05476 0.0072447 0.034044 0.041278 
0.013492 0.028783 0.035195 0.037168 0.029605 0.029112 0.038483 0.018096 
0.014479 0.064132 0.038155 0.073668 0.01267 0.028125 0.040128 0.043909 
0.0227 0.033551 0.015794 0.0021479 0.016123 0.025659 0.024179 0.023851 
-0.022514 0.040456 0.0074092 -0.022843 0.01711 -0.00015387 0.01267 0.016945 
-0.17213 0.030592 0.028125 -0.00097594 0.028454 0.0028056 -0.012156 0.0079024 
-0.2716 0.02681 0.053281 0.026481 0.032071 0.049664 0.0039565 0.020891 
-0.15651 0.040128 0.11198 0.10573 0.034373 0.060844 0.020891 0.035853 
0.22427 0.069229 0.11757 0.10951 0.041936 0.069229 0.062817 0.058871 
0.40151 0.12118 0.07449 0.071695 0.037168 0.063968 0.0689 0.061501 
0.20668 0.030592 0.054925 0.052952 0.017438 0.01415 0.02681 0.063803 
-0.11393 -0.0049219 0.038977 0.013328 -0.014129 -0.042737 -0.0021268 0.0054362 
-0.12642 0.012013 0.0059294 0.023357 1.0539e-005 -0.027282 -0.0095255 0.011848 
0.16492 0.083368 0.037497 -0.010676 0.023357 0.016945 0.036182 -0.0064016 
0.23907 0.13253 0.028947 0.0034632 0.020562 0.0059294 0.016123 -0.020048 
0.13072 0.10096 0.03536 0.0041209 0.034044 0.028783 -0.0014692 -0.006566 
0.085177 0.10244 0.035853 0.022042 0.028125 0.012835 0.01563 -0.0026201 
0.036182 0.045224 0.036182 0.028947 0.028125 0.041278 0.035524 0.037004 
-0.023994 0.012999 0.024015 0.017603 0.029769 0.060186 0.031249 0.043087 
-0.053588 0.021056 0.016452 0.04506 0.021384 0.036346 0.025824 0.061995 
-0.042573 0.0034632 0.029441 0.050486 0.030592 0.0036276 0.027632 0.036182 
-0.0049219 0.0044497 0.0095465 0.037826 0.030756 0.026152 0.012835 0.043087 
0.012177 0.020891 -0.0042642 0.05213 0.037168 0.016616 0.02829 0.027961 
0.034373 0.029276 -0.011334 0.050979 0.034702 0.019576 0.016945 0.032729 
0.027961 0.01415 0.0047785 0.076463 0.014643 0.023028 0.0087245 0.019411 
0.045389 0.016288 0.0052718 0.025166 0.020398 0.02533 0.009711 0.039799 
0.054432 0.034702 0.023193 0.010533 -0.015444 0.0324 0.041936 0.058213 
0.051143 0.012835 0.011355 -0.013965 0.00083261 0.030427 0.037497 0.034537 
0.060844 0.00083261 0.047855 -0.014458 0.004943 0.024344 0.034537 0.053116 
0.053774 0.071037 0.09685 0.046046 0.041114 0.023686 0.013328 0.0031344 
0.053445 0.06035 0.096521 0.026152 0.051308 -0.025309 -0.035503 -0.0082102 
0.05065 0.043087 0.097672 0.059857 0.054432 -0.049642 -0.02646 0.01004 
0.020069 0.075476 0.10359 0.10819 0.047033 -0.008539 0.010369 0.069722 
-0.19696 0.031414 0.05065 0.051308 0.040621 0.045389 0.031907 0.082546 
-0.34592 -0.072167 -0.014951 0.041443 0.025495 0.066105 0.040456 0.066434 
-0.30563 -0.13284 -0.03764 -0.019555 -0.003771 0.050814 0.067585 0.075476 
0.15883 -0.0042642 -0.031557 -0.009361 0.014479 0.045553 0.045224 0.010204 
0.57546 0.11543 -0.029091 0.0421 0.026974 0.05065 0.029112 -0.056877 
0.53732 0.1687 0.026974 0.035853 0.045224 0.04095 0.047197 -0.042573 
0.37866 0.22937 0.045882 0.070873 0.044402 0.051965 0.024344 0.00033937 
0.29859 0.25058 0.053116 0.019411 0.047033 0.028125 0.048348 0.010369 
0.10984 0.12644 0.033551 0.0021479 0.0021479 -0.012156 0.012999 0.066927 
-0.095349 -0.020377 -0.0027845 -0.044546 -0.021692 -0.034023 -0.0016336 0.043909 
-0.19564 -0.0503 0.0011614 -0.040271 -0.021856 -0.013965 -0.010512 0.052952 
-0.19893 -0.049807 -0.014622 0.0023123 -0.012156 0.012177 0.00050378 0.045389 
-0.1746 -0.022185 -0.00064712 -0.0054151 0.0039565 0.0072447 0.0067515 0.048677 
-0.16111 0.018589 0.012506 0.034373 0.015959 0.026317 0.022371 0.027632 
-0.10571 0.0069159 0.014972 0.0047785 0.016288 0.011026 0.010862 0.039963 
-0.03205 0.0060938 0.0028056 0.022042 0.023357 0.022371 0.042265 0.015794 
0.12957 0.027468 0.025001 0.036346 0.031578 0.034702 0.030756 0.016123 
0.18777 0.052787 0.018096 0.033058 0.041443 0.030756 0.029605 0.026481 
0.10672 0.03651 0.028619 0.049664 0.028619 0.020233 0.024344 0.023357 
0.03651 0.04358 0.028783 1.0539e-005 0.031085 0.033715 0.028125 0.057227 
-0.013307 0.068407 0.031578 0.0026412 0.018754 0.028783 0.038812 0.021056 
-0.051615 0.039963 0.028947 0.027139 0.017767 0.019905 0.032564 0.03536 
