0.059035 0.12694 0.020891 0.013821 0.053774 0.044896 0.020727 0.1465 
-0.12955 0.099316 0.0023123 0.058706 0.026974 0.048513 0.031414 0.10902 
-0.55143 0.099974 -0.014787 0.023686 0.030592 0.041772 0.029276 0.11658 
-0.40116 0.077943 -0.01232 0.076463 0.051472 0.048348 0.053445 0.1419 
0.30993 -0.016102 1.0539e-005 0.034044 0.041607 0.025824 0.0689 0.20372 
1.0786 -0.12807 -0.0054151 0.052787 0.025495 0.034537 0.065447 0.31421 
0.93487 -0.12873 -0.011498 0.015794 0.017603 0.057391 0.016781 0.37274 
0.34199 0.0034632 0.0031344 0.02681 0.023357 0.02122 0.050979 0.41746 
-0.13037 0.19944 0.036017 0.018589 0.005765 0.026317 0.030427 0.40546 
-0.31155 0.24663 0.065447 0.0072447 0.0039565 0.026974 0.053774 0.30385 
-0.27259 0.2417 0.082382 0.047033 0.023193 0.01267 0.041607 0.13499 
-0.16062 0.2486 0.092904 0.015301 0.041443 0.017438 0.023193 -0.016266 
-0.088937 0.19533 0.10491 0.047691 0.037004 0.03651 0.0062583 -0.10341 
-0.072496 0.16936 0.12924 0.029605 0.01826 0.040128 -0.01117 -0.098967 
-0.045039 0.13335 0.14223 0.053938 -0.009361 0.0324 -0.047341 -0.20551 
-0.038133 -0.017582 0.098166 0.020398 -0.021856 -0.019884 -0.047998 -0.3936 
-0.075949 -0.1723 0.042265 0.049992 -0.013965 -0.030406 -0.014787 -0.60569 
-0.05885 -0.13201 -0.017088 0.00066819 -0.0055795 -0.08384 -0.013307 -0.53992 
-0.001798 -0.0040998 -0.028269 0.029769 0.028783 -0.11919 0.048513 -0.14862 
0.0083956 0.099316 -0.024816 0.025166 0.047197 -0.094692 0.10178 0.33739 
0.019905 0.20109 -0.018568 0.024508 0.069886 -0.025967 0.10113 0.58154 
0.0014903 0.15735 0.011191 0.026317 0.058871 0.03388 0.052787 0.49046 
-0.0075525 0.077614 0.024179 0.025824 0.055747 0.064296 0.019576 0.28346 
0.024344 0.0062583 0.016452 0.028783 0.0592 0.041772 -0.012156 0.18366 
0.072188 -0.033859 0.04095 0.034209 0.096028 0.074983 -0.011827 0.16344 
0.10195 -0.034188 0.045553 0.062159 0.11378 0.11888 0.034044 0.14321 
0.08863 -0.059836 0.038483 0.049992 0.048019 0.092904 0.024673 0.1927 
0.12447 -0.07562 0.042923 0.060679 0.03536 0.07449 0.012342 0.22131 
0.10869 -0.060823 0.028947 0.030756 0.033058 0.12776 0.068571 0.20503 
0.097015 -0.080059 0.028125 0.046704 0.03092 0.12891 0.068407 0.14733 
0.055418 -0.066577 0.022206 0.012506 -0.0098543 0.082217 0.011191 0.084684 
-0.054082 -0.043559 -0.0031133 0.023686 -0.036818 0.086492 -0.0019624 -0.042573 
-0.13021 -0.092719 0.0037921 0.0031344 -0.027611 0.063474 -0.025309 -0.11475 
-0.13201 -0.082361 0.0062583 -0.0040998 -0.0096899 0.043251 -0.053917 -0.13925 
0.028783 0.052623 0.021713 0.019905 -0.0026201 0.014315 0.0324 -0.076277 
0.15916 0.2292 0.01826 0.034209 0.076463 0.04506 0.085506 -0.030077 
0.088136 0.28116 0.047033 0.027961 0.0065871 -0.01939 0.090931 -0.069536 
-0.02646 0.19764 0.038812 -0.0090322 0.058871 -0.049478 0.054432 -0.0965 
-0.13908 0.072846 0.037661 0.022864 0.030756 -0.076277 0.018096 -0.13432 
-0.23099 -0.021856 0.046211 0.029276 0.027632 -0.071838 0.0083956 -0.29232 
-0.1621 -0.074962 0.035853 0.027796 0.010204 -0.063782 -0.0055795 -0.36877 
-0.0138 -0.08121 0.050157 -0.010512 0.0011614 -0.02794 0.0070803 -0.20501 
0.067091 -0.0406 0.043909 0.029441 0.015465 0.034702 -0.0004827 0.0072447 
0.089945 -0.0040998 0.04095 0.017603 0.043416 0.048841 0.019905 0.091096 
-0.017911 -0.017253 0.024508 0.035031 0.047691 0.046211 0.024344 0.078436 
-0.23263 -0.0034422 0.021713 0.017438 0.025001 0.066927 0.029769 0.15012 
-0.26667 -0.022514 0.0060938 0.023193 0.033551 0.059035 0.028947 0.30714 
0.10918 0.027961 0.034373 0.049828 0.068407 0.053938 0.048513 0.39658 
0.49375 0.12562 0.036675 0.061501 0.10885 0.047362 0.048184 0.36271 
0.53633 0.084519 0.049992 0.061995 0.16229 0.031414 0.065776 0.25781 
0.40414 0.053445 0.047197 0.020562 0.17906 0.014808 0.054432 0.13713 
0.10606 0.044896 0.029605 0.028454 0.078107 0.0092177 -0.011005 0.016123 
-0.26798 -0.0027845 0.020891 0.0016547 0.021384 0.029769 -0.035174 -0.041915 
-0.5077 -0.035832 0.0085601 0.012342 -0.032872 0.071037 -0.0080457 -0.039778 
-0.44095 0.00066819 0.01004 -0.0029489 -0.084827 0.08978 -0.0027845 0.07301 
-0.0965 0.034209 0.0011614 0.012506 -0.10324 0.15374 0.027632 0.17643 
0.34824 0.092082 0.043251 0.037168 -0.063453 0.20734 0.085999 0.25321 
0.46793 0.1738 0.059035 0.058213 -0.065262 0.14469 0.082546 0.232 
0.28938 0.13253 0.060186 0.048677 -0.049642 0.073504 0.077285 0.13647 
0.18432 0.041114 0.020727 0.032893 -0.046683 -0.00097594 0.0786 0.080573 
0.20438 -0.030899 -0.00015387 0.035524 -0.0073881 -0.061316 0.05772 0.10491 
0.055582 -0.021034 0.018589 0.027961 0.05624 -0.11311 0.033058 0.1151 
-0.082196 0.04095 0.034702 0.033058 0.078765 -0.13103 0.028454 0.075805 
-0.089266 0.031578 0.012835 0.0098754 0.042758 -0.14319 -0.00097594 0.051636 
0.028619 0.028454 0.015137 0.018754 0.028947 -0.080223 0.034537 0.0041209 
0.023193 0.1174 0.045224 0.014808 0.01267 -0.011827 0.076134 -0.063453 
-0.13596 0.085177 0.049828 0.039799 0.015301 -0.012814 0.03947 -0.17673 
-0.23658 0.057227 0.058871 0.035195 -0.0055795 -0.036983 0.021713 -0.34608 
-0.33753 0.076299 0.054103 0.04095 -0.012814 0.035031 0.027961 -0.16144 
-0.48254 0.060186 0.045882 0.0098754 -0.019884 0.078272 0.024673 0.18498 
-0.086307 0.062323 0.034209 0.030427 -0.0034422 0.098659 0.024837 0.36649 
0.79413 0.16738 0.080244 0.053609 0.03947 0.045389 0.073832 0.47089 
1.2413 0.20076 0.10113 0.048513 0.088465 0.019083 0.069393 0.39904 
0.93553 0.15374 0.078765 0.015959 0.086492 -0.0138 0.017932 0.20898 
0.30566 0.069886 0.046704 0.04358 0.084519 0.016123 0.049006 0.071531 
-0.13333 0.046375 0.064625 0.049335 0.044896 0.00050378 0.0093821 -0.034516 
-0.27768 -0.0067304 0.0098754 0.023357 0.047033 0.051636 0.025495 -0.18068 
-0.26322 0.0087245 -0.012978 0.028454 0.011191 0.016616 0.042265 -0.23181 
-0.21702 -0.033037 0.0018191 0.015465 -0.016431 -0.0047575 0.035195 -0.12544 
-0.12741 -0.0024557 -0.017582 0.035853 -0.046519 -0.003771 0.023522 0.038977 
-0.021692 -0.010676 0.0014903 0.01267 -0.050136 -0.024487 0.040456 0.058049 
0.031085 -0.014951 -0.0052507 0.036346 -0.026624 -0.037476 0.021878 -0.030077 
-0.043395 0.035195 0.0085601 0.031907 -0.022021 -0.0082102 -0.020377 -0.074633 
-0.11097 0.044238 0.016945 0.032564 -0.006566 -0.035832 0.0054362 -0.099624 
-0.082361 0.0082312 0.026646 0.037168 -0.021363 -0.014951 0.0046141 -0.01117 
0.16015 0.040128 0.042594 0.041607 0.016945 -0.0036066 0.029441 0.090931 
0.30007 0.08978 0.041114 0.065118 0.040128 0.050979 0.046046 0.12447 
0.15275 0.069558 0.021713 0.035031 0.038319 0.06479 0.044567 0.078436 
-0.088444 0.04358 -0.015116 0.011355 0.0592 0.030756 -0.0059084 -0.034352 
-0.075127 -0.021034 -0.020706 1.0539e-005 0.046868 0.0042853 -0.040764 -0.12001 
0.19698 0.0054362 0.028125 0.036839 0.077449 0.045553 -0.0064016 -0.011334 
0.55129 0.15078 0.09981 0.025001 0.099645 0.04358 -0.0036066 0.13351 
0.4824 0.21885 0.10162 0.057227 0.10639 0.034537 -0.00064712 0.015959 
0.14371 0.19501 0.078272 0.01711 0.072681 0.03388 0.040785 -0.15832 
-0.1792 0.13302 0.036017 0.040785 0.061337 0.037826 0.019083 -0.23411 
-0.4176 0.073668 0.024837 0.038483 0.038812 0.015301 0.016781 -0.16227 
-0.28147 0.076792 0.041443 0.058213 0.016781 -0.0036066 0.026152 -0.030406 
-0.098309 0.033222 0.054103 0.054103 0.011355 -0.031064 0.0026412 -0.054082 
-0.011827 0.0227 0.048184 0.037826 0.0041209 -0.030899 0.0032988 -0.12823 
0.0062583 0.042758 0.036182 0.031085 0.0018191 -0.012814 0.033551 -0.11919 
0.047526 0.10573 0.050321 0.0070803 0.031578 0.014315 0.086821 -0.014951 
0.072846 0.12102 0.097179 0.029276 0.068571 0.07597 0.15653 0.18054 
0.044073 0.075805 0.12661 0.022864 0.11658 0.082546 0.17215 0.29102 
-0.056383 -0.081045 0.098166 0.055254 0.1031 0.050157 0.1031 0.24236 
-0.13958 -0.18726 0.027961 0.0021479 0.055089 0.0227 -0.0091966 0.12431 
-0.16029 -0.13612 -0.0062372 0.018754 0.007738 -0.020706 -0.072989 0.0014903 
-0.11985 -0.13136 -0.011498 -0.0052507 0.0031344 -0.01676 -0.087129 -0.090253 
0.051143 -0.15503 -0.025474 0.035031 0.0092177 0.019247 -0.057863 -0.067728 
0.19024 -0.19844 -0.031228 0.016945 0.040456 0.029605 -0.0027845 -0.046354 
0.15867 -0.25532 -0.024487 0.033387 0.064625 0.040292 -0.015773 -0.035338 
-0.017582 -0.15339 -0.0062372 0.043416 0.10704 0.038319 0.0070803 0.014808 
-0.44111 0.08567 0.054925 0.031414 0.09126 0.037661 0.046375 -0.033859 
-0.97069 0.22246 0.093069 0.041607 0.072024 0.028619 0.03651 -0.12166 
-0.78589 0.24976 0.054432 0.005765 0.025824 0.025001 0.068407 -0.14336 
0.35334 0.26455 0.061501 0.038648 0.019411 0.045389 0.085177 -0.056877 
1.4804 0.28889 0.13335 0.025001 -0.045203 0.051965 0.093562 0.15324 
1.3199 0.26587 0.095042 0.064132 -0.02942 0.036346 0.074326 0.21276 
0.35531 0.049335 -0.0032777 0.0067515 -0.05589 0.018754 0.062817 0.12085 
-0.28574 -0.22507 -0.098638 0.031085 -0.062138 0.03536 0.042758 0.061995 
-0.47005 -0.43371 -0.15289 0.0074092 0.0011614 0.00297 0.025824 0.034702 
-0.45377 -0.42368 -0.17443 0.0059294 0.094548 0.052459 0.038155 0.079587 
-0.33506 -0.18874 -0.1695 0.016781 0.14338 0.01974 0.013657 0.093233 
-0.18528 0.20651 -0.093048 0.03092 0.10639 0.015137 0.033715 0.091425 
-0.067728 0.38046 -0.035174 0.05476 0.051143 0.024179 0.039963 0.09274 
-0.040435 0.2149 0.0085601 0.065118 0.065283 0.059528 0.042429 0.12053 
-0.0057439 -0.1358 0.04358 0.064132 0.069064 0.069722 0.025495 0.10392 
-0.013143 -0.36203 0.086492 0.0026412 0.035688 0.067091 0.0031344 0.064954 
-0.015609 -0.34575 0.13631 0.034537 0.028454 0.074161 0.030263 0.024508 
0.027796 -0.34131 0.14387 0.030427 0.020398 0.066105 0.023028 -0.001798 
0.01267 -0.38028 0.085341 0.025824 -0.047505 0.062652 0.013492 -0.020706 
-0.12873 -0.23921 0.02122 -0.010676 -0.078415 0.038977 0.013821 -0.071345 
-0.38143 -0.0138 -0.0034422 -0.021528 -0.073811 -0.00015387 -0.02942 -0.15733 
-0.51608 0.091918 0.011191 -0.044546 -0.03205 -0.0036066 -0.056877 -0.075949 
-0.12166 0.16097 0.030427 0.0079024 0.021878 0.019083 -0.0042642 0.14124 
0.55228 0.20668 0.050814 0.032893 0.067091 0.043745 0.034209 0.37307 
0.94506 0.10721 0.020398 0.056076 0.071366 0.067585 0.076299 0.36287 
1.008 0.097179 -0.031721 0.0689 0.036182 0.04506 0.07038 0.1465 
0.74382 0.19073 -0.043559 0.067256 0.0041209 0.01974 0.023851 0.0019835 
0.20635 0.25633 -0.031064 0.080409 -0.016266 -0.0021268 0.0065871 -0.081539 
-0.23592 0.28971 0.011848 0.047362 0.059857 -0.033037 -0.00064712 -0.19087 
-0.35825 0.23167 0.040621 0.0421 0.11576 0.0062583 -0.021034 -0.29347 
-0.15898 0.15292 0.024508 0.018589 0.082053 0.018425 -0.027775 -0.32125 
-0.011663 0.12694 0.047362 0.035031 -0.009361 0.0037921 -0.0060728 -0.2545 
0.036839 0.079422 0.10425 0.014479 -0.062631 0.01004 -0.006566 -0.036489 
-0.11015 0.1026 0.1756 0.0592 -0.032379 0.028783 0.01826 0.11757 
-0.36236 0.14716 0.10935 0.038155 -0.010348 0.049992 0.056076 0.16656 
-0.50885 0.050979 0.038977 0.035853 -0.035503 0.049828 0.017767 0.15851 
-0.18939 0.014643 -0.0503 0.034702 -0.065755 0.025988 -0.0068948 0.17725 
0.4778 0.040456 -0.082525 0.020398 -0.069701 0.03092 0.021549 0.22509 
0.75319 -0.017253 -0.074962 0.023193 -0.0049219 0.051636 0.014972 0.21424 
0.35909 -0.1741 -0.054739 0.027796 0.066105 0.018754 -0.022843 0.12036 
-0.034681 -0.29495 -0.0034422 0.037004 0.066598 0.013657 -0.015609 0.050321 
-0.1912 -0.26404 0.085999 0.011684 0.047526 0.019411 -0.012649 0.024508 
-0.097651 -0.0039354 0.10458 0.023357 -0.015116 -0.048656 0.010862 0.020891 
0.037332 0.28165 0.14552 -0.036983 -0.0055795 -0.015609 0.028947 -0.019719 
0.11313 0.36172 0.1493 -0.0064016 0.0037921 0.0052718 0.018425 -0.22293 
0.033222 0.20208 0.1442 0.025659 0.0036276 0.023357 0.01152 -0.29117 
0.031578 0.084026 0.12102 0.077943 0.0018191 0.05624 0.038648 -0.059014 
0.024179 0.092247 0.089452 0.052459 0.021713 0.068407 0.062159 0.14617 
0.04358 0.19139 0.072024 0.03388 0.077285 0.056569 0.032071 0.16689 
0.08156 0.2006 0.097672 0.029112 0.13467 0.036675 0.013492 0.032236 
0.059693 0.23397 0.10737 0.052787 0.085012 0.0069159 0.018589 -0.10489 
-0.0042642 0.28872 0.10721 0.057555 0.064954 -0.035174 -0.013471 -0.14434 
-0.065097 0.24893 0.079422 0.035688 0.016616 -0.020706 -0.033201 -0.051944 
-0.096994 0.1909 0.041936 0.015959 -0.031392 -0.03353 -0.024652 0.019083 
-0.0096899 0.12266 0.03536 -0.021528 -0.03616 -0.035667 -0.021199 0.075805 
0.022535 0.10589 0.013328 -0.010348 -0.015609 -0.019719 0.01152 0.094548 
0.040621 0.23134 0.033551 -0.023172 0.00066819 -0.018075 0.069722 0.11148 
-0.038462 0.42913 0.078272 0.0032988 0.010697 0.021056 0.089287 0.15259 
-0.37354 0.38655 0.10819 -0.00064712 0.037661 0.07449 0.1026 0.13993 
-0.82403 0.10589 0.079258 0.011355 0.047362 0.047033 0.066598 0.070873 
-0.52135 -0.19367 0.044567 0.0042853 0.067256 0.035031 0.030098 0.11395 
0.64303 -0.2744 0.023522 0.02681 0.1271 0.054103 0.053609 0.25074 
1.302 -0.12034 -0.00081153 0.041772 0.13154 0.05772 0.085506 0.30829 
0.97088 0.058871 -0.036654 0.054432 0.10244 0.064132 0.069229 0.30039 
0.29974 0.16689 -0.020706 0.0689 0.074161 0.054267 0.062488 0.26505 
-0.18512 0.26768 0.019576 0.079751 0.025166 0.025166 0.053445 0.20158 
-0.38472 0.19977 0.028947 0.069064 -0.05589 0.024508 -0.0072237 0.020233 
-0.40395 0.00297 0.024015 0.007738 -0.093212 0.010369 -0.026131 -0.24891 
-0.31566 -0.1644 0.029441 0.00297 -0.07973 -0.0036066 -0.0055795 -0.52973 
-0.16161 -0.20534 0.09685 -0.017088 -0.089924 -0.00031829 0.0082312 -0.48156 
-0.02235 -0.082525 0.18169 0.044731 -0.10752 -0.046354 0.034044 -0.12988 
-0.013307 0.064954 0.17429 0.016781 -0.078415 -0.049971 0.054267 0.16196 
-0.11837 0.06035 0.10228 0.013657 0.020891 -0.0072237 0.066105 0.26702 
-0.19564 -0.033201 -0.0040998 -0.012156 0.13368 0.01711 0.049992 0.25896 
-0.12741 -0.076277 -0.091404 -0.0091966 0.21786 0.045389 0.08304 0.24482 
0.092411 -0.047669 -0.11952 0.007738 0.23463 0.073997 0.052952 0.13351 
0.29744 0.076134 -0.10291 0.037332 0.25156 0.066434 0.048841 -0.069372 
0.27392 0.20882 -0.054904 0.056898 0.27129 0.05065 0.04506 -0.19614 
0.10277 0.3073 -0.0040998 0.069558 0.21654 0.034044 0.029112 -0.10341 
-0.048163 0.37076 0.017767 0.047033 0.072188 0.014972 0.031742 0.080902 
-0.10949 0.37734 0.033058 0.022371 -0.059343 0.025659 0.048348 0.23677 
-0.12297 0.25748 0.067091 0.04358 -0.11968 -0.017582 0.038977 0.29135 
0.25699 0.17511 0.11609 0.02122 -0.13366 -0.044381 0.027961 0.30993 
0.60834 0.033551 0.090438 0.0689 -0.12231 -0.011005 0.040292 0.21227 
0.74185 -0.018075 0.0786 0.038319 -0.10061 -0.0054151 0.01711 0.013164 
0.33213 0.065447 0.045882 0.055418 -0.059343 0.029276 0.062488 -0.13415 
-0.097322 0.13795 0.012013 0.034866 0.010697 0.053116 0.077121 -0.12692 
-0.20485 0.10491 -0.018239 0.016123 0.051143 0.069886 0.059364 -0.075949 
-0.13777 0.027961 -0.019555 0.023193 0.087972 0.029276 0.072846 -0.056383 
-0.057699 -0.15405 -0.047341 0.012013 0.067091 0.064461 0.092082 -0.17098 
-0.078744 -0.34213 -0.042573 0.017767 0.043416 0.033387 0.060679 -0.38916 
-0.0965 -0.34822 -0.045696 0.031742 0.027303 0.03799 0.01267 -0.3132 
-0.027611 -0.17525 -0.032708 0.0083956 -0.0014692 0.045882 0.016616 -0.05178 
0.01826 -0.022185 -0.031557 -0.018239 -0.038627 0.03092 0.012177 0.15883 
0.029605 0.039305 -0.0503 0.014972 0.017767 0.018754 0.0074092 0.24104 
0.05213 -0.037805 -0.034023 0.013164 0.040128 0.034866 0.020562 0.24367 
-0.019061 -0.074304 0.020562 0.079587 0.070708 0.019083 0.033058 0.16952 
-0.023336 -0.01939 0.045553 0.06594 0.075312 0.013492 0.020562 0.10524 
0.1345 0.09126 0.073832 0.056404 0.043745 -0.012156 -0.0044286 0.038648 
0.19139 0.1881 0.051965 0.039141 0.024508 -0.03353 -0.0027845 -0.012156 
0.14946 0.2828 0.069064 0.01974 0.066434 0.0095465 -0.008539 -0.10735 
-0.0078813 0.32835 0.065612 0.034044 0.12102 0.0016547 -0.00031829 -0.2374 
-0.074469 0.31519 0.06594 0.022206 0.12743 -0.01939 0.020398 -0.19729 
-0.35233 0.25535 0.051636 0.029934 0.063474 0.017438 0.033058 -0.080717 
-0.95655 0.15209 0.028619 0.0079024 0.013492 0.099645 0.0016547 -0.049314 
-0.68576 0.092082 0.027468 0.033387 -0.0049219 0.1562 0.039305 -0.10571 
0.72475 0.063145 0.074819 0.0592 -0.037147 0.1562 0.071366 0.02681 
1.5557 -0.015938 0.02681 0.051308 -0.029584 0.081889 0.079587 0.17988 
0.79002 -0.21077 -0.030242 0.033715 -0.018404 0.0044497 0.06331 0.059693 
-0.32569 -0.33441 -0.020377 0.054267 -0.035174 -0.086964 0.00050378 -0.087293 
-0.55965 -0.23083 -0.006566 0.040621 -0.029913 -0.1284 -0.011663 -0.029255 
0.16903 0.044896 0.022042 0.03799 -0.0024557 -0.063289 0.025824 0.12529 
0.54093 0.18152 0.05065 0.05213 0.059857 0.011848 0.0087245 0.14272 
0.35531 0.17232 0.071531 0.033551 0.051308 0.027468 0.0087245 0.086163 
0.016945 0.14075 0.034866 0.038648 0.031414 0.048019 0.0082312 0.02533 
-0.31172 0.055089 -0.0004827 0.0060938 0.041607 -0.0068948 -0.039613 0.022371 
-0.36729 -0.0042642 -0.02646 0.013328 0.016781 -0.02794 -0.044874 0.085177 
-0.27061 0.010204 -0.011334 0.00033937 0.015301 -0.051944 0.06331 0.084355 
-0.15733 0.058213 -0.0075525 0.040456 -0.015609 -0.03912 0.10918 0.1202 
-0.20814 0.0095465 -0.01528 0.0087245 0.024837 0.031578 0.099645 0.11198 
-0.3058 -0.16013 -0.020541 0.048184 0.025659 0.077778 0.08156 0.062652 
-0.26174 -0.3885 -0.016924 0.030427 0.053116 0.08567 0.021384 -0.014622 
-0.18972 -0.53779 -0.011498 0.07301 0.10326 0.098001 -0.023007 -0.066577 
0.19681 -0.4296 0.035853 0.076463 0.14568 0.095864 -0.024816 -0.056712 
0.67131 -0.073482 0.079916 0.081231 0.087808 0.063639 -0.039942 0.068407 
0.7767 0.27244 0.1026 0.022535 0.0018191 0.095699 -0.068714 0.27327 
0.39082 0.34577 0.11099 0.013164 -0.069536 0.1026 -0.053424 0.23512 
-0.0072237 0.22772 0.11428 0.051965 -0.03353 0.052787 -0.084663 0.10277 
-0.16555 0.13154 0.084519 0.049499 0.014643 0.015301 -0.056055 -0.029748 
-0.14944 0.095535 0.063145 0.053938 0.05772 -0.021692 -0.023172 -0.10012 
-0.076113 0.11625 0.0095465 0.0013258 0.045882 -0.031557 -0.0054151 -0.1011 
-0.010512 0.1687 1.0539e-005 0.013492 0.015794 0.05213 -0.013143 -0.092226 
-0.019555 0.16327 -0.0014692 -0.004593 0.00050378 0.092247 0.042265 -0.1307 
-0.061151 0.045718 0.037661 0.053609 -0.011663 0.087479 0.075148 -0.15651 
-0.069865 -0.17657 0.043251 0.031578 -0.004593 0.053281 0.10014 -0.069536 
-0.17509 -0.32323 0.014643 0.051472 -0.006566 -0.0049219 0.1054 0.1077 
-0.53072 -0.28673 0.034537 0.037497 0.016781 -0.013143 0.084355 0.2001 
-0.55045 -0.14747 0.05476 0.037168 0.08715 0.00066819 0.049499 0.27639 
0.27392 -0.013143 0.039799 0.038648 0.098166 0.020891 0.033058 0.31338 
1.0269 0.058706 0.004943 -0.00031829 0.070708 0.058706 0.040621 0.22115 
0.91777 0.027139 0.0087245 0.016781 0.025001 0.059857 0.054267 0.066434 
0.35843 -0.058521 0.025824 0.020398 0.011684 0.051636 0.059693 0.0062583 
-0.0503 -0.097816 0.029769 0.031907 -0.013143 0.044896 0.0324 -0.052109 
-0.23888 -0.15766 0.030756 0.031907 -0.017253 0.063803 0.00083261 -0.084005 
-0.3224 -0.12379 0.015794 0.0786 0.00033937 0.050814 -0.00081153 -0.05326 
-0.33326 0.054267 0.043416 0.069393 -0.034352 0.089945 -0.0024557 -0.073318 
-0.30646 0.15259 0.038812 0.088301 -0.020377 0.070873 -0.0004827 -0.04619 
-0.14533 0.23627 0.031742 0.044402 0.0065871 0.034209 0.025001 0.035031 
-0.093705 0.24466 0.027303 0.04506 0.0093821 0.018918 0.037332 0.12217 
-0.048492 0.18678 0.017274 -0.011498 -0.003771 -0.015444 -0.0050863 0.1835 
0.35038 0.11428 0.0085601 -0.03616 -0.026131 -0.029255 -0.021528 0.18284 
0.67115 0.10014 0.011026 -0.013471 0.041936 0.027796 0.0227 0.13286 
0.41137 0.077943 0.042758 0.0044497 0.10984 0.030592 -0.014622 0.0028056 
-0.30646 0.10178 0.041114 0.031414 0.1026 -0.020212 -0.059178 -0.17131 
-1.0065 0.14206 0.059528 0.039634 0.038812 -0.033859 -0.068386 -0.24612 
-0.83357 0.12233 0.048348 0.054596 -0.043395 -0.036818 -0.036489 -0.18545 
0.16541 0.015301 0.025659 0.020727 -0.12494 0.00297 0.064296 -0.03616 
0.9694 -0.13399 0.026317 0.031249 -0.1159 0.043087 0.16804 0.15604 
0.84346 -0.18216 0.045718 0.021878 -0.020048 0.061666 0.15982 0.23627 
0.36698 0.01563 0.082875 0.064132 0.035524 0.060515 0.1225 0.19895 
-0.032215 0.21901 0.098001 0.051308 0.06594 0.034209 0.10277 0.19451 
-0.23165 0.3147 0.08156 0.034044 0.093726 0.0324 0.06742 0.30467 
-0.21981 0.35334 0.055747 0.0083956 0.10721 0.076792 0.071202 0.38014 
-0.090581 0.2468 0.038155 0.025824 0.099974 0.054925 0.099481 0.33706 
-0.042408 0.15916 0.087643 0.031742 0.076299 0.038648 0.082382 0.011026 
-0.3155 0.060679 0.10836 0.037661 0.0324 0.036675 0.0070803 -0.34263 
-0.79624 -0.045368 0.054925 0.015794 0.014808 -0.026624 -0.010841 -0.43651 
-0.83883 -0.0965 0.026317 0.01826 0.010369 -0.083018 -0.020706 -0.28212 
-0.16194 -0.051615 0.028947 0.047197 0.015794 -0.079566 -0.011992 -0.065262 
0.91662 0.069064 0.020562 -0.0039354 0.030756 -0.068879 0.020727 0.095371 
1.1522 0.17741 0.019576 0.041607 0.050157 -0.069372 0.009711 0.066763 
0.56329 0.2491 0.0054362 0.01711 0.07038 -0.030077 -0.008539 -0.0047575 
-0.03057 0.31667 0.010204 0.051801 0.13894 0.007738 0.016123 0.0044497 
-0.26223 0.32358 0.0079024 0.045389 0.17149 0.047362 0.021384 0.11905 
-0.20189 0.20734 0.0032988 0.025166 0.10507 0.051801 -0.0016336 0.17001 
0.084684 0.00033937 -0.041586 -0.010676 -0.012649 0.056076 0.014808 0.18218 
0.25156 -0.031064 -0.048985 -0.021034 -0.099624 0.044238 0.031085 0.10507 
-0.18676 0.048184 0.013492 0.011684 -0.15503 0.0093821 0.0075736 0.0093821 
-0.48616 0.18185 0.12184 0.034209 -0.12231 -0.022514 0.0227 -0.06707 
0.022535 0.31092 0.21967 0.053445 -0.033201 1.0539e-005 0.025495 -0.021363 
0.79364 0.27162 0.21589 0.062652 0.042758 -0.0075525 0.034044 0.11888 
0.70387 0.059364 0.15768 0.066598 0.097837 0.0039565 0.055582 0.094713 
0.14075 -0.14928 0.056733 0.024344 0.10984 0.020069 0.073832 -0.0021268 
-0.24924 -0.21784 -0.0078813 0.028619 0.11822 0.023357 0.056898 -0.087622 
-0.32454 -0.12215 0.015301 0.035524 0.14338 0.02829 0.050979 -0.16638 
-0.30415 0.037826 -0.003771 0.059528 0.14848 0.04917 0.073832 -0.17723 
-0.26075 -0.0098543 -0.051287 0.027796 0.11411 0.050979 0.069722 -0.16901 
-0.22376 -0.16029 -0.10538 0.018918 0.049828 0.032564 0.06331 -0.024158 
-0.022185 -0.19729 -0.15947 0.011355 0.044896 0.079258 0.081889 0.2343 
0.37668 -0.18791 -0.12675 0.012835 0.076956 0.11231 0.077778 0.38737 
0.58006 -0.2157 -0.10439 0.013164 0.080573 0.11576 0.033387 0.31453 
0.54981 -0.14944 -0.079072 0.0093821 0.025988 0.062981 0.019411 0.15982 
0.33969 0.030756 -0.071181 0.0087245 -0.018897 0.010697 -0.018897 -0.038462 
-0.099131 0.24778 -0.068879 -0.01117 -0.044874 0.01563 -0.051615 -0.1108 
-0.53516 0.37339 -0.0095255 0.01152 -0.013143 -0.0047575 -0.032215 -0.0091966 
-0.58234 0.33081 0.053938 0.011026 0.034044 0.0031344 -0.027118 0.10113 
-0.20008 0.22296 0.099152 0.050486 0.052787 0.029769 -0.02646 0.11115 
0.23956 0.087808 0.1151 0.018918 0.032071 -0.013965 0.013821 0.048513 
0.43028 -0.0047575 0.097672 0.053938 0.030263 -0.052931 0.022864 -0.061151 
0.31453 -0.033201 0.055418 0.014315 0.044238 -0.033859 0.027468 -0.17558 
-0.20863 -0.088773 0.017603 0.0095465 0.018918 -0.0036066 0.069558 -0.36154 
-0.81153 -0.11294 0.0013258 -0.012814 0.0016547 0.044402 0.0227 -0.58695 
-0.6075 -0.0965 -0.020212 0.017603 -0.019061 0.073832 0.0087245 -0.45673 
0.49539 -0.093705 -0.01232 0.034866 0.024837 0.067585 0.025988 -0.021856 
1.0431 -0.041586 -0.022843 0.04654 -0.0019624 0.10162 0.068242 0.18317 
0.81041 -0.027282 -0.0082102 0.047855 -0.009361 0.12858 0.10852 0.1562 
0.52186 -0.031886 0.0070803 0.046704 -0.0016336 0.073175 0.068736 0.18284 
0.29711 0.053774 0.004943 0.062652 0.0060938 0.037826 0.057062 0.38277 
-0.2397 0.033222 -0.0059084 0.016781 -0.00015387 0.02533 0.013328 0.37405 
-0.67918 -0.068057 -0.045696 0.0072447 -0.027447 -0.014129 0.01974 0.11937 
-0.70417 -0.11442 -0.047669 -0.015609 -0.01117 -0.0060728 -0.003771 -0.039942 
-0.44062 -0.12757 -0.024158 0.040292 0.02681 -0.0034422 0.019247 -0.049807 
0.018096 -0.10554 -0.0096899 0.029441 0.069229 -0.0036066 0.032729 0.029276 
0.39378 -0.025309 0.02681 0.034537 0.078272 0.034866 0.071202 0.17791 
0.34429 0.032071 0.039799 0.013164 0.0421 0.017603 0.03651 0.16738 
0.29546 0.050486 0.064954 0.016781 0.023522 0.015959 0.037332 0.067091 
0.025495 0.08304 0.072024 0.024344 0.020398 -0.00031829 1.0539e-005 -0.016924 
-0.15865 0.097179 0.10162 0.022864 -0.0096899 -0.011992 -0.014129 -0.03616 
-0.096665 0.099481 0.096028 0.051308 -0.087458 -0.0049219 -0.0062372 -0.025309 
0.0056006 0.12299 0.089616 0.017274 -0.15355 0.0052718 -0.0070593 -0.020541 
0.032729 0.079587 0.075476 0.041936 -0.12692 -0.0083746 -0.0031133 -0.026789 
0.061501 0.079422 0.051801 0.022864 -0.031557 -0.00097594 -0.004593 0.042594 
0.067585 0.11954 0.046211 0.039963 0.069722 -0.0096899 0.029441 0.099481 
0.06183 0.1322 0.064954 0.019905 0.12644 -0.0088678 0.026481 0.10277 
-0.0029489 0.10129 0.077778 0.041278 0.17297 0.0069159 0.028619 0.065612 
-0.0026201 0.15028 0.054103 0.035853 0.21178 0.027632 0.033551 0.040785 
-0.01232 0.12102 0.064461 0.055254 0.19944 0.043251 0.022864 0.0032988 
0.0044497 0.048184 0.074326 0.040292 0.10852 0.044731 0.010697 -0.075127 
0.018096 -0.026789 0.059693 0.031907 0.036017 0.013164 0.036017 -0.28344 
-0.00064712 -0.17887 0.060186 0.026974 -0.044052 0.0018191 -0.0024557 -0.36959 
0.0032988 -0.24201 0.080409 0.028125 -0.10719 0.0021479 -0.0004827 -0.13662 
-0.014622 -0.1478 0.081231 0.036839 -0.12823 0.0052718 0.031414 0.17856 
0.031085 -0.0088678 0.097015 0.0024767 -0.12346 0.007738 0.032564 0.37438 
0.050486 0.1299 0.099152 0.031414 -0.13119 0.017767 0.017438 0.37224 
0.086985 0.19961 0.10737 -0.0024557 -0.055232 0.0065871 0.049335 0.26899 
-0.0055795 0.22427 0.11707 0.032564 0.051308 0.022535 0.041443 0.14157 
-0.3446 0.23578 0.093233 0.013657 0.11674 0.0098754 0.037497 0.033715 
-0.44851 0.18629 0.049664 0.034866 0.14174 -0.013636 0.027632 -0.053095 
0.26061 0.18514 0.032729 0.034537 0.14897 0.0011614 0.010533 -0.048985 
0.94276 0.20125 0.023522 0.030263 0.13483 -0.0021268 0.025001 -0.045532 
0.7864 0.13434 0.032729 0.033551 0.10918 -0.0050863 0.035853 -0.022679 
0.22592 0.1003 0.012999 0.038319 0.10951 0.037332 0.018589 -0.0052507 
-0.16654 0.12908 0.029276 0.050157 0.10852 0.046704 0.028125 -0.029584 
-0.30695 0.11411 0.028783 0.048677 0.13828 0.0090533 0.064625 -0.049478 
-0.25697 0.083862 0.053938 0.087643 0.074983 0.019576 0.019576 -0.034681 
-0.17164 -0.010183 0.052787 0.023028 0.019247 -0.0095255 0.03651 0.054596 
-0.10094 -0.25697 0.055254 0.032729 0.012835 -0.0024557 0.038977 0.10902 
-0.028104 -0.33868 0.067091 0.010862 0.0047785 0.029276 0.049828 0.14502 
0.0051074 -0.23379 0.1054 0.023522 0.027139 0.033058 0.048841 0.12168 
-0.019061 -0.017088 0.12184 -0.021528 0.043416 0.035853 0.08567 0.10918 
-0.053753 0.21441 0.074983 0.0062583 0.010204 0.0592 0.058049 0.07449 
-0.20156 0.29152 0.021878 0.0062583 0.018425 0.049664 0.016288 0.018589 
-0.23198 0.13615 -0.012156 0.010862 0.013328 0.058213 0.033222 -0.012978 
-0.14714 0.0074092 -0.03616 0.025001 0.043745 0.057555 0.039963 -0.031392 
0.036017 -0.0064016 -0.042244 0.011355 0.062488 0.046375 0.041114 0.047855 
0.34248 0.16426 -0.032543 0.03799 0.050979 0.066927 0.0786 0.15193 
0.62166 0.32637 0.017932 0.032236 0.019905 0.022371 0.07301 0.16656 
0.57365 0.27557 0.0083956 0.045553 -0.022679 -0.0082102 0.022864 0.1128 
0.25041 0.14749 0.021713 0.01152 -0.037805 -0.01939 0.026646 -0.0070593 
-0.16144 0.058049 0.076627 0.04095 -0.014787 -0.0090322 -0.0019624 -0.1108 
-0.55472 -0.040764 0.098001 0.034209 0.010369 -0.0088678 -0.010676 -0.20929 
-0.61966 -0.084663 0.078436 0.096028 0.016781 0.0085601 -0.0098543 -0.2254 
-0.31879 -0.089924 0.040292 0.052294 0.10589 0.0075736 -0.0019624 -0.13004 
0.29415 -0.045532 -0.011334 0.0592 0.14601 0.029934 0.0056006 0.083533 
0.60538 0.03388 -0.052109 -0.0029489 0.13532 0.058377 0.037168 0.23282 
0.34594 0.056076 -0.089431 0.014643 0.11378 0.067585 0.060022 0.1659 
-0.255 -0.03057 -0.08269 0.034209 0.14058 0.077778 0.034537 0.024344 
-0.68395 -0.13168 -0.058685 0.023686 0.11707 0.057391 0.023851 -0.061809 
-0.37929 -0.18495 -0.074798 0.01004 0.070873 0.042265 0.057227 0.028125 
0.078929 -0.13316 -0.099131 -0.033694 -0.029255 0.018589 0.031085 0.12612 
-0.15059 0.087808 -0.051615 -0.0019624 -0.10521 0.0023123 0.01267 0.067256 
-0.022843 0.29086 0.032729 0.033058 -0.12642 -0.044874 0.063145 0.068078 
0.95312 0.35301 0.12694 0.083697 -0.10801 -0.024158 0.067913 0.22608 
1.5291 0.31651 0.13138 0.080738 -0.13497 -0.0091966 0.078929 0.29513 
0.89442 0.20914 0.093726 0.088301 -0.098638 0.028125 0.057391 0.21342 
0.03947 0.12727 0.07449 0.031907 -0.016924 0.08156 0.0011614 0.03651 
-0.43092 0.026481 0.068078 0.036346 0.071859 0.14009 -0.012485 -0.1284 
-0.51839 -0.18019 0.076134 0.021056 0.097672 0.1544 0.0079024 -0.15914 
-0.44637 -0.23938 0.071202 0.0090533 0.089452 0.12908 -0.0091966 -0.13875 
-0.31764 -0.13908 0.046046 0.012013 0.085999 0.075805 -0.017417 -0.073318 
-0.17591 -0.064768 0.011191 0.0098754 0.038648 0.027139 0.0088889 -0.020706 
-0.089924 -0.032379 -0.025967 0.00066819 0.007738 0.0031344 0.0019835 0.012835 
-0.0016336 0.04095 -0.056877 0.0065871 0.0069159 0.023522 0.037332 0.047362 
0.053116 0.10524 -0.058192 0.030756 0.03799 0.11395 0.10014 0.11165 
-0.02498 0.20339 -0.033037 0.031742 0.049335 0.1197 0.059528 0.13565 
0.060186 0.30763 -0.025309 0.070051 0.01974 0.062159 0.037004 0.17215 
0.18054 0.28708 0.0074092 0.040456 0.010862 0.018425 0.077943 0.12924 
0.18629 0.20339 0.024179 0.050814 -0.03501 -0.058192 0.034537 0.023193 
0.16475 0.098659 0.030756 0.014315 -0.065426 -0.099953 0.0014903 -0.023994 
0.17149 -0.063124 -0.0083746 0.0087245 -0.06855 -0.11015 0.015959 -0.0068948 
0.18942 -0.067728 0.024179 -0.015773 -0.030899 -0.1011 0.011191 0.041114 
0.21704 -0.006566 0.071859 0.048348 0.042923 -0.08532 0.031907 0.048513 
0.16673 1.0539e-005 0.071202 0.033387 0.034702 -0.04323 0.034209 0.037004 
0.02122 -0.0771 0.035031 0.0064227 0.00297 -0.029255 -0.0062372 -0.0073881 
-0.10176 -0.19909 0.0072447 0.0032988 0.0039565 -0.013965 -0.034023 -0.046025 
-0.083018 -0.23921 0.015301 -0.0059084 0.037168 0.065118 -0.0098543 -0.034188 
0.054103 -0.15848 0.010204 0.024179 0.040292 0.12299 -0.0083746 -0.010183 
0.20734 -0.096665 0.059857 0.023357 0.055582 0.16541 0.018425 0.02681 
0.16196 0.054925 0.14716 0.069393 0.045718 0.1927 0.088136 -0.0059084 
-0.010841 0.2297 0.18629 0.044567 0.11674 0.15933 0.08978 -0.085813 
-0.16523 0.25091 0.092904 0.047197 0.10376 0.10047 0.061501 -0.17558 
-0.29939 0.17939 0.045882 -0.00081153 0.040456 0.014972 0.028125 -0.22639 
-0.56245 0.1516 -0.046683 -0.0078813 0.0092177 -0.053588 -0.0072237 -0.1524 
-0.56952 0.2121 -0.067728 -0.02646 -0.0047575 -0.041586 -0.043888 -0.0080457 
0.0026412 0.2805 -0.089924 -0.024158 -0.042737 -0.056383 -0.0029489 0.16574 
0.58187 0.11987 -0.068057 0.032893 -0.051615 -0.031228 0.049664 0.32276 
0.61804 -0.13727 -0.02235 0.072353 -0.057863 -0.0087034 0.073339 0.32325 
0.28478 -0.29577 -0.011992 0.10507 -0.05885 -0.00015387 0.060844 0.16673 
-0.020541 -0.34855 -0.014622 0.056898 -0.0064016 -0.0077169 0.050157 -0.076935 
-0.19054 -0.2545 -0.032215 0.044731 0.072353 0.012342 0.01563 -0.3081 
-0.20814 -0.0138 -0.026789 -0.018075 0.11165 0.01974 0.038648 -0.25467 
-0.14566 0.099645 -0.0073881 -0.0073881 0.12529 0.039305 0.058377 -0.040764 
-0.073976 0.14075 0.026974 -0.020706 0.13795 0.064625 0.051965 0.090931 
-0.060987 0.15407 0.053938 0.046868 0.20997 0.053774 0.021384 0.12842 
-0.056055 0.10211 0.13878 0.063803 0.22542 0.047197 0.027468 0.095042 
-0.064768 0.056569 0.23331 0.05772 0.16278 0.033222 -0.0024557 0.04506 
-0.02235 0.068078 0.28297 0.036839 0.081889 0.0093821 -0.021199 -0.013471 
0.00017495 0.027796 0.26061 0.012342 -0.025967 -0.0095255 0.0087245 -0.079566 
0.035031 0.010862 0.17149 0.014972 -0.11771 -0.018733 0.0059294 -0.047669 
-0.022843 0.05476 0.055911 -0.0031133 -0.13793 -0.009361 0.01826 -0.025638 
-0.21734 0.032893 -0.059178 0.024015 -0.094856 0.0082312 0.043745 -0.043559 
-0.17049 0.063803 -0.088773 0.035195 -0.047176 0.0082312 0.035688 -0.019226 
0.026974 0.14437 -0.077593 0.062652 -0.043559 0.00083261 0.044238 0.050321 
0.19731 0.14157 -0.073976 0.032729 -0.013965 0.041114 0.033551 0.091096 
0.40233 0.11773 -0.1381 0.043909 0.0083956 0.023851 0.0098754 0.090274 
0.6797 0.12529 -0.14221 0.0026412 0.093891 0.049828 0.03388 0.19566 
0.52235 0.13154 -0.13695 0.040128 0.12973 0.045882 0.042923 0.13713 
-0.13464 0.070873 -0.13366 0.015959 0.11362 0.070215 0.017767 0.0689 
-0.44045 0.017274 -0.091404 0.039634 0.095864 0.08008 0.0046141 -0.021528 
-0.43486 -0.016266 -0.0088678 0.049828 0.11888 0.063968 0.024015 -0.036818 
-0.18019 -0.024487 0.073832 0.034702 0.069229 0.027796 0.013328 -0.019061 
0.014808 -0.0026201 0.14289 0.021549 0.057391 0.01415 -0.003771 -0.010512 
0.066763 0.012177 0.20767 0.018096 0.058213 0.0064227 0.039963 0.026481 
0.089287 0.081067 0.24367 0.064954 0.035524 0.027468 0.048677 0.070873 
0.13434 0.11494 0.24499 0.050157 0.040785 0.043251 0.062323 0.054267 
0.15456 0.14897 0.21424 0.077449 0.053116 0.054596 0.091918 0.11263 
0.12546 0.19188 0.2006 0.038483 0.061501 0.034209 0.062323 0.18613 
0.11477 0.20438 0.14091 0.038977 0.045224 -0.0019624 0.044896 0.23989 
0.096028 0.22065 0.058871 -0.018239 -0.015773 -0.017582 0.025166 0.28987 
0.050814 0.20701 -0.018075 -0.0078813 -0.028104 -0.034845 0.0018191 0.23841 
-0.021363 0.14996 -0.038298 -0.017582 -0.052931 -0.0062372 -0.0072237 0.046046 
-0.08384 0.01152 -0.082854 -0.0047575 -0.045861 -0.0095255 -0.0034422 -0.23592 
-0.10669 -0.077593 -0.090253 0.024344 -0.017582 0.032729 0.043416 -0.35282 
0.043745 -0.15816 -0.064768 0.035688 0.054103 0.062323 0.013821 -0.2379 
0.23825 -0.15322 -0.0032777 0.043251 0.066598 0.012835 -0.014129 -0.080059 
0.27623 -0.17345 0.023522 0.031085 0.04095 -0.021528 -0.02087 0.067256 
0.20964 -0.16966 0.042923 0.052952 -0.028269 -0.0034422 0.0018191 0.2537 
0.11461 -0.026953 0.065612 0.038483 -0.059672 0.022206 0.038812 0.31963 
0.070873 0.15768 0.074654 0.055089 -0.039284 0.034044 0.081889 0.2463 
0.068078 0.30171 0.043087 0.043251 0.03799 0.036182 0.052952 0.15111 
0.077449 0.45346 0.052952 0.088136 0.06479 0.03388 0.03536 0.12743 
-0.0047575 0.49259 0.065612 0.04095 0.015465 0.065612 0.063639 0.10655 
-0.33802 0.4293 0.062817 0.06742 -0.012649 0.040292 0.057062 0.083533 
-0.63841 0.2394 0.066269 0.042594 0.017767 0.029605 0.049006 0.061501 
-0.16802 -0.12922 0.10359 0.029769 0.017438 0.041936 0.054925 0.10902 
0.72935 -0.42944 0.090438 0.01267 -0.055232 0.01152 0.024673 0.16475 
0.92205 -0.49668 0.050486 -0.0062372 -0.073811 -0.032543 0.0083956 0.11083 
0.38918 -0.37831 0.037497 1.0539e-005 -0.0026201 -0.038298 0.01826 0.068078 
-0.22737 -0.16144 0.030756 -0.00097594 0.0064227 -0.019884 0.0080668 0.038977 
-0.67688 -0.019884 0.032564 0.025659 -0.017417 -0.019061 0.012999 -0.02646 
-0.69053 -0.00097594 0.021713 -0.01676 -0.030077 0.01267 0.022535 -0.046519 
0.17922 0.040292 0.022864 0.03651 0.014643 0.044073 0.066434 0.054596 
1.0424 0.065776 0.07301 0.035688 0.069393 0.066269 0.093233 0.13121 
0.88357 0.0083956 0.068078 0.087479 0.1322 0.06035 0.12776 -0.001798 
0.32407 -0.02498 0.057555 0.048348 0.12102 0.016452 0.024508 -0.40757 
-0.32997 0.053281 0.052459 0.061337 0.11937 0.023686 -0.017417 -0.69809 
-0.5539 0.20043 0.029276 0.025659 0.089945 0.040292 0.02122 -0.66356 
-0.41086 0.21408 0.070215 -0.0050863 0.055089 0.044238 0.0046141 -0.17295 
-0.27061 -0.0054151 0.074819 0.032071 -0.0067304 0.026481 0.009711 0.33755 
-0.20501 -0.22589 0.01267 0.014315 -0.082525 0.0095465 0.013328 0.55672 
-0.16703 -0.25352 -0.026953 -0.0019624 -0.09798 -0.015938 1.0539e-005 0.43061 
-0.043559 -0.057205 -0.039613 -0.021856 -0.061809 0.013164 -0.016595 0.20125 
0.13697 0.22049 -0.034516 0.0082312 -0.045696 0.020891 0.012013 0.033222 
0.26883 0.40496 -0.0050863 -0.003771 -0.034023 0.015959 -0.0022913 -0.1718 
0.18596 0.36665 0.0085601 0.045224 -0.012814 0.032564 -0.019884 -0.35348 
-0.26683 0.21424 0.017932 0.049992 0.05624 0.016945 -0.013307 -0.36006 
-0.67376 0.079258 0.0074092 0.07038 0.06594 -0.025145 0.010369 -0.16588 
-0.41333 0.041607 0.010369 0.042594 0.072024 0.047033 0.045718 0.17199 
0.61919 0.087808 0.053774 0.048184 0.13828 0.021713 0.091918 0.36254 
1.4436 -0.040928 0.044073 0.055254 0.20536 0.046704 0.094877 0.32769 
1.1532 -0.22359 0.030592 0.038155 0.2565 0.053774 0.058706 0.21589 
0.15505 -0.30596 -0.0027845 0.048513 0.17429 0.044896 0.020398 0.063145 
-0.60898 -0.25269 -0.006566 0.013164 0.038977 0.055254 0.0060938 -0.096665 
-0.78868 -0.12133 0.011026 -0.0088678 -0.055068 0.042594 -0.0049219 -0.29314 
-0.23066 0.051143 0.023686 -0.0087034 -0.109 0.028454 0.009711 -0.44999 
0.2828 0.15324 0.052294 0.027961 -0.098638 0.044238 0.031907 -0.42352 
0.13335 0.18235 0.065447 0.025001 -0.053753 0.038155 0.019247 -0.24168 
-0.097651 0.17232 0.046704 0.019083 -0.0078813 0.020727 0.0019835 -0.088115 
-0.13727 0.08567 0.033551 0.0087245 0.069558 0.021878 0.022206 0.090438 
-0.10225 0.034537 0.025495 0.036182 0.11198 -0.0057439 0.0042853 0.20224 
-0.092226 -0.012649 0.038319 0.023193 0.10852 -0.0095255 0.025166 0.23151 
-0.026131 -0.048327 0.030263 0.017767 0.071695 0.073668 0.12036 0.22772 
0.087479 0.023851 0.016616 0.012835 0.041443 0.090109 0.14157 0.14946 
0.049828 0.15374 0.02122 -0.0013048 0.036346 0.074161 0.10869 0.063968 
-0.26206 0.15226 0.010533 -0.00031829 0.058049 0.034044 0.055418 0.0039565 
-0.25713 0.15801 0.0062583 -0.0052507 0.032729 -0.03205 -0.032379 -0.036489 
0.20684 0.18826 0.0052718 -0.0004827 0.011355 -0.038627 -0.047012 0.016781 
0.45198 0.21835 0.0051074 0.01152 0.046211 -0.048985 -0.062138 0.07038 
0.3461 0.20701 0.027303 0.051801 0.094384 -0.010183 -0.082854 0.048348 
0.10902 0.10408 0.052294 0.038483 0.10655 0.062981 -0.081374 0.020233 
-0.073154 -0.026789 0.034373 0.07449 0.067091 0.069558 -0.052602 0.088794 
-0.039613 -0.018897 0.032236 0.032893 0.037661 0.056076 -0.046025 0.13943 
0.041772 0.05772 0.027139 0.055582 0.0054362 0.05476 -0.028433 0.12727 
0.088301 0.11921 0.024179 0.0011614 -0.032708 0.052294 0.012506 0.10721 
0.079751 0.18004 0.031249 0.017438 -0.011498 0.015465 0.086985 0.087808 
0.037661 0.16558 0.034702 0.0051074 -0.031392 -0.014951 0.13286 0.11132 
0.0047785 0.12201 0.04917 0.042265 -0.023501 0.012013 0.17774 0.1835 
0.029605 0.10014 0.059857 0.040785 -0.0077169 0.032893 0.17462 0.24811 
0.031742 0.044896 0.041607 0.028619 0.0085601 0.093233 0.15867 0.25567 
0.052952 0.022535 0.018425 0.031249 -0.00064712 0.08567 0.10622 0.18859 
0.018096 0.035195 0.014479 -0.0027845 -0.0049219 0.051801 0.020398 0.042758 
-0.009361 0.01004 0.0087245 0.040128 0.00033937 0.028619 -0.045039 -0.0771 
-0.025967 -0.066741 0.012013 0.023028 0.03388 0.00099702 -0.024158 -0.045203 
-0.010348 -0.10587 0.013821 0.053609 0.042429 -0.018239 -0.013307 0.016452 
-0.0055795 -0.15191 0.014479 0.010369 0.028454 -0.060823 -0.023172 -0.076113 
-0.0024557 -0.052273 0.029441 0.032564 0.038648 -0.066906 -0.02942 -0.23411 
0.0056006 0.079587 0.045882 0.062981 0.052294 0.0062583 -0.028926 -0.077264 
-0.0062372 0.10902 0.072846 0.072024 0.052787 0.012177 -0.0004827 0.11395 
0.0090533 0.051143 0.068407 0.054432 0.044238 0.038319 0.041443 0.18695 
-0.0098543 0.0028056 0.051143 0.030592 0.007738 0.060186 0.046046 0.23693 
0.025166 0.018589 0.050979 0.015794 -0.037311 0.0079024 0.066269 0.2172 
-0.081868 0.075641 0.052459 0.022371 -0.065097 0.021878 0.073339 0.19484 
-0.39836 0.12957 0.033387 0.03799 -0.016595 0.034702 0.069558 0.14223 
-0.35529 0.14009 0.0039565 0.010533 0.012506 -0.0029489 0.029112 0.087808 
0.32111 0.19895 0.013492 0.036675 0.023357 0.014315 0.073175 0.095864 
1.0427 0.14683 0.044731 0.041772 0.037332 0.0079024 0.11773 0.15078 
0.78723 -0.012814 0.064461 0.065283 0.049828 -0.056383 0.056076 0.098166 
0.04506 -0.044381 0.040128 0.025166 0.018754 -0.071016 0.017603 0.0021479 
-0.39754 0.10441 0.029112 0.062159 0.053774 -0.018404 0.0018191 -0.17525 
-0.40691 0.20224 0.045224 0.025495 0.072846 0.016616 -0.024487 -0.33161 
-0.21504 0.20339 0.057062 0.021713 0.082875 0.068571 -0.016595 -0.21504 
-0.11031 0.097508 0.025166 0.023357 0.016288 0.060844 -0.011992 -0.058192 
-0.042573 0.0032988 0.024673 0.016781 -0.03912 0.05065 -0.01232 0.06331 
0.023028 -0.02794 0.020891 0.020233 -0.065591 0.055911 -0.0091966 0.11609 
0.062652 -0.03501 0.030592 0.022535 -0.052109 0.05624 0.019411 0.044896 
0.053445 -0.016102 0.048841 0.031907 -0.023007 0.086163 0.026646 -0.085649 
0.037497 0.029769 0.017767 0.041278 -0.029255 0.073339 0.027796 -0.15043 
0.021878 0.0067515 -0.008539 0.052459 0.04506 0.039141 0.040621 -0.057534 
0.020069 0.057062 0.0085601 0.027468 0.17807 0.026974 -0.0075525 0.084519 
0.0075736 0.079258 0.0056006 0.056898 0.28708 0.046868 -0.016102 0.12464 
0.020727 0.066598 -0.028269 0.013821 0.2468 0.035524 0.05065 0.073668 
-0.00064712 0.058706 -0.041257 0.023851 0.1322 0.029769 0.10408 0.05213 
-0.013307 0.015959 -0.018075 0.0062583 0.00033937 0.0075736 0.10113 0.041607 
0.037661 -0.023172 0.026481 0.048841 -0.057041 -0.0027845 0.11148 0.067749 
0.12529 -0.052602 0.059035 0.063803 -0.10998 -0.025474 0.042429 0.03947 
0.12842 -0.075784 0.08304 0.045224 -0.13415 -0.022021 0.070051 0.023028 
0.03388 -0.038791 0.088136 0.030592 -0.16424 -0.030077 0.019083 -0.0036066 
-0.14073 -0.024487 0.066927 0.026481 -0.13119 -0.010512 -0.030735 0.0085601 
-0.24776 -0.05885 0.0689 0.01267 -0.025145 0.011848 -0.0082102 -0.019884 
0.011684 0.046375 0.049499 -0.017911 0.13302 0.052787 0.039305 -0.028597 
0.37833 0.21375 0.055747 0.025495 0.25584 0.085835 0.016288 -0.027447 
0.44837 0.305 0.043416 0.028783 0.2662 0.079422 0.0059294 -0.029748 
0.21868 0.28165 0.038648 0.053609 0.16886 0.065447 -0.00031829 0.023522 
0.05772 0.2024 0.01826 0.011026 0.032236 0.060679 0.0054362 0.045224 
-0.053917 0.063145 0.0098754 0.018425 -0.039613 0.025988 -0.022185 0.075476 
-0.092061 -0.050136 -0.004593 0.016945 -0.10653 0.034866 0.0064227 0.085506 
-0.12609 -0.16358 0.0085601 0.023193 -0.12642 0.040785 0.034209 0.055582 
-0.37567 -0.3474 -0.0014692 0.034373 -0.14829 0.020398 0.034044 0.00099702 
-0.59352 -0.30728 0.0072447 0.033551 -0.094856 -0.0004827 0.020069 -0.045532 
-0.066248 -0.10538 0.014643 0.036346 -0.0047575 0.005765 0.026646 0.0028056 
0.82767 0.13187 0.058706 0.018918 0.097344 0.038648 0.055582 0.13976 
0.93059 0.25074 0.069722 0.052787 0.13943 0.052623 0.059693 0.15111 
0.32588 0.15883 0.049664 0.042923 0.13023 0.029112 0.042758 0.05213 
-0.26124 -0.088115 0.00017495 0.031742 0.11263 -0.015938 0.01004 -0.012156 
-0.39803 -0.29856 -0.037311 -0.0078813 0.07449 -0.027611 0.011684 0.045882 
-0.11524 -0.24266 -0.055068 0.034373 0.084026 -0.026953 0.02681 0.14437 
0.13121 -0.0068948 -0.038133 0.024837 0.058213 0.030427 0.0062583 0.15768 
0.15966 0.15604 -0.018239 0.020562 0.022371 0.11411 -0.0034422 0.083862 
0.21013 0.19369 0.0064227 -0.0011404 0.027303 0.11937 0.027139 -0.019226 
0.14453 0.13746 0.025659 0.010697 0.0065871 0.065776 0.020398 -0.10521 
-0.05441 0.057227 0.034373 0.015301 -0.0067304 0.040785 0.0065871 -0.16506 
-0.18939 -0.021363 0.016781 0.0082312 -0.020212 -0.009361 0.013821 -0.18052 
-0.22409 -0.032543 0.033387 0.01711 -0.021363 -0.041422 -0.0021268 -0.11048 
-0.19186 0.044567 0.053938 0.024179 -0.050136 -0.079401 -0.030735 0.0085601 
-0.073482 0.20158 0.08567 0.043745 0.020891 -0.086636 0.044402 0.18843 
0.15818 0.34742 0.092082 0.024179 0.029769 -0.072989 0.026152 0.25732 
0.35317 0.3951 0.080409 0.041936 0.0052718 -0.098967 0.022535 0.16558 
0.34002 0.27902 0.06594 0.015959 -0.0072237 -0.098967 0.027961 0.027796 
0.1008 0.089123 0.057227 0.032729 0.017274 -0.049149 -0.00031829 -0.14089 
-0.19959 -0.22096 0.047362 0.010369 0.066269 0.0060938 0.0070803 -0.39754 
-0.13382 -0.47087 0.052294 0.07038 0.12398 0.047197 0.022535 -0.4079 
0.28921 -0.41957 0.031249 0.050979 0.10606 0.09833 0.047691 -0.049807 
0.08567 -0.23888 0.0060938 0.034209 0.052294 0.087314 0.049499 0.17412 
-0.7165 -0.074798 -0.022021 0.025001 0.029934 0.10063 0.047197 0.17807 
-0.64761 0.098988 -0.0057439 0.0085601 0.024344 0.072681 0.04654 0.010862 
0.53929 0.14437 0.00050378 -0.01232 0.0023123 0.025166 0.041772 0.1368 
1.4395 0.2662 -0.001798 -0.01232 0.027139 0.042758 0.10359 0.29941 
0.85085 0.31075 -0.021363 0.024508 0.11362 0.038483 0.062159 0.17971 
-0.0090322 0.23019 -0.017088 0.0032988 0.15489 -0.014129 0.0011614 -0.023829 
-0.5414 0.12464 0.040456 0.056076 0.14321 -0.010676 -0.014458 -0.15585 
-0.55637 0.08156 0.049828 0.046211 0.090274 -0.02646 -0.03353 -0.14287 
-0.30859 -0.058685 0.054267 0.0786 0.015794 -0.042737 -0.01117 -0.04619 
-0.13974 -0.24316 0.024344 0.042923 -0.064275 -0.049807 -0.00081153 0.03651 
-0.17147 -0.26815 0.0069159 0.046046 -0.11853 -0.062302 0.018918 0.092082 
-0.35479 -0.16342 0.0018191 0.032071 -0.086307 -0.021856 0.01004 0.12069 
-0.39803 0.051965 0.023851 0.038812 -0.043066 0.0075736 0.045224 0.11921 
-0.12544 0.27014 0.027796 0.031742 0.0054362 0.02829 0.035853 0.096521 
0.23874 0.40167 0.046046 0.036182 0.064461 0.058049 0.027303 0.089123 
0.60555 0.47188 0.072846 0.0227 0.083533 0.090603 0.055911 0.10852 
0.5702 0.39575 0.072353 0.0016547 0.084355 0.091425 0.054267 0.075805 
0.35613 0.28067 0.087808 0.018425 0.055747 0.092411 0.05476 -0.078908 
0.0085601 0.17889 0.078436 0.00297 0.02533 0.088301 0.017603 -0.3446 
-0.21011 0.15505 0.073997 0.045553 0.028454 0.054596 0.0069159 -0.41826 
-0.21027 0.1179 0.068078 0.047526 0.05772 0.068736 -0.0014692 -0.24661 
-0.2499 0.035195 0.069393 0.078272 0.099645 0.079258 0.0088889 -0.031228 
-0.18956 -0.10949 0.066105 0.060022 0.11477 0.093726 0.043087 0.072188 
0.15933 -0.10078 0.05772 0.070873 0.093069 0.11099 0.03651 0.10228 
0.48141 -0.050464 0.064132 0.035031 0.017603 0.077121 0.042758 0.19912 
0.41417 -0.096994 0.066763 0.031249 -0.040764 0.030098 0.049335 0.2708 
0.1202 -0.14763 0.040456 0.023851 -0.11771 0.034209 0.035524 0.28149 
-0.12757 -0.17723 0.012177 -0.001798 -0.12708 0.018754 0.034373 0.25452 
-0.23444 -0.21636 0.0095465 0.0011614 -0.087951 -0.0021268 0.041443 0.22838 
-0.21291 -0.26979 0.00033937 -0.001798 -0.055561 0.014315 0.0024767 0.13582 
-0.10604 -0.23658 -0.0049219 0.049828 0.027961 -0.0072237 -0.0059084 0.044731 
-0.03764 -0.10242 0.037826 0.03536 0.076299 -0.0090322 0.0024767 0.01974 
0.010862 0.096686 0.049499 0.075641 0.089945 0.010533 0.0075736 0.034702 
0.066105 0.22953 0.061172 0.06331 0.10326 0.041936 0.021713 0.071695 
0.10819 0.30451 0.079422 0.083697 0.13878 0.18202 0.070708 0.065447 
0.10178 0.293 0.078272 0.065447 0.14026 0.24663 0.05624 0.048348 
-0.065755 0.23381 0.061501 0.029934 0.095864 0.15785 0.044073 0.037168 
-0.15585 0.2029 0.02829 -0.0004827 0.026974 0.023357 0.03092 -0.0067304 
0.095699 0.21835 0.026646 0.0065871 -0.016431 -0.087622 -0.0019624 0.019905 
0.42617 0.17856 0.01004 0.026481 -0.0022913 -0.10604 0.0075736 0.048348 
0.26126 0.016288 -0.0014692 0.0324 -0.053917 -0.084005 0.036017 0.030098 
-0.1912 -0.095021 0.054925 0.012506 -0.082525 -0.039942 0.025001 -0.05441 
-0.41744 -0.19581 0.10951 -0.0098543 -0.070523 0.037332 0.050157 -0.088773 
-0.43569 -0.092719 0.10754 0.016123 -0.048492 0.060022 0.053445 -0.017253 
0.17725 0.070708 0.10852 0.0067515 -0.02646 0.070544 0.073504 0.19714 
0.9523 0.19303 0.14404 0.064296 -0.051451 0.038812 0.068078 0.34018 
0.93405 0.18481 0.14502 0.043745 -0.019719 0.040128 0.053116 0.20997 
0.09833 0.12266 0.099645 0.038977 0.036346 0.027632 -0.017911 -0.012156 
-0.4906 0.092904 0.034209 0.0095465 0.095535 0.041772 -0.040764 -0.16111 
-0.43338 0.0592 -0.040271 0.015137 0.14897 0.044731 -0.001798 -0.10045 
-0.094199 0.026481 -0.10719 -0.014129 0.17906 0.032236 -0.0034422 0.023028 
0.19057 0.0064227 -0.1256 -0.013636 0.17922 0.012835 0.012013 0.1197 
0.12792 0.029112 -0.085156 -0.0077169 0.14568 0.00297 0.045718 0.14897 
0.020562 -0.085813 -0.037805 0.014972 0.13943 0.011026 0.031742 0.14338 
0.0014903 -0.075127 -0.048985 0.058049 0.098988 0.00050378 0.02122 0.10819 
0.0098754 0.0060938 -0.057534 0.048348 0.087808 -0.025638 0.028783 0.092247 
0.0046141 0.018425 -0.055397 0.040128 -0.00015387 -0.057699 0.052294 0.058377 
-0.031228 0.0047785 -0.038627 0.016288 -0.067235 -0.045039 0.063474 -0.079895 
-0.23116 -0.027611 -0.06 0.043745 -0.074633 -0.039613 0.037497 -0.21965 
-0.54683 -0.11968 -0.073482 -0.0044286 -0.12396 -0.078908 0.0070803 -0.25812 
-0.46331 -0.092719 -0.061151 0.014643 -0.19087 -0.076442 -0.031886 -0.1552 
0.17396 0.042429 -0.0080457 0.00099702 -0.17361 -0.052109 -0.016924 0.039799 
0.36731 0.1516 0.098001 0.072517 -0.03912 -0.0055795 0.044073 0.20142 
0.45412 0.18843 0.17034 0.08156 0.088136 0.038155 0.089616 0.32999 
0.76684 0.21687 0.16015 0.068078 0.12497 0.025824 0.09274 0.39592 
0.81271 0.24597 0.14058 0.051308 0.15489 0.054103 0.092082 0.30451 
0.38901 0.22674 0.10047 0.0069159 0.18152 0.058871 0.045718 0.051965 
-0.12363 0.1761 0.06331 0.013492 0.17659 0.053281 0.010697 -0.19696 
-0.38488 0.028619 0.018589 -0.0024557 0.12201 0.025495 -0.0059084 -0.23724 
-0.36301 -0.023829 -0.030077 0.024508 0.042265 -0.02794 -0.0138 -0.071838 
-0.24973 0.01563 -0.063782 0.0062583 0.00083261 -0.038133 -0.035667 0.037661 
-0.22458 -0.004593 -0.072496 0.034209 -0.068714 0.0056006 0.013821 0.032729 
-0.12971 -0.028433 -0.078579 0.0028056 -0.086964 0.018096 0.040456 0.080902 
-0.011498 -0.049807 -0.044052 0.029934 -0.048985 0.027796 0.041278 0.11609 
0.065612 -0.084498 -0.020048 0.011848 0.031414 0.038977 0.055254 0.066269 
0.037661 -0.052109 -0.022679 0.023357 0.089452 0.018754 0.0052718 -0.056548 
0.031414 -0.016102 0.020398 0.050486 0.12842 0.0074092 -0.025967 -0.2471 
0.01415 -0.0075525 0.037332 0.050979 0.14453 0.024673 0.020727 -0.31714 
0.050157 -0.058521 0.03651 0.049499 0.098659 0.013328 0.020891 -0.14336 
0.13762 -0.15487 0.0079024 0.019083 0.0034632 0.042758 0.028783 0.05213 
0.15555 -0.094856 -0.0091966 0.030098 -0.037147 0.084026 0.044567 0.15078 
0.17725 -0.010183 1.0539e-005 0.026646 -0.050793 0.060679 0.049006 0.15423 
0.15028 0.088794 0.04095 0.065612 -0.039284 0.072024 0.030592 0.11165 
0.057391 0.10063 0.072681 0.035524 1.0539e-005 0.010533 0.028783 0.010369 
-0.008539 -0.0019624 0.11921 0.072846 0.029934 -0.003771 -0.0039354 -0.081703 
-0.039778 -0.1376 0.20421 0.037168 0.075805 0.030592 -0.024158 -0.061151 
0.034044 -0.080223 0.25107 0.087808 0.12036 0.049664 0.024179 0.0013258 
0.094055 0.083533 0.21293 0.071202 0.086985 0.043087 0.044731 0.055254 
0.079094 0.16607 0.15292 0.049992 0.020069 0.040292 0.026152 0.025988 
0.062159 0.21671 0.10343 0.051143 -0.015609 0.021384 0.038812 0.024837 
0.058377 0.18004 0.039634 0.028454 -0.043888 0.025001 0.0054362 0.016945 
0.025495 0.14963 -0.0090322 0.023357 -0.043724 0.06479 0.040621 -0.0050863 
-0.021528 0.147 -0.023172 0.018918 -0.047669 0.060515 0.058049 -0.016431 
-0.056219 0.17692 0.00066819 0.019576 0.0046141 0.059693 0.038483 -0.043066 
-0.03205 0.15686 -0.0040998 0.035195 0.032893 0.075805 0.073668 0.062323 
0.039634 0.16804 0.0082312 0.080738 0.071859 0.052952 0.098001 0.22674 
0.075476 0.14502 0.027303 0.03651 0.091753 0.032893 0.11724 0.28642 
0.072517 0.10787 0.023193 0.035195 0.099481 0.0062583 0.051965 0.25896 
-0.0004827 0.055089 0.052623 -0.0083746 0.032236 -0.034188 -0.010676 0.17741 
-0.069701 -0.072167 0.042594 0.011355 -0.015444 -0.011992 -0.050958 0.11066 
-0.064275 -0.12149 0.034702 -0.018404 -0.026953 -0.023665 -0.051287 -0.041257 
-0.0082102 -0.060329 0.045718 0.046211 0.0070803 -0.013307 -0.036654 -0.17756 
0.046046 -0.06148 0.05065 0.060186 0.013986 0.025166 0.007738 -0.27423 
0.058213 -0.12544 0.05213 0.046211 0.025824 0.045224 0.012506 -0.3543 
-0.063124 -0.29676 0.047033 0.040128 0.016781 0.058377 -0.004593 -0.44095 
-0.52726 -0.46183 0.034537 0.015137 0.020069 0.076792 0.0069159 -0.34016 
-0.7724 -0.40083 0.022864 0.024015 0.055582 0.080738 -0.0090322 -0.10028 
-0.18052 -0.09946 0.040292 0.016616 0.038648 0.10869 0.020727 0.20421 
0.90659 0.22789 0.079916 0.063145 0.028619 0.11822 0.090438 0.43505 
1.1466 0.48536 0.093069 0.025166 0.061995 0.042429 0.080409 0.54126 
0.59042 0.5771 0.078436 0.050157 0.040456 0.0088889 0.049992 0.40118 
0.01415 0.56724 0.082382 0.020562 -0.0096899 -0.0073881 0.039963 0.14733 
-0.3012 0.60292 0.055747 0.021713 0.0044497 0.0092177 0.021549 -0.064768 
-0.37485 0.53123 0.02829 0.0037921 0.021384 0.033387 0.015959 -0.3298 
-0.35529 0.25452 -0.018404 0.010369 0.033715 0.019247 0.034702 -0.49208 
-0.18611 -0.066413 -0.027447 -0.0022913 -0.006566 0.00017495 0.022371 -0.2203 
0.049335 -0.22951 -0.027611 -0.0054151 -0.012978 -0.011005 0.040456 0.13845 
0.098823 -0.16769 -0.011498 0.005765 0.012013 -0.0068948 0.078765 0.29497 
0.058706 -0.030735 -0.022843 0.016781 0.039305 -0.02235 0.07597 0.25814 
0.048348 0.012013 0.0028056 0.04506 -0.016924 0.016123 0.067913 0.21819 
0.044073 0.030098 -0.010183 -0.0026201 -0.075291 0.015137 0.026152 0.16278 
0.10063 0.045718 -0.042737 0.022042 0.015465 0.012506 0.005765 0.082053 
0.096357 -0.011992 -0.083676 -0.040435 0.13976 0.057227 -0.014458 -0.02794 
-0.0026201 -0.081539 -0.054739 0.024673 0.22246 0.066434 0.014808 -0.13464 
-0.18611 -0.10719 -0.062467 -0.0034422 0.19566 0.069886 -0.0059084 -0.1187 
-0.33983 -0.16276 -0.059672 0.00066819 0.092576 0.020069 -0.057863 -0.057699 
-0.16818 -0.18397 -0.053095 -0.0004827 -0.02794 -0.010512 -0.0021268 -0.041257 
0.30714 -0.19761 -0.035667 0.0074092 -0.13432 0.019576 0.020727 -0.013965 
0.2006 -0.13892 0.023851 0.012506 -0.19844 0.022535 0.011684 0.02829 
-0.55784 -0.12823 0.12957 0.015794 -0.18989 0.01004 0.0088889 0.018425 
-0.6703 -0.093376 0.21523 0.041443 -0.077922 0.021713 0.052294 -0.022021 
0.36156 0.0098754 0.18991 0.029441 0.011355 -0.0032777 0.094384 0.073832 
1.2313 0.20882 0.12464 0.046046 0.031742 -0.024652 0.12595 0.23808 
1.1815 0.33903 0.059528 0.04506 0.041936 -0.0091966 0.11724 0.29711 
0.28773 0.37685 0.013328 0.088465 0.055254 0.010204 0.040128 0.1391 
-0.40905 0.28691 -0.023829 0.070051 0.09833 0.022371 -0.0027845 -0.13925 
-0.35348 0.17001 -0.022514 0.055418 0.1174 0.030427 -0.059507 -0.098473 
0.21506 0.14502 -0.029255 0.016781 0.13976 0.044238 -0.042901 0.19007 
0.11526 0.13467 -0.060823 0.0023123 0.10014 0.041936 -0.056219 0.35745 
-0.22737 0.072353 -0.022679 -0.0062372 0.048019 0.060844 -0.063124 0.34479 
-0.44062 0.029441 0.078272 0.01415 0.014643 0.038977 -0.052766 0.21572 
-0.31303 0.038977 0.11411 0.021878 0.0060938 0.019247 -0.0098543 0.098001 
-0.0868 0.0070803 0.085999 0.029605 -0.013307 -0.034516 0.0065871 -0.0406 
0.071695 -0.0047575 0.023851 0.051965 -0.050629 -0.058028 0.026646 -0.22096 
0.13861 0.031907 -0.014951 0.050486 -0.099295 -0.030735 0.03536 -0.42911 
0.14486 0.020891 -0.026953 0.087643 -0.008539 -0.026789 0.10606 -0.55406 
0.089287 0.049664 -0.038462 0.069064 0.10277 -0.033201 0.1294 -0.53335 
-0.028104 0.074983 -0.027118 0.060022 0.1539 0.021056 0.097672 -0.29478 
-0.011827 0.03092 -0.045039 0.0072447 0.1516 -0.0031133 0.058377 0.08715 
0.14913 0.037332 -0.063453 0.030592 0.11691 0.029441 0.017767 0.39658 
0.30812 0.090274 -0.023994 0.045224 0.079422 0.068242 -0.009361 0.53847 
0.28132 0.084519 0.013821 0.059857 0.050321 0.09274 0.0088889 0.50114 
0.06479 0.0065871 0.050814 0.053281 0.041607 0.0786 0.011191 0.36189 
-0.10193 -0.078579 0.068407 0.034537 0.0039565 0.04917 -0.01232 0.25156 
-0.12544 -0.090417 0.09274 0.041443 -0.020541 -0.0070593 0.0024767 0.12809 
-0.076113 -0.014951 0.080902 0.023357 -0.017746 -0.030406 0.020069 0.053445 
0.067913 -0.035503 0.0786 0.049499 0.029441 -0.02235 0.051636 0.033715 
0.14371 -0.090088 0.061995 0.044402 0.054267 -0.030899 0.065447 -0.082854 
-0.021199 -0.12182 0.036017 0.066434 0.019247 -0.00064712 0.01563 -0.27588 
-0.20189 -0.16161 -0.006566 0.027796 0.033058 -0.0049219 -0.0070593 -0.28163 
-0.376 -0.044546 -0.025638 0.068736 0.02681 0.0034632 0.021549 -0.082525 
-0.32372 0.13746 -0.027775 0.015794 0.0093821 0.055911 0.012506 0.09274 
0.026152 0.2708 -0.02498 0.043416 0.025659 0.060844 0.011848 0.14272 
0.63859 0.34824 -0.023665 0.019905 0.045882 0.043087 0.065283 0.17824 
0.76667 0.47961 -0.00031829 0.021713 0.06035 0.023028 0.071695 0.21605 
0.46859 0.40315 -0.00081153 0.0074092 0.035031 -0.046519 0.082711 -0.0052507 
0.21424 0.23825 0.016123 -0.0055795 0.00033937 -0.067728 0.051308 -0.21554 
-0.25302 0.061337 0.055911 0.010369 -0.041915 0.0013258 0.044402 -0.12182 
-0.43306 -0.055726 0.058213 0.029276 -0.085978 0.045718 0.034702 -0.036325 
-0.26289 -0.14533 0.066763 0.039305 -0.023665 0.061995 0.038812 -0.017253 
-0.036489 -0.29002 0.059364 0.028619 0.075148 0.059528 0.01152 -0.049971 
0.092082 -0.35216 0.069558 0.046211 0.18169 0.068407 -0.0068948 -0.066413 
0.0059294 -0.19975 0.072024 0.034866 0.26669 0.091753 0.032071 -0.023665 
-0.28936 0.0059294 0.079751 0.06594 0.26636 0.055418 0.017932 0.022371 
-0.59385 0.15982 0.086657 0.020069 0.18843 0.06331 0.0227 0.046704 
-0.26996 0.16936 0.048677 0.0062583 0.04358 0.12168 0.050157 0.11214 
0.56987 0.1026 0.018589 -0.016924 -0.075949 0.097672 0.062323 0.18202 
0.97384 0.10852 -0.0047575 0.0075736 -0.13185 0.083204 0.066434 0.21852 
0.67345 0.1641 0.035031 0.047855 -0.13234 0.044567 0.070873 0.16903 
0.20158 0.20372 0.061008 0.058871 -0.14056 -0.028762 0.042594 0.030427 
-0.13021 0.15982 0.083862 0.048019 -0.086964 -0.06444 0.0056006 -0.072332 
-0.2573 0.06183 0.088794 0.031085 -0.0021268 -0.041751 0.038977 -0.047012 
-0.22507 -0.19942 0.043416 0.0018191 0.025495 -0.031392 0.069229 0.0054362 
-0.12889 -0.38044 0.033222 -0.033037 0.053445 0.004943 0.057884 0.0095465 
-0.037147 -0.27407 0.076627 0.019083 0.089616 0.041443 0.040621 -0.02498 
-0.0073881 -0.035174 0.092411 1.0539e-005 0.12151 0.053774 0.020069 -0.044217 
0.005765 0.19616 0.11839 0.049499 0.083533 0.078272 -0.01528 0.015959 
0.0042853 0.27343 0.12398 0.054103 0.049992 0.068078 -0.025638 0.071366 
0.043087 0.27475 0.099481 0.085012 0.0064227 0.039799 0.021713 0.096357 
0.043251 0.29168 0.12201 0.050157 0.016616 0.066434 0.042923 0.16097 
-0.052109 0.25683 0.099481 0.023028 0.040456 0.040456 0.068407 0.16377 
-0.25828 0.18563 0.056569 0.01004 0.045882 0.013657 0.040621 0.091918 
-0.30974 0.093069 0.0032988 0.011684 0.043087 0.011191 0.0011614 0.046211 
0.28099 0.0036276 -0.014129 -0.009361 -0.016266 -0.021692 0.0037921 0.097015 
0.90495 0.015959 -0.0014692 -0.020048 -0.036654 -0.052931 0.029441 0.17297 
0.85907 -0.0070593 0.021713 0.019411 -0.0055795 0.00297 0.027632 0.16771 
0.18366 -0.15766 0.047033 0.073832 0.03651 0.058871 0.048677 0.056076 
-0.49882 -0.31566 0.049335 0.07449 0.05624 0.1322 0.049335 -0.037147 
-0.52217 -0.18989 0.052787 0.037004 0.060515 0.14568 0.027796 -0.10637 
-0.018568 -0.00031829 0.035524 0.049828 0.032071 0.070708 0.0013258 -0.12873 
0.20208 0.052952 0.010369 0.01563 -0.027118 -0.00064712 0.027468 -0.1159 
-0.13843 0.069064 0.0085601 0.025001 -0.057863 -0.05589 0.00099702 -0.13859 
-0.59056 0.059364 0.024344 0.022864 -0.032379 -0.039942 0.013821 -0.12067 
-0.31583 0.01563 0.013986 0.0098754 -0.017253 0.038812 0.089287 -0.056383 
0.55589 -0.021528 0.042429 0.055911 0.046868 0.046868 0.061337 -0.015938 
0.84214 0.0088889 0.061008 0.036675 0.060844 0.033222 0.048841 0.071695 
0.2976 0.034702 0.032893 0.043251 0.055582 0.0018191 0.016123 0.14026 
-0.21981 0.093398 0.0087245 0.0070803 0.016945 -0.054904 0.0046141 0.091918 
-0.3788 0.12135 0.022042 0.038319 -0.0068948 -0.020212 -0.017911 0.052459 
-0.29396 0.075148 0.012506 -0.010512 -0.020706 0.01004 -0.0049219 0.035195 
-0.093705 -0.019719 0.0014903 0.032893 -0.0032777 0.0042853 -0.0096899 0.0085601 
0.10491 -0.062631 -0.013143 0.020562 -0.0073881 -0.049478 0.0018191 0.031578 
0.17133 0.0080668 -0.0082102 0.044402 -0.016431 -0.086636 0.010369 0.028619 
0.032564 0.04358 -0.010019 0.030756 0.063474 -0.081539 0.027796 0.023851 
0.007738 0.00017495 0.0042853 0.034702 0.10803 -0.035996 0.037826 0.072846 
0.17939 -0.093541 -0.022679 0.020727 0.074161 -0.012814 0.048841 0.081395 
0.26537 -0.21044 -0.054246 0.0087245 0.038977 -0.012649 0.029934 0.021878 
0.28428 -0.078086 -0.040764 0.0041209 0.047855 0.0090533 0.033058 0.093069 
0.14946 0.18087 0.020891 0.026152 0.049992 0.053281 0.065283 0.21572 
0.012506 0.26833 0.040621 0.040292 0.011355 0.071037 0.0786 0.30697 
-0.109 0.23775 0.024344 0.019411 -0.032215 0.063474 0.057391 0.15127 
-0.22935 0.20208 0.011026 0.030756 -0.028762 0.038812 -0.0062372 -0.14763 
-0.29215 0.083368 -0.006566 0.0067515 -0.017911 0.03536 -0.024158 -0.31977 
-0.23116 -0.09798 -0.011827 0.016781 -0.034516 0.046704 -0.02646 -0.32175 
-0.073647 -0.1621 -0.011334 -0.033694 -0.06707 0.015301 -0.022021 -0.38669 
0.026317 -0.043559 0.020069 0.019576 -0.057205 -0.0059084 0.025001 -0.31731 
0.027468 0.14042 0.06479 0.015465 0.034373 -0.017746 0.037826 0.061172 
0.10228 0.17758 0.08978 0.048677 0.12727 -0.041422 0.041443 0.32128 
0.14091 0.15522 0.063145 0.045224 0.19303 -0.011992 0.074326 0.37241 
0.10984 0.14568 0.0421 0.025001 0.16475 0.02122 0.023686 0.25354 
0.10425 0.11083 0.034373 0.014315 0.066105 0.04654 0.012342 0.147 
0.09981 0.094877 0.028947 0.010369 -0.014129 0.07449 0.028619 -0.024323 
0.021713 0.049828 0.037168 0.035195 -0.053917 0.047855 0.012342 -0.21307 
-0.12692 -0.030077 0.01415 0.012835 -0.085649 0.033715 -0.0049219 -0.19614 
-0.26963 -0.021528 0.0095465 0.020398 -0.093376 0.036839 0.02122 -0.046683 
-0.12215 0.059364 -0.023336 -0.017253 -0.041915 0.02681 0.0227 0.022535 
0.33772 0.13351 -0.020212 0.017603 0.044073 0.01711 0.048184 0.085012 
0.51923 0.19566 0.0047785 0.034209 0.11757 0.037497 0.060844 0.1299 
0.15456 0.22559 0.036017 0.08863 0.11494 0.023851 0.037826 0.073175 
-0.20238 0.17955 0.027796 0.052952 0.041114 -0.00081153 0.015301 -0.032872 
-0.23313 0.18646 0.018096 0.034044 -0.028433 0.0072447 0.015794 -0.048327 
-0.12346 0.16985 0.034373 0.057555 0.010369 -0.0049219 0.034702 0.03947 
-0.046354 0.11543 0.033551 0.050814 0.00297 0.0082312 0.026481 0.098988 
-0.00015387 0.064132 0.013164 0.066105 -0.034681 0.019411 0.066763 0.092576 
0.029934 0.031249 0.041278 0.022864 -0.014622 0.034373 0.051801 0.097508 
0.049006 0.045553 0.07038 0.028947 0.01004 0.062817 0.047526 0.14321 
0.065612 0.16607 0.072846 -0.0031133 0.10326 0.13467 0.061172 0.11444 
0.055911 0.22065 0.085177 0.047691 0.19057 0.14305 0.036675 0.056898 
0.059035 0.17791 0.087314 0.021878 0.16738 0.14568 0.025001 -0.003771 
0.06594 0.1294 0.073504 0.063803 0.082053 0.11855 0.048841 -0.0503 
0.051143 0.060186 0.054925 0.023851 0.017767 0.077449 0.021056 -0.032872 
0.028783 0.011684 0.028947 0.039141 -0.016102 0.059035 0.007738 -0.029913 
-0.097322 0.0095465 0.025166 0.032564 -0.038627 -0.012814 0.016781 -0.055068 
-0.26437 -0.036325 0.041114 0.024508 -0.062631 -0.040106 -0.0080457 -0.059507 
-0.23806 -0.046847 0.024673 0.032729 -0.083347 -0.022021 -0.0036066 -0.054739 
0.22509 0.057227 0.022206 0.029934 -0.066906 0.0019835 0.016945 0.009711 
0.60127 0.17988 0.039141 0.037168 0.036017 0.039141 0.053938 0.14026 
0.52646 0.18251 0.055747 0.042594 0.14437 0.086163 0.073832 0.13532 
0.1932 0.015794 0.035688 0.063968 0.16064 0.069229 0.065447 0.10392 
0.00297 -0.12412 0.044567 0.035031 0.10918 0.049335 0.073504 0.14256 
-0.051287 -0.14813 0.038155 0.04654 0.0042853 0.0421 0.077614 0.12908 
-0.042079 -0.098473 0.045718 0.016781 0.010369 0.033222 0.054103 0.15078 
-0.011005 -0.11113 0.018425 0.018754 0.044238 0.048513 0.058377 0.13532 
-0.016595 -0.23313 0.012177 -0.00015387 0.048677 0.011355 0.01267 0.076956 
-0.027447 -0.33243 -0.009361 0.029276 0.042429 -0.016924 0.00017495 0.029934 
0.00050378 -0.21406 -0.0052507 0.015301 0.06479 0.018589 0.0037921 -0.054575 
0.034866 0.11313 0.012835 0.036017 0.1026 0.018754 -0.0032777 -0.1723 
0.062817 0.35235 0.049499 0.063968 0.090274 0.023193 0.020727 -0.18972 
0.0095465 0.36008 0.06479 0.06035 0.050979 0.012342 0.020398 -0.071345 
-0.028269 0.2394 0.044567 0.043416 0.0023123 -0.0068948 0.00066819 0.040621 
-0.029091 0.044402 0.03536 0.046704 -0.023007 0.022206 -0.0077169 0.082546 
-0.0013048 -0.14434 0.031907 0.049006 0.01711 0.030592 0.025166 0.087808 
0.016123 -0.22672 0.038648 0.01974 0.050486 0.047362 0.036017 0.12332 
-0.11491 -0.18315 0.0023123 0.022864 0.094713 0.017274 0.025659 0.14124 
-0.07825 -0.056712 0.016616 0.0018191 0.13319 -0.00015387 0.047197 0.15226 
0.20536 0.064296 0.020562 0.035853 0.13417 -0.0044286 0.044073 0.21046 
0.40759 -0.0019624 0.01974 0.016945 0.10014 0.018754 0.047855 0.256 
0.16081 -0.19285 -0.01232 0.0082312 0.01152 0.016288 0.10672 0.19961 
-0.023829 -0.3035 -0.041751 -0.017746 -0.088115 -0.033694 0.12316 0.10737 
0.094055 -0.2037 -0.025802 -0.01117 -0.15848 -0.045368 0.087479 -0.08269 
0.073832 0.089452 0.036346 0.020727 -0.072496 -0.017746 0.06742 -0.22606 
-0.13629 0.26406 0.027303 0.026646 -0.0004827 0.019083 -0.0022913 -0.25417 
-0.17246 0.21194 0.07449 0.027796 0.015137 0.016452 -0.033694 -0.15059 
-0.078744 0.15275 0.11099 0.0074092 0.015959 -0.011334 -0.0072237 -0.1205 
-0.035174 0.066598 0.068571 0.0075736 0.040292 0.0064227 -0.051287 -0.18742 
0.017438 0.052623 0.11822 0.040128 0.046211 0.0421 -0.027282 -0.085813 
0.085341 0.028947 0.097837 0.061172 0.079258 0.023357 0.026152 0.14913 
0.10343 -0.061645 0.058213 0.028947 0.05213 -0.016431 -0.0019624 0.26998 
0.056076 -0.15668 0.013492 0.050157 0.055582 0.0072447 -0.017088 0.2565 
-0.094692 -0.26322 -0.0059084 0.004943 0.11477 0.012999 -0.00097594 0.15045 
-0.23675 -0.34789 -0.019226 0.029276 0.12201 0.0047785 -0.055397 0.0074092 
-0.37617 -0.19466 -0.0044286 0.012342 0.087643 -0.0050863 -0.073482 -0.09798 
-0.33408 0.12184 -0.02087 0.014808 0.035688 -0.026296 -0.026624 -0.13218 
-0.11853 0.41055 0.034702 0.027632 -0.0096899 -0.011992 0.049664 -0.0021268 
0.35235 0.56691 0.073668 0.03651 -0.03057 0.010533 0.10935 0.23298 
0.80416 0.53682 0.084519 0.037168 -0.023007 0.017274 0.13598 0.29612 
0.77473 0.27507 0.047033 0.018425 -0.10554 0.020891 0.074326 0.057884 
0.14963 0.091096 0.0021479 0.014972 -0.11656 -0.010183 0.011026 -0.17739 
-0.41579 0.1271 -0.0087034 -0.011663 -0.073647 -0.0083746 -0.016266 -0.23642 
-0.6509 0.13598 0.0062583 0.019083 -0.013143 0.032893 -0.028762 -0.24118 
-0.77553 0.068242 0.033058 -0.030899 0.056733 0.035688 -0.040271 -0.14287 
-0.2277 -0.080881 0.048184 0.050486 0.058213 0.028125 -0.011827 0.045224 
0.7527 -0.19761 0.055089 0.012835 0.067256 0.019576 0.018589 0.23463 
1.0222 -0.15552 0.070873 0.033222 0.050157 -0.014458 0.032729 0.24219 
0.51611 -0.020377 0.055911 0.0092177 0.026646 -0.0013048 -0.008539 0.061666 
-0.05885 0.11263 0.053774 0.007738 0.044238 0.023522 0.0072447 -0.10752 
-0.35036 0.18481 0.044567 0.029112 0.061337 0.038648 -0.010019 -0.1307 
-0.37321 0.1442 0.061172 0.045389 0.05476 0.038812 -0.00031829 -0.035503 
-0.57626 0.069558 0.048019 0.080902 0.057555 0.064954 0.063968 0.069229 
-0.66356 0.025659 0.061008 0.04506 0.047362 0.071859 0.0421 0.084355 
-0.081045 0.069393 0.069064 0.048677 0.00297 0.090438 0.075476 0.10852 
0.89541 0.25091 0.048348 0.0069159 -0.045203 0.061666 0.11526 0.17676 
0.98995 0.41976 0.046704 0.026481 -0.046025 0.045224 0.077285 0.15587 
0.42831 0.47056 0.023028 -0.022021 -0.021363 0.045389 0.050814 0.096686 
-0.036325 0.45527 0.025824 0.023357 0.0047785 0.047033 0.049992 0.07597 
-0.21011 0.21589 0.0087245 -0.0096899 0.069229 0.018425 -0.0070593 0.03799 
-0.1256 -0.066084 0.024673 0.029112 0.12332 0.032564 -0.047669 0.047197 
0.062159 -0.18808 0.043087 0.036346 0.099316 0.031907 -0.031064 0.090109 
0.22312 -0.089431 0.093069 0.047197 0.048677 0.017438 -0.052602 0.10589 
0.20125 0.069229 0.17067 0.092247 -0.047505 0.00297 -0.058028 0.095042 
0.044402 0.13812 0.15637 0.077285 -0.060494 0.022206 -0.00015387 -0.034352 
-0.04882 -0.0096899 0.073175 0.072517 -0.076771 -0.025638 0.039305 -0.22277 
-0.11376 -0.099295 0.059035 0.029769 -0.062467 -0.0027845 0.049992 -0.26453 
-0.083512 -0.024816 0.064296 0.036839 -0.038298 -0.02942 0.12118 -0.15405 
-0.017253 0.039963 0.047033 0.031085 0.039141 -0.004593 0.12003 -0.043559 
0.030592 0.084519 0.052952 0.075148 0.058377 0.019576 0.13549 0.0034632 
0.058049 0.15341 0.0074092 0.011355 0.06594 0.024344 0.15357 -0.0087034 
0.08304 0.093233 -0.085649 0.033387 0.046211 0.091753 0.11115 0.080244 
0.067749 -0.10932 -0.15881 0.036346 0.084848 0.09685 0.061995 0.22772 
0.050321 -0.28837 -0.15536 0.061995 0.11905 0.079916 0.025988 0.21062 
-0.0034422 -0.37831 -0.14287 0.050814 0.096686 0.088958 -0.0049219 0.17166 
-0.071509 -0.30629 -0.11672 0.051965 0.077614 0.084684 -0.017911 0.095535 
-0.066741 -0.17706 -0.084663 0.026481 0.06594 0.0689 -0.010676 0.027468 
-0.023007 -0.051944 -0.037311 -0.023994 0.051472 0.063145 -0.003771 0.029934 
0.076463 0.13467 0.03651 0.016945 -0.035667 0.023851 0.020891 0.096193 
0.17265 0.25403 0.11625 0.044238 -0.12034 0.0047785 0.059035 0.10408 
0.16656 0.27228 0.18761 0.068736 -0.13875 -0.0022913 0.07038 0.077778 
0.084519 0.25929 0.18054 0.054596 -0.092061 -0.043395 0.037168 -0.0031133 
-0.018733 0.2514 0.12184 0.049992 -0.030242 -0.060494 0.047362 -0.13234 
-0.071345 0.26554 0.058213 0.0080668 0.028454 -0.0024557 0.010697 -0.15684 
-0.090253 0.2902 0.062652 0.043416 0.082711 0.044402 0.021056 -0.16786 
-0.10505 0.14552 0.12349 0.015959 0.15472 0.068407 0.024837 -0.10324 
-0.076606 -0.05441 0.1299 0.030756 0.1641 0.055911 0.04095 -0.0036066 
-0.066741 -0.18693 0.054103 0.027139 0.14765 0.030427 0.0052718 0.035524 
-0.094527 -0.26831 -0.026953 0.020891 0.08715 0.034373 -0.010841 0.0085601 
-0.10801 -0.25105 -0.033201 0.013492 -0.0078813 -0.00064712 0.02681 0.010697 
-0.059836 -0.19022 -0.032872 0.037168 -0.02498 -0.0032777 0.029441 0.062488 
0.015137 -0.18134 -0.056383 0.047362 -0.032872 0.019411 0.037168 0.1105 
0.052952 -0.14451 -0.13267 0.041114 -0.037147 0.0037921 0.044896 0.11083 
0.052787 0.013986 -0.13316 0.044402 -0.010676 -0.0088678 0.020727 0.067256 
0.081889 0.10145 -0.10472 0.016781 -0.0070593 -0.0067304 0.030427 0.054596 
0.14782 0.12102 -0.079401 0.037004 0.033222 0.012506 0.047526 0.080244 
0.19468 0.11674 -0.041257 0.00033937 0.060844 0.02533 0.043087 0.10441 
0.090109 0.038319 -0.041422 0.05476 0.10951 0.061995 0.044073 0.063639 
-0.078579 0.010204 -0.016595 0.039799 0.13105 0.047526 0.059693 -0.0072237 
-0.14139 -0.010183 0.010862 0.037168 0.08156 0.020233 0.032729 -0.013471 
0.047855 -0.0044286 0.024837 0.014808 0.020069 -0.0096899 -0.0022913 0.0092177 
0.14535 0.081231 0.04917 0.031578 -0.021034 -0.033201 0.024179 -0.017746 
0.021056 0.085012 0.056898 0.044073 -0.0059084 0.0023123 -0.0052507 -0.044874 
-0.14993 -0.019719 0.076627 0.060022 0.030098 0.024015 0.010369 -0.0088678 
-0.11705 -0.040928 0.049006 0.035524 0.025495 -0.003771 0.044731 0.014315 
-0.041586 0.020233 0.0072447 -0.021363 0.0026412 0.024344 0.06479 0.028619 
0.052459 0.10639 0.0046141 0.011355 -0.011663 0.020398 0.0092177 0.028454 
0.048348 0.20668 0.014643 -0.033365 0.022042 0.016781 0.026317 0.051143 
0.081067 0.13368 0.049335 0.01974 0.053116 0.049828 0.025659 0.14042 
0.11 0.044731 0.095206 0.0036276 0.095371 0.045553 0.016288 0.1544 
0.084684 0.012013 0.12036 0.029276 0.068736 0.024344 0.032729 0.13976 
-0.090581 0.029276 0.10787 -0.016595 0.037661 0.026646 0.016288 0.11773 
-0.3566 0.043745 0.091096 0.010862 0.034537 0.014315 0.0092177 0.013328 
-0.30942 0.11559 0.097508 0.023193 0.046211 0.043087 0.029934 -0.12083 
0.15916 0.13647 0.093069 0.027961 0.028125 0.033715 0.014479 -0.2739 
0.75073 0.1544 0.053281 0.03651 0.020562 0.025824 0.014315 -0.38718 
0.74744 0.23578 0.029934 0.018425 0.0093821 0.037332 0.044896 -0.063782 
0.3535 0.2218 0.012835 0.058542 0.031249 0.041114 0.044073 0.3586 
-0.029584 0.20372 0.0069159 0.056076 0.049664 0.022864 0.041443 0.43965 
-0.14862 0.1345 -0.014293 0.088465 0.065283 0.037826 0.030098 0.20306 
-0.14336 0.024179 -0.034023 0.052952 0.094877 0.01826 -0.0064016 -0.10472 
-0.084169 -0.016431 -0.036654 0.049006 0.079422 0.00017495 -0.023501 -0.14385 
-0.020212 -0.027282 -0.012978 -0.027118 0.027632 0.040128 -0.0004827 -0.04323 
-0.01117 -0.027611 0.030592 0.0054362 -0.024158 0.014643 0.020891 0.017274 
-0.019226 0.016452 0.069064 -0.017088 -0.063618 0.0031344 0.018589 0.074983 
-0.044052 0.0095465 0.10935 0.021384 -0.074962 0.0227 0.026152 0.13302 
0.099152 0.056076 0.13582 0.026974 -0.082525 -0.00081153 0.029441 0.12135 
0.25189 0.11378 0.12891 0.044238 -0.024323 -0.00097594 0.036839 0.10326 
0.25765 0.059857 0.098001 0.044567 0.058377 0.045553 0.056733 0.086657 
0.13154 -0.069043 0.093562 0.05476 0.16229 0.050486 0.069393 0.058213 
0.067091 -0.2231 0.06183 0.051143 0.17067 0.054267 0.063803 0.070544 
0.035688 -0.23148 0.0421 0.016288 0.06742 0.053609 0.032893 0.089945 
-0.06296 -0.091239 0.051143 0.040785 -0.0078813 0.03947 0.01711 0.026974 
-0.3012 0.065776 0.051143 0.021384 -0.054575 0.016781 -0.028269 -0.11097 
-0.38801 0.15292 0.064625 0.028619 -0.10472 -0.015773 -0.046354 -0.15602 
0.0034632 0.26143 0.052294 0.0074092 -0.098802 -0.015773 -0.010019 -0.10932 
0.39049 0.34676 0.04917 0.048513 -0.011992 0.043087 -0.0026201 0.012835 
0.38244 0.2149 0.04654 0.016452 0.06479 0.034209 0.029441 0.03536 
0.1853 0.054596 0.034044 0.01152 0.089945 0.026646 0.048841 0.018754 
0.055911 -0.010183 0.053609 0.019905 0.054267 0.025824 0.027796 0.040621 
0.038977 0.058542 0.085012 0.04095 0.043251 0.0032988 0.020891 0.048019 
-0.0503 0.14815 0.097179 0.045553 0.053609 0.057555 0.041114 0.10096 
-0.27982 0.12447 0.082711 0.044896 0.033387 -0.001798 0.0036276 0.089287 
-0.36762 0.06035 0.082217 0.032893 -0.044381 -0.077264 -0.040435 0.064625 
-0.03764 0.039963 0.061172 0.011026 -0.030406 -0.068057 0.0098754 0.11674 
0.33509 -0.042573 0.070544 0.035031 0.012835 -0.0059084 -0.0044286 0.1465 
0.33509 -0.081045 0.043416 0.038812 0.055418 0.0062583 0.0031344 0.13171 
0.084684 -0.056055 0.0087245 0.074983 0.059857 0.034537 0.020562 0.065283 
-0.081868 -0.084827 -0.00015387 0.029276 0.015301 0.053609 0.0421 -0.03764 
-0.21471 -0.10867 -0.011663 0.030098 -0.014129 0.052623 0.061666 -0.19137 
-0.71749 -0.10719 0.03092 0.022042 0.0054362 0.11099 0.050486 -0.32323 
-1.0443 -0.14763 0.054925 0.023851 0.014479 0.069558 0.029605 -0.2277 
0.087808 -0.133 0.032893 0.0074092 0.0042853 0.068078 0.023686 0.093233 
1.6923 -0.047998 0.04654 -0.00064712 0.033715 0.1026 0.06035 0.3364 
1.561 0.018096 0.044567 0.025988 0.062817 0.068242 0.057391 0.30204 
0.29201 0.064954 0.023193 0.032564 0.068407 0.045718 0.03799 0.14469 
-0.50014 0.19862 0.018589 0.052294 0.031578 0.029769 0.034044 0.013164 
-0.60437 0.37224 0.012013 0.028619 0.026317 0.024344 0.01004 -0.047012 
-0.31977 0.51791 -0.00081153 0.059364 0.04095 -0.0027845 0.016123 -0.050136 
-0.10702 0.47846 -0.018404 0.018589 0.048513 -0.038298 0.011191 -0.065755 
-0.045696 0.25107 -0.021199 0.020233 0.052623 -0.064604 0.0083956 -0.019719 
-0.050629 -0.044052 -0.03205 0.011355 0.015301 -0.055232 -0.0021268 -0.023665 
-0.05326 -0.2744 -0.021528 0.015794 0.0014903 -0.031064 0.018589 -0.011663 
0.014972 -0.30974 0.0021479 0.014808 0.0054362 -0.0062372 0.01711 0.016616 
0.050814 -0.1746 0.035031 -0.00064712 0.031249 0.034537 0.022535 0.074654 
0.030427 -0.052602 0.049664 0.025001 0.033387 0.044402 0.048019 0.045224 
-0.028269 0.048184 0.05772 0.015465 0.044567 0.07038 0.042265 0.048348 
-0.038791 0.14913 0.037661 0.015794 0.058377 0.079258 0.016288 0.15505 
0.027468 0.11411 0.0062583 0.0062583 0.11198 0.065776 0.032893 0.24236 
0.21819 0.092576 -0.017088 0.041443 0.14141 0.070873 0.044896 0.24647 
0.22789 0.08863 -0.014458 0.037826 0.12825 0.07301 0.038812 0.15999 
0.098001 0.065118 0.014972 0.086821 0.10145 0.053445 0.03388 -0.004593 
-0.021692 0.049499 0.030592 0.045553 0.03947 0.038155 0.051143 -0.10423 
-0.061151 0.059857 0.050814 0.052459 -0.063124 0.05213 0.035524 -0.10045 
-0.024816 0.066105 0.053116 -0.012485 -0.091732 0.014643 0.01563 -0.0083746 
0.03536 0.096193 0.048184 0.014808 -0.014458 0.013986 0.017767 0.059364 
0.096028 0.11773 0.06183 0.012999 0.083697 0.020891 0.0079024 -0.0064016 
0.084026 0.071202 0.046868 0.036675 0.046375 0.010862 0.034702 -0.25302 
0.020233 0.01267 0.026974 0.036182 0.0074092 0.030098 0.065612 -0.49898 
-0.36795 -0.12494 -0.001798 0.019905 -0.0004827 0.0069159 0.04358 -0.51839 
-0.63676 -0.29314 -0.032872 0.018754 -0.02498 -0.01939 0.044567 -0.20814 
-0.13119 -0.37683 -0.054246 0.0087245 0.011355 -0.024158 0.044402 0.20323 
0.72984 -0.29002 -0.038133 0.052294 0.043745 -0.051615 0.01711 0.42025 
0.70041 -0.078415 -0.055232 0.054267 -0.043395 -0.11228 -0.011498 0.32785 
-0.10242 0.060186 -0.062467 0.044896 -0.047012 -0.042573 -0.0032777 0.147 
-0.56557 0.054596 -0.07562 -0.021199 -0.013636 0.022042 -0.0044286 0.0093821 
-0.38488 0.12431 -0.018075 0.040621 0.065283 0.073339 0.025166 0.10606 
-0.068386 0.33048 0.046704 0.0324 0.13236 0.13351 0.036839 0.15193 
0.57168 0.40414 0.093891 0.042429 0.10836 0.071202 0.051308 0.16344 
1.1129 0.27557 0.078107 0.053116 0.11625 0.019083 0.013164 0.18415 
0.64205 0.12842 0.069229 0.039634 0.03092 0.01974 0.051965 0.069558 
-0.11524 0.028619 0.044896 0.023851 -0.0078813 -0.021199 0.029112 -0.034352 
-0.4661 0.0019835 0.011684 0.0059294 0.015794 0.01415 0.019247 -0.07414 
-0.42418 -0.023829 -0.013965 0.023357 -0.0040998 0.011848 0.032893 -0.087786 
-0.2619 -0.059672 0.0065871 0.012506 -0.020048 0.020562 0.038319 -0.05885 
-0.11607 -0.019061 0.021384 0.035853 0.0041209 0.041607 0.025659 -0.045696 
-0.028926 -0.01939 0.039305 0.026646 0.034702 0.020069 0.040292 -0.038791 
0.009711 -0.00031829 0.053281 0.054103 0.055582 0.034044 0.03536 -0.033694 
0.025988 0.066927 0.065283 0.010862 0.060022 0.041443 0.047691 -0.058521 
0.038648 0.053609 0.076627 0.03799 0.048019 0.0052718 0.032564 0.024673 
0.11642 0.046046 0.071531 0.0227 0.025659 -0.0027845 0.007738 0.10458 
0.12217 -0.016595 0.041443 0.02122 0.0039565 -0.0036066 0.0098754 0.066269 
0.15505 -0.0034422 0.022535 0.028619 -0.039284 -0.011498 0.014972 -0.012814 
0.1539 0.072353 0.050321 0.020727 -0.034188 0.01563 0.023686 0.01152 
0.11346 0.19418 0.074819 0.011355 -0.02646 0.01974 0.027632 0.059364 
0.0080668 0.2292 0.082217 0.01974 -0.025309 0.020727 0.040456 0.085177 
-0.094692 0.23085 0.057062 0.022864 -0.011992 0.020069 0.040128 0.074983 
-0.069372 0.18547 0.0034632 -0.0072237 -0.018075 -0.041586 -0.014293 0.04506 
0.097015 0.11724 -0.033859 0.01974 0.042923 -0.043559 -0.041586 0.081231 
0.24959 0.16459 -0.039284 0.018096 0.1031 -0.0096899 -0.0021268 0.11543 
0.19073 0.26077 -0.00064712 0.078436 0.11083 0.014315 0.027961 0.088794 
-0.089431 0.26242 0.055418 0.059035 0.10639 0.077943 0.10014 0.038977 
-0.26782 0.22411 0.060186 0.071037 0.12151 0.19796 0.15966 0.033222 
-0.16407 0.11017 0.081395 0.043745 0.0689 0.20536 0.14535 0.067913 
0.037168 -0.13168 0.067091 0.026317 -0.017746 0.11313 0.089123 0.15637 
0.028454 -0.3377 0.043416 -0.0077169 -0.10143 -0.025802 0.013328 0.20438 
0.13746 -0.44259 -0.011663 -0.024487 -0.13432 -0.12231 -0.076113 0.29645 
0.48405 -0.3109 -0.021856 -0.00064712 -0.088937 -0.11163 -0.094363 0.43554 
0.7139 0.043416 0.030427 0.035524 0.054596 -0.029913 -0.062631 0.3775 
0.29152 0.27886 0.068571 0.077285 0.13302 0.0087245 -0.05589 0.031742 
-0.22063 0.29859 0.086657 0.056404 0.10869 0.053609 -0.083018 -0.22392 
-0.44983 0.18547 0.041772 0.059035 0.08978 0.053774 -0.029748 -0.36959 
-0.32964 0.020727 -0.029913 0.02122 0.063639 0.0046141 0.0037921 -0.47482 
-0.088444 0.005765 -0.063782 0.036182 0.038977 0.034866 0.059857 -0.27686 
0.074326 0.10096 -0.060165 0.014315 -0.030242 0.017932 0.11839 0.037661 
0.078765 0.15719 -0.00097594 0.037332 0.0019835 0.013328 0.14798 0.070215 
0.061172 0.10244 0.0021479 0.023851 0.027303 0.068242 0.20914 0.037004 
0.059528 -0.090417 -0.010019 0.0072447 0.069229 0.063474 0.22131 0.090438 
0.0074092 -0.30646 0.027139 0.0067515 0.085341 0.050814 0.11543 0.2343 
-0.058192 -0.37074 0.080409 -0.011498 0.098494 0.036346 0.031249 0.23529 
-0.019719 -0.17345 0.10195 0.018425 0.077121 0.042429 -0.035996 0.18678 
0.0074092 0.015465 0.1294 0.031249 0.054432 0.060186 -0.077922 0.14026 
0.061008 0.16327 0.12069 0.054103 0.047691 0.04095 -0.060165 0.072024 
0.066105 0.13483 0.079751 0.037168 0.020398 0.0056006 -0.029748 0.081889 
0.035031 0.098988 0.065283 0.047855 0.0014903 0.0064227 -0.034188 0.11707 
0.039799 0.16525 0.028125 0.025001 -0.024487 -0.021692 -0.033365 0.047691 
0.049335 0.22328 0.013986 0.042923 -0.040271 -0.047176 -0.035996 -0.08269 
0.011684 0.13828 -0.0067304 0.014315 -0.036489 -0.0072237 -0.034352 -0.17476 
-0.050793 -0.061809 -0.049314 0.020233 -0.033694 -0.0072237 -0.070359 -0.16128 
-0.059178 -0.25072 -0.027775 0.010369 0.018589 0.0088889 -0.033037 -0.094034 
-0.0024557 -0.24151 -0.02087 0.026974 0.051308 0.0056006 -0.013965 -0.0049219 
0.11707 -0.089431 0.033058 0.027796 0.051801 0.033058 0.058213 0.080409 
-0.026624 -0.011005 0.062817 0.056076 0.059693 0.055254 0.15604 0.06594 
-0.21833 -0.096172 0.060186 0.047855 0.049499 0.06742 0.15883 0.055089 
-0.056548 -0.21011 0.035195 0.027303 0.058049 0.040292 0.12464 0.05213 
0.17577 -0.21554 1.0539e-005 0.032236 0.055418 0.014972 0.058871 0.0031344 
0.34364 -0.1233 -0.034023 -0.01232 0.036675 0.01267 0.0098754 -0.12708 
0.49128 0.095864 -0.0062372 0.028619 0.032893 0.0072447 -0.013965 -0.25993 
0.24351 0.24334 0.029112 0.014479 0.015137 0.03799 -0.020048 -0.33441 
-0.20781 0.33081 0.046375 0.045718 0.01711 0.025166 0.00083261 -0.26634 
-0.3298 0.34281 0.05213 0.032071 0.028125 0.0087245 -0.0032777 -0.19663 
-0.22014 0.29711 0.061337 0.013164 0.0047785 0.033715 -0.010512 -0.13136 
-0.090253 0.29448 0.070051 0.0059294 0.0047785 0.041772 0.020727 0.0421 
0.023522 0.20635 0.056733 -0.0011404 0.015137 0.043416 0.023851 0.21506 
0.093562 0.072517 0.042594 0.032729 0.016945 0.063474 0.035688 0.2389 
0.11625 0.010533 0.05213 0.023357 0.0016547 0.042758 0.08008 0.25551 
0.089945 -0.01232 0.066434 0.033387 -0.0024557 0.035031 0.063968 0.27162 
0.022371 -0.070194 0.055747 0.019576 -0.00064712 0.030098 0.043087 0.23759 
-0.054575 -0.21208 0.050321 0.013492 0.040456 -0.00064712 0.026974 0.15999 
-0.22918 -0.35282 0.02681 0.0060938 0.061995 0.0065871 -0.0096899 0.038648 
-0.47038 -0.23559 0.060022 0.034209 0.076463 -0.0060728 -0.034516 -0.07414 
-0.063453 0.078436 0.08008 0.026974 0.085012 0.023357 -0.0047575 -0.076935 
0.76043 0.30862 0.11773 0.054432 0.099974 0.079422 0.02533 -0.034023 
1.009 0.4311 0.1151 0.027961 0.082875 0.076463 0.027961 -0.13727 
0.52778 0.42124 0.091425 0.048184 0.072353 0.058871 0.056733 -0.17608 
-0.018404 0.30533 0.044402 0.030427 0.038812 0.038483 0.049992 -0.1718 
-0.2379 0.19533 0.051472 0.041443 -0.023829 0.0023123 0.05476 -0.15289 
-0.2277 0.14897 0.027796 0.039634 -0.072825 -0.021034 0.086163 -0.049642 
-0.23181 0.089452 0.026646 0.026974 -0.093541 0.0082312 0.046375 0.033551 
-0.19087 0.073832 0.035524 0.026974 -0.072989 0.011355 0.021713 0.14239 
-0.094363 -0.0075525 0.033222 0.013328 -0.013965 0.020233 0.090767 0.25091 
-0.022021 -0.062138 0.023522 0.031742 0.074161 0.025166 0.076463 0.26751 
0.0019835 -0.014129 0.013328 0.012835 0.15587 0.015465 0.053445 0.26011 
-0.065591 0.062159 0.0059294 0.01267 0.17528 -0.031064 0.050814 0.13236 
-0.089924 0.15061 -0.0016336 -0.0014692 0.077943 -0.079566 0.010697 -0.032379 
-0.071838 0.20043 -0.00031829 0.029605 -0.032543 -0.098473 -0.012156 -0.083018 
0.15571 0.11428 -0.003771 0.020069 -0.11426 -0.060329 -0.0095255 -0.030242 
0.41335 0.0324 -0.022679 0.049499 -0.15832 -0.028597 0.004943 0.047362 
0.30023 0.0042853 -0.0062372 0.037497 -0.096336 0.016945 0.018918 0.094055 
-0.095021 -0.046354 -0.0075525 0.040128 0.031414 0.076956 0.06035 0.10359 
-0.35825 -0.13234 0.00083261 0.049992 0.16344 0.10162 0.046046 0.094384 
-0.16095 -0.17936 0.0016547 0.031249 0.18185 0.11198 0.018589 0.057062 
0.18498 -0.15043 0.025988 0.030098 0.12217 0.10787 0.038648 0.019411 
0.36468 -0.027282 0.10129 0.021384 0.037332 0.089452 0.052294 0.076792 
0.29892 0.13302 0.18563 0.031414 0.011355 0.10376 0.051965 0.1174 
0.11872 0.084848 0.22855 0.029112 0.0227 0.10376 0.052787 0.12497 
-0.13234 0.013164 0.26176 0.072681 0.01415 0.080573 0.06035 0.15094 
-0.31501 0.0036276 0.20569 0.040456 -0.045039 0.049828 0.044238 0.17856 
-0.092883 0.0065871 0.10277 0.051965 -0.077593 -0.013471 0.031085 0.15686 
0.27754 0.067585 0.00050378 0.022535 -0.020541 -0.046847 0.035688 0.10737 
0.22493 0.055747 -0.077593 0.031742 0.039141 -0.052766 0.021549 0.053609 
-0.056548 0.00297 -0.13662 0.027303 0.055089 -0.057205 0.018754 0.049499 
-0.13629 0.082711 -0.19942 0.049006 0.06035 -0.050629 0.023686 0.032564 
-0.052766 0.20273 -0.17756 0.03536 0.050321 -0.021363 0.0047785 -0.060329 
0.077943 0.28494 -0.14911 0.018918 0.051965 -0.0004827 -0.010512 -0.25647 
0.084684 0.27031 -0.10521 0.0088889 0.030263 0.0032988 0.0074092 -0.40724 
0.032071 0.12299 -0.095021 -0.0091966 -0.018568 0.031249 -0.014129 -0.24924 
-0.0014692 -0.031064 -0.094856 0.018589 -0.024323 0.024673 0.010862 0.044402 
0.0016547 -0.098309 -0.047012 0.029112 -0.0138 0.03651 0.029441 0.20224 
0.023851 -0.14862 0.019083 0.03651 0.0031344 0.069064 0.021713 0.20635 
0.023193 -0.1547 0.068242 0.01826 -0.0027845 0.050321 0.013328 0.15719 
0.042594 -0.051122 0.097015 0.032729 0.032236 0.049664 0.050486 0.12875 
0.068407 0.018918 0.10359 0.021056 0.048677 0.081889 0.042923 0.12809 
0.06742 0.035524 0.097344 0.064132 0.057227 0.051308 -0.0054151 0.079258 
0.06035 0.022535 0.10622 0.054925 0.075641 0.053116 0.050486 0.038319 
0.068736 0.022535 0.11033 0.042429 0.048841 0.026974 0.012835 0.03388 
0.05772 0.055911 0.047033 0.049664 0.025001 0.0075736 0.010204 0.025659 
0.029276 0.062652 -0.028269 0.013821 -0.0087034 0.016288 0.053609 0.040292 
-0.27538 0.01267 -0.0503 -0.003771 -0.042901 -0.004593 -0.0014692 0.049992 
-0.66126 0.01152 -0.054739 0.016288 -0.029584 -0.046354 -0.011498 0.041607 
-0.3474 0.034373 -0.026296 0.049499 -0.02235 -0.010676 0.011848 -0.038133 
0.66243 0.14289 0.0059294 0.049992 0.00033937 -0.0087034 0.017603 0.042429 
1.022 0.21917 0.01826 0.056569 0.040785 0.018918 0.034702 0.017438 
0.4025 0.15061 0.01267 0.024179 0.064296 0.060022 0.045389 -0.15454 
-0.021692 0.087643 -0.022514 0.025988 0.07038 0.046375 0.015794 -0.20797 
0.094877 0.12135 -0.016102 0.0072447 0.079916 0.007738 0.01563 -0.083018 
0.22016 0.12858 -0.0029489 0.026974 0.090274 0.038977 0.018918 0.03651 
-0.13711 0.063474 0.055747 0.018425 0.083533 0.012013 0.013164 0.0054362 
-0.41283 0.024179 0.050486 0.023522 0.095864 0.016123 -0.017417 -0.043395 
-0.38718 -0.17131 0.042265 0.025001 0.11625 0.020069 0.0052718 -0.054082 
-0.16325 -0.39376 -0.025309 0.014808 0.10277 -0.011334 0.016288 -0.001798 
0.084355 -0.41661 -0.049807 0.01267 0.064296 0.0032988 0.0324 0.036346 
0.12661 -0.21471 -0.060494 -0.0024557 0.01563 0.02533 0.035853 0.090109 
0.072846 0.045389 -0.049971 0.022206 -0.0078813 -0.015609 0.042594 0.076956 
0.012999 0.25896 -0.0044286 0.028619 -0.051287 -0.0075525 0.012013 0.036017 
0.00033937 0.3489 0.063803 0.047197 -0.088444 -0.027282 0.016288 0.0421 
0.032236 0.32226 0.12151 0.020727 -0.10291 -0.025309 0.038155 0.096686 
0.05213 0.19139 0.14798 0.079587 -0.069536 -0.006566 0.033715 0.12069 
0.057391 0.042923 0.14963 0.078107 0.054432 0.025166 0.050486 0.092411 
0.091918 0.026152 0.21572 0.10622 0.12595 0.059528 0.0592 0.06594 
0.1202 0.097015 0.24597 0.067749 0.13516 0.083204 0.045718 0.097344 
0.084684 0.17215 0.19879 0.023522 0.09422 0.051636 0.023522 0.14042 
0.016123 0.18646 0.1276 -0.012156 0.06331 0.021384 0.005765 0.10622 
0.0014903 0.13631 0.01004 -0.011827 0.08156 0.034373 -0.013471 0.079587 
-0.011498 0.061172 -0.041257 0.0090533 0.082217 0.043745 0.011191 0.057555 
-0.090088 0.0080668 -0.069701 0.01004 0.079587 0.078929 0.037826 -0.023665 
-0.20551 -0.10521 -0.083512 0.047691 0.076463 0.041772 0.030592 -0.082854 
-0.1963 -0.28771 -0.079895 0.010862 0.09833 -0.014787 0.0079024 -0.092883 
0.17117 -0.30268 -0.073482 0.012506 0.079258 -0.037805 0.0054362 -0.0098543 
0.54471 -0.090746 0.0036276 -0.009361 0.044567 -0.037147 0.0028056 0.12677 
0.39444 0.22197 0.049664 0.047362 0.013986 -0.00064712 0.031249 0.1368 
-0.054246 0.34166 0.076299 0.024015 -0.062631 0.056404 0.063474 0.11888 
-0.27999 0.19155 0.057555 0.019905 -0.15437 0.036182 0.011355 0.05213 
-0.17641 0.05476 0.041114 0.0052718 -0.11968 -0.012156 0.030263 -0.027282 
0.10672 -0.024323 0.090767 0.028454 -0.089266 0.016452 0.041443 -0.1011 
0.1493 0.024344 0.14552 0.063639 -0.064111 0.090438 0.019083 -0.20814 
0.025824 0.071037 0.17791 0.048513 -0.032872 0.09981 0.02533 -0.35874 
-0.13875 0.026317 0.17199 0.044896 0.011848 0.091096 0.040292 -0.068714 
-0.19844 -0.081868 0.099316 0.0083956 0.088465 0.06183 0.04095 0.25962 
-0.10538 -0.13251 0.073668 0.034373 0.12414 0.044402 0.031085 0.34429 
0.021713 -0.14303 0.016945 -0.0078813 0.11099 0.02533 0.03947 0.27655 
0.10754 -0.13695 0.0034632 0.016616 0.077614 0.012999 0.015959 0.14617 
0.11691 -0.017417 0.01711 0.018589 0.10326 0.027303 0.015959 0.026481 
0.14552 0.11921 0.026974 0.052294 0.13319 0.033222 0.039963 0.047855 
0.15127 0.17939 0.04654 0.060022 0.15012 0.041278 0.034044 0.049828 
0.11428 0.24367 0.038319 0.064132 0.16492 0.054103 0.048348 0.036182 
0.017603 0.15637 0.013986 0.021549 0.10359 0.038483 0.045553 -0.0027845 
-0.045368 0.063803 -0.0004827 0.019247 -0.039449 0.038483 0.027468 -0.080223 
-0.041586 0.058213 0.0036276 0.031085 -0.1404 0.041772 0.020562 -0.07973 
-0.065755 -0.012649 0.007738 0.0054362 -0.18545 0.018589 0.017932 -0.043724 
-0.17131 -0.12412 0.0024767 0.022864 -0.15947 -0.044381 0.044731 -0.0022913 
-0.31616 -0.14599 0.034044 0.0088889 -0.13662 -0.033859 0.048348 0.090603 
-0.10489 -0.098309 0.010533 0.015465 -0.14204 -0.060987 0.062159 0.097179 
0.38129 -0.0029489 0.0095465 0.0092177 -0.095514 -0.030077 0.035853 0.040128 
0.54948 0.092411 0.029769 0.058049 0.0062583 0.054925 0.012999 -0.0019624 
0.36468 0.10589 0.023686 0.038483 0.060679 0.064296 -0.010019 -0.12215 
0.077285 0.046704 0.020727 0.059528 0.072024 0.082711 -0.011827 -0.24365 
-0.24628 -0.032543 0.022042 0.034702 0.080573 0.040621 -0.018075 -0.40543 
-0.49372 -0.11064 0.028454 0.03092 0.068736 0.03536 0.014808 -0.45015 
-0.31961 -0.049314 -0.00064712 0.014315 0.061501 0.048184 0.055254 -0.13366 
0.36912 -0.010348 0.0072447 0.0227 0.13516 0.063803 0.066434 0.27902 
0.78706 0.069722 0.014972 0.032564 0.17873 0.066105 0.06035 0.42601 
0.36682 0.13697 0.019083 0.039634 0.16886 0.059528 0.049499 0.33953 
-0.16391 0.19517 0.0065871 0.044731 0.17906 0.01415 -0.010841 0.22575 
-0.32619 0.30582 0.048019 0.055089 0.12644 -0.029255 -0.0031133 0.15703 
-0.20879 0.34955 0.081724 0.069393 0.067585 1.0539e-005 0.019247 0.1442 
-0.049971 0.18613 0.098494 0.056733 0.0059294 0.028125 0.012342 0.089452 
0.014479 0.016123 0.08304 0.073668 -0.039942 0.027961 0.041607 0.04506 
-0.022679 -0.081703 0.056569 0.027139 -0.074798 0.0085601 0.067749 -0.073811 
-0.046683 -0.094856 0.049664 0.047362 -0.11574 -0.0078813 0.041278 -0.28229 
-0.085978 -0.060329 0.042265 -0.0052507 -0.11639 -0.0095255 0.02681 -0.28475 
-0.22195 -0.028597 0.017932 0.005765 -0.0965 -0.021199 0.066434 -0.085156 
-0.25171 -0.026624 -0.0019624 -0.0034422 -0.051615 -0.014622 0.068242 0.048019 
0.19665 0.069229 0.020562 0.0037921 0.033058 0.015465 0.11378 0.071037 
0.75467 0.18021 -0.00064712 0.018425 0.062488 0.017932 0.08567 0.057884 
0.65602 0.18498 0.022206 0.035524 0.066763 0.05624 0.031578 0.023357 
0.20898 0.15324 0.036839 0.02533 0.092904 0.046046 0.017767 0.086163 
-0.059672 0.14831 0.02533 0.026646 0.10491 0.044402 0.0082312 0.12266 
-0.16128 0.15012 0.046868 0.048019 0.1276 0.060022 0.026481 0.095699 
-0.20452 0.19402 0.062652 0.047033 0.11066 0.077449 0.061008 0.096686 
-0.14484 0.16623 0.046375 0.086163 0.091096 0.025988 0.090274 0.10211 
-0.040106 0.12201 0.036675 0.026152 0.069558 0.01004 0.066269 0.093398 
0.0093821 0.07597 0.027796 0.041936 0.061666 0.021713 0.028783 0.12661 
0.041607 0.0046141 0.01711 0.023686 0.062488 0.024015 0.014643 0.1202 
0.053774 -0.03764 0.021713 0.032236 0.060515 0.0088889 -0.041586 0.13319 
0.0689 -0.01676 0.015137 0.035195 0.046046 0.044402 -0.10028 0.1128 
0.066927 0.038155 0.033715 0.028783 0.018918 0.040456 -0.093376 0.062981 
0.036839 0.09685 0.027303 0.023193 0.025166 0.067256 -0.059343 0.023193 
-0.040928 0.13713 0.021713 0.030427 -0.0011404 0.034866 -0.052273 -0.042079 
-0.1113 0.086163 0.01563 0.014972 -0.017911 0.024015 0.0075736 -0.091239 
-0.061809 0.049828 0.01415 0.0044497 -0.025802 0.02533 0.032071 -0.12297 
0.16015 0.068571 0.0090533 0.01974 -0.031228 -0.039613 0.077778 -0.062631 
0.2657 0.16673 0.047197 0.030263 -0.0068948 -0.013143 0.15127 0.089123 
0.2879 0.24351 0.081231 0.076134 0.067585 0.019411 0.16788 0.18284 
0.18333 0.21802 0.075476 0.041278 0.10113 0.027139 0.1271 0.20405 
0.039634 0.1179 0.069064 0.052623 0.035031 0.0093821 0.073668 0.16936 
0.0065871 0.099152 0.05213 0.0056006 -0.0039354 -0.010348 0.017603 0.15867 
-0.038791 0.039799 0.017274 0.010862 -0.030077 -0.022514 -0.015773 0.12332 
-0.095514 -0.025309 0.0083956 -0.010512 -0.0011404 0.009711 -0.033037 0.067256 
-0.1284 -0.047012 0.0037921 -0.017417 0.022535 0.017932 -0.02646 0.0093821 
-0.076277 -0.10341 -0.0090322 0.0019835 0.03799 0.045224 -0.01528 0.0028056 
0.027468 -0.13596 0.0014903 0.01826 0.021713 0.093398 0.020233 0.092411 
0.088465 -0.13136 0.0227 0.007738 0.012835 0.13302 0.043909 0.15209 
0.1003 -0.16555 0.012013 0.0070803 0.029934 0.1373 0.022042 0.11773 
0.05213 -0.043395 0.0054362 0.030592 0.042594 0.11411 0.0059294 0.043251 
0.024179 0.17051 0.01711 0.019083 0.049006 0.012506 0.0052718 -0.0068948 
0.031414 0.24466 0.037826 0.054596 0.050814 -0.081539 0.0062583 -0.0062372 
0.06035 0.21161 0.018918 0.030592 0.051801 -0.10521 0.017603 0.061172 
0.074326 0.15308 0.0064227 0.035524 0.047855 -0.10193 0.047197 0.10063 
0.070215 -0.011827 -0.0068948 0.0092177 0.030263 -0.11426 0.033387 -0.059836 
0.021549 -0.16654 -0.014458 0.0026412 0.012506 -0.14007 0.0060938 -0.14582 
0.0079024 -0.21751 0.0065871 0.025495 0.011026 -0.13086 0.014643 -0.066084 
0.012342 -0.12198 0.035524 0.00017495 -0.031228 -0.061316 -0.010676 0.087972 
-0.0077169 0.014808 0.056898 0.026646 -0.05178 0.042758 -0.014787 0.20306 
0.0090533 0.08567 0.05772 0.030756 -0.012485 0.15555 0.051801 0.15587 
0.0019835 0.1151 0.067913 0.039963 -0.015773 0.22197 0.045718 0.13762 
-0.029748 0.087972 0.06742 0.023193 -0.025145 0.20832 0.056898 0.052623 
-0.10834 0.02122 0.059035 0.06183 -0.011498 0.15407 0.062488 -0.1741 
-0.19153 -0.038956 0.022864 0.014808 0.017274 0.1054 0.015959 -0.47038 
-0.37518 -0.066248 -0.0044286 0.045224 0.018425 0.026317 0.0011614 -0.56935 
-0.26913 -0.094692 -0.017088 0.013821 0.045718 -0.026131 0.0051074 -0.32602 
0.075312 -0.00064712 -0.00015387 0.029605 0.053609 -0.025309 0.0082312 0.075312 
0.11888 0.12595 -0.0022913 -0.0055795 0.085012 -0.039613 0.014972 0.30566 
-0.13695 0.11231 0.0026412 0.012999 0.075805 -0.028104 0.042923 0.28658 
0.22312 0.06479 0.0014903 0.031742 0.078765 -0.021199 0.076792 0.23479 
1.0268 0.0087245 0.038977 0.049664 0.061995 -0.040271 0.070873 0.21227 
0.8354 -0.25549 0.025988 0.051472 0.081395 -0.039284 0.081889 0.15127 
0.091918 -0.39656 0.007738 0.021384 0.070215 -0.020212 0.047197 -0.0138 
-0.45229 -0.17953 0.039141 0.027961 0.051308 -0.02087 0.038648 -0.13432 
-0.57412 0.099481 0.065447 0.0227 0.0092177 0.0070803 0.050979 -0.14369 
-0.34838 0.23775 0.068736 0.044402 -0.03205 0.0067515 0.031907 -0.13037 
0.031085 0.11658 0.059857 0.0074092 -0.086964 0.034373 0.0088889 -0.079401 
0.22559 -0.028926 0.051308 0.020069 -0.081868 0.068242 -0.00015387 -0.022843 
0.21901 -0.049314 0.076463 0.035688 -0.037969 0.066105 0.015794 -0.046025 
0.047691 0.055418 0.11066 0.058706 0.020891 0.061501 0.0021479 -0.081539 
-0.12955 0.086328 0.081889 0.060186 0.058213 0.046375 -0.0014692 -0.083512 
-0.22425 0.095371 0.025824 0.037168 0.081067 0.038977 0.01004 -0.055397 
-0.11311 0.10326 -0.00097594 0.028125 0.082382 0.025495 0.0023123 0.035195 
0.030592 0.13105 0.015465 0.024344 0.070544 0.071202 0.047691 0.048513 
0.11033 0.23973 0.0074092 0.058377 0.0421 0.056898 0.054267 0.028454 
0.13845 0.24581 0.04358 0.023357 0.039305 0.028619 0.033222 0.042594 
0.10589 0.20405 0.051965 0.043087 0.037168 0.044896 0.026481 0.073832 
0.031578 0.12908 0.040785 0.025001 0.041443 0.019576 0.055418 0.13088 
0.028454 0.0064227 0.05065 0.062323 0.082382 0.028619 0.049664 0.20043 
0.078929 -0.062467 0.031578 0.043909 0.080738 0.043251 0.039799 0.17725 
0.10293 -0.13563 -0.016431 0.060186 0.076956 0.0036276 0.049335 0.080409 
0.075148 -0.22063 -0.023007 0.031907 0.071037 0.058049 0.021549 -0.034023 
0.040292 -0.12856 -0.01939 0.051308 0.032729 0.041114 0.013657 -0.11771 
0.013821 0.042429 -0.01117 0.014315 0.0069159 0.034702 0.040292 -0.15174 
0.00066819 0.19369 0.023357 -0.0072237 0.0047785 0.031742 0.017932 -0.15405 
0.0069159 0.23529 0.046375 0.022535 -0.014951 -0.013143 -0.015444 -0.12725 
0.053609 0.19681 0.071531 0.039141 0.012999 -0.013471 -0.008539 0.033058 
0.12776 0.12381 0.084026 0.034044 0.024015 0.0037921 -0.0072237 0.15686 
0.14371 0.10228 0.077121 0.063968 0.027303 0.0088889 0.0013258 0.17824 
0.1031 0.085341 0.10359 0.068571 0.021713 -0.0072237 0.042923 0.19402 
-0.17131 0.020233 0.086821 0.049664 0.0079024 0.0021479 0.043416 0.2075 
-0.32388 -0.087786 0.051801 0.061995 0.014972 -0.0027845 0.061172 0.19155 
0.01267 -0.18693 0.011026 0.0227 0.036675 0.0047785 0.049664 0.14667 
0.3438 -0.10834 -0.020212 0.050486 0.0028056 0.025495 0.012835 0.062488 
0.32917 0.017767 0.01267 0.027468 0.043745 0.028125 0.0069159 0.030427 
0.20832 0.051308 0.02681 0.0067515 0.054596 0.035853 0.018425 -0.044874 
0.01711 0.12628 0.017603 0.019083 0.10145 0.044238 0.0088889 -0.042244 
-0.2185 0.28938 0.061337 0.024179 0.17708 0.083368 0.037661 0.015301 
-0.3982 0.32982 0.070873 0.041114 0.13319 0.083204 0.068078 0.071202 
-0.17953 0.26422 0.050157 0.050321 0.066763 0.048019 0.057555 0.080902 
0.24153 0.17429 0.018425 0.054925 -0.018239 0.0421 0.044402 0.13088 
0.28724 0.036346 -0.0027845 0.034702 -0.061151 0.065118 0.06183 0.13565 
0.092576 -0.043559 -0.013143 0.028454 -0.088608 0.010697 0.040292 0.10803 
-0.0059084 -0.079237 -0.0406 -0.032379 -0.09239 -0.038956 -0.0064016 0.073339 
0.12283 0.0051074 -0.015773 0.01004 -0.061316 -0.039284 0.0011614 0.020727 
0.23052 0.16558 0.031249 0.026481 0.037004 -0.059507 0.013492 -0.0022913 
0.051472 0.19205 0.057555 0.070873 0.064625 -0.042901 0.0069159 0.0069159 
-0.26716 0.16738 0.097672 0.045224 0.10622 0.004943 0.022864 -0.026296 
-0.43125 0.16771 0.068736 0.037168 0.10293 0.012342 0.025824 -0.0054151 
0.012342 0.16393 0.040456 0.013657 0.14963 0.034373 0.027961 0.08863 
0.57743 0.12694 0.025001 0.004943 0.17906 0.050979 0.10474 0.095699 
0.54751 0.10902 0.048348 0.026646 0.15966 0.071366 0.16903 0.0080668 
0.077943 0.05772 0.036182 1.0539e-005 0.092411 0.090603 0.12118 -0.050464 
-0.23017 -0.091897 0.022535 0.014808 -0.054904 0.045718 0.03536 -0.10209 
-0.20419 -0.17558 0.016781 0.0065871 -0.10242 0.012013 -0.010348 0.00050378 
-0.081045 -0.11508 0.04506 0.0026412 -0.055561 0.033715 -0.031392 0.10162 
-0.17295 0.053774 0.05476 0.016616 -0.051287 0.031414 -0.056877 0.10178 
-0.50934 0.16936 0.064132 0.069886 -0.058028 0.036346 -0.038133 0.054432 
-0.4079 0.12908 0.062159 0.054925 -0.029091 0.061995 -0.069208 0.021056 
0.42338 0.058871 0.071202 0.053609 0.068736 0.055582 -0.047669 0.061995 
1.1082 0.0056006 0.088794 0.054103 0.12381 0.040785 -0.01939 0.13088 
0.82816 -0.08121 0.078929 0.056569 0.11658 0.0014903 -0.023994 0.09274 
0.20635 -0.11524 0.037004 0.045882 0.057227 -0.033201 -0.025802 0.059528 
-0.15684 -0.076113 0.0047785 0.032564 -0.053753 0.0059294 0.0031344 0.076627 
-0.24595 -0.089431 -0.017911 0.0093821 -0.066084 0.021384 -0.0054151 0.076627 
-0.2693 -0.14073 -0.035503 -0.0032777 -0.024487 -0.0027845 0.042429 0.065283 
-0.22557 -0.14566 -0.024816 0.0074092 0.025495 -0.0068948 0.11773 0.060022 
-0.15257 -0.12807 -0.0050863 -0.010676 0.016781 -0.02646 0.097672 -0.05441 
-0.0042642 0.045882 -0.0083746 0.0042853 0.01711 -0.051451 0.050321 -0.15552 
0.097508 0.1128 0.0070803 -0.016102 0.04358 -0.024487 0.050979 -0.068879 
0.11 0.14486 0.018589 0.036346 0.080409 0.013657 0.053281 0.0083956 
0.030098 0.18202 0.0069159 0.038812 0.10359 0.013492 0.03536 -0.07003 
-0.014129 0.14058 0.011355 0.06479 0.06742 0.058706 0.03947 -0.20304 
-0.042079 0.067585 0.036839 0.0786 0.047691 0.037004 -0.015609 -0.41793 
-0.036983 0.025495 0.053445 0.051636 0.026152 0.036346 -0.048492 -0.55012 
-0.02942 -0.008539 0.05624 0.037168 0.017274 0.077614 -0.035338 -0.24924 
0.024179 0.053609 0.052294 0.023028 0.0026412 0.049992 0.0011614 0.183 
0.057391 0.11905 0.018754 0.0090533 -0.010183 0.039799 -0.0036066 0.38227 
-0.0036066 0.015301 -0.011663 -0.012814 -0.018897 -0.0080457 0.027961 0.36501 
-0.097651 -0.079237 -0.038462 0.0037921 -0.0039354 -0.028433 0.026481 0.31569 
-0.13136 -0.073647 -0.039613 -0.0080457 0.0056006 0.004943 0.030592 0.20651 
-0.064768 -0.016924 -0.037805 0.013328 -0.024652 -0.009361 0.026974 0.13943 
0.14108 0.074983 -0.032543 -0.0078813 -0.051944 -0.010512 -0.0098543 0.1026 
0.1322 -0.033694 -0.034352 0.0085601 -0.03353 0.0023123 -0.057041 0.03092 
-0.068714 -0.25565 -0.042737 -0.025309 -0.0019624 -0.017746 -0.02646 -0.081045 
-0.16999 -0.34493 -0.01528 0.0041209 0.091589 -0.02235 -0.011005 -0.17986 
-0.13399 -0.24595 0.020727 0.031907 0.12825 0.018754 -0.004593 -0.24447 
0.03388 0.038155 0.053116 0.060844 0.1003 0.014479 0.016123 -0.22918 
0.16837 0.29579 0.10063 0.06479 0.085506 0.021878 0.039141 -0.1524 
0.14848 0.3854 0.12858 0.065447 0.082546 0.060844 0.068407 -0.020541 
0.06183 0.38753 0.12414 0.055089 0.049499 0.054432 0.08008 0.14387 
0.26505 0.29859 0.13565 0.038977 0.023686 0.046375 0.10047 0.21786 
0.46021 0.15686 0.15094 0.041278 0.0014903 0.06331 0.08156 0.23151 
0.23627 0.069558 0.10819 -0.0068948 0.015959 0.04917 0.070873 0.18448 
-0.1011 -0.008539 0.048513 0.012506 0.092411 0.045224 0.072681 0.10967 
-0.27818 -0.060823 0.0092177 0.012999 0.15653 0.046704 0.023193 0.059364 
-0.28508 -0.031064 -0.027611 0.081067 0.13746 0.014808 0.021713 -0.0064016 
-0.20863 0.028947 0.043909 0.056898 0.03092 0.013986 0.012177 -0.018075 
-0.080881 0.014972 0.081231 0.07038 -0.072825 -0.006566 0.039305 -0.032872 
-0.022185 -0.07414 0.02681 0.025001 -0.14254 -0.0072237 0.030756 -0.13662 
-0.0019624 -0.17542 -0.038133 -0.018239 -0.1427 0.018754 0.036017 -0.21718 
-0.048985 -0.071345 -0.10258 -0.009361 -0.1187 -0.0016336 0.00083261 -0.099624 
-0.0027845 0.19796 -0.10423 -0.0072237 -0.084005 0.0044497 -0.006566 0.024344 
0.12562 0.33837 -0.073318 0.016123 -0.0044286 0.044731 0.052787 0.074983 
0.1835 0.2759 -0.031392 0.030756 0.058049 0.063639 0.066763 0.16903 
0.18761 0.19599 -0.0027845 0.076134 0.095864 0.072188 0.072024 0.21885 
0.1784 0.11592 0.0093821 0.037332 0.12102 0.090603 0.08008 0.1909 
0.12135 0.15176 0.010533 0.03536 0.076134 0.029276 0.055582 0.15735 
0.069393 0.19106 0.041772 0.0060938 0.0019835 0.0082312 0.020398 0.08715 
0.049664 0.10803 0.079916 0.00099702 0.0083956 0.01563 0.021384 0.058706 
0.048841 -0.049478 0.090274 0.016781 0.038812 0.051472 0.078765 0.082711 
-0.065919 -0.22688 0.098494 0.012013 0.11576 0.088465 0.15324 0.06479 
-0.34871 -0.29314 0.086821 0.0324 0.085012 0.059528 0.15966 0.0093821 
-0.4878 -0.074962 0.14535 0.034866 0.085835 0.025495 0.08863 -0.047341 
0.073339 0.2149 0.27212 0.056733 0.051472 0.0227 0.063639 -0.051944 
0.7698 0.38145 0.32571 0.072517 0.036182 0.038483 0.042429 0.0080668 
0.89262 0.3387 0.22197 0.065447 0.041936 0.020233 -0.024323 0.040456 
0.31634 0.20125 0.12316 0.048513 0.017603 0.054596 -0.079895 0.10014 
-0.12889 0.090767 0.0052718 0.053116 -0.008539 0.03651 -0.081868 0.14239 
-0.2106 0.0689 -0.060329 0.011026 0.045389 0.045718 -0.073811 0.11181 
-0.11689 0.038977 -0.093541 0.044567 0.082053 0.068078 -0.030899 0.11148 
-0.021199 0.0013258 -0.072496 0.047526 0.085999 0.048513 0.03651 0.10113 
0.015301 -0.026296 -0.061973 0.061172 0.029769 0.031085 0.06594 0.1026 
0.018754 -0.052931 -0.049314 0.033551 -0.041422 -0.004593 0.10606 0.13154 
0.016616 -0.074798 -0.091897 0.017274 -0.10538 -0.02794 0.12135 0.11181 
0.017274 -0.11113 -0.07562 -0.00097594 -0.12905 0.00099702 0.12612 0.048184 
-0.0090322 -0.13185 -0.029255 -0.00097594 -0.10456 0.010369 0.088794 0.0047785 
-0.014129 -0.075784 0.017932 0.027961 -0.081539 0.0016547 0.042923 -0.013965 
-0.019061 0.048184 0.061172 0.023522 -0.034681 0.016616 -0.024323 -0.0024557 
0.022042 0.098988 0.090274 0.043087 0.054925 0.0014903 -0.047834 0.03388 
0.062323 0.11937 0.058542 0.016123 0.12266 0.01004 -0.061645 0.042923 
0.13023 0.16607 0.078107 0.03947 0.14568 0.025166 -0.055232 -0.030406 
0.16821 0.19862 0.11444 0.027303 0.1927 0.055747 -0.040928 -0.055232 
0.13499 0.18991 0.11148 0.090767 0.21474 0.066927 0.018589 -0.15783 
0.05213 0.17166 0.063145 0.041443 0.17084 0.075148 0.047033 -0.33309 
0.013821 0.13253 0.029276 0.051801 0.07301 0.028947 0.029934 -0.25763 
0.005765 0.18054 0.024015 0.017274 -0.0021268 0.018589 0.01267 -0.0011404 
-0.028597 0.19254 -0.030899 -0.0022913 -0.039942 -0.017253 0.034044 0.18087 
-0.073482 0.17692 -0.034188 -0.004593 -0.04882 -0.03205 -0.009361 0.23726 
-0.083347 0.059364 -0.011498 -0.0014692 -0.075291 -0.021692 -0.012978 0.21687 
-0.068221 -0.1838 0.033387 0.024179 -0.075784 -0.030077 0.01563 0.23118 
-0.096665 -0.37452 0.070873 0.033222 0.0051074 0.00099702 0.020069 0.18383 
-0.10784 -0.26305 0.11165 0.064625 0.11642 0.041278 0.034044 0.07038 
-0.10932 -0.097487 0.11724 0.043087 0.17643 0.034044 0.036346 -0.039449 
-0.10012 0.010862 0.067256 0.045553 0.20503 0.037661 0.018918 -0.090417 
-0.022679 0.039141 0.018589 0.0087245 0.14157 0.045224 0.013328 -0.098638 
0.20849 0.056404 0.015465 0.035031 0.053445 0.015301 0.033387 -0.058192 
0.45198 0.14979 0.025166 0.015959 -0.057863 -0.0034422 0.040456 0.047362 
0.40743 0.26028 0.049335 0.033551 -0.084498 0.005765 0.009711 0.084848 
0.1858 0.23956 0.055747 -0.012485 -0.061151 -0.012156 0.034702 0.055911 
-0.031886 0.17824 0.043087 0.0036276 -0.08269 -0.022843 0.0080668 0.041772 
-0.10489 0.19336 0.022371 0.025988 -0.057205 0.038319 0.0014903 0.11461 
-0.11212 0.12809 0.043745 0.054267 0.032893 0.014808 0.04506 0.20553 
-0.16325 0.095699 0.01415 0.054267 0.12118 0.048019 0.026646 0.12792 
-0.15092 0.03388 -0.0044286 0.025001 0.13072 0.0083956 0.0067515 -0.019226 
0.020233 -0.10406 -0.040928 0.014643 0.11148 -0.021528 0.014479 -0.068057 
0.28247 -0.11393 -0.039613 -0.011992 0.039799 0.025166 0.030098 -0.053588 
0.23742 -0.097487 -0.0052507 0.046211 0.037004 0.025659 0.039141 -0.10932 
-0.086142 -0.1016 0.030756 0.044896 0.032236 0.023522 0.026974 -0.31073 
-0.20879 0.00017495 0.056404 0.078436 0.057391 0.051308 -0.0027845 -0.376 
-0.13777 0.060515 0.031742 0.046375 0.060186 0.032236 0.013657 -0.18117 
-0.040106 0.13236 0.029769 0.055911 0.043416 0.039634 0.04506 0.075312 
0.0060938 0.1687 0.018096 0.0083956 0.0059294 0.03092 0.037497 0.19813 
0.026646 0.074654 0.01415 -0.0029489 -0.00015387 0.017274 0.021056 0.23545 
0.019247 -0.069208 0.015959 -0.020212 -0.0026201 -0.013471 0.026317 0.17347 
0.038648 -0.25236 0.023357 -0.004593 0.0037921 -0.0082102 0.027139 0.11083 
0.052294 -0.34082 -0.0070593 0.018754 -0.020048 -0.03057 0.01826 0.073175 
0.066927 -0.31418 -0.0059084 0.0069159 -0.047341 -0.028269 0.042265 0.042429 
0.088958 -0.23017 0.027961 0.022042 -0.056548 -0.016266 0.03799 0.039634 
0.085012 -0.13037 0.075148 0.01711 -0.025474 0.0016547 0.031085 0.042758 
0.082382 -0.042901 0.063474 0.071531 0.013657 0.030098 0.015959 0.012013 
0.061337 0.055747 0.040785 0.042923 0.063639 0.035688 0.018589 0.066269 
0.020398 0.064625 0.0082312 0.057555 0.059364 0.05624 0.047033 0.090274 
-0.042079 0.11017 0.014972 0.03536 0.00017495 0.079587 0.072846 0.12464 
-0.030242 0.18695 0.0087245 0.042923 0.021549 0.082217 0.074161 0.12102 
-0.013965 0.23233 0.020069 0.029769 0.047197 0.082546 0.033387 0.064296 
0.00083261 0.29217 0.035524 0.022864 0.05476 0.09422 0.019411 0.047526 
0.16377 0.25058 0.039141 0.031414 0.045553 0.071037 0.036675 0.01563 
0.44393 0.19336 0.039963 0.036839 0.070215 0.062652 0.028619 -0.022843 
0.44311 0.17791 0.038319 0.056733 0.094055 0.05624 0.030263 -0.080552 
0.029934 0.14585 0.03947 0.061172 0.071531 -0.0024557 0.039305 -0.17986 
-0.26157 0.1493 0.044567 0.077449 0.037168 0.027796 0.0070803 -0.12757 
-0.23576 0.13335 0.052952 0.03651 0.038319 0.039141 0.012013 -0.02235 
-0.03912 -0.079237 0.013657 0.031249 0.015137 0.0019835 0.015465 0.018589 
0.15144 -0.3742 -0.012814 -0.019061 0.0042853 -0.013471 -0.00064712 -0.0034422 
0.11115 -0.46544 -0.026296 0.013821 0.00066819 -0.039778 -0.00081153 -0.0406 
-0.0098543 -0.32701 -0.011334 -0.0027845 0.0044497 -0.044217 0.010204 -0.048656 
-0.065097 -0.050629 0.0039565 0.020727 0.037826 -0.030899 -0.013636 -0.012156 
-0.17624 0.15357 0.035524 0.012835 0.031907 -0.0083746 0.0098754 0.091589 
-0.50129 0.22378 0.011191 0.059693 0.030098 -0.018733 0.042758 0.13351 
-0.47975 0.27376 0.031742 0.049006 0.03536 0.0069159 0.036839 0.16903 
0.27606 0.29349 0.076792 0.0052718 0.061501 0.030263 0.005765 0.22427 
1.0375 0.2149 0.06331 0.028454 0.034537 0.078765 0.074819 0.16689 
0.82373 0.025988 0.033222 0.026646 0.00050378 0.11592 0.048677 0.10376 
0.20602 -0.11311 0.036017 0.034702 -0.0077169 0.093398 0.046211 0.0088889 
-0.37091 -0.13843 0.015959 -0.0016336 0.020891 0.099152 0.057391 -0.051287 
-0.59829 -0.012814 0.031578 0.03799 0.028783 0.089616 0.032893 -0.051122 
-0.27884 0.20273 0.044896 -0.021363 0.023357 0.04358 0.021713 -0.019884 
0.27179 0.33213 0.044402 0.01826 0.041443 0.045224 0.034209 0.051965 
0.30089 0.30319 0.072024 -0.004593 0.048348 -0.0062372 0.011191 0.1539 
0.062159 0.11378 0.079751 0.02533 0.046211 -0.074304 0.0080668 0.14946 
-0.084663 0.085012 0.093562 0.031742 0.040621 -0.092226 0.01563 0.10491 
-0.24036 0.18909 0.1031 0.048348 0.13401 -0.034845 -0.0054151 0.071531 
-0.38751 0.20076 0.12381 0.083697 0.17889 0.046704 0.018096 -0.025474 
-0.34509 0.11987 0.093398 0.083533 0.15111 0.1003 0.045718 -0.12757 
0.22756 0.055911 0.051965 0.064954 0.096193 0.090603 0.031578 -0.24973 
0.67181 0.01152 0.038977 0.0031344 0.051472 0.043909 0.01826 -0.31895 
0.35153 0.021878 0.0064227 -0.013471 -0.014787 0.084684 0.039963 0.026646 
-0.018404 0.00083261 -0.0082102 -0.035996 -0.087458 0.11 0.031907 0.31503 
0.17067 -0.042737 0.018918 0.011355 -0.11804 0.11839 0.00033937 0.33706 
0.43258 0.049499 0.040785 -0.025309 -0.12889 0.06594 0.041607 0.19961 
0.20947 0.12825 0.026152 0.027139 -0.11409 0.0075736 0.031249 -0.05885 
-0.22425 0.085835 0.025166 0.030427 -0.080059 -0.044381 0.021878 -0.18808 
-0.42023 0.073339 0.0041209 0.017767 0.0011614 -0.045039 0.029112 -0.14681 
-0.35183 0.058377 0.0034632 0.0098754 0.06479 -0.0022913 0.062817 -0.10012 
-0.20403 0.0092177 -0.01939 0.012999 0.080409 -0.018075 0.040785 -0.031557 
-0.054739 -0.075127 -0.024816 0.020398 0.078929 -0.065097 0.03092 0.065283 
0.076134 -0.11015 -0.011005 0.032729 0.079258 -0.11228 0.029934 0.10704 
0.095371 0.0034632 -0.0059084 0.067091 0.056898 -0.079895 0.029769 0.15966 
0.084026 0.17182 0.0046141 0.023193 0.021384 -0.060823 -0.0070593 0.19287 
0.16179 0.16262 -0.00015387 0.037661 -0.0075525 0.0024767 0.0036276 0.17149 
0.22279 0.066598 -0.0091966 -0.0004827 -0.011005 0.087643 -0.019884 0.12365 
0.21326 -0.010348 -0.00097594 0.033387 -0.02087 0.081889 0.0023123 0.085506 
-0.024652 -0.194 0.016781 0.012506 -0.026624 0.084519 0.04917 0.042923 
-0.072332 -0.26042 0.032071 0.036346 0.0024767 0.10589 0.041772 -0.011992 
-0.014458 -0.098309 0.060515 0.015301 0.06331 0.080738 -0.0034422 -0.07825 
0.031578 0.11576 0.075641 0.039305 0.11757 0.073997 0.040292 -0.1039 
0.041936 0.23496 0.092904 0.034373 0.089616 0.030756 0.035853 -0.05441 
-0.0019624 0.23101 0.074983 0.023686 0.067256 0.042923 0.029441 -0.045861 
0.01152 0.12431 0.058542 0.032564 0.024673 0.037661 0.051143 -0.034188 
0.030098 0.10096 0.037661 -0.0014692 -0.020377 0.00297 0.013821 -0.02235 
0.053281 0.024179 0.053938 0.016781 -0.034352 -0.034845 -0.01117 -0.012814 
0.0052718 -0.0047575 0.0075736 0.0046141 -0.072003 -0.0054151 0.024179 -0.012978 
-0.010841 0.01415 0.037168 0.03799 -0.083512 -0.023007 0.015959 0.074654 
0.019411 0.029276 0.039799 0.027139 -0.069043 -0.021528 0.027139 0.11411 
0.036675 0.00297 0.073832 0.098823 -0.015609 0.0037921 0.077943 0.13894 
0.038319 0.033387 0.04095 0.055418 0.03092 -0.031721 0.047197 0.14371 
-0.014951 0.0032988 0.013164 0.038483 0.071695 -0.033037 0.025166 0.11609 
-0.090088 -0.030899 0.013657 0.01711 0.069558 -0.023665 0.037168 0.035524 
0.012013 -0.032708 0.0065871 -0.0064016 0.071366 -0.036983 0.0093821 -0.028926 
0.21868 -0.059672 -0.013471 0.0026412 0.078436 0.011848 0.010697 -0.053095 
0.21194 0.031907 0.00033937 0.020727 0.12036 0.031742 0.052294 -0.018239 
0.094713 0.15966 0.027468 0.052787 0.1271 0.042923 0.059364 0.022371 
0.015959 0.18843 0.03388 0.039799 0.10491 0.067749 0.068571 0.09126 
-0.028104 0.1396 0.049006 0.041114 0.027139 0.040785 0.06331 0.14354 
-0.051944 0.13121 0.069064 -0.0052507 -0.035174 0.034702 0.037168 0.1003 
-0.050793 0.077449 0.059528 0.027139 -0.067564 0.062488 0.0054362 0.052623 
-0.056055 0.041443 0.047197 0.034373 -0.061645 0.029769 0.0031344 -0.015773 
-0.133 0.041278 0.014643 0.069064 -0.048163 -0.032215 -0.028269 -0.092061 
-0.43749 0.033058 -0.015609 0.040456 -0.021363 -0.042737 0.049828 -0.13843 
-0.70993 0.00066819 -0.025309 0.036346 0.040785 -0.035667 0.11099 -0.13366 
-0.33046 -0.071345 0.0080668 0.034373 0.15768 0.0039565 0.10507 -0.038133 
0.64386 -0.016924 0.035853 0.054596 0.22624 0.074654 0.063145 0.17429 
1.0621 0.024673 0.045389 0.059857 0.19944 0.097344 0.053445 0.2611 
0.68611 -0.012156 0.032564 0.061172 0.14026 0.062817 0.0034632 0.22805 
0.44426 -0.044874 0.011355 0.063639 0.060022 0.028947 -0.033859 0.10951 
0.3752 0.077943 0.037826 0.039963 0.016452 0.022371 -0.03501 0.058377 
0.069229 0.17626 0.036346 0.04654 -0.051287 0.026481 -0.019719 0.018918 
-0.23313 0.18103 0.038648 0.007738 -0.13021 0.01563 -0.017088 0.015465 
-0.34065 0.13861 0.033387 0.046375 -0.10505 0.0072447 -0.0026201 0.078436 
-0.27012 0.13894 0.071695 0.0014903 -0.0036066 0.034044 0.034702 0.18235 
-0.16177 0.13516 0.087643 0.051308 0.062488 0.016781 0.0093821 0.1733 
-0.12774 -0.042573 0.071531 0.016123 0.085506 -0.0034422 -0.034516 0.095042 
-0.12626 -0.36943 0.00017495 0.019247 0.061995 -0.001798 -0.0090322 0.031249 
-0.10127 -0.42631 -0.02794 0.014315 0.055089 -0.006566 0.01826 -0.033037 
-0.041422 -0.12692 -0.037969 0.018754 0.072353 0.019247 0.066269 -0.020541 
0.067913 0.19879 0.039634 0.031578 0.10474 0.056569 0.11757 -0.055397 
0.15999 0.33098 0.069886 0.042429 0.098988 0.031085 0.05772 -0.20025 
0.12398 0.26735 0.067749 0.055089 0.0786 0.039799 0.041114 -0.37551 
0.075148 0.11378 0.046704 0.062652 0.025166 0.022371 0.014479 -0.29889 
0.01974 0.058377 0.024508 0.062981 0.0098754 0.026974 0.0024767 -0.055397 
0.025001 -0.0019624 0.025659 0.01415 -0.034681 0.072517 -0.028926 0.16015 
0.049499 -0.012814 0.0069159 0.028783 -0.043559 0.059857 0.020069 0.23298 
0.097837 -0.03057 0.0026412 0.0093821 -0.05441 0.037826 0.067256 0.22887 
0.065776 0.0032988 0.0075736 0.032071 -0.041257 0.079916 0.10408 0.1641 
0.095864 0.018096 0.019247 0.014808 -0.019884 0.060679 0.10392 0.1128 
0.13138 0.074654 0.017932 0.013164 0.035195 0.020562 0.056569 0.061501 
0.14749 0.075312 0.014315 0.018754 0.0592 0.022535 0.0064227 0.070708 
0.10984 0.088794 0.0011614 0.012506 0.040456 -0.0068948 -0.046025 0.015137 
-0.010676 0.039305 -0.0088678 -0.0024557 0.02681 -0.01232 -0.12001 -0.026624 
-0.17525 -0.026624 -0.009361 0.00083261 0.063145 0.016452 -0.14418 -0.048327 
-0.19646 -0.047669 0.0064227 0.030427 0.063474 0.0044497 -0.095349 -0.058192 
-0.0027845 -0.028926 0.028619 0.012013 0.0079024 -0.0013048 -0.069372 -0.054575 
0.25946 0.037826 0.057555 0.044402 -0.020377 0.027468 -0.004593 -0.0011404 
0.31996 0.085177 0.099974 0.035688 -0.019719 0.016123 0.088465 0.004943 
0.048841 0.060515 0.091425 0.05476 -0.013471 0.017767 0.095699 0.0079024 
-0.17575 -0.023336 0.072024 0.019905 0.022371 0.0067515 0.12184 0.017932 
-0.22639 -0.041422 0.041607 0.028619 -0.020541 -0.021528 0.15423 0.060186 
-0.19235 0.0024767 0.02829 0.01415 -0.0406 0.03536 0.13351 0.076627 
-0.062796 0.070873 0.019905 -0.014458 -0.022679 0.033058 0.070544 0.069229 
0.10408 0.083697 0.014643 -0.023665 0.017603 0.040456 0.027468 0.061666 
0.22707 -0.00097594 0.039963 -0.014458 0.050979 0.049006 -0.015609 0.050486 
0.1881 -0.13596 0.099645 0.046211 0.08978 0.029769 -0.038627 -0.011334 
0.1128 -0.074962 0.12973 0.055582 0.077285 0.033058 -0.024158 0.0067515 
0.045718 0.050321 0.12168 0.080244 0.051965 0.049828 0.018425 0.06035 
0.0079024 0.14634 0.067256 0.027139 0.049664 0.029276 0.039634 0.052294 
-0.036983 0.15587 0.038977 0.055089 0.027632 0.013328 0.054432 0.00297 
-0.14385 0.14026 0.012013 0.01415 0.029769 0.021384 0.058377 -0.10982 
-0.27341 0.17643 0.027139 0.047197 0.0018191 0.028125 0.03651 -0.18249 
-0.27604 0.17774 0.02829 0.029934 -0.013307 0.01826 0.028783 -0.17049 
0.085506 0.17988 0.050814 0.056404 -0.0087034 0.018096 0.032729 -0.18989 
0.47484 0.19533 0.05624 0.0421 0.0088889 0.028947 0.055089 -0.091732 
0.41812 0.18547 0.067091 0.03536 0.022535 0.034537 0.063145 0.13236 
0.077449 0.1539 0.084355 0.032071 0.039799 0.0069159 0.061995 0.24696 
-0.097651 0.12661 0.0592 0.016781 0.03388 -0.011005 0.033715 0.26817 
-0.081374 0.070215 0.05213 0.034866 0.030592 0.00083261 0.015465 0.23003 
0.00033937 -0.014129 0.025166 0.019411 0.031249 -0.0026201 0.037168 0.14946 
0.080409 -0.041751 -0.00097594 0.048019 0.028947 0.021878 0.01267 0.094877 
0.12529 -0.062796 -0.0062372 0.034209 0.041443 0.053281 0.035031 0.10491 
0.1077 -0.16966 -0.042573 0.054103 0.056404 0.023193 0.034866 0.066105 
0.076956 -0.22261 -0.036983 0.039634 0.031742 0.033222 0.0059294 0.032564 
0.007738 -0.20567 -0.045203 0.066434 -0.021199 0.045224 0.018096 -0.021692 
0.034866 -0.084991 -0.03764 0.0087245 -0.0049219 0.009711 0.052623 -0.040928 
0.045224 0.020562 -0.040271 0.025495 0.0079024 0.026481 0.035853 -0.027775 
0.065283 0.0052718 0.0056006 0.0093821 0.018425 0.024673 0.037004 0.0054362 
0.047526 -0.00097594 0.0075736 0.023686 0.019411 0.038648 0.09833 0.0021479 
0.022864 -0.012156 0.044896 0.019411 0.038977 0.039305 0.044238 -0.11853 
0.0054362 0.029934 0.059693 0.035688 0.061995 0.027632 0.032893 -0.13349 
-0.0022913 0.071859 0.10277 0.049664 0.082217 0.025495 0.046046 0.056076 
-0.010183 0.12546 0.1299 0.031578 0.08567 0.047362 0.045224 0.2172 
-0.041093 0.17363 0.15193 0.057227 0.060844 0.01826 0.038155 0.21457 
-0.23559 0.24959 0.147 0.049992 0.052787 0.0098754 0.021056 0.089287 
-0.65222 0.26455 0.1179 0.062652 0.05772 0.032564 0.018918 -0.033365 
-0.64515 0.22526 0.030756 0.0080668 0.060679 0.019247 0.036839 -0.06148 
0.45215 0.17873 -0.034188 0.013328 0.030263 0.012013 0.073832 0.061337 
1.4339 0.13319 -0.054082 -0.003771 0.0093821 0.029112 0.047362 0.11642 
