0.29612 0.72376 -0.71091 0.045718 0.021056 0.0095465 -0.0052507 -0.042244 
0.32522 0.75862 -0.74873 0.027139 0.019576 0.030263 0.021713 -0.022843 
0.11066 0.43932 -0.55275 0.041443 0.015465 0.0069159 0.045224 -0.052602 
-0.13563 -0.43371 0.074161 0.041443 -0.020048 0.0019835 0.021384 -0.090417 
-0.31155 -1.7018 0.67805 0.0011614 -0.054739 -0.0138 0.020727 -0.13119 
-0.30235 -2.4134 0.69844 -0.035832 -0.043395 -0.014622 0.0037921 -0.023665 
-0.098638 -1.8033 0.36912 -0.06296 -0.0096899 0.0031344 0.027139 0.067749 
0.14913 -0.03057 0.20816 -0.01939 0.022371 0.017932 0.056898 0.15489 
0.32276 1.3543 0.15587 0.041936 0.068736 0.037661 0.045553 0.2075 
0.37981 1.702 -0.049971 0.14338 0.11181 0.059857 0.055089 0.21112 
0.32111 1.2744 -0.53483 0.13417 0.12727 0.059693 0.050486 0.18465 
0.17922 0.55146 -0.77504 0.063474 0.071859 0.030592 0.040456 0.12447 
-0.023007 0.08715 -0.41168 -0.014787 0.038648 0.03092 0.036017 0.091753 
-0.12067 0.2001 0.17182 0.037168 0.013821 0.020562 0.053116 0.072517 
-0.082196 0.41927 0.50887 0.052459 0.014972 0.014315 0.034209 0.041772 
-0.039449 0.1345 0.37504 0.044238 0.0065871 0.022206 0.0093821 0.04917 
-0.11738 -0.36219 0.24269 0.02533 -0.0011404 0.021713 0.026646 0.054432 
-0.33523 -0.32915 0.15324 0.025001 0.0093821 0.00050378 0.010533 0.02533 
-0.2813 0.18317 -0.0031133 0.010862 0.0092177 0.01974 0.018425 0.016123 
0.16771 0.51068 -0.30235 -0.030735 0.01267 0.0051074 0.037826 0.012835 
0.83047 0.55014 -0.45015 -0.034516 0.015465 0.014315 0.031907 0.042594 
0.9158 0.48174 -0.25664 -0.0032777 0.020069 0.022206 0.038648 0.039634 
0.52005 0.32341 -0.0064016 0.079587 0.052952 0.020398 0.047033 0.029276 
-0.15207 -0.078415 0.090109 0.055254 0.028947 0.013986 0.015959 -0.015444 
-0.59878 -0.35085 0.16212 0.095699 0.015465 -0.0019624 -0.0014692 -0.054739 
-0.60043 -0.31287 0.23808 0.084519 0.029276 0.030592 0.019576 -0.097651 
-0.45065 -0.31961 0.32243 0.1054 0.038155 0.029934 0.025166 -0.096007 
-0.25549 -0.50655 0.22986 0.034866 0.0098754 0.013164 0.017932 -0.068714 
0.19303 -0.53105 0.10244 -0.012978 0.018754 0.0088889 0.034702 0.0052718 
0.69515 -0.27357 -0.045368 -0.012814 0.051143 0.038648 0.050814 0.099481 
0.69532 -0.015773 -0.194 0.0019835 0.047033 0.047362 0.061995 0.089452 
0.31174 0.15061 -0.12823 0.020398 0.033222 0.016452 0.053116 0.038812 
-0.05737 0.44985 -0.045532 0.027303 0.019083 0.022042 0.04358 0.034866 
-0.16769 0.65849 -0.076935 0.071366 0.018918 0.0016547 0.018589 0.057555 
-0.23247 0.55705 -0.064275 0.070544 0.034866 0.030756 0.027468 0.035524 
-0.22606 0.29744 0.0088889 0.099481 0.065447 0.018589 0.022864 0.040292 
-0.13464 0.23578 0.30105 0.086821 0.044238 0.017767 0.030098 0.026974 
-0.045532 0.046704 0.40957 0.10967 0.053116 0.038155 0.0041209 0.0069159 
0.022042 -0.21044 0.20405 0.018754 0.032236 0.015137 0.013164 -0.033365 
0.069229 -0.19531 0.10704 -0.018404 0.0079024 0.0070803 -0.00097594 -0.028926 
0.18218 -0.24661 0.062817 -0.046847 0.0067515 0.029441 0.0046141 -0.028269 
0.15259 -0.13711 -0.016431 -0.026624 0.016123 0.02681 0.041278 -0.011827 
0.0070803 -0.020212 0.17971 -0.01939 0.013164 0.0016547 0.030592 -0.037147 
-0.16687 -0.39244 0.40578 -0.026624 0.0037921 0.022864 -0.0055795 -0.086142 
-0.29495 -0.4393 0.31733 -0.011334 0.0014903 0.0046141 0.004943 -0.047341 
-0.22803 -0.08121 0.066927 0.013492 0.011355 0.0227 0.0067515 0.004943 
-0.035338 0.024179 -0.34016 0.050321 0.036346 0.03536 0.013492 0.10113 
0.047033 -0.255 -0.80447 0.033222 0.029934 0.031742 0.043909 0.10376 
0.14601 -0.25697 -0.91084 0.066105 0.063474 0.049499 0.0421 0.04095 
0.39181 0.082053 -0.68691 0.049335 0.088301 0.051308 0.023357 0.0042853 
0.65257 0.31125 -0.26502 0.087643 0.075805 0.042265 0.069229 -0.036325 
0.53847 0.22592 0.32407 0.018754 0.046868 0.042758 0.016945 -0.033201 
0.17511 0.14042 0.78328 0.0060938 0.011191 0.010369 -0.009361 -0.017088 
-0.41382 0.22016 0.9107 -0.0032777 0.023193 0.016288 0.024015 -0.022185 
-0.644 0.31421 0.69039 0.010697 0.018425 0.010697 0.034702 0.013657 
-0.33408 0.33541 0.39444 0.020069 0.016452 0.020727 0.026974 0.036017 
-0.0090322 0.30303 0.14321 0.0092177 0.032729 0.025166 0.043909 0.0047785 
-0.064111 0.17758 -0.017088 0.033058 0.034209 0.044073 0.020398 -0.015444 
-0.1741 -0.0073881 -0.13316 0.018425 0.022864 0.035853 0.0031344 -0.031392 
-0.09091 0.10211 -0.16555 0.021713 0.0023123 0.037332 0.02122 -0.029255 
0.059528 0.24466 -0.14615 -0.02087 0.00017495 0.023028 0.025988 0.037661 
0.10392 -0.16358 -0.13399 0.035524 0.0019835 0.033058 0.029112 0.082875 
0.080573 -1.0383 -0.17328 0.01711 0.017603 0.030098 0.036839 0.14404 
0.10063 -1.3692 -0.24645 0.013821 0.021713 0.013821 0.015959 0.17889 
0.12858 -0.89571 -0.29051 -0.016102 0.024179 0.010533 0.0059294 0.092082 
0.11214 -0.13366 -0.17953 0.016781 0.048184 0.029441 0.015301 0.048019 
0.019905 0.53847 -0.097487 0.0080668 0.037168 0.025495 0.026974 0.035195 
-0.017088 0.60949 -0.13826 0.023193 0.054925 0.050321 0.050979 0.022371 
-0.11787 0.14387 -0.18134 0.022864 0.021056 0.048019 0.083368 0.00017495 
-0.25976 -0.17739 -0.094199 -0.001798 0.01267 0.054267 0.12184 -0.017911 
-0.16243 -0.30679 0.10573 0.007738 -0.011663 0.034537 0.0786 -0.024323 
0.17034 -0.080388 0.055418 0.033058 0.0083956 0.038977 0.021713 0.019083 
0.31305 0.48569 -0.12823 0.060186 0.038483 0.026317 0.017767 0.027468 
0.25502 0.98863 0.062652 0.079751 0.049006 0.035031 0.014315 0.0324 
0.083697 1.1223 0.47517 0.15341 0.085999 0.058871 -0.0031133 0.06479 
-0.031064 0.92747 0.56477 0.1368 0.094055 0.051472 0.0011614 0.0689 
-0.049642 0.92517 0.63958 0.15637 0.086163 0.047526 -0.013471 0.064296 
-0.03205 0.92418 0.85316 0.10655 0.060515 0.031907 -0.018075 0.05213 
-0.12609 0.4653 0.82718 0.057884 0.032236 0.019576 -0.0057439 -0.013636 
-0.1838 -0.23379 0.20158 -0.014458 0.022864 0.034209 -0.019555 0.016452 
0.0011614 -0.71108 -0.3446 -0.10521 0.0018191 0.005765 0.0024767 0.045882 
0.1858 -0.57412 -0.60026 -0.10587 -0.0080457 -0.0073881 0.029276 0.060844 
0.37241 -0.59681 -0.59434 -0.070194 -0.020541 -0.028597 0.015794 0.078765 
0.33706 -1.8399 -0.51312 -0.06148 -0.057041 -0.059178 0.0069159 0.020398 
0.15259 -2.6839 -0.52447 -0.060823 -0.088444 -0.067564 0.02681 -0.046025 
-0.10521 -1.6588 -0.34033 -0.02087 -0.034188 -0.053588 0.018918 -0.056219 
-0.29413 -0.087129 -0.1205 0.036675 0.012013 -0.051615 0.038483 -0.10637 
-0.20501 0.88324 -0.016266 0.14453 0.053938 0.022864 0.080902 -0.097651 
-0.14566 1.3462 0.078272 0.16722 0.10787 0.091425 0.095206 -0.014622 
-0.10554 1.4324 0.14453 0.16492 0.084848 0.095042 0.075805 0.046375 
0.075148 1.1371 0.60571 0.080902 0.062981 0.093233 0.065612 0.06479 
0.19468 0.64813 1.1797 0.054103 0.022371 0.024179 0.025659 0.11231 
0.17314 0.2948 0.98584 0.0036276 -0.0055795 -0.022514 0.0046141 0.089123 
0.065612 0.23414 0.53222 -0.0050863 -0.034845 0.00083261 -0.0049219 0.053774 
0.040785 0.35942 0.14075 0.040785 0.019411 0.0054362 -0.013143 0.048677 
0.11378 0.37701 -0.33161 0.071037 0.044896 0.015465 0.00017495 0.043909 
0.21753 0.25518 -0.78917 0.075805 0.065118 0.045882 0.026646 0.1128 
0.24581 -0.018404 -0.9286 0.036675 0.061008 0.026974 0.042923 0.14798 
0.22246 -0.070523 -0.55258 0.010369 0.058706 0.016123 0.034373 0.11148 
0.17363 0.076956 -0.057041 -0.011827 0.047033 0.007738 0.040292 0.082546 
0.043745 0.061995 0.21424 0.0069159 0.02122 0.0051074 0.028947 0.023028 
-0.078744 0.090603 0.39987 0.011026 0.036182 0.011026 0.016123 1.0539e-005 
-0.039942 0.25304 0.96562 0.098494 0.053445 0.013986 0.033222 0.0056006 
0.01711 0.14305 1.0717 0.074983 0.067256 -0.014951 0.026646 -0.029584 
0.12184 -0.12757 0.7213 0.051636 0.034373 0.020069 0.021549 -0.014129 
0.1978 -0.38225 0.24104 0.038977 0.029112 0.0059294 0.041607 0.0082312 
-0.08384 -0.6121 -0.19794 0.0052718 0.007738 0.00083261 0.040785 -0.071838 
-0.37831 -0.69349 -0.58497 0.01563 0.016616 0.033222 0.028454 -0.12741 
-0.15059 -0.47071 -0.93978 -0.0034422 0.020069 0.014643 0.015301 -0.1085 
0.0592 -0.145 -1.068 -0.0016336 0.027961 0.0087245 0.01711 -0.084169 
0.092411 0.15686 -0.77257 -0.017253 0.027796 0.027468 0.01152 0.01267 
0.11066 0.31914 -0.27801 0.018589 0.046046 0.023686 0.024673 0.14798 
0.03092 -0.10275 0.17774 0.0046141 0.036182 0.031085 0.037497 0.22197 
-0.017746 -0.51888 0.40694 0.024673 0.027468 0.051965 0.02681 0.23348 
0.0064227 -0.21998 0.4944 0.036675 0.026317 0.018589 0.028454 0.16508 
0.14683 0.68249 0.47352 0.085999 0.062981 0.03799 0.077614 0.10852 
0.33459 1.5169 0.33509 0.10392 0.072517 0.052623 0.064132 0.055418 
0.35597 1.7757 0.12776 0.095206 0.080573 0.051801 0.066269 0.069886 
0.27409 1.5143 -0.0040998 0.042594 0.038155 0.09274 0.10343 0.06183 
0.15933 1.0421 0.076627 0.026481 0.024015 0.040621 0.062323 0.056733 
0.082711 0.47813 0.12677 0.04358 0.028454 0.030098 0.057391 0.0060938 
-0.03057 -0.6994 -0.11064 -0.0090322 0.019247 0.034209 0.052294 0.032893 
-0.21471 -2.0269 -0.39853 -0.061316 -0.0087034 0.00050378 0.034209 -0.047669 
-0.28245 -1.846 -0.48468 -0.10423 -0.025802 -0.0016336 -0.0055795 -0.056219 
-0.24398 -0.72834 -0.19877 -0.063289 -0.016266 -0.0019624 0.0062583 -0.088115 
-0.40215 -0.33654 0.014479 -0.036983 0.0056006 -0.0088678 -0.0098543 -0.1187 
-0.28278 -0.3104 0.058213 0.031578 0.028947 0.031249 0.0016547 -0.03764 
0.0037921 -0.29774 -0.058192 0.033058 0.04506 0.056733 0.04917 0.07038 
0.18974 0.089287 -0.13645 0.081724 0.077614 0.053938 0.049499 0.12332 
0.27179 0.6871 -0.0087034 0.08715 0.059528 0.045718 0.067585 0.13105 
0.28067 0.81781 0.072681 0.095206 0.044402 0.047033 0.070544 0.094055 
0.15686 0.43308 0.05213 0.055418 0.048348 0.018096 0.033387 0.033551 
0.16278 0.26488 0.21358 0.052459 0.044238 0.044731 0.028947 0.022535 
0.39197 0.33262 0.40809 0.067585 0.035688 0.031742 0.053609 0.014808 
0.4094 0.38951 0.31042 0.057391 0.023686 0.041278 0.047197 -0.0059084 
0.076792 0.19435 0.065447 0.057227 0.027961 0.034702 0.027632 0.010204 
-0.24628 -0.16259 -0.049971 0.010533 0.02122 0.035853 0.025001 0.043745 
-0.35233 -0.57889 -0.043559 -0.009361 0.0056006 0.036182 0.032564 0.11148 
-0.32964 -0.53072 0.20536 -0.025967 -0.01232 0.031907 0.015301 0.15538 
-0.17558 0.011191 0.36271 0.0051074 0.0051074 0.0072447 0.031907 0.1368 
0.097837 0.40381 0.21408 -0.0052507 0.018589 0.029276 0.039305 0.086163 
0.25321 0.58796 -0.16835 0.018096 0.0093821 0.054925 0.010697 0.053445 
0.23742 0.79709 -0.47482 0.0088889 0.013657 0.0088889 0.0079024 -0.025309 
0.12644 0.46974 -0.55505 0.0060938 0.014315 0.023357 0.017603 -0.051451 
-0.095678 -0.35183 -0.46133 -0.020541 0.014808 0.012835 0.0047785 -0.1113 
-0.12231 -0.74528 -0.17608 -0.012485 0.0082312 0.020562 -0.0070593 -0.1182 
-0.066741 -0.54321 0.28856 -0.0087034 -0.0040998 0.0059294 -0.006566 -0.12264 
-0.157 -0.17904 0.56576 0.0090533 -0.010019 -0.00097594 -0.022514 -0.10242 
-0.035667 -0.056877 0.51315 0.016452 -0.028433 0.00083261 -0.02235 -0.051615 
0.1641 -0.061809 0.45314 0.029441 -0.0034422 0.031578 0.022864 0.038977 
0.26242 0.24548 0.35728 0.069722 0.022371 0.024344 0.01974 0.078272 
0.15735 0.5046 0.171 0.063968 0.057555 0.03799 0.034702 0.10819 
-0.17082 0.49506 -0.10669 0.097344 0.063145 0.061995 0.063474 0.12513 
-0.35463 0.53008 -0.24694 0.049992 0.05772 0.047855 0.051801 0.12875 
-0.2665 0.54455 -0.099295 0.040456 0.051308 0.044238 0.044073 0.1322 
-0.071509 0.58796 0.29201 -0.011992 0.0421 0.052623 0.051636 0.059857 
0.29612 0.75434 0.40365 -0.033037 0.021384 0.035688 0.037661 0.029441 
0.74596 0.65536 0.049499 -0.023994 0.0227 0.0054362 0.046868 0.097179 
0.71044 -0.64054 -0.26535 0.049992 0.043251 0.0026412 0.06479 0.080573 
0.090931 -2.5667 -0.1695 0.092576 0.050814 0.018425 0.0039565 0.011848 
-0.45969 -3.091 -0.27407 0.094713 0.037826 0.016123 -0.020706 -0.033694 
-0.38883 -1.7528 -0.47778 0.088301 0.012177 0.0087245 -0.0034422 -0.054904 
-0.12856 0.16952 -0.3765 0.044073 0.032893 0.013328 -0.017253 0.04358 
-0.1284 1.3194 0.0047785 0.049664 0.016452 0.031742 0.01152 0.12727 
-0.27357 1.5794 0.35054 -0.0049219 0.036182 0.019247 0.02533 0.065447 
-0.23198 1.314 0.44968 0.0021479 0.019247 -0.0067304 0.034702 0.020727 
-0.05178 0.93849 0.46596 -0.052931 0.011848 -0.0049219 0.01826 -0.052109 
0.14798 0.95953 0.35268 0.0019835 0.012013 -0.011334 0.05213 -0.091239 
0.32769 1.1049 0.17856 -0.00064712 0.055418 0.011355 0.052623 -0.03501 
0.43784 0.71866 -0.011663 0.038155 0.034044 0.039799 0.037168 -0.11935 
0.29152 0.29069 -0.14698 0.058049 0.046046 0.03947 0.044073 -0.22984 
-0.011005 -0.0091966 -0.10521 0.059364 0.058377 0.033387 0.040621 -0.097158 
-0.12166 -0.54601 -0.072332 0.051965 0.042265 0.050979 0.015794 0.087314 
-0.21471 -1.1095 -0.20468 0.036017 0.028947 0.01711 -0.018897 0.12612 
-0.18808 -1.105 -0.25483 0.032071 0.020891 0.024179 -0.01117 0.12579 
-0.016266 -1.019 -0.085649 -0.0090322 0.045882 0.03388 -0.0014692 0.14667 
0.044731 -0.76912 0.1179 0.052459 0.026974 0.010533 0.00017495 0.16031 
-0.21044 -0.48961 0.050979 0.019083 0.020562 0.013492 0.023686 0.16558 
-0.40445 -0.29807 -0.068714 0.050814 0.021549 0.016781 0.022042 0.11115 
0.041114 0.082875 0.024837 -0.012485 0.021549 0.0054362 0.037661 0.064132 
0.50871 0.35235 0.13417 0.036182 0.024837 0.026646 0.044238 -0.012156 
0.49523 0.4852 0.12957 0.021384 0.018589 0.0090533 0.032236 -0.059507 
0.29102 0.58828 0.064132 0.035031 0.043087 -0.0047575 0.025001 -0.044874 
0.18152 0.55984 0.06183 0.04095 0.055254 0.024344 0.042923 -0.0031133 
0.10277 0.34594 0.03947 0.030756 0.05772 0.012177 0.043416 0.025495 
0.046046 0.10507 -0.030406 0.038812 0.04358 0.017603 0.034702 0.033387 
-0.049807 -0.059836 -0.063618 0.020891 0.038977 0.025166 0.052459 0.005765 
-0.2111 -0.29478 -0.079237 0.052294 0.027468 0.020233 0.046375 -0.011005 
-0.29149 -0.52036 -0.030406 0.028947 0.020398 0.030263 0.023686 0.0024767 
-0.37387 -0.45098 0.1539 0.041936 0.0065871 0.009711 0.041114 -0.017253 
-0.30646 0.1294 0.39822 0.025495 0.0028056 0.0019835 0.012506 -0.003771 
-0.08384 0.74859 0.34347 0.051472 0.015794 0.031414 0.018918 0.024179 
0.13746 0.75401 0.034209 0.025495 0.030592 0.023686 0.030098 0.033715 
0.19747 0.2685 -0.12626 0.048019 0.028947 0.005765 0.013492 -0.017582 
-0.014622 -0.3594 -0.094856 0.0059294 -0.0055795 0.0028056 -0.0077169 -0.11557 
-0.080552 -0.3691 -0.044546 0.0070803 0.035031 0.0019835 0.011026 -0.17789 
0.030592 -0.052273 -0.19761 0.085012 0.078107 0.0056006 0.014808 -0.085485 
0.48865 0.088794 -0.074304 0.061501 0.085506 0.050157 0.0324 0.053938 
0.84641 0.087643 0.00050378 0.0036276 0.083862 0.032071 0.053281 0.20421 
0.69844 0.28576 -0.020048 0.015465 0.038977 0.043416 0.042429 0.18317 
0.32128 0.37126 -0.19597 0.020069 0.034866 0.042594 -0.011005 0.0062583 
-0.18446 0.29661 -0.26535 -0.0031133 0.0044497 0.011191 0.031742 -0.023994 
-0.3275 0.45609 0.016452 0.013164 -0.010019 0.027961 0.025988 0.029112 
-0.27144 0.49292 0.27261 0.01826 0.00083261 0.021878 0.005765 0.066434 
-0.44966 0.028454 0.38753 0.089452 0.022042 0.0026412 0.01004 0.059528 
-0.43306 -0.30876 0.3387 0.06742 0.026152 0.024344 0.0021479 0.067091 
0.10573 -0.1621 0.49276 0.068571 0.041114 0.046211 0.034537 0.12825 
0.5457 0.0075736 0.56099 0.020891 0.053774 0.043416 0.076299 0.18547 
0.54685 0.16903 0.38326 0.0092177 0.062323 0.051965 0.0786 0.15193 
0.31174 0.31536 -0.049807 0.0065871 0.072353 0.050814 0.058706 0.089123 
0.017767 0.21342 -0.46347 0.035688 0.083533 0.047033 0.037168 0.033222 
-0.145 -0.12198 -0.47202 0.037661 0.055911 0.047526 0.030098 -0.022185 
-0.015938 -0.4273 -0.30004 0.0060938 0.019905 0.029441 0.045224 -0.017417 
0.17988 -0.22277 -0.08384 -0.019226 0.035195 0.040785 0.0093821 0.011191 
0.28346 0.45133 0.59009 -0.004593 -0.0022913 0.025495 0.058871 0.077449 
0.21753 0.91662 0.96644 0.086328 0.017932 0.043087 0.02829 0.090767 
0.0051074 0.85135 0.81287 0.10688 0.0026412 0.037168 0.012999 0.09981 
-0.36795 0.092904 0.40118 0.1225 0.010862 0.020562 0.0070803 0.06742 
-0.65025 -0.64022 -0.10176 0.074326 0.012342 0.0090533 -0.00064712 0.039634 
-0.44933 -0.73673 -0.55916 0.020727 0.037332 0.023193 0.0060938 -0.0013048 
-0.0052507 -0.57346 -0.90114 -0.038298 0.010204 0.012177 0.020233 -0.030735 
0.28691 -0.21438 -0.96526 -0.085978 0.0090533 0.0227 0.032071 -0.023007 
0.31125 0.12184 -0.63627 -0.088115 -0.0021268 0.0092177 0.041936 -0.038462 
0.18876 0.1396 -0.22211 -0.066906 -0.010019 0.010533 0.054596 -0.061316 
0.22559 0.22855 0.26192 -0.034352 0.007738 0.0037921 0.05065 -0.062796 
0.29185 0.28461 0.79117 0.039799 0.04506 0.0088889 0.0421 -0.035338 
0.16607 0.26735 0.7065 0.14782 0.058213 0.029934 0.0689 0.0013258 
-0.025967 0.28773 0.41877 0.15752 0.070708 0.049828 0.057884 0.069886 
-0.13053 0.46415 0.43406 0.11181 0.061172 0.042758 0.036839 0.071859 
-0.19729 0.51167 0.32637 0.064132 0.036675 0.017274 0.034209 0.05476 
-0.08384 0.5115 0.022864 0.050486 0.0054362 0.0059294 0.0065871 0.045718 
0.16048 0.38918 -0.19646 -0.014951 -0.014951 -0.0047575 -0.0036066 0.088301 
0.25699 -0.27834 -0.34049 -0.041093 -0.018897 -0.020706 0.0036276 0.1442 
0.14913 -1.3161 -0.52332 -0.054739 -0.033859 -0.0049219 0.0075736 0.15275 
-0.14106 -1.7908 -0.69414 -0.044381 -0.006566 -0.0060728 0.011848 0.11937 
-0.32405 -1.4467 -0.44654 -0.0077169 0.0028056 0.012999 0.04095 0.071037 
-0.1912 -0.45426 0.11921 0.044731 0.024837 0.054103 0.02533 -0.00097594 
-0.15059 0.22509 0.41088 0.064954 0.047691 0.041607 0.020398 -0.025309 
-0.3012 0.49309 0.18152 0.039634 0.057884 0.048348 0.029605 -0.055068 
-0.27522 0.57924 -0.096007 0.054103 0.042594 0.059693 0.030263 -0.059836 
-0.060987 0.59141 -0.097322 0.0047785 0.058213 0.051965 0.0421 -0.027775 
0.20257 0.7966 0.0085601 0.049664 0.050979 0.014643 0.0227 -0.021692 
0.29694 1.0315 0.34725 0.036346 0.010369 0.021384 0.010204 -0.10028 
0.27096 0.94358 0.29711 0.061501 0.024344 0.0052718 0.0069159 -0.097322 
0.19665 0.75812 0.0080668 0.060515 0.040456 0.017767 0.022864 -0.024652 
0.048841 0.57628 -0.22968 0.076627 0.027632 0.019905 0.024179 0.027632 
-0.0047575 0.11411 -0.29347 0.031249 0.017438 0.0013258 0.0019835 0.044073 
-0.16983 -0.71091 -0.1039 -0.001798 -0.013636 0.023028 0.0021479 -0.0049219 
-0.3349 -1.2428 -0.024158 -0.0078813 0.026317 0.018096 0.020233 -0.0096899 
-0.24908 -0.9161 -0.18512 -0.0011404 0.031249 0.017274 0.015137 0.040292 
0.040128 -0.25171 0.0090533 0.034702 0.0421 0.041278 0.0095465 0.065283 
0.1151 -0.37962 0.20175 0.0689 0.057391 0.019411 0.019083 0.077614 
0.13253 -0.9651 0.050486 0.074326 0.046868 0.028125 0.022535 0.055089 
0.26422 -0.82206 -0.068879 0.053281 0.054596 0.047526 0.048513 0.062323 
0.39016 0.066434 -0.12494 0.04654 0.037004 0.031907 0.062488 0.078929 
0.29579 0.69367 -0.12001 -0.027611 0.02681 0.033222 0.0227 0.067913 
0.090274 0.5217 -0.14698 -0.030899 0.012342 0.030427 0.015465 0.039141 
-0.20501 0.29201 -0.17345 -0.061973 0.0042853 0.016781 0.0024767 -0.011992 
-0.56705 0.41943 -0.098309 -0.047998 -0.030077 0.0062583 -0.020048 -0.089102 
-0.62673 0.47878 -0.023665 -0.026296 -0.017746 0.0016547 -0.029913 -0.097487 
-0.34181 0.21227 0.007738 -0.0034422 -0.014458 -0.014458 -0.011005 -0.068221 
0.16903 0.38359 0.17265 0.043745 0.031907 0.0052718 -0.014458 -0.031886 
0.4755 1.0769 0.46941 0.065118 0.054596 0.030592 0.0087245 0.020562 
0.37553 1.2173 0.36369 0.077121 0.05476 0.019905 0.032071 0.03947 
0.15456 0.83754 -0.0022913 0.041772 0.04654 0.048019 0.017274 0.036675 
0.012835 0.19188 -0.3178 0.027961 0.030427 0.02829 -0.004593 0.064625 
-0.02942 -0.60322 -0.063618 0.0036276 0.025495 0.018589 0.024837 0.1031 
0.055911 -1.0545 0.39164 0.04095 0.034537 0.034702 0.025824 0.12529 
0.097672 -1.3483 0.32489 0.031249 0.023851 0.01974 0.02681 0.086328 
0.088136 -1.1657 0.0087245 0.050321 0.037826 0.02681 0.055418 0.044896 
0.0592 -0.6851 -0.073811 0.074654 0.054267 0.041278 0.033715 0.037661 
0.099316 -0.27851 0.070051 0.11642 0.065612 0.042923 0.044073 0.061501 
0.15012 -0.13152 0.18646 0.082711 0.078272 0.042594 0.074819 0.03947 
0.13286 -0.07414 0.10277 0.026974 0.029276 0.045389 0.069886 0.024344 
0.045553 0.21539 0.0036276 -0.009361 0.023686 0.034537 0.040621 0.023686 
0.00297 0.64994 0.058213 -0.0072237 0.029441 0.033551 0.042594 0.032071 
0.037497 0.89327 0.22789 -0.0026201 0.031249 0.028783 0.024015 0.078272 
0.1516 0.85381 0.21605 -0.010512 0.0093821 0.00297 0.0044497 0.057062 
0.14897 0.5554 0.16623 0.019905 0.041772 0.036182 0.035031 -0.010841 
-0.046519 0.23233 0.056076 -0.0057439 0.016452 0.011355 0.01004 -0.062467 
-0.16358 0.0046141 0.010533 0.042265 -0.012814 0.020233 0.015137 -0.050136 
0.0013258 -0.084498 -0.049971 -0.0047575 0.0024767 0.029441 0.0085601 -0.032872 
0.17807 -0.10012 -0.0406 0.026152 -0.0036066 0.0014903 0.0075736 -0.010183 
-0.072332 -0.12593 -0.026953 -0.02087 0.00083261 0.0072447 0.00066819 -0.020212 
-0.13284 -0.098802 -0.001798 0.0039565 0.017274 0.032071 0.02122 0.037168 
0.063968 -0.076606 0.11905 0.0227 0.024179 0.0227 0.049335 0.11231 
0.10951 0.096193 0.3022 0.02829 0.018918 0.023686 0.047526 0.12217 
0.085835 0.42469 0.52334 0.043909 0.036675 0.0090533 0.056404 0.11806 
0.14174 0.46843 0.55573 0.057884 0.051472 0.0093821 0.063803 0.11642 
0.049664 0.30812 0.27803 0.09422 0.063474 0.027139 0.037004 0.099974 
0.12299 0.084519 -0.043395 0.071695 0.048019 0.036182 0.04917 0.10803 
0.22509 -0.15914 -0.23395 0.075476 0.03799 0.017438 0.045882 0.041278 
0.42009 -0.24727 -0.23987 0.034209 0.010533 0.020727 0.015959 -0.051451 
0.48717 -0.23379 -0.29248 0.038319 0.0083956 0.0052718 0.00083261 -0.094363 
0.23479 -0.20732 -0.27226 0.011848 -0.0060728 0.013986 0.023522 -0.12889 
-0.095349 0.009711 -0.041257 0.082217 0.023522 0.039305 0.014315 -0.11048 
-0.17805 0.30582 0.15982 0.080409 0.038648 0.025988 0.037497 0.013821 
-0.12856 0.44426 0.14469 0.08978 0.064461 0.022206 0.068571 0.099645 
-0.11064 0.36682 0.013164 0.073175 0.079587 0.046211 0.062488 0.13203 
-0.019884 0.36928 0.00297 0.060679 0.065283 0.035688 0.046211 0.16015 
0.13762 0.56017 0.20257 0.049828 0.050321 0.036182 0.0786 0.18317 
0.24532 0.86302 0.42666 0.0072447 0.058542 0.029276 0.056404 0.22345 
0.16656 1.0551 0.52794 0.038319 0.048184 0.013328 0.043909 0.18859 
-0.05737 0.76371 0.42223 0.03651 0.041607 0.037826 0.071366 0.11937 
-0.037805 0.10836 0.15703 0.043416 0.033058 0.0069159 0.015794 0.048348 
0.17133 -0.13974 -0.11804 0.015137 0.031578 0.020398 -0.0026201 -0.023336 
0.21786 0.12349 -0.25795 0.0227 0.023193 0.027303 0.022206 -0.057041 
0.068242 -0.25286 -0.35266 0.010862 0.017274 0.026481 0.012999 -0.068386 
-0.070359 -0.97809 -0.42253 0.015959 0.011684 0.011191 -0.0022913 -0.075784 
-0.071838 -1.0882 -0.35463 0.0023123 -0.0031133 0.020233 0.016616 -0.081868 
-0.076113 -1.4241 -0.33638 -0.010348 -0.0026201 0.0028056 0.0067515 -0.11557 
-0.12511 -1.5401 -0.25976 0.016616 -0.0047575 -0.0068948 -0.0036066 -0.19186 
-0.25467 -0.76994 -0.12922 0.028454 0.00017495 0.0079024 0.0072447 -0.13678 
-0.34082 0.28017 -0.031557 0.00083261 0.009711 0.0028056 0.023357 -0.0067304 
-0.17493 1.0638 0.22937 -0.012978 0.032564 0.017767 0.032071 0.10721 
0.17708 1.3757 0.45708 0.0016547 0.051636 0.027632 0.045718 0.20898 
0.41548 1.353 0.42371 0.053774 0.10326 0.035688 0.062159 0.23068 
0.45133 1.1078 0.5582 0.098988 0.079916 0.045882 0.035688 0.14996 
0.232 0.54965 0.57102 0.069229 0.082217 0.065447 0.0090533 0.065776 
-0.12823 -0.32734 0.15735 0.04358 0.034209 0.0083956 0.020233 0.0065871 
-0.3594 -1.0924 -0.37239 0.013821 0.040456 0.042429 0.0080668 0.025166 
-0.29232 -1.1433 -0.83784 0.015794 0.01711 0.018918 0.014479 0.040785 
0.020233 -0.37074 -0.77865 0.010533 0.021384 0.02122 0.025824 0.025495 
0.21737 0.21408 -0.33391 -0.00097594 0.0016547 0.021056 0.0072447 -0.0022913 
0.15012 -0.20715 -0.15569 0.014643 0.03799 0.010862 0.014643 -0.04471 
-0.095021 -1.0687 -0.097816 0.012177 0.031907 0.0072447 0.026481 -0.056055 
-0.2351 -1.2259 -0.042901 0.0051074 0.017767 0.023028 0.020398 -0.031064 
-0.28903 -0.97019 0.088301 -0.022679 -0.01232 0.0098754 0.021384 -0.0036066 
-0.3252 -0.38505 0.31947 -0.0036066 -0.027447 0.010697 0.03092 -0.001798 
-0.28969 0.28691 0.38638 -0.041422 -0.0049219 0.031742 0.0093821 0.0080668 
-0.10669 0.78164 0.3267 0.030098 0.03388 0.017767 0.019905 -0.0091966 
0.22822 0.89722 0.45133 -0.0068948 0.069393 0.066927 0.048841 0.049828 
0.54192 0.73067 0.62298 0.089616 0.086328 0.044073 0.048184 0.11806 
0.53189 0.3535 0.22986 0.0786 0.086657 0.039799 0.053445 0.1179 
0.26702 -0.14533 -0.44719 0.050979 0.053116 0.038812 0.038648 0.078272 
-0.12067 -0.61358 -0.83636 -0.023336 0.015301 0.0074092 0.0083956 0.036346 
-0.35266 -0.47071 -0.97447 -0.071181 -0.039778 -0.0096899 -0.0014692 -0.016595 
-0.38324 -0.14796 -0.96855 -0.099131 -0.063453 0.0060938 1.0539e-005 -0.05737 
-0.33589 -0.0024557 -0.61029 -0.091239 -0.060494 -0.023994 -0.031228 -0.077593 
-0.15454 0.20602 0.098001 -0.013965 -0.0096899 -0.03353 -0.011663 -0.022679 
0.1419 0.24318 0.78755 0.055089 0.02681 0.029112 0.043909 0.073339 
0.1442 -0.066577 1.1869 0.16442 0.090438 0.041278 0.065612 0.084848 
0.00083261 -0.30284 1.0912 0.19188 0.10688 0.069558 0.075148 0.056733 
0.088958 -0.096829 0.7721 0.20783 0.10376 0.070708 0.10047 0.064132 
0.24252 0.29892 0.47582 0.11477 0.079422 0.050814 0.073832 0.044567 
0.22953 0.43719 0.082217 0.059364 0.046046 0.054925 0.041607 0.04654 
0.089945 -0.017582 -0.25746 -0.03057 -0.0031133 0.048019 0.048184 0.03947 
-0.003771 -0.44308 -0.34131 -0.05885 -0.018897 0.035853 0.046211 0.0075736 
-0.10998 -0.33079 -0.33227 -0.07003 -0.047505 0.037004 0.0039565 -0.028762 
-0.19005 0.19418 -0.30448 -0.06 -0.02942 0.00099702 -0.023007 -0.018239 
-0.19614 0.94424 -0.19696 -0.019226 -0.014787 -0.029748 0.015959 0.017438 
-0.070687 1.4972 0.031742 0.033058 -0.00097594 0.01826 0.023193 0.097672 
0.13203 1.3362 0.171 0.060679 0.01267 0.0075736 0.023686 0.13121 
0.14963 0.33344 0.084519 0.0095465 -0.006566 0.005765 0.022535 0.057884 
0.063474 -0.82124 -0.047998 0.021549 -0.01676 0.01004 -0.024816 -0.0067304 
-0.018733 -0.95096 -0.087293 0.012835 0.012013 0.013986 -0.018404 -0.062302 
-0.0021268 -0.17164 -0.040928 0.074326 0.038319 0.032564 -0.0032777 -0.00031829 
0.08863 0.43061 0.076463 0.026646 0.047855 0.028947 0.014972 0.065612 
0.12513 0.67378 0.095864 0.034209 0.067749 -0.0040998 0.017274 0.06479 
0.13499 0.73823 0.070544 0.04095 0.039963 0.044402 0.048348 -0.020212 
0.10589 0.48931 0.031414 0.068078 0.015794 0.0062583 0.035195 -0.13727 
0.077943 0.18432 -0.009361 0.066105 0.020069 -0.0067304 0.053445 -0.25516 
0.033058 0.24926 0.10967 0.046211 0.037168 0.025988 0.078765 -0.074469 
0.086985 0.43061 0.29267 0.061666 0.037168 0.037168 0.075641 0.17396 
0.10425 0.54422 0.32851 0.044731 0.060679 0.049828 0.064461 0.25091 
0.11773 0.47566 0.13269 0.043251 0.051636 0.071202 0.03092 0.20109 
0.10129 0.29859 0.030427 0.0047785 0.026974 0.037497 -0.0082102 0.098988 
0.066927 -0.12396 0.11839 0.0227 0.025659 -0.011992 -0.019226 0.044073 
0.0080668 -0.75514 0.02681 0.0021479 0.018754 0.024015 0.0036276 -0.003771 
-0.020212 -0.99782 -0.16095 0.020398 0.019411 0.009711 -0.00064712 -0.046025 
-0.015116 -0.50162 -0.098802 -0.0068948 0.038977 0.02829 0.0028056 -0.0024557 
0.032564 0.19122 0.011684 0.0059294 0.047033 0.02122 0.036839 0.017932 
0.017438 0.55474 0.11757 -0.0032777 0.024015 0.0037921 0.013821 0.015794 
-0.059672 0.63416 0.021056 -0.0044286 0.0079024 0.017274 -0.0054151 0.017274 
-0.1016 0.51972 -0.13645 -0.026789 0.00297 -0.001798 0.0060938 0.029276 
-0.041586 0.21095 -0.21817 -0.0011404 -0.0013048 0.0085601 0.019576 0.044731 
0.08304 -0.089266 -0.22557 0.025495 0.019905 0.031742 0.031249 0.046046 
0.10836 -0.22721 -0.25187 0.018096 0.053609 0.024344 0.064132 -0.02498 
0.26209 -0.16703 -0.12346 0.045389 0.03651 0.012999 0.025824 -0.096172 
0.43225 0.061995 0.414 0.038812 0.045718 0.028454 0.027796 -0.079566 
0.38819 0.11115 0.74645 0.067913 0.038155 0.016123 0.045882 -0.028597 
0.19764 -0.27949 0.45511 0.090274 0.043416 0.007738 0.029276 0.028619 
0.0026412 -0.81762 -0.02235 0.11576 0.054267 0.013821 0.01711 0.082875 
-0.041915 -0.83653 -0.19449 0.10359 0.072517 0.011848 0.038648 0.087314 
-0.15076 -0.34674 -0.36351 0.090767 0.057555 0.038812 0.027961 0.10145 
-0.33358 0.066598 -0.51197 0.032236 0.053116 0.0324 0.023522 0.1248 
-0.24562 0.22756 -0.4564 0.020398 0.051308 0.037004 0.025988 0.0689 
0.25485 0.28099 -0.17427 0.0051074 0.041278 0.047855 0.038155 0.079422 
0.41548 0.33558 0.17051 0.010533 0.03092 0.033551 0.016288 0.037661 
0.15801 0.44064 0.29924 0.010369 0.028619 0.03388 0.041936 0.03651 
-0.1381 0.55178 0.23545 0.018096 0.049006 0.059528 0.031578 0.066434 
-0.17213 0.45083 0.08567 0.023193 0.031249 0.031414 0.020562 0.037168 
-0.081374 -0.11689 -0.0039354 0.0042853 0.044896 0.0026412 0.019083 -0.034023 
0.058377 -0.68609 0.051308 0.049828 0.045389 0.024179 0.035524 -0.041751 
0.32687 -0.54288 0.1659 0.03388 0.049992 0.013328 0.026974 0.055747 
0.39543 -0.20649 0.19303 0.048677 0.048348 0.015137 0.037661 0.18383 
0.14831 -0.009361 0.18267 0.025659 0.09685 0.02122 0.044073 0.20619 
-0.15602 -0.045203 0.067256 0.06035 0.065283 0.019576 0.026646 0.16837 
-0.19531 -0.16523 -0.11705 0.021713 0.073832 0.02829 0.011191 0.1105 
0.035524 -0.21504 -0.16177 0.035195 0.034866 0.018589 0.040621 0.044073 
0.30598 -0.14171 -0.13284 0.028454 0.036017 0.019905 0.018754 0.0037921 
0.44787 0.317 0.035195 0.038977 0.040128 0.06742 0.051636 0.0080668 
0.23496 0.85496 0.20405 0.060022 0.053281 0.048677 0.065776 0.0080668 
0.0042853 0.98074 0.26094 0.048841 0.04506 0.033387 0.048841 0.010862 
-0.047505 0.99981 0.27902 0.037661 0.034537 0.032564 0.028454 -0.010019 
-0.15322 0.83162 0.36435 -0.027775 0.017603 0.011848 0.0421 -0.036654 
-0.42023 0.30993 0.1539 -0.010019 0.0021479 0.0047785 0.0080668 -0.046847 
-0.6509 -0.75415 -0.36482 -0.036983 0.012342 0.024508 -0.029748 -0.023665 
-0.49619 -1.8569 -0.87878 0.019411 -0.0075525 0.0016547 0.0023123 0.015137 
-0.12297 -1.8344 -0.78391 0.025659 -0.010676 0.013657 0.022206 0.069229 
0.21786 -0.73278 -0.2032 0.078436 0.02681 0.018589 0.011684 0.084026 
0.36139 -0.38636 0.0059294 0.08715 0.033715 0.00033937 0.040456 0.057391 
0.27392 -0.5493 0.24153 0.11296 0.058213 0.054596 0.029769 -0.0088678 
0.087479 0.1613 0.58171 0.11625 0.064461 0.057062 0.025495 -0.065426 
0.011684 0.88883 0.68874 0.080409 0.037168 0.033222 0.044731 -0.051944 
-0.089595 0.86647 0.47089 0.03388 0.037826 0.053938 0.024015 0.0098754 
-0.14254 0.69334 0.31569 -0.0067304 0.0324 0.023357 0.012342 0.0021479 
-0.060165 0.38194 0.092904 -0.014458 0.041278 0.046046 0.054267 0.017603 
0.16574 -0.067564 -0.17575 -0.023007 0.03651 0.036675 0.039963 0.077449 
0.31897 -0.14336 -0.19334 0.010204 0.0026412 0.0060938 0.022371 0.10902 
0.25091 0.088301 -0.086964 -0.023007 -0.0091966 0.0052718 0.038977 0.1003 
0.088958 0.30516 0.024344 0.0018191 -0.0082102 0.013657 0.033387 0.0227 
-0.1187 0.12283 0.036017 -0.017417 -0.0082102 0.0064227 0.038155 -0.074633 
-0.26618 0.11872 0.082546 0.016781 0.0059294 0.014972 0.063474 -0.084991 
-0.48583 0.23973 0.078436 0.012835 0.020562 0.024015 0.058213 -0.05737 
-0.46627 0.20125 0.045553 0.020562 0.031742 0.02533 0.023193 -0.032708 
0.018589 0.01415 -0.018075 0.027632 0.038155 0.053445 0.032236 0.028125 
0.45873 -0.14106 -0.01939 0.058871 0.053281 0.03651 0.010369 0.054432 
0.43456 -0.59007 0.063639 0.056569 0.044402 0.013164 0.00066819 0.073175 
0.19122 -0.9235 0.054103 0.022206 -0.0083746 0.01415 -0.024323 0.038155 
-0.18331 -0.54239 0.021384 -0.017746 -0.027775 -0.017253 -0.025638 -0.018568 
-0.30284 0.13499 0.078272 -0.025967 -0.01676 -0.0036066 -0.031228 -0.02087 
-0.1746 0.53501 0.14437 0.050979 -0.0034422 0.023851 0.00017495 0.00033937 
-0.093541 0.56148 0.18662 0.053609 0.016452 0.0062583 0.013657 0.025001 
-0.15635 0.15735 0.083368 0.075312 0.029769 0.011026 0.025824 0.047855 
-0.15109 -0.35036 -0.084663 0.032729 0.027303 0.01004 0.027961 0.027468 
0.022371 -0.22885 -0.068879 0.024837 0.048677 0.015794 0.062323 0.049335 
0.19418 0.067585 -0.0075525 0.016452 0.056404 0.024837 0.044567 0.051636 
0.22657 0.17412 0.039799 0.014479 0.041114 -0.0036066 0.018589 0.031907 
0.095864 0.2463 0.13549 0.042265 0.0421 -0.013636 0.04654 0.044073 
0.05213 0.33344 0.20684 0.10343 0.040128 0.050486 0.054103 0.025495 
0.15604 0.4413 0.13499 0.069393 0.032893 0.04654 0.047033 -0.023172 
0.35235 0.42058 -0.037805 0.028783 0.013986 0.042923 0.04506 -0.030406 
0.37257 0.23068 -0.18874 -0.014951 -0.0087034 0.051636 0.01711 0.0056006 
0.24729 0.034702 -0.17328 -0.023172 -0.017582 0.013492 0.00099702 0.047691 
-0.039942 -0.0062372 -0.1016 -0.01117 -0.0027845 -0.00064712 0.01711 0.069064 
-0.25812 0.068736 -0.023007 -0.025802 -0.010019 0.016945 0.014972 0.061666 
-0.23 0.10047 -0.035667 0.0034632 -0.0067304 0.00099702 -0.013471 0.021384 
-0.064768 0.2948 0.028125 -0.026131 0.0016547 -0.0068948 0.025824 0.029934 
0.082217 0.67986 0.24482 0.035524 0.0070803 0.021384 0.010697 0.0052718 
0.12875 0.62561 0.22131 0.037004 0.041278 0.013492 0.012342 0.026646 
0.15308 0.053281 0.032729 0.025824 0.060679 0.0059294 0.041114 0.042429 
0.15522 -0.29561 0.03947 0.018754 0.037826 0.0067515 0.0044497 -0.053917 
-0.020377 -0.060165 0.29152 0.012013 0.026646 0.004943 -0.014622 -0.16687 
-0.017417 0.34035 0.60752 0.027632 0.022206 0.032729 0.019576 -0.13481 
0.047033 0.52433 0.55885 0.026152 0.023686 0.031578 0.024344 0.0034632 
0.048677 0.36073 0.073832 0.078436 0.056076 0.035853 0.051801 0.17297 
0.13006 -0.12462 -0.36729 0.064954 0.068407 0.055089 0.076792 0.22855 
0.12579 -0.56557 -0.60273 0.065447 0.058871 0.050979 0.060844 0.19221 
0.13582 -0.38521 -0.59484 0.053938 0.045224 0.047033 0.036839 0.1174 
0.30319 0.068571 -0.46988 0.089287 0.04506 0.045718 0.053445 0.087643 
0.42765 0.47846 -0.1062 0.052294 0.050979 0.035688 0.064954 0.08715 
0.26274 0.64386 0.21605 0.049664 0.05065 0.027303 0.051801 0.093233 
-0.0095255 0.28757 0.29678 0.04358 0.064625 0.034373 0.066927 0.060679 
-0.26996 -0.16802 0.19369 0.048513 0.060844 0.036839 0.034537 0.013492 
-0.40215 -0.13744 0.031085 0.025166 0.051801 0.024344 0.04654 -0.011005 
-0.4028 -0.042408 -0.069865 0.0067515 0.022371 0.018589 0.040128 -0.021692 
-0.065755 -0.094363 -0.19646 0.016288 0.004943 0.010533 0.043745 0.0039565 
0.23825 -0.23691 -0.20189 0.019576 -0.011334 0.032071 0.029441 0.0062583 
0.29037 -0.25384 -0.0047575 0.019247 -0.004593 0.020891 -0.0042642 -0.03616 
0.12431 -0.14171 0.051965 0.0016547 0.012342 0.015301 -0.010841 -0.046025 
0.13516 0.19714 0.12431 0.042594 0.015959 0.040292 -0.0057439 -0.016924 
0.2828 0.35745 0.13319 0.033715 0.019576 0.03799 0.038155 0.049664 
0.28067 0.27738 0.14765 0.065776 0.027632 0.029441 0.037661 0.074326 
0.11674 0.27836 0.26044 0.073997 0.033551 0.053445 0.02681 0.042429 
0.015465 0.11296 0.17626 0.030756 0.01974 0.017932 0.0095465 -0.0032777 
-0.068386 0.06594 0.28954 -0.010348 0.040128 0.034044 0.038812 -0.02942 
-0.091732 0.1784 0.18711 -0.03912 0.038319 0.029934 0.011684 0.00017495 
-0.034845 0.13647 -0.21143 -0.016431 0.053938 0.012835 0.043909 0.0069159 
-0.018075 -0.034188 -0.56031 0.0075736 0.05213 0.028454 0.049828 0.044896 
-0.069536 -0.12708 -0.54288 0.041114 0.049664 0.033058 0.038155 0.044402 
-0.3058 -0.090581 -0.21866 0.045553 0.024508 0.027139 0.049335 0.067913 
-0.41152 0.039963 0.22098 0.1391 0.03947 0.041772 0.068407 0.068407 
-0.26141 0.099481 0.46777 0.17396 0.049992 0.0059294 0.03947 0.052459 
-0.037311 0.16492 0.83951 0.19566 0.056733 0.018918 0.032236 0.020727 
0.16837 0.33673 1.0666 0.13203 0.086328 0.045718 0.040621 -0.0014692 
0.35794 0.39 0.55852 0.10852 0.068571 0.045389 0.035524 0.038155 
0.38227 0.18284 -0.15848 0.021713 0.066105 0.05065 0.020891 -0.0073881 
0.22657 -0.26157 -0.40823 -0.025802 0.030427 0.040456 0.033058 -0.035338 
0.09422 -0.7438 -0.3885 -0.065591 0.024673 0.02533 0.016781 -0.018733 
0.11247 -0.54765 -0.21866 -0.039778 0.011026 0.011355 -0.0067304 0.035853 
0.033387 -0.20896 0.0028056 -0.013636 0.020233 0.020727 0.0037921 0.058542 
-0.14599 -0.46035 0.06742 -0.012814 0.0093821 -0.00097594 -0.015116 0.10606 
-0.28475 -1.164 -0.23494 -0.022185 -0.016924 -0.010676 -0.037805 0.077285 
-0.32471 -1.3562 -0.50869 -0.036325 -0.018404 0.015465 0.013328 -0.0019624 
-0.28969 -0.27341 -0.44769 -0.016266 -0.0075525 0.017603 0.013657 -0.042244 
-0.19071 0.86993 -0.14139 -0.011827 -0.0049219 0.018096 -0.00097594 -0.055068 
0.0054362 1.5402 0.13927 0.032729 0.0083956 0.024837 0.013821 -0.010841 
0.14108 1.4623 0.33032 0.029441 0.02122 0.004943 0.022535 0.042429 
0.30566 0.74744 0.3484 0.088136 0.044896 0.041607 0.029441 0.066105 
0.37635 -0.22672 0.2588 0.063474 0.037826 0.026646 0.038155 0.046868 
0.10803 -0.93402 0.10869 0.057227 0.020233 0.019083 0.032893 0.035853 
-0.18627 -0.76205 0.058871 0.040128 0.016123 0.029769 -0.00031829 0.042923 
-0.11968 -0.50951 0.15818 0.029112 0.027961 0.0082312 0.031907 0.055254 
0.10721 -0.71634 0.16952 0.030592 0.027139 0.0034632 0.018918 0.054596 
0.19353 -0.64087 0.10754 0.005765 0.01974 -0.0050863 0.025824 0.0075736 
0.12743 -0.29133 0.0046141 0.0036276 0.0082312 -0.018404 0.011191 -0.050464 
-0.018404 0.25206 -0.10193 -0.0032777 0.0070803 0.0021479 0.011026 -0.027611 
-0.13892 0.77407 -0.24069 0.030263 0.024015 0.011684 0.0088889 0.036017 
-0.15174 0.82948 -0.29528 -0.0078813 0.016781 0.0069159 0.01152 0.083368 
-0.16753 0.46284 -0.042079 0.012013 0.00066819 0.028454 0.036346 0.0592 
-0.1159 0.10507 0.13401 0.0062583 0.01563 0.023851 0.016123 0.015465 
0.11526 -0.004593 0.12168 0.060515 0.059857 0.044567 0.041114 0.03388 
0.24548 -0.012485 0.17988 0.075641 0.066598 0.049828 0.075312 0.059857 
0.13845 0.0019835 0.40414 0.097672 0.037004 0.032236 0.0324 0.034537 
-0.12708 -0.091075 0.33689 0.041607 0.015959 0.014315 0.0227 -0.0040998 
-0.19416 -0.19844 0.059857 0.034044 0.0067515 0.0051074 0.033222 -0.068386 
-0.010019 -0.15618 -0.27538 0.028454 0.023193 0.0021479 0.010697 -0.017746 
0.30812 -0.23247 -0.41201 0.022535 0.041772 0.0037921 0.038977 0.080573 
0.27392 -0.79049 -0.38883 -0.0096899 0.015137 0.016452 0.025988 0.10622 
0.04358 -0.9235 -0.18578 -0.045861 -0.00031829 0.0065871 0.015301 0.10096 
-0.073318 -0.42927 -0.0029489 -0.0034422 -0.0036066 0.0062583 0.0095465 0.080573 
-0.0029489 0.15374 0.082053 0.030427 0.020069 0.037168 0.06331 0.074326 
0.10721 0.47961 0.047526 0.095042 0.018918 0.013986 0.059528 0.08567 
0.1835 0.54932 -0.01939 0.061666 0.047362 0.056076 0.045882 0.048184 
0.13812 0.47385 -0.017582 0.040785 0.060679 0.038812 0.047855 0.028125 
0.23118 0.44278 0.041772 0.033058 0.039305 0.026974 0.045389 0.043745 
0.34396 0.53616 0.1179 0.052623 0.042594 0.025659 0.024837 -0.010183 
0.31996 0.57891 0.12332 0.0087245 0.012999 0.0083956 0.040292 -0.011827 
0.08419 0.56461 0.25683 0.0069159 0.031578 -0.010348 0.015465 -0.013471 
-0.20123 0.67197 0.39477 0.044731 0.044402 0.023193 0.0044497 -0.067399 
-0.29676 0.59124 0.33065 0.03947 0.042923 0.017767 0.022042 -0.06 
-0.25467 0.15703 0.071695 0.03651 0.035688 0.0011614 0.0085601 -0.02087 
-0.17443 -0.15454 -0.15783 -0.0021268 0.0098754 0.0064227 0.0046141 0.043416 
-0.06296 0.042923 -0.11952 0.032729 -0.0040998 -0.011498 0.011848 0.068407 
0.050814 0.43028 0.049006 0.036675 0.010204 -0.014951 0.015465 0.074326 
0.19057 0.76733 0.09981 0.058706 0.016781 0.026152 0.020398 0.072517 
0.21128 0.43669 0.034537 0.0227 0.041443 0.037497 0.044567 0.068571 
0.13056 -0.13037 -0.088937 0.022371 0.040456 0.042758 0.038483 0.033387 
0.0060938 -0.6412 -0.18693 -0.0050863 0.037168 0.042429 0.013328 0.0083956 
-0.033365 -1.0046 -0.22688 -0.0072237 0.020562 0.018425 0.023522 -0.034188 
0.013657 -0.78687 -0.10225 -0.0047575 0.012835 0.047033 0.044073 -0.030077 
0.015959 -0.13316 0.083697 -0.013636 0.034209 0.061172 0.058377 0.010697 
0.042923 0.42568 0.16179 0.07449 0.049992 0.060186 0.059528 0.038812 
0.13861 0.87716 0.21868 0.10392 0.053281 0.055418 0.055747 0.068078 
0.18547 0.83589 0.1932 0.10869 0.072846 0.03536 0.059035 0.093233 
0.1516 0.27935 0.30993 0.082217 0.062323 0.017603 0.060844 0.084355 
0.065612 0.1516 0.29086 0.086492 0.007738 0.020398 0.030098 0.063803 
0.010533 0.3415 0.10819 0.050157 0.024837 0.016945 0.0059294 0.0592 
0.042758 0.37915 -0.027447 0.056404 0.036839 0.020562 -0.010183 0.024179 
0.085177 0.45462 0.0028056 -0.00064712 0.019411 0.048513 -0.0029489 0.0042853 
0.092082 0.59009 0.40694 -0.0014692 0.017603 0.012177 0.0069159 -0.004593 
0.14075 0.63531 0.77572 0.00017495 0.022535 0.027303 0.017274 -0.01528 
0.13121 0.4385 0.53781 -0.006566 0.0046141 0.013164 0.058871 -0.013307 
0.051965 -0.21504 -0.075291 -0.0062372 -0.015116 -0.010348 0.030592 -0.042737 
-0.24875 -0.94487 -0.71387 -0.02794 -0.026789 0.0021479 0.0052718 -0.10258 
-0.48205 -0.96987 -0.61457 -0.02498 -0.033859 -0.0080457 0.05624 -0.070359 
-0.26042 -0.64318 -0.40642 -0.00031829 0.004943 -0.0019624 0.059857 0.03651 
0.092411 -0.44078 -0.50984 0.072024 0.051143 0.048019 0.089123 0.11757 
0.25255 -0.39491 -0.25861 0.088136 0.072024 0.045389 0.084355 0.15292 
0.086821 -0.17509 0.20421 0.1271 0.049992 0.032564 0.032236 0.10836 
-0.035174 -0.0067304 0.54619 0.094713 0.027468 0.037826 -0.0031133 -0.004593 
-0.13826 -0.011498 0.35103 0.10819 0.025166 0.024508 -0.0019624 -0.067892 
-0.31797 -0.060494 -0.081868 0.074819 0.046046 0.031578 0.0090533 -0.049971 
-0.24497 -0.02646 -0.13004 0.030263 0.043745 0.04095 0.013492 -0.011663 
0.14289 0.05476 0.16508 -0.030242 0.02829 0.030427 0.029769 0.055254 
0.26702 0.16015 0.2662 -0.04882 0.0087245 0.032236 0.019083 0.072846 
0.14979 0.13187 0.22 -0.044217 0.0088889 0.01152 0.015137 0.10589 
0.13927 0.033387 0.13598 -0.026624 0.0227 0.0016547 0.046704 0.18613 
0.15209 0.045389 0.036182 0.025495 0.030592 0.02681 0.028783 0.15324 
0.016781 0.07301 0.019576 0.033715 0.036839 0.012342 0.030098 0.06742 
-0.10521 0.038155 -0.055561 0.090274 0.029605 0.017767 0.06331 -0.034023 
-0.11146 0.00099702 -0.073976 0.064461 0.071366 0.047691 0.049664 -0.084991 
-0.026624 0.10195 -0.072003 0.10408 0.082546 0.037497 0.052623 -0.048327 
0.10129 0.34035 -0.12379 0.050486 0.040292 0.027139 0.059857 -0.0064016 
0.23759 0.34216 -0.1769 0.038319 0.021056 0.017274 0.026481 0.0046141 
0.48109 0.1054 -0.20173 -0.015116 -0.012156 -0.0060728 -0.0029489 0.0042853 
0.35251 -0.17706 -0.13892 -0.017417 -0.015444 0.0016547 0.027961 -0.016431 
0.023851 -0.27834 -0.070523 -0.016595 -0.017911 0.0064227 0.010369 -0.00097594 
-0.121 -0.11574 -0.084827 -0.0054151 0.0085601 0.020069 0.0046141 0.036017 
-0.17756 -0.038791 0.080902 0.015301 -0.0016336 0.017274 0.010697 0.068078 
-0.20616 0.00017495 0.4533 0.045718 0.051801 0.03388 0.040128 0.17988 
-0.13744 0.13368 0.548 0.092904 0.05213 0.04654 0.045553 0.2394 
0.046704 0.44639 0.34331 0.10474 0.069229 0.062323 0.037332 0.1909 
0.11987 0.67 0.038977 0.1373 0.082875 0.041114 0.05065 0.1197 
0.13631 0.62034 -0.060823 0.082875 0.068736 0.028783 0.018096 0.052294 
0.18119 0.39148 -0.10998 0.10096 0.086163 0.031907 -0.0011404 0.032071 
0.044402 -0.22261 -0.26272 0.043745 0.024015 0.0088889 -0.0059084 0.0042853 
-0.18265 -1.2293 -0.23642 0.034866 0.012506 0.019411 -0.012978 -0.047505 
-0.16177 -1.4189 -0.067564 0.0019835 0.014479 0.028947 -0.0068948 -0.051122 
-0.01232 -0.57429 -0.095349 -0.039613 0.038155 0.027632 0.019411 0.013328 
0.053445 0.56033 -0.25516 -0.035667 0.027139 0.028947 0.019247 0.027961 
0.038483 1.1894 -0.10538 -0.060658 -0.009361 0.030592 0.022206 0.043909 
0.12365 1.0187 0.11148 -0.050958 0.0088889 0.025988 0.027961 0.036839 
0.17018 0.52581 0.13779 -0.044217 0.0031344 0.043745 -0.0014692 -0.011992 
0.1562 0.22789 0.044073 -0.0040998 0.019247 0.022864 0.0013258 -0.031557 
0.020891 -0.41037 -0.10637 -0.0042642 0.024508 0.010204 0.016452 -0.051944 
-0.063618 -1.1002 -0.23691 0.010862 0.005765 0.017438 0.0039565 -0.066741 
1.0539e-005 -1.2436 0.024179 -0.012814 0.0065871 -0.0055795 0.0059294 -0.064604 
0.0060938 -1.117 0.24433 0.025495 -0.0022913 -0.012485 0.0072447 -0.063289 
-0.0090322 -0.303 0.27162 0.037168 0.025495 0.019083 -0.0040998 -0.056219 
-0.10867 0.7772 0.16278 0.035524 -0.0095255 0.046375 0.030427 -0.077757 
-0.06296 1.2348 0.19501 0.040456 0.032893 0.028125 0.044896 -0.1552 
0.20931 1.1424 0.30516 0.046868 0.045224 0.036017 0.043745 -0.095514 
0.29004 0.80153 0.24236 0.063639 0.036182 0.036017 0.036182 0.045882 
0.2685 0.46728 0.019411 0.049664 0.038977 0.054267 0.040456 0.13368 
0.32226 0.16903 -0.18874 0.030592 0.03799 0.021878 0.02681 0.19599 
0.31914 -0.13777 -0.28508 -0.0064016 0.024015 0.013657 0.031578 0.22986 
0.31355 -0.42697 -0.28755 -0.004593 0.015137 0.02533 0.057227 0.18037 
0.065776 -0.6435 -0.2203 -0.0044286 0.010204 0.018754 0.013657 0.095864 
-0.48863 -0.64794 -0.070852 0.041607 0.021713 0.0088889 0.011355 -0.011498 
-0.78885 -0.50342 0.077449 0.016616 0.03536 0.027139 0.041607 -0.037311 
-0.51164 -0.31846 0.23282 0.027632 0.030427 0.032729 0.039634 -0.0098543 
0.0082312 -0.17049 0.41631 0.039634 0.062323 0.024015 0.035524 0.0042853 
0.23249 -0.041915 0.50295 0.065118 0.028125 0.03536 0.031085 0.0088889 
0.13056 -0.023336 0.43028 0.057062 0.029112 0.01267 0.018096 -0.018404 
-0.013636 0.043251 0.17544 0.042265 0.025824 0.0098754 0.0042853 -0.060823 
0.024837 0.27836 -0.16325 0.04917 0.029769 0.019411 0.029112 -0.050958 
0.067913 0.21441 -0.37387 0.030592 0.032893 0.026481 0.028454 -0.012485 
0.06479 -0.082361 -0.32783 0.00033937 0.024673 0.033058 0.03799 -0.016595 
0.08863 -0.11278 -0.085649 -0.017417 0.01415 0.024673 0.054596 -0.0070593 
0.14634 0.12842 0.023522 0.027468 0.029605 0.026152 0.047855 -0.0098543 
0.16969 0.63383 0.049499 0.0095465 0.040292 0.034702 0.04917 -0.044874 
0.17593 1.0641 0.068736 0.039634 0.024015 0.023522 0.054267 -0.056383 
0.12365 1.0274 0.075312 -0.022843 0.017767 0.023686 0.075148 -0.053588 
-0.02942 0.40644 0.13664 0.0056006 0.013657 0.030098 0.036346 0.048184 
-0.11278 -0.27949 0.18399 -0.032379 0.030427 0.013821 0.026152 0.14091 
-0.090253 -0.6606 0.20421 0.0028056 0.024179 0.00066819 0.012177 0.16903 
-0.025145 -0.51395 0.14321 0.019247 0.035195 0.020069 0.012835 0.18169 
0.00083261 -0.064768 0.21293 0.019411 0.017932 0.0056006 0.0067515 0.14223 
0.047526 0.2902 0.26439 0.063803 0.012506 -0.014787 0.0054362 0.13368 
0.1419 0.23693 0.065118 0.08978 0.030263 0.022042 0.007738 0.16393 
0.044731 -0.18167 -0.23527 0.14683 0.066763 0.023193 0.004943 0.14091 
-0.035667 -0.19729 -0.32964 0.1077 0.057391 0.042594 0.040785 0.037826 
0.21243 0.18087 -0.15914 0.095371 0.061337 0.038977 0.024015 -0.0095255 
0.29776 0.48536 0.00017495 0.039963 0.055089 0.033715 0.041443 -0.057534 
0.02681 0.2588 0.12085 0.065447 0.053609 0.061008 0.072024 -0.060329 
-0.30333 0.019247 0.31749 0.0085601 0.043416 0.027632 0.053116 -0.04471 
-0.30432 0.25814 0.402 -0.011498 0.026317 -0.012978 0.034702 -0.13777 
-0.2157 0.55326 0.16475 -0.050958 0.020562 -0.024323 0.029276 -0.2231 
-0.19614 0.50361 -0.090581 -0.029091 0.023686 -0.01676 0.025166 -0.017088 
-0.06 0.18366 -0.27193 0.00099702 0.067913 -0.00097594 0.032071 0.21852 
0.17988 -0.1912 -0.38965 0.038483 0.02681 0.055582 0.065283 0.32308 
0.3757 -0.32635 -0.2619 0.037004 -0.020048 0.0032988 0.033222 0.2833 
0.36682 -0.12873 0.013328 0.051143 0.0080668 0.023851 0.019576 0.19418 
0.19747 0.040456 0.2565 0.11 0.017603 0.031578 0.0062583 0.13647 
0.041607 0.054267 0.40019 0.090109 0.025988 0.028947 0.014479 0.083533 
0.047691 0.15522 0.30122 0.10096 0.036839 0.029276 0.015465 0.037004 
0.10343 0.18925 0.10704 0.038319 0.040456 0.017932 0.038812 0.016945 
-0.070687 -0.035174 -0.19153 0.045553 0.044731 0.012342 0.014808 -0.02794 
-0.40823 -0.18232 -0.26502 0.0042853 0.03092 0.018754 -0.015116 -0.046847 
-0.23116 -0.054082 -0.033859 0.040456 0.033222 0.024344 0.023357 0.04095 
0.4487 0.15604 0.15719 0.027303 0.05476 0.026152 0.03651 0.057062 
0.77654 0.26998 0.22115 0.023028 0.048019 0.029112 0.03947 0.040128 
0.35547 0.24038 0.22756 -0.011663 0.0324 0.0087245 0.04358 -0.0059084 
-0.26881 0.17856 0.23414 -0.013965 0.0088889 0.0092177 0.034373 -0.0503 
-0.5123 0.10967 0.22855 0.02533 -0.010183 0.016123 0.036839 -0.085485 
-0.36976 -0.012156 0.11411 0.042265 -0.0013048 0.0037921 0.025988 -0.064768 
-0.18315 -0.092061 -0.10982 0.021549 0.01152 0.0095465 0.032893 -0.056548 
-0.11738 -0.053424 -0.25878 0.05065 0.029934 0.020069 0.019411 -0.029255 
-0.026953 -0.10406 -0.26946 0.099481 0.020233 0.010697 0.020727 -0.072167 
0.24597 -0.32421 -0.22425 0.078272 0.043251 0.028454 0.043745 -0.047341 
0.33295 -0.51378 -0.16703 0.10228 0.044896 0.025166 0.022864 0.0592 
0.23545 -0.68198 -0.15289 0.012835 0.030427 -0.0036066 0.020727 0.10984 
0.16262 -0.93123 -0.11113 -0.01939 0.0039565 0.0028056 0.019083 0.071531 
0.17577 -0.5779 0.0023123 -0.060658 0.0054362 -0.0004827 0.02829 0.037332 
0.16146 0.26077 0.096357 -0.033201 0.030756 0.024179 0.014643 0.012506 
0.095699 0.9255 0.28083 0.019247 0.040785 0.038812 0.051965 0.052787 
0.062981 1.2313 0.50493 0.070215 0.066105 0.044402 0.039305 0.052294 
0.04506 0.95411 0.50164 0.061995 0.046375 0.037826 0.046868 0.036839 
0.022206 0.61574 0.33394 0.047362 0.053938 0.055911 0.070051 0.033222 
0.017932 0.45429 0.17856 0.047855 0.038648 0.036839 0.044402 0.047526 
0.016945 0.41598 0.028619 0.045553 0.049499 0.048348 0.031578 0.038977 
-0.013636 0.47221 -0.2083 0.091918 0.046211 0.053445 0.054925 0.037332 
-0.00031829 0.35383 -0.39475 0.057884 0.048841 0.033222 0.039963 0.029934 
-0.065919 -0.46692 -0.44785 0.038155 0.0085601 0.014479 0.037004 0.025988 
-0.21323 -1.9626 -0.47958 -0.074469 -0.035338 -0.010348 0.011355 -0.038133 
-0.40609 -2.8194 -0.43782 -0.11557 -0.054739 -0.069701 -0.042408 -0.096994 
-0.48534 -1.6954 -0.23658 -0.11327 -0.052931 -0.019555 -0.053095 -0.11163 
-0.11672 -0.037311 0.03651 -0.027447 -0.0068948 -0.0088678 -0.0055795 -0.025145 
0.40792 0.66128 0.21079 0.022371 0.051143 0.022535 0.023686 0.030098 
0.57612 0.47944 0.25781 0.031578 0.03947 0.088465 0.047033 0.068078 
0.4219 0.36008 0.39049 0.053774 0.048184 0.052787 0.076627 0.076792 
0.18909 0.68266 0.3752 0.042429 0.056569 0.062323 0.049664 0.090274 
-0.027447 0.94901 0.20931 0.062323 0.035195 0.055747 0.038648 0.093891 
-0.1307 0.91432 0.049499 0.033715 0.049006 0.042758 0.068242 0.08715 
-0.024487 0.62906 -0.097487 0.050321 0.036346 0.046211 0.065447 0.10935 
0.14075 0.16607 -0.094527 0.015137 0.023851 0.053938 0.034209 0.14404 
0.084684 -0.20468 -0.10768 0.038812 0.029934 0.034373 0.042594 0.060186 
-0.030242 -0.32668 -0.14484 0.020891 0.050486 0.048677 0.039799 0.056076 
-0.062467 -0.2032 -0.13859 0.032564 0.034537 0.015959 0.027468 0.03092 
-0.054246 -0.12429 -0.075127 0.012999 0.035853 0.012177 0.0074092 -0.011498 
-0.079237 -0.1404 0.085999 0.041936 0.034537 0.035524 -0.02794 -0.020377 
-0.15832 -0.13777 0.25025 0.032893 0.033551 0.019247 -0.056548 -0.053588 
-0.206 -0.11557 0.23085 0.0036276 0.032236 0.0014903 -0.037476 -0.016431 
-0.042244 -0.11886 0.12809 0.025824 0.015959 0.022206 -0.0050863 0.0079024 
0.12973 -0.12642 0.1003 0.046211 0.0070803 0.018589 0.026974 0.066434 
0.13138 -0.076606 0.13779 0.064296 0.037332 0.030756 0.046868 0.12168 
0.10441 0.029112 0.00066819 0.01826 0.021056 0.016452 0.067585 0.18054 
0.11132 0.25748 -0.2083 0.01152 0.0059294 0.0039565 0.052952 0.15472 
0.14568 0.32374 -0.30547 -0.033859 0.0093821 0.0059294 0.049335 0.092247 
0.15061 0.32736 -0.279 -0.0077169 -0.0029489 0.025166 0.043087 -0.016431 
0.0074092 0.44574 -0.14599 -0.022514 0.0023123 0.018754 0.040292 -0.10209 
-0.10949 0.43242 0.077943 0.017603 0.012999 0.033551 0.013492 -0.072003 
-0.19466 0.021384 0.30187 0.027961 0.017603 0.023522 0.020891 -0.069043 
-0.15536 -0.31632 0.32835 0.010533 0.025659 0.029441 -0.021528 -0.070687 
-0.18742 -0.25434 0.16673 0.037168 0.029112 0.053774 -0.033694 -0.049478 
0.043251 -0.19498 0.045882 0.067913 0.066763 0.040456 0.0092177 0.021878 
0.50279 -0.18939 0.080902 0.10343 0.087643 0.030427 0.032071 0.15604 
0.70765 -0.3303 0.1054 0.077614 0.049006 0.044402 0.029441 0.20914 
0.40085 -0.11508 0.066105 0.049006 0.016781 -0.0067304 0.025495 0.10885 
-0.0062372 0.40513 0.060844 0.012342 0.022864 -0.0040998 0.011848 0.0074092 
-0.3127 0.67986 0.085506 0.054267 0.00083261 0.015301 0.0034632 -0.027775 
-0.53565 0.68299 0.087314 0.047033 0.032564 0.022864 0.03388 -0.049642 
-0.49898 0.56165 0.14963 0.06742 0.038483 0.030756 0.039141 -0.045203 
-0.10505 0.49671 0.2098 0.013164 -0.0042642 -0.0049219 0.027468 -0.052437 
0.20832 0.48043 0.13993 0.041114 0.029276 0.0044497 0.041772 -0.071509 
0.39871 0.38984 -0.081703 0.046046 0.038319 0.017438 0.065776 -0.035503 
0.45412 0.23134 -0.28097 0.032564 0.048019 0.011355 0.031578 0.016452 
0.38277 0.10606 -0.18824 0.024179 0.02533 0.0014903 0.035524 0.025659 
0.24055 -0.01117 -0.0073881 0.032071 0.022042 0.020233 0.023686 0.058542 
0.17626 -0.10094 0.18991 0.064625 0.028125 0.011684 0.040785 0.091589 
0.077614 0.009711 0.41746 0.049992 0.016288 0.015301 0.036182 0.11346 
-0.22721 0.1373 0.43061 0.043416 0.019905 0.03651 0.03092 0.091096 
-0.46512 0.15752 0.39789 0.0324 0.034702 0.018918 0.031414 0.042429 
-0.29149 0.15587 0.41433 0.049006 0.03388 0.027139 0.035853 0.024015 
-0.009361 0.096028 0.50986 0.040456 0.030756 0.022535 0.029276 0.016945 
0.12464 0.049006 0.18514 0.070544 0.028783 0.025495 0.019905 -0.013307 
0.15292 0.076627 -0.36515 0.036839 0.03651 0.026317 0.038812 -0.03057 
0.13845 0.10639 -0.54272 0.044238 0.038155 0.013657 0.038319 -0.031721 
0.075312 -0.064933 -0.46988 0.022042 0.018918 0.00297 0.028619 -0.048327 
0.060515 -0.26239 -0.43437 0.0082312 0.032236 0.016945 0.01152 0.0028056 
0.038977 -0.30991 -0.36301 -0.00081153 0.031249 0.0039565 0.029605 -0.004593 
0.032236 -0.22984 -0.1182 -0.011992 0.030427 0.0072447 0.017767 0.016123 
-0.00097594 -0.045696 0.19385 0.020727 0.009711 0.037168 -0.0083746 0.015794 
-0.020048 0.10408 0.29398 0.00083261 0.021549 0.016616 0.043909 0.049992 
-0.051122 0.18596 0.14881 0.042923 0.030756 0.034537 0.014643 0.091096 
-0.038462 0.20438 0.031414 0.041772 0.02122 0.042429 0.032564 0.11674 
-0.024816 0.17659 0.029112 0.083862 0.033222 0.023193 0.048348 0.098823 
0.024344 0.06479 0.11181 0.057062 0.031414 0.019411 0.039305 0.06331 
0.070215 -0.089431 0.10655 0.060186 0.021549 0.030427 0.022371 0.056404 
0.14486 -0.27061 0.1151 0.022042 0.018754 0.013328 0.043416 0.014479 
0.26587 -0.16309 0.17347 0.01152 0.029769 0.016288 0.030592 -0.065097 
0.22411 0.10441 0.15686 0.024673 0.022206 0.013657 0.011191 -0.10373 
0.10474 0.28165 0.047526 0.013328 0.0082312 0.0059294 0.049828 -0.0055795 
-0.035338 0.27179 -0.080223 0.00083261 0.0037921 0.026646 0.020233 0.083862 
-0.16276 0.13434 -0.15881 0.0079024 0.0046141 0.0090533 0.032236 0.10721 
-0.18084 -0.01528 -0.12396 0.019247 0.028947 0.0065871 0.042923 0.080409 
-0.24431 -0.031392 -0.1159 0.026481 0.035688 0.027139 0.028947 0.044402 
-0.2471 -0.19087 -0.12708 0.049335 0.016123 0.017603 0.025824 0.00066819 
-0.13201 -0.33671 -0.076935 0.034044 0.024015 0.030756 0.050814 0.012999 
-0.014787 -0.22622 0.025001 0.050814 0.022206 0.034537 0.025988 0.0087245 
0.13006 -0.19827 0.085999 0.041114 0.023686 0.020727 0.019247 0.071202 
0.2759 -0.55291 0.0072447 0.04095 0.030592 0.013986 0.047197 0.17643 
0.34807 -1.0182 -0.045368 0.028454 0.030592 0.041278 0.048513 0.19024 
0.28905 -0.93961 0.14831 0.012999 0.0067515 0.034537 0.043251 0.097015 
0.16048 -0.1963 0.32308 0.06594 0.029276 0.037332 0.0592 0.034044 
-0.10045 0.5263 0.12727 0.070544 0.034702 0.026317 0.057555 -0.031228 
-0.32619 0.69121 -0.21192 0.036182 0.036675 0.029276 0.025659 -0.034188 
-0.33917 0.56642 -0.24036 -0.014458 0.029769 0.026152 0.03536 -0.0075525 
-0.10373 0.57003 -0.037805 -0.0138 0.011026 0.0064227 0.004943 -0.00031829 
0.098988 0.524 0.20339 -0.0034422 0.020562 0.010862 -0.00081153 0.028454 
0.14371 0.11148 0.18563 0.042758 0.013986 0.019576 0.014972 0.065283 
0.15637 -0.37946 -0.08532 0.0023123 0.0093821 0.01826 0.024344 0.028125 
0.0095465 -0.60783 -0.27242 -0.0078813 -0.0049219 0.012013 -0.00081153 -0.018239 
-0.17591 -0.74889 -0.19696 -0.040928 0.0018191 0.023357 0.0064227 -0.023501 
-0.089102 -0.47975 0.012835 0.004943 0.010697 0.023357 0.034209 0.020069 
0.23118 0.23594 0.18218 0.041772 0.030263 0.043745 0.053774 0.062323 
0.34561 0.60571 0.16097 0.03388 0.039141 0.038977 0.037826 0.025988 
0.13631 0.50098 0.03799 0.049992 0.046868 0.03092 0.041278 -0.018568 
-0.035996 0.25995 -0.073647 0.050979 0.040621 0.033058 0.017932 -0.073154 
-0.0021268 0.24795 -0.050958 0.065612 0.052952 0.038483 0.024837 -0.06444 
0.1659 0.28938 0.12381 0.041278 0.065118 0.037497 0.024179 0.032729 
0.079094 -0.27785 0.13401 0.033222 0.05213 0.036017 0.022535 0.060679 
-0.22228 -0.6338 -0.088608 -0.0039354 0.036346 -0.00064712 0.01711 0.014479 
-0.26897 -0.44983 -0.16243 0.014808 0.0072447 0.0065871 0.018754 -0.024487 
-0.087458 -0.33802 0.07597 0.013986 0.011026 0.014972 -0.009361 -0.043888 
0.07597 -0.34033 0.366 0.06742 0.020398 0.0095465 0.020562 0.031907 
0.17347 0.010697 0.38244 0.08715 0.043251 0.037004 0.070215 0.13532 
0.24318 0.48076 0.066927 0.10902 0.035195 0.039634 0.038155 0.21178 
0.25337 0.76437 0.013986 0.10655 0.040785 0.050321 0.021713 0.2269 
0.12562 0.97959 0.075148 0.071037 0.068571 0.057884 0.054925 0.10047 
-0.05326 1.1402 -0.010019 0.034209 0.060186 0.053445 0.05065 -0.016102 
-0.32339 0.7892 -0.18857 -0.006566 0.037332 0.030592 0.018754 -0.062138 
-0.33178 -0.071181 -0.19054 -0.0088678 0.033551 0.036346 0.044402 -0.096994 
-0.084005 -0.81565 -0.035996 -0.022021 0.018425 0.021713 0.0092177 -0.085978 
0.1271 -0.7821 0.046046 -0.0055795 0.027139 0.013821 -0.0026201 -0.052437 
0.096357 -0.44835 0.023357 -0.043888 0.0059294 0.01415 0.024508 -0.028433 
0.012342 -0.16901 -0.063453 -0.038791 -0.0082102 -0.016924 0.0023123 -0.043395 
-0.040106 0.15686 -0.046683 -0.06296 -0.023007 -0.015938 -0.0078813 -0.009361 
-0.071838 0.50016 0.086163 0.035853 0.0036276 0.021713 0.025824 0.051143 
-0.12445 0.30023 0.29612 0.065776 0.026646 0.0032988 0.028454 0.071037 
-0.14303 -0.26519 0.31486 0.098001 0.027961 0.027632 0.01152 0.0786 
0.023851 -0.18117 0.1932 0.085999 0.06183 0.033222 0.033715 0.053116 
0.16788 0.34594 0.17791 0.056076 0.065776 0.034866 0.038155 0.0592 
0.21572 0.78098 0.33361 0.016288 0.046704 0.037004 -0.0070593 0.094384 
0.27442 1.0488 0.31026 0.020562 0.029934 0.029769 0.033222 0.063145 
0.35136 0.98452 0.089945 0.053445 0.019576 0.029934 0.055911 0.058377 
0.23742 0.42946 -0.10604 0.032236 0.022371 0.024673 0.007738 0.03092 
0.0098754 -0.14451 -0.17739 0.042429 0.024673 0.0051074 0.030263 0.017767 
0.004943 -0.23691 -0.15405 0.044731 0.051965 0.031742 0.040456 0.013657 
0.15801 -0.13053 -0.11524 0.077285 0.066269 0.085341 0.029769 0.035195 
0.14453 -0.48271 -0.079237 0.01826 0.035688 0.032236 0.023193 0.060186 
-0.0067304 -0.77092 -0.0083746 0.016781 0.020727 0.025166 0.038648 0.074326 
-0.17476 -0.44555 0.079094 -0.0050863 0.023028 0.027139 0.02122 0.044567 
-0.28179 -0.11656 0.10524 0.023357 0.043745 0.01974 0.025001 0.018918 
-0.26996 -0.070687 0.043909 0.013657 0.017274 0.017438 0.028454 0.0041209 
-0.030242 -0.1307 0.043251 0.0090533 0.018425 0.025988 0.014808 0.015137 
0.058049 -0.37831 0.013164 -0.013965 0.0034632 0.014808 0.014808 0.044896 
-0.015116 -0.2277 0.066105 -0.036654 -0.001798 0.01004 0.029934 -0.0004827 
-0.0055795 0.56905 0.18826 -0.0138 -0.016595 -0.009361 -0.0026201 -0.066906 
0.13845 1.122 0.083862 -0.004593 0.011684 0.018918 0.0075736 -0.043888 
0.1641 0.94293 -0.07562 0.036017 0.019411 0.014808 0.025988 0.0037921 
0.25354 0.43275 -0.17871 0.0052718 0.016452 0.0019835 0.015137 0.049006 
0.46925 -0.036983 -0.2859 0.030756 0.017274 0.0062583 0.01974 0.10376 
0.54175 -0.42253 -0.4033 -0.0082102 0.036182 0.041278 0.04654 0.15933 
0.24745 -0.47876 -0.1187 0.05772 0.046868 0.027632 0.058377 0.15341 
-0.044217 -0.23132 0.60999 0.088794 0.048348 0.030263 0.047691 0.13187 
-0.13251 -0.12774 0.87946 0.13565 0.084848 0.047526 0.067749 0.11313 
-0.086471 -0.20797 0.35761 0.11148 0.071037 0.044073 0.055911 0.054267 
-0.010019 -0.12396 -0.27094 0.082382 0.076463 0.0056006 0.05476 0.052952 
0.076956 -0.096172 -0.53795 0.036346 0.028947 0.03799 0.065776 0.023522 
0.19106 -0.045532 -0.37304 -0.015444 0.0095465 0.014643 0.028125 0.044073 
0.22805 -0.0059084 -0.17213 -0.023172 -0.015116 0.00017495 0.0016547 0.05213 
0.25337 -0.030899 -0.16605 -0.011992 0.012999 0.0093821 0.042429 0.038812 
0.20914 -0.022514 0.076792 0.056404 0.018589 0.015137 0.029769 0.048677 
0.0227 0.085012 0.4122 0.075148 0.058542 0.019576 0.029605 0.077285 
-0.56015 0.10014 0.37208 0.10425 0.054596 0.022371 0.038977 0.01826 
-1.0041 -0.0031133 0.22213 0.04654 0.032564 0.0016547 0.025824 -0.03616 
-0.63808 -0.014293 0.11707 0.051965 0.01152 0.023028 0.0075736 -0.049807 
0.13072 0.11954 0.049335 0.039305 0.027303 0.020727 0.039963 -0.021363 
0.69943 0.13647 -0.14221 0.050321 0.034209 0.038648 0.020891 0.024673 
0.91234 0.11115 -0.33654 0.016288 0.029605 0.040128 0.015959 0.0067515 
0.66375 0.17363 -0.26601 -0.0004827 0.031907 0.029605 0.027961 0.0069159 
0.22065 0.24943 -0.051944 0.014643 0.033387 0.025988 0.03536 0.017603 
-0.088773 0.17462 0.01974 0.0032988 0.0092177 0.0064227 0.032893 -0.052437 
-0.20337 0.045224 0.021878 0.03799 0.017767 0.010533 0.025988 -0.016102 
-0.13103 0.080244 0.056898 0.033387 0.035031 0.0021479 0.0028056 0.030263 
-0.077264 0.0080668 0.043087 0.06594 0.042429 0.02829 0.01711 0.059364 
-0.14352 -0.12297 0.061666 0.056898 0.052459 0.034866 0.03799 0.044238 
-0.16786 0.047526 0.1151 0.086985 0.072846 0.03947 0.046046 0.038977 
-0.133 0.23463 0.096028 0.058706 0.077943 0.035853 0.027139 0.026152 
-0.1935 0.12562 0.095864 0.032071 0.017274 0.004943 0.014315 0.010862 
-0.19959 0.14519 0.17297 0.036017 0.0013258 0.02533 0.033058 -0.0082102 
-0.1838 0.33196 0.15538 0.025988 0.0059294 0.010204 0.020233 -0.029748 
-0.0082102 0.025495 0.047033 -0.0091966 -0.015116 0.014479 0.004943 -0.045696 
0.51364 -0.23444 0.0014903 -0.019226 -0.0072237 0.007738 0.027632 0.0082312 
0.73494 -0.19909 0.034537 0.012342 0.024015 0.01267 0.023028 0.08008 
0.47188 -0.11031 0.060022 0.029934 0.052952 0.019905 0.060186 0.081067 
-0.028926 -0.067564 0.067585 0.068736 0.046375 0.058871 0.058706 0.029441 
-0.52019 0.052787 0.020233 0.066269 0.010369 0.034044 0.050814 0.020233 
-0.59747 0.17922 -0.14846 0.036182 0.031085 0.026974 0.011355 0.048513 
-0.38307 0.23463 -0.29544 -0.004593 0.017274 0.013328 0.027632 0.071202 
-0.098309 0.49736 -0.17953 0.0079024 0.020398 -0.0024557 0.014315 0.078107 
0.13384 0.88966 0.037826 0.01152 0.01152 -0.001798 -0.015444 0.014808 
0.21441 0.8058 0.11937 0.032071 0.01152 0.00050378 0.00099702 -0.083183 
0.088794 0.34068 0.27376 0.027961 0.026481 0.017767 -0.0013048 -0.14648 
-0.031064 -0.092226 0.32128 0.025659 0.0085601 0.046211 0.012342 -0.15092 
0.017438 -0.26042 0.33065 0.028947 0.016781 0.027632 0.064461 -0.05737 
0.10737 -0.24365 0.26258 0.033387 0.027468 0.03388 0.043087 0.015137 
0.13335 -0.37354 0.13023 0.048348 0.036017 0.046375 0.061995 0.04095 
0.11296 -0.60273 0.038812 0.014315 0.034044 0.029934 0.069558 0.071859 
0.065776 -0.51444 -0.036654 0.037661 0.033058 0.046211 0.057227 0.094713 
0.059693 -0.18167 -0.087293 0.017603 0.037168 0.03536 0.0072447 0.062981 
0.066763 0.078436 -0.058192 0.036675 0.059035 0.025824 -0.0057439 0.088958 
0.079258 0.17347 -0.057534 0.025988 0.058377 0.032729 -0.012649 0.068078 
0.1294 0.3951 0.02533 0.066269 0.065612 0.033715 0.0034632 0.064296 
0.17297 0.73231 0.10951 0.043909 0.051472 -0.0047575 0.026646 0.042429 
-0.0868 0.8303 0.063145 0.013657 0.011684 0.007738 0.02533 -0.0138 
-0.3571 0.58582 -0.10702 -0.033859 -0.022021 -0.032379 0.0085601 -0.04882 
-0.30711 0.26735 -0.22688 -0.053095 -0.019555 -0.035503 0.019905 -0.02087 
-0.056712 -0.15799 -0.26946 -0.023172 -0.03057 -0.023007 0.03799 -0.043724 
0.093233 -0.97562 -0.29034 -0.041422 -0.034188 -0.040271 0.022042 -0.0054151 
0.096357 -1.4156 -0.1381 -0.054082 -0.055232 -0.041422 0.0324 0.010533 
0.15703 -0.87253 0.13335 -0.045203 -0.018733 -0.0011404 0.035853 0.025824 
0.32966 0.028454 0.24482 0.025824 0.013986 0.037661 0.045882 0.071202 
0.30138 0.61311 0.232 0.044402 0.058213 0.072353 0.039799 0.096521 
0.10787 0.65438 0.13039 0.10096 0.076792 0.079422 0.054596 0.064296 
-0.048163 0.48553 0.051472 0.10935 0.094877 0.086328 0.027632 0.043909 
-0.071674 0.48388 0.0016547 0.16541 0.11132 0.053774 0.058213 0.046046 
-0.10373 0.28198 -0.055232 0.067749 0.05624 0.035853 0.038648 0.046868 
-0.12445 -0.079237 0.067913 -0.0091966 0.014643 -0.0088678 0.018754 0.083862 
-0.15174 -0.1108 0.32884 0.010204 -0.0024557 0.00050378 -0.015773 0.03092 
-0.1552 -0.065755 0.19665 0.043909 -0.014951 -0.0042642 0.013657 0.00050378 
-0.07266 -0.038627 -0.035996 0.052294 0.022535 0.012506 0.015137 0.024015 
0.10902 0.078107 -0.090417 0.067749 0.054925 0.032893 0.048348 0.061501 
0.1562 -0.04619 0.034866 0.053609 0.040621 0.021549 0.071202 0.050321 
0.12316 -0.4513 0.14601 0.01826 0.030098 0.020398 0.023357 0.0054362 
0.32604 -1.2546 0.051636 0.025988 0.018589 0.017932 0.016123 0.024179 
0.53008 -1.7947 -0.1108 -0.024652 0.028125 0.011848 0.044238 0.095206 
0.34988 -0.98039 -0.098967 0.015301 0.037661 -0.0057439 0.031742 0.12842 
-0.22458 0.33213 -0.032872 0.007738 0.036017 0.017438 0.01267 0.052787 
-0.66504 0.92813 -0.0096899 0.047691 0.060186 0.0019835 0.031085 -0.032708 
-0.47136 0.9084 -0.0060728 0.013492 0.041443 0.0052718 0.014479 -0.058028 
-0.072167 0.78903 0.0065871 0.030098 0.034537 0.015137 0.023357 -0.047176 
0.13746 0.57118 0.071202 0.033387 0.021878 0.032893 0.055254 -0.066577 
0.22822 0.28593 0.077121 0.033387 0.021549 0.039141 0.024508 -0.063946 
0.2486 0.095042 -0.056877 0.0083956 0.0093821 0.02533 0.025824 -0.019226 
0.024673 -0.094856 -0.21159 -0.0088678 0.014643 0.015465 0.029605 0.031085 
-0.15141 -0.13563 -0.061645 0.020398 0.0083956 0.051308 0.015794 0.060022 
-0.035174 -0.13974 0.21326 0.018096 0.0041209 0.017274 0.016123 0.090438 
0.1659 -0.21702 0.34084 0.07038 0.005765 0.0069159 0.0087245 0.07301 
0.19501 0.031085 0.37668 0.10721 0.01826 0.029769 0.025824 0.027796 
0.077614 0.32588 0.20734 0.11872 0.03651 0.025988 0.035853 0.068571 
0.016781 0.34528 0.08863 0.031414 0.046868 0.030098 0.043087 0.12349 
-0.0075525 0.17626 0.061337 0.024673 0.044073 0.039305 0.040292 0.11148 
-0.029913 -0.073482 -0.064111 -0.0062372 0.049006 0.023357 0.028125 0.074819 
0.0032988 -0.22244 -0.17641 0.037497 0.050979 0.032564 0.040785 0.033387 
-0.088115 -0.35973 -0.0965 0.06183 0.056733 0.044238 0.033387 0.03092 
-0.37091 -0.76468 -0.027611 0.07449 0.042265 0.031907 0.010369 0.046375 
-0.28722 -0.59089 0.086328 0.032564 0.015465 0.023851 0.0064227 0.069722 
0.26883 -0.070194 0.20684 0.032893 0.047197 0.04358 0.051801 0.13582 
0.75056 0.060022 0.18481 0.048348 0.058049 0.052623 0.051308 0.16015 
0.58713 0.062817 0.088465 0.012177 0.08008 0.095206 0.06594 0.13927 
0.22822 0.46777 0.038319 0.042923 0.051965 0.056898 0.067585 0.1322 
0.034866 0.93109 0.066763 0.0098754 0.020562 0.038155 0.02681 0.10244 
-0.089266 0.94473 0.010862 0.017274 0.0074092 0.030756 0.020233 0.065447 
-0.14204 0.21539 -0.017911 0.0090533 0.0059294 0.01826 0.017932 0.004943 
-0.09091 -0.33211 -0.0088678 0.0075736 -0.0032777 0.011684 -0.0090322 -0.060329 
-0.016266 -0.040106 0.025001 0.00099702 0.025659 0.0018191 0.0041209 -0.094856 
0.087643 0.22624 -0.071016 0.024015 0.039963 0.004943 0.029769 -0.11508 
0.2029 0.36402 -0.090417 0.018425 0.044402 -0.026296 0.024673 -0.17542 
0.27738 0.4852 0.076134 0.027139 0.02533 0.020233 -0.0049219 -0.26585 
0.29234 0.47895 0.11855 0.0064227 0.010369 0.020398 0.021713 -0.218 
0.11378 0.24515 0.1396 0.026152 0.023522 0.020562 0.0052718 -0.095021 
-0.091075 0.016123 0.22033 0.059857 0.049006 0.042758 0.019576 -0.0014692 
-0.24562 -0.092883 0.31437 0.052952 0.046211 0.048348 0.054596 0.13384 
-0.2568 -0.029913 0.40463 0.060022 0.020891 0.043251 0.038977 0.2029 
-0.11804 0.061501 0.30007 0.039963 0.040292 0.0095465 0.042923 0.25765 
0.022371 -0.13826 0.064461 0.039141 0.029112 0.02533 0.061337 0.24482 
0.1225 -0.36038 -0.11755 0.020727 0.048677 0.045718 0.058542 0.15078 
-0.018239 -0.16046 -0.53351 0.067749 0.059693 0.014972 0.038155 0.054596 
0.00083261 0.18251 -0.83636 0.036017 0.052787 0.023193 0.069229 0.015301 
0.2389 0.41894 -0.69595 0.036346 0.051143 0.0324 0.034209 0.0421 
0.22411 0.29974 -0.42155 0.0092177 0.042429 0.0037921 0.013328 0.040128 
0.052294 -0.098144 -0.14714 0.0092177 0.027303 0.00297 0.020233 -0.016924 
0.058706 -0.0052507 0.1202 0.005765 0.028454 0.033222 0.027303 0.012835 
0.22887 0.45297 0.38457 0.016123 0.029769 0.018425 0.020069 0.067091 
0.25683 0.6335 0.51068 0.018754 0.024508 0.021384 0.034866 0.085341 
0.11674 0.54965 0.4801 -0.0078813 -0.0138 -0.010841 0.0016547 0.0592 
0.041772 0.47155 0.46612 0.025659 0.0059294 -0.025309 -0.0054151 0.040456 
-0.070852 0.24417 0.40134 0.02533 0.013164 0.013328 0.0037921 -0.0068948 
-0.22606 -0.28278 0.20388 0.013328 0.021549 0.013657 0.02681 -0.046025 
-0.28212 -0.66718 0.035195 -0.058028 -0.0047575 -0.0031133 0.019247 -0.098309 
-0.19498 -0.38357 -0.0062372 -0.019226 -0.00015387 0.023028 0.022206 -0.07266 
-0.055397 0.12908 -0.12593 0.011848 0.021549 0.0087245 0.053938 -0.021692 
-0.014129 0.035195 -0.32405 0.055254 0.03799 -0.00015387 0.039963 0.015959 
0.016616 -0.17805 -0.43601 0.027796 0.052623 0.033551 0.012342 0.067256 
0.018096 -0.29676 -0.46824 0.027632 0.041278 0.020233 0.043909 0.07301 
-0.079895 -0.42582 -0.39968 0.018918 0.025824 0.022371 0.02829 0.017274 
-0.15898 -0.42204 -0.15585 0.012342 0.016288 0.028947 0.018096 -0.056712 
-0.063453 -0.3012 0.19632 0.023028 0.031907 0.0039565 0.026646 -0.056219 
0.046704 -0.29873 0.22246 0.032236 0.015465 0.0062583 0.014315 0.017603 
0.11444 -0.024487 0.071366 0.088301 0.033715 0.038155 0.017438 0.12776 
0.17429 0.4025 0.066105 0.072681 0.036346 0.026646 0.043416 0.18202 
0.1031 0.6483 0.12102 0.039634 0.031085 0.019083 0.037004 0.15785 
0.038812 0.88966 0.10819 0.03092 0.013164 0.022535 0.0070803 0.13499 
-0.032872 0.91563 -0.028104 -0.0024557 -0.00081153 0.044567 0.064132 0.076956 
-0.060329 0.37422 -0.031392 -0.0073881 0.025824 0.044731 0.018918 0.028454 
-0.061645 -0.68362 0.049828 -0.03616 0.049992 0.03536 0.034044 -0.020706 
-0.04619 -1.5795 -0.0072237 -0.015938 0.020562 0.0085601 0.034373 -0.04619 
0.016945 -1.1627 0.0056006 -0.044217 0.015794 0.056898 0.020891 -0.027447 
0.022535 -0.19531 0.20224 0.0042853 -0.0014692 0.013328 0.010533 -0.031886 
-0.099131 0.42831 0.29398 0.037332 -0.010183 0.0014903 0.034209 -0.067892 
-0.089102 0.57858 0.21917 0.071531 -0.0039354 0.033387 0.03536 -0.01939 
0.053281 0.56264 0.10228 0.05065 0.019411 0.026152 0.051143 0.039141 
0.15555 0.42091 0.07038 0.054432 0.021549 0.0088889 0.068078 0.070051 
0.10507 0.29464 0.088465 0.024837 0.014479 0.029934 0.037004 0.13302 
0.014643 0.16196 0.060844 0.070544 0.02829 0.023851 0.03092 0.16114 
0.0092177 0.0067515 0.10211 0.027796 0.037497 0.027468 0.050157 0.22033 
-0.025474 -0.070359 0.10688 0.040621 0.025659 0.020562 0.037497 0.19862 
-0.099789 -0.045861 0.039634 0.0098754 0.039141 0.016616 0.022371 0.1225 
-0.20386 -0.056548 0.009711 -0.0014692 0.018918 0.045882 0.029769 0.049828 
-0.11311 -0.081703 0.0095465 -0.012649 0.014808 0.017274 0.018425 -0.03057 
0.044567 -0.14977 -0.018404 -0.037969 0.015465 0.0019835 0.0026412 -0.092061 
0.14272 -0.26272 0.04506 0.0018191 0.0046141 0.020562 -0.0049219 -0.089431 
0.16031 -0.3132 0.054596 0.034044 0.00066819 0.019247 -0.00064712 -0.11015 
0.14338 -0.20337 -0.052602 0.077778 0.033551 0.020562 -0.0032777 -0.15552 
0.22164 0.090109 -0.0868 0.066763 0.041936 0.049828 0.00033937 -0.18183 
0.28527 0.44261 0.052459 0.10507 0.038648 0.029934 0.025659 -0.19877 
0.26505 0.66145 0.15193 0.10211 0.023522 0.021878 0.013328 -0.088444 
0.15587 0.69433 0.14223 0.092904 0.034373 0.037826 0.027796 0.039634 
0.28001 0.62199 0.30204 0.05213 0.044073 0.026481 0.059035 0.15571 
0.2218 0.43127 0.48355 0.054267 0.050157 0.029112 0.041443 0.20635 
-0.15717 0.1276 0.30335 0.045882 0.044402 0.026646 0.025824 0.16607 
-0.34641 -0.0096899 -0.1718 0.0075736 0.031249 0.013492 0.024837 0.074819 
-0.12018 0.079587 -0.26059 0.0080668 0.034537 0.021384 0.010204 -0.0096899 
0.19517 0.44327 0.32999 0.028783 0.020069 0.034044 0.035688 -0.0138 
0.14552 0.50821 0.50328 0.05772 0.05624 0.029605 0.028947 0.026152 
-0.17114 0.10129 -0.0036066 0.015794 0.040128 0.050321 0.020891 0.052294 
-0.33671 -0.77964 -0.38932 0.00050378 0.014643 0.010204 0.025001 0.010862 
-0.31665 -1.2711 -0.25516 -0.011334 0.016452 0.024673 0.032893 -0.0059084 
-0.34986 -0.82863 1.0539e-005 0.041114 0.025166 0.040292 0.032729 -0.032215 
-0.17213 -0.062796 0.10211 0.033715 0.04917 0.043251 0.028783 -0.027447 
0.36682 0.38556 -0.039942 0.077614 0.05213 0.052952 0.082875 0.07038 
0.66194 0.29201 -0.10587 0.10408 0.021713 0.051965 0.066598 0.11937 
0.48109 0.17182 -0.045039 0.034044 0.031414 0.038977 0.02681 0.048348 
0.21654 0.42403 0.089123 0.051636 0.026974 0.014808 0.055582 -0.009361 
0.047033 0.62807 0.052952 0.0098754 0.028125 0.01152 0.0051074 -0.017253 
-0.0083746 0.67329 0.10195 0.013986 0.027139 -0.01528 0.0324 0.013986 
-0.096665 0.4755 0.11181 0.00017495 0.032729 0.0064227 0.039634 0.042265 
-0.1279 -0.19597 0.035195 0.0065871 0.011684 0.019083 0.030592 0.017932 
-0.24447 -1.0537 -0.12511 -0.025967 -0.0019624 -0.0022913 0.0041209 -0.040271 
-0.10308 -1.2022 -0.19318 -0.0098543 -0.0040998 0.0072447 0.012013 -0.055397 
0.079587 -0.57248 -0.1136 -0.02087 0.0070803 0.00083261 0.019576 -0.036818 
0.072681 0.31881 0.014643 0.024015 0.011684 0.011848 0.016616 0.021549 
0.035688 0.71011 0.03536 -0.004593 0.012506 0.017438 0.027961 0.073997 
0.01826 0.61673 0.055747 0.032729 0.019411 0.013492 0.026974 0.080244 
-0.11163 0.3489 0.030427 0.06331 0.056076 0.038812 0.022864 0.093726 
-0.12018 -0.013636 0.0028056 0.064954 0.060515 0.056076 0.048184 0.07449 
0.10524 -0.29067 -0.040764 0.06331 0.062159 0.04506 0.060679 0.05065 
0.31864 -0.303 -0.11705 0.054925 0.061337 0.039963 0.03799 0.065283 
0.28741 -0.194 -0.15207 0.061337 0.054103 0.053609 0.029934 0.050157 
0.12957 -0.033201 -0.11015 0.0227 0.035853 0.015137 0.04095 0.041443 
-0.091897 0.042758 -0.084334 0.012835 0.061172 0.018918 0.023851 0.055911 
-0.18972 -0.27489 -0.024487 -0.0054151 0.027796 0.018754 0.024508 0.040785 
-0.12215 -0.65781 0.15999 0.043087 0.023028 0.017603 0.023851 0.058049 
-0.018075 -0.63561 0.39888 0.020891 0.015301 0.025001 0.019247 0.018425 
0.067749 -0.36038 0.39855 0.0786 0.023028 0.034866 0.020398 -0.040106 
0.12003 -0.18972 0.091096 0.038155 0.020398 0.027632 0.045882 -0.040928 
0.15801 -0.094527 -0.26585 0.055911 0.045718 0.056733 0.031907 0.019905 
0.097672 0.12003 -0.3594 0.029276 0.030756 0.027468 0.037826 0.067585 
0.026646 0.35909 -0.32947 0.0082312 0.028947 0.019247 0.057555 0.064954 
-0.048656 0.39016 -0.30415 -0.014951 0.013657 0.023193 0.029112 0.033387 
0.020727 0.2052 -0.17673 -0.013965 0.014315 0.00083261 0.015465 0.046046 
0.18777 0.049335 0.044238 -0.010183 0.010369 -0.020048 0.022042 0.10096 
0.20438 -0.0049219 0.25288 0.0037921 0.026974 0.010697 -0.025474 0.10672 
0.11395 0.067091 0.30812 0.042758 0.046704 0.010369 -0.0054151 0.08156 
0.11247 0.22279 0.20191 0.013657 0.0421 -0.0022913 0.012835 0.02122 
0.20109 0.35202 0.14864 0.062652 0.02681 0.016452 0.029276 -0.051944 
0.15999 0.44097 0.11148 0.046375 0.030756 0.0090533 0.049335 -0.068057 
0.035853 0.4972 0.057227 0.066927 0.040785 0.011191 0.080902 -0.03057 
0.03651 0.56757 0.012835 0.0421 0.039305 0.0013258 0.062323 -0.030735 
0.016452 0.44196 -0.0080457 0.072846 0.023028 0.0026412 0.037497 -0.031557 
-0.1233 -0.1187 0.009711 0.046704 0.01267 0.024508 0.050157 -0.0088678 
-0.1889 -0.53598 0.0032988 -0.033037 0.11 0.01004 0.0028056 0.071366 
-0.16095 -0.43437 0.11526 0.020233 0.015959 0.027632 0.00297 0.13927 
-0.043724 0.010533 0.10885 0.041936 0.054267 0.038155 0.033058 0.10277 
0.11148 0.39888 0.079258 0.031907 0.038319 0.040785 0.00017495 0.065776 
0.25173 0.48865 -0.00015387 0.042265 0.032071 0.0072447 -0.010348 0.048677 
0.40348 0.33377 -0.019226 0.0227 0.012177 0.038648 0.0079024 0.059693 
0.40233 0.35383 0.021384 0.011191 0.029605 0.02829 0.014479 0.06594 
0.2223 0.59486 0.055418 0.058049 0.044567 0.022535 0.020727 0.030098 
-0.040764 0.19468 0.039305 0.051965 0.03947 0.048184 0.042594 -0.017088 
-0.24086 -0.58119 0.13088 0.093562 0.051636 0.041772 0.02829 -0.01939 
-0.34953 -0.33457 0.22739 0.095535 0.033222 0.036346 0.032893 0.030756 
-0.25088 0.27853 0.19451 0.093398 0.025166 0.019576 0.059364 0.016616 
-0.073482 0.59223 0.13236 0.05772 0.021878 0.007738 0.0421 0.043745 
0.052623 0.56724 0.03092 0.036182 0.0021479 0.044073 0.024673 0.083368 
0.12135 0.41976 -0.056383 -0.01232 -0.004593 0.020233 0.0324 0.096521 
0.2006 0.43932 -0.0503 -0.018897 0.01004 0.025659 0.013164 0.084848 
0.19846 0.46168 0.10787 -0.0073881 0.0080668 0.031249 -0.01939 0.0065871 
-0.071674 0.053938 0.20092 -0.011827 0.019905 0.014643 -0.014787 -0.043395 
-0.2448 -0.65649 0.097015 0.015137 0.028783 0.005765 0.015301 -0.022021 
-0.090746 -1.0721 -0.07414 -0.014129 0.0069159 0.026974 0.012835 0.0064227 
0.10458 -0.75596 -0.1279 0.023522 0.026646 0.016616 0.015301 0.016945 
0.16574 -0.12609 -0.071509 0.0324 0.032564 0.0069159 0.059035 0.017274 
0.12003 0.35761 -0.060823 0.051801 0.02533 0.050157 0.036675 -0.051122 
-0.027118 0.44064 -0.047012 0.028125 0.022864 0.043087 0.03388 -0.13168 
-0.21241 0.34923 0.041772 0.021713 0.028947 0.037661 0.024508 -0.13136 
-0.13711 0.38425 0.15308 0.0080668 0.012999 0.034866 0.010862 0.00066819 
-0.00081153 0.38014 0.17314 -0.0022913 0.0062583 0.021056 -0.0067304 0.14338 
0.11181 0.38671 0.092082 0.0018191 0.0095465 0.038483 0.037332 0.17462 
0.19977 0.35186 0.10573 0.035031 -0.0042642 0.033222 0.029769 0.15653 
0.024673 0.2269 0.10524 0.061008 0.017767 0.010204 0.023193 0.11855 
-0.18101 0.087972 0.01563 0.073997 0.05624 0.042429 0.059035 0.092082 
-0.082361 0.11691 0.055089 0.1299 0.072846 0.048841 0.041278 0.094713 
0.086163 0.035853 0.097179 0.10737 0.071037 0.044731 0.013657 0.11724 
0.10885 -0.025309 0.11888 0.10343 0.052294 0.058871 0.022206 0.08304 
-0.16917 0.016945 0.21506 0.0083956 0.020069 0.026646 -0.0011404 0.020562 
-0.27242 0.18465 0.19484 -0.031228 -0.009361 0.015301 -0.006566 -0.016266 
-0.17936 -0.24151 0.082053 -0.055232 -0.011334 0.01974 0.025659 -0.033859 
-0.1256 -1.5368 -0.02498 -0.055232 -0.014129 0.0075736 0.0098754 -0.06707 
-0.13136 -1.6778 -0.03616 -0.02942 -0.022021 0.0072447 0.025495 -0.099953 
-0.16638 -0.69464 -0.02498 0.010369 -0.010676 0.0032988 0.028454 -0.12873 
-0.12462 0.086328 -0.12593 0.0042853 0.014479 -0.046847 0.0026412 -0.15684 
0.079094 0.46004 -0.19202 0.0032988 -0.0083746 -0.0032777 0.0067515 -0.13382 
0.30631 0.475 -0.1644 0.01152 0.046704 -0.0068948 0.036182 -0.078579 
0.37339 0.25304 -0.13366 0.071859 0.036017 0.029605 0.029441 -0.028104 
0.34692 0.17314 0.080902 0.11921 0.059364 0.061501 0.029769 -0.013307 
0.33673 0.2828 0.33574 0.097344 0.087314 0.040292 0.049006 0.03799 
0.2782 0.45873 0.31832 0.097508 0.08304 0.016123 0.061995 0.13549 
0.16393 0.50624 0.13088 0.03947 0.036182 0.027632 0.053609 0.18629 
0.023357 0.49177 0.0041209 0.057555 0.042758 0.029112 0.072024 0.23841 
-0.12379 0.23512 -0.099131 0.047526 0.024837 0.035688 0.069229 0.19698 
-0.16802 -0.33358 -0.13366 0.033715 0.039305 0.04095 0.031578 0.13713 
-0.1279 -0.90936 -0.18134 0.014315 0.017603 0.021056 0.0090533 0.064461 
-0.14665 -0.88289 -0.1746 0.0092177 0.0095465 0.0062583 0.0042853 -0.0059084 
-0.17262 -0.42796 -0.03205 0.019083 -0.00031829 0.014808 0.0090533 -0.032215 
-0.035174 0.045553 0.066269 0.029605 0.034537 0.0095465 0.00297 -0.01939 
0.048348 0.19928 0.049828 0.042429 0.023193 0.019411 0.02829 -0.014951 
0.06594 -0.010512 -0.02794 0.016945 0.020562 0.016945 0.010862 -0.0503 
0.052459 -0.18134 -0.032543 0.01004 0.018425 0.0080668 0.017767 -0.066741 
0.017438 -0.1621 0.12595 -0.025638 0.013328 0.0034632 0.031085 -0.063453 
-0.04882 0.040456 0.26554 0.019083 0.023686 0.0016547 0.0069159 -0.018568 
-0.07266 0.13812 0.25765 0.021056 0.023851 0.0083956 0.021713 0.01415 
0.034373 0.08715 0.23085 0.04917 0.027303 0.036346 0.04506 0.03651 
0.12365 0.0064227 0.052787 0.032236 0.017767 0.017767 0.017603 0.10096 
0.17495 -0.017911 -0.21307 0.027139 0.029276 0.0098754 0.026974 0.12694 
0.25436 0.12497 -0.29445 0.048677 0.045718 0.035688 0.062159 0.12398 
0.29135 0.34314 -0.14895 0.047362 0.037826 0.026646 0.038812 0.089945 
0.25863 0.46514 0.10228 0.050979 0.045882 0.0070803 0.031085 -0.0090322 
0.17363 0.44524 0.23068 0.033551 0.032564 0.040128 0.057062 -0.01528 
0.075312 0.3854 0.10737 0.063145 0.042429 0.021549 0.049335 0.016945 
0.027303 0.39608 -0.06 0.046704 0.038977 0.031742 0.042265 0.045553 
-0.15158 0.27113 -0.20995 0.03799 0.032729 0.035031 0.055911 0.022206 
-0.37387 -0.07266 -0.29347 -0.011992 0.015959 -0.0026201 -0.0004827 0.01004 
-0.20814 -0.25088 -0.30202 -0.0059084 0.0037921 0.0016547 -0.022021 0.0092177 
0.22279 -0.10735 -0.27029 -0.047834 0.027139 0.012013 0.013821 0.064296 
0.42864 -0.060329 -0.145 -0.018075 0.040785 0.020233 0.018425 0.10491 
0.087643 -0.60931 0.046868 0.0060938 0.040621 0.028783 0.011684 0.05213 
-0.11426 -0.71848 0.29267 0.041772 0.012999 0.025495 0.039799 0.09685 
-0.1085 -0.194 0.36501 0.050321 0.024179 0.01711 0.032564 0.13664 
-0.10867 0.25173 0.3826 0.048019 0.034044 0.040456 0.019247 0.14765 
0.082711 0.45626 0.341 0.049992 0.023193 0.021549 0.029769 0.11033 
0.46448 0.57776 0.18892 0.016123 -0.0072237 0.054925 0.025001 -0.029748 
0.50641 0.68101 0.15061 0.045553 0.040785 0.052787 0.02829 -0.025474 
0.26176 0.70124 0.12743 0.0024767 0.0324 0.032236 0.039305 -0.055397 
0.076792 0.63202 0.15061 0.027632 0.048184 0.028454 0.058377 -0.087786 
-0.053917 0.55343 0.17676 -0.00097594 0.057062 0.040128 0.040785 -0.12642 
-0.19202 0.44459 0.077121 0.024179 0.037497 0.020069 0.025495 -0.18742 
-0.27785 0.317 -0.013471 0.041772 0.038483 0.013492 0.012013 -0.18249 
-0.15158 0.21671 -0.071181 0.064296 0.015301 0.032893 -0.016431 0.065118 
0.067091 0.045553 -0.19926 0.037332 0.0069159 0.021549 0.019083 0.22592 
0.042429 -0.3765 -0.32997 0.0092177 0.016616 0.027303 0.027468 0.23118 
0.036839 -0.55176 -0.27209 0.01415 0.040785 0.019083 0.004943 0.13417 
0.06035 -0.55258 -0.23263 0.012835 0.025988 0.024837 0.0090533 0.01711 
-0.027282 -0.48271 -0.21767 0.034209 0.032071 0.024179 0.010369 -0.0050863 
-0.1381 -0.28936 -0.14434 0.0011614 0.060022 0.014479 -0.00064712 0.033715 
-0.26174 -0.20649 -0.22852 -0.017911 0.038812 0.026481 0.010533 0.015301 
-0.19712 -0.12609 -0.12314 -0.028104 0.036017 0.035031 0.042429 -0.06707 
-0.0019624 0.4145 0.18004 0.0098754 0.0085601 0.014479 0.031414 -0.14221 
0.1733 0.79742 0.65652 0.024179 0.013492 0.0074092 0.025659 -0.10653 
0.26011 0.81452 0.82981 0.06742 0.030098 0.027632 0.051636 -0.0047575 
0.27409 0.86072 0.56707 0.044896 0.037661 0.033715 0.040785 0.0786 
0.244 0.63909 0.12135 0.054925 0.042758 0.0227 0.034702 0.074161 
0.13615 -0.097816 -0.20732 0.044567 0.037168 0.03947 0.058706 0.056733 
0.0069159 -0.58136 -0.22803 0.045553 0.036346 0.022371 0.041443 0.033551 
-0.054082 -0.32668 -0.072989 0.045882 0.038155 0.033551 0.037497 0.032236 
-0.043559 0.13138 0.058542 0.059035 0.041772 0.022042 0.055911 0.062652 
0.0051074 0.21885 0.14338 0.0786 0.046375 0.020727 0.049499 0.056404 
0.026974 -0.25187 0.10606 0.0421 0.027139 0.04095 0.038977 0.053774 
0.01974 -0.8551 0.04095 0.04654 0.024344 0.033551 0.0592 0.055418 
0.030263 -0.93386 -0.083512 -0.0019624 0.0065871 0.011684 0.024179 0.018918 
0.10491 -0.39935 -0.17114 0.012835 -0.001798 0.041114 0.024673 -0.020377 
0.10918 0.007738 -0.14089 0.022042 -0.011334 0.029276 0.03536 0.012835 
-0.049807 0.23068 -0.061645 0.047033 0.019905 0.018096 0.03388 -0.027611 
-0.20008 0.0024767 -0.081374 0.020069 0.038319 0.061501 0.0093821 -0.03616 
-0.24628 -0.66126 -0.14517 -0.0040998 0.015794 0.010533 0.010204 -0.037805 
-0.25138 -0.57149 -0.022185 -0.023007 -0.016266 -0.010841 0.011684 -0.044217 
-0.32553 0.36863 0.14716 -0.0031133 -0.014622 0.0011614 0.012506 -0.023994 
-0.17476 1.058 0.23792 0.032564 0.012177 -0.010348 0.014315 0.025001 
0.15292 0.94325 0.048513 0.035524 0.0024767 -0.0034422 0.018754 0.048513 
0.35136 0.48257 -0.15487 0.044073 -0.027118 0.021056 0.026974 0.088958 
0.27869 0.028125 -0.16687 0.0082312 -0.0072237 0.012177 0.035688 0.0592 
0.072024 -0.22935 0.041772 0.070708 0.046046 0.062817 0.094055 0.028947 
-0.018239 -0.25697 0.24762 0.053609 0.045882 0.045553 0.061501 0.037661 
0.17166 -0.10094 0.34709 0.075312 0.056733 0.0227 0.036839 0.063968 
0.32358 0.048019 0.24778 0.045224 0.068571 0.056569 0.054103 0.1128 
0.24055 0.092082 0.034866 0.055747 0.068078 0.035853 0.035031 0.12858 
0.036017 -0.062302 -0.09387 0.038648 0.054432 0.037168 0.0067515 0.13006 
-0.16523 -0.44062 -0.14698 0.017767 0.050157 0.041114 0.021056 0.098494 
-0.30432 -0.76418 -0.17591 0.0031344 0.023522 0.012506 0.022371 0.069558 
-0.3224 -0.86859 -0.17739 0.028454 0.0037921 -0.0004827 -0.015116 0.025495 
-0.1838 -0.364 -0.21619 0.0098754 -0.0059084 0.0037921 -0.010512 0.053445 
0.11083 0.52055 -0.042408 -0.037476 0.007738 -0.0087034 -0.025638 0.057062 
0.27392 0.89459 0.33081 0.0013258 0.00050378 0.019083 0.0054362 0.068078 
0.2833 0.46974 0.53222 -0.0016336 0.010204 0.032071 0.052294 0.038977 
0.15456 -0.12445 0.41828 0.040456 0.013657 0.024508 0.03799 -0.031721 
0.069558 -0.20123 0.23414 0.019905 0.020398 -0.0013048 0.018096 -0.06855 
0.035688 0.019247 0.08715 0.036839 0.022371 -0.018404 0.026646 -0.044546 
-0.011005 0.22526 0.0421 0.0092177 0.016945 -0.011992 0.037661 -0.011992 
-0.01676 0.34544 -0.072825 0.03536 0.031085 0.038319 0.071531 0.08567 
0.088794 0.42897 -0.19038 0.017603 0.054267 0.048841 0.0786 0.12513 
0.15292 0.39378 -0.18232 0.029605 0.061666 0.034866 0.024015 0.095042 
0.04654 0.2126 0.019411 0.027796 0.045718 0.045882 -0.016431 0.064132 
-0.010348 0.14026 0.077121 0.037661 0.046704 0.026317 -0.0042642 0.089945 
0.047691 0.19599 0.03536 0.058377 0.025824 0.016781 0.0083956 0.097672 
0.015137 0.17906 -0.014951 0.057884 0.045882 0.033551 0.025495 0.13647 
-0.041586 0.20816 0.025166 0.056569 0.059364 0.016781 0.051801 0.093233 
-0.068714 0.25567 0.11872 0.04095 0.042594 0.00017495 0.046046 0.010533 
-0.092226 0.094055 0.049006 0.053938 0.023851 0.011848 0.046046 -0.056877 
-0.11738 -0.063782 -0.06707 0.036017 0.01826 0.0013258 0.05065 -0.09091 
0.0036276 -0.20534 0.064461 0.05065 0.034537 0.012506 0.061172 -0.088773 
0.27869 -0.26996 0.21358 0.016288 0.024179 0.043416 0.043087 -0.026953 
0.47846 -0.13218 0.17758 0.037004 0.030756 0.052952 0.034044 0.061172 
0.44607 0.074983 0.03799 -0.012485 0.020398 0.0324 0.017932 0.11378 
0.16541 0.14897 -0.01528 0.0064227 0.026152 0.01974 -0.021528 0.20997 
-0.22228 0.13023 -0.023665 0.017603 0.040128 0.0080668 -0.026624 0.19764 
-0.33539 0.19254 -0.0042642 0.02533 0.054596 0.033387 0.013821 0.070873 
-0.21143 0.31963 0.0037921 0.041772 0.027961 0.021713 0.013821 -0.058028 
0.033387 0.37816 0.0056006 0.031249 0.01974 0.019083 -0.0087034 -0.12988 
0.18859 0.22789 -0.015444 0.030098 0.00050378 0.013821 0.015794 -0.109 
0.26948 0.019576 -0.036818 0.021549 0.027961 0.00099702 0.01563 -0.077593 
0.11494 -0.15552 -0.079072 0.05476 0.035031 0.012177 0.034044 0.017274 
-0.028926 -0.15421 -0.077922 0.058377 0.04917 0.06479 0.086657 0.1202 
-0.0078813 -0.13727 -0.093376 0.093726 0.047362 0.050321 0.059035 0.062652 
0.050321 -0.097816 -0.068057 0.065118 0.061172 0.036182 0.048677 0.049992 
0.085835 0.16163 0.0072447 0.085999 0.047691 0.023686 0.067256 0.0056006 
0.10556 0.37553 0.097837 0.03799 0.036182 0.029276 0.041772 -0.042737 
0.16508 0.37882 0.16673 0.02681 0.041607 0.045553 0.039305 -0.027118 
0.21062 0.30368 0.23068 0.031085 0.0421 0.033387 0.054596 -0.0021268 
0.0036276 0.16146 0.27836 0.042594 0.045718 0.035688 -0.0078813 -0.016595 
-0.23625 -0.1478 0.34347 0.024508 0.013164 0.028454 0.012342 0.020891 
-0.30004 -0.18989 0.34906 0.012999 0.022206 0.013986 0.04095 0.053938 
-0.28919 -0.34953 0.12118 0.018096 0.013657 0.01826 0.015137 0.056404 
-0.18117 -0.38554 -0.12083 -0.027118 -0.0019624 0.039305 0.009711 0.052623 
0.0095465 -0.15717 -0.2762 0.0018191 -0.00015387 0.010204 0.02533 0.016452 
0.11444 -0.15684 -0.27111 -0.023665 -0.010512 0.0016547 0.0016547 -0.026131 
0.08978 -0.35677 -0.25121 0.0324 -0.0011404 0.0075736 -0.010676 -0.054904 
0.054267 -0.14648 -0.12873 0.052952 0.0083956 0.0087245 0.017767 -0.051451 
0.10343 0.32276 0.0051074 0.0689 0.034537 0.022042 0.027303 -0.0096899 
0.15555 0.45741 0.036839 0.051143 0.05476 0.047362 0.038648 0.010862 
0.14502 0.13762 -0.0068948 0.025824 0.044567 0.033715 0.044731 -0.023336 
0.10293 -0.16144 -0.027611 0.018425 0.051143 0.021056 0.026317 0.0026412 
0.098823 -0.22096 0.00066819 0.035688 0.038812 0.028783 0.028619 0.010533 
0.094877 -0.065591 -0.0059084 0.052787 0.051143 0.024179 0.045718 0.010204 
0.019247 0.007738 0.096028 0.010369 0.03388 0.037168 0.04358 0.037661 
0.10129 0.068078 0.2685 0.038155 0.025659 0.051308 0.033222 0.054432 
0.18826 0.24384 0.05213 0.059857 -0.00031829 0.018918 0.031742 0.057391 
0.015137 0.40546 -0.2157 0.069722 0.033387 0.037168 0.034044 0.13861 
-0.24497 0.38014 -0.26798 0.035853 0.020233 0.026317 0.017603 0.15242 
-0.22162 0.29316 -0.071838 0.072188 0.034866 0.029934 0.017438 0.16689 
-0.049807 0.23167 0.043087 0.019576 0.024837 0.034373 0.025824 0.17478 
0.062652 0.20898 0.083697 0.024344 0.010369 0.017767 0.011684 0.11707 
0.06035 0.13417 0.36797 0.010533 0.0088889 0.018096 0.027796 0.049006 
0.040456 -0.25072 0.63596 0.036839 0.020891 0.018425 0.035031 0.0093821 
0.045553 -0.85494 0.37274 0.036346 0.023851 0.013328 0.034702 -0.059343 
0.039141 -0.89407 -0.056219 0.033222 0.036017 0.010533 0.015959 -0.062467 
-0.077428 -0.5858 -0.1741 0.020562 0.046211 0.014972 0.0324 -0.15536 
-0.12001 -0.43519 -0.081374 -0.0057439 0.0054362 0.0052718 0.0031344 -0.23527 
-0.11426 -0.23658 -0.0027845 -0.011498 -0.0075525 0.027303 0.015137 -0.255 
-0.11376 -0.059178 0.0024767 -0.026624 -0.0047575 0.012835 0.012342 -0.26141 
-0.16243 0.18761 -0.091404 -0.0026201 -0.0027845 0.0018191 -0.001798 -0.13004 
-0.046354 0.50756 -0.16046 -0.013143 0.0060938 0.019576 0.011191 0.068571 
0.10688 0.48487 -0.19071 0.03799 0.030756 0.012013 0.058871 0.19024 
-0.080552 0.32539 -0.15109 0.014808 0.046211 -0.0032777 0.012506 0.25748 
-0.15832 0.183 -0.13892 0.043909 0.03947 0.036182 0.01563 0.2417 
-0.029748 -0.085978 -0.15141 0.029769 -0.011498 0.039141 0.079258 0.14174 
0.06742 -0.21965 -0.060823 0.007738 0.013986 0.02829 0.028619 0.099645 
-0.2014 0.12299 0.041607 0.025495 0.021384 -0.0027845 0.03947 0.049499 
-0.54519 0.35021 0.13631 0.019411 0.019247 0.00083261 0.024179 -0.023007 
-0.084005 0.37257 0.24795 0.022206 0.019083 -0.0055795 -0.003771 0.026646 
1.1254 0.45938 0.45396 0.031249 0.049664 0.032729 0.043745 0.1276 
1.6297 0.46284 0.40841 0.087479 0.079094 0.06331 0.094548 0.20273 
0.96397 0.38425 0.1516 0.053609 0.059364 0.040456 0.061666 0.10326 
-0.041751 0.25304 0.0023123 0.06331 0.052623 0.037332 0.039305 -0.027775 
-0.59698 0.15127 0.0041209 0.03651 0.025824 0.009711 0.037497 -0.06296 
-0.50786 0.19369 0.0080668 0.061008 0.025001 0.014315 0.03536 -0.028433 
-0.28607 0.22904 -0.034352 0.029934 0.016781 0.010533 0.01563 -0.046025 
-0.11656 0.17265 -0.041586 0.059364 0.014808 0.014808 0.033551 -0.012814 
-0.0082102 -0.18084 0.045718 0.047855 0.026317 0.036017 0.038812 0.00297 
-0.040764 -1.104 -0.017253 0.045224 0.016781 0.018096 0.024508 -0.015773 
0.034209 -1.2694 -0.17476 0.009711 0.024837 0.015137 0.035031 0.018589 
0.19517 -0.46528 -0.22721 -0.0027845 0.037168 0.03388 0.032564 0.04095 
0.01711 0.0060938 -0.080388 -0.00081153 0.051472 0.018754 0.028783 0.019905 
-0.12412 0.16245 0.10178 -0.014293 0.03947 0.012506 -0.00064712 -0.023994 
-0.058685 0.37537 0.15045 -0.001798 0.017274 0.020233 0.02533 -0.039778 
0.095535 0.49013 0.11115 0.0075736 0.026974 0.018589 0.010697 0.024508 
0.061501 0.45297 0.21441 0.025659 0.033058 0.014479 0.044073 0.052952 
-0.26371 0.4122 0.25074 0.012013 0.012999 0.028783 0.025988 0.00297 
-0.40658 0.22378 0.023028 0.037497 0.00050378 0.018425 0.00297 0.0037921 
-0.11146 0.22427 -0.22918 -0.042573 -0.022021 -0.0049219 -0.0016336 0.034209 
0.23085 0.28971 -0.19761 -0.0047575 -0.033694 0.00066819 0.024837 0.046046 
0.35005 0.22098 -0.05178 0.013492 0.00050378 -0.011498 0.012013 0.056898 
0.36452 0.12201 0.021056 0.067256 0.016945 0.037332 0.038812 0.060186 
0.32588 0.04654 0.1003 0.072188 0.044896 0.037332 0.050486 0.03388 
0.1807 0.017438 0.2976 0.065283 0.073504 0.055089 0.035688 0.073832 
0.082711 0.064461 0.35005 0.10343 0.092247 0.063968 0.058706 0.066105 
0.08863 0.16804 0.29941 0.054267 0.082875 0.043251 0.075641 0.058706 
0.11198 0.25271 0.17692 0.055254 0.052459 0.041114 0.04654 0.068571 
0.10704 0.36813 0.074983 0.028125 0.046375 0.04917 0.04095 0.030592 
0.067256 0.34709 0.10655 0.052459 0.040456 0.028619 0.05065 0.016781 
0.00066819 0.20158 0.031085 0.026974 0.035524 0.018096 0.017932 0.028454 
-0.079072 0.097837 -0.13596 0.048348 0.024508 0.031742 -0.01117 0.024015 
-0.26979 -0.039942 -0.10012 -0.001798 0.013986 0.027303 0.026152 0.051965 
-0.31681 -0.12577 -0.10193 0.020562 0.020891 0.022371 0.017603 0.084355 
-0.16621 -0.24809 -0.32454 -0.011005 0.012835 0.037826 0.011684 0.076299 
-0.032708 -0.51378 -0.52694 -0.028762 0.0047785 0.01415 0.047526 0.066763 
0.046375 -0.62279 -0.46396 -0.027447 -0.012814 0.00017495 0.012835 0.03799 
0.14996 -0.24513 -0.15339 -0.014293 0.02681 0.0042853 -0.01939 0.038155 
0.19418 0.22772 0.17511 0.065447 0.061172 0.031085 0.040292 0.088794 
0.17544 0.4852 0.34692 0.10293 0.07597 0.054267 0.053445 0.078929 
0.071531 0.52992 0.43012 0.10063 0.077449 0.032729 0.04506 0.084519 
0.023522 0.43817 0.47418 0.052294 0.05213 0.0023123 0.040621 0.083204 
-0.011334 0.21293 0.4413 0.05624 0.022535 0.036017 0.033551 0.077121 
-0.00064712 -0.023665 0.26537 0.054267 0.030098 0.029441 0.042923 0.092904 
0.025659 -0.21586 0.18383 0.10836 0.021056 0.027961 0.03947 0.079094 
0.13582 -0.16835 0.13861 0.082217 0.023357 0.045553 0.034209 0.046046 
0.26948 -0.014787 0.14913 0.015137 0.0047785 0.0075736 0.018096 0.0085601 
0.19254 0.11773 0.23381 -0.022679 -0.0040998 0.0098754 0.018754 -0.026953 
-0.10538 0.071859 0.10754 -0.01676 -0.021034 0.010533 0.024837 -0.047012 
-0.26996 -0.13629 -0.11574 -0.014951 -0.018568 -0.0032777 -0.020541 -0.049149 
-0.31912 -0.050464 -0.30448 -0.024158 -0.017911 0.0031344 -0.027775 -0.087951 
-0.29972 0.062488 -0.39179 0.017438 0.031578 0.02122 0.0034632 -0.081539 
-0.1473 -0.11755 -0.43158 0.027632 0.038483 0.020891 0.019576 -0.084334 
0.021549 -0.18709 -0.36795 0.055747 0.058706 0.035524 0.027961 -0.047669 
0.11937 0.033222 -0.16769 -0.0052507 0.035688 0.024344 0.046211 0.06479 
0.18678 0.03536 0.0054362 0.014808 0.0067515 0.0069159 0.01974 0.1179 
0.23742 -0.056383 0.10408 0.00050378 0.021878 0.010533 0.030263 0.11872 
0.22986 0.018589 0.19517 0.037168 0.013164 0.019247 0.047855 0.13302 
0.23134 0.24877 0.32654 0.04506 0.016616 0.019576 0.042923 0.12201 
0.16377 0.37175 0.30237 0.049664 0.033551 0.029441 0.027961 0.062652 
0.12003 0.13269 0.053116 0.046704 0.040621 0.010204 0.036017 0.041936 
0.10145 -0.25352 -0.20288 0.045882 0.025495 0.01974 0.012835 0.033387 
0.038155 -0.31073 -0.27209 0.051965 0.031907 0.059528 0.029605 0.013328 
-0.027611 -0.17871 -0.12757 0.041114 0.027796 0.022864 0.041114 0.016123 
-0.073154 -0.15536 0.15505 0.04506 0.0227 0.010533 0.035524 0.0044497 
-0.067564 -0.17525 0.23858 0.011848 0.027139 0.020398 0.024344 -0.0075525 
-0.026131 -0.12642 0.042758 0.044731 0.018754 0.0083956 0.048348 0.0059294 
0.029934 -0.17493 -0.21406 -0.0011404 0.021384 0.0092177 0.014972 -0.0044286 
0.032564 -0.27653 -0.22178 0.018589 0.0036276 0.011191 -0.0014692 0.0013258 
-0.0016336 -0.21833 0.1978 0.022206 0.016452 0.020891 0.036346 0.044567 
-0.0067304 -0.014129 0.49818 0.066927 0.022535 0.03092 0.020233 0.0085601 
0.019083 0.079751 0.38425 0.013164 0.012342 0.019576 -0.00015387 -0.063289 
0.023357 0.061501 0.062323 -0.0067304 0.010697 0.0046141 0.034044 -0.089102 
0.060679 0.19435 -0.13004 0.010369 -0.0098543 0.044731 0.024508 -0.10143 
0.1345 0.44048 -0.059507 0.023357 0.023522 0.03799 0.039634 -0.017911 
0.073175 0.47171 -0.053424 0.024837 0.039634 0.086328 0.047362 0.019083 
-0.064111 0.27195 -0.13793 0.027961 0.038155 0.040456 0.029605 -0.039778 
-0.16375 -0.0042642 -0.30284 0.030592 0.004943 0.0044497 0.013328 -0.069208 
0.071202 -0.12544 -0.24743 -0.019226 0.013492 0.0065871 0.035688 -0.046025 
0.27803 -0.056055 -0.014622 0.055254 0.02829 0.027303 0.044896 0.095535 
0.24515 0.16952 0.10984 0.048348 0.046211 0.02122 0.04095 0.21408 
0.0070803 0.19254 0.12201 0.10195 0.069722 0.028125 0.055911 0.19616 
-0.10373 -0.035174 0.17528 0.054267 0.036346 0.040456 0.049664 0.11773 
-0.10324 -0.18528 0.18925 0.056569 0.034702 0.031907 0.04358 0.077121 
-0.091897 -0.34115 0.15226 0.021713 0.039963 0.043909 0.036017 -0.0044286 
-0.10291 -0.42714 0.11773 -0.0062372 -0.0082102 0.0016547 0.027632 -0.046683 
-0.035174 -0.26272 0.034866 -0.026131 -0.010512 0.004943 0.011848 -0.052602 
0.11625 -0.015116 -0.041751 -0.0059084 0.0044497 0.035195 0.0037921 -0.034352 
0.27754 0.23381 -0.16194 0.02681 0.013164 0.014479 0.016288 -0.019061 
0.23545 0.40595 -0.18035 0.04654 0.048348 0.015959 0.0074092 -0.042244 
0.090109 0.53682 -0.082196 0.085506 0.077121 0.050157 -0.0062372 -0.077593 
0.0059294 0.67115 0.024015 0.058377 0.068736 0.05213 0.042923 0.017932 
-0.034681 0.56576 0.072024 0.06594 0.055418 0.034373 0.058542 0.099974 
-0.039449 0.43357 0.089287 0.029276 0.041278 0.049006 0.035031 0.14798 
0.014479 0.35942 0.11066 0.03651 0.03388 0.023686 0.04506 0.14157 
0.089452 0.37668 0.171 0.0070803 0.018754 0.020233 0.046046 0.098001 
0.13664 0.50756 0.24301 0.0095465 0.027796 0.028619 0.082546 0.048184 
0.16311 0.54044 0.26883 0.016452 0.026481 0.028125 0.08863 0.028619 
0.17396 0.32012 0.1853 0.029605 0.042429 0.029112 0.051801 0.014808 
0.078929 -0.082196 -0.015938 0.047526 0.040456 0.024344 -0.0021268 0.020727 
-0.1062 -0.82255 -0.18528 0.045882 0.027303 0.010369 -0.0075525 0.017767 
-0.25467 -1.6106 -0.23559 0.049006 0.013164 0.01152 -0.022679 -0.0054151 
-0.28344 -1.1755 -0.15717 0.041772 0.013164 -0.0004827 -0.022843 0.013164 
-0.20041 -0.3275 -0.06707 0.027468 0.010204 -0.013965 0.021713 -0.010512 
-0.1233 -0.0052507 0.069886 -0.037805 0.013821 -0.0034422 0.027632 -0.0077169 
-0.1455 0.19287 0.21474 0.019083 0.032564 -0.010841 0.041772 0.0052718 
-0.066084 0.48668 0.29365 0.020069 0.038483 -0.004593 0.062159 0.018096 
0.12644 0.6233 0.27031 0.066763 0.032071 0.0324 0.064954 0.055418 
0.2514 0.7624 0.2463 0.061008 0.022535 0.036182 0.059364 0.08978 
0.18498 0.85168 0.13253 0.034702 0.014315 0.041772 0.054432 0.064132 
0.054925 0.76404 -0.02942 0.023193 0.026646 0.035195 0.0074092 0.054267 
-0.025309 0.41828 -0.016102 0.023851 0.0028056 0.022371 -0.016431 0.070873 
-0.10357 -0.0059084 0.069886 0.031907 0.02533 0.034209 -0.0047575 0.025659 
-0.0073881 -0.22195 0.018754 0.013328 0.016945 0.010204 -0.024323 -0.017417 
0.27294 -0.054246 -0.033859 0.044402 0.03651 0.01152 -0.025802 0.060515 
0.37964 0.16755 -0.024652 0.036182 0.032729 0.027139 0.049006 0.17248 
0.28609 0.068736 -0.0083746 0.034702 0.04917 0.023193 0.016945 0.20076 
0.070051 -0.28064 -0.047669 0.016616 0.0421 0.0082312 0.026481 0.12464 
-0.19383 -0.68198 -0.10357 0.044896 0.034373 0.018754 0.026481 0.00033937 
-0.29297 -0.81581 -0.11722 0.0042853 0.049664 -0.023829 0.025988 -0.070687 
-0.28311 -0.81104 -0.13711 0.0324 0.024837 -0.0073881 0.019905 -0.076277 
-0.19597 -0.5516 -0.08269 0.027303 0.016452 0.032564 0.04095 -0.045532 
-0.066084 -0.018404 0.017438 0.028783 -0.0013048 0.019083 0.034866 -0.016102 
0.065612 0.47319 0.072681 0.0051074 0.0062583 0.0227 0.011684 -0.00081153 
0.18662 0.64073 -0.0057439 -0.0055795 0.00297 0.016288 0.022042 0.039799 
0.23973 0.57118 -0.0026201 0.0018191 0.031414 0.018096 0.043909 0.077285 
0.13762 0.44179 0.25074 0.026974 0.053445 0.028783 0.020233 0.053281 
-0.0138 0.33278 0.60538 0.050321 0.055254 0.028125 0.015137 0.0098754 
-0.20485 0.19007 0.51463 0.046211 0.051143 0.009711 0.030427 -0.025309 
-0.19614 -0.027775 0.13105 0.028619 0.037168 0.026974 0.0039565 0.054925 
0.058377 -0.093376 -0.19268 -0.018239 0.025166 0.011355 -0.013636 0.099316 
0.23052 -0.011334 -0.24069 0.023028 0.016288 -0.00031829 0.018096 0.068078 
0.23775 0.066763 -0.1598 0.0079024 0.020891 0.026481 -0.012978 0.00050378 
0.16097 0.11411 -0.096994 0.067913 0.0324 0.018589 -0.0047575 -0.013307 
0.09422 0.060844 -0.096994 0.06331 0.055418 0.021056 0.041114 -0.019061 
-0.0080457 -0.25204 -0.028433 0.045389 0.039634 0.049006 0.033551 -0.056219 
-0.11327 -0.29955 0.065776 0.02533 0.018754 0.030098 0.024673 -0.13432 
-0.27686 0.083862 0.1909 0.0044497 0.0034632 0.020891 0.033715 -0.20732 
-0.36844 0.35662 0.19764 0.0059294 0.00083261 0.023028 0.020233 -0.062302 
-0.063782 0.63416 -0.0098543 -0.0039354 0.011684 0.014643 0.018754 0.099481 
0.45412 0.48931 -0.19005 0.028454 0.032236 0.015794 0.052623 0.20421 
0.57677 -0.67935 -0.2185 0.01711 0.024673 0.031414 0.033551 0.17676 
0.33936 -1.8759 0.051472 0.045224 0.012999 0.023686 0.0074092 0.076299 
0.044567 -1.4664 0.21901 0.029112 0.026152 0.017767 0.021384 0.034209 
-0.090581 -0.27703 0.15949 0.033058 0.029276 0.022042 0.015959 0.030592 
-0.098967 0.68118 0.079751 -0.0068948 0.033222 0.0019835 0.0028056 0.037826 
-0.054082 1.0151 -0.030735 0.024015 0.035688 0.029934 0.037497 0.050321 
-0.03353 0.80991 -0.13497 0.0067515 0.037826 0.0324 0.035688 0.0065871 
0.095535 0.43258 -0.19877 0.025495 0.044731 0.030263 0.041607 -0.0406 
0.24088 0.11477 -0.1575 0.039634 0.052787 0.043087 0.041114 -0.03501 
0.25781 0.019411 -0.034352 0.055582 0.052952 0.03947 0.046375 0.0047785 
0.15226 0.050979 0.20372 0.078765 0.011191 0.041278 0.038977 0.0014903 
0.028125 0.081067 0.34923 0.060679 0.031085 0.057062 0.057062 0.029112 
-0.02087 0.15144 0.19599 0.052787 0.034866 0.051308 0.13795 0.037661 
-0.1376 0.33081 0.030098 0.0031344 0.0065871 0.013821 0.024837 0.049992 
-0.33572 0.31947 -0.00031829 0.0079024 0.011684 0.054596 0.040456 0.014643 
-0.15355 0.12595 -0.029091 -0.0050863 0.020727 0.01267 0.021713 0.050157 
0.1373 -0.14451 -0.044052 0.016123 0.031249 0.021056 0.01563 0.081231 
0.23085 -0.26042 0.01826 -0.018239 0.013657 0.017274 -0.0014692 0.029605 
0.024673 -0.19893 -0.030242 0.0014903 0.022206 -0.0052507 0.024015 -0.019884 
-0.093541 -0.090581 -0.16769 0.030427 0.026974 0.018425 0.011684 -0.028762 
-0.040435 -0.045368 -0.22688 0.031085 0.042265 0.025001 0.019576 0.016781 
0.052623 -0.0004827 -0.20057 0.034702 0.029441 0.020562 0.054267 0.03651 
0.12316 -0.042079 -0.084334 -0.0004827 0.024179 0.062652 0.050814 0.075312 
0.19139 -0.23888 0.054925 0.02122 0.03092 0.040292 0.039799 0.083533 
0.34002 -0.34509 0.12464 0.025495 0.029769 0.018754 0.058542 0.05476 
0.35761 -0.1667 0.17412 0.049006 0.02829 0.025824 0.03092 0.037826 
0.078272 0.23479 0.17067 0.038483 0.026317 0.018589 0.032893 0.04654 
-0.11015 0.53978 0.10787 0.057391 0.030592 0.035195 0.049664 0.050814 
-0.11491 0.5406 0.14634 0.043909 0.035031 0.029605 0.039634 0.066434 
-0.082854 0.39723 0.15259 0.077614 0.028783 0.018754 0.024837 0.06035 
-0.075949 0.35794 0.10293 0.023522 0.024015 0.025166 0.041936 0.035688 
-0.14648 0.12299 0.089123 0.031414 0.015959 0.027632 0.015465 0.033387 
-0.18791 -0.071181 0.14223 0.013328 0.025824 0.027796 0.0098754 0.0324 
-0.14319 -0.021034 0.15028 0.029769 0.029112 0.037004 0.046046 0.047691 
-0.023829 0.094548 0.026481 0.056898 0.035195 0.039799 0.027796 0.078765 
0.18876 0.058049 -0.11935 0.068736 0.039305 0.044731 0.020233 0.067913 
0.24745 0.031249 -0.15651 0.043909 0.039634 0.031085 0.038977 0.069229 
0.14091 0.043251 0.004943 0.019247 0.039634 0.038155 0.023193 0.072353 
-0.00097594 -0.0965 0.16919 0.060844 0.031907 0.023028 0.016123 0.053445 
0.077449 -0.077593 0.17462 0.060022 0.03092 0.041278 0.02681 0.055747 
0.11674 0.46168 0.08863 0.082711 0.03092 0.029605 0.036839 0.033551 
0.028783 0.84066 0.012342 0.023193 0.035031 0.02533 0.020398 0.0056006 
-0.063289 0.67822 0.010369 0.016123 0.010204 0.022042 0.012342 0.019576 
-0.03764 0.26998 0.14815 0.013821 -0.0004827 0.0046141 0.0037921 0.032236 
0.025495 -0.21767 0.26784 0.027468 -0.00015387 -0.0024557 0.00066819 0.080244 
0.12036 -0.55949 0.24515 -0.014787 0.014808 0.015465 0.023357 0.072681 
0.11954 -0.6435 0.095864 -0.02498 0.031414 -0.0039354 0.038812 0.017438 
0.07038 -0.54075 -0.021034 0.010204 0.035031 0.017274 0.028619 0.00050378 
0.010533 -0.24003 -0.096336 0.038483 0.025495 0.025166 0.035524 -0.0031133 
-0.10768 0.24334 -0.13629 0.024015 0.025495 0.022206 0.032564 -0.036489 
-0.14796 0.40694 -0.18561 0.0028056 0.014643 0.011026 0.0014903 -0.02794 
-0.12478 0.020891 -0.19696 0.016616 0.0016547 0.014315 0.010204 -0.025145 
-0.18232 -0.29051 -0.15125 0.041114 0.011848 0.0080668 0.038812 -0.041586 
-0.15191 -0.23707 -0.0044286 0.093726 0.026646 0.036675 0.023686 -0.049478 
0.033222 -0.13267 0.1664 0.025659 0.040785 0.04506 -0.00097594 -0.028269 
0.1932 -0.1016 0.26948 0.038977 0.02829 0.0082312 0.038319 -0.061645 
0.15982 0.087643 0.18859 -0.0052507 0.03388 0.055911 0.023522 -0.0096899 
0.2389 0.40085 0.14667 0.061172 0.029441 0.01974 0.017932 0.042758 
0.26373 0.55376 0.1174 0.034209 0.040292 0.01267 0.040621 0.082053 
0.097344 0.40907 0.12365 0.010369 0.028125 0.031085 0.015465 0.10721 
-0.11146 -0.047834 0.058377 -0.011498 0.0046141 0.0042853 0.010204 0.086163 
-0.27012 -0.47942 -0.069043 -0.032543 0.0021479 0.013328 0.034866 0.062159 
-0.19087 -0.40149 -0.10735 -0.0014692 0.0085601 0.021713 0.026317 0.041114 
-0.05178 -0.093048 0.041114 0.0047785 0.014315 0.014479 0.027139 0.0052718 
0.03092 0.03651 0.097672 0.049499 0.022042 0.018754 0.049992 -0.0052507 
0.086328 -0.099131 -0.08121 0.049335 0.036017 0.032893 0.038319 -0.01528 
0.10376 -0.21389 -0.34361 0.089616 0.025495 0.011848 0.025988 -0.00064712 
0.14749 -0.14254 -0.4319 0.033222 0.0069159 0.019576 0.052294 0.013328 
0.16377 -0.043724 -0.20748 0.060844 0.033551 0.031085 0.031742 0.0037921 
0.11477 0.055747 0.0023123 0.044402 0.038319 0.030263 0.026481 0.0037921 
0.055747 0.085506 -0.0064016 0.041607 0.042429 0.03947 0.041443 0.036675 
0.041114 0.18399 0.17889 -0.014458 0.030098 0.025001 0.032564 0.05624 
0.0083956 0.35153 0.41516 -0.0080457 0.01974 0.00297 0.020069 0.074983 
0.023357 0.43439 0.34742 -0.0019624 0.018425 0.031414 0.037004 0.094055 
0.046046 0.35416 0.22312 -0.0057439 0.01267 0.010697 0.033387 0.10639 
-0.049314 -0.13727 0.061337 -0.0026201 -0.017746 0.030756 0.026481 0.10441 
-0.20732 -0.65288 -0.17936 -0.011827 -0.00031829 0.036675 0.038812 0.066434 
-0.23165 -0.46824 -0.28295 0.026646 0.025166 0.018096 0.046704 0.01152 
-0.067728 0.073997 -0.28903 0.042923 0.032071 0.018918 0.03947 -0.0057439 
0.27869 0.38293 -0.22688 0.094877 0.048841 0.034373 0.040128 -0.0040998 
0.36123 0.11494 -0.1039 0.037661 0.036182 0.012342 0.035853 0.00017495 
0.29497 -0.13875 0.1026 0.073668 0.031907 0.01711 0.0031344 -0.0087034 
0.21983 0.049664 0.25567 0.038977 0.04506 0.033222 0.03092 -0.035667 
0.08304 0.32473 0.28856 0.079422 0.062323 0.03092 0.046704 -0.031886 
-0.10817 0.44771 0.23035 0.06594 0.056404 0.035524 0.02122 0.041443 
-0.22507 0.4505 0.093891 0.034537 0.048677 0.023357 0.033387 0.080902 
-0.21932 0.29152 -0.018404 0.021713 0.032071 -0.008539 0.034702 0.091425 
-0.11787 0.25683 0.041278 0.017603 0.043087 0.03799 0.025166 0.070544 
-0.0406 0.33805 0.12398 0.018754 0.031742 0.026646 0.030098 -0.0040998 
0.0087245 0.098823 0.18678 -0.00097594 0.014643 0.019083 0.019411 -0.0021268 
0.16031 -0.24217 0.1174 0.013492 0.009711 0.024015 0.0023123 0.00099702 
0.3147 -0.076442 -0.052602 -0.013965 0.0051074 0.022535 0.013328 -0.0026201 
0.34594 0.45018 -0.11968 0.024179 0.024344 0.04095 0.042594 0.013821 
0.2565 0.67838 -0.11064 0.018589 0.013986 0.036839 0.043251 0.020727 
0.17182 0.41055 -0.067399 0.079422 0.041772 0.017438 0.061501 0.027796 
0.10524 0.18711 0.12661 0.055254 0.049828 0.036017 0.08008 0.14798 
0.0059294 0.070051 0.23003 0.041936 0.078107 0.061337 0.062817 0.14486 
-0.18841 -0.07825 0.11576 0.051308 0.058542 0.03799 0.015137 0.07301 
-0.29413 -0.34427 -0.025967 0.011684 0.045718 0.02122 0.02533 0.059857 
-0.19252 -0.14023 -0.10143 -0.0032777 0.010204 0.0087245 0.0074092 0.02122 
-0.027282 0.22789 -0.14813 -0.013965 0.012013 0.00017495 -0.0036066 0.052623 
0.023851 -0.03616 -0.12593 0.0095465 0.016781 -0.0050863 0.021384 0.048019 
-0.054739 -0.73311 -0.085978 0.019576 0.022535 0.013164 -0.0013048 -0.0091966 
-0.079895 -0.66356 0.00297 0.029605 0.018425 0.0037921 -0.019884 -0.028926 
-0.00064712 -0.016595 0.080244 0.00297 0.005765 0.025495 0.028454 -0.018404 
0.058871 0.40546 0.26373 0.017767 0.017932 0.025001 0.0039565 -0.027611 
0.079751 0.42091 0.45314 0.033715 0.0088889 0.027796 -0.012156 -0.046683 
0.089123 0.33196 0.24597 0.060022 0.029605 0.047691 0.0085601 -0.062138 
0.18646 0.21194 -0.10571 0.032236 0.029769 0.016452 0.036346 -0.041257 
0.22279 -0.02942 -0.17377 0.022535 0.043909 0.010369 0.04358 0.0059294 
0.14305 -0.24875 0.18991 0.051143 0.066434 0.047362 0.064954 0.046211 
0.044731 -0.3377 0.38967 0.048184 0.062488 0.032564 0.029605 0.057884 
-0.060658 -0.34148 0.25929 0.030098 0.048348 0.0227 -0.028762 0.04095 
-0.045203 -0.16391 0.018918 -0.0021268 0.025659 0.013657 -0.035174 -0.0070593 
0.12957 0.16492 -0.080223 0.007738 0.013986 0.011191 -0.012649 -0.004593 
0.069886 0.42617 -0.13563 0.024179 0.026152 0.021713 0.0067515 -0.0083746 
-0.1404 0.43143 -0.21521 0.04358 0.024508 0.028125 0.053938 -0.02235 
-0.26552 0.079916 -0.20584 0.036346 0.024673 0.0014903 0.059035 0.012177 
-0.26568 -0.35019 -0.16342 0.046704 0.0023123 -0.00064712 0.058706 0.014808 
-0.19745 -0.44604 -0.13152 0.0060938 0.01004 0.0075736 0.077943 0.016781 
-0.11837 -0.49389 -0.077593 0.015959 0.0059294 0.0074092 0.0689 0.037661 
-0.0055795 -0.53877 0.14585 -0.00031829 0.0060938 0.03388 0.051143 0.044731 
0.1248 -0.22688 0.32078 0.0028056 0.005765 0.029605 -0.011498 0.098001 
0.21375 0.16706 0.24269 -0.0057439 0.016123 0.011355 -0.0047575 0.12579 
0.19501 0.21786 0.01267 -0.039449 0.0075736 0.018754 -0.048163 0.066598 
0.095864 0.16311 -0.20978 -0.013471 0.014808 -0.0083746 -0.042901 0.024015 
0.043087 0.21621 -0.28245 0.013328 0.0421 -0.0090322 -0.0073881 0.027139 
0.046046 0.26817 -0.15668 0.054925 0.045224 0.035195 0.004943 0.032729 
0.042429 0.16294 -0.017582 0.066105 0.069064 0.047197 0.037332 0.049006 
0.00033937 0.0039565 0.12299 0.097508 0.081395 0.044402 0.068407 0.065283 
-0.10653 -0.041751 0.29037 0.082053 0.060844 0.050157 0.046868 0.023028 
-0.16851 -0.13218 0.29119 0.085506 0.057555 0.030756 0.044731 0.0031344 
0.080244 -0.17805 0.2851 0.043416 0.072024 0.021713 0.054267 -0.040764 
0.43768 0.13138 0.59355 0.059857 0.031249 0.033222 0.030592 -0.054904 
0.56132 0.45642 0.76717 0.055582 0.0072447 0.027632 0.034044 -0.042244 
0.50361 0.65668 0.29645 0.018918 0.024837 0.01711 0.053445 -0.0068948 
0.04358 0.58845 -0.16934 0.009711 0.06035 0.02829 0.031414 0.052623 
-0.41612 0.47352 -0.33835 0.034044 0.055582 0.040292 0.038977 0.14321 
-0.40264 0.30911 -0.46347 0.038812 0.058377 0.050486 0.061501 0.12628 
-0.1427 -0.20353 -0.67096 0.01415 0.0227 0.020727 0.029112 0.10129 
0.073504 -0.56722 -0.60109 0.069064 0.015794 0.0074092 0.021878 0.11543 
0.15472 -0.42138 -0.091239 0.079751 0.028454 0.021549 0.043416 0.058049 
0.01711 -0.24661 0.42502 0.077449 0.027796 0.02681 0.021713 0.01974 
-0.38636 -0.33424 0.47698 0.029605 -0.0016336 0.01711 -0.0019624 -0.087622 
-0.51756 -0.3931 0.28593 -0.0067304 0.013821 0.029605 0.034209 -0.1524 
-0.13941 -0.4883 0.085835 -0.052766 0.013328 0.018096 0.021549 -0.17493 
0.36797 -0.5391 -0.021034 -0.04882 -0.018075 0.0032988 0.00050378 -0.14517 
0.70157 0.042429 0.01267 -0.015609 -0.012649 0.02533 -0.0080457 -0.072825 
0.69351 0.70913 0.014315 0.013657 0.019905 0.015959 0.0065871 0.044238 
0.32736 0.96644 -0.018075 0.050486 0.03799 0.039305 0.023686 0.1322 
0.056733 0.84477 -0.04882 0.058706 0.055254 0.050157 0.061666 0.15324 
-0.015773 0.5679 -0.04882 0.069393 0.067749 0.037332 0.070544 0.14239 
-0.29577 0.3775 -0.07414 0.047691 0.048513 0.04358 0.039963 0.0689 
-0.49027 0.32095 -0.034023 0.057391 0.035853 0.042594 0.023686 0.020069 
-0.18413 0.31223 0.058542 0.01711 0.025988 0.025988 0.054925 0.025166 
0.24449 0.42453 0.1641 0.058377 0.041936 0.051472 0.047033 0.026152 
0.39773 0.39214 0.15949 0.040621 0.0421 0.047197 0.053281 0.047197 
0.33558 0.18859 0.10688 0.059693 0.040785 0.034866 0.063639 0.050157 
0.044731 -0.094363 0.093562 0.030756 0.029934 0.044073 0.030592 0.026481 
-0.24743 -0.38554 0.043251 0.025659 0.0023123 0.018589 -0.011663 -0.016102 
-0.28212 -0.54354 -0.02235 -0.018568 -0.013143 -0.0021268 0.013328 -0.0082102 
0.012177 -0.35726 -0.027447 -0.013143 -0.014293 0.02533 0.0056006 0.095042 
0.18218 -0.083512 0.026646 0.033058 0.015794 -0.018897 0.025001 0.14782 
0.070873 -0.089924 -0.010676 0.019411 0.02122 0.0023123 0.024837 0.11658 
-0.06 -0.33917 -0.098473 0.0062583 0.031578 0.021878 0.023357 0.021878 
-0.01528 -0.48238 -0.12609 0.0014903 0.03092 0.0046141 0.01004 -0.051122 
0.17034 -0.31073 -0.089102 0.024015 0.034044 0.010369 0.030427 -0.073647 
0.2075 0.051472 -0.038133 0.024344 0.02533 0.020891 0.023193 -0.013143 
-0.0021268 0.30878 0.010369 0.051308 0.021878 0.013164 0.025001 -0.0022913 
-0.14878 0.36945 0.010862 0.020398 0.0070803 0.029934 0.047691 -0.0042642 
-0.041093 0.32423 0.072681 0.050486 0.040292 0.026974 0.01267 0.018096 
0.065776 0.20684 0.14848 0.032729 0.027796 0.004943 0.010862 0.0016547 
0.10211 0.22148 0.11346 0.0059294 0.034209 0.037168 0.046704 0.010369 
0.090274 0.2953 0.079258 0.035524 0.024508 0.014315 0.032564 0.072846 
0.043087 0.36731 0.051636 0.007738 0.026646 0.031414 0.072024 0.083697 
-0.019884 0.27672 -0.031064 0.01711 0.03092 0.041114 0.065776 0.097508 
-0.04882 0.13762 -0.052437 0.023193 0.029605 0.024837 0.036182 0.093069 
-0.04323 -0.011498 -0.062796 0.0044497 0.020069 0.0018191 0.029605 0.059364 
0.074161 -0.044381 0.0070803 -0.0054151 0.030098 0.0088889 0.036017 0.067749 
0.20191 0.12447 0.17939 0.022042 0.027632 0.0047785 0.01826 0.080738 
0.22246 0.21474 0.15653 -0.00081153 0.019411 0.0080668 0.0085601 0.04917 
0.13779 -0.061316 -0.0055795 0.056569 0.015465 0.0082312 0.012999 0.038648 
0.096686 -0.62756 -0.049807 0.030592 0.0021479 0.0075736 0.015465 0.03799 
-0.011498 -0.86941 0.0023123 0.07301 0.020562 0.024179 0.011191 0.017274 
-0.15405 -0.49093 -0.066084 0.05213 0.024837 0.018096 0.024015 0.0060938 
-0.17476 -0.15273 -0.13037 0.047197 0.033551 0.016616 0.030592 0.0024767 
-0.010841 0.030427 0.14568 0.061995 0.033551 0.031578 0.012999 0.040621 
0.15292 0.22739 0.56675 0.089452 0.06479 0.040292 0.047855 0.073175 
0.12283 0.40217 0.59749 0.079751 0.054103 0.0324 0.052787 0.054596 
0.032236 0.5286 0.18859 0.054596 0.050486 0.038648 0.040292 0.072846 
-0.056055 0.62824 -0.077428 0.053609 0.045882 0.023193 0.034209 0.076299 
-0.083183 0.62215 -0.14073 0.084848 0.05213 0.029934 0.041772 0.095699 
-0.068879 0.3683 -0.19531 0.055582 0.052294 0.031414 0.056898 0.090767 
-0.11755 -0.25795 -0.30366 -0.022843 0.019905 0.034537 0.063145 0.078272 
-0.091075 -0.8916 -0.31945 -0.027282 -0.0031133 0.031249 0.049006 0.056733 
-0.0072237 -0.83455 -0.16802 -0.028104 0.0023123 0.01563 0.0056006 0.061995 
0.067256 -0.43158 0.016616 0.00017495 0.004943 0.0088889 -0.0070593 0.044238 
0.08863 -0.021199 0.086657 -0.0022913 0.010862 0.010697 -0.0034422 0.02533 
0.1151 0.34396 0.04506 0.0046141 0.0083956 0.017603 -0.03501 0.0064227 
0.13319 0.39132 0.020891 0.0056006 0.016616 0.0098754 -0.021034 -0.014458 
0.12612 -0.10784 0.12973 0.017603 0.022864 -0.016102 -0.0014692 -0.038133 
0.14009 -0.36236 0.074654 0.01711 0.012177 0.0056006 0.005765 0.0054362 
0.28675 -0.063618 0.043251 -0.0057439 0.066105 0.0011614 0.025495 -0.009361 
0.26159 0.28839 0.24745 0.048677 0.060844 0.0421 0.058377 -0.0055795 
0.067091 0.5628 0.47484 0.055089 0.042758 0.036839 0.049828 0.011684 
-0.073976 0.83145 0.44327 0.075641 0.04917 0.022864 0.036675 -0.015609 
-0.2379 0.84987 0.26685 0.048019 0.047855 0.045718 0.056569 -0.014458 
-0.28163 0.71439 0.082546 0.068736 0.049992 -0.0060728 0.034537 -0.0070593 
-0.11952 0.63268 -0.1718 0.033058 0.027468 -0.029091 0.031907 0.027303 
0.095042 0.4265 -0.194 0.075805 0.020727 -0.0040998 0.037004 0.052294 
0.15999 -0.3691 0.0047785 0.11148 0.040128 0.0044497 0.047526 0.057062 
0.089616 -1.4072 0.12694 0.11411 0.053774 0.044567 0.04506 0.074161 
0.020398 -1.5172 -0.015116 0.024344 0.060844 0.075641 0.08715 0.069558 
-0.037476 -0.73936 -0.2379 0.0011614 0.037332 0.041278 0.052294 0.022535 
-0.034845 0.18613 -0.34312 -0.020541 0.031249 0.056733 0.047033 0.0026412 
-0.12807 0.46497 -0.37748 -0.049642 0.020891 0.023522 0.051472 -0.00031829 
-0.13875 0.20783 -0.36828 -0.049149 0.016945 0.0036276 0.0056006 -0.023665 
-0.2134 -0.23411 -0.25253 -0.075127 -0.01676 -0.01117 -0.016102 -0.012485 
-0.1649 -0.49159 -0.0080457 -0.064275 -0.031228 -0.034516 -0.029913 -0.031886 
-0.1233 -0.41234 0.21013 -0.062302 -0.014293 -0.042737 -0.02942 -0.047341 
-0.011498 -0.62641 0.28017 -0.0067304 -0.0034422 -0.014293 -0.018075 -0.089924 
0.13516 -0.50441 0.2343 -0.0088678 -0.012156 -0.0032777 0.016452 -0.062138 
0.22887 0.171 0.10458 0.040128 0.0013258 -0.010512 0.018589 -0.0026201 
0.25551 0.76043 0.027303 0.071366 0.050486 0.0227 0.022535 0.059528 
0.24663 0.91136 0.014643 0.078436 0.053281 0.027961 0.044896 0.050814 
0.2223 0.78871 0.056569 0.089452 0.03651 0.042758 0.064954 0.071202 
0.1567 0.60916 0.14749 0.055911 0.051636 0.055254 0.035853 0.062817 
0.069722 0.66309 0.17182 0.068736 0.041772 0.016452 0.045718 0.045553 
-0.010841 0.6649 0.14963 0.040128 0.043745 0.043251 0.05624 0.009711 
-0.039778 0.22509 0.066269 0.037497 0.030263 0.050486 0.010697 0.032071 
-0.18265 -0.49044 -0.023172 0.017274 0.032564 0.014808 0.01267 0.023028 
-0.25483 -1.0064 -0.04882 0.043251 0.044896 0.029769 0.022864 0.049006 
-0.055232 -0.8505 -0.043559 0.01711 0.039305 0.02681 0.026152 0.06742 
0.17676 -0.33819 -0.021034 0.040621 0.044402 0.009711 0.01267 0.052787 
0.22509 0.041278 0.064954 0.00083261 0.018918 0.0421 0.037497 0.04506 
0.15653 0.19303 0.23019 0.049006 0.022371 0.025001 0.026317 0.035195 
0.094384 0.14206 0.15933 0.038483 0.029605 0.018754 0.037661 0.007738 
0.034866 -0.0080457 -0.021034 0.040621 0.036839 0.036839 0.042923 -0.013307 
-0.14336 -0.081374 -0.15289 0.044073 0.013657 0.044238 0.026317 -0.081374 
-0.28311 -0.03205 -0.19696 0.037497 0.017603 0.036017 0.029276 -0.076935 
-0.076606 0.0011614 -0.18134 0.029605 -0.0021268 0.045389 0.045553 -0.095678 
0.17281 0.14716 -0.12083 0.013164 0.0080668 0.015794 0.026152 -0.08269 
