0.026974 0.073175 0.018918 -0.0026201 -0.0050863 -0.031392 -0.3132 0.022864 
0.034702 0.054925 0.0046141 0.0023123 -0.029748 -0.10998 -0.25845 -0.090088 
-0.0072237 0.087808 -0.014787 0.025495 -0.029748 -0.13941 -0.11574 -0.14221 
0.011191 0.090767 0.0065871 0.021384 -0.013307 -0.17805 -0.086142 -0.14813 
0.042594 0.051801 0.027303 0.065118 0.036839 -0.13382 0.03388 -0.08828 
0.063639 0.054103 0.04358 0.063639 0.065447 -0.037147 0.15407 0.02122 
0.053774 0.04358 0.050321 0.084519 0.04506 0.026481 0.18629 0.16821 
0.011191 0.041278 0.024673 0.039963 0.0072447 0.072517 0.26554 0.20882 
0.013821 0.074326 0.021713 0.05065 1.0539e-005 0.15275 0.28938 0.16738 
0.025659 0.10918 0.028619 0.018425 0.0075736 0.12381 0.15127 0.1128 
0.075148 0.10113 0.046868 0.038483 0.038319 0.053445 -0.11804 0.16755 
0.10935 0.12842 0.072517 0.033222 0.037332 -0.059672 -0.34592 0.14963 
0.088794 0.10343 0.062323 0.0088889 -0.0067304 -0.34476 -0.54025 0.01826 
-0.001798 0.082382 0.056076 -0.00015387 -0.069701 -0.54847 -0.54798 -0.2157 
-0.097158 0.017603 -0.0055795 -0.026789 -0.11919 -0.43865 0.0227 -0.49159 
-0.10587 0.0024767 -0.024487 -0.008539 -0.11787 -0.19893 0.61755 -0.51707 
-0.035338 0.055911 -0.0072237 -0.0078813 -0.069208 0.076134 0.83803 -0.25105 
0.061008 0.091425 0.01267 0.045718 0.047362 0.3267 0.64698 -0.17131 
0.083204 0.062817 0.025988 0.05213 0.10918 0.3609 0.28428 -0.15569 
0.11115 0.13335 0.037497 0.11559 0.16344 0.32621 -0.064768 0.062488 
0.14157 0.13598 0.055582 0.08304 0.17412 0.22263 -0.37831 0.305 
0.15538 0.14321 0.068407 0.1299 0.17462 0.11921 -0.58119 0.38819 
0.097508 0.088301 0.054432 0.071366 0.14946 0.074983 -0.55768 0.29119 
0.030756 -0.010676 0.023193 0.060186 0.10162 0.030263 -0.49849 0.10047 
-0.030735 -0.083512 -0.0034422 0.00099702 0.04654 0.025166 -0.29051 -0.035667 
-0.051615 -0.043559 0.00066819 -0.018897 0.0083956 0.066763 0.062652 -0.11968 
-0.0503 -0.032215 0.0060938 -0.017088 -0.023994 0.031907 0.28165 -0.16029 
-0.013143 0.01004 0.0051074 -0.014129 -0.048985 -0.063124 0.31848 -0.14993 
0.0016547 0.039799 0.016781 0.0013258 -0.05589 -0.14056 0.10885 -0.095021 
0.0060938 0.0023123 0.0031344 -0.02087 -0.090253 -0.27686 0.050979 -0.07003 
-0.010512 -0.023665 0.023686 -0.027447 -0.097322 -0.30383 0.18136 -0.048327 
0.017603 0.00099702 0.020233 -0.028433 -0.10932 -0.29429 0.26735 0.044567 
0.027632 0.0039565 0.026481 0.00050378 -0.099789 -0.23329 0.32144 0.21983 
0.049335 0.037497 0.041772 -0.0024557 -0.058521 -0.14089 0.30878 0.293 
0.094713 0.088794 0.057391 0.037497 -0.023665 -0.0019624 0.34035 0.22296 
0.099152 0.069886 0.054103 0.017274 0.034373 0.20619 0.3581 0.12135 
0.097179 0.054103 0.079587 0.0083956 0.040456 0.2731 0.22411 0.19451 
0.090109 0.050486 0.049664 -0.0039354 0.055747 0.18909 0.015137 0.38474 
0.14108 0.020069 0.091425 0.033222 0.063803 0.024508 -0.21866 0.4048 
0.065612 0.0018191 0.072024 0.050157 0.07038 -0.09946 -0.4153 0.26998 
0.007738 -0.011334 0.070544 0.065612 0.083533 -0.046519 -0.31517 0.024837 
-0.099624 -0.036983 0.056076 0.062981 0.098494 0.0085601 -0.21652 -0.49455 
-0.15191 0.021384 0.052787 0.053445 0.096193 0.031742 -0.082361 -0.77619 
-0.10817 0.011848 0.055418 0.068407 0.063968 0.048019 0.038648 -0.49323 
0.017274 0.021056 0.053281 0.048841 0.066434 0.049335 -0.019555 -0.047012 
0.099645 0.05624 0.044402 0.059693 0.052459 0.077449 0.0092177 0.19254 
0.10836 0.024508 0.04917 0.025166 0.0421 0.10195 0.053445 0.25271 
0.12595 0.042429 0.053774 0.071695 0.031414 0.14157 0.0085601 0.21621 
0.093233 0.077449 0.03536 0.0095465 0.025495 0.15505 -0.066084 0.10441 
-0.024487 0.033551 -0.0013048 0.0036276 0.022371 0.10819 -0.080059 0.059528 
-0.042901 -0.013636 -0.0068948 -0.018404 -0.01528 0.043087 -0.095843 0.02681 
0.0064227 0.015959 0.0042853 -0.0036066 0.01563 0.050979 -0.053095 0.11148 
0.08419 0.007738 0.047526 0.020727 0.044567 0.060679 0.14519 0.22493 
0.04358 0.01415 0.04095 0.025001 0.044567 0.06742 0.25058 0.2491 
-0.0075525 0.009711 0.024673 0.033715 0.023357 0.041443 0.25551 0.19912 
-0.03057 0.037332 0.022206 0.013821 0.019247 0.051308 0.24121 0.1687 
-0.0080457 0.057884 0.030756 0.040785 0.044073 0.1026 0.079258 0.11674 
0.055089 0.060515 0.050979 0.031578 0.073832 0.082875 -0.13596 0.11362 
0.10606 0.024344 0.032071 0.061172 0.069722 0.072517 -0.2841 0.12924 
0.085835 0.025659 0.047033 0.033715 0.071366 0.10096 -0.48041 0.11872 
-0.013636 0.0013258 0.029769 0.04506 0.047691 0.084519 -0.41809 0.044402 
-0.050629 0.0070803 0.025824 -0.0078813 0.038483 0.062981 -0.12659 -0.14418 
-0.037311 0.048677 0.02681 0.021878 0.041772 0.071859 0.055747 -0.27538 
0.018918 0.055747 0.043909 0.035195 0.074983 0.044731 0.074161 -0.26864 
0.063639 0.048019 0.056898 0.041443 0.1054 -0.022514 -0.0027845 -0.14944 
0.092411 0.070708 0.066105 0.058377 0.082382 -0.088444 -0.054246 0.0037921 
-0.0080457 -0.0011404 0.051472 0.047362 0.04654 -0.16062 0.074983 0.056569 
0.010204 0.0014903 0.053445 0.048348 0.049335 -0.069043 0.41631 0.073504 
0.07301 0.033387 0.054432 -0.0004827 0.084355 0.1516 0.63613 0.15061 
0.052294 0.0075736 0.053281 0.051472 0.013328 0.21161 0.57382 0.11642 
-0.027118 -0.0047575 0.046704 0.048513 0.024837 0.29645 0.27672 0.055747 
-0.040435 0.079258 0.054925 0.08978 0.10441 0.38063 -0.052931 0.11707 
0.035524 0.11592 0.081231 0.068736 0.11576 0.317 -0.29265 0.16114 
0.11724 0.080902 0.01711 0.07038 0.076792 0.17544 -0.47054 0.10655 
0.12299 0.0014903 -0.028762 0.033058 0.025988 -0.010512 -0.50967 0.0051074 
0.086657 -0.026624 -0.030242 -0.00064712 0.014479 -0.071181 -0.31517 -0.084169 
0.14387 0.040785 -0.019061 0.0014903 0.0085601 -0.030899 0.01415 -0.087129 
0.14634 0.059528 0.0052718 -0.0031133 0.016945 -0.0868 0.1659 -0.093376 
0.091096 0.071202 0.028947 0.0059294 -0.0077169 -0.15092 0.15999 -0.085156 
0.030263 0.073339 0.026152 0.028783 -0.0049219 -0.15602 0.094877 0.02122 
0.037004 0.055089 0.026317 0.053609 0.010533 -0.14155 0.039963 0.11691 
0.034537 0.018754 0.013492 0.040292 0.040456 -0.073647 0.1835 0.13516 
0.04358 0.050814 0.024015 0.05624 0.039141 0.045718 0.34495 0.072353 
0.056076 0.060844 0.029276 0.033551 0.031085 0.12069 0.33311 0.013492 
0.044073 0.079916 0.037826 0.071859 0.046046 0.15489 0.2269 0.089616 
0.041443 0.10425 0.03651 0.051308 0.013492 0.12644 0.11494 0.095371 
0.0592 0.068571 0.034866 0.045553 0.0047785 0.05772 0.089616 -0.017088 
0.031249 0.023193 0.036675 0.01826 0.024179 0.0011614 -0.0004827 -0.26946 
0.00050378 0.048348 0.034702 0.018096 0.016452 -0.094034 0.022371 -0.24102 
0.040785 0.047526 0.03651 0.007738 -0.00064712 -0.10094 0.20799 -0.0004827 
0.056898 0.034373 0.0018191 -0.0050863 -0.042079 -0.047505 0.29431 0.17232 
0.020398 0.058377 0.011848 0.0070803 -0.016266 0.020891 0.20668 0.26439 
0.016288 0.049006 0.025659 0.01563 0.016288 0.10491 0.053116 0.30894 
0.060844 0.061172 0.049828 0.038483 0.022371 0.13565 -0.091075 0.3027 
0.077943 0.10343 0.053281 0.015794 0.0041209 0.059528 -0.0868 0.16294 
0.052787 0.061337 0.046868 0.050157 -0.012978 -0.079566 -0.088773 -0.064111 
0.030592 0.011026 0.041936 0.025659 -0.0078813 -0.11541 -0.072989 -0.24891 
0.011848 0.0047785 -0.0024557 0.048841 -0.012978 -0.13004 0.030756 -0.2499 
-0.0047575 -0.025145 0.0054362 0.007738 -0.025309 -0.068714 0.13286 -0.19877 
-0.010841 0.03536 0.032729 0.036839 -0.0036066 -0.035174 0.17741 -0.036489 
0.0067515 0.061666 0.045718 0.033387 0.018754 -0.063782 0.14996 0.2098 
0.0059294 0.074161 0.047362 0.025824 0.019411 -0.065919 0.11822 0.37191 
1.0539e-005 0.089287 0.035853 0.01152 0.018918 0.0062583 0.026974 0.39855 
0.00066819 0.081395 0.031907 0.029276 0.037826 0.12349 -0.13037 0.26718 
0.015465 0.061008 0.013328 0.073832 0.071859 0.28346 -0.30333 -0.030406 
0.024344 0.090767 0.013821 0.060515 0.08863 0.28379 -0.36022 -0.34361 
0.017603 0.061172 -0.0062372 0.065118 0.065118 0.16344 -0.29149 -0.32043 
0.019411 0.046704 0.023357 0.026646 0.041278 0.040128 -0.062631 -0.090417 
0.029441 0.06594 0.01711 0.044567 0.011355 -0.10834 0.095371 -0.18791 
-0.013143 0.039963 0.0074092 0.0014903 -0.031886 -0.2545 -0.049971 -0.27209 
-0.061645 0.018589 -0.004593 0.020562 -0.046683 -0.40001 -0.19992 -0.10193 
-0.11031 0.01563 0.0047785 -0.010676 -0.032543 -0.29922 0.078436 0.029441 
-0.086964 0.013657 0.022042 0.04654 -0.011498 -0.10883 0.47204 0.09274 
-0.025145 0.00066819 0.032729 0.0023123 -0.018404 0.080409 0.64468 0.13746 
0.017603 0.066598 0.025166 0.027961 0.029605 0.15867 0.53025 0.2001 
0.018425 0.048019 0.040456 0.021549 0.01563 0.10244 0.10293 0.15686 
0.016123 0.10803 0.05213 0.029605 0.033222 0.076134 -0.24365 0.090109 
0.032893 0.09126 0.049335 0.043416 0.051636 0.061337 -0.45476 0.070215 
0.034209 0.017767 0.029934 0.029605 0.055747 0.093726 -0.43634 0.04654 
-0.023172 -0.031392 0.025001 0.040292 0.044402 0.21457 -0.17262 0.030427 
-0.024158 -0.021363 0.029112 0.01711 0.057227 0.33657 0.27228 0.016288 
-0.016266 0.024015 0.04095 0.037497 0.073997 0.35695 0.40019 -0.018897 
0.028947 0.081231 0.057227 0.028783 0.074983 0.28034 0.25814 -0.21011 
0.071202 0.061995 0.057062 0.048184 0.066927 0.14009 0.021384 -0.2305 
0.074983 0.048513 0.024344 0.014972 0.023522 -0.072003 -0.19087 -0.033201 
0.031742 0.039305 0.013986 0.041772 0.010369 -0.20123 -0.25105 0.13762 
0.017438 0.011355 0.031414 0.021713 0.0054362 -0.29593 -0.24727 0.21621 
0.009711 0.0046141 0.0069159 0.010697 -0.0004827 -0.38932 -0.32175 0.11148 
0.047033 0.05065 0.015137 0.010204 -0.019555 -0.47745 -0.34312 0.02829 
0.086657 0.0689 0.035524 0.0098754 -0.0088678 -0.32372 0.0036276 0.0021479 
0.050157 0.062981 0.054103 0.029112 -0.028269 -0.076935 0.38474 -0.091568 
-0.015444 0.069064 0.047362 -0.0013048 -0.042244 0.077121 0.45166 -0.16473 
-0.063124 0.058213 0.036346 0.0028056 -0.080059 0.10293 0.38753 -0.16884 
-0.027282 0.06479 0.036017 0.0062583 -0.057863 0.10195 0.35416 -0.089266 
0.011848 0.050814 0.03388 0.054925 0.00297 0.12135 0.19172 0.091918 
0.067585 0.035688 0.040128 0.048841 0.062159 0.19237 -0.085649 0.2052 
0.081724 0.036017 0.024508 0.075805 0.10672 0.19813 -0.48254 0.19385 
0.079587 0.05213 0.023522 0.049499 0.12825 0.18876 -0.65205 0.17117 
0.072188 0.028619 0.04654 0.049828 0.11839 0.19353 -0.44867 0.11592 
0.090109 0.020891 0.024344 0.010697 0.060022 0.13253 -0.12314 0.05065 
0.08156 0.05476 0.00297 -0.016595 0.027632 0.044073 0.16262 -0.025145 
0.075641 0.037826 0.01415 0.022042 0.04506 0.014315 0.16327 -0.036489 
0.080409 0.045553 -0.012814 0.016452 0.06479 0.026646 0.16294 -0.0022913 
0.085341 0.027796 0.0024767 0.030263 0.049992 -0.0040998 0.29957 0.014643 
0.098823 -0.017746 0.020891 0.034702 0.03799 -0.031228 0.28889 -0.017746 
0.097508 0.019576 0.048677 0.045389 0.020562 -0.019061 0.38819 -0.084498 
0.1465 0.043745 0.065776 0.052459 0.051308 0.045718 0.34084 -0.064111 
0.17314 0.038812 0.061337 0.064296 0.069558 0.183 0.18317 0.0082312 
0.2052 0.033715 0.034209 0.04095 0.060022 0.28231 -0.18841 0.13762 
0.13549 0.019905 0.046375 0.049992 0.056076 0.23841 -0.34624 0.29448 
0.075805 0.047197 0.061008 0.031578 0.020727 0.14831 -0.22902 0.37224 
0.028619 0.07301 0.059035 0.039799 0.051472 0.066269 0.084355 0.32226 
0.01152 0.05476 0.054925 0.019083 0.075476 0.06331 0.23233 0.29267 
0.042594 0.077943 0.071037 0.023193 0.05213 -0.080881 0.20224 0.2246 
0.0046141 0.12102 0.061337 0.012506 -0.0090322 -0.38258 -0.073154 0.13286 
-0.06 0.017767 0.040292 -0.020212 -0.10489 -0.70631 -0.34345 0.13319 
-0.11212 -0.034516 0.016123 -0.036489 -0.18972 -0.82436 -0.075784 0.10852 
-0.1575 -0.05589 -0.014129 -0.02087 -0.17493 -0.5271 0.49292 0.024344 
-0.18676 -0.02942 -0.0026201 0.0088889 -0.096336 1.0539e-005 0.68677 -0.18413 
-0.12166 -0.0057439 -0.0078813 0.004943 -0.034023 0.37159 0.55063 -0.2859 
0.00050378 0.054596 0.014643 0.05772 0.040785 0.47665 0.28428 -0.20863 
0.058542 0.062817 0.022535 0.043416 0.084355 0.4533 0.0227 -0.10982 
0.076134 0.073997 0.037497 0.067585 0.11822 0.329 -0.17098 -0.056383 
0.13878 0.10589 0.079587 0.050814 0.11214 0.26916 -0.26042 -0.054246 
0.20684 0.075312 0.074654 0.064132 0.13762 0.2662 -0.24727 -0.048985 
0.22361 0.078765 0.050979 0.032564 0.09981 0.15752 -0.21323 -0.029913 
0.14848 0.057884 0.014643 0.024344 0.1054 0.084355 -0.13925 0.10967 
0.06035 0.019576 -0.015938 0.013328 0.077449 0.034373 -0.058685 0.20684 
-0.017417 0.0018191 -0.01939 0.019247 0.08008 0.012835 -0.011992 0.22493 
-0.047341 -0.013965 0.014972 0.042923 0.082217 -0.012978 0.027303 0.17084 
-0.038791 0.016616 0.039141 0.024673 0.046704 -0.052931 0.076299 0.07301 
-0.0031133 0.11231 0.061337 0.044073 0.012506 -0.058685 0.10556 -0.02087 
0.018754 0.099316 0.050814 0.041607 0.0072447 -0.030242 0.14075 -0.080717 
-0.0073881 0.059364 0.057884 0.0592 0.017438 0.0024767 0.2126 -0.02794 
-0.093705 0.020398 0.048677 0.033387 0.0047785 -0.0138 0.1858 -0.02087 
-0.20468 -0.0013048 0.031578 0.05065 0.0085601 -0.0016336 0.05624 -0.05885 
-0.20666 0.03947 0.035195 0.0026412 0.0093821 0.010533 -0.035503 -0.023007 
-0.059836 0.094055 0.034209 -0.003771 0.024508 0.037332 0.0028056 -0.02942 
0.045718 0.077614 0.03388 0.0070803 0.021878 0.060515 0.038812 -0.041915 
0.071037 0.055747 0.051636 0.024015 0.016945 0.016781 0.08978 0.044073 
0.027468 0.032893 0.057884 0.024508 0.022864 -0.039942 -0.13777 0.14568 
-0.01117 -0.0021268 0.043416 0.013492 0.010862 -0.013965 -0.33572 0.14141 
0.019083 0.0039565 0.036182 -0.0050863 0.014808 0.075805 -0.48978 0.13154 
0.06183 0.043251 -0.00097594 -0.010512 0.030756 0.1054 -0.71338 0.098988 
0.089123 0.087808 0.010862 0.049006 0.071037 0.25419 -0.63479 0.027303 
0.087643 0.12332 0.019083 0.050321 0.12809 0.40957 -0.10834 -0.0039354 
0.090603 0.095042 0.046868 0.1077 0.16311 0.40414 0.44196 0.015301 
0.10721 0.09274 0.077778 0.089945 0.1516 0.30631 0.77046 0.062981 
0.061172 0.11083 0.050486 0.093562 0.14733 0.11083 0.63909 0.046375 
0.021878 0.052623 0.014479 0.025659 0.066927 -0.11623 0.24384 -0.095514 
-0.026296 0.024344 -0.034845 0.0079024 -0.0042642 -0.46413 0.086657 -0.34559 
-0.061809 0.0051074 -0.044874 -0.033201 -0.081868 -0.61555 0.17807 -0.47005 
-0.073154 0.0023123 -0.024487 -0.046847 -0.15306 -0.5345 0.17001 -0.51674 
-0.086471 0.010697 -0.039778 -0.034188 -0.15898 -0.26322 0.20997 -0.21077 
-0.010183 0.076792 0.014808 -0.026953 -0.12527 0.064296 0.33739 0.34462 
0.10425 0.1391 0.063474 0.034373 -0.079401 0.27623 0.34742 0.63103 
0.11411 0.13532 0.092576 0.075641 -0.040435 0.27146 -0.011334 0.59568 
0.1516 0.14733 0.082875 0.10885 0.024179 0.10688 -0.56064 0.37635 
0.18399 0.12727 0.065118 0.095864 0.066763 0.055254 -0.78523 0.17955 
0.18514 0.099645 0.055418 0.095699 0.09274 0.14289 -0.63068 -0.07825 
0.10376 0.090603 0.022864 0.043416 0.095699 0.22542 -0.35825 -0.47876 
0.011026 0.065283 -0.016924 0.018425 0.047526 0.16541 -0.16259 -0.69086 
-0.0091966 0.021384 -0.0088678 -0.0054151 0.03799 0.041114 -0.038627 -0.22293 
-0.0029489 0.020069 -0.0024557 -0.0039354 0.039305 0.0070803 0.15867 0.3928 
0.032564 0.0087245 -0.0087034 -0.015773 0.033387 0.021056 0.27343 0.53616 
0.020233 -0.00031829 -0.010019 -0.012156 0.053774 -0.0059084 0.26028 0.35958 
0.044402 0.018918 0.017603 0.025824 0.034044 0.021549 0.22855 0.14782 
0.11921 0.044073 0.033222 0.041278 0.047691 0.0034632 0.25321 0.06479 
0.11822 0.078929 0.048184 0.047033 0.030756 -0.038791 0.17758 -0.028762 
0.11033 0.043251 0.053774 0.028125 0.0041209 -0.053095 0.055911 -0.16473 
0.099152 0.0324 0.063145 0.044567 -0.019719 -0.10357 -0.035338 -0.1473 
0.048348 0.05476 0.068571 0.043251 -0.012156 -0.095514 -0.17542 -0.018733 
-0.0019624 0.049992 0.055254 0.039141 -0.015773 -0.11097 -0.20271 0.029112 
0.027303 0.060515 0.01563 0.010697 -0.012978 -0.12938 0.047691 -0.075291 
0.072846 0.13532 0.046704 0.043087 -0.014951 -0.11705 0.28182 -0.31418 
0.089287 0.1835 0.081395 0.043087 -0.0047575 -0.066084 0.36649 -0.13349 
0.13762 0.15538 0.070215 0.03092 0.017274 -0.044874 0.36057 0.16903 
0.13203 0.044731 0.024837 0.036839 0.019576 0.037497 0.29349 0.27228 
0.065118 -0.080059 -0.018404 0.010369 0.031578 0.15472 0.30697 0.18826 
-0.048327 -0.1108 -0.016266 0.023851 0.030098 0.22608 0.44097 0.036182 
-0.11426 -0.04619 0.015137 -0.001798 0.016123 0.2708 0.24795 -0.035174 
-0.091404 0.047526 0.029605 0.0324 0.044731 0.26521 -0.19433 -0.051944 
-0.004593 0.05213 0.052294 0.027303 0.077121 0.23233 -0.69414 0.0064227 
0.052459 0.054596 0.049992 0.060679 0.085012 0.13121 -1.2816 0.088794 
0.071202 0.033387 0.046868 0.031578 0.08715 -0.022679 -1.5261 0.054925 
0.12414 0.053116 0.041607 0.0592 0.09685 -0.032543 -1.1244 -0.042737 
0.10244 0.068078 0.052294 0.039963 0.069229 -0.033694 -0.31238 -0.10702 
0.061337 0.024673 0.039799 0.023851 0.047197 -0.15405 0.54685 -0.13744 
0.0041209 -0.0044286 0.05213 0.0069159 0.0054362 -0.20551 1.1236 -0.24102 
-0.077922 -0.053588 0.0037921 -0.016595 -0.042244 -0.29248 1.2816 -0.35019 
-0.1866 -0.069701 -0.017417 0.01267 -0.036325 -0.34805 1.1226 -0.34296 
-0.14796 0.0095465 0.034373 0.031742 -0.0138 -0.25401 1.0005 0.099481 
0.013657 0.034866 0.056076 0.10063 0.030427 -0.16917 0.82668 0.3757 
0.096357 0.023028 0.067913 0.046868 0.024673 0.029769 0.67279 0.58138 
0.071531 0.03092 0.092576 0.039141 0.024673 0.30072 0.23282 0.54471 
0.012506 0.049992 0.073504 0.016616 0.0042853 0.48865 -0.16276 0.3512 
0.029276 0.045553 0.077449 0.027632 -0.048163 0.50509 -0.13316 0.34364 
0.062488 0.08156 0.069064 -0.0024557 0.012342 0.54784 -0.1473 0.37044 
0.06479 0.066763 0.063474 0.059364 0.13039 0.57283 -0.38422 0.15982 
0.053116 0.062817 0.090109 0.067091 0.20257 0.40562 -0.71519 -0.29791 
0.024508 0.060022 0.072846 0.066105 0.18152 0.06479 -1.0337 -0.78079 
-0.026789 0.021384 0.056569 0.045389 0.12349 -0.35414 -1.3092 -0.70697 
-0.012649 -0.029091 0.00099702 0.01563 0.0324 -0.64449 -1.0919 -0.26141 
-0.014129 -0.081703 -0.078086 -0.012978 -0.0052507 -0.60848 -0.39836 0.08567 
-0.077264 -0.12149 -0.05326 -0.0062372 -0.02087 -0.47071 0.19928 0.21391 
-0.091568 -0.081045 -0.017253 0.025495 -0.0034422 -0.3058 0.61771 0.28214 
-0.045532 -0.0054151 0.0031344 0.021878 0.0062583 -0.10324 0.98913 0.26324 
0.034044 0.049006 0.030592 0.044238 0.035853 0.11592 1.194 0.21704 
0.14206 0.13582 0.059528 0.056404 0.048348 0.28576 1.1243 0.2029 
0.26258 0.17988 0.08978 0.091918 0.062159 0.34495 0.87502 0.18202 
0.20619 0.12858 0.096357 0.083368 0.07038 0.28987 0.51643 0.092247 
0.0689 0.097344 0.085999 0.098823 0.057227 0.18202 0.17955 0.029605 
-0.046683 0.021878 0.040621 0.052952 0.056898 0.096193 -0.056548 -0.028433 
-0.15339 -0.02646 0.022371 0.044731 0.03651 0.0021479 -0.23033 0.020398 
-0.24776 -0.012156 -0.009361 1.0539e-005 0.0031344 -0.06148 -0.34181 0.0051074 
-0.22573 -0.016431 -0.026624 -0.026953 -0.043395 -0.087458 -0.28508 -0.047505 
-0.15783 -0.0067304 -0.031392 -0.031064 -0.078086 -0.079072 -0.18084 0.03651 
-0.056877 0.030592 -0.013636 -0.026624 -0.087129 -0.042573 -0.11442 0.1368 
0.015959 0.030427 0.0039565 -0.017582 -0.10258 -0.047341 -0.2014 0.1419 
0.020562 -0.020541 0.016781 -0.033694 -0.10883 -0.11376 -0.27686 0.1738 
0.011355 -0.017582 0.016452 -0.0034422 -0.10817 -0.1062 -0.18019 0.24515 
0.0082312 0.009711 0.02829 -0.010841 -0.071016 -0.076606 -0.073976 0.2292 
0.078436 0.041278 0.029934 0.029605 -0.014458 -0.058028 -0.0042642 0.093891 
0.15703 0.099645 0.024837 -0.0026201 0.00297 -0.048656 0.0051074 -0.11064 
0.14617 0.072681 0.022371 0.024837 0.061666 -0.0075525 -0.0024557 -0.32849 
0.10902 0.0592 0.031578 0.040292 0.10787 0.078929 0.089616 -0.38833 
0.10145 0.074326 0.0689 0.067091 0.14091 0.18646 0.1904 -0.26223 
0.13236 0.077614 0.079587 0.082875 0.14256 0.22098 0.012506 -0.045861 
0.14272 0.053938 0.074819 0.034044 0.12102 0.20865 -0.26124 0.15883 
0.0689 0.049992 0.055911 0.037661 0.058871 0.17922 -0.35036 0.23479 
-0.004593 0.047362 0.044073 0.062981 0.038812 0.035031 -0.47202 0.19714 
0.0016547 0.046868 0.030756 0.0227 0.016781 -0.04323 -0.47021 0.17725 
0.007738 0.040128 0.035195 0.031249 0.029934 -0.11903 -0.31501 0.086821 
-0.034188 0.045224 0.046704 0.057884 0.03092 -0.08828 -0.27226 -0.045696 
-0.028597 0.047033 0.0041209 0.01152 0.018425 0.044731 -0.084498 -0.23017 
-0.0027845 0.057884 0.014808 0.038648 0.029276 0.20027 0.2463 -0.23938 
0.012835 0.038319 0.0026412 0.0047785 0.036017 0.25995 0.39148 -0.11557 
0.023028 0.045882 -0.010676 0.020069 0.022864 0.24893 0.34396 0.049499 
0.038319 0.040621 0.00099702 0.0075736 -0.0042642 0.055254 0.077285 0.12513 
0.049499 0.015301 -0.0055795 0.024015 -0.027282 -0.1062 -0.19877 0.08978 
0.039634 0.032893 0.00033937 0.00099702 -0.012485 -0.17098 -0.32257 -0.0080457 
0.036017 -0.0021268 0.00297 -0.027447 -0.0067304 -0.27588 -0.18084 -0.082525 
-0.043724 -0.011663 -0.02235 -0.025638 -0.014458 -0.23116 0.22082 -0.13497 
-0.047012 0.030592 -0.0044286 -0.010841 -0.0032777 -0.0031133 0.62676 -0.094199 
0.046375 0.041278 -0.0024557 0.035688 0.028125 0.24499 0.71406 0.085341 
0.094713 0.08156 0.045882 0.050157 0.073339 0.41943 0.36896 0.18514 
0.15472 0.13697 0.06742 0.095042 0.081067 0.37668 -0.22902 0.23183 
0.17824 0.11543 0.096028 0.074654 0.061666 0.23825 -0.45542 0.21194 
0.15587 0.10458 0.069393 0.081067 0.075312 0.12776 -0.62969 0.085835 
0.11444 0.057884 0.047691 0.023522 0.053774 0.06183 -0.61884 -0.035667 
0.040292 0.0037921 0.017603 0.022042 0.035688 0.025824 -0.37189 -0.13415 
0.017438 0.0064227 0.034537 -0.0024557 0.0324 0.029276 0.007738 -0.17739 
0.0051074 0.061172 0.057884 0.015301 0.03388 0.022206 0.2782 -0.067399 
0.029112 0.11214 0.053938 0.015465 0.045389 0.029112 0.50723 0.061666 
0.059693 0.098659 0.044896 0.01974 0.065776 0.0024767 0.63235 0.070544 
0.073668 0.0069159 0.019576 0.031249 0.066763 -0.06707 0.70568 0.13072 
0.08419 -0.098967 -0.016266 0.028619 0.036182 -0.061645 0.4898 0.10754 
0.080244 -0.03616 0.005765 0.053445 0.054925 0.024179 0.19747 0.11609 
0.094548 0.045718 0.032893 0.0072447 0.035853 -0.061973 -0.08121 0.092082 
0.10852 0.13664 0.083862 0.05772 0.011191 -0.17032 -0.19022 0.019411 
0.090109 0.17676 0.079422 0.045389 0.035195 -0.21175 -0.13908 -0.062138 
0.055254 0.1276 0.075312 0.072188 0.018754 -0.20337 -0.20107 -0.15125 
0.046211 0.08715 0.027796 0.034373 -0.017746 -0.15766 -0.090253 -0.26042 
-0.0070593 0.032236 0.0090533 0.037826 -0.008539 -0.067235 0.16278 -0.23017 
-0.036489 0.020233 -0.011334 0.016452 -0.0091966 0.026317 0.34512 -0.052109 
0.047197 0.061337 0.0037921 0.0075736 -0.00015387 0.15407 0.49917 0.16706 
0.14108 0.11806 0.025166 0.012835 0.020891 0.26258 0.46119 0.32588 
0.16788 0.065118 0.020891 0.019411 0.016781 0.2833 0.26307 0.40513 
0.18103 0.061172 -0.0060728 0.010369 0.017767 0.21572 0.15472 0.40365 
0.0060938 0.012506 0.0039565 0.0075736 0.019411 0.076792 0.13532 0.4145 
-0.052109 -0.0090322 -0.024652 0.085835 0.028454 -0.016595 -0.028762 0.35564 
-0.050629 0.00066819 -0.0014692 0.01826 0.037661 -0.087951 -0.15832 0.2417 
0.011684 0.016123 0.024179 0.046868 0.086492 -0.054575 -0.068386 0.17528 
0.0098754 0.055747 0.027961 0.033715 0.092411 -0.044381 0.027632 0.13039 
0.026646 0.10047 0.040785 0.068736 0.083697 -0.071345 0.075641 0.03799 
0.029441 0.079751 0.043745 0.063803 0.068736 -0.073647 0.24269 -0.19942 
0.0070803 0.042594 0.037826 0.071037 0.048841 -0.061973 0.3119 -0.58678 
0.030592 0.058377 0.057391 0.038977 0.068736 0.00297 0.14256 -0.77142 
0.016781 0.053609 0.052952 0.020727 0.047362 -0.011663 -0.12478 -0.44292 
0.013492 0.041114 0.049499 0.022864 0.056569 0.056569 -0.21915 -0.07266 
1.0539e-005 0.056076 0.062488 0.049006 0.061995 0.16064 -0.20715 0.016288 
-0.045039 0.014479 0.050321 0.046868 0.051636 0.15982 -0.19252 0.14716 
-0.091239 -0.00015387 0.028619 0.021384 0.017438 0.090767 -0.2744 0.30944 
-0.040764 0.0072447 0.022042 0.025495 0.0056006 0.031414 -0.42878 0.23644 
0.022371 0.023028 0.044567 0.0083956 0.01415 -0.039449 -0.30333 -0.20074 
0.11806 0.077449 0.052952 0.057391 0.00083261 -0.037969 0.020233 -0.39475 
0.13647 0.10819 0.063145 0.020562 0.0047785 -0.036325 0.27771 -0.031721 
0.10145 0.054596 0.045389 0.022206 -0.052766 -0.049971 0.32489 0.29694 
0.058542 0.057884 0.018754 -0.02942 -0.10801 -0.08121 0.29365 0.34923 
0.043745 0.068078 0.038483 0.014479 -0.070194 -0.073811 0.078436 0.20947 
-0.056219 -0.00064712 0.01974 0.00033937 0.021384 0.026317 -0.10094 0.030592 
-0.13316 -0.0011404 0.017767 0.026974 0.061172 0.11296 -0.053424 0.15456 
-0.058685 0.031578 0.0019835 0.037004 0.052623 0.13549 0.060022 0.3193 
0.051801 0.032564 0.0056006 0.020891 0.058377 0.159 0.10622 0.2006 
0.058542 0.01711 0.0036276 0.013492 0.054267 0.11724 0.014808 -0.14977 
0.047362 0.043416 0.014315 0.023028 0.077285 0.04506 -0.20978 -0.50474 
0.025659 0.065118 0.036017 0.08863 0.097672 -0.038627 -0.40543 -0.45344 
-0.043066 0.062817 0.03651 0.041114 0.044896 -0.24365 -0.46166 -0.18742 
-0.13662 -0.0034422 0.005765 0.0080668 -0.10752 -0.43207 -0.2009 -0.063782 
-0.097816 -0.0031133 -0.0024557 -0.010512 -0.10258 -0.27341 0.33821 0.034209 
-0.04619 0.040621 0.027139 0.063968 -0.0052507 0.11674 0.77818 0.15801 
0.014643 0.024673 0.040456 0.054925 0.06331 0.36896 0.73248 0.1687 
0.077285 0.055418 0.052294 0.078107 0.052623 0.36501 0.30418 0.15176 
0.12069 0.11378 0.048348 0.047362 0.023522 0.16377 -0.079566 0.10343 
0.13565 0.074654 0.062981 0.058213 0.020069 -0.11311 -0.43782 0.073175 
0.081889 0.027468 0.052952 0.035853 -0.034188 -0.29972 -0.61884 0.052952 
0.0059294 0.016945 0.03947 0.0082312 -0.058521 -0.29149 -0.4416 0.047033 
-0.033859 -0.008539 0.024015 0.01563 -0.035667 -0.10176 -0.10768 -0.017417 
-0.088773 0.016945 0.011684 0.01152 0.0011614 0.11132 0.063968 -0.0026201 
-0.03912 0.021384 0.043251 0.013328 0.019411 0.15144 0.071202 -0.04471 
-0.015938 0.013492 0.058871 -0.013307 0.048677 0.14568 0.036346 0.0070803 
0.01711 0.026974 0.045389 0.012506 0.055254 0.082382 -0.064275 0.056076 
0.037332 0.037004 0.068736 -0.013636 0.021549 -0.039449 -0.093541 0.036675 
0.085177 0.040785 0.061666 0.032564 -0.0016336 -0.042737 -0.017582 0.033551 
0.11411 0.05624 0.051636 0.017932 -0.011498 0.012013 0.14568 0.11115 
0.13549 0.050814 0.050814 0.017767 0.0034632 0.041114 0.20372 0.16031 
0.10425 0.0421 0.011684 0.0026412 -0.0062372 0.064461 0.20092 0.18415 
0.061337 0.064954 -0.011827 0.027139 0.015301 0.048677 0.11773 0.22098 
0.047526 0.091753 0.033551 0.033715 0.055089 0.026646 0.090603 0.2657 
0.045553 0.071202 0.048841 0.034209 0.045882 0.042758 0.12743 0.23151 
0.034373 0.098659 0.046375 0.057227 0.050814 0.086821 0.18547 0.14486 
0.029605 0.059528 0.0018191 0.014315 0.050814 0.09422 0.23101 0.097179 
0.0075736 0.032236 0.018918 0.05772 0.074983 0.14568 0.17001 0.10376 
0.029441 0.017274 0.046868 0.038812 0.098494 0.10836 0.007738 0.093891 
0.0054362 0.0037921 0.0080668 0.05476 0.075641 0.061666 -0.18561 -0.088608 
-0.016924 0.013492 0.015959 -0.0042642 0.054925 0.021549 -0.27818 -0.24743 
-0.030242 0.037168 0.016781 0.039963 0.057555 -0.085649 -0.4393 -0.20764 
0.011684 0.057555 0.016945 0.01826 0.004943 -0.15881 -0.46906 0.031085 
0.064625 0.079916 0.024673 0.027303 0.021384 -0.046519 -0.24677 0.10195 
0.11987 0.10474 0.035031 0.037826 0.042594 0.11296 0.081067 0.12233 
0.13088 0.064461 0.039799 0.032236 0.059693 0.23545 0.35071 0.16804 
0.12497 0.0689 0.042923 0.042429 0.055089 0.22 0.43308 0.10145 
0.085999 0.10655 0.035853 0.016945 0.023357 0.09126 0.35054 0.073339 
0.060186 0.079258 0.040621 0.011355 -0.018897 -0.010183 0.14601 0.093891 
0.065283 0.055254 0.022206 -0.0021268 -0.025638 -0.063782 0.099645 0.099152 
0.07597 0.047691 0.039799 0.031085 -0.0080457 -0.046354 0.12776 0.029276 
0.054925 0.025824 0.040292 0.050157 0.055911 0.0044497 0.0065871 -0.068879 
0.016781 0.036182 0.046868 0.06479 0.1179 0.10047 -0.18134 -0.058192 
0.027961 0.043416 0.056076 0.055911 0.17117 0.26357 -0.15109 0.093726 
0.015794 -0.010183 0.047197 0.082053 0.18333 0.30483 -0.17657 0.16064 
-0.047834 0.04506 0.046704 0.052294 0.10902 0.14075 -0.25467 0.051472 
-0.073811 0.037826 0.065118 0.06331 0.06742 0.0059294 -0.34329 -0.095185 
-0.052109 0.085177 0.062323 0.050157 0.0592 -0.0054151 -0.26437 -0.13103 
0.0059294 0.09274 0.048348 0.028619 0.030756 -0.0060728 0.19566 -0.089759 
0.058871 0.03651 0.0074092 0.0013258 -0.0022913 0.030427 0.68923 0.0095465 
0.08715 -0.0019624 0.010697 -0.010512 -0.030735 0.07597 0.889 0.086163 
0.11674 0.010204 0.0026412 -0.0042642 -0.014458 0.11937 0.70568 0.12003 
0.10491 0.013164 0.0031344 0.0037921 -0.0078813 0.046704 0.32045 -0.0022913 
0.051472 0.066598 0.050321 0.042758 -0.0072237 -0.059507 -0.30037 -0.13053 
0.093398 0.095864 0.043909 0.038812 0.067256 0.01974 -0.57873 -0.13218 
0.06742 0.032893 0.047526 0.089452 0.14502 0.17971 -0.33079 -0.10406 
0.012342 0.037826 0.018589 0.066269 0.15324 0.21293 -0.22885 -0.12297 
-0.0095255 0.036675 -0.0087034 0.077121 0.13697 0.11099 -0.24365 -0.094034 
0.055254 0.020069 -0.0019624 0.0072447 0.053116 0.0064227 -0.47926 -0.050958 
0.1077 0.042594 0.0042853 0.017603 0.025001 -0.032708 -0.48106 0.038648 
0.022371 0.048841 0.019905 -0.0039354 -0.026789 -0.16523 -0.12905 0.095371 
-0.10324 0.0074092 0.01267 0.0021479 -0.040928 -0.3395 0.31404 0.041607 
-0.20584 -0.038133 0.009711 -0.027447 -0.085813 -0.4735 0.78525 -0.056055 
-0.22622 -0.033201 -0.012485 -0.019061 -0.11853 -0.32915 1.1956 -0.049314 
-0.13382 -0.07562 -0.0013048 -0.0091966 -0.11311 -0.11491 1.1029 0.050814 
-0.0088678 -0.030242 -0.0013048 -0.0075525 -0.084334 -0.03205 0.67312 0.16081 
0.069393 0.020069 0.024179 0.032564 -0.017582 0.12003 0.39362 0.20405 
0.16689 0.10228 0.063145 0.054925 0.048019 0.21326 0.19155 0.29793 
0.26439 0.17248 0.060844 0.095206 0.053609 0.22279 0.038319 0.3313 
0.16919 0.09981 0.042265 0.031578 0.036017 0.10096 -0.24825 0.15587 
0.049499 0.0042853 -0.0032777 0.0032988 0.023851 0.0047785 -0.48764 0.0098754 
-0.036983 -0.02498 -0.00081153 0.004943 0.018754 0.038977 -0.48271 -0.084991 
-0.079566 -0.017253 0.031742 0.036017 0.025166 0.049828 -0.38209 -0.30169 
-0.062631 0.017767 0.052459 0.016616 0.021056 0.023193 -0.23083 -0.41004 
-0.055232 0.086657 0.077778 0.015465 0.0011614 -0.013471 -0.021692 -0.27325 
-0.057534 0.065447 0.072024 0.034209 0.018918 -0.035996 0.066105 -0.035503 
-0.032215 0.060844 0.067256 0.047033 0.032893 -0.027775 0.10178 0.052294 
0.028454 0.062488 0.036675 0.062817 0.039963 -0.0022913 0.1664 -0.064933 
0.080902 0.041772 0.0087245 0.029934 0.037332 0.060022 0.20191 0.036017 
0.044238 0.016288 0.0067515 0.036182 0.013657 0.08156 0.19517 0.22559 
-0.017582 0.034537 0.016945 0.0064227 0.031742 0.085999 0.10556 0.2366 
-0.063124 0.027139 0.037168 0.056733 0.066927 0.075641 0.071202 0.18876 
-0.035996 0.036839 0.01415 0.030263 0.054267 -0.035503 0.060679 0.16886 
0.007738 0.041936 -0.023665 0.054432 0.040128 -0.096994 -0.012978 0.12957 
0.053281 0.044238 -0.0082102 0.0079024 0.0092177 -0.055232 -0.11491 0.075641 
0.10918 0.11609 0.029605 0.0014903 -0.029748 -0.089759 -0.20912 0.034702 
0.1248 0.08715 0.037497 -0.009361 -0.021692 -0.2014 -0.26733 -0.031064 
0.050979 0.040621 0.033551 0.012506 -0.067399 -0.2984 -0.27374 -0.12264 
0.048019 0.012835 0.030098 0.0088889 -0.11738 -0.30218 -0.12955 -0.17706 
0.037004 -0.003771 0.015959 -0.0138 -0.13793 -0.19104 0.0090533 -0.09239 
0.024837 -0.0011404 -0.011005 -0.029255 -0.15224 -0.055561 0.083862 0.089123 
0.068736 0.060679 0.00099702 -0.050629 -0.099953 0.076792 0.16903 0.23364 
0.14404 0.10869 0.033715 0.014479 -0.017911 0.18728 0.30138 0.25929 
0.18152 0.19122 0.050157 -0.00097594 0.085506 0.27162 0.25732 0.16229 
0.092576 0.13302 0.048184 0.089452 0.1322 0.25123 0.018425 -0.04619 
0.062323 0.078436 0.045553 0.059857 0.15226 0.18646 -0.20123 -0.27752 
0.028454 0.092576 0.0421 0.044073 0.13121 0.11 -0.34772 -0.29643 
0.019083 0.083368 0.054925 0.041772 0.10951 0.073997 -0.29297 -0.049314 
-0.023007 -0.00064712 0.04917 0.026974 0.097179 0.087479 -0.21882 0.24236 
-0.074633 0.0011614 0.04506 0.043416 0.085999 0.055582 -0.19646 0.25041 
-0.039942 0.015137 0.033715 -0.0072237 0.055911 0.036839 -0.19252 0.0421 
-0.0083746 0.042758 0.053938 0.045553 0.050486 0.066927 -0.1182 -0.049971 
0.020233 0.047526 0.061337 0.033058 0.060022 0.071366 -0.022843 -0.11491 
0.034209 0.052952 0.046868 0.037497 0.063145 0.10524 0.019905 -0.30185 
0.044238 0.027303 0.055089 0.023522 0.087808 0.15456 0.055911 -0.4102 
0.080409 0.031742 0.037826 0.048513 0.081724 0.20668 0.17988 -0.24266 
0.11247 0.056404 0.023357 0.039141 0.066598 0.19731 0.18136 -0.11491 
0.11905 0.041114 0.020562 0.064461 0.08419 0.15834 -0.063782 0.04654 
0.13845 0.062159 0.051965 0.042758 0.091918 0.04506 -0.37732 0.25321 
0.14338 0.033222 0.027796 0.045224 0.066269 -0.039942 -0.60635 0.38967 
0.088958 -0.028762 0.0093821 0.015137 0.054267 -0.12264 -0.68494 0.34462 
0.066269 0.010697 0.0034632 0.012013 0.048677 -0.13547 -0.68395 0.16508 
0.10589 0.049828 0.0069159 0.03536 0.081231 0.0021479 -0.64137 0.13598 
0.10507 0.078272 0.034702 0.034866 0.071531 0.15456 -0.20666 0.13401 
0.029934 0.10408 0.053281 0.057227 0.062159 0.28741 0.33607 0.03799 
-0.04323 0.055911 0.050486 0.038812 0.018918 0.28313 0.56198 0.021056 
-0.0138 0.048348 0.041607 0.041772 0.0085601 0.10195 0.29086 0.098494 
0.04095 0.085835 0.024344 0.0090533 -0.038298 -0.182 0.12085 0.14026 
0.062981 0.052294 0.032071 0.0087245 -0.10834 -0.42352 0.37816 0.082875 
-0.015116 -0.019061 0.0047785 -0.040271 -0.15158 -0.49142 0.6113 -0.15405 
-0.032379 -0.017088 0.0016547 0.028619 -0.078415 -0.37156 0.71686 -0.24809 
-0.060494 -0.025309 0.022535 0.030427 0.0069159 -0.17657 0.65405 -0.1016 
-0.048985 -0.013307 0.0041209 0.044567 0.02533 0.011355 0.56148 0.068736 
0.0026412 0.026974 -0.020541 0.012999 -0.0059084 0.16706 0.69992 0.25025 
0.07301 0.062981 0.023851 0.012506 -0.0022913 0.21506 0.51611 0.29875 
0.12628 0.11395 0.053938 0.024508 0.049006 0.27968 0.12102 0.14141 
0.099481 0.11872 0.088136 0.044073 0.094713 0.36978 -0.17493 -0.14089 
0.039141 0.07449 0.081231 0.068407 0.14946 0.41795 -0.32849 -0.3594 
0.041607 0.037661 0.070708 0.064296 0.14404 0.34084 -0.40198 -0.12363 
0.023522 -0.010841 0.050321 0.076134 0.1391 0.2366 -0.18413 0.12562 
-0.0031133 -0.045039 0.049335 0.031742 0.12053 0.1396 0.078436 0.22148 
-0.066741 -0.012485 0.010204 0.049992 0.10787 0.053774 -0.060823 0.18399 
-0.11327 0.0034632 0.025001 0.0070803 0.081067 -0.031064 -0.34526 0.19764 
-0.13333 -0.034845 0.037661 0.038155 0.05213 -0.21406 -0.41859 0.22887 
-0.03764 0.075641 0.037004 0.0072447 0.01974 -0.33967 -0.014951 0.2736 
0.060022 0.1174 0.062488 0.037004 -0.0098543 -0.29972 0.30664 0.27475 
0.078929 0.13582 0.056733 0.041772 0.0018191 -0.21751 0.4755 0.17018 
0.062159 0.056076 0.035524 0.04358 -0.040764 -0.16029 0.47698 0.081231 
-0.0031133 -0.041257 -0.0042642 0.00017495 -0.014951 -0.044874 0.53403 0.0044497 
0.0227 -0.021528 -0.0050863 -0.0057439 -0.040764 0.042758 0.63498 0.016288 
0.077614 0.026152 0.017603 -0.0138 -0.087458 0.11954 0.69844 -0.026296 
0.086492 0.08304 0.038155 -0.014951 -0.054904 0.15242 0.54899 -0.12462 
0.025001 0.047197 0.033387 0.037826 -0.032215 0.15144 0.38507 -0.33457 
-0.054904 0.054925 0.025988 0.025166 0.0054362 0.18777 0.15801 -0.27489 
-0.09387 -0.0024557 -0.01232 0.0421 0.035195 0.18021 0.0026412 0.036839 
-0.006566 0.028454 0.0054362 0.017932 0.046868 0.065447 -0.22754 0.30467 
0.087479 0.062159 0.017767 0.055747 0.062817 -0.12067 -0.52529 0.32752 
0.10376 0.084519 0.020727 0.017603 0.048348 -0.26371 -0.64564 0.051472 
0.060515 0.094713 0.013986 0.028454 0.026974 -0.33424 -0.5146 -0.10604 
-0.013307 0.031414 0.00297 -0.0022913 -0.052273 -0.29758 -0.21702 -0.0771 
-0.024487 -0.0034422 0.011026 -0.0078813 -0.071016 -0.092719 0.2052 -0.028104 
0.022042 0.045882 0.039634 0.014315 -0.012649 0.19369 0.58286 -0.023501 
0.034044 0.082546 0.062159 0.036182 0.032236 0.34314 0.67148 -0.028926 
-0.00081153 0.093726 0.062159 0.065776 0.023193 0.24515 0.50772 -0.041422 
-0.055726 0.099974 0.049006 0.044073 0.031085 0.074983 0.19122 -0.038956 
-0.057041 0.060022 0.058049 0.061172 0.017274 0.01152 -0.29626 -0.018733 
-0.0039354 0.034373 0.041936 0.030427 0.035031 -0.039778 -0.8436 0.079094 
0.04654 0.067913 0.039141 0.02829 0.031085 -0.099295 -0.887 0.20158 
0.058542 0.0039565 0.023686 0.0024767 0.062817 -0.065591 -0.54732 0.11494 
0.064461 0.0092177 0.026974 0.025495 0.06183 0.014315 -0.16342 -0.033037 
0.068078 0.037826 0.03799 0.0036276 0.055089 0.06035 -0.021199 -0.1501 
0.058706 0.068078 0.044896 0.0064227 0.044073 0.022371 -0.059014 -0.14681 
0.075805 0.08715 0.039634 0.0060938 0.045553 -0.072825 -0.21356 -0.093212 
0.049992 0.093562 0.060186 0.034209 0.038155 -0.073154 -0.16095 -0.061316 
0.094055 0.061172 0.057555 0.075805 0.054432 0.04095 0.159 -0.068714 
0.073175 0.064296 0.04095 0.095864 0.048184 0.1544 0.30582 -0.041586 
0.05476 0.056076 0.039634 0.088301 0.06742 0.24466 0.31733 0.0072447 
0.053774 0.053938 0.03388 0.063145 0.068078 0.27606 0.2486 0.11165 
0.036017 0.070708 0.037168 0.05772 0.052787 0.25995 0.098823 0.20191 
0.0090533 0.063803 0.041443 0.031249 0.039141 0.11954 -0.12725 0.16788 
-0.038791 0.013328 0.013164 0.03092 -0.0091966 -0.078908 -0.30547 0.03388 
-0.075784 0.028619 -0.0024557 -0.026131 -0.028762 -0.13596 -0.4273 -0.080552 
-0.053588 0.027632 -0.02087 -0.008539 -0.010841 -0.13859 -0.46265 -0.1427 
0.029769 0.031907 -0.021363 -0.031228 -0.033694 -0.17542 -0.40642 -0.13251 
0.070215 0.051801 -0.031721 -0.012485 -0.050136 -0.24842 -0.29988 -0.062631 
0.091096 1.0539e-005 -0.0016336 0.00033937 -0.040928 -0.21307 -0.043066 0.011848 
0.040456 -0.038462 0.028947 0.027468 -0.0091966 -0.083347 0.20372 0.012013 
0.027632 0.036346 0.024344 0.027961 0.012177 0.10803 0.18711 0.044402 
0.021056 0.070215 0.0060938 0.033551 0.011191 0.16097 0.086985 0.020562 
0.060844 0.11444 0.031085 0.04506 0.058871 0.18235 0.073175 0.10803 
0.093726 0.11214 0.035524 0.043745 0.097837 0.1664 0.053116 0.19172 
0.044238 -0.011827 0.016288 0.072846 0.099316 0.11987 0.071531 0.2394 
-0.016595 -0.045368 0.011355 0.034373 0.096686 0.065283 0.02533 0.25551 
0.023193 0.013986 0.026152 0.065447 0.08156 0.043745 -0.029584 0.20471 
0.051636 0.051472 0.081067 0.040785 0.063639 0.017438 -0.00064712 0.20783 
0.033222 0.058377 0.079587 0.057062 0.055418 0.017932 0.085177 0.13499 
0.0070803 0.075805 0.076134 0.038648 0.032564 0.028619 0.13319 -0.073154 
-0.029255 0.028783 0.057884 0.0052718 0.028619 0.012177 0.13828 -0.24102 
-0.021856 0.044896 0.065612 0.031742 0.029769 0.041114 0.16196 -0.37535 
0.051636 0.034702 0.055418 0.039634 0.052952 0.057391 0.12003 -0.36548 
0.12069 0.021549 0.047691 0.056404 0.079258 0.070873 0.10293 -0.090746 
0.13121 0.025824 0.026317 0.018754 0.028947 0.049664 0.14617 0.18432 
0.1636 0.020069 0.0067515 0.015137 -0.0091966 0.0011614 0.17758 0.29892 
0.11987 0.027139 -0.0032777 -0.023994 0.0037921 -0.011334 0.16377 0.27984 
0.055747 0.060844 0.014808 0.024508 0.030756 0.061501 0.0786 0.22789 
0.016123 0.075312 0.013328 0.017932 0.045882 0.087643 -0.10061 0.18119 
0.0065871 0.074654 0.027303 0.06035 0.050157 0.11214 -0.19022 0.08978 
-0.018239 0.083204 0.031742 0.032729 0.060186 0.091425 -0.13826 -0.082032 
-0.027611 0.061666 0.026974 0.033222 0.042594 0.01267 0.088794 -0.11196 
-0.040928 0.032236 0.034209 0.0060938 0.031085 0.034537 0.35136 -0.035503 
1.0539e-005 0.047362 0.027796 0.0074092 0.03947 0.07301 0.46267 0.070215 
-0.0090322 -0.0044286 0.028783 0.0090533 0.043251 0.08008 0.3489 0.12464 
-0.018568 -0.021856 0.0062583 0.0021479 0.021384 0.12036 0.17133 0.071531 
-0.088444 -0.025309 0.016781 0.018918 0.010533 0.16722 -0.0054151 -0.0027845 
-0.12363 -0.04619 0.0032988 0.0087245 0.030592 0.15193 -0.14007 -0.11639 
-0.15602 -0.025145 -0.0011404 0.03947 0.027632 0.10852 -0.17262 -0.21225 
-0.041915 0.066763 0.032729 0.017438 0.041443 0.027796 -0.18956 -0.12231 
0.14305 0.099316 0.052623 0.069064 0.045553 -0.018897 0.01826 0.073832 
0.20964 0.12233 0.056076 0.035031 0.035853 -0.071674 0.09833 0.18613 
0.19813 0.12842 0.051308 0.060186 0.03092 -0.13021 0.27195 0.24186 
0.13598 0.090931 0.043909 0.018096 0.031249 -0.133 0.46201 0.18465 
0.057555 0.045389 0.033715 0.023522 0.01563 -0.080717 0.44491 0.094877 
0.01267 -0.0011404 0.021384 -0.011827 -0.014787 -0.060823 0.18169 0.059528 
0.014972 -0.0059084 0.03799 0.004943 -0.010676 -0.073482 -0.029584 0.070708 
0.057062 0.059693 0.10819 0.019576 -0.025309 -0.041586 0.047691 0.17511 
0.04095 0.063145 0.091425 0.047033 0.0067515 -0.021856 0.21621 0.17051 
-0.08532 0.046704 0.057062 0.032729 -0.014293 0.063474 0.2103 -0.043724 
-0.16539 0.0065871 0.024344 0.013657 0.007738 0.12792 0.071202 -0.145 
-0.14846 -0.0050863 0.026646 0.04917 0.009711 0.10145 -0.045039 -0.13399 
-0.052109 0.042429 0.039634 0.038483 0.047362 0.1271 -0.051287 -0.10505 
0.062488 0.10063 0.026317 0.068078 0.065283 0.12365 -0.13284 -0.26009 
0.10655 0.064461 0.046868 0.0324 0.05624 0.070708 -0.20797 -0.48254 
0.13203 0.032071 0.031907 0.048348 0.041772 0.00033937 -0.17657 -0.43388 
0.16919 0.081067 0.030427 0.012177 0.022206 -0.060165 -0.10489 -0.089759 
0.18251 0.10326 0.034702 -0.00097594 -0.0029489 -0.058356 -0.082525 0.1909 
0.11444 0.068078 0.046211 -0.0087034 -0.011005 -0.02235 -0.17673 0.16459 
0.0047785 0.013492 0.037661 -0.0057439 0.015794 -0.0068948 -0.093212 0.029441 
-0.034516 -0.044381 -0.0060728 0.010697 0.02829 -0.0042642 0.077285 0.11083 
-0.019555 0.011355 -0.009361 0.025001 0.022864 0.00050378 0.24055 0.27557 
-0.013471 0.028454 0.011191 0.034866 0.014315 -0.03764 0.24433 0.32687 
0.039141 0.031085 0.019905 0.023522 0.010862 -0.043559 0.14469 0.25337 
0.060186 0.062652 0.025001 0.069393 0.01826 -0.059836 0.20191 0.17363 
0.12349 0.092904 0.026646 0.047033 0.032236 -0.061316 0.31223 0.10787 
0.15144 0.11181 0.038648 0.053445 0.035195 -0.030406 0.22559 0.041114 
0.09833 0.093891 0.045389 0.042594 0.040292 0.16475 0.10162 -0.00081153 
-0.012485 0.064296 0.062323 0.075312 0.054267 0.2731 -0.013143 -0.03501 
-0.026296 0.032729 0.049828 0.047197 0.07449 0.317 -0.10406 -0.051451 
-0.02498 0.061008 0.041114 0.048348 0.078765 0.2029 -0.13432 -0.042079 
-0.012649 0.027632 0.027632 0.038648 0.086492 0.06183 -0.096994 -0.08384 
-0.05737 0.020562 0.01267 0.015301 0.070708 -0.011334 -0.15684 -0.16588 
-0.07825 0.045882 0.024508 0.01974 0.048019 -0.14254 -0.28541 -0.14665 
-0.035338 0.060679 0.039634 0.015794 0.0041209 -0.30087 -0.51263 -0.058192 
0.049006 0.060515 0.022864 0.028947 -0.021528 -0.37189 -0.35742 -0.017417 
0.11888 0.043251 0.0082312 0.0028056 -0.045696 -0.26157 0.096686 -0.017582 
0.085177 0.0067515 0.045553 0.034866 -0.086471 -0.0771 0.50575 -0.076113 
0.092904 0.02829 0.060679 0.0021479 -0.047341 0.10228 0.46958 0.092082 
0.14897 0.094055 0.081889 0.051308 -0.051122 0.056404 0.082053 0.30171 
0.14765 0.09685 0.069229 0.00099702 -0.093705 -0.096007 -0.19877 0.43045 
0.15407 0.047526 0.033222 -0.0064016 -0.1016 -0.17164 -0.54075 0.41598 
0.068078 0.023028 0.02122 0.0060938 -0.058685 -0.1233 -0.65666 0.31125 
0.044402 0.023028 0.020233 0.027139 0.013986 0.050814 -0.2545 0.21062 
0.076299 0.076299 0.025824 0.075148 0.11477 0.16673 0.046704 0.054925 
0.086985 0.071366 0.027632 0.05213 0.15851 0.10178 0.030592 -0.12462 
0.066105 0.052294 -0.0091966 0.030263 0.1197 0.067091 0.053938 -0.1889 
-0.023994 0.063639 0.014643 0.004943 0.0075736 0.016452 -0.027282 -0.1667 
-0.078415 0.086985 0.007738 -0.013307 -0.038462 -0.0503 0.071859 -0.12346 
-0.1353 0.075641 -0.012156 -0.012814 -0.062138 -0.067235 0.41236 -0.058521 
-0.19564 0.024015 -0.011498 0.029605 -0.020212 -0.003771 0.69137 -0.02235 
-0.1621 -0.028597 -0.022185 0.060844 0.025988 0.089287 0.68989 -0.046519 
-0.059014 -0.029748 0.011191 0.08567 0.056733 0.19731 0.38622 0.016123 
0.080409 0.065283 0.036182 0.049992 0.043416 0.1733 0.020398 0.16837 
0.14371 0.09274 0.027139 0.044567 0.035195 0.090767 -0.26683 0.25173 
0.1128 0.093562 0.034209 0.044896 0.036017 0.013328 -0.31533 0.2662 
0.062652 0.084355 0.058213 0.038155 0.040128 -0.054082 -0.23642 0.037332 
0.004943 0.035031 0.054432 0.033715 0.042429 -0.082032 -0.2254 -0.040271 
0.016452 0.015301 0.035688 0.020891 0.038483 -0.056712 -0.21208 0.079094 
0.048348 0.048513 0.010533 0.016781 0.039305 -0.013471 -0.070852 0.19583 
0.046211 0.01974 0.01004 0.0011614 0.047197 0.096357 0.077614 0.25469 
0.036346 0.031414 0.021878 0.036017 0.047526 0.17265 0.055418 0.20454 
0.051472 0.063639 0.030756 0.007738 0.050814 0.22296 -0.08828 0.10852 
0.02829 0.030098 0.02829 0.025659 0.033551 0.20323 -0.17476 0.043745 
0.0026412 0.02681 0.024344 -0.0039354 0.025659 0.13713 -0.079072 0.054267 
-0.0064016 0.066269 0.043251 0.042265 0.040621 0.10869 0.069393 0.09126 
-0.057534 0.048348 0.0324 0.02533 0.031907 0.05065 0.03651 -0.020541 
-0.025967 0.058213 0.071531 0.055747 0.0021479 -0.16835 -0.16523 -0.13941 
0.019247 0.071695 0.077121 0.010533 0.010862 -0.36203 -0.15043 -0.19104 
0.004943 0.038648 0.027961 -0.0004827 -0.016595 -0.39475 0.14469 -0.28574 
-0.084334 -0.021692 -0.010019 -0.039613 -0.045696 -0.303 0.45774 -0.58251 
-0.11837 -0.018897 -0.015444 -0.030899 -0.054246 -0.059507 0.6483 -0.47136 
-0.012485 0.016288 0.024179 0.014643 -0.049149 0.19468 0.72886 0.045718 
0.094548 0.089616 0.03651 0.033551 -0.016266 0.33739 0.60242 0.37241 
0.16262 0.11132 0.062323 0.060679 0.027303 0.37997 0.16886 0.43242 
0.19336 0.10754 0.062652 0.071695 0.10408 0.38869 -0.41135 0.30598 
0.18925 0.1151 0.064132 0.083533 0.14913 0.32654 -0.53499 0.20092 
0.16952 0.053116 0.04095 0.046704 0.16245 0.29924 -0.26897 0.17445 
0.10096 -0.0019624 0.027632 0.054596 0.12727 0.27261 0.01267 0.057062 
-0.038462 0.034866 0.0059294 0.015465 0.097015 0.13943 0.12135 -0.15931 
-0.091075 0.018425 0.026481 0.049828 0.063639 -0.009361 0.038319 -0.23494 
-0.10669 -0.035503 0.0072447 0.0080668 0.043251 -0.24184 -0.1575 -0.22145 
-0.14287 -0.038133 -0.0072237 0.022864 0.024508 -0.43585 -0.29002 -0.15881 
-0.1621 -0.045532 0.0013258 0.01267 0.011355 -0.42368 -0.13218 -0.24299 
-0.11459 -0.0013048 0.01974 0.018918 0.01711 -0.11689 0.33278 -0.29133 
-0.027282 0.082546 0.061172 0.034866 0.059693 0.24696 0.70025 0.12201 
0.068736 0.11428 0.045224 0.048677 0.052787 0.44179 0.50262 0.4408 
0.12628 0.085012 0.047033 0.042265 0.018918 0.2685 -0.098638 0.37767 
0.07038 0.081724 0.06183 0.036182 -0.025638 0.11806 -0.38126 0.15768 
0.10754 0.064461 0.06035 0.088465 0.0018191 -0.011005 -0.3862 0.00017495 
0.13532 0.082217 0.056076 0.04095 0.028619 -0.10719 -0.30876 0.023522 
0.14321 0.066105 0.049664 0.069886 0.069558 -0.11705 -0.28755 0.024015 
0.10113 0.023851 0.03799 0.021878 0.075148 -0.033201 -0.066413 -0.19054 
0.11543 0.046868 0.029276 0.01711 0.050157 0.083533 0.34577 -0.43552 
0.1419 0.023028 0.019576 0.010369 0.040785 0.17544 0.51512 -0.38669 
0.10063 0.031085 0.060844 0.029605 0.055911 0.15094 0.42305 -0.0021268 
0.047526 0.087314 0.06183 0.052623 0.079094 0.076627 0.21243 0.3124 
0.010862 0.095042 0.082217 0.048677 0.069558 -0.0062372 -0.21702 0.42864 
-0.042408 0.05772 0.050486 0.064954 0.021056 -0.1136 -0.53779 0.33328 
-0.068221 0.031907 0.050321 0.047691 -0.041915 -0.14665 -0.38505 0.18004 
-0.071509 -0.033694 0.01267 0.049828 -0.021692 -0.16161 -0.17197 0.041772 
-0.052766 -0.056712 0.012013 0.01826 -0.010512 -0.1815 0.013657 -0.22672 
-0.049642 -0.019226 -0.012485 0.033715 -0.0072237 -0.11656 0.16886 -0.51345 
-0.01939 1.0539e-005 -0.019555 -0.017253 -0.055232 -0.070687 0.29217 -0.36647 
0.012835 0.050814 0.019905 -0.0096899 -0.11015 -0.080552 0.42913 0.056076 
0.036839 0.069064 0.022206 0.0082312 -0.04619 -0.017746 0.42617 0.31947 
0.098988 0.066105 0.034373 0.042265 0.025001 0.090603 0.34084 0.32473 
0.12612 0.071037 0.064132 0.068736 0.085506 0.13072 0.13795 0.32078 
0.1567 0.11 0.088958 0.086492 0.093891 0.16377 -0.0036066 0.32917 
0.171 0.12513 0.076956 0.072353 0.084848 0.1294 -0.10735 0.28642 
0.11921 0.14371 0.043087 0.037332 0.063145 0.018754 -0.20288 0.1756 
0.08156 0.10606 0.034209 0.023357 0.0036276 -0.042079 -0.29117 0.073832 
0.012999 0.00033937 0.0083956 -0.0059084 -0.0098543 -0.069043 -0.43881 0.035853 
-0.025309 -0.024816 -0.006566 0.026481 0.032071 -0.026624 -0.47597 0.069886 
-0.0087034 0.0052718 0.005765 0.035853 0.083862 0.067913 -0.37107 0.026152 
0.028454 0.019576 0.021056 0.07449 0.077614 0.09126 -0.16818 -0.098309 
0.070708 0.027796 0.035524 0.056733 0.054596 0.095699 0.13121 -0.24694 
0.059364 -0.0070593 0.033715 0.065447 0.039305 0.12332 0.36567 -0.32092 
0.03092 -0.02235 -0.0095255 0.0046141 0.057555 0.071695 0.40874 -0.16013 
-0.066741 0.07038 -0.0050863 0.020069 0.037661 0.015465 0.28724 -0.011663 
-0.10357 0.11214 0.020727 0.020233 0.044731 -0.051944 0.11609 0.047691 
-0.051451 0.088136 0.053774 0.022535 0.036675 -0.12889 -0.04882 0.11083 
0.034044 0.071695 0.070708 0.024015 0.019411 -0.11064 -0.019061 0.14206 
0.1077 0.056733 0.10244 0.018754 0.024015 0.053281 0.12135 0.049335 
0.13943 0.045389 0.097508 0.058706 0.054925 0.19402 0.25173 -0.060987 
0.096357 0.019247 0.10376 0.070873 0.072517 0.27294 0.16048 -0.16457 
0.029276 -0.0060728 0.05065 0.086492 0.066598 0.32193 -0.1547 0.041772 
0.014643 -0.025145 0.034373 0.0024767 -0.01676 0.39592 -0.32635 0.32012 
0.053445 0.016288 -0.0052507 0.038483 0.025001 0.41433 -0.11623 0.47599 
0.097179 0.024344 -0.015116 0.0082312 0.045553 0.31421 0.10376 0.40562 
0.1567 0.049499 0.0011614 0.060515 0.096028 0.16738 0.10474 0.2828 
0.15637 0.09274 0.038977 0.03799 0.075641 -0.016924 -0.21734 0.13795 
0.075476 0.06594 0.017603 0.0014903 -0.00031829 -0.42763 -0.52085 -0.21619 
-0.068714 0.043745 0.0079024 -0.077428 -0.16391 -0.91873 -0.63052 -0.60306 
-0.13777 -0.011334 -0.016266 -0.085813 -0.19794 -0.92383 -0.08828 -0.58152 
-0.071509 -0.0052507 0.0085601 -0.019555 -0.12675 -0.56294 0.85677 -0.25582 
0.018918 0.043416 0.029441 0.021384 -0.055232 -0.19318 1.2877 -0.050958 
0.05624 0.073668 0.058377 0.053609 -0.016102 0.18744 1.313 0.19418 
0.0592 0.10524 0.074654 0.043416 0.010862 0.41828 1.0674 0.37076 
0.10047 0.12973 0.0592 0.034866 -0.026789 0.41976 0.54702 0.317 
0.030592 0.051472 0.026974 -0.0011404 -0.047012 0.24828 -0.13991 0.062323 
-0.14155 -0.05441 -0.025309 0.011355 -0.040271 0.11329 -0.60092 -0.17427 
-0.20732 -0.017088 -0.034352 -0.043559 -0.018404 0.099974 -0.7262 -0.37798 
-0.065262 0.064296 0.0074092 0.0095465 0.036675 0.092082 -0.62936 -0.2203 
0.13105 0.085835 0.044073 0.0074092 0.068078 0.022042 -0.50162 0.086821 
0.18333 0.04917 0.042429 0.06035 0.10195 0.021549 -0.33967 0.2297 
0.10195 0.017438 0.024179 0.039634 0.13302 0.02829 -0.17641 0.22476 
0.034537 0.055911 0.026974 0.044073 0.10704 0.027139 0.025824 0.14305 
0.044073 0.12644 0.044073 0.042594 0.068407 -0.0032777 0.25896 0.12497 
0.062981 0.11461 0.057062 0.0054362 0.034702 -0.056877 0.37339 0.088301 
0.030263 0.085999 0.0786 0.027139 0.013328 -0.081045 0.34791 0.037332 
-0.017088 0.033058 0.071859 0.00066819 -0.031228 -0.086307 0.31519 0.027961 
-0.10127 0.010533 0.045882 0.01563 -0.038462 -0.11738 0.29957 -0.0026201 
-0.10193 -0.0011404 0.038319 -0.0027845 -0.041915 -0.12198 0.26587 -0.068386 
-0.032872 0.030098 0.034866 0.019083 -0.025638 -0.068057 0.32571 -0.063782 
0.030756 0.024508 0.0085601 0.0065871 -0.018733 -0.041422 0.32604 -0.033859 
0.043909 0.034537 0.0085601 0.038812 -0.021856 -0.011992 0.16508 0.014972 
0.047197 0.0034632 0.012177 0.0093821 -0.0027845 0.027796 -0.090088 0.063639 
0.053445 0.026974 0.025659 0.02829 0.034209 0.062652 -0.28311 0.059035 
0.044567 0.034209 0.013821 0.026481 0.061172 0.15686 -0.51773 0.074983 
0.031742 -0.003771 -0.00097594 0.026152 0.08978 0.19188 -0.54124 0.17544 
0.043909 0.034866 0.0032988 0.044731 0.085177 0.17067 -0.303 0.29332 
0.039963 0.13615 0.032729 0.039799 0.092082 0.14256 -0.077593 0.26669 
0.031414 0.11263 0.024015 0.037826 0.084519 0.053281 0.069393 0.07038 
0.10556 0.11888 0.050814 0.03388 0.08863 -0.030242 0.12135 -0.14336 
0.17429 0.13023 0.05476 0.078436 0.072024 -0.15783 0.054267 -0.22852 
0.13056 0.051801 0.032236 0.039141 0.0044497 -0.25697 0.080902 -0.34904 
-0.0059084 0.00033937 0.0046141 0.048019 -0.076771 -0.11409 0.30237 -0.53137 
-0.11672 -0.018568 -0.012814 -0.030735 -0.11935 0.0041209 0.40628 -0.303 
-0.10456 -0.023172 -0.0036066 0.041443 -0.079895 0.12381 0.25173 0.16262 
-0.07825 0.0093821 0.022535 0.018096 0.034537 0.20076 0.0324 0.3244 
-0.053917 0.050814 0.027796 0.052294 0.10984 0.22049 -0.22902 0.33081 
-0.059178 0.047362 0.032893 0.051472 0.1248 0.19024 -0.41661 0.2856 
-0.056548 0.068242 0.041772 0.0689 0.14617 0.18695 -0.38932 0.2948 
-0.019061 0.047362 0.055254 0.080244 0.16853 0.17495 -0.36515 0.35514 
0.014315 0.02122 0.058213 0.078929 0.16196 0.059364 -0.29511 0.29234 
0.01826 0.037661 0.051636 0.06331 0.1248 0.067091 -0.16325 0.1419 
0.057555 0.042758 0.075148 0.041443 0.1003 0.087808 -0.033201 0.012177 
0.15703 0.038155 0.058377 0.043745 0.050814 0.041443 -0.034352 -0.10982 
0.18761 0.04917 0.045553 0.018096 0.037168 0.036675 0.087643 -0.16868 
0.13417 0.019247 0.038483 0.048841 0.01826 0.054925 0.29579 -0.24579 
0.10359 0.013492 0.06331 0.031249 0.011355 0.073668 0.30385 -0.30827 
0.035031 0.050979 0.067749 0.007738 0.0069159 0.098988 0.15324 -0.2014 
-0.006566 0.012506 0.027468 0.017603 0.0059294 0.039141 0.032071 -0.014129 
-0.022021 0.028619 0.020398 0.0070803 0.011026 0.021878 -0.060494 0.10491 
0.030263 0.085341 0.0079024 0.025824 0.042429 0.037661 -0.11804 0.1544 
0.033551 0.066105 0.0059294 0.023028 0.064132 0.047033 -0.091897 0.12381 
0.038977 0.037332 0.0064227 0.038155 0.062817 0.053938 -0.055397 0.087479 
0.030263 0.033222 0.031907 0.036675 0.048348 0.033222 -0.0064016 0.053281 
0.055582 0.018425 0.025659 0.055582 0.033715 -0.010183 0.013492 -0.0029489 
0.068242 0.03388 0.043087 0.032729 0.04358 0.021878 0.042265 -0.0040998 
0.071202 0.057884 0.035524 0.055418 0.029769 0.060515 0.080573 0.014972 
0.038155 0.018918 0.011026 0.021384 0.011355 0.089945 0.084355 -0.012485 
0.010369 -0.0072237 0.0064227 -0.0004827 -0.017253 0.061666 -0.028104 -0.016431 
0.0227 0.035524 0.026974 0.0046141 -0.026624 -0.042408 -0.058028 0.013657 
0.034537 0.065283 0.056569 0.035195 -0.034516 -0.10752 0.042758 0.074161 
0.075148 0.10721 0.051472 0.048019 -0.023007 -0.06296 0.13647 0.10918 
0.074983 0.084684 0.042758 0.03799 0.013821 -0.0034422 0.14075 0.055582 
0.0082312 0.049335 0.019576 0.042758 0.026974 -0.061151 0.088136 -0.022185 
-0.022021 0.057391 -0.0068948 0.016288 0.0064227 -0.086142 0.1008 -0.063946 
-0.021034 0.035853 -0.0036066 0.013821 0.009711 -0.047998 0.19698 -0.073318 
0.023851 0.034209 0.021878 0.0072447 0.0092177 0.044073 0.2976 -0.03616 
0.065612 0.056733 0.04654 0.034866 0.0051074 0.087808 0.27425 0.10458 
0.065118 0.049335 0.052787 0.023357 0.014643 0.095206 0.19796 0.1636 
0.0051074 0.020562 0.041114 0.054267 0.0083956 0.067585 -0.032215 0.11642 
0.01563 0.047526 0.037661 0.033551 0.033387 0.027303 -0.39097 0.075805 
0.093398 0.042923 0.047033 0.046046 0.025166 0.0021479 -0.59846 0.05772 
0.11543 0.058871 0.065118 -0.00031829 0.038155 -0.018897 -0.48994 0.054925 
0.13171 0.091753 0.052459 0.017767 0.012506 -0.016266 -0.16605 -0.020048 
0.10852 0.081231 0.068407 -0.021034 0.0059294 -0.047669 0.1904 -0.029913 
0.081724 0.081395 0.04654 0.0088889 -0.010512 -0.026624 0.41992 -0.052931 
0.080573 0.044238 0.052459 0.030427 0.0013258 -0.018897 0.56806 -0.02235 
0.020233 0.032071 0.032564 0.024344 0.01563 0.058377 0.42568 0.0032988 
0.0042853 0.025988 0.031907 0.038648 0.051143 0.13236 -0.040928 0.086821 
-0.0042642 0.038155 0.028947 0.028125 0.07597 0.17593 -0.077922 0.12497 
0.018425 0.033715 0.024344 0.061337 0.078765 0.17626 0.034537 0.15933 
0.053281 0.087643 0.036839 0.038319 0.06594 0.14864 0.071202 0.11329 
0.072353 0.10129 0.031907 0.077778 0.054432 0.029769 -0.036654 0.07038 
0.058871 0.056404 0.033387 0.024015 0.022042 -0.081703 -0.16523 0.053938 
0.02533 0.0083956 0.011026 0.022042 -0.003771 -0.18035 -0.091732 0.030263 
-0.017253 -0.033859 -0.014458 0.0023123 -0.056219 -0.23362 0.14223 0.01267 
-0.011005 0.00017495 -0.010348 -0.0039354 -0.065262 -0.21471 0.37142 -0.063453 
0.020562 0.036017 0.00017495 0.0088889 -0.035174 -0.10275 0.43324 0.048841 
0.045224 0.029769 0.011355 0.011848 -0.026789 0.017438 0.42223 0.23183 
0.046868 0.042923 0.027139 0.01974 0.0098754 0.055747 0.29102 0.28543 
-0.02498 0.10556 0.051801 0.040456 0.024508 0.072188 0.050814 0.076956 
-0.098967 0.087479 0.035524 0.068407 0.048184 0.084519 -0.13958 -0.18413 
-0.10045 0.069393 0.044402 0.055911 0.093069 0.1179 -0.28097 -0.37518 
-0.025309 0.10754 0.055747 0.090767 0.12612 0.10672 -0.25927 -0.26996 
0.069064 0.081067 0.057884 0.049335 0.091425 0.046211 -0.14517 -0.025802 
0.043087 0.050979 0.041114 0.047197 0.049006 0.034537 -0.080388 0.10704 
-0.006566 0.023851 0.034209 0.0013258 0.01152 0.010862 -0.024652 0.20158 
0.0032988 0.012999 0.046046 0.017438 0.048019 0.051308 0.075148 0.34462 
0.047033 0.0324 0.062159 0.016945 0.06331 0.16459 0.23726 0.39756 
0.098001 0.065447 0.065776 0.059693 0.10376 0.32719 0.35794 0.26981 
0.084848 0.039141 0.03651 0.029441 0.11 0.33394 0.25946 0.098494 
0.078272 0.03947 0.022864 0.021384 0.069558 0.22871 0.13335 0.028619 
0.050979 0.015301 0.038483 0.023851 0.016123 0.036675 0.017603 -0.029091 
-0.04323 -0.053095 0.021056 0.012835 -0.02942 -0.16769 -0.36532 -0.13612 
-0.11327 -0.053095 0.0028056 0.009711 -0.047012 -0.36154 -0.6925 -0.36417 
-0.06148 0.0011614 0.011191 -0.01676 -0.057534 -0.44128 -0.66192 -0.55045 
0.0092177 0.027303 0.0034632 0.011848 -0.06707 -0.36154 -0.12609 -0.46216 
0.06742 0.080738 0.010697 -0.012978 -0.078579 -0.28245 0.34117 -0.14829 
0.12135 0.082875 0.01563 0.016452 -0.077264 -0.16128 0.61706 0.23841 
0.14733 0.10228 0.028619 0.029605 -0.045203 0.017274 0.92024 0.36945 
0.058542 0.096193 0.02122 0.051801 -0.0070593 0.10376 0.88308 0.30056 
-0.010512 0.032564 0.015301 0.032236 -0.0067304 0.052294 0.22789 0.21523 
-0.067564 0.023193 0.020069 0.029112 0.046375 0.058213 -0.2647 0.10803 
-0.095514 0.014479 0.025001 0.035688 0.073175 0.090603 -0.16851 0.10721 
-0.13662 0.030592 0.0037921 0.0324 0.094384 0.16706 0.015959 0.1641 
-0.10752 -0.00064712 0.023522 0.034537 0.080573 0.13976 -0.039613 0.20224 
0.028454 0.019411 0.022864 0.041114 0.11247 0.12283 -0.11557 0.31684 
0.11905 0.023028 0.025988 0.04917 0.097179 0.13845 -0.15158 0.38211 
0.13401 0.038319 0.0083956 0.057391 0.098823 0.15061 -0.15717 0.26242 
0.055254 0.027961 0.025001 0.069393 0.091589 0.098001 -0.26091 -0.0042642 
0.0039565 0.022864 0.010697 0.019576 0.051143 0.004943 -0.31172 -0.40741 
-0.012156 0.020562 -0.013307 0.027303 0.035031 -0.061809 -0.20452 -0.77931 
0.024179 0.036017 -0.0026201 0.0095465 0.02533 -0.078908 -0.061973 -0.83406 
0.061337 0.052623 0.029605 0.037004 0.0021479 -0.053095 0.037332 -0.48649 
0.089945 0.093562 0.069886 0.034702 -0.012814 -0.059836 0.10408 -0.024652 
0.06594 0.08978 0.079916 0.026481 -0.032215 -0.029748 0.21194 0.17528 
0.035524 0.022371 0.037826 -0.003771 -0.056219 0.036182 0.28198 0.11526 
-0.036818 0.0047785 1.0539e-005 -0.014129 -0.062138 0.027796 0.21112 -0.064275 
-0.0503 -0.0098543 0.0024767 -0.0091966 -0.05589 0.0082312 0.095371 -0.14287 
-0.0036066 -0.00064712 0.025001 0.010862 0.013328 0.093069 0.065776 -0.027611 
0.052459 0.057391 0.042923 0.046046 0.077285 0.13582 -0.22869 0.17478 
0.08304 0.07038 0.050157 0.036346 0.10408 0.079258 -0.46709 0.2468 
0.13598 0.070544 0.048019 0.058049 0.086985 -0.0052507 -0.39787 0.30303 
0.19057 0.10162 0.036839 0.01974 0.065118 -0.10801 -0.14681 0.39921 
0.14798 0.070544 0.020562 0.040292 0.05624 -0.11294 0.046704 0.29875 
0.010862 0.05476 0.018096 0.018918 0.0016547 -0.080552 0.16327 0.08419 
-0.10521 0.051636 0.026481 0.038483 -0.0039354 -0.13481 0.24893 -0.040435 
-0.09798 0.022535 0.031085 0.022042 -0.0032777 -0.12692 0.37339 -0.096336 
-0.0021268 -0.00031829 0.0067515 0.0083956 -0.017088 -0.022679 0.27261 -0.093705 
0.079258 0.0047785 -0.018733 0.010862 0.016781 0.15719 -0.0011404 -0.096007 
0.060022 -0.028762 -0.010676 -0.00031829 0.03388 0.32292 -0.0503 -0.058192 
0.028947 -0.0031133 0.023028 0.016945 0.047526 0.3632 0.035524 0.044073 
0.038483 0.060844 0.02829 -0.0031133 0.05476 0.30582 0.0074092 0.13286 
0.13713 0.092411 0.061501 0.047033 0.087808 0.22772 -0.036983 0.18695 
0.20668 0.12497 0.080738 0.05772 0.094548 0.096686 -0.066413 0.20635 
0.17922 0.1299 0.061337 0.077449 0.095042 -0.027282 -0.10291 0.16179 
0.034373 0.046211 0.023357 0.057391 0.058706 -0.10752 -0.11524 -0.19482 
-0.099953 0.031249 0.0082312 0.059035 0.042594 -0.14303 0.0044497 -0.41546 
-0.12511 0.053609 0.028947 0.058213 0.035195 -0.031064 0.19731 -0.33523 
-0.059836 0.067913 0.041278 0.063803 0.057555 0.14667 0.34495 -0.097487 
0.038648 0.073339 0.039141 0.022535 0.060186 0.15522 0.35202 0.1174 
0.009711 0.019083 0.029276 0.0085601 0.0088889 0.1026 0.14256 0.11543 
-0.065591 -0.0088678 0.018589 -0.011992 -0.019226 0.04917 -0.26009 0.086821 
-0.057534 0.021878 -0.00097594 -0.0082102 -0.016102 -0.03353 -0.54716 0.08008 
-0.0036066 0.02122 0.019576 0.024837 0.031907 -0.078579 -0.54699 0.083533 
0.021549 0.0093821 0.034373 0.01267 0.038483 -0.07825 -0.26831 0.2006 
0.06331 0.03092 0.050321 0.013821 0.037168 -0.072003 0.0082312 0.29579 
0.068078 0.058377 0.072517 0.013821 -0.003771 0.011355 0.11329 0.32193 
0.065447 0.081724 0.090767 0.080738 0.030592 0.1054 0.20372 0.34709 
0.038977 0.077943 0.061995 0.029276 0.048677 0.1442 0.28362 0.28231 
0.038648 0.047362 0.05065 0.048348 0.045553 0.14634 0.1197 0.16442 
0.053774 0.028619 0.043087 0.026152 0.06035 0.1003 0.0052718 0.045224 
0.1271 0.045718 0.036017 0.048677 0.076956 0.087972 0.075805 0.028619 
0.16015 0.0324 0.026317 0.052459 0.07597 0.15226 0.20865 0.12579 
0.1641 0.068078 0.029769 0.040621 0.057391 0.11378 0.26817 0.1322 
0.13335 0.070544 0.01415 0.015137 -0.0042642 -0.045368 0.17873 0.045224 
0.11 0.062488 0.00083261 -0.008539 -0.031064 -0.1108 -0.17197 -0.077593 
0.076134 0.051965 -0.0004827 -0.0064016 -0.0072237 -0.086471 -0.35381 -0.18824 
0.039634 0.027961 0.011026 0.0047785 0.016288 0.12513 -0.20025 -0.13859 
-0.022679 0.033058 0.020727 0.070544 0.031907 0.21786 -0.099953 -0.008539 
0.00050378 0.07597 0.04654 0.060186 0.053445 0.16212 0.20158 0.11642 
0.019576 0.086657 0.057884 0.09274 0.050814 0.10458 0.49194 0.35005 
-0.043395 0.054103 0.01563 0.031249 -0.0091966 -0.039449 0.59272 0.44163 
-0.12083 0.047033 0.0042853 0.028125 -0.031886 -0.24464 0.32292 0.22164 
-0.098309 0.036346 0.01974 0.0021479 -0.043066 -0.36893 -0.027282 0.051308 
-0.025638 0.073339 0.020069 0.03092 -0.0077169 -0.26502 -0.078744 -0.038791 
-0.013636 0.082546 0.031085 0.032564 0.023851 -0.063618 -0.11853 -0.41267 
-0.081374 0.057555 0.016781 0.017438 -0.0024557 0.054103 -0.11048 -0.90854 
-0.12675 0.037497 0.025659 0.048677 -0.011334 0.080244 0.029276 -0.69858 
-0.037311 0.070051 0.045224 0.045553 0.015794 0.19451 0.17577 -0.0078813 
0.033387 0.021878 0.03651 0.036839 0.043251 0.26636 0.21885 0.47796 
0.12644 -0.0044286 0.037826 0.027961 0.085177 0.25255 0.16804 0.55491 
0.14206 0.0032988 0.027139 0.023522 0.075148 0.086163 0.028947 0.4487 
0.089123 -0.02235 0.0042853 -0.022843 -0.016102 -0.16687 -0.052602 0.37652 
0.075476 0.0044497 0.0046141 0.0028056 -0.082525 -0.31632 0.11329 0.28001 
0.083368 0.062323 0.016288 -0.015609 -0.061809 -0.23132 0.19303 0.10491 
0.036017 0.086163 0.061008 0.038319 -0.0036066 -0.056055 0.042429 -0.16243 
-0.0064016 0.077449 0.081067 0.063968 0.055254 0.031578 -0.11491 -0.29528 
0.026974 0.04506 0.072024 0.081889 0.070051 0.063968 -0.23411 -0.29182 
0.091753 0.029934 0.067585 0.066763 0.073832 0.020562 -0.23921 -0.37436 
0.12908 0.1031 0.070051 0.054267 0.061995 0.016452 -0.30728 -0.45065 
0.097344 0.09685 0.049828 0.043251 0.076956 0.08304 -0.22277 -0.22113 
0.047197 0.041772 0.027139 0.029276 0.069722 0.19912 0.04358 0.14831 
-0.015444 0.013492 0.020233 0.033551 0.030427 0.26274 0.11757 0.25436 
-0.025474 -0.02498 0.032729 0.037332 0.032893 0.31371 0.091918 0.12349 
-0.061973 -0.029913 -0.0088678 0.024837 0.02681 0.10458 -0.062467 -0.04323 
-0.03501 0.057391 0.0098754 -0.0011404 0.0052718 -0.10456 -0.14615 -0.013471 
-0.020706 0.025166 0.012835 0.00083261 -0.040435 -0.28475 0.04654 0.020727 
0.0074092 0.018096 0.020069 -0.036983 -0.11146 -0.48567 0.30516 -0.15552 
0.013164 0.022371 0.0088889 -0.010841 -0.12018 -0.52776 0.62363 -0.34444 
-0.0095255 0.01267 0.0088889 -0.0078813 -0.10505 -0.3811 0.67805 -0.28344 
-0.0039354 0.0098754 0.0087245 -0.0064016 -0.12215 -0.25384 0.58319 -0.10242 
0.031085 0.081395 0.023851 0.016781 -0.067564 -0.041422 0.55474 0.059364 
0.045389 0.065283 0.045718 0.030756 0.04095 0.2001 0.52679 0.13845 
0.029605 0.072517 0.050814 0.087643 0.10869 0.33657 0.29152 0.24433 
0.066105 0.10491 0.072024 0.075312 0.14239 0.34692 -0.093541 0.37997 
0.098001 0.098823 0.05772 0.09981 0.14502 0.25058 -0.42237 0.39148 
0.11099 0.06035 0.050814 0.051308 0.12743 0.14782 -0.59615 0.26932 
0.12299 0.036675 0.035524 0.050486 0.097179 0.097179 -0.5539 0.16426 
0.13483 0.046375 0.013328 0.031414 0.082053 0.031085 -0.46528 0.10721 
0.081067 0.035031 0.053281 0.04654 0.095699 0.038483 -0.43733 -0.0039354 
0.017603 0.017274 0.056733 0.015301 0.062323 0.069886 -0.42648 -0.15618 
-0.047505 -0.0138 0.051143 0.016452 0.014972 0.051801 -0.40543 -0.30498 
-0.053917 0.014315 0.062817 -0.022843 0.0036276 0.095206 -0.28969 -0.29955 
-0.057699 0.021056 0.048513 0.010697 0.0032988 0.13976 -0.17427 -0.16934 
-0.0034422 0.068407 0.070544 0.027796 0.028125 0.16377 -0.031721 -0.017582 
0.041114 0.12431 0.090109 0.033222 0.053116 0.060844 0.13138 0.21621 
0.10195 0.13565 0.078436 0.050814 0.032071 -0.060987 0.24893 0.40036 
0.13253 0.045553 0.042758 0.018589 -0.0014692 -0.17887 0.31585 0.43045 
0.098659 -0.025474 -0.0067304 0.01152 -0.0095255 -0.20041 0.31799 0.30845 
0.047362 -0.074798 -0.032872 -0.004593 -0.0036066 -0.19909 0.33196 0.075148 
0.062652 0.0085601 -0.0004827 0.044238 -0.018404 -0.19761 0.37767 -0.2619 
0.080409 0.11346 0.014808 0.0026412 -0.0088678 -0.10784 0.38852 -0.52036 
0.097179 0.13647 0.057884 0.066927 -0.0138 0.022371 0.36748 -0.40461 
0.080738 0.083368 0.0786 0.036017 0.017603 0.15999 0.28231 -0.076277 
0.024508 0.065118 0.083533 0.064954 0.03947 0.21934 -0.023829 0.10852 
-0.085156 0.0065871 0.088958 0.031249 0.039305 0.24236 -0.26897 0.28921 
-0.072332 0.014808 0.032893 0.014808 0.072353 0.27886 -0.35183 0.41812 
0.01004 0.057555 0.0034632 0.025659 0.10606 0.29563 -0.32915 0.43752 
0.049335 0.048019 0.0080668 0.03092 0.11707 0.23266 -0.28919 0.32111 
0.061501 0.049664 0.018096 0.040456 0.13269 0.17873 -0.218 0.2394 
0.073504 0.0786 0.028619 0.032236 0.1026 0.15703 -0.16983 0.21835 
0.089287 0.10244 0.03947 0.090109 0.13187 0.12283 -0.36351 0.12562 
0.036017 0.10688 0.044402 0.054596 0.12102 0.22838 -0.078744 -0.094363 
0.06035 0.0079024 0.037497 0.11592 0.10277 0.44656 0.3147 -0.23625 
0.17232 -0.023501 -0.003771 0.025988 0.08567 0.44919 0.25732 -0.17558 
0.16245 0.0062583 -0.021856 0.025166 0.024673 0.26817 -0.1256 -0.085485 
0.060186 0.0041209 -0.0011404 -0.041586 -0.049314 0.010369 -0.58481 -0.098638 
-0.058028 0.017603 0.035688 -0.017088 -0.07414 -0.31221 -0.78112 -0.03353 
-0.1085 0.076463 0.038648 -0.00064712 -0.077922 -0.67277 -0.83932 0.060186 
-0.091568 0.037661 0.0324 -0.00081153 -0.073318 -0.94915 -0.5636 0.10655 
-0.078086 0.015959 0.026152 -0.0042642 -0.061809 -0.81893 0.2708 0.13286 
-0.066741 0.03651 0.015959 0.0052718 -0.058685 -0.3885 1.3439 0.1008 
-0.039778 0.0074092 0.025824 0.014808 -0.051615 -0.013471 1.8849 0.076299 
0.0093821 0.0069159 0.030756 0.010862 -0.083676 0.20454 1.8582 0.09126 
0.088794 0.058213 0.075805 0.058542 -0.046354 0.45823 1.5445 0.12365 
0.13203 0.10869 0.085012 0.070873 0.06594 0.55935 0.64303 0.12891 
0.07449 0.12825 0.088301 0.11395 0.15834 0.47007 -0.46429 0.13483 
0.058213 0.1128 0.06183 0.070215 0.15144 0.26685 -1.1774 0.12069 
0.058213 0.06183 0.024015 0.066763 0.10425 0.05624 -1.3191 0.1202 
0.096357 0.059528 -0.020377 0.018425 0.07301 0.025495 -1.0657 -0.043888 
0.09126 0.039799 0.0047785 0.018754 0.063145 0.01974 -0.70401 -0.22688 
0.055911 0.031414 -0.0039354 0.0046141 0.049335 -0.019226 -0.39623 -0.14862 
-0.018404 0.016945 -0.011827 0.0028056 0.044896 -0.030899 -0.10719 -0.0059084 
-0.023501 0.020562 -0.0024557 0.013328 0.031414 -0.028597 0.1493 -0.12675 
-0.049807 0.010369 -0.011498 0.0064227 0.030592 -0.024652 0.34413 -0.31303 
-0.090417 -0.0078813 -0.029748 0.021713 0.024837 -0.023172 0.012506 -0.19992 
-0.13481 0.027303 -0.025145 0.0056006 0.01415 -0.046354 -0.38965 0.063639 
-0.076771 0.043909 0.0064227 0.033715 -0.019884 -0.055561 -0.12511 0.20372 
-0.011992 0.078765 0.031907 0.015301 -0.035996 -0.076113 0.31322 0.093726 
0.0324 0.043251 0.020727 0.055254 -0.019061 -0.10291 0.53288 -0.0087034 
0.057884 -0.00064712 0.012342 0.032236 0.0041209 -0.11376 0.42223 -0.057863 
0.029934 0.016123 0.023686 0.046868 0.035524 -0.082525 0.36353 0.0093821 
0.0074092 -0.0040998 0.0095465 0.0052718 -0.006566 -0.11656 0.28379 0.061172 
0.03388 0.0079024 0.018096 -0.0091966 -0.034188 -0.11886 0.39395 0.05476 
0.03947 0.080244 0.020233 0.016123 -0.024816 -0.054575 0.6067 0.028619 
0.039305 0.08715 0.048348 0.028454 0.018918 0.049335 0.61821 0.051143 
0.063474 0.072188 0.066927 0.053938 0.029441 0.14124 0.3484 0.14552 
0.1008 0.086657 0.085506 0.04095 0.049828 0.18744 -0.17476 0.19287 
0.08156 0.047362 0.054432 0.040292 0.049828 0.15834 -0.48797 0.15505 
0.042923 0.046211 0.032564 0.0069159 0.068407 0.14617 -0.34986 0.073668 
0.0056006 0.058542 0.031578 0.047197 0.067913 0.016616 -0.28574 -0.026131 
-0.011827 0.032893 0.033222 0.011191 0.0054362 -0.10669 -0.21899 -0.063618 
-0.049642 0.052294 0.054267 0.024344 -0.016431 -0.13168 -0.046519 -0.023665 
-0.03764 0.023028 0.047197 0.039141 -0.015773 -0.053424 0.20701 -0.028762 
0.013164 0.015301 0.042429 0.064625 0.042594 0.050814 0.32308 -0.14763 
0.041114 0.028619 0.058706 0.065118 0.089616 0.21589 0.43801 -0.34526 
0.063803 0.038319 0.030756 0.041772 0.089287 0.28987 0.38934 -0.29462 
0.068078 0.032071 0.025659 0.031085 0.076299 0.32522 0.25206 -0.0088678 
0.083697 0.040456 0.028619 -0.011334 0.034866 0.2514 0.031578 0.17659 
0.083533 -0.0026201 0.029441 -0.0049219 0.01563 0.071037 -0.16473 0.25962 
0.058542 0.028619 0.056569 -0.0050863 -0.00097594 -0.017417 -0.3012 0.21457 
0.059364 0.059693 0.036675 0.032729 0.025166 -0.020212 -0.39162 0.15209 
0.034537 0.046868 0.033222 0.036182 0.019083 -0.12445 -0.4518 0.054267 
-0.020048 0.02533 0.029276 0.04095 0.058542 -0.24365 -0.46775 -0.051944 
-0.024158 0.065283 0.018918 0.023357 0.081889 -0.22162 -0.29988 -0.065426 
0.032564 0.072846 0.042758 0.060186 0.070873 0.0031344 0.064954 -0.010512 
0.040621 0.058213 0.043745 0.02122 0.077943 0.18136 0.3558 -0.006566 
0.0013258 0.047033 0.029441 0.035688 0.051801 0.1904 0.40628 -0.039942 
-0.010183 0.016945 0.038483 0.029276 0.0079024 0.13499 0.33936 -0.072825 
-0.012814 0.04654 0.033387 0.013328 0.0074092 0.18169 0.31256 0.025988 
0.036675 0.072188 0.034702 0.03651 0.045224 0.1687 0.25222 0.24548 
0.0324 0.035195 0.044238 0.047033 0.03388 0.11395 0.10343 0.27343 
0.038977 0.041278 0.06183 0.040621 -0.00015387 0.070215 -0.047998 0.15933 
0.025166 0.012999 0.034209 0.016452 -0.024323 0.0059294 -0.15931 -0.058028 
-0.0077169 0.0041209 0.024015 0.031249 -0.0083746 -0.0096899 -0.17739 -0.24151 
0.02681 0.021878 0.051308 0.016123 0.0019835 -0.018897 -0.069865 -0.18397 
0.094713 0.029112 0.046868 0.038483 -0.0072237 -0.065755 -0.033694 -0.019884 
0.10589 0.032729 0.026317 -0.021199 -0.06444 -0.16621 -0.029091 0.11231 
0.056733 0.05476 0.046868 0.016945 -0.033859 -0.19614 -0.045696 0.13121 
0.10014 0.066269 0.048348 0.0051074 0.030592 -0.09091 -0.020541 0.12036 
0.086163 0.060022 0.070544 0.049499 0.076792 0.012013 0.057227 0.16442 
0.084355 0.095864 0.086821 0.051472 0.072681 0.075312 0.12677 0.19747 
0.058213 0.089452 0.077285 0.041114 0.063145 0.11707 0.077778 0.18909 
0.042265 0.07597 0.071366 0.035853 0.081067 0.14716 -0.028269 0.19961 
-0.0060728 0.050157 0.024179 0.049664 0.073997 0.13236 -0.2522 0.1738 
-0.0055795 0.027796 0.016123 0.043909 0.053938 0.1026 -0.38735 0.01974 
-0.0098543 0.027961 0.013657 0.031414 0.038319 0.10063 -0.29347 -0.18084 
0.018096 0.064625 -0.0014692 0.031742 0.0080668 0.022864 -0.1917 -0.27193 
0.036182 0.044896 -0.00064712 -0.012978 -0.017417 0.005765 -0.020706 -0.06444 
0.069229 0.039963 0.0069159 0.034373 -0.029091 0.063639 0.2098 0.22756 
0.042429 0.013986 0.020891 0.016452 -0.0098543 0.12217 0.53074 0.28543 
-0.011663 -0.0077169 0.027303 0.060515 0.076792 0.14289 0.60012 0.097015 
-0.045203 0.027139 0.027796 0.048841 0.055911 0.061008 0.28231 -0.14056 
-0.015609 0.040456 0.016945 0.053774 0.02681 -0.19235 -0.2744 -0.4957 
0.0041209 0.025824 -0.0013048 -0.01232 -0.03057 -0.45936 -0.6514 -0.51263 
0.046046 0.029441 0.0011614 -0.026953 -0.069208 -0.48813 -0.54568 -0.022021 
0.095535 0.032236 -0.025802 -0.009361 -0.055726 -0.33112 -0.12198 0.37109 
0.11576 0.01826 0.0026412 0.018754 -0.013471 -0.11327 0.14206 0.43505 
0.11724 0.06742 0.055089 0.060515 0.0037921 -0.026789 0.20914 0.34232 
0.098166 0.094384 0.056898 0.058049 0.015137 0.055582 0.28214 0.24022 
0.068407 0.09833 0.073997 0.072517 0.029276 0.15407 0.26455 0.13615 
0.051308 0.099316 0.038648 0.038483 0.025495 0.13779 0.1442 -0.0029489 
-0.0027845 0.050486 0.030263 0.058542 0.024344 0.12858 0.046868 -0.055397 
-0.02942 0.027303 0.010204 0.019411 0.054925 0.19533 -0.02235 -0.039449 
-0.027282 0.073668 0.010862 0.047362 0.077778 0.19731 0.0054362 -0.057699 
-0.027118 0.051472 0.044896 0.033715 0.078436 0.10852 -0.0039354 -0.079566 
0.0054362 0.045224 0.063145 0.037004 0.077943 0.057227 -0.02942 -0.091075 
0.049664 0.053116 0.063968 0.02829 0.069722 -0.0042642 -0.049478 -0.10176 
-0.0022913 0.041443 0.040128 0.011191 0.061172 -0.012649 -0.079237 -0.027611 
0.02122 0.03651 0.058049 0.031085 0.023028 -0.027282 -0.094856 0.062817 
0.02829 0.048184 0.038155 0.020069 0.01267 -0.052273 -0.049314 0.066927 
0.044402 0.005765 0.019247 0.027468 0.019576 -0.052766 0.12497 0.061337 
0.040785 0.0047785 -0.006566 0.0085601 0.023193 0.0059294 0.18596 0.037497 
0.037004 0.026646 0.0056006 0.045389 0.043251 0.086821 0.053609 0.0227 
0.074983 0.05624 0.020233 0.03536 0.068736 0.1419 0.070708 0.075805 
0.067256 0.098001 0.060186 0.061008 0.037497 0.11428 -0.0039354 0.14289 
0.077614 0.094548 0.045224 0.041114 0.047033 0.038977 -0.40215 0.1539 
0.098659 0.06035 0.047855 0.05065 0.078272 -0.0026201 -0.17542 0.15883 
0.09833 0.095371 0.03536 0.053281 0.090274 0.027961 0.34528 0.14091 
0.066763 0.03799 0.007738 0.043745 0.066105 -0.020048 0.53551 0.16327 
0.031742 -0.02794 -0.019226 0.034702 0.01415 -0.11491 0.46662 0.26488 
0.10195 -0.013307 -0.015773 0.026646 -0.030077 -0.25532 0.18991 0.27491 
0.084355 -0.043888 -0.0138 0.00017495 -0.068057 -0.28919 -0.067728 -0.11196 
-0.044052 -0.029748 -0.013636 -0.01939 -0.074962 -0.19745 -0.14467 -0.51937 
-0.11212 0.062981 -0.00015387 -0.018568 -0.094199 -0.040435 0.21079 -0.52052 
-0.047669 0.086821 0.028619 -0.0138 -0.040106 0.14009 0.44705 -0.2813 
-0.030242 0.10195 0.067091 0.033058 -0.034188 0.26883 0.44738 -0.14698 
-0.045368 0.11592 0.075312 0.024344 0.019905 0.30582 0.37438 -0.070359 
0.017603 0.071695 0.065283 0.056404 0.1128 0.31716 0.10408 0.12497 
0.05772 0.049992 0.027961 0.054596 0.183 0.28773 -0.23313 0.26192 
0.049006 0.04917 0.023028 0.078107 0.18711 0.24729 -0.5876 0.28083 
0.069722 0.035195 0.032729 0.072024 0.18695 0.29661 -0.62312 0.28741 
0.07038 0.021384 0.036675 0.069064 0.13384 0.29744 -0.29363 0.2006 
0.072024 -0.013471 0.018589 0.037004 0.069722 0.19303 -0.13103 0.081889 
0.039799 -0.017253 0.025824 -0.00064712 0.010204 0.081067 -0.074798 0.027303 
0.025988 0.053116 0.047197 -0.011992 -0.025309 -0.047341 0.024837 0.083697 
-0.045203 0.0786 0.046704 -0.018404 -0.013143 -0.10094 0.23397 0.12431 
-0.097322 0.019247 0.06183 0.0056006 -0.060658 -0.15947 0.19435 0.035853 
-0.12149 -0.024487 0.018096 0.0014903 -0.067728 -0.27867 0.091918 -0.13859 
-0.10834 -0.045696 0.0087245 0.010862 -0.076771 -0.25763 0.36073 -0.23132 
0.033551 0.01826 0.0051074 -0.014293 -0.037311 -0.022021 0.69006 -0.11952 
0.13417 0.059364 0.0019835 0.023357 -0.021034 0.077614 0.60308 0.013492 
0.17347 0.044896 -0.006566 -0.0034422 -0.019555 -0.017088 0.15555 0.070708 
0.15078 0.036182 0.01826 0.033387 0.0052718 -0.097158 -0.18643 -0.078086 
0.085177 0.067585 0.041936 0.04654 0.065118 -0.063782 -0.19959 -0.10357 
0.005765 0.06035 0.045389 0.066927 0.095864 0.024344 -0.099131 -0.054739 
-0.008539 0.065118 0.076134 0.029276 0.070051 0.1008 -0.12757 -0.11853 
-0.038956 0.073339 0.059035 0.031249 0.04358 0.18909 -0.14369 -0.035338 
-0.041422 0.050157 0.023357 0.016123 0.045718 0.31601 -0.036654 0.18744 
0.0051074 0.048841 0.014479 0.021878 0.035524 0.30434 0.15374 0.244 
0.093233 0.096028 0.022206 0.033387 0.043087 0.16426 0.17363 0.15933 
0.14782 0.08304 0.025659 0.0070803 0.026646 -0.019884 0.036675 0.027796 
0.15226 0.019905 0.019576 0.011684 0.00297 -0.14467 -0.0036066 0.0024767 
0.055418 -0.045368 -0.014293 -0.028104 -0.015444 -0.17509 0.0044497 -0.0040998 
-0.052273 -0.062467 -0.018404 0.01711 0.004943 -0.11722 -0.085813 -0.081868 
-0.088608 -0.0026201 -0.02942 0.00099702 0.048184 -0.045861 -0.056383 -0.095185 
-0.038298 0.036675 0.022535 0.061008 0.054925 0.091589 0.1516 -0.017582 
0.040292 0.08419 0.029276 0.041607 0.04654 0.22164 0.36928 0.083862 
0.12875 0.13236 0.058542 0.04654 0.054267 0.18004 0.35942 0.18202 
0.16738 0.14749 0.069722 0.043909 0.043745 0.03651 0.04095 0.16541 
0.11658 0.097344 0.060186 0.040785 0.038483 -0.12067 -0.30514 0.051965 
0.0324 0.044402 0.068242 0.041278 0.018589 -0.26502 -0.39935 -0.013636 
-0.078086 0.013821 0.042594 0.012013 -0.018733 -0.25664 -0.30531 -0.11508 
-0.11524 -0.0031133 0.045553 0.03799 -0.025474 -0.2185 -0.1889 -0.10784 
-0.061809 0.050814 0.041936 0.0087245 -0.012485 -0.1552 -0.01117 -0.030242 
0.037497 0.077285 0.058871 0.051472 0.025001 -0.040435 0.25946 0.045389 
0.088465 0.053609 0.046868 0.036839 0.046704 0.050979 0.32473 0.17824 
0.070873 0.063803 0.038319 0.064132 0.072846 0.1299 -0.020541 0.29332 
0.038155 0.032729 0.025166 0.049828 0.093562 0.16097 -0.26289 0.26225 
0.062817 0.036675 0.047855 0.073175 0.095699 0.12431 -0.25615 0.21424 
0.096028 0.06594 0.05624 0.04506 0.076134 0.12908 -0.2665 0.032564 
0.067913 0.088301 0.055254 0.028947 0.070051 0.13516 -0.23181 -0.10209 
0.049664 0.052294 0.048348 0.0095465 0.062981 0.096028 0.020069 -0.11393 
0.00099702 0.0689 0.041772 0.034209 0.041936 0.070215 0.26751 0.026317 
0.00033937 0.024673 0.022206 0.042923 0.041607 -0.016924 0.10408 0.049335 
-0.0080457 0.055254 0.01152 0.0082312 0.037497 -0.076935 -0.11541 -0.028762 
0.020891 0.076463 0.0014903 0.017767 0.025988 -0.05737 -0.109 -0.030735 
-0.054575 0.023193 0.018918 0.026974 0.029276 -0.04471 -0.22557 0.004943 
-0.071674 -0.053917 0.010369 0.056569 -0.03205 -0.10357 -0.069208 0.15982 
0.005765 -0.064604 -0.012156 0.016616 -0.023665 -0.12593 0.24729 0.3244 
0.092247 -0.00097594 -0.0095255 0.044402 -0.004593 -0.095514 0.46728 0.33476 
0.086657 0.10688 0.018096 0.029441 0.0324 -0.028762 0.42058 0.056733 
0.041114 0.14157 0.043416 0.056404 0.035853 -0.015444 0.1853 -0.28311 
-0.0075525 0.073832 0.044402 0.018589 0.025166 -0.046354 0.083697 -0.46166 
-0.030077 0.057062 0.05476 0.030263 0.023028 0.086163 0.22739 -0.37617 
0.014479 0.031907 0.0421 0.028619 0.015301 0.19714 0.27261 -0.19466 
0.038812 0.070051 0.047855 0.023686 -0.0029489 0.15127 -0.0022913 -0.13168 
0.025495 0.082875 0.036017 0.043909 0.021056 0.11017 -0.30481 -0.063782 
-0.0050863 0.010533 0.030263 0.055911 0.075476 0.13253 -0.3543 0.18136 
-0.0004827 0.018096 0.058706 0.080902 0.11033 0.13746 -0.28607 0.41105 
0.07449 0.093398 0.087643 0.059364 0.13434 0.14519 -0.22014 0.42239 
0.074983 0.12184 0.089452 0.045389 0.089945 0.11132 -0.20616 0.2856 
0.052294 0.091753 0.047362 0.0075736 0.036182 0.047362 -0.13333 0.11757 
0.0056006 0.057884 0.036675 0.0093821 0.0088889 0.06035 -0.014951 0.024015 
-0.018404 -0.0039354 0.029112 1.0539e-005 0.010533 0.0421 0.064296 0.022042 
-0.025474 -0.014129 0.029441 0.027139 0.019576 0.085999 0.093726 0.090603 
-0.00064712 0.02533 0.017932 -0.00097594 0.013492 0.12973 0.19139 0.11806 
0.015465 0.017274 0.014315 -0.00015387 0.0067515 0.11083 0.24597 0.05213 
0.03651 0.052294 0.023851 0.0046141 -0.037311 0.024837 0.22904 -0.098802 
0.095042 0.084026 0.018096 -0.0042642 -0.10554 -0.06855 -0.042573 -0.13695 
0.13138 0.073504 0.026646 0.009711 -0.061809 -0.14089 -0.21521 0.024179 
0.11313 0.08978 0.0067515 0.025495 0.021549 -0.085156 -0.18364 0.13499 
0.063968 0.032564 0.0044497 0.048019 0.027796 -0.074633 -0.19926 0.092247 
0.043087 0.016781 0.015137 0.045553 0.025659 -0.11376 0.031085 -0.019061 
0.045389 0.036182 0.014643 0.064625 0.03651 -0.097487 0.43571 -0.11607 
0.048513 0.060679 0.046046 0.044073 0.030263 0.046704 0.66391 -0.25384 
0.0093821 0.072517 0.045389 0.050979 -0.022679 0.028619 0.58335 -0.62558 
-0.058356 0.069229 0.045553 0.0060938 -0.06707 -0.053917 0.27606 -0.66833 
-0.084334 -0.001798 0.0064227 -0.0026201 -0.06855 -0.13941 0.024837 -0.29544 
-0.079401 -0.010841 -0.018897 -0.017417 -0.018733 -0.091404 0.020562 0.098001 
-0.035667 0.018589 -0.01939 0.015959 0.062981 0.10556 0.14354 0.39247 
0.015959 0.029605 -0.0011404 0.031414 0.086492 0.23381 0.24811 0.56724 
0.053774 0.070215 -0.0011404 0.025001 0.11839 0.31897 -0.051451 0.48553 
0.15555 0.12546 0.056569 0.053774 0.1031 0.30549 -0.27029 0.50246 
0.26768 0.12102 0.083533 0.03651 0.071531 0.11411 -0.31451 0.58565 
0.28724 0.064954 0.077121 0.050814 -0.033201 -0.018075 -0.33506 0.51808 
0.17856 0.030756 0.046704 0.010369 -0.07562 -0.12889 -0.3155 0.44491 
0.034702 -0.04882 0.00017495 0.02533 -0.044052 -0.17476 -0.24875 0.27836 
-0.074633 -0.062138 0.0037921 0.016945 0.018918 -0.13941 -0.095514 0.055254 
-0.036489 -0.01676 0.0074092 0.05624 0.060844 -0.013307 0.075641 -0.10571 
0.077449 0.0324 0.026646 0.026152 0.088136 0.070708 0.26192 -0.32043 
0.095042 0.067585 0.045718 0.027468 0.0689 0.063145 0.20651 -0.8334 
0.062981 0.058213 0.054596 0.024015 0.061501 0.010862 0.017438 -1.4526 
0.039305 0.067585 0.071366 0.0065871 0.042594 0.11362 -0.054246 -1.2957 
-0.00064712 0.064461 0.056076 0.0062583 0.075148 0.29941 0.050321 -0.29741 
-0.039284 0.0227 0.037497 0.0079024 0.068242 0.34775 0.19566 0.46382 
-0.058685 -0.0047575 0.016781 0.028619 0.049499 0.22049 0.11444 0.76043 
0.007738 0.033715 0.020891 0.029605 0.051965 0.08156 -0.32142 0.68364 
0.019576 0.0018191 0.010697 0.076463 0.020398 -0.15207 -0.81745 0.49572 
0.025988 -0.014787 0.0070803 0.0092177 -0.0027845 -0.45262 -0.89292 0.37537 
0.046868 0.020891 0.020069 0.036346 -0.0077169 -0.5419 -0.2665 0.31322 
0.05772 0.028947 0.032236 0.013492 -0.014622 -0.37058 0.60111 0.33015 
0.0060938 0.015794 0.032071 0.050814 -0.016102 -0.11245 1.2274 0.32555 
-0.084663 0.028125 0.0085601 0.030263 -0.0014692 0.097508 1.5365 0.10885 
-0.094363 0.040456 0.0421 0.025166 0.04095 0.22082 1.3137 -0.14237 
-0.048492 0.019247 0.03799 0.034537 0.095864 0.32555 0.52794 -0.21636 
-0.011498 0.037332 0.020233 0.040785 0.16755 0.451 -0.33441 -0.19679 
0.08863 0.027961 0.0056006 0.072353 0.18958 0.48487 -0.78243 -0.13678 
0.15933 0.033551 0.025001 0.094384 0.16656 0.4875 -0.80249 -0.1307 
0.1567 0.060186 0.056898 0.11346 0.11526 0.33788 -0.52118 -0.015444 
0.16015 0.069558 0.047197 0.056076 0.050321 0.10162 -0.14993 0.11247 
0.13187 0.059035 0.0324 0.039963 -0.00081153 -0.086964 0.0592 0.15226 
0.048513 0.0067515 0.028125 -0.028762 -0.04323 -0.32125 0.01974 0.03651 
-0.070687 -0.068714 0.020891 -0.0050863 -0.14961 -0.67359 -0.20567 -0.10127 
-0.11968 -0.044052 0.010369 -0.074469 -0.25516 -0.90574 -0.22918 -0.17953 
-0.11968 -0.0044286 -0.02646 -0.067728 -0.28525 -0.8265 0.18646 -0.17887 
-0.085813 -0.0054151 -0.019884 -0.059836 -0.21159 -0.38587 0.77276 -0.10308 
-0.0090322 0.08715 0.03388 0.0067515 -0.051122 0.16031 1.0482 0.10754 
0.094055 0.10622 0.071859 0.064625 0.12349 0.48043 0.92879 0.29201 
0.13697 0.13483 0.093069 0.10113 0.23545 0.6067 0.56264 0.3757 
0.092082 0.17018 0.10639 0.12957 0.24071 0.55968 0.18974 0.2297 
0.019411 0.11148 0.093069 0.10556 0.19649 0.256 -0.31616 0.048513 
-0.022514 0.010369 0.03536 0.093726 0.09685 0.00017495 -0.68444 -0.23806 
-0.021692 0.0075736 0.049499 0.035688 0.058542 -0.062631 -0.66323 -0.31205 
0.065447 -0.011992 0.021056 0.0092177 0.063474 -0.052766 -0.55965 -0.072332 
0.099974 0.03092 0.023522 -0.006566 0.028783 -0.024323 -0.42631 0.11954 
0.059364 0.10392 0.0041209 0.032236 0.013986 0.027796 -0.37189 0.17758 
0.016452 0.062652 0.0098754 -0.0091966 0.007738 0.043087 -0.045532 0.14913 
0.00050378 0.0039565 -0.0064016 -0.012649 -0.013965 0.067256 0.29152 0.17429 
-0.0026201 0.032729 0.02829 0.0039565 -0.019884 0.015959 0.37619 0.16853 
-0.030406 0.044073 0.046704 0.023357 -0.023501 -0.031886 0.34331 0.15456 
-0.025802 0.037661 0.02681 0.0227 -0.029091 -0.043066 0.26981 0.11066 
0.010204 0.062159 0.0044497 0.01267 -0.041257 -0.08269 0.16475 0.08419 
0.078765 0.086163 -0.001798 0.004943 -0.02498 -0.13152 0.056076 0.099152 
0.088301 0.10589 0.014808 0.0087245 -0.0044286 -0.15273 -0.0098543 0.044731 
0.036017 0.045718 0.039305 0.035031 -0.019719 -0.11491 0.031085 -0.045532 
0.012013 -0.017088 0.044402 0.027139 0.010204 -0.0019624 0.1493 -0.065097 
0.054596 0.058871 0.032893 0.04095 0.011355 0.095699 0.27129 -0.10357 
0.13335 0.11313 0.029769 0.042265 0.049664 0.12201 0.1784 -0.10012 
0.12875 0.10425 0.01267 0.080409 0.05772 0.11165 -0.13103 -0.0771 
0.049828 0.11296 0.0032988 0.043416 0.060679 0.060186 -0.51477 -0.099295 
-0.014951 0.052952 -0.020706 0.025166 0.039963 0.020233 -0.6246 -0.014129 
0.010533 0.0592 0.0095465 0.020233 0.068407 0.0037921 -0.71091 0.17955 
0.061666 0.11411 0.049992 0.041114 0.099974 0.024015 -0.54288 0.26965 
0.056569 0.076463 0.05772 0.037661 0.088794 0.11444 -0.070523 0.22279 
-0.001798 0.034373 0.033222 0.031249 0.087314 0.24219 0.32259 0.17774 
0.004943 0.045389 0.047362 0.032236 0.088136 0.28182 0.45577 0.23035 
0.040292 0.062488 0.059035 0.029934 0.077614 0.22887 0.44212 0.25485 
0.031249 0.0689 0.067256 0.044238 0.025495 0.10869 0.21342 -0.046683 
-0.036983 0.048348 0.046211 0.0016547 -0.014787 -0.11541 -0.31517 -0.42401 
-0.091404 -0.024816 0.0067515 0.030098 -0.040271 -0.13645 -0.50573 -0.39244 
-0.040435 -0.044546 -0.0054151 -0.011498 -0.030735 0.0079024 -0.33622 -0.0042642 
-0.025474 -0.0050863 0.014643 0.026481 0.0039565 0.053445 -0.097322 0.27557 
-0.0011404 0.044073 0.015959 0.027139 0.023193 0.009711 -0.011827 0.30549 
0.077285 0.076299 0.025166 0.033222 0.014808 -0.041422 -0.059343 0.020069 
0.183 0.10754 0.036839 0.048677 0.034537 -0.045861 -0.12083 -0.21258 
0.21983 0.090109 0.043909 0.073175 0.078436 0.026317 -0.074962 -0.17246 
0.12299 0.072353 0.031578 0.066434 0.1026 0.15768 0.066434 -0.088444 
0.018918 0.069558 0.016945 0.020069 0.11822 0.2583 0.097508 -0.14385 
-0.036818 0.042594 0.0019835 0.029605 0.12003 0.29086 0.10326 -0.27061 
-0.08828 0.048019 -0.0039354 0.01415 0.092576 0.20553 0.017767 -0.18709 
-0.095678 0.04654 0.0024767 0.039963 0.072846 0.11329 0.043251 0.034702 
-0.10571 0.010533 0.040128 0.030592 0.066269 0.08304 -0.010183 0.14963 
-0.032215 0.026646 0.023686 0.078929 0.070708 0.084026 -0.023172 0.10589 
0.059035 0.0028056 0.069722 0.084355 0.071202 0.11526 -0.089431 0.13286 
0.12233 0.054267 0.046375 0.055418 0.039799 0.017767 -0.23494 0.1784 
0.1391 0.098001 0.043745 0.041114 0.030756 -0.029255 -0.040106 0.27919 
0.10129 0.049335 0.016452 0.028125 0.029276 0.038155 0.32193 0.25058 
0.019411 0.054432 0.020562 0.045718 0.033551 0.037661 0.35498 0.11905 
-0.047998 0.055747 0.028947 0.010533 -0.023172 -0.121 0.11905 0.089452 
-0.046519 0.040128 0.021549 0.010369 -0.067892 -0.28673 0.013657 0.1465 
-0.029091 0.040621 0.022535 -0.0055795 -0.0406 -0.24266 0.24893 0.14009 
0.0092177 0.04917 0.027468 0.022371 -0.0090322 -0.12642 0.57694 0.034373 
-0.015938 0.0080668 0.037168 0.00066819 -0.029913 -0.011992 0.67098 -0.16884 
-0.0088678 -0.0091966 0.032893 0.0032988 -0.048492 0.095206 0.59766 -0.49224 
-0.066906 0.0039565 0.015794 -0.016924 -0.04323 0.096193 0.31125 -0.79855 
-0.11261 -0.0077169 0.015465 0.035031 -0.028762 0.040292 0.064461 -0.54634 
-0.035174 0.013164 0.033222 0.020398 -0.0032777 0.0026412 -0.082361 0.077121 
0.075312 0.085835 0.070873 0.049335 0.018589 0.010204 -0.20025 0.39691 
0.16097 0.12973 0.07597 0.024179 0.032236 -0.0077169 -0.25006 0.35284 
0.18119 0.15752 0.071695 0.0013258 0.009711 -0.066577 -0.20962 0.1881 
0.14601 0.10096 0.069558 0.034537 0.018754 -0.053424 -0.15273 0.10885 
0.13943 0.045882 0.044073 0.028125 0.037661 0.0070803 -0.043395 0.085506 
0.10474 0.041443 0.048677 0.04917 0.038483 0.038483 0.045224 0.031742 
0.092576 0.043416 0.035524 0.034044 0.047855 0.03651 0.10589 -0.021363 
0.061501 0.066105 0.031085 0.034209 0.068407 0.11905 0.16525 0.045389 
-0.0044286 0.1054 0.011848 0.029112 0.053938 0.10376 0.17396 0.096028 
-0.046354 0.036346 0.015137 0.065118 0.047526 0.064954 0.14239 0.081724 
-0.039613 -0.008539 0.018589 0.023028 0.039963 0.030427 0.12661 0.071037 
0.029276 0.015301 0.027303 0.045389 0.01004 0.0032988 0.14091 0.097344 
0.057227 0.016452 0.024837 0.026974 -0.0077169 -0.0029489 0.11181 0.082546 
0.068571 0.032729 0.045389 0.040621 -0.013471 0.0065871 0.099974 0.039799 
0.047197 0.055418 0.042594 0.0064227 -0.0019624 -0.018897 0.11724 -0.0050863 
0.0059294 0.027468 0.056076 0.0065871 -0.00064712 -0.071016 -0.0031133 -0.042408 
-0.017582 0.012342 0.033222 0.021713 0.0014903 -0.087786 -0.28443 -0.051615 
0.01152 0.027303 0.023028 0.015959 0.010533 -0.063124 -0.28574 -0.03353 
0.084026 0.022042 0.017274 0.032729 -0.0047575 -0.074633 -0.078415 -0.058685 
0.13598 0.027961 0.012506 0.0069159 -0.064768 -0.17082 0.088465 -0.069208 
0.11921 0.041443 0.010204 0.016123 -0.0503 -0.19581 0.16722 -0.034845 
0.084355 0.028783 0.01563 -0.0075525 -0.0026201 -0.1136 0.32259 0.10441 
0.054267 0.060515 0.034702 0.030592 0.0060938 -0.034352 0.33558 0.23233 
0.045553 0.096193 0.079258 0.030098 -0.00031829 0.0047785 0.20208 0.25567 
0.041607 0.079916 0.074654 0.068242 0.057555 0.097015 0.02122 0.15982 
0.055418 0.063968 0.055582 0.055418 0.061995 0.23907 -0.19416 0.09274 
0.070215 -0.0019624 0.023028 0.045553 0.099645 0.39115 -0.32421 0.049828 
0.084026 0.0032988 0.048677 0.049664 0.16525 0.52877 -0.34624 0.057062 
0.058213 0.080244 0.078107 0.098659 0.19829 0.48832 -0.3298 0.18925 
0.066763 0.072846 0.10458 0.098001 0.19106 0.37898 -0.081045 0.25008 
0.086492 0.029276 0.10277 0.096357 0.14042 0.26554 0.25074 0.22805 
0.10984 0.061501 0.06331 0.063968 0.11395 0.15209 0.37767 0.092082 
0.059693 0.018589 0.044073 0.031249 0.089287 -0.060658 0.16689 -0.10719 
0.010862 -0.020541 0.0046141 0.034702 0.0090533 -0.4569 -0.17476 -0.11853 
-0.0064016 -0.02646 -0.0024557 -0.02498 -0.11541 -0.80101 -0.37535 -0.088608 
-0.04471 -0.068386 -0.035503 -0.040928 -0.26502 -0.85889 -0.20353 -0.22984 
-0.10143 -0.092719 -0.057205 -0.088444 -0.31862 -0.65485 0.25452 -0.40428 
-0.15421 -0.060987 -0.0031133 -0.033201 -0.24908 -0.2813 0.57349 -0.28969 
-0.13251 0.0014903 0.041772 0.009711 -0.10127 0.10524 0.57924 0.046704 
-0.088773 0.050979 0.05065 0.061337 0.035524 0.29579 0.33213 0.18974 
-0.039449 0.095042 0.044402 0.071366 0.12102 0.36485 -0.13415 0.1368 
0.050814 0.10096 0.051636 0.061995 0.12891 0.32917 -0.42944 0.23611 
0.14354 0.14206 0.027632 0.02122 0.10408 0.23101 -0.41185 0.46448 
0.21506 0.09981 0.037004 0.012835 0.096193 0.12398 -0.32471 0.50345 
0.22427 0.037004 0.01826 0.050157 0.11378 0.064954 -0.23099 0.30056 
0.14963 0.0087245 0.01004 0.01711 0.091753 0.039141 -0.054082 0.090767 
0.035195 -0.022514 0.00083261 0.040456 0.094548 0.06742 0.17297 -0.045039 
-0.031557 0.0080668 0.0018191 0.0026412 0.090767 0.067585 0.28214 -0.19679 
-0.010019 0.031578 0.022535 0.057884 0.060679 0.010533 0.30155 -0.30596 
0.0075736 0.021549 0.050814 0.038977 0.041114 0.024015 0.32933 -0.098802 
0.0032988 0.0032988 0.041114 0.055418 0.021878 0.048019 0.29628 0.1368 
-0.037147 0.05213 0.025988 0.019905 -0.0067304 -0.00031829 0.17429 0.13894 
-0.047176 0.027961 0.023851 0.012999 -0.032543 -0.0060728 -0.010348 -0.021692 
-0.078744 0.010369 0.028454 0.0090533 -0.016266 -0.015773 -0.14599 -0.098144 
-0.066906 0.049006 0.036017 0.014479 0.0016547 -0.026789 -0.1741 -0.12873 
-0.032708 0.066927 0.055582 0.039963 0.023851 1.0539e-005 -0.10784 -0.14878 
-0.012485 0.042594 0.063145 0.014808 0.042265 -0.0014692 -0.045039 -0.02087 
0.0026412 0.053774 0.051636 0.042594 0.040785 1.0539e-005 0.0098754 0.12595 
-0.02235 0.01415 0.027961 0.028783 0.053116 -0.0087034 0.018096 0.15028 
-0.038298 0.027796 0.016781 0.049335 0.05213 -0.048163 -0.023665 0.075476 
-0.018733 0.05476 0.020727 0.017932 0.041772 -0.034845 0.0023123 -0.031886 
0.053774 0.051308 0.014315 0.047197 0.015301 -0.011827 0.06183 -0.19433 
0.095535 0.035031 0.010204 -0.003771 -0.015116 0.0039565 0.0044497 -0.27752 
0.073504 0.048019 0.02122 0.0088889 -0.026953 0.021384 -0.16046 -0.087129 
0.031414 0.024344 0.031414 0.0098754 -0.02087 0.025166 -0.24365 0.068571 
0.005765 0.039799 0.01152 0.0085601 0.01267 0.10754 -0.075784 0.10063 
0.01004 0.041936 0.037826 0.018096 0.056733 0.32604 0.28724 0.08715 
0.07449 0.060844 0.019247 0.032071 0.1031 0.35695 0.39 0.079258 
0.062488 0.10902 0.029441 0.039799 0.10228 0.29875 0.10819 0.0592 
0.023851 0.043087 0.011848 0.031249 0.097179 0.17643 -0.13875 0.029934 
-0.010183 0.034537 0.0070803 0.049664 0.077614 -0.017582 -0.097816 0.051308 
0.0052718 0.056733 0.0087245 0.016781 0.07597 -0.20633 -0.22688 0.071531 
0.026317 0.051636 0.010862 0.037826 0.054432 -0.32816 -0.50474 0.074654 
0.032893 0.057227 0.024015 0.020727 0.037826 -0.28919 -0.44687 0.073832 
0.058377 0.085177 0.044238 0.055418 0.062981 -0.068714 0.01563 0.072353 
0.046704 0.065447 0.031578 0.030756 0.032729 0.14354 0.41055 0.084026 
0.059364 0.079258 0.044896 0.046046 0.017274 0.21474 0.63416 0.099645 
0.064954 0.086163 0.038155 0.018918 0.00297 0.27212 0.6141 0.080244 
0.031249 0.0592 0.041114 0.022371 0.00050378 0.24334 0.29448 -0.046847 
0.011026 0.072353 0.050486 0.031907 0.044896 0.14913 -0.11804 -0.24661 
0.024508 0.060679 0.033387 0.028454 0.052952 0.16755 -0.35381 -0.30843 
0.037497 0.057555 0.017603 0.029934 0.039799 0.12036 -0.36663 -0.15076 
0.035031 0.049335 0.034702 -0.0014692 0.053281 0.13368 -0.21192 0.055747 
0.079587 0.071531 0.037004 0.016616 0.065447 0.12299 0.027796 0.14239 
0.098166 0.055747 0.056404 0.023193 0.083862 0.082382 0.095371 0.13598 
0.09981 0.052459 0.075476 0.078436 0.10343 0.03947 0.084848 0.16903 
0.060515 0.057227 0.08978 0.074654 0.09274 0.015794 0.073668 0.20553 
0.029276 0.087479 0.086985 0.090767 0.068242 0.0069159 0.099481 0.12102 
-0.015773 0.11115 0.049992 0.023193 0.012013 0.01826 0.1202 -0.031886 
-0.065919 0.07301 0.022042 0.01563 0.00099702 0.053774 0.09833 -0.027118 
-0.084991 0.027961 0.009711 -0.004593 -0.031557 0.031414 0.023686 0.064954 
-0.010019 0.022535 0.0016547 -0.010348 -0.073482 -0.011827 -0.012814 0.1373 
0.049828 -0.0049219 -0.004593 -0.0032777 -0.043559 -0.070523 -0.12198 0.11921 
0.071202 0.024179 0.0018191 0.016781 -0.0082102 -0.12182 -0.3275 0.085835 
0.074161 0.016123 0.0018191 0.036675 0.014315 -0.14221 -0.28788 0.095206 
0.089123 -0.0019624 0.0016547 0.010369 -0.0042642 -0.16753 0.0075736 0.087314 
0.086492 0.010533 0.0028056 0.02829 -0.010019 -0.14862 0.20816 -0.043559 
0.10326 0.058542 0.021056 0.029934 0.038155 -0.032379 0.26932 -0.24102 
0.14321 0.0592 0.041278 0.08567 0.091753 0.058213 0.30878 -0.18627 
0.15292 0.098988 0.062817 0.040785 0.068078 0.10458 0.26685 0.057227 
0.11346 0.14881 0.05624 0.045389 0.014972 0.13631 0.19057 0.14601 
0.022535 0.09833 0.037826 0.010204 -0.0029489 0.089287 -0.011992 0.12924 
-0.022021 0.027632 0.021549 0.012835 -0.03616 0.072188 -0.22425 0.21769 
-0.06148 0.011026 0.0046141 0.0093821 -0.033365 0.022535 -0.18183 0.22033 
-0.062796 -0.053424 -0.013636 0.015137 0.0070803 -0.0013048 0.020069 0.18744 
0.020069 -0.015116 0.020233 0.028783 0.021878 -0.0047575 0.23479 0.16262 
0.093726 0.029276 0.040785 0.068078 0.03092 -0.0098543 0.17215 0.054267 
0.10556 0.027139 0.028619 0.018918 -0.035996 -0.15799 -0.012814 -0.068221 
0.048019 0.066434 0.018589 -0.025474 -0.055561 -0.27407 -0.15668 -0.22277 
-0.0503 0.035195 0.031249 -0.008539 -0.053095 -0.21965 -0.091568 -0.42878 
-0.10094 0.0088889 0.026152 0.021713 0.013492 0.046211 0.24203 -0.42812 
-0.067892 0.039963 0.029605 0.03947 0.07449 0.25058 0.50772 -0.22162 
-0.023007 0.042265 0.035524 0.037168 0.11411 0.24038 0.48339 0.15209 
0.046211 0.055747 0.077449 0.071695 0.10293 0.12168 0.24055 0.38721 
0.072517 0.057391 0.070544 0.052952 0.11083 0.033387 -0.084663 0.33262 
0.019083 0.021549 0.040785 0.04654 0.090109 0.017932 -0.44571 0.16081 
0.0039565 0.03388 0.03799 0.048841 0.059857 0.13878 -0.73607 0.068078 
-0.029255 0.05213 0.040456 0.034044 0.069886 0.29711 -0.83488 -0.0052507 
-0.062138 -0.054904 0.0039565 0.016123 -0.009361 0.26636 -0.49833 -0.018404 
-0.052602 -0.11163 -0.024487 -0.048985 -0.083676 0.23825 0.14223 -0.061151 
0.051636 0.0024767 -0.01528 -0.02646 -0.033037 0.31453 0.78492 -0.1108 
0.14897 0.084684 0.033222 0.0090533 -0.004593 0.15686 0.87025 -0.044052 
0.16442 0.10704 0.046375 0.042265 -0.040928 -0.24349 0.55902 0.069064 
0.049499 0.063968 0.018754 -0.014458 -0.082525 -0.60289 0.17018 0.019083 
-0.042901 -0.0064016 -0.017088 -0.0088678 -0.09798 -0.80266 -0.065591 -0.15832 
0.00033937 0.027303 -0.017911 -0.026624 -0.07414 -0.64449 0.31141 -0.17345 
0.080244 0.049828 -0.0049219 0.024673 -0.0082102 -0.38669 0.35169 -0.034845 
0.10836 0.026481 -0.0029489 0.029112 0.0037921 -0.28952 -0.11935 0.10524 
0.054925 0.029112 0.0024767 0.019083 -0.03353 -0.21899 0.012013 0.18202 
0.004943 0.038977 0.022864 0.023357 -0.017088 0.061501 0.75171 0.28247 
0.026317 0.075148 0.040621 0.044896 0.058213 0.40463 1.1378 0.38408 
0.049499 0.14946 0.070544 0.096521 0.10211 0.52992 0.60226 0.33377 
0.088301 0.1442 0.088794 0.11855 0.13236 0.37931 -0.27884 0.23742 
0.1151 0.13023 0.10803 0.1345 0.14009 0.27458 -0.69546 0.15916 
0.050486 0.097015 0.073668 0.063474 0.093398 0.18498 -0.65403 0.058871 
-0.024323 0.018096 0.033715 0.028947 0.021878 0.017767 -0.4541 0.066598 
-0.092226 0.0011614 0.0028056 -0.026624 -0.022679 -0.083183 -0.26174 0.064461 
-0.15799 0.0039565 -0.0083746 -0.0039354 -0.013965 -0.05441 -0.19367 -0.090581 
-0.19548 -0.051451 -0.017088 -0.018075 0.024837 -0.03353 -0.044052 -0.15947 
-0.11491 -0.031721 0.009711 0.016781 0.043909 0.015959 0.14848 -0.18249 
0.039634 0.040785 0.03536 0.020562 0.067749 0.034537 0.23003 -0.35989 
0.15144 0.076792 0.070051 0.038648 0.062817 0.0090533 0.27096 -0.29495 
0.17676 0.099316 0.070708 0.036017 0.031085 -0.02498 0.25025 0.061995 
0.15587 0.079094 0.03092 0.016781 0.0083956 -0.076771 0.10129 -0.01676 
0.15587 0.00297 0.07038 0.021549 -0.020706 -0.10275 -0.070852 -0.24398 
0.10491 0.035031 0.051965 0.01267 0.004943 -0.040271 -0.092719 -0.23066 
0.024015 0.049992 0.033551 0.092247 0.034044 -0.019884 -0.12297 -0.083018 
-0.026296 0.075312 0.049499 0.032564 0.03092 -0.014293 -0.14204 -0.00031829 
-0.027447 0.095371 0.023357 0.064954 0.072188 0.038977 -0.10784 0.18399 
0.020562 0.059364 0.035195 0.057555 0.0786 0.05624 0.0037921 0.39493 
0.068242 0.026481 0.034702 0.063639 0.099974 0.065118 0.0592 0.524 
0.061008 0.066927 0.033387 0.027961 0.068736 0.11395 0.07301 0.47254 
0.053609 0.071366 0.025659 0.041936 0.024508 0.1179 -0.024323 0.41368 
0.048348 0.041278 0.016781 0.018754 0.065283 0.13056 -0.01676 0.31749 
0.11428 0.038977 0.027303 0.034209 0.078929 0.14486 0.11263 0.15341 
0.18021 0.046704 0.037004 0.039141 0.059528 0.074819 0.095042 0.030592 
0.1733 0.059693 0.045882 0.032564 0.0018191 0.00297 -0.077757 -0.05326 
0.05624 0.044402 0.017932 0.015465 -0.0098543 -0.035832 -0.35101 -0.18956 
-0.047834 -0.034845 0.0062583 0.013657 -0.0055795 -0.00064712 -0.51 -0.40658 
-0.065755 0.010204 0.0085601 0.030098 0.041772 0.06183 -0.59056 -0.70779 
-0.047341 0.024344 0.025001 0.02122 0.040128 0.016945 -0.38472 -0.85264 
-0.050958 0.013164 0.028454 0.031249 0.021549 0.029605 -0.11409 -0.62542 
-0.036325 0.018096 -0.0044286 -0.0050863 0.035031 0.12217 0.11346 -0.14336 
0.016945 0.089945 0.014643 0.025001 0.065776 0.20372 0.24762 0.4773 
0.068078 0.080573 0.034702 0.017438 0.068736 0.17314 0.17593 0.66622 
0.02829 0.059364 0.066763 0.06594 0.054103 0.12875 0.038648 0.51939 
-0.021363 0.069886 0.072024 0.050157 0.047033 0.099974 -0.072167 0.20306 
-0.042079 0.073832 0.090767 0.039799 0.033715 0.11592 -0.14089 -0.0059084 
-0.053095 0.080902 0.069558 0.027796 0.041607 0.13615 -0.13645 -0.022514 
-0.014787 0.071695 0.063474 0.025659 0.062817 0.14683 -0.10275 0.00033937 
0.1077 0.027796 0.06479 0.047526 0.088465 0.15209 -0.13497 0.018096 
0.14798 0.031907 0.072353 0.05213 0.1054 0.14831 -0.15257 0.024673 
0.10984 0.010533 0.054432 0.044896 0.07301 0.10441 -0.12166 0.032236 
0.091753 0.00033937 0.038483 0.031085 0.07038 0.093398 -0.03912 0.039141 
0.093069 -0.0095255 1.0539e-005 0.034866 0.054596 0.077943 0.049499 0.085506 
0.055911 -0.052109 -0.021692 -0.0016336 0.03536 0.041772 0.13565 0.040292 
0.016123 -0.034188 -0.0060728 0.046704 0.023522 0.060515 0.22937 -0.059014 
0.025659 0.067091 0.01267 -0.0036066 0.020398 0.040456 0.24417 -0.16868 
-0.0029489 0.078765 0.03799 0.023522 0.013986 0.015794 0.19928 -0.22935 
-0.055726 0.073997 0.051965 0.020891 0.03388 0.0095465 0.13664 -0.10456 
0.0041209 0.10376 0.085341 0.060186 0.047362 0.016781 0.054432 0.086163 
0.011684 0.073668 0.054925 0.037332 0.015959 0.037332 0.072846 0.24005 
-0.046025 0.011355 0.01563 0.013328 -0.034845 0.038155 0.12431 0.27458 
-0.085813 -0.017088 -0.028597 -0.011827 -0.038462 -0.0047575 0.13845 0.21095 
-0.09387 -0.0060728 -0.0096899 0.017932 -0.015938 -0.0073881 0.1641 0.12694 
-0.093048 0.032564 -0.0024557 0.021549 -0.006566 -0.041257 0.15522 0.17034 
-0.073482 0.061501 0.012999 0.0074092 0.0095465 -0.013636 0.11231 0.23183 
0.043416 0.078929 0.034537 0.06594 0.044731 0.066105 -0.061316 0.2246 
0.16969 0.13368 0.062652 0.040621 0.07301 0.12085 -0.17591 0.1761 
0.21983 0.1054 0.06035 0.095699 0.090438 0.12217 -0.11656 0.05624 
0.12842 0.052459 0.051965 0.073175 0.036182 0.10704 0.044073 -0.072496 
0.019247 0.023193 0.030263 0.04358 0.018754 0.035853 0.10458 -0.17558 
-0.02794 -0.010183 0.015301 -0.0019624 -0.0078813 -0.070687 0.10704 -0.34526 
-0.054082 -0.036325 0.0051074 -0.020212 -0.055232 -0.24924 0.054103 -0.31681 
-0.019061 -0.009361 0.015137 -0.029091 -0.093048 -0.36301 0.22378 -0.043724 
0.072024 0.021056 0.031414 -0.020048 -0.089266 -0.28706 0.37652 0.20076 
0.16607 0.058706 0.03388 0.0047785 -0.059507 -0.14517 0.46481 0.31157 
0.096193 0.065447 0.0023123 0.0072447 -0.066577 -0.084827 0.54175 0.33032 
-0.062796 0.036346 0.022371 0.016616 -0.08269 -0.045861 0.48783 0.26126 
-0.075784 0.0083956 0.038155 0.0059294 -0.018075 0.02122 0.086328 0.21293 
-0.036818 0.081231 0.064461 0.089616 0.090274 0.085012 -0.43125 0.22542 
0.054267 0.1179 0.09422 0.067749 0.15357 0.12743 -0.46758 0.21227 
0.063145 0.14338 0.090438 0.076792 0.12151 0.098659 -0.25697 0.074983 
0.076956 0.13861 0.051965 0.03536 0.098166 0.0689 -0.17065 -0.12708 
0.038648 0.041114 0.025659 0.025495 0.072353 0.10819 -0.14895 -0.26157 
0.052787 -0.014293 0.021384 0.02122 0.0592 0.15489 0.16179 -0.2351 
0.1128 0.012835 -0.0060728 0.012342 0.035031 0.096357 0.5896 -0.11491 
0.18251 0.037661 0.017438 0.01415 0.015301 0.040456 0.65257 0.14157 
0.16936 0.049664 0.02122 -0.0013048 -0.0083746 -0.03205 0.43045 0.3415 
0.10145 0.053938 0.02122 0.0227 -0.011005 -0.099624 0.20898 0.34248 
0.061995 0.0082312 0.0088889 0.0075736 -0.040271 -0.18578 0.013492 0.22772 
0.020233 -0.0004827 0.00033937 0.032729 -0.050958 -0.3155 -0.44966 -0.0073881 
-0.063618 0.013164 0.013986 0.016781 -0.035174 -0.25631 -0.58596 -0.31418 
-0.13119 0.051472 0.024508 0.040292 -0.025638 -0.14829 -0.19844 -0.50244 
-0.14928 0.11905 0.042429 0.0046141 -0.020541 -0.087458 0.24417 -0.47646 
-0.15339 0.11543 0.045718 0.037168 0.011684 -0.006566 0.64632 -0.13201 
-0.11705 0.045718 0.015301 0.03799 0.024344 0.091918 0.83754 0.17429 
-0.054246 0.04358 0.0021479 0.025988 0.031742 0.11461 0.70354 0.2851 
0.021384 0.016452 0.00017495 0.014315 0.0088889 0.083862 0.32062 0.23726 
0.13384 0.020233 0.0024767 0.00050378 -0.0034422 0.026317 -0.081703 0.13483 
0.14272 0.076956 0.0087245 0.021056 0.011026 0.027796 -0.35052 0.049992 
0.1756 0.09981 0.037497 0.032071 0.066434 0.046868 -0.45262 0.06594 
0.17922 0.084684 0.041936 0.066763 0.079422 0.00033937 -0.46101 0.09685 
0.13762 0.06594 0.051308 0.041607 0.059693 -0.027118 -0.40839 0.0042853 
0.060515 0.015137 0.034537 0.078929 0.060679 -0.012156 -0.25154 -0.085485 
0.023028 0.013492 0.038319 0.023522 0.04506 0.010862 -0.022514 -0.10521 
0.041114 0.095535 0.044402 0.038648 0.07597 0.062323 0.16229 -0.11113 
0.057227 0.07449 0.06183 0.037004 0.08978 0.1345 0.064625 -0.094527 
0.047362 0.06331 0.044567 0.054103 0.095864 0.15275 -0.026953 -0.079566 
-0.038462 0.010533 0.013492 0.015794 0.08715 0.15867 0.094548 0.028619 
-0.07973 -0.010183 0.016616 -0.0011404 0.033058 0.15012 0.15176 0.099645 
-0.064768 0.028454 0.037497 0.029112 0.028619 0.10129 0.13812 0.12842 
0.00066819 0.087479 0.044238 0.064625 0.10211 0.14174 0.20882 0.11872 
0.042429 0.057227 0.016945 0.084519 0.10211 0.16886 0.28543 0.077449 
0.040292 0.015959 -0.0042642 0.04095 0.058213 0.066434 0.24137 -0.030242 
0.061995 -0.016102 -0.018075 0.021878 -0.0026201 -0.027118 0.16146 -0.096829 
0.05065 -0.047341 -0.019884 -0.0095255 -0.034845 -0.14977 0.033551 -0.14599 
0.046868 -0.010676 -0.012978 0.029112 -0.042737 -0.24727 -0.086142 -0.16769 
0.051801 0.04095 0.037826 0.016123 -0.025802 -0.18693 -0.24151 -0.10193 
0.077943 0.069722 0.062981 0.037497 -0.0090322 -0.091732 -0.25269 -0.025145 
0.037826 0.13056 0.053281 0.02829 0.0080668 -0.02942 -0.1912 -0.042737 
-0.011498 0.069722 0.03651 0.03092 0.01711 -0.00081153 -0.20452 -0.039284 
-0.058028 0.030263 -0.0060728 -0.0022913 0.022371 0.036017 -0.20107 0.13516 
-0.036818 0.042594 -0.016595 -0.0083746 0.0075736 0.11 -0.16276 0.24976 
0.023522 0.037826 0.0011614 0.01826 0.0062583 0.18744 -0.18578 0.26537 
0.092576 0.052459 0.031907 0.044731 0.054432 0.23693 -0.42977 0.10787 
0.060186 0.086328 0.041936 0.079751 0.090603 0.22065 -0.57314 -0.14944 
0.011848 0.059035 0.029769 0.053116 0.08715 0.20388 -0.42385 -0.34082 
0.014643 -0.0090322 0.014643 0.065612 0.088465 0.16229 -0.17854 -0.26239 
0.090274 0.011191 0.019247 0.046868 0.085999 0.13467 0.041114 -0.048985 
0.12809 0.03651 0.039799 0.080738 0.08304 0.064461 0.15259 0.031085 
0.14765 0.072517 0.06479 0.047526 0.087972 -0.034352 0.10376 0.13269 
0.10145 0.062323 0.064132 0.065776 0.054103 -0.047012 0.037004 0.24367 
0.0032988 0.035524 0.057555 0.015959 0.018096 -0.063782 0.051636 0.22148 
-0.088608 0.032236 0.023028 0.023357 -0.0026201 -0.066741 0.15028 0.06594 
-0.096172 0.014479 0.039799 0.0098754 -0.015938 0.016945 0.22838 -0.080059 
-0.043395 0.0034632 0.05476 0.0070803 -0.020541 0.0080668 0.2001 0.020891 
0.017274 0.04095 0.068736 0.0074092 -0.017088 0.014315 0.10737 0.14617 
0.033058 0.062159 0.078765 -0.00097594 0.019083 0.049828 0.0018191 0.094055 
0.070051 0.060515 0.076134 0.041278 0.023193 0.060844 -0.08121 -0.1917 
0.083862 0.088794 0.069393 0.032893 0.044402 0.072188 -0.24793 -0.37354 
0.026152 0.017932 0.024837 0.044896 0.028125 0.060022 -0.27653 -0.17164 
0.010204 -0.028926 0.032236 0.028454 0.022535 0.044731 0.030263 0.23874 
0.025166 0.0060938 0.036182 0.050321 -0.003771 0.054596 0.19533 0.42814 
0.076463 0.056076 0.06035 0.027139 -0.01528 -0.025967 0.058213 0.36994 
0.092411 0.07449 0.054103 0.028783 0.0059294 -0.079237 -0.037311 0.26028 
0.076463 0.08863 0.0592 -0.013965 0.031249 -0.046847 -0.11607 0.14075 
0.021878 0.024344 0.018589 -0.004593 0.03092 -0.08532 -0.22803 -0.033365 
0.01004 0.01267 0.01152 -0.016431 -0.0055795 -0.10702 0.011355 -0.14369 
0.0083956 0.034044 0.011848 -0.012978 -0.01676 -0.050958 0.3632 -0.23822 
0.017767 0.031907 0.024673 0.0088889 -0.011334 0.026974 0.46826 -0.32602 
0.024179 0.062488 0.043745 0.020069 0.0034632 0.12924 0.36287 -0.11343 
0.060679 0.11362 0.052952 0.070215 0.08304 0.24745 0.33689 0.29382 
0.067256 0.083533 0.065447 0.065776 0.092247 0.28362 0.28379 0.44935 
0.01711 0.065118 0.06742 0.10408 0.08978 0.19583 0.021549 0.41318 
-0.044052 0.053774 0.06479 0.050814 0.053116 0.11148 -0.20748 0.21326 
-0.065262 0.0060938 0.049335 0.035031 0.037826 0.040621 -0.35874 0.034866 
-0.057863 0.056733 0.029934 0.011026 0.050814 0.030756 -0.33194 -0.24184 
0.031249 0.066105 0.033551 0.033058 0.073175 -0.010676 -0.18561 -0.49718 
0.063968 0.04358 0.044402 0.019083 0.070873 -0.11228 0.063474 -0.19761 
0.067256 0.04654 0.021384 0.0074092 0.038155 -0.1233 0.26801 0.19221 
0.046046 0.03388 0.041607 -0.006566 0.007738 -0.034023 0.317 0.30072 
0.0060938 0.01711 0.033715 0.0044497 0.0034632 0.043745 0.34857 0.26176 
-0.018568 0.051308 0.037004 0.021056 0.0069159 0.075476 0.34002 0.17051 
-0.0068948 0.010862 0.042429 0.018425 0.020891 0.060022 0.35794 0.07038 
0.01974 0.019905 0.048677 0.046868 0.014808 0.030427 0.32769 0.053609 
0.086492 0.044073 0.053774 0.0079024 0.00297 -0.0050863 0.11 0.13582 
0.15522 0.053609 0.064296 0.020891 -0.022514 -0.042901 -0.044546 0.24038 
0.10951 0.071531 0.063968 0.0092177 -0.012978 -0.092226 0.009711 0.078272 
0.038319 0.057062 0.03651 0.046046 0.0064227 -0.057699 0.12151 -0.09387 
0.014643 0.023028 0.029769 0.034866 0.046868 0.0065871 0.22148 -0.13382 
0.017438 0.037168 0.020562 0.051801 0.086163 0.049335 0.23594 -0.12675 
0.016288 0.054596 0.013164 0.04917 0.082875 0.023028 0.26274 -0.083676 
-0.0087034 0.03536 0.015794 0.0054362 0.031414 -0.016102 0.35514 0.027468 
0.021713 0.072353 0.030263 -0.0088678 -0.028926 -0.03764 0.37783 0.12431 
0.041936 0.085012 0.010862 0.0069159 -0.070194 -0.022185 0.17265 0.13088 
0.034866 0.062488 0.033551 0.015959 -0.030242 0.028947 -0.16588 0.12135 
0.047526 0.040456 0.0085601 0.023686 0.024344 0.092576 -0.52299 0.018754 
0.087479 0.028947 0.020233 0.06594 0.064296 0.1248 -0.57182 0.015301 
0.031414 -0.026624 0.0041209 0.042265 0.082053 0.11642 -0.38735 0.07597 
-0.080059 -0.032708 -0.012814 0.053938 0.06331 0.11033 -0.11804 0.011191 
-0.056712 0.010697 0.0032988 0.022206 0.051636 0.12414 0.13861 -0.024652 
0.028619 0.083533 0.043909 0.028947 0.051801 0.062981 0.25173 0.00083261 
-0.0032777 0.15127 0.043251 0.019576 0.0592 -0.0060728 0.3946 -0.034516 
-0.018239 0.06742 0.029276 0.017932 0.060679 -0.057863 0.51496 0.0070803 
-0.0029489 0.022864 0.004943 0.021384 0.01826 -0.099624 0.29826 0.13187 
0.070873 0.0034632 -0.021034 0.01826 -0.023665 -0.21652 -0.028433 0.12398 
0.11642 0.027632 -0.0016336 -0.011827 -0.0503 -0.29265 -0.19581 0.070873 
0.14108 0.04095 0.014315 0.0070803 -0.047505 -0.17016 -0.064111 0.023357 
0.17593 0.058871 0.033387 0.029441 -0.032708 -0.021199 0.057227 0.0059294 
0.14453 0.026152 0.032236 0.029276 -0.0096899 0.022864 0.057062 -0.071674 
0.082875 -0.010676 0.019411 0.034537 -0.021856 0.016123 -0.019226 -0.17575 
0.028454 0.019083 0.01826 0.01004 -0.031392 0.0024767 -0.041751 -0.11968 
0.055582 0.060186 0.050157 0.05065 0.005765 0.0039565 -0.24299 0.075148 
0.04917 0.095042 0.064461 0.027468 0.031742 0.0592 -0.40478 0.066598 
-0.012649 0.070051 0.060844 0.065118 0.070873 0.12727 -0.18726 0.0075736 
-0.059014 0.03388 0.047033 0.044567 0.083204 0.14535 0.06594 0.11198 
-0.11574 0.0324 0.028947 0.035688 0.099316 0.15571 0.18185 0.1659 
-0.15914 0.058542 0.020069 0.036182 0.099152 0.081889 0.17149 0.095206 
-0.15092 0.057884 0.014643 0.025166 0.10819 0.026152 0.038155 -0.042901 
-0.11524 0.0095465 0.01267 0.034702 0.073997 0.027961 -0.062138 -0.1358 
-0.073976 0.0083956 0.0083956 0.044567 0.059528 -0.0004827 -0.11294 -0.12593 
0.051143 0.016288 0.024673 0.057884 0.044567 0.079751 -0.051122 -0.055232 
0.14371 0.050486 0.027961 0.064132 0.036675 0.20372 0.079587 0.0054362 
0.1909 0.045553 0.02829 0.062323 0.024344 0.15341 0.057884 -0.010841 
0.15604 0.054103 0.015301 0.028947 -0.018568 0.039305 -0.05885 -0.065919 
0.066105 0.067091 0.026646 0.023522 -0.050464 -0.070687 -0.20896 -0.091075 
0.058049 0.053445 0.0227 -0.0075525 -0.066413 -0.15996 -0.17789 -0.03353 
0.092082 0.073175 0.026974 0.012177 -0.058192 -0.13448 0.074326 0.014479 
0.10836 0.12644 0.030427 0.013328 -0.0057439 -0.027611 0.25699 0.076299 
0.079258 0.085999 0.021713 0.031414 0.026481 -0.039449 0.19714 0.12924 
0.025166 0.013164 -0.014129 0.020562 0.053938 -0.055397 0.035853 0.15374 
-0.03353 -0.047669 -0.037805 0.017274 0.062981 0.027796 0.037168 0.25683 
-0.121 -0.1256 -0.058192 0.020069 0.064625 0.13351 0.026974 0.19566 
-0.14648 -0.038956 -0.03616 0.035853 0.11609 0.24137 -0.053753 0.12266 
-0.041915 0.072353 0.039799 0.11428 0.1641 0.26916 -0.25417 0.15703 
0.05476 0.082546 0.080573 0.10737 0.19139 0.27902 -0.39606 0.074161 
0.066105 0.081231 0.077449 0.11921 0.15489 0.23085 -0.38422 -0.085978 
0.056404 0.068571 0.057062 0.066927 0.10408 0.16311 -0.35414 -0.09798 
0.02533 0.05476 0.07301 0.066598 0.0786 0.1955 -0.054575 -0.094363 
-0.00081153 0.093726 0.096521 0.018754 0.032564 0.26768 0.18366 -0.12527 
-0.026131 0.099645 0.091753 0.023686 0.0070803 0.18415 0.24828 -0.11656 
-0.014787 0.024673 0.084355 0.0046141 0.0060938 0.021056 0.21309 -0.027447 
0.015301 0.024015 0.066434 -0.0047575 -0.030899 -0.1187 0.044731 -0.0022913 
0.056076 -0.015116 0.010369 -0.044381 -0.12346 -0.33786 -0.13481 -0.10291 
0.023522 -0.049807 -0.023501 -0.057699 -0.14171 -0.486 -0.15733 -0.12873 
0.02829 0.039141 -0.023007 -0.038133 -0.13645 -0.44177 0.058542 0.049992 
0.13943 0.079587 -0.00064712 -0.020048 -0.091897 -0.28837 0.26242 0.24285 
0.20619 0.12612 0.03947 0.048348 -0.027118 -0.066413 0.31667 0.29563 
0.19172 0.13368 0.043909 0.032564 0.0064227 0.079422 0.41483 0.086328 
0.041936 0.049664 0.018425 0.039799 -0.01939 0.10902 0.59766 -0.09239 
-0.10834 -0.07266 -0.045368 -0.0078813 -0.050136 0.10425 0.69269 -0.064933 
-0.12001 -0.072167 -0.020048 0.0324 0.0046141 0.15045 0.55869 0.12825 
-0.0019624 0.0079024 0.00050378 0.012506 0.065283 0.20027 0.40217 0.28889 
0.16508 0.11888 0.031085 0.039141 0.077614 0.25666 0.15867 0.34002 
0.14913 0.16656 0.049992 0.045882 0.081231 0.15472 -0.1838 0.24285 
0.025988 0.078107 0.058213 0.034537 0.10293 0.075641 -0.29034 0.0093821 
-0.11228 0.0074092 0.032071 0.031249 0.10113 0.061172 -0.28656 -0.14073 
-0.17821 -0.0050863 0.0013258 -0.0068948 0.031742 0.029441 -0.29856 -0.21537 
-0.13267 -0.012156 -0.017582 -0.0138 0.0052718 -0.0073881 -0.33128 -0.20995 
-0.0031133 0.025001 0.009711 -0.024652 0.0075736 -0.067892 -0.41037 -0.030406 
0.1128 0.060022 0.050321 0.031414 0.042594 -0.10752 -0.4125 0.17495 
0.18136 0.079751 0.053774 0.028619 0.054267 -0.068221 -0.29314 0.044402 
0.23151 0.13993 0.079422 0.067091 0.057227 -0.013143 -0.08532 -0.27094 
0.22657 0.12184 0.070544 0.027139 0.028125 -0.044052 0.14404 -0.25039 
0.20273 0.077121 0.056404 0.041443 -0.028926 -0.065591 0.33492 0.030263 
0.1465 0.025824 0.0072447 -0.0098543 -0.066084 -0.094527 0.38901 0.21802 
0.071037 -0.030735 0.014808 0.0032988 -0.039613 -0.066741 0.38688 0.17462 
-0.0055795 0.01415 0.049335 0.0074092 0.0037921 0.024015 0.22 0.063803 
-0.076771 0.068078 0.0786 0.030427 0.054103 0.074654 -0.096665 0.044731 
-0.089924 0.053609 0.11609 0.047033 0.063639 0.044567 -0.20353 0.082217 
-0.044546 0.047526 0.061172 0.046211 0.057884 0.047855 -0.13727 0.11625 
-0.0054151 0.061008 0.026481 0.0324 0.03536 0.062981 -0.053095 0.069722 
0.011355 0.0093821 0.015959 -0.006566 0.01711 0.099974 0.06479 0.010369 
-0.00064712 -0.022679 -0.014458 -0.0082102 -0.011992 0.14289 0.10063 -0.066413 
-0.027447 -0.018239 -0.013143 -0.012814 -0.054246 0.08156 0.18054 -0.15125 
-0.036983 0.023028 0.0065871 0.04095 -0.060494 0.032893 0.30483 -0.14517 
-0.025967 0.08863 0.050157 0.03947 0.014479 0.035524 0.24433 -0.035338 
0.022864 0.14979 0.080244 0.08156 0.05476 -0.020541 0.078107 0.093891 
0.10162 0.14141 0.054432 0.050321 0.056569 -0.28804 -0.28722 0.19385 
0.10063 0.092576 0.027468 0.054596 0.055418 -0.4301 -0.31106 0.26932 
0.049499 0.02681 0.021549 0.046704 0.068078 -0.21258 0.17018 0.14634 
0.021713 -0.027775 0.025988 0.045389 0.078436 0.13565 0.47533 -0.079566 
0.041114 0.010369 0.021056 0.02829 0.035524 0.27146 0.50164 -0.11557 
0.085341 0.046704 0.030756 -0.014951 0.034209 0.21194 0.34906 -0.084005 
0.079258 0.090438 0.049499 0.06594 0.050157 0.22427 0.0046141 -0.20896 
0.038977 0.074326 0.044731 0.061501 0.077449 0.12233 -0.50901 -0.22573 
-0.0052507 -0.0034422 0.0056006 0.071202 0.1248 0.057227 -0.96164 0.061337 
-0.029584 -0.02646 -0.0021268 0.058706 0.15012 0.063474 -1.166 0.22871 
-0.078415 0.017438 0.029276 0.08978 0.12546 0.052952 -0.91857 0.19073 
-0.091075 -0.0014692 0.026974 0.019083 0.047526 0.072188 -0.34657 0.11494 
-0.0080457 0.01826 0.012342 0.032071 -0.006566 0.15571 0.21819 0.1391 
0.10162 0.041772 0.030592 0.02681 0.038483 0.19237 0.45642 0.079916 
0.15818 0.045882 0.037168 0.023686 0.070544 0.19188 0.40726 0.099152 
0.15735 0.052787 0.04917 0.058377 0.049499 0.16294 0.30894 0.19139 
0.087479 0.066434 0.049499 0.045224 0.055418 0.089616 0.18448 0.2417 
-0.0090322 0.040621 0.031414 0.051965 0.076134 -0.011663 0.10425 0.1294 
-0.077922 -0.016266 0.029112 0.039799 0.07597 -0.16407 0.090109 -0.10719 
-0.096829 -0.024487 0.017274 0.017438 0.033551 -0.30448 0.048184 -0.25286 
-0.035503 -0.030077 0.045882 -0.0083746 0.0034632 -0.24414 0.097344 -0.23938 
0.049828 0.035853 0.055911 0.04358 -0.0091966 -0.052273 0.29579 0.041114 
0.11083 0.097837 0.071366 0.066105 -0.010512 0.099974 0.43735 0.36517 
0.15292 0.091753 0.08715 0.04506 -0.015609 0.1567 0.44952 0.43571 
0.18169 0.090274 0.06035 0.028454 -0.019719 0.12398 0.35219 0.28527 
0.14305 0.08978 0.052459 0.036182 -0.021363 0.10195 0.24762 0.047691 
0.093562 0.064954 0.064296 0.027632 -0.010841 0.10392 0.051801 -0.20797 
0.0090533 0.05772 0.043087 0.028125 -0.032708 0.042265 -0.26075 -0.45985 
-0.058685 0.04358 0.017438 0.020562 -0.01939 0.0028056 -0.21603 -0.26601 
-0.05441 0.018425 -0.014951 0.028783 0.01267 -0.031392 -0.025474 0.09126 
-0.042573 0.0047785 -0.02942 0.032729 0.033222 -0.1011 0.032729 0.055911 
-0.0054151 -0.029255 -0.015444 0.0016547 0.04917 -0.13596 -0.10521 -0.04882 
0.092411 0.0052718 -0.0050863 0.019411 0.035031 -0.17377 -0.23987 0.019576 
0.11691 0.071202 0.010697 0.0062583 0.018589 -0.10538 -0.085813 0.15472 
0.032564 0.022206 0.020233 0.039305 0.0083956 0.042265 0.13582 0.1493 
-0.065262 -0.028762 0.0039565 -0.00064712 0.020727 0.15801 0.36583 -0.031557 
-0.10604 0.032236 0.0067515 0.03651 0.02681 0.20158 0.41433 -0.042079 
-0.068221 0.077449 0.014643 0.017274 0.041443 0.21424 0.29908 0.21901 
-0.020048 0.1003 0.042594 0.029605 0.031085 0.13286 0.13088 0.43439 
