-0.18907 1.1683 0.097672 0.031414 0.057391 0.028454 0.0074092 -0.048327 
-0.30711 0.67197 0.059693 0.021384 0.014808 0.013164 0.020233 -0.07825 
-0.40247 -0.34378 -0.052437 -0.028597 -0.026296 0.010204 0.050157 -0.1062 
-0.44571 -2.1209 -0.25647 -0.072003 -0.039284 -0.0044286 0.0019835 -0.086636 
-0.21471 -3.086 -0.29034 -0.075949 -0.019226 -0.018239 -0.0083746 -0.016102 
0.030756 -1.9896 -0.13152 -0.027611 0.0052718 0.031578 0.039141 0.099974 
0.1807 -0.18561 0.012013 0.041772 0.016781 0.024837 0.045553 0.18136 
0.2833 1.0611 0.094384 0.057391 0.021384 0.029605 0.037826 0.16163 
0.49424 1.4646 0.13532 0.096193 0.041278 0.050814 0.045389 0.14502 
0.55852 1.2372 0.16903 0.10211 0.0592 0.033715 0.043087 0.10277 
0.32308 0.45708 0.10491 0.12497 0.075476 0.047526 0.01563 -0.0026201 
-0.045696 -0.022679 0.024508 0.057884 0.05624 0.058377 0.024179 -0.037147 
-0.25467 0.097344 0.0011614 0.063803 0.039963 0.040621 0.035031 0.018589 
-0.23313 0.13664 0.04358 0.02681 0.041936 0.017274 0.013821 0.06035 
0.0032988 -0.11837 0.17955 0.062323 0.047362 0.037826 0.020398 0.085999 
0.17856 0.021384 0.28395 0.050979 0.055911 0.036839 0.029112 0.1026 
0.27129 0.2514 0.28214 0.058542 0.0592 0.054267 0.055911 0.036346 
0.2371 0.42157 0.25502 0.059528 0.058871 0.049006 0.084684 -0.0096899 
0.061501 0.60061 0.19944 0.047033 0.044402 0.043251 0.041772 -0.068221 
-0.056712 0.48602 0.12792 0.060515 0.040456 0.049664 0.042265 -0.060165 
0.046046 0.22246 0.018096 0.058377 0.045553 0.039141 0.085835 0.0019835 
0.092411 -0.18808 -0.1353 0.061666 0.025988 0.01711 0.081889 0.081724 
-0.062796 -0.25861 -0.23592 0.018425 0.018918 0.039963 0.020891 0.097344 
-0.10867 0.36106 -0.16999 0.014479 0.0070803 0.021056 -0.00097594 0.067913 
0.061337 0.92714 -0.14977 0.0069159 0.0062583 0.0026412 -0.019226 0.041278 
0.32012 0.79068 -0.14961 0.046375 0.012342 0.026646 0.028619 0.052952 
0.34824 0.16146 -0.14204 -0.003771 0.011848 0.014972 0.076956 0.04506 
0.093562 -0.42697 -0.10423 0.024508 0.021056 0.012506 0.061008 -0.019555 
-0.16654 -0.72259 -0.022021 0.015465 0.0044497 0.025988 0.058049 0.0054362 
-0.15569 -0.58859 0.031414 0.047691 0.022864 0.037826 0.079258 0.019576 
0.0028056 -0.26404 0.10556 0.026646 0.047526 0.0421 0.068242 0.033551 
0.045224 -0.30679 0.25058 0.043087 0.023851 0.021384 0.061995 0.044238 
-0.015444 -0.84343 0.26472 0.028125 0.034866 -0.0077169 0.071366 0.053609 
-0.10587 -0.94586 0.1465 -0.0075525 0.0069159 0.023522 0.063145 0.018589 
-0.046519 0.042594 0.12447 0.022371 -0.0050863 0.01152 0.05213 0.0227 
0.007738 0.83655 0.10688 -0.011827 -0.0096899 0.0024767 0.051308 -0.0004827 
-0.016102 1.0605 0.012506 0.0098754 -0.013307 0.031578 0.038319 -0.0052507 
0.042429 0.91382 -0.13843 -0.014951 -0.0047575 0.0074092 0.015465 0.00050378 
0.14683 0.60061 -0.16194 0.055582 0.015137 0.009711 0.040621 0.0028056 
0.18777 -0.040435 -0.10308 0.029605 0.031249 0.032893 0.039141 -0.0013048 
0.14026 -0.64022 -0.073318 0.055418 0.045224 0.026152 0.041114 -0.003771 
0.049828 -0.31895 0.044567 0.031742 0.037332 0.018918 0.045718 0.011684 
0.054925 0.10935 0.092576 0.048841 0.053938 0.024508 0.041443 0.053938 
0.15308 0.2052 0.0034632 0.036675 0.0421 0.01415 0.025001 0.039634 
0.073997 0.32982 0.033058 0.065118 0.034537 0.055747 0.047033 0.069722 
0.014643 0.80663 0.20125 0.073339 0.04506 0.038155 0.081067 0.14601 
0.10606 0.86318 0.28626 0.10491 0.03947 0.031742 0.099645 0.16919 
0.13845 0.027303 0.21243 0.077614 0.060515 0.054103 0.099645 0.063474 
0.021056 -1.214 0.03092 0.026152 0.030756 0.027468 0.055582 -0.0091966 
-0.27834 -1.968 -0.22096 -0.024158 -0.02942 0.00017495 0.0095465 -0.060658 
-0.63791 -1.4986 -0.36071 -0.092719 -0.044874 -0.012978 -0.0029489 -0.11113 
-0.59796 -0.5636 -0.33786 -0.096172 -0.04619 -0.034516 -0.0088678 -0.09239 
-0.15437 0.31223 -0.1935 -0.11278 -0.034681 -0.040764 0.016945 -0.041586 
0.20355 1.2524 0.018425 -0.062631 -0.033037 -0.013636 0.013821 -0.063618 
0.34577 1.7594 0.15735 -0.016431 0.009711 -0.0026201 0.023522 -0.011827 
0.30533 1.1424 0.12398 0.054925 0.029769 0.016123 0.0085601 0.032564 
0.16015 0.12299 -0.013636 0.043416 0.050321 0.028947 0.016945 0.059035 
0.026481 -0.48287 -0.013471 0.038648 0.050814 0.019576 -0.0064016 0.073175 
-0.034023 -0.7359 0.059528 0.076463 0.025824 0.035853 -0.036654 0.048019 
0.049664 -0.6292 0.16689 0.069064 0.065612 0.039963 -0.023172 0.057555 
0.11822 -0.39409 0.23923 0.093562 0.070873 0.032564 0.027632 0.069722 
0.09274 -0.32109 0.24351 0.10211 0.069229 0.06035 0.047197 0.076134 
0.082875 -0.24908 0.18498 0.10145 0.068407 0.046868 0.0786 0.076134 
0.12316 0.0024767 0.16212 0.066763 0.083697 0.03799 0.11066 0.08008 
0.075148 0.12349 0.090438 0.087314 0.06742 0.066598 0.055582 0.035195 
-0.009361 0.35054 0.055089 0.088301 0.053445 0.046211 -0.0067304 -0.04471 
0.0032988 0.97844 0.13171 0.085341 0.03947 0.010369 -0.035667 -0.011498 
0.039141 1.2089 0.28198 0.063968 0.046375 0.029605 -0.090746 0.030592 
0.011848 1.1471 0.23726 0.045224 0.036675 0.013492 -0.083018 0.070873 
-0.094856 0.52794 0.058871 0.010862 0.020562 0.014479 0.019247 0.053445 
-0.13251 -0.03616 -0.031721 -0.022843 0.00099702 0.016123 0.060022 0.037168 
-0.14747 0.22937 0.0098754 -0.020048 0.010862 -0.01232 0.079587 -0.019555 
-0.18627 -0.21882 -0.056877 -0.060494 -0.011827 -0.0024557 0.032893 -0.076277 
-0.20255 -1.2979 -0.2744 -0.083512 -0.018404 -0.031064 0.00083261 -0.091897 
-0.12577 -1.9611 -0.45163 -0.080059 -0.024158 -0.0095255 -0.0073881 -0.039942 
0.098988 -1.472 -0.3691 -0.0039354 -0.0013048 0.028125 0.004943 0.051636 
0.31947 -0.3201 -0.13826 0.056569 0.055254 0.040456 -0.0090322 0.084519 
0.3466 -0.10784 0.044731 0.088958 0.085177 0.050157 0.009711 0.15176 
0.24992 -0.023336 0.22723 0.10359 0.10491 0.065118 0.053609 0.15571 
0.13549 0.26784 0.32851 0.12233 0.091918 0.056404 0.040292 0.088136 
0.034866 0.31157 0.293 0.077943 0.068078 0.067256 0.019576 -0.0042642 
-0.062631 0.20849 0.23775 0.083204 0.052952 0.040456 0.037497 -0.037476 
-0.030735 0.57891 0.19583 0.051143 0.052294 0.016288 0.036182 0.035853 
0.025001 0.70041 0.11132 0.031249 0.037826 0.030756 0.016781 0.10474 
0.01267 0.61475 -0.030735 0.011355 0.032071 0.028125 0.022206 0.1008 
0.005765 0.74004 -0.05589 0.019411 0.014808 0.005765 -0.020541 0.071202 
0.054925 0.69746 0.027961 0.029769 -0.010512 0.014479 -0.062631 0.052623 
0.15193 0.40726 0.13105 0.018425 -0.0022913 0.0056006 -0.096172 0.0036276 
0.22082 0.0095465 0.14996 0.043087 0.010204 0.0093821 -0.13514 -0.036654 
0.08156 -0.34378 0.035524 0.019083 0.01563 0.024837 -0.084991 -0.062138 
0.056569 -0.23329 -0.057534 0.037661 0.029441 0.0069159 -0.02087 -0.075949 
0.13664 0.098494 -0.10768 0.0064227 -0.011334 0.012835 0.020891 -0.10324 
0.066105 0.07038 -0.11393 0.029441 -0.00064712 0.016781 0.086328 -0.092061 
-0.21932 -0.38554 -0.026624 0.018589 0.03388 0.016288 0.15407 0.01267 
-0.33704 -0.40922 0.11198 0.052623 0.041278 0.032071 0.14453 0.10277 
0.036839 -0.12692 0.25518 0.063803 0.072024 0.060515 0.11658 0.21243 
0.56559 0.2029 0.28938 0.047526 0.074326 0.062323 0.10819 0.26011 
0.59601 0.12168 0.12365 0.025824 0.055911 0.045389 0.066105 0.18087 
0.24844 -0.59221 -0.1353 0.0042853 0.03092 0.044731 0.046868 0.071695 
-0.06148 -0.84787 -0.14714 0.046046 0.046704 0.043909 0.078272 0.035195 
-0.18693 -0.18578 0.014479 0.071037 0.038319 0.057555 0.062488 0.032564 
-0.27029 0.43916 0.13203 0.075805 0.05065 0.03536 0.058542 -0.010348 
-0.28854 0.65487 0.16327 0.063968 0.041443 0.028947 0.054925 0.028783 
0.0421 0.75336 0.10162 0.058213 0.01826 0.07449 0.0072447 0.037661 
0.3586 0.97597 0.011684 -0.018897 -0.023994 0.016123 -0.017253 -0.052437 
0.045553 0.6672 -0.088115 -0.017746 -0.048656 -0.010183 -0.044217 -0.10324 
-0.29495 -0.62082 -0.24036 -0.035996 -0.038956 0.00083261 -0.078579 -0.14139 
-0.34345 -1.971 -0.3834 0.0051074 -0.03501 -0.010512 -0.066577 -0.10686 
-0.15092 -1.741 -0.33802 -0.023829 -0.0095255 -0.0013048 -0.060823 -0.025309 
0.072846 0.087808 -0.092226 -0.013965 0.020562 -0.0047575 -0.1307 0.056733 
0.1516 1.4398 0.15423 -0.024487 0.027303 -0.024487 -0.12412 0.062159 
0.18383 1.7614 0.21062 -0.019719 0.0059294 -0.001798 -0.012649 0.088958 
0.23348 1.4687 0.16607 -0.029255 0.016616 0.0060938 0.084519 0.050321 
0.2736 0.73675 0.13878 0.013328 0.030427 0.024015 0.14782 0.030263 
0.071202 -0.10587 0.18169 0.053445 0.033387 0.037168 0.17593 0.027139 
-0.19548 -0.2037 0.22345 0.037826 0.038812 0.024015 0.13434 0.020069 
-0.1986 0.25041 0.20586 0.081231 0.03092 0.056076 0.11691 0.050486 
-0.0036066 0.53288 0.2269 0.085341 0.069558 0.072681 0.10935 0.08304 
0.11543 0.26948 0.18761 0.13713 0.079094 0.057227 0.089452 0.0689 
0.11165 0.09833 0.087479 0.092576 0.066763 0.048184 0.065776 0.041607 
0.060022 -0.13103 -0.088444 0.070873 0.051965 0.038648 0.073175 0.050979 
-0.0055795 -0.75415 -0.23346 -0.0138 0.0090533 -0.0016336 0.0080668 0.027139 
-0.067399 -1.1083 -0.28031 -0.04471 -0.019555 -0.016431 -0.013307 0.02533 
-0.070194 -1.0665 -0.26749 -0.032543 -0.014293 0.0036276 0.0059294 -0.00015387 
-0.020706 -0.47958 -0.20156 -0.011334 0.016781 0.015137 -0.0013048 -0.022679 
0.076463 0.049499 -0.078744 0.03799 0.023522 0.027961 0.00050378 -0.0077169 
0.16623 0.13023 0.02829 0.041443 0.037826 0.042923 0.020891 0.023193 
0.091753 0.22838 0.027468 0.050486 0.052952 0.032236 0.027303 0.029605 
0.017603 0.53567 0.048348 0.016945 0.060186 0.065776 0.052294 0.081724 
0.046046 0.7014 0.075312 0.079587 0.051308 0.046211 0.093069 0.10852 
-0.001798 0.61163 0.13335 0.084355 0.05476 0.03092 0.065776 0.11 
0.0042853 0.50345 0.17051 0.10441 0.039799 0.043416 0.042758 0.10145 
0.091753 0.36139 0.18744 0.036839 0.015137 0.018096 0.056076 0.090767 
0.090109 0.31601 0.15226 0.0080668 0.00297 0.015959 0.026646 0.052294 
-0.10078 0.42995 0.20898 -0.023336 0.0060938 0.019411 -0.016266 -0.0036066 
-0.27505 0.64599 0.31963 -0.0049219 0.012177 0.0088889 0.016616 -0.010019 
-0.22376 0.44031 0.25436 -0.019061 0.0034632 0.0047785 -0.010183 0.016288 
-0.17591 -0.23609 0.029769 -0.022679 -0.016266 0.010697 -0.033201 0.012506 
-0.093376 -0.71305 -0.145 -0.025638 0.0018191 -0.008539 -0.016595 -0.016431 
0.010533 -0.75662 -0.30218 -0.015444 0.01711 -0.013636 -0.02794 -0.05441 
0.068078 -0.53203 -0.38159 0.010204 0.021713 0.011684 -0.012649 -0.23329 
0.095206 -0.36548 -0.29955 0.019576 0.035688 -0.003771 0.036675 -0.34148 
0.14519 -0.57922 -0.14303 0.053609 0.03092 0.031907 0.069064 -0.14155 
0.0786 -0.741 0.011026 0.053938 0.049335 0.030263 0.069393 0.13236 
0.022042 -0.27801 0.16969 0.094384 0.067585 0.031742 0.13072 0.24548 
0.12085 0.29365 0.22838 0.083204 0.077614 0.04095 0.17265 0.24663 
0.2537 0.40661 0.19468 0.10195 0.056076 0.036182 0.13795 0.21852 
0.21638 0.41565 0.17856 0.089287 0.048019 0.0074092 0.1276 0.1396 
0.10211 0.63481 0.20208 0.069722 0.038483 0.033387 0.067749 0.039634 
0.13105 0.7693 0.28872 0.060515 0.057555 0.024179 0.041114 -0.0029489 
0.18777 0.56148 0.24564 0.052294 0.048841 0.034209 0.051965 0.048019 
0.18991 0.16985 0.1664 0.051143 0.035195 0.034044 0.030592 0.1664 
0.074654 -0.29544 0.055089 0.022206 0.051308 0.010369 0.0051074 0.15144 
-0.084663 -0.65205 -0.032379 0.02681 0.041607 0.036182 -0.027447 0.043745 
-0.20123 -0.7387 -0.061151 0.023686 0.03947 -0.0068948 -0.093048 -0.018404 
-0.21389 -1.1555 -0.14171 0.047526 0.035853 0.0067515 -0.083347 -0.057041 
-0.077428 -1.2929 -0.20764 0.031249 -0.00081153 0.034209 0.0046141 -0.035832 
0.06035 -0.53121 -0.087786 0.049828 0.017603 0.028454 0.028619 0.0032988 
0.17084 0.43225 0.041114 0.020233 0.032564 0.038812 0.04358 0.013492 
0.19303 0.92895 0.097837 0.060679 0.027632 0.047033 0.063145 -0.0047575 
0.11888 0.96512 0.10047 0.022206 0.0037921 0.037497 0.023193 -0.035503 
0.095371 0.81386 0.071037 0.021384 -0.012814 0.0085601 -0.036489 -0.017582 
0.12677 0.67592 0.076792 0.032893 0.021384 0.01415 0.024015 0.01711 
0.14831 0.70288 0.12233 0.033387 0.020891 0.0060938 0.056404 0.042594 
0.082382 1.0865 0.18432 0.017603 0.035853 0.0088889 0.064954 0.013328 
-0.10127 0.62067 0.11214 -0.01117 0.013328 0.00050378 0.068736 -0.059507 
-0.2499 -0.75037 -0.02794 -0.03501 -0.011663 -0.017088 0.037826 -0.080388 
-0.2111 -1.1742 -0.045532 -0.047176 -0.016102 -0.00064712 0.058213 -0.037147 
-0.062302 -0.64252 0.053609 0.0065871 0.0095465 0.013657 0.075148 0.055747 
0.13812 -0.13053 0.045882 0.0067515 0.029441 0.024179 0.042429 0.095371 
0.2371 -0.10801 -0.011663 0.061666 0.048677 0.048841 0.011026 0.093562 
0.21523 -0.47547 -0.032708 0.052952 0.043087 0.035524 0.0051074 0.10113 
0.21868 -0.63759 -0.1016 0.076463 0.024179 0.02681 0.00050378 0.098988 
0.24778 -0.34542 -0.1843 0.059035 0.027796 0.055089 -0.024652 0.097344 
0.27655 0.20323 -0.025638 0.08978 0.048019 0.034702 -0.022514 0.092082 
0.17281 0.44787 0.1373 0.066105 0.045389 0.038155 -0.02646 0.075805 
-0.10686 0.23644 0.13631 0.052294 0.041772 0.026317 -0.033037 0.037497 
-0.32092 -0.29774 -0.00031829 0.018918 0.014808 0.017274 0.0013258 0.017603 
-0.23231 -0.63348 -0.11294 -0.0078813 0.018918 0.027468 0.0013258 -0.029255 
-0.15503 -0.44966 -0.1256 0.0044497 0.022535 0.01415 0.013657 -0.009361 
-0.018239 0.15176 -0.05178 0.0034632 0.026317 0.02122 0.019247 -0.011827 
-0.010348 0.60571 0.0031344 0.0016547 0.014808 0.03388 0.016452 -0.029913 
-0.32208 0.84921 0.010697 -0.038133 -0.00097594 -0.0013048 0.015465 -0.059343 
-0.55587 0.83375 0.068407 -0.022843 -0.010512 0.009711 0.037168 -0.03205 
-0.38061 0.81337 0.10754 -0.023665 -0.019719 0.013164 0.011848 -0.041586 
0.17084 0.66835 0.091753 0.048348 0.029769 0.031249 0.027468 0.010697 
0.70847 0.41269 0.04917 0.035195 0.037661 0.044238 0.04506 0.069393 
0.79232 0.27327 0.088794 0.079258 0.034044 0.045553 0.068407 0.10359 
0.49901 -0.21521 0.062323 0.063968 0.038977 0.042758 0.08156 0.10836 
0.053609 -1.1111 -0.016431 0.032564 0.026317 0.025495 0.061172 0.089616 
-0.2859 -1.2183 -0.089759 -0.0004827 -0.0068948 0.017274 0.032564 0.064954 
-0.34723 -0.80693 -0.078415 -0.0027845 -0.0026201 0.0013258 0.0095465 0.071037 
-0.15898 0.077285 -0.008539 0.020069 0.028125 0.018754 0.025495 0.053774 
0.025495 0.76898 0.054432 0.037168 0.048677 0.027139 0.015959 -0.0013048 
0.065612 0.82011 0.083697 0.082053 0.074819 0.0072447 0.0054362 0.0067515 
0.045224 0.48322 0.052294 0.069558 0.10047 0.05065 0.027139 0.013986 
-0.0032777 -0.22984 -0.027447 0.086328 0.077778 0.043416 0.06479 0.030263 
-0.00097594 -0.37929 0.0064227 0.040456 0.053774 0.043416 0.060679 0.06183 
0.02122 0.31716 0.13483 0.066269 0.027796 0.060022 0.076299 0.061337 
0.048513 0.84707 0.29628 0.027632 0.015465 0.027303 0.049006 0.06331 
-0.0083746 0.77358 0.33706 0.037826 0.012342 0.011191 -0.00097594 0.041607 
-0.10324 0.2075 0.18646 -0.01232 -0.017582 0.0023123 0.012013 0.011191 
-0.23494 -0.5317 -0.010183 -0.034845 -0.0078813 0.00017495 -0.0004827 -0.0078813 
-0.26963 -0.74281 -0.078908 -0.025638 -0.012978 -0.0059084 -0.0091966 -0.016431 
-0.21438 -0.53631 -0.15339 -0.059343 -0.013307 0.004943 -0.034681 -0.017746 
-0.065755 -0.084991 -0.20797 -0.033201 -0.031064 -0.02235 -0.030406 -0.015773 
0.085506 0.21671 -0.22047 -0.023829 -0.015609 0.025495 -0.030077 0.011684 
0.18185 -0.21586 -0.26733 0.004943 0.0051074 1.0539e-005 -0.014129 0.018096 
0.23151 -0.14829 -0.17986 -0.0049219 0.0041209 -0.011498 0.042923 0.042594 
0.21178 0.61541 0.068571 0.060022 0.016123 0.028454 0.072681 0.074983 
0.17248 1.1233 0.27343 0.087808 0.067091 0.032729 0.14486 0.09981 
0.12381 1.0611 0.305 0.12085 0.076956 0.045553 0.14634 0.12497 
0.11247 0.54932 0.23249 0.075148 0.08419 0.066763 0.10178 0.074819 
0.12316 -0.055561 0.1516 0.085341 0.068736 0.050486 0.058377 0.0042853 
0.15045 -0.38932 0.1271 0.068736 0.059035 0.038812 0.053938 -0.11985 
0.14815 -0.40658 0.12283 0.074161 0.043909 0.05772 0.058706 -0.15799 
0.13351 -0.17377 0.10556 0.063474 0.063639 0.03947 0.10408 -0.037311 
0.042758 0.055089 0.067913 0.036839 0.063803 0.035031 0.10195 -0.001798 
-0.26009 0.14289 0.024179 0.031578 0.010369 0.0227 0.0088889 -0.013143 
-0.48123 0.099974 0.089123 -0.018568 -0.014951 -0.0011404 -0.053095 0.098988 
-0.27818 0.0059294 0.08304 -0.044052 -0.03616 0.0024767 -0.15125 0.23989 
0.10721 -0.22507 0.075312 -0.05737 -0.021692 -0.0036066 -0.18298 0.23726 
0.34873 -0.23296 0.13121 0.01267 0.0021479 -0.015444 -0.12494 0.11428 
0.34955 0.36353 0.15423 0.035853 0.022042 0.0075736 -0.032708 -0.0067304 
0.17824 0.57349 0.017603 0.066434 0.056733 0.0064227 0.0044497 -0.081045 
-0.03501 0.30204 -0.10258 0.062488 0.048841 0.0037921 0.020727 -0.07414 
-0.23527 0.032729 -0.16605 0.053281 0.039305 0.051801 0.10359 -0.038956 
-0.33605 -0.56196 -0.22589 0.034373 0.04654 0.01267 0.15111 -0.02794 
-0.066906 -1.6946 -0.34805 -0.010512 -0.0027845 0.0095465 0.13039 -0.027282 
0.41614 -1.2819 -0.24201 -0.0073881 0.0023123 0.022042 0.11888 0.01826 
0.68381 0.17676 0.049828 -0.0031133 -0.001798 0.019083 0.083533 0.077449 
0.51759 0.96989 0.25913 0.035688 0.0421 0.028125 0.065447 0.057391 
0.073504 0.93734 0.32012 0.053938 0.049992 0.025988 0.062323 -0.01939 
-0.33868 0.59437 0.25518 0.076134 0.053609 0.026974 0.041114 -0.032708 
-0.46002 0.49555 0.14108 0.05065 0.024508 0.041772 0.037497 -0.0138 
-0.26963 0.58746 0.073339 0.052294 0.035524 0.02533 0.026646 0.030427 
0.027303 0.52268 0.084355 0.043909 0.0227 0.0064227 -0.0073881 0.078107 
0.26702 0.43571 0.11231 0.059857 0.066598 0.049006 0.014808 0.14124 
0.32752 0.27475 0.12299 0.036017 0.055089 0.037661 0.010862 0.091425 
0.15982 -0.10949 0.049828 0.046211 0.043416 0.024344 -0.030735 0.070215 
0.0019835 -0.55571 -0.029091 0.032236 0.055747 0.036182 -0.045368 0.053609 
0.01415 -1.0563 -0.09946 0.03651 0.043909 0.029112 -0.036654 0.047855 
0.17873 -1.2887 -0.14418 0.039141 0.067913 0.04095 -0.10291 0.085341 
0.20323 -1.1905 -0.17558 0.031414 0.050486 0.033387 -0.13941 0.097179 
0.1105 -0.55341 -0.12774 0.035195 0.037004 0.025001 -0.070687 0.034537 
0.015137 0.37783 0.017603 0.0082312 0.035853 0.031085 0.010697 -0.030406 
-0.082525 0.92369 0.21243 0.02829 0.026317 0.034702 0.084848 -0.11689 
-0.10061 0.97811 0.29267 0.032729 0.023522 0.01974 0.11954 -0.16638 
0.00099702 0.97992 0.29612 0.061172 0.044073 0.037168 0.1054 -0.095678 
0.056404 1.0212 0.24318 0.025988 0.037332 0.01974 0.094384 0.017767 
0.034373 0.79364 0.087314 0.03092 0.030263 0.017932 0.08419 0.13319 
-0.0087034 0.13088 -0.13037 -0.035996 0.034866 0.016123 0.061337 0.14354 
-0.016266 -0.90426 -0.42401 -0.019555 -0.0027845 0.0016547 0.025824 0.052294 
-0.083347 -1.765 -0.64942 -0.053917 -0.0052507 -0.0031133 0.027796 -0.014951 
-0.17575 -1.5619 -0.53154 -0.013965 0.0072447 0.021713 0.0044497 -0.0014692 
-0.12593 -0.57692 -0.14895 0.012342 0.041443 0.024508 0.0324 0.0070803 
0.043416 0.36041 0.19764 0.024344 0.039305 0.022042 0.035031 0.064132 
0.21441 1.1882 0.36106 0.048184 0.065118 0.032071 0.016288 0.098494 
0.28889 1.3091 0.32391 0.065447 0.063968 0.038483 0.039799 0.078107 
0.24795 0.65652 0.1687 0.09126 0.075641 0.043909 0.051965 0.078765 
0.15719 -0.10932 0.083204 0.082711 0.054103 0.026152 0.032564 0.083533 
0.051801 -0.29676 0.060022 0.10704 0.071202 0.020233 0.047197 0.062981 
0.056569 -0.088608 0.061995 0.087479 0.059693 0.058871 0.076956 0.042594 
0.023851 0.19616 0.080244 0.12217 0.072517 0.062981 0.02681 -0.0087034 
-0.039778 0.28954 0.09274 0.03536 0.058213 0.041772 0.026646 -0.026131 
-0.16638 0.30056 0.13812 0.05065 0.061172 0.047691 0.044238 -0.017088 
-0.15141 -0.21011 0.095699 0.0019835 0.020233 0.0046141 0.035031 0.014315 
-0.089595 -0.71716 0.055418 -0.018897 0.0041209 0.013657 0.055089 0.021878 
-0.088608 -0.11064 0.1322 -0.047834 -0.03912 0.01711 0.047855 0.040621 
-0.1016 0.69203 0.22674 -0.072332 -0.055726 0.0090533 0.023028 0.027796 
-0.086636 0.71455 0.18843 -0.0095255 -0.017088 -0.0034422 0.041114 0.013328 
-0.0503 0.2098 -0.035338 0.0093821 -0.014293 0.0026412 0.053609 -0.0049219 
-0.082854 -0.76533 -0.3127 0.0014903 -0.02235 -0.0060728 0.013164 -0.060494 
-0.15109 -1.9345 -0.41398 -0.035174 -0.014787 -0.0013048 0.0067515 -0.065262 
0.0044497 -1.5223 -0.23148 0.0090533 -0.0019624 0.00099702 0.042265 -0.026296 
0.27984 -0.22195 0.00099702 0.016616 0.02533 0.019905 0.029441 -0.0090322 
0.29415 0.23973 0.072188 0.072681 0.049664 0.038155 0.030756 0.0093821 
0.098001 0.54225 0.13993 0.039963 0.041114 0.028947 0.046375 0.03536 
0.025166 1.1698 0.2491 0.053774 0.028619 0.018425 0.028454 0.063474 
0.11444 1.5861 0.2736 0.012177 0.013986 0.024344 0.05213 0.069064 
0.060844 1.3078 0.11576 0.032236 0.025001 0.01826 0.076134 0.086328 
-0.079566 0.7943 -0.038298 0.028783 0.029112 0.021384 0.043745 0.046704 
-0.11639 0.14667 -0.069536 0.059693 0.014479 0.044073 0.06183 0.031085 
-0.10193 -0.63298 -0.02235 0.029276 -0.0016336 0.025495 0.062981 0.010369 
-0.14122 -1.1884 -0.021199 -0.0095255 -0.00031829 0.012506 0.040292 0.00050378 
-0.16786 -1.1575 0.063639 0.023686 -0.0027845 0.020727 0.033222 0.016123 
-0.11442 -0.70976 0.13746 0.06594 0.049664 0.033551 0.071695 0.044896 
0.0052718 -0.22721 0.16771 0.1077 0.063968 0.053774 0.052459 0.049992 
0.12283 0.28362 0.19418 0.088794 0.078436 0.036839 0.030756 0.066598 
0.18777 0.59749 0.14453 0.097344 0.062817 0.038812 0.050321 0.049664 
0.19846 0.45642 0.047033 0.051801 0.051308 0.05772 0.017932 0.033222 
0.19698 0.39773 0.027139 0.069393 0.039305 0.036839 0.023028 0.044073 
0.19106 0.64369 0.10178 0.013328 0.03388 0.035031 0.037497 0.036675 
0.15982 0.79676 0.18333 0.017274 0.019247 0.042594 0.0324 0.056569 
0.077285 0.79446 0.13335 0.009711 0.0070803 -0.00064712 0.01826 0.06183 
0.031578 0.72212 -0.0032777 -0.00081153 -0.0138 -0.011334 0.0031344 0.025824 
-0.024816 0.34364 -0.05589 0.0093821 -0.024158 0.0026412 0.0052718 0.031085 
-0.059672 -0.29215 -0.056055 0.043251 -0.021692 -0.0087034 0.013328 0.035031 
-0.039613 -0.94307 -0.066577 0.043745 0.0072447 0.034537 0.033715 0.027796 
0.0079024 -1.7076 -0.24497 0.013821 0.01974 0.031249 0.00050378 0.022206 
0.015959 -1.5262 -0.28492 0.021549 0.0092177 0.01826 -0.01676 0.038155 
0.031578 -0.28147 -0.11228 0.027139 0.019576 0.016288 0.011355 0.043416 
0.10967 0.71192 0.11757 0.073997 0.036182 0.025988 0.027468 0.05624 
0.14437 0.95575 0.25074 0.069558 0.047526 0.040621 0.026481 0.078436 
0.21901 0.81748 0.25337 0.1008 0.05624 0.063968 0.0079024 0.093726 
0.16311 0.64386 0.22953 0.07301 0.05624 0.02533 -0.042408 0.073668 
-0.11146 0.4043 0.090767 0.045882 0.046868 0.014808 -0.073318 -0.24875 
-0.25779 0.40858 -0.011005 -0.012649 0.044731 0.022371 -0.011827 -0.27966 
-0.13925 0.41466 0.018918 0.0028056 0.031414 0.0088889 0.039963 -0.047176 
0.034866 0.14568 0.056404 0.00033937 0.031249 0.0037921 0.066434 0.17149 
0.10014 -0.23116 0.034209 0.023851 0.026481 0.036017 0.030592 0.24022 
0.21605 -0.32306 -0.031064 0.047855 0.034537 0.039963 0.0013258 0.23956 
0.32769 -0.1552 -0.12182 0.014643 0.034044 0.0324 0.0082312 0.10754 
0.21194 -0.10456 -0.19038 0.0087245 0.018754 0.0092177 0.044896 0.020069 
0.013492 -0.27851 -0.16736 0.0039565 0.0023123 0.00083261 0.052952 -0.0075525 
-0.051287 -0.36219 -0.086964 0.046375 0.022371 0.029605 0.058542 -0.0075525 
-0.024323 0.21161 0.013328 0.04506 0.040785 0.040621 0.074983 -0.006566 
0.12513 0.92106 0.11346 0.089945 0.051965 0.02681 0.020727 0.0098754 
0.17906 0.93701 0.19188 0.082875 0.065612 0.039634 -0.019719 0.0087245 
0.12809 0.12201 0.14519 0.068736 0.037661 0.018754 -0.028926 0.014315 
0.11494 -0.1843 0.093069 0.020233 0.032893 -0.0087034 -0.040106 0.055911 
0.021549 -0.088444 0.00066819 -0.018404 0.013164 0.014315 -0.035832 0.01826 
-0.10341 -0.76353 -0.15355 -0.055232 0.011355 -0.023336 0.00033937 -0.018568 
-0.25549 -0.99436 -0.20666 -0.060329 -0.00097594 -0.013307 0.0026412 -0.046354 
-0.21669 -0.20353 -0.046354 -0.016102 0.00066819 0.024673 0.020562 -0.040106 
-0.048985 0.439 0.14979 -0.0062372 0.004943 0.012177 0.033715 0.0013258 
-0.089431 0.66178 0.24071 0.044238 0.033387 0.045389 0.040456 -0.010676 
-0.30004 0.56527 0.22328 0.046211 0.048841 0.062817 0.05213 0.044567 
-0.157 0.31174 0.2292 0.097672 0.066269 0.041278 0.082217 0.088958 
0.19912 0.26636 0.19336 0.0689 0.053609 0.0421 0.060679 0.076792 
0.45692 0.36123 0.13088 0.097344 0.058542 0.029112 0.059693 0.061337 
0.4727 -0.31912 0.01415 0.01711 0.01711 0.014808 0.049828 0.031907 
0.34051 -0.7706 0.01415 0.037497 0.01563 0.032729 0.049499 0.03388 
0.13088 -0.2448 0.056569 0.028947 0.028947 0.014972 0.035524 0.044731 
-0.057863 0.35071 0.027961 0.041772 0.036346 0.015794 0.032236 0.055582 
-0.27078 0.53863 0.055089 0.037497 0.025659 0.018754 0.0227 0.015301 
-0.35134 0.37438 0.028947 0.0060938 0.025659 0.0083956 -0.021034 -0.025967 
-0.31057 0.025495 -0.12692 -0.017253 0.01711 -0.0021268 -0.031064 -0.036489 
-0.22737 -0.64433 -0.31846 -0.027447 -0.0019624 0.020562 0.0064227 -0.037805 
-0.11228 -1.1954 -0.39919 -0.015444 0.0092177 0.027468 0.018754 0.04358 
0.071695 -0.99699 -0.22195 -0.024652 0.025495 0.033058 0.053445 0.076463 
0.19764 0.15587 0.061337 0.018096 0.027796 0.015301 0.07449 0.072681 
0.19057 0.46119 0.15818 -0.036489 0.009711 -0.006566 0.043909 0.041772 
0.12316 -0.14139 0.058049 -0.0054151 -0.017746 0.0098754 0.03092 -0.0054151 
0.12825 -0.19038 0.1442 -0.0021268 -0.0021268 0.0019835 0.03388 0.051801 
0.15111 0.4584 0.29283 0.070051 0.041443 0.04506 0.033222 0.10063 
0.048677 0.93651 0.30664 0.079751 0.052459 0.049828 0.042923 0.087479 
0.0023123 0.86532 0.25271 0.11148 0.07301 0.045553 0.054267 0.1174 
0.042429 0.66096 0.1927 0.10589 0.089616 0.048019 0.07038 0.14733 
0.14963 0.34133 0.14453 0.079258 0.12201 0.053938 0.10376 0.18218 
0.08419 -0.08269 0.065776 0.064954 0.087479 0.046868 0.071366 0.14272 
-0.11196 -0.38965 -0.065426 0.042265 0.044896 0.023686 0.028619 0.037497 
-0.25878 -0.23806 -0.096336 0.022206 0.024837 0.023028 -0.011005 -0.075291 
-0.062467 0.18366 0.0036276 0.026974 0.0041209 0.014315 0.0024767 -0.13037 
0.16903 0.19994 0.1105 0.042429 0.030098 0.020891 0.034702 -0.091732 
0.34133 0.035195 0.086328 0.045553 0.032236 0.017767 0.066105 -0.023994 
0.38293 -0.40149 -0.084991 0.045553 0.033222 0.013821 0.095535 0.046375 
0.20306 -0.92054 -0.29593 0.0046141 0.029441 0.045718 0.089452 0.089945 
-0.076442 -0.54979 -0.38702 0.021549 0.038483 0.044238 0.092904 0.069229 
-0.36203 -0.42105 -0.38801 -0.017253 0.024673 0.035195 0.080573 0.046046 
-0.55604 -1.2841 -0.3372 -0.050629 0.0016547 0.027468 0.042429 0.010862 
-0.37025 -0.87911 -0.096829 -0.062796 -0.016924 -0.01939 0.013164 0.013164 
0.0023123 0.62462 0.26274 -0.036489 -0.017417 -0.016595 0.013492 0.01267 
0.25403 1.4988 0.46728 0.014972 0.015465 0.0039565 -0.0019624 -0.0029489 
0.33196 1.5008 0.50427 0.04095 0.034537 0.030592 -0.02794 0.053609 
0.28642 0.93569 0.33739 0.070708 0.042265 0.019411 -0.053095 0.1396 
0.19928 0.097179 0.041114 0.048513 0.013821 0.028125 -0.059836 0.10178 
0.096357 -0.63019 -0.16818 0.025001 0.011848 0.01152 -0.050629 0.060022 
-0.008539 -1.2906 -0.2767 0.0060938 0.01711 0.019247 -0.00081153 0.0036276 
-0.038956 -0.97792 -0.22754 0.048184 0.027468 0.018425 -0.033365 -0.11524 
0.0056006 0.054596 -0.091568 0.043909 0.04506 0.0016547 -0.065919 -0.16934 
0.018425 0.69433 -0.0052507 0.069722 0.029112 0.041114 -0.072989 -0.12264 
0.1276 0.78871 0.015301 0.035688 0.045389 0.056898 -0.041751 -0.027775 
0.26472 0.54767 0.03092 0.051636 0.044238 0.042429 0.017603 0.086821 
0.22855 0.24005 0.11576 0.057227 0.079916 0.051965 0.092082 0.15078 
0.044238 0.11954 0.15324 0.086985 0.072846 0.044567 0.098988 0.11181 
-0.11327 -0.037311 0.13812 0.089123 0.071366 0.0324 0.085999 0.072024 
-0.16325 -0.11672 0.12628 0.065118 0.059693 0.034537 0.10162 0.033715 
-0.12609 -0.14714 0.062981 0.059857 0.052459 0.027796 0.082217 0.01004 
-0.0019624 -0.21965 -0.010841 0.012177 0.031085 0.017603 0.088301 0.01004 
0.16163 -0.18824 -0.06855 0.043087 0.013657 0.019247 0.078272 0.0018191 
0.11247 0.0060938 -0.10209 -0.021528 -0.016924 0.018918 0.015301 -0.024652 
-0.034352 0.055911 -0.10867 -0.012649 -0.037147 0.01004 -0.042737 -0.0406 
-0.0070593 -0.10373 -0.077428 -0.05589 -0.060823 -0.025802 -0.03205 -0.018568 
0.17462 -0.022021 0.041278 -0.00081153 -0.022679 -0.0091966 -0.02498 0.014972 
0.26028 0.30944 0.17955 0.0060938 0.027961 0.018425 0.0036276 0.038319 
0.10408 0.54422 0.30516 0.033387 0.019411 0.019576 0.038812 -0.016924 
-0.13925 0.54126 0.29744 0.026974 0.02829 -0.0016336 0.037004 -0.047012 
-0.30399 0.32226 0.13154 0.011355 0.011191 0.028783 0.0227 -0.021199 
-0.25927 0.37241 0.049335 0.026152 0.01974 0.01267 0.014808 0.0088889 
-0.13908 0.49407 0.072681 0.046211 0.035853 0.0054362 0.022371 1.0539e-005 
0.16574 0.45856 0.13894 0.093069 0.098001 0.054925 0.034537 0.047526 
0.62051 0.26685 0.14157 0.092082 0.08715 0.042265 0.068736 0.093562 
0.68348 0.033387 0.060515 0.091096 0.078272 0.051308 0.0046141 0.082546 
0.34561 0.051965 0.057391 0.05065 0.043909 0.044073 0.0028056 0.068242 
0.050814 0.37981 0.11132 0.075312 0.042265 0.048019 0.0095465 0.089616 
-0.1108 0.14749 0.091425 0.058213 0.047362 0.046868 -0.080223 0.086985 
-0.23592 -0.54502 -0.030735 0.058871 0.040456 0.025001 -0.13925 0.032564 
-0.43421 -0.7484 -0.17838 0.027961 0.023851 -0.016431 -0.011663 -0.022514 
-0.43865 -0.44193 -0.12231 0.02533 0.011355 0.010862 0.095699 -0.026789 
-0.19186 0.17018 0.082382 0.020562 0.028783 0.014643 0.1955 0.022206 
0.14371 0.40167 0.17544 0.0016547 -0.004593 0.015465 0.17215 0.12036 
0.30631 0.14469 0.20125 -0.00015387 0.0014903 0.041607 0.057884 0.11905 
0.35251 0.098001 0.29217 0.018754 0.018754 0.020398 -0.02794 0.069064 
0.30845 0.23233 0.34676 0.069722 0.062159 0.050486 0.015794 0.058706 
0.19172 0.026317 0.20767 0.077614 0.076627 0.058377 0.057062 0.077943 
0.021878 -0.52759 -0.0054151 0.081231 0.093233 0.062323 0.12332 0.049335 
-0.13415 -0.8094 -0.12494 0.048348 0.057227 0.053774 0.19879 0.027796 
-0.32586 -0.19219 -0.18545 0.046211 0.025001 0.037004 0.1853 0.025001 
-0.40346 0.66194 -0.19383 -0.012156 -0.010019 0.016616 0.14848 -0.0026201 
-0.17065 1.0478 -0.13612 -0.0044286 -0.019061 0.029605 0.12431 -0.015938 
0.14091 0.94901 -0.10472 -0.027118 -0.02942 0.019083 0.061172 -0.019226 
0.26981 0.60653 -0.053095 -0.0091966 -0.022185 -0.010348 0.030263 -0.016266 
0.24663 0.19714 0.014972 0.004943 -0.0044286 0.022535 0.01267 0.0028056 
0.14289 -0.44687 0.037661 0.027632 0.0095465 0.005765 -0.040106 0.046704 
0.053609 -0.65173 0.044731 0.045718 0.032564 0.015794 -0.054739 0.071531 
-0.0011404 -0.59599 0.085012 0.037497 0.066598 0.035195 -0.0011404 0.096357 
-0.028433 -0.4393 0.08863 0.049828 0.064625 0.027961 0.00297 0.1128 
-0.009361 -0.26042 0.10852 0.044238 0.065118 0.032236 0.0031344 0.10787 
0.032893 -0.11113 0.088794 0.055582 0.033715 0.02829 -0.010348 0.084026 
-0.051122 -0.038133 0.062817 0.0227 0.023193 0.0062583 -0.048327 0.037497 
-0.15914 0.093398 0.072681 0.022371 0.011026 -0.001798 -0.030406 0.037497 
-0.099131 0.38425 0.093726 -0.0075525 0.011026 0.010533 0.004943 0.046704 
0.011026 0.39378 0.043087 0.0062583 0.057391 0.0016547 0.0093821 0.030263 
0.048677 0.15851 -0.011334 -0.0096899 -0.0019624 0.023193 0.027961 0.02533 
0.043416 -0.17657 -0.069701 -0.0044286 -0.016266 0.00066819 0.098823 0.064461 
0.019411 -0.18594 -0.11097 -0.0031133 0.0036276 0.024508 0.035524 0.04654 
0.034702 0.033715 -0.062467 0.005765 0.024508 0.06035 0.012342 0.0034632 
0.041278 0.19139 -0.033859 0.036839 0.03092 0.030592 0.047197 -0.040106 
0.062159 0.12003 -0.07003 0.013821 0.030427 0.036182 0.041607 -0.10308 
0.030098 0.057555 -0.11771 0.052952 0.056733 0.049499 0.027139 -0.14944 
0.02122 -0.059343 -0.16638 0.038812 0.052623 0.058542 0.062981 -0.062138 
0.054267 -0.41448 -0.10686 0.041607 0.048019 0.027139 0.06331 0.034537 
0.058542 -0.34953 -0.015444 -0.0062372 0.027796 0.024015 0.034702 0.11444 
0.029934 -0.29577 0.013492 0.0092177 0.013821 0.0059294 0.037168 0.12283 
-0.017911 -0.56837 0.069558 -0.028104 -0.023829 0.0074092 0.026974 0.073832 
-0.17673 -0.43421 0.17626 0.020069 -0.018568 -0.0014692 -0.00064712 0.0324 
-0.25056 0.1955 0.24285 0.015794 -0.00031829 0.0088889 0.016781 0.021549 
-0.03912 0.69499 0.23151 0.0227 0.034702 0.033058 0.011684 0.028125 
0.30007 0.71225 0.15012 -0.00064712 0.047197 0.033715 0.004943 0.065612 
0.44935 0.41417 -0.090088 -0.0078813 0.032893 0.039634 -0.0042642 0.065776 
0.37701 0.04095 -0.37255 -0.022185 0.0011614 0.028125 -0.012814 -0.0027845 
0.19369 -0.16095 -0.45163 0.00099702 -0.013143 0.0062583 -0.061316 -0.051287 
0.0083956 -0.19367 -0.26979 0.023028 -0.0022913 -0.01232 -0.05441 -0.068386 
-0.17197 0.050486 -0.02942 0.030592 0.010369 0.0088889 -0.029584 -0.035667 
-0.44654 0.46333 0.11411 0.090109 0.042594 0.025001 -0.026624 -0.021034 
-0.40593 0.32128 0.13598 0.080573 0.072188 0.032071 0.004943 0.012342 
-0.089431 0.047691 0.15127 0.1054 0.071531 0.0421 0.027139 0.043087 
0.20964 0.19698 0.26718 0.067256 0.073668 0.031249 0.031742 0.064625 
0.34725 0.32736 0.34594 0.08156 0.069229 0.032893 0.046704 0.051308 
0.30714 0.33426 0.32884 0.048019 0.041278 0.016781 0.00066819 0.055089 
0.18218 0.32292 0.24022 0.041936 0.040456 0.014479 -0.017417 -0.0027845 
0.01004 -0.17476 0.16377 0.04917 0.048348 0.047526 0.048348 -0.032379 
-0.045696 -0.41119 0.11444 0.028619 0.036182 0.01974 0.086657 0.0019835 
0.023028 -0.03501 0.079587 0.03536 0.046375 0.011026 0.10441 0.022042 
0.12908 0.17084 -0.051451 0.017767 0.02122 0.035524 0.10096 0.040785 
0.11214 -0.12346 -0.15043 -0.0011404 0.013328 0.016781 0.10803 0.058871 
-0.069043 -0.98285 -0.28755 -0.052437 -0.017746 0.0067515 0.077285 0.043745 
-0.14796 -0.72045 -0.2739 -0.042079 -0.024487 -0.0039354 0.052787 0.0059294 
-0.08269 -0.043395 -0.12231 -0.034188 -0.014293 -0.011663 0.024508 -0.0027845 
0.0088889 -0.17328 -0.0078813 0.0026412 -0.0029489 -0.0070593 0.015137 0.011191 
0.00017495 -0.16062 0.077778 0.0047785 0.030263 0.0041209 0.020727 0.038648 
-0.083676 0.46136 0.14009 0.066434 0.047197 0.019576 0.0082312 0.048019 
-0.15257 0.82866 0.21095 0.066927 0.063803 0.027796 -0.0052507 0.077778 
-0.025309 0.68101 0.19122 0.071859 0.04095 0.030263 0.0064227 0.078272 
0.11609 0.39526 0.17988 0.054596 0.037004 0.01711 0.00083261 0.10392 
0.15587 0.14519 0.10672 0.049335 0.06479 0.031414 -0.01117 0.061172 
0.1664 0.088958 0.047362 0.057884 0.058377 0.052294 -0.0019624 -0.056383 
0.12825 0.11592 0.012177 0.06742 0.040621 0.028619 -0.009361 -0.26946 
0.066269 0.044567 -0.05885 0.068571 0.031742 0.045718 0.0088889 -0.25763 
0.04506 0.010533 -0.030242 0.037497 0.022864 0.012342 0.071366 0.023193 
0.089123 0.14963 0.026481 0.063803 0.0051074 0.026974 0.10162 0.25271 
0.10178 0.23463 0.11559 0.044896 0.0062583 0.027632 0.095042 0.26258 
0.17626 0.21572 0.14601 0.046211 0.038812 0.030427 0.08567 0.2246 
0.18744 0.25929 0.14239 0.05213 0.038483 0.034209 0.096357 0.16262 
0.13154 0.37044 0.22328 0.087643 0.085506 0.030592 0.064132 0.094877 
0.054432 0.41548 0.25715 0.065612 0.078929 0.027303 0.050486 0.08567 
0.023193 0.3535 0.16262 0.081231 0.067585 0.044896 0.069886 0.072188 
-0.028433 0.033551 -0.069043 0.038977 0.027796 0.026481 0.028454 0.035853 
-0.14237 -1.1764 -0.34559 -0.015116 -0.0014692 0.0052718 0.0082312 -0.025309 
-0.23428 -1.5499 -0.37025 -0.054739 -0.039613 0.012013 0.01563 -0.086471 
-0.13136 -0.55949 -0.14106 -0.051287 -0.027118 -0.0067304 -0.0088678 -0.082032 
0.080902 0.29612 0.070873 -0.014129 -0.0021268 0.0070803 -0.0036066 -0.030406 
0.19122 0.19254 0.21095 0.0054362 0.029276 0.033222 0.013821 0.0046141 
0.16245 0.17412 0.23019 0.057062 0.050814 0.028783 -0.014293 0.017932 
-0.064111 0.64961 0.24203 0.026974 0.0227 0.01152 -0.041586 0.015794 
-0.17821 0.84855 0.14782 0.028125 0.011684 0.036346 -0.025145 0.010369 
-0.026953 0.54422 0.074819 0.018918 0.028125 0.017274 -0.017582 -0.016595 
0.090931 -0.1404 0.027632 0.04654 0.044073 0.030592 0.015465 -0.022679 
0.071366 -0.65797 -0.091404 0.043745 0.039305 0.032564 0.023851 0.012506 
0.061995 -0.49405 -0.23576 0.066434 0.044402 0.019905 0.036675 0.092904 
0.10918 -0.014622 -0.20485 0.062817 0.044731 0.044073 0.041278 0.11477 
0.13812 0.56987 -0.011498 0.035853 0.010533 0.040456 0.068078 0.071859 
0.11822 0.89097 0.08715 -0.0088678 0.00099702 0.018918 0.053609 0.052952 
0.072024 0.81994 0.095206 -0.018075 -0.0059084 0.035853 0.036017 0.01415 
0.059693 0.23019 -0.014951 -0.0042642 -0.0082102 0.018425 0.047362 -0.011334 
0.055911 -0.66784 -0.095349 0.026152 0.025001 0.016945 0.061337 0.032071 
0.033058 -1.0394 -0.076442 0.058706 0.037168 0.044896 0.084026 0.051472 
0.025166 -0.74708 0.055254 0.056076 0.030427 0.030592 0.10474 0.062652 
0.034537 -0.25253 0.1636 0.05213 0.028454 0.024344 0.048677 0.068078 
0.038483 0.063968 0.12644 0.018918 0.025824 0.030427 0.012835 0.060515 
0.094384 0.23792 0.014643 0.038648 0.034866 0.024508 0.01415 0.022042 
0.19122 0.38819 -0.0044286 0.0090533 0.049828 0.024673 0.010533 0.062981 
0.17725 0.43982 0.031907 0.0032988 0.07449 0.038648 -0.025145 0.037497 
-0.015116 0.40052 0.049828 0.016123 0.047526 0.029276 -0.036818 0.018589 
-0.090581 0.26307 0.044896 -0.017253 0.036017 0.004943 -0.10143 0.0056006 
-0.063946 0.12381 0.025166 0.014479 0.010862 0.024344 -0.13021 -0.049642 
-0.079237 -0.094199 -0.0060728 0.030098 -0.0067304 0.041936 -0.045861 -0.049642 
-0.076935 -0.39836 0.015794 0.042429 0.019905 0.042429 0.03799 0.014315 
-0.047834 -0.46873 0.031414 0.050157 0.054925 0.034209 0.11609 0.057884 
0.066269 -0.19433 0.038155 0.054925 0.028454 0.029112 0.1368 0.10754 
0.10145 0.0044497 -0.019061 0.051636 0.014808 0.044073 0.093233 0.061337 
0.024673 0.058706 -0.059672 0.031578 -0.018404 0.0023123 0.047362 0.00017495 
-0.14599 0.085506 -0.051287 -0.017582 -0.025638 0.0032988 0.049992 -0.0406 
-0.20041 0.13023 -0.0072237 -0.0078813 -0.0138 0.02681 0.005765 -0.036489 
-0.13974 0.14338 0.017603 -0.0049219 0.022864 0.027468 0.029605 -0.0021268 
-0.12593 0.23792 0.019247 0.02829 0.040785 0.037004 0.053774 0.025495 
-0.18463 0.35498 0.045882 0.0095465 0.051636 0.029112 0.021056 0.043087 
-0.10127 0.38704 0.068736 0.03092 0.028783 0.0013258 0.025166 0.060515 
0.074326 0.19533 0.03651 0.058871 0.032729 0.02533 0.046211 0.092904 
0.21112 -0.71716 -0.053095 0.046046 0.017438 0.01152 0.035853 0.047362 
0.35399 -0.87681 -0.12938 0.035524 0.011191 0.031085 0.015794 0.036346 
0.37487 0.28083 -0.030899 0.023193 0.011191 0.055089 0.022864 0.051801 
0.26718 1.2274 0.15374 0.073997 0.04917 0.047526 0.022042 0.055582 
0.23134 1.0505 0.22411 0.089616 0.073668 0.031578 -0.0004827 0.027632 
0.16804 0.1539 0.14782 0.089123 0.068078 0.06183 0.039305 0.035853 
-0.020541 -0.15174 0.14157 0.065283 0.04917 0.048184 0.0082312 0.033715 
-0.14155 0.027468 0.16804 0.090109 0.058871 0.040292 0.026317 0.03651 
-0.16473 0.096686 0.19796 0.047691 0.048677 0.023028 0.044896 0.036346 
-0.14089 -0.28508 0.17001 0.066105 0.041278 0.022535 0.02681 0.015794 
-0.12379 -0.93057 -0.036818 0.020891 0.025659 0.0069159 0.010862 -0.0034422 
-0.053917 -0.82863 -0.12856 0.0085601 0.035031 0.0062583 0.019083 -0.012156 
-0.031228 0.02681 -0.040928 0.022371 0.038977 0.021384 0.017274 -0.012649 
-0.10423 0.82455 0.076134 0.031085 0.033222 0.027632 0.004943 -0.014129 
-0.21718 0.90527 0.14519 0.015465 0.020398 0.025166 0.025166 -0.021363 
-0.091239 -0.25598 0.0786 -0.0055795 0.010204 0.0080668 -0.013636 -0.025474 
0.30697 -0.97529 0.019905 -0.008539 0.0034632 0.024015 0.011355 -0.019719 
0.49095 -0.49931 -0.011498 -0.023994 -0.0014692 0.0064227 0.024837 -0.014622 
0.11855 0.32999 -0.027447 -0.00015387 -0.0013048 0.011848 0.0062583 -0.015773 
-0.22787 0.87239 -0.059014 -0.028433 -0.010512 0.011684 0.0069159 0.034866 
-0.15717 0.94079 -0.0049219 0.024508 0.011026 0.0026412 0.049664 0.092576 
0.020233 0.47303 0.079751 0.0021479 0.024508 0.010697 0.070215 0.10293 
0.097837 -0.10538 0.11198 0.041443 0.023522 0.025001 0.082546 0.096193 
0.15341 -0.25401 0.099152 0.036839 0.044731 0.0079024 0.063968 0.024673 
0.17824 -0.20436 0.086328 0.036182 0.049335 0.035031 0.065447 -0.00064712 
0.095535 -0.30728 0.073175 0.036346 0.052459 0.016616 0.0060938 0.01826 
-0.0040998 -0.53729 0.052952 0.055254 0.041607 0.027139 0.027961 0.004943 
-0.012649 -0.44884 -0.010512 0.070051 0.051636 0.04095 0.024508 0.031249 
0.023686 -0.12971 0.013821 0.059528 0.029934 0.021713 0.024508 0.041936 
0.086657 0.19533 0.025495 0.058377 0.041936 0.027303 0.035031 0.023851 
0.084355 0.39247 0.085012 0.033387 0.0018191 0.034702 0.020069 0.035195 
-0.0073881 0.46415 0.082053 0.037332 -0.006566 0.0074092 0.012342 0.032071 
0.025659 0.60686 0.1373 0.014972 0.022864 0.023686 0.020233 0.025166 
0.17873 0.70305 0.19402 0.03388 0.010697 0.051965 -0.028597 0.0227 
0.24811 0.63761 0.20208 0.023028 0.028783 0.018096 -0.076606 -0.025309 
0.20717 0.12201 0.088136 0.014479 0.026481 0.025824 -0.047341 -0.038791 
0.060186 -0.65584 -0.10719 -0.011992 0.031414 0.022864 -0.021528 -0.0044286 
-0.1723 -1.1297 -0.20025 0.020069 0.049006 0.00297 0.06035 0.038155 
-0.29215 -1.0471 -0.18594 0.042265 0.065118 0.038648 0.12497 0.045882 
-0.11952 -0.80233 -0.15141 0.065283 0.070215 0.052787 0.13302 0.09422 
0.1003 -0.89966 -0.17591 0.068242 0.049335 0.025824 0.11806 0.099974 
0.23907 -0.47169 -0.1838 0.017274 0.038648 0.037661 0.092411 0.085999 
0.21868 0.4533 -0.052437 0.010533 0.024508 0.014972 0.048841 0.045389 
0.1373 1.1994 0.11214 -0.021692 0.004943 -0.009361 -0.0027845 -0.0138 
0.013328 1.5261 0.18448 -0.0013048 -0.0052507 -0.03353 -0.0078813 -0.040435 
-0.19219 1.4197 0.13269 -0.025474 -0.0036066 -0.010019 -0.03057 -0.034023 
-0.2642 0.92221 0.041607 0.0011614 -0.008539 0.0018191 -0.040435 -0.059178 
-0.24168 0.39756 0.074161 0.020562 -0.0067304 -0.0004827 -0.011005 0.0059294 
-0.093541 -0.05885 0.078929 0.077614 0.022042 0.028783 0.012342 0.076299 
0.10162 -0.63101 -0.0019624 0.036839 0.035031 0.022535 0.021384 0.078765 
0.16755 -0.89933 -0.050793 0.053938 0.034866 0.03536 0.052294 0.046868 
0.1345 -0.49553 -0.085649 0.0421 0.037004 0.023193 0.033715 0.026152 
0.1322 -0.042408 -0.12741 0.014479 0.036346 0.028619 0.033715 0.016781 
0.18087 -0.10916 -0.06296 0.032236 0.051143 0.01267 0.046868 0.047855 
0.22328 -0.073482 0.034866 0.029441 0.061995 0.00017495 0.053774 0.058706 
0.16623 0.060679 0.097508 0.057227 0.064296 0.039305 0.053116 0.066105 
0.074654 0.22904 0.13154 0.077285 0.064132 0.046704 0.094548 0.074326 
-0.034188 0.52466 0.16097 0.08008 0.046046 0.03388 0.093891 0.057884 
-0.12708 0.65454 0.15949 0.057391 0.035195 0.034044 0.081395 0.031742 
-0.24234 0.49983 0.15242 0.06331 0.0324 0.025495 0.10145 0.013821 
-0.24875 0.3974 0.08863 0.020891 0.0054362 0.010862 0.10376 -0.0082102 
-0.038462 -0.05178 -0.021034 0.041772 -0.0029489 0.025659 0.045718 0.012342 
0.25617 -0.52776 -0.036654 0.037168 0.020398 0.022042 0.0031344 0.061501 
0.31421 -0.36515 -0.0075525 0.027303 0.020233 0.03092 -0.064275 0.061172 
0.1248 -0.30629 -0.041257 0.0056006 0.0069159 0.014643 -0.15076 0.045718 
-0.0052507 -0.31106 -0.096665 -0.02235 -0.008539 0.0014903 -0.21882 0.037168 
-0.011827 -0.0021268 -0.072332 0.011684 0.034866 0.025166 -0.15618 0.031742 
-0.028597 0.39312 0.04095 0.036017 0.066269 0.028125 -0.038133 0.035195 
-0.025474 0.6991 0.18054 0.07301 0.05065 0.037332 0.067585 0.065283 
0.046868 0.62199 0.2103 0.0227 0.05213 0.056404 0.13171 0.015465 
0.075148 -0.16358 0.058542 0.057555 0.030263 0.046375 0.13434 0.0088889 
-0.011992 -0.81745 -0.13645 0.0087245 0.0060938 0.020891 0.13894 -0.0077169 
-0.20814 -0.53384 -0.17723 0.0082312 -0.003771 0.0098754 0.15407 -0.017582 
-0.24283 -0.034516 -0.11426 -0.0029489 -0.0044286 -0.0052507 0.13253 -0.015609 
-0.08532 0.59091 0.010862 0.0067515 -0.0054151 -0.0072237 0.10918 0.0075736 
0.073175 0.9957 0.11674 -0.018075 -0.0021268 -0.0022913 0.082217 0.0421 
0.095042 0.65684 0.072681 -0.0013048 -0.0034422 -0.0068948 -0.040435 0.038977 
0.065447 0.013328 0.024015 0.0080668 -0.00081153 0.025659 -0.092719 0.015794 
0.0056006 -0.43388 0.024673 0.013657 0.015301 0.018589 -0.082032 0.0083956 
0.039799 -0.4569 0.091918 0.032729 0.047197 0.0026412 -0.037147 0.051143 
0.1202 -0.2933 0.17445 0.047855 0.053445 0.056076 0.018589 0.075312 
0.19155 -0.53696 0.16788 0.080738 0.068407 0.049006 0.03947 0.085835 
0.17807 -0.69579 0.097508 0.043909 0.055911 0.037497 0.028125 0.08978 
0.22953 -0.14747 0.14239 0.066434 0.04654 0.046704 0.029276 0.047197 
0.27228 0.41483 0.21901 0.038155 0.022206 0.038648 0.031414 0.074983 
0.31503 0.40891 0.19205 0.070051 0.036839 0.03092 0.020069 0.0592 
0.25107 0.08978 0.083697 0.016452 0.018096 0.069722 0.031414 0.045224 
0.069722 -0.0138 0.068078 0.071037 0.044731 0.041114 0.035195 0.041772 
-0.14698 -0.045039 -0.0064016 0.030756 0.049335 0.024179 0.013328 0.031907 
-0.38636 -0.22721 -0.042901 0.025659 0.026646 0.038812 0.017767 -0.016102 
-0.534 -0.26667 -0.08532 -0.0050863 0.022864 0.035688 0.034702 -0.02942 
-0.29725 0.32128 -0.052437 -0.00015387 0.019411 0.0227 0.025495 -0.020541 
0.038155 0.706 0.023193 -0.0011404 0.014643 0.00033937 0.033715 -0.0019624 
0.19928 0.60982 0.01974 -0.01232 0.024015 -0.0026201 0.044073 0.039141 
0.1927 0.22739 -0.093376 0.0019835 0.03388 0.029441 0.041936 0.04095 
0.12201 -0.14467 -0.091897 0.029441 0.044731 0.023028 0.069558 0.079422 
0.033222 -0.22984 -0.012814 0.073175 0.053938 0.037497 0.095699 0.098659 
-0.039778 -0.0138 0.061666 0.046704 0.031414 0.038319 0.078107 0.090109 
-0.065426 0.30483 0.12858 0.077943 0.010862 0.01415 0.055747 0.072353 
0.0080668 0.37422 0.11905 0.047033 0.027139 0.029605 0.049006 0.081724 
0.11609 0.21967 0.082217 0.070873 0.038155 0.039799 -0.0029489 0.082875 
0.24597 -0.31616 -0.074469 0.052294 0.045718 0.037826 -0.021363 0.099645 
0.35958 -0.79756 -0.18791 0.041772 0.03651 0.031742 -0.041915 0.095206 
0.33837 -0.6121 -0.19893 0.018754 0.031249 0.041114 -0.098638 0.055089 
0.12398 -1.2081 -0.22014 0.0059294 0.027468 0.024344 -0.060329 0.053116 
-0.052273 -1.4715 -0.09387 -0.0014692 0.020398 0.011848 0.015137 -0.09946 
-0.080223 -0.1843 0.25978 0.026646 0.0019835 0.024837 -0.010676 -0.33868 
-0.073647 1.0385 0.46958 0.068571 0.018425 0.0052718 0.0093821 -0.33539 
-0.12462 1.4495 0.37093 0.025824 0.033715 0.034373 0.086163 -0.1649 
-0.16555 1.4804 0.25008 0.025824 0.048184 0.01152 0.13615 0.0060938 
-0.035832 1.4026 0.14371 -0.016431 0.018589 0.0082312 0.11494 0.0689 
0.12858 0.53337 0.042594 -0.00064712 -0.0032777 0.036675 0.14634 0.068736 
0.083204 -0.33391 -0.12905 -0.03205 -0.0050863 0.020069 0.12217 0.038319 
-0.12182 -0.47794 -0.33178 -0.001798 -0.0019624 0.0032988 0.084684 0.0037921 
-0.19219 -0.1746 -0.38702 -0.011498 -0.010348 -0.003771 -0.0004827 -0.017746 
-0.095843 -0.04882 -0.23592 0.012999 0.010204 -0.0083746 -0.077593 0.042923 
0.0034632 -0.49438 -0.071345 0.0039565 0.0062583 -0.0082102 -0.12725 0.1567 
0.065776 -0.49668 0.011026 0.038155 0.02681 0.0087245 -0.066413 0.15324 
0.058213 0.082875 0.040785 0.039141 0.027632 0.014479 -0.021856 0.054103 
0.16475 0.73494 0.11707 0.068736 0.044567 0.038155 0.045389 -0.040764 
0.2463 0.74661 0.1858 0.11329 0.07038 0.050979 0.091918 -0.064111 
0.16755 0.078272 0.14091 0.092904 0.082053 0.04654 0.068407 -0.018568 
-0.057041 -0.46265 0.05772 0.063474 0.061501 0.043251 0.041772 0.0014903 
-0.22244 -0.74873 0.0079024 0.013328 0.051472 0.013492 0.044731 0.024673 
-0.291 -0.68214 0.037661 0.040785 0.037332 0.0052718 0.019576 0.047691 
-0.18101 -0.082032 0.10737 0.02829 0.035524 0.022206 0.016616 0.047855 
0.16853 0.60834 0.14321 0.048184 0.02122 0.0080668 0.031907 0.010369 
0.48618 0.77802 0.10228 0.01267 0.021713 0.0070803 0.01415 0.025001 
0.46399 0.46662 -0.0029489 0.018096 0.026481 0.031742 0.017274 0.0047785 
0.32687 0.25469 -0.10653 -0.0011404 0.0052718 0.0056006 0.039963 -0.025474 
0.076134 0.20997 -0.12248 0.0075736 0.005765 -0.0013048 0.041114 -0.027118 
-0.084498 0.24943 -0.023665 0.029112 0.014808 0.020233 0.042265 -0.001798 
-0.13645 0.29053 0.06742 0.025001 0.02829 0.017767 0.066763 0.043416 
-0.17147 0.30352 0.14552 0.025824 0.020233 0.025988 0.037497 0.064954 
-0.2032 -0.053917 0.14206 0.0047785 0.025824 0.017438 0.011684 0.032236 
-0.24135 -0.75777 0.018918 0.018425 0.024837 0.0047785 0.011191 -0.0075525 
-0.20501 -0.93238 -0.11787 -0.0039354 0.022864 0.03651 0.0036276 0.017767 
-0.11919 -0.97661 -0.22409 0.0092177 0.011355 0.01267 -0.0095255 0.053774 
-0.0050863 -0.57807 -0.098967 -0.016102 0.0013258 -0.013471 0.024179 0.051472 
0.25535 -0.09239 0.074654 0.01974 -0.015444 0.004943 0.015137 0.061172 
0.45215 0.2394 0.13812 0.020562 0.0042853 0.018754 0.029769 0.072681 
0.41433 0.77374 0.23151 0.085506 0.048348 0.027468 0.07038 0.096686 
0.23003 1.254 0.32506 0.1105 0.076299 0.055911 0.064296 0.11329 
-0.0047575 1.2972 0.30664 0.08419 0.059035 0.045553 0.062488 0.075805 
-0.28525 0.56379 0.15374 0.048019 0.045553 0.038812 0.060844 0.062981 
-0.38192 0.0098754 -0.034845 0.025001 0.033387 0.014972 0.034044 0.046868 
-0.20288 0.13976 -0.084827 0.041278 0.051636 0.036017 0.069229 0.095535 
-0.013143 -0.35825 -0.13991 -0.00097594 0.060186 0.057227 0.080244 0.092904 
0.1151 -0.94487 -0.1672 0.0079024 0.020398 0.023522 0.039799 0.087972 
0.25617 -0.58382 -0.090253 -0.0078813 0.028783 0.0087245 0.023522 0.058706 
0.3775 -0.12577 0.065776 0.027796 0.027468 0.025824 0.033058 0.061337 
0.29037 -0.40346 0.069558 -0.0067304 0.0046141 0.0013258 0.011355 0.031578 
0.088136 -0.33786 -0.010841 0.012506 0.004943 -0.0026201 0.0062583 0.031578 
-0.031557 0.22016 -0.024323 0.0026412 -0.0080457 0.028947 0.026152 0.063968 
-0.1233 0.36682 0.0059294 0.025001 -0.0078813 0.015137 0.012013 0.06331 
-0.15783 0.26537 0.07597 0.037332 0.038483 0.043251 -0.009361 0.083697 
0.017274 0.26143 0.11609 0.05624 0.033715 0.033551 0.020891 0.10672 
0.23381 0.36698 0.1761 0.063968 0.049006 0.025001 0.031249 0.074161 
0.32341 0.37997 0.23249 0.067749 0.052623 0.05772 0.045224 0.084355 
0.30303 0.3364 0.21917 0.064296 0.062159 0.063639 0.077778 0.083368 
0.20849 0.18563 0.13647 0.043745 0.03651 0.052787 0.057227 0.033058 
0.012835 0.17347 0.022535 0.047362 0.039305 0.050486 0.029441 0.0042853 
-0.31073 0.12513 -0.028433 0.050321 0.055582 0.038319 0.024344 -0.00097594 
-0.60322 -0.001798 -0.041093 0.047197 0.064954 0.027961 -0.00031829 -0.017746 
-0.5322 -0.03912 -0.020706 0.033551 0.054596 0.03947 -0.0087034 0.00297 
-0.11015 -0.080059 0.018754 0.056733 0.04095 0.018918 0.041443 0.045389 
0.25946 0.034702 0.0080668 0.028125 0.032071 -0.010512 0.0092177 0.068571 
0.45971 0.45659 -0.026296 0.032236 0.009711 0.031414 -0.009361 0.071531 
0.45149 0.6404 0.034537 -0.0014692 0.013657 0.019083 0.01415 0.072353 
0.31618 0.50377 0.19369 0.041936 0.00033937 0.037004 0.020069 0.039634 
0.12579 -0.37403 0.2292 0.00297 -0.019061 0.034537 0.010533 -0.043559 
-0.0096899 -1.1586 0.01711 -0.031886 -0.020212 0.01004 0.025495 -0.075291 
-0.13201 -0.71897 -0.1792 -0.0406 -0.02087 0.01711 0.0060938 -0.056055 
-0.33211 -0.58448 -0.21685 -0.054246 -0.0098543 -0.0059084 -0.011827 -0.070852 
-0.3839 -0.57823 -0.15996 -0.031392 0.0062583 -0.0011404 0.017603 -0.090746 
-0.015609 -0.026789 -0.054739 0.0026412 0.0054362 0.023028 -0.0026201 -0.021034 
0.33854 0.25798 -0.0087034 0.062652 0.041443 0.024015 0.038319 0.061337 
0.017932 0.16294 -0.023829 0.048513 0.048841 0.022535 0.074654 0.050979 
-0.37354 0.10096 -0.035503 0.083862 0.049992 0.041114 0.0786 0.01267 
-0.23017 0.04358 -0.017253 0.058049 0.074819 0.025659 0.048677 0.004943 
0.08419 0.32374 0.11346 0.087972 0.072024 0.041443 0.078436 0.058049 
0.2537 0.78706 0.28576 0.063968 0.042429 0.050486 0.066763 0.093726 
0.23315 0.74563 0.28971 0.090603 0.037004 0.053938 0.032729 0.10392 
0.18991 0.36879 0.15851 0.04917 0.053609 0.050814 0.019247 0.055911 
0.15045 0.2103 0.11806 0.048677 0.05065 0.062159 -0.0016336 0.033387 
0.093398 -0.0036066 0.038812 0.08567 0.035524 0.039305 -0.0062372 0.027139 
-0.029913 -0.38817 -0.08532 0.071037 0.040621 0.041607 0.004943 0.0016547 
-0.15437 -0.83932 -0.22047 0.062159 0.037332 0.035524 0.011026 -0.034188 
-0.16917 -0.93402 -0.20781 0.024344 0.03651 0.014808 0.034702 -0.03616 
-0.20353 -0.90525 -0.2032 0.023193 0.047691 0.054596 0.021878 -0.073154 
-0.1256 -0.56146 -0.14566 -0.017417 0.043909 0.013986 0.023522 -0.049149 
0.24417 0.17725 -0.039284 0.015301 0.034702 0.0056006 0.050486 0.045553 
0.40809 0.65504 0.12069 0.0088889 0.037826 0.041772 0.060679 0.08156 
0.21654 0.71061 0.23216 0.048513 0.025988 0.013328 0.036675 0.019083 
-0.06296 0.56592 0.27869 -0.004593 0.0018191 -0.017253 0.0090533 -0.036489 
-0.23247 0.40019 0.27573 -0.036325 -0.016266 -0.01232 -0.0073881 -0.081045 
-0.22935 0.13976 0.19599 -0.0503 -0.041422 -0.031392 -0.018075 -0.053424 
-0.12231 -0.006566 0.07038 -0.039449 -0.0064016 -0.030242 -0.00015387 -0.034023 
0.045224 0.036839 -0.0067304 -0.027775 -0.012485 -0.001798 0.025001 -0.0091966 
0.1465 0.14009 -0.019719 -0.021363 0.010369 0.018096 0.038648 0.023851 
0.20651 0.20898 -0.048656 0.049335 0.026481 0.036839 0.037826 -0.0036066 
0.17297 0.24269 -0.05737 0.076134 0.037497 0.041443 0.090109 0.049335 
0.12431 0.24055 -0.083512 0.085341 0.041607 0.039963 0.084026 0.068407 
0.086985 0.25008 -0.040764 0.044402 0.058871 0.055254 0.072188 0.066105 
-0.057205 0.27458 0.0046141 0.065776 0.039634 0.022535 0.069393 0.034702 
-0.24234 0.094384 0.046868 0.031249 0.048677 0.011026 0.048348 0.0090533 
-0.2328 -0.31665 0.058213 0.053938 0.048677 0.027139 0.038977 0.016452 
-0.003771 -0.79148 0.065776 0.025659 0.055911 0.01711 0.028454 0.0014903 
0.23594 -1.1866 0.070215 0.039634 0.029769 0.026646 0.0088889 -0.019884 
0.28757 -1.1014 0.059857 0.0093821 0.034537 0.038319 -0.012814 0.014643 
0.19698 -0.41365 0.059364 0.00297 -0.0029489 0.025166 -0.024487 0.088136 
0.16936 0.59305 0.094055 0.018589 0.026974 0.035853 -0.016102 0.12644 
0.13286 1.2956 0.11165 0.014808 0.032236 0.024179 -0.072332 0.14486 
0.062817 1.2427 0.10524 0.016945 0.011355 -0.0067304 -0.13103 0.11296 
0.0016547 0.92764 0.10326 0.0056006 0.02122 0.01826 -0.08828 0.038977 
-0.067728 0.59946 0.070215 0.033387 0.010533 0.011355 0.013821 -0.025638 
-0.051615 0.15012 0.023193 0.035031 0.0054362 0.023686 0.079751 -0.032215 
0.11362 -0.037311 0.045224 0.069558 0.028454 0.035031 0.14009 -0.010512 
0.24153 -0.011663 0.063968 0.049664 0.035031 0.0060938 0.099152 -0.019555 
0.12102 0.018589 0.049828 0.065118 0.041607 0.019411 0.076956 -0.024323 
-0.030077 0.044731 0.028125 0.047855 0.055254 0.036839 0.041114 -0.012814 
-0.06148 0.063968 -0.00064712 0.038319 0.05772 0.013492 0.007738 0.034044 
-0.039284 -0.010183 -0.010841 0.0028056 0.054103 0.035195 0.0072447 0.039634 
-0.071345 -0.1986 -0.041093 0.013986 0.029605 0.03799 0.012999 0.025824 
-0.039942 -0.17969 -0.019226 0.027961 0.019083 0.054925 0.019247 0.041936 
0.10721 -0.051122 0.0069159 0.033058 0.021878 0.032071 -0.0004827 0.072681 
0.30401 0.0037921 0.013986 0.039799 0.01415 0.019576 0.032564 0.11362 
0.35958 -0.12018 -0.0011404 0.01415 -0.019226 0.0095465 0.053116 0.11 
0.14437 -0.20485 -0.041257 0.033058 -0.0098543 0.025166 0.027303 0.080738 
-0.05441 -0.10834 -0.034352 0.027632 0.033387 0.028454 -0.0049219 0.043745 
-0.063946 0.087314 -0.012156 0.08304 0.045553 0.036017 -0.057041 0.087643 
-0.031886 0.43932 0.084848 0.064132 0.073339 0.034866 -0.10176 0.072024 
-0.079566 0.54833 0.16163 0.078929 0.048348 0.035688 -0.045039 0.061501 
-0.12001 0.066105 0.08156 0.023028 0.053938 0.035195 0.02681 0.037004 
-0.10456 -0.133 -0.024816 0.025495 0.055418 0.040292 0.069393 -0.023172 
-0.059507 -0.14336 -0.055397 0.020398 0.073997 0.023686 0.082711 -0.03057 
0.0079024 -0.033037 0.011191 0.0059294 0.044896 0.020891 0.078436 0.021384 
0.036017 0.094713 0.00050378 0.018425 0.029605 0.028947 0.054267 0.061666 
0.027961 -0.14632 -0.121 -0.0031133 -0.004593 0.0026412 0.040292 0.055418 
-0.0011404 -0.5613 -0.17953 0.010533 -0.011498 0.00066819 0.051472 0.063639 
0.065447 -0.37995 -0.059178 0.01152 0.0088889 0.0087245 0.044896 0.055089 
0.19484 0.085341 0.093069 0.054925 0.030592 0.023851 0.086163 0.067091 
0.24778 0.36221 0.13516 0.044073 0.039634 0.040785 0.080573 0.077614 
0.12792 0.4459 0.053445 0.082546 0.03092 0.031742 0.052623 0.06035 
0.043251 0.050157 0.021056 0.054596 0.028947 0.021549 -0.011827 0.07449 
0.10622 0.0031344 0.023028 0.082053 0.037004 0.043087 -0.040928 0.0786 
0.12102 0.46284 0.015465 0.018754 0.035688 0.022042 -0.022679 0.067256 
0.013657 0.55557 0.024179 0.029441 0.029112 0.0065871 0.036346 0.058377 
-0.066741 0.19336 0.016123 -0.0022913 0.037661 0.029276 0.044731 0.023357 
-0.082525 -0.02646 0.018096 0.025824 0.043416 0.012835 0.073668 -0.014622 
-0.00064712 0.073504 0.053938 0.034044 0.047526 0.062323 0.076463 -0.015609 
0.0093821 0.26126 0.062323 0.048841 0.036675 0.032893 0.058871 -0.0014692 
-0.049642 0.20619 0.0056006 0.042265 0.036182 0.026317 0.031085 0.025988 
0.041114 -0.00064712 -0.065591 0.020891 0.019905 0.033551 0.065776 0.069722 
0.069722 -0.1792 -0.14336 0.021056 0.0065871 0.023193 0.040621 0.062323 
-0.073976 -0.44407 -0.1501 -0.0055795 0.0024767 0.0088889 0.03651 0.039634 
-0.15816 -0.23214 -0.0042642 0.013657 0.016781 0.024344 0.073339 0.03947 
-0.096007 0.10556 0.18613 0.012013 0.034209 0.024837 0.044402 0.015137 
-0.014293 0.46267 0.2662 0.061995 0.040456 0.020562 0.045224 -0.022185 
-0.035174 0.44886 0.16245 0.0098754 0.0098754 0.031085 0.043416 -0.029584 
-0.084005 0.4214 0.11346 0.0046141 -0.013143 0.00017495 0.011355 -0.051451 
0.021384 0.45675 0.15193 -0.039613 0.0037921 0.004943 -0.0026201 -0.047834 
0.090767 -0.16654 0.077614 -0.040106 -0.011663 0.022206 0.010369 -0.039942 
0.034044 -1.8293 -0.133 -0.04323 0.0037921 -0.0057439 0.0098754 -0.043724 
0.011191 -2.3498 -0.20748 -0.038627 0.028947 0.021384 0.049006 -0.0082102 
-0.023665 -0.9309 -0.087458 0.045389 0.046704 0.035853 0.06479 0.015137 
-0.028926 0.70535 0.077614 0.057227 0.074654 0.043745 0.055911 0.024673 
-0.039942 1.2453 0.15604 0.063968 0.040621 0.04095 0.04358 0.0098754 
-0.13612 0.82208 0.087643 0.013657 0.011684 0.01974 0.063145 -0.025638 
-0.15964 0.20092 -0.01528 0.0080668 -0.0072237 0.014315 0.022206 -0.017417 
-0.063618 0.074819 -0.059836 -0.0044286 0.0039565 0.030592 0.035853 0.011355 
0.089945 0.232 -0.071181 0.038483 0.014479 -0.017417 0.068242 0.017438 
0.17577 0.19928 0.062981 0.03947 0.046046 0.0227 0.043251 0.079094 
0.16525 0.19303 0.13664 0.077449 0.065447 0.055582 0.03388 0.077285 
0.070708 0.14881 0.16163 0.037661 0.048841 0.028783 0.033222 0.053445 
0.011848 -0.021692 0.15193 0.045224 0.043087 0.023357 0.013164 0.0062583 
0.00066819 -0.17591 0.11165 0.02829 0.046211 0.043909 0.028454 -0.00015387 
0.028454 -0.16901 0.097672 0.048348 0.054432 0.036839 0.053938 -0.0036066 
0.01974 -0.25434 0.058871 0.034537 0.036017 0.027632 0.041936 0.021878 
0.051801 -0.32569 -0.015444 0.0083956 0.022371 -0.0029489 0.031578 0.021878 
0.2006 0.037826 -0.026624 0.014479 0.010369 0.009711 0.031578 -0.0040998 
0.22476 0.46481 0.097837 0.043416 0.034373 0.023193 0.024015 -0.001798 
0.10967 0.68792 0.171 0.064625 0.030098 0.012013 0.030756 0.029441 
0.06331 0.61837 0.16607 0.031742 0.012999 0.024673 0.023357 0.062323 
0.058049 0.18136 0.11083 0.045553 0.00066819 0.024673 0.0034632 0.056404 
0.099152 -0.17016 0.094548 0.016616 0.0023123 0.01415 0.014315 0.036346 
0.01711 -0.34855 0.07449 0.03092 0.012506 0.0070803 0.024179 0.011026 
-0.21554 -0.91216 -0.04323 0.023851 0.02533 0.01415 0.01152 0.030592 
-0.42631 -1.6045 -0.20929 0.013328 0.017438 -0.0034422 -0.0044286 0.018754 
-0.41365 -1.6454 -0.30415 0.013657 0.032071 0.0044497 0.053609 0.024837 
-0.16523 -1.0143 -0.25763 0.023851 0.05476 0.022535 0.032236 0.07038 
0.1225 0.072846 -0.090417 0.048184 0.064132 0.027468 0.027961 0.060515 
0.24696 0.91234 0.067913 0.061666 0.073504 0.039141 0.044073 0.033222 
0.31569 1.0641 0.1391 0.05065 0.038648 0.042758 0.012013 0.060515 
0.36238 1.2407 0.15933 0.034373 0.026646 0.01563 -0.026131 0.11066 
0.32884 1.3834 0.14733 0.037004 0.0059294 0.021713 -0.012649 0.12168 
0.20734 1.3637 0.17232 0.03651 0.0041209 0.017438 -0.032379 0.11674 
0.044238 1.0519 0.19369 0.05624 0.032564 0.01415 -0.032379 0.070873 
0.038648 0.38523 0.17676 0.037826 0.043909 0.063968 0.00297 0.067913 
-0.10127 -0.42122 0.17971 0.080409 0.053774 0.038648 0.0059294 0.075805 
-0.42434 -1.1609 0.11313 0.056569 0.053281 0.031907 0.010533 0.027468 
-0.34822 -0.73393 0.041936 0.051472 -0.0021268 0.046046 0.013821 0.044896 
0.31963 0.34265 0.056733 0.010862 0.0088889 -0.0013048 0.0032988 0.041278 
0.72738 0.94572 0.054596 0.031907 0.0085601 -0.0062372 0.009711 -0.15947 
0.59059 0.96282 0.045389 0.031249 0.023028 0.083533 0.0421 -0.29528 
0.18744 0.7772 0.10458 0.063145 0.061337 0.03092 0.099645 -0.15191 
-0.10308 0.33048 0.11576 0.093726 0.065118 0.080409 0.12891 0.10852 
-0.095843 -0.22918 0.029605 0.058542 0.061172 0.052787 0.16689 0.21161 
0.019411 -0.45624 -0.10028 0.043087 0.034866 0.026974 0.13351 0.18925 
0.0324 -0.79953 -0.18528 -0.022679 0.0028056 0.013986 0.09685 0.14815 
-0.098473 -1.3945 -0.26568 -0.036654 -0.018568 -0.006566 0.054596 0.10343 
-0.32125 -1.4084 -0.24184 -0.067399 -0.033694 -0.015773 -0.036983 0.052623 
-0.2813 -0.073482 -0.0016336 0.016452 -0.022514 0.0064227 -0.11459 0.063474 
-0.15717 1.1899 0.19599 0.012835 0.021056 0.025824 -0.18413 0.066763 
-0.044052 1.6239 0.18662 0.061337 0.052787 0.016288 -0.19663 0.007738 
0.025001 1.4584 0.12332 0.052623 0.035195 0.053774 -0.094527 -0.06148 
0.030427 1.1136 0.056898 0.022864 0.030263 0.023028 -0.001798 -0.14139 
-0.11541 0.76799 -0.0004827 0.010369 0.039799 0.026317 0.038483 -0.17509 
-0.11952 0.26274 -0.02942 0.0036276 0.036017 0.034373 0.056733 -0.11689 
0.19566 -1.0194 -0.12823 0.026974 0.042265 0.023193 0.10293 0.032071 
0.54307 -2.4752 -0.20518 0.030098 0.03947 0.02533 0.095371 0.15949 
0.56066 -1.8735 -0.095349 0.070873 0.044073 0.032893 0.05213 0.18399 
0.33147 -0.33474 0.032236 0.057884 0.025495 0.037332 0.074654 0.12299 
0.01004 0.6164 0.068407 0.066105 0.045882 0.040621 0.052623 0.06331 
-0.13662 0.87732 0.10195 0.032729 0.035524 0.034866 0.023851 0.071531 
-0.10867 0.79413 0.14075 0.068736 0.03536 0.0085601 0.045224 0.032236 
-0.046354 0.58023 0.1835 0.031578 0.032071 0.022535 0.030263 -0.0062372 
0.040128 0.42042 0.14042 0.060515 0.024179 0.012999 0.026152 -0.00097594 
0.063639 0.27113 0.068242 0.021713 0.016616 0.010862 0.041114 -0.0075525 
0.059035 0.13105 0.012342 0.017932 0.030098 0.032729 0.019247 0.0036276 
0.046868 0.18004 0.064954 0.019247 0.034702 0.016452 0.0324 0.039305 
-0.01528 0.024015 0.1151 0.028619 0.050814 0.010862 0.056898 0.047855 
-0.05589 -0.38373 0.097837 0.047855 0.048184 0.04654 0.045882 0.030592 
-0.092719 -0.78358 0.088958 0.037497 0.047691 0.027961 0.013492 -0.017911 
-0.21685 -0.49027 0.043745 0.015137 0.04358 -0.0060728 0.005765 -0.084169 
-0.33704 0.15587 0.0060938 -0.041915 -0.0047575 0.0085601 -0.0138 -0.01676 
-0.18315 0.61919 0.023522 -0.020706 -0.033365 -0.017746 -0.012814 -0.0050863 
0.20191 0.81748 -0.01528 -0.03057 -0.032215 -0.0091966 0.021878 -0.0042642 
0.36632 0.32012 -0.22474 -0.00064712 -0.023501 -0.011498 0.011355 -0.0091966 
0.27705 -0.56524 -0.31829 -0.020377 0.01415 0.010697 0.0072447 0.021384 
0.20882 -0.54979 -0.1524 0.022535 0.043416 0.038648 0.019411 0.080902 
0.16081 -0.25286 0.078107 0.037826 0.041607 0.022864 0.046211 0.11099 
0.085341 -0.39721 0.17133 0.061666 0.046046 0.026974 0.052952 0.11395 
-0.048163 -0.73295 0.097508 0.058871 0.030427 0.044731 0.052459 0.091096 
-0.10998 -0.69842 0.0095465 0.060515 0.04506 0.064132 0.049335 0.053445 
-0.047834 0.0062583 -0.086964 0.067749 0.062159 0.050321 0.027796 0.013821 
-0.020541 0.55359 -0.028762 0.048348 0.050486 0.020398 0.0085601 0.033058 
-0.12544 0.55639 0.020727 0.033058 0.045718 0.0037921 0.020233 0.031249 
-0.03912 0.47698 0.14979 0.043251 0.048677 0.019576 0.042758 0.051636 
0.31536 0.69039 0.2583 0.085012 0.053281 0.035195 0.073504 0.13532 
0.42272 1.0524 0.37257 0.051801 0.052294 0.035524 0.092576 0.16492 
0.20635 0.91859 0.31355 0.050321 0.045389 0.054596 0.095371 0.068407 
-0.15174 0.053774 0.066434 -0.0082102 0.011684 0.02681 0.079422 -0.011663 
-0.27341 -0.71387 -0.16325 -0.023665 0.014479 0.004943 0.035524 -0.022679 
-0.15717 -0.36055 -0.15487 -0.012814 0.0042853 0.022371 0.02533 -0.019061 
0.029112 0.35301 -0.0047575 0.038483 0.00066819 0.0093821 0.044567 0.026974 
0.07038 0.26685 0.071859 0.038648 0.0028056 0.0092177 0.053116 0.034373 
-0.096336 -0.91758 -0.03764 0.056569 0.0041209 0.035688 0.038483 0.048184 
-0.18676 -1.437 -0.089595 0.032729 0.018754 0.0098754 0.043416 0.04506 
-0.14566 -0.95408 -0.052437 0.018589 0.027796 0.015959 0.031249 0.024837 
0.11625 0.14848 0.030263 0.020727 0.021713 0.035853 0.01267 0.0026412 
0.28247 0.87601 0.072517 0.023686 0.055747 0.013164 -0.00064712 -0.0029489 
0.14453 0.73971 0.057884 0.031907 0.042758 0.0070803 0.014479 -0.008539 
-0.004593 0.19649 0.04917 0.01415 0.044073 0.03947 0.0047785 -0.012978 
-0.080717 -0.16802 0.041278 0.028947 0.0079024 0.01004 0.020727 0.014808 
-0.19005 -0.51674 0.050321 0.019411 0.016288 0.01563 0.039141 0.0011614 
-0.14566 -0.38883 0.1077 0.051143 0.0085601 0.021549 0.0079024 -0.0029489 
0.027961 0.051143 0.11707 0.045882 0.030592 0.027139 -0.030735 0.0064227 
0.15489 0.32736 0.03536 0.032893 0.027468 0.025495 0.011684 0.0052718 
0.14601 0.51298 -0.059507 0.015959 0.0069159 0.036675 0.036017 0.056569 
0.15127 0.75862 -0.067728 0.0056006 0.013328 0.020398 0.066105 0.11428 
0.1294 0.72162 -0.090253 0.026152 0.031907 0.033551 0.043251 0.10721 
0.10967 0.29924 -0.11327 0.027139 0.046704 0.029276 0.022206 0.083697 
0.070873 -0.40182 -0.078415 0.067913 0.059693 0.031249 0.052294 0.08156 
0.010862 -0.52167 -0.0068948 0.069393 0.047362 0.072846 0.077614 0.04095 
-0.045861 -0.19827 0.031578 0.060186 0.060022 0.027139 0.065447 0.0024767 
-0.064111 -0.096665 0.026974 0.027139 0.037661 0.01711 0.029605 -0.023665 
-0.099953 -0.22688 0.061666 0.058871 0.0227 0.033222 0.037004 -0.011827 
-0.13021 -0.45706 0.062652 0.042429 0.033058 0.029441 -0.015938 -0.01232 
-0.12116 -0.5197 0.063803 0.05065 0.0227 0.0324 -0.064111 -0.066413 
-0.0091966 -0.10423 0.1105 0.024837 0.0093821 0.0046141 -0.064933 -0.069043 
0.14437 0.25074 0.17314 0.063474 0.021384 0.020069 -0.10521 0.0095465 
0.26077 0.36846 0.25008 0.09422 0.044896 0.04358 -0.13727 0.08715 
0.24055 0.56477 0.22739 0.082382 0.032071 0.026974 -0.090253 0.085506 
0.16229 0.67115 0.14141 0.03799 0.0014903 0.036675 -0.028269 0.065283 
0.051308 0.2297 0.032071 0.013164 0.013492 0.044896 0.078765 0.032071 
0.056733 0.030263 -0.023994 0.070873 0.0090533 -0.00081153 0.084684 -0.00064712 
0.04506 0.075312 -0.035503 -0.011663 0.028619 0.019247 0.077449 0.04917 
0.027303 0.19944 -0.0088678 0.070873 0.068242 0.031249 0.069064 0.075148 
-0.011005 0.31125 0.04358 0.046704 0.072188 0.028783 0.080738 0.041936 
-0.090581 0.2491 -0.020541 0.075641 0.072024 0.033551 0.057884 0.030592 
-0.15109 -0.2134 -0.13974 0.017274 0.023193 0.022371 0.03651 -0.014129 
-0.18561 -0.8311 -0.26239 0.00017495 -0.0062372 -0.0090322 0.00033937 -0.033037 
-0.11853 -1.3025 -0.22885 -0.030735 -0.017253 0.0060938 -0.01232 -0.0068948 
0.025988 -0.39343 -0.084334 -0.0072237 -0.012485 -0.0032777 -0.022514 -0.024652 
0.11066 0.36304 -0.024323 -0.017253 -0.010512 -0.015938 0.014972 0.0085601 
0.16985 0.24334 0.035195 0.0024767 0.0065871 0.037332 0.032893 0.051965 
0.18152 0.48306 0.15867 0.034044 0.025166 0.023357 0.028619 0.061501 
0.2024 0.92977 0.29612 0.033715 0.038483 0.031742 0.075805 0.042594 
0.15883 0.81172 0.2948 0.055089 0.036346 0.030098 0.040128 0.041278 
0.086492 0.15176 0.099152 0.034537 0.045718 0.037168 0.044073 0.0056006 
0.037332 -0.17673 -0.037311 0.04917 0.041278 0.029769 0.032893 -0.0062372 
-0.006566 -0.11113 -0.031392 0.025988 0.024673 0.032564 -0.031557 -0.01232 
-0.097322 -0.019226 0.020562 0.039141 0.049006 0.016616 -0.052437 0.037661 
-0.22392 -0.11524 0.065447 0.011355 0.033715 0.01004 -0.038462 0.057227 
-0.13695 -0.18545 0.016123 0.032893 0.020727 0.037826 -0.075455 0.029441 
0.089287 -0.020048 -0.045368 0.026152 0.028125 0.017932 -0.10883 0.0056006 
0.18432 0.22065 -0.025309 0.051308 0.03388 0.012177 -0.056219 -0.022843 
0.11658 0.33295 0.042758 0.024344 0.015137 0.018589 -0.025474 -0.027611 
0.097015 0.2731 0.076956 0.010533 0.022206 0.035688 0.039305 0.010533 
0.064625 0.13417 0.057062 0.0060938 0.01711 0.036182 0.12908 0.011848 
0.030427 0.16212 0.051143 0.0059294 0.013657 0.024673 0.16853 0.0036276 
0.021384 0.14091 0.015137 0.016616 0.020233 0.01415 0.18317 0.089287 
0.033058 -0.047176 -0.011498 0.016288 0.016945 0.040128 0.21441 0.1516 
0.058706 -0.13152 -0.004593 0.032236 0.02533 0.029276 0.14371 0.095864 
0.048019 -0.025309 0.03092 0.015301 0.029112 0.007738 0.082217 0.091425 
-0.026624 0.014479 0.060186 0.032564 0.027303 0.019576 0.025166 0.029276 
-0.050793 0.085012 0.08008 0.0069159 0.027796 0.0072447 -0.0021268 -0.0039354 
-0.026953 0.072517 0.082875 0.043416 0.043909 0.0075736 0.010862 -0.0052507 
-0.048492 -0.10094 0.048184 0.022371 0.032564 0.024508 0.013492 -0.024816 
-0.14007 -0.30958 0.0011614 0.019905 0.037332 0.018589 0.0047785 -0.023172 
-0.14155 -0.29248 0.01267 0.016123 0.020233 0.02829 0.024344 0.027468 
0.043087 0.033387 0.068736 0.013657 0.036017 0.024179 0.039634 0.062159 
0.24466 0.28132 0.072681 0.034044 0.015794 0.021878 0.026646 0.090274 
0.24384 0.1345 0.082546 0.037168 -0.010676 0.022371 0.042429 0.09274 
0.20043 -0.11787 0.094548 0.047197 0.034373 0.024837 0.011026 0.054267 
0.17034 -0.13629 0.082217 0.027961 0.029605 0.057227 -0.071674 -0.0044286 
0.15801 0.088958 0.10951 0.055747 0.034537 0.030098 -0.084169 0.011684 
0.05772 0.37422 0.11658 0.023357 0.040292 0.034702 -0.011663 0.021878 
-0.080388 0.5314 0.068078 0.041936 0.040456 0.024673 0.016123 0.056076 
-0.040106 0.54652 0.0051074 -0.0013048 0.027796 0.035031 0.046211 0.090767 
0.070215 0.585 0.015465 0.021878 0.022371 0.0056006 0.090767 0.056733 
0.12036 0.597 0.11576 0.0065871 -0.0016336 0.0069159 0.050157 0.068407 
0.042265 0.43242 0.18366 0.039141 0.013492 0.019247 0.037004 0.017438 
0.032564 0.15127 0.1248 0.0592 0.046868 0.026481 0.067749 -0.21669 
-0.052766 -0.54634 -0.014622 0.05476 0.048348 0.051965 0.08978 -0.33605 
-0.19844 -0.81548 -0.10916 0.029934 0.029276 0.028947 0.10573 -0.20781 
-0.43371 -0.6879 -0.11574 0.019083 0.050157 0.016123 0.15308 0.068736 
-0.33474 -0.80907 -0.13333 0.023522 0.038648 0.046046 0.2103 0.2851 
0.091425 -0.64564 -0.098144 0.0024767 0.060022 0.072517 0.25814 0.35925 
0.38457 -0.24184 -0.073318 0.034537 0.06331 0.049335 0.25239 0.28839 
0.32835 0.45346 -0.086142 0.018425 0.0065871 0.038319 0.1026 0.16393 
0.10935 0.84263 -0.14566 -0.021199 -0.0503 -0.023829 -0.10883 0.0093821 
0.027303 0.95476 -0.089431 -0.059343 -0.055397 -0.05178 -0.23757 -0.056383 
0.057884 0.80054 0.075312 0.030756 -0.0068948 -0.0088678 -0.25713 -0.065591 
0.17445 0.59568 0.24153 0.044567 0.04506 0.014808 -0.14434 -0.05737 
0.2297 0.34331 0.37126 0.10885 0.071531 0.048184 -0.016924 0.044238 
0.20487 0.10672 0.43571 0.11346 0.087314 0.077449 0.033387 0.10293 
0.10211 0.066105 0.37882 0.082875 0.063639 0.058049 0.056898 0.077449 
-0.022021 0.16114 0.19336 0.055911 0.034044 0.053281 0.10639 0.048019 
-0.10554 0.37027 0.015301 0.028454 0.021713 0.037826 0.061337 0.0080668 
-0.19515 0.59371 -0.028269 0.038483 0.026481 0.0065871 0.048019 -0.021856 
-0.26354 0.3244 -0.12149 0.0051074 0.023686 0.031249 0.056404 -0.073482 
-0.23576 -1.14 -0.36597 -0.0064016 0.0059294 0.00017495 0.0087245 -0.16769 
-0.19104 -2.9335 -0.64005 -0.071838 -0.01676 -0.016102 0.0060938 -0.19614 
-0.042901 -2.4715 -0.53664 -0.028269 -0.023665 0.0023123 0.048513 -0.064933 
0.14963 -0.49224 -0.14533 -0.0054151 0.007738 0.024508 0.091753 0.074983 
0.27984 0.81337 0.12677 0.065283 0.035031 0.018589 0.13105 0.14585 
0.293 0.64977 0.15193 0.051143 0.041772 0.035031 0.1008 0.15012 
0.17873 0.097344 0.08715 0.052787 0.030756 0.017438 0.058871 0.096686 
0.045882 0.34166 0.19583 0.045224 0.018754 0.033551 0.010533 0.079916 
-0.0095255 0.85365 0.32522 0.036346 0.0227 0.026481 -0.00015387 0.046046 
-0.10061 0.83852 0.25337 0.013657 0.013657 0.0093821 -0.05326 -0.00015387 
-0.24431 0.5143 0.082875 -0.008539 -0.047176 0.0046141 -0.067564 -0.029913 
-0.25187 0.47122 0.031742 -0.001798 0.034537 0.015137 -0.021034 -0.0049219 
-0.2185 0.48322 0.016452 0.031742 0.026646 0.016945 1.0539e-005 0.040785 
-0.17361 0.21885 -0.016595 0.070215 0.013986 0.055254 0.013821 0.060186 
0.10737 -0.17493 -0.068221 0.072024 0.063803 0.046704 0.01267 0.10458 
0.53222 -0.28804 -0.024158 0.1271 0.060186 0.032071 -0.011334 0.15061 
0.66835 -0.13826 0.079258 0.077285 0.066105 0.056076 -0.035503 0.13532 
0.56757 -0.010676 0.12151 0.097179 0.037661 0.031578 0.0032988 0.10951 
0.33607 -0.19038 0.037332 0.027139 0.038648 0.00050378 -0.010019 0.046211 
0.05772 -0.4541 -0.034188 0.017438 0.019083 0.012342 -0.014951 0.047362 
-0.16966 -0.32306 -0.028926 -0.02646 0.0023123 -0.016266 -0.012649 -0.021199 
-0.16407 -0.28525 -0.019719 -0.034516 -0.00097594 -0.015444 -0.013965 -0.06444 
-0.050958 -0.39508 -0.0013048 -0.063124 -0.011992 -0.0059084 -0.012814 -0.07825 
-0.23954 -0.60783 0.059693 -0.057534 -0.011827 -0.0057439 0.021713 -0.063289 
-0.38192 -0.87204 0.11576 0.015137 -0.0057439 0.033551 0.05624 -0.0087034 
-0.19761 -0.45114 0.11296 0.031578 0.048348 0.02533 0.074326 0.099316 
0.01826 0.24877 0.083862 0.069558 0.025495 0.029769 0.091918 0.12957 
0.11247 0.56543 0.04358 0.050321 0.042429 0.015301 0.045553 0.087972 
-0.054904 0.6039 0.020069 0.061995 0.018589 0.016781 -0.00081153 0.023851 
-0.23576 0.41844 -0.053917 0.030756 0.025166 0.0046141 -0.035996 -0.072332 
-0.067728 0.31914 -0.066741 0.066105 0.045224 0.03799 -0.024323 -0.043724 
0.2948 0.48503 0.024837 0.067585 0.067749 0.038155 0.00066819 0.081395 
0.51084 0.77457 0.14075 0.097015 0.081231 0.055747 0.059693 0.13072 
0.42847 0.65273 0.20092 0.084355 0.075641 0.065118 0.05772 0.1493 
0.16722 0.2953 0.12431 0.047691 0.04917 0.035195 0.037497 0.10556 
-0.081703 0.1054 0.048348 -0.0013048 0.0079024 0.013986 0.027468 0.023522 
-0.14829 0.059857 -0.0022913 -0.034516 -0.022021 0.0092177 -0.010676 -0.064275 
-0.07266 0.071037 0.0092177 -0.024816 -0.02235 -0.014787 -0.065591 -0.12001 
0.022371 -0.079072 0.072517 -0.027118 -0.014129 0.013986 -0.075291 -0.1284 
0.04506 -0.22573 0.080902 0.024015 0.026646 0.01152 -0.062631 -0.077593 
0.033222 -0.17427 0.075805 0.010204 0.06742 0.021384 0.021549 0.026646 
-0.022021 -0.061809 0.062488 0.053116 0.035688 0.041278 0.12168 0.11872 
0.0065871 -0.029255 0.044731 0.049992 0.043745 0.027139 0.15801 0.15653 
0.089616 -0.038956 0.020233 0.075148 0.035853 0.025824 0.13335 0.12135 
0.16936 -0.055397 -0.017088 0.029934 0.040785 0.03651 0.091425 0.083533 
0.15292 0.14091 -0.0098543 0.012999 0.039963 0.030756 0.079751 0.040785 
0.095371 0.52515 0.071859 0.027303 0.043416 0.030592 0.033387 0.0069159 
0.030427 0.64106 0.13565 0.038812 0.049664 0.038483 0.0056006 0.00050378 
-0.025309 0.33196 0.10392 0.036182 0.059528 0.023357 -0.033694 0.007738 
-0.11607 -0.28015 -0.025967 0.010369 0.044402 0.013492 -0.031392 -0.033037 
-0.18676 -0.74199 -0.12149 0.016616 0.0034632 0.013657 0.017438 -0.034188 
-0.19153 -0.49389 -0.14698 0.011848 0.0083956 0.0059294 0.016123 -0.030899 
-0.052602 -0.077922 -0.071016 0.046704 0.0018191 0.037168 0.05213 0.010697 
-0.017582 -0.12511 0.026481 0.052787 0.037497 0.051472 0.064954 0.020727 
-0.054246 -0.21488 0.012177 0.077285 0.024508 0.031085 0.071366 0.030263 
-0.034681 0.2024 0.048513 0.042265 0.0095465 0.033551 0.079916 0.033715 
0.050157 0.52614 0.088136 0.054596 0.022864 0.035195 0.050814 0.025001 
0.051636 0.51956 0.058542 0.029605 0.015465 0.019576 0.053116 0.023686 
0.073175 0.44212 0.031742 0.018754 0.025988 0.042265 0.0054362 0.015137 
0.14354 0.54915 0.025988 -0.00097594 0.026974 0.01826 0.035853 0.044073 
0.16903 0.39247 0.018425 0.0079024 0.039799 0.027468 0.076956 0.066598 
0.14815 0.13203 0.013657 0.029769 0.055911 0.046375 0.089945 0.080738 
0.072681 0.037168 0.010204 0.029934 0.052623 0.039634 0.079094 0.058213 
0.053774 -0.067892 -0.016102 0.049006 0.054432 0.044896 0.11691 0.027139 
0.098988 -0.12807 -0.052109 0.036839 0.024508 0.047362 0.12053 0.012999 
0.11165 0.062981 -0.0040998 0.048184 0.014972 0.016123 0.062159 -0.006566 
-0.0090322 0.26357 0.050157 0.018918 0.029605 -0.0068948 0.063639 0.017932 
-0.19038 0.17199 0.1031 0.079422 0.038812 0.031742 0.035524 0.04506 
-0.121 0.13154 0.071859 0.052459 0.033222 0.021713 0.0082312 0.063803 
0.083862 -0.10735 0.078272 0.046211 0.035031 0.037497 0.011355 0.054103 
0.17001 -0.58448 0.082053 0.00033937 0.027796 0.01974 -0.0036066 0.055747 
0.14486 -0.48369 0.16574 0.028454 0.024837 0.0054362 -0.037969 0.039634 
0.087972 0.1345 0.25814 0.025166 0.024344 0.02122 -0.095514 0.040456 
0.029112 0.97614 0.29332 0.051965 0.042429 0.020891 -0.1427 0.064954 
-0.11163 1.2328 0.19287 0.06183 0.056569 0.022206 -0.075455 0.066927 
-0.20452 0.29826 -0.085485 0.050486 0.055911 0.047855 0.041607 0.0085601 
-0.063618 -0.15799 -0.32569 0.0074092 0.040456 0.020233 0.10852 -0.066413 
0.21638 -0.37748 -0.42927 -0.046519 -0.0014692 0.0046141 0.10014 -0.068714 
0.34479 -1.5021 -0.45246 -0.067399 -0.023665 0.0014903 0.10819 -0.013307 
0.24351 -1.3255 -0.29659 -0.088937 -0.04471 -0.0138 0.080244 0.02681 
-0.020212 -0.11574 0.023522 -0.015938 -0.021692 0.0044497 0.068407 0.03536 
-0.10275 0.073339 0.20339 0.0056006 -0.006566 0.018918 0.067585 0.033715 
-0.039942 -0.15618 0.24449 0.070544 0.041772 0.016123 0.041114 0.064461 
-0.12609 -0.20353 0.19862 0.059693 0.035031 0.027468 0.032071 0.062981 
-0.24497 0.0041209 0.15949 0.059857 0.025988 0.014643 0.036346 0.054925 
-0.22935 0.52285 0.16919 0.044402 0.013492 0.0039565 0.017932 0.068736 
-0.13103 0.75796 0.14404 0.035031 0.018918 0.025495 -0.0095255 0.026646 
-0.073154 0.25633 0.043416 0.014479 0.020233 0.0039565 -0.017417 -0.023336 
0.026481 -0.063289 -0.015609 -0.0059084 0.02533 0.0047785 -0.025309 -0.0406 
0.24137 0.073504 0.019083 0.016452 0.028619 0.027303 -0.0070593 -0.024816 
0.41466 0.28099 0.048513 0.0037921 0.061008 0.020233 0.011191 -0.0054151 
0.33805 0.36846 0.083862 0.025001 0.066105 -0.0029489 0.0095465 0.029441 
0.19402 0.28806 0.14042 0.015137 0.027961 0.028619 0.0042853 0.054925 
-0.00015387 0.11378 0.11083 0.039963 0.039141 0.0065871 0.028783 0.033222 
-0.13267 -0.075949 0.037497 0.017932 0.021878 0.025495 0.02533 0.028454 
-0.23017 -0.17443 -0.04619 0.058706 0.036346 0.034373 -0.010348 0.0021479 
-0.22343 -0.28952 -0.07973 0.02533 0.0051074 0.018425 0.01267 0.037497 
-0.079237 -0.38488 -0.13201 0.015794 -0.0052507 0.022535 0.014643 0.014643 
0.02122 -0.34 -0.11163 -0.028269 -0.0039354 -0.0057439 -0.013471 -0.0027845 
0.093069 -0.19893 -0.017582 0.0227 -0.0014692 0.00066819 0.029934 0.046211 
0.1904 -0.068221 0.045882 0.011848 0.0034632 0.019905 0.025659 0.068736 
0.17396 -0.0027845 0.089616 0.038483 0.01974 0.015137 0.0031344 0.052787 
0.0324 -0.071181 0.10787 0.035031 0.022206 0.0075736 0.046704 0.026317 
-0.045203 -0.15618 0.092576 0.03388 0.030756 0.028125 0.036346 0.01004 
-0.0091966 -0.11376 0.097508 0.061995 0.054103 0.025001 0.042594 0.055911 
0.057391 0.12431 0.092247 0.053609 0.067913 0.040456 0.071366 0.079751 
0.14157 0.28412 0.059364 0.092411 0.053774 0.071037 0.038155 0.083862 
0.13845 0.32226 0.012835 0.066269 0.049992 0.044896 0.036017 0.0060938 
0.026481 0.30894 -0.00081153 0.068571 0.058542 0.042265 0.042758 -0.022843 
-0.075291 0.39839 0.018096 0.03651 0.037332 0.024837 0.012506 -0.031557 
-0.1746 0.35761 0.10096 0.073504 0.0324 0.0090533 -0.00031829 0.0046141 
-0.20337 0.025495 0.10376 0.025824 0.044073 0.033058 0.041607 0.03947 
-0.1353 -0.39886 0.057062 0.01152 0.0074092 0.0032988 0.052952 0.0592 
0.078436 -1.0427 0.069886 0.038977 0.0041209 0.0098754 0.025988 0.086492 
0.26357 -1.2096 0.20569 0.035031 0.0041209 0.022206 0.056404 0.10244 
0.32062 -0.25286 0.2805 0.043909 0.03536 0.024015 0.033551 0.061995 
0.29497 1.0671 0.23611 0.062159 0.056404 0.023686 0.02829 0.027632 
0.2029 1.5023 0.088301 0.062817 0.066927 0.046211 0.039963 0.0056006 
0.043416 1.0981 -0.080223 0.038812 0.06035 0.040456 0.049335 0.0075736 
-0.056712 0.8303 -0.19515 0.055911 0.044402 0.034373 0.022371 0.019905 
-0.10308 0.43406 -0.21652 -0.001798 0.0021479 0.021713 0.036346 0.028454 
-0.08828 -0.38258 -0.23658 0.030098 -0.0014692 0.0069159 0.016781 0.03092 
0.016288 -0.7239 -0.14665 0.032564 0.011684 0.017932 0.0075736 0.066269 
0.10392 -0.37436 0.0013258 0.073175 0.032564 0.023686 0.059857 0.082053 
0.16442 -0.0054151 0.084519 0.045389 0.056898 0.036675 0.04358 0.071037 
0.13302 0.23397 0.11083 0.050979 0.05065 0.03947 0.04358 0.047855 
0.23052 0.41154 0.16163 0.041607 0.049335 0.027139 0.048841 0.021878 
0.26159 0.40611 0.2075 0.04358 0.032071 0.032893 0.030098 0.032564 
0.14174 0.22641 0.20257 0.046375 0.043416 0.038483 0.013657 0.032729 
-0.034023 0.015301 0.13319 0.020562 0.031742 0.020398 0.04095 0.007738 
-0.17164 -0.16934 0.043251 0.052952 0.030592 0.01152 0.026974 0.012999 
-0.21291 -0.32273 0.0047785 0.024837 0.036182 0.02122 0.048184 0.0067515 
-0.13021 -0.20551 0.023851 0.071037 0.039141 0.0041209 0.040456 0.025001 
0.064461 -0.014622 0.013657 0.02122 0.030098 0.01267 0.051143 0.02122 
0.1733 -0.094527 -0.048985 0.023522 0.0059294 0.018918 0.0054362 -0.012156 
0.18054 -0.019884 -0.058028 -0.014622 -0.0083746 0.024837 0.037497 0.0072447 
0.21589 0.40217 -0.047505 0.022535 0.0065871 0.02122 0.0069159 0.023028 
0.10556 0.49588 -0.055726 0.01415 0.01152 0.01152 -0.018897 -0.0031133 
-0.035338 0.3974 -0.088115 0.019905 0.0087245 0.00033937 0.025988 0.011355 
-0.040764 0.30977 -0.16703 0.014479 -0.0016336 0.007738 0.019247 0.056569 
0.0014903 0.060186 -0.13103 0.012342 0.007738 0.017932 0.022371 0.046046 
-0.024323 0.044238 0.01415 0.021384 0.0046141 -0.0088678 0.05213 0.029605 
-0.16868 0.26011 0.15209 0.028454 0.0090533 0.029769 0.036182 0.023851 
-0.43897 0.030263 0.16114 0.019411 0.0031344 0.021713 0.027961 -0.021692 
-0.4296 -0.29889 0.10507 0.0013258 0.0085601 0.011191 0.024837 -0.011992 
-0.17279 -0.35167 0.048348 0.026481 0.02829 0.022864 0.016288 0.013821 
0.044731 -0.3132 0.0095465 0.02533 0.043087 0.030263 0.0070803 0.025495 
0.16656 -0.023829 0.0062583 0.063803 0.04358 0.043416 0.043909 0.0421 
0.30451 0.23545 -0.061973 0.017438 0.010369 0.028947 0.03651 0.037332 
0.44343 0.18563 -0.073976 0.029441 -0.0042642 0.0019835 0.016288 0.013821 
0.52005 -0.12133 -0.022514 -0.016431 -0.001798 0.020069 0.036839 0.027961 
0.39411 -0.42352 0.080244 0.029441 0.028947 0.021713 0.030592 0.070544 
0.23759 -0.26716 0.2805 0.037168 0.045882 0.030427 0.022864 0.093069 
0.23068 0.20471 0.41861 0.065612 0.049006 0.043416 0.031578 0.12562 
0.11543 0.6968 0.35942 0.073504 0.034866 0.034044 0.017274 0.10129 
-0.14139 0.5674 0.12497 0.035688 0.016288 0.028947 0.017438 0.067091 
-0.38126 0.13138 -0.14073 0.0095465 0.0060938 0.029934 0.051472 0.017932 
-0.58596 -0.12083 -0.31599 -0.064275 -0.032872 -0.017253 0.024673 -0.087129 
-0.64745 -0.046519 -0.37189 -0.080552 -0.055068 -0.019719 0.035195 -0.12396 
-0.38209 0.72294 -0.24201 -0.098967 -0.047176 -0.018239 0.026646 -0.090253 
-0.019226 1.1828 -0.033694 -0.031886 -0.02794 -0.028269 0.00099702 -0.062631 
0.11346 0.53189 0.062323 -0.0047575 0.0036276 0.0046141 -0.001798 -0.039449 
0.094877 -0.56853 0.026481 0.067091 -0.0013048 0.027961 0.018425 -0.017253 
0.0036276 -1.6791 -0.064768 0.043745 0.037826 0.037826 -0.0080457 0.015794 
0.047526 -2.0578 -0.13859 0.0592 0.049006 0.054103 -0.029255 0.041443 
0.049499 -1.8773 -0.12593 0.033551 0.055747 0.042429 -0.02942 -0.0054151 
-0.050793 -0.80085 0.034373 0.054267 0.051965 0.038483 -0.040106 -0.016266 
-0.077593 0.56247 0.18284 0.0592 0.059693 0.051965 0.00066819 0.077778 
0.27129 1.193 0.25502 0.065447 0.068407 0.043416 0.044896 0.16114 
0.60884 1.0192 0.19961 0.062323 0.062652 0.016452 0.062323 0.17396 
0.5263 0.76059 0.1835 0.038812 0.051801 0.03651 0.038648 0.12546 
0.17347 0.57217 0.24252 0.045389 0.022206 0.015959 0.075476 0.058049 
-0.082361 0.41253 0.14831 0.037004 0.051143 0.021056 0.1003 0.0085601 
-0.13432 0.24647 0.097344 0.047526 0.065612 0.021056 0.14437 -0.010019 
-0.14451 -0.065426 0.045553 0.009711 0.018754 0.015137 0.14206 0.00066819 
-0.12314 -0.18808 0.033551 0.023686 0.012999 0.00050378 0.1345 -0.022185 
-0.10998 -0.28015 0.015794 -0.0057439 0.009711 0.025001 0.085506 -0.0014692 
-0.1353 -0.48041 -0.027611 -0.0062372 -0.021528 0.01152 0.072024 -0.014129 
-0.099295 -0.49504 -0.050464 -0.031557 0.00033937 -0.0029489 0.029112 -0.026131 
-0.049642 -0.25056 -0.034681 -0.028433 0.0072447 -0.0052507 -0.013143 -0.0013048 
0.0013258 -0.048656 -0.023172 -0.0070593 -0.013636 -0.018075 -0.030406 -0.0021268 
0.055254 -0.016595 0.0044497 0.025495 -0.0088678 0.0028056 -0.024816 0.016452 
0.1077 -0.018239 0.03536 0.043251 0.029605 0.014643 -0.017417 0.031907 
0.1202 0.025824 0.05476 0.054925 0.047362 0.018754 -0.010183 0.007738 
0.12677 0.12924 0.043251 0.076463 0.070215 0.035031 -0.014622 0.038648 
0.12677 0.22312 0.030592 0.082875 0.067585 0.036839 -0.014622 0.027632 
0.14256 0.26833 0.033387 0.080244 0.070544 0.035524 0.021056 -0.013636 
0.10655 0.31404 0.089452 0.056404 0.08715 0.049664 0.038155 0.0036276 
0.053116 0.25107 0.14174 0.091753 0.093726 0.05065 0.0064227 0.026152 
0.022371 0.21506 0.15324 0.054267 0.06331 0.025659 0.026317 0.046704 
0.011191 0.21819 0.092411 0.10326 0.020891 0.039799 0.058706 0.087643 
0.015301 -0.04323 0.0060938 0.024179 0.018425 0.022864 0.044402 0.14881 
0.0039565 -0.53664 -0.05737 0.0075736 0.037826 0.0080668 0.043909 0.16985 
0.071366 -0.66175 -0.12083 0.025495 0.014808 0.016781 0.02681 0.13171 
0.16541 -0.36713 -0.10834 0.043416 0.032893 0.030427 0.044238 0.092247 
0.25551 -0.058356 -0.067564 0.060186 0.05065 0.036675 0.091096 0.063968 
0.26143 0.045389 -0.0016336 0.057227 0.069064 0.03651 0.1197 0.04917 
0.18498 0.1853 0.086492 0.069558 0.055582 0.039799 0.088136 0.051143 
0.023193 0.37537 0.19649 0.078765 0.057227 0.05624 0.02533 0.078272 
-0.068221 0.64534 0.31026 0.10885 0.055582 0.041278 -0.00064712 0.09981 
-0.083676 0.81468 0.27968 0.072517 0.054432 0.018918 0.020891 0.082875 
-0.014622 0.63744 0.13138 0.089452 0.051965 0.034866 0.013986 0.058213 
0.055747 0.71834 0.19139 0.042923 0.05624 0.0019835 0.00066819 0.038812 
-0.048492 1.011 0.29859 0.016452 0.0064227 0.004943 -0.056877 -0.16802 
-0.23033 1.1029 0.25041 -0.08121 -0.040271 -0.025638 -0.085978 -0.41612 
-0.206 0.4556 0.060515 -0.078579 -0.068386 -0.045696 -0.072825 -0.34246 
-0.13991 -0.41283 -0.11656 -0.053424 -0.040271 -0.0057439 -0.030899 -0.1205 
-0.10489 -0.89226 -0.25467 -0.019719 -0.023007 0.0056006 -0.001798 0.044567 
-0.004593 -0.70582 -0.2471 0.023686 0.005765 0.010862 0.036675 0.14174 
0.17051 -0.50869 -0.1815 0.048019 0.03092 0.036675 0.042594 0.19796 
0.39115 -0.69201 -0.13958 0.082875 0.064461 0.041443 0.047197 0.21145 
0.49999 -0.60964 -0.085649 0.10096 0.023851 0.064132 0.060022 0.1664 
0.35284 0.099316 0.066927 0.093562 0.061501 0.070708 0.061501 0.13697 
0.019083 0.5263 0.18547 0.055911 0.076463 0.043909 0.076134 0.09685 
-0.15141 0.43554 0.18119 0.068571 0.046868 0.035853 0.059528 0.086163 
-0.10998 0.31914 0.10277 0.021878 0.038483 0.029441 0.023357 0.10359 
-0.016924 0.32736 0.073175 0.032564 0.030592 0.018096 0.016452 0.062488 
-0.11738 0.37635 0.063474 0.0044497 0.040785 0.040128 -0.023336 -0.017746 
-0.28015 0.40628 0.047855 0.03092 0.020891 0.021056 -0.054739 -0.035667 
-0.20518 0.36863 0.044402 0.0062583 0.0014903 0.045882 -0.0068948 -0.025638 
0.017603 0.35432 0.056404 0.013492 0.011684 0.037168 0.048841 -0.010019 
0.16031 0.39723 0.0689 0.026481 -0.0022913 0.0090533 0.043909 0.0026412 
0.21358 0.3461 0.095535 0.014479 0.010697 0.019411 0.039963 0.0098754 
0.22279 0.17018 0.12069 0.03947 0.014479 0.034209 0.031085 -0.017253 
0.13516 -0.022843 0.061501 0.021713 0.030592 0.019247 -0.019226 -0.016102 
-0.059672 -0.55982 -0.00015387 0.045389 0.023193 0.030756 -0.0090322 0.0085601 
-0.26174 -0.8362 -0.099624 0.011848 0.010533 0.03388 0.045389 0.018096 
-0.3303 -0.65353 -0.16358 0.029276 0.032893 0.018589 0.047526 0.025988 
-0.23658 -0.37189 -0.182 -0.014458 0.013164 -0.0049219 -0.0050863 0.013657 
-0.023665 -0.40576 -0.16786 0.0095465 0.028454 0.0098754 -0.01232 0.031578 
0.11839 -0.3109 -0.13612 -0.017911 0.033551 -0.0078813 0.020562 0.025001 
0.20947 0.21917 -0.080717 -0.00015387 0.015465 0.020562 0.055582 0.043251 
0.27836 0.34594 -0.06855 -0.017911 0.00033937 -0.012156 0.048184 0.052294 
0.38244 -0.17805 -0.13711 -0.037969 -0.015938 0.0065871 0.025824 0.10195 
0.36912 -0.1524 -0.099131 -0.0087034 -0.011005 0.025988 0.049335 0.10228 
0.20043 0.65717 0.12036 0.026481 0.032893 0.035031 0.10047 0.092576 
-0.053095 0.96644 0.24976 0.072188 0.053116 0.016288 0.099316 0.073504 
-0.28903 0.50887 0.15357 0.031578 0.037332 0.038812 0.050321 -0.023665 
-0.29051 0.019905 0.080409 0.041443 0.024508 0.027139 0.037332 -0.075455 
-0.10735 -0.062467 0.095864 0.027468 0.017274 0.0227 0.0065871 -0.13366 
-0.075291 0.0689 0.076299 0.052294 0.0014903 0.023851 0.0042853 -0.11607 
-0.12478 -0.26585 0.045882 0.037497 0.01711 0.0082312 0.041443 0.0064227 
-0.041093 -0.96839 0.012177 0.068736 0.023851 0.021056 0.043251 0.12332 
0.15916 -1.1371 0.049664 0.052787 0.035524 0.049006 0.041772 0.15735 
0.26866 -0.55669 0.14026 0.087479 0.069722 0.041114 0.0592 0.1442 
0.087972 -0.11738 0.11428 0.040621 0.055089 0.028947 0.039963 0.0689 
-0.2402 -0.033859 0.058049 0.034044 0.022864 0.028947 0.032071 -0.050136 
-0.27456 0.17363 -0.0098543 0.019905 0.040292 0.014972 0.046704 -0.031721 
-0.05737 0.47895 -0.09387 0.020398 0.037661 0.046046 0.038977 0.048184 
0.15505 0.45215 -0.15405 0.022371 0.042429 0.027139 0.042429 0.11625 
0.21819 0.22082 -0.15207 0.00066819 0.022864 0.018754 0.04654 0.10836 
0.20224 0.28264 -0.13415 0.018918 0.0046141 -0.0021268 0.038977 0.035195 
0.11263 0.22887 -0.10538 0.013492 0.0090533 -0.0083746 0.0060938 0.035195 
-0.00081153 -0.088937 -0.12412 0.04506 -0.01117 -0.00097594 0.023193 0.013821 
-0.023665 -0.019226 -0.021692 0.004943 -0.0080457 -0.0070593 -0.0083746 -0.046354 
0.058049 -0.10489 0.10688 0.029276 0.00083261 -0.028762 0.010533 -0.032543 
0.23578 -0.55193 0.15292 0.019247 0.038812 0.016616 0.015794 0.033058 
0.26028 -0.32125 0.19106 0.073997 0.038812 0.031085 -0.0067304 0.039799 
0.10244 0.19254 0.2052 0.055418 0.049992 0.0227 0.0036276 -0.001798 
-0.011827 0.44935 0.17626 0.035195 0.030263 0.044567 0.020562 -0.0091966 
-0.049807 0.43439 0.01267 0.02122 0.0021479 0.012506 0.0070803 -0.040764 
-0.12215 0.30039 -0.078086 0.0039565 0.0062583 -0.0040998 -0.010183 -0.064933 
-0.21948 0.11757 -0.027611 0.023522 0.0028056 0.038483 0.030263 -0.05885 
-0.15174 0.0044497 0.049335 0.037826 0.026152 0.048513 0.053774 -0.011992 
-0.00064712 -0.33786 0.012835 0.032564 0.020562 0.036839 0.041772 0.033058 
0.087314 -1.1394 -0.12544 -0.0032777 0.00099702 0.032071 0.043745 0.073504 
0.11543 -0.8237 -0.10735 0.026317 0.0046141 0.014315 0.028947 0.05476 
0.10113 0.26389 0.12069 0.0592 0.026646 0.02533 0.047855 0.042265 
0.047033 0.75368 0.23068 0.093891 0.056076 0.046704 0.056733 0.025495 
0.016452 0.72047 0.22657 0.059528 0.057884 0.037826 0.040128 0.024344 
0.045882 0.63859 0.12727 0.053281 0.056076 0.035031 0.04095 0.074819 
0.15719 0.52646 0.12398 0.061172 0.058871 0.039963 0.04506 0.061501 
0.23529 0.32045 0.16015 0.076134 0.055747 0.018589 0.044896 0.095206 
0.23118 0.2292 0.17248 0.074326 0.049335 0.055254 0.02533 0.10589 
0.13976 0.19813 0.13434 0.0421 0.042758 0.045389 0.024344 0.079751 
0.082053 0.080738 0.11806 0.062981 0.039305 0.03799 0.0074092 0.10491 
-0.020541 0.042265 0.14157 0.062981 0.032564 0.038483 -0.022679 0.058542 
-0.25532 -0.057699 0.16377 0.050979 0.032564 0.023851 -0.030077 -0.026953 
-0.47284 -0.18528 0.13368 0.029441 0.0085601 0.0013258 -0.052602 -0.068057 
-0.25352 0.14535 0.079258 0.037661 0.010862 0.024344 1.0539e-005 -0.0026201 
0.24186 0.74596 0.061501 0.0088889 0.030756 0.028454 0.050814 0.082875 
0.41631 0.57086 -0.022021 0.026317 0.0069159 1.0539e-005 0.04095 0.082875 
0.28806 -0.27982 -0.22655 -0.00064712 0.011684 0.015301 0.040456 0.046046 
0.020398 -0.69793 -0.34493 0.0056006 0.00017495 0.0037921 0.078765 -0.008539 
-0.16901 -1.0585 -0.47284 -0.021199 0.020069 0.0067515 0.072681 0.0046141 
-0.17739 -1.5943 -0.46117 -0.021692 0.027796 0.0026412 0.070051 0.01563 
0.040785 -0.70384 -0.17871 0.026152 0.02681 0.020562 0.090931 0.012506 
0.25978 0.87617 0.21309 0.049664 0.035524 0.041278 0.090767 0.018754 
0.35794 1.6377 0.41088 0.061995 0.051472 0.039141 0.061172 0.009711 
0.29596 1.4643 0.44656 0.035195 0.033551 0.027632 0.042429 0.0013258 
0.12661 1.0506 0.44278 0.04095 0.03388 0.039799 0.01711 0.034373 
-0.019061 0.57151 0.30089 0.02533 0.026152 0.02122 0.031742 0.0069159 
-0.25467 0.009711 0.1419 0.039634 0.025988 0.023028 -0.015444 -0.0070593 
-0.3931 -0.30432 0.038648 0.019411 0.0023123 0.0021479 -0.031721 0.021549 
-0.33391 -0.61407 -0.068386 0.047197 0.014315 0.0059294 -0.047176 0.011848 
-0.15832 -0.65929 -0.088444 0.018589 0.015137 0.010862 -0.031721 0.049335 
0.050979 -0.28525 0.0036276 0.053938 0.03947 0.027796 -0.0026201 0.10721 
0.11066 0.027303 0.040292 0.030756 0.062159 0.015959 0.03536 0.11231 
0.15867 0.17034 0.06594 0.026317 0.062323 0.030592 0.084848 0.10063 
0.18481 0.18218 0.038483 0.036839 0.071531 0.035524 0.078272 0.083862 
0.23907 0.20454 -0.0059084 0.012835 0.052623 0.018096 0.076956 0.033551 
0.33443 0.21523 -0.0026201 0.018096 0.036839 0.049992 0.076134 0.027796 
0.19237 0.2782 0.0088889 0.0083956 0.012506 0.022864 0.039305 0.010697 
0.044402 0.35712 0.038319 0.029934 0.011026 0.01415 0.028454 -0.01939 
-0.034352 0.33985 0.055254 0.007738 0.020727 0.02533 0.030592 -0.015773 
-0.018239 0.1391 0.055911 0.025001 0.029605 0.019905 0.019411 -0.011663 
-0.02498 0.0087245 0.077285 0.0074092 0.020233 0.01004 -0.0016336 0.0056006 
-0.085649 -0.19318 0.052294 0.0082312 0.024508 0.0046141 -0.011992 0.0093821 
-0.17377 -0.57593 -0.036654 -0.051615 -0.014458 -0.015609 -0.090746 -0.023994 
-0.20304 -0.62197 -0.13349 -0.022185 -0.021363 -0.011005 -0.10571 -0.037805 
-0.13596 -0.29856 -0.094034 -0.027611 -0.0068948 -0.0021268 -0.05326 -0.013307 
-0.10834 -0.009361 -0.030899 0.0059294 0.0080668 0.0042853 0.029112 -0.008539 
-0.18528 -0.0057439 -0.012814 0.024344 0.025988 0.026646 0.054596 -0.0004827 
-0.096665 0.0689 0.0032988 0.044731 0.054925 0.050979 0.095371 0.025495 
0.35383 0.22904 0.034373 0.058377 0.034209 0.032564 0.080409 0.08304 
0.69614 0.36945 -0.011992 0.046704 0.063639 0.056076 0.07449 0.14453 
0.55721 0.27195 -0.11705 0.050814 0.0689 0.046211 0.086328 0.11378 
0.14963 0.060844 -0.054575 0.042429 0.035524 0.038977 0.052623 0.037661 
-0.17328 -0.0406 0.039963 0.061337 0.020398 0.04506 0.029605 0.01152 
-0.34082 0.011848 0.10491 0.047033 0.017767 0.032564 0.010862 -0.0052507 
-0.36055 -0.03501 0.15867 0.057555 0.031249 0.01563 0.0047785 -0.00064712 
-0.1935 -0.17821 0.13943 0.03388 0.02122 0.029441 -0.0039354 0.015137 
-0.066741 -0.16523 0.090274 0.064954 0.026646 0.011191 0.0046141 0.029934 
0.12184 0.091753 0.082053 0.04358 0.037168 0.020562 0.0037921 0.053938 
0.21178 0.3147 0.11181 0.057884 0.043909 0.031085 0.0072447 0.081395 
0.10211 0.24926 0.069229 0.027468 0.051801 0.026481 0.011848 0.047691 
0.011684 -0.10439 -0.020048 -0.001798 0.038812 0.033058 0.026646 -0.0072237 
0.053116 -0.45229 -0.14763 0.016781 0.036839 0.035195 0.010369 0.015465 
0.1054 -0.56935 -0.13892 0.026646 0.060186 0.037661 0.031907 0.032893 
0.15472 -0.20715 0.027632 0.060844 0.04917 0.045882 0.04506 0.04358 
0.12003 0.42962 0.16311 0.053116 0.037332 0.028947 0.035195 0.031578 
0.10096 0.74678 0.17528 0.036839 0.0056006 0.0060938 0.01711 0.00017495 
0.14946 0.60144 0.12743 0.030427 0.0062583 0.031249 0.024837 0.0041209 
0.098494 0.33969 0.092247 0.069886 0.024179 0.0324 0.028947 0.076792 
0.017767 0.18514 0.011684 0.051472 0.020727 0.0227 0.048513 0.058377 
-0.032872 -0.10225 -0.13415 0.025001 0.015301 0.04358 0.056569 0.011684 
-0.090417 -0.59073 -0.26256 0.00066819 0.022206 0.010204 0.019083 0.01826 
-0.078415 -0.90262 -0.18759 0.03799 0.030263 0.00083261 0.029441 0.022535 
0.029276 -0.41892 -0.00031829 0.010697 0.03536 0.023193 0.044073 0.035195 
0.1733 0.57168 0.15472 0.01152 0.044402 0.01711 0.016288 0.040292 
0.23594 1.0205 0.18596 0.03799 0.027961 0.018096 0.020069 0.032564 
0.16179 0.69663 0.16673 0.059693 0.034373 0.020233 0.026317 0.031249 
-0.02498 -0.04471 0.055911 0.048184 0.04506 0.023522 0.025988 0.027632 
-0.16407 -0.46857 -0.054575 0.024344 0.040128 0.037168 0.019083 0.0079024 
-0.20534 -0.42927 -0.050958 0.032893 0.00297 0.020069 0.043909 0.0032988 
-0.15618 -0.092226 0.01152 0.0036276 -0.0064016 0.011684 0.025988 -0.008539 
-0.082032 -0.073318 0.070544 0.014972 -0.0029489 0.012013 0.010697 -0.013143 
-0.00031829 -0.20567 0.035195 -0.019226 -0.020212 -0.0019624 0.036182 -0.012485 
0.02681 -0.048327 0.0067515 -0.006566 -0.027447 -0.028926 0.012342 -0.015938 
0.059364 0.4311 0.053116 -0.01676 -0.035503 -0.011827 0.016616 0.0095465 
0.093069 0.43817 0.020233 -0.0042642 -0.00064712 -0.00064712 0.012835 0.024015 
0.027303 -0.31172 -0.11886 0.009711 0.020562 0.028947 0.013164 0.010862 
-0.071016 -0.64811 -0.14106 0.020398 0.027796 0.029934 0.024179 0.022535 
-0.020048 -0.15289 1.0539e-005 0.0592 0.045389 0.03092 0.038648 0.063968 
0.10244 0.31388 0.10047 0.072353 0.056733 0.047362 0.040621 0.085999 
0.27738 0.50131 0.11954 0.072517 0.066434 0.027468 0.047362 0.081889 
0.28708 0.55409 0.097015 0.032236 0.057884 0.022371 0.06183 0.065118 
0.25798 0.5235 0.11559 0.079751 0.064461 0.036839 0.047855 0.0070803 
0.23578 0.39822 0.12447 0.044896 0.014643 0.0072447 0.022042 -0.00015387 
0.079422 0.050157 0.11724 0.037497 0.018589 0.020562 0.053281 0.044073 
-0.14418 -0.018239 0.19813 0.020069 0.022206 0.028619 0.043251 0.055254 
-0.26009 0.10984 0.24055 0.059693 0.016616 0.02533 0.011191 0.062159 
-0.22918 -0.18495 0.11362 0.024015 0.013328 0.019083 0.010369 0.066763 
-0.14648 -0.48797 -0.069865 0.014643 0.0046141 0.032729 -0.0026201 0.044896 
-0.059178 -0.3862 -0.10225 0.012999 0.0227 0.016781 0.0088889 0.037332 
-0.0026201 0.047855 -0.063124 0.0074092 0.0090533 0.020891 0.03536 0.005765 
0.077285 -0.059836 -0.072496 0.0011614 0.01563 0.0059294 0.034209 -0.02794 
0.077285 -0.99551 -0.22639 -0.027447 0.01267 0.0016547 0.023686 -0.019226 
0.005765 -1.3472 -0.30695 0.0014903 0.015301 0.025001 0.044402 -0.01528 
-0.035667 -0.75415 -0.20074 -0.030899 0.0047785 0.010369 0.01415 -0.013307 
0.010533 0.38671 0.012013 0.019247 0.023357 0.01152 -0.0026201 0.032236 
0.080573 1.2216 0.19895 0.010533 0.040128 0.015959 -0.021363 0.01415 
0.1225 1.5176 0.3318 0.070215 0.034373 0.0075736 -0.059672 0.00083261 
0.10672 1.0337 0.26061 0.058871 0.049335 0.010697 -0.01676 0.011684 
0.084026 0.26488 0.14058 0.089287 0.04095 0.048184 0.05213 0.073339 
0.042923 -0.18265 0.065612 0.065447 0.036675 0.016123 0.075476 0.098823 
0.066269 -0.15289 0.047362 0.095042 0.041936 0.040292 0.088136 0.097015 
0.053281 -0.074962 0.051801 0.056898 0.067585 0.050157 0.074161 0.056404 
0.046704 -0.29034 0.015137 0.072024 0.054103 0.033715 0.066434 0.061501 
0.05476 -0.56393 -0.056219 0.0421 0.045553 0.050814 0.055747 0.043251 
0.050979 -0.48501 -0.0059084 0.04095 0.037661 0.038977 0.049992 0.04506 
0.041607 -0.11228 0.12464 0.0324 0.030756 0.033387 0.052787 0.045224 
-0.0072237 0.046704 0.20783 0.018425 0.027632 0.037826 0.047855 0.025001 
-0.059178 0.07597 0.12908 -0.010841 0.017603 0.01267 0.064132 0.01152 
-0.043559 0.11888 -0.0016336 -0.015444 0.021878 -0.0083746 0.040456 0.063803 
0.069229 0.096686 -0.088115 -0.0029489 0.033387 0.035853 0.0019835 0.045224 
0.11296 0.3124 -0.12445 0.01563 0.037004 0.024673 0.009711 -0.0062372 
0.073339 0.73461 -0.047012 0.044238 0.0324 0.027303 -0.016431 -0.018239 
0.034373 0.93536 0.088465 0.013328 -0.004593 0.025988 -0.025145 -0.031392 
0.050321 0.57645 0.15801 0.057555 -0.02498 0.035524 0.022535 0.033387 
0.04917 -0.067399 0.078436 0.034866 -0.015938 0.024673 0.024673 0.068736 
-0.020212 -0.6703 -0.033859 0.046375 0.019083 0.020562 0.036182 0.053774 
-0.0771 -0.48353 -0.063618 0.022371 0.025495 0.012342 0.071037 0.052787 
-0.12166 -0.070359 -0.0054151 0.038977 0.035524 0.044731 0.057227 0.0786 
-0.071509 0.075641 0.029605 0.051801 0.042265 0.032236 0.054925 0.066763 
0.054596 0.11691 0.054103 0.05476 0.057884 0.028783 0.055254 0.065283 
0.16919 0.062652 0.090603 0.10228 0.08156 0.048841 0.054103 0.069229 
0.17758 0.010862 0.080244 0.050486 0.071859 0.037332 0.040621 0.060679 
0.15209 0.052787 0.091589 0.051143 0.045882 0.027303 0.071366 0.071366 
0.11526 0.29711 0.13138 0.01711 0.032236 0.033715 0.032236 0.070708 
0.11329 0.5776 0.16837 0.015465 0.010369 0.0064227 0.005765 -0.0138 
0.065612 0.1248 0.0044497 -0.024323 -0.0068948 -0.010841 -0.013143 -0.18528 
0.055747 -0.41744 -0.11672 -0.00031829 -0.021034 -0.0052507 -0.018733 -0.37272 
0.054596 0.035195 -0.069208 0.0036276 0.016288 0.015959 0.0079024 -0.26157 
0.015794 0.49654 -0.006566 0.023028 0.032729 0.0421 0.073997 0.025495 
-0.052273 0.4219 0.013492 0.013986 0.027303 0.031249 0.06594 0.18037 
-0.15783 0.20257 0.020891 -0.0032777 0.013986 0.020069 0.084026 0.19073 
-0.23165 -0.09239 0.0037921 0.026974 0.013164 0.039799 0.10096 0.16738 
-0.16046 -0.3982 -0.036325 0.027139 0.016616 0.035195 0.066763 0.11346 
0.021384 -0.21981 -0.019555 0.024344 0.037826 0.025988 0.025824 0.086821 
0.18415 0.056569 0.013164 0.01826 0.066927 0.044402 0.013492 0.060022 
0.15045 0.18498 0.0324 0.048019 0.052294 0.028619 -0.036325 0.034537 
0.055582 0.24433 0.048677 0.023851 0.058049 0.011848 -0.13168 0.030427 
0.075148 0.28527 0.0592 0.062159 0.057062 0.044073 -0.13464 0.031742 
0.096357 0.2565 0.045718 0.030592 0.033222 0.030427 -0.059507 -0.001798 
0.095699 0.16656 0.023522 0.058377 0.019083 0.027139 0.019576 -0.0083746 
0.12743 0.11198 0.068736 0.031742 0.018918 0.042923 0.11592 0.02829 
0.1248 0.20536 0.1516 0.036839 0.01267 0.044073 0.10458 0.010369 
0.021713 0.23742 0.20816 0.024508 0.024015 0.031085 0.067749 0.020891 
0.047362 0.081067 0.17791 -0.0068948 0.0088889 0.018589 0.06742 0.037004 
0.14453 -0.08828 0.13615 0.01267 0.016452 0.0037921 0.0021479 0.0031344 
0.013986 -0.084334 0.15193 0.0069159 0.022371 0.0092177 -0.036489 -0.035832 
-0.21899 0.00033937 0.17215 0.033387 0.030592 0.0036276 -0.0072237 -0.041586 
-0.12609 0.14913 0.1276 0.040128 0.034044 0.018589 -0.033365 -0.009361 
0.16837 0.078107 0.042265 0.070215 0.053116 0.033715 -0.037476 0.06331 
0.33476 0.19928 0.027468 0.057391 0.052623 0.02122 0.026646 0.075805 
0.23841 -0.016102 -0.062467 0.068736 0.058871 0.022535 0.051965 0.053445 
-0.0047575 -0.79065 -0.3058 -0.036325 0.025166 0.026974 0.06183 0.029276 
-0.17295 -1.1453 -0.45426 -0.052766 -0.032708 -0.021528 0.070708 -0.033859 
-0.45788 -0.71519 -0.32931 -0.063124 -0.052273 -0.0138 0.0039565 -0.049149 
-0.73903 0.023522 -0.10521 -0.0078813 -0.013307 0.00066819 -0.018075 -0.022514 
-0.4204 0.34051 0.024344 0.031578 0.0039565 0.005765 -0.010019 0.048348 
0.22394 0.47336 0.13483 0.058706 0.028783 0.041443 0.022864 0.097015 
0.69647 0.57727 0.2371 0.074161 0.098166 0.063474 0.014808 0.17199 
0.69548 0.61048 0.24005 0.082217 0.076627 0.043745 0.029441 0.15818 
0.33015 0.39082 0.20684 0.079587 0.051965 0.056076 0.01563 0.10211 
-0.01232 0.32243 0.18695 0.052459 0.039305 0.032893 0.014479 0.016452 
-0.1016 0.4168 0.19879 0.071859 0.066269 0.047691 0.08863 -0.043395 
-0.01117 0.36896 0.21654 0.05772 0.067585 0.044073 0.1197 0.018589 
0.019576 0.12644 0.15144 0.056076 0.044238 0.031578 0.1391 0.085341 
-0.035174 -0.48353 -0.010183 0.021384 0.022206 0.023357 0.17001 0.10244 
-0.091239 -0.90048 -0.15437 0.01711 0.0018191 0.013164 0.078765 0.08567 
-0.003771 -0.75563 -0.14089 -0.0077169 -0.0042642 -0.0024557 -0.052602 0.062981 
0.13006 -0.27357 -0.02942 0.031249 -0.006566 -0.017911 -0.12231 0.046046 
0.14239 -0.12412 -0.052437 0.0036276 -0.01528 -0.010512 -0.18463 0.044073 
-0.10045 -0.52792 -0.18759 -0.020706 -0.032872 -0.025145 -0.10308 0.012013 
-0.23543 -0.23329 -0.18117 -0.011827 -0.013307 0.013986 0.077121 0.052952 
-0.14533 0.14141 -0.089759 0.024179 0.0070803 0.015794 0.14486 0.057555 
0.0227 0.30483 0.032564 0.060515 0.041114 0.017274 0.14026 0.014972 
0.1756 0.66835 0.15571 0.054432 0.043087 0.053938 0.11296 0.046211 
0.26242 0.76306 0.18317 0.0421 0.044238 0.034537 0.060679 0.04917 
0.31536 0.47993 0.10935 0.0036276 0.041114 0.01152 0.014972 -0.026789 
0.16853 0.10145 -0.012485 0.089452 0.046704 0.036839 -0.042901 -0.12379 
-0.038956 -0.30629 -0.10423 -0.012814 0.023522 -0.00064712 -0.046354 -0.19761 
-0.15898 -0.62789 -0.20452 1.0539e-005 0.051801 -0.0054151 -0.025474 -0.20551 
-0.21866 -0.77882 -0.19975 -0.02794 0.012999 0.018096 0.023028 -0.093376 
-0.35611 -0.66406 -0.073482 0.026974 0.012835 0.020233 0.027796 0.041772 
-0.41809 -0.10883 0.06742 0.0421 0.012506 0.049828 0.015137 0.071366 
-0.14698 0.69893 0.24499 0.06183 0.030263 0.039963 0.085999 0.12546 
0.42403 1.1609 0.36337 0.085012 0.036839 0.037661 0.12085 0.13631 
0.60768 0.86713 0.25288 0.075476 0.053116 0.04358 0.12036 0.13993 
0.31371 0.54652 0.10129 0.037826 0.048348 0.044402 0.11526 0.059364 
-0.02794 0.59256 -0.027775 0.026317 0.027796 0.018918 0.093562 0.00050378 
-0.16144 0.61837 -0.085485 0.040128 0.027796 0.039634 0.055911 0.010862 
-0.10784 0.40003 -0.10801 0.012506 0.025495 0.02829 0.044073 0.041936 
0.004943 -0.87977 -0.17542 0.0026412 0.0080668 -0.0095255 0.0031344 0.038648 
0.094877 -2.3564 -0.27144 -0.011663 0.01974 0.017274 0.0011614 0.037004 
0.12135 -2.6097 -0.19202 0.023522 0.02829 0.011191 0.0021479 -0.0013048 
-0.039449 -1.2773 0.004943 0.02681 0.043745 0.0039565 -0.037969 -0.064768 
-0.037147 0.19994 0.14617 0.094548 0.072024 0.0324 -0.074633 -0.042244 
0.20273 0.81666 0.22378 0.062817 0.053774 0.034209 -0.042573 0.034537 
0.35827 0.85792 0.20914 0.048348 0.055911 0.017274 0.0046141 0.090931 
0.27557 0.84789 0.1756 0.028125 0.024673 0.043251 0.016123 0.064461 
0.035031 0.58089 0.13828 -0.0064016 0.013821 0.024508 0.025824 -0.0034422 
-0.29626 0.34725 0.086328 0.0047785 0.004943 0.01415 0.026974 -0.069536 
-0.44835 0.37997 0.026974 -0.031228 -0.019061 -0.00097594 0.0054362 -0.091404 
-0.30152 0.49358 0.023851 0.0041209 -0.00031829 -0.0029489 0.016288 -0.073154 
-0.0027845 0.52252 0.086657 0.0072447 0.024673 0.026317 0.034373 -0.015116 
0.18547 0.49555 0.11625 0.056733 0.0421 0.021056 0.030263 0.030263 
0.26209 0.44623 0.11559 0.052623 0.065283 0.031742 0.06331 0.058871 
0.21408 0.20306 0.066105 0.054103 0.053609 0.039634 0.070051 0.075476 
0.14157 -0.065591 0.012999 0.034373 0.060844 0.020727 0.075476 0.071859 
0.11198 -0.22047 -0.023336 0.049006 0.044896 0.0024767 0.083697 0.04654 
0.12168 -0.27259 -0.0091966 0.031249 0.031907 0.033387 0.079422 0.036182 
0.17478 -0.23658 0.026152 0.043416 0.027139 0.026974 0.067256 0.03947 
0.19418 -0.07973 0.063803 0.029605 0.024673 0.038648 0.038648 0.05476 
0.1174 -0.099295 0.093562 0.025495 0.023193 0.037497 0.010204 0.11576 
-0.061809 -0.21636 0.069393 0.023193 0.023028 0.017603 -0.016266 0.14075 
-0.16144 -0.20419 0.034044 0.015794 0.030427 0.037826 0.021878 0.11839 
-0.21998 -0.067728 0.056404 0.037826 0.039963 0.032729 0.018589 0.059693 
-0.22672 0.12003 0.10787 0.023193 0.029605 0.0087245 0.02122 0.023357 
-0.12166 0.14897 0.14848 0.045389 0.020398 0.03651 0.031907 0.013164 
0.039799 0.11642 0.13894 0.00099702 0.049499 0.024179 0.029112 0.040621 
0.15012 0.089616 0.10113 0.044896 0.038977 0.027632 0.031578 0.067749 
0.13828 0.032071 0.0079024 0.037004 0.053116 0.038319 0.040128 0.055747 
0.16278 0.0064227 -0.038133 0.054267 0.050157 0.016945 0.043087 0.049006 
0.10622 0.079751 -0.063946 0.016781 0.047855 0.037004 0.00066819 0.049992 
0.0079024 0.18251 -0.021199 0.033551 0.040621 0.035688 -0.047176 0.0227 
-0.080717 0.36501 0.058542 0.016123 0.017274 0.023357 -0.016924 0.020069 
0.03536 0.56231 0.15094 0.02533 0.025166 0.052459 0.052459 0.056898 
0.1687 0.52646 0.18333 0.038319 0.018918 0.036839 0.088958 0.055747 
0.171 0.4436 0.17971 0.028619 0.010862 0.0036276 0.083533 0.046046 
0.073339 0.31404 0.12792 0.027961 -0.011005 0.027632 0.071037 0.020727 
-0.025638 0.068571 0.073504 0.013986 0.0074092 0.018918 0.045718 0.017603 
-0.044052 -0.1741 -0.017253 0.020233 0.012999 -0.0036066 0.011848 0.025001 
-0.034352 -0.37255 -0.074798 -0.010841 0.011355 0.01563 -0.020706 0.034044 
-0.096829 -0.43125 -0.089924 0.0083956 0.0041209 -0.0016336 -0.0052507 0.075476 
-0.13086 -0.32208 -0.072825 0.015794 0.0088889 0.016781 0.0046141 0.078929 
-0.060987 -0.1376 -0.058028 0.057062 0.040128 0.036017 0.017767 0.049335 
0.068078 0.073504 0.013164 0.051801 0.067749 0.044073 0.0034632 0.029934 
0.12694 0.16048 0.01267 0.078272 0.064954 0.025659 0.042594 0.019576 
0.13746 0.11115 0.0082312 0.069722 0.059364 0.05772 0.031742 -0.028104 
0.086821 0.19122 0.046704 0.058377 0.034373 0.02681 0.027796 0.0065871 
0.044238 0.46744 0.10113 0.061501 0.044567 0.047197 0.045882 0.03388 
0.087314 0.76503 0.15456 0.05624 0.042265 0.041772 0.0051074 0.038648 
0.10869 0.9278 0.18448 0.065283 0.046375 0.035688 -0.0013048 0.041772 
0.073668 0.72935 0.095535 0.029934 0.029934 0.031085 0.016781 0.029276 
0.042265 -0.079072 -0.015116 0.0067515 0.0064227 0.011355 -0.011498 -0.0016336 
0.13483 -0.57133 -0.029584 -0.0054151 0.00066819 0.0041209 -0.023172 -0.033201 
0.23331 -0.45459 0.051801 0.027632 0.0090533 0.024015 0.0075736 -0.039778 
0.16114 -0.22014 0.095699 0.016945 0.020069 0.0042853 -0.019719 0.014808 
-0.022021 -0.06444 0.082053 0.034373 0.010369 0.00099702 0.0018191 0.030427 
-0.19811 0.033551 0.070051 0.00050378 0.041114 0.0072447 -0.016102 0.012506 
-0.27785 0.058542 0.066269 0.03092 0.048513 0.0087245 -0.015116 -0.010019 
-0.22474 0.02122 0.068736 0.036346 0.05065 0.019411 0.016945 0.015301 
-0.20682 -0.31451 -0.094856 -0.0098543 0.0093821 0.0092177 0.017932 -0.018733 
-0.24973 -1.2334 -0.38801 -0.05441 -0.047669 -0.023665 0.0028056 -0.050629 
-0.21702 -1.0782 -0.46758 -0.060823 -0.052766 -0.012978 -0.0040998 -0.037969 
0.033551 -0.057863 -0.17673 -0.015116 -0.032215 0.010204 0.05065 0.0019835 
0.20487 0.86631 0.1151 0.016452 0.01267 0.018918 0.043087 0.06742 
0.24959 0.9814 0.14502 0.048348 0.028783 0.030098 0.046046 0.081889 
0.18136 0.46547 -0.043888 0.018754 0.014808 0.012506 0.049828 0.01711 
0.12135 0.28231 -0.091404 0.077121 0.0095465 0.037497 0.027632 0.0042853 
0.12694 0.73478 0.0036276 0.063145 0.049664 0.027303 0.02533 0.011684 
0.18563 0.90922 0.094877 0.077943 0.049335 0.026974 0.054925 0.0036276 
0.14782 -0.11722 0.038648 0.038155 0.053938 0.032564 0.031085 0.021878 
0.039799 -1.2576 -0.019719 0.029934 0.080409 0.025001 0.010862 0.0060938 
-0.012156 -1.2633 0.033551 0.03799 0.063145 0.014479 0.034537 0.024344 
-0.0014692 -0.70204 0.10408 0.03651 0.056898 0.023357 0.013821 0.040456 
-0.0011404 -0.33852 0.11937 0.052294 0.047362 0.039141 0.015465 0.025824 
-0.0047575 -0.24595 0.073339 0.038812 0.041443 0.031742 0.037497 0.014315 
-0.00031829 -0.74117 -0.042408 0.028619 -0.0073881 0.0047785 0.0042853 -0.0059084 
-0.090746 -0.98713 -0.16818 -0.0029489 -0.0014692 0.0046141 0.0075736 -0.030899 
-0.19087 -0.11722 -0.17986 -0.014458 -0.021363 -0.00081153 0.036675 -0.042079 
-0.2596 0.81419 -0.09798 -0.056877 -0.047341 -0.0011404 0.0088889 -0.0070593 
-0.12577 1.4056 0.030756 -0.021034 -0.01939 -0.0082102 0.024673 0.004943 
0.057555 1.3865 0.12168 0.015794 0.0036276 0.00297 0.03799 0.050979 
0.18235 0.95805 0.11428 0.069722 0.042429 0.040292 0.041114 0.074819 
0.16179 0.29892 0.058049 0.044073 0.034044 0.021878 0.049828 0.069064 
0.17445 -0.24973 -0.023994 0.048348 0.042429 -0.0036066 0.066763 0.052952 
0.089616 -0.54124 -0.041586 -0.00015387 0.033715 0.032564 0.044567 0.059693 
0.019083 -0.57692 -0.025474 -0.00097594 0.036346 0.015794 0.033551 0.025988 
-0.082525 -0.52003 -0.041257 -0.017088 0.004943 0.0039565 0.038155 -0.0406 
-0.10752 -0.95984 -0.078579 -0.028762 0.0060938 0.013986 0.033222 -0.048656 
0.02829 -0.95079 -0.04882 0.016123 0.016616 0.0064227 0.015959 0.019083 
0.21885 -0.13843 0.060186 0.054925 0.017932 0.030098 0.046868 0.11165 
0.33657 0.59272 0.171 0.077614 0.045224 0.038319 0.053609 0.12381 
0.24466 0.78558 0.19714 0.06183 0.0689 0.041278 0.0421 0.094713 
0.09685 0.65701 0.14091 0.074983 0.046375 0.057884 0.06479 0.086821 
-0.0011404 0.35087 0.098659 0.040785 0.056076 0.039141 0.054925 0.064461 
-0.021528 0.17741 0.075476 0.08008 0.060844 0.019247 0.040621 0.024015 
0.0023123 0.17758 0.053116 0.045718 0.052787 0.047362 0.065776 0.035031 
0.014643 0.11937 0.036346 0.08978 0.053445 0.024344 0.032893 0.042758 
0.0095465 0.033715 0.028454 0.034702 0.043251 0.017603 0.037661 0.049499 
0.024508 0.042594 0.030427 0.032071 0.04358 0.037332 0.057391 0.058049 
0.054432 0.065612 0.084026 0.022535 0.049992 0.020398 0.044567 0.045718 
0.098823 0.1345 0.11921 0.037168 0.03947 0.022371 0.019905 0.060844 
0.1516 0.089287 0.11395 0.033387 0.0324 0.028619 0.049664 0.079094 
0.18991 0.01152 0.11954 0.017603 0.040128 0.0087245 0.01004 0.06035 
0.21983 0.068242 0.097179 0.055089 0.037661 0.036182 0.031249 0.058706 
0.19221 -0.021856 0.010697 0.03947 0.037332 0.031578 0.062817 0.05476 
0.0016547 -0.10472 -0.034516 0.054267 0.038483 0.021713 0.0056006 0.023357 
-0.19318 0.0085601 0.052294 0.020562 0.047526 0.023357 -0.0082102 -0.017911 
-0.26059 0.29086 0.23183 0.053445 0.04506 0.025988 0.0047785 0.0039565 
-0.069701 0.62298 0.28445 0.040292 0.025659 -0.0067304 -0.043888 0.055254 
0.18415 0.77046 0.21868 0.052623 0.050321 0.03651 -0.11738 0.060515 
0.21737 0.83507 0.11822 0.013328 0.068571 0.024837 -0.084663 0.0070803 
0.10918 0.47582 -0.03501 0.011191 0.037826 0.0039565 -0.039778 0.0046141 
-0.0034422 0.092411 -0.074633 -0.0138 0.01974 0.0067515 0.041278 -0.025474 
0.0098754 0.18366 0.012177 -0.01676 0.0090533 0.0031344 0.12628 -0.021199 
0.042429 0.22887 0.097015 0.027632 0.043251 0.035524 0.13302 0.015465 
0.11872 0.37718 0.1909 0.033551 0.033715 0.024837 0.10606 0.052459 
0.159 0.50213 0.21309 0.072681 0.04917 0.027468 0.11263 0.046704 
0.10507 0.31947 0.078765 0.046046 0.062323 0.03092 0.076627 0.034702 
-0.01939 -0.23247 -0.087458 0.043087 0.033058 0.019247 0.028125 0.0324 
-0.14467 -0.57133 -0.17673 0.027303 0.021878 0.035853 0.034044 0.0028056 
-0.14007 -0.94537 -0.23033 0.039634 0.02533 0.039305 -0.00081153 0.018754 
-0.041093 -1.2198 -0.19696 0.0065871 0.031249 0.042594 -0.0021268 0.056733 
0.033387 -1.3755 -0.15964 0.025659 0.042429 0.015465 0.019083 0.040621 
0.036839 -0.9161 -0.047834 0.011684 0.038155 0.032071 0.0046141 0.051143 
0.025659 0.24877 0.11428 0.045553 0.034702 0.02829 -0.006566 0.03799 
0.074819 1.0597 0.21523 0.040621 0.051636 0.015794 0.017438 -0.0032777 
0.12595 1.1767 0.2006 0.022535 0.030098 0.024015 0.0037921 0.023522 
0.16508 0.93865 0.1368 0.034373 0.018754 0.031414 0.01004 0.018918 
0.089287 0.56264 0.081889 0.02829 0.037826 0.02829 0.02122 0.016616 
-0.012485 0.14239 0.037497 0.032564 0.042758 0.03799 0.0062583 0.025824 
-0.10834 -0.12281 0.0085601 0.024508 0.015301 0.016616 0.0075736 -0.019061 
-0.19104 -0.29034 -0.0095255 0.021549 0.026481 0.025495 0.023851 -0.036983 
-0.063124 -0.42681 -0.0088678 0.020398 0.018918 0.025166 0.023851 0.017274 
0.050157 -0.50375 0.0087245 0.06742 0.028783 0.023357 0.03651 0.068571 
0.061008 -0.20995 0.012342 0.049664 0.037168 0.050321 0.062159 0.086492 
-0.043395 0.10704 0.0011614 0.058706 0.028619 0.030098 0.053609 0.061008 
-0.1381 0.38507 0.0052718 -0.0072237 0.018589 0.047197 0.028125 -0.00081153 
-0.086636 0.59453 0.010533 0.0042853 0.0011614 0.018754 0.048184 0.018918 
-0.012978 0.21309 0.030756 -0.009361 0.00050378 0.00297 0.031742 0.023851 
-0.011498 -0.49685 -0.023994 -0.022679 0.0062583 0.0070803 0.023028 -0.017582 
-0.046354 -0.77208 -0.070194 -0.021856 0.01267 0.015137 0.065283 -0.032872 
-0.092226 -0.65896 -0.049314 -0.0019624 0.0093821 -0.0064016 0.043251 -0.049149 
-0.17394 -0.50457 0.025988 0.023193 0.0070803 1.0539e-005 0.018096 -0.078744 
0.13499 -0.12001 0.11346 -0.0062372 0.0082312 0.0041209 0.040292 -0.015938 
0.67 0.27442 0.10967 0.02681 0.014972 0.0031344 0.038155 0.075148 
0.61541 0.37487 0.04654 0.037497 0.046868 0.040785 0.037168 0.065776 
0.11329 0.36205 0.041278 0.047526 0.06035 0.071859 0.059528 0.018096 
-0.18611 0.15423 0.012342 0.046046 0.023028 0.047855 0.052952 0.019083 
-0.22293 0.039963 -0.033859 0.045389 0.02533 0.072188 0.052952 0.045553 
-0.25911 0.071202 -0.039942 0.02533 0.014643 0.032236 0.054103 0.058871 
-0.2744 0.10918 -0.08384 0.038977 0.034537 0.041114 0.055582 0.071366 
-0.23921 -0.042408 -0.060987 0.02829 0.0036276 0.03092 0.031578 0.047362 
-0.1381 -0.3127 0.0024767 0.0085601 0.017932 0.01415 0.047526 0.03388 
-0.037805 -0.50326 0.067913 0.026152 0.023193 0.004943 0.035853 -0.025145 
0.098166 -0.32191 0.10754 0.031907 0.035031 0.025824 -0.024652 -0.01676 
0.15094 0.13203 0.11937 0.040456 0.027468 0.01711 -0.064933 -0.004593 
0.17363 0.52877 0.092411 0.032729 0.031578 0.028619 -0.045039 0.027961 
0.15127 0.62051 0.0098754 0.052294 0.032893 0.056404 0.0075736 0.023357 
0.13845 0.38753 -0.051615 0.025988 0.031578 0.010862 0.076134 0.066598 
0.093069 -0.13481 -0.16062 0.024344 0.0013258 0.028947 0.10113 0.023357 
0.0080668 -0.44703 -0.13366 -0.029913 -0.024816 0.0018191 0.080738 0.013492 
-0.030899 -0.22639 -0.065097 -0.011663 -0.0052507 0.018918 0.059693 0.042594 
0.037168 0.29119 0.056404 -0.019226 -0.008539 0.021549 0.080573 0.034373 
0.12661 0.30007 0.16097 0.0689 0.030592 0.0018191 0.086657 0.090274 
0.16788 0.23726 0.19139 0.074819 0.044731 0.035524 0.070215 0.081889 
0.14174 0.56823 0.21687 0.083368 0.054596 0.050979 0.04095 0.055911 
0.092576 0.76355 0.20076 0.043251 0.024508 0.032564 0.0036276 0.044238 
-0.0096899 0.3849 0.092576 -0.024323 0.013492 0.018096 -0.015938 0.0031344 
-0.10867 -0.14336 -0.034352 -0.028269 0.010697 0.014643 -0.0064016 -0.04323 
-0.14089 -0.21652 -0.083347 0.0018191 0.00099702 -0.015609 -0.024816 -0.036983 
-0.083347 -0.04882 -0.077428 0.010862 0.01711 0.0032988 -0.017253 -0.027447 
0.013821 0.22624 -0.041586 0.010369 0.01563 0.0047785 -0.018075 -0.0029489 
0.086163 0.50246 0.01563 0.05213 0.020069 0.0047785 -0.014293 0.027468 
0.090274 0.2006 0.0095465 0.026974 0.029934 0.01974 0.012835 0.041772 
-0.0060728 -0.83505 -0.082361 0.036675 0.027632 0.020233 0.032071 0.03092 
-0.063946 -0.75794 -0.060987 0.025166 0.048348 0.014643 0.021713 0.03947 
-0.061973 0.081067 0.043416 0.059693 0.051308 0.049828 0.031414 0.024179 
-0.025638 0.082711 0.057062 0.03799 0.048348 0.03536 0.030427 0.020069 
0.052787 0.078929 0.055911 0.055911 0.038977 0.0051074 0.02829 0.051472 
0.21326 0.32769 0.096028 0.024179 0.020562 0.030756 0.038648 0.10902 
0.27639 0.034702 0.070708 0.023357 0.024344 0.0044497 0.048677 0.11378 
0.14601 -0.35299 0.068407 0.031742 0.022535 0.0062583 0.025988 0.087479 
0.024344 -0.1256 0.095535 0.04506 0.054103 0.024015 0.026152 0.042265 
