0.077614 0.091753 0.11559 0.080244 0.054596 0.039634 0.11329 0.10622 
0.0083956 0.082053 0.091753 0.023193 0.015794 0.053609 0.1174 0.07301 
-0.052109 0.065612 0.074326 0.030592 0.0042853 0.019083 0.10606 0.047362 
-0.036654 0.044896 0.049828 0.0036276 -0.006566 0.026974 0.08304 0.034209 
0.10935 0.02533 0.052952 1.0539e-005 -0.00031829 0.018754 0.047033 -0.025309 
0.042594 0.026974 0.02122 0.015465 0.02533 -0.0027845 -0.00064712 -0.073482 
-0.091404 -0.009361 -0.035667 -0.0040998 0.030427 0.0060938 0.0075736 -0.074304 
0.19205 0.032893 -0.044052 0.0227 0.03092 0.013821 0.0087245 0.032564 
0.59059 0.056733 -0.018897 0.018425 0.030592 0.016616 0.021878 0.13154 
0.54685 0.022371 0.0034632 0.053445 0.034702 0.032236 0.037004 0.11083 
0.14733 0.034209 0.019576 0.037004 0.026152 0.03388 0.0067515 0.02533 
-0.23921 0.077449 0.020891 0.059857 0.012177 0.020891 0.024344 -0.008539 
-0.36154 0.069558 0.058542 0.038319 0.037168 0.050321 0.029605 0.0019835 
-0.21817 0.075641 0.084848 0.059528 0.042594 0.021384 0.010369 0.014479 
0.0067515 0.093726 0.054432 0.033551 0.0021479 0.0087245 -0.0082102 0.037497 
0.11773 0.048019 0.023686 0.018425 -0.0064016 0.016288 0.01152 0.035853 
0.091425 0.045553 0.00297 -0.0014692 -0.010183 -0.0019624 -0.010348 0.031578 
0.040785 0.092904 0.0018191 0.016288 0.0075736 0.0083956 -0.0050863 0.048513 
-0.037805 0.10343 0.022535 0.026317 0.021384 0.021878 0.029112 0.053774 
-0.13629 0.15242 0.050486 0.051308 0.056569 0.020398 0.026646 0.054925 
-0.19959 0.091425 0.061501 0.077614 0.10293 0.049499 0.029769 0.045718 
-0.17328 -0.061316 0.031249 0.053445 0.10162 0.056076 0.056569 0.034044 
0.16114 -0.068057 0.0087245 0.052623 0.069558 0.034702 0.041607 0.058542 
0.43669 -0.068879 -0.029091 -0.0044286 0.01826 0.04095 0.018918 0.013986 
0.43308 -0.10472 -0.041586 0.0031344 -0.033201 0.0028056 0.011026 -0.047834 
0.22756 -0.033201 0.0047785 -0.014787 -0.032708 -0.010019 0.0013258 -0.0072237 
0.0051074 0.013657 0.058213 0.025988 -0.009361 0.020233 0.016616 0.0062583 
-0.097322 0.082875 0.091425 0.031249 0.0093821 0.015794 0.039963 0.051965 
-0.11393 0.13976 0.08863 0.051801 0.014972 0.015301 0.044073 0.082875 
0.00033937 0.098166 0.082875 0.044896 0.021549 0.039305 0.029605 0.075476 
0.043745 0.063968 0.10113 0.03651 0.010533 0.019247 0.047526 0.030263 
0.11083 0.052459 0.074326 0.016288 -0.0021268 0.013492 0.0074092 0.0082312 
0.081395 -0.06296 0.03388 0.012835 0.005765 0.019083 -0.0042642 0.025824 
-0.047176 -0.080881 -0.0019624 -0.0044286 0.0079024 0.0042853 0.021713 -0.02087 
-0.057205 0.023522 0.017274 0.014315 0.05213 0.027632 0.02122 -0.025145 
-0.038462 0.080902 0.020891 0.053116 0.07038 0.029934 0.027468 -0.008539 
-0.10045 0.12135 0.033715 0.066927 0.09833 0.030427 0.041114 0.026646 
-0.098144 0.11296 0.045224 0.086657 0.056076 0.060022 0.041936 0.034702 
0.082053 0.14437 0.058049 0.047691 0.032071 0.043909 0.056569 0.058542 
0.20717 0.13894 0.074819 0.066269 0.03799 0.041114 0.078272 0.070215 
0.32637 0.061995 0.069722 0.05065 0.046046 0.052623 0.054596 0.052623 
0.18859 -0.013307 0.028454 0.034209 -0.0019624 0.017603 0.027139 0.013492 
-0.18348 -0.053753 0.0065871 -0.019226 -0.011498 0.0054362 0.023193 -0.017088 
-0.34805 -0.081045 -0.032215 -0.01676 -0.014129 -0.018897 0.018589 -0.0078813 
-0.18857 -0.035996 -0.020377 0.011026 0.036839 0.0046141 0.012835 -0.0044286 
-0.011992 0.056569 -0.0087034 0.050486 0.03536 0.037332 0.028454 0.023357 
0.028125 0.1373 0.027632 0.034044 0.0093821 0.017438 0.016945 0.034537 
-0.0040998 0.21062 0.064461 0.024673 -0.01117 0.010204 0.011191 -0.012649 
0.033551 0.18333 0.079751 0.031907 0.0047785 0.013657 0.019905 0.0093821 
0.14733 0.097508 0.078272 0.02681 0.015301 0.01152 0.00099702 0.022206 
0.12546 0.026974 0.031249 0.032729 0.026646 0.0069159 -0.0087034 0.0095465 
0.037497 -0.086964 -0.041422 -0.010512 0.0019835 0.018096 0.028125 -0.0032777 
0.031414 -0.016431 -0.061316 0.014643 0.031578 -0.0034422 0.0095465 0.014315 
0.014972 0.079751 0.0067515 0.03536 0.076956 0.033387 0.017274 0.011026 
-0.011827 0.095042 0.06035 0.092904 0.09981 0.06035 0.051965 0.06183 
-0.055726 0.13713 0.091425 0.062981 0.075476 0.051308 0.045718 0.068571 
-0.05441 0.11609 0.051308 0.037826 0.025166 0.02829 0.023686 0.042429 
-0.025638 0.019576 0.022206 0.02122 0.023028 0.019083 0.033058 0.041114 
0.010697 -0.041586 0.025659 0.027632 0.041443 0.014643 0.022864 0.035195 
0.10047 -0.0050863 0.045882 0.028454 0.037004 0.032236 0.01974 0.042594 
0.10737 -0.0034422 0.0689 0.042429 0.025659 0.023686 0.054925 0.06331 
0.0019835 0.052294 0.087808 0.091589 -0.0082102 0.013657 0.044567 0.062488 
-0.079566 0.058213 0.046375 0.0044497 0.0011614 0.0013258 0.034537 0.043087 
-0.085649 0.054596 0.027796 0.03799 0.012342 0.0070803 0.044896 -0.0059084 
0.018918 0.11905 0.021549 0.0026412 0.027468 0.0072447 -0.011334 -0.047341 
0.11806 0.11526 0.04654 0.042429 0.040292 0.025824 0.0087245 -0.035338 
0.12628 0.073997 0.042758 0.024344 0.030263 0.012835 0.0085601 -0.01939 
0.072188 0.092904 0.049664 0.060515 0.035524 0.012506 0.023028 -0.027611 
-0.029748 0.040292 0.033222 0.0072447 0.014315 0.041443 0.0079024 -0.014951 
-0.0039354 0.043251 0.028783 0.039305 0.026317 0.027632 0.036346 0.018918 
0.033387 0.067585 0.025824 0.037497 0.027961 0.028783 0.034209 0.055747 
0.059857 0.022371 -0.0026201 0.0070803 0.01415 0.019411 0.0059294 0.071695 
0.077943 0.022371 -0.014293 0.018754 -0.0050863 -0.014293 0.03947 0.091425 
0.016123 0.08567 0.0060938 0.021384 0.018425 0.020891 0.0069159 0.074983 
-0.05441 0.10869 0.029112 0.044402 0.042265 0.029112 0.028947 0.062159 
-0.011334 0.094384 0.029605 0.033715 0.034537 0.019576 0.035524 0.061337 
0.078272 0.060022 0.0082312 0.034702 0.026646 0.036017 0.016945 0.012342 
0.11921 -0.0098543 0.0062583 0.016288 0.020891 0.017932 0.020233 0.034373 
0.0032988 -0.089759 0.015301 0.013821 0.039141 0.011684 0.03651 0.039963 
-0.063782 -0.080059 0.029276 0.0056006 0.022206 0.033387 0.032071 0.062817 
-0.011334 0.011848 0.05213 0.039799 0.0060938 0.01563 0.018754 0.067749 
0.021549 0.076299 0.053116 0.017767 0.0064227 0.013328 0.033058 0.015794 
0.12957 -0.00081153 0.0069159 0.054267 0.0026412 0.033058 0.025824 -0.026131 
0.31651 -0.063782 -0.035503 0.04506 0.052952 0.032564 0.027961 -0.018733 
0.42831 -0.050136 -0.065262 0.048513 0.087808 0.037168 0.055582 -0.0080457 
0.35334 -0.0068948 -0.037805 0.037004 0.082711 0.055582 0.039305 0.014479 
0.1465 0.12217 0.039634 0.042923 0.032729 0.019576 0.031414 0.050321 
-0.0072237 0.19122 0.076299 0.038648 -0.0080457 0.012835 0.047855 0.084519 
-0.090581 0.13138 0.038648 0.022206 0.007738 0.019247 0.027303 0.10129 
-0.37979 0.048841 0.020727 0.037332 0.01267 0.0060938 0.023193 0.072188 
-0.54551 -0.010512 0.051143 0.011191 0.0088889 0.029441 0.035524 0.031414 
-0.24891 -0.038956 0.06331 0.048677 0.018918 0.023357 0.030592 0.059528 
0.13549 0.012177 0.069229 0.00066819 0.0047785 0.012835 0.012999 0.06479 
0.14469 0.00066819 0.071695 0.016945 0.0013258 0.037661 0.034702 -0.010512 
-0.012156 -0.034023 0.053281 -0.0083746 0.0075736 0.019083 0.024179 1.0539e-005 
0.040128 0.039799 0.030263 0.0074092 0.024508 0.017438 0.044731 0.052294 
0.2662 0.079916 0.044073 0.0324 0.049335 0.04917 0.0689 0.10491 
0.30319 0.095206 0.058377 0.069722 0.047362 0.047526 0.055089 0.11099 
0.17462 0.04358 0.031742 0.041278 0.047691 0.0227 0.038648 0.046704 
0.088794 0.01415 -0.00015387 0.021878 0.014315 0.027139 0.041114 -0.0073881 
0.11132 -0.01117 0.019905 0.023851 0.0088889 0.01563 0.021056 -0.0072237 
0.071037 -0.010019 0.0059294 -0.024158 0.0069159 0.0088889 0.021384 -0.016431 
-0.016431 -0.076935 -0.037311 0.024837 0.028783 0.022371 0.044567 -0.043724 
-0.074962 -0.0055795 -0.0064016 0.021713 0.065283 0.031249 0.039963 -0.027118 
-0.0029489 0.093069 0.057062 0.051143 0.05213 0.025824 0.060679 -0.0077169 
0.11115 0.14749 0.089123 0.02681 0.05476 0.021056 0.041772 0.045224 
0.14996 0.16146 0.076299 0.047855 0.022864 0.022864 -0.0029489 0.0592 
-0.031392 0.047526 -0.011005 -0.0095255 -0.0068948 0.0090533 -0.0083746 0.013328 
-0.24464 -0.021363 -0.05885 0.0011614 0.0014903 -0.033694 0.021713 0.048513 
-0.23083 0.040128 -0.032543 0.014315 0.026152 0.0079024 0.022042 0.1391 
-0.042408 0.051143 0.038155 0.071531 0.038319 0.042758 0.030592 0.16886 
0.049006 0.0093821 0.053938 0.057227 0.037661 0.037004 0.060679 0.1322 
0.012835 -0.037311 0.030756 0.027632 0.014643 0.016123 0.038319 0.063474 
0.014972 -0.028104 0.025495 0.013328 0.012999 0.028454 0.016616 -0.004593 
0.020398 0.08419 0.057884 0.025001 0.022042 0.037661 0.038812 -0.049478 
0.062488 0.15768 0.067585 0.042429 0.042594 0.037661 0.024508 -0.059507 
0.09422 0.11576 0.07597 0.038977 0.029112 0.051308 0.02681 -0.07414 
0.19517 0.10458 0.058377 0.051472 0.024837 0.01974 0.04358 -0.084169 
0.32423 0.13039 0.053445 0.046868 0.020891 0.020562 0.029934 -0.050793 
0.28806 0.15226 0.064954 0.069886 0.02122 0.02829 0.028783 -0.1011 
0.15292 0.13417 0.067585 0.047855 0.04654 0.037826 0.033058 -0.14056 
-0.029913 0.031578 0.046704 0.055254 0.02533 0.032071 0.014315 -0.12494 
-0.23313 -0.03764 0.039799 -0.011498 0.0024767 0.0079024 0.0046141 -0.046847 
-0.40806 -0.0096899 0.058377 -0.009361 -0.020541 -0.0095255 0.013328 0.057062 
-0.52381 -0.021034 0.072024 -0.0077169 -0.023994 0.005765 0.0016547 0.1105 
-0.29281 -0.0062372 0.075312 0.016452 -0.01528 0.0024767 0.0023123 0.12743 
0.20191 0.084355 0.084026 0.040128 0.021056 -0.0019624 0.037497 0.12628 
0.43554 0.043416 0.047526 0.033058 0.054596 0.01711 0.0023123 0.079916 
0.3632 -0.004593 -0.015773 0.049006 0.051472 0.029769 0.009711 0.035688 
0.041772 -0.0031133 -0.017253 0.037168 0.077778 0.071366 0.029276 0.027632 
-0.20682 0.04506 0.012342 0.060679 0.096193 0.054432 0.038319 0.033058 
-0.3497 0.075148 0.061172 0.035031 0.086985 0.023851 0.047362 0.024344 
-0.25352 0.079422 0.049006 0.06035 0.071531 0.054267 0.064954 0.038977 
0.17873 0.088794 0.057391 0.059857 0.047033 0.025495 0.031742 0.037004 
0.5411 0.12003 0.07301 0.057884 0.017932 0.013821 0.02533 0.012013 
0.53173 0.086492 0.052294 0.021549 0.0039565 0.01152 0.022371 -0.014951 
0.24926 0.01974 0.034373 0.027139 0.0083956 0.0051074 0.0085601 -0.046354 
0.026646 0.036017 0.027796 -0.0039354 0.03388 0.0032988 0.026974 0.0093821 
-0.0868 0.032071 0.027139 0.0024767 0.015137 0.040456 0.037168 0.055089 
-0.053424 0.064296 0.014972 0.024673 0.0227 0.03536 0.020727 0.049006 
0.017274 0.1299 0.029276 0.0227 -0.0096899 0.0227 0.022206 0.023028 
-0.024323 0.10491 0.043745 -0.0011404 -0.023172 0.041443 0.025495 0.020562 
-0.042408 0.021878 0.01267 0.020398 0.031249 0.014315 0.016123 -0.02794 
-0.048492 -0.052766 0.0069159 0.014972 0.028619 0.026974 0.0069159 -0.034188 
0.043909 -0.035503 -0.0014692 0.024344 0.039963 0.041114 0.027468 0.00083261 
0.011191 -0.018568 -0.01939 0.045553 0.046704 0.023686 0.021713 0.025495 
-0.22178 0.036346 0.0041209 0.013328 0.026974 0.037497 0.01267 0.045882 
-0.28245 0.11576 0.050486 0.053609 0.031085 0.01826 0.037497 0.055582 
0.024179 0.20191 0.065776 0.033551 0.011848 -0.015609 0.032564 0.076956 
0.22756 0.18794 0.066434 0.05065 0.018589 0.023193 0.022371 0.12661 
0.19764 0.088794 0.057884 0.012013 -0.008539 0.0047785 0.053774 0.085341 
0.13647 -0.11804 0.026974 0.025495 0.010697 0.0011614 0.019905 0.031085 
0.08715 -0.32372 -0.02235 0.013657 0.049335 0.022206 0.0026412 0.018589 
0.080573 -0.24414 -0.058521 0.007738 0.056898 0.016616 0.046211 0.013657 
0.12595 0.034702 0.00099702 0.037332 0.068078 0.05772 0.050486 0.061172 
0.055911 0.14996 0.088794 0.053281 0.064461 0.058871 0.052787 0.089452 
0.019083 0.22131 0.10096 0.071037 0.054432 0.059693 0.088958 0.05624 
0.055582 0.19188 0.039799 0.029112 0.033715 0.029769 0.037168 0.038812 
0.12529 0.13319 0.0069159 0.051308 0.042923 0.014643 0.036182 0.063639 
0.10096 0.13088 0.034866 0.01711 0.029605 0.013164 0.046046 0.055911 
0.08156 0.089945 0.064132 0.057555 0.025659 0.043251 0.051472 0.083862 
-0.0075525 -0.046025 0.0227 0.025166 0.020562 0.020398 0.060844 0.082875 
-0.13201 -0.12412 0.011848 0.034209 0.0052718 0.036017 0.077121 0.058871 
-0.1233 -0.090253 0.012835 0.010369 0.0054362 0.04095 0.064132 0.085506 
-0.03057 0.048841 0.021878 0.023686 -0.00031829 0.0227 0.045553 0.089945 
-0.13777 0.15209 0.022206 -0.0019624 -0.0040998 0.0016547 0.035853 0.046375 
-0.076442 0.11757 0.017274 -0.011992 -0.0059084 -0.0021268 -0.0067304 0.022864 
0.089945 -0.003771 -0.028597 -0.010841 0.019411 0.00050378 -0.017582 -0.0036066 
-0.011498 -0.073811 -0.034188 -0.0082102 0.0069159 0.0016547 0.0023123 0.013657 
-0.16276 -0.10817 -0.022021 0.013986 0.027961 0.013164 0.029441 0.036017 
-0.071838 -0.02794 0.032564 0.041936 0.041278 0.026646 0.01711 0.0034632 
0.14815 0.096028 0.028125 0.06742 0.062652 0.035031 0.032729 0.055254 
0.37389 0.16327 0.054596 0.076134 0.08978 0.043416 -0.001798 0.087643 
0.37438 0.22213 0.06183 0.12053 0.093233 0.024673 -0.01676 0.080738 
0.18432 0.12973 0.042265 0.064625 0.062488 0.035031 -0.078415 0.023686 
-0.11196 0.017767 0.025659 0.04917 0.021549 0.0227 -0.12609 -0.00097594 
-0.24858 -0.011498 0.009711 0.0082312 -0.0072237 0.0024767 -0.099624 -0.011334 
-0.16095 0.020727 0.037661 0.013657 -0.015444 -0.0050863 0.022042 0.0028056 
-0.023665 0.025659 0.053609 -0.0013048 -0.026131 -0.0064016 0.085177 0.031578 
0.10195 0.050814 0.071531 0.01004 -0.017746 0.017274 0.12957 0.027632 
0.20372 0.051143 0.055582 0.011355 0.021713 0.023686 0.15703 0.037168 
0.16114 0.024837 -0.012156 0.0082312 0.037332 0.0041209 0.11888 0.036346 
0.038977 -0.00097594 -0.035503 0.00083261 0.025166 0.033551 0.066105 0.0052718 
-0.05737 -0.10752 -0.040764 0.050486 0.026317 0.022042 0.054103 0.024015 
-0.16835 -0.075127 -0.0036066 0.059693 0.041772 0.028454 0.028947 0.040456 
-0.14895 0.040292 0.0095465 0.028125 0.02681 0.047197 0.023686 0.035195 
-0.047176 0.090438 0.049664 0.030263 0.024508 0.023193 0.025824 0.052459 
0.0324 0.10935 0.057062 0.034209 0.052459 0.031249 0.010862 0.066269 
0.056733 0.15341 0.080409 0.079587 0.079258 0.065118 0.030592 0.10507 
0.17495 0.20536 0.13253 0.066105 0.064296 0.048019 0.024673 0.11017 
0.14058 0.17495 0.10359 0.063474 0.0069159 0.020727 -0.011663 0.057391 
-0.051287 0.053445 0.062159 -0.0031133 -0.025967 0.004943 -0.035174 -0.038956 
-0.2157 -0.041257 0.01415 -0.0062372 -0.044052 -0.011992 -0.013307 -0.068879 
-0.1062 -0.011663 0.0062583 0.0051074 -0.024816 0.0083956 -0.011663 -0.066906 
0.15341 -0.027447 0.016945 0.010862 0.01711 0.0090533 -0.018404 -0.04323 
0.26094 -0.015609 0.010533 0.033222 0.026317 0.0060938 0.026646 -0.0091966 
0.13532 0.040456 0.037168 0.048019 0.070708 0.03092 0.020562 -0.0044286 
0.061008 0.1031 0.059528 0.054925 0.045553 0.027961 0.037332 0.02533 
0.095699 0.14371 0.082053 0.060186 0.030756 0.015137 0.050979 0.042758 
0.13828 0.12447 0.056076 0.03536 0.0062583 0.026974 0.022535 0.012999 
0.08715 0.012999 -0.020706 -0.0049219 0.0070803 -0.015116 0.015794 -0.019884 
-0.022021 -0.049314 -0.062796 0.026481 0.024673 0.0085601 0.02829 -0.038462 
-0.04882 0.083862 -0.0138 0.0074092 0.0013258 0.044238 0.017274 -0.041422 
0.038155 0.19122 0.054432 0.054103 0.023522 0.029605 0.040292 0.0079024 
0.11724 0.18432 0.1105 0.055582 0.031249 0.030592 0.066434 0.050979 
0.1738 0.046375 0.057227 0.046868 0.017932 0.021056 0.042265 0.040128 
0.11674 -0.090581 -0.017088 0.011026 0.025988 0.01415 0.040128 0.073997 
-0.095185 -0.10719 -0.073647 -0.0073881 0.041607 0.029605 0.067749 0.062488 
-0.20436 -0.020377 -0.044217 0.0031344 0.03536 0.030592 0.049992 0.058049 
0.012177 0.11148 0.027303 0.005765 0.041607 0.022535 0.050979 0.056076 
0.26833 0.15719 0.048348 0.022864 0.022371 0.029441 0.058871 0.049499 
0.24071 0.080244 0.019247 0.0070803 -0.0080457 0.024673 0.024015 0.0042853 
0.087972 0.06742 0.061995 0.028783 -0.0004827 0.015959 0.023028 -0.02235 
-0.11343 0.075641 0.088136 0.042758 0.024179 0.040292 0.050979 -0.021528 
-0.24266 -0.055397 0.047526 0.051801 0.039141 0.022371 0.044402 -0.024487 
-0.15733 -0.1085 0.011191 0.0093821 0.041936 0.025495 0.039799 0.038812 
-0.0060728 0.013164 0.034044 0.077943 0.077614 0.043909 0.062652 0.042265 
-0.014787 0.080738 0.058542 0.069064 0.060515 0.027303 0.058871 0.011355 
0.029276 0.089616 0.065612 0.065776 0.065283 0.040456 0.029605 0.011848 
0.22855 0.034866 0.057227 0.038319 0.060679 0.029605 0.035031 0.014643 
0.39543 0.0064227 0.038812 0.016123 0.015465 0.015301 0.027632 0.016781 
0.4242 0.055582 0.048513 -0.0047575 -0.019061 0.033058 0.0085601 0.0037921 
0.27771 0.053445 0.040456 -0.013307 -0.022185 0.013492 0.022864 -0.0011404 
0.0082312 0.046375 0.074654 -0.028762 0.041607 -0.010019 0.0083956 0.0041209 
-0.28031 0.041114 0.0074092 -0.0060728 0.017438 0.022864 -0.0070593 -0.026953 
-0.55176 0.04506 0.02122 0.043909 0.030263 0.020562 0.024508 -0.03764 
-0.47367 0.040292 -0.0032777 0.02829 0.038155 0.0021479 0.010862 0.013492 
-0.2032 0.037661 -0.016102 0.077778 0.059528 0.039305 0.023193 0.066763 
0.005765 0.045553 0.01152 0.049006 0.059528 0.03799 0.056076 0.081889 
0.1225 0.0689 0.045389 0.092904 0.051308 0.043909 0.042265 0.08156 
0.19139 0.070873 0.037497 0.047362 0.057062 0.051636 0.044073 0.067749 
0.21539 -0.00081153 0.037661 0.056898 0.043909 0.028947 0.04506 0.054267 
0.15061 -0.034845 0.037004 0.037661 0.042265 0.033551 0.039634 0.08156 
0.11362 0.01563 0.015959 0.019411 0.021056 0.018589 0.018754 0.10195 
0.018754 0.0072447 0.012835 0.037004 0.0324 0.018425 0.03799 0.11099 
-0.02794 0.052623 0.023522 0.028947 0.024179 0.036017 0.01711 0.066598 
-0.0049219 0.041443 0.010204 0.030427 0.034866 0.007738 0.019083 0.027632 
0.063968 0.040456 0.021549 0.024179 0.025001 0.013657 0.035524 0.038155 
0.090767 0.069558 0.016123 0.014315 0.015959 0.03799 0.025166 0.034209 
0.11477 0.044238 0.020233 0.005765 0.0324 0.017767 0.0047785 -0.0090322 
-0.039449 0.0044497 0.028619 0.054925 0.037826 0.014643 0.013492 -0.027282 
-0.22326 -0.0049219 0.025001 0.027632 0.042758 0.031085 -0.0075525 -0.017582 
-0.18117 -0.028597 0.036839 0.051308 0.04506 0.019247 0.01415 0.066269 
-0.040271 0.02681 0.040128 0.018589 0.039634 0.018918 0.029441 0.097837 
0.086328 0.092082 0.044073 0.04654 0.024673 0.019576 0.02829 0.094055 
0.15028 0.10836 0.055254 0.018754 0.018754 0.0065871 0.010862 0.036346 
0.092904 0.10622 0.084848 0.032729 0.034209 0.038483 0.038648 0.016781 
-0.03764 0.10573 0.058706 0.020562 0.0090533 0.015794 0.017438 0.0046141 
-0.0082102 0.11461 0.06479 0.0098754 0.0075736 0.013164 0.016288 -0.0077169 
0.1613 0.075641 0.051636 0.0087245 -0.0047575 0.034373 0.013492 -0.028104 
0.24236 -0.041422 0.023193 -0.0049219 -0.0036066 0.022206 0.0060938 -0.040106 
0.088136 -0.13596 -0.0070593 0.01152 0.029112 0.039634 0.013164 -0.04882 
-0.059343 -0.079072 0.0060938 0.026974 0.0421 0.033222 0.029769 -0.0075525 
-0.16966 0.043087 0.042758 0.044238 0.042265 0.025166 0.017438 0.018096 
-0.2157 0.083368 0.038812 0.01415 0.017274 0.0075736 0.0098754 0.020233 
-0.10012 0.059693 0.033715 0.034044 0.025166 0.024344 0.0088889 0.050979 
0.077778 0.028783 0.054103 0.026481 0.0036276 0.017932 0.020233 0.053938 
0.15078 0.061666 0.073832 0.076299 0.0037921 0.032564 0.030592 0.093562 
0.15982 0.10918 0.033222 0.056404 0.045389 0.046868 0.061172 0.11954 
0.15653 0.10162 0.0060938 0.050814 0.049992 0.027961 0.034209 0.099974 
0.14058 0.098494 0.0079024 0.020727 0.016945 0.030592 0.021384 0.063145 
0.1271 0.078929 0.079258 -0.0022913 -0.035503 0.015137 0.021713 0.0044497 
0.13384 0.11378 0.06479 -0.020541 -0.060329 -0.012978 0.0036276 -0.0503 
0.073175 0.066763 0.010204 -0.0021268 0.0067515 0.00050378 0.011355 -0.048163 
0.016945 -0.049642 -0.0011404 0.014479 0.031249 -0.0031133 0.020233 -0.017253 
0.075805 -0.066577 -0.033859 0.041443 0.084848 0.02533 0.022864 0.046704 
0.098494 -0.038956 -0.017088 0.06183 0.098166 0.037332 0.0090533 0.068407 
0.088136 -0.07414 -0.016266 0.069229 0.11888 0.054925 0.049499 0.031742 
-0.07973 -0.030899 -0.0021268 0.086492 0.13861 0.052294 0.052294 -0.0098543 
-0.27357 0.071202 0.046704 0.062323 0.10491 0.06183 0.034866 -0.018733 
-0.12412 0.11247 0.089287 0.074654 0.052294 0.02829 0.039141 0.0067515 
0.19188 0.14502 0.074654 0.013164 -0.01528 0.030592 0.0093821 0.026317 
0.28149 0.12842 0.044731 -0.0026201 -0.081868 0.0095465 0.013164 0.034702 
0.13532 0.060515 0.03799 -0.017417 -0.041257 0.0013258 0.018918 0.021713 
-0.018733 0.057884 0.024015 -0.0016336 0.0054362 0.031742 0.029112 0.0065871 
-0.050136 0.005765 0.031414 0.014315 0.012506 0.0014903 0.029112 -0.0057439 
-0.052437 -0.060165 0.040128 0.033715 0.026317 0.011026 0.021878 -0.044217 
-0.011663 -0.019226 0.025988 0.022864 0.021056 0.020398 0.027632 -0.020377 
0.042923 0.03799 0.038812 0.019083 0.021878 0.018918 0.0075736 0.016123 
0.1008 0.075476 0.056076 0.047197 0.042429 0.026974 0.034044 0.01711 
0.16262 0.14897 0.080902 0.037826 0.04654 0.035524 0.026152 0.055418 
0.21638 0.12727 0.092576 0.065118 0.053774 0.036839 0.057391 0.10408 
0.12644 0.067913 0.073668 0.026481 0.061172 0.044896 0.064132 0.097015 
-0.040271 0.041278 0.037332 0.055747 0.050979 0.027468 0.03947 0.050321 
-0.14434 -0.028104 -0.011334 0.045389 0.061501 0.010533 0.040456 0.03947 
-0.15651 -0.093376 -0.0044286 0.074326 0.076956 0.050979 0.046211 0.02122 
-0.12346 -0.064768 0.042429 0.055254 0.065118 0.044731 0.048184 0.038319 
-0.024323 0.0016547 0.050814 0.065283 0.043745 0.04095 0.0324 0.048841 
0.12464 0.10096 0.038977 0.042429 0.02681 0.04358 0.04095 0.045718 
0.18563 0.15176 0.056898 0.030756 0.012177 0.015137 0.020727 0.040456 
0.15341 0.12069 0.04095 0.026481 0.0083956 0.0034632 0.025988 0.055911 
0.097672 0.11724 0.020233 0.013492 -0.010183 0.010862 0.022535 0.036182 
-0.079401 0.10014 0.01415 0.026974 0.00017495 0.0016547 -0.00081153 0.010697 
-0.30909 0.011026 -0.035174 0.023028 0.026481 0.0087245 -0.011005 0.0067515 
-0.20238 -0.098144 -0.042573 0.030098 0.0421 0.03388 0.039963 0.047197 
0.22213 -0.025474 0.017932 0.011848 0.043909 0.022535 0.043416 0.12497 
0.4459 0.086492 0.079422 0.04654 0.015137 0.035524 0.052294 0.10655 
0.34824 0.10392 0.079751 0.040785 0.0080668 0.024179 0.036182 0.061008 
0.032893 0.024015 0.036346 0.044238 0.016616 0.012013 0.0054362 0.019083 
-0.18775 -0.0072237 -0.013471 0.01563 0.024344 0.020727 0.0069159 -0.011992 
-0.18035 0.090438 -0.02794 0.04095 0.04095 0.030263 0.045718 0.024508 
-0.073318 0.15949 0.063968 0.048841 0.059528 0.019247 0.041114 0.048348 
0.15867 0.19237 0.087972 0.047526 0.038155 0.054432 0.054432 0.037497 
0.10655 0.080738 0.062652 0.040785 0.0083956 0.063474 0.023851 0.013492 
-0.033201 -0.029255 0.021713 0.020233 0.038483 0.034702 0.030592 0.010697 
-0.2203 -0.097487 0.012835 0.022535 0.024344 0.052459 0.043909 0.015465 
-0.33506 -0.17969 -0.028926 0.015301 0.010204 0.009711 0.020891 -0.0090322 
-0.23214 -0.21899 -0.056383 0.012013 0.026646 0.032893 0.018918 -0.012814 
0.079751 -0.0073881 0.0026412 0.0072447 0.015301 0.030427 0.026974 0.0019835 
0.24581 0.16738 0.064954 0.038977 0.0082312 0.0085601 0.040456 0.027139 
0.21046 0.22033 0.090274 0.0098754 -0.00097594 0.026974 0.030263 0.077285 
0.15226 0.19714 0.090603 0.036839 0.016616 0.017932 0.026317 0.084026 
0.16738 0.12644 0.070873 0.023193 0.007738 0.0095465 0.041278 0.10458 
0.1419 0.085506 0.05476 0.051143 0.021713 0.034702 0.028783 0.10211 
0.071859 0.033058 0.018918 0.035524 0.053609 0.015794 0.026974 0.056898 
0.058871 0.0093821 0.017932 0.026317 0.021878 0.01267 0.018918 0.014479 
-0.014622 0.033551 0.01004 0.0032988 0.00017495 0.0083956 0.0075736 -0.022021 
-0.0091966 0.057884 0.039799 0.00050378 -0.00031829 0.012342 0.0047785 -0.014293 
0.015301 0.033715 0.057884 0.011026 -0.011992 0.012835 0.027796 -0.0073881 
-0.042408 -0.0078813 0.027796 0.0087245 0.00083261 0.022206 0.0067515 -0.013143 
-0.06148 -0.010348 0.0324 0.023193 0.007738 0.012342 0.033222 0.013164 
0.032893 0.059528 0.01563 0.015959 0.015794 0.027139 0.035524 0.047197 
0.14535 0.15357 0.030592 0.055911 0.0011614 0.026646 0.029769 0.06479 
0.19172 0.15719 0.030592 0.04358 0.033222 0.016288 0.031907 0.069393 
0.18909 0.12365 0.048841 0.079094 0.05772 0.037661 0.068242 0.054267 
0.22246 0.12727 0.050814 0.031907 0.046211 0.0098754 0.044731 0.031907 
0.15489 0.091096 0.058706 0.062159 0.024837 0.0060938 0.035688 0.039141 
-0.030242 0.038977 0.066269 0.019247 0.02681 0.02829 0.014972 0.028619 
-0.17164 -0.066413 0.020562 0.028783 0.039141 0.0041209 -0.017746 -0.0022913 
-0.29692 -0.19301 -0.072003 -0.003771 0.015137 -0.024816 -0.053424 -0.045203 
-0.52135 -0.16736 -0.083183 -0.014951 -0.001798 -0.0054151 -0.077922 -0.041915 
-0.48633 -0.0073881 -0.026131 0.00083261 0.012342 -0.014951 -0.10406 0.011848 
-0.07414 0.18514 0.080738 0.060515 0.049499 0.036839 -0.051451 0.093233 
0.24663 0.18169 0.11461 0.076299 0.075476 0.045224 0.0092177 0.10425 
0.31042 0.020233 0.037168 0.058213 0.0592 0.038319 0.042265 0.047691 
0.34495 -0.057205 0.0011614 0.043909 0.019083 0.018096 0.081724 0.024344 
0.37093 0.059857 0.023851 -0.0040998 0.0059294 0.020233 0.095371 0.0034632 
0.31289 0.18333 0.072188 0.05213 0.033551 0.031907 0.081395 0.013657 
0.16771 0.19714 0.070873 0.033387 0.046375 0.041278 0.064461 0.019411 
0.048677 0.11115 0.027139 0.048348 0.025824 0.025166 0.055254 0.0093821 
-0.0096899 -0.0054151 -0.0082102 0.0060938 0.0031344 0.009711 0.027303 0.0095465 
-0.1986 -0.043066 0.035524 0.024673 -0.0014692 0.025166 0.026481 0.0093821 
-0.41744 0.028947 0.026481 0.0060938 0.018096 0.0080668 0.00033937 -0.015116 
-0.33424 0.088794 0.074654 0.00297 0.022206 0.011848 0.0036276 0.030756 
-0.0042642 0.084026 0.086821 0.029276 0.033387 0.032564 0.00050378 0.047855 
0.22246 0.027632 0.072024 -0.0082102 0.038155 -0.011992 0.014643 0.038483 
0.24088 0.030427 0.025166 0.02533 0.020727 0.0079024 -0.0052507 0.028454 
0.1909 0.086163 0.036017 -0.012485 0.016123 0.012999 -0.020706 0.027961 
0.09981 0.024508 0.026152 0.031414 0.028783 0.017603 0.010533 0.019411 
-0.0055795 -0.022843 0.02681 0.032893 0.023357 0.043251 0.014315 0.0011614 
-0.12231 0.037004 0.02829 0.045553 0.045224 0.028619 0.026152 0.0064227 
-0.13875 0.020069 0.046868 0.043909 0.069064 0.02829 0.03536 0.0069159 
-0.12955 -0.069208 0.023357 0.064461 0.045224 0.063145 0.032729 -0.0029489 
-0.098309 -0.052437 0.016945 0.019083 0.029934 0.033058 0.030263 0.030263 
0.015794 0.011848 0.015465 0.036346 0.02122 0.015137 0.037332 0.040292 
0.064296 0.076627 0.0093821 0.0095465 0.015301 0.036182 0.021878 0.052952 
-0.00015387 0.083697 0.014808 0.0087245 0.0085601 0.018918 0.025166 0.064132 
-0.087622 0.062159 0.033387 0.029934 0.024179 0.011684 0.038648 0.017767 
0.014479 0.10524 0.046375 0.033058 0.035853 0.029276 0.029441 0.030756 
0.22592 0.086985 0.042429 0.037004 0.0034632 0.016945 0.034209 0.017438 
0.41302 -0.016431 -0.0096899 0.03536 0.00033937 0.025988 0.031414 -0.011498 
0.32325 -0.060987 -0.02942 0.026152 0.0069159 0.027303 0.014315 -0.0034422 
0.015137 0.027468 0.032564 -0.0068948 -0.0055795 0.015301 0.034702 0.028783 
-0.091568 0.12316 0.064461 0.041772 0.012506 0.034373 0.056569 0.060679 
-0.0064016 0.11198 0.014643 1.0539e-005 0.01826 0.01711 0.04095 0.072681 
-0.066577 -0.080552 -0.10867 0.015794 0.036839 0.01152 0.034702 0.037004 
-0.16194 -0.16457 -0.1644 0.020727 0.089123 0.049828 0.051143 0.032236 
-0.095843 -0.051451 -0.060658 0.076627 0.12135 0.071695 0.068078 0.061337 
0.026481 0.048677 0.072353 0.092411 0.1345 0.094548 0.069558 0.080902 
0.1368 0.13615 0.1396 0.09126 0.11526 0.095206 0.1008 0.10376 
0.15209 0.16492 0.13269 0.082217 0.081889 0.061008 0.072353 0.11872 
0.15571 0.10704 0.10672 0.024344 0.029112 0.016781 0.039799 0.059364 
0.089616 0.075312 0.072681 0.0034632 -0.016595 0.0047785 0.011191 -0.015773 
0.0098754 0.044238 0.044567 -0.032872 -0.029584 0.0080668 0.0051074 -0.075127 
0.018918 0.012999 0.038483 -0.004593 -0.01528 0.011684 0.0051074 -0.079895 
0.03947 0.018096 0.037332 0.0051074 -0.017582 0.011684 0.0085601 -0.05885 
0.06479 0.01974 0.039799 0.023522 -0.012649 0.016452 0.016288 -0.0031133 
0.10819 0.038812 0.038319 0.018589 0.0051074 0.031578 0.045389 0.031907 
0.11263 0.070873 0.04654 0.039799 0.015465 0.022535 0.047691 0.047691 
0.051636 0.069064 0.051308 0.032236 0.036839 0.030098 0.03388 0.031249 
-0.01939 0.062323 0.04358 0.053938 0.036675 0.039963 0.0421 0.00099702 
0.009711 0.053281 0.028619 0.023028 0.014972 0.020398 0.038812 0.012999 
0.00066819 -0.015609 -0.001798 0.020562 0.029276 0.023028 0.028619 -0.0027845 
-0.12659 -0.054904 -0.00064712 0.028125 0.024344 0.10885 -0.047998 0.013821 
-0.17279 0.01711 0.0044497 0.027303 0.038977 0.024837 0.028619 0.021713 
0.055582 0.082711 0.030427 0.044238 0.064461 0.010204 0.029605 0.08156 
0.38671 0.11576 0.025495 0.045718 0.049335 0.034537 0.018754 0.09685 
0.46826 0.12809 0.032893 0.049664 0.085177 0.050979 0.033387 0.10984 
0.19501 0.051472 0.040621 0.034866 0.055747 0.05213 0.031742 0.016781 
-0.059836 0.024837 0.03799 0.043416 0.032071 0.041772 0.051801 -0.010676 
-0.023829 0.0013258 0.01711 -0.0047575 0.0052718 0.021384 0.036017 0.017767 
0.17807 0.052623 0.022206 0.016781 -0.012649 0.016288 0.00017495 0.036017 
0.14683 0.096028 0.045718 0.013328 0.0070803 0.0036276 -0.0024557 0.071531 
-0.25401 0.061337 0.056076 0.046704 0.020891 0.0085601 0.030756 0.091589 
-0.52628 0.066434 0.062159 0.034537 0.049992 0.047855 0.049664 0.076299 
-0.26913 0.10819 0.057555 0.052787 0.05476 0.028619 0.038977 0.065776 
0.029441 0.023193 0.0060938 0.063474 0.06331 0.03536 0.039141 0.025659 
0.10178 -0.023007 -0.0029489 0.017932 0.03092 0.016452 0.0046141 -0.014787 
0.04654 -0.0013048 -0.0080457 0.0023123 0.015794 -0.014787 -0.025638 -0.031392 
-0.0072237 -0.0004827 -0.00015387 -0.0022913 0.0090533 -0.0070593 -0.0042642 -0.015609 
0.028783 0.082217 0.026646 0.014972 0.028454 0.01563 -0.0087034 -0.021856 
0.14437 0.15275 0.076299 0.022535 0.024673 0.0070803 0.0080668 0.0039565 
0.23167 0.14568 0.099974 0.048677 0.0051074 0.012342 0.022042 0.024508 
0.32391 0.13746 0.10211 0.027468 -0.014787 0.014315 0.0052718 0.018918 
0.38753 0.14782 0.11099 0.050486 0.013986 0.0080668 0.015794 0.043251 
0.34051 0.12135 0.039634 0.028783 0.021878 0.027961 0.017932 0.053938 
0.034702 0.082875 0.039963 0.049992 0.041278 0.0065871 0.022042 0.027632 
-0.34493 -0.0036066 0.058871 0.010369 0.029605 0.013164 0.01826 -0.0054151 
-0.48254 -0.0011404 0.072188 0.042758 0.040785 0.024015 0.012342 -0.012485 
-0.28327 0.04917 0.072846 0.046375 0.050157 0.015301 0.016123 0.033715 
0.043087 -0.0087034 0.053938 0.063968 0.056733 0.040456 0.035195 0.064625 
0.20882 -0.07414 0.053774 0.043251 0.038319 0.026317 0.038648 0.037332 
0.25699 -0.039284 0.038812 0.032236 0.017438 0.013164 0.0031344 0.0227 
0.063474 -0.021528 0.03092 0.034702 -0.010183 0.0080668 0.018425 0.012177 
-0.15733 -0.0040998 0.01974 0.0052718 -0.010183 -0.0044286 0.0016547 0.018754 
-0.29791 0.024673 -0.0024557 0.013492 -0.0088678 -0.012485 0.010369 0.03799 
-0.28278 0.028125 -0.029584 -0.0042642 -0.0044286 -0.0031133 -0.0032777 0.04654 
0.010533 0.061995 -0.034516 0.030592 0.01267 0.0054362 0.018425 0.089945 
0.34331 0.11444 0.014972 0.037661 0.034044 0.016616 0.0421 0.14535 
0.37307 0.12825 0.074161 0.10441 0.069886 0.057555 0.058049 0.13779 
0.21293 0.14881 0.0689 0.06594 0.068736 0.045553 0.071037 0.10178 
0.020398 0.11198 0.044567 0.090931 0.015301 0.0092177 0.029441 0.070544 
-0.021034 0.094548 0.031742 0.031578 0.0070803 0.029112 0.01974 0.031907 
-0.096829 0.10606 0.0039565 0.051636 -0.00015387 0.015959 0.02533 0.007738 
-0.21044 -0.025474 0.023851 0.025988 0.0092177 0.015959 -0.0024557 -0.034516 
-0.17772 -0.076113 -0.0087034 0.031742 0.016781 0.014808 0.0090533 -0.078415 
-0.12018 -0.060987 -0.021856 0.011684 0.0039565 -0.0039354 0.0067515 -0.086964 
0.15127 -0.048163 -0.013143 -0.015938 0.019411 0.018589 0.0065871 -0.05885 
0.34775 -0.042244 -0.01117 0.010862 0.037168 0.01415 0.0064227 -0.011992 
0.2851 1.0539e-005 0.0083956 -0.0047575 0.034373 0.00050378 0.043745 0.034866 
0.083204 0.0036276 0.0421 0.053774 0.044731 0.037168 0.031907 0.079422 
-0.021692 0.075476 0.073832 0.03388 0.05213 0.034537 0.043251 0.055747 
-0.029584 0.095042 0.062652 0.074654 0.042594 0.034373 0.047362 0.027139 
0.012013 0.064954 0.046211 0.048677 0.034044 0.048019 0.03388 0.025001 
0.01711 0.061501 0.032729 0.06742 0.034209 0.022535 0.026646 0.026481 
0.0044497 0.026481 0.017932 0.032893 0.03799 0.02122 0.043087 0.036017 
-0.053424 0.036182 0.01826 0.027632 0.026974 0.021056 0.04095 0.059693 
-0.030735 0.067913 0.036182 -0.00031829 0.0018191 0.016945 0.035195 0.02681 
0.010533 0.057227 0.042429 0.018589 0.01267 0.020562 0.03388 0.045553 
0.049006 0.040128 0.026646 0.0092177 0.024673 0.021384 0.023522 0.0421 
0.090438 0.068571 0.050486 0.019083 0.020562 0.018425 0.019247 0.012506 
0.13483 0.069722 0.0592 0.039141 0.038483 0.030592 0.029769 0.0042853 
0.16179 0.080902 0.055254 0.052459 0.034373 0.019576 0.016123 -0.010512 
0.013986 0.067585 0.025001 0.062159 0.036346 0.023851 0.025988 -0.020706 
-0.16128 0.012506 0.010204 0.028783 0.021056 0.042923 0.025495 0.0093821 
-0.16424 0.0037921 -0.017088 0.017603 0.0093821 0.028619 0.022042 0.028783 
-0.019226 0.027303 -0.0088678 0.00017495 -0.014458 0.013328 0.038812 0.01267 
0.13467 0.046704 0.022371 0.034044 0.0060938 0.027468 0.040292 0.055582 
0.19287 0.064132 0.032729 0.01415 0.019411 0.016452 0.018754 0.043251 
0.19796 0.10293 0.055911 0.025988 0.005765 -0.003771 0.037661 0.014315 
0.15851 0.10491 0.0592 0.026317 -0.0036066 0.0042853 0.014808 -0.017253 
0.0011614 0.08863 0.036017 0.011191 -0.0050863 0.01267 0.010204 -0.054904 
-0.291 -0.022843 -0.0087034 0.018096 -0.010019 0.013821 -0.0024557 -0.067399 
-0.52447 -0.014458 -0.049807 -0.0060728 0.0080668 0.013986 0.0080668 -0.026296 
-0.48353 0.02681 -0.04882 0.034209 0.06035 0.01974 0.018754 0.013986 
0.15061 0.079422 0.0093821 0.06594 0.11017 0.095864 0.082711 0.14108 
0.83244 0.19188 0.097672 0.12168 0.15209 0.09274 0.11362 0.22361 
0.889 0.26981 0.13236 0.089945 0.12332 0.069558 0.10129 0.11888 
0.56773 0.16623 0.1128 0.082546 0.097508 0.070873 0.06479 0.015301 
0.082217 0.10458 0.048184 0.0074092 0.039963 0.025166 0.029276 -0.008539 
-0.15372 0.081395 0.029276 0.01004 -0.010183 0.01152 0.01563 0.025166 
-0.13349 -0.010676 -0.011334 -0.022843 -0.019719 0.038319 0.035853 0.13516 
-0.24414 -0.085485 -0.0078813 -0.0096899 -0.025967 0.0054362 -0.0070593 0.02681 
-0.44308 -0.17312 -0.022185 -0.016102 0.013821 0.014643 0.015137 -0.02235 
-0.26272 -0.10719 0.017438 0.0062583 -0.0098543 0.0037921 0.0032988 -0.035503 
0.087314 -0.033694 0.012013 -0.0095255 0.015465 -0.014458 0.0054362 -0.046519 
0.012177 -0.0067304 0.034044 0.0062583 -0.0047575 0.0072447 -0.0096899 -0.014293 
-0.16539 0.010204 0.061008 0.018425 0.038483 0.031907 0.026481 0.093562 
0.0069159 0.0098754 0.027796 0.013657 0.035195 0.020891 0.034209 0.15949 
0.3951 0.0065871 0.025988 0.038155 0.034866 0.029934 0.024344 0.14585 
0.40381 0.035195 0.052459 0.016288 0.031414 0.028783 0.042265 0.0592 
0.06594 0.079916 0.075641 0.03947 0.034209 0.034209 0.033387 -0.02087 
-0.18315 0.072353 0.068407 0.017603 0.046211 0.048841 0.032236 -0.017746 
-0.10702 0.095699 0.064954 0.04917 0.076627 0.035031 0.039305 0.029605 
0.046375 0.10803 0.029441 0.018425 0.074654 0.03536 0.045882 0.039799 
0.11937 0.12628 0.027468 0.04358 0.062159 0.036839 0.029769 0.065118 
0.091096 0.10984 0.018425 0.037168 0.021384 0.030263 0.069722 0.055911 
-0.040435 0.0011614 -0.011334 0.023851 0.034373 0.025988 0.037004 -0.0032777 
-0.060494 -0.029091 0.00099702 0.031578 0.041772 0.031085 0.030756 0.0011614 
0.06479 0.017274 0.030592 0.0227 0.031742 0.010369 0.030756 0.058049 
0.11592 0.034044 0.064954 0.048348 0.030427 0.013328 0.041278 0.065612 
-0.054739 -0.078415 0.058049 0.037826 0.033058 0.028454 0.019247 0.054596 
-0.23855 -0.16013 0.028125 0.051636 0.026646 0.0014903 0.032729 0.012506 
-0.25401 -0.13678 0.032071 0.019083 0.017438 0.034702 0.02829 -0.011827 
-0.098473 -0.093212 0.01004 0.049992 0.015959 0.0072447 0.024015 0.0060938 
0.10737 -0.0040998 -0.00081153 0.0051074 -0.0047575 0.017603 0.016288 0.027303 
0.23282 0.012999 -0.042901 0.0072447 -0.004593 0.039141 0.020891 0.059693 
0.18794 0.00083261 -0.048985 0.0098754 0.042594 0.012177 0.010369 0.048841 
0.082382 0.02122 -0.01232 0.051636 0.04917 0.024673 0.019905 0.045224 
0.057062 0.080409 0.029605 0.023686 0.036017 0.034209 0.034209 0.052459 
0.10474 0.14683 0.04095 0.03388 0.028783 0.011848 0.015794 0.063145 
0.12398 0.11691 0.043087 0.019247 0.010204 0.018425 0.027796 0.05476 
0.05476 0.10507 0.032071 0.0060938 0.020727 0.029112 0.020233 0.047362 
0.010369 0.10425 0.023686 0.028125 0.014479 0.01415 0.014808 0.015137 
-0.0011404 0.062981 0.026974 0.012835 0.018425 0.023522 0.0324 0.0051074 
0.033551 0.065118 0.022206 0.018754 -0.0013048 0.0046141 0.024179 0.018754 
0.076956 0.11428 0.041114 0.026481 0.018425 0.013492 0.025166 0.073339 
-0.0054151 0.050321 0.03799 0.047855 0.020727 0.052623 0.037826 0.051965 
-0.11294 0.02829 0.050814 0.021384 0.022042 0.020398 0.027303 0.032071 
-0.11574 0.041443 0.046704 0.051143 0.019905 0.0037921 0.013164 -0.013307 
-0.073647 -0.0021268 0.034044 0.011355 0.0070803 0.019247 0.019083 -0.055232 
-0.17082 1.0539e-005 0.089123 -0.01676 0.027468 0.0054362 0.013821 -0.067892 
-0.22984 0.0036276 0.025166 0.0064227 0.026646 0.0032988 0.0026412 -0.038298 
0.0060938 0.10885 0.05476 0.042758 0.029605 0.034209 0.039634 -0.017746 
0.29974 0.19451 0.10573 0.037826 0.033058 0.027468 0.05065 -0.015609 
0.46514 0.17232 0.10343 0.027796 0.020727 0.038483 0.03536 -0.074469 
0.42962 0.068407 0.057391 0.041443 0.016616 0.042923 0.042429 -0.046025 
0.2246 0.047362 0.021384 0.037332 0.051636 0.044402 0.034209 0.023193 
-0.10554 -0.021034 -0.021692 0.040785 0.06183 0.039634 0.027303 0.080738 
-0.46183 -0.036489 -0.00015387 0.031414 0.021384 0.013492 0.034866 0.051801 
-0.57396 0.034537 -0.00064712 0.047691 0.024837 0.0095465 0.011355 0.00050378 
-0.3081 0.091425 0.046704 0.046868 0.010862 0.0082312 0.0088889 -0.047998 
0.099645 0.13861 0.044896 0.047691 -0.004593 0.0041209 0.029605 -0.061973 
0.39263 0.16952 0.052623 0.013164 -0.0072237 0.012835 0.020562 -0.010348 
0.45741 0.11888 0.025659 0.039634 0.013164 0.025988 0.022864 -0.023829 
0.33278 0.098659 0.01826 0.01563 0.020891 0.02829 0.046046 0.022206 
0.17133 0.093069 0.024344 0.04506 0.033387 0.017438 0.043909 0.081231 
0.065118 0.083204 0.041443 0.042923 0.06479 0.040128 0.03651 0.16804 
0.013328 0.11773 0.044567 0.020233 0.073339 0.03799 0.020398 0.19336 
-0.12856 0.06331 0.051472 0.028454 0.023193 0.0079024 0.031085 0.13631 
-0.1621 0.0011614 0.044896 0.0062583 0.0016547 0.01826 0.011684 0.016123 
0.034537 0.068078 0.038155 0.022535 0.0021479 0.00099702 0.039141 -0.0059084 
0.1955 0.024344 0.013328 0.032564 0.0036276 0.010533 0.027468 -0.03764 
0.15176 -0.043395 -0.011498 0.031414 0.023193 0.020398 -0.0029489 -0.053917 
0.091918 0.0028056 -0.026624 0.012342 0.020398 0.01267 0.022535 -0.03501 
0.087643 0.10277 0.024837 0.045389 0.051636 0.041772 0.029112 0.0080668 
0.094384 0.17314 0.070215 0.046704 0.080409 0.042758 0.054103 0.037661 
0.046046 0.16294 0.091918 0.097508 0.083533 0.050321 0.05476 0.067585 
-0.080552 0.072024 0.10852 0.068242 0.055911 0.047526 0.063968 0.084026 
-0.19482 -0.033859 0.062323 0.056076 0.026974 0.021384 0.03799 0.07038 
-0.22474 -0.0965 0.01415 0.00297 -0.0004827 -0.00097594 0.0227 -0.019719 
-0.13777 -0.13366 0.0016547 -0.0024557 0.018425 0.01152 0.011848 -0.069865 
0.096686 -0.026296 0.025495 -0.0013048 0.055747 0.015959 0.0090533 -0.027447 
0.21704 0.0065871 0.032564 0.013328 0.034044 0.0064227 0.034537 0.0079024 
0.15587 0.052294 0.054432 0.0085601 0.030427 0.02122 0.0092177 0.023193 
0.1636 0.060679 0.04095 0.005765 0.0098754 0.0042853 0.010697 0.071531 
0.2223 0.027468 0.03947 0.011355 0.0021479 0.025001 0.043087 0.1271 
0.26833 0.090931 0.034866 0.031578 0.0032988 0.047691 0.033222 0.12875 
0.20783 0.14141 0.030592 0.066927 0.047197 0.041278 0.038977 0.089287 
0.013657 0.063803 0.043416 0.05624 0.040785 0.038155 0.047033 0.042923 
-0.14681 0.010204 0.043745 0.077943 0.034373 0.030098 0.0324 -0.0055795 
-0.22836 0.015137 0.0065871 0.085506 0.039634 0.028947 -0.003771 0.0019835 
-0.35775 -0.009361 0.013986 0.039634 0.0034632 0.03651 0.0028056 0.02122 
-0.32635 -0.072496 -0.020212 -0.0027845 -0.0024557 0.01004 0.015794 0.0095465 
-0.12116 -0.051944 -0.028926 0.017438 0.019411 0.017603 0.025495 0.032236 
0.20125 0.0023123 0.00033937 0.010204 -0.0022913 0.018918 0.050814 0.085012 
0.33772 0.093398 0.044073 0.015465 0.024673 0.015465 0.040292 0.072188 
0.45741 0.12135 0.062981 0.042429 0.035688 0.033222 0.032071 0.057062 
0.36813 0.10737 0.057884 0.040128 0.039634 0.034044 0.047197 0.044896 
0.13483 0.055911 0.053609 0.045224 0.041607 -0.0029489 0.048841 0.08304 
-0.022679 -0.049149 0.012506 0.021056 0.0026412 0.01415 0.014479 0.086163 
-0.097487 -0.084663 -0.01232 0.010204 -0.012649 0.0031344 0.025001 0.051801 
-0.21817 -0.0138 0.014808 -0.0091966 -0.017582 -0.0031133 0.021056 0.029112 
-0.33276 0.016616 0.017932 0.030263 0.0023123 0.021549 0.016452 0.036839 
-0.27768 -0.003771 0.022535 0.0052718 0.016781 0.024508 0.040292 0.030263 
-0.069701 0.013492 0.022206 0.053445 0.042758 0.021384 0.030427 0.037661 
0.18547 0.056076 0.036182 0.043909 0.055418 0.038483 0.021549 0.011355 
0.36139 0.12168 0.032729 0.048513 0.046046 0.023028 0.043251 -0.022679 
0.43045 0.1368 0.014315 0.028619 0.039634 0.0083956 0.027139 -0.046025 
0.38918 0.1026 0.046046 0.0023123 0.016781 0.02533 0.0083956 -0.036325 
0.2103 0.074819 0.05772 0.00066819 0.0098754 0.0054362 0.0095465 -0.018404 
-0.057041 -0.06296 0.015137 -0.0042642 0.0034632 0.0070803 0.0074092 0.018096 
-0.4102 -0.13136 -0.0080457 0.013986 0.039634 0.016288 0.029605 0.058871 
-0.64252 -0.042079 -0.0044286 0.0098754 0.017274 0.0014903 0.027303 0.054925 
-0.55291 0.015465 0.049499 0.040292 0.0065871 0.0052718 0.030098 0.066763 
-0.11245 0.092247 0.067585 0.023522 0.025659 0.01974 0.026481 0.069393 
0.18695 0.13894 0.088465 0.057884 0.05065 0.0098754 0.054925 0.027468 
0.27655 0.092082 0.067913 0.035853 0.05065 0.042265 0.049992 -0.0016336 
0.33821 0.08715 0.07597 0.063968 0.073504 0.045882 0.031578 -0.01232 
0.28297 0.10474 0.050979 0.030427 0.040456 0.028783 0.033551 0.0062583 
0.21095 0.10228 0.032564 0.023193 0.00017495 0.04095 0.018754 0.038155 
0.21408 0.10967 0.011355 0.022864 0.0059294 0.0026412 0.019905 0.016945 
0.089123 0.050157 0.00017495 0.028947 0.015465 0.019411 0.034702 -0.011663 
-0.075127 -0.024652 0.0095465 0.016781 0.012013 0.024179 0.020398 -0.0031133 
-0.054575 0.016781 0.0088889 0.023193 0.024344 0.018096 0.016616 0.020069 
0.06742 0.029934 0.033715 0.01711 0.030427 0.034537 0.055747 0.054925 
0.063968 0.0421 0.02122 0.0090533 0.032236 0.034209 0.043909 0.062323 
-0.032872 0.038483 0.0016547 0.028619 0.019905 0.0054362 0.022042 0.043087 
-0.092554 0.012177 -0.0080457 0.0044497 0.018754 0.030592 0.017274 0.0085601 
-0.044874 -0.013636 -0.020541 0.036675 0.013328 0.0047785 0.009711 -0.017582 
0.075805 0.024837 0.005765 0.011191 0.023028 0.012342 0.0039565 -0.024158 
0.10113 0.024015 0.044896 0.015959 -0.0039354 0.034866 0.0080668 -0.011334 
0.0041209 0.041278 0.043416 0.025001 0.024015 0.01826 0.023028 0.013492 
-0.011827 0.039141 0.10935 0.077121 0.028947 0.054596 0.020727 0.0065871 
0.21178 0.053938 0.0046141 0.033387 0.053281 0.050814 0.047691 0.03651 
0.35071 0.12546 0.035688 0.021878 0.066927 0.024508 0.072846 0.079094 
0.20487 0.17051 0.058213 0.055254 0.062652 0.045553 0.03536 0.08715 
-0.0868 0.12135 0.070544 0.080409 0.060186 0.034866 0.063639 0.080902 
-0.25138 0.0013258 0.023357 0.023028 0.041278 0.022042 0.03388 0.051801 
-0.2647 -0.1039 -0.039613 -0.01117 0.022864 0.020398 0.01415 0.023686 
-0.32652 -0.085156 -0.035174 -0.0026201 0.0088889 0.0031344 0.019247 0.020398 
-0.29659 0.060022 0.026974 -0.006566 0.023851 0.025659 0.012506 0.010369 
-0.067728 0.11773 0.072681 0.032564 0.018918 0.035524 0.015465 0.016781 
0.1539 0.1322 0.092411 0.020069 0.027303 0.018425 0.050486 0.037661 
0.18843 0.10918 0.090767 0.044238 0.0072447 0.017438 0.031085 0.035195 
0.13056 0.079094 0.087643 0.040128 0.035031 0.035853 0.016616 0.046046 
0.035853 0.048677 0.076463 0.07597 0.044238 0.027139 0.04506 0.023193 
0.067913 0.061172 0.057227 0.041772 0.045718 0.035524 0.040292 0.038483 
0.38342 0.13516 0.058706 0.044238 0.044731 0.034209 0.050486 0.10935 
0.54981 0.15785 0.050321 0.018096 0.026317 0.024673 0.047855 0.09422 
0.19451 -0.0075525 -0.034845 0.012506 0.010204 0.012177 0.012999 -0.025802 
-0.23017 -0.10373 -0.047176 -0.0091966 0.013657 0.017438 -0.0055795 -0.091897 
-0.34378 -0.036983 -0.0036066 -0.022021 0.019576 0.023357 0.012177 -0.062796 
-0.18874 0.073832 -0.0036066 0.042265 0.034866 0.039963 0.023028 -0.018075 
-0.043066 0.085999 0.021549 0.064132 0.051143 0.03536 0.043909 0.046868 
-0.033201 0.085835 0.06035 0.070215 0.08567 0.038483 0.06035 0.046046 
-0.16358 0.0070803 0.044896 0.060515 0.078272 0.059528 0.043416 -0.008539 
-0.1233 -0.066248 0.01974 0.066269 0.062652 0.031907 0.019905 0.013164 
0.30352 -0.014622 0.022371 0.043909 0.024508 0.027468 0.0324 0.095206 
0.6238 0.087643 0.038812 0.044402 0.016123 0.023357 0.025495 0.084519 
0.48092 0.12809 0.052623 0.027303 -0.014622 0.0088889 0.021549 0.039634 
0.19731 0.11329 0.038483 0.051472 -0.01232 0.0074092 0.032236 0.016452 
-0.15092 0.074819 0.02681 0.020562 0.015137 0.023686 0.015959 0.013328 
-0.38538 0.068407 0.018918 0.032236 0.010369 0.0082312 0.007738 0.010204 
-0.37173 0.044896 0.011355 0.012999 0.022864 0.033222 0.045718 0.032729 
-0.43404 -0.074962 -0.011498 0.0024767 0.0052718 0.01004 0.0088889 0.028454 
-0.31764 -0.079895 0.011355 0.011026 0.009711 0.015301 0.0074092 0.038812 
-0.025145 0.076299 0.049664 0.0052718 0.015959 0.030756 0.038483 0.038648 
0.27902 0.26011 0.079916 0.040128 0.029112 0.019576 0.038812 0.056898 
0.39428 0.29234 0.064954 0.022864 0.038977 0.023357 0.033222 0.061008 
0.36978 0.22049 0.032893 0.033551 0.031742 0.030427 0.048348 0.044567 
0.22509 0.11707 0.055747 0.034537 0.029769 0.011684 0.032236 0.0023123 
0.10589 0.072846 0.044731 0.033387 0.033715 0.0070803 0.0052718 0.0034632 
0.099974 0.016616 0.04506 0.049006 0.096028 -0.0021268 0.051472 0.0018191 
0.084848 -0.017417 0.031907 0.037661 0.020233 0.014315 0.028619 0.012177 
-0.0026201 -0.014129 0.038319 0.024015 0.047033 0.025001 0.028947 0.01563 
-0.067235 -0.097158 0.036182 0.057062 0.058706 0.051472 0.059035 -0.0034422 
-0.048985 -0.18298 0.038155 0.039141 0.069558 0.054103 0.047362 -0.0019624 
-0.053095 -0.27209 0.031249 0.0092177 0.015794 0.023851 0.020398 0.004943 
0.0062583 -0.28623 0.013657 0.00083261 -0.0075525 0.014479 0.0072447 -0.0077169 
0.084848 -0.1644 0.016288 0.0014903 -0.0082102 -0.00064712 -0.0055795 0.038483 
0.10359 -0.011663 0.025659 0.013821 0.012506 0.023193 0.0046141 0.075641 
0.085177 0.079258 0.034209 0.0013258 0.016616 0.0042853 0.03388 0.06331 
0.041443 0.12233 0.058706 0.031085 0.055747 0.0090533 0.034866 0.067256 
0.0088889 0.070051 0.039305 0.032893 0.041114 0.031578 0.020069 0.046046 
0.015301 0.010369 0.043416 0.037168 0.03092 0.012013 0.040785 0.030098 
0.014479 0.031414 0.0079024 0.007738 0.032071 0.0042853 0.019411 0.010533 
0.021056 0.09833 -0.0095255 0.021713 0.014643 0.025495 0.01415 -0.0072237 
0.020891 0.12792 -0.0072237 0.005765 0.018589 0.011026 0.030263 -0.009361 
0.06331 0.15456 0.0098754 0.023686 0.029769 0.022864 0.0324 0.011191 
0.13631 0.16886 0.034537 0.01152 0.033551 0.029769 -0.00081153 -0.055232 
0.15522 0.15982 0.063145 0.024179 0.013328 0.029605 0.041607 -0.014951 
0.023686 0.053609 0.041772 0.013821 0.029441 0.037661 0.0421 0.0028056 
-0.075784 -0.043066 0.01826 0.022206 0.041114 0.026481 0.029112 -0.0050863 
-0.069372 -0.020706 0.033715 0.04095 0.0421 0.015137 0.035031 0.051472 
-0.10554 0.0085601 0.027961 0.027303 0.045224 0.03799 0.0324 0.10491 
-0.13152 -0.026789 0.046046 0.036017 0.043251 0.031578 0.016781 0.13861 
-0.10686 -0.035667 0.023686 0.01711 0.039963 0.02533 0.035195 0.14535 
0.0062583 -0.083347 -0.00015387 0.035853 0.031085 0.044731 0.039799 0.16278 
0.20454 -0.078744 -0.017911 0.0031344 0.0324 0.016945 0.01826 0.098001 
0.3221 0.022042 0.023193 0.046375 0.028454 -0.0039354 0.026152 0.02533 
0.20898 0.088958 0.03799 0.012013 0.0088889 0.01152 0.013328 -0.022185 
0.039799 0.1322 0.036675 0.019247 0.0093821 0.0036276 0.012835 -0.065426 
-0.11228 0.1128 0.031085 0.01826 0.00099702 0.024179 0.043251 -0.021528 
-0.1547 0.0041209 0.024344 0.019247 0.020233 0.031742 0.042265 0.023851 
-0.091239 -0.029255 0.022206 0.038319 0.020398 0.017438 0.051965 0.036675 
0.16475 0.049006 0.025001 0.048184 0.040456 0.04095 0.065283 0.040292 
0.31536 0.13861 0.034209 0.049992 0.05624 0.030756 0.032893 0.035853 
0.17314 0.20438 0.043251 0.024837 0.038155 0.0092177 0.010533 -0.010183 
0.077778 0.13154 0.044567 0.034209 0.027632 0.028125 0.014315 -0.044381 
-0.029748 -0.0049219 0.061995 0.027796 0.038155 0.023522 0.0085601 -0.058685 
-0.092883 -0.029255 0.056076 0.06035 0.041772 0.021384 0.0069159 -0.041915 
-0.080388 0.021713 0.046211 0.046375 0.067585 0.031907 0.027139 -0.0021268 
-0.31418 0.10178 -0.026624 0.039141 0.071202 0.02681 0.02122 -0.021528 
-0.4809 0.12792 0.041278 0.021878 0.063968 0.015959 -0.0004827 -0.026953 
-0.24349 0.10836 0.023357 0.034702 0.034866 0.02681 0.017932 0.029934 
0.078929 0.12595 0.022042 0.013657 0.00297 0.017274 0.013657 0.049992 
0.21046 0.16673 0.0021479 0.026974 0.051636 0.049499 0.0092177 0.088465 
0.3512 0.20339 0.016616 0.035688 0.028125 0.035195 0.06035 0.11346 
0.44886 0.22328 0.040128 0.054103 0.04506 0.033222 0.049006 0.091753 
0.39247 0.15324 0.055911 0.057884 0.020069 0.037332 0.035524 0.10918 
0.25025 0.03947 0.036839 0.022206 -0.0075525 0.01415 0.041443 0.08978 
0.018918 -0.0039354 0.01004 0.02829 -0.0021268 0.012342 0.017274 0.057062 
-0.21899 0.024673 -0.0032777 0.025495 0.029769 0.031085 0.00297 0.033551 
-0.32356 0.09981 0.005765 0.056076 0.036675 0.019576 0.029276 0.0056006 
-0.21537 0.19796 0.059693 0.062652 0.044073 0.029276 0.026646 -0.0503 
-0.10275 0.22049 0.079587 0.065447 0.061995 0.029605 0.033715 -0.058192 
0.028947 0.21704 0.072188 0.041114 0.073339 0.014479 0.059857 -0.035174 
0.14338 0.20125 0.066763 0.071695 0.054432 0.027303 0.029276 0.0080668 
0.14223 0.13154 0.037497 0.041936 0.037826 0.032564 0.013821 0.025001 
0.055418 0.065447 0.0016547 0.017438 0.0041209 0.004943 0.01974 0.038155 
-0.061316 0.071202 -0.018075 -0.0044286 -0.016102 0.015137 0.00083261 -0.027118 
-0.062631 0.054596 -0.0029489 -0.0027845 -0.0044286 -0.0022913 -0.01117 -0.047834 
-0.042408 0.03536 0.029112 0.016288 0.0039565 0.0039565 0.013986 -0.035338 
0.032564 -0.018404 0.053774 0.022535 0.030263 0.029112 0.017438 0.0023123 
0.25452 -0.00031829 0.058706 0.041278 0.017274 0.015301 0.0098754 0.08978 
0.30944 0.0065871 0.081395 0.044238 0.023193 0.023686 0.033222 0.10507 
0.28445 -0.13103 0.081067 0.066927 0.030756 0.043251 0.031907 0.04095 
0.13417 -0.36844 0.025166 0.00066819 0.014972 0.024179 0.0014903 0.00083261 
-0.13234 -0.41217 -0.055397 0.0085601 0.010369 0.011355 0.02681 -0.038627 
-0.29018 -0.20074 -0.051122 -0.017417 0.030263 0.028783 0.031742 0.0014903 
-0.24529 0.081067 0.027468 0.046046 0.046211 0.018589 0.021549 0.053116 
-0.065097 0.29546 0.096028 0.049006 0.061666 0.047691 0.054432 0.1031 
0.12858 0.29842 0.12316 0.052459 0.049992 0.034702 0.040456 0.16853 
0.26768 0.18366 0.096028 0.033715 0.033715 0.0092177 0.044896 0.1807 
0.23792 0.042594 0.042923 0.018754 0.03092 0.021713 0.056569 0.10359 
0.095864 -0.03912 0.017274 0.011026 0.044073 0.015959 0.043087 0.033551 
-0.025967 -0.0055795 0.007738 0.017438 0.046046 0.018589 0.021713 -0.016595 
-0.05737 -0.010676 -0.011992 0.024673 0.018096 0.026974 0.037332 -0.043395 
-0.11705 -0.084663 -0.031721 -0.0073881 -0.0050863 0.0070803 0.014315 -0.052931 
-0.24151 -0.059178 -0.028104 0.024508 -0.038791 0.00083261 -0.0016336 -0.04882 
-0.17558 0.031907 0.033058 -0.015444 -0.032215 0.0069159 0.025495 -0.097322 
0.0026412 0.07597 0.058377 0.02829 -0.02498 0.0032988 0.0087245 0.010697 
0.19139 0.0065871 0.063474 0.025495 0.010369 -0.0095255 0.0074092 0.034702 
0.30401 -0.075949 0.019411 0.044238 0.035853 0.016616 0.029112 0.06594 
0.28149 -0.060494 0.005765 0.024015 0.073175 0.029112 0.036182 0.087314 
0.30845 0.030098 0.025824 0.059528 0.10047 0.060186 0.039963 0.10145 
0.17462 0.030427 0.04654 0.048019 0.10474 0.030756 0.043745 0.078929 
-0.30629 0.012177 0.03799 0.049499 0.074161 0.03092 0.045718 0.047855 
-0.46429 0.037004 0.01974 0.027303 0.03388 0.028947 0.024344 0.026646 
-0.21488 0.028454 0.012999 0.013328 0.014808 0.020069 0.040292 0.016452 
0.017438 -0.01939 0.015465 0.021713 -0.0047575 -0.0057439 0.019247 -0.037311 
0.068242 -0.070523 1.0539e-005 0.0019835 -0.0072237 0.010862 -0.020377 -0.089266 
0.15094 -0.059507 0.01974 0.013821 0.0060938 0.004943 0.010369 -0.045861 
0.2537 0.0067515 0.031578 0.0072447 -0.013471 0.009711 0.0065871 0.01711 
0.27968 0.029934 0.01711 0.039141 0.0062583 0.028783 0.012177 0.067913 
0.20208 0.035524 0.0082312 0.012177 0.025659 0.020562 0.044731 0.073175 
0.099152 0.082217 0.012835 0.060186 0.044238 0.039634 0.035524 0.064132 
0.0060938 0.086163 0.050486 0.02681 0.047362 0.033715 0.026481 0.015137 
-0.069865 0.068407 0.058377 0.0324 0.049828 0.019083 0.039634 0.012835 
-0.1381 0.038648 0.051308 0.03388 0.054596 0.045882 0.032893 0.030592 
-0.051122 0.068078 0.076299 0.023357 0.049664 0.039634 0.034537 0.069886 
0.10343 0.099316 0.097508 0.037332 0.043909 0.054103 0.039141 0.087643 
0.13532 0.11313 0.094384 0.035853 0.03651 0.038977 0.043416 0.10885 
0.027139 0.057391 0.043745 0.025001 0.0036276 0.019905 0.036346 0.088136 
-0.066084 0.01152 0.042429 0.021056 0.010204 0.015794 0.038319 0.041936 
-0.023501 0.055418 0.039799 0.029441 0.012835 0.046375 0.022864 0.012342 
0.012506 0.079422 0.022864 0.018096 0.021549 0.012342 0.022864 0.053609 
0.00017495 0.10096 -0.0014692 0.036017 0.034209 0.031414 0.024015 0.0088889 
0.034537 0.061501 0.026974 0.011026 0.014972 0.036017 0.016616 -0.022843 
0.080244 0.081067 0.051965 0.052459 0.010204 0.015465 0.010204 -0.037969 
0.076792 0.10672 0.053938 0.034866 0.027468 0.038812 0.030592 -0.0096899 
0.069886 0.091425 0.054432 0.068736 0.026317 0.031907 0.014808 -0.027775 
0.049006 0.080244 0.0324 0.042265 0.037826 0.02122 0.0093821 -0.011005 
0.098988 0.12661 0.049828 0.049664 0.037497 0.029112 0.046704 0.020398 
0.16673 0.16936 0.034702 0.024344 0.033222 0.022042 0.031907 0.013986 
0.18136 0.15341 0.052952 0.045224 0.049992 0.025001 0.037332 0.0060938 
0.11198 0.1077 0.029934 0.040292 0.055911 0.038319 0.039634 0.028125 
0.035853 0.018425 0.016452 0.026152 0.04358 0.021056 0.012177 0.020069 
-0.074633 -0.011827 0.0062583 0.038319 0.020891 0.0070803 0.0083956 0.0421 
-0.079895 0.026646 0.0046141 0.024508 0.013986 0.014479 0.040621 0.055582 
-0.097816 0.011191 0.045882 0.039634 0.012342 0.016945 0.028454 0.029934 
-0.18495 -0.030077 0.022371 0.015465 0.0044497 0.023522 0.01415 0.031907 
-0.1866 -0.027611 -0.014787 0.02829 0.012177 0.017932 0.044238 0.08304 
0.10211 0.041936 0.0044497 -0.0068948 -0.0027845 0.025824 0.048348 0.094055 
0.37241 0.080409 0.025824 0.03536 0.015794 0.062981 0.035031 0.085177 
0.29217 0.010533 0.037332 0.041278 0.03536 0.044731 0.056733 0.055911 
0.11395 -0.045532 -0.012485 0.062981 0.0689 0.041114 0.038483 0.043745 
0.087972 0.0032988 0.0070803 0.038648 0.075148 0.046868 0.034373 0.069229 
0.17692 0.09981 0.048677 0.017438 0.067091 0.033058 0.064132 0.011355 
0.14404 0.11247 0.065776 0.041772 0.04095 0.011848 0.024508 -0.012156 
0.028454 0.11033 0.051636 0.0093821 0.025001 0.012177 0.0090533 -0.0039354 
-0.011663 0.060022 0.069229 0.023028 0.0021479 -0.00097594 0.032071 0.025988 
-0.028433 0.03536 0.060186 0.016781 -0.0013048 0.015959 0.025988 0.058706 
-0.082032 0.038319 0.049335 0.03651 0.0083956 0.011848 0.016123 0.055582 
-0.08384 0.025824 0.03388 0.018425 0.022864 0.014643 0.022535 0.027961 
-0.11755 0.046211 0.011355 0.036839 0.020398 0.02681 0.013821 -0.001798 
-0.14319 0.03799 0.020891 0.024837 -0.0098543 0.016781 0.0088889 0.0069159 
-0.10242 -0.049971 -0.00097594 0.041607 -0.012485 -0.0011404 0.026974 -0.011334 
-0.03501 -0.056548 -0.010676 0.011684 0.0079024 0.025659 0.034537 0.0088889 
-0.013471 -0.042901 -0.0050863 0.012177 0.013986 0.0062583 0.0090533 0.004943 
0.020069 0.039963 0.04095 0.0047785 0.0032988 0.0037921 0.045882 -0.001798 
0.029276 0.11987 0.043416 0.0075736 0.0056006 0.029441 0.044567 0.0039565 
0.0098754 0.095535 0.024673 0.019411 0.020562 0.014479 0.034866 0.0067515 
-0.10275 0.068571 0.010862 0.027632 0.031414 0.01415 0.053445 0.0014903 
-0.11228 0.093233 0.0052718 0.031742 0.042429 0.020727 0.029276 0.034866 
0.19533 0.070544 0.0090533 0.020562 0.048019 0.020398 0.016945 0.087314 
0.53518 0.068407 0.0044497 0.049006 0.050979 0.047197 0.066269 0.13302 
0.41696 0.038483 0.011026 0.03651 0.024179 0.037004 0.033222 0.066598 
0.034702 -0.038462 0.014808 0.052787 0.018096 0.0059294 0.013328 -0.049807 
-0.25598 -0.11278 0.00017495 0.0041209 -0.0098543 0.015137 0.027632 -0.070523 
-0.30794 -0.064111 -0.017911 0.054925 0.023193 0.012835 0.0056006 -0.031392 
-0.17969 0.063474 -0.0087034 -0.0059084 0.026974 0.0080668 0.0026412 0.030263 
-0.056055 0.17248 0.025988 0.035688 0.0098754 0.015959 0.022371 0.032893 
-0.022514 0.11888 0.050814 0.031578 0.01267 0.0034632 0.013164 0.055582 
0.0026412 0.035524 0.034537 0.01711 0.020398 0.01267 0.0098754 0.021384 
0.10491 0.055747 0.039141 0.0054362 0.012013 0.026152 0.045882 0.040292 
0.38227 0.084355 0.033715 0.0082312 0.016288 0.022042 0.01974 0.066269 
0.3655 0.087479 0.027303 0.023357 0.025659 0.017603 0.023028 0.037004 
0.06331 0.060679 0.028619 0.0079024 0.032564 0.038483 0.046868 0.029605 
-0.15191 0.043909 -0.019884 0.061337 0.039799 0.03947 0.028783 0.0028056 
-0.23559 -0.049478 0.039634 0.021878 0.049335 0.032564 0.013164 -0.047834 
-0.25171 -0.014622 0.01826 0.061337 0.035524 0.031742 0.033387 -0.024652 
-0.17345 -0.039778 0.058049 0.03388 0.012506 0.03947 -0.0039354 0.0044497 
0.037168 0.03388 0.054103 0.061666 0.026974 0.04095 0.022206 0.00083261 
0.16327 0.078436 0.06035 0.060515 0.050979 0.014479 0.04506 0.027139 
0.2218 0.061666 0.04506 0.042923 0.042265 0.021384 0.017932 0.0041209 
0.19007 0.090767 0.030592 0.017932 0.034044 0.034044 0.019247 -0.012814 
0.1562 0.12924 0.061995 0.023851 0.021384 0.023357 0.03651 0.020233 
0.062652 0.12677 0.051472 0.02533 0.042594 0.038648 0.019411 0.028947 
-0.036983 0.067749 0.029276 0.038812 0.035688 0.034373 0.015301 0.030427 
-0.15224 0.047197 -0.0057439 0.030756 0.034209 0.018754 0.050321 0.09422 
-0.2208 0.028783 0.016781 0.035853 0.035688 0.024344 0.033715 0.076792 
-0.12429 0.015794 0.031249 0.051965 0.03651 0.020398 0.05213 0.076956 
0.018096 0.031742 0.04358 0.023028 0.047197 0.036346 0.05065 0.089123 
0.10195 0.063803 0.085012 0.06035 0.055418 0.043745 0.031414 0.062981 
0.095371 0.073175 0.073339 0.043745 0.024344 0.024344 0.023357 0.019083 
0.11707 0.061666 0.053281 0.070544 0.013657 0.011355 0.019411 0.0032988 
0.21983 0.054103 0.030592 0.031578 0.014479 0.031907 0.016123 -0.013143 
0.24696 0.048184 0.015794 0.061337 0.051143 0.031907 0.0018191 0.0092177 
0.25518 0.079094 0.0065871 0.03651 0.046046 0.025988 0.051636 0.047362 
0.27031 0.11231 0.030592 0.071695 0.018425 0.042429 0.03536 0.062652 
0.25765 0.11083 0.028783 0.031742 0.018096 0.023522 0.014479 0.048184 
0.24005 0.084848 0.019247 0.0098754 -0.0013048 0.019247 0.028454 0.023522 
0.12628 0.12168 0.013821 -0.0075525 -0.016266 0.00033937 0.0047785 0.0052718 
-0.22145 0.050979 0.00017495 -0.0091966 -0.0034422 -0.0016336 0.005765 0.0019835 
-0.59944 -0.084663 -0.0072237 0.020233 -0.0054151 -0.01232 0.0074092 -0.008539 
-0.66208 -0.24908 -0.038462 0.0083956 0.016452 0.0098754 0.0013258 -0.036818 
-0.3326 -0.17789 0.015137 0.045882 0.051801 0.015465 0.017767 0.020398 
0.18383 0.079422 0.096028 0.059364 0.085506 0.054432 0.084848 0.11609 
0.4852 0.24449 0.10869 0.097837 0.09833 0.05624 0.07301 0.1516 
0.42666 0.19122 0.06479 0.061666 0.077449 0.048019 0.066105 0.15144 
0.16015 0.068736 -0.0087034 0.060679 0.04654 0.042429 0.068571 0.073997 
-0.11886 0.023193 0.016452 0.010369 0.0026412 -0.00031829 0.02122 0.010204 
-0.17723 0.068571 0.059857 0.022206 -0.020377 -0.006566 -0.011827 -0.011827 
-0.11968 0.072517 0.076463 -0.0031133 0.00050378 0.015959 0.016288 -0.039942 
-0.14434 0.02681 0.08008 0.0044497 0.038319 0.00083261 -0.0024557 0.00050378 
-0.12823 0.0087245 0.083368 0.026481 0.021549 0.0046141 0.017438 0.043251 
0.039305 0.034866 0.050486 0.047362 0.0046141 0.025001 0.062981 0.065612 
0.27968 0.031907 0.030427 0.035688 0.015794 0.0088889 0.044567 0.06742 
0.34528 0.016781 0.038155 0.034209 0.085506 0.063639 0.048513 0.073997 
0.17265 -0.051615 -0.015444 0.009711 -0.0004827 0.033058 0.047033 0.024673 
-0.092226 -0.038791 0.0093821 0.030263 0.031742 0.019576 0.05624 0.009711 
-0.21767 0.044238 0.023851 0.052459 0.031249 0.037168 0.017603 -0.017582 
-0.12757 0.12135 0.022371 0.027796 0.041278 0.015301 0.041443 0.01826 
0.062323 0.050814 -0.01117 0.044731 0.048019 0.0014903 0.0036276 0.086821 
0.47188 -0.014129 -0.045696 0.0079024 0.01267 0.019576 0.015301 0.12151 
0.52137 -0.02087 -0.016924 0.032729 -0.0075525 -0.02087 0.043909 0.07301 
-0.010348 -0.021034 0.0034632 -0.0059084 -0.022021 -0.003771 0.032893 0.012013 
-0.3663 0.069558 0.0065871 0.010697 -0.019555 0.013328 0.033058 -0.01528 
-0.27423 0.083697 0.047197 0.028125 -0.0024557 0.010862 0.050157 0.024673 
-0.084498 0.059035 0.048513 0.013164 0.019247 0.0082312 0.027303 0.01974 
-0.06444 0.10688 0.050979 0.033551 0.034044 0.0090533 0.021056 -0.0083746 
-0.26683 0.087314 0.043909 0.0082312 0.048841 0.023686 0.04917 -0.042901 
-0.29758 0.061337 0.00297 0.051965 0.072681 0.046046 0.038812 -0.025309 
0.059528 0.067585 -0.033694 0.034373 0.077943 0.039634 0.032729 -0.018075 
0.37076 0.042429 -0.025967 0.034537 0.063145 0.032729 0.045389 0.0052718 
0.3466 0.025824 0.028783 0.034373 0.039799 0.036017 0.018754 0.048184 
0.071366 0.040292 0.030756 0.060844 0.044731 0.0079024 0.016123 0.043087 
-0.1723 0.015301 0.035031 0.038155 0.047033 -0.0016336 0.037004 0.098166 
-0.18775 0.028947 0.046375 0.058542 0.0421 0.032236 0.036346 0.12266 
-0.12511 -0.0073881 0.047362 0.021056 0.014972 0.026974 0.029769 0.044567 
-0.041751 -0.054575 0.040621 0.014808 -0.012814 0.016123 0.050814 -0.0077169 
0.21276 -0.010019 0.031578 -0.008539 -0.026131 0.024015 0.044073 -0.024487 
0.49161 -0.032379 0.015959 -0.0011404 -0.020212 0.0047785 0.045389 -0.041422 
0.42634 0.015137 0.058706 0.025166 0.014479 0.015137 0.026481 -0.053095 
0.20208 0.11428 0.091096 0.032893 0.034373 0.022371 0.0065871 0.0067515 
0.10967 0.1807 0.10113 0.051636 0.041772 0.031742 0.0051074 0.059364 
0.050157 0.12431 0.035688 0.036839 0.05213 0.041114 0.018096 0.088301 
0.1179 0.10293 -0.0055795 0.036839 0.035853 0.014808 -0.032872 0.073504 
0.10704 0.14437 0.0023123 0.010697 0.019905 0.017274 -0.03912 0.04358 
-0.064111 0.13138 0.025166 0.033222 0.023851 0.040456 -0.044052 -0.020048 
-0.14615 0.13335 0.020891 0.030756 0.03947 0.032729 -0.022843 -0.05885 
-0.076935 0.10458 0.046211 0.067256 0.045882 0.031085 0.048677 -0.034023 
-0.074633 0.093069 0.018918 0.041772 0.059035 0.061501 0.10524 -0.0034422 
-0.14977 0.015794 0.025824 0.047691 0.027303 0.039963 0.093891 0.015301 
-0.17986 -0.032543 0.045882 0.027961 0.005765 0.039634 0.082546 0.029934 
-0.032708 0.0028056 0.051308 0.021713 -0.006566 0.030592 0.071859 0.097344 
0.12628 0.055747 0.045718 0.010862 0.012999 0.018754 0.037661 0.087808 
0.15604 0.070708 0.030427 0.018918 0.023522 0.027468 0.013657 0.096357 
0.1927 0.11477 0.011684 0.028783 0.012177 0.072681 0.07449 0.097179 
0.17906 0.12842 0.039305 0.033715 0.038155 0.023851 0.025988 0.1008 
0.10589 0.12595 0.046211 0.043745 0.018589 0.036182 -0.012156 0.0592 
-0.017746 0.048841 0.035853 0.021878 0.016288 0.02122 0.0070803 0.023193 
0.066434 -0.034188 0.011848 0.035853 0.03947 0.015794 0.0019835 -0.0034422 
0.34676 -0.025309 -0.011992 0.0088889 0.036346 0.024179 -0.02646 -0.0067304 
0.43752 0.054103 -0.012485 0.042923 0.041607 0.01563 0.004943 -0.048656 
-0.0047575 0.087808 0.032564 0.020562 0.041443 0.0041209 0.01826 -0.10571 
-0.53729 0.011848 0.035031 0.052294 0.045718 0.054103 0.026317 -0.056219 
-0.5322 -0.13481 0.025001 0.034373 0.037004 0.034209 0.052623 0.0074092 
-0.11343 -0.24349 0.016945 0.020727 0.020727 0.027139 0.01826 0.015301 
0.15456 -0.15355 0.015301 0.00083261 0.0014903 0.0087245 0.013164 0.034209 
0.23529 -0.0082102 0.027303 0.0067515 -0.0096899 0.0062583 0.033551 0.015465 
0.32243 0.10195 0.064625 0.024508 -0.0024557 0.015959 0.021878 0.032729 
0.34939 0.19846 0.049828 0.020727 -0.011005 0.024673 0.020069 0.071859 
0.22476 0.19501 0.049828 0.026152 -0.0095255 0.032893 0.043087 0.10672 
0.035688 0.11987 0.053116 0.024508 0.019905 0.046375 0.062323 0.11148 
0.0072447 0.10129 0.056569 0.044402 0.030427 0.038977 0.049992 0.15078 
0.024179 0.088301 0.066763 0.016945 0.048184 0.026646 0.056404 0.12283 
-0.036325 0.061172 0.069558 0.049499 0.034702 0.01711 0.011684 0.088136 
-0.22918 0.0090533 0.057227 0.020069 0.043909 0.0013258 0.01711 0.019247 
-0.3377 -0.077264 0.052787 0.041114 0.023686 -0.001798 0.040785 -0.017911 
-0.24825 -0.063289 0.045553 0.021878 0.017767 0.0227 0.030263 -0.030899 
-0.042737 -0.012156 0.010369 0.03536 0.019576 0.015137 0.01974 0.017767 
0.15735 0.015301 0.014643 0.01563 0.02681 0.019247 0.048019 0.015301 
0.27212 0.0031344 0.0098754 0.026974 0.033715 0.038977 0.035688 0.030427 
0.25896 -0.006566 0.0085601 0.035031 0.043745 0.015301 0.025659 0.01974 
0.18613 0.04506 0.020069 0.036182 0.040128 0.030427 0.051308 -0.012814 
0.04654 0.13351 0.031907 0.037004 0.025166 0.018425 0.038319 -0.03764 
-0.066906 0.094055 0.01563 0.026646 0.016616 0.020727 0.047526 -0.020048 
-0.12823 0.015301 0.0044497 0.045389 0.030098 0.053445 0.049664 -0.0032777 
-0.037147 0.037497 0.030263 0.016945 0.023522 0.024179 0.036182 0.014808 
0.0786 0.0227 0.034209 0.026317 0.0093821 -0.0016336 0.024179 0.036346 
-0.034516 -0.03501 0.025659 0.012835 0.025001 0.017767 0.044731 0.017932 
-0.13218 -0.031886 0.019905 0.040128 0.01974 0.020398 0.037826 0.049499 
-0.11541 0.040128 0.046375 0.021713 0.039799 0.019576 0.036839 0.073339 
0.017932 0.11839 0.077614 0.061995 0.038648 0.041114 0.072188 0.093398 
0.14256 0.11148 0.041114 0.022535 0.048019 0.0065871 0.037826 0.10918 
0.14371 0.038155 -0.017911 0.027796 0.039634 -0.010348 0.01974 0.094384 
0.047197 0.032564 -0.011005 0.03651 0.019083 0.02533 0.043416 0.032071 
0.077614 0.049335 0.01826 0.034537 0.080573 -0.024487 0.045882 0.021549 
0.19599 0.072846 0.070708 0.051308 0.054596 0.040456 0.031414 -0.00015387 
0.13105 0.082546 0.10556 0.051636 0.096028 0.056898 0.070873 0.00033937 
-0.29429 -0.12593 0.037168 0.053445 0.048841 0.030427 0.026974 -0.03501 
-0.43223 -0.16802 -0.009361 0.0075736 0.031578 0.035031 0.0093821 -0.072167 
-0.061645 0.049006 0.0075736 0.025001 -0.0029489 0.0028056 0.025824 -0.028269 
0.27853 0.10606 0.02681 0.0042853 -0.015444 -0.0068948 0.012177 0.051472 
0.18218 0.014643 0.02122 0.012999 -0.0096899 0.022371 -0.0072237 0.015959 
-0.088444 0.024015 0.009711 -0.0095255 -0.0055795 0.012013 0.037661 0.020891 
-0.019061 0.20701 0.053938 0.030427 0.012835 0.036017 0.010204 0.025659 
0.23923 0.34018 0.09833 0.043909 0.051801 0.02829 0.0016547 0.040128 
0.3729 0.27853 0.075805 0.040621 0.072024 0.02122 0.020891 0.051308 
0.23841 0.077778 0.059035 0.038812 0.070873 0.021384 0.0036276 0.073832 
0.034537 0.016781 0.040456 0.037661 0.049828 0.024508 0.016452 0.056569 
0.053445 0.064954 0.066434 0.042923 0.034373 0.013986 0.031742 0.020727 
-0.055726 0.076627 0.073504 0.039799 0.029605 0.046704 0.0080668 -0.032543 
-0.47071 0.030756 0.029934 0.046046 0.02829 0.036675 0.01267 -0.068057 
-0.77635 -0.12018 -0.010512 0.040785 0.029441 0.0059294 0.03388 -0.032215 
-0.51625 -0.157 -0.008539 0.0592 0.027632 0.035853 0.027468 0.038155 
0.04917 -0.065426 0.00066819 0.014479 0.019576 0.0046141 0.02829 0.08863 
0.38786 1.0539e-005 0.011191 0.025495 0.0047785 0.02122 0.036839 0.084519 
0.49029 0.078272 0.0070803 0.00066819 0.00033937 0.029769 0.016123 0.045224 
0.35334 0.1613 0.023522 0.037826 0.019247 0.01563 0.030263 0.073504 
0.14519 0.18284 0.056404 0.025988 0.0227 0.024673 0.054925 0.10145 
-0.013307 0.13943 0.056898 0.040128 0.033715 0.032071 0.02829 0.096686 
-0.034188 0.086163 0.042758 0.021056 0.036839 0.028454 -0.00064712 0.11494 
-0.037311 0.028947 0.063145 0.020562 0.035031 0.019411 0.030263 0.13286 
-0.0072237 0.0070803 0.033222 0.03388 0.03947 0.027468 0.0088889 0.07597 
0.007738 -0.079237 -0.0138 0.024508 0.027468 -0.0042642 -0.013965 -0.0098543 
0.042758 -0.13925 -0.05737 0.026974 0.040128 0.025166 -0.0021268 -0.073154 
0.051636 -0.10702 -0.065919 -0.006566 0.022042 -0.0039354 -0.022021 -0.10045 
0.08419 -0.0004827 -0.035503 0.0037921 -0.0059084 0.00297 -0.012814 -0.060329 
0.15768 0.20586 0.005765 0.0064227 0.016452 0.022371 0.035688 0.026481 
0.16903 0.31585 0.054596 0.050321 0.027303 0.020398 0.016123 0.045882 
0.051801 0.21572 0.082546 0.03651 0.040621 0.0059294 0.017603 0.048019 
-0.035338 0.10918 0.055911 0.057391 0.038977 0.02122 0.038648 0.053774 
0.050486 0.02122 0.041772 0.019905 0.041443 0.013492 0.029112 0.049335 
0.10803 0.0090533 0.031742 0.029605 0.027632 0.01974 0.015137 0.060515 
0.040128 0.01152 0.048184 0.040456 0.048677 0.033715 0.069393 0.044731 
-0.16473 -0.061316 0.055089 0.039634 0.049992 0.021713 0.035524 0.031578 
-0.22458 -0.10554 0.077943 0.072024 0.020562 0.059857 0.052294 -0.0090322 
-0.11607 -0.02646 0.072188 0.014808 0.033551 0.0227 0.041772 -0.014129 
0.1054 0.092082 0.076299 -0.055726 -0.0095255 0.043087 0.011684 -0.039284 
0.26521 0.20092 0.073504 0.0059294 0.012342 0.0092177 0.0085601 -0.013143 
0.27294 0.18711 0.020562 0.036839 0.0019835 0.018918 0.043251 0.018918 
0.20471 0.058049 -0.0016336 0.0227 0.036346 0.011355 0.038977 0.069393 
0.052294 -0.028269 -0.02235 0.076134 0.055254 0.048019 0.047526 0.087643 
-0.075949 -0.079895 -0.010019 0.032071 0.045718 0.030592 0.051143 0.055089 
0.053281 -0.064275 0.0044497 0.062981 0.033222 0.018425 0.029934 0.058213 
0.15078 0.010204 0.0092177 0.016288 0.020398 0.023686 -0.010019 0.073339 
0.050321 0.098659 0.034537 0.028619 0.010862 0.01267 0.031414 0.060022 
-0.012814 0.10556 0.060515 -0.02646 -0.017746 0.015137 0.03799 0.033551 
0.045553 0.096193 0.042758 0.0075736 0.017438 0.012999 0.018589 0.04654 
0.0054362 0.058871 0.024344 0.036346 0.056569 0.018589 0.054596 0.043909 
-0.011992 0.013164 0.039963 0.037826 0.066927 0.033222 0.051636 0.0062583 
-0.001798 0.048184 0.040128 0.019576 0.03388 0.051472 0.044567 0.0028056 
0.013986 0.044238 0.040128 0.014643 0.02681 0.021713 0.060515 0.004943 
-0.0087034 0.011355 0.036017 0.030263 0.022206 0.039963 0.056404 0.0093821 
0.024344 0.028454 0.02533 0.019576 0.024837 0.011848 0.029934 -0.026789 
0.15801 0.020069 0.0051074 0.040292 0.019411 0.0065871 0.035195 -0.082361 
0.29892 0.097837 -0.0138 -0.0087034 0.0011614 0.0092177 0.00083261 -0.082032 
0.26258 0.20257 -0.020377 0.018754 0.00083261 -0.0050863 -0.013471 -0.062631 
0.086163 0.11872 0.0023123 0.0011614 0.0013258 0.0065871 0.032071 -0.049478 
-0.042079 0.044402 -0.010676 0.050321 -0.0019624 0.037826 0.033387 0.015301 
-0.07825 0.077285 0.02829 0.026152 0.016452 0.028454 0.02829 0.053938 
-0.040928 0.098988 0.053609 0.029605 0.023028 0.010204 0.05476 0.10524 
0.0098754 0.076299 0.064296 0.025495 0.031085 0.022206 0.050486 0.11461 
-0.015773 0.055747 0.069229 0.031742 0.038977 0.01826 0.029441 0.078765 
-0.059507 -0.038956 0.038812 0.040621 0.054925 0.027796 0.044402 0.047197 
-0.07825 -0.0965 0.029112 0.024015 0.053116 0.033222 0.014479 0.010862 
0.00297 -0.077593 0.040128 0.059364 0.033222 0.018096 0.024673 -0.032543 
0.069229 -0.060658 0.057391 0.044402 0.039634 0.042265 0.029276 -0.010512 
0.1294 0.036182 0.063639 0.058213 0.035195 0.045224 0.02533 0.058377 
0.1544 0.090438 0.060679 0.031249 0.011355 0.032564 0.036182 0.047197 
0.13335 0.13615 0.073997 0.050814 0.014315 0.034044 0.039799 0.046046 
0.14354 0.18267 0.087479 0.013821 0.017767 0.009711 0.028454 0.027796 
0.13384 0.076627 0.063968 0.033387 0.0032988 0.0052718 0.023028 0.0092177 
0.03092 -0.0042642 0.030592 0.026152 0.016781 0.021713 0.035688 0.028125 
-0.15996 0.011026 0.023357 0.038812 0.013492 0.013657 0.0083956 0.017932 
-0.34756 0.030098 0.025166 0.012013 -0.0057439 0.014972 0.00017495 -0.0029489 
-0.45969 0.060186 0.043909 -0.012649 -0.021528 0.01415 0.05772 0.0041209 
-0.44325 0.024344 0.0075736 0.023028 0.010533 0.015137 0.0014903 -0.013636 
-0.063618 0.0041209 -0.0082102 0.023686 0.052952 0.059693 -0.038956 0.031578 
0.21375 0.02681 0.0036276 0.051965 0.056404 0.039963 0.049992 0.086492 
0.32062 0.046868 0.059035 0.079751 0.073175 0.016288 0.039634 0.071202 
0.28428 0.052623 0.053938 0.057227 0.043251 0.049335 0.03651 0.04917 
0.20651 0.01004 0.046211 0.017274 0.020398 0.06183 0.058871 0.048677 
0.090603 -0.084005 0.0054362 0.036182 0.028783 0.027632 0.02829 0.0031344 
0.063639 -0.099953 -0.009361 0.018425 0.015137 0.028454 0.014479 -0.0004827 
0.1807 0.082053 0.0085601 0.037332 0.013328 -0.0064016 0.035853 0.036182 
0.21901 0.20175 0.066269 0.023522 0.0075736 0.01267 0.022042 0.060679 
0.097179 0.16903 0.091589 0.020398 0.01267 0.025659 0.019247 0.11576 
-0.12922 0.074654 0.059035 0.014479 0.01267 0.025166 0.052459 0.11609 
-0.13843 -0.016431 -0.013636 0.014972 0.0032988 0.021056 0.026974 0.08419 
0.0062583 -0.041586 -0.039449 0.017767 0.033715 0.015959 0.013328 0.032236 
0.067256 0.0082312 -0.01939 0.026152 0.045882 0.0046141 0.032893 0.034044 
0.0056006 0.020891 0.022371 0.030098 0.038812 0.023357 0.013986 0.00033937 
-0.11393 -0.010841 0.022371 0.03799 0.031249 0.0098754 0.0011614 -0.0011404 
-0.32323 -0.006566 0.032564 0.041936 0.039799 0.012013 0.0227 -0.01939 
-0.40691 -0.013307 0.044896 0.037497 0.057391 0.057391 0.016288 -0.016431 
-0.19729 -0.014622 0.048019 0.053938 0.03651 0.029441 0.016781 0.040292 
0.18547 0.0041209 0.049006 0.028783 0.026481 0.035853 0.051472 0.063639 
0.32407 0.0052718 0.034702 0.053445 0.025166 0.037497 0.034373 0.048019 
0.12957 0.029112 0.035524 0.036346 0.036839 0.016452 0.026317 0.013492 
-0.12133 -0.026624 0.01267 0.030427 0.0090533 0.021713 0.049335 -0.0087034 
-0.075784 0.007738 0.027139 0.031907 0.036346 0.025988 0.02681 -0.0004827 
0.083204 0.08419 0.052623 0.03799 0.01974 0.02533 0.018754 0.028619 
0.1613 0.093726 0.049335 0.021878 0.014479 0.031742 0.049006 0.056733 
0.12053 0.10721 0.054432 0.017603 0.015137 0.026481 0.035688 0.087643 
0.075148 0.10195 0.048841 0.026646 0.024673 0.01563 0.023357 0.068736 
0.074654 0.070051 0.052952 0.0079024 0.020233 0.018589 0.048841 0.03651 
0.11494 0.1031 0.031907 0.040785 0.014479 0.020398 0.026481 0.060679 
0.23183 0.086657 0.024179 0.0046141 0.019411 0.019411 0.027961 0.09981 
0.27458 0.085506 0.023193 0.039305 0.019411 0.036346 0.052623 0.077449 
0.22674 0.14453 0.03947 0.022864 0.030098 0.019411 0.028783 0.056898 
0.024015 0.087972 0.036346 0.040621 0.02122 0.010697 0.026317 0.046375 
-0.31353 -0.060165 -0.030899 0.018918 0.036839 0.031414 0.036839 -0.0040998 
-0.47399 -0.18463 -0.075291 0.022371 0.044238 0.01004 0.0044497 -0.027447 
-0.24595 -0.16259 -0.034352 0.016616 0.036346 -0.00064712 0.009711 -0.029584 
0.014479 -0.021692 0.024015 0.03092 0.036675 0.02681 0.027961 -0.018404 
0.12694 0.12513 0.058542 0.056733 0.043087 0.018589 0.086163 0.025166 
0.18366 0.15916 0.073504 0.037661 0.026152 0.023028 0.028125 0.023028 
0.26406 0.18662 0.082875 0.029112 0.028947 0.0079024 0.061501 0.057062 
0.33525 0.20043 0.058706 0.026974 0.016452 0.020069 0.030098 0.037826 
0.22855 0.12497 0.0065871 0.023357 -0.00064712 -0.0021268 -0.0022913 0.044402 
-0.0064016 -0.0087034 -0.011992 -0.006566 0.0028056 0.004943 0.033387 0.013164 
-0.18068 -0.045203 0.009711 0.013328 0.0042853 0.015959 0.028783 0.0098754 
-0.1279 0.015301 0.0227 0.0075736 0.02533 0.027303 0.023193 0.038155 
0.039634 0.14667 0.03092 0.072517 0.062323 0.014643 0.041278 0.031249 
0.11691 0.12184 0.067256 0.04917 0.065612 0.01004 0.0075736 0.0046141 
0.04095 0.028947 0.063968 0.062817 0.043745 0.037004 0.0016547 -0.02794 
-0.018239 -0.069208 0.029112 0.019247 0.026974 0.039141 0.013164 -0.037147 
0.0028056 -0.12133 0.00099702 0.0092177 0.012506 0.019905 -0.0034422 0.023357 
0.10836 -0.0016336 0.028125 -0.01528 0.0052718 0.0051074 0.01711 0.034866 
0.12398 0.15472 0.043909 0.013164 0.019247 0.012506 0.045718 0.042594 
0.036839 0.11658 0.040456 0.0227 0.0023123 0.048513 0.043745 0.043909 
0.0037921 0.031907 0.034209 0.032564 0.028947 0.031578 0.04358 0.015465 
0.031742 0.022371 0.042758 0.048513 0.03092 0.0042853 0.047033 0.016288 
0.085999 0.024837 0.06183 0.041278 0.075476 0.043909 0.029441 0.0060938 
0.10787 0.12792 0.09685 0.060844 0.069558 0.043416 0.030263 -0.020212 
0.10589 0.16607 0.081889 0.031578 0.053116 0.020398 0.034702 0.010697 
0.083862 0.13532 0.048841 0.042429 0.05476 0.036675 0.0227 0.061501 
0.063803 0.088136 0.014479 0.019905 0.044896 0.023522 0.024344 0.066598 
0.01826 0.049828 0.013657 0.0592 0.024344 0.012177 0.034537 0.065776 
-0.035667 0.038648 0.036675 0.02681 0.017932 0.037332 0.027139 0.061337 
-0.037969 0.085012 0.048348 0.048513 0.035688 0.021056 0.022371 0.044073 
-0.061809 0.013657 0.0037921 0.017932 0.034044 0.021056 0.047362 0.032236 
-0.039778 0.0075736 -0.038627 0.016288 0.034537 0.023522 0.023357 0.010369 
0.1761 0.041936 -0.023665 0.021878 0.034537 0.021056 0.027632 0.026481 
0.3512 0.025824 0.0018191 0.0092177 0.015301 0.041114 0.035195 0.069393 
0.17248 -0.037147 0.020562 0.019905 -0.0032777 0.023851 0.028454 0.051308 
-0.10176 -0.040928 0.023357 0.012177 -0.0031133 0.010369 0.016288 0.010697 
-0.23806 -0.00081153 0.01563 0.044238 0.0085601 0.018096 0.028619 -0.0024557 
-0.10324 0.071037 0.004943 0.016945 0.015137 0.016616 0.00099702 -0.031064 
0.048019 0.10589 0.011684 0.033058 0.020398 0.00050378 0.013164 -0.0021268 
0.0064227 0.11559 0.055582 0.013821 0.037332 0.025988 0.035195 0.026317 
-0.13119 0.10244 0.055254 0.045718 0.027468 0.021384 0.025824 0.0074092 
-0.30054 0.071531 0.050321 0.012342 0.031085 0.021056 0.03799 0.044238 
-0.24595 0.1151 0.039634 0.044238 0.051308 0.051636 0.077121 0.085012 
0.18596 0.09833 0.037168 0.058871 0.0786 0.033222 0.051636 0.065447 
0.72261 0.00017495 0.015794 0.046704 0.070708 0.029276 0.013492 0.12398 
0.82997 -0.056383 0.013986 0.038483 0.040128 0.047362 0.050321 0.054432 
0.65882 -0.045039 -0.034352 -0.016266 0.030592 0.038319 0.0075736 -0.0138 
0.23611 0.027303 0.010862 0.011026 0.0023123 0.010533 -0.00097594 -0.044381 
-0.33276 -0.010019 -0.0004827 -0.012814 -0.0095255 0.011026 0.046211 -0.016102 
-0.66965 -0.068714 -0.0054151 0.0065871 -0.012814 -0.00031829 0.0085601 0.013328 
-0.77882 -0.063124 0.033387 0.014479 0.027468 0.023357 0.0036276 0.038812 
-0.7724 0.01974 0.059857 0.034537 0.029605 0.025824 0.050486 0.031907 
-0.43042 0.11642 0.094384 0.040456 0.045718 0.035524 0.04654 0.048677 
0.17265 0.14897 0.090931 0.054103 0.0421 0.041936 0.037826 0.0786 
0.57743 0.14338 0.066105 0.02533 0.047033 0.016781 0.037332 0.078107 
0.56379 0.063145 0.050814 0.051636 0.053116 0.017438 0.034702 0.089452 
0.35383 0.02829 0.057391 0.033387 0.043909 0.027303 0.033222 0.092411 
0.1562 0.0087245 0.028619 0.031578 0.0026412 0.014643 0.05476 0.063474 
-0.025474 -0.033694 0.0069159 0.010204 0.014315 0.013986 0.021878 0.024508 
-0.11623 -0.049149 0.017603 -0.0026201 -0.004593 0.010533 1.0539e-005 0.017603 
-0.10209 -0.052766 -0.0087034 0.016452 0.0019835 -0.0027845 0.019411 -0.0055795 
-0.18512 -0.11672 0.005765 0.018425 0.0046141 0.013492 -0.001798 0.0090533 
-0.1935 0.0074092 -0.0077169 0.042265 0.009711 0.025988 0.010369 0.018425 
0.028947 0.18251 0.041607 0.011026 0.025824 0.0056006 0.037826 0.069064 
0.24663 0.22213 0.041278 0.040621 0.013164 0.033058 0.019247 0.082382 
0.26965 0.21885 0.061666 0.0054362 0.026317 0.016288 0.016781 0.070051 
0.047033 0.1271 0.047526 0.043416 0.037497 0.0093821 0.032729 0.013328 
-0.018568 0.057062 0.046704 0.040785 0.026974 0.058542 0.039141 0.034373 
0.14321 0.11658 0.07597 0.073668 0.043251 0.025001 0.029769 0.05624 
0.32045 0.14469 0.12431 0.039799 0.025495 0.011848 0.043909 0.01004 
0.10721 0.048677 0.07301 0.050486 0.0074092 0.023851 0.0052718 -0.034023 
-0.29051 -0.13136 -0.00031829 0.01152 -0.0044286 0.012342 -0.017088 -0.066577 
-0.30876 -0.21208 -0.03057 0.01004 0.035524 0.019576 0.012013 -0.10587 
-0.046354 -0.14188 -0.037476 0.0070803 0.05065 0.019083 0.0082312 -0.082196 
0.11757 -0.012649 -0.022185 0.021549 0.048513 0.0088889 0.021384 -0.0034422 
0.081889 -0.037805 0.0023123 0.0324 0.034044 0.027468 0.043909 0.04095 
-0.056877 -0.0016336 0.010369 0.015301 0.058706 -0.0024557 0.011848 0.053938 
-0.084498 0.11362 0.046868 0.051636 0.040785 0.030263 0.040128 0.04506 
-0.087622 0.11707 0.065283 0.038812 0.033058 0.068242 0.062817 0.035524 
0.010862 0.1248 0.09422 0.058871 0.02122 0.035524 0.052787 0.08715 
0.17248 0.14897 0.10211 0.035524 0.032071 0.028947 0.036675 0.1493 
0.2417 0.14798 0.10491 0.062323 0.051801 0.031249 0.055418 0.14815 
0.21654 0.14798 0.076627 0.041443 0.031742 0.015794 0.035195 0.077449 
0.072517 0.073832 0.067091 0.045882 0.043909 0.012013 0.01826 -0.03057 
-0.055726 0.034044 0.041936 0.0046141 0.048841 0.0023123 0.031578 -0.10258 
0.050157 0.081724 0.019411 0.01563 0.013328 0.0059294 0.015465 -0.063124 
0.19303 0.14765 0.058213 0.017274 -0.0083746 -0.014787 0.017603 -0.045696 
0.10935 0.14667 0.086328 0.029605 0.0034632 0.014972 0.027468 -0.071345 
0.10359 0.078436 0.11707 0.04095 -0.010512 0.02122 -0.024652 -0.068386 
0.15308 -0.03057 0.051143 0.024508 -0.017582 0.023686 0.0023123 -0.046025 
0.085012 -0.1667 -0.037476 0.014643 0.023193 0.0032988 0.03388 0.033058 
-0.16309 -0.18528 -0.075291 0.0052718 0.043087 0.021713 0.027961 0.082382 
-0.33523 -0.14385 -0.027611 0.055582 0.068736 0.041443 0.046211 0.10178 
-0.20436 -0.00081153 0.015794 0.036675 0.0421 0.031249 0.05624 0.13039 
0.045224 0.079587 0.047033 0.06035 0.04917 0.034702 0.033551 0.09274 
0.11395 0.038155 0.030756 0.030756 0.033715 0.031907 0.0065871 0.058871 
0.17117 -0.027118 0.015137 0.069229 0.046704 0.024179 0.039141 0.044896 
0.31601 -0.13563 0.013657 0.025824 0.040292 0.051143 0.035853 0.049335 
0.32045 -0.093705 0.035195 0.078107 0.079751 0.058542 0.025824 0.013492 
0.22855 0.093726 0.040456 0.034702 0.078272 0.034866 0.058542 0.0069159 
0.11461 0.16985 0.01974 0.019576 0.043251 0.035853 0.037168 -0.0070593 
-0.089759 0.10737 0.025166 0.029934 0.013492 0.018589 0.01267 -0.0004827 
-0.21274 0.10918 0.010697 0.0052718 0.0070803 0.012342 0.037168 0.013821 
-0.25943 0.10129 0.0072447 0.014643 0.010697 0.023028 0.028947 0.048348 
-0.23757 0.14683 0.012342 -0.00097594 0.022371 0.025988 0.034209 0.037332 
-0.20041 0.1738 0.03947 0.027796 0.031249 -0.0026201 0.0421 0.007738 
-0.22014 0.061008 0.031085 0.012999 0.023357 0.032236 0.01267 -0.028104 
-0.13958 -0.052273 0.018425 0.035524 0.012506 0.012177 0.0087245 0.011848 
0.13812 -0.073647 -0.00064712 0.011191 0.013657 0.017603 0.018096 0.052294 
0.4459 -0.0088678 0.010369 0.041278 0.0227 0.032729 0.0034632 0.052623 
0.46711 0.086985 0.029934 0.01004 0.022535 0.01974 0.025824 0.047526 
0.44755 0.15686 0.036346 0.020398 0.036675 0.02829 0.054925 0.094055 
0.42814 0.2006 0.044567 0.014643 0.029934 0.017767 0.032564 0.12069 
0.32736 0.27228 0.060022 0.029112 0.040128 0.020233 0.040292 0.15999 
0.23578 0.24449 0.071202 0.038977 0.067749 0.061008 0.075805 0.14897 
0.17067 0.11099 0.053774 0.0592 0.061666 0.038977 0.047526 0.09981 
-0.098967 -0.068714 0.04654 0.049664 0.040785 0.031085 0.023686 0.049664 
-0.56064 -0.29396 0.01004 0.015794 0.024015 0.028619 0.029276 -0.012814 
-0.62756 -0.51345 -0.025309 0.0067515 -0.0039354 -0.0057439 -0.0055795 -0.057534 
-0.15602 -0.47432 -0.012649 -0.022021 -0.029584 -0.0091966 -0.0075525 -0.035503 
0.047526 -0.17805 0.030592 0.017438 -0.02498 0.023193 0.012342 -0.049314 
-0.29725 0.15061 0.026646 -0.0011404 0.0037921 0.019083 -0.0047575 -0.058356 
-0.4513 0.3558 0.014643 0.032729 0.012506 0.016288 0.012835 -0.03616 
-0.22244 0.40759 0.010862 0.0074092 0.01711 0.022042 0.034537 0.03536 
0.10885 0.30204 0.018918 0.037661 0.044238 0.0039565 0.049499 0.087643 
0.27277 0.24137 0.017438 0.025495 0.035031 0.040456 0.045389 0.13779 
0.2297 0.17889 -0.02087 0.062817 0.09981 0.093891 0.047526 0.096357 
0.10425 0.093069 -0.0060728 0.024508 0.038319 0.017438 0.02533 0.029934 
0.17182 -0.015116 -0.037805 -0.018239 0.067913 0.051472 0.0031344 -0.031392 
0.11642 -0.015444 -0.0078813 -0.0095255 -0.00015387 1.0539e-005 0.02122 -0.041751 
-0.20107 0.14404 0.021056 -0.024816 -0.0026201 0.01415 -0.025145 0.01152 
-0.66225 0.15637 0.02122 0.034702 0.016616 0.019576 0.00066819 -0.0040998 
-0.68379 0.085341 -0.001798 -0.0036066 0.019247 0.0085601 0.017767 -0.026789 
0.08863 -0.07973 -0.035996 0.022042 0.012177 0.013821 0.017438 0.035688 
1.1517 -0.25878 -0.015116 0.033222 0.030427 0.020069 0.036346 0.10918 
1.1581 -0.2545 0.037826 0.055911 0.035031 0.019576 0.049992 0.080409 
0.46596 -0.021528 0.070544 0.03947 0.025495 0.018754 0.027632 0.026152 
-0.17723 0.13565 0.05772 0.030592 0.00050378 -0.00031829 0.011191 -0.060165 
-0.45706 0.20208 0.033387 -0.0024557 -0.015444 -0.006566 0.01267 -0.079237 
-0.25795 0.15719 0.014972 0.017603 -0.023172 0.012835 -0.011498 -0.01117 
0.15719 0.14124 0.022206 -0.0075525 0.014643 0.024015 0.022535 0.081067 
0.18794 0.12908 0.030263 0.011191 0.036839 0.0026412 0.048841 0.092082 
-0.12297 0.068736 0.083862 0.060844 0.078929 0.050814 0.045389 0.069393 
-0.30679 0.018096 0.10425 0.07449 0.093398 0.041443 0.05476 0.068242 
-0.18413 0.054596 0.09981 0.076627 0.076956 0.045224 0.061501 0.081231 
-0.0055795 0.11395 0.085999 0.054596 0.038977 0.049335 0.049664 0.094384 
0.079751 0.12151 0.066763 0.035853 0.013986 0.023357 0.03092 0.081889 
0.079587 0.017274 0.019247 0.010204 0.015959 0.019247 0.022371 0.031085 
0.033058 -0.12429 0.0075736 0.021384 -0.009361 0.0085601 0.0026412 -0.018239 
0.20997 -0.097322 0.023193 0.0052718 -0.0078813 -0.0044286 -0.014458 -0.069043 
0.28675 -0.062467 0.0060938 0.040621 -0.0047575 -0.0040998 0.010369 -0.11393 
0.10244 -0.13415 -0.035667 0.022371 0.024673 0.010697 0.020233 -0.10143 
0.024179 -0.059014 -0.046683 0.03388 0.03092 0.012835 0.017438 -0.020377 
0.17182 0.08008 -0.0047575 0.024673 0.040785 0.059035 0.064954 0.1105 
0.081395 0.15259 0.055747 0.055911 0.055582 0.036675 0.040292 0.13105 
-0.27834 0.10935 0.087643 0.055582 0.069064 0.034537 0.042923 0.044238 
-0.23987 0.045553 0.067585 0.057227 0.078436 0.052952 0.054596 0.011191 
0.05213 -0.020706 0.05772 0.071695 0.061008 0.041772 0.037661 -0.025145 
0.25255 -0.11393 0.037661 0.035195 0.048841 0.023522 0.035031 0.0021479 
0.33328 -0.11903 0.039799 0.057391 0.022042 0.034702 0.03651 0.042265 
0.13351 -0.012978 0.032236 0.032564 0.016781 0.017932 0.015959 0.046868 
-0.30054 0.092576 0.03388 0.048513 0.0024767 0.0093821 0.009711 0.01152 
-0.43273 0.11115 0.028947 0.02533 0.03799 0.02829 0.025001 0.021056 
-0.056548 0.15193 0.038812 0.066763 0.023851 0.016288 0.032893 0.066434 
0.50328 0.17922 0.042265 0.044896 0.041114 0.042429 0.060844 0.10129 
0.70173 0.15703 0.051636 0.072681 0.037332 0.039141 0.068571 0.14469 
0.64123 0.11757 0.020233 -0.0067304 0.063639 0.025495 0.059035 0.079094 
0.32423 -0.022185 0.031414 0.038812 0.059857 0.05065 0.037497 0.037332 
-0.0090322 -0.094856 0.036675 0.033058 0.042429 0.030098 0.049499 -0.010676 
-0.12018 -0.051287 0.022371 -0.00064712 0.01974 0.010204 0.027961 -0.018568 
-0.017253 0.056898 0.041443 0.030756 0.017767 0.021056 0.035524 -0.0062372 
-0.00015387 0.22213 0.05624 0.033715 0.043909 0.019905 0.041936 0.024837 
0.013821 0.25715 0.061666 0.055089 0.057227 0.036675 0.056733 0.0011614 
-0.20008 0.023028 -0.0016336 0.034866 0.042594 0.026974 0.011191 -0.0095255 
-0.46906 -0.14517 -0.015773 0.046868 0.028454 0.0047785 0.030427 0.0034632 
-0.47005 -0.10867 -0.013965 0.0087245 0.0070803 0.013164 0.016288 0.00050378 
0.0069159 -0.029091 0.055747 0.046046 0.0075736 0.024015 0.01974 0.024837 
0.51397 0.071202 0.085999 0.011191 -0.00064712 0.016123 0.020069 0.057555 
0.76223 0.16163 0.096686 0.037497 0.0059294 0.027139 0.017603 0.03388 
0.66967 0.14667 0.089123 0.014808 -0.020048 0.032729 -0.014787 0.030263 
0.4094 0.10014 0.06035 0.014643 0.030263 0.02122 0.053445 0.052623 
-0.050793 -0.034845 0.031414 0.010204 0.024015 0.034373 0.032893 0.064296 
-0.57018 -0.05326 0.027468 0.01974 0.057062 0.032893 0.043745 0.042758 
-0.80578 0.10556 0.025001 0.041278 0.072517 0.031414 0.027468 -0.0040998 
-0.92103 0.2075 0.056569 0.029441 0.04506 0.038155 -0.00064712 -0.047341 
-0.87714 0.23003 0.061008 0.059035 0.038812 0.0079024 0.0011614 -0.014293 
-0.42171 0.18432 0.031414 0.01152 0.024508 0.013492 0.024344 0.010204 
0.15818 0.055418 0.0087245 0.025824 0.024508 0.017603 0.03651 0.080902 
0.49243 -0.035996 -0.0016336 -0.0019624 0.0034632 0.018425 0.012835 0.1151 
0.4824 -0.01939 -0.01676 0.021549 -0.00097594 0.03536 0.046704 0.078765 
0.22493 -0.02498 -0.0022913 -0.0060728 -0.012814 0.023193 0.013492 0.029441 
0.12842 0.098988 0.029276 0.01152 0.0054362 0.025166 0.015794 0.038319 
0.26751 0.24943 0.019905 0.013657 0.021384 0.047526 0.030098 0.088136 
0.35383 0.27343 0.010369 0.040785 0.039963 0.040128 0.018754 0.093398 
0.36238 0.21391 -0.0054151 0.024837 0.031742 0.01563 -0.0021268 0.0044497 
0.30582 0.13417 0.020069 0.028619 0.0421 0.027139 0.0088889 -0.050793 
-0.045532 0.023357 0.051801 0.020891 0.02829 0.016452 -0.0080457 -0.028104 
-0.44835 -0.14336 0.023851 0.03092 0.029112 0.0024767 0.0031344 -0.00031829 
-0.40231 -0.3954 -0.0060728 0.039799 0.035524 0.025988 0.037826 0.0047785 
-0.16703 -0.35266 -0.012156 0.020562 0.052294 0.023522 0.031249 0.028783 
-0.063289 -0.03353 0.012177 0.027961 0.039963 0.0056006 0.02829 0.02681 
-0.2134 0.20701 0.056076 0.0079024 0.021878 0.02533 0.030098 0.01826 
-0.52151 0.27655 0.045224 0.015465 0.017603 -0.021199 0.026152 0.0082312 
-0.56524 0.19895 0.039799 0.016616 0.013657 0.027796 0.016616 -0.019061 
-0.26601 0.1003 0.024837 0.047855 -0.0039354 0.041936 0.041278 -0.011005 
0.20767 0.094055 0.038483 0.00050378 0.028783 0.0074092 0.043416 0.039305 
0.48224 0.16294 0.053609 0.017767 0.065776 0.045718 0.030756 0.090274 
0.59338 0.16426 0.037826 0.025166 0.036839 0.027632 0.052787 0.085177 
0.62182 0.11198 0.061008 0.049828 0.038648 -0.013965 0.027139 0.027139 
0.53748 0.00017495 0.062323 0.052787 0.01974 0.037004 0.0088889 -0.041257 
0.13516 -0.10801 0.047033 0.048841 0.022371 0.027468 0.032893 -0.060823 
-0.32536 -0.18495 0.017274 0.048513 0.035524 0.023193 0.026974 -0.072332 
-0.43125 -0.19844 -0.0052507 0.033551 0.031742 0.033387 0.021056 -0.063453 
-0.19005 -0.1187 -0.025309 0.011848 0.017932 0.00050378 0.030592 0.020727 
0.16886 0.066763 0.014315 -0.0032777 0.0093821 0.018754 0.029276 0.10441 
0.31618 0.15818 0.050157 0.035853 0.018589 0.019411 0.03799 0.1225 
0.27195 0.1442 0.081067 0.022042 0.051801 0.015794 0.064461 0.13845 
0.183 0.082217 0.072517 0.058542 0.032729 0.027303 0.059693 0.12694 
0.058377 0.034373 0.051636 0.034702 0.033551 0.027961 0.06035 0.079751 
-0.24776 -0.026953 0.016781 0.062323 0.023357 0.014972 0.062652 0.017767 
-0.36334 -0.058192 -0.0040998 0.038155 0.030592 0.030098 0.047526 -0.020706 
-0.18676 -0.078415 0.016288 0.023357 0.0075736 0.049335 0.027961 -0.019555 
-0.12231 -0.034516 0.0070803 0.027961 0.013492 0.012999 0.037004 -0.0054151 
-0.070852 -0.06148 0.01563 0.007738 0.015301 0.018589 0.024344 -0.025474 
0.041114 -0.037476 0.011026 0.028619 0.017767 0.010369 0.020562 0.00050378 
0.20997 0.01152 0.020562 0.047033 0.012835 0.024179 0.032071 0.034209 
0.25518 0.014315 0.037661 0.045224 0.027139 0.024015 0.0042853 0.032071 
0.24597 0.042923 0.051472 0.037332 0.037661 0.029934 -0.032708 0.035195 
0.27869 0.059693 0.0072447 0.041114 0.031578 0.026481 -0.025309 0.033058 
0.25288 0.0047785 -0.011663 0.014479 0.025001 0.019905 -0.062631 0.017932 
0.2269 -0.018568 0.0080668 0.045882 0.038155 0.0037921 -0.10998 0.0032988 
0.21605 0.028125 0.027139 0.017932 0.047197 0.032236 -0.080388 0.0085601 
0.24153 0.061172 0.050814 0.058213 0.03536 0.01974 -0.040928 0.0014903 
0.27294 0.1174 0.041114 0.035688 0.02829 0.038319 0.062817 0.039963 
0.36517 0.1807 0.032236 0.032071 0.018589 0.028454 0.1373 0.056569 
0.31042 0.22608 0.046704 0.031085 0.0011614 0.02122 0.14141 0.05624 
-0.068386 0.2218 0.060679 0.03651 0.014808 0.027632 0.12792 0.055089 
-0.38702 0.11263 0.045882 0.033715 0.019576 0.042265 0.11987 0.051472 
-0.38801 -0.099789 -0.00031829 0.0080668 0.0011614 0.0098754 0.044896 -0.004593 
-0.18824 -0.2009 -0.028597 -0.0042642 -0.004593 0.0227 0.012999 0.01267 
0.025166 -0.091239 0.035524 0.022864 0.027139 0.038977 0.027796 0.085506 
0.084684 0.06035 0.098494 0.065447 0.048019 0.035524 0.018589 0.095699 
-0.0013048 0.10441 0.10244 0.070873 0.073339 0.048841 0.011684 0.089945 
0.0098754 0.0227 0.064954 0.085341 0.064625 0.032236 0.0064227 0.066927 
0.17248 0.067585 0.060022 0.042758 0.059857 0.021878 -0.024652 0.066434 
0.2611 0.19188 0.07449 0.051308 0.041114 0.04506 0.0016547 0.09685 
0.26685 0.26998 0.077285 -0.01117 0.10556 0.040292 0.031414 0.088465 
0.28083 0.14634 0.013657 0.023193 0.011355 0.025659 -0.0095255 0.038648 
0.27836 0.058542 0.0082312 0.0095465 -0.00081153 0.0092177 -0.03057 0.063145 
0.037004 -0.01676 0.014972 0.020233 0.0079024 0.0051074 0.0021479 0.013164 
-0.56344 -0.052931 0.010697 0.017603 -0.008539 0.023851 0.00099702 -0.026624 
-0.77388 -0.12609 0.021878 0.017603 0.0047785 0.0085601 -0.0072237 -0.034023 
-0.11574 -0.054739 0.039963 0.0090533 0.0037921 -0.010512 0.034866 0.016288 
0.38803 0.095042 0.030592 -0.003771 -0.01676 0.012835 0.012835 0.0786 
0.25995 0.013657 -0.011334 0.0046141 -0.003771 0.016288 0.011355 0.096028 
-0.18265 -0.053753 -0.04471 0.023028 0.047033 0.035524 0.051636 0.044073 
-0.43618 -0.037476 -0.05326 0.048019 0.073339 0.054267 0.042923 0.013986 
-0.30432 0.011848 -0.016102 0.018589 0.064461 0.035195 0.037332 0.0039565 
0.049499 0.13762 0.039305 0.043909 0.062817 0.01826 0.04654 -0.009361 
0.24877 0.20487 0.048184 0.019247 0.047526 0.030756 0.032236 -0.019555 
0.17133 0.10754 0.028454 0.026481 0.041772 0.011026 0.015301 0.009711 
0.078436 0.048184 0.0083956 0.024344 0.016945 -0.0075525 0.065118 0.044731 
0.08304 0.089287 0.020233 0.020562 0.026646 0.03651 0.055254 0.095206 
0.25304 0.15127 0.060186 0.033715 0.007738 0.041278 0.075641 0.094384 
0.32884 0.14798 0.089945 0.04917 0.033715 0.056076 0.079258 0.043909 
0.17939 0.062488 0.071531 0.037497 0.050486 0.041607 0.048184 -0.0080457 
0.084684 -0.034188 0.041936 0.026481 0.015137 0.017274 0.046211 -0.026624 
0.021384 -0.010019 0.0075736 0.024673 -0.0098543 0.035031 0.058377 -0.010183 
-0.28031 0.053774 -0.0013048 0.0028056 0.010533 0.018589 0.034537 0.024673 
-0.78506 0.044238 0.0041209 0.037332 0.021878 0.010697 0.048184 0.01267 
-0.66389 0.033222 0.026152 0.016452 0.018918 0.032893 0.064954 0.034209 
-0.28804 -0.038956 0.055254 0.061172 0.048348 0.022864 0.051636 0.061995 
-0.16029 -0.1108 0.048348 0.025988 0.048019 0.009711 0.03388 0.0093821 
-0.017088 -0.040928 0.077121 0.034866 0.037332 0.019576 0.036675 -0.010676 
0.29168 0.073668 0.051801 0.0083956 0.031085 0.0070803 0.023686 -0.014129 
0.69071 0.14864 0.076792 0.00099702 0.023193 0.0059294 0.029769 0.044238 
0.6358 0.16623 0.073832 0.012177 0.010369 0.0046141 0.04506 0.091096 
0.16837 0.10392 0.048019 0.035195 0.0013258 -0.0044286 0.029276 0.099152 
-0.24118 0.10507 0.023522 0.027139 0.025824 0.0227 0.028125 0.051143 
-0.2425 0.20898 0.036346 0.041114 0.043416 0.033551 0.057062 0.033715 
-0.05737 0.2754 0.028783 0.05624 0.037661 0.026974 0.053116 0.044896 
0.21539 0.33805 0.049992 0.04358 0.058871 0.057884 0.062488 0.08304 
0.39411 0.26587 0.060844 0.080409 0.065118 0.057884 0.084026 0.053609 
0.20947 -0.0055795 0.046704 0.047691 0.046375 0.025824 0.046046 -0.012485 
-0.11196 -0.3252 0.015301 0.048019 0.023028 0.012506 0.023851 -0.096007 
-0.28097 -0.50375 -0.030735 -0.0032777 0.011848 -0.0034422 0.013164 -0.1113 
-0.14089 -0.31566 -0.015116 0.016452 0.012835 -0.011498 -0.0077169 -0.057534 
-0.02646 -0.087293 0.014315 0.0052718 0.02829 0.01004 -0.0080457 0.011848 
0.11855 -0.12231 0.0056006 -0.0060728 0.0046141 0.0085601 0.0028056 0.03092 
0.090438 -0.027611 -0.001798 0.01711 0.030098 -0.0026201 0.0051074 0.021056 
0.082546 0.11987 0.023357 -0.0062372 0.0095465 0.0098754 -0.027282 -0.00015387 
0.077121 0.15818 -0.012485 -0.00031829 0.0011614 -0.0067304 0.0051074 0.0013258 
0.095535 0.18942 0.030263 -0.00015387 0.028783 0.021056 -0.004593 -0.025145 
0.12973 0.24745 0.085012 0.048841 0.029276 0.024508 0.0069159 0.03388 
0.1419 0.21046 0.10622 0.038155 0.042923 0.038977 0.047033 0.069064 
0.15604 0.10951 0.087314 0.063968 0.037332 0.06183 0.051965 0.058049 
0.1391 -0.0083746 0.076134 0.046375 0.052294 0.0592 0.04917 0.039963 
0.12299 0.0032988 0.050814 0.062817 0.03388 0.045882 0.052459 0.032564 
0.11888 0.08863 0.050814 -0.0040998 0.01004 0.03947 0.016288 0.025824 
0.15094 0.088465 0.042429 0.027468 0.016288 0.0087245 -0.0075525 0.034866 
0.14963 0.039141 -0.0014692 -0.00015387 0.0227 -0.0014692 0.023686 0.043087 
0.094548 0.045553 -0.020541 0.027796 0.043087 0.018918 -0.0040998 0.044567 
-0.10094 0.017932 -0.017582 0.015794 0.034373 0.014808 0.0087245 0.0421 
-0.18068 0.062652 0.020398 -0.0077169 0.0036276 0.0072447 0.032236 0.062817 
-0.045203 0.17643 0.12398 0.038319 -0.00097594 0.023522 0.0062583 0.098166 
0.15292 0.15193 0.16229 0.053281 0.012835 0.020069 0.0059294 0.045882 
0.38326 -0.019555 0.097508 0.034866 -0.0044286 0.026152 0.009711 -0.10193 
0.44459 -0.18824 0.01826 0.019247 -0.012978 0.0051074 -0.017582 -0.17986 
0.14387 -0.19202 -0.035338 0.045389 0.041278 0.017438 -0.0055795 -0.10834 
-0.15109 0.011848 -0.0044286 0.010533 0.03799 0.046375 0.027303 -0.015444 
-0.133 0.19796 0.061008 0.034537 -0.008539 0.025001 0.019247 0.076463 
-0.0077169 0.24367 0.066434 -0.020212 -0.036325 -0.010183 0.014643 0.090109 
0.0083956 0.22328 0.052294 0.027961 -0.0095255 0.028125 0.012999 0.056733 
-0.033037 0.11444 0.012013 0.045389 0.057391 0.028947 -0.0024557 0.071531 
-0.25253 0.015301 -0.036983 0.048677 0.077449 0.03947 0.005765 0.034702 
-0.6703 -0.03764 -0.028433 0.046868 0.10244 0.035195 0.022535 -0.049971 
-0.63331 -0.023336 0.0039565 0.062323 0.09833 0.040456 0.017274 -0.0095255 
0.23956 0.0592 0.089616 0.086163 0.084519 0.056569 0.035524 0.085835 
1.2124 0.19533 0.07038 0.07301 0.086657 0.053445 0.073504 0.14223 
1.2311 0.22739 0.050321 0.055254 0.050486 0.044896 0.065612 0.11691 
0.58269 0.15604 0.00050378 0.0044497 -0.0026201 0.033222 0.037168 0.064954 
0.070051 0.02829 0.0052718 0.025659 -0.016266 0.020891 0.03092 0.035031 
-0.10078 -0.12642 0.0079024 -0.014293 -0.024487 0.011684 -0.00015387 0.023522 
-0.29873 -0.28952 -0.011827 0.0041209 -0.026296 0.01826 1.0539e-005 0.024344 
-0.81565 -0.5414 -0.059672 -0.020706 -0.0096899 0.0080668 0.0080668 -0.019719 
-0.8311 -0.60289 -0.035832 0.035195 0.013986 0.023686 0.0079024 0.00066819 
-0.2836 -0.27538 0.016288 0.025001 0.05772 0.076956 0.020562 0.052952 
0.11987 0.086163 0.056569 0.061337 0.030263 0.031249 0.043251 0.054925 
-0.081539 0.31799 0.055582 0.023686 0.01711 0.020398 0.025166 0.023851 
-0.37452 0.39806 0.037826 -0.0013048 -0.025474 0.016288 -0.00097594 -0.019061 
-0.061151 0.32621 0.0060938 -0.0090322 -0.0138 -0.018075 -0.008539 0.0085601 
0.40661 0.19846 -0.031064 -0.0059084 0.012835 0.010697 -0.006566 0.032564 
0.43669 0.08419 -0.015773 0.036182 0.049992 0.0075736 0.02829 0.071037 
0.093562 0.045718 0.01563 0.03947 0.081889 0.026974 0.058871 0.061337 
-0.12725 0.05213 0.053774 0.067913 0.097837 0.079094 0.04506 0.092904 
-0.20205 0.059528 0.088136 0.070708 0.075641 0.049664 0.055254 0.047691 
-0.1649 -0.00031829 0.10655 0.074983 0.056076 0.044896 0.078436 0.040621 
-0.02942 -0.0034422 0.094055 0.042594 0.050157 0.042923 0.037826 0.017767 
0.20865 0.046868 0.089287 0.055582 0.042594 0.013821 0.04358 0.078436 
0.37356 0.09685 0.067091 0.035853 0.0092177 0.021713 0.069722 0.11378 
0.18892 0.061008 0.040292 0.050157 0.0032988 0.03947 0.038483 0.087972 
0.014315 -0.06 0.02122 0.013492 -0.0138 0.028454 0.025001 0.013492 
-0.032379 -0.059343 -0.014458 0.016616 -0.0049219 0.030263 0.039141 0.038319 
0.016781 -0.00015387 -0.011334 0.0019835 0.018918 0.0046141 0.017767 0.039799 
0.14141 0.0034632 -0.012649 0.011355 0.018754 -0.0014692 0.019411 0.011684 
0.072188 -0.011827 -0.02646 0.020233 0.029934 0.0087245 0.044896 0.0028056 
-0.21669 0.056076 0.011684 0.0067515 0.029769 0.0023123 0.031249 -0.0082102 
-0.41415 0.11231 0.033551 0.0070803 0.029276 -0.008539 0.032729 0.0051074 
-0.34526 0.090603 0.0421 -0.001798 0.017274 0.025659 0.04506 0.060515 
-0.11048 -0.047341 0.050321 0.027632 0.020398 0.011026 0.027303 0.072846 
0.19073 -0.17213 0.037497 0.031414 0.01974 0.019576 0.03092 0.018918 
0.14634 -0.13629 0.0592 0.066105 0.021713 0.044567 0.048019 -0.018075 
-0.044052 -0.016266 0.074819 0.060022 0.032564 0.024015 0.032893 -0.013471 
0.011191 0.085835 0.082875 0.071202 0.04506 0.039963 0.021384 -0.0011404 
0.11461 0.12562 0.048019 0.048513 0.050814 0.029276 0.049828 0.015959 
0.16689 0.10672 0.0054362 0.037332 0.051472 0.01826 0.033551 0.020562 
0.18383 0.1927 0.005765 0.011684 0.041443 0.03388 0.035031 0.047362 
0.23085 0.35761 0.044896 0.039305 0.065612 0.029276 0.044073 0.090603 
0.28741 0.36024 0.063803 0.037661 0.028125 0.014643 0.037661 0.07038 
0.24285 0.22065 0.051143 0.048019 0.03651 0.029276 0.019247 0.045718 
-0.21126 0.097837 0.0069159 0.024508 0.035688 0.011026 0.017932 0.016616 
-0.54288 0.06035 -0.030735 -0.017746 0.023028 0.0051074 0.0036276 -0.020541 
-0.32652 0.20405 0.0070803 0.013657 0.018918 0.026317 0.035195 0.012342 
0.074326 0.29645 0.076956 0.039799 0.032564 0.040292 0.058049 0.062488 
0.26653 0.25715 0.090109 0.077614 0.041607 0.04095 0.048677 0.048348 
0.31042 0.17544 0.058377 0.02829 0.01826 0.021878 0.029276 0.0062583 
0.29875 -0.0073881 0.080738 -0.026624 0.046046 0.0088889 0.050321 -0.018075 
0.25058 -0.19334 0.038319 1.0539e-005 -0.0082102 0.011191 0.0054362 -0.062631 
0.20602 -0.34855 0.034866 0.023522 0.01152 -0.0067304 -0.01676 -0.009361 
0.21293 -0.36614 0.04654 0.0028056 0.013657 0.0052718 0.020891 0.020069 
0.11296 -0.27916 0.064296 0.034702 0.01711 0.023522 1.0539e-005 0.009711 
-0.20715 -0.12314 0.071202 0.036839 0.024179 0.0041209 0.020562 0.01004 
-0.37058 0.037826 0.080573 0.026646 0.055418 0.041114 0.044567 0.011684 
-0.19104 0.28461 0.086821 0.053116 0.055582 0.040292 0.044731 0.055418 
0.030098 0.45379 0.073832 0.033058 0.057884 0.034866 0.03651 0.076956 
0.15949 0.45626 0.025659 0.034209 0.059364 0.025001 0.04506 0.069229 
0.23134 0.39674 0.027961 0.036182 0.066269 0.035524 0.030592 0.029934 
0.34906 0.27261 0.031578 0.066763 0.045224 0.0083956 0.019411 0.028947 
0.3951 0.1225 0.019247 0.032236 0.036182 0.03092 0.016945 -0.0021268 
0.29842 -0.021856 0.0051074 0.055582 0.014808 0.01711 0.0060938 0.0031344 
0.09685 -0.20452 -0.0059084 0.02533 0.0036276 0.0080668 0.0051074 0.01267 
-0.12527 -0.31566 -0.030899 0.035031 -0.0016336 0.020727 0.014315 0.026152 
-0.12429 -0.16983 -0.0087034 0.0080668 0.0036276 0.010204 0.019905 0.067091 
0.0324 -0.021034 0.017603 0.011848 0.012835 0.045389 0.017932 0.083533 
0.20158 -0.049478 0.03536 0.026646 0.00297 0.01711 0.027796 -0.013965 
0.14881 -0.097651 0.033058 0.007738 0.021549 -0.020706 -0.0011404 -0.050793 
-0.064768 -0.025802 0.0072447 0.019576 0.0083956 0.0032988 0.011355 -0.011827 
-0.26404 0.091096 0.0060938 0.0021479 0.030098 0.01563 0.023028 0.02533 
-0.22951 0.027139 0.011191 0.039799 0.03536 0.02829 0.017603 0.044731 
-0.07003 -0.10604 0.02829 0.042265 0.050486 0.031742 0.041443 0.082053 
-0.11985 0.016781 0.038812 0.058377 0.066927 0.039634 0.044567 0.070051 
-0.49241 0.1271 0.027139 0.017767 0.017438 0.011026 0.036675 0.015794 
-0.41678 0.079258 0.016288 0.020562 -0.0087034 0.0095465 0.010697 0.03651 
0.2103 -0.022514 0.048184 0.019576 0.0074092 0.0090533 0.052623 0.14601 
0.55688 -0.1205 0.075476 0.037004 -0.0021268 0.0090533 0.032071 0.12233 
0.50476 -0.095514 0.074161 0.023686 0.0019835 0.012342 0.012506 0.0088889 
0.39608 -0.0014692 0.028783 0.017767 -0.0098543 -0.017582 1.0539e-005 -0.047012 
0.42338 0.08156 0.035195 0.041936 0.030756 0.010533 0.010862 1.0539e-005 
0.1077 0.046868 -0.00097594 0.060515 0.069722 0.055911 0.050814 0.019576 
-0.20156 0.043416 -0.014293 0.070873 0.096028 0.064132 0.072681 0.0064227 
-0.25795 0.03092 0.0095465 0.058706 0.081395 0.069558 0.055089 -0.023172 
-0.19252 0.077778 0.075312 0.06742 0.056076 0.03388 0.038648 -0.040435 
-0.12905 0.14716 0.1174 0.050157 0.038648 0.021384 0.028947 -0.017088 
-0.047176 0.25058 0.11526 0.073997 0.045389 0.027961 0.012342 0.0044497 
0.14026 0.34627 0.084355 0.02122 0.02533 0.013164 -0.022514 -0.027611 
0.22805 0.34692 0.058542 0.057062 0.0227 0.0074092 0.036346 0.019576 
0.13582 0.24252 0.10803 0.035524 0.013492 0.079916 0.022864 0.066927 
-0.0049219 0.12957 0.034209 0.037497 0.0088889 0.016781 0.014315 0.058049 
-0.14714 0.0060938 0.024344 0.024508 0.021878 0.020891 0.033387 0.062159 
-0.17756 -0.11804 -0.0016336 0.013657 0.0072447 0.029441 0.014972 0.03799 
-0.11804 -0.12297 -0.016595 0.011026 0.010369 0.021384 0.028454 0.042594 
0.051308 -0.035503 -0.0026201 0.007738 0.016452 0.013492 0.039963 0.12447 
0.24729 0.094548 0.032893 0.021384 0.020562 0.038977 0.04917 0.15193 
0.18843 0.11378 0.033387 0.026646 0.037332 0.033222 0.037497 0.095864 
0.036839 -0.025145 0.026481 0.041607 0.027139 0.034209 0.048513 0.04917 
-0.23329 -0.20123 0.0059294 0.01826 0.013986 0.034373 0.038812 -0.021034 
-0.47251 -0.27949 -0.0031133 0.049828 0.026646 0.016288 0.033715 -0.087129 
-0.28212 -0.21159 -0.0027845 0.014479 0.043909 0.0421 0.041607 -0.042408 
0.090109 -0.039284 -0.014293 0.034866 0.033387 0.02533 0.020398 -0.0040998 
0.32752 0.15012 0.0070803 0.012177 0.029934 0.019576 0.016288 0.014479 
0.42403 0.20454 0.034537 0.06742 0.043745 0.047526 0.041772 0.06594 
0.3267 0.24499 0.025659 0.013492 0.033715 0.023686 0.035853 0.076792 
0.18251 0.22937 0.026646 0.018754 0.0092177 0.020891 0.027796 0.077778 
0.15949 0.24581 0.033387 0.0021479 -0.0059084 0.028783 0.033715 0.074819 
0.12299 0.23627 0.035031 0.01415 0.012999 0.014808 0.0079024 0.0052718 
-0.15257 0.091096 0.034866 0.045718 0.048019 -0.0004827 0.010204 -0.027775 
-0.22918 -0.065097 0.0036276 0.037004 0.027796 0.030263 0.034044 -0.024652 
0.065447 -0.076771 0.021384 0.046211 0.05065 0.046211 0.035853 -0.0059084 
0.021549 -0.027611 -0.011334 0.010204 0.029276 0.027796 0.0070803 0.036675 
-0.32257 0.066598 0.019083 0.025824 0.0060938 0.011684 0.034702 0.044896 
-0.35693 0.10935 0.055089 -0.0098543 0.0059294 0.0018191 0.018425 0.03536 
-0.13119 0.029112 0.092411 0.023193 0.013986 0.022371 0.0227 0.046211 
0.047855 0.01974 0.093562 0.033058 0.046046 0.023686 0.053774 0.087314 
0.0031344 0.047691 0.072188 0.057884 0.065283 0.025166 0.057884 0.095864 
-0.20255 -0.0016336 0.041772 0.032071 0.063145 0.035853 0.046211 0.11066 
-0.25187 -0.089431 0.012999 0.06742 0.065612 0.031742 0.03799 0.12381 
-0.25911 -0.26437 -0.015938 0.01004 0.024837 0.014643 0.01004 0.067913 
-0.0016336 -0.3423 -0.012485 -0.019555 0.0024767 0.019576 0.0072447 -0.017911 
0.40398 -0.24266 -0.013636 -0.02942 -0.018404 0.0062583 0.0039565 -0.12363 
0.48257 -0.13349 0.00083261 -0.014293 -0.0039354 -0.0029489 -0.0095255 -0.10028 
0.33657 -0.034516 0.016616 0.025988 0.016616 0.026481 0.0031344 0.0044497 
0.22822 0.12562 0.032564 0.031085 0.073997 0.023686 0.039305 0.08715 
0.38671 0.29563 0.059528 0.062652 0.07301 0.048677 0.041278 0.10425 
0.46596 0.45149 0.081231 0.029276 0.047362 0.026317 0.035853 0.10951 
0.082875 0.3826 0.073175 0.049499 0.012999 0.010204 0.053445 0.099152 
-0.23757 0.17593 0.037497 0.01415 0.0037921 0.046211 0.048513 0.10474 
-0.29051 -0.0044286 -0.012978 0.025001 0.047855 -0.012978 0.029112 0.097672 
-0.32783 -0.12938 -0.016924 0.0041209 0.029769 0.004943 0.037497 0.032893 
-0.46051 -0.24349 -0.052931 0.048019 0.064625 0.013986 0.019576 -0.043395 
-0.23872 -0.17525 -0.011005 0.0227 0.044896 0.0036276 -0.0096899 -0.06 
0.12973 -0.022679 0.012506 0.031578 0.026481 -0.0078813 0.032893 -0.014293 
0.19287 0.075641 0.055582 0.034044 0.021878 0.027468 0.018425 0.019411 
-0.003771 0.082711 0.075641 0.0032988 0.014479 0.012506 0.02533 0.037497 
-0.14287 0.024179 0.046868 0.035524 0.036017 0.032729 0.041114 -0.0019624 
-0.013307 0.0032988 0.024837 0.023028 0.023522 0.0098754 0.020727 -0.010841 
0.14239 -0.037476 0.00033937 0.0037921 0.012835 0.013164 0.014479 -0.004593 
0.16952 -0.05326 -0.014622 -0.029748 0.009711 0.011684 0.025166 -0.012978 
0.25206 0.01974 0.023357 0.035195 0.026481 0.025988 0.0064227 -0.009361 
0.3147 0.096521 0.035524 0.040292 0.04917 0.037661 0.033551 0.0036276 
0.19665 0.12644 0.047855 0.074326 0.056076 0.047033 0.03651 0.023357 
0.0592 0.17791 0.084026 0.050814 0.078436 0.02533 0.00033937 0.062323 
0.063639 0.19895 0.12579 0.071366 0.035853 0.015959 0.030592 0.067091 
0.1225 0.15538 0.13516 0.036017 0.041772 0.020233 0.038648 0.073504 
0.13878 0.11247 0.065776 0.054267 0.03947 0.022206 0.016288 0.072681 
0.18218 0.049006 0.033387 0.031249 0.052952 0.038483 0.034866 0.071202 
0.18761 0.05065 0.029605 0.035853 0.030098 0.031578 0.038319 0.051801 
0.11346 0.11592 0.070708 0.0421 0.019247 0.024673 0.038319 0.048513 
-0.17493 0.10984 0.09274 -0.00015387 0.004943 0.023193 0.021878 -0.025967 
-0.41168 0.018425 0.035853 0.0098754 -0.010348 0.009711 0.026317 -0.040928 
-0.17476 -0.018239 -0.02942 -0.027775 -0.022021 -0.0077169 0.016616 -0.0062372 
0.18202 -0.0047575 -0.037805 0.01826 -0.0032777 0.019083 0.0023123 -0.015609 
0.22608 0.023028 0.012013 0.028783 0.014643 0.015137 0.020727 -0.028926 
0.15308 0.0090533 0.023193 0.045389 0.0051074 0.0075736 0.0093821 -0.003771 
0.16673 0.0013258 -0.001798 0.030592 0.027139 0.016781 0.024344 0.035031 
0.27935 0.11346 -0.0091966 0.058377 0.0227 0.024673 0.031578 0.061995 
0.16031 0.15719 0.038812 0.057391 0.034537 0.032729 0.019247 0.04917 
-0.15503 0.015137 0.046046 0.047033 0.045389 0.038812 0.026974 0.02122 
-0.15881 -0.02087 0.045882 0.011026 0.089287 0.033222 0.0421 0.033715 
0.23463 0.079751 0.070544 0.03947 0.073504 0.045553 0.037004 0.050157 
0.67542 0.25978 0.058871 0.045224 0.062323 0.040292 0.036346 0.052952 
0.53255 0.32111 0.061501 0.027961 0.037661 0.023357 0.031249 0.035688 
0.068736 0.22493 0.061666 0.034044 0.012013 0.041607 0.00050378 0.013821 
-0.31106 0.027468 0.019411 0.0090533 -0.009361 0.018096 -0.0029489 -0.00064712 
-0.5345 -0.13908 -0.01117 0.0034632 -0.019226 0.0085601 0.00099702 -0.012649 
-0.72423 -0.28541 -0.030242 -0.016924 -0.026131 0.015301 -0.0011404 -0.034681 
-0.53762 -0.22441 -0.026296 0.013821 -0.0042642 0.012177 0.010533 0.027468 
-0.075949 0.027796 0.0037921 -0.0024557 0.029605 -0.01939 -0.0088678 0.11263 
0.35564 0.21572 0.029441 0.043745 0.022042 0.042923 0.027632 0.099316 
0.44196 0.27968 0.066598 0.054267 0.0069159 0.041443 0.023522 0.054432 
0.12201 0.21556 0.052952 0.068571 0.028947 0.030427 0.039963 0.0016547 
-0.020541 0.10737 0.088465 0.044731 0.058542 0.037661 0.0227 0.0042853 
0.15999 0.020727 0.06742 0.053609 0.05065 0.026974 0.032564 0.057062 
0.35794 -0.011005 0.097015 0.036182 0.044238 0.053609 0.069722 0.14963 
0.28461 -0.025145 0.088465 0.034209 0.04506 0.037661 0.049828 0.12842 
0.1271 0.046868 0.082875 0.029112 0.0324 0.031414 0.038812 0.057062 
-0.019719 0.046375 0.06594 0.020069 0.021549 0.023851 0.032729 0.02122 
-0.16983 0.049664 0.048841 0.040456 -0.00081153 0.011026 0.018918 -0.0004827 
-0.29018 0.040621 0.0054362 0.0051074 0.0072447 0.0034632 0.0014903 -0.030899 
-0.17246 0.02829 0.026481 0.027139 0.01974 0.029769 0.0034632 -0.047505 
-0.010183 0.12003 0.046868 0.024344 0.020069 0.0056006 -0.0095255 -0.094692 
0.018918 0.21868 0.057227 0.051308 0.030592 0.016945 -0.028104 -0.080388 
-0.11607 0.18892 0.042265 0.020727 0.023193 0.019411 0.024673 -0.038298 
-0.36121 0.049828 0.012177 0.061501 0.039634 0.012342 0.030263 0.004943 
-0.352 -0.056712 -0.038298 0.026317 0.021549 0.022371 0.016781 0.053445 
0.014972 -0.091075 -0.058356 0.019247 0.023522 0.017603 0.03947 0.096357 
0.19649 -0.014622 -0.021856 0.025988 0.031414 0.016452 0.031907 0.13121 
0.1784 0.10622 0.062652 0.031742 0.040621 0.049664 0.053445 0.096521 
0.16015 0.17643 0.14963 0.061666 0.021549 0.033058 0.065612 0.092247 
0.19254 0.16821 0.12283 0.0421 0.041936 0.024015 0.047691 0.095206 
0.17643 0.07038 0.075476 0.036675 0.040456 0.04095 0.057227 0.088301 
0.058377 -0.035338 0.033058 0.052623 0.061172 0.038812 0.059528 0.028619 
-0.14829 -0.087622 -0.028104 0.066269 0.073175 0.0024767 0.023357 -0.038791 
-0.3275 -0.14813 -0.052109 0.042265 0.050486 0.011848 0.0019835 -0.066577 
-0.036818 -0.12955 -0.053917 0.053938 0.048184 -0.014787 0.029276 -0.054246 
0.33722 0.0021479 -0.023829 0.019247 0.025824 0.0028056 0.011684 -0.006566 
0.2851 0.10819 0.040456 0.048348 0.040128 0.024344 0.01711 0.0075736 
0.13582 0.059693 0.069229 0.033058 0.017767 0.00099702 0.036839 0.00099702 
0.095042 -0.20123 0.055747 0.066269 0.024015 0.029605 0.0324 0.012342 
-0.022679 -0.54124 0.005765 0.01563 0.021549 0.02122 0.012835 0.054596 
-0.32668 -0.41957 -0.014622 -0.01117 0.014808 0.0023123 0.043745 0.063803 
-0.56508 -0.034681 -0.0050863 0.0064227 0.021713 0.034702 0.043087 0.050814 
-0.33786 0.25452 0.027632 0.0023123 0.046375 0.0041209 0.051801 0.035031 
0.11461 0.35564 0.061501 0.033551 0.037497 0.015137 0.049664 0.011355 
0.42913 0.24696 0.058871 0.021384 0.024837 0.033222 0.036675 0.0092177 
0.36583 0.098166 0.0324 0.038648 0.021713 0.0090533 0.026481 0.0044497 
0.15637 0.058542 0.062488 0.035195 0.039799 0.0054362 0.032893 0.03947 
0.084684 0.059528 0.089945 0.05476 0.037497 0.062817 0.039634 0.088301 
0.1345 0.080409 0.087972 0.048677 0.056404 0.0095465 0.036839 0.089945 
0.1909 0.07449 0.093726 0.073668 0.019576 0.01004 0.028947 0.076299 
0.29086 -0.018733 0.013328 0.029769 0.012342 0.018754 0.025824 0.0324 
0.451 -0.032215 -0.024158 0.020069 0.041278 0.01563 -0.024487 0.037826 
0.32423 0.031578 -0.033859 0.0042853 0.0082312 0.038155 0.031414 0.035031 
-0.28443 -0.078579 -0.031228 -0.010512 0.024673 0.014808 0.016781 0.01711 
-0.59484 -0.15224 -0.030735 0.017438 0.025659 0.013986 0.0064227 0.0069159 
-0.13958 -0.062467 -0.008539 0.015959 0.04917 0.048019 0.053281 0.06035 
0.091753 0.051801 0.024508 0.023357 0.053116 0.032893 0.031085 0.12644 
0.21934 0.19221 0.060679 0.029112 0.053281 0.021713 0.050979 0.084355 
0.27425 0.20816 0.062981 0.032893 0.027468 0.030263 0.029769 0.0079024 
-0.12133 0.10113 0.047855 0.022206 0.0056006 0.016288 -0.0049219 -0.073154 
-0.43338 -0.060494 -0.0088678 0.032893 -0.0040998 0.0024767 -0.0072237 -0.11179 
-0.25943 -0.17986 -0.054904 0.00066819 0.018425 0.014479 0.015137 -0.028433 
0.19155 -0.11475 -0.011827 0.035688 0.020727 0.01415 0.027632 0.10524 
0.44015 0.063145 0.039305 0.023357 0.015137 0.035524 0.039963 0.13976 
0.34528 0.18415 0.062323 0.034209 0.016123 0.035853 0.038648 0.12151 
0.10787 0.19287 0.035195 -0.0029489 -0.00064712 0.019576 0.0075736 0.065283 
-0.010676 0.19944 0.034537 -0.00064712 0.011355 0.038977 -0.004593 0.033058 
-0.19235 0.17906 0.046211 0.021713 0.019247 0.024837 0.03092 0.030756 
-0.23231 0.16771 0.030263 0.027303 0.033222 0.010533 0.010204 0.028619 
0.054596 0.2121 0.05476 0.037826 0.033222 0.040785 0.024673 0.021713 
0.25123 0.19764 0.056569 0.026152 0.025166 0.030263 0.021056 0.015465 
0.074983 0.15703 0.041114 0.024508 0.038977 0.018096 0.018425 -0.032708 
-0.056219 0.031414 0.039305 0.02681 0.039305 0.024508 0.016945 -0.029913 
-0.014787 0.014315 0.052459 0.037826 0.027632 0.03092 0.046868 0.028619 
0.0056006 0.080244 0.062817 0.038483 0.018754 0.041772 0.033222 0.049499 
0.029112 0.13039 0.080738 0.051636 0.024673 0.030427 0.029605 0.064954 
0.096357 0.15768 0.062981 0.0074092 0.036346 0.0042853 0.033715 0.085999 
0.057227 0.15933 0.046375 0.026646 0.0052718 0.033387 0.0087245 0.029276 
0.021384 0.10524 0.078272 0.0021479 -0.012156 0.018754 -0.0088678 -0.0049219 
0.08863 0.071531 0.11543 0.052623 0.034866 0.022535 0.004943 0.012342 
0.18054 0.049664 0.13368 0.046868 0.036017 0.018918 0.020233 0.027139 
0.11658 -0.038627 0.063474 -0.00081153 0.024837 0.013328 0.02829 0.029769 
-0.045368 0.0069159 0.027303 -0.004593 0.014972 0.0072447 0.026974 0.031414 
-0.16079 0.086163 0.031414 0.01267 0.024508 0.024344 0.02681 0.024179 
-0.13119 0.14552 0.078436 0.040128 0.045224 0.043416 0.0054362 0.020233 
-0.070523 0.2098 0.095042 0.042265 0.050814 0.025495 0.026152 -0.01676 
-0.025309 0.17791 0.073175 0.045882 0.049499 0.029112 0.020727 -0.034681 
0.11231 0.15193 0.034537 0.019576 0.056569 0.030427 0.031742 0.0093821 
0.17889 0.16623 0.021713 0.059693 0.065447 0.065118 0.056404 0.065776 
0.072681 0.13302 0.027303 0.031907 0.074161 0.062323 0.055089 0.095864 
0.077778 0.13039 0.031414 0.079916 0.041772 0.025988 0.0324 0.14502 
0.30746 0.09981 0.04358 0.028783 0.028947 0.039799 0.026152 0.073832 
0.38293 0.041772 0.053116 0.043087 0.020069 0.032893 0.046046 0.039305 
0.17281 -0.11771 0.035524 0.021878 0.0059294 0.021384 0.024015 -0.0022913 
-0.21406 -0.33309 -0.0080457 0.0011614 -0.0029489 0.026481 0.021384 -0.087786 
-0.6172 -0.48139 -0.017911 -0.023665 -0.0082102 -0.014293 -0.028926 -0.17706 
-0.6948 -0.35825 0.011026 -0.020541 -0.042901 -0.030077 -0.050464 -0.22392 
-0.43897 -0.10916 0.066269 0.011848 -0.020377 0.0039565 -0.035503 -0.14895 
-0.16934 0.095371 0.087808 0.0072447 0.010204 -0.0004827 -0.013471 0.0036276 
0.097508 0.23101 0.060679 0.077449 0.040292 0.042758 0.016781 0.17528 
0.27573 0.18119 0.05476 0.076792 0.084848 0.051965 0.05624 0.21391 
0.44459 0.11937 0.027961 0.10754 0.11691 0.053774 0.043251 0.15686 
0.43817 0.060515 -0.018897 0.062652 0.086821 0.04654 0.0324 0.078436 
0.27425 0.0024767 -0.057041 0.055418 0.052787 0.022864 0.052787 0.017438 
0.054925 -0.0062372 -0.049314 -0.012156 0.0054362 -0.00031829 0.025824 0.030756 
-0.14632 -0.047998 -0.046519 0.010204 -0.01117 0.022864 0.028783 0.046375 
-0.17756 -0.11097 -0.037805 -0.0073881 0.0037921 0.0060938 0.051965 0.031249 
0.030263 -0.066413 -0.021528 0.024344 0.022206 0.022371 0.034866 0.025166 
0.20914 -0.010348 0.026481 0.040456 0.014808 0.052787 0.032564 0.0056006 
0.26242 -0.0016336 0.060844 0.044238 0.025166 0.032236 0.035195 -0.0057439 
0.21967 0.031085 0.047033 0.056404 0.0088889 0.018589 0.018918 -0.009361 
0.13565 0.079751 0.0786 0.023522 0.023522 0.017438 0.027796 0.0046141 
