0.044896 0.058706 0.058213 0.02829 0.015794 0.032729 0.019083 -0.038133 
0.032729 0.055582 0.054596 0.053774 0.026481 0.009711 0.028619 -0.042901 
0.013986 0.038319 0.041772 0.029605 0.027961 0.0093821 0.025988 0.024015 
0.013492 0.053938 0.051308 0.047855 0.029276 0.027139 0.033551 0.078272 
0.021056 0.053445 0.066434 0.027632 0.032564 0.016945 0.020727 0.045389 
0.033058 0.038483 0.062652 0.038155 0.011355 0.039799 0.041772 0.026152 
0.025001 0.068736 0.056404 0.037168 0.03092 0.019576 0.021549 0.029769 
0.02122 0.067256 0.060022 0.034209 0.030263 0.02533 0.025495 0.0065871 
0.013492 0.05772 0.051308 0.036675 0.037332 0.036839 0.035688 -0.016102 
0.010697 0.045718 0.046375 0.018589 0.03799 0.041114 0.038155 -0.010348 
0.019576 0.020069 0.018425 0.032893 0.034044 0.014315 0.013657 -0.025638 
0.048019 0.031085 -0.0052507 0.014972 0.035031 0.02533 0.044073 -0.018733 
0.015137 0.045718 0.0042853 0.056404 0.032071 0.0036276 0.031414 0.00099702 
0.020891 0.044073 0.020233 0.030263 0.026317 0.01415 0.033387 0.016781 
0.037168 0.06183 0.0095465 0.040128 0.033387 0.065283 0.052294 0.067585 
0.036346 0.061666 0.023357 0.020398 0.021384 0.015794 0.037661 0.053116 
0.048677 0.079587 0.052787 0.043416 0.048677 0.027303 0.027303 0.042265 
0.052294 0.072353 0.038977 0.02122 0.032071 0.02829 0.048677 0.031249 
0.041607 0.057555 0.047033 0.049499 0.015959 -0.00081153 0.039141 0.0421 
0.022864 0.042429 0.034209 0.029769 0.0088889 0.026317 0.024179 0.0062583 
0.013492 0.059693 0.050814 0.012342 0.017932 0.025495 0.051801 0.02681 
0.016123 0.049006 0.04358 0.027139 0.017274 0.027961 0.037168 0.0036276 
0.017767 0.068242 0.04654 0.032071 0.03651 0.057555 0.025166 0.0054362 
0.045389 0.090767 0.032071 0.044567 0.052294 0.033387 0.041936 0.060022 
0.049499 0.049335 0.021549 0.047691 0.062323 0.018589 0.035853 0.038977 
0.040621 0.040785 0.025659 0.042923 0.035031 0.037004 0.016616 0.031578 
0.055418 0.053609 0.038812 0.00033937 0.03947 0.018425 0.039305 0.038812 
0.029769 0.0421 0.020398 0.037497 0.027796 0.031907 0.010533 0.017932 
0.0069159 0.044731 0.00297 0.0062583 0.0080668 0.02681 0.0054362 0.021384 
-0.023829 0.023686 0.013986 0.0421 0.014972 0.007738 0.02533 0.032893 
-0.040435 0.01415 0.027961 0.015137 0.02533 0.034044 0.019411 0.023522 
-0.049642 0.025001 0.019576 0.020727 0.0092177 0.014808 0.01267 0.048019 
0.0093821 0.041278 0.031414 0.027139 0.01563 0.017274 0.03651 0.057391 
0.029441 0.039799 0.047033 0.030098 0.012999 0.02533 0.02681 0.055911 
0.060844 0.06594 0.045718 0.025166 0.026481 0.026974 0.031085 0.069064 
0.054432 0.045224 0.042265 0.020562 0.016288 0.020727 0.05772 0.063145 
0.070051 0.042429 0.052623 0.03388 0.027961 0.032729 0.022371 0.028125 
0.052623 0.065776 0.076627 0.024673 0.040785 0.0324 0.010533 0.064461 
0.06331 0.070215 0.072353 0.046704 0.045553 0.019247 0.045718 0.046375 
0.06742 0.085999 0.066927 0.030098 0.033551 0.027961 0.039141 0.049335 
0.053609 0.07301 0.053609 0.045389 0.037826 0.0064227 0.020562 0.065612 
0.031742 0.020069 0.028947 0.0024767 0.040292 0.028783 0.037497 0.062159 
0.027139 0.01711 0.037497 0.032729 0.0069159 0.016288 0.0082312 0.060844 
0.013164 0.028783 0.029441 0.010369 0.004943 0.012506 -0.010676 0.11148 
0.01415 0.014972 0.0092177 0.021056 0.010204 0.036839 0.01711 0.10902 
0.033222 0.028125 1.0539e-005 0.025824 0.029769 0.026152 0.011848 0.095864 
0.033551 0.028619 -0.010183 0.0074092 0.014643 0.013821 0.012835 0.059693 
-0.0040998 -0.0013048 0.0090533 0.013164 0.032071 0.034373 0.048184 -0.021692 
-0.017088 0.038319 1.0539e-005 0.016945 0.014479 0.013986 0.027961 -0.060823 
0.0024767 0.076956 0.020727 0.031085 0.032564 0.0083956 0.052623 -0.049314 
0.025659 0.033058 0.016452 0.028619 0.048019 0.013492 0.045389 -0.047012 
0.062652 0.047197 0.0092177 0.041607 0.030427 0.013986 0.019247 -0.021363 
0.053774 0.036017 0.01415 0.010204 0.036675 0.01152 0.0080668 -0.0054151 
0.061172 0.028454 0.039305 0.055418 0.046375 0.0060938 0.015959 0.017274 
0.05213 0.046704 0.052952 0.022371 0.026974 -0.010348 0.0034632 0.078436 
0.025001 0.0047785 0.059528 0.056076 0.0421 0.015465 0.0082312 0.11674 
0.0037921 -0.0029489 0.039799 0.01826 0.035853 -0.014458 0.031085 0.13647 
0.0067515 0.017767 0.025659 0.045553 0.035195 0.018096 0.035524 0.13828 
-0.012156 -0.0050863 -0.00031829 0.046211 0.04095 0.052623 0.035688 0.080573 
0.032236 -0.0044286 -0.014951 0.023522 0.026317 0.030756 0.057391 0.039799 
0.063639 0.022864 -0.01528 0.0064227 0.023686 0.021384 0.029934 0.028783 
0.056076 0.024673 0.0011614 0.0023123 0.013986 0.024673 0.013657 -0.040435 
0.06331 0.032071 0.038648 0.035853 0.038812 0.011684 0.01267 -0.019884 
0.019411 0.042265 0.034702 0.016123 0.029605 0.019083 -0.0014692 0.061008 
0.0034632 0.045718 0.030756 0.034044 0.029934 0.01711 -0.012485 0.057555 
0.015794 0.06742 0.033387 0.016452 0.017274 0.0062583 0.0074092 -0.056055 
0.035853 0.043087 0.05772 0.052787 0.041607 0.038319 0.0036276 -0.19186 
0.036017 0.0083956 0.076627 0.0090533 0.042429 0.025988 -0.0029489 -0.26075 
0.045718 0.033715 0.11017 0.049664 0.050321 0.01152 0.020727 -0.14698 
0.0592 0.0088889 0.10639 0.016452 0.044896 0.035524 0.03651 0.0095465 
0.049828 0.04917 0.088136 0.04358 0.024508 0.034866 0.03536 0.10885 
-0.0054151 0.063474 0.03947 0.023028 0.042758 0.042758 0.048348 0.14979 
-0.035174 0.055089 -0.0055795 0.01974 0.029112 0.043745 0.043416 0.11165 
-0.018239 0.05476 -0.01939 0.015301 0.032236 0.024673 0.024179 0.097015 
0.029934 0.096193 -0.010841 0.017932 0.043251 0.0227 0.054103 0.074983 
0.091753 0.083697 0.0069159 0.047855 0.057391 0.015794 0.050486 0.062981 
0.10787 0.076792 0.016452 0.033222 0.035853 0.030592 0.031085 0.029605 
0.069393 0.054432 0.0087245 0.034537 0.017932 0.032071 0.0421 0.011026 
0.07449 0.048184 0.018754 0.024179 0.019083 0.014808 0.034373 -0.0083746 
0.072188 0.06183 -0.017253 0.045882 0.034373 0.024837 0.038319 0.020562 
0.064954 0.056733 -0.0032777 0.027139 0.038319 0.030756 0.041114 0.022371 
0.041443 0.018918 -0.019061 0.048841 0.054103 0.028125 0.036346 -0.021692 
-0.014458 0.019576 0.00050378 0.038483 0.053281 0.015137 0.023028 -0.041093 
-0.025967 -0.0098543 0.0014903 0.047033 0.027468 0.028125 0.029769 -0.0067304 
-0.014458 0.011355 0.01974 0.023686 0.033222 0.023193 0.028947 -0.029091 
0.019083 0.042923 0.028947 0.03092 0.014479 0.027303 0.042429 0.0039565 
0.021549 0.042429 0.042265 0.019247 0.017274 0.043416 0.035031 0.028125 
0.025824 0.050321 0.04358 0.013821 0.005765 0.027796 0.03799 0.039141 
0.027632 0.08419 0.040621 0.018425 0.0060938 0.03947 0.037332 0.05213 
0.040128 0.084684 0.072024 0.021878 -0.010841 0.043416 0.059364 0.057884 
0.038812 0.09833 0.042594 0.037168 0.025988 0.029276 0.043416 0.037826 
0.0227 0.096521 0.028125 0.025001 0.014479 0.035688 0.026152 0.029934 
0.038319 0.064296 0.037497 0.049335 0.014972 0.030263 0.025659 0.010697 
0.041607 0.0786 0.037497 0.028125 0.02122 0.033222 0.034044 0.009711 
0.056898 0.073668 0.045553 0.062652 0.020233 0.048841 0.024837 0.032729 
0.051308 0.057391 0.038483 0.032236 0.030756 0.022864 0.023522 0.077943 
0.048348 0.08567 0.0083956 0.072517 0.014972 -0.0088678 0.028783 0.14765 
0.045718 0.069064 0.061337 0.035031 0.043909 0.035853 0.011355 0.14667 
0.060844 0.070544 0.089452 0.050979 0.05476 0.028783 0.012835 0.094055 
0.074983 0.092576 0.10293 0.035031 0.027796 0.029769 0.02681 0.050814 
0.067913 0.068571 0.062159 0.010369 0.020562 0.049664 0.017603 0.018425 
0.070051 0.027468 0.021713 0.034209 0.026646 0.034373 0.013657 -0.0088678 
0.04654 0.03651 0.017932 0.028454 0.031414 0.055582 0.019411 0.0062583 
0.02829 0.032071 -0.0072237 0.031742 0.014972 0.027303 0.025659 0.038977 
0.034209 0.044896 0.0039565 0.026646 0.0080668 0.021384 0.037497 0.053116 
-0.0064016 0.030756 0.017932 0.035031 0.017603 0.040292 0.058049 0.10145 
0.0018191 0.06035 0.049828 0.038319 0.021713 0.024179 0.025824 0.11494 
0.014643 0.083204 0.080573 0.070051 0.028125 0.015465 0.025001 0.095206 
-0.024652 0.12529 0.10836 0.043251 0.024837 0.014315 0.043087 0.066269 
-0.035174 0.070708 0.060515 0.056898 0.028454 0.01004 0.017767 0.053938 
0.015301 0.069064 -0.0047575 0.027632 0.036182 0.014808 0.02533 0.050157 
0.029441 -0.010676 -0.062138 0.0026412 0.025824 0.018754 0.026317 0.036346 
-0.0047575 -0.057699 -0.049478 0.005765 0.015794 0.018918 0.009711 -0.010019 
-0.0064016 -0.04471 -0.034352 0.016123 0.012506 0.022864 0.016288 -0.001798 
0.031414 -0.0078813 0.013328 0.030756 0.019083 0.018425 0.033058 0.055254 
0.037826 0.037661 0.053116 0.027303 0.014479 0.033058 0.01152 0.044567 
0.073997 0.08567 0.099974 0.052952 0.0090533 0.019247 0.013657 -0.014293 
0.044731 0.05772 0.093398 0.027303 0.0067515 0.028619 0.042758 -0.028433 
-0.0022913 0.016288 0.084519 0.05065 0.011026 0.0039565 0.017603 -0.036983 
-0.014787 0.038155 0.069393 0.031085 0.0042853 -0.0039354 0.015794 0.0013258 
0.00033937 0.0092177 0.042429 0.049992 0.024179 -0.0075525 0.031742 0.059364 
-0.0054151 -0.00064712 0.031085 0.021384 0.039799 0.010697 0.012342 0.089452 
0.019905 0.024344 0.038648 0.033222 0.042923 0.033715 0.021878 0.10935 
0.057227 0.022535 0.035195 0.013657 0.03388 0.0060938 0.055089 0.11066 
0.058049 0.028947 0.031907 0.016781 0.03799 0.020069 0.023522 0.038812 
0.063968 0.031578 0.027303 0.014643 0.04917 0.017767 0.015301 0.019411 
0.052459 0.022535 0.026481 0.0075736 0.038648 0.021384 0.034209 0.037497 
0.046868 0.041772 0.037497 0.01711 0.025988 0.027468 0.036346 0.046375 
0.029441 0.037004 0.044238 0.0093821 0.0082312 0.019905 0.02681 0.032071 
0.027468 0.007738 0.090603 0.04917 -0.020377 0.0021479 0.023851 -0.0040998 
-0.0019624 0.01826 0.034702 0.0069159 0.01152 0.007738 0.027632 -0.014951 
-0.0068948 -0.011005 0.036675 0.030263 -0.016102 -0.0078813 0.038977 -0.0080457 
-0.019061 -0.019555 -0.0026201 0.0032988 0.012177 -0.010512 0.032729 -0.016595 
0.023357 0.053281 -0.010183 0.026646 0.0072447 0.012013 0.0011614 0.017438 
-0.0050863 0.0037921 0.018425 0.022042 0.032071 0.00066819 0.0046141 0.05065 
0.0013258 0.023522 0.042265 0.048513 0.038483 0.02533 0.03799 0.048184 
0.047526 0.056733 0.056076 0.030427 0.038155 0.00297 0.01415 0.0324 
0.068078 0.063639 0.058706 0.046211 0.044073 0.022042 0.0062583 0.084026 
0.049499 0.038483 0.053938 0.024179 0.041278 0.041278 0.0085601 0.02533 
0.029769 0.023193 0.028947 0.013821 0.025659 0.017438 0.0093821 -0.0050863 
0.01711 -0.024487 0.0013258 0.0032988 0.023686 0.020727 0.033058 -0.015116 
0.058213 -0.0080457 -0.0091966 -0.0027845 0.016781 0.032893 0.042923 -0.045861 
0.07301 -0.0090322 0.0046141 0.016288 0.011684 0.019083 0.028454 -0.052766 
0.03799 0.016616 -0.0040998 0.0034632 0.023357 0.012013 0.031907 -0.059507 
-0.016266 0.048184 -0.0088678 0.039799 0.021549 0.021056 0.041936 -0.094363 
-0.062796 0.05065 0.004943 0.015794 0.013492 0.023028 0.023522 -0.21767 
-0.038627 0.046868 0.0085601 0.049006 0.02829 0.019247 0.030427 -0.26897 
0.021056 0.085999 0.00033937 0.027139 0.039634 0.041114 0.043909 -0.14007 
0.076134 0.086821 0.00297 0.056898 0.035524 0.034702 0.033551 0.11526 
0.11 0.1003 0.025495 0.047691 0.051965 0.048841 0.029605 0.33213 
0.10918 0.095042 0.032071 0.059035 0.054596 0.036182 0.059693 0.43932 
0.076463 0.051965 0.038483 0.03947 0.042758 0.035195 0.021713 0.45182 
0.047526 0.06035 0.048019 0.034537 0.028125 0.033715 0.0054362 0.34544 
0.055089 0.062981 0.058871 0.013164 0.030592 0.0054362 0.025659 0.20273 
0.076134 0.093069 0.099974 0.020727 0.025824 0.0074092 -0.003771 0.079751 
0.097672 0.10951 0.15867 0.037826 0.017603 0.027961 -0.014129 -0.045532 
0.094384 0.074819 0.17873 0.026974 0.031085 0.015794 0.017767 -0.12955 
0.075805 0.040785 0.12069 0.023193 0.022206 0.019576 0.0034632 -0.206 
0.022042 0.045389 0.048184 0.010697 0.0079024 0.028947 -0.0049219 -0.32652 
-0.060165 0.0085601 -0.0072237 0.038483 0.0056006 0.038155 0.0016547 -0.43404 
-0.034516 0.024837 -0.040928 0.02122 0.026152 0.034702 -0.00015387 -0.47958 
0.0016547 0.072024 -0.021363 0.048019 0.028125 0.043745 -0.0044286 -0.31566 
0.06183 0.076627 -0.00064712 0.036182 0.036017 0.041772 0.040785 -0.025309 
0.082875 0.038977 -0.014951 0.05065 0.046375 0.061666 0.056898 0.19994 
0.051143 0.049006 -0.031064 0.031907 0.046211 0.048348 0.052294 0.30549 
0.059693 0.051801 -0.020706 0.046211 0.046868 0.053774 0.069886 0.34479 
0.040128 0.052787 -0.010841 0.038648 0.045553 0.04506 0.047197 0.30845 
0.0054362 0.049992 0.013657 0.0064227 0.049499 0.031249 0.062817 0.23874 
-0.0022913 0.031414 -0.0019624 0.015137 0.045553 0.0059294 0.058542 0.2029 
0.027468 0.041607 0.034702 0.0075736 -0.0050863 0.021384 0.011848 0.14617 
0.029276 0.0019835 0.0093821 0.051965 0.018589 0.0088889 0.012835 0.015794 
0.0070803 -0.018897 -0.042573 0.052952 0.050157 0.020727 0.010369 -0.067728 
0.058706 0.050979 0.027961 0.038483 0.0227 0.029441 0.02829 -0.032708 
0.082382 0.10688 0.065612 0.013821 0.015794 0.024179 0.030592 0.044731 
0.073832 0.096028 0.076792 0.052787 0.0044497 0.044238 0.043251 0.071202 
0.061501 0.090603 0.086328 0.019411 0.014808 0.031578 0.02681 0.015794 
0.046211 0.050321 0.064296 0.048841 0.024673 0.0067515 -0.013471 -0.0062372 
0.01563 0.049006 0.052952 0.036675 0.025824 0.013164 0.017274 -0.0067304 
0.037004 0.063968 0.061666 0.040128 0.02681 0.0024767 0.0013258 -0.025309 
0.052787 0.08156 0.075805 0.031414 0.025495 -0.01232 0.014972 0.0013258 
0.025001 0.056733 0.054267 0.017767 0.0074092 0.012177 0.055747 0.01004 
0.0082312 0.052787 0.023851 -0.0004827 0.013328 0.00033937 0.043416 -0.01939 
-0.00031829 0.045718 -0.011827 -0.0016336 0.012999 -0.0078813 0.025495 -0.05885 
0.01004 0.041114 -0.041093 0.011848 0.011355 0.020233 0.059035 -0.091239 
-0.015773 0.03651 -0.037311 0.021549 0.0031344 0.021056 0.043087 -0.05441 
-0.021856 0.015301 -0.038133 0.036182 0.0039565 0.0098754 0.028783 0.05476 
-0.0095255 0.043087 -0.027775 0.0092177 0.026974 -0.001798 0.041936 0.1271 
-0.017417 0.016945 -0.0096899 0.019576 0.031742 0.012177 0.020069 0.15078 
0.0090533 0.025988 0.0067515 0.0056006 0.049992 0.044731 0.0065871 0.19566 
0.04095 0.06035 0.011684 0.0421 0.027796 0.030756 0.027632 0.17133 
0.023686 0.0064227 0.01974 0.022535 0.029934 0.030592 0.030098 0.12414 
-0.036983 -0.020048 0.058871 0.037826 0.04095 0.042594 0.020727 0.070215 
-0.068879 0.0092177 0.12184 0.06479 0.06479 0.0032988 0.032893 -0.0047575 
-0.0016336 0.029441 0.15505 0.0421 0.050979 0.025988 0.023522 -0.042408 
0.055089 0.049006 0.12809 0.039305 0.036675 0.035688 0.02533 -0.061645 
0.092411 0.092082 0.097179 0.0324 0.038483 0.019905 0.034373 -0.097651 
0.086657 0.072681 0.031742 0.043251 0.034044 0.027796 0.043745 -0.062138 
0.023028 0.050157 -0.022021 0.027139 0.020069 0.012342 0.0082312 0.0024767 
-0.0138 0.053609 -0.047834 0.038155 0.005765 -0.00015387 0.033387 0.05772 
-0.026789 0.031907 -0.02498 0.026152 0.034866 0.03388 0.028783 0.093398 
0.037168 0.062981 0.018589 0.039634 0.0079024 0.0080668 0.024673 0.10869 
0.097015 0.065118 0.077778 0.035195 0.010697 -0.026789 0.013492 0.048677 
0.073832 0.035853 0.065283 0.060022 0.020891 0.013986 0.0087245 0.077778 
0.043087 0.020069 0.046375 0.025824 0.0026412 -0.01676 0.0087245 0.042594 
-0.017746 -0.037311 -0.011992 0.021056 0.014808 0.0024767 0.031085 -0.0078813 
-0.059836 -0.057699 -0.052766 0.018425 0.028783 0.022371 0.045718 0.00017495 
-0.049149 -0.035996 -0.07003 0.013657 0.030592 0.021056 0.024508 0.0088889 
-0.031721 -0.020048 -0.020048 0.004943 0.015794 0.012177 0.040292 -0.016431 
-0.0050863 0.02829 0.012835 0.00050378 0.023686 0.025166 0.034209 0.02681 
0.027303 0.08304 0.060186 0.023193 0.04095 0.023686 0.0064227 0.022042 
0.066598 0.08567 0.08304 0.041443 0.043416 0.042923 0.02829 0.061008 
0.079422 0.077449 0.090438 0.076463 0.036839 0.016123 0.058213 0.057884 
0.041278 0.073997 0.087479 0.040456 0.01826 0.03092 0.013986 0.024015 
0.046375 0.03799 0.06742 0.044567 0.016781 0.054925 0.019411 0.0036276 
0.044073 0.053281 0.059857 0.024508 0.013986 0.033715 0.032893 -0.0080457 
0.078107 0.059528 0.048184 0.034044 0.022206 0.040292 0.03092 -0.056055 
0.07038 0.025824 0.037661 0.0021479 0.018918 0.048513 0.025001 -0.053588 
0.039634 0.059693 0.043909 0.03536 0.033387 0.035853 0.043087 -0.042408 
-0.010348 0.047691 0.046375 0.018754 0.023851 0.028125 0.022371 -0.050464 
-0.039613 0.027632 0.05476 0.015959 0.031085 0.037826 0.027796 -0.033694 
-0.036325 0.054432 0.080573 0.020562 0.039799 0.015959 0.028783 -0.0406 
0.027961 0.032564 0.18925 0.038977 0.025988 0.03651 0.015465 -0.031064 
0.0421 -0.0049219 0.23644 0.029934 0.0421 0.015137 0.018589 0.032729 
0.071859 0.059857 0.21539 0.022535 0.035031 0.010697 0.01711 0.096686 
0.10885 0.084026 0.09685 0.023522 0.025001 0.023357 0.028947 0.14617 
0.097508 0.066434 -0.052931 0.011355 0.027632 0.021384 0.021878 0.16344 
0.079258 0.055911 -0.098802 0.059857 0.016452 0.011026 0.028454 0.13335 
0.029934 0.052623 -0.029255 0.032564 0.01826 0.039634 0.03799 0.072517 
0.029112 0.072517 0.015465 0.041607 0.016123 0.040785 0.033387 0.024673 
0.026481 0.068571 -0.050629 0.014808 0.028125 0.028619 0.048348 0.019083 
0.0786 0.052623 -0.12116 0.011355 0.016452 0.039141 0.050321 0.077614 
0.084684 0.065612 -0.14615 0.010369 0.033715 0.020398 0.035195 0.13335 
0.066105 0.049006 -0.095185 0.042265 0.03799 0.028454 0.043087 0.12398 
0.033058 0.031578 0.049499 0.034866 0.03092 0.036839 0.026974 0.15407 
0.019411 0.041443 0.11724 0.0080668 0.030427 0.019905 0.01974 0.13631 
0.042923 0.0023123 0.10967 0.029769 0.020398 0.022371 0.015301 0.048513 
0.046046 -0.034681 0.049499 0.0075736 0.014808 0.019905 -0.0042642 -0.063124 
-0.020377 -0.038791 -0.009361 0.018918 0.0056006 0.031907 -0.016924 -0.19515 
-0.045861 -0.0138 -0.0083746 0.0028056 0.025001 0.013986 0.0082312 -0.29495 
-0.01528 0.0592 0.029441 0.033387 0.0037921 0.025824 0.036675 -0.19696 
0.047362 0.15999 0.10178 0.013164 0.029769 0.012177 0.018096 0.025001 
0.080738 0.12168 0.089452 0.045718 0.030756 0.035524 0.03651 0.12118 
0.047362 0.075148 0.077121 0.017274 0.029769 0.025824 0.030427 0.14206 
-0.032543 0.052294 0.041114 0.062652 0.041936 0.032564 0.027139 0.1368 
-0.004593 0.0689 0.038483 0.030592 0.043416 0.033387 0.043745 0.12842 
0.035853 0.12085 0.017603 0.043251 0.035688 0.020233 0.019905 0.18119 
0.088301 0.11905 0.020562 0.014972 0.027303 0.052787 0.026974 0.16771 
0.09833 0.093069 0.050979 0.0079024 0.010697 0.051801 0.063968 0.094877 
0.081395 0.040292 0.047526 0.017274 0.018918 0.018918 0.04506 0.11214 
0.042923 -0.049478 0.079751 -0.0098543 0.029769 0.03092 0.051965 0.08419 
0.041278 -0.074633 0.017603 0.034209 0.032893 0.026317 0.032564 0.036839 
0.0067515 -0.028926 -0.0039354 0.025495 0.025988 -0.02235 0.0014903 0.023522 
0.030427 -0.027775 -0.057041 0.032236 0.041114 0.032893 -0.0022913 0.047197 
0.019247 0.02533 -0.096994 0.013164 0.041607 0.0059294 0.020891 0.0421 
0.023357 0.037497 -0.061151 0.057062 0.025659 0.0024767 0.0013258 0.013328 
-0.00064712 0.00066819 -0.052602 0.034866 0.023028 0.023028 -0.0027845 -0.055561 
-0.048163 -0.011334 -0.033694 0.047033 0.024673 0.0075736 0.027139 -0.10045 
-0.032872 0.033551 -0.019884 0.025824 0.040128 0.029441 0.015465 -0.12905 
0.010697 0.074161 -0.0090322 0.034209 0.033387 0.021713 0.013328 -0.18167 
0.010533 0.10622 0.011191 0.044896 0.037004 0.032071 0.03388 -0.18775 
0.020891 0.035031 0.076463 0.071531 0.022535 0.0324 0.04358 -0.11426 
0.0082312 -0.029748 0.057555 0.052294 0.038648 0.024673 0.020069 0.072188 
0.014643 -0.030406 0.022371 0.032236 0.017932 0.00099702 0.02829 0.19501 
-0.0075525 -0.032379 -0.012814 0.02829 0.023686 0.035853 0.0065871 0.14174 
-0.0049219 -0.025474 -0.01117 0.014972 0.026646 0.029769 0.0060938 0.060186 
-0.011827 0.038483 0.011026 0.027632 0.016945 0.0083956 0.029112 0.047855 
0.034209 0.03799 0.061172 0.0042853 0.019083 0.024344 0.025495 0.040128 
0.095042 0.069229 0.05476 0.047855 0.025659 0.014315 0.028783 0.02681 
0.097344 0.096028 0.066598 0.022535 0.030756 0.015137 0.046704 0.016288 
0.079587 0.073668 0.053938 0.053609 0.026646 0.023028 0.030592 0.12612 
0.03536 0.065118 0.039634 0.047691 0.019411 0.0013258 0.048348 0.21243 
0.0046141 0.06183 0.032729 0.046868 0.018754 0.031414 0.057555 0.1756 
0.01267 0.039141 0.0041209 0.032236 0.013328 0.016945 0.030427 0.050979 
0.032071 0.060186 0.0079024 0.017767 0.010369 -0.0040998 0.018589 0.024179 
0.095371 0.069064 0.031578 0.037004 0.013328 0.022371 0.03799 -0.0026201 
0.10852 0.019576 0.048348 0.038483 0.019411 0.015465 0.0037921 -0.085156 
0.10967 0.048677 0.065776 0.047033 0.02681 0.0088889 0.0037921 -0.14961 
0.069558 0.045882 0.066927 0.036017 0.025988 0.038319 0.023028 -0.21027 
0.061337 0.05624 0.082053 0.054103 0.030756 0.015301 0.012177 -0.2397 
0.013328 0.07449 0.083697 0.022206 0.043909 -0.0029489 -0.023994 -0.25187 
-0.023501 0.050814 0.083204 0.044238 0.04654 0.024015 0.016945 -0.30202 
-0.076935 0.064296 0.062488 0.033058 0.058542 0.023686 0.016123 -0.28738 
-0.043395 0.059035 0.067749 0.044402 0.0324 0.02122 0.033715 -0.095843 
-0.013965 0.027303 0.070215 0.024508 0.0019835 0.029441 0.060186 0.12053 
0.0227 0.084355 0.086657 0.041936 0.015959 0.026646 0.042429 0.27343 
0.062323 0.10556 0.086492 0.020398 0.01711 0.037661 0.029276 0.3221 
0.056076 0.066598 0.073339 0.032236 0.024837 0.023357 0.036346 0.24153 
0.069886 0.048348 0.037168 0.015137 0.012013 0.029441 0.025495 0.15637 
0.050979 0.03536 0.044073 0.024837 0.01974 0.025988 0.020891 0.11411 
0.032071 0.050979 0.071366 0.028125 0.0056006 0.018589 0.042594 0.076463 
0.055582 0.11937 0.058871 -0.0024557 0.0024767 0.013657 0.043909 0.032564 
0.08419 0.12694 0.059857 0.011026 -0.020048 0.056569 0.06742 0.023028 
0.040456 0.12644 0.089452 0.02681 0.012013 0.012835 0.050486 0.010862 
0.026317 0.13236 0.093562 0.069064 0.035195 0.028125 0.025988 0.029276 
0.017603 0.10672 0.087808 0.043745 0.04358 0.036839 0.0079024 0.091753 
0.06331 0.021549 0.060515 0.068242 0.063474 0.020727 0.027796 0.12677 
0.038648 -0.02942 0.0054362 0.0092177 0.037332 0.038155 0.013657 0.17824 
-0.031228 -0.022514 -0.0036066 0.034866 0.026152 0.024179 0.0072447 0.17314 
-0.054082 0.013164 0.0088889 0.0060938 0.0062583 0.0087245 0.036182 0.075312 
-0.01676 0.07597 0.019905 0.0083956 0.00033937 0.019083 0.016781 0.024015 
0.047855 0.062323 0.027139 0.0060938 -0.00064712 0.024015 0.010204 0.034702 
0.063803 0.078272 0.048841 0.029112 0.026974 0.01267 0.046046 0.036346 
0.010533 0.091425 0.056076 0.055582 0.055418 0.057062 0.055911 0.0056006 
0.019247 0.06742 0.053774 0.040456 0.043745 0.045718 0.034537 -0.11491 
0.01711 0.051472 0.06331 0.039634 0.023028 0.044896 0.029276 -0.21258 
0.028619 0.030427 0.040456 0.018425 0.017438 0.023357 0.010533 -0.31303 
0.016123 0.012342 0.025001 0.022864 0.026481 0.00050378 -0.015609 -0.44818 
-0.0031133 0.041278 0.0227 0.013328 0.00297 0.0021479 -0.0064016 -0.3691 
-0.0138 0.025824 0.0421 0.038648 0.011355 -0.0034422 -0.0057439 -0.16177 
-0.016924 0.013657 0.030098 0.015959 0.030592 0.0044497 -0.0036066 0.12233 
0.051472 0.065283 0.032236 0.036839 0.041278 0.041936 0.038483 0.3586 
0.12283 0.067913 0.041772 0.011026 0.016781 0.019576 0.042758 0.4214 
0.1544 0.050814 0.049664 0.024344 0.0064227 0.035688 0.068078 0.34248 
0.094877 0.041772 0.044073 0.0092177 0.011848 0.0421 0.061995 0.23627 
-0.041422 -0.018404 0.013986 0.017274 0.031907 0.039305 0.05065 0.14897 
-0.17805 -0.034681 -0.011663 0.020727 0.035853 0.027139 0.042429 0.090109 
-0.14993 0.019576 -0.01939 0.010862 0.040456 0.049499 0.062488 0.097837 
0.0080668 0.032564 -0.016431 0.035524 0.042429 0.041607 0.055254 0.088465 
0.081889 0.052294 0.020562 0.031249 0.0421 0.048513 0.032236 0.052787 
0.08156 0.057062 0.036017 0.06183 0.0421 0.035853 0.0031344 0.0085601 
0.066105 0.040128 0.037332 0.027796 0.044731 0.021056 0.014643 0.028783 
0.033058 0.045553 -0.0011404 0.038812 0.038648 0.015137 0.042758 0.026646 
-0.033201 -0.013307 -0.018404 0.016781 0.044238 0.014643 0.032071 0.012835 
-0.0138 -0.014129 -0.03205 0.062323 0.039799 0.023522 0.028947 0.032564 
0.054432 0.029441 -0.011663 0.026152 0.034702 0.048184 0.035524 0.021384 
0.043909 -0.0057439 -0.027447 0.027961 0.017767 0.028125 0.038812 -0.012156 
-0.025967 0.0080668 -0.028926 0.0085601 0.0032988 0.013492 0.017274 -0.078579 
-0.051615 0.058049 -0.014458 0.0227 -0.0014692 0.01974 0.014479 -0.092226 
0.0026412 0.053281 0.016616 0.037497 0.017438 0.017603 0.03092 -0.019061 
0.09422 0.03388 0.032729 0.043087 0.025001 0.011191 0.072517 0.015465 
0.14091 0.052294 0.02122 0.051801 0.024015 0.025824 0.047855 0.07301 
0.14453 -0.0034422 0.012013 0.031249 0.027468 0.03536 0.065283 0.15735 
0.096686 0.019083 -0.0096899 0.045389 0.035524 0.019247 0.05065 0.10573 
0.079422 0.0324 0.0023123 0.028783 0.052294 0.019905 0.03388 0.10228 
0.065776 0.017603 0.01267 0.051472 0.041936 -0.0021268 0.014972 0.082382 
0.055089 0.038648 0.016452 0.022042 0.03092 0.041443 0.032564 0.059528 
0.052952 0.043087 0.0075736 0.058049 0.037004 0.018754 0.040292 0.035688 
0.060844 0.039799 0.02829 0.04095 0.058213 0.023193 0.053445 0.036675 
0.063474 0.06035 0.027632 0.050321 0.059364 0.043251 0.052294 0.033222 
0.044238 0.03651 0.029769 0.03651 0.057555 0.026152 0.050979 0.060186 
0.033058 0.023028 0.023851 0.017767 0.047526 0.025824 0.059857 0.076299 
0.024344 0.057227 0.038648 0.027139 0.02122 0.041443 0.078107 0.040456 
0.016123 0.029605 0.057884 0.045718 0.0088889 0.038648 0.047691 0.030263 
0.047691 0.055582 0.084355 0.036182 0.023686 0.028947 0.048841 0.0092177 
-0.0039354 0.078765 0.093233 0.033222 0.012177 0.032564 0.045882 -0.011663 
0.035524 0.041278 0.065283 0.034209 0.018425 0.01267 0.026646 0.014315 
0.081395 0.052294 0.044073 0.038812 0.017767 0.055747 0.022042 0.094055 
0.11132 0.06594 0.018918 0.060844 0.020233 0.034044 0.046704 0.15374 
0.14223 0.065447 0.0052718 0.029441 0.024344 0.014972 0.033222 0.2246 
0.13993 0.06331 -0.0090322 0.055911 0.028125 0.036017 0.029276 0.22312 
0.10589 0.039305 -0.03616 0.0064227 0.03092 0.0046141 0.044073 0.19895 
0.049992 -0.0022913 -0.052931 0.016781 0.027796 -0.010348 0.010369 0.15818 
-0.0072237 0.021056 -0.040764 0.025001 0.040456 0.012999 0.0024767 0.10376 
-0.027611 0.023522 0.01415 0.013164 0.034537 0.013328 0.036017 0.066105 
-0.021856 0.051965 0.053609 0.01152 0.035031 0.011684 0.038977 0.043087 
-0.032872 0.053938 0.069558 0.027632 0.026974 0.020398 0.0092177 0.0060938 
-0.065591 0.026974 0.050486 0.026974 0.027796 0.0090533 0.020398 -0.082361 
-0.063453 0.03651 0.055747 0.027796 0.024015 0.04654 0.025988 -0.1547 
0.029112 0.093233 0.092082 0.043416 0.033551 0.051801 0.0421 -0.19531 
0.072353 0.07038 0.096357 0.027303 0.040456 0.046046 0.051636 -0.1986 
0.063474 0.048348 0.063803 0.045718 0.034866 0.052787 0.020727 -0.14566 
0.026481 0.038319 0.012013 0.018096 0.025988 0.0093821 0.0044497 -0.11968 
-0.014622 0.031578 -0.010841 0.038155 0.020398 0.0037921 -0.017088 -0.12231 
-0.024816 0.048348 -0.001798 0.011026 0.013986 0.014808 -0.01939 -0.15783 
-0.0091966 0.064132 -0.018733 0.030098 0.036182 0.018096 -0.026789 -0.12659 
0.027468 0.054432 -0.014293 0.031907 0.042758 -0.0011404 0.0041209 -0.071016 
0.044402 0.059857 0.0056006 0.039634 0.064132 0.037826 0.018589 -0.019719 
0.04506 0.033387 0.028619 0.018096 0.0592 0.027961 0.041443 0.14206 
0.072188 0.01415 0.023193 0.017274 0.036346 0.027961 0.046211 0.19681 
0.074326 0.034209 0.03388 0.016452 0.033222 0.057062 0.012835 0.16821 
0.078929 0.016945 0.054103 0.016616 0.023357 0.012177 0.0074092 0.1128 
0.038648 -0.0034422 0.023193 0.012506 -0.0068948 0.04095 0.016452 0.11017 
0.015301 0.045224 0.032729 0.0019835 -0.0034422 -0.0070593 -0.0095255 0.017274 
-0.012156 0.045224 0.0095465 0.013164 0.0052718 -0.010348 0.0051074 0.065776 
-0.015773 0.071202 0.034373 -0.0016336 -0.0013048 0.025166 0.011355 0.14979 
-0.031064 0.077943 0.044567 0.052787 -0.00064712 0.0019835 -0.0075525 0.1493 
-0.026953 0.015959 0.034866 0.038977 0.027796 0.0021479 -0.0040998 0.13039 
-0.014787 0.01415 0.047526 0.074983 0.039305 0.031414 0.022864 0.077778 
-0.013636 0.040128 0.03651 0.040621 0.047855 0.025988 0.017603 0.028125 
-0.004593 0.044567 0.045553 0.029769 0.045224 0.034866 0.018754 -0.00081153 
0.01563 0.07597 0.069558 0.0093821 0.036017 0.047033 0.045224 -0.1353 
0.053116 0.081395 0.11198 0.028619 0.040621 0.042265 0.043909 -0.33605 
0.067913 0.095206 0.094877 0.044731 0.018754 0.061337 0.017767 -0.46446 
0.0227 0.097672 0.096686 0.041936 0.010862 0.023028 0.033058 -0.44769 
-0.032379 0.073504 0.082546 0.016616 0.0093821 0.0016547 0.016781 -0.19498 
-0.033201 0.026317 0.041443 0.0090533 -0.0026201 0.017274 -0.019226 0.012177 
-0.071509 0.037332 0.037661 0.017438 0.0051074 -0.021856 -0.025638 0.014972 
-0.087458 0.025824 0.068242 -0.00064712 -0.014129 -0.03912 -0.05885 0.055582 
-0.065426 0.020069 0.0037921 0.03651 -0.010183 -0.022185 -0.034352 0.13368 
-0.028926 0.004943 -0.096336 -0.0036066 0.010533 -0.0138 -0.01232 0.16048 
0.028947 -0.0036066 -0.12429 0.040621 0.032893 0.0051074 -0.006566 0.14272 
0.072024 0.03799 -0.082854 0.047362 0.043416 0.019576 0.010533 0.07597 
0.09422 0.090767 -0.043395 0.051143 0.044073 0.034044 0.051636 0.0046141 
0.11576 0.070544 -0.025967 0.02533 0.052952 0.026646 0.040292 0.029441 
0.10573 0.057227 -0.029091 0.035195 0.06742 0.029441 0.064296 0.092247 
0.068571 0.024179 -0.025474 0.04095 0.050979 0.030427 0.063968 0.10359 
0.039141 0.0060938 0.0041209 0.043416 0.054925 0.0227 0.03799 0.12036 
0.0014903 0.016616 0.051965 0.033715 0.024837 0.026317 0.027961 0.11214 
-0.0044286 0.029605 0.15933 0.023851 0.029441 0.0082312 0.069064 0.1294 
0.029112 0.046375 0.19418 0.048841 0.031578 0.034044 0.065118 0.15883 
0.047362 0.080902 0.18267 0.030427 0.035853 0.022535 0.064625 0.095535 
0.055089 0.066105 0.12135 0.045882 0.052623 0.027139 0.089616 0.058542 
0.11444 0.095699 0.079258 0.01415 0.024673 0.049006 0.051636 0.08978 
0.13023 0.16163 0.06594 0.020562 0.029276 0.035195 0.047691 0.058049 
0.061008 0.11378 0.10096 0.023686 0.031578 0.025659 0.023028 0.02122 
-0.00097594 0.091096 0.11674 0.042594 0.022371 0.02681 0.0070803 0.027468 
-0.0077169 0.083204 0.21589 0.033222 0.041607 0.0069159 -0.0049219 0.012506 
0.017932 0.083862 0.293 0.034373 0.0421 0.028783 0.022864 -0.02087 
0.048677 0.055747 0.22887 0.031742 0.028619 0.021878 0.016945 -0.095021 
0.059528 0.019083 0.073504 0.076134 0.0034632 0.0095465 0.035524 -0.19301 
0.042265 0.018589 -0.10571 0.01826 0.017274 0.012342 0.038648 -0.12363 
0.047362 0.039141 -0.24036 0.023357 0.0041209 -0.0072237 0.027796 0.052623 
0.077778 -0.015116 -0.28919 0.029112 -0.0031133 -0.011005 0.024673 0.18152 
0.13203 -0.025309 -0.30317 0.012013 0.020398 0.00297 0.035524 0.22197 
0.12332 0.045882 -0.27325 0.033715 0.020398 0.0052718 0.013328 0.18761 
0.10343 0.028783 -0.19679 0.031085 0.026974 0.026317 0.018425 0.18991 
0.010369 -0.020212 -0.13727 0.042429 0.019905 0.038155 0.01974 0.17725 
-0.015773 -0.021528 -0.083676 0.01415 0.011848 0.045224 0.0324 0.15226 
-0.015938 -0.071838 -0.016595 0.045882 0.020562 0.050979 0.035031 0.087972 
-0.021528 -0.059343 0.043087 0.027139 0.038648 0.052623 0.078272 0.063803 
0.00066819 -0.030077 0.097672 0.022206 0.046868 0.061995 0.059035 0.093233 
0.034866 -0.015773 0.14683 0.031742 0.065447 0.080244 0.043251 0.056733 
0.062817 0.031907 0.16081 0.053116 0.075805 0.099645 0.045718 0.041114 
0.034537 0.095864 0.16771 0.057884 0.082711 0.078272 0.063803 -0.019884 
-0.039942 0.096357 0.10343 0.042265 0.048019 0.0786 0.049006 -0.12429 
-0.12905 0.087479 0.08978 0.022864 0.007738 0.034044 0.042265 -0.18956 
-0.076442 0.11362 0.055747 0.016288 -0.021692 0.024673 0.025988 -0.14928 
0.040785 0.12135 0.10704 0.027303 -0.017746 0.01415 0.033715 0.045389 
0.14963 0.17363 0.23923 -0.0047575 -0.01676 0.0070803 0.057062 0.23134 
0.19649 0.15522 0.31634 0.053281 0.0085601 0.01974 0.037332 0.25058 
0.14667 0.11609 0.26061 0.029276 0.018096 0.021384 0.028619 0.20586 
0.073504 0.058049 0.098494 0.042429 0.030263 0.021056 0.037004 0.13549 
0.074654 0.013821 -0.061151 0.014643 0.019905 0.035853 0.025166 0.048184 
0.048184 0.027961 -0.20797 0.025988 0.024179 0.022371 0.010369 0.012013 
0.028125 0.054596 -0.25812 0.028947 0.026317 0.016781 0.03388 0.020562 
0.049335 -0.0019624 -0.25943 0.038977 0.046211 0.04654 0.046704 0.012506 
0.074819 -0.0052507 -0.17065 0.051143 0.06035 0.047691 0.056569 0.032236 
0.033222 0.005765 -0.055232 0.031085 0.030592 0.027796 0.035688 0.0075736 
-0.021528 0.0092177 -0.020706 0.040128 0.0052718 0.024673 0.021384 -0.023501 
-0.029913 0.047197 -0.047669 0.015465 0.00066819 -0.0024557 0.00066819 -0.050464 
0.028783 0.054432 -0.064111 0.040128 0.0064227 0.00050378 0.016945 -0.047176 
0.041772 -0.0078813 -0.0868 0.028125 0.03947 0.022042 -0.0077169 0.019905 
0.039963 -0.052437 -0.0771 0.038483 0.018425 0.036839 0.023686 0.082053 
0.01267 -0.085813 -0.080223 -0.0040998 0.03947 0.055911 0.027961 0.06331 
0.014315 -0.062796 0.095042 0.024673 0.022042 0.035688 0.030263 0.020727 
-0.012156 0.061337 0.22444 0.026646 0.034373 0.030756 0.024673 0.0065871 
-0.060165 0.096357 0.24926 0.052294 0.056404 0.068571 0.050157 0.041772 
-0.075455 0.096193 0.19205 0.053116 0.054432 0.052623 0.063145 0.11033 
-0.048492 0.15407 0.13697 0.047526 0.043909 0.03799 0.043251 0.14042 
-0.011663 0.15111 0.16558 0.04654 0.096357 0.10737 0.066434 0.070544 
0.026646 0.12546 0.13615 0.044896 0.048513 0.028454 0.042594 -0.028433 
0.037661 0.11839 0.088465 0.098001 0.034044 0.0013258 0.016452 -0.095185 
0.019576 0.023028 0.02681 0.0095465 0.022206 0.0044497 0.0070803 -0.019555 
0.077943 0.011026 0.059364 0.017603 0.020233 -0.01676 0.026974 0.074983 
0.091096 0.053281 0.12299 0.0019835 0.010204 0.0082312 -0.006566 0.015794 
0.046046 0.049664 0.11083 0.010697 -0.00097594 0.0051074 0.0018191 -0.25434 
0.02829 0.043251 0.028783 0.015794 0.0095465 -0.003771 0.01267 -0.41908 
0.042594 -0.0027845 -0.056548 0.056733 0.012999 0.028619 0.032893 -0.1473 
0.092576 -0.0031133 -0.099789 0.01267 0.029769 0.014972 0.050321 0.18662 
0.14733 0.028947 -0.099953 0.03092 0.034373 0.013657 0.054267 0.26126 
0.14206 0.044073 -0.068221 0.0021479 0.020891 0.012013 0.024673 0.087643 
0.041936 0.019411 -0.0078813 -0.00097594 0.0069159 -0.011992 0.014315 -0.14188 
-0.053917 0.041278 0.064954 0.015794 0.030263 0.013821 0.013657 -0.2984 
-0.05178 0.056076 0.10885 0.030263 0.023851 0.030427 0.0098754 -0.4028 
0.012835 0.079094 0.078436 0.048513 0.018754 0.034702 0.013492 -0.23247 
-0.014458 0.065283 0.051143 0.028619 0.052952 0.024344 0.031578 0.038812 
0.017767 0.032893 0.014479 0.047033 0.04095 0.04506 0.023193 0.24976 
0.062652 0.029605 0.015959 0.01974 0.031742 0.017274 0.035031 0.2657 
0.11937 0.056569 0.019905 0.058213 0.048019 0.011026 0.053938 0.22756 
0.13664 0.043087 0.016123 0.037332 0.037497 0.022864 0.034209 0.16031 
0.10047 0.05624 0.013492 0.068407 0.046375 0.0227 0.031249 0.15489 
0.057391 0.03651 0.067749 0.04358 0.047855 0.034537 0.032236 0.19106 
-0.031392 0.024508 0.078929 0.042429 0.029112 0.00099702 0.030756 0.20701 
-0.093212 0.051965 0.10984 0.020069 0.014808 0.0047785 0.023522 0.2218 
-0.098802 0.03651 0.05772 0.018096 0.016123 0.019083 0.050157 0.15752 
-0.065919 0.0083956 0.066598 0.023193 0.014315 0.022042 0.050814 0.11362 
-0.003771 0.046211 0.079094 0.0023123 0.017438 0.035031 0.024673 0.085999 
0.060679 0.036346 0.089616 0.027139 0.032893 0.029605 0.031414 -0.021528 
0.083697 0.069064 0.10688 0.022371 0.021878 0.020233 0.012013 -0.14056 
0.077121 0.074983 0.076299 0.035031 0.031907 0.015301 -0.0034422 -0.27653 
0.05476 0.053116 0.084684 -0.0029489 0.016945 -0.006566 0.0014903 -0.36992 
0.072024 0.067091 0.078436 0.025824 -0.0090322 -0.018733 -0.0016336 -0.33506 
0.08304 0.10836 0.068078 0.0024767 -0.0059084 0.023028 0.0021479 -0.24858 
0.063639 0.094548 0.031085 0.027139 -0.0039354 -0.00064712 0.012999 -0.13136 
0.038812 0.088465 -0.024323 0.0026412 0.0090533 0.00297 0.0092177 0.10589 
0.027961 0.064461 -0.071509 0.030098 0.026974 0.022042 0.011684 0.27096 
0.012506 0.017438 -0.10094 0.0079024 0.041607 0.023357 0.038155 0.24992 
0.026974 0.012013 -0.12215 0.03092 0.06035 0.040128 0.018918 0.22345 
0.045389 -0.012649 -0.10982 0.020891 0.035195 0.022864 0.028454 0.21441 
0.06479 -0.045203 -0.10357 0.032071 0.042429 0.036675 0.048841 0.10984 
0.050979 0.026974 -0.045368 0.04358 0.048348 0.042429 0.037661 0.026481 
0.00099702 0.03947 0.028619 0.040621 0.034702 0.021878 0.020727 -0.10143 
0.0026412 0.029276 0.11839 0.049006 0.037497 0.026646 0.046704 -0.095678 
0.013821 0.046704 0.20849 0.030098 0.0092177 0.015137 0.019905 0.037661 
0.066763 0.073668 0.25995 0.065118 0.016452 0.014808 0.036346 0.085341 
0.010204 0.092082 0.24318 0.026481 0.018754 -0.01939 0.037004 0.093891 
-0.066413 0.088136 0.15604 0.050979 0.012506 0.015301 -0.0064016 0.058213 
-0.14533 0.0592 0.13664 0.013328 0.012342 0.011355 -0.013471 0.020233 
-0.13086 0.038812 0.14798 0.013986 0.016123 0.012342 0.01004 0.024508 
-0.054246 0.059364 0.11937 0.016123 0.023357 0.024179 0.0093821 0.077285 
0.027632 0.017767 0.0079024 0.011355 0.021056 0.021384 0.03536 0.12842 
0.093233 0.076463 -0.053588 -0.004593 0.016616 0.029769 0.041443 0.171 
0.18646 0.10984 -0.11146 -0.0088678 0.017274 -0.0067304 0.036182 0.20388 
0.23693 0.12217 -0.15684 0.0079024 0.0074092 0.0060938 0.019247 0.17363 
0.19764 0.050979 -0.15207 0.01974 -0.0032777 0.042429 0.035688 0.0689 
0.071859 -0.040764 -0.16046 0.027468 0.020562 0.012013 -0.0057439 -0.10357 
-0.06444 -0.092883 -0.15372 0.021384 0.03536 0.028619 0.011355 -0.15421 
-0.010841 -0.017088 -0.10127 0.0689 0.061666 0.039799 0.035853 -0.02235 
0.0070803 0.040456 -0.017911 0.052294 0.0689 0.046868 0.046868 0.081231 
-0.0503 0.025988 0.045389 0.099316 0.084684 0.055418 0.02533 0.029441 
-0.10242 0.00017495 0.090931 0.050157 0.074161 0.054925 0.036182 -0.015609 
-0.026624 -0.0032777 0.1562 0.055582 0.047691 0.01004 0.010697 -0.017582 
0.080573 0.065776 0.21046 0.021878 0.016781 -0.00081153 -0.00097594 -0.015773 
0.11329 0.081724 0.16656 -0.0029489 -0.013636 -0.0036066 0.025495 -0.023007 
0.10474 0.062652 0.087972 0.010533 0.00099702 -0.011005 0.012013 -0.08269 
0.04095 0.070873 0.018589 0.0039565 -0.0044286 0.03092 0.024673 -0.091075 
-0.030735 0.038977 -0.046025 0.007738 0.018096 0.048348 0.058542 0.01826 
-0.10801 -0.013636 -0.082196 -0.0078813 0.024015 0.024344 0.043745 0.075312 
-0.084663 0.036346 -0.083512 0.0051074 0.037004 0.049664 0.046868 0.16294 
0.022371 0.073504 -0.075127 0.010204 0.021384 0.023851 0.061666 0.29431 
0.12513 0.06331 -0.063124 0.058049 0.049499 0.022864 0.046375 0.32588 
0.11839 0.088465 0.0093821 0.067091 0.059693 0.042594 0.036346 0.24104 
0.040621 0.050814 0.072846 0.085341 0.050486 0.027796 0.061501 0.12809 
-0.03616 0.035524 0.18826 0.053116 0.021713 0.0079024 0.013328 0.0014903 
-0.01676 0.048841 0.32687 0.058213 0.023193 0.011848 0.023193 -0.073976 
0.081889 0.01563 0.3119 0.039799 0.042429 0.0098754 0.016452 -0.12462 
0.1636 0.050486 0.2075 0.048019 0.028947 0.0087245 1.0539e-005 -0.13267 
0.27902 0.15357 0.067585 0.041278 0.031742 0.027468 0.011684 -0.074962 
0.21737 0.093726 -0.037969 0.0421 0.031085 -0.0036066 0.033551 -0.090417 
0.010533 0.027303 -0.066413 0.024837 0.028783 0.0052718 0.032729 -0.1769 
-0.1501 -0.031721 -0.1182 -0.001798 0.0023123 0.00083261 0.0085601 -0.097487 
-0.15109 -0.043395 -0.194 -0.018075 0.01267 -0.017253 0.04506 0.031414 
-0.080223 0.009711 -0.21669 -0.015444 1.0539e-005 0.0421 0.049664 0.064132 
0.05065 0.06479 -0.19646 -0.0080457 0.0079024 0.039305 0.074654 0.096686 
0.11905 0.099316 -0.12642 0.0069159 0.011684 0.036839 0.069064 0.1294 
0.083697 0.10787 -0.080881 0.051636 0.049335 0.042594 0.067256 0.1271 
-0.016924 -0.017088 -0.06855 0.049006 0.051308 0.0324 0.030756 0.07597 
-0.054739 -0.075949 -0.044052 0.077943 0.052787 0.037168 0.071037 0.047526 
-0.0083746 -0.035174 0.048019 0.038155 0.042429 0.045224 0.053774 0.083697 
0.034702 0.016452 0.14206 0.059857 0.061337 0.04506 0.068571 0.159 
0.06742 0.048841 0.19057 0.040456 0.064132 0.067256 0.097015 0.16475 
0.074161 0.058706 0.16689 0.043909 0.044567 0.053774 0.055254 0.10935 
0.08304 0.048677 0.11214 0.044731 0.034209 0.013986 0.031578 0.043251 
0.073832 0.070873 0.08304 0.031578 0.018096 0.032071 0.024344 0.0085601 
-0.022185 0.075641 0.051143 0.023686 -0.0050863 0.025659 0.018754 -0.042244 
-0.062302 0.07597 0.037004 -0.00064712 -0.012156 -0.0016336 -0.0021268 -0.077757 
-0.032708 0.10622 0.017438 0.022864 -0.0016336 0.021056 0.043251 -0.10472 
0.038483 0.087972 -0.013636 0.016945 0.0082312 0.0056006 0.06742 -0.096007 
0.062323 0.044567 -0.031064 0.036839 0.027961 0.019247 0.015137 -0.078908 
0.074983 0.077285 -0.027775 0.026646 0.047033 0.038977 -0.0029489 -0.13843 
0.081889 0.060186 -0.0052507 0.046704 0.053938 0.017438 -0.037147 -0.17871 
0.10524 0.052787 0.0037921 0.023193 0.043745 0.020069 -0.031392 -0.13514 
0.064461 0.055418 0.010204 0.042265 0.0065871 0.029441 -0.016266 -0.067564 
0.035195 0.022864 0.0072447 0.012835 0.01711 0.0062583 -0.019884 0.048841 
0.0042853 0.016781 0.077285 0.0080668 0.026646 0.010697 -0.028926 0.12069 
-0.017417 0.024837 0.21901 -0.0004827 0.010697 0.00050378 -0.017582 0.14535 
-0.023172 0.0098754 0.28921 0.014972 0.01826 0.0062583 -0.00031829 0.13664 
0.030098 0.062323 0.22493 0.035195 0.032236 0.022042 0.017767 0.050979 
0.10441 0.13187 0.15308 0.040621 0.038319 0.01711 0.068407 0.04095 
0.14798 0.10754 0.026974 0.059035 0.048348 0.0039565 0.055418 0.09981 
0.17593 0.076956 -0.093376 0.030756 0.054925 -0.00064712 0.033715 0.10096 
0.12677 0.062159 -0.17082 0.059857 0.040456 -0.012649 0.052459 0.12694 
-0.029748 0.027303 -0.19959 0.014315 0.033551 0.0024767 0.04917 0.13861 
-0.24234 -0.0049219 -0.12133 0.047855 0.037332 0.016452 0.025988 0.010369 
-0.29215 -0.042244 -0.0064016 0.0047785 0.014972 0.0044497 0.014315 -0.03501 
-0.14813 -0.01676 0.10655 0.021878 0.010533 0.0064227 0.0087245 0.017932 
-0.035667 0.064132 0.16311 0.043909 0.0067515 0.024673 -0.019719 -0.023994 
0.019905 0.056404 0.12973 0.050321 0.0016547 0.0056006 0.0059294 0.010862 
0.073997 0.021056 0.072846 0.034209 0.0047785 0.021384 0.020562 0.1368 
0.061008 0.021056 0.05476 0.0088889 0.019576 0.024837 0.066598 0.24762 
0.11198 -0.015116 -0.0040998 0.048513 0.047526 0.044238 0.12414 0.32128 
0.2149 0.016781 -0.062467 0.012342 0.055911 0.049992 0.10672 0.25535 
0.21441 0.062323 -0.037969 0.027468 0.044073 0.038812 0.054267 0.14042 
0.092082 0.021384 -0.017911 -0.0098543 0.021878 0.03651 0.012506 -0.01117 
-0.040764 0.055418 0.062159 0.0067515 0.019247 0.021549 -0.0091966 -0.028597 
-0.11212 0.060186 0.10951 -0.049314 0.0026412 -0.0034422 -0.039778 -0.010841 
-0.081045 0.032071 0.17939 -0.011334 -0.0073881 -0.034352 -0.024487 -0.0088678 
0.0093821 0.061995 0.14848 0.00083261 0.012506 -0.017088 -0.025309 -0.04323 
0.065118 0.1105 0.1202 0.047033 0.0060938 -0.015609 -0.018733 -0.079237 
0.068078 0.11872 0.056569 0.059528 0.025166 0.021549 0.04917 -0.063618 
-0.0042642 0.10228 0.014972 0.059035 0.028454 0.011684 0.044238 -0.098309 
0.023851 0.064625 0.00066819 0.056076 0.033387 -0.0087034 0.011355 0.049499 
0.027139 0.025166 -0.0098543 0.049992 0.024015 0.0067515 0.027303 0.37307 
0.08008 0.024179 0.012177 0.061995 0.03799 0.020562 0.029441 0.46612 
0.068242 -0.025638 0.022535 0.044238 0.0062583 0.028125 0.0037921 0.3221 
0.038319 -0.02498 0.039634 0.061172 0.038812 0.048184 0.043416 -0.01117 
-0.033365 0.004943 0.0421 0.041936 0.056898 0.047691 0.061501 -0.4421 
-0.0070593 -0.010019 -0.0096899 0.03799 0.048513 0.023193 0.013328 -0.81729 
0.023028 -0.028433 -0.050464 -0.023501 0.032236 0.044073 0.0044497 -0.78687 
0.11132 0.0072447 -0.030406 0.0067515 0.034373 0.027796 0.043087 -0.40774 
0.17939 0.050814 -0.0026201 -0.011498 0.017932 0.039963 0.034866 0.017767 
0.12875 0.095864 0.06183 0.021056 0.029112 0.046868 0.022206 0.36024 
0.090438 0.10688 0.081231 0.014479 0.032893 0.047526 0.0421 0.58006 
0.010533 0.05772 0.064132 0.027468 0.03799 0.058542 0.051143 0.57908 
-0.040106 0.058542 0.025659 0.028125 0.051472 0.055747 0.073668 0.43587 
-0.044217 0.038155 -0.0040998 0.029934 0.033551 0.040785 0.050321 0.21654 
0.034537 0.051472 -0.0091966 0.039305 0.054596 0.061666 0.025988 0.061008 
0.065447 0.068407 -0.010348 0.041936 0.029769 0.053116 0.034537 -0.098638 
0.070051 0.0421 0.013164 0.069722 0.012506 0.065776 0.083862 -0.21027 
0.053609 0.058049 0.062159 0.048348 0.036182 0.093562 0.099152 -0.30383 
0.025495 0.10392 0.05476 0.067913 0.030592 0.068242 0.07597 -0.43273 
-0.016924 0.082875 0.046046 0.039305 0.032236 0.045553 0.062981 -0.36926 
-0.045368 0.07038 0.044238 0.073668 0.032071 0.045389 0.043087 -0.052766 
0.034209 0.067913 0.023028 0.034044 0.023522 0.010369 0.032893 0.232 
0.13105 0.041936 0.079751 0.048841 0.022535 0.0011614 0.03388 0.37997 
0.077778 0.018096 0.11148 0.034209 -0.0091966 0.021056 -0.0062372 0.19714 
-0.026131 0.011191 0.083697 0.030098 0.024179 0.022206 -0.026296 -0.12938 
-0.013143 0.00066819 0.04917 0.039141 0.046211 0.055418 -0.0050863 -0.15947 
0.098494 0.039799 0.051472 0.025495 0.056404 0.060186 -0.016924 0.08304 
0.14305 0.053938 -0.0049219 -0.018404 0.0092177 0.0067515 -0.061973 0.16262 
0.17939 0.06035 -0.067235 0.010204 0.0011614 0.020398 -0.048163 -0.00031829 
0.15456 0.087972 -0.095514 0.01563 0.039963 0.0034632 -0.042079 -0.28179 
0.076299 0.089452 -0.0070593 0.0036276 0.025001 0.025659 -0.020377 -0.58037 
-0.043395 0.147 0.24515 0.040621 0.058871 0.055418 0.044238 -0.7096 
-0.19318 0.18004 0.34232 0.011191 0.046375 0.055254 0.064132 -0.79444 
-0.22787 0.12529 0.21967 0.04654 0.053609 0.021549 0.079422 -0.56146 
-0.16506 0.013492 0.043745 0.040785 0.037497 0.060022 0.091753 0.0095465 
-0.057534 -0.0082102 -0.034188 0.056733 0.056733 0.02533 0.074983 0.3415 
-0.0064016 0.017438 -0.017746 0.037168 0.031249 -0.0022913 0.029276 0.33394 
0.058377 0.056898 0.030098 0.051308 0.029605 -0.0052507 0.035031 0.31684 
0.09274 0.047691 -0.020377 0.03651 0.05476 0.026974 0.065612 0.37586 
0.090603 0.030756 -0.053095 0.060679 0.077943 0.057884 0.12858 0.48635 
0.14667 0.076792 -0.035996 0.05476 0.08567 0.076792 0.15324 0.43439 
0.19846 0.10195 0.0039565 0.051143 0.052294 0.052623 0.10014 0.40759 
0.13878 0.063474 -0.054739 0.045224 0.016123 0.054267 0.033715 0.30664 
0.042923 -0.0059084 -0.12873 0.013821 -0.027775 0.0016547 0.023357 0.18366 
-0.030406 -0.084334 -0.17427 0.00297 -0.025967 -0.018404 -0.024323 0.17939 
-0.049642 -0.068221 -0.11015 -0.0138 -0.033201 -0.019884 0.007738 0.17314 
-0.073647 0.024344 -0.013471 0.033222 -0.02498 -0.033694 0.012342 0.14831 
-0.060165 -0.015938 0.016288 0.0019835 -0.0044286 -0.049971 -0.042079 0.0059294 
-0.088937 -0.058685 -0.042737 0.030263 -0.0027845 -0.023336 -0.046025 -0.13333 
-0.1182 -0.071674 -0.076771 -0.0014692 0.014479 -0.035667 -0.013307 -0.20041 
-0.16128 -0.015609 -0.0098543 0.051143 0.025824 -0.023665 0.013657 -0.066248 
-0.059178 0.1054 0.12184 0.048348 0.020069 0.020891 0.032729 0.061337 
-0.011334 0.14535 0.18021 0.040785 0.010697 -0.010512 0.036346 0.059035 
0.016288 0.035524 0.14206 0.0074092 -0.0032777 -0.01939 -0.031557 0.0065871 
0.089123 -0.02646 0.059528 -0.021856 -0.038627 -0.016431 -0.066577 0.040292 
0.10836 -0.038791 -0.038956 -0.0022913 -0.014129 -0.017582 -0.028926 0.036017 
0.13286 -0.039449 -0.065591 0.021056 0.031578 0.027632 -0.0014692 0.052294 
0.17232 0.062159 -0.0013048 0.066105 0.05624 0.05772 0.036182 0.14979 
0.18547 0.1008 0.094384 0.06331 0.042923 0.050321 0.070873 0.15851 
0.068242 0.061666 0.063803 0.04506 0.017767 0.031907 0.020069 0.12644 
-0.00097594 0.05065 -0.004593 0.0069159 0.011026 -0.00015387 0.011848 0.10737 
-0.0026201 0.037497 -0.0095255 0.042758 0.029934 -0.0082102 0.035195 0.14437 
-0.020377 0.028947 0.032236 0.034209 0.041772 0.017932 0.026317 0.30089 
-0.013307 0.069722 -0.016266 0.058377 0.031907 0.011684 0.062323 0.42716 
0.024344 0.070708 -0.065591 0.022535 0.043087 0.0421 0.14502 0.55409 
0.040621 0.076627 -0.065097 0.023028 0.048841 0.066763 0.17593 0.61821 
0.029605 0.076956 -0.10521 0.024344 0.043909 0.06035 0.17067 0.50657 
0.017438 0.11674 -0.068221 0.042265 0.024344 0.072188 0.16755 0.25584 
-0.0054151 0.06742 -0.00031829 0.047526 0.045718 0.03388 0.082053 -0.0087034 
0.0075736 -0.0036066 -0.025145 0.0093821 0.057391 -0.041422 -0.056548 -0.27686 
0.046704 -0.10456 -0.0036066 -0.0073881 -0.023336 -0.079072 -0.15799 -0.47991 
0.049664 -0.11048 0.044731 -0.035503 -0.039613 -0.099953 -0.22704 -0.37485 
0.062488 -0.08384 0.039963 0.0028056 -0.013143 -0.066084 -0.19383 -0.18117 
0.10474 -0.035996 0.06035 -0.02498 -0.019884 -0.033694 -0.093212 -0.15158 
0.14798 0.0786 0.28872 0.033551 0.0059294 -0.0011404 -0.084827 -0.22573 
0.1105 0.14206 0.40891 0.048184 0.053609 0.033715 -0.047176 -0.22524 
-0.01528 0.16689 0.29974 0.085341 0.06594 0.063145 0.039141 -0.024158 
-0.076935 0.14864 0.11017 0.038648 0.071859 0.055254 0.050157 0.14667 
0.031085 0.08304 -0.029584 0.024179 0.079587 0.068242 0.065118 0.24449 
0.20586 0.073997 -0.0771 0.033058 0.072024 0.057062 0.078765 0.23594 
0.27228 0.10573 -0.074962 0.033387 0.053281 0.033551 0.058542 0.18662 
0.15505 0.079258 -0.049642 0.063474 0.059364 0.027796 0.079094 0.14617 
-0.028433 0.034209 -0.035996 0.050814 0.073668 0.045882 0.097344 0.09422 
-0.085156 0.045718 0.00033937 0.08156 0.062488 0.067585 0.093726 0.0786 
-0.058356 0.070544 0.031578 0.047526 0.030263 0.083204 0.063145 0.22427 
0.029112 0.14223 0.097672 0.05213 0.01563 0.041772 0.061008 0.31453 
0.10129 0.12283 0.12447 0.0067515 0.0082312 0.037332 0.035524 0.14502 
0.10573 0.081067 0.09685 0.031249 0.0023123 0.037826 0.01267 -0.089595 
0.098166 0.063803 0.066105 -0.0039354 -0.0019624 0.019083 0.032893 -0.22606 
0.061008 0.062159 0.093726 -0.00031829 0.0074092 0.017932 0.012835 -0.22803 
0.035688 0.079587 0.083862 -0.0036066 0.030263 0.056569 0.019247 -0.10916 
-0.028597 0.10885 0.094713 0.041278 0.045882 0.062159 0.03536 -0.081539 
-0.084827 0.079258 0.10622 0.052294 0.066269 0.069393 -0.0049219 -0.23773 
-0.076606 0.055418 0.11 0.050321 0.052623 0.047855 -0.049149 -0.42401 
-0.021363 0.060844 0.10852 0.047033 0.041936 0.044567 -0.06 -0.50162 
0.02533 0.014643 0.076792 0.030263 0.026646 0.025659 -0.065426 -0.55028 
0.07038 -0.037311 0.029112 0.024015 0.010862 0.0042853 -0.042573 -0.68395 
-0.0095255 -0.027447 0.0046141 -0.0016336 0.0031344 -0.0082102 0.0011614 -0.66652 
-0.038298 -0.00064712 0.021384 0.019247 0.0080668 0.022864 0.023686 -0.29281 
0.030756 0.043416 0.036675 0.043251 0.034866 0.015959 0.035853 0.24663 
0.16574 0.10737 0.076463 0.077614 0.039141 0.015959 0.056569 0.71883 
0.23414 0.056898 0.061995 0.044731 0.0227 0.031249 0.060679 0.85233 
0.11937 -0.024323 0.00033937 0.051801 0.037826 0.045553 0.076463 0.64714 
0.026317 -0.049642 -0.043395 0.027961 0.070873 0.080573 0.15703 0.28198 
0.051472 0.041114 -0.010512 0.04654 0.069393 0.10803 0.20125 -0.14533 
0.08156 0.14026 0.036839 0.038483 0.035031 0.090438 0.16969 -0.413 
0.058542 0.1174 0.045882 0.020562 0.045718 0.055418 0.14371 -0.21751 
0.041936 0.094384 0.03536 0.027632 -0.008539 0.051308 0.058542 -0.03616 
0.005765 0.10244 0.037332 0.011848 0.023193 0.036182 0.015465 -0.12873 
-0.085156 0.03799 -0.018733 0.0095465 0.016616 0.026646 -0.044874 -0.47103 
-0.12494 0.062652 0.019247 -0.013143 0.03092 0.042923 -0.04471 -0.16292 
-0.10094 0.091096 0.18218 0.027139 0.041114 0.066763 0.0036276 0.44294 
-0.075291 0.051636 0.21769 0.019905 0.054267 0.075641 0.029934 0.61262 
-0.16111 -0.023007 0.16278 0.03388 0.042923 0.044238 -0.0032777 0.34084 
-0.22277 -0.10472 0.065776 -0.0019624 0.0088889 -0.018239 -0.066248 -0.06855 
-0.058028 -0.062302 0.0051074 0.036346 0.0011614 -0.028926 -0.089759 -0.36203 
0.1493 0.056733 -0.037147 0.0070803 -0.0055795 -0.077593 -0.080552 -0.4929 
0.25041 0.10211 -0.10867 0.054267 0.012835 -0.096829 -0.012814 -0.44506 
0.232 0.097015 -0.16703 0.040785 0.026646 -0.064933 0.055254 -0.18117 
0.16886 0.075312 -0.20468 0.036839 0.036182 -0.029913 0.12743 0.11263 
0.10244 0.024015 -0.10209 0.020727 0.0075736 0.015137 0.20224 0.30993 
0.10211 0.060679 0.14108 0.019576 0.0051074 0.045553 0.20914 0.35334 
0.16245 0.12513 0.18826 0.038648 0.019247 0.030427 0.1613 0.2828 
0.091425 0.038483 0.057555 0.015465 0.024179 0.051308 0.064461 0.02533 
-0.064275 -0.097816 -0.044381 0.016781 0.028454 0.005765 0.019083 -0.19926 
-0.16407 -0.083347 0.10195 -0.0087034 0.0080668 0.0047785 -0.036325 -0.25401 
-0.17525 -0.0083746 0.29201 0.013986 0.013492 0.024344 -0.051287 -0.17525 
-0.099624 0.049006 0.28905 0.0039565 0.0059294 0.015465 -0.0078813 -0.010183 
-0.085485 0.043087 0.08304 0.057391 0.021384 0.026646 0.021713 0.085341 
-0.13399 -0.060165 -0.1649 0.037168 0.055911 0.055747 0.024837 0.13664 
-0.15109 -0.052109 -0.32142 0.029276 0.05065 0.012177 0.035853 0.29069 
-0.064933 0.052459 -0.22211 -0.0090322 0.020891 -0.010019 0.025988 0.35334 
0.0324 0.11526 0.015959 -0.017417 0.027139 -0.0021268 0.00017495 0.31864 
0.18794 0.15686 0.293 0.0047785 0.021713 -0.015773 0.0069159 0.31519 
0.24811 0.12529 0.28839 0.020727 0.020233 -0.0095255 0.0324 0.3244 
0.18695 0.065776 0.068407 0.031414 0.024673 0.0013258 0.057227 0.2851 
0.086492 0.055582 -0.16407 0.044731 0.038155 0.0085601 0.073504 0.14256 
0.0054362 -0.003771 -0.30136 0.078107 0.05065 0.025988 0.068736 -0.029584 
-0.028269 -0.041422 -0.3497 0.029441 0.038155 0.0032988 0.01563 -0.087293 
-0.027282 -0.052273 -0.31221 0.037826 0.016616 -0.029913 -0.039778 -0.067564 
0.00066819 -0.033037 -0.16227 0.01563 -0.018897 -0.010019 -0.042737 -0.12823 
0.0083956 0.033715 -0.004593 0.030098 -0.02794 -0.034188 -0.029584 -0.14829 
0.072846 0.080738 0.083368 0.0028056 -0.036818 -0.031228 -0.0032777 -0.047998 
0.11329 0.012342 0.063803 0.027468 -0.029255 -0.009361 0.020233 0.030756 
0.060844 -0.12741 -0.057205 0.023028 -0.009361 -0.01676 -0.00064712 0.018754 
0.0062583 -0.23822 -0.15273 -0.0027845 0.023522 0.00083261 0.0095465 0.047691 
-0.017088 -0.16243 -0.10028 0.0026412 0.049992 0.048019 0.024179 0.083697 
-0.039778 0.025659 0.021713 0.020398 0.064132 0.03388 0.024508 0.18218 
0.007738 0.12792 0.10014 0.040785 0.065283 0.066927 0.053938 0.31075 
0.025001 0.16031 0.11987 0.040785 0.08304 0.055582 0.024673 0.30483 
0.091425 0.15703 0.0689 0.032729 0.046704 0.040456 0.041114 0.33065 
0.13762 0.11757 0.016781 -0.01117 0.063803 0.063803 0.060186 0.32637 
0.084355 0.097015 0.026317 0.022535 0.031085 0.040292 0.056733 0.2269 
0.049006 0.14026 0.06594 0.012999 0.037168 0.030098 0.020891 0.10195 
0.031907 0.081067 0.034044 0.053116 0.023686 0.044402 0.0034632 -0.003771 
0.068736 0.015301 0.024673 0.026646 0.011026 0.0421 -0.015609 -0.11327 
0.037497 0.010533 0.028125 0.04506 0.01267 0.0095465 -0.042737 -0.11278 
-0.043559 -0.0031133 0.03651 0.019083 -0.010019 0.01826 -0.050958 -0.15076 
-0.056548 0.070215 0.07038 0.027468 -0.010841 -0.006566 -0.0406 -0.1889 
0.053116 0.15538 0.13697 0.03388 0.004943 -0.0138 -0.010676 -0.071838 
0.22953 0.15144 0.16903 0.048019 0.032564 0.029769 0.011848 0.20651 
0.29119 0.11411 0.1659 0.07301 0.046868 0.050321 0.067913 0.35268 
0.16327 0.029934 0.10162 0.075641 0.089616 0.089945 0.0592 0.28198 
0.0014903 -0.029255 0.018754 0.081724 0.087314 0.070051 0.054925 0.14749 
-0.10883 -0.023007 -0.048163 0.039799 0.071037 0.063803 0.077121 0.017274 
-0.072332 -0.0040998 -0.036325 0.044731 0.066434 0.088465 0.054103 0.045718 
0.050814 0.085835 0.0046141 -0.015444 0.057391 0.071859 0.045389 0.097344 
0.14124 0.17051 0.051143 0.028454 0.034537 0.08715 0.058542 0.061501 
0.11395 0.10014 0.05624 0.030263 0.02681 0.082711 0.028125 -0.021856 
0.061666 0.061666 0.072024 0.053774 0.033387 0.061008 0.012835 -0.18495 
0.051801 0.028947 0.094713 0.047691 0.023522 0.052294 0.043745 -0.37781 
0.053281 0.021878 0.14009 0.025001 0.0074092 0.032729 -0.0026201 -0.46364 
0.058871 0.075148 0.13845 0.011026 -0.030406 -0.011005 -0.029748 -0.37025 
0.053116 0.10392 0.10277 0.0093821 -0.027447 1.0539e-005 0.027796 -0.15881 
0.018425 0.14897 0.10836 0.028947 0.0046141 -0.0021268 0.048677 0.024015 
-0.044874 0.18613 0.16015 0.054596 0.013328 -0.0073881 0.049499 0.1276 
-0.080552 0.20158 0.22263 0.072846 0.050321 0.018589 0.068242 0.22115 
-0.079566 0.20503 0.23726 0.056569 0.04506 0.0065871 0.019576 0.15768 
-0.069372 0.13993 0.15867 0.06331 0.060679 -0.010348 -0.012485 0.061666 
-0.055726 -0.034023 0.030756 0.015959 0.034702 -0.023007 0.007738 0.012177 
-0.020212 -0.13958 -0.034352 0.033222 0.023357 -0.024652 -0.0096899 -0.01676 
0.050814 -0.087951 -0.026131 -0.0088678 0.025824 -0.010019 -0.0052507 -0.051615 
0.11214 -0.043395 0.027961 0.028125 0.036675 0.054925 0.060022 -0.03353 
0.12677 0.02122 0.057391 0.0067515 0.022864 0.051308 0.07301 -0.055068 
0.084026 0.085506 0.10918 0.025988 0.021056 0.05065 0.069229 -0.12626 
0.035688 0.11181 0.17347 0.02681 0.019576 0.074983 0.083862 -0.18742 
-0.013143 0.12085 0.18547 0.027468 0.02533 0.078107 0.025001 -0.22014 
-0.032543 0.11411 0.15719 0.012342 -0.0027845 0.071037 0.060022 -0.14336 
0.0070803 0.098988 0.09833 0.015959 0.02122 0.056898 0.047033 -0.0077169 
0.024344 0.093398 0.078436 0.026974 0.011684 0.033058 0.025659 0.077449 
0.08419 0.13319 0.037332 0.013657 0.01152 0.030592 0.010533 0.14963 
0.15341 0.14881 0.022371 0.055254 0.032564 0.031742 0.038977 0.15982 
0.16031 0.11526 0.027796 0.036182 0.036675 0.0072447 0.037497 0.10951 
0.0060938 -0.0031133 -0.0087034 0.073668 0.053609 0.005765 0.034209 0.064296 
-0.10916 -0.087786 -0.063453 -0.0050863 0.023522 -0.014951 0.039799 0.018754 
-0.10275 -0.061316 -0.075784 0.032236 0.026317 -0.021034 0.030427 -0.01676 
-0.11557 -0.067728 -0.072167 0.024508 0.030592 -0.00031829 0.0075736 -0.071345 
-0.18726 -0.10867 -0.080552 0.062159 0.046868 0.0014903 0.015137 -0.16325 
-0.15174 -0.10225 -0.03353 0.040621 0.047362 0.009711 0.016945 -0.13004 
-0.046354 -0.060329 0.007738 0.025988 0.012999 0.040456 0.037168 0.0019835 
0.028454 0.00083261 0.011191 -0.0032777 0.00066819 0.0047785 0.039963 0.05476 
0.071366 0.058542 0.016452 -0.023665 -0.01117 0.0052718 0.026317 0.095699 
0.044567 0.054103 0.0052718 -0.010676 -0.023172 -0.0068948 0.026152 0.12085 
0.074819 0.093726 0.019411 0.014315 0.0034632 -0.010676 0.054596 0.061172 
0.11066 0.10195 -0.019061 0.027961 0.032071 0.0083956 0.063803 -0.010676 
0.11954 0.020233 -0.068714 -0.00064712 0.031249 0.0034632 0.02533 0.0052718 
0.049335 -0.017088 -0.049478 0.051472 0.052952 0.0052718 0.057227 0.12447 
0.0028056 0.013492 0.033222 0.039305 0.029605 0.027632 0.049664 0.28198 
0.028454 0.013164 0.022535 0.071531 0.025659 0.0065871 0.015959 0.28412 
0.015301 -0.0096899 -0.00064712 0.018589 0.026646 0.020398 -0.0060728 0.15374 
-0.060658 -0.055068 -0.012156 0.013657 0.016288 0.041114 -0.047998 0.11428 
0.014315 0.013657 0.0023123 0.0095465 0.014972 -0.020706 -0.071838 0.091753 
0.12217 0.1345 0.031085 0.027796 0.040456 -0.0067304 -0.01939 -0.001798 
0.12168 0.090931 0.03651 0.045389 0.054925 0.029605 -0.0004827 -0.062302 
0.043416 0.0047785 0.01152 0.043745 0.083204 0.018918 0.025001 -0.085813 
0.016616 -0.027447 -0.014129 0.055747 0.069722 0.054925 0.064461 -0.09091 
0.1003 0.045882 0.024673 0.068078 0.076792 0.058542 0.068736 0.12283 
0.16771 0.12743 0.064296 0.061995 0.057884 0.056404 0.08419 0.42107 
0.16525 0.13598 0.047033 0.03799 0.029605 0.056733 0.085177 0.56379 
0.029769 0.0074092 0.012013 0.025824 0.021384 0.025988 0.023851 0.40447 
-0.11146 -0.11755 -0.035832 -0.014458 0.023193 0.030098 -0.010183 0.10688 
-0.20238 -0.12264 -0.047834 0.024015 0.018425 0.039963 0.013986 -0.14155 
-0.19416 -0.0014692 -0.027611 0.015301 0.019411 0.023357 -0.019226 -0.41053 
-0.060329 0.18777 0.031578 0.046375 0.026152 0.0064227 -0.065426 -0.73903 
0.080244 0.22855 0.092904 0.05065 0.029112 0.024015 -0.050958 -0.53039 
0.12135 0.16936 0.10195 0.061172 0.0227 0.01711 -0.0080457 -0.0868 
0.1031 0.066434 0.05476 0.037661 0.021056 0.022371 0.012013 0.20619 
0.065612 -0.061973 -0.039613 -0.015116 0.0059294 0.010862 0.046868 0.41565 
0.13335 -0.095185 -0.084827 -0.015938 -0.013143 0.011355 0.0592 0.60275 
0.17955 -0.014129 -0.049149 0.014315 -0.0044286 0.014479 0.080738 0.56362 
0.23742 0.13762 0.022371 0.064296 0.026646 0.05624 0.13384 0.42058 
0.2024 0.23446 0.053116 0.08863 0.053774 0.073668 0.16294 0.27409 
0.11559 0.20586 0.071531 0.096686 0.073339 0.10178 0.13121 0.029934 
0.042594 0.1031 0.035524 0.05213 0.05065 0.057884 0.082546 -0.29824 
-0.043395 -0.064768 -0.042901 0.023686 0.041114 0.046704 0.01415 -0.81976 
-0.16128 -0.17608 -0.057205 -0.0044286 0.037004 0.048841 -0.027282 -0.86431 
-0.2448 -0.11294 -0.02087 0.021384 0.015301 0.017603 -0.033365 -0.28097 
-0.25302 0.039634 0.013986 -0.0067304 0.019247 -0.033201 -0.047341 0.25452 
-0.081703 0.030263 0.012506 0.011848 0.02533 0.0092177 -0.01528 0.46843 
0.12217 0.0013258 0.041443 0.022042 0.035853 0.030098 0.023522 0.34725 
0.17856 0.027468 0.050157 0.034044 0.038155 0.031742 0.047033 0.11559 
0.16738 0.037497 0.051636 0.032893 0.020562 0.036675 0.031085 -0.05737 
0.14338 0.09833 0.0088889 0.0087245 -0.003771 0.018425 0.057062 -0.18446 
0.13664 0.17593 0.023851 0.023357 0.0028056 0.033715 0.053774 -0.27407 
0.11757 0.13746 0.069064 0.031249 0.01152 0.045389 0.015794 -0.15651 
0.11822 0.089945 0.090767 0.055254 0.0046141 0.036017 0.023686 -0.037805 
0.097837 0.082546 0.094384 0.038977 0.038483 0.060186 0.025988 -0.10258 
0.011848 0.0592 0.14174 0.066269 0.046046 0.028947 0.019247 -0.21998 
-0.063124 0.085341 0.24992 0.042923 0.041772 0.039963 0.032729 -0.17969 
-0.058685 0.13812 0.32276 0.068078 0.03947 0.022864 0.046375 0.099152 
-0.011827 0.13779 0.30878 0.029605 0.016452 -0.0019624 0.015301 0.48125 
-0.029584 0.086657 0.11329 0.027796 0.025495 -0.0068948 0.011026 0.51117 
-0.036489 0.012342 -0.086142 -0.0040998 -0.018075 0.022535 0.024344 0.20651 
-0.0047575 -0.028104 -0.22178 0.0032988 -0.013471 0.012999 0.042923 0.095042 
-0.030899 -0.01676 -0.24201 0.02681 0.024344 0.03388 0.062817 0.062323 
-0.029748 0.037168 -0.16342 0.04917 0.022864 0.045389 0.095864 -0.001798 
0.058706 0.087479 -0.04471 0.079587 0.0083956 0.048348 0.063968 0.028947 
0.12447 0.11905 -0.015444 0.040621 0.0041209 0.037168 0.030756 -0.023501 
0.12776 -0.010676 -0.016266 0.031414 -0.01528 0.03092 0.0093821 -0.13925 
0.077449 -0.12034 -0.037476 -0.021363 0.0062583 0.00083261 -0.012978 -0.1935 
0.012342 -0.19614 -0.051451 -0.0031133 -0.017911 0.0016547 -0.036654 -0.20995 
0.027961 -0.14566 0.076134 -0.029748 0.0088889 -0.0047575 -0.026789 -0.19104 
0.075312 0.0021479 0.28527 0.012342 0.020727 0.0044497 -0.033037 -0.094527 
0.0016547 0.069393 0.3535 0.0046141 0.059693 0.0227 -0.021528 -0.039449 
-0.089431 0.088301 0.26587 0.056076 0.095371 0.0032988 0.00083261 0.010862 
-0.15339 0.094384 0.12513 0.044731 0.081724 -0.0024557 -0.0013048 -0.0032777 
-0.15651 0.19632 0.028619 0.061008 0.054267 0.014479 0.01004 -0.036983 
-0.033694 0.23035 -0.013965 0.063803 0.013986 -0.0004827 0.048019 0.085341 
0.15916 0.18383 -0.10357 0.050814 0.01711 0.04506 0.088794 0.2292 
0.22 0.0036276 -0.20205 0.015301 0.0079024 0.045224 0.073997 0.19418 
0.05065 -0.133 -0.2499 0.019411 0.019411 0.022206 0.10918 0.067091 
-0.051451 -0.052109 -0.19942 0.033387 0.035031 0.0059294 0.12414 0.063474 
0.079916 0.044731 -0.096007 0.035524 0.03536 0.016945 0.11247 0.1562 
0.20635 0.049828 0.016123 0.04358 0.040456 0.0065871 0.063145 0.2731 
0.16656 0.034866 0.095042 0.031742 0.048841 0.040456 -0.021692 0.31815 
0.050321 0.0042853 0.21013 0.031414 0.034044 0.052952 -0.066741 0.18942 
-0.014129 0.058542 0.36928 0.01004 0.026317 0.011191 -0.065262 0.034209 
-0.038133 0.12201 0.3461 0.050979 0.023028 0.013328 -0.091732 0.00099702 
-0.062631 0.0592 0.16064 0.01415 0.023193 -0.015116 -0.080552 0.18728 
-0.17936 0.016781 -0.0044286 0.032071 0.044238 -0.041093 -0.027282 0.2468 
-0.18643 0.05065 -0.047834 0.0074092 0.038483 -0.0027845 -0.004593 0.14371 
-0.071345 0.070215 -0.082196 -0.0082102 0.055418 -0.011663 0.011355 0.030592 
0.028947 0.058049 -0.13316 0.017438 0.03947 -0.045368 0.029605 0.032236 
0.19698 0.03947 -0.14418 0.039141 0.043909 -0.021199 0.089123 0.04654 
0.2223 0.039799 -0.18446 0.038319 0.030756 0.00017495 0.12776 0.045389 
0.20388 0.058706 -0.15355 0.033387 0.043416 0.052952 0.147 0.011191 
0.17232 -0.01528 -0.096829 0.052459 0.046868 0.073175 0.10951 -0.0031133 
0.17067 -0.073318 -0.046519 0.035853 0.029769 0.033715 0.031249 -0.0965 
0.12365 -0.069701 0.013986 0.051801 0.017603 0.011848 -0.047669 -0.23116 
-0.031557 -0.051451 0.097508 0.016781 0.01152 -0.02646 -0.08828 -0.31566 
-0.20485 0.013657 0.18432 0.066105 0.027468 -0.0090322 -0.049314 -0.15848 
-0.23083 0.12497 0.2246 0.052459 0.051308 0.047691 0.06183 0.067256 
-0.076606 0.16738 0.19287 0.055911 0.055418 0.03799 0.078107 0.20997 
0.10655 0.16064 0.13006 0.0083956 0.047855 0.028783 0.043416 0.18202 
0.19698 0.11658 0.03651 0.011848 0.057884 0.047691 0.030263 0.093726 
0.21868 0.0786 -0.036818 0.023028 0.072681 0.048513 0.035195 0.10836 
0.19155 0.05065 -0.048985 0.044402 0.064954 0.060515 0.071366 0.16525 
0.062488 -0.011992 -0.044052 0.058706 0.056404 0.048677 0.10984 0.13187 
-0.0095255 -0.016102 -0.015444 0.024508 0.036675 0.036346 0.062159 0.069886 
-0.023172 0.045224 0.056898 0.038812 0.020562 0.036182 0.0037921 0.071531 
0.02122 0.061172 0.10441 0.0088889 0.0037921 0.014972 -0.020541 0.036017 
0.051308 0.064954 0.092247 0.035195 0.016616 0.0013258 -0.044874 0.013986 
0.061172 0.071695 0.065776 0.010862 0.028619 0.023028 -0.053588 -0.040271 
0.042758 0.027303 0.043251 0.042265 0.031578 -0.0083746 -0.025309 -0.098144 
-0.046354 0.036017 0.041114 0.027796 0.030263 -0.014787 -0.048327 -0.1455 
-0.081374 0.081231 0.043909 0.044567 0.040292 -0.008539 -0.038298 -0.12215 
0.013492 0.03536 0.028619 0.029441 0.068242 0.0227 0.016288 -0.057041 
0.10672 0.046375 0.01974 0.046868 0.054103 0.050157 0.050321 0.031907 
0.15209 0.13565 0.040621 0.026317 0.053774 0.058213 0.067749 0.13319 
0.17347 0.16262 0.098494 0.036346 0.037168 0.044073 0.072681 0.23331 
0.13631 0.12562 0.14108 0.036017 0.01415 0.019576 0.05624 0.25189 
0.071531 0.066598 0.14387 0.05213 -0.0011404 0.027303 0.026317 0.15111 
0.043251 0.029934 0.15571 0.052787 -0.008539 0.011026 0.085341 0.098823 
0.052294 0.07038 0.1493 0.020398 -0.016102 0.035524 0.086328 0.092904 
0.013986 0.049335 0.21013 0.050321 -0.028926 0.017438 0.05476 0.0093821 
-0.049149 0.0592 0.24647 0.034209 -0.026953 -0.025967 0.005765 -0.13366 
-0.091404 0.0080668 0.1955 0.035195 -0.019884 -0.011005 -0.030077 -0.20912 
-0.0503 -0.11985 0.13302 -0.010019 -0.0067304 -0.038791 -0.034516 -0.24645 
0.10606 -0.035174 0.10376 -0.012485 -0.0019624 -0.012485 0.0067515 -0.2476 
0.20142 0.076463 0.028125 -0.014458 0.033222 0.082217 0.055911 -0.17821 
0.11954 0.096193 -0.093705 0.039634 0.054432 0.08863 0.086163 -0.064933 
-0.098473 0.067749 -0.16013 0.064954 0.084684 0.10376 0.10951 0.012177 
-0.19318 0.044402 -0.18348 0.048841 0.075312 0.088301 0.066763 0.12612 
-0.087458 0.024344 -0.15174 0.063145 0.062159 0.082053 0.064296 0.29793 
0.065612 0.059857 -0.11968 0.02829 0.04654 0.093069 0.10293 0.46843 
0.16146 0.080902 -0.072167 0.045718 0.037826 0.094384 0.090603 0.49095 
0.10326 0.018096 -0.024158 0.021056 0.018918 0.05213 0.081889 0.15259 
-0.021363 -0.021034 0.0021479 0.021878 -0.019884 0.040785 0.0087245 -0.34394 
-0.092554 -0.053588 0.0056006 -0.031228 -0.038133 -0.0078813 -0.076606 -0.62377 
-0.15273 -0.08121 0.032071 0.0082312 -0.044381 -0.038627 -0.10505 -0.64087 
-0.2665 -0.052109 0.068407 -0.025638 -0.041422 -0.037147 -0.068386 -0.51871 
-0.21866 -0.0082102 0.073668 0.009711 -0.02498 -0.042408 -0.046025 -0.34904 
-0.0062372 0.071695 0.031085 0.0011614 -0.0011404 -0.011498 -0.010183 0.045553 
0.20142 0.13417 0.025988 0.0088889 0.018918 0.039634 0.045224 0.38737 
0.27277 0.12497 0.060515 0.02681 0.038648 0.066434 0.072681 0.38885 
0.13499 0.074161 0.1248 0.050486 0.05476 0.098988 0.070873 0.18383 
0.040128 0.096521 0.25091 0.071366 0.062323 0.085012 0.10688 0.14387 
0.040292 0.12792 0.36435 0.065447 0.053938 0.044567 0.074654 0.16804 
0.0026412 0.13549 0.35942 0.070051 0.048513 0.024344 0.064461 0.21917 
-0.021363 0.090767 0.19007 0.0080668 0.025001 0.042429 0.054267 0.17396 
0.00099702 0.064132 -0.01232 0.016452 0.018589 0.033715 0.053774 0.076299 
0.053938 0.14009 0.0067515 0.013492 0.026974 0.037004 0.022371 -0.039778 
0.086821 0.16886 0.097672 0.0592 0.016288 0.035195 0.0054362 -0.065591 
0.14042 0.11477 0.1613 0.036346 0.026646 0.0069159 -0.047998 -0.08828 
0.17577 0.097672 0.03651 0.060186 0.0227 0.0054362 -0.040764 -0.082854 
0.13269 0.073339 -0.15635 0.022535 0.015301 -0.01528 0.02122 0.019576 
0.071695 0.0037921 -0.28804 0.026152 0.024179 -0.02498 0.043909 0.16442 
0.016945 -0.039449 -0.33622 0.061172 0.068407 -0.0075525 0.073997 0.29004 
-0.020541 -0.066906 -0.37091 0.057884 0.033058 0.039141 0.11872 0.35827 
-0.14007 -0.18857 -0.44489 0.013986 0.044402 0.04506 0.14897 0.36106 
-0.21422 -0.18019 -0.42911 0.0019835 0.021878 0.072517 0.1345 0.18925 
-0.29544 -0.12774 -0.2739 0.021384 0.00017495 0.047691 0.069722 0.060186 
-0.22392 -0.060987 -0.072825 0.038155 0.0421 0.064625 0.050321 -0.059672 
-0.13645 -0.048163 0.029769 0.069229 0.039963 0.087479 -0.036654 -0.40494 
-0.1404 -0.15832 0.0034632 0.009711 0.043087 0.032236 -0.068221 -0.91462 
-0.12626 -0.19827 -0.022679 0.016616 0.037826 0.016123 -0.093541 -0.86711 
-0.050793 -0.12346 0.042429 -0.014622 0.0074092 -0.006566 -0.1113 -0.4786 
0.037497 -0.008539 0.17741 -0.0029489 -0.0039354 -0.034352 -0.074798 -0.2596 
0.14815 0.15094 0.25173 -0.016595 -0.01232 -0.001798 -0.05178 -0.078086 
0.28182 0.24417 0.28034 0.015301 0.00099702 -0.018075 -0.024487 0.35958 
0.34923 0.29316 0.24252 0.022206 0.032236 -0.0036066 0.029769 0.71636 
0.3581 0.34462 0.1881 0.043416 0.056076 0.046704 0.082217 0.87716 
0.3119 0.25765 0.1174 0.059364 0.060679 0.045553 0.078436 0.85628 
0.23134 0.12168 0.06331 0.073832 0.08419 0.023028 0.092411 0.70962 
0.068571 0.027961 -0.019061 0.044402 0.057391 0.021549 0.066598 0.42946 
-0.070852 0.020398 -0.062467 0.037168 0.059364 0.013492 0.034866 0.11658 
-0.12955 -0.028104 -0.054575 0.061995 0.059693 0.0093821 0.058706 -0.16243 
-0.11639 -0.07414 -0.069536 0.035195 0.064625 0.041443 0.036675 -0.49635 
-0.057534 -0.13432 -0.12527 0.045718 0.042923 0.058871 0.0039565 -0.81597 
-0.0032777 -0.037311 -0.1016 0.0034632 0.036839 0.047197 0.016452 -0.59467 
0.053774 0.057555 -0.056712 0.031085 0.024673 0.027139 -0.0039354 -0.0016336 
0.095699 0.055911 0.0019835 0.026646 0.0227 0.013492 -0.028269 0.23298 
0.078107 0.039799 0.036017 0.042265 0.026481 0.040456 -0.008539 0.16541 
0.051636 0.012835 0.087314 0.03536 0.037826 0.028125 0.082875 0.083862 
0.0085601 0.0036276 0.090438 0.055254 0.050321 0.029276 0.12069 0.17034 
-0.041751 0.036017 0.062981 0.025166 0.035524 0.058049 0.098001 0.28642 
-0.044381 0.021713 0.041114 0.011355 0.043745 0.027796 0.050814 0.33098 
0.035031 0.050486 0.037332 0.042594 0.045224 0.020727 0.018589 0.25518 
0.15834 0.16081 0.068736 0.057884 0.059857 0.047033 0.056569 0.23414 
0.19139 0.15259 0.10063 0.054925 0.040785 0.03947 0.077121 0.27096 
0.080902 0.10787 0.036346 0.012177 0.029934 0.019905 0.026974 0.19616 
-0.018404 0.066269 -0.012485 0.010204 -0.0004827 -0.011663 -0.039449 0.094713 
-0.088608 -0.010348 -0.012814 -0.011005 -0.014787 -0.051944 -0.081374 0.10787 
-0.082196 -0.028597 0.004943 0.028619 -0.021692 -0.064604 -0.09798 0.091918 
-0.057863 -0.019061 0.043745 0.0088889 -0.03205 -0.051122 -0.11245 -0.22803 
-0.05441 -0.12248 0.012506 0.013328 -0.014622 -0.05589 -0.10456 -0.66718 
0.0421 -0.082032 0.037661 -0.020706 0.0016547 -0.044546 -0.070194 -0.88914 
0.17429 0.046375 0.11592 -0.022021 0.041772 0.0080668 0.030427 -0.8168 
0.23134 0.15489 0.1955 0.016616 0.014643 -0.0091966 0.090274 -0.43453 
0.2662 0.20717 0.23594 0.044402 0.0028056 -0.01528 0.15653 0.15374 
0.24219 0.20257 0.21868 0.062652 0.036675 0.044073 0.20931 0.52548 
0.10211 0.27294 0.21441 0.089287 0.046868 0.076134 0.1881 0.59585 
-0.080388 0.26669 0.29809 0.067913 0.067256 0.09422 0.11165 0.55606 
-0.096172 0.1955 0.32473 0.082546 0.063639 0.055747 0.063803 0.47056 
-0.009361 0.13878 0.22953 0.072353 0.055911 0.042429 0.046704 0.2514 
0.11346 0.16771 0.11198 0.022042 0.041114 0.061501 0.031742 0.037168 
0.14239 0.12085 0.024673 0.057391 0.005765 0.037497 -0.0027845 -0.006566 
0.12365 0.016945 -0.038133 0.0090533 0.0064227 0.02533 0.034702 0.02122 
0.051636 -0.042079 -0.10456 0.0065871 0.0085601 0.028947 0.05772 0.11937 
0.057062 0.0085601 -0.083676 0.0080668 0.030427 0.015301 0.13187 0.28741 
0.10491 0.068242 -0.030899 0.038977 0.024673 0.043745 0.17511 0.33574 
0.068078 0.057062 -0.025967 0.039963 0.016616 0.021549 0.12973 0.29382 
-0.057205 -0.02646 -0.022679 0.038483 0.013328 0.0032988 0.064296 0.018754 
-0.14878 -0.064111 -0.034188 0.025001 -0.010512 -0.016266 -0.041751 -0.34723 
-0.16227 -0.065591 -0.0075525 -0.01528 -0.028269 -0.060165 -0.15996 -0.42155 
-0.14829 -0.00081153 0.052952 0.015137 0.0067515 -0.04619 -0.16901 -0.21011 
-0.11294 0.056733 0.074161 0.020891 0.049828 -0.012649 -0.14089 -0.025967 
0.026974 0.038812 0.072517 0.065283 0.082875 -0.024158 -0.12297 0.049992 
0.10852 0.026646 0.09126 0.021384 0.066927 -0.025638 -0.12346 -0.05737 
0.12266 0.070051 0.13203 0.053609 0.021384 0.015465 -0.059507 -0.11343 
0.10441 0.045389 0.12858 0.026974 0.018096 0.018918 -0.021199 -0.11919 
0.06331 0.062323 0.13088 0.069722 0.023028 0.041607 0.054103 -0.050958 
0.07449 0.082217 0.10014 0.034209 0.018096 0.030427 0.11 0.1128 
0.063968 0.037661 0.046046 0.056404 0.0072447 -0.0042642 0.10935 0.20125 
0.061337 0.039141 -0.030077 0.0069159 0.012177 0.0093821 0.11839 0.1853 
0.10392 0.062652 -0.061973 0.011684 0.022371 0.045718 0.21079 0.16344 
0.092247 0.055254 -0.14155 0.004943 0.042923 0.06035 0.19566 0.17758 
-0.024323 0.027468 -0.18479 0.0093821 0.042429 0.097015 0.13499 0.16623 
-0.069865 0.0019835 -0.15503 0.045882 0.035524 0.064625 0.043416 0.1003 
-0.064604 -0.0052507 -0.11163 0.031085 0.041443 0.025988 -0.038462 0.075805 
0.0028056 0.054596 -0.050958 0.0592 0.041443 0.044731 -0.056055 0.081395 
0.01152 0.064461 0.00066819 0.044238 0.055418 0.041443 0.0041209 0.13171 
0.044567 0.044073 0.04654 0.076792 0.065776 0.047691 -0.0016336 0.10655 
-0.00015387 -0.028104 0.034209 0.036017 0.053938 0.054267 -0.017746 -0.049149 
-0.013636 -0.10735 0.044402 0.062488 0.032236 0.034209 -0.025309 -0.194 
0.096686 -0.023501 0.069886 0.0026412 0.0090533 0.027961 -0.048985 -0.18315 
0.17577 0.048019 0.071695 0.029441 0.0090533 0.021384 -0.054904 -0.075455 
0.11888 -0.028762 0.037168 0.0095465 0.016123 0.009711 -0.024652 0.0060938 
-0.019061 -0.049642 -0.0054151 0.010697 0.01563 0.029769 -0.042244 0.020398 
-0.16457 0.028619 -0.0055795 0.037168 -0.0013048 0.037168 -0.0068948 -0.10193 
-0.23494 0.07449 0.02829 0.01711 0.011684 0.011191 0.00083261 -0.27686 
-0.14188 0.15555 0.025824 0.020069 0.055254 0.049828 0.025824 -0.145 
0.06479 0.15209 0.040785 0.046868 0.075641 0.047197 0.04506 0.19928 
0.28313 0.058049 -0.023336 0.078436 0.097344 0.053445 0.075312 0.4293 
0.28708 -0.023829 -0.034516 0.027632 0.085835 0.060515 0.086492 0.36797 
0.11148 -0.12034 -0.068221 0.034537 0.069722 0.042429 0.097179 0.14223 
-0.095349 -0.084498 -0.044546 0.015959 0.030592 0.010204 0.057062 -0.22491 
-0.18298 0.049499 -0.0062372 0.051143 -0.011005 0.025988 0.068407 -0.36334 
-0.079895 0.062652 0.03947 0.01563 -0.0021268 0.025659 0.09833 -0.22162 
0.03388 0.037004 0.053445 0.0098754 0.0046141 0.031414 0.10606 -0.040435 
0.06035 0.028619 0.035195 -0.016266 -0.010841 0.025001 0.024344 -0.0077169 
0.077943 0.02829 0.039305 -0.0138 -0.034681 0.018096 -0.01117 -0.15076 
0.063639 0.03388 0.038977 0.02122 0.0069159 0.028125 -0.0011404 -0.3834 
0.080244 0.071202 0.10622 0.014808 0.044567 0.028454 0.0031344 -0.29725 
0.10145 0.081724 0.16821 0.040292 0.051143 0.035853 0.016452 0.0227 
0.12644 0.08715 0.12431 0.024673 0.058377 0.064625 0.081067 0.35054 
0.12266 0.023028 -0.012156 0.031414 0.025659 0.037332 0.078272 0.4681 
0.027796 -0.026789 -0.1159 0.012013 0.016945 0.016616 0.064625 0.35103 
-0.069372 0.02681 -0.14862 0.011355 0.022535 0.024179 0.09981 0.14798 
-0.053424 0.046868 -0.070852 -0.0026201 0.02122 0.031742 0.097015 0.1128 
-0.027611 0.018918 0.04654 0.031907 0.039634 0.05065 0.10622 0.1391 
-0.091404 0.070215 0.072353 0.02829 0.017767 0.039141 0.11658 0.10425 
-0.14484 0.051143 0.017603 0.01826 0.0047785 0.0046141 0.055747 0.067091 
-0.088444 0.053938 -0.014951 0.0051074 0.0019835 0.011684 -0.0060728 0.098988 
0.071037 0.098659 0.017932 0.023193 0.025166 0.023686 -0.04323 0.057227 
0.16262 0.055911 0.02533 0.025659 0.024508 0.014972 -0.052109 -0.079072 
0.11329 0.019411 0.053609 0.04095 0.021549 0.017603 -0.039613 -0.24924 
0.088301 0.061501 0.18087 0.032236 0.025988 0.00066819 -0.013636 -0.47219 
0.067091 0.087314 0.30829 0.051143 0.029276 -0.019226 0.0085601 -0.60322 
0.049006 0.11148 0.25633 0.08567 0.025166 0.026317 0.043416 -0.32125 
0.017603 0.10425 0.093233 0.033387 0.03799 0.0072447 0.11428 0.1391 
-0.046519 0.022864 -0.053917 0.035688 0.02533 0.01152 0.11099 0.30039 
-0.041093 0.023193 -0.11656 0.007738 0.0062583 0.0093821 0.12135 0.24647 
-0.0087034 0.062323 -0.11508 0.02681 0.0098754 0.014315 0.12644 0.15752 
0.048677 0.096686 -0.086964 0.0051074 0.036675 0.010862 0.087479 0.1465 
0.057062 0.094877 -0.021363 0.025495 -0.00031829 0.034537 -0.0070593 0.0018191 
0.030427 0.037826 0.048348 -0.00081153 -0.0060728 -0.0049219 -0.071345 -0.25352 
0.053774 0.019576 0.09981 -0.0031133 -0.027118 -0.011827 -0.12297 -0.19959 
0.13417 0.098988 0.16048 0.0041209 -0.0050863 0.0014903 -0.081539 0.1539 
0.13088 0.041443 0.147 0.021384 0.030263 0.012835 0.00017495 0.40644 
0.11559 0.0051074 0.076627 0.055089 0.045224 0.030098 0.034209 0.46875 
0.093398 0.039305 0.050157 0.054596 0.04358 0.029276 0.037497 0.24088 
0.060515 0.082053 -0.017582 0.072188 0.0421 0.021878 0.051308 -0.13859 
0.031085 0.082711 -0.038133 0.045553 0.068242 0.041278 0.044567 -0.19893 
0.066763 0.1003 -0.04619 0.074654 0.062981 0.044238 0.035688 -0.042573 
0.074161 0.052952 -0.056877 0.037497 0.046211 0.038483 0.023851 0.079751 
-0.019719 0.04358 -0.041915 0.055911 0.036346 0.027468 -0.03057 -0.019719 
-0.12675 0.03536 -0.016266 0.0421 0.034373 0.0060938 -0.063289 -0.12494 
-0.13514 -0.038791 0.044238 0.0324 0.012342 -0.016431 -0.020541 -0.028762 
-0.13481 -0.049478 0.13598 -0.016431 -0.018733 -0.022843 0.012177 0.11395 
-0.099789 -0.042244 0.20536 -0.033201 -0.022843 -0.028926 0.016781 0.2098 
-0.090417 0.050814 0.19369 -0.032543 -0.032543 0.0028056 0.049499 0.16969 
-0.01232 0.12562 0.10458 -0.011827 -0.008539 0.030592 0.083204 0.041607 
0.16442 0.19122 0.019905 0.025659 0.043087 0.053938 0.078765 0.0044497 
0.30779 0.21062 -0.041257 0.059693 0.075476 0.10935 0.077285 0.088465 
0.29119 0.16558 -0.065591 0.096193 0.084519 0.091425 0.043745 0.12431 
0.095864 0.021056 -0.1011 0.047197 0.064132 0.03092 -0.037476 0.056569 
-0.04323 -0.078744 -0.11639 0.032071 0.022535 0.0014903 -0.060494 0.052952 
-0.047998 -0.02646 0.038977 0.0067515 -0.014951 -0.038627 -0.056383 0.06183 
0.035853 0.027796 0.28116 0.045882 0.0026412 -0.0036066 -0.031064 0.095864 
0.12398 0.064461 0.38244 0.048184 0.028783 0.032071 -0.010019 0.13878 
0.14469 0.018425 0.23397 0.067091 0.033551 0.014972 -0.0077169 0.12858 
0.089945 -0.10505 -0.05885 0.024344 0.036675 0.020069 0.0090533 0.064296 
0.056733 -0.067892 -0.20403 0.019411 0.057062 0.037661 0.047526 0.044402 
0.034537 0.019576 -0.22491 0.021713 0.074326 0.034866 0.081067 0.022535 
-0.044052 0.077614 -0.18956 0.022371 0.06035 0.048513 0.068571 -0.044874 
-0.051451 0.13023 -0.17838 0.022535 0.037826 0.055254 0.077449 -0.056219 
0.034702 0.13105 -0.15059 -0.00031829 0.0087245 0.031414 0.075476 0.0023123 
0.058213 0.05476 -0.12642 0.011026 -0.0067304 0.028454 0.052787 0.10622 
0.01267 0.011355 -0.067399 0.01711 0.011848 0.024015 0.047197 0.17429 
-0.026624 -0.013307 0.025824 0.056076 0.033715 0.02829 0.078929 0.29711 
-0.057041 -0.1016 0.064461 0.0075736 0.016288 0.047855 0.028783 0.42124 
-0.069043 -0.12281 0.093891 0.017767 0.010697 0.024837 -0.018404 0.42502 
-0.032708 -0.092061 0.16969 -0.0024557 0.0051074 -0.0055795 -0.035667 0.26439 
-0.003771 0.010533 0.21638 0.048348 0.042923 0.020562 -0.028762 -0.090581 
0.053281 0.11395 0.18942 0.042923 0.070708 0.027632 -0.0087034 -0.63594 
0.13812 0.1276 0.16229 0.068736 0.08008 0.047362 0.010862 -0.8357 
0.17018 0.11855 0.13056 0.056569 0.062323 0.067091 0.044073 -0.11738 
0.12694 0.096028 0.11115 0.058542 0.073339 0.062488 0.09685 0.59207 
0.024837 0.1031 0.10639 0.030427 0.063639 0.039305 0.089945 0.56033 
-0.057863 0.12677 0.085835 0.043251 0.058542 0.059528 0.07301 0.21506 
-0.031721 0.15176 0.021384 0.053445 0.0042853 0.029934 0.056076 -0.020541 
0.051636 0.064296 -0.012814 0.028125 0.0095465 0.049335 0.053281 -0.056219 
0.086821 0.041443 -0.050629 0.018425 0.023193 0.018754 -0.0060728 -0.010183 
0.10408 -0.0095255 -0.10423 0.0039565 0.030098 0.038812 -0.0019624 -0.048163 
0.081067 -0.014951 -0.093212 0.033715 0.021713 0.048513 -0.0068948 -0.073811 
0.052623 -0.012649 -0.0503 0.021056 0.023028 0.015794 -0.014951 -0.072989 
0.0062583 -0.01232 0.0421 0.070051 0.01415 0.018096 -0.020706 -0.20107 
0.015794 0.051472 0.17626 0.03092 0.023357 0.020727 0.018589 -0.39212 
-0.014293 0.056898 0.17725 0.049335 0.042594 0.0064227 0.042429 -0.52513 
-0.1011 -0.0090322 0.068736 0.012342 0.044238 -0.0021268 0.056569 -0.49751 
-0.12133 0.071695 0.013657 -0.0055795 0.015137 -0.014458 0.042265 -0.25187 
-0.0044286 0.1567 0.013328 0.014315 0.0039565 -0.018568 0.018096 0.13878 
0.1322 0.1294 0.02681 0.025495 0.011026 0.014479 -0.042901 0.50476 
0.14815 0.09274 0.0056006 0.048184 0.021713 0.031249 -0.024652 0.60045 
0.18317 0.075148 0.031249 0.040128 0.035524 0.041772 -0.013471 0.42206 
0.14404 0.040621 0.079258 0.090109 0.067091 0.058706 0.0034632 0.21013 
0.024837 0.024179 0.13828 0.10129 0.068407 0.04506 0.019411 0.047691 
-0.14944 -0.027611 0.12957 0.10376 0.036675 0.00050378 0.00017495 -0.071016 
-0.17854 -0.032215 0.096357 0.042429 0.027303 -0.0062372 0.0032988 -0.17591 
-0.016924 0.026317 0.092411 0.061995 0.012342 -0.050793 0.029441 -0.22326 
0.12398 0.020891 0.093891 0.034866 0.028454 -0.032215 0.039963 -0.13218 
0.082711 0.014479 0.082875 0.01826 0.032236 0.012835 0.079422 0.0013258 
-0.021528 -0.004593 0.12694 -0.028926 0.025166 0.034537 0.13795 0.10392 
-0.047012 0.060679 0.13943 -0.034681 0.033222 0.038977 0.1299 0.087314 
0.069064 0.15292 0.10787 -0.0059084 0.027139 0.060679 0.10474 -0.0060728 
0.13286 0.1756 0.085835 1.0539e-005 0.026317 0.036675 0.074983 -0.037476 
0.10918 0.1276 0.13762 0.032236 0.019247 0.029441 0.0064227 0.0080668 
0.040456 0.10195 0.16755 0.023686 0.0056006 0.020562 -0.024816 0.070051 
0.010204 0.066763 0.089945 0.03388 -0.014458 -0.024158 -0.015116 0.06742 
0.041114 0.10589 0.0092177 0.055089 0.0016547 -0.016102 -0.041915 -0.038462 
0.09422 0.10918 -0.052766 0.073668 0.0059294 -0.0095255 -0.035174 -0.22244 
0.052623 0.058377 -0.050136 0.047526 0.016452 -0.0096899 -0.010512 -0.37469 
0.027139 0.027468 -0.075784 0.071037 0.012177 0.019247 -0.0055795 -0.34213 
0.016288 0.03651 -0.09798 0.036017 0.014479 0.0013258 -0.012485 -0.04471 
-0.02942 -0.011005 -0.099624 0.048677 0.013821 -0.030077 0.0056006 0.20914 
-0.06707 -0.050958 -0.043888 0.026974 0.018096 -0.016431 -0.010676 0.19862 
-0.16835 -0.052602 -0.046847 0.014972 0.019083 -0.033201 0.014315 0.0041209 
-0.206 -0.082196 -0.050136 -0.00031829 0.030098 -0.0138 0.067913 -0.093376 
-0.18972 -0.063289 -0.05885 -0.0054151 0.025659 0.028947 0.053938 0.03947 
-0.10998 0.010862 0.0019835 -0.00081153 0.0011614 0.012342 0.064954 0.20142 
-0.01117 0.084848 0.12562 -0.057205 0.01267 0.0069159 0.047197 0.31963 
0.16097 0.15686 0.21013 0.01152 -0.0062372 0.019576 0.058377 0.40184 
0.31141 0.13088 0.15949 0.02122 -0.0044286 0.055911 0.081889 0.3535 
0.22822 0.061337 0.05213 0.040128 0.037168 0.048513 0.063474 0.17462 
0.10556 0.01415 -0.065262 0.047197 0.038977 0.043087 0.013657 0.020069 
-0.0026201 0.01004 -0.12248 0.058213 0.03536 0.032729 0.013328 -0.0050863 
0.0032988 0.046046 -0.13875 0.027303 0.073339 0.083862 0.064954 0.030098 
0.054432 0.062488 -0.14944 0.083533 0.07038 0.071366 0.070215 0.13664 
0.062488 0.024673 -0.10965 0.05213 0.058542 0.057555 0.083368 0.17824 
-0.032379 -0.0080457 -0.080223 0.016945 0.02533 0.066927 0.091425 0.14058 
-0.059672 0.01826 -0.057041 0.030592 0.032893 0.065612 0.042429 0.070051 
-0.06444 -0.018733 -0.047834 0.018754 0.010369 0.016452 -0.013636 -0.1062 
-0.036983 -0.089431 -0.058356 -0.0060728 0.030592 0.010697 -0.022679 -0.15996 
0.047362 -0.066906 -0.023829 -0.019719 0.025988 -0.00015387 -0.02087 -0.096665 
0.085177 0.032564 0.11329 0.0011614 0.0028056 0.018918 -0.006566 -0.16177 
0.033387 0.13319 0.24515 -0.0044286 0.0072447 0.024673 0.032236 -0.21323 
0.042594 0.16886 0.30648 0.035195 0.017932 0.023686 0.041114 -0.0406 
0.10441 0.16212 0.22789 0.031742 0.033387 0.069558 0.12266 0.098659 
0.16278 0.16755 0.052459 0.071531 0.044731 0.076463 0.16212 0.17741 
0.16771 0.11921 -0.091732 0.042594 0.055418 0.079094 0.11987 0.076134 
0.12184 0.087479 -0.16786 0.055911 0.038812 0.065776 0.046868 -0.023336 
0.051143 0.050157 -0.21899 0.020233 0.024673 0.032236 -0.023994 0.033715 
-0.036983 -0.061809 -0.23822 -0.0027845 0.024179 0.016945 -0.099131 0.28658 
-0.097158 -0.084334 -0.19877 0.0079024 0.024673 0.03092 -0.13908 0.40398 
-0.064933 -0.050793 -0.1353 0.0037921 0.030098 0.009711 -0.10028 0.33755 
0.02122 0.0041209 -0.067235 0.0075736 0.03092 0.013328 -0.08384 0.19188 
0.072353 -0.00031829 0.0016547 0.013492 0.027139 0.023193 -0.057041 0.053609 
0.040456 -0.0022913 0.021056 0.020069 0.040128 0.01974 0.00083261 -0.027447 
-0.018568 -0.043724 0.021878 0.0090533 0.034702 -0.0013048 0.030427 -0.24414 
0.051308 -0.025145 0.07301 0.058871 0.026152 0.014479 0.11263 -0.50622 
0.10195 0.039634 0.17462 0.02681 0.011355 0.043087 0.20914 -0.73755 
0.13401 0.11395 0.27869 0.062488 0.037332 0.095864 0.25058 -0.54403 
0.12694 0.17034 0.32276 0.041772 0.03799 0.090438 0.21967 0.046704 
0.041607 0.15045 0.28494 0.073997 0.036017 0.053116 0.14321 0.45396 
-0.063782 0.12858 0.21506 0.044238 0.01826 0.032564 0.0028056 0.49588 
-0.088937 0.1396 0.11066 0.053774 0.01415 0.0074092 -0.052602 0.42223 
0.0227 0.073997 0.033222 0.016452 0.017438 0.015794 -0.0406 0.38753 
0.11214 0.022535 -0.035174 0.0044497 0.024179 0.030098 -0.045696 0.30763 
0.14289 0.036839 -0.043559 0.017767 0.046375 0.013164 -0.0019624 0.15703 
0.16969 0.068242 -0.010019 0.041114 0.077449 0.035688 0.0079024 0.029934 
0.18678 0.074654 0.045718 0.10326 0.10704 0.066269 0.020727 -0.26124 
0.11872 0.077943 0.074326 0.067256 0.090274 0.029441 0.0070803 -0.47449 
-0.040271 -0.018568 0.00050378 0.038155 0.013986 -0.034516 -0.023501 -0.38998 
-0.13349 -0.060329 -0.061316 -0.0091966 -0.019061 -0.035174 -0.048656 -0.10439 
-0.089102 -0.10439 -0.096007 0.019247 -0.026131 -0.021856 -0.034352 0.098166 
0.057062 -0.097158 -0.034352 0.0036276 -0.0031133 0.00083261 0.027303 0.18613 
0.10852 0.032893 0.062159 0.031578 0.01004 -0.00015387 0.023686 0.13762 
-0.035667 0.095042 0.10622 0.015301 0.0028056 -0.014129 0.013986 0.021056 
-0.071674 0.11954 0.13006 0.014315 0.0037921 -0.0011404 0.028947 -0.056548 
0.029112 0.16393 0.13598 0.011848 0.0087245 0.0024767 0.036017 -0.095514 
0.082711 0.19731 0.16673 0.028125 0.013164 0.035688 0.055582 -0.056877 
0.076792 0.16048 0.22444 0.041443 0.021384 0.050157 0.097837 -0.014622 
0.11888 0.14256 0.22411 0.0592 0.035195 0.063803 0.08978 0.01004 
0.11691 0.035688 0.12957 0.052952 0.065612 0.036675 0.066598 0.055089 
0.039141 -0.021034 -0.023665 0.042429 0.051636 0.037168 0.055418 0.032236 
-0.042901 0.017274 -0.092226 0.018096 0.045882 0.014808 -0.0054151 -0.045368 
-0.059178 0.0082312 -0.074469 -0.00031829 0.038648 -0.0004827 -0.032872 -0.10209 
-0.065426 -0.0039354 -0.055232 0.037661 0.042265 0.0021479 -0.011663 -0.11196 
-0.071181 -0.014951 -0.046354 0.01711 0.03092 -0.030735 -0.0040998 -0.025145 
-0.039449 -0.015938 -0.038791 0.038483 0.038319 -0.018075 0.014972 0.094548 
0.017438 0.041278 -0.006566 0.012342 0.005765 0.0031344 0.070051 0.16294 
0.097672 0.10244 0.057555 0.033551 0.01415 0.029441 0.11378 0.1151 
0.090109 0.087479 0.15587 0.022535 0.0324 0.047526 0.13121 0.15226 
-0.0054151 0.070544 0.20684 0.030427 0.014643 0.055089 0.16952 0.30138 
-0.080059 0.0227 0.24203 0.028125 0.030427 0.056404 0.14831 0.40266 
-0.01676 0.02829 0.19139 0.0032988 0.028619 0.048348 0.069393 0.25765 
0.050321 0.034866 0.049006 -0.0014692 0.0024767 0.011355 -0.021856 -0.0083746 
0.025166 1.0539e-005 -0.056219 0.015794 0.00099702 -0.0026201 -0.088773 -0.074962 
-0.028926 0.020069 -0.095843 0.059364 0.043416 0.018918 -0.12577 -0.17525 
-0.014622 0.068736 -0.078086 0.052459 0.083533 -0.001798 -0.097816 -0.17131 
0.04358 0.079587 -0.071181 0.066269 0.076956 0.016452 -0.071838 -0.014293 
0.1008 0.05213 -0.067564 0.036675 0.05624 0.035195 -0.056383 0.0041209 
0.12661 0.072517 -0.031557 0.053609 0.0324 0.011191 -0.034845 -0.11968 
0.20454 0.11017 0.030427 0.046211 0.015465 0.024344 0.027139 -0.093048 
0.24104 0.11296 0.088794 0.048184 0.031578 0.041114 0.051636 0.23742 
0.171 0.081067 0.10655 0.024015 0.024179 0.0421 0.097508 0.53271 
0.032729 -0.0091966 0.11329 0.014315 0.015959 0.033551 0.11099 0.58286 
-0.082196 -0.040106 0.11115 0.0054362 0.011848 -0.00031829 0.072681 0.42831 
-0.15832 -0.029913 0.05065 -0.013143 0.042923 -0.03205 0.062817 0.29365 
-0.13136 0.035853 -0.0083746 0.012177 0.036017 0.022042 0.12398 0.43127 
-0.051615 0.053281 -0.051287 0.032893 0.0054362 0.046211 0.17001 0.60785 
0.01004 0.0047785 -0.10127 0.033058 0.0032988 0.042429 0.15637 0.44804 
0.012835 0.039141 -0.09798 0.015959 0.005765 0.061008 0.095535 0.076134 
0.027139 0.049006 -0.078086 0.02681 -0.0029489 0.025824 0.033551 -0.21965 
0.010697 0.060679 -0.031886 0.035524 0.0019835 0.018425 0.02122 -0.53894 
-0.064111 0.09981 0.01004 0.076134 0.036675 0.0095465 -0.014458 -1.1096 
-0.10489 0.088301 0.023193 0.045389 0.021713 -0.031557 -0.13037 -1.3824 
0.035688 -0.0004827 -0.0004827 0.05476 0.014479 -0.026131 -0.14829 -0.78095 
0.19501 -0.068057 -0.031557 0.019576 0.0023123 -0.024323 -0.087293 0.11115 
0.21967 -0.043066 -0.035174 0.0082312 -0.0080457 -0.020048 -0.046354 0.63564 
0.11329 0.024673 0.03799 0.02533 0.023028 0.010533 -0.013143 0.74612 
0.069558 0.10556 0.13713 0.029441 0.021713 0.020891 0.023357 0.60867 
0.10524 0.080409 0.14026 0.06035 0.034866 0.01563 0.033058 0.4584 
0.10836 0.055254 0.096357 0.047197 0.058871 0.062323 0.069558 0.30829 
0.090109 0.094713 0.073997 0.091096 0.080573 0.088301 0.1197 0.088136 
-0.060329 0.10293 0.078107 0.046868 0.059528 0.047691 0.065447 -0.089102 
-0.27144 0.076463 0.051472 0.046046 0.040292 0.034373 0.012342 -0.12511 
-0.39097 0.039634 -0.0036066 0.0062583 0.013164 0.015959 0.016288 -0.02235 
-0.23181 0.022371 -0.023994 0.015301 -0.001798 0.00050378 -0.0080457 -0.0040998 
-0.041257 -0.025474 -0.026296 -0.022021 -0.011663 0.0060938 -0.034845 -0.12905 
0.062323 -0.034681 -0.049642 0.027303 0.015301 -0.0016336 -0.00064712 -0.26634 
0.19665 -0.022021 -0.03616 0.024673 0.020727 0.016781 0.035031 -0.23576 
0.23578 0.081067 0.014479 0.064954 0.044073 0.044567 0.032071 -0.14681 
0.26653 0.13894 0.059035 0.076627 0.050979 0.029441 0.04095 -0.067235 
0.26291 0.11181 0.049828 0.061666 0.040456 0.02681 0.023851 -0.0014692 
0.16936 0.044896 0.0095465 0.04917 0.028783 0.05065 0.020069 0.030592 
0.050486 -0.017911 0.0065871 0.037168 0.028783 0.041114 0.05065 -0.011992 
-0.070852 -0.045203 0.054596 0.034209 0.022864 0.052623 0.056733 -0.080059 
-0.21932 -0.024158 0.15209 -0.017417 -0.0067304 0.032071 -0.0004827 -0.18002 
-0.2813 0.040292 0.17396 0.0034632 -0.010841 0.033058 -0.00064712 -0.25319 
-0.16917 0.098494 0.12365 0.012177 0.022042 0.039141 -0.00097594 -0.20501 
0.047855 0.19205 0.043251 0.089616 0.057555 0.070051 0.034866 -0.16259 
0.18563 0.13368 -0.035667 0.083204 0.069064 0.061337 0.045718 -0.060494 
0.14009 0.076627 -0.10357 0.093562 0.054432 0.050157 -0.025474 -0.0052507 
0.053609 0.060515 -0.10735 0.011026 0.0028056 0.0021479 -0.056219 0.04506 
0.049828 0.066598 -0.019555 0.0075736 -0.015444 -0.02498 -0.043888 0.09126 
0.06479 0.06742 0.087314 -0.0067304 -0.020212 -0.012156 -0.045861 0.086492 
0.099645 0.045718 0.076134 0.029112 0.012835 -0.0036066 0.00099702 0.083368 
0.057062 0.012177 0.0072447 0.029934 0.026974 0.014479 0.030427 0.04095 
0.010369 -0.044874 -0.079237 0.018425 0.047526 0.0019835 0.067913 -0.038627 
0.0062583 -0.042079 -0.12297 0.057227 0.06183 -0.0070593 0.12431 -0.06148 
0.060022 0.018425 -0.047012 0.047526 0.075641 0.048184 0.18251 0.014643 
0.093726 0.10228 0.038155 0.066598 0.055089 0.086328 0.14058 0.12891 
0.085999 0.098823 0.11559 0.043251 0.048841 0.067749 0.048019 0.34396 
0.082546 0.083204 0.16722 0.046211 0.03388 0.073504 0.012506 0.55705 
0.1174 0.11905 0.22328 0.039634 0.047526 0.059857 -0.023501 0.52383 
0.11444 0.1026 0.2925 0.051143 0.03651 0.039305 -0.028597 0.25633 
0.11954 0.061995 0.34643 0.0074092 0.018754 0.069393 -0.0098543 0.038648 
0.1008 0.026317 0.36419 0.024508 0.0070803 0.041114 0.014808 -0.074798 
0.051472 0.0421 0.26817 0.0087245 -0.0027845 0.048019 0.015465 -0.19153 
0.047362 0.10902 0.027468 0.024015 0.0062583 0.071531 0.033222 -0.39738 
0.063639 0.12069 -0.17328 0.010697 0.022535 0.037332 0.0031344 -0.6606 
0.11395 0.085999 -0.30054 0.017274 0.01563 0.047033 -0.014458 -0.45985 
0.14091 0.076463 -0.26667 0.025659 0.045553 0.054103 0.025659 0.088136 
0.11691 0.10458 -0.15898 0.012177 0.057062 0.041278 0.025001 0.36698 
0.036675 0.095042 -0.11426 0.033715 0.060022 0.05772 0.025659 0.43883 
-0.022843 0.1003 -0.14665 0.040128 0.052787 0.035853 0.066927 0.30089 
0.019083 0.010204 -0.17476 0.047033 0.042429 -0.0034422 0.047197 0.089287 
0.078272 -0.070359 -0.2014 0.027139 0.020562 -0.016595 0.048348 0.10047 
-0.014787 -0.11985 -0.17427 0.016945 0.020891 -0.069372 0.026481 0.075476 
-0.17312 -0.145 -0.10817 0.0042853 0.011848 -0.086307 -0.0070593 -0.022185 
-0.15816 -0.098967 0.094713 0.036346 0.033551 -0.043724 0.060679 -0.20534 
0.029276 0.03799 0.25748 0.047526 0.022206 -0.003771 0.16064 -0.28443 
0.094548 0.11395 0.34495 0.050486 0.0037921 -0.0096899 0.14321 -0.18134 
0.079916 0.1174 0.29086 0.015794 -0.052273 -0.023665 0.074983 0.10885 
0.057555 0.12003 0.19977 -0.0013048 -0.05589 -0.061151 0.037168 0.29102 
0.020562 0.027632 0.069064 -0.0057439 -0.035503 -0.054575 -0.022843 0.30944 
0.00050378 -0.045532 -0.057863 0.0031344 0.014479 0.005765 -0.028104 0.3729 
0.05213 -0.011334 -0.074633 0.028947 0.061172 0.041607 0.032564 0.38885 
0.11543 0.05624 -0.056548 0.030263 0.049664 0.088136 0.019905 0.31092 
0.092904 0.069393 -0.045039 0.040456 0.037497 0.071531 0.039634 0.17659 
0.043745 0.062323 -0.026789 0.0090533 0.020562 0.054432 0.072024 0.050979 
0.056404 0.024344 -0.045861 0.036839 0.037168 0.065283 0.045882 -0.029748 
0.020891 0.016123 -0.029748 0.023522 0.063803 0.056404 0.058213 -0.078579 
-0.012156 -0.057863 -0.038956 0.04917 0.071531 0.032236 0.090767 -0.17164 
0.046375 -0.048163 0.064296 0.027961 0.086657 0.052459 0.062652 -0.29824 
0.077121 0.040128 0.12447 0.025988 0.050321 0.010204 0.00083261 -0.42977 
0.072681 0.088465 0.13023 0.019247 0.04095 -0.033365 0.0014903 -0.48468 
1.0539e-005 0.1003 0.076627 0.030592 0.033387 -0.020048 -0.065097 -0.39705 
-0.095678 0.10491 0.020233 0.042758 0.010369 -0.054739 -0.060494 -0.182 
-0.16161 0.069393 -0.026296 -0.00081153 -0.030735 -0.055561 -0.0098543 0.037004 
-0.12149 0.064954 -0.035996 0.019411 -0.029091 -0.048656 -0.0073881 0.30138 
-0.06 0.071202 -0.014129 -0.020541 -0.047012 -0.0965 -0.034681 0.41548 
-0.026296 0.027796 -0.020212 -0.014293 -0.02794 -0.059014 -0.02087 0.34923 
-0.064111 0.0080668 0.13023 -0.0040998 0.01826 -0.033859 -0.011005 0.14404 
-0.14944 0.0087245 0.41318 0.038977 0.031742 -0.013636 0.0036276 -0.09798 
-0.16095 0.011191 0.4408 0.017603 0.037332 0.020069 0.098659 -0.11442 
-0.066413 0.0031344 0.21079 0.048348 0.038155 0.044731 0.14913 0.025495 
0.049664 0.0067515 -0.07266 0.053116 0.034537 0.065283 0.12908 0.060022 
0.1664 0.013492 -0.17542 0.047033 0.07038 0.092904 0.14782 -0.0013048 
0.21358 0.087643 -0.14303 0.048513 0.077943 0.10951 0.10573 0.026481 
0.17215 0.072024 -0.11656 0.022042 0.045224 0.077121 0.05624 0.19057 
0.16475 0.048348 -0.068879 0.0227 0.011684 0.072517 0.064625 0.42601 
0.17643 0.10967 -0.04619 0.023028 0.016616 0.017767 -0.0055795 0.51989 
0.090767 0.088136 -0.062467 0.044731 -0.0042642 0.016123 -0.051944 0.29563 
-0.07973 0.0031344 -0.04882 0.02533 0.014643 0.0059294 -0.07973 -0.14944 
-0.14451 -0.07266 -0.011005 0.034866 0.037826 0.0059294 -0.09239 -0.26486 
-0.093376 -0.13234 0.071202 -0.0034422 0.027139 0.0046141 -0.088608 -0.1358 
-0.032215 -0.041751 0.147 0.016452 0.017438 0.016123 -0.058192 -0.047998 
-0.047669 0.08156 0.17001 -0.02794 0.0032988 0.029934 -0.0503 -0.0055795 
-0.07414 0.16097 0.20175 0.033715 0.044073 0.036346 -0.010348 0.016288 
-0.012978 0.17971 0.22279 0.031578 0.043909 0.048841 0.041936 0.053445 
0.12332 0.12677 0.23578 0.058377 0.055418 0.056898 0.092247 0.043416 
0.18794 0.11872 0.19681 0.054596 0.066598 0.086328 0.094055 0.040785 
0.15752 0.16525 0.19369 0.029769 0.037168 0.08419 0.13368 0.050321 
0.085341 0.1077 0.19566 0.027468 0.012835 0.077778 0.079587 0.053938 
-0.04882 0.036182 0.15604 0.0064227 0.0032988 0.064296 0.03799 0.033058 
-0.08269 0.035031 0.053116 0.020562 0.021713 0.05476 0.0080668 0.041114 
-0.0021268 0.068242 -0.032872 0.024837 0.019083 0.020562 -0.020377 0.055747 
0.075641 0.096521 -0.044381 0.056569 0.051636 0.044567 -0.026131 0.17462 
0.11658 0.11411 -0.047341 0.05624 0.072188 0.05476 0.013492 0.23085 
0.1299 0.056569 -0.066248 0.091425 0.057062 0.053281 -0.0068948 0.19106 
0.11806 0.017603 -0.098802 0.031907 0.037661 0.034537 -0.026953 0.15078 
0.1202 0.045224 -0.099624 0.064296 0.034702 0.0090533 -0.035667 0.13368 
0.096521 0.03651 -0.087293 0.023522 0.026646 0.028454 -0.040106 0.13023 
0.025001 0.01563 -0.067892 0.051801 0.032071 0.044238 -0.047505 0.080244 
-0.053917 -0.044874 -0.025474 0.023686 0.048348 0.053116 -0.021692 0.012177 
-0.018568 -0.045532 -0.0022913 0.02829 0.048841 0.058871 0.022206 -0.061316 
0.025988 -0.034516 0.0018191 0.019576 0.037168 0.087643 0.057555 -0.068879 
0.007738 -0.042244 0.0046141 0.0042853 0.021549 0.047691 0.083697 -0.08121 
0.019083 0.013821 0.067913 0.044567 0.029934 0.0592 0.064461 -0.086636 
0.0087245 0.11395 0.083368 0.034044 0.035195 0.039634 0.064132 -0.011498 
0.013657 0.11773 0.084519 0.03799 0.0070803 0.02829 0.12842 0.048348 
0.034044 0.09685 0.070051 0.026152 0.045389 0.027796 0.13565 0.077285 
0.067913 0.086657 0.054432 0.068407 0.058871 0.019905 0.093069 -0.065426 
0.069558 0.054103 0.049499 0.031414 0.045882 0.0036276 0.089287 -0.16555 
0.031085 0.036346 0.027303 0.078436 0.042429 0.019411 0.071859 -0.022679 
-0.015609 0.028619 0.012506 0.028454 0.031414 0.015959 0.0044497 -0.01939 
-0.025638 0.01004 -0.0075525 0.037168 0.01826 0.0083956 -0.032708 -0.32536 
0.048184 0.025166 0.023522 0.014808 -0.0040998 -0.034845 -0.049642 -0.36367 
0.12842 0.040621 0.060844 -0.010019 -0.023007 -0.06148 -0.049149 -0.073318 
0.2029 0.023028 0.052952 -0.022679 -0.048327 -0.045203 -0.0050863 0.21556 
0.18958 0.0786 0.019576 0.016945 -0.01676 -0.014129 0.062488 0.43472 
0.074326 0.10014 0.021713 0.035031 0.013657 0.030756 0.12069 0.54866 
-0.0088678 0.086821 0.016123 0.054267 0.050979 0.062159 0.13746 0.46234 
-0.049314 0.088301 -0.006566 0.064625 0.048348 0.052952 0.09981 0.22164 
-0.0088678 0.030756 -0.015116 0.0324 0.01563 0.0013258 0.032071 0.01152 
0.036017 0.038483 0.078929 0.041278 -0.017417 -0.014787 0.028619 -0.10834 
0.041114 0.083368 0.2491 0.026152 0.0037921 -0.017582 0.023193 -0.11311 
0.025988 0.092904 0.29596 0.073832 0.017767 0.046211 0.0083956 -0.084498 
-0.010019 0.098001 0.20027 0.047362 0.035688 0.037826 0.014972 -0.1256 
0.0036276 0.10902 0.058377 0.067091 0.030427 0.0059294 0.026974 -0.20468 
0.0046141 0.044238 -0.087129 0.049664 0.03092 0.01563 0.0014903 -0.36269 
-0.037311 -0.012649 -0.17854 0.044402 0.041607 0.0072447 -0.0039354 -0.75415 
-0.057863 0.004943 -0.2425 0.0059294 0.039963 -0.0047575 -0.011334 -0.99469 
-0.0011404 0.014315 -0.21603 0.016452 0.035688 -0.0062372 0.013657 -0.40576 
0.038648 0.032564 -0.14089 -0.00031829 0.02829 -0.0067304 0.046704 0.30911 
0.012342 0.025001 -0.074304 0.0032988 0.047855 -0.008539 0.082711 0.69351 
0.020562 0.0024767 -0.035338 0.028454 0.016123 0.014315 0.095864 0.75599 
0.086492 -0.014787 -0.024816 0.021878 0.030756 0.033058 0.099152 0.67526 
0.016781 -0.10012 -0.079237 0.025166 0.019247 0.012835 0.07597 0.45149 
-0.040271 -0.10078 -0.038791 0.0037921 -0.014787 0.0074092 0.01974 0.28543 
-0.036654 0.013328 0.10622 0.051308 -0.037311 -0.024158 -0.016431 0.19698 
0.031578 0.077121 0.21309 0.03092 -0.036818 -0.044381 -0.0039354 -0.011992 
0.04095 0.072353 0.20175 0.056076 -0.023336 -0.016924 -0.023007 -0.41842 
0.043745 0.12233 0.15407 0.03536 0.0093821 -0.001798 -0.0029489 -0.83028 
0.051801 0.14042 0.15324 0.028947 0.045718 0.043909 0.039634 -0.78326 
0.045224 0.14979 0.15407 0.03651 0.056898 0.044402 0.022371 -0.39294 
-0.019719 0.077614 0.092576 0.016123 0.027961 0.0095465 -0.01117 -0.23148 
-0.11048 -0.030077 -0.0082102 -0.00031829 0.024837 0.034866 -0.0088678 -0.060494 
-0.053753 0.021549 -0.047341 0.011026 0.05624 0.05624 0.0024767 0.24712 
0.087972 0.095042 -0.018239 0.058377 0.067913 0.065776 0.020562 0.37931 
0.18267 0.08978 -0.035174 0.077121 0.058049 0.070544 0.059035 0.24548 
0.15571 0.026152 -0.04619 0.068407 0.055911 0.048513 0.0079024 -0.0032777 
0.04506 -0.015444 -0.083183 0.024015 -0.0073881 0.03092 -0.01117 -0.14188 
-0.03353 -0.028762 -0.068386 0.047033 0.017603 0.027961 -0.015938 -0.052437 
0.013986 0.028619 -0.050629 0.031578 0.01415 0.028125 0.026974 0.19172 
0.1345 0.025495 -0.067892 0.044402 0.034866 0.041772 0.089616 0.45544 
0.14798 -0.026953 -0.064933 0.027139 0.040128 0.082546 0.1493 0.53666 
0.077449 -0.048163 -0.058521 0.027632 0.061501 0.062652 0.089945 0.40611 
-0.010676 -0.014293 0.025495 0.0079024 0.039963 0.031578 0.0095465 0.2172 
-0.023501 0.048019 0.085341 0.024673 0.022206 -0.03205 -0.049642 0.046375 
-0.038791 0.07301 0.13483 0.035031 0.038812 -0.02235 -0.099789 -0.11179 
-0.077428 0.012342 0.16788 0.02122 0.025166 -0.0044286 -0.085649 -0.23181 
-0.13103 -0.016102 0.12513 0.0092177 0.0324 -0.0096899 -0.033694 -0.36219 
-0.13563 -0.0019624 0.073339 -0.013471 0.020069 -0.0004827 -0.027118 -0.1723 
-0.10291 0.014479 0.025988 0.013492 0.018754 0.026317 -0.010841 0.13894 
-0.072332 0.066763 -0.008539 -0.0082102 0.015301 -0.006566 -0.033694 0.19385 
0.052952 0.11855 -0.021692 0.009711 0.01974 -0.0095255 -0.058192 0.12858 
0.20931 0.097179 -0.024323 0.012999 0.01974 0.046868 0.03947 0.13845 
0.34923 0.086163 -0.024652 0.07597 0.052787 0.087314 0.11247 0.15752 
0.37208 0.032071 -0.0055795 0.038319 0.029276 0.097015 0.14502 0.11691 
0.22197 0.016781 0.0042853 0.053281 0.056404 0.10392 0.13795 0.076134 
0.034537 0.044567 0.079916 0.047526 0.065776 0.087972 0.14305 -0.10982 
-0.057205 0.009711 0.14913 0.043087 0.075148 0.048513 0.069558 -0.26946 
-0.13892 -0.033365 0.11132 0.040292 0.071202 0.025988 0.018589 -0.15848 
-0.12955 0.06183 0.093398 0.026481 0.040621 0.0092177 -0.0047575 0.054925 
-0.06855 0.098494 0.15522 0.039141 0.030098 0.028783 -0.018733 0.21095 
-0.025802 0.13319 0.17692 0.017932 0.029112 0.026646 -0.00064712 0.3119 
0.067256 0.12727 0.12266 0.032236 0.025001 0.015794 0.03092 0.35958 
0.077121 0.097508 0.090438 0.023686 0.026317 0.010369 0.019247 0.36205 
0.011026 0.092247 0.13039 0.063145 0.030592 0.0054362 0.020727 0.29579 
0.016616 0.030263 0.13812 0.028783 0.033551 -0.018733 0.020069 0.17166 
0.060679 -0.016924 0.072846 0.036182 0.023522 0.010697 -0.00081153 0.028454 
0.072353 -0.013471 -0.027611 0.0060938 0.014643 0.0080668 0.0018191 -0.047341 
0.081067 -0.0029489 -0.1016 0.025166 0.00033937 -0.00064712 0.033715 0.0421 
0.12743 0.023686 -0.14533 0.0021479 -0.027447 0.01415 0.019083 0.19172 
0.079587 0.10589 -0.11672 0.0083956 -0.014458 0.0227 0.051965 0.28954 
0.029769 0.046868 -0.068386 0.0032988 0.0082312 0.047033 0.062323 0.39543 
0.034866 0.02122 -0.012485 -0.0083746 0.017767 0.039634 0.037497 0.20799 
0.027796 0.011355 0.012835 -0.00064712 0.063474 0.045553 0.023357 -0.16769 
-0.046025 -0.008539 0.087479 0.0044497 0.054596 0.053445 0.037661 -0.42747 
-0.070194 0.023686 0.1368 0.031578 0.023851 0.023851 0.029441 -0.36269 
-0.10439 0.10474 0.098823 0.042429 0.0421 0.021384 0.029769 -0.28081 
0.009711 0.048184 0.0013258 0.061666 0.038319 0.055911 0.085835 -0.21471 
0.075312 0.023357 -0.0022913 0.033387 0.026481 0.033715 0.058213 -0.18742 
0.021384 0.048019 0.010862 0.055582 0.012177 0.022535 0.048348 -0.070687 
-0.024816 0.083204 0.071859 0.013821 0.014972 0.023193 0.048513 0.098988 
0.049664 0.1345 0.10721 0.054596 0.009711 -0.015116 0.048677 0.23019 
0.15111 0.098494 0.081395 0.017603 0.0024767 -0.032708 0.061501 0.28445 
0.14124 0.018918 0.031742 0.0054362 0.013986 -0.020048 0.10293 0.23101 
0.089123 0.020398 -0.00015387 -0.0095255 0.014643 -0.0047575 0.077121 0.16442 
0.10721 0.0070803 -0.013636 0.0019835 0.043745 0.049006 0.04506 0.15407 
0.10195 0.020727 -0.023665 0.017274 0.031085 0.064296 0.055582 0.19566 
0.099152 0.076956 -0.018404 0.040621 0.036182 0.045224 0.013328 0.07301 
0.031249 0.096357 0.032564 0.054267 0.032729 0.066105 0.0039565 -0.07266 
-0.054575 0.12924 0.11362 0.043909 0.032564 0.053281 0.05772 -0.084663 
-0.097322 0.070873 0.13582 0.050979 0.035195 0.052459 0.077943 -0.047012 
-0.12001 0.019247 0.12118 0.024673 0.039634 0.068078 0.053609 -0.13727 
-0.0060728 0.055582 0.13927 0.056404 0.024837 0.046046 0.033222 -0.26683 
0.15456 0.10852 0.1179 0.044402 0.033387 0.051965 0.019905 -0.32915 
0.19501 0.03799 -0.009361 0.049828 0.018096 0.066598 0.025988 -0.31912 
0.10277 0.018918 -0.10521 0.038155 0.032564 0.012342 -0.010676 -0.35216 
-0.015938 0.023193 -0.10472 0.080902 0.031742 0.014479 -0.0044286 -0.20781 
-0.067564 0.077943 -0.068879 0.076956 0.046046 0.021549 0.0037921 0.13384 
-0.095021 0.086328 -0.09387 0.059693 0.0065871 -0.02235 -0.011663 0.32095 
-0.086471 -0.052109 -0.13481 0.0067515 -0.024323 -0.038627 -0.063782 0.21457 
-0.035996 -0.097651 -0.1113 -0.026296 -0.030735 -0.050464 -0.077428 0.054925 
0.048841 -0.015609 0.080573 -0.01676 -0.027447 -0.060987 0.026317 -0.035996 
0.11609 0.023193 0.17922 0.0016547 0.0079024 0.016616 0.073832 -0.075455 
0.14683 0.029605 0.13351 0.040621 0.041443 0.04654 0.10244 -0.19334 
0.18087 0.053445 0.065447 0.030756 0.033387 0.044402 0.13105 -0.28804 
0.15193 0.032893 0.0067515 0.051143 0.044731 0.044402 0.10836 -0.17065 
0.013657 0.057391 -0.011334 0.018096 0.052952 0.024179 0.079094 -0.052437 
-0.12955 0.082053 0.0062583 0.066269 0.025988 0.031085 0.086492 0.024837 
-0.15552 0.08978 0.0075736 0.051143 0.054925 0.081067 0.046211 0.091096 
-0.066906 0.11066 0.028947 0.059035 0.037826 0.034044 0.0064227 0.18284 
0.027632 0.11576 0.092904 0.064954 0.039141 0.023357 -0.0070593 0.25535 
0.13335 0.10918 0.080902 0.047033 0.041443 0.0095465 -0.035174 0.25074 
0.14815 0.064625 0.05476 0.041772 0.026481 0.0021479 -0.041915 0.16212 
0.08863 -0.019555 0.058542 0.039305 0.026646 0.0023123 -0.009361 0.16574 
0.021713 -0.029584 0.093726 0.048019 0.026646 0.01711 0.036017 0.18251 
-0.032543 0.037004 0.13006 0.0036276 0.009711 0.00050378 0.0324 0.088301 
-0.050958 0.086985 0.086163 0.022535 0.0047785 0.023522 0.021878 -0.078908 
-0.065097 0.08567 0.017932 -0.00064712 0.0065871 -0.0044286 0.013492 -0.14763 
0.044073 0.07301 -0.029584 0.029934 0.0092177 -0.016431 -0.029913 -0.070523 
0.07301 0.0054362 -0.090253 0.0087245 0.00050378 -0.0029489 -0.052602 -0.034845 
-0.023007 -0.06707 -0.1307 0.016781 -0.0050863 -0.016266 -0.06148 -0.020048 
-0.090417 -0.11442 -0.12971 0.0056006 0.029112 0.012013 -0.025967 -0.004593 
-0.035174 -0.097651 -0.055232 0.062981 0.063145 0.057555 0.038812 0.0023123 
0.019247 -0.0080457 0.049006 0.036839 0.071037 0.038483 0.046211 0.048677 
0.086328 0.084026 0.12349 0.044731 0.037826 0.016781 0.0093821 0.076463 
0.11033 0.096686 0.14881 0.046868 0.033387 0.0019835 -0.028762 0.12497 
0.045553 0.08715 0.14749 0.027632 0.0074092 -0.023336 -0.0013048 0.083862 
0.014808 0.079422 0.12875 0.038483 0.017603 0.00066819 0.0069159 0.045224 
-0.025802 0.049335 0.071202 0.019083 0.036182 0.012177 0.012999 0.12085 
-0.053588 0.046704 0.035524 0.029441 0.048677 0.015301 0.03388 0.29168 
-0.0059084 0.019411 0.034044 0.015794 0.050814 0.02122 0.018096 0.37685 
0.032236 0.041772 0.10195 0.052787 0.060186 0.031742 0.031742 0.3096 
0.044567 0.058213 0.15867 0.045224 0.052459 0.036017 0.038812 0.11329 
0.079587 0.094713 0.14716 0.051143 0.050486 0.068736 0.048677 -0.12757 
0.1276 0.13039 0.079916 0.024508 0.030098 0.04917 0.024508 -0.34953 
0.12908 0.13467 -0.021528 0.032564 0.031085 0.057555 0.062323 -0.6537 
0.11296 0.096521 -0.045368 0.029934 0.033058 0.079751 0.07449 -0.44703 
0.051472 0.0592 0.044731 0.017274 0.0227 0.071037 0.084848 0.25683 
-0.046683 0.023851 0.08008 0.017767 0.0042853 0.054925 0.093233 0.69088 
-0.10883 -0.027282 0.08978 0.013492 0.0079024 0.049828 0.045389 0.73445 
-0.059507 -0.064933 -0.017253 0.011848 0.037661 0.029441 0.010533 0.63465 
0.022371 -0.054904 -0.14467 0.0016547 0.025824 0.00066819 0.03651 0.55737 
-0.016595 -0.036818 -0.19663 0.0034632 0.0070803 -0.00097594 -0.00015387 0.3558 
-0.084169 0.016781 -0.1524 -0.012814 0.0041209 -0.018404 -0.0068948 0.062323 
-0.012978 0.01826 -0.099789 0.019411 0.039305 0.0080668 0.020727 -0.21537 
0.12612 0.060515 -0.046683 0.020727 0.050321 0.0024767 0.0093821 -0.4319 
0.18596 0.13582 0.060679 0.05624 0.036017 -0.0077169 0.0083956 -0.35282 
0.18103 0.10672 0.13236 0.035524 0.024508 0.010862 -0.016595 -0.19909 
0.12875 0.066269 0.15818 0.056569 0.026646 0.0064227 -0.0031133 -0.068057 
0.13154 -0.0068948 0.12825 0.037826 0.040456 0.028783 0.06331 -0.079072 
0.072024 -0.033201 0.13368 0.007738 0.035195 0.054925 0.097837 -0.14352 
-0.059343 0.031249 0.1396 0.034866 0.061172 0.058542 0.09274 0.050979 
-0.071674 0.095535 0.13105 0.045718 0.054103 0.0689 0.098494 0.31536 
0.029276 0.099316 0.084355 0.038812 0.062323 0.093726 0.081724 0.4071 
0.095206 0.096521 0.022206 0.01974 0.01711 0.047362 0.0018191 0.34117 
0.079916 0.078436 -0.025474 0.019905 0.024508 0.030756 -0.015773 0.1641 
0.04095 0.042429 -0.021363 0.00017495 0.018096 0.025001 -0.01117 -0.045203 
0.029112 0.039634 -0.037147 0.029112 0.029112 0.013492 -0.036818 -0.39458 
0.047362 0.041114 -0.017088 0.018918 0.031578 0.021056 -0.029748 -0.753 
0.093233 0.0062583 -0.023501 0.045389 0.029934 0.05772 0.057884 -0.42401 
0.10556 0.017603 -0.021363 0.011684 0.040292 0.020891 0.08715 0.076956 
0.048677 0.005765 -0.01676 0.043909 0.019576 0.019247 0.091096 -0.0077169 
-0.03501 0.045224 0.029934 0.0093821 0.023522 0.012342 0.12398 -0.091239 
-0.10998 0.065283 0.091753 0.037497 0.020069 0.0052718 0.12398 0.093726 
-0.15832 0.0074092 0.056733 0.0082312 0.010369 0.022371 0.081395 0.22805 
-0.10143 -0.009361 0.013821 0.013986 0.00066819 -0.0039354 0.042758 0.099481 
0.081889 0.05476 -0.022679 0.007738 -0.010841 -0.011827 -0.034845 0.00033937 
0.21901 0.11099 -0.017417 0.023686 -0.0138 0.0074092 -0.032872 0.064625 
0.20898 0.086163 -0.015116 0.040621 0.013657 0.025659 -0.014951 0.16722 
0.13302 0.057555 -0.037476 0.021056 0.025659 0.017767 -0.020377 0.13269 
0.044073 0.023028 -0.030077 0.051636 0.022042 0.018918 -0.043724 0.051472 
0.060186 0.084684 0.010369 0.041443 0.052459 -0.0044286 -0.00064712 0.059528 
0.088301 0.089616 0.055254 0.052294 0.054432 0.010369 0.050979 0.041443 
0.068242 0.04917 0.071366 0.025001 0.04654 0.023686 0.055911 -0.066906 
0.013986 0.021878 0.067913 0.03388 0.037826 0.0080668 0.060679 -0.11755 
-0.0016336 -0.010183 0.051636 0.0056006 0.017932 0.040292 0.055911 -0.14089 
0.040785 0.0072447 0.073175 0.045389 0.020398 0.036839 0.051308 -0.11491 
0.071202 0.090931 0.059364 0.031742 0.021384 0.023028 0.026974 -0.10193 
0.065776 0.056733 0.020398 0.035031 0.0095465 0.04358 -0.025309 -0.14533 
0.02122 0.0028056 -0.019719 0.023522 0.029934 0.022371 -0.042244 -0.083018 
-0.019555 -0.02087 0.067749 0.017767 0.024015 0.010862 0.012013 -0.032543 
-0.074469 -0.020377 0.1493 0.019576 -0.0049219 0.034866 0.060515 0.015301 
-0.13218 0.037826 0.11905 -0.015116 0.021056 0.019411 0.051801 0.062323 
-0.093048 0.10277 0.0080668 0.046211 0.013821 0.0042853 0.04095 0.060515 
0.023851 0.11148 0.0072447 0.036182 0.029769 -0.0021268 -0.0054151 -0.0080457 
0.066598 0.13171 0.018096 0.068078 0.04095 0.0095465 -0.023007 -0.064604 
0.093726 0.12003 0.040292 0.05065 0.076627 0.04506 -0.019884 -0.035832 
0.08715 0.071366 0.040621 0.075148 0.083533 0.046704 -0.048985 -0.0019624 
0.04095 0.069722 0.032893 0.047362 0.057884 0.020891 -0.02794 0.13187 
0.027139 0.040621 0.056569 0.0592 0.03651 0.023522 0.033058 0.19336 
0.032729 0.072846 0.094055 0.039634 0.026974 0.00083261 0.047526 0.23151 
0.057062 0.060515 0.12381 0.037168 0.009711 -0.0034422 0.05476 0.21638 
0.035031 -0.018733 0.073832 0.03092 0.0069159 0.00099702 0.098166 0.053774 
-0.019884 -0.035174 0.049828 0.00297 -0.0036066 -0.036654 0.050321 -0.19301 
-0.0078813 0.0031344 0.043909 -0.010512 -0.0087034 -0.01939 0.048019 -0.10078 
-0.0057439 -0.00064712 0.048348 -0.05441 0.02533 0.023522 0.04917 0.21062 
0.0054362 -0.030406 0.0042853 0.013986 0.012342 0.025495 0.04358 0.38737 
0.067585 0.016945 -0.041586 0.01826 -0.020377 0.03536 0.045389 0.28198 
0.027961 0.048513 -0.0016336 0.042594 0.023851 0.05772 0.038483 0.071859 
-0.091568 0.084355 0.05065 0.046046 0.040292 0.039141 0.007738 -0.048327 
-0.1381 0.06183 0.058542 0.051143 0.022042 0.026974 -0.038298 -0.092719 
-0.052273 0.067913 0.025001 0.027796 0.029769 0.023522 -0.023829 -0.054739 
0.071531 0.077449 0.03947 0.066598 0.053445 0.027139 -0.0011404 -0.073647 
0.14042 0.060679 0.033222 0.061501 0.085506 0.060844 0.028454 -0.041915 
0.16574 0.050321 0.012013 0.053116 0.07597 0.051143 0.050321 -0.0090322 
0.1179 0.04095 -0.011992 0.033222 0.052787 0.035031 -0.0049219 -0.04619 
-0.014622 0.0016547 0.04095 -0.0022913 0.019576 0.012506 -0.026789 -0.098309 
-0.095843 0.044567 0.22723 0.027961 -0.017911 -0.025309 -0.0070593 -0.026789 
-0.062796 0.13236 0.33788 -0.0042642 -0.011992 -0.030899 -0.014951 0.11099 
-0.055397 0.10096 0.34544 0.019576 0.004943 0.016616 -0.016595 0.28543 
-0.029748 0.04095 0.21737 0.0054362 0.024344 0.00017495 0.02829 0.41006 
0.077121 0.081889 0.041607 0.039799 0.031414 0.013821 0.050979 0.44015 
0.071202 0.11378 -0.14862 0.031414 0.040456 0.023522 0.051143 0.37159 
0.0079024 0.15966 -0.26256 0.077778 0.061172 0.038648 0.063145 0.088136 
-0.029091 0.10145 -0.27604 0.086328 0.068407 0.038812 0.079258 -0.25056 
0.039305 0.024673 -0.22096 0.10425 0.073997 0.075641 0.10211 -0.33457 
0.098001 0.00066819 -0.12626 0.085177 0.050321 0.072024 0.15735 -0.38981 
0.10343 -0.063453 -0.065097 0.05624 0.030756 0.070708 0.15061 -0.37173 
0.088958 -0.1205 -0.044546 0.029276 0.012999 0.030427 0.12776 -0.0138 
0.086821 -0.11607 -0.027118 0.0016547 -0.012649 0.014643 0.069393 0.29776 
0.059857 -0.10834 -0.020541 -0.014787 -0.030242 0.0011614 0.0044497 0.2292 
0.073339 -0.001798 0.025659 -0.021363 -0.021856 -0.0095255 -0.033859 -0.0090322 
0.040456 0.064954 0.13615 -0.003771 -0.013471 -0.012156 -0.024816 -0.17608 
-0.11541 0.0098754 0.25091 -0.0027845 -0.0034422 0.007738 0.0070803 -0.1889 
-0.17805 0.011684 0.23989 0.0011614 0.0067515 -0.0050863 0.042758 -0.027447 
-0.086471 0.064132 0.12135 -0.013307 0.020398 0.0082312 0.046375 0.3313 
0.047197 0.1003 0.069558 0.042429 0.040456 0.05213 0.016945 0.63103 
0.041772 0.15094 0.051801 0.044073 0.081231 0.062652 0.016452 0.49753 
-0.011005 0.11773 -0.0029489 0.084848 0.084026 0.073997 0.027632 0.14535 
-0.05326 0.055582 -0.11064 0.023357 0.070544 0.042594 -0.0052507 -0.065097 
-0.096829 0.079751 -0.14566 0.041114 0.054596 0.016288 -0.0039354 -0.044052 
-0.064275 0.081395 -0.16802 0.024015 0.042429 0.026974 0.038483 0.032893 
0.062159 0.067585 -0.16325 0.044402 0.04358 -0.012485 0.052459 -0.046847 
0.1026 0.012013 -0.12198 0.045718 0.063803 -0.0050863 0.079094 -0.19367 
0.14437 -0.036983 -0.084005 0.054596 0.036182 0.028783 0.069064 -0.29314 
0.16393 -0.035667 -0.028597 0.062488 0.017603 0.063968 0.059035 -0.44243 
0.16821 0.015137 0.041607 0.04095 0.027468 0.063968 0.058706 -0.4952 
0.11263 0.067749 0.12661 0.051965 0.011191 0.091753 0.064461 -0.45805 
0.044896 0.075641 0.13812 0.018589 0.0021479 0.064625 0.062159 -0.093541 
0.013657 0.065283 0.082217 0.042429 0.0069159 0.071037 0.067091 0.32193 
0.043087 0.045882 0.041607 -0.013143 -0.0029489 0.065447 0.06183 0.50953 
0.088136 0.034702 0.0037921 -0.00031829 0.0075736 0.027139 0.045718 0.54225 
0.051143 0.0024767 -0.013307 -0.028269 0.012342 0.023851 0.020398 0.45281 
0.047691 -0.021856 0.010369 0.015137 0.029112 -0.00097594 0.022371 0.34298 
0.08567 -0.0091966 0.10145 0.027303 0.053445 0.011191 0.0074092 0.19994 
0.14256 0.032236 0.11806 0.037168 0.052952 0.044238 0.0039565 -0.010348 
0.11148 0.029276 0.077121 0.020398 0.046704 -0.0050863 -0.044546 -0.23888 
0.055254 0.043251 0.016123 0.0047785 0.019411 -0.059672 -0.076771 -0.27555 
-0.023336 0.029769 -0.019555 0.014643 0.015301 -0.036489 -0.087622 -0.13333 
-0.071345 0.037661 0.0028056 0.026481 0.032564 -0.027282 -0.029748 0.036346 
-0.053424 0.090931 0.097837 0.037004 0.023028 0.0011614 0.036675 0.095864 
-0.044052 0.10145 0.1909 0.031414 0.011848 0.039141 0.054925 0.098166 
-0.042079 0.12349 0.19665 0.053445 0.0037921 0.037004 0.05065 -0.050793 
0.0041209 0.14437 0.08863 0.033387 0.010369 0.014479 0.073668 -0.18561 
0.050321 0.085012 -0.034023 0.05772 0.0018191 0.042758 0.099316 -0.073811 
0.088301 0.05772 -0.094363 0.017438 0.00017495 0.019905 0.069064 0.10047 
0.13171 0.040785 -0.09239 0.043909 -0.00064712 0.025166 0.061666 0.20471 
0.14831 0.024179 -0.032379 0.020727 -0.0087034 0.039305 0.0034632 0.29661 
0.12085 0.070873 0.06183 0.04917 0.021056 0.035688 -0.0070593 0.27524 
0.12464 0.085341 0.12924 0.073339 0.055747 0.020398 -0.026624 0.17034 
0.09685 0.062323 0.15111 0.058049 0.072024 -0.0055795 -0.069372 0.029441 
0.063803 0.0013258 0.10129 0.015137 0.042429 -0.0083746 -0.072003 -0.042573 
0.069064 -0.046683 0.054432 -0.029913 0.046375 0.030098 -0.050629 -0.028762 
0.077121 -0.03205 0.030098 0.0074092 0.037661 0.015794 -0.05737 0.017438 
0.11806 0.054925 0.075641 -0.015116 0.020069 0.014479 -0.051944 0.0069159 
0.12299 0.085341 0.12825 0.026317 -0.017417 -0.011827 -0.0088678 -0.05441 
0.10096 0.11806 0.147 0.021878 -0.014293 -0.029255 0.013821 -0.078908 
0.07597 0.13483 0.13417 0.061995 0.014643 -0.013471 0.066927 -0.14895 
-0.014293 0.077285 0.11378 0.041114 0.036839 0.042265 0.15735 -0.1935 
