0.067913 0.095371 0.023028 0.038319 -0.060494 0.020727 -0.0042642 0.060022 
0.066763 -0.00064712 -0.0040998 0.058871 -0.047505 0.0011614 -0.015609 0.052952 
0.02829 -0.041422 -0.01676 0.061501 -0.041422 0.02829 -0.001798 0.0421 
-0.01117 0.019576 -0.041751 0.024673 -0.065262 0.01004 -0.014293 0.050814 
0.055747 0.054103 -0.031392 0.016781 -0.067892 0.004943 -0.018239 0.017438 
0.040621 0.061008 0.0041209 0.039634 -0.053753 0.025001 -0.004593 0.014972 
0.042594 0.087972 0.061995 0.077778 -0.027775 0.023522 -0.0050863 0.029934 
0.032071 0.045553 0.084026 0.10408 -0.0062372 0.023357 0.0072447 0.012013 
0.018425 0.025001 0.058706 0.095371 -0.008539 0.050814 0.013821 -0.0024557 
-0.03057 -0.03501 0.020233 0.066763 -0.031064 0.040785 0.013821 -0.037147 
-0.076442 -0.047834 0.012835 0.048677 -0.050464 0.010369 0.0092177 -0.047834 
-0.056712 -0.030077 0.0044497 0.052459 -0.046847 0.005765 -0.0091966 -0.024158 
-0.031228 -0.031886 -0.063782 0.022042 -0.068714 0.0065871 -0.012156 0.025166 
0.014972 -0.015444 -0.045861 0.033715 -0.061316 0.00297 -0.006566 0.053774 
0.030756 -0.02794 -0.02942 0.022206 -0.067399 0.023357 -0.0059084 0.055418 
0.010697 -0.28492 -0.05441 0.0031344 -0.078908 -0.0032777 -0.019555 0.011848 
-0.042408 -0.55242 -0.091568 -0.027447 -0.093376 0.010697 0.0011614 0.0059294 
0.010369 -0.4421 0.0227 0.03388 -0.044546 0.038648 0.010697 0.042923 
0.05772 0.015794 0.20208 0.16837 0.04654 0.065283 0.035853 0.066598 
0.12332 0.4579 0.2828 0.25765 0.10474 0.082875 0.057884 0.089945 
0.15834 0.58286 0.21424 0.24236 0.083204 0.077778 0.056569 0.11477 
0.11954 0.4944 0.080244 0.15209 0.014643 0.026317 0.021878 0.054267 
0.083862 0.37948 -0.052437 0.051801 -0.058356 0.016781 0.0056006 0.019411 
0.042265 0.31749 -0.097158 0.0024767 -0.09387 -0.014787 -0.023007 0.0044497 
0.020727 0.29448 -0.093212 0.0032988 -0.09091 -0.021034 -0.034681 -0.027775 
0.026481 0.19994 -0.0062372 0.028125 -0.069701 -0.0042642 -0.029913 -0.0070593 
0.032729 -0.028269 0.11296 0.11099 -0.010019 -0.0032777 -0.028269 0.026317 
-0.003771 -0.21702 0.14042 0.15867 0.025495 0.022535 -0.0073881 0.032893 
-0.027611 -0.25795 0.099481 0.15292 0.026152 0.044073 0.00297 0.044567 
-0.0021268 -0.21899 0.081395 0.1368 0.012013 0.031414 0.0037921 0.051636 
0.031085 -0.084334 0.054925 0.11888 -0.0032777 0.0092177 0.0069159 0.049499 
0.036182 -0.069865 0.031742 0.075641 -0.031228 0.030756 0.005765 0.038155 
0.022864 -0.0072237 0.032729 0.068571 -0.034352 0.018096 -0.0022913 0.036839 
0.059857 -0.045532 0.051965 0.08419 -0.027118 0.018754 0.012342 0.033058 
0.019083 -0.21767 0.046211 0.08978 -0.023501 0.025659 -0.0047575 0.043251 
-0.052931 -0.30448 -0.013636 0.073339 -0.029584 0.017438 -0.0049219 0.0090533 
-0.079566 -0.2111 -0.038627 0.033551 -0.054246 0.023193 0.016781 -0.014787 
-0.06 -0.084498 -0.051451 0.0088889 -0.070687 0.010533 -0.0013048 0.0072447 
0.038319 0.18892 0.035688 0.054925 -0.036654 0.030098 0.010204 0.031414 
0.12661 0.47763 0.15472 0.14486 0.017932 0.034866 0.013164 0.067749 
0.16245 0.69877 0.21868 0.21556 0.055418 0.027961 0.0074092 0.078272 
0.16212 0.69877 0.17117 0.20471 0.0421 0.0052718 -0.0098543 0.048677 
0.1322 0.48158 0.10721 0.15818 0.011848 0.024673 -0.0064016 0.045882 
0.046375 0.17495 0.024837 0.081067 -0.041257 -0.0062372 -0.029091 0.027796 
-0.0090322 -0.0068948 0.0039565 0.056404 -0.055561 -0.016924 -0.037147 -0.0087034 
-0.018404 -0.12988 0.058377 0.10721 -0.014293 0.035195 -0.01117 0.01826 
0.0026412 -0.037147 0.14486 0.18169 0.042594 0.040456 0.0042853 0.034373 
0.042594 0.088301 0.15818 0.1955 0.054596 0.062159 0.040621 0.06594 
0.085012 -0.00081153 0.088465 0.15209 0.025659 0.063145 0.035524 0.087479 
0.059528 -0.10637 0.021713 0.095864 -0.017911 0.035853 0.022042 0.06594 
0.023686 -0.2642 -0.051287 0.028454 -0.060165 0.023851 0.023522 0.034209 
-0.022185 -0.4222 -0.13448 -0.049971 -0.1113 0.032071 -0.00081153 0.0062583 
-0.097158 -0.32421 -0.1741 -0.10587 -0.14895 -0.00097594 -0.018404 -0.059836 
-0.10965 -0.090088 -0.096172 -0.0868 -0.13925 0.010533 -0.0036066 -0.061316 
0.0080668 0.24597 -0.00081153 -0.016266 -0.097487 -0.0032777 -0.020212 0.0021479 
0.10902 0.37323 -0.0054151 0.0069159 -0.08532 -0.0013048 -0.01939 0.032236 
0.07597 0.17873 -0.094199 -0.010512 -0.10094 -0.0095255 -0.023829 0.042265 
0.0093821 0.0079024 -0.13316 -0.043395 -0.1159 -0.01117 -0.029091 0.030263 
-0.0040998 0.088301 -0.081703 -0.038956 -0.10702 -0.010512 -0.02942 0.01415 
0.0083956 0.20898 -0.0062372 0.010204 -0.071016 0.034373 0.00050378 0.033387 
0.022042 0.24729 0.042265 0.059364 -0.038627 0.022042 -0.00064712 0.033222 
0.011848 0.11017 0.032564 0.068736 -0.03616 0.038155 0.011355 0.037661 
0.059035 -0.016924 0.032729 0.073832 -0.034352 0.049828 0.016123 0.052623 
0.091425 0.065776 0.10425 0.11181 -0.0075525 0.035031 0.010369 0.050321 
0.10145 0.10441 0.14502 0.15061 0.014808 0.028947 0.013164 0.027796 
0.080738 0.095864 0.13779 0.1562 0.019247 0.041114 0.014479 0.040128 
0.033551 0.054432 0.051801 0.12694 -0.0019624 -0.003771 -0.012156 -0.0087034 
0.044238 -0.016431 -0.043066 0.078272 -0.034188 -0.003771 -0.0083746 -0.025145 
0.042758 0.04917 -0.085813 0.0052718 -0.075949 0.011684 -0.013143 0.012177 
-0.0040998 0.20668 -0.043395 0.0023123 -0.069865 0.038648 0.007738 0.053116 
-0.05178 0.21605 0.0026412 0.031578 -0.048492 0.051308 0.025824 0.039305 
-0.013965 0.1419 -0.019555 0.027303 -0.051615 0.024508 0.0093821 0.055418 
0.009711 -0.13021 -0.060329 -0.0070593 -0.074469 0.02681 0.00017495 0.0092177 
0.038319 -0.4051 -0.12692 -0.055232 -0.10472 0.021549 0.005765 0.0067515 
0.050486 -0.46528 -0.14122 -0.10028 -0.13251 0.01267 -0.0062372 -0.018075 
-0.016431 -0.35085 -0.081703 -0.073811 -0.11738 0.0026412 -0.014129 -0.0075525 
-0.013307 -0.072825 0.058542 0.023028 -0.054082 0.048677 0.0087245 0.03388 
0.019576 0.15292 0.13171 0.12464 0.0088889 0.062817 0.028947 0.046704 
0.05772 0.23233 0.13845 0.19418 0.052459 0.037661 0.022371 0.065447 
0.0060938 0.22033 0.15275 0.19418 0.047362 0.065118 0.029605 0.067256 
-0.015773 0.15801 0.16015 0.2006 0.047197 0.032071 0.016781 0.055254 
0.026646 0.087479 0.10228 0.1659 0.017438 0.0079024 -0.0027845 0.025495 
0.086985 0.13713 0.089945 0.14979 0.0041209 0.023686 -0.0039354 0.033058 
0.088958 0.13434 0.072353 0.12612 -0.014951 0.0047785 -0.012485 0.021878 
0.10787 0.10655 0.015301 0.080738 -0.041751 -0.0040998 -0.012978 0.032729 
0.20438 0.11033 0.026974 0.067913 -0.041093 0.015959 -0.008539 0.07449 
0.27277 0.1442 0.14354 0.13615 0.0090533 0.015465 -0.0050863 0.073339 
0.2759 0.19024 0.25946 0.22131 0.07038 0.010697 0.0070803 0.10228 
0.24828 0.17626 0.26077 0.27672 0.1077 0.078272 0.033551 0.085012 
0.16442 0.16969 0.1807 0.26981 0.092576 0.073668 0.04506 0.076792 
0.088958 0.15719 0.13351 0.20849 0.048513 0.041936 0.044402 0.065612 
0.0046141 0.016123 0.073175 0.14963 0.0069159 0.033058 0.015959 0.034209 
-0.11968 -0.12741 0.013657 0.091918 -0.030077 0.019247 0.0019835 -0.0019624 
-0.35627 -0.17476 -0.0039354 0.060844 -0.044381 0.03947 -0.00031829 -0.030899 
-0.48435 -0.091732 0.021878 0.062488 -0.043888 0.0082312 -0.013965 -0.10423 
-0.17657 0.13319 0.062488 0.085012 -0.024816 0.017932 -0.0024557 -0.033859 
0.037497 0.20997 0.082546 0.10721 -0.0075525 0.051143 0.018425 0.010204 
-0.035996 0.055418 0.065612 0.098494 -0.010348 0.023686 0.005765 -0.0029489 
-0.022514 -0.18216 0.079751 0.098166 -0.015938 0.024673 0.0065871 0.074819 
0.086328 -0.43766 0.084026 0.13779 0.0046141 0.048841 0.018754 0.15423 
0.092247 -0.45805 0.075312 0.16146 0.016452 0.025824 0.0042853 0.11461 
0.12628 -0.25615 0.099152 0.14979 0.0062583 0.0046141 -0.0088678 0.1003 
0.23775 0.03536 0.083697 0.13582 -0.0029489 0.0067515 -0.021692 0.046868 
0.24663 0.32177 0.083204 0.13121 0.0088889 0.010862 -0.027118 -0.058356 
0.040128 0.51315 0.041114 0.10244 0.0090533 0.054432 0.025001 -0.078908 
-0.097651 0.40151 0.01563 0.075148 -0.0073881 0.081067 0.044402 -0.034023 
-0.073154 0.13302 0.026152 0.071366 -0.024158 0.047033 0.029441 -0.00064712 
0.0098754 -0.0075525 0.078436 0.097179 -0.0060728 0.028947 0.035031 0.00083261 
0.022864 -0.017088 0.11724 0.12069 0.0052718 0.030098 0.011355 -0.028762 
0.060022 0.027961 0.060844 0.096686 -0.018897 0.010697 0.00050378 0.049828 
0.13023 0.056404 0.030098 0.082711 -0.034845 0.013657 0.018425 0.13401 
0.18843 0.17462 0.063803 0.12924 -0.0073881 0.036675 0.005765 0.09274 
0.081067 0.21589 0.077614 0.12118 -0.013471 0.011191 -0.0083746 0.080244 
-0.061151 0.18695 0.097015 0.13088 -0.009361 0.0324 0.0079024 0.060679 
-0.10143 0.1008 0.091096 0.12431 -0.0072237 0.019083 0.01152 0.042758 
-0.09946 0.061501 0.095535 0.13286 0.0018191 0.019411 0.0019835 0.016123 
0.0046141 0.070544 0.087808 0.13171 -0.0019624 0.024673 -0.0054151 0.021878 
0.096686 0.082875 0.051472 0.10885 -0.014129 0.0098754 -0.010348 0.020562 
0.13302 -0.094692 0.0085601 0.076463 -0.031392 0.0082312 -0.008539 0.05065 
0.04506 -0.3058 -0.021199 0.033387 -0.052109 0.031907 -0.0004827 0.022864 
-0.035174 -0.25615 -0.00097594 0.031907 -0.050958 0.0056006 -0.011827 -0.046354 
-0.05441 -0.16046 0.033551 0.065612 -0.032708 0.0039565 -0.010348 -0.040435 
-0.12116 -0.04323 -0.022679 0.061666 -0.030899 0.036017 0.00297 -0.037476 
-0.22803 -0.11491 -0.11179 -0.016595 -0.080223 0.013986 -0.0054151 -0.038133 
-0.2859 -0.19137 -0.19449 -0.10275 -0.13777 0.0067515 0.0028056 -0.028597 
-0.11722 0.055254 -0.18068 -0.12133 -0.157 0.0031344 -0.01528 -0.019884 
0.11313 0.48076 -0.084169 -0.076771 -0.13086 -0.022514 -0.030406 0.01267 
0.24499 0.63514 0.0016547 -0.003771 -0.082854 0.0060938 -0.0044286 0.066269 
0.31108 0.5263 0.0227 0.038812 -0.050464 0.040456 0.0064227 0.10556 
0.23364 0.23068 -0.012978 0.020891 -0.058685 0.036675 0.011355 0.1077 
0.045718 0.012013 -0.15092 -0.070359 -0.11705 0.01152 -0.00031829 0.069229 
-0.05589 -0.09091 -0.22704 -0.15289 -0.17624 -0.0047575 -0.017582 0.031085 
-0.079401 0.011355 -0.10998 -0.099624 -0.15174 -0.025802 -0.036818 0.01711 
-0.084663 0.26422 0.057391 0.043909 -0.064604 -0.018075 -0.041093 -0.004593 
-0.085485 0.21326 0.10178 0.11395 -0.019555 -0.0049219 -0.034188 -0.010512 
-0.082196 -0.121 0.06035 0.10408 -0.019226 0.007738 -0.015773 -0.0027845 
-0.14122 -0.30991 -0.045861 0.038155 -0.05737 0.048513 0.0041209 -0.033859 
-0.11311 -0.34033 -0.16999 -0.063782 -0.11064 0.051143 0.01563 -0.015609 
0.12349 -0.27209 -0.22162 -0.13432 -0.14961 0.031907 0.016781 0.039799 
0.23331 -0.25812 -0.25138 -0.18035 -0.17016 0.058871 0.030098 0.072188 
0.17084 -0.39623 -0.20978 -0.18035 -0.17361 0.025001 0.01152 0.083533 
0.1465 -0.35841 -0.16506 -0.14385 -0.15881 0.014643 0.01152 0.069064 
0.11691 -0.067728 -0.023665 -0.052766 -0.10735 0.022206 -0.0024557 0.020891 
0.079587 0.092411 0.075641 0.048348 -0.047834 0.021549 0.0014903 0.026481 
-0.030899 0.21819 0.084848 0.11954 -0.0075525 0.012013 0.007738 0.047033 
-0.079072 0.40315 0.1003 0.14174 0.004943 0.0092177 -0.011827 0.01415 
-0.026296 0.30352 0.029934 0.096521 -0.029748 -0.0082102 -0.021692 0.015465 
0.041278 0.083862 -0.12807 -0.017746 -0.095185 0.0080668 -0.0026201 0.059528 
0.16722 -0.041257 -0.22145 -0.11607 -0.1473 0.012342 -0.010348 0.060022 
0.21408 0.058377 -0.2282 -0.15931 -0.1746 -0.0090322 -0.025638 0.054432 
0.17347 0.19944 -0.12889 -0.11179 -0.14763 -0.0040998 -0.021856 0.028947 
0.064954 0.28297 0.0024767 -0.022514 -0.092061 0.01826 -0.0022913 0.035524 
-0.098638 0.26603 0.09422 0.0592 -0.042737 0.027303 0.0046141 0.03092 
-0.17476 0.2685 0.1174 0.10655 -0.015773 0.029276 0.0083956 0.01152 
-0.15076 0.065118 0.17199 0.18103 0.032729 0.04654 0.022042 0.014808 
-0.10012 -0.22852 0.14256 0.20701 0.05065 0.033058 0.01267 0.033222 
-0.065755 -0.5294 -0.049807 0.076134 -0.034516 0.043745 0.01152 0.010862 
-0.030242 -0.44522 -0.13711 -0.029584 -0.10357 0.0031344 -0.011827 0.011848 
0.077449 0.12792 -0.050958 -0.0096899 -0.094363 -0.0088678 -0.031064 0.030756 
0.17215 0.50443 0.055089 0.056898 -0.051615 0.018754 -0.018404 0.029769 
0.16163 0.41236 0.070708 0.094548 -0.023336 0.01974 -0.0064016 0.031742 
0.13236 0.1248 0.018096 0.073175 -0.031392 0.029934 0.019576 0.038319 
0.14798 -0.066906 0.012506 0.048677 -0.041422 0.035853 0.01415 0.051636 
0.21737 -0.043888 0.050321 0.066105 -0.029748 0.03092 0.011355 0.065283 
0.28297 0.15867 0.16393 0.14519 0.019576 0.045224 0.041607 0.083204 
0.2486 0.2588 0.22328 0.22805 0.069064 0.051636 0.027961 0.090603 
0.089452 0.23414 0.22 0.27951 0.095864 0.035853 0.021384 0.077778 
-0.1159 0.09981 0.19501 0.2565 0.084848 0.050321 0.031578 0.020562 
-0.14434 0.054267 0.2029 0.25518 0.092576 0.055747 0.03388 0.011191 
-0.0083746 0.08863 0.27984 0.30039 0.12825 0.067256 0.046046 0.092904 
0.11559 0.099152 0.329 0.34495 0.15703 0.082711 0.066105 0.11148 
0.071037 -0.10653 0.29365 0.32999 0.13088 0.050486 0.03947 0.077943 
-0.0004827 -0.33063 0.22279 0.28461 0.086492 0.0072447 0.0024767 0.031249 
-0.027447 -0.36532 0.14585 0.21934 0.04654 0.025001 0.00050378 0.012835 
0.033387 -0.2887 0.043416 0.12513 -0.0036066 0.030098 0.0052718 0.018096 
0.080409 -0.27686 -0.10094 0.00083261 -0.084663 0.0026412 -0.011005 -0.010183 
0.15604 -0.16457 -0.12708 -0.044217 -0.1136 0.00083261 -0.023665 -0.014293 
0.19599 0.30319 -0.0021268 0.043251 -0.054904 0.0067515 -0.021199 0.016288 
0.24564 0.7407 0.30204 0.23759 0.066269 0.019411 0.0026412 0.030592 
0.22772 0.91958 0.5235 0.44228 0.19764 0.049335 0.0092177 0.020233 
0.20849 1.0449 0.58467 0.55803 0.27392 0.056404 0.027303 0.072188 
0.20799 0.96085 0.56724 0.58615 0.28872 0.080902 0.065283 0.079258 
0.085999 0.6284 0.40644 0.49424 0.22213 0.045389 0.033715 0.059693 
-0.086471 0.2634 0.25173 0.3683 0.13598 0.004943 -0.0026201 0.029769 
-0.045532 0.061501 0.19336 0.27935 0.081889 0.011355 0.00297 0.0067515 
0.10425 0.036346 0.22361 0.26587 0.082053 0.018918 -0.0026201 0.007738 
0.19106 0.015301 0.22164 0.26274 0.093233 0.03947 0.014972 0.077121 
0.15933 -0.12264 0.13762 0.21638 0.074819 0.075148 0.045224 0.087972 
-0.047176 -0.46429 0.0024767 0.13582 0.018425 0.049664 0.032236 0.05476 
-0.21948 -0.74824 -0.10373 0.012506 -0.061645 0.029934 0.019083 0.031249 
-0.17821 -0.7484 -0.098638 -0.026789 -0.080552 0.04358 0.015301 -0.0019624 
-0.023172 -0.65337 -0.083347 -0.036325 -0.078579 0.030756 0.012177 0.053281 
-0.069536 -0.63824 -0.15158 -0.081374 -0.11524 0.025001 0.0047785 0.0067515 
-0.32882 -0.35167 -0.11015 -0.07266 -0.12001 0.01711 -0.011827 -0.10916 
-0.34263 0.084684 0.0039565 -0.0022913 -0.088115 -0.0087034 -0.025802 -0.080223 
-0.073647 0.46136 0.12299 0.10524 -0.017911 0.012342 -0.0088678 0.028783 
0.1904 0.69696 0.20388 0.18383 0.032236 0.041772 0.0064227 0.091589 
0.25288 0.60604 0.1641 0.18695 0.034537 0.028454 0.0032988 0.088301 
0.17149 0.46859 0.082217 0.15587 0.0093821 0.00050378 -0.0022913 0.025659 
-0.026789 0.28658 -0.008539 0.10556 -0.021363 0.0041209 -0.018239 -0.0096899 
-0.062631 0.031742 -0.090581 0.0098754 -0.080717 -0.0060728 -0.026296 -0.014293 
0.081231 -0.0083746 -0.076606 -0.015938 -0.091404 0.007738 0.00297 -0.013636 
0.13467 -0.059672 -0.028104 0.0082312 -0.073647 0.010533 -0.008539 -0.0095255 
0.051143 -0.2642 -0.06 -0.010019 -0.085649 -0.0019624 -0.017253 -0.00031829 
-0.0077169 -0.38817 -0.13185 -0.062138 -0.11508 0.024837 -0.009361 0.0014903 
0.038319 -0.40395 -0.2032 -0.12757 -0.15421 0.023851 -0.00081153 0.068242 
0.1539 -0.18265 -0.2402 -0.17706 -0.18907 0.00083261 -0.0098543 0.092576 
0.13532 0.11115 -0.3326 -0.26042 -0.23872 -0.017582 -0.032379 -0.033694 
-0.058192 0.045882 -0.37781 -0.30744 -0.26404 -0.028104 -0.04471 -0.11261 
-0.41431 -0.13744 -0.34904 -0.28459 -0.24743 -0.046025 -0.058356 -0.16062 
-0.58826 -0.092226 -0.27012 -0.2157 -0.21406 -0.035503 -0.059343 -0.1552 
-0.46544 0.034373 -0.17114 -0.16013 -0.18331 -0.019884 -0.044546 -0.062631 
-0.28574 0.26291 -0.054904 -0.064768 -0.11771 0.01415 -0.014458 0.046704 
-0.028269 0.50542 0.13039 0.084684 -0.023829 0.04095 0.0072447 0.073997 
0.1197 0.42782 0.23742 0.20339 0.045882 0.052294 0.027632 0.095206 
0.1539 0.1539 0.25798 0.26077 0.085999 0.057555 0.041443 0.10178 
0.15226 -0.055561 0.17478 0.23035 0.071695 0.0689 0.044567 0.10014 
0.14765 -0.27949 -0.10669 0.033222 -0.054904 0.0062583 0.00083261 0.061337 
0.19681 -0.52019 -0.39886 -0.2208 -0.21274 -0.022021 -0.01117 0.039305 
0.050157 -0.81959 -0.54683 -0.4056 -0.32158 -0.026296 -0.036489 -0.019719 
-0.14106 -0.93452 -0.59747 -0.47843 -0.36367 -0.046025 -0.059507 -0.060658 
-0.20748 -0.56985 -0.51658 -0.44983 -0.34493 -0.040435 -0.051287 -0.13514 
-0.16046 -0.047176 -0.3571 -0.36104 -0.28969 -0.033201 -0.059014 -0.15651 
0.0060938 0.43554 -0.089431 -0.15848 -0.16555 0.0024767 -0.025309 -0.043066 
0.16558 0.62067 0.19501 0.092082 0.00083261 0.064132 0.026152 0.096193 
0.2246 0.4898 0.25781 0.21589 0.078272 0.074983 0.044567 0.14683 
0.22789 0.39049 0.17511 0.20865 0.06594 0.056404 0.040621 0.14535 
0.2583 0.3364 0.11576 0.17281 0.037004 0.072024 0.042923 0.13187 
0.18991 0.25485 0.078272 0.12957 -0.0031133 0.044731 0.024015 0.08419 
0.11543 0.19714 0.070051 0.10441 -0.020048 0.023028 0.012342 0.058213 
0.064461 0.034866 0.049664 0.087972 -0.034516 0.03536 0.0088889 0.032729 
-0.047012 -0.17279 0.0037921 0.069886 -0.047341 -0.02942 -0.035338 -0.009361 
-0.20863 -0.27949 -0.042408 0.054432 -0.053588 -0.022021 -0.043888 -0.073482 
-0.19449 -0.36581 -0.047998 0.025001 -0.069043 -0.0036066 -0.037805 -0.057534 
-0.098473 -0.33802 -0.03057 0.017603 -0.07266 0.010697 -0.019884 0.0083956 
-0.21406 -0.1912 0.031742 0.05065 -0.045532 0.044238 0.016616 0.03388 
-0.27357 -0.10883 0.038155 0.0689 -0.031064 0.04095 0.018589 0.049335 
-0.064933 -0.060329 -0.043888 0.019083 -0.062796 0.020891 0.0092177 0.076299 
0.18004 0.24778 0.013821 0.041772 -0.048327 0.032236 0.023357 0.073832 
0.30648 0.56576 0.14239 0.12957 0.0095465 0.047691 0.024837 0.10145 
0.37504 0.65553 0.22394 0.20684 0.057555 0.044238 0.022371 0.11017 
0.34594 0.44113 0.1978 0.21901 0.060186 0.044567 0.034044 0.038648 
0.25469 0.20092 0.16064 0.21934 0.056733 0.019576 0.0075736 0.007738 
0.16048 0.035195 0.19665 0.26422 0.090274 0.027796 0.0095465 0.047691 
0.14141 -0.034681 0.27655 0.30039 0.11954 0.058542 0.034209 0.06331 
0.19287 0.082217 0.25978 0.30105 0.12184 0.064296 0.037332 0.1197 
0.26422 0.23808 0.29119 0.32062 0.12973 0.042429 0.026974 0.12283 
0.24252 0.19846 0.22246 0.28264 0.098988 0.068736 0.040292 0.094384 
0.18761 0.17429 0.12792 0.21852 0.054596 0.047197 0.029769 0.083368 
0.10639 0.16738 0.1368 0.1932 0.037004 0.024673 0.01152 0.070215 
0.073668 0.22049 0.15555 0.18761 0.03536 0.04095 0.018096 0.081067 
0.060022 0.23578 0.12168 0.16475 0.021056 0.035031 0.013492 0.08863 
0.038648 0.14535 0.06479 0.1271 -0.0004827 0.020562 0.0062583 0.051472 
0.01152 -0.010019 0.007738 0.089287 -0.018239 0.037497 0.0067515 0.045389 
0.043745 -0.19186 0.016945 0.10047 -0.0080457 0.028947 0.0039565 0.021878 
-0.065755 -0.25138 0.11395 0.13976 0.016781 0.012835 0.0095465 -0.013636 
-0.13399 -0.24003 0.14634 0.17034 0.036839 0.038977 0.005765 -0.00097594 
-0.053095 0.0095465 0.21917 0.23085 0.073668 0.035524 0.011026 0.045389 
0.057555 0.38392 0.28806 0.29974 0.12184 0.048677 0.04917 0.086163 
0.055747 0.53403 0.26192 0.29826 0.11954 0.053609 0.031578 0.042758 
0.036017 0.37257 0.2149 0.27064 0.096521 0.048677 0.025166 0.0085601 
-0.004593 0.11642 0.077778 0.1641 0.014972 0.039963 0.031414 0.021056 
-0.035174 -0.025309 -0.032543 0.057884 -0.054575 0.025001 0.010204 0.033058 
-0.075784 -0.022843 -0.048163 0.012835 -0.088608 -0.022021 -0.023501 -0.028762 
-0.010019 0.22328 -0.014622 0.034373 -0.080059 -0.025802 -0.043395 -0.025802 
0.22033 0.52038 0.054432 0.10425 -0.035174 -0.0406 -0.051287 0.029441 
0.36106 0.67115 0.17297 0.17692 0.023357 0.025001 -0.0098543 0.088794 
0.25584 0.70962 0.31651 0.29596 0.11181 0.065612 0.022042 0.11872 
0.1835 0.62528 0.38392 0.37389 0.15883 0.072024 0.038648 0.12727 
0.11461 0.46284 0.30451 0.34396 0.13187 0.087643 0.056898 0.076299 
0.13532 0.25765 0.17939 0.26718 0.07301 0.021384 0.013821 0.087808 
0.077778 -0.053588 0.054267 0.15407 0.0037921 -0.010676 -0.020048 0.040785 
-0.13004 -0.39656 -0.096007 0.015959 -0.073976 -0.003771 -0.01676 -0.023994 
-0.2397 -0.7627 -0.17312 -0.081045 -0.11919 0.040292 -0.0077169 -0.11442 
-0.14402 -0.9041 -0.18117 -0.12577 -0.13678 0.018918 -0.0029489 -0.09091 
-0.071509 -0.88158 -0.1963 -0.12741 -0.13892 0.014808 0.012999 -0.049971 
-0.080223 -1.0419 -0.27308 -0.1667 -0.16802 0.023851 0.0014903 0.01004 
-0.095514 -1.3401 -0.31698 -0.23198 -0.20156 0.02533 0.004943 -0.0059084 
-0.12363 -0.96608 -0.27999 -0.23263 -0.19794 0.018754 0.01152 -0.011498 
-0.14451 0.05624 -0.10373 -0.1205 -0.13218 0.015794 -0.013307 -0.028433 
-0.17345 0.86417 0.055089 0.013492 -0.06148 0.026152 -0.0021268 -0.038298 
-0.0965 1.1129 0.1225 0.10573 -0.010019 0.032236 0.0095465 -0.013307 
-0.028433 1.08 0.18136 0.17018 0.017438 0.0065871 -0.0029489 0.014479 
0.037332 1.0674 0.25173 0.23989 0.052294 0.0014903 -0.012156 0.037826 
0.069558 0.77341 0.23249 0.2468 0.05213 0.010862 -0.012156 0.062323 
-0.027611 0.13187 0.079258 0.1659 0.00297 -0.008539 -0.026131 0.034537 
-0.07003 -0.21307 0.018754 0.12266 -0.022185 -0.017911 -0.036489 0.0013258 
0.055582 -0.37584 0.037168 0.11231 -0.024652 0.015959 -0.018568 0.032071 
0.12102 -0.50984 -0.045368 0.043909 -0.069208 0.01004 -0.021528 0.03536 
0.14174 -0.4051 -0.15059 -0.049478 -0.12938 -0.025145 -0.037805 0.0039565 
0.11461 -0.15125 -0.11705 -0.061809 -0.12938 -0.010841 -0.043724 -0.003771 
0.060186 -0.1039 -0.0022913 0.0032988 -0.08269 0.0013258 -0.02942 0.0059294 
0.10622 -0.17098 0.033387 0.047855 -0.045861 0.039634 0.017274 0.032564 
0.1419 -0.30777 -0.084498 -0.018568 -0.081539 0.066105 0.029769 0.048348 
0.033222 -0.36071 -0.15881 -0.089759 -0.12034 0.044402 0.0227 0.024508 
-0.1917 -0.49487 -0.21471 -0.15191 -0.14813 0.04095 0.032893 -0.0024557 
-0.17821 -0.47449 -0.22376 -0.16539 -0.15618 0.044896 0.017767 0.031249 
-0.013636 -0.29002 -0.20781 -0.13201 -0.14566 0.028454 0.011848 0.0064227 
0.18119 -0.01939 -0.13843 -0.10423 -0.13251 0.015794 0.020891 0.059857 
0.15472 0.18613 -0.093048 -0.072167 -0.12001 0.016123 0.0011614 0.083204 
-0.13777 0.26291 -0.1353 -0.084334 -0.13514 -0.011992 -0.026789 0.012013 
-0.28689 0.29398 -0.15487 -0.10341 -0.15273 -0.0022913 -0.021692 -0.014787 
-0.13053 0.25255 -0.15437 -0.11393 -0.15881 0.0070803 -0.021363 0.0087245 
0.052952 0.45346 -0.10225 -0.080388 -0.13958 -0.0011404 -0.021034 0.011026 
-0.0024557 0.78229 0.020562 0.0014903 -0.088773 -0.0011404 -0.01939 0.0021479 
-0.26059 0.74793 0.11099 0.086328 -0.03912 -0.020541 -0.03912 -0.066741 
-0.28393 0.50427 0.16936 0.15555 0.0056006 -0.010512 -0.032215 -0.061645 
0.05065 0.31864 0.18563 0.21441 0.05065 0.034537 -0.0031133 0.016781 
0.35613 0.082711 0.17018 0.24318 0.075312 0.041772 0.011026 0.11247 
0.32571 -0.2938 0.078107 0.16903 0.030756 0.057555 0.03388 0.11198 
0.15949 -0.6172 -0.072989 0.044073 -0.045696 0.041114 0.017603 0.093233 
0.17117 -0.93978 -0.10242 -0.025802 -0.085813 0.03799 0.014479 0.0592 
0.094055 -1.3086 -0.10489 -0.047505 -0.089595 0.038977 0.030098 -0.030899 
-0.10719 -0.93928 0.038648 0.034866 -0.019555 0.093562 0.0689 -0.016102 
-0.17312 0.034537 0.16081 0.14058 0.049992 0.08978 0.069886 0.067913 
-0.20929 0.69121 0.2029 0.21145 0.067913 0.0592 0.061337 0.16771 
-0.13497 0.70979 0.15045 0.18267 0.023357 0.0070803 0.005765 0.09685 
0.047526 0.30352 0.01826 0.089945 -0.044217 0.0011614 -0.014458 0.034537 
0.18267 0.16607 -0.071181 0.026481 -0.079237 0.010697 -0.010183 0.017274 
0.26998 0.55096 0.016616 0.077285 -0.035832 0.010533 -0.0052507 0.05213 
0.22197 0.78394 0.093069 0.11757 -0.0034422 0.013492 -0.0059084 0.049499 
0.16755 0.73807 0.14305 0.15851 0.020727 0.02829 -0.0047575 0.018918 
0.18843 0.64846 0.28905 0.26685 0.085012 -0.0091966 -0.025145 -0.038627 
0.19501 0.53468 0.4265 0.39559 0.16985 0.013821 -0.01232 -0.016924 
0.18678 0.28626 0.36073 0.39066 0.16344 0.028125 -0.0064016 -0.0014692 
0.1054 -0.045696 0.14963 0.26159 0.081395 0.029276 -0.0062372 0.0227 
0.066763 -0.16851 0.0592 0.15489 0.018754 0.030427 0.0047785 0.079094 
0.026974 -0.12133 0.039963 0.093233 -0.0096899 0.070215 0.026152 0.094384 
-0.11031 -0.18939 -0.027611 0.037332 -0.040271 0.044567 0.020562 0.068571 
-0.13349 -0.35578 -0.086964 -0.008539 -0.059178 0.047362 0.034044 0.080902 
-0.13612 -0.60191 -0.19022 -0.06444 -0.085649 0.051965 0.026646 0.071366 
-0.0021268 -0.74758 -0.19301 -0.11491 -0.11574 0.046046 0.023522 0.069722 
0.13762 -0.62887 -0.12166 -0.089431 -0.10604 0.061008 0.051308 0.065776 
0.23775 -0.18249 0.044238 0.025988 -0.040928 0.051143 0.032071 0.042429 
0.26472 0.27951 0.24121 0.18711 0.052623 0.057391 0.027303 0.040785 
0.075148 0.60719 0.3341 0.30105 0.11905 0.045224 0.035853 -0.0032777 
-0.18545 0.80531 0.26981 0.29596 0.10836 0.035195 0.02122 -0.068714 
-0.19942 0.71538 0.1271 0.20767 0.041443 0.011848 0.0031344 -0.070852 
-0.028269 0.37816 0.082053 0.14272 -0.0052507 0.016452 0.0072447 -0.010512 
-0.021856 -0.18167 0.069393 0.11132 -0.023007 -0.00081153 -0.014787 -0.0082102 
-0.30695 -0.67622 0.048513 0.10244 -0.025309 -0.0073881 -0.025309 -0.032543 
-0.40691 -0.44604 0.20832 0.22805 0.055747 0.015465 -0.010183 -0.043559 
0.010862 0.046704 0.37915 0.35613 0.14223 0.028783 0.00083261 0.034537 
0.48947 0.47566 0.42075 0.42321 0.17939 0.026646 0.0046141 0.099481 
0.63284 0.5503 0.31503 0.38014 0.14108 0.033715 -0.0044286 0.094055 
0.48635 0.4801 0.22444 0.30779 0.094384 0.0024767 -0.020212 0.0689 
0.25978 0.30418 0.15028 0.23414 0.06035 0.032564 -0.0026201 0.063145 
-0.016102 0.056898 -0.062796 0.070873 -0.035832 0.034537 0.0013258 0.03799 
-0.08269 -0.109 -0.30547 -0.13119 -0.15552 0.020891 -0.001798 0.016288 
-0.069701 -0.067399 -0.44818 -0.30958 -0.26683 -0.025309 -0.021199 -0.0014692 
0.14798 0.073339 -0.38077 -0.3275 -0.2767 -0.009361 -0.033037 0.0092177 
0.244 0.12644 -0.24546 -0.24234 -0.22409 -0.0073881 -0.027447 0.038483 
0.13351 0.012835 -0.21652 -0.17427 -0.17723 0.020233 -0.00015387 0.054103 
0.11247 -0.19071 -0.16753 -0.13958 -0.15158 0.033551 0.0082312 0.096028 
0.14223 -0.36055 -0.075291 -0.071838 -0.10406 0.042429 0.020891 0.089123 
0.13302 -0.38932 0.014972 0.014479 -0.050464 0.068571 0.037004 0.08863 
0.058706 -0.21603 0.13845 0.1151 0.0074092 0.055582 0.034537 0.065118 
-0.17082 0.045718 0.20076 0.19172 0.051636 0.047526 0.029605 0.051308 
-0.39047 0.15916 0.2879 0.27392 0.090603 0.031414 0.010204 -0.0039354 
-0.34624 0.11806 0.23562 0.26291 0.069393 0.0011614 -0.014787 -0.03912 
-0.38225 0.060186 0.098988 0.17528 0.014479 0.0016547 -0.015609 -0.070523 
-0.39705 0.16114 -0.060329 0.044896 -0.062467 0.032071 -0.0026201 -0.051944 
-0.29692 0.29859 -0.20649 -0.078579 -0.13875 0.0036276 -0.017253 -0.020048 
-0.06296 0.11115 -0.33934 -0.18907 -0.20699 -0.027447 -0.033365 0.0067515 
0.25156 -0.065097 -0.31451 -0.23461 -0.23214 -0.018075 -0.039449 0.013328 
0.30664 0.0095465 -0.12692 -0.13366 -0.16523 -0.01117 -0.035503 -0.0027845 
0.17396 0.074654 -0.023501 -0.035832 -0.10932 -0.01117 -0.026296 -0.031557 
0.25222 0.22641 0.080409 0.060515 -0.052766 0.0092177 -0.023336 0.03536 
0.38688 0.43456 0.20964 0.18021 0.025001 -0.0021268 -0.020706 0.11937 
0.29727 0.31273 0.25798 0.25354 0.076627 0.025659 0.012506 0.17412 
0.095042 0.051636 0.1225 0.18678 0.029605 0.027468 0.00099702 0.1174 
-0.12593 -0.32323 -0.034516 0.060844 -0.048163 0.0088889 -0.011992 0.0072447 
-0.23888 -0.48419 -0.058192 0.0067515 -0.073482 0.0046141 -0.0021268 -0.041093 
-0.090088 -0.21159 -0.0055795 0.035688 -0.044874 0.041443 0.0065871 -0.006566 
0.030592 -0.055561 -0.022843 0.05476 -0.033859 0.037826 0.014972 0.072024 
0.12743 0.094713 0.016945 0.059035 -0.031557 0.0592 0.039963 0.098166 
0.075148 0.21885 0.045224 0.077449 -0.025474 0.04506 0.029769 0.079258 
-0.133 0.17922 0.046868 0.084026 -0.026953 0.0227 0.0090533 -0.0055795 
-0.16703 0.030263 -0.01939 0.045389 -0.057699 -0.0077169 -0.023007 -0.052766 
-0.0072237 0.049335 0.063803 0.085177 -0.021034 0.02122 -0.0075525 0.0036276 
-0.090746 0.21243 0.099974 0.12217 0.011848 0.035853 0.0092177 0.040621 
-0.038133 0.38457 0.13598 0.14667 0.021384 0.058706 0.023193 0.044731 
0.11247 0.28165 0.1026 0.13565 0.0039565 0.038155 0.016452 0.063639 
0.2269 0.2098 0.045882 0.094055 -0.032543 0.0080668 -0.0024557 0.071695 
0.37208 0.22131 0.010533 0.088465 -0.035996 0.016616 -0.0082102 0.098659 
0.14765 -0.017582 0.037168 0.11494 -0.010348 0.025988 -0.0044286 0.089287 
-0.034516 -0.18298 -0.0019624 0.068571 -0.03057 0.049499 0.037332 0.099481 
0.16459 -0.10324 -0.0029489 0.05624 -0.031886 0.072353 0.044238 0.1003 
0.29234 0.08715 0.080409 0.10343 -0.0026201 0.077121 0.051801 0.084519 
0.032729 -0.096007 0.074161 0.10885 -0.01117 0.035524 0.043416 0.034866 
-0.39771 -0.99354 -0.16769 -0.054082 -0.12133 -0.0054151 -0.014458 -0.085485 
-0.43766 -1.2964 -0.38899 -0.23938 -0.24973 -0.050958 -0.052766 -0.077593 
-0.12577 -0.52151 -0.32635 -0.26453 -0.26782 -0.056877 -0.050464 -0.010841 
-0.068879 0.31996 -0.13399 -0.16259 -0.19564 -0.026624 -0.048163 0.058542 
-0.12462 0.71636 -0.014787 -0.03764 -0.10932 0.014479 -0.017911 0.05772 
-0.27604 0.58187 -0.013143 0.016781 -0.07003 0.0079024 -0.018568 -0.088115 
-0.17345 0.37142 0.0031344 0.053116 -0.04882 0.01004 -0.017911 -0.12166 
0.1636 0.41137 0.24351 0.20158 0.043745 0.014643 -0.0031133 -0.0091966 
0.4339 0.67329 0.46497 0.39345 0.16788 0.055911 0.024508 0.097672 
0.48405 0.91136 0.55639 0.5212 0.24417 0.027468 0.01267 0.14946 
0.43373 0.78838 0.49227 0.52268 0.24351 0.04506 0.020398 0.15752 
0.30533 0.27771 0.34873 0.4362 0.19205 0.055582 0.026317 0.1544 
0.13072 -0.26963 0.23742 0.33048 0.12825 0.052294 0.025495 0.14585 
-0.0095255 -0.52217 0.037332 0.16393 0.022535 0.057884 0.040621 0.098823 
0.083533 -0.55127 -0.17377 -0.031392 -0.096665 0.030427 0.012177 0.059035 
0.29102 -0.39902 -0.3543 -0.20534 -0.19482 0.014808 -0.0059084 0.022864 
0.16804 -0.22589 -0.51049 -0.33983 -0.26749 0.0095465 0.00099702 -0.045039 
-0.060329 -0.032379 -0.53647 -0.41283 -0.30563 0.01152 -0.010019 -0.0083746 
-0.25171 0.013328 -0.41826 -0.38538 -0.29643 -0.015938 -0.027611 -0.0044286 
-0.19597 0.023522 -0.11245 -0.18134 -0.17756 0.0072447 -0.012978 -0.062467 
-0.23165 -0.2476 0.1294 0.038977 -0.039778 0.023193 -0.0060728 -0.046519 
-0.51132 -0.59303 0.17232 0.14354 0.022371 0.0227 -0.00081153 -0.044874 
-0.43914 -0.3492 0.21687 0.2121 0.064296 0.053445 0.02829 -0.010512 
-0.029091 -0.022843 0.28461 0.27458 0.10162 0.066434 0.044567 0.061666 
0.30089 -0.11985 0.2343 0.25995 0.079751 0.025824 0.01974 0.086328 
0.3946 -0.33095 0.14091 0.20158 0.037332 0.027303 0.0026412 0.062323 
0.43406 -0.063289 0.15785 0.21326 0.055418 0.024508 0.0016547 0.075641 
0.4094 0.42255 0.29349 0.33492 0.14009 0.044238 0.017603 0.11674 
0.34939 0.76388 0.33755 0.36665 0.16146 0.065118 0.029934 0.098494 
0.15111 0.86927 0.13417 0.24104 0.072024 0.020562 0.0036276 0.051636 
-0.34904 0.66819 -0.17756 0.00050378 -0.092554 -0.049807 -0.055561 -0.11524 
-0.72933 0.41976 -0.27571 -0.14467 -0.17969 -0.044217 -0.070359 -0.16424 
-0.46923 0.5069 -0.094692 -0.080059 -0.12363 -0.015116 -0.040106 -0.077922 
-0.027282 0.35514 0.023357 0.011355 -0.063946 0.017438 -0.003771 0.0021479 
0.12858 0.048348 0.060186 0.058377 -0.031886 0.031578 0.0092177 0.04506 
0.24959 -0.074304 0.15916 0.1391 0.03388 0.06183 0.031742 0.10096 
0.34692 -0.07973 0.13845 0.1544 0.048184 0.061172 0.056898 0.11477 
0.34199 -0.17098 0.020233 0.098988 0.012999 0.078765 0.053774 0.10573 
0.21901 -0.61457 -0.12938 0.012177 -0.044217 0.051801 0.035853 0.051801 
0.055747 -1.2484 -0.26338 -0.13382 -0.13777 0.0070803 0.018918 -0.014951 
-0.047012 -1.2323 -0.28936 -0.20074 -0.17821 -0.014951 -0.0406 -0.041751 
-0.053424 -0.32684 -0.074469 -0.087951 -0.11919 -0.01939 -0.040928 0.0019835 
-0.030242 0.36189 0.079258 0.045718 -0.038791 1.0539e-005 -0.015444 0.0036276 
-0.047505 0.58467 0.16114 0.14108 0.020398 0.039141 0.0051074 0.020891 
-0.0029489 0.44574 0.26636 0.24186 0.088794 0.053609 0.022864 0.041607 
-0.071674 0.15555 0.42453 0.37471 0.18087 0.065776 0.037826 -0.036818 
-0.16095 -0.019061 0.52696 0.49062 0.26521 0.066434 0.040621 -0.063618 
-0.14171 0.050321 0.50328 0.50887 0.26439 0.050486 0.033222 -0.036654 
0.00066819 0.082875 0.33114 0.41844 0.18448 0.038319 0.013492 0.009711 
0.28083 0.33213 0.1031 0.26916 0.077943 -0.0022913 -0.011498 0.093069 
0.29694 0.54932 -0.051451 0.10359 -0.015444 -0.00015387 -0.017417 0.10852 
0.087643 0.52877 -0.20025 -0.055561 -0.10456 0.015959 -0.019226 0.051636 
-0.11163 0.29711 -0.22096 -0.12659 -0.14714 -0.0068948 -0.03057 0.013986 
-0.15585 0.092082 -0.1205 -0.093048 -0.1284 -0.0080457 0.009711 0.00297 
-0.12149 0.12727 0.0090533 0.00083261 -0.066577 0.013492 -0.0040998 0.0080668 
-0.18709 0.0016547 0.082711 0.081889 -0.014293 -0.001798 -0.020212 0.0047785 
-0.074633 -0.16177 0.089945 0.10918 0.0085601 0.033387 0.014808 0.0088889 
0.15144 -0.046354 0.087808 0.11937 0.011191 0.032071 0.017274 0.064954 
0.22197 0.0046141 0.061995 0.099152 -0.0083746 0.0064227 -0.004593 0.038155 
0.23348 0.0018191 0.043087 0.09126 -0.017417 0.017932 0.0074092 0.038648 
0.20947 -0.11557 0.0069159 0.091589 -0.017417 0.028783 0.0075736 0.085999 
0.17741 -0.23329 -0.030077 0.044073 -0.040764 0.021549 0.0037921 0.12118 
0.17051 -0.18232 -0.050958 0.013328 -0.058192 0.033551 0.0088889 0.099645 
0.092411 -0.10094 0.041278 0.060679 -0.036818 0.012999 -0.00015387 0.074819 
-0.049314 -0.0052507 0.15028 0.14256 0.0059294 -0.0027845 -0.01676 0.0054362 
-0.078579 0.1105 0.1761 0.18728 0.025988 0.0060938 -0.02087 -0.023007 
0.011684 0.22641 0.11757 0.16903 0.017767 0.012177 -0.013143 -0.003771 
0.10852 0.28214 0.079422 0.12349 -0.0013048 0.020398 -0.004593 0.025824 
0.10014 0.16985 -0.025474 0.048841 -0.047176 0.034537 0.0028056 0.014479 
-0.010183 0.11691 -0.087129 -0.026131 -0.10061 -0.0019624 -0.022514 0.015301 
-0.051944 0.12283 -0.09798 -0.037969 -0.1136 -0.0059084 -0.019719 0.011191 
0.0028056 0.060515 -0.04323 0.014972 -0.077922 0.020727 -0.0068948 0.047526 
0.016452 0.048348 -0.01676 0.033387 -0.062467 0.014643 -0.0090322 0.046375 
0.077614 0.15078 -0.033694 0.015465 -0.073647 -0.00097594 0.00017495 0.029934 
0.21227 0.057884 -0.19515 -0.088444 -0.14434 0.0056006 -0.023501 0.02533 
0.26439 -0.052766 -0.28492 -0.18101 -0.19334 0.0062583 -0.016595 0.058706 
0.26948 0.18366 -0.062302 -0.073811 -0.11738 0.036839 0.024673 0.17265 
0.29941 0.26685 0.1128 0.068736 -0.023829 0.075476 0.039963 0.21753 
0.17511 -0.00064712 0.15144 0.14601 0.021384 0.064461 0.045882 0.13746 
-0.030406 -0.25417 0.11296 0.13943 0.01004 0.062323 0.046704 0.07597 
0.0028056 -0.045039 0.20586 0.17199 0.030098 0.064132 0.051801 0.087972 
-0.058356 -0.031392 0.14765 0.1881 0.033551 0.025659 0.016616 0.014808 
-0.37387 -0.69316 -0.11541 0.040128 -0.071674 -0.009361 -0.024652 -0.1718 
-0.52513 -0.89144 -0.40149 -0.20616 -0.2282 -0.062796 -0.064933 -0.26059 
-0.13711 -0.23527 -0.42977 -0.30843 -0.27259 -0.042079 -0.055561 -0.12429 
0.29513 0.58516 -0.22852 -0.22063 -0.21077 0.041114 -0.0059084 0.012013 
0.46728 0.95411 -0.01232 -0.060494 -0.11672 0.0421 0.0088889 0.05476 
0.51545 0.79249 0.11822 0.076627 -0.044874 0.020562 0.0034632 0.086492 
0.41631 0.59338 0.21539 0.1807 0.010369 0.052294 0.007738 0.14009 
0.080573 0.36649 0.25666 0.24301 0.046211 0.018918 -0.0014692 0.12858 
-0.24694 -0.18742 0.13319 0.1881 0.012177 0.035688 0.0042853 0.033715 
-0.29774 -0.47153 -0.055397 0.053609 -0.072003 0.014479 -0.011827 -0.0077169 
-0.23083 -0.14139 -0.065262 0.014479 -0.088773 0.0088889 -0.014787 -0.017911 
-0.11146 0.13121 0.14848 0.15818 0.013986 0.021056 0.0074092 0.029112 
0.02829 0.098166 0.25387 0.25025 0.085506 0.068242 0.034209 0.072517 
0.10277 0.14256 0.2001 0.24548 0.086985 0.076956 0.048019 0.077285 
0.1562 0.19928 0.10951 0.18695 0.054267 0.091753 0.078272 0.11954 
0.1567 -0.070359 0.0592 0.13253 0.014972 0.073504 0.066763 0.14042 
0.14289 -0.45311 -0.065262 0.026646 -0.065097 0.046046 0.039963 0.070544 
0.013164 -0.32553 -0.1233 -0.04471 -0.11853 0.021384 0.020562 0.019247 
-0.26683 -0.1473 -0.17098 -0.10702 -0.16506 0.005765 -0.0059084 -0.029584 
-0.24891 -0.16375 -0.20025 -0.15174 -0.20156 -0.01528 -0.02087 -0.06296 
-0.059343 -0.11623 -0.14977 -0.12626 -0.18315 0.00033937 -0.020541 -0.04882 
0.18119 0.2611 0.027961 0.0059294 -0.08828 0.0021479 -0.015609 0.033387 
0.22378 0.58878 0.20388 0.18892 0.036182 0.032564 0.0032988 0.056733 
0.040128 0.37849 0.18761 0.20947 0.041936 0.042758 0.014643 0.034537 
-0.15914 0.020398 0.070051 0.14502 -0.0029489 0.029769 0.0087245 0.0039565 
-0.16687 -0.18117 0.12497 0.16393 0.010697 0.030427 0.0059294 -0.059343 
-0.078415 -0.090417 0.30237 0.27771 0.084026 0.026974 0.0032988 -0.049149 
-0.016595 -0.040106 0.36813 0.35564 0.12513 -0.0016336 -0.013143 -0.071674 
-0.14451 -0.13004 0.22394 0.29283 0.063968 -0.03353 -0.029748 -0.10604 
-0.20699 -0.16654 0.022042 0.1391 -0.039284 -0.022185 -0.052437 -0.084334 
-0.10587 -0.17936 -0.10061 0.0082312 -0.10176 -0.010183 -0.040106 -0.033694 
-0.15684 -0.012485 -0.24497 -0.121 -0.15026 0.030756 0.020727 -0.004593 
-0.24069 0.061008 -0.44818 -0.27752 -0.21685 0.063145 0.029769 0.018096 
-0.17821 0.057391 -0.30004 -0.23346 -0.17657 0.070708 0.045718 0.039305 
-0.065919 0.12053 0.12349 0.022042 -0.029748 0.094384 0.072024 0.079094 
0.11148 0.2736 0.45823 0.32473 0.14733 0.078436 0.063474 0.096357 
0.25748 0.36912 0.55902 0.48865 0.22575 0.061172 0.050979 0.049006 
0.37685 0.53567 0.51824 0.52482 0.22526 0.01563 0.0060938 0.0062583 
0.1756 0.45198 0.26866 0.38178 0.12102 -0.041422 -0.047669 -0.01528 
-0.1381 0.075312 0.048184 0.19369 0.0034632 -0.039778 -0.057534 -0.057863 
-0.21274 -0.29577 -0.027611 0.0689 -0.059178 -0.014293 -0.040271 -0.0004827 
-0.18874 -0.51329 -0.089266 -0.011498 -0.093212 0.0052718 -0.023007 0.011026 
-0.095021 -0.47202 -0.10982 -0.060823 -0.10784 0.023851 0.0019835 0.014808 
0.060186 -0.084334 -0.14681 -0.062138 -0.099789 0.05476 0.01563 0.032071 
0.27557 0.46119 -0.039778 0.0023123 -0.058192 0.06479 0.029276 0.080738 
0.43702 0.65125 0.0075736 0.034209 -0.036489 0.064625 0.046211 0.13943 
0.32933 0.19418 -0.1455 -0.056712 -0.098802 0.041772 0.025001 0.11625 
0.017603 -0.043724 -0.27127 -0.16457 -0.17805 -0.015116 -0.023336 -0.020048 
-0.43963 0.061337 -0.22672 -0.17624 -0.19235 -0.040435 -0.035996 -0.091239 
-0.20156 0.16558 -0.039778 -0.059672 -0.10702 0.00099702 -0.029584 -0.073482 
0.14667 -0.3012 0.014315 0.0036276 -0.069372 -0.015938 -0.039449 -0.091404 
-0.077593 -0.55916 -0.051944 -0.021034 -0.10637 -0.039284 -0.034845 -0.097816 
-0.29873 -0.32569 0.091753 0.066598 -0.040764 0.0047785 -0.034516 -0.077428 
-0.0077169 -0.13711 0.22624 0.19451 0.063803 0.03536 0.00083261 -0.003771 
0.27129 -0.070359 0.15094 0.22098 0.095864 0.06742 0.041607 0.053609 
0.00033937 0.060515 0.0088889 0.1271 0.037661 0.040292 0.018096 -0.0090322 
0.0032988 0.32769 -0.02235 0.062981 -0.0098543 0.009711 -0.0011404 -0.010841 
0.022535 0.51348 0.030098 0.073175 -0.0014692 0.038812 0.017274 0.041772 
0.05476 0.60505 0.01974 0.069229 0.004943 0.03388 0.01711 0.10803 
0.085341 0.54734 -0.15076 -0.046354 -0.068221 -0.010019 -0.017911 0.064461 
-0.045368 0.35728 -0.18989 -0.10604 -0.093048 0.015137 -0.013965 0.055582 
0.17643 0.12118 -0.074304 -0.07266 -0.04882 0.04917 0.0088889 0.097672 
0.39148 -0.33063 -0.097322 -0.070359 -0.045532 0.035524 0.014643 0.096686 
0.39049 -0.42171 -0.02794 -0.025967 -0.034516 0.042758 0.0054362 0.07449 
0.40398 -0.082854 0.19846 0.13647 0.051472 0.0080668 -0.010348 0.077121 
0.33443 -0.070852 0.28116 0.2731 0.13105 0.028125 -0.00015387 0.061008 
-0.0057439 0.23381 0.1835 0.25387 0.11674 0.01711 -0.0095255 0.034044 
-0.33885 0.73132 0.18629 0.24137 0.11362 0.00033937 -0.018733 -0.006566 
-0.22918 0.75253 0.32522 0.32555 0.17889 0.018425 1.0539e-005 -0.02498 
-0.13514 -0.014458 0.17232 0.24992 0.12677 0.022206 -0.0042642 -0.06296 
-0.36236 -1.1169 -0.13415 0.029769 -0.012156 -0.016102 -0.029091 -0.088444 
-0.035832 -1.2245 -0.19827 -0.081374 -0.069043 -0.01939 -0.011334 -0.0057439 
0.41499 -0.39508 -0.10669 -0.074962 -0.058685 0.026317 -0.0040998 0.066927 
0.37405 0.46958 0.0019835 0.00017495 -0.023501 0.022864 0.0031344 0.1008 
0.015301 0.92155 0.17692 0.12266 0.03651 0.018425 0.011026 0.082382 
-0.29659 0.79397 0.24992 0.25206 0.1151 0.02533 0.0047785 0.055582 
-0.12396 0.50575 0.26603 0.30746 0.1613 0.045389 0.022206 0.093069 
0.15275 0.23973 0.12513 0.24219 0.12398 0.075476 0.048184 0.14289 
0.33426 0.069064 -0.072825 0.070051 0.0032988 0.00083261 -0.0054151 0.077614 
0.22674 -0.58777 -0.30794 -0.14714 -0.13136 -0.02646 -0.036983 0.01974 
0.14815 -1.0179 -0.42829 -0.29232 -0.2014 -0.0087034 -0.027118 0.029112 
0.072188 -0.60799 -0.26206 -0.24086 -0.17197 -0.0039354 -0.027611 0.017767 
-0.030735 0.31963 0.074326 -0.012485 -0.052602 -0.018897 -0.042901 0.026317 
-0.025638 0.88998 0.2394 0.16262 0.041278 0.014808 -0.022843 0.031907 
0.043909 0.70913 0.23759 0.22033 0.072188 0.046046 0.0051074 0.083533 
0.12529 0.33541 0.25091 0.25436 0.10408 0.037004 0.01563 0.11757 
0.16969 0.10622 0.19599 0.26044 0.10754 0.065776 0.022042 0.12053 
0.13203 -0.10472 0.063145 0.17626 0.04358 0.042594 0.018918 0.076956 
-0.031064 -0.31451 -0.071674 0.071859 -0.026789 0.026974 0.019083 0.047362 
-0.10439 -0.37748 -0.0047575 0.052459 -0.037969 0.049499 0.020891 0.022042 
-0.096829 -0.43569 0.038977 0.078765 -0.028926 0.021713 0.011026 0.0047785 
0.036675 -0.46183 -0.038298 0.028125 -0.077264 0.0039565 0.011355 0.037332 
0.16475 -0.25187 -0.10653 -0.032543 -0.11705 0.045553 0.0056006 0.082382 
0.18202 0.029769 -0.050958 -0.015773 -0.10801 0.029769 0.0083956 0.083697 
0.13039 0.27557 0.091425 0.070873 -0.063782 0.042758 0.022206 0.078765 
0.066763 0.41844 0.15703 0.1396 -0.035338 0.024179 0.004943 0.031414 
0.022371 0.51611 0.15292 0.17248 -0.022185 0.032236 0.0013258 0.027468 
0.10277 0.47977 0.16525 0.19007 -0.014622 0.029276 0.012342 0.046046 
0.19813 0.25913 0.097179 0.16245 -0.040764 0.017767 0.00066819 0.046046 
0.17939 0.095371 -0.042901 0.082546 -0.10357 -0.011498 -0.019061 0.040785 
0.15242 -0.1769 -0.040764 0.033551 -0.13234 0.025824 -0.0044286 0.069229 
0.14124 -0.51806 -0.060658 0.0036276 -0.145 0.031414 0.0044497 0.071695 
0.056569 -0.59862 -0.20074 -0.097487 -0.20452 0.041936 0.01563 0.065447 
-0.010019 -0.31221 -0.2379 -0.15881 -0.2425 0.055089 0.02681 0.054925 
-0.073647 0.096357 -0.037805 -0.056055 -0.18693 0.042923 0.024015 0.05213 
-0.26618 0.29497 0.14716 0.087643 -0.10949 -0.0039354 -0.012156 0.0016547 
-0.30383 0.22789 0.14026 0.12661 -0.095843 0.027961 -0.0021268 -0.034681 
-0.24217 0.26225 0.1003 0.12151 -0.1062 0.021056 0.0023123 -0.029748 
0.086657 0.35038 0.16804 0.17133 -0.075127 0.026646 0.012013 0.039141 
0.39756 0.31766 0.22476 0.25321 -0.017253 0.053774 0.019247 0.068736 
0.39493 0.18563 0.21704 0.27984 0.007738 0.060186 0.031414 0.096357 
0.26537 0.018754 0.11411 0.2029 -0.036489 0.073175 0.0689 0.10326 
0.17495 -0.11196 0.04095 0.13121 -0.079895 0.080244 0.055582 0.071859 
0.03092 -0.15503 -0.0057439 0.072681 -0.11985 0.051965 0.040292 0.06594 
-0.099789 -0.071345 -0.10012 -0.012978 -0.18019 0.035853 0.037826 0.037332 
-0.13004 0.19024 -0.14106 -0.075455 -0.22014 0.0085601 0.0042853 -0.01232 
0.060844 0.17971 -0.078908 -0.05885 -0.20978 0.0047785 -0.0060728 0.027303 
0.25962 0.10704 0.065118 0.031249 -0.13892 0.048677 0.021549 0.070873 
0.20816 0.046046 0.13187 0.10491 -0.079566 0.049828 0.031249 0.071695 
0.044731 0.009711 0.10935 0.12053 -0.065919 0.029441 0.01974 0.033715 
-0.0029489 0.29316 0.19303 0.21835 -0.0034422 0.081724 0.041936 0.069229 
-0.26206 0.54307 0.33525 0.32456 0.059528 0.08008 0.049006 0.043416 
-0.37436 0.48947 0.33246 0.35186 0.069064 0.055911 0.041607 0.023028 
-0.064933 0.12875 0.2736 0.32736 0.059364 0.076956 0.044238 0.013986 
0.087479 -0.41135 0.10655 0.21079 -0.015444 0.029934 0.015301 0.016452 
0.033551 -0.73097 -0.2111 -0.031228 -0.17345 -0.01232 -0.017088 0.0013258 
0.025166 -0.53384 -0.3954 -0.22984 -0.29676 -0.023501 -0.038956 -0.012649 
0.087972 -0.19679 -0.34723 -0.27653 -0.30563 -0.00064712 -0.029255 0.0041209 
0.052294 -0.14961 -0.28229 -0.25138 -0.26502 0.037004 0.013164 0.036182 
-0.047341 -0.089102 -0.16309 -0.17641 -0.20074 0.054103 0.023357 0.034373 
-0.086471 0.10145 -0.0039354 -0.038791 -0.10669 0.074654 0.046868 0.061172 
-0.12067 0.16722 0.081067 0.085177 -0.026131 0.076627 0.069393 0.079258 
-0.21488 0.22608 0.11165 0.13812 0.005765 0.058377 0.039963 0.047691 
-0.2277 0.33509 0.26965 0.24745 0.067913 0.03947 0.027796 -0.0049219 
-0.092226 0.45133 0.41302 0.37898 0.15916 0.032236 0.035031 -0.035338 
-0.063782 0.39937 0.44607 0.44722 0.21358 0.058377 0.032236 -0.017253 
-0.0047575 0.20553 0.43587 0.46645 0.23315 0.08304 0.054925 0.02533 
0.22098 0.12233 0.366 0.42699 0.20323 0.059693 0.044896 0.044567 
0.54882 0.13483 0.28839 0.36024 0.14881 0.016945 0.012342 0.090438 
0.64977 0.30697 0.095535 0.20865 0.056733 0.0060938 -0.0047575 0.10195 
0.53353 0.30138 -0.18709 -0.019555 -0.075949 0.0095465 -0.011498 0.08715 
0.078272 -0.42418 -0.45607 -0.26223 -0.20485 -0.021856 -0.039449 -0.026131 
-0.58826 -1.018 -0.57116 -0.40905 -0.25187 -0.026624 -0.043888 -0.13136 
-0.99255 -0.66981 -0.47745 -0.41086 -0.22557 0.0047785 -0.031228 -0.14566 
-0.93879 -0.06296 -0.32701 -0.32799 -0.16309 0.028619 -0.0064016 -0.096172 
-0.4176 0.23118 -0.26206 -0.25697 -0.12642 0.047855 0.020562 0.0054362 
0.06183 0.34873 -0.19827 -0.19761 -0.11196 0.035853 0.014972 0.095864 
0.18596 0.39411 0.049828 -0.017582 -0.033037 -0.0021268 -0.015773 0.14683 
0.1687 0.13467 0.3558 0.23973 0.11954 0.017767 0.0021479 0.067913 
0.15456 -0.24858 0.45034 0.38112 0.20783 0.025988 -0.0040998 0.031578 
0.17462 -0.17131 0.45873 0.44409 0.24203 0.0062583 -0.013965 0.01711 
0.18826 0.13023 0.37241 0.41203 0.21572 -0.0022913 0.0088889 0.028125 
0.17889 0.19994 0.24038 0.33903 0.18267 0.020891 0.00033937 0.040785 
0.1373 0.2029 0.12497 0.27113 0.16525 0.04917 0.019411 0.086657 
0.24762 0.1904 0.035688 0.15407 0.11017 0.06183 0.048019 0.10737 
0.48569 0.1567 -0.0064016 0.084026 0.072188 0.068736 0.028783 0.064954 
0.47813 0.21983 -0.075455 0.010533 0.0087245 0.032729 0.015137 0.087808 
0.2463 0.43489 -0.19038 -0.10143 -0.082361 -0.055561 -0.031886 -0.026131 
-0.0077169 0.32341 -0.34986 -0.23707 -0.19202 -0.10176 -0.10094 -0.12264 
-0.19811 0.2828 -0.31369 -0.25861 -0.19416 -0.10982 -0.11278 -0.089102 
-0.52809 0.35021 -0.05441 -0.10357 -0.075949 -0.0138 -0.058192 -0.047341 
-0.64219 0.0085601 0.10376 0.034209 0.027468 0.032236 -0.011005 0.01563 
-0.41448 -0.63446 -0.011005 0.014315 0.013986 0.045389 0.013164 0.010369 
-0.23724 -1.3753 -0.30152 -0.15141 -0.093376 0.009711 -0.01939 -0.039613 
-0.12445 -1.2638 -0.40543 -0.25253 -0.16753 -0.047834 -0.056383 -0.067399 
0.21753 -0.18907 -0.1205 -0.13234 -0.10752 -0.058521 -0.064111 0.00017495 
0.50114 0.68299 0.25271 0.13762 0.04654 -0.019555 -0.052602 0.035524 
0.47402 0.88834 0.4145 0.33311 0.15982 -0.030406 -0.052931 0.049499 
0.20158 0.64501 0.3558 0.36616 0.17034 -0.038627 -0.046847 0.014643 
-0.16325 0.59864 0.29678 0.34873 0.16574 -0.0050863 -0.041257 0.016452 
-0.083018 0.5582 0.18218 0.26981 0.12562 0.0082312 -0.024652 0.090767 
0.064132 0.34133 0.089616 0.18185 0.077285 0.023028 0.013986 0.095699 
0.064296 0.079094 0.053609 0.11839 0.043416 0.048677 0.022535 0.054925 
-0.025309 -0.18315 -0.026624 0.044731 -0.0040998 0.02533 0.010369 0.04917 
0.052294 -0.2887 -0.12626 -0.017253 -0.042079 0.01711 0.00297 0.06035 
0.16985 -0.29117 -0.15109 -0.039449 -0.063782 0.0054362 -0.015773 0.024673 
0.075641 -0.43963 -0.19071 -0.10653 -0.11278 -0.028433 -0.047998 0.00083261 
0.019411 -0.32454 -0.21011 -0.14139 -0.12922 0.012835 -0.018733 0.023851 
0.0087245 -0.027447 -0.20123 -0.14993 -0.13284 0.0074092 -0.01528 0.044567 
-0.02646 0.27475 -0.109 -0.096172 -0.11113 -0.015444 -0.029748 0.0090533 
0.022042 0.35547 0.07597 0.037332 -0.03501 0.022535 -0.011827 0.034209 
0.16262 0.39033 0.26948 0.20816 0.062323 -0.00031829 -0.015773 0.072024 
0.24581 0.21852 0.30023 0.26801 0.085177 0.0028056 -0.01676 0.049335 
0.28116 0.054267 0.19418 0.23479 0.059857 0.0060938 -0.021856 0.040621 
0.19961 -0.076606 0.10458 0.17265 0.027468 0.00066819 -0.02498 0.052294 
0.063639 -0.32652 -0.029091 0.081067 -0.027775 -0.01528 -0.033365 -0.028597 
-0.044052 -0.29002 -0.20699 -0.047505 -0.1016 -0.016102 -0.042244 -0.04323 
-0.17854 0.028947 -0.30448 -0.17558 -0.17739 -0.014458 -0.038956 0.0032988 
-0.14221 0.26981 -0.1598 -0.12856 -0.13941 0.0082312 -0.0078813 0.043909 
-0.045039 0.31503 0.017767 -0.0072237 -0.066084 0.033387 1.0539e-005 0.063803 
0.11806 0.22772 0.12168 0.099152 -0.014293 0.01004 -0.0072237 0.056733 
0.23973 0.021713 0.16656 0.16475 0.021384 0.012835 0.0042853 0.063803 
0.33837 -0.13267 0.17215 0.19418 0.046375 0.039799 0.0080668 0.10408 
0.33673 -0.47169 -0.0054151 0.08156 -0.027447 0.017932 -0.0042642 0.080738 
0.22575 -0.62706 -0.21619 -0.092226 -0.13859 0.0070803 -0.0049219 0.022206 
0.096357 -0.38751 -0.071674 -0.041422 -0.10571 0.065283 -0.017911 0.052459 
-0.1353 -0.11015 0.17659 0.12644 0.0072447 0.035031 0.0047785 0.038977 
-0.41448 0.25748 0.18662 0.22049 0.065776 0.052459 0.025659 -0.035174 
-0.14763 0.69976 0.25715 0.27014 0.090603 0.047362 0.024673 0.0021479 
-0.15635 0.70633 0.30664 0.3193 0.10869 0.040456 0.017603 -0.048163 
-0.22688 0.47122 0.34199 0.35876 0.12924 0.034044 0.01152 -0.038462 
0.053116 0.33689 0.51561 0.48553 0.22328 0.049664 0.022535 0.057555 
0.29382 0.14881 0.40315 0.45741 0.20109 0.061008 0.035195 0.088301 
0.3586 -0.3686 0.01415 0.20931 0.024344 0.022535 0.0031344 0.062652 
0.4025 -0.81943 -0.33852 -0.1187 -0.17904 -0.021363 -0.032872 0.056404 
0.41696 -0.58448 -0.41349 -0.27423 -0.2402 0.0080668 -0.01939 0.073997 
0.26439 -0.023501 -0.13366 -0.15717 -0.157 0.064461 0.021056 0.093891 
0.1197 0.34018 0.058377 0.0041209 -0.060165 0.06479 0.037168 0.088301 
-0.08532 0.62462 0.024344 0.066598 -0.046025 0.015794 0.018754 0.018589 
-0.18019 0.64238 0.082382 0.10737 -0.041257 -0.014622 -0.020212 -0.017746 
-0.22589 0.41335 0.22 0.20306 0.017438 -0.019719 -0.034023 -0.060987 
-0.21488 0.038483 0.30615 0.29694 0.093069 0.019247 -0.0039354 -0.057205 
-0.051451 -0.11853 0.36271 0.36616 0.15571 0.055089 0.020398 0.015137 
-0.10373 -0.2032 0.23907 0.30812 0.12562 0.061666 0.035853 0.048513 
-0.095349 -0.072496 0.16755 0.24614 0.083697 0.077285 0.04506 0.054103 
0.00017495 0.10441 0.10967 0.17791 0.030756 0.06035 0.042265 0.078436 
0.1322 0.25748 0.077121 0.12168 -0.010348 0.065447 0.047691 0.099481 
0.23775 0.1784 0.054103 0.095042 -0.041257 0.019576 0.012342 0.13286 
0.23611 -0.045861 0.051636 0.096028 -0.056548 -0.023336 -0.029255 0.10803 
0.17297 -0.017253 0.034209 0.11083 -0.047505 -0.011005 -0.031557 0.059035 
0.056898 -0.25269 -0.010676 0.071366 -0.057534 0.029276 -0.0098543 -0.059178 
-0.23806 -0.58399 -0.086142 -0.00031829 -0.080717 0.021878 -0.0091966 -0.20041 
-0.25549 -0.064111 -0.010183 0.028619 -0.040271 0.030427 0.005765 -0.18348 
-0.054904 0.44163 0.028947 0.056404 -0.02498 0.046868 0.015137 -0.047341 
0.03388 -0.19745 -0.26881 -0.12955 -0.15668 -0.011334 -0.017088 0.01711 
-0.033859 -0.98795 -0.57922 -0.3862 -0.30383 -0.037476 -0.030899 0.0031344 
0.0098754 -0.45706 -0.38357 -0.35364 -0.2864 -0.040106 -0.04619 0.015959 
0.25058 0.73922 0.039305 -0.084663 -0.14632 -0.022021 -0.040435 0.054267 
0.35432 1.245 0.27803 0.16064 0.0018191 0.010697 -0.014458 0.10376 
0.171 1.0144 0.27886 0.25715 0.06035 0.027139 -0.0083746 0.097672 
-0.26289 0.70798 0.26143 0.31864 0.097837 0.0065871 -0.017088 0.014643 
-0.85215 0.49194 0.24762 0.30105 0.086492 0.011848 -0.0013048 -0.077757 
-0.6902 0.17643 0.21589 0.2759 0.08008 0.027796 0.0026412 -0.034352 
-0.046025 -0.31517 0.10704 0.19862 0.044731 0.044567 0.021878 0.057062 
0.25683 -0.63907 -0.084334 0.046046 -0.043066 0.044896 0.026481 0.069064 
0.50673 -0.32799 -0.19186 -0.075455 -0.12412 0.031578 0.016452 0.024837 
0.73478 0.13286 -0.10571 -0.062631 -0.11623 -0.00064712 -0.0067304 0.066927 
0.5993 0.16475 0.021549 0.016781 -0.060165 0.11494 0.046868 0.21424 
0.2371 0.038483 0.023028 0.029276 -0.043395 0.083204 0.055747 0.21112 
-0.2402 -0.19663 -0.15306 -0.080388 -0.11656 0.063145 0.039963 0.12168 
-0.85083 -0.68707 -0.40034 -0.24957 -0.23921 -0.023007 -0.033859 -0.10045 
-0.82288 -0.51756 -0.3275 -0.23148 -0.23461 -0.063782 -0.076442 -0.19482 
-0.33622 -0.18578 -0.081868 -0.10324 -0.14615 -0.018239 -0.047669 -0.15125 
-0.085813 0.010697 0.043416 0.01004 -0.077264 0.012013 -0.023007 -0.040764 
0.171 0.33098 0.12973 0.10951 -0.01232 0.043251 0.0060938 0.0324 
0.37142 0.46859 0.13549 0.14881 0.021384 0.026646 0.021549 0.05476 
0.37455 0.30944 -0.052766 0.040621 -0.053424 0.041607 0.01267 0.053445 
0.29004 -0.034188 -0.27423 -0.12938 -0.1672 -0.010841 -0.028104 0.032729 
-0.00081153 -0.084827 -0.27489 -0.19909 -0.21636 -0.017088 -0.020048 0.031907 
-0.10521 0.28297 -0.077428 -0.10341 -0.16358 -0.0013048 -0.025474 0.017767 
-0.037805 0.35893 0.077778 0.032071 -0.074633 0.0080668 -0.016102 0.032729 
0.025988 0.13088 0.10803 0.11839 -0.00064712 0.045882 0.012177 0.074654 
0.10556 -0.078086 0.021056 0.11181 0.0016547 0.068571 0.029276 0.091425 
0.10491 -0.24414 0.0031344 0.070708 -0.024487 0.053445 0.030592 0.068407 
0.06331 -0.33424 0.015794 0.06331 -0.03057 0.054925 0.031578 0.048348 
0.085835 0.014315 0.09422 0.11247 0.0032988 0.055418 0.032564 0.070544 
0.095371 0.46563 0.20306 0.19533 0.057227 0.062981 0.047033 0.084026 
0.037332 0.62051 0.20849 0.22772 0.068078 0.058213 0.036675 0.051143 
0.0421 0.44755 0.17593 0.21917 0.045389 0.0092177 -0.0031133 0.0064227 
0.02829 0.16245 0.12694 0.17676 0.0090533 -0.0031133 -0.015116 0.011848 
-0.01232 -0.041257 0.03947 0.11214 -0.029584 0.017438 -0.018404 0.01004 
0.0070803 -0.31024 0.018589 0.08008 -0.038956 0.010533 -0.012649 -0.0078813 
0.019083 -0.70647 -0.051944 0.044896 -0.043888 0.040128 0.014643 0.005765 
-0.018568 -0.61638 -0.047341 0.03947 -0.034845 0.065612 0.031742 0.036346 
-0.025145 -0.37584 -0.039449 0.018589 -0.049149 0.062981 0.037826 0.03947 
0.039963 -0.19877 -0.059014 -0.0047575 -0.067892 0.045389 0.051472 0.10425 
0.15012 0.16426 0.040785 0.053938 -0.030735 0.052623 0.038483 0.13499 
0.13697 0.42255 0.12332 0.12266 0.0031344 0.034702 0.02122 0.079094 
0.15637 0.48454 0.17791 0.18152 0.027139 0.024015 0.014972 0.031414 
0.22213 0.30878 0.20405 0.21062 0.045389 0.027303 0.0039565 -0.003771 
0.23677 0.10869 0.16821 0.20142 0.03947 0.035195 0.012835 -0.044381 
0.056076 0.12776 0.11198 0.16245 0.016288 0.039799 0.016288 -0.034516 
0.031414 0.14963 0.12184 0.15834 0.022535 0.026152 0.004943 0.017603 
0.15144 0.19599 0.18728 0.22772 0.071695 0.047855 0.023851 0.11099 
0.11329 0.21145 0.25551 0.29119 0.11642 0.071531 0.043416 0.13368 
-0.057863 0.07038 0.22904 0.27721 0.1054 0.056898 0.035031 0.0592 
0.031414 -0.01676 0.20454 0.25946 0.089616 0.029112 0.014479 0.028454 
0.30368 0.086821 0.14749 0.21638 0.049335 0.03092 0.00066819 0.021713 
0.44722 0.1567 -0.0138 0.094877 -0.042573 -0.020048 -0.031721 0.017767 
0.34512 0.18267 -0.16966 -0.045203 -0.1256 -0.022679 -0.039449 0.05624 
-0.090581 0.23463 -0.15207 -0.088115 -0.12757 0.016123 -0.022185 0.0080668 
-0.70845 -0.17986 -0.051287 -0.04619 -0.091568 0.014479 -0.01528 -0.060494 
-0.62246 -0.31435 0.023193 0.013492 -0.047998 0.034209 0.020233 0.02122 
-0.30432 -0.38373 0.041772 0.043251 -0.040106 0.041936 0.015465 0.043909 
0.1271 -0.14582 0.032564 0.088465 -0.017417 0.035195 0.014808 0.051472 
0.37553 0.2149 0.041443 0.10425 -0.017417 0.0041209 0.018096 0.01563 
0.34676 0.077121 0.031085 0.08156 -0.046354 -0.010019 -0.021856 -0.01232 
0.27919 -0.13432 0.018425 0.07038 -0.049478 -0.032215 -0.042079 -0.0004827 
0.18974 -0.073154 0.05065 0.085177 -0.025967 0.0093821 -0.006566 0.079094 
0.18169 0.18366 0.052294 0.091425 -0.0067304 0.036675 0.0075736 0.1105 
0.21276 0.46448 0.054432 0.094713 -0.0064016 0.050157 0.021384 0.1299 
0.094548 0.29596 0.010533 0.057391 -0.033859 0.042265 0.015301 0.072024 
-0.19761 -0.057699 -0.045368 0.01267 -0.05737 0.0028056 -0.014293 -0.11426 
-0.16884 -0.22228 -0.090253 -0.035174 -0.086142 -0.0024557 -0.019061 -0.12182 
0.15966 0.087479 -0.097487 -0.052109 -0.10028 0.029112 0.00017495 -0.014951 
0.21589 0.50854 -0.11623 -0.048985 -0.10949 0.0024767 -0.011827 0.02681 
0.047691 0.57316 -0.056383 -0.0059084 -0.091732 -0.011498 -0.024323 0.051801 
-0.1113 0.21605 0.12316 0.10113 -0.025145 0.0098754 -0.016102 0.038977 
-0.2254 -0.071674 0.33854 0.2805 0.098001 0.039141 0.0054362 0.041114 
-0.16605 -0.058192 0.47961 0.43176 0.19977 0.044896 0.021878 0.089616 
-0.09798 0.054267 0.35662 0.4025 0.16656 0.032893 0.01004 0.042265 
-0.033859 0.046375 0.27146 0.34495 0.12727 0.033551 0.010533 0.018754 
0.171 -0.11113 0.10244 0.23134 0.062159 0.042594 0.02829 0.0227 
0.22756 0.0042853 -0.095185 0.046211 -0.052437 0.015959 0.0047785 0.023851 
0.028947 -0.11705 -0.21422 -0.10686 -0.1427 -0.0080457 -0.015116 0.023851 
-0.12133 -0.27752 -0.26009 -0.1769 -0.17525 -0.0042642 -0.0070593 0.01004 
-0.058028 -0.13645 -0.30399 -0.19794 -0.17345 0.020562 -0.006566 -0.0062372 
0.1567 0.17774 -0.067892 -0.061645 -0.086964 0.033222 0.0062583 0.051801 
0.40611 0.50345 0.2468 0.16229 0.04917 0.055747 0.045882 0.11017 
0.32884 0.37487 0.25798 0.24318 0.085341 0.050321 0.030592 0.076299 
-0.00081153 -0.35595 -0.010183 0.098001 -0.018733 0.01974 0.0087245 0.048841 
-0.21554 -0.48517 -0.15947 -0.035338 -0.10078 0.033058 0.0093821 0.025824 
-0.43996 -0.24727 -0.28689 -0.16342 -0.17772 0.01711 -0.00097594 -0.01232 
-0.3811 -0.39064 -0.29659 -0.22902 -0.22754 -0.019226 -0.027282 -0.038956 
0.1008 0.0014903 -0.12988 -0.14122 -0.18791 -0.029748 -0.044052 -0.024323 
0.17643 0.41532 0.012506 -0.039284 -0.13843 -0.065097 -0.073811 -0.049807 
-0.39721 0.38737 0.01711 0.012177 -0.094527 -0.042079 -0.0771 -0.12692 
-0.52595 -0.074962 -0.014951 0.040621 -0.066084 -0.009361 -0.053095 -0.12231 
-0.14369 -0.45426 0.11921 0.13878 0.020398 0.035524 -0.0004827 -0.028762 
0.059857 -0.51543 0.28773 0.26143 0.11839 0.093562 0.058871 0.098659 
0.17939 -0.20271 0.45248 0.40726 0.21737 0.14091 0.089287 0.15949 
0.39428 0.39937 0.54636 0.51709 0.27458 0.11543 0.089616 0.17478 
0.43883 0.73955 0.32423 0.41022 0.1881 0.055418 0.069064 0.11806 
0.20092 0.83754 -0.07973 0.12217 -0.023007 0.0037921 -0.0013048 -0.017746 
0.22657 0.74579 -0.21932 -0.06855 -0.15125 -0.043066 -0.046683 -0.036489 
0.21983 0.15407 -0.1672 -0.11903 -0.16687 -0.0031133 -0.0068948 -0.00081153 
-0.22261 -0.71535 -0.32684 -0.23214 -0.22129 -0.0049219 -0.026624 -0.045861 
-0.46627 -1.1188 -0.39951 -0.31829 -0.26124 -0.019226 -0.034681 -0.0059084 
-0.47613 -0.84623 -0.24332 -0.22063 -0.19137 0.030592 0.0052718 0.058706 
-0.3788 0.048019 0.069722 0.014315 -0.05178 0.060515 0.025001 0.093233 
-0.042901 0.59289 0.22493 0.17034 0.028947 0.031249 0.01711 0.10606 
0.29332 0.51068 0.19566 0.20619 0.042265 0.020562 0.011191 0.041114 
0.37701 0.044896 0.10704 0.16722 0.015137 -0.0032777 -0.012814 -0.0054151 
0.44196 -0.14698 0.094713 0.14765 0.0082312 -0.0044286 -0.016266 0.018754 
0.47829 -0.022185 0.1031 0.14486 0.0052718 0.024837 -0.0082102 0.0041209 
0.22345 0.20323 0.098001 0.13615 -0.0077169 0.013492 -0.012814 -0.047669 
0.051308 0.26554 0.086985 0.12085 -0.014458 -0.0016336 -0.018733 -0.042737 
-0.23444 0.083204 -0.009361 0.058049 -0.047341 0.027303 -0.0044286 0.0011614 
-0.57281 -0.32027 -0.1552 -0.054575 -0.11672 0.0011614 -0.016924 -0.015116 
-0.45607 -0.31501 -0.23428 -0.11804 -0.15224 0.0047785 -0.014622 -0.0095255 
-0.30958 -0.071838 -0.13941 -0.085978 -0.12494 0.022042 -0.0088678 0.012177 
-0.1113 0.19139 -0.011334 -0.010512 -0.075127 0.038812 0.01267 0.07301 
0.15127 0.35712 0.0689 0.067091 -0.03205 0.044073 0.03388 0.10425 
0.18383 0.27442 0.047526 0.078929 -0.027282 0.044073 0.021056 0.076299 
0.092904 0.077614 -0.063618 0.010697 -0.076606 0.0054362 -0.0064016 0.0093821 
0.082546 -0.11919 -0.10291 -0.03057 -0.095514 0.018589 0.011191 -0.01528 
0.08978 -0.13547 -0.040435 -0.013307 -0.074798 0.052787 0.027961 0.012177 
0.11198 0.017767 0.047362 0.041443 -0.041422 0.036675 0.021878 0.03947 
0.17396 0.18021 0.093069 0.094877 -0.021856 0.021384 0.029276 0.043087 
0.27787 0.29694 0.13746 0.14913 0.0070803 0.034702 0.012835 0.052787 
0.28905 0.36024 0.14239 0.18991 0.037661 0.026317 0.013164 0.097508 
0.23956 0.32884 0.14946 0.19418 0.048677 0.046868 0.023028 0.072024 
0.15538 0.28247 0.11592 0.17577 0.036839 0.040128 0.018425 0.075476 
0.13138 0.10096 0.0087245 0.098001 -0.015444 0.025988 0.010204 0.057555 
0.147 -0.18101 -0.05326 0.029934 -0.054575 0.03092 0.0021479 0.012999 
0.0087245 -0.1769 -0.019061 0.030756 -0.052766 0.029276 -0.0004827 0.0046141 
-0.041751 0.0098754 0.021713 0.072024 -0.028433 0.048513 0.013328 0.0056006 
0.17676 0.32029 0.03388 0.068242 -0.038791 0.029276 0.010369 0.0072447 
0.068078 0.46316 -0.018568 0.037497 -0.062302 0.011191 -0.0060728 0.0036276 
-0.099789 0.23183 0.025495 0.046046 -0.055726 0.0082312 -0.0054151 0.0072447 
0.097179 -0.12429 0.046211 0.095699 -0.018239 0.047033 -0.0027845 0.08419 
0.014972 -0.29873 0.046375 0.11642 0.0031344 0.047033 0.013492 0.085341 
-0.33391 -0.31238 0.070215 0.11231 0.0065871 0.053938 0.044238 0.038319 
-0.32454 -0.054575 0.10244 0.13467 0.021713 0.068407 0.041936 0.071531 
0.0080668 0.47566 0.17363 0.18711 0.053609 0.044238 0.027139 0.093726 
0.29069 0.71949 0.18794 0.21424 0.062323 0.044402 0.043251 0.079587 
0.43061 0.49621 0.15127 0.19813 0.04917 0.054432 0.027961 0.085012 
0.38638 0.14256 0.080573 0.14946 0.015465 0.032236 0.013986 0.075148 
0.21967 -0.39623 -0.064933 0.032071 -0.062138 0.020398 0.0067515 -0.013636 
-0.10965 -0.72999 -0.10752 -0.039449 -0.10653 -0.006566 -0.017088 -0.057534 
-0.13843 -0.3326 0.04654 0.035524 -0.052602 0.0056006 -0.013471 -0.0064016 
0.0098754 0.25255 0.14585 0.14634 0.017438 0.039634 0.022371 0.046211 
0.067913 0.38819 0.094055 0.16837 0.024673 0.033551 0.01563 0.054596 
0.28017 0.24647 0.099152 0.15571 0.020069 0.044073 0.024673 0.10228 
0.25387 0.020398 0.14239 0.17478 0.03799 0.066927 0.035688 0.088301 
0.19435 0.08715 0.17676 0.20471 0.056404 0.059528 0.037826 0.071695 
0.21194 0.28971 0.15801 0.19846 0.049499 0.035195 0.0227 0.063639 
0.17001 0.12891 0.090603 0.1539 0.025659 0.076627 0.036675 0.085835 
0.17791 -0.29873 0.033551 0.096028 -0.014622 0.050157 0.028947 0.084355 
0.089945 -0.28969 0.090274 0.11642 -0.006566 0.026974 0.016288 0.068242 
-0.060165 -0.063124 0.0054362 0.05624 -0.052766 -0.0019624 -0.017088 0.018754 
-0.35233 -0.18282 -0.21192 -0.087129 -0.14599 -0.021692 -0.037147 -0.02942 
-0.65567 -0.1598 -0.29988 -0.17114 -0.19942 -0.029255 -0.033859 -0.10965 
-0.63874 0.12447 -0.12642 -0.086471 -0.13958 0.011026 -0.019061 -0.087293 
-0.33309 0.35383 0.10622 0.06594 -0.036983 0.02681 0.00066819 -0.0014692 
0.049335 0.35646 0.24745 0.20668 0.055418 0.038155 0.03388 0.083368 
0.2805 0.10195 0.22 0.23693 0.070215 0.054432 0.03092 0.083697 
0.3101 -0.071838 0.14354 0.20701 0.050157 0.038977 0.020727 0.034702 
0.26274 -0.09798 0.018425 0.11214 -0.018239 0.030098 0.020069 -0.019061 
0.29332 -0.0044286 0.04917 0.094384 -0.024816 0.037497 0.018425 0.022535 
0.27639 0.15061 0.085835 0.1026 -0.020212 0.014972 0.0083956 0.04917 
0.21013 0.014479 -0.027118 0.030592 -0.064933 0.028454 0.014315 0.070215 
0.11658 -0.50408 -0.23806 -0.11557 -0.15207 0.00066819 -0.0090322 0.068078 
-0.0077169 -0.66093 -0.26667 -0.16539 -0.17854 -0.0054151 -0.020541 0.024837 
-0.065426 -0.080059 0.065612 0.041443 -0.048656 0.03799 0.0080668 0.00050378 
-0.11968 0.84691 0.3683 0.27573 0.090274 0.01711 -0.0032777 -0.00081153 
-0.28081 1.0876 0.30237 0.31503 0.099645 0.015137 -0.0091966 -0.068057 
-0.13053 0.82373 0.18859 0.25995 0.063968 0.026317 1.0539e-005 -0.02794 
0.024015 0.39526 0.14552 0.20849 0.031907 0.042265 0.014479 0.029605 
-0.028104 -0.36318 -0.093376 0.04095 -0.075291 0.00066819 -0.0095255 0.0070803 
-0.13547 -1.131 -0.31122 -0.1695 -0.1889 0.034702 -0.0090322 -0.0031133 
-0.036818 -1.0202 -0.25417 -0.19712 -0.18183 0.025001 0.0016547 0.053281 
0.063968 -0.42138 -0.11343 -0.1205 -0.12725 0.058871 0.040128 0.10885 
0.099152 -0.030406 -0.050136 -0.053917 -0.097651 0.030592 0.012506 0.071859 
0.17593 0.13845 -0.019719 0.012506 -0.073976 -0.0072237 -0.019555 0.00099702 
0.20767 0.27984 -0.06855 0.0059294 -0.10012 -0.050464 -0.04323 -0.08828 
0.039141 0.28395 -0.18479 -0.089102 -0.1746 -0.060329 -0.074633 -0.13793 
0.018589 0.012506 -0.2032 -0.13251 -0.18315 -0.04882 -0.068714 -0.1108 
-0.16424 0.041443 -0.051287 -0.047998 -0.10768 0.028454 -0.0057439 -0.061809 
-0.30448 0.3951 0.14256 0.099645 -0.0087034 0.062652 0.030098 0.065118 
0.098166 0.79347 0.21753 0.19961 0.058706 0.085506 0.060844 0.20964 
0.28856 0.6067 0.19303 0.21112 0.063639 0.089945 0.06742 0.23463 
0.18037 0.085341 0.12414 0.17363 0.035853 0.05065 0.036839 0.092576 
0.028947 -0.30695 0.061172 0.1151 -0.0083746 0.00050378 -0.003771 -0.050629 
-0.049971 -0.41431 0.0062583 0.068571 -0.05178 -0.015773 -0.030242 -0.096994 
-0.036983 -0.32849 -0.022021 0.055582 -0.065426 -0.047012 -0.05589 -0.074962 
-0.062467 -0.15832 0.086492 0.13138 -0.0040998 0.004943 -0.027611 -0.01528 
0.0069159 -0.018733 0.26192 0.24367 0.078272 0.054925 0.012835 0.046704 
0.020891 0.14765 0.21112 0.24844 0.072517 0.037661 0.013986 0.061666 
-0.12231 0.11115 -0.029748 0.092411 -0.042901 -0.0098543 -0.0047575 0.01267 
-0.20353 -0.088115 -0.22606 -0.080552 -0.14747 -0.0055795 -0.024158 0.00083261 
-0.015444 -0.16539 -0.2032 -0.12692 -0.15552 0.01974 -0.0077169 0.044402 
0.16508 -0.14369 -0.077757 -0.066741 -0.10637 0.027468 0.016616 0.068407 
0.29415 -0.0029489 0.053445 0.026646 -0.048492 0.053774 0.023851 0.042265 
0.37586 0.17692 0.03651 0.048019 -0.045696 0.030263 0.012506 0.061995 
0.38737 0.2366 -0.0047575 0.039141 -0.061151 0.0056006 0.021878 0.11642 
0.22098 0.12957 0.0032988 0.06035 -0.048656 0.012506 -0.0055795 0.095864 
-0.13958 -0.04323 0.014808 0.078436 -0.030242 0.021056 -0.0040998 0.021713 
-0.44456 -0.059014 0.16031 0.16097 0.037004 0.058542 0.024344 -0.075127 
-0.15355 0.075476 0.36468 0.31848 0.15094 0.076792 0.046375 -0.067892 
0.22641 0.27639 0.32769 0.34939 0.16393 0.061501 0.043745 0.017767 
0.20175 0.27606 0.10063 0.21589 0.062323 0.057391 0.036017 0.065118 
-0.25483 -0.085649 -0.14993 0.007738 -0.096665 -0.021856 -0.02235 -0.009361 
-0.58234 -0.26864 -0.26502 -0.13875 -0.19137 -0.057041 -0.062796 -0.065097 
-0.45657 0.21276 -0.21077 -0.15405 -0.18167 -0.0062372 -0.033365 -0.0096899 
0.00099702 0.59272 -0.12215 -0.11212 -0.13892 0.016452 -0.01232 0.054267 
0.13121 0.44574 0.047362 0.00083261 -0.068879 0.059035 0.021549 0.076134 
0.19205 0.24285 0.24943 0.2024 0.058213 0.067913 0.02681 0.14519 
0.31749 0.035195 0.26242 0.30089 0.12464 0.10819 0.076299 0.18136 
0.63054 -0.06148 0.19155 0.25551 0.10145 0.073175 0.073997 0.14108 
0.56 -0.11804 0.11033 0.18958 0.055582 0.058213 0.044238 0.084519 
0.1151 -0.41661 0.098823 0.16081 0.0324 0.031414 0.019411 0.014808 
-0.34476 -0.802 0.14272 0.17265 0.032071 0.0087245 0.01004 -0.054246 
-0.50112 -0.68395 0.22887 0.2343 0.049828 -0.0050863 -0.021856 -0.087786 
-0.50014 -0.121 0.18465 0.21753 0.02829 -0.033037 -0.047176 -0.10998 
-0.22639 0.22 0.09422 0.15637 0.0018191 0.0032988 -0.014951 -0.014951 
0.040621 0.21506 0.02533 0.082382 -0.022514 0.028454 0.0042853 0.050979 
0.1738 0.439 -0.074469 0.010697 -0.060494 0.028783 0.0075736 0.074161 
0.17232 0.75993 -0.12659 -0.038462 -0.09387 0.045224 0.015137 0.074983 
0.14979 0.81715 -0.10949 -0.029913 -0.088608 0.017932 0.0019835 0.059364 
0.14469 0.69022 -0.001798 0.021056 -0.057205 0.036182 0.015301 0.060022 
0.088465 0.47846 0.12365 0.11428 0.0026412 0.056733 0.024508 0.071859 
0.047033 0.10162 0.17034 0.17396 0.041278 0.058377 0.028619 0.053445 
0.012835 -0.45706 0.056404 0.12085 0.00050378 0.021549 0.0075736 0.030756 
0.064296 -0.6606 -0.055397 0.035688 -0.056548 0.026317 -0.00064712 0.024508 
0.13943 -0.66044 -0.083676 -0.018897 -0.091568 0.0090533 -0.019226 0.054925 
0.12316 -0.39787 -0.062467 -0.028926 -0.09387 -0.0040998 -0.0083746 0.030098 
-0.011827 0.0032988 -0.045368 -0.0138 -0.085978 0.0093821 -0.015773 0.022864 
-0.14056 0.31963 0.014315 0.031414 -0.059507 0.015465 -0.011827 0.022042 
-0.18939 0.43505 0.041772 0.088794 -0.024652 0.014479 0.0098754 0.032564 
-0.096336 0.33361 0.11872 0.14502 0.012999 0.047362 0.014808 0.057391 
0.12973 0.19402 0.13434 0.16558 0.025824 0.0421 0.017603 0.081395 
0.26932 0.027632 0.15259 0.18432 0.037661 0.037497 0.026152 0.066434 
0.055418 -0.096994 0.11477 0.16459 0.02681 0.022371 0.0044497 0.00297 
0.13762 -0.1182 0.034537 0.10836 -0.0080457 0.029441 0.0067515 0.00066819 
0.45873 -0.091075 -0.078908 0.016616 -0.069043 0.039963 -0.0022913 0.014315 
0.46103 -0.022843 -0.16375 -0.077757 -0.13037 0.01004 -0.010512 0.0046141 
0.22115 0.30253 -0.047505 -0.032872 -0.098473 0.0070803 -0.0091966 0.060515 
0.079258 0.62133 0.11033 0.072846 -0.030077 0.045553 0.01415 0.093069 
-0.20995 0.69926 0.093562 0.11378 -0.0078813 0.043745 0.016781 0.027632 
-0.46232 0.49555 -0.037311 0.069558 -0.047012 -0.0088678 -0.019555 -0.056219 
-0.45311 -0.18693 -0.08384 0.0042853 -0.084005 -0.0070593 -0.026624 -0.064768 
-0.17131 -0.93846 -0.18972 -0.089759 -0.13744 -0.012649 -0.032379 -0.049149 
0.078107 -1.0762 -0.20173 -0.12774 -0.15717 0.010369 -0.015938 1.0539e-005 
0.13795 -0.58859 -0.074633 -0.065426 -0.121 0.017767 -0.0080457 0.0041209 
0.032236 -0.019555 -0.03616 -0.023007 -0.096007 0.016945 -0.011334 0.015137 
0.034209 0.28198 0.022864 0.033222 -0.05589 0.0083956 0.0093821 0.08304 
0.13483 0.39707 0.19451 0.15555 0.028783 0.043416 0.01826 0.10195 
0.1858 0.31585 0.30746 0.25896 0.089287 0.041114 0.019411 0.086163 
0.17051 0.21079 0.21967 0.24581 0.075312 0.03947 0.033222 0.063639 
0.14617 0.24417 0.16344 0.23759 0.067749 0.044567 0.043909 0.023357 
0.19073 0.35909 0.20323 0.27754 0.099645 0.044073 0.031085 0.06594 
0.21967 0.3101 0.14733 0.22838 0.06742 0.05624 0.041772 0.082711 
0.17889 0.1197 0.013821 0.1151 -0.0075525 0.036017 0.01974 0.058049 
0.09274 -0.021363 -0.11327 -0.0013048 -0.080388 0.020727 0.0067515 0.021549 
0.036017 -0.05885 -0.13941 -0.058028 -0.11689 0.017932 0.00033937 0.030098 
-0.069043 0.091096 -0.088444 -0.045368 -0.10653 0.01415 -0.008539 0.0056006 
-0.2448 -0.030899 -0.10965 -0.060329 -0.10998 0.024179 -0.0014692 -0.0091966 
-0.29741 -0.20682 -0.11952 -0.075291 -0.11294 0.052787 0.031414 -0.011498 
-0.20271 -0.15536 -0.084005 -0.066084 -0.11722 0.020562 0.0062583 -0.020377 
-0.069208 -0.24349 -0.066413 -0.0503 -0.11294 0.015137 -0.0055795 0.0056006 
0.18432 -0.12215 0.075805 0.066105 -0.038791 0.030592 -0.00064712 0.054596 
0.45609 0.17347 0.26406 0.26258 0.08863 0.035195 -0.0004827 0.0786 
0.46892 0.10836 0.25946 0.2851 0.10113 0.03388 0.014643 0.063639 
0.21358 -0.071345 0.080738 0.17708 0.030427 0.057555 0.014643 -0.010348 
-0.14829 -0.10258 -0.13415 0.0074092 -0.087293 -0.018075 -0.025474 -0.090746 
-0.29807 -0.10998 -0.17082 -0.071509 -0.13333 -0.026296 -0.022679 -0.071509 
-0.1182 0.075312 -0.020048 -0.0070593 -0.078908 0.020727 -0.011992 0.035853 
-0.24118 0.061337 0.0060938 0.026646 -0.049314 0.049335 0.014643 0.07038 
-0.43371 -0.0014692 -0.0026201 0.028454 -0.049149 0.04654 0.023686 0.029605 
-0.19087 0.1077 0.2006 0.15538 0.036017 0.049992 0.020891 0.047526 
0.092247 0.24893 0.31684 0.27935 0.10441 0.032564 0.018589 0.070544 
0.25436 0.45116 0.20569 0.26192 0.07449 0.027468 0.0095465 0.055911 
0.31716 0.46037 0.11083 0.22361 0.046704 0.00297 -0.0083746 0.03799 
0.23496 0.14831 0.078436 0.15916 0.005765 -0.0036066 -0.017417 0.072024 
0.16492 -0.13612 0.026152 0.10491 -0.026131 0.032564 -0.0011404 0.059528 
0.090274 -0.24349 -0.034352 0.04917 -0.044874 0.027961 0.00033937 -0.004593 
-0.16309 -0.011005 -0.032872 0.024508 -0.060494 0.012177 -0.0082102 -0.10094 
-0.2037 0.2634 -0.14023 -0.056383 -0.13021 -0.022679 -0.03616 -0.10702 
-0.0021268 0.24745 -0.19942 -0.11722 -0.16227 -0.021034 -0.040764 -0.040106 
0.092082 -0.15191 -0.067728 -0.060823 -0.10439 0.009711 -0.017911 0.060022 
0.077449 -0.34937 0.11132 0.071202 -0.01117 0.077943 0.027961 0.085177 
0.036675 -0.15388 0.18958 0.16048 0.039634 0.061172 0.033551 0.085835 
0.0067515 -0.046354 0.11905 0.16064 0.027468 0.04506 0.033058 0.097179 
0.01826 -0.017746 0.035524 0.13171 0.0036276 0.039634 0.016616 0.044238 
0.11937 0.19599 0.019905 0.097015 -0.015444 0.035853 0.018425 0.042923 
0.11017 0.42255 0.020069 0.076792 -0.033859 0.0032988 0.012177 0.034209 
0.2024 0.41992 0.07301 0.11033 -0.0090322 -0.0014692 -0.01528 0.022864 
0.33048 0.34068 0.1225 0.14552 0.01563 0.019576 -0.0042642 0.062981 
0.15407 0.31848 0.099152 0.14091 0.012013 0.035031 0.018425 0.065118 
-0.097816 0.013328 0.016452 0.087643 -0.028104 0.015794 -0.0068948 0.0014903 
0.13154 -0.090253 -0.075949 0.00099702 -0.091568 -0.01232 -0.021856 0.051801 
0.33147 -0.043395 -0.11097 -0.047341 -0.11311 -0.0016336 -0.021363 0.0069159 
0.15472 -0.41185 -0.10406 -0.063453 -0.11755 -0.017088 -0.034352 -0.03501 
-0.085485 -0.51493 -0.065591 -0.045039 -0.11393 -0.029584 -0.039613 -0.1108 
-0.36219 -0.23083 -0.06148 -0.0011404 -0.090417 -0.013143 -0.038462 -0.1358 
-0.20189 -0.03501 0.0018191 0.032729 -0.066248 -0.0059084 -0.027611 -0.0050863 
0.05624 0.24499 0.09126 0.097837 -0.018075 0.029112 0.0014903 0.12825 
0.09274 0.61278 0.19385 0.19024 0.050486 0.065776 0.027139 0.14864 
-0.014787 0.57661 0.20898 0.22575 0.072188 0.045718 0.023851 0.093233 
-0.20238 0.24696 0.17626 0.21917 0.069229 0.053445 0.026481 0.018425 
-0.33704 0.042758 0.19747 0.22937 0.077285 0.06183 0.026646 -0.018404 
-0.06707 -0.019061 0.11165 0.16574 0.030756 0.03092 0.011684 -0.0057439 
0.24828 -0.31386 -0.079401 0.027303 -0.061809 0.0067515 0.0014903 0.036675 
0.25156 -0.4421 -0.16259 -0.071345 -0.11491 0.03651 -0.0039354 0.067585 
-0.0087034 -0.11787 -0.057699 -0.026296 -0.080223 0.037826 0.01004 0.053609 
-0.19383 0.40036 0.065612 0.079258 -0.01117 0.057391 0.042758 0.045389 
-0.0098543 0.53074 0.084519 0.11132 -0.0019624 0.041114 0.022864 0.043087 
0.057884 0.2269 -0.052273 0.029605 -0.069208 -0.0067304 -0.01528 0.0011614 
0.031578 -0.18364 -0.14993 -0.057041 -0.13316 -0.02498 -0.025309 -0.038298 
0.06183 -0.65649 -0.11163 -0.060165 -0.12757 -0.023172 -0.041422 -0.020541 
-0.054904 -0.61934 -0.051944 -0.027611 -0.098144 -0.024323 -0.042408 0.0052718 
0.10014 -0.18693 -0.0088678 0.012177 -0.071838 0.007738 -0.015609 0.034373 
0.25469 0.14946 0.01826 0.033222 -0.053588 0.0074092 -0.0138 0.084848 
0.26077 0.33772 0.049664 0.057884 -0.027775 0.037332 0.010862 0.11543 
0.23496 0.51726 0.15505 0.14272 0.021549 0.080409 0.034044 0.12431 
0.062652 0.62692 0.20454 0.20997 0.056569 0.040128 0.020891 0.062323 
-0.11689 0.50953 0.19764 0.24926 0.070215 0.028619 0.011684 0.023851 
-0.10341 0.25222 0.244 0.27623 0.090603 0.049499 0.016781 0.00017495 
-0.10291 0.16525 0.25387 0.28971 0.10458 0.037826 0.0034632 -0.011334 
-0.37847 -0.099953 0.086163 0.18678 0.035688 0.025495 0.00297 -0.063289 
-0.18676 -0.13596 -0.054904 0.06331 -0.041093 0.020727 -0.0042642 -0.0091966 
0.11691 -0.014129 -0.044874 0.025495 -0.05178 0.038155 0.012835 0.10425 
-0.0034422 -0.20189 -0.051122 0.0069159 -0.055068 0.056898 0.0421 0.13187 
-0.16769 -0.68691 -0.11623 -0.052931 -0.091732 0.047691 0.027796 0.11674 
0.03799 -0.59846 -0.11196 -0.06855 -0.1085 0.050486 0.029934 0.091918 
0.24334 -0.28393 -0.0050863 -0.018733 -0.091075 -0.001798 0.012342 0.014479 
0.21934 0.027796 0.1516 0.11132 -0.012156 0.0032988 -0.0078813 -0.075455 
0.2218 0.021713 0.14272 0.18909 0.041772 0.030098 -0.0039354 -0.049478 
0.093726 -0.11738 0.08715 0.15538 0.031742 0.053116 0.03536 -0.036325 
-0.1473 0.069722 0.0786 0.13368 0.014808 0.03388 0.013821 -0.028762 
-0.19219 0.35827 -0.015938 0.063474 -0.031392 0.018918 0.00297 0.0044497 
-0.19729 0.17396 -0.19268 -0.07414 -0.1353 -0.023007 -0.028926 -0.039778 
-0.14878 0.37372 -0.23296 -0.14813 -0.18479 -0.021528 -0.042079 -0.034023 
-0.045368 0.59815 -0.17953 -0.13727 -0.16983 -0.038133 -0.053424 0.023357 
-0.015444 0.48783 -0.16917 -0.13711 -0.17098 -0.001798 -0.033365 0.021384 
0.097015 0.18596 -0.01676 -0.043066 -0.10719 0.02533 -0.0032777 0.077778 
0.22526 0.036182 0.25765 0.1641 0.036839 0.041443 0.013821 0.10803 
0.29431 0.015794 0.32802 0.29875 0.12562 0.076463 0.032071 0.10162 
0.25206 -0.066906 0.25354 0.32522 0.13269 0.043745 0.023193 0.066598 
0.20158 -0.060494 0.16492 0.2514 0.082382 0.045553 0.015301 -0.0083746 
0.067585 -0.080552 0.16229 0.22476 0.067585 0.046375 0.021384 0.02533 
0.034537 -0.053095 0.052623 0.14963 0.025001 0.049992 0.023357 0.053938 
0.21161 0.08567 -0.018075 0.070708 -0.023172 0.030756 0.027796 0.086328 
0.33525 0.35005 0.041114 0.078929 -0.017417 0.075312 0.034044 0.11937 
0.25584 0.44771 0.11609 0.13154 0.013328 0.047526 0.027961 0.1128 
0.20208 0.32473 0.088136 0.12546 0.0085601 0.029934 0.037826 0.076463 
0.1294 -0.044052 0.017603 0.07038 -0.035174 0.015465 0.00099702 0.028783 
-0.026296 -0.43799 -0.0057439 0.03947 -0.058192 -0.017417 -0.027775 -0.017582 
-0.024158 -0.6897 -0.077428 0.0031344 -0.07973 -0.0032777 -0.017417 -0.061316 
0.10721 -0.39688 -0.078744 0.01152 -0.076277 0.0023123 -0.018568 -0.051615 
-0.1159 0.015794 -0.034516 0.010862 -0.073482 0.0041209 -0.016924 -0.036654 
-0.58366 0.16771 -0.075455 -0.015116 -0.091075 0.019411 -0.0062372 -0.03912 
-0.49931 0.11757 -0.15191 -0.075291 -0.13448 -0.0027845 -0.018568 0.014479 
0.11165 0.27606 -0.084498 -0.051287 -0.11409 0.0011614 -0.0138 0.11872 
0.40463 0.27919 -0.022514 -0.0064016 -0.0868 0.010204 -0.0098543 0.13203 
0.31371 -0.025638 -0.021363 0.005765 -0.076277 0.0032988 -0.022843 0.00066819 
0.069229 -0.18939 0.043087 0.049335 -0.036818 0.028947 -0.0047575 -0.12001 
-0.19367 -0.077593 0.2172 0.17248 0.051636 0.072681 0.025988 -0.13711 
-0.094199 0.30368 0.31388 0.27803 0.11937 0.070873 0.042429 0.012999 
0.29497 0.62232 0.21967 0.28445 0.11543 0.079094 0.06183 0.16706 
0.4071 0.77473 0.084684 0.20849 0.052623 0.067256 0.047362 0.24137 
0.23973 0.41877 -0.0068948 0.098166 -0.03501 0.0011614 -0.0014692 0.14568 
-0.039284 -0.3834 -0.15635 -0.037805 -0.13119 -0.044874 -0.031721 0.01152 
-0.16358 -0.80085 -0.27374 -0.15635 -0.20452 -0.040435 -0.057205 -0.026296 
-0.25483 -0.63561 -0.17443 -0.13727 -0.17936 -0.018404 -0.03764 -0.057534 
-0.23461 -0.38094 0.026481 -0.0042642 -0.071838 0.014643 -0.0016336 -0.021363 
-0.13284 -0.29166 0.01974 0.039141 -0.022021 0.067091 0.034537 0.034702 
0.012177 -0.049807 0.055254 0.069064 -0.00081153 0.073504 0.051636 0.082546 
0.21917 0.3267 0.14042 0.12825 0.025495 0.097179 0.067749 0.087972 
0.22345 0.5457 0.19139 0.18366 0.040292 0.04095 0.033551 0.081067 
0.14585 0.59914 0.093726 0.17051 0.017438 0.028947 0.014972 0.02681 
-0.023336 0.44935 -0.017417 0.099481 -0.031886 0.00017495 -0.010841 -0.02235 
-0.15125 0.33887 -0.12116 -0.0095255 -0.10406 -0.01676 -0.029584 -0.036654 
-0.17493 0.047526 -0.14073 -0.063124 -0.13448 -0.036325 -0.047176 -0.055397 
-0.121 -0.28558 -0.014129 -0.0024557 -0.087293 0.026317 -0.021199 -0.003771 
-0.064275 -0.33671 0.096521 0.085177 -0.024158 0.042758 0.0062583 0.049664 
0.1932 -0.26223 0.14897 0.15341 0.023686 0.040292 0.015959 0.064461 
0.3535 -0.16473 0.16903 0.18267 0.044731 0.066434 0.035195 0.089452 
0.40891 -0.0029489 0.15275 0.18152 0.048677 0.065118 0.038155 0.11083 
0.35219 0.14272 0.12102 0.1567 0.029276 0.030263 0.030098 0.1419 
0.060844 0.32292 0.10458 0.14239 0.01152 0.049828 0.020398 0.069229 
-0.51904 0.47023 0.021384 0.1128 -0.023336 -0.02498 -0.027611 -0.038956 
-0.58563 0.66737 -0.044874 0.066105 -0.064768 -0.03764 -0.033201 -0.069043 
-0.20534 0.57595 0.023357 0.07038 -0.052931 -0.0060728 -0.031064 0.0037921 
-0.071181 0.27738 0.087314 0.11214 -0.0032777 0.044402 0.0082312 0.040456 
0.11691 -0.32849 0.070873 0.11 0.011848 0.062159 0.036017 0.071366 
0.14108 -1.1295 -0.070687 0.019083 -0.050793 0.053609 0.028947 0.059857 
-0.073811 -1.1603 -0.18348 -0.088608 -0.13908 -0.00081153 -0.0095255 -0.056219 
-0.15668 -0.65616 -0.1718 -0.11837 -0.17345 -0.031228 -0.039284 -0.1136 
0.13319 0.0047785 -0.072825 -0.073318 -0.14878 -0.042244 -0.048656 -0.081539 
0.24088 0.33377 0.0075736 -0.0052507 -0.095021 0.0023123 -0.025145 0.024179 
-0.010512 0.35251 0.1539 0.11691 0.0088889 0.065776 0.022864 0.12776 
-0.077593 0.25173 0.17412 0.19665 0.065776 0.088794 0.051801 0.14667 
-0.0088678 0.10425 -0.0068948 0.12036 0.0092177 0.058706 0.037168 0.06742 
-0.011992 0.046704 -0.11689 -0.0022913 -0.080059 0.021713 0.0070803 -0.0013048 
-0.06148 0.23644 0.091589 0.083862 -0.029584 0.0092177 -0.013307 -0.026953 
-0.022514 0.63169 0.19583 0.18267 0.022535 -0.011992 -0.023829 -0.025967 
0.099152 0.79002 0.14305 0.17824 0.0072447 -0.008539 -0.034023 -0.012814 
0.25814 0.49342 0.10113 0.15505 -0.0075525 -0.011334 -0.033201 0.005765 
0.33262 0.1539 0.10836 0.14469 0.0021479 0.028454 0.0085601 0.075312 
0.29431 -0.016266 0.099316 0.13894 0.0095465 0.057391 0.023686 0.10178 
0.16377 -0.017582 0.11378 0.14075 0.012835 0.050486 0.027139 0.075312 
-0.060987 -0.11343 0.20536 0.20027 0.047033 0.032729 0.03947 0.034209 
-0.36828 -0.40757 0.21852 0.24663 0.077943 0.048841 0.024344 -0.0075525 
-0.3594 -0.46512 0.079751 0.21654 0.055582 0.034866 0.0227 -0.031721 
-0.016595 -0.31665 -0.062138 0.068078 -0.038298 0.022864 0.019247 0.016945 
0.21178 -0.025145 -0.014458 0.057884 -0.036818 0.051965 0.019905 0.055418 
0.20865 0.38457 0.017274 0.05772 -0.034188 0.033715 0.016123 0.060186 
0.15801 0.59042 0.027961 0.062652 -0.030899 0.013657 0.010697 0.074983 
0.16936 0.44738 0.042923 0.074819 -0.03205 0.031085 0.0090533 0.09422 
0.16278 0.097344 0.049006 0.077778 -0.030735 0.025988 0.0037921 0.062652 
0.10458 -0.16934 -0.0073881 0.041607 -0.063453 -0.0044286 -0.02235 0.0095465 
-0.0019624 -0.51625 -0.11146 -0.048327 -0.12577 -0.024323 -0.043395 -0.057863 
-0.22836 -0.45098 -0.17377 -0.10653 -0.16177 -0.031721 -0.051451 -0.12198 
-0.34657 -0.21093 -0.11853 -0.074633 -0.13136 0.028947 -0.018404 -0.10406 
-0.18643 -0.20518 -0.066741 -0.013965 -0.08384 0.025166 -0.0039354 -0.048656 
-0.092061 -0.0868 -0.021034 0.010697 -0.060165 0.034866 0.016123 -0.0090322 
0.12497 0.21046 -0.016102 0.017438 -0.059178 0.044238 0.013328 0.053774 
0.28773 0.40973 0.070873 0.081889 -0.018239 0.047033 0.01974 0.10704 
0.23446 0.42157 0.18958 0.17265 0.031742 0.022535 0.023193 0.077121 
0.14058 0.33295 0.19698 0.20684 0.044402 0.025495 0.0047785 0.045882 
0.085999 0.31322 0.18974 0.22131 0.047362 0.017603 -0.0034422 0.034373 
0.067585 0.25732 0.14486 0.18514 0.03388 0.037497 0.025988 0.071695 
0.037004 0.19977 0.10392 0.15292 0.025001 0.030263 0.0069159 0.080409 
0.065283 0.10293 0.080902 0.12973 0.020727 0.053281 0.023357 0.11937 
0.097508 -0.21323 0.038483 0.10408 0.0039565 0.096193 0.052787 0.1396 
0.26883 -0.34937 -0.027118 0.076956 -0.018239 0.041278 0.029276 0.09685 
0.33953 -0.56755 -0.082196 -0.0029489 -0.077264 0.00033937 -0.0078813 0.029769 
0.27064 -0.51263 -0.20288 -0.1016 -0.14369 0.012342 -0.013471 0.0019835 
0.2657 0.0036276 -0.14944 -0.1016 -0.14796 -0.020212 -0.036489 -0.052273 
0.21737 0.55573 -0.0040998 -0.01117 -0.093212 -0.020377 -0.037476 -0.031064 
-0.20518 0.69055 0.052459 0.049499 -0.056219 0.01152 -0.029584 -0.061151 
-0.44966 0.51594 0.077449 0.090438 -0.029255 0.011355 -0.018404 -0.069536 
-0.58925 0.17462 0.087479 0.1054 -0.017088 0.027468 -0.012156 -0.05178 
-0.40971 0.035524 0.084848 0.10655 -0.014622 0.027303 -0.0027845 0.0016547 
-0.038298 0.017932 0.12891 0.14568 0.014315 0.043087 0.014315 0.027796 
0.16475 -0.029255 0.18974 0.21523 0.057227 0.025166 0.021549 0.081231 
0.25748 -0.10686 0.15653 0.22526 0.064296 0.036017 0.014808 0.11724 
0.27935 -0.18348 -0.010676 0.10573 -0.0087034 0.031085 0.0093821 0.096521 
0.19024 -0.15783 -0.10258 0.0024767 -0.068879 0.023028 0.013328 0.071531 
0.15209 0.010862 -0.18002 -0.080059 -0.12083 0.02122 -0.0011404 0.062488 
0.25748 0.11494 -0.19383 -0.12445 -0.1427 0.016288 -0.0027845 0.074983 
0.22312 0.14321 -0.14813 -0.10834 -0.12412 0.031578 0.013821 0.069886 
0.16097 0.33311 -0.0021268 -0.014951 -0.059672 0.051143 0.022864 0.046211 
0.072188 0.34627 0.12381 0.085177 -0.0080457 0.044238 0.02122 0.021549 
-0.056383 -0.036818 0.079094 0.091589 -0.014622 0.037826 0.023028 0.023357 
-0.16309 -0.31517 0.0592 0.084026 -0.027282 0.01267 0.00033937 0.0056006 
-0.23017 -0.36137 0.011026 0.073997 -0.039942 -0.0090322 -0.018733 -0.034188 
-0.15306 -0.46791 0.03651 0.11428 -0.018239 0.011026 -0.0088678 -0.048163 
-0.030899 -0.01117 0.24071 0.22279 0.049335 0.0085601 -0.012156 -0.012485 
0.084848 0.39099 0.22822 0.25041 0.076134 0.0092177 -0.009361 0.0092177 
0.088301 0.13993 -0.038462 0.094384 -0.018733 0.0324 -0.00064712 0.055254 
0.023686 -0.08828 -0.16917 -0.045368 -0.10456 0.030263 0.010697 0.070215 
-0.055561 -0.02794 -0.001798 0.016288 -0.065426 0.0044497 -0.0055795 0.0689 
-0.011827 0.21457 0.25321 0.19336 0.049006 0.041278 0.0065871 0.061995 
0.11263 0.21589 0.305 0.27836 0.10458 0.04917 0.019247 0.0592 
0.26768 0.10721 0.21967 0.24647 0.087314 0.051472 0.042429 0.10556 
0.34462 -0.029255 0.10918 0.17462 0.035853 0.043251 0.024837 0.069064 
0.26521 -0.13941 -0.045861 0.080738 -0.038133 0.00017495 -0.0026201 0.026152 
0.028619 -0.069043 -0.091897 0.01826 -0.09091 -0.015609 -0.015773 0.00066819 
-0.35348 0.048184 -0.0034422 0.037168 -0.068057 -0.0072237 -0.022679 -0.028762 
-0.44012 0.34742 0.10737 0.11362 -0.0027845 0.023193 -0.0040998 -0.011334 
-0.24579 0.50082 0.0028056 0.068242 -0.025145 0.042923 0.019083 0.0093821 
-0.096336 0.054596 -0.15618 -0.049642 -0.10078 0.033715 0.010862 -0.004593 
0.061337 -0.22918 -0.092061 -0.046354 -0.098638 0.021384 0.0056006 0.026646 
0.22328 -0.015609 0.093233 0.062652 -0.036489 0.01974 0.0031344 0.041443 
0.27392 0.21901 0.14683 0.12973 -0.0062372 -0.006566 -0.018568 0.018589 
0.1835 0.21095 0.1978 0.18613 0.020727 -0.020541 -0.033201 0.026974 
0.011191 -0.042901 0.16327 0.19879 0.031578 0.021713 -0.017417 0.021878 
-0.096007 -0.57314 -0.0024557 0.12924 -0.0090322 0.011355 -0.015116 0.011684 
-0.061316 -0.47482 -0.097651 0.027632 -0.054246 0.035031 0.007738 0.080738 
0.13154 -0.070852 -0.041257 0.020398 -0.035503 0.093891 0.055254 0.1322 
0.45083 0.21638 0.1197 0.11839 0.039141 0.1128 0.076134 0.1636 
0.45264 0.38737 0.23693 0.21572 0.077778 0.054432 0.061172 0.086821 
0.25765 0.53682 0.11888 0.17297 0.018096 -0.0073881 -0.0052507 -0.035667 
-0.021856 0.58335 0.093562 0.15028 -0.012485 -0.036654 -0.041257 -0.092226 
-0.51723 0.35876 0.15851 0.17297 -0.0047575 -0.05589 -0.046847 -0.12363 
-0.81318 -0.053917 0.14996 0.17429 0.0075736 0.007738 -0.034188 -0.10193 
-0.47268 -0.13448 0.16179 0.18432 0.035031 0.038483 0.0047785 0.030592 
0.077449 0.1664 0.11346 0.17215 0.034866 0.047033 0.036675 0.12447 
0.31766 0.036346 -0.15372 0.018754 -0.068057 0.021713 0.0067515 0.074983 
0.50838 -0.24924 -0.40938 -0.21718 -0.20551 0.012835 -0.0050863 0.10408 
0.42699 -0.59961 -0.44637 -0.32668 -0.25023 0.031085 0.0079024 0.1179 
0.16508 -0.85362 -0.32882 -0.29725 -0.23066 0.019411 0.0021479 0.050814 
-0.074962 -0.56787 -0.19745 -0.21077 -0.20501 -0.0078813 -0.018897 -0.036654 
-0.29281 -0.091568 0.058213 -0.018404 -0.10028 -0.037969 -0.037969 -0.074304 
-0.35299 0.45314 0.32243 0.22164 0.052952 0.00099702 -0.024487 -0.018897 
-0.1062 0.79068 0.38901 0.34265 0.13845 0.042758 0.010533 0.042923 
0.032893 0.55935 0.23578 0.28642 0.10145 0.054596 0.014808 0.054432 
0.29415 0.45659 0.088301 0.18169 0.037826 0.029934 0.0082312 0.025001 
0.38918 0.4242 0.026646 0.11428 0.0090533 0.035195 0.015794 0.068571 
0.22559 0.24844 -0.033859 0.075312 -0.01528 0.060679 0.025166 0.049006 
0.032729 -0.25072 -0.27292 -0.12166 -0.15339 0.030756 0.0087245 -0.0040998 
-0.27127 -0.66389 -0.34838 -0.23773 -0.23938 -0.028926 -0.018568 -0.058521 
-0.50474 -0.62016 -0.16424 -0.1547 -0.19466 -0.026296 -0.043395 -0.11278 
-0.24447 -0.072825 0.038483 -0.0047575 -0.094363 -0.01528 -0.035338 -0.028926 
0.0052718 0.31618 0.094548 0.078107 -0.034352 0.028783 0.011026 0.062817 
0.06479 0.43768 0.10688 0.12069 0.0021479 0.052623 0.013657 0.084026 
0.099316 0.38721 0.22164 0.20602 0.053938 0.041936 0.012506 0.08304 
0.17445 0.36846 0.30664 0.28395 0.10063 0.039305 0.025001 0.072681 
0.14469 0.20372 0.15933 0.21589 0.052459 0.029276 0.013164 0.0056006 
0.074326 -0.133 -0.049971 0.076627 -0.033365 0.014808 0.00083261 0.011191 
0.051801 -0.4513 -0.23822 -0.070194 -0.12314 0.028125 0.0044497 -0.0029489 
0.040785 -0.50901 -0.2647 -0.15635 -0.16769 0.022535 -0.00081153 0.00050378 
0.014479 -0.3229 -0.15141 -0.1205 -0.13382 0.034373 0.0082312 0.037004 
0.01152 -0.10752 -0.031064 -0.036654 -0.081374 0.053609 0.024179 0.020891 
-0.0047575 0.24828 0.11461 0.086821 -0.010841 0.041443 0.012506 0.018918 
-0.0072237 0.51759 0.26094 0.21868 0.064132 0.0421 0.021549 0.060515 
0.10244 0.47665 0.27787 0.27968 0.096686 0.064296 0.03092 0.10145 
0.26603 0.36912 0.15522 0.21671 0.047033 0.032236 0.013821 0.093233 
0.27886 0.43061 0.020562 0.10885 -0.023501 0.01267 0.0037921 0.054432 
0.085835 0.33558 -0.042573 0.030427 -0.070194 -0.014458 -0.029584 0.03651 
-0.072825 -0.15618 -0.12297 -0.035832 -0.09798 0.013986 -0.016102 0.015137 
-0.39951 -0.71963 -0.29528 -0.13448 -0.15405 0.015137 0.0018191 -0.030899 
-0.28031 -0.55554 -0.12166 -0.088608 -0.11952 0.039963 0.0095465 0.018425 
0.13088 0.047362 0.21128 0.1299 0.019905 0.053774 0.030263 0.10984 
0.40858 0.57447 0.32933 0.28182 0.11214 0.091096 0.065612 0.11707 
0.48536 0.8571 0.32719 0.33229 0.14042 0.091589 0.060844 0.079422 
0.43867 0.59782 0.14519 0.23216 0.066269 0.03651 0.027303 0.0016547 
0.11954 -0.49997 -0.22951 -0.038462 -0.121 -0.0060728 -0.015773 -0.11294 
-0.29265 -1.3855 -0.41579 -0.255 -0.25483 -0.041915 -0.047012 -0.15059 
-0.59566 -1.1196 -0.26831 -0.23675 -0.23905 -0.046025 -0.060658 -0.145 
-0.62213 -0.24924 0.0092177 -0.063618 -0.12971 -0.021363 -0.046519 -0.089431 
-0.13777 0.50246 0.29546 0.19813 0.038648 0.0072447 -0.02235 0.043745 
0.20635 0.91695 0.39049 0.36813 0.14831 0.038977 0.0075736 0.13154 
0.33969 0.94079 0.36846 0.39954 0.16541 0.047197 0.028783 0.13154 
0.30829 0.62462 0.24663 0.33048 0.12053 0.038155 0.017767 0.11625 
0.20964 0.25978 0.16311 0.25074 0.080573 0.065776 0.033715 0.11543 
0.24696 0.037497 0.037168 0.14305 0.01826 0.06594 0.036675 0.10047 
0.28527 -0.12346 -0.068221 0.035195 -0.047998 0.047855 0.03092 0.10951 
0.17018 -0.11245 -0.12264 -0.039778 -0.098638 0.016123 0.0083956 0.048513 
0.11346 0.11987 0.01826 0.021056 -0.050958 0.046375 0.018754 0.036182 
0.12924 0.45396 0.28445 0.20849 0.071202 0.071202 0.042594 0.070051 
0.093398 0.57842 0.32703 0.29694 0.11773 0.049499 0.04917 0.042923 
0.043251 0.02681 0.065612 0.16755 0.019411 0.037168 0.016616 0.010533 
-0.072167 -0.62887 -0.18528 -0.0062372 -0.10225 -0.036654 -0.035996 -0.024158 
-0.21504 -1.1455 -0.26979 -0.1233 -0.15947 -0.031721 -0.021528 -0.034352 
-0.36367 -1.0932 -0.23609 -0.1598 -0.17032 0.0062583 -0.022185 -0.054904 
-0.26075 -0.11935 -0.072989 -0.072003 -0.12116 0.014972 -0.011498 -0.044546 
0.034702 0.59864 0.048513 0.029934 -0.062796 0.017932 0.0031344 -0.0042642 
0.23134 0.6381 0.12546 0.11658 -0.011498 0.01267 -0.013143 0.051636 
0.22789 0.35958 0.17117 0.17495 0.024179 0.01563 -0.0067304 0.07301 
0.13647 0.10885 0.12562 0.15472 0.007738 0.044896 0.010533 0.04506 
0.047855 -0.011992 0.030756 0.092247 -0.03501 0.017438 0.00083261 0.023193 
-0.029091 -0.061316 0.020727 0.065447 -0.049807 0.0044497 -0.014622 0.024015 
-0.020212 -0.049314 0.037497 0.081067 -0.032379 0.02829 -0.0019624 0.015465 
-0.052602 -0.0083746 -0.0040998 0.087808 -0.017582 0.042923 0.012835 0.0069159 
-0.014293 -0.13316 0.019083 0.077778 -0.020706 0.023686 0.0074092 0.020891 
0.11378 -0.14303 0.17462 0.16689 0.03651 0.065283 0.025988 0.082875 
0.22476 0.053281 0.28642 0.26932 0.095371 0.041936 0.021056 0.10392 
0.16031 0.071202 0.20405 0.24795 0.072681 0.038155 0.017603 0.063803 
-0.045532 0.32111 0.079258 0.16459 0.01415 0.022864 -0.00081153 -0.0095255 
-0.34904 0.46432 -0.0032777 0.090274 -0.040928 -0.028269 -0.038462 -0.067728 
-0.3811 0.2075 -0.046683 0.027303 -0.080059 -0.033859 -0.030899 -0.070194 
-0.0078813 0.0065871 -0.033694 0.0072447 -0.077593 0.019905 -0.0083746 0.046211 
0.22 -0.049807 -0.0016336 0.022206 -0.0503 0.072024 0.034537 0.15275 
0.22 -0.19268 0.012013 0.047033 -0.031064 0.051472 0.041114 0.12036 
0.16804 -0.07003 -0.094363 0.015465 -0.065426 0.030756 0.0095465 0.062817 
0.12447 0.18202 -0.12692 -0.047505 -0.11738 -0.023172 -0.02794 -0.00064712 
-0.0039354 0.17034 -0.13415 -0.070194 -0.13612 -0.015444 -0.029584 -0.029091 
0.0786 0.21046 0.01415 0.013821 -0.075127 0.009711 -0.015938 0.021878 
0.12743 0.19583 0.18498 0.15209 0.021384 0.043251 0.012835 0.085341 
0.028783 -0.10965 0.22213 0.21885 0.069886 0.074161 0.040128 0.08715 
-0.15832 -0.49635 0.13565 0.19616 0.059693 0.074819 0.043745 0.062981 
-0.24661 -0.52447 0.080902 0.14058 0.027468 0.040456 0.026974 0.023193 
-0.1723 -0.34 0.013821 0.056569 -0.037311 0.031085 0.019411 -0.030242 
0.010204 0.11658 -0.040928 0.013328 -0.08384 -0.021363 -0.025474 -0.0083746 
0.10672 0.6626 0.063639 0.065118 -0.056548 -0.0040998 -0.029748 0.034702 
0.23068 0.98469 0.11937 0.15341 0.0075736 0.03651 -0.0055795 0.059528 
0.305 0.75697 0.034373 0.10573 -0.012485 0.038812 0.01152 0.0786 
0.25847 0.15423 -0.13053 -0.014951 -0.08269 0.031414 0.018589 0.030427 
0.15522 -0.30909 -0.049642 -0.006566 -0.075127 0.028125 0.0037921 0.019247 
-0.046025 -0.3012 0.086985 0.081067 -0.034188 -0.0088678 -0.021034 -0.0024557 
-0.26272 -0.029584 0.097179 0.11066 -0.028104 -0.00064712 -0.0077169 -0.020377 
-0.13793 0.074819 0.034866 0.089123 -0.032215 0.024179 -0.0047575 0.026646 
0.23594 0.026152 -0.0042642 0.043416 -0.045203 0.04917 0.019411 0.085341 
0.34709 0.038648 0.014315 0.043416 -0.038133 0.049992 0.038483 0.13927 
0.44491 0.10655 0.032564 0.054925 -0.03501 0.033387 0.018754 0.16936 
0.32736 0.082382 0.011191 0.062817 -0.03764 0.0074092 -0.0098543 0.10474 
-0.17525 -0.0082102 -0.0072237 0.078107 -0.023665 0.030098 0.00066819 0.017932 
-0.7165 -0.20534 -0.07562 0.0079024 -0.064111 0.01152 -0.0067304 -0.081045 
-0.92449 -0.31073 -0.17936 -0.08384 -0.12955 -0.0078813 -0.02498 -0.19054 
-0.72588 -0.17591 -0.13908 -0.087129 -0.12741 0.0065871 -0.02087 -0.15503 
-0.059178 0.079094 -0.042901 -0.033037 -0.086307 0.029276 0.00066819 0.019905 
0.53468 0.42749 0.088465 0.069886 -0.026953 0.060679 0.033222 0.15193 
0.72524 0.70436 0.18613 0.1664 0.037661 0.07449 0.044567 0.19155 
0.67394 0.57382 0.1955 0.19944 0.062488 0.068242 0.041278 0.16377 
0.31914 0.15226 0.072517 0.13121 0.020562 0.044567 0.027303 0.064132 
0.085177 -0.074304 0.065776 0.11214 -0.004593 0.033715 0.0095465 0.019576 
0.12973 -0.047834 0.13368 0.16969 0.010862 -0.010676 -0.023665 -0.047176 
0.042594 -0.35479 -0.027447 0.094055 -0.053917 -0.062467 -0.061151 -0.14336 
-0.11146 -0.23033 -0.10045 0.00050378 -0.12001 -0.076277 -0.090746 -0.16391 
-0.2374 0.090109 -0.061316 -0.0067304 -0.11952 -0.086636 -0.099953 -0.11261 
-0.092061 0.2514 0.027303 0.044896 -0.071509 -0.0026201 -0.021692 0.022371 
-0.026624 0.10491 0.089287 0.10244 -0.011992 0.068571 0.024344 0.10803 
-0.13152 -0.079237 0.087643 0.11987 0.018918 0.077614 0.044567 0.081231 
-0.14615 -0.12297 -0.073482 0.023357 -0.042079 0.054596 0.05213 0.048513 
-0.075455 -0.17641 -0.20962 -0.10965 -0.13382 0.027468 0.015959 0.042923 
0.014315 0.072681 -0.0965 -0.085156 -0.1284 0.0013258 -0.0052507 0.027468 
0.053281 0.033551 0.076792 0.038648 -0.058028 0.021713 0.0046141 0.0031344 
0.068736 -0.089431 0.069393 0.10195 -0.014787 0.02829 0.0036276 0.032729 
0.11181 0.048513 0.060844 0.1276 0.004943 0.049992 0.026481 0.031085 
0.084026 0.013986 0.12891 0.15768 0.034866 0.056733 0.029934 0.038812 
0.035031 -0.30859 0.13647 0.17215 0.046211 0.045389 0.023357 0.025495 
0.042758 -0.19893 0.1197 0.16442 0.032729 0.040292 0.017932 0.01563 
0.099152 0.50542 0.21095 0.21934 0.054267 0.084355 0.014643 0.022864 
0.1054 0.79545 0.18136 0.21572 0.038648 -0.0068948 -0.017911 -0.0016336 
0.031742 0.32489 0.051636 0.12053 -0.020212 0.018754 -0.0052507 -0.026296 
-0.0095255 -0.31731 -0.078744 0.014972 -0.073976 0.024344 -0.006566 0.013821 
-0.025802 -0.31139 -0.011498 0.02681 -0.054904 0.05476 0.020562 0.058213 
0.012999 -0.27029 0.069064 0.073997 -0.024323 0.039799 0.03536 0.041114 
0.026974 -0.32323 0.028783 0.091753 -0.015938 0.028454 0.029934 0.034209 
0.0062583 -0.40445 -0.023336 0.071695 -0.02646 0.038648 0.019576 0.027632 
0.046211 -0.45278 -0.033694 0.037004 -0.041751 0.037661 0.030592 0.038812 
0.10376 -0.14434 -0.033859 0.017438 -0.06 0.034373 0.012506 0.026317 
0.089452 0.41137 -0.018733 0.024673 -0.062631 0.01004 -0.0014692 0.0095465 
-0.0067304 0.65882 0.0080668 0.037826 -0.063124 0.00083261 -0.0073881 -0.014951 
0.028783 0.79528 0.055418 0.071695 -0.041422 0.019905 -0.0052507 0.023028 
0.018096 0.78196 0.099481 0.10852 -0.022843 -0.0011404 -0.018075 0.032071 
0.0019835 0.34692 0.18317 0.18415 0.029605 0.031907 0.00083261 0.040456 
-0.032215 -0.29741 0.086657 0.13401 -0.0029489 0.015794 -0.0052507 0.0014903 
-0.01676 -0.85576 -0.098309 0.0065871 -0.083018 -0.0016336 -0.018404 -0.0090322 
-0.099953 -1.3705 -0.14829 -0.05178 -0.10817 0.013328 -0.020048 -0.02087 
-0.075784 -0.97776 -0.057699 0.0028056 -0.069043 0.024673 -0.0075525 1.0539e-005 
0.10244 -0.09387 0.11576 0.10688 0.00083261 0.046704 0.02122 0.052623 
0.21178 0.8451 0.30171 0.2583 0.097672 0.071859 0.035031 0.10162 
0.17676 1.3666 0.33081 0.32259 0.12924 0.039141 0.015137 0.059528 
0.080902 1.0503 0.12316 0.21737 0.051801 0.020562 0.01152 0.029769 
0.075641 0.54537 -0.044052 0.07597 -0.035338 0.027303 0.0064227 0.04506 
0.10359 0.14848 0.0072447 0.061172 -0.039284 0.017767 0.00017495 0.066434 
0.18169 -0.1187 0.023028 0.057555 -0.037311 0.020891 0.028619 0.099481 
0.183 -0.18397 0.013821 0.044567 -0.039613 0.033058 0.012999 0.095535 
0.17067 -0.26157 -0.08828 -0.011498 -0.062138 0.040621 0.018096 0.069722 
0.14617 -0.34789 -0.19794 -0.088608 -0.099131 0.046375 0.037168 0.074161 
-0.0070593 -0.36022 -0.16079 -0.073154 -0.088115 0.048184 0.013492 0.024837 
-0.2351 -0.33802 -0.089759 -0.058685 -0.09798 0.011684 -0.0068948 -0.060658 
-0.28475 -0.30498 -0.13086 -0.079895 -0.13284 0.0041209 -0.015773 -0.057534 
-0.27785 -0.22869 -0.061645 -0.039613 -0.10932 -0.0096899 -0.022185 -0.015938 
-0.017746 0.052623 0.14848 0.10787 -0.0098543 0.013164 -0.0098543 0.054432 
0.21572 0.26702 0.2121 0.19665 0.039305 0.035524 0.0039565 0.089945 
0.25896 0.63564 0.2486 0.25584 0.071366 0.0056006 -0.013471 0.070215 
0.12168 0.77292 0.21523 0.24499 0.060515 -0.006566 -0.020541 0.025166 
-0.030242 0.78558 0.17412 0.21687 0.044567 -0.00081153 -0.027282 -0.021692 
-0.13086 0.62939 0.12842 0.18284 0.026481 -0.0095255 -0.033365 -0.062631 
-0.044217 0.42765 0.10376 0.1761 0.034044 0.01267 -0.012485 0.035688 
0.1054 -0.016102 0.057884 0.15292 0.021713 0.030592 -0.0088678 0.070051 
0.082875 -0.92103 -0.16391 -0.020048 -0.085978 0.010204 -0.010019 0.025824 
0.034373 -1.2624 -0.28903 -0.15881 -0.16111 -0.010183 -0.0073881 0.029934 
0.039799 -0.52546 -0.27785 -0.20173 -0.17608 0.014808 -0.0138 0.036675 
0.065283 0.23989 -0.13218 -0.13399 -0.13941 0.020398 -0.0042642 0.065612 
0.12332 0.93553 0.18498 0.096521 -0.0016336 0.043251 0.030263 0.080244 
0.16064 1.1797 0.39263 0.30056 0.12118 0.049006 0.036346 0.084519 
0.13565 0.85069 0.35317 0.34216 0.13861 0.049992 0.031414 0.066105 
0.034866 0.052787 0.13023 0.2149 0.05772 0.048184 0.020233 0.03092 
-0.21291 -1.4181 -0.2762 -0.078908 -0.12511 0.010533 -0.0036066 -0.041257 
-0.29149 -1.6134 -0.40576 -0.23921 -0.20518 0.0062583 -0.011992 -0.075949 
-0.11113 -0.5978 -0.23198 -0.1746 -0.16654 0.012013 -0.0044286 -0.00031829 
0.070873 0.48783 0.030427 -0.016924 -0.073482 0.021878 1.0539e-005 0.015465 
0.20323 1.0741 0.15028 0.11346 -0.0040998 -0.001798 -0.01232 0.044238 
0.3581 0.93783 0.13976 0.14897 0.0075736 0.018425 -0.0075525 0.070544 
0.33837 0.33459 0.093398 0.1368 -0.0019624 0.019411 -0.0078813 0.079422 
0.3022 -0.056219 0.20043 0.20125 0.05065 0.034373 0.0090533 0.11839 
0.11378 -0.35759 0.22328 0.23414 0.079751 0.066434 0.027468 0.0786 
-0.16687 -0.68543 0.079094 0.15259 0.024015 0.029934 0.0090533 -0.038298 
-0.48748 -0.38159 -0.047341 0.043251 -0.058028 -0.0095255 -0.0070593 -0.12626 
-0.5322 0.17856 0.036182 0.067091 -0.041915 -0.0032777 -0.021528 -0.10965 
-0.32832 0.38556 0.0095465 0.0786 -0.041751 -0.0016336 -0.031064 -0.066084 
-0.060823 0.39871 -0.068879 0.028947 -0.071345 -0.00031829 -0.0049219 0.028947 
0.11625 0.15357 -0.060658 0.013328 -0.068879 0.040621 0.020233 0.077285 
0.26833 -0.091732 -0.0098543 0.025659 -0.061316 0.03092 0.016781 0.081889 
0.31996 -0.12412 0.041443 0.066105 -0.041586 0.039963 0.022206 0.10277 
0.26537 -0.26124 0.016452 0.05772 -0.047341 0.0088889 0.00066819 0.06331 
0.14174 -0.27719 0.033551 0.076134 -0.031557 -0.0014692 -0.01117 0.046704 
-0.012156 0.076299 0.11691 0.12381 -0.0049219 0.033387 0.0054362 0.019247 
0.0080668 0.36353 0.15867 0.15785 0.014479 0.033715 0.010862 0.02122 
0.094713 0.33311 0.16294 0.17297 0.023028 0.028619 0.010204 0.045389 
0.14091 0.31766 0.13121 0.18054 0.026974 0.052623 0.020069 0.062159 
0.11099 0.20898 0.011191 0.1271 -0.0024557 0.031578 0.012342 0.054925 
0.033715 -0.12462 -0.14484 -0.013965 -0.076277 0.038483 0.01563 0.060844 
0.0080668 -0.21603 -0.109 -0.041751 -0.0868 0.065776 0.028125 0.046375 
-0.051615 -0.11689 0.085835 0.069229 -0.022843 0.04654 0.021384 0.031742 
-0.03616 -0.047834 0.15768 0.14667 0.013164 0.024015 0.013164 0.023522 
0.01415 -0.17723 0.077943 0.12414 -0.010348 0.021713 0.0024767 0.01004 
-0.015116 -0.1205 0.071859 0.11839 -0.011498 0.030263 0.0060938 0.033551 
0.11296 0.20421 0.20964 0.20684 0.052294 0.041278 0.039799 0.10573 
0.32226 0.63202 0.43094 0.35761 0.14617 0.074983 0.047691 0.1567 
0.20323 0.62626 0.41105 0.40233 0.16459 0.04506 0.029441 0.09126 
-0.090253 0.30204 0.16327 0.29152 0.082875 -0.012156 0.0065871 -0.028269 
-0.24398 -0.24875 -0.22951 0.01711 -0.09798 -0.024652 -0.039284 -0.13695 
-0.097322 -0.7336 -0.47876 -0.27078 -0.27851 -0.073976 -0.079237 -0.14467 
0.086821 -0.28574 -0.39853 -0.31484 -0.29659 -0.057699 -0.072989 -0.075127 
-0.032215 0.41499 -0.23675 -0.22622 -0.23494 -0.055232 -0.088773 -0.075784 
-0.018404 0.4584 -0.016102 -0.067235 -0.13053 0.0062583 -0.034845 0.013986 
0.2297 0.094055 0.047362 0.026317 -0.062631 0.045553 0.004943 0.12875 
0.16146 -0.19729 0.067585 0.076299 -0.024816 0.077943 0.036017 0.094384 
-0.0088678 0.21572 0.15851 0.14568 0.020727 0.041278 0.028619 0.077121 
0.13171 0.77489 0.18415 0.1835 0.037332 0.047855 0.018754 0.064954 
-0.024816 0.6774 0.14305 0.18235 0.026974 0.013164 -0.0087034 0.028454 
-0.35742 0.26291 0.064132 0.14848 0.0036276 0.0080668 -0.0091966 -0.0095255 
-0.29297 -0.109 0.038648 0.13565 0.004943 0.052459 0.019576 0.04506 
-0.064933 -0.56228 -0.067564 0.039799 -0.04471 0.046704 0.021056 0.052294 
0.09685 -0.56722 -0.13201 -0.03764 -0.080223 0.038155 0.041607 0.04654 
0.14979 -0.12018 0.084026 0.072517 -0.0098543 0.068242 0.042429 0.048677 
0.084519 0.19057 0.33953 0.26274 0.10014 0.041114 0.023193 0.037661 
0.059693 0.43439 0.46497 0.41137 0.17577 0.039305 0.029441 0.040621 
0.1105 0.5314 0.40282 0.43143 0.17297 0.021549 0.0051074 0.012999 
0.12464 0.17265 0.17922 0.2851 0.068242 -0.019555 -0.028269 -0.010676 
0.017603 -0.45821 -0.10308 0.055747 -0.078415 -0.023994 -0.036325 -0.061316 
-0.048985 -1.0664 -0.29856 -0.14484 -0.1917 -0.027611 -0.05326 -0.098638 
-0.014129 -1.1971 -0.44045 -0.29248 -0.25779 -0.021856 -0.041915 -0.059836 
0.092247 -0.64235 -0.48172 -0.34082 -0.2573 0.060844 0.0037921 0.024837 
0.056733 0.29053 -0.29478 -0.27719 -0.20485 0.058213 0.027303 0.081231 
-0.093376 0.9056 -0.049807 -0.10176 -0.11031 0.060679 0.027632 0.087808 
-0.072167 0.98058 0.13368 0.069064 -0.027282 0.062488 0.025166 0.058049 
0.021384 0.69351 0.20421 0.17248 0.013986 0.011026 -0.0036066 0.014315 
0.052294 0.38277 0.18415 0.20043 0.020233 -0.010348 -0.018897 -0.0036066 
0.027632 0.15407 0.036675 0.12135 -0.028433 -0.012156 -0.02794 -0.031721 
0.0026412 -0.056383 -0.074962 0.019905 -0.083018 -0.0080457 -0.028597 -0.0087034 
-0.017746 -0.34394 -0.11146 -0.041093 -0.10045 0.018096 -0.0083746 0.03092 
-0.010183 -0.6195 -0.033859 -0.016595 -0.073154 0.027796 -0.0034422 0.036839 
0.060679 -0.54058 0.12414 0.11888 0.0062583 0.044567 0.012506 0.052952 
0.10787 -0.41809 0.23331 0.24778 0.089945 0.043416 0.039963 0.09126 
0.1345 -0.18134 0.2371 0.26751 0.10737 0.064625 0.044238 0.10326 
0.11905 0.16936 0.093398 0.18185 0.038648 0.031249 0.017438 0.055911 
-0.1353 0.10556 -0.11903 0.016781 -0.073811 0.027139 0.039799 -0.055232 
-0.15848 0.15144 -0.14221 -0.05178 -0.11541 0.012999 0.0023123 -0.051122 
0.0042853 0.6187 -0.0052507 0.0056006 -0.08121 0.0059294 0.0011614 -0.025145 
-0.029913 0.77802 0.053116 0.062159 -0.04882 0.0021479 -0.003771 0.012013 
-0.20896 0.35794 -0.0014692 0.05065 -0.056055 -0.01232 -0.024487 -0.01232 
-0.055726 -0.055726 0.0036276 0.036346 -0.053753 0.029112 0.00033937 0.059364 
0.31075 -0.30728 0.041278 0.062817 -0.018897 0.083697 0.043251 0.11592 
0.63547 -0.29659 0.082711 0.10967 0.014808 0.072353 0.043745 0.15292 
0.52778 -0.13333 0.045718 0.12595 0.012342 0.027796 0.019247 0.13088 
0.2297 0.12546 0.14124 0.15883 0.029276 0.042429 0.020891 0.10787 
0.099481 0.52548 0.28478 0.26422 0.096193 0.05213 0.02533 0.1077 
-0.021363 0.52975 0.25469 0.28083 0.10195 0.034866 0.0062583 0.028125 
-0.30695 0.13927 0.076956 0.17544 0.02829 0.02533 -0.003771 -0.052273 
-0.3377 0.12908 0.1225 0.16015 0.016616 -0.0091966 -0.021199 -0.094527 
-0.069701 0.31437 0.19961 0.21112 0.040128 -0.02235 -0.025474 -0.093376 
-0.11689 0.13319 0.13845 0.18103 0.0036276 -0.037147 -0.055561 -0.11524 
-0.12675 0.13039 0.12743 0.16853 -0.006566 -0.051122 -0.064768 -0.029255 
0.18202 0.25978 0.077614 0.12464 -0.020212 -0.0096899 -0.029255 0.069393 
0.26077 -0.218 -0.21521 -0.057041 -0.12248 0.00297 -0.02794 0.10113 
0.17988 -0.82535 -0.47547 -0.26239 -0.21899 0.020562 -0.010676 0.084026 
-0.015609 -1.4465 -0.67178 -0.48419 -0.29067 0.034866 0.014479 0.052459 
-0.19038 -1.1203 -0.55965 -0.49553 -0.28163 0.051143 0.01267 0.021384 
-0.0040998 -0.06444 -0.1644 -0.25417 -0.17427 0.071202 0.038977 0.076956 
0.329 0.72902 0.26603 0.092576 0.01415 0.076956 0.05624 0.11806 
0.40315 0.90527 0.39855 0.29776 0.11559 0.037332 0.026481 0.076627 
0.072353 0.74727 0.40217 0.37997 0.14946 0.015137 -0.00064712 0.027961 
-0.19433 0.5776 0.33295 0.36419 0.13812 0.021384 -0.0022913 0.026317 
-0.065919 0.53518 0.27113 0.31733 0.10852 0.017438 -0.0073881 0.051472 
-0.14418 0.40776 0.19895 0.25699 0.061172 -0.0091966 -0.024323 -0.025967 
-0.16654 0.20536 0.12431 0.21408 0.038319 -0.00064712 -0.032708 -0.061809 
-0.020541 -0.030077 0.083204 0.1858 0.028947 0.00066819 -0.025638 -0.026789 
0.086328 -0.17065 0.076134 0.14946 0.019083 0.022371 -0.0019624 0.030427 
0.062323 -0.22474 -0.027282 0.062817 -0.027118 0.0421 0.01826 0.047033 
0.071366 -0.25105 -0.11623 -0.019061 -0.073976 0.039963 0.016452 0.045389 
0.066927 -0.14911 -0.040106 -0.0019624 -0.067564 0.045389 0.026974 0.029605 
0.065118 0.060022 0.071531 0.070708 -0.023336 0.037497 0.01563 0.032071 
0.075312 0.1567 0.092904 0.11132 0.0013258 0.035195 0.014643 0.053116 
0.080738 0.092082 0.046704 0.086985 -0.014787 0.055911 0.042594 0.068736 
0.016123 -0.22359 -0.061151 0.0065871 -0.065262 0.052623 0.031249 0.065283 
-0.061645 -0.61539 -0.15947 -0.079895 -0.12577 0.02122 0.0092177 0.044896 
0.031085 -0.50392 -0.15109 -0.082854 -0.12675 0.050321 0.028454 0.021056 
0.1345 0.081067 -0.075784 -0.023501 -0.099624 0.0072447 0.0046141 0.031578 
0.16344 0.40151 0.043087 0.036839 -0.060165 0.016123 -0.0029489 0.062488 
0.1562 0.52219 0.11132 0.11329 -0.0039354 0.037497 0.0056006 0.030427 
0.0592 0.25239 0.042594 0.087479 -0.022679 0.023522 0.012013 -0.0091966 
-0.092226 -0.071674 -0.040106 0.027468 -0.063618 -0.011334 -0.017746 -0.031886 
-0.15914 -0.35644 -0.13021 -0.043559 -0.10719 0.00066819 -0.02942 -0.041751 
-0.31583 -0.45246 -0.059178 -0.027611 -0.094692 0.019247 -0.016266 0.010204 
-0.29363 -0.028926 0.097344 0.06742 -0.031557 0.031249 0.0046141 0.021549 
-0.26996 0.32835 0.12513 0.11773 -0.0096899 0.038977 0.0062583 0.0080668 
-0.010676 0.3997 0.18794 0.18317 0.02829 0.024837 0.0047785 0.043087 
0.26439 0.39987 0.3022 0.30434 0.11724 0.051636 0.03388 0.073997 
0.28017 0.2491 0.32522 0.36452 0.16985 0.10326 0.06035 0.13006 
0.19583 0.11543 0.18925 0.27146 0.11099 0.054432 0.041443 0.11378 
0.077614 0.035853 -0.082032 0.07301 -0.019226 0.040456 0.039799 0.022864 
-0.18397 -0.31402 -0.29396 -0.12823 -0.15881 0.0060938 -0.012485 -0.082525 
-0.37485 -0.50951 -0.46528 -0.3155 -0.29084 -0.04619 -0.051944 -0.097487 
-0.099131 -0.20337 -0.36318 -0.31649 -0.28837 -0.038462 -0.053588 -0.024487 
0.26883 -0.05178 -0.044874 -0.11968 -0.14484 0.023522 -0.015609 0.11543 
0.51627 0.20438 0.26653 0.13713 0.031742 0.067091 0.029605 0.18383 
0.59223 0.39197 0.35103 0.2782 0.11231 0.076299 0.044402 0.11329 
0.68512 0.35219 0.30911 0.32703 0.11937 0.041443 0.025659 0.068078 
0.22904 0.20865 0.26011 0.33476 0.11378 0.011355 -0.00064712 -0.013471 
-0.59451 0.20355 0.24778 0.31519 0.099974 0.012177 -0.021199 -0.095021 
-0.7364 0.37619 0.17199 0.24926 0.057062 0.0023123 -0.018239 -0.046683 
-0.34509 0.14535 0.0093821 0.12891 -0.0082102 0.030756 0.010204 0.053281 
-0.1376 -0.26404 -0.080717 0.025495 -0.060658 0.063145 0.02829 0.085835 
-0.034023 -0.12149 -0.12264 -0.040271 -0.10143 0.036675 0.016123 0.057391 
0.30615 0.38178 -0.13086 -0.070852 -0.12725 0.0013258 -0.0050863 0.023851 
0.55918 0.69466 -0.049971 -0.034516 -0.11015 -0.0072237 -0.016924 0.025988 
0.50377 0.79479 0.049992 0.035195 -0.075127 -0.020706 -0.032379 0.044073 
0.16393 0.45231 0.13615 0.11724 -0.03057 -0.01528 -0.020706 0.013328 
-0.23675 -0.02235 0.079751 0.1202 -0.030242 -0.00064712 -0.030735 -0.0072237 
-0.5419 -0.60339 -0.15569 -0.00031829 -0.10669 -0.019061 -0.03912 -0.069536 
-0.24135 -0.63249 -0.19022 -0.082525 -0.14139 -0.0067304 -0.019555 -0.016595 
0.13516 -0.57856 -0.093376 -0.057534 -0.10143 0.044896 0.01152 0.054432 
0.19155 -0.46758 -0.048327 -0.020377 -0.074798 0.037004 0.016616 0.042429 
0.1197 0.20175 0.07038 0.063474 -0.025967 0.051143 0.027632 -0.00064712 
0.038155 0.56181 0.15341 0.14519 0.01415 0.051308 0.025824 -0.010183 
-0.014951 0.23479 0.1008 0.13598 -0.0040998 0.0093821 -0.00064712 -0.033037 
-0.11097 -0.20879 0.023851 0.078929 -0.044874 -0.023172 -0.031721 -0.022843 
-0.11903 -0.43897 -0.019555 0.035688 -0.064604 0.01152 -0.020048 0.024344 
-0.034188 -0.31172 -0.004593 0.032893 -0.055397 0.0054362 -0.025309 0.050157 
0.14733 0.2588 0.16114 0.14716 0.017274 0.048841 0.0085601 0.084684 
0.26521 0.79084 0.21687 0.2491 0.07449 0.023686 -0.0052507 0.12562 
0.32703 0.83211 0.22411 0.26126 0.078272 0.010697 -0.0055795 0.062488 
0.17939 0.37175 0.14963 0.22016 0.052623 0.037661 -0.0057439 0.023851 
-0.004593 -0.13316 0.07301 0.15341 0.01004 0.022371 -0.0040998 0.04506 
-0.061809 -0.20074 0.01415 0.092904 -0.030077 -0.0039354 -0.0054151 0.025001 
0.0018191 -0.041093 -0.056877 0.025659 -0.074798 0.011026 -0.018897 0.004943 
0.033551 -0.12971 -0.18446 -0.079072 -0.14139 -0.021528 -0.037476 -0.031064 
-0.072989 -0.35529 -0.32964 -0.21586 -0.21718 -0.034023 -0.030242 -0.084498 
-0.079895 -0.38044 -0.38505 -0.30481 -0.25384 0.0082312 -0.021199 -0.03912 
0.171 -0.37469 -0.3035 -0.2841 -0.22968 0.029934 0.00083261 0.062323 
0.4607 0.060186 -0.02235 -0.077428 -0.10308 0.056898 0.041772 0.14502 
0.42864 0.64057 0.23233 0.17708 0.041443 0.017603 0.016945 0.15078 
0.1853 0.69466 0.3392 0.29842 0.10228 0.024837 0.0083956 0.095206 
-0.06707 0.36435 0.28823 0.31421 0.10902 0.05476 0.029934 0.033058 
-0.48221 -0.17476 0.18399 0.25798 0.080902 0.03536 0.017603 -0.028926 
-0.55867 -0.51904 0.062488 0.16048 0.020727 0.042758 0.017603 -0.086307 
-0.20863 -0.49718 -0.022021 0.070873 -0.034352 0.024344 0.0069159 -0.030242 
0.12069 -0.28459 -0.054739 0.012506 -0.070852 0.020727 0.0042853 0.023193 
0.048348 -0.050793 -0.0062372 0.023686 -0.062302 0.016452 -0.0013048 0.033715 
0.15374 0.19205 0.023686 0.042758 -0.044381 0.064954 0.025824 0.090767 
0.2029 0.29185 0.083533 0.08419 -0.015116 0.054103 0.027961 0.10885 
0.19994 0.082053 0.090438 0.11461 0.004943 0.050979 0.029934 0.072846 
0.041607 -0.14878 0.035688 0.11526 0.0016547 0.05065 0.020069 0.054103 
-0.096172 -0.2499 0.024015 0.086985 -0.020212 0.025988 0.0075736 0.0039565 
-0.21011 -0.2864 -0.043066 0.031414 -0.057863 0.007738 0.0064227 -0.026953 
-0.12609 -0.059178 -0.032543 0.020727 -0.070523 -0.0057439 -0.0073881 0.0072447 
0.072681 0.39 0.099645 0.1008 -0.020377 0.016945 -0.0042642 0.053116 
0.17824 0.55409 0.15555 0.16262 0.019905 0.012835 0.0021479 0.074819 
0.23479 0.33246 0.071037 0.12562 -0.0050863 0.037168 0.0036276 0.077449 
0.32276 0.0065871 0.059857 0.10754 -0.011498 0.0421 0.016123 0.037332 
0.15735 -0.15964 0.12875 0.14058 0.015794 0.060186 0.034537 -0.022185 
-0.09239 -0.26864 0.14535 0.16031 0.041278 0.07038 0.046375 -0.014787 
0.042429 -0.34986 0.0013258 0.086163 -0.0026201 0.058706 0.04506 0.059857 
0.054103 -0.40774 -0.18907 -0.033037 -0.077922 0.059528 0.042265 0.077943 
-0.12725 -0.23707 -0.24349 -0.12905 -0.14944 0.0227 0.0062583 0.065612 
-0.16309 0.37504 -0.10571 -0.083347 -0.13678 -0.017417 -0.021034 0.051965 
-0.05178 0.75582 0.17643 0.10589 -0.029748 0.0024767 -0.041915 0.042758 
-0.10949 0.76519 0.4145 0.32637 0.11559 -0.003771 -0.028762 -0.0090322 
-0.066577 0.49325 0.38655 0.3826 0.16344 0.01267 -0.011663 -0.02087 
-0.079895 0.11017 0.2565 0.32308 0.12513 0.056898 0.010533 -0.017253 
-0.28147 -0.26453 0.19073 0.24055 0.066763 0.020233 -0.0016336 -0.035996 
-0.18512 -0.5049 0.052623 0.13993 -0.0055795 0.00033937 -0.00064712 0.013492 
0.030263 -0.55291 -0.15026 -0.030899 -0.11376 0.0095465 0.00297 0.041443 
0.14174 -0.16424 -0.25861 -0.14303 -0.16605 0.0044497 -0.010019 0.039305 
0.20421 0.14157 -0.27423 -0.16786 -0.16177 0.025824 0.019083 0.072846 
0.20454 0.23775 -0.19153 -0.14632 -0.14714 0.038319 0.016123 0.070051 
0.13006 0.14733 -0.041915 -0.054739 -0.10193 0.007738 -0.0068948 0.0013258 
0.028454 0.016781 0.10688 0.073668 -0.022843 0.027468 0.011026 0.013986 
-0.077922 0.10885 0.1858 0.1687 0.03092 0.028947 0.012506 0.01267 
-0.079401 0.28313 0.26077 0.25123 0.075312 0.029934 0.01152 0.01152 
-0.010512 0.31963 0.29464 0.30533 0.11033 0.059528 0.029441 0.069064 
0.072681 0.17939 0.21145 0.26077 0.082382 0.0227 0.014808 0.079422 
0.14946 0.052787 0.14091 0.20109 0.043087 0.0095465 -0.0021268 0.043909 
0.19221 -0.17394 0.023193 0.10672 -0.023665 0.017932 -0.010676 0.0080668 
0.26209 0.030263 -0.050958 0.041114 -0.068714 0.00017495 -0.019061 0.013986 
0.2098 0.58368 -0.0087034 0.067585 -0.052931 -0.03205 -0.040928 0.0054362 
0.099645 0.77983 0.066927 0.099152 -0.027611 0.0083956 -0.026789 -0.019555 
0.057062 0.47007 0.0592 0.095371 -0.027775 -0.00097594 -0.027282 -0.0078813 
-0.093376 0.13023 0.025988 0.077943 -0.029584 0.013657 -0.011992 0.034373 
-0.2887 -0.0062372 0.0031344 0.05772 -0.032708 0.052294 0.010204 0.029276 
-0.22606 -0.49718 -0.18643 -0.071181 -0.099624 0.051965 0.023028 0.044238 
-0.13004 -0.8995 -0.26272 -0.1598 -0.15092 0.041443 0.042594 0.043416 
-0.056548 -0.48402 -0.12659 -0.11574 -0.13859 0.025166 0.012013 0.014479 
0.16179 0.10984 0.13499 0.060844 -0.041257 -0.011334 -0.02087 0.014808 
0.41022 0.27836 0.26537 0.20109 0.029934 -0.019226 -0.012485 0.035524 
0.3826 0.04917 0.21506 0.23956 0.052952 0.015959 -0.017253 0.038977 
0.097837 -0.12675 0.03947 0.17067 0.024179 0.023686 -0.0044286 0.044567 
-0.11064 -0.18002 -0.2374 -0.056548 -0.1062 0.031414 0.007738 0.048019 
-0.1108 0.2685 -0.2716 -0.15881 -0.17361 0.014315 -0.0098543 0.010204 
0.068078 0.57858 -0.075291 -0.07414 -0.12856 -0.023172 -0.032543 0.019905 
0.15883 0.36731 0.080738 0.046704 -0.048985 0.022864 -0.011334 0.053445 
0.093069 0.074326 0.11099 0.11017 -0.0013048 0.037168 0.0070803 0.069722 
-0.012649 -0.01676 0.11806 0.13615 0.01711 0.050486 0.021713 0.078929 
-0.097158 0.067091 0.10606 0.14289 0.017274 0.07301 0.030098 0.093726 
-0.089431 0.16738 0.079094 0.11674 -0.0082102 0.041607 0.016616 0.06594 
0.091096 0.16673 0.034702 0.081395 -0.030242 0.012506 -0.0014692 0.029605 
0.28987 0.050979 0.012177 0.081724 -0.03205 0.010204 -0.0070593 -0.037969 
0.6478 0.031907 0.029605 0.10441 -0.012156 0.015465 -0.0095255 1.0539e-005 
0.73922 -0.2185 -0.044874 0.038977 -0.056548 0.022864 0.0064227 0.023357 
0.50673 -0.60684 -0.12757 -0.034845 -0.10735 -0.0091966 -0.019884 -0.033859 
-0.27653 -0.48501 -0.068879 -0.034352 -0.11245 -0.048985 -0.05589 -0.08121 
-0.899 0.049006 0.0051074 0.019905 -0.076606 -0.024323 -0.031721 -0.061316 
-0.74873 0.28921 -0.029913 0.013492 -0.074962 0.018589 -0.019226 0.0067515 
-0.31764 0.28214 -0.04323 0.0014903 -0.069865 0.040128 0.0060938 0.054267 
0.017274 0.21474 -0.065097 -0.027775 -0.079401 0.037826 0.020233 0.093233 
0.22164 0.01826 -0.022185 -0.010841 -0.06444 0.052294 0.025988 0.11806 
0.30007 -0.073976 0.0054362 0.032564 -0.042408 0.021878 0.0042853 0.10474 
0.22986 0.015301 0.029276 0.078436 -0.02235 0.044238 0.016781 0.059693 
0.13697 0.074326 0.063803 0.11395 -0.0054151 0.025166 0.0067515 0.029934 
0.1031 0.028783 0.10145 0.13319 0.0034632 0.0079024 -0.0054151 0.034866 
0.10984 0.062488 0.15505 0.17774 0.033058 0.029441 -0.0034422 0.042594 
0.053774 -0.079237 0.12842 0.17265 0.031907 0.026317 -0.0029489 -0.0031133 
0.03799 -0.23527 0.056898 0.12381 0.0016547 0.026974 0.0016547 0.011026 
-0.015609 0.0036276 0.066927 0.11395 -0.0064016 0.036346 0.0062583 0.016288 
-0.077757 0.13894 0.038812 0.090931 -0.027775 0.013164 -0.0073881 0.0059294 
-0.12938 0.11247 0.072353 0.096193 -0.024158 0.012506 -0.0050863 0.033058 
-0.19186 -0.043066 0.065612 0.08863 -0.023665 0.023851 -0.0077169 0.036346 
-0.11919 -0.0083746 -0.0042642 0.059693 -0.038462 0.011848 -0.010841 0.010369 
0.051801 0.040456 -0.054246 0.039963 -0.046519 0.020398 0.010369 0.021549 
0.24219 -0.039778 -0.11261 -0.020541 -0.077922 0.040785 0.012999 0.07038 
0.37159 -0.0771 -0.12823 -0.056712 -0.09798 0.034866 0.012177 0.072188 
0.47303 0.087808 0.069393 0.050321 -0.032872 0.057391 0.049006 0.094548 
0.30007 0.17659 0.1784 0.15949 0.031578 0.043087 0.024015 0.068242 
-0.2083 0.045224 0.10935 0.14831 0.011355 0.018589 0.0032988 0.023193 
-0.52496 -0.011334 0.063968 0.12135 -0.0064016 0.020891 0.010369 -0.0062372 
-0.38126 -0.10423 0.041772 0.077121 -0.027118 0.033058 0.0098754 -0.0077169 
-0.073318 -0.11491 0.075312 0.089452 -0.016102 0.016616 0.0018191 0.022206 
