0.10589 0.066763 0.076463 0.11822 0.045224 0.00033937 -0.010183 0.11954 
0.11543 0.0098754 0.041607 0.097179 0.034373 -0.006566 -0.014787 0.083862 
0.050486 -0.019061 0.013328 0.063474 0.0082312 -0.040106 -0.045861 0.04917 
-0.025309 -0.0036066 0.020233 0.053609 -0.0062372 -0.042244 -0.056548 0.032071 
-0.041093 0.019905 0.055089 0.074326 0.0044497 -0.003771 -0.032215 0.024344 
-0.015938 0.040292 0.044896 0.088794 0.015465 -0.0019624 -0.029748 -0.0024557 
0.00083261 -0.0050863 0.01826 0.096357 0.021713 -0.033859 -0.058356 -0.022185 
0.020727 -0.042408 0.0098754 0.070708 0.011026 -0.003771 -0.035338 0.004943 
0.10293 -0.048656 -0.012649 0.046375 -0.0090322 -0.0021268 -0.035996 0.040128 
0.16936 -0.027775 -0.010019 0.043416 -0.015938 0.018918 -0.01117 0.063803 
0.20421 0.03947 0.055911 0.082382 0.0093821 0.092082 0.038812 0.1008 
0.21457 0.10244 0.10556 0.12332 0.042758 0.1128 0.07597 0.147 
0.20438 0.080902 0.10721 0.14256 0.066269 0.13664 0.10129 0.14338 
0.079094 0.060186 0.090767 0.1276 0.059364 0.092904 0.073339 0.044567 
-0.031721 0.041772 0.058213 0.1003 0.037332 0.020069 0.01974 -0.017911 
-0.078744 0.039141 0.054596 0.093398 0.027303 0.0062583 0.010697 -0.04619 
-0.080717 0.062981 0.057884 0.11115 0.036346 0.0031344 -0.019226 -0.01528 
-0.0078813 0.053116 0.052294 0.12858 0.050979 0.017274 -0.0088678 0.039799 
0.071695 0.035031 0.028125 0.094877 0.035195 0.049499 0.026481 0.084026 
0.063145 0.021713 -0.010512 0.059035 0.005765 0.051472 0.025495 0.047855 
0.034373 -0.053095 -0.034681 0.020562 -0.029091 -0.0004827 -0.0091966 -0.080881 
-0.086636 -0.071016 -0.060494 -0.0052507 -0.057534 -0.006566 -0.025474 -0.15421 
-0.06148 -0.023501 -0.0072237 0.011848 -0.052766 -0.018075 -0.028269 -0.069372 
-0.016431 0.0051074 0.038319 0.051965 -0.025309 -0.032872 -0.039613 0.021713 
0.037332 0.033551 0.064461 0.05476 -0.012814 0.010204 -0.023994 0.075805 
0.040621 0.035524 0.031249 0.053281 -0.014787 0.013164 -0.014129 0.095206 
0.063474 0.043909 0.042758 0.069558 -0.0021268 0.014479 -0.0080457 0.10392 
0.080409 0.081889 0.036346 0.099152 0.022864 0.04506 0.0079024 0.16327 
0.15061 0.085341 0.070215 0.1373 0.054267 0.049499 0.019576 0.14798 
0.15209 0.078929 0.090931 0.13384 0.060844 0.053774 0.022042 0.10096 
0.079587 0.10967 0.048513 0.10836 0.045882 0.049006 0.016452 0.061666 
0.072353 0.080573 -0.0406 0.042265 -0.0014692 0.036346 0.0062583 0.02122 
0.11165 0.083862 -0.052437 0.0065871 -0.036325 0.044073 0.032893 0.039141 
0.094877 0.07449 -0.015116 0.017274 -0.040764 0.056898 0.030263 -0.025145 
0.06594 0.014479 0.018425 0.039963 -0.030077 0.044731 0.022042 -0.05178 
0.024015 -0.0031133 0.059035 0.059364 -0.014458 0.045882 0.039799 -0.011827 
-0.011992 -0.028597 0.022371 0.048348 -0.018404 0.024344 0.0092177 0.014643 
0.021384 0.0046141 0.023686 0.06183 -0.01117 -0.027118 -0.024816 0.009711 
0.1271 0.10096 0.06035 0.10902 0.024179 -0.0062372 -0.022021 0.037332 
0.14371 0.11773 0.11033 0.14946 0.063145 0.011191 -0.01676 0.040292 
0.0074092 0.10622 0.12316 0.16097 0.081067 0.027303 -0.0021268 -0.017417 
-0.11015 0.067091 0.11 0.15275 0.082217 0.044731 0.01004 -0.040435 
-0.15684 0.025495 0.074161 0.12891 0.067749 0.041278 0.01415 -0.023336 
-0.12988 0.012835 0.035688 0.096357 0.040128 0.052294 0.029276 0.032071 
-0.031392 0.0098754 0.034537 0.085177 0.025659 0.068242 0.041607 0.20931 
0.050979 0.056569 0.045882 0.080244 0.018754 0.055911 0.031249 0.26439 
0.042923 0.13154 -0.001798 0.045882 -0.0075525 0.039799 0.019905 0.074654 
0.016288 0.089945 -0.0503 0.0021479 -0.041751 0.037497 0.0023123 -0.13251 
-0.065591 0.0018191 -0.090088 -0.033365 -0.077593 -0.0042642 -0.022021 -0.24612 
-0.078086 -0.020212 -0.070852 -0.0083746 -0.072332 -0.032708 -0.025638 -0.17295 
-0.016924 0.035524 0.015959 0.060844 -0.024323 0.0046141 -0.0082102 0.058706 
0.081067 0.067585 0.083204 0.099316 0.012506 -0.0044286 -0.013965 0.23216 
0.075312 0.04095 0.037661 0.085177 0.013492 0.0042853 -0.0095255 0.11609 
0.1008 0.027796 -0.0087034 0.051965 -0.0067304 0.020233 -0.011992 -0.018404 
0.13795 0.085177 -0.0026201 0.041772 -0.018075 0.012177 -0.0057439 -0.074798 
0.10984 0.057062 -0.021034 0.027961 -0.031392 0.0037921 -0.0075525 -0.0965 
0.076956 0.014479 0.0085601 0.040128 -0.028762 -0.021363 -0.03205 -0.097158 
0.080244 0.0024767 0.051308 0.067585 -0.0091966 -0.037311 -0.047176 -0.054739 
0.050979 -0.068221 0.10392 0.10935 0.024508 -0.0057439 -0.021199 0.057062 
0.023522 -0.013143 0.22674 0.21293 0.10458 0.044238 0.009711 0.13746 
0.091918 0.12694 0.36238 0.35482 0.22098 0.11296 0.06183 0.10935 
0.075148 0.16475 0.31338 0.37372 0.26603 0.10507 0.063639 0.065776 
-0.034352 0.12135 0.08978 0.22723 0.17906 0.06594 0.042594 -0.02087 
-0.157 0.050321 -0.10784 0.039799 0.033715 0.013328 0.0093821 -0.031721 
-0.14582 0.04506 -0.17525 -0.065426 -0.071674 0.010204 -0.00015387 0.062488 
-0.12445 0.05772 -0.10439 -0.06148 -0.099624 0.01267 -0.0050863 0.10326 
-0.034188 0.066763 0.0069159 0.00050378 -0.069208 0.064625 0.048677 0.17577 
0.020398 0.047691 0.049664 0.053609 -0.026789 0.10458 0.070051 0.15357 
-0.026953 0.028454 0.054596 0.068571 -0.0095255 0.061008 0.044073 -0.017911 
-0.096172 -0.020541 0.035688 0.064625 -0.008539 -0.010512 0.0065871 -0.109 
-0.070852 -0.012156 -0.0077169 0.037497 -0.029255 -0.083512 -0.073154 -0.10768 
-0.037476 -0.035832 -0.043888 0.029112 -0.038956 -0.13843 -0.12774 -0.073647 
0.067749 -0.042244 -0.052602 0.031742 -0.035832 -0.089595 -0.10472 -0.046025 
0.15045 0.0036276 -0.030899 0.019411 -0.041915 -0.049971 -0.085813 -0.076113 
0.15752 0.0023123 -0.0014692 0.03536 -0.032379 -0.014622 -0.055232 -0.14878 
0.10178 -0.030899 0.026646 0.057555 -0.015938 0.007738 -0.032708 -0.1575 
0.062817 0.010697 0.06479 0.086657 0.0067515 0.02533 -0.010841 -0.1358 
0.10622 0.084519 0.12792 0.13762 0.049335 0.057062 0.01974 -0.0016336 
0.18235 0.15555 0.14913 0.16673 0.082053 0.1008 0.065776 0.20076 
0.21358 0.18613 0.10721 0.13615 0.070215 0.10195 0.07597 0.24795 
0.14617 0.11642 0.04095 0.08978 0.035195 0.077614 0.062159 0.20602 
0.084848 0.093398 0.0041209 0.047362 -0.00097594 0.087314 0.065447 0.24696 
-0.0016336 0.028125 -0.014622 0.048677 -0.010512 0.048677 0.038483 0.2366 
-0.046519 0.035853 -0.020706 0.066269 -0.0016336 0.038648 0.037332 0.24663 
0.0059294 0.08567 0.018425 0.065447 0.0016547 0.043087 0.025659 0.26883 
0.033551 0.1151 0.054267 0.086657 0.01711 0.10211 0.055911 0.13631 
-0.034845 0.090109 0.03651 0.08156 0.016781 0.10984 0.08978 0.060515 
-0.072003 0.058706 -0.0073881 0.050486 -0.0080457 0.062817 0.041114 0.017274 
-0.021034 0.0019835 -0.049642 0.01152 -0.043395 -0.0014692 0.0019835 0.086985 
0.09126 -0.020212 -0.0771 -0.018733 -0.075784 -0.040435 -0.024487 0.13812 
0.098001 -0.015609 -0.11212 -0.061316 -0.1159 -0.11722 -0.10472 0.07597 
0.037826 -0.035832 -0.11541 -0.088773 -0.14467 -0.14089 -0.14632 -0.10521 
-0.063782 0.00033937 -0.087458 -0.061151 -0.13251 -0.091075 -0.13053 -0.23773 
-0.044052 0.049499 0.01267 0.0227 -0.071674 -0.022021 -0.069208 -0.16161 
-0.026789 0.093398 0.069064 0.10589 0.00297 0.053281 0.0042853 -0.042737 
0.030263 0.11773 0.08715 0.12332 0.036017 0.094055 0.050979 0.032729 
0.091589 0.077614 0.064461 0.11559 0.041278 0.063474 0.0421 0.077943 
0.14091 0.077943 0.04654 0.098988 0.032236 0.057555 0.041936 0.13615 
0.18646 0.10343 0.059693 0.099481 0.030263 0.072024 0.039963 0.1955 
0.18202 0.063968 0.0052718 0.065118 0.0062583 0.04917 0.026646 0.13647 
0.04506 0.073832 -0.013307 0.039141 -0.019226 0.035195 0.014643 0.011684 
0.014315 0.036839 0.028454 0.04654 -0.023336 -0.025967 -0.032872 -0.077922 
-0.030242 0.046704 0.062323 0.08304 0.0011614 -0.0054151 -0.031392 -0.066741 
0.018754 0.11724 0.090438 0.11444 0.034702 0.048019 0.033058 0.078765 
0.060679 0.076627 0.0689 0.12036 0.049664 0.12069 0.078436 0.15653 
0.048348 0.049828 0.0031344 0.092904 0.036017 0.14321 0.10589 0.14305 
-0.0019624 0.092904 -0.035174 0.040621 -0.0054151 0.14881 0.12546 0.014808 
-0.061973 0.07038 -0.041915 0.015465 -0.036325 0.052952 0.052952 -0.091239 
-0.046683 0.085012 -0.05326 0.00066819 -0.056548 0.021056 0.020398 -0.066248 
-0.0014692 0.08008 -0.013143 0.015959 -0.052766 0.038483 0.017603 0.017274 
0.037661 0.009711 0.0021479 0.033387 -0.042244 -0.0054151 -0.011827 0.070873 
-0.031064 0.0032988 -0.066741 -0.014622 -0.073318 -0.077593 -0.069372 0.088301 
-0.08269 -0.045861 -0.091732 -0.053095 -0.10554 -0.079401 -0.091404 0.081724 
0.0080668 -0.023007 -0.050629 -0.032379 -0.097816 -0.030406 -0.067399 0.046211 
0.11625 0.081395 0.080902 0.062981 -0.031721 0.0039565 -0.030077 0.041936 
0.1294 0.12102 0.14996 0.17265 0.057391 0.018754 -0.016595 0.039141 
0.13812 0.17314 0.20421 0.22476 0.11954 0.028947 0.0013258 0.10754 
0.093726 0.1784 0.23792 0.26143 0.15916 0.029276 0.013657 0.11625 
0.056404 0.10474 0.23414 0.27277 0.17708 0.023357 -0.0031133 -0.043888 
0.089945 0.047691 0.090603 0.18432 0.12628 0.037497 0.0065871 -0.15585 
0.062817 -0.02942 -0.016431 0.082546 0.049499 0.042429 0.033715 -0.21488 
0.010204 -0.056877 -0.059836 0.016288 -0.011992 0.075476 0.034537 -0.16703 
-0.055232 -0.0062372 -0.055726 -0.0067304 -0.044381 0.091589 0.063145 -0.050136 
-0.06 -0.021034 -0.027447 -0.006566 -0.054246 0.11148 0.098166 -0.0044286 
-0.073482 -0.011827 0.027139 0.029276 -0.035503 0.12973 0.099645 -0.073811 
-0.035338 -0.0062372 0.076792 0.09833 0.01004 0.085506 0.079751 -0.021692 
-0.033037 -0.044052 0.058213 0.12595 0.041936 0.075476 0.064954 0.097015 
0.0031344 -0.026789 0.034537 0.098988 0.034702 0.045389 0.05065 0.17265 
-0.001798 0.029112 0.022535 0.077449 0.018589 0.019905 0.017767 0.19517 
-0.010512 0.0324 0.016452 0.064954 0.004943 -0.047669 -0.045039 0.12414 
-0.009361 0.042758 0.013164 0.05624 -0.0083746 -0.11146 -0.10965 0.11247 
0.10967 0.031414 0.020398 0.0592 -0.0072237 -0.099624 -0.11179 0.1225 
0.2103 0.056404 0.055747 0.083697 0.013164 0.036675 -0.030242 0.14733 
0.22789 0.10458 0.095206 0.10967 0.036675 0.1322 0.055254 0.019247 
0.17133 0.1031 0.12398 0.13319 0.057062 0.13647 0.095042 -0.10669 
0.06742 0.10639 0.11757 0.14009 0.065283 0.093891 0.075805 -0.22704 
-0.030406 0.097344 0.083533 0.13713 0.06331 -0.027447 -0.017582 -0.36597 
-0.10916 0.037826 0.01563 0.11921 0.049664 -0.16424 -0.11903 -0.47547 
-0.18742 -0.011663 -0.0138 0.064461 0.01004 -0.20452 -0.19482 -0.42204 
-0.18528 -0.064933 -0.012978 0.042923 -0.011827 -0.16605 -0.17739 -0.090088 
-0.089266 -0.065426 0.012342 0.052623 -0.0091966 -0.076277 -0.098144 0.24532 
0.098166 0.038319 0.033058 0.064461 0.0031344 0.065283 -0.0054151 0.37619 
0.19237 0.074654 0.045718 0.071366 0.0092177 0.12546 0.066269 0.29628 
0.21868 0.075641 0.055418 0.08978 0.022535 0.12595 0.095371 0.2833 
0.23512 0.069722 0.081231 0.10672 0.035031 0.068407 0.060844 0.23627 
0.12299 0.058213 0.084026 0.10491 0.037661 0.054432 0.037661 0.13072 
-0.028597 0.029605 0.07301 0.098001 0.033387 0.021713 0.020727 -0.052109 
-0.11837 -0.011498 0.026974 0.092576 0.029276 -0.010841 -0.018568 -0.12593 
-0.089102 -0.03764 -0.011663 0.090603 0.027303 0.00033937 -0.015116 -0.059014 
-0.034681 -0.010512 -0.028762 0.043416 -0.004593 0.0324 -0.00031829 -0.021363 
0.038483 -0.018075 -0.023172 0.029112 -0.025474 0.011684 -0.012649 0.020398 
0.05772 0.0013258 0.0031344 0.04095 -0.025802 -0.013965 -0.021363 0.037661 
0.065283 0.081889 0.024179 0.059693 -0.014787 -0.0044286 -0.028926 0.070215 
0.090109 0.08156 0.040785 0.073339 -0.0029489 -0.042079 -0.050958 0.17166 
0.10145 0.088794 0.038483 0.071202 -0.0054151 -0.080881 -0.067235 0.19057 
0.055254 0.049992 0.0090533 0.047033 -0.019884 -0.073154 -0.095514 -0.11475 
-0.017582 0.016452 0.02681 0.038977 -0.023994 -0.027118 -0.063289 -0.3885 
-0.057699 0.040621 0.057555 0.068242 -0.0034422 0.017438 -0.017253 -0.43717 
-0.028104 0.12217 0.087314 0.10951 0.030263 0.038812 0.0044497 -0.2254 
0.097179 0.14371 0.084026 0.14996 0.069886 0.099316 0.065118 0.059035 
0.13023 0.1248 0.070544 0.1271 0.067585 0.15719 0.1179 0.20553 
0.086328 0.038812 0.032729 0.095042 0.040621 0.12266 0.10589 0.18711 
0.06331 0.017438 -0.0029489 0.057884 0.0032988 0.025166 0.040128 0.27738 
0.037004 0.026974 -0.041257 0.01267 -0.038462 -0.0090322 0.01152 0.33196 
0.020562 -0.028597 -0.066906 -0.0138 -0.070523 -0.088937 -0.072332 0.293 
-0.028104 -0.019884 -0.02498 0.0041209 -0.065591 -0.095514 -0.1016 0.21621 
0.011026 0.079422 0.048184 0.054432 -0.029584 -0.0047575 -0.053424 0.12513 
-0.045203 0.059035 0.036182 0.052787 -0.020212 0.028125 -0.021528 0.019411 
-0.11048 0.020398 0.0046141 0.038483 -0.027447 -0.011663 -0.025967 -0.012814 
-0.095349 0.011848 0.0031344 0.040292 -0.027447 -0.018897 -0.029091 0.054267 
0.026646 0.052294 -0.0059084 0.069393 -0.0068948 0.0087245 -0.019719 0.039963 
0.13532 0.078436 0.029605 0.077943 0.0088889 0.069558 0.040785 -0.10258 
0.16245 0.031414 0.045389 0.085999 0.01826 0.11378 0.062981 -0.28114 
0.040621 0.040292 0.042594 0.086657 0.020398 0.10672 0.078929 -0.3469 
-0.065097 0.087479 0.071037 0.10343 0.032893 0.095535 0.090109 -0.25286 
-0.10439 0.11625 0.07449 0.11017 0.040456 0.097837 0.080409 -0.022514 
-0.061151 0.14716 0.073668 0.1105 0.041936 0.091096 0.076299 0.12497 
0.025824 0.10754 0.077614 0.10803 0.042265 0.12595 0.094055 0.14963 
0.15801 0.03388 0.064954 0.099316 0.035524 0.13105 0.10507 0.24466 
0.21457 0.044073 0.052294 0.077614 0.016123 0.089616 0.083204 0.34446 
0.11806 0.023357 0.012506 0.06594 0.00033937 0.067091 0.061172 0.27392 
0.11724 0.039141 0.043416 0.10129 0.018918 0.038483 0.032564 0.20947 
0.072024 0.085835 0.049499 0.099645 0.022206 0.035853 0.023686 0.20569 
0.051636 0.063639 0.053774 0.10113 0.029276 0.082217 0.040292 0.20454 
0.069393 0.045553 0.026152 0.080244 0.018754 0.061337 0.0227 0.10129 
-0.010676 0.031249 -0.0034422 0.057555 -0.00081153 0.027303 0.0065871 -0.079072 
-0.16177 -0.031721 0.015465 0.053281 -0.0039354 0.016288 -0.021363 -0.18627 
-0.24447 -0.0022913 0.022206 0.061337 0.00017495 0.067091 0.024508 -0.12001 
-0.16177 -0.020541 0.025824 0.059035 0.00050378 0.12579 0.10293 0.11543 
-0.015444 -0.00081153 0.02829 0.051801 -0.0077169 0.17889 0.14206 0.33196 
0.081395 0.068407 0.03092 0.054103 -0.012156 0.11691 0.10885 0.33607 
0.087643 0.067585 0.033551 0.073339 -0.0042642 0.023028 0.039634 0.13236 
0.039634 0.025824 0.01152 0.087643 0.0067515 -0.042737 -0.03912 -0.083347 
0.086328 0.03092 0.0014903 0.062488 -0.0068948 -0.08121 -0.083347 -0.15454 
0.16475 0.048513 0.021549 0.064296 -0.0067304 -0.1062 -0.10489 -0.073318 
0.18399 0.069393 0.042594 0.078929 0.00066819 -0.15881 -0.1552 -0.065755 
0.14124 0.074654 0.062488 0.089123 0.010697 -0.1039 -0.13103 -0.063124 
0.031249 0.074161 0.052294 0.093398 0.023357 0.060844 -0.018733 -0.025802 
-0.00097594 0.095864 0.06742 0.10672 0.03651 0.17084 0.091753 0.023686 
0.0090533 -0.0088678 0.045882 0.085012 0.022206 0.14634 0.11691 0.069393 
0.0032988 -0.065262 0.028619 0.065447 0.0039565 0.095042 0.08567 0.097344 
0.0092177 -0.016924 0.047362 0.071859 0.0034632 0.049499 0.041936 0.070708 
0.02122 0.034537 0.067256 0.10556 0.026481 0.026152 0.018589 0.14535 
0.021384 0.063803 0.050157 0.12743 0.047691 -0.035832 -0.037311 0.2195 
0.031578 0.057555 0.064461 0.11724 0.04654 -0.080223 -0.083512 0.13302 
0.060022 0.023028 0.059364 0.10787 0.040292 -0.051122 -0.063124 -0.035996 
0.036017 0.04358 0.036675 0.090603 0.028947 0.010369 -0.038298 -0.13695 
-0.014787 0.029769 -0.010183 0.052459 0.00083261 0.011684 -0.016924 -0.1113 
-0.064275 0.037661 -0.038627 0.020891 -0.028433 0.0037921 -0.0040998 -0.075291 
-0.0503 0.081724 -0.02942 0.017767 -0.039778 -0.040928 -0.046683 -0.036983 
0.032236 0.029276 -0.0016336 0.023028 -0.041093 -0.05178 -0.063618 -0.0052507 
0.088136 0.025659 0.031085 0.048348 -0.023829 -0.024652 -0.045532 -0.071838 
0.12036 0.01826 0.065118 0.08304 0.0044497 -0.014293 -0.044546 -0.14451 
0.052294 0.00050378 0.033715 0.092576 0.016781 -0.022021 -0.0406 -0.20896 
0.072681 0.079422 0.034537 0.11346 0.040621 0.036182 -0.0021268 -0.13793 
0.12644 0.11724 0.041936 0.096686 0.033715 0.035031 0.0095465 0.020727 
0.14371 0.10244 0.033222 0.086328 0.023357 0.0075736 -0.0016336 0.11444 
0.11148 0.08863 0.01267 0.067585 0.0074092 -0.0042642 -0.031557 0.1225 
0.028947 0.035688 0.026646 0.067913 0.00099702 -0.027611 -0.044381 0.081889 
0.0689 0.080244 0.049992 0.082546 0.010369 0.005765 -0.021034 0.17248 
0.10902 0.10819 0.038977 0.078107 0.01152 0.060844 0.015301 0.2121 
0.074161 0.026317 -0.00064712 0.048841 -0.0087034 0.11066 0.060186 0.23512 
0.00297 -0.057205 -0.023336 0.018096 -0.040928 0.070708 0.067091 0.28428 
-0.059014 -0.092719 -0.04471 0.00083261 -0.063124 0.03536 0.010204 0.17922 
-0.13547 -0.082196 -0.067892 0.0090533 -0.058685 -0.021856 -0.038791 -0.25927 
-0.12642 -0.010512 -0.025309 0.03799 -0.036654 -0.029091 -0.044381 -0.53894 
-0.13662 -0.0021268 -0.001798 0.039799 -0.028597 -0.068057 -0.07825 -0.52299 
-0.11853 0.069064 0.041936 0.070544 -0.0031133 -0.035174 -0.052273 -0.19778 
-0.045861 0.1664 0.11132 0.12579 0.048019 0.11592 0.062817 -0.047176 
0.068242 0.18563 0.12201 0.14897 0.077943 0.2246 0.15785 0.057062 
0.1562 0.13993 0.080573 0.13006 0.069886 0.1516 0.14256 0.15555 
0.23775 0.1299 0.07038 0.11198 0.05213 0.067913 0.077449 0.19616 
0.25896 0.11411 0.058213 0.10556 0.043251 -0.013636 -0.0034422 0.17182 
0.18613 0.065776 0.034373 0.074983 0.017603 -0.09239 -0.078744 0.13713 
0.095864 0.024508 -0.0055795 0.050814 -0.0072237 -0.16769 -0.15207 0.11148 
0.026152 -0.016102 -0.052766 0.0324 -0.034352 -0.3132 -0.27834 0.073997 
-0.041257 -0.028269 -0.076113 0.010697 -0.063453 -0.42253 -0.39244 0.0092177 
-0.048492 -0.026131 -0.051615 0.00083261 -0.076771 -0.3497 -0.38538 -0.17032 
-0.045532 0.035853 0.0065871 0.038483 -0.046354 -0.14714 -0.24398 -0.27933 
-0.039942 0.12381 0.06035 0.081395 -0.0019624 0.072517 -0.032708 -0.23411 
0.03388 0.15999 0.073504 0.10441 0.031578 0.22493 0.11839 -0.014951 
0.10852 0.14174 0.088794 0.1202 0.052623 0.28264 0.22197 0.27524 
0.090603 0.12595 0.082053 0.1077 0.049828 0.28691 0.26537 0.2833 
-0.033859 0.043416 0.047197 0.084684 0.029276 0.19961 0.19435 0.078272 
-0.18611 -0.0098543 -0.004593 0.041772 -0.0073881 0.082382 0.10014 -0.055232 
-0.18775 -0.029091 -0.0059084 0.032071 -0.027775 0.0044497 0.035524 0.084355 
-0.042573 0.036017 0.013657 0.079587 -0.00064712 -0.011827 -0.0064016 0.2588 
0.087808 0.11954 0.070873 0.11592 0.030592 -0.047669 -0.042573 0.39263 
0.18596 0.14223 0.11378 0.14206 0.056569 -0.045532 -0.05885 0.329 
0.13467 0.090603 0.039799 0.10507 0.039799 -0.069865 -0.089924 -0.023829 
0.0592 0.048019 -0.040271 0.040292 -0.0059084 -0.031557 -0.071838 -0.26042 
0.11855 -0.033201 -0.058356 0.00017495 -0.043395 0.022042 -0.036818 -0.25763 
0.13647 -0.05737 -0.048656 -0.0049219 -0.061316 -0.016266 -0.036489 -0.1016 
0.098823 -0.056219 -0.025638 -0.00064712 -0.065097 -0.030735 -0.041093 0.04358 
-0.01232 -0.0047575 0.037332 0.044238 -0.034023 -0.0014692 -0.027282 0.11855 
-0.14517 0.060679 0.054267 0.067091 -0.0095255 -0.012814 -0.031886 0.22542 
-0.098967 0.073175 0.08715 0.10474 0.022371 -0.018568 -0.023994 0.25025 
-0.0095255 0.091918 0.094713 0.13598 0.054267 0.023686 -0.014458 0.094055 
0.047197 0.081231 0.051965 0.12546 0.058542 0.12694 0.06331 -0.0011404 
0.037497 0.068407 0.014479 0.083697 0.034373 0.21391 0.16574 0.0095465 
-0.0138 0.06594 0.041278 0.086821 0.024673 0.17511 0.15538 -0.010019 
-0.00064712 0.12003 0.067256 0.091425 0.022535 0.061008 0.070544 -0.032708 
0.08567 0.13187 0.10573 0.12513 0.043087 -0.013143 0.0065871 -0.069536 
0.10063 0.15686 0.10622 0.12891 0.050486 -0.077593 -0.085649 -0.1746 
0.069558 0.10721 0.052623 0.097015 0.031907 -0.096665 -0.10637 -0.24332 
0.026481 0.043087 0.0036276 0.0592 -0.0016336 -0.040106 -0.080552 -0.19318 
0.010862 -0.036325 0.0016547 0.037497 -0.021034 0.030098 -0.018075 -0.10341 
-0.070523 -0.096172 -0.01528 0.025988 -0.035667 0.10129 0.056404 -0.06296 
-0.11771 -0.11771 -0.044052 0.036346 -0.034188 0.13713 0.087972 0.012999 
-0.020541 -0.045368 -0.034188 0.041114 -0.03205 0.071366 0.066105 0.39625 
0.094877 -0.01676 -0.015116 0.032729 -0.03616 0.041936 0.049006 0.72162 
0.16114 0.032071 0.0036276 0.043909 -0.024816 0.10902 0.06183 0.61558 
0.22263 0.084684 0.024179 0.060844 -0.0055795 0.2223 0.14667 0.38408 
0.22361 0.10507 0.079916 0.096193 0.025988 0.25025 0.20602 0.15982 
0.11806 0.16229 0.11296 0.13434 0.062159 0.2149 0.18728 0.095042 
0.074161 0.1756 0.14798 0.16574 0.097015 0.20125 0.18333 0.13499 
0.041936 0.16146 0.14864 0.16706 0.10556 0.16393 0.17149 0.098001 
-0.034352 0.056404 0.048019 0.10228 0.051143 0.00066819 0.029605 -0.08121 
-0.17641 -0.10406 -0.018075 0.034209 -0.021199 -0.18759 -0.14369 -0.42582 
-0.2522 -0.21307 -0.099295 -0.011663 -0.079401 -0.19005 -0.18331 -0.62213 
-0.13859 -0.16375 -0.10719 -0.017911 -0.090746 0.032893 -0.041422 -0.38965 
-0.019555 -0.039778 -0.058028 -0.010512 -0.074469 0.24499 0.14946 -0.078086 
0.02122 0.038648 0.01974 0.038155 -0.039942 0.32703 0.25617 0.078107 
0.038483 0.075805 0.042429 0.066598 -0.017911 0.1904 0.19402 0.08304 
0.10935 0.077943 0.058871 0.082382 -0.0047575 -0.018568 0.03651 0.053609 
0.15538 0.086492 0.079094 0.10491 0.015465 -0.056548 -0.04619 -0.011498 
0.061995 0.053774 0.088794 0.11198 0.027961 -0.13727 -0.12856 -0.13695 
-0.039449 0.03947 0.085177 0.11378 0.033058 -0.18479 -0.17904 -0.16934 
0.019083 0.069064 0.11905 0.12875 0.051636 -0.07973 -0.11475 0.029769 
0.096193 0.067913 0.094384 0.13647 0.065118 0.083204 0.013328 0.32407 
0.14585 0.083368 0.052459 0.12546 0.065118 0.19237 0.13368 0.5018 
0.12677 0.073339 0.031742 0.10951 0.055582 0.19435 0.15209 0.41713 
0.097837 0.032729 0.00083261 0.070051 0.0227 0.062817 0.067749 0.16936 
0.094877 0.062323 -0.0095255 0.04654 -0.0019624 0.0075736 0.020562 -0.021528 
0.011191 0.01711 -0.03616 0.020727 -0.029091 -0.017911 -0.023007 -0.06296 
-0.11607 -0.020706 -0.040764 0.0041209 -0.05178 -0.073811 -0.075291 0.071531 
-0.11508 0.00017495 -0.0082102 0.021549 -0.04619 -0.084334 -0.086964 0.047855 
-0.030242 0.00083261 0.033551 0.048019 -0.028269 -0.084827 -0.10406 -0.10982 
0.033058 0.0046141 0.044402 0.060679 -0.020048 -0.11294 -0.12412 -0.17377 
0.044731 0.040785 0.064461 0.080738 -0.0040998 -0.10406 -0.14632 -0.16375 
0.071531 0.033551 0.042758 0.085341 0.0026412 -0.13004 -0.15043 -0.12807 
0.10984 0.031907 -0.016924 0.091096 0.012342 -0.095678 -0.12659 -0.031557 
0.09833 0.08008 0.024344 0.08156 0.015301 -0.0059084 -0.060658 0.036675 
0.0059294 0.058213 0.078929 0.10869 0.037332 0.064625 0.013164 0.055911 
-0.049971 0.082875 0.052952 0.10458 0.038977 0.10392 0.060515 0.071037 
-0.10373 0.018425 0.029112 0.080902 0.023357 0.066269 0.048841 0.03092 
-0.06855 -0.0039354 0.022206 0.068242 0.0080668 0.013164 0.0069159 -0.034681 
-0.023172 0.050157 0.029276 0.056898 -0.0047575 -0.052273 -0.042079 -0.083347 
-0.012814 0.046211 0.052952 0.071531 -0.0026201 -0.13185 -0.12363 -0.10012 
-0.0004827 0.032071 0.063639 0.071859 -0.0036066 -0.1746 -0.17608 -0.0771 
-0.023007 -0.0057439 -0.010348 0.033551 -0.032215 -0.17542 -0.16769 -0.15783 
-0.036818 -0.058028 -0.03501 0.0227 -0.045203 -0.13349 -0.16424 -0.23559 
-0.019555 0.087479 0.034702 0.090109 0.0054362 -0.072825 -0.11639 -0.22869 
0.11313 0.20783 0.16656 0.16426 0.078107 0.068242 0.024508 0.0072447 
0.25387 0.24417 0.22065 0.23118 0.14502 0.22378 0.14667 0.26932 
0.2999 0.19747 0.15423 0.21243 0.14617 0.2565 0.20832 0.33229 
0.17363 0.10491 0.064461 0.14437 0.09833 0.26126 0.2292 0.21983 
0.033222 0.01415 -0.020706 0.063968 0.02533 0.16459 0.16097 0.072846 
-0.12462 -0.034845 -0.080059 -0.0055795 -0.045039 0.047197 0.06479 -0.016595 
-0.16638 -0.063946 -0.076606 -0.033694 -0.082196 0.027961 0.025166 0.034537 
-0.1917 -0.054739 -0.053753 -0.031392 -0.093048 -0.034352 -0.027775 0.10458 
-0.14796 -0.078579 -0.060329 -0.02942 -0.094199 -0.039449 -0.04471 0.27261 
0.043745 -0.036654 -0.025638 0.009711 -0.064768 -0.024487 -0.050958 0.366 
0.21885 0.08863 0.037168 0.083368 -0.0062372 -0.01528 -0.046683 0.22789 
0.32292 0.17626 0.14568 0.15604 0.06183 0.034373 -0.0072237 0.080409 
0.38063 0.22016 0.2126 0.21934 0.12546 0.13927 0.079587 0.19402 
0.41943 0.22427 0.1664 0.21358 0.13828 0.15357 0.11362 0.21638 
0.2172 0.10902 0.071695 0.14848 0.093398 0.03651 0.052459 -0.079895 
-0.10949 -0.0078813 0.00066819 0.073175 0.034537 0.030592 0.0080668 -0.32799 
-0.21767 -0.06148 -0.056712 0.014479 -0.018897 0.034373 0.011355 -0.32635 
-0.13185 -0.053095 -0.075784 -0.034516 -0.06855 0.014972 0.017932 -0.14056 
-0.051122 0.0051074 -0.027118 -0.016431 -0.076606 -0.022679 -0.024816 0.0074092 
-0.0067304 0.033715 0.037497 0.037168 -0.048492 -0.040764 -0.041915 0.10458 
-0.026789 0.071202 0.052952 0.090274 -0.004593 0.029769 -0.0072237 0.089452 
-0.047669 0.12431 0.080902 0.14042 0.04358 0.070873 0.036839 0.15259 
-0.02942 0.065776 0.060679 0.11822 0.045389 0.090438 0.06479 0.31092 
0.020069 0.025659 0.042923 0.098659 0.037661 0.12842 0.088465 0.29086 
0.085506 0.059364 -0.0036066 0.064132 0.011355 0.10425 0.075805 0.10178 
0.13187 0.10672 0.045224 0.075476 0.012506 0.082711 0.063474 -0.046847 
0.15999 0.17429 0.086492 0.11099 0.038483 0.084355 0.052294 -0.047669 
0.17495 0.16837 0.09422 0.12529 0.054267 0.098166 0.068078 0.08156 
0.10113 0.051143 0.051308 0.082546 0.02681 0.041936 0.046868 0.11872 
-0.01232 0.016288 0.01415 0.048513 -0.0029489 0.013657 0.0024767 0.12398 
-0.032215 -0.021199 -0.00097594 0.022864 -0.03205 -0.04323 -0.044381 0.12431 
0.047362 -0.021692 -0.028597 0.033551 -0.038791 -0.067728 -0.056219 0.1003 
0.087808 -0.065755 -0.072167 0.021384 -0.047012 -0.032708 -0.068714 0.029605 
-0.017746 -0.094034 -0.07973 -0.011498 -0.069372 0.0031344 -0.036489 -0.046847 
-0.097158 -0.041586 -0.040435 -0.00097594 -0.066084 0.062981 0.025495 -0.13201 
-0.096336 0.073504 0.024837 0.041936 -0.034352 0.10639 0.059857 -0.20929 
-0.027775 0.096686 0.041278 0.070873 -0.0055795 0.14108 0.1054 -0.17328 
0.028125 0.091918 0.027303 0.067256 -0.0032777 0.081231 0.079422 -0.031557 
0.055418 0.056076 0.040456 0.071859 0.00050378 0.012506 0.020891 0.057884 
0.070708 0.030756 0.049335 0.075312 0.0023123 -0.053917 -0.04323 0.046868 
0.029276 0.026974 0.035853 0.075148 0.0019835 -0.092554 -0.097322 -0.054739 
-0.064933 0.031249 0.052787 0.08156 0.0059294 -0.16588 -0.16473 -0.14813 
-0.059836 0.079916 0.066927 0.1054 0.027139 -0.16539 -0.18084 -0.16802 
0.0064227 0.10359 0.059528 0.13499 0.05476 -0.11574 -0.15174 -0.052273 
0.15176 0.11707 0.061666 0.11954 0.04917 -0.064111 -0.10258 0.11263 
0.15292 0.084355 0.040456 0.096521 0.032893 0.034044 -0.019226 0.22937 
-0.024652 0.029605 0.024508 0.076956 0.015301 0.060515 0.010862 0.13171 
-0.085813 -0.012156 -0.019719 0.041936 -0.013471 0.057062 0.018425 -0.049149 
0.070544 0.049006 -0.0057439 0.037661 -0.018733 0.13171 0.099481 -0.020541 
0.040621 0.016452 0.017274 0.050321 -0.011992 0.2052 0.14371 -0.00031829 
-0.046354 -0.010019 0.0070803 0.041772 -0.021692 0.11658 0.11247 -0.015938 
0.044073 0.026646 0.0034632 0.036017 -0.03057 0.033058 0.048348 0.12809 
0.14305 0.0028056 0.0013258 0.034044 -0.031064 -0.020048 -0.01117 0.29365 
0.14009 -0.02794 -0.041751 0.017932 -0.040106 -0.004593 -0.012978 0.43193 
0.09833 -0.063453 -0.050136 0.032564 -0.028597 0.093726 0.053445 0.45807 
0.0088889 -0.052931 -0.073976 -0.0073881 -0.057699 0.017603 -0.013143 0.072188 
-0.10423 -0.0095255 -0.062467 -0.014951 -0.07825 -0.17065 -0.1547 -0.50014 
-0.16736 0.054925 0.053281 0.057884 -0.035174 -0.29544 -0.27029 -0.78358 
-0.12297 0.10869 0.12973 0.13434 0.031907 -0.27966 -0.28804 -0.68214 
-0.15585 0.13417 0.13335 0.15719 0.069886 -0.22852 -0.25088 -0.50474 
-0.11475 0.03536 0.069064 0.12431 0.061008 -0.16292 -0.20518 -0.30185 
0.00099702 -0.010183 0.039634 0.09126 0.039799 -0.028269 -0.092719 0.029441 
0.14617 0.056569 0.055747 0.087643 0.034044 0.1197 0.048677 0.27935 
0.17182 0.065612 0.071695 0.094877 0.035524 0.26488 0.17659 0.38819 
0.073668 0.043251 0.033551 0.089123 0.024179 0.23874 0.19616 0.32966 
-0.0026201 0.0034632 -0.0013048 0.076134 0.0088889 0.16311 0.16212 0.15423 
0.046704 0.015794 0.0023123 0.059528 -0.0042642 0.13647 0.1248 0.1442 
0.17248 0.10293 0.03651 0.077121 0.0037921 0.073175 0.075805 0.26077 
0.21227 0.12053 0.054925 0.091425 0.018754 0.14223 0.12069 0.28034 
0.14617 0.05624 0.058542 0.10047 0.026481 0.11428 0.090274 0.24153 
-0.037969 0.005765 0.016123 0.071037 0.005765 0.012506 0.019576 0.16212 
-0.10258 -0.025967 0.034866 0.076299 0.012506 0.081395 0.042758 0.031414 
-0.049149 0.0064227 0.054596 0.080244 0.019247 0.1179 0.075805 -0.095349 
-0.0019624 0.04917 0.056404 0.076134 0.012342 0.046868 0.037661 -0.14862 
-0.038956 0.03092 0.01711 0.051801 -0.018075 -0.24513 -0.16802 -0.18791 
-0.0078813 0.026481 -0.006566 0.052459 -0.031228 -0.52167 -0.42253 -0.15816 
0.11099 0.03799 0.031414 0.08008 -0.006566 -0.51362 -0.486 -0.00081153 
0.16492 0.074326 0.040292 0.085835 0.012999 -0.19071 -0.29133 0.22197 
0.15127 0.14897 0.049664 0.095206 0.030592 0.15407 -0.003771 0.41318 
0.17676 0.1835 0.11642 0.14026 0.070051 0.35482 0.22279 0.39164 
0.099316 0.14749 0.14108 0.16114 0.095042 0.37997 0.29069 0.24417 
0.016288 0.08008 0.084684 0.13861 0.0786 0.21621 0.21802 0.10918 
-0.089924 -0.02087 0.025001 0.097015 0.040621 0.097015 0.12694 -0.043066 
-0.12938 -0.065262 -0.036489 0.027303 -0.02087 0.02122 0.032071 -0.19252 
-0.066084 -0.029255 -0.018733 0.018425 -0.044381 -0.034681 -0.031064 -0.24957 
0.013164 0.042594 0.048348 0.059857 -0.019555 0.0051074 0.0014903 -0.16161 
0.022864 0.11822 0.084519 0.11313 0.028947 0.13976 0.082875 -0.094034 
-0.047669 0.076956 0.020398 0.10655 0.037661 0.22164 0.15768 -0.17542 
-0.084991 -0.02942 -0.049971 0.030756 -0.018075 0.17297 0.1641 -0.15684 
-0.049971 -0.038462 -0.062302 -0.0004827 -0.060987 0.059857 0.084848 0.059364 
0.029112 -0.026953 0.00083261 0.027303 -0.058356 -0.010841 0.014315 0.24992 
0.11526 0.042923 0.036182 0.06035 -0.034023 -0.014293 -0.015773 0.31338 
0.1955 0.19895 0.13351 0.13499 0.034209 0.027468 -0.0019624 0.31075 
0.24351 0.28165 0.19829 0.19829 0.10458 0.11428 0.064296 0.24564 
0.24532 0.28478 0.21737 0.22575 0.14124 0.13499 0.091425 0.21983 
0.21095 0.16969 0.14305 0.18103 0.11477 -0.010512 0.0056006 0.26685 
0.1294 0.042758 0.039634 0.11954 0.066927 -0.068386 -0.060987 0.13532 
0.030098 0.0014903 -0.00015387 0.093891 0.040456 -0.057041 -0.07973 -0.044546 
-0.028762 -0.052602 -0.039449 0.056404 0.0065871 -0.045203 -0.076277 -0.13432 
-0.032215 -0.10653 -0.095843 -0.015609 -0.052602 -0.041586 -0.058028 -0.20057 
-0.045696 -0.074304 -0.065755 -0.016924 -0.067728 0.0065871 -0.036654 -0.23148 
-0.048163 0.016616 0.0067515 0.025988 -0.042573 0.036675 -0.001798 -0.10784 
-0.014622 0.092411 0.06331 0.076134 -0.0004827 0.09981 0.075805 0.15308 
0.026152 0.11017 0.075805 0.095535 0.025495 0.1659 0.12365 0.27672 
0.04358 0.069886 0.066269 0.095864 0.034209 0.24038 0.18498 0.13631 
0.038648 0.072024 0.064461 0.089616 0.033058 0.29842 0.25452 0.01267 
-0.03501 0.02829 0.036675 0.073997 0.016616 0.23298 0.22805 -0.11459 
-0.081703 -0.00097594 0.055418 0.089452 0.01711 0.15883 0.17117 -0.18545 
-0.032872 0.047362 0.035688 0.10819 0.031414 0.070051 0.094713 -0.031721 
0.060186 0.040292 0.029441 0.092247 0.019576 -0.077264 -0.027775 0.094548 
0.090438 0.026152 -0.019555 0.048019 -0.02087 -0.2665 -0.19877 0.065283 
0.16229 0.00297 -0.071181 -0.0014692 -0.066741 -0.2596 -0.2716 -0.049642 
0.15653 0.0036276 -0.038462 0.0046141 -0.070359 -0.18775 -0.22885 -0.061316 
0.11132 0.038155 0.0069159 0.030592 -0.048492 -0.037969 -0.10965 0.023522 
-0.0044286 0.04917 0.04095 0.065283 -0.016102 0.038812 -0.02942 0.015794 
-0.023336 0.035031 0.065612 0.084519 0.0069159 0.03388 -0.0019624 0.046046 
0.035853 0.044731 0.069064 0.092411 0.022206 0.043087 0.030427 0.13927 
0.064625 -0.011827 0.064132 0.091753 0.028454 0.11526 0.065447 0.11526 
0.062652 -0.018075 0.035688 0.092904 0.0324 0.14881 0.1077 0.086163 
0.10918 0.061008 0.032236 0.10836 0.044073 0.22509 0.18744 0.12085 
0.11362 0.066763 0.014479 0.086492 0.033715 0.23956 0.20569 0.11313 
0.074819 0.0689 0.022371 0.071037 0.014808 0.11132 0.12233 -0.0070593 
-0.025309 0.042594 0.0031344 0.056569 -0.0032777 -0.074633 -0.0044286 -0.07973 
-0.20797 -0.02646 -0.041586 0.020562 -0.034188 -0.12708 -0.095514 0.11543 
-0.28015 -0.031228 -0.063946 -0.013143 -0.062631 -0.087458 -0.10752 0.062981 
-0.20074 -0.01528 -0.030406 0.0014903 -0.060658 -0.026624 -0.081374 -0.3423 
-0.12626 0.012177 -0.0080457 0.020398 -0.049642 -0.065097 -0.099624 -0.57248 
-0.05737 0.049499 0.024179 0.037004 -0.037805 -0.14007 -0.13711 -0.486 
0.053609 0.064296 0.073832 0.077614 -0.0050863 -0.12346 -0.13349 -0.15668 
0.15505 0.056404 0.045553 0.086821 0.0093821 -0.11261 -0.12462 0.15505 
0.26505 0.054267 0.030098 0.10672 0.028125 0.017767 -0.038298 0.37208 
0.26948 0.045389 0.051965 0.10392 0.033551 0.10819 0.042758 0.41088 
0.17741 0.089452 0.071037 0.10967 0.039141 0.11033 0.069393 0.31157 
0.052294 0.027139 0.035031 0.08715 0.022864 0.062159 0.05065 0.13302 
-0.076113 -0.017253 -0.019555 0.044567 -0.011005 -0.012814 -0.011663 0.079094 
-0.0406 0.051472 0.0023123 0.04506 -0.016924 -0.086471 -0.068879 0.33328 
0.03799 0.08419 0.036346 0.07038 0.00066819 -0.087786 -0.080552 0.33739 
0.027303 0.0592 0.035031 0.068242 0.0032988 -0.041586 -0.077922 0.063474 
-0.0067304 0.058871 0.034373 0.062323 -0.0040998 -0.025967 -0.06707 -0.23231 
-0.079237 -0.0060728 0.024344 0.044896 -0.021199 -0.033694 -0.063618 -0.34723 
-0.15125 -0.025638 -0.012156 0.035195 -0.032379 -0.021856 -0.050464 -0.25647 
-0.065097 -0.017253 -0.049478 0.042923 -0.026131 0.034866 0.0037921 -0.013143 
0.092082 0.048184 0.027468 0.069064 -0.0044286 0.061995 0.038319 0.14404 
0.14371 0.1197 0.057391 0.090109 0.011684 -0.0080457 -0.014458 0.027468 
0.022864 0.10984 0.085177 0.11329 0.028125 -0.14385 -0.12774 -0.24776 
-0.10834 0.09126 0.037332 0.093562 0.019411 -0.18298 -0.19071 -0.38653 
-0.15536 0.080573 0.013821 0.069229 0.0044497 -0.18282 -0.19844 -0.30218 
-0.14155 0.058871 0.012999 0.066763 0.0041209 -0.095349 -0.13629 -0.021034 
0.06742 0.059035 0.023028 0.059528 -0.00064712 0.046704 -0.021199 0.24992 
0.17462 0.065612 0.036839 0.041772 -0.018404 -0.026624 -0.037311 0.3415 
0.12908 0.0059294 -0.0031133 0.031085 -0.036654 -0.24217 -0.17789 0.30944 
0.24532 0.026481 0.053116 0.07449 -0.00097594 -0.077264 -0.12116 0.47467 
0.28017 0.058049 0.050157 0.11362 0.044238 0.2246 0.10096 0.52416 
0.24614 -0.014951 -0.0073881 0.073832 0.019905 0.23216 0.17182 0.22838 
0.087479 -0.003771 -0.0072237 0.048513 -0.0077169 0.2292 0.17577 -0.10357 
-0.0032777 0.0095465 0.053116 0.08008 0.011355 0.3295 0.26307 -0.17049 
0.034702 0.076299 0.081231 0.10852 0.040785 0.52877 0.44426 -0.039284 
0.052294 0.14765 0.07301 0.11263 0.045389 0.53912 0.49703 0.099316 
-0.015938 0.14075 0.060844 0.10606 0.032893 0.27392 0.33213 0.12644 
-0.010841 0.14963 0.10326 0.12069 0.029112 -0.11212 0.01563 0.05065 
0.074326 0.14141 0.12168 0.13664 0.035853 -0.38274 -0.2642 -0.023501 
0.10343 0.045389 0.093562 0.12595 0.039963 -0.39228 -0.36252 -0.0868 
-0.02646 -0.038627 0.0060938 0.0786 0.015465 -0.31057 -0.35348 -0.19482 
-0.1723 -0.072496 -0.028926 0.056076 -0.003771 -0.24283 -0.29758 -0.24382 
-0.29314 -0.013471 -0.01939 0.045224 -0.0138 -0.15618 -0.21767 -0.23017 
-0.19581 0.10162 0.0093821 0.05065 -0.0088678 0.031085 -0.064275 -0.15043 
0.0042853 0.14469 0.027796 0.071202 0.0088889 0.20027 0.099316 0.0072447 
0.24976 0.1151 0.063474 0.093891 0.028619 0.32374 0.25025 0.2685 
0.37339 0.10096 0.045224 0.084519 0.02681 0.37882 0.3221 0.51232 
0.31914 0.034537 0.020069 0.069064 0.012013 0.32571 0.30615 0.45149 
0.1516 0.019905 0.0075736 0.048677 -0.0072237 0.2491 0.26389 0.147 
0.0592 0.0067515 0.030263 0.052952 -0.010841 0.15489 0.16393 -0.10768 
0.042923 -0.0098543 0.041936 0.070708 -0.0026201 0.031085 0.057227 -0.18364 
-0.003771 -0.012156 0.014315 0.065118 -0.0040998 -0.037147 -0.010841 -0.23987 
-0.085649 -0.029913 0.022864 0.097344 0.018754 -0.031392 -0.048163 -0.24941 
-0.11212 0.040456 0.082711 0.11592 0.041443 -0.045368 -0.059178 -0.22918 
-0.037805 0.1368 0.12283 0.14881 0.069393 -0.022679 -0.043888 -0.066906 
0.028454 0.12842 0.090603 0.14174 0.070544 0.012177 -0.016595 0.073504 
-0.0032777 0.085999 0.06035 0.11395 0.049992 0.014972 -0.0098543 0.13072 
-0.056219 -0.022679 -0.039613 0.040128 -0.013636 0.054596 0.015137 0.13335 
-0.093376 -0.10193 -0.089431 -0.020377 -0.078744 0.045882 0.019905 0.10293 
-0.074304 -0.069208 -0.080388 -0.040435 -0.11804 -0.025638 -0.02235 0.10869 
-0.0073881 -0.052437 -0.042737 -0.025802 -0.12971 -0.16161 -0.13744 0.083697 
0.049335 0.0018191 0.038483 0.033551 -0.088773 -0.17082 -0.17641 0.062652 
0.14108 0.14223 0.13878 0.14338 0.025001 0.080244 -0.0091966 0.082382 
0.2001 0.16919 0.16377 0.21457 0.11888 0.3295 0.20076 0.14568 
0.20109 0.18859 0.15735 0.20783 0.14026 0.33903 0.27244 0.12497 
0.20767 0.17791 0.072024 0.1567 0.11148 0.25913 0.24466 0.14798 
0.11099 0.11658 0.043745 0.11 0.069229 0.10425 0.13072 0.15193 
-0.065097 0.025495 -0.0019624 0.064296 0.023686 -0.0503 -0.015444 0.039141 
-0.060329 -0.047176 -0.052602 0.014315 -0.026789 -0.089102 -0.066248 0.064461 
-0.026953 -0.050958 -0.041257 0.010697 -0.043888 -0.11196 -0.090088 0.13483 
-0.031064 0.019411 1.0539e-005 0.023522 -0.046847 -0.16062 -0.15405 0.076463 
-0.029913 0.035031 0.07597 0.065776 -0.014951 -0.013636 -0.075455 -0.12988 
0.0051074 0.043251 0.090109 0.10606 0.026152 0.21079 0.10096 -0.2374 
0.04095 0.0069159 0.036839 0.10474 0.034702 0.19796 0.15423 -0.20995 
-0.047834 -0.090746 -0.022185 0.078272 0.012013 0.082711 0.083862 -0.16457 
-0.029913 -0.050958 -0.041422 0.028619 -0.03057 -0.074469 -0.034352 -0.13119 
0.036839 0.038977 0.0036276 0.042429 -0.037311 -0.22935 -0.17394 -0.068386 
0.064954 0.043416 -0.0078813 0.034044 -0.045203 -0.24677 -0.2499 -0.015609 
-0.030077 0.007738 -0.058192 -0.0013048 -0.07414 -0.25302 -0.27029 -0.14155 
-0.095349 0.005765 -0.044052 -0.0022913 -0.07825 -0.20173 -0.23362 -0.17279 
0.0067515 0.085506 0.038155 0.048184 -0.030899 0.011191 -0.086964 -0.096172 
0.10573 0.18284 0.1299 0.13023 0.041278 0.14881 0.061337 -0.048163 
0.12168 0.14519 0.15999 0.16262 0.079422 0.1858 0.14765 0.043087 
0.15094 0.080244 0.10688 0.15111 0.079587 0.10326 0.10425 0.24745 
0.21835 0.049499 0.02533 0.11773 0.053116 -0.015444 0.014643 0.42436 
0.11707 -0.022514 -0.050958 0.057227 0.0056006 -0.050629 -0.02646 0.48668 
-0.13547 -0.09387 -0.12609 -0.039942 -0.076442 -0.093048 -0.08532 0.52762 
-0.23379 -0.073318 -0.083347 -0.042079 -0.1039 -0.18331 -0.1649 0.59864 
-0.025145 -0.011334 0.031907 0.039141 -0.047669 -0.079895 -0.10604 0.68249 
0.2126 0.06035 0.051308 0.075805 -0.0050863 -0.0016336 -0.059014 0.45988 
0.2366 0.08419 0.062817 0.095864 0.02122 0.056076 -0.015116 -0.082196 
0.11444 0.10639 0.096357 0.11937 0.047197 0.16459 0.074819 -0.59188 
0.055254 0.13598 0.12201 0.14387 0.066598 0.19994 0.14058 -0.83866 
0.043416 0.081395 0.098659 0.12644 0.058377 0.23348 0.19237 -0.6634 
0.13105 0.060022 0.053281 0.11395 0.049992 0.30467 0.25387 -0.21307 
0.19994 0.071859 0.0083956 0.10359 0.044402 0.28362 0.2708 0.14437 
0.15456 0.012177 0.010204 0.09126 0.031742 0.19122 0.20602 0.27228 
0.0051074 -0.026296 0.0041209 0.062817 0.0039565 0.030756 0.067749 0.31914 
-0.17789 -0.063289 -0.028433 0.035853 -0.024158 -0.11919 -0.080881 0.30451 
-0.26568 -0.053095 -0.060494 0.00033937 -0.054739 -0.1815 -0.15125 0.096357 
-0.1838 0.030098 -0.031886 0.0047785 -0.056219 -0.18611 -0.20107 -0.16259 
-0.049149 0.078107 0.016616 0.039141 -0.032708 -0.22935 -0.23987 -0.23362 
0.10852 0.099974 0.049006 0.065776 -0.0078813 -0.22984 -0.2231 -0.14665 
0.15933 0.11263 0.091096 0.098988 0.024344 -0.082525 -0.13892 -0.034352 
0.17297 0.09274 0.090931 0.1008 0.040785 0.13664 0.037826 0.034373 
-0.011005 0.0024767 0.047197 0.091918 0.03388 0.18909 0.13138 -0.034681 
-0.10521 -0.038791 -0.025474 0.060022 -0.0021268 0.0031344 0.0227 -0.071345 
-0.11097 -0.070359 -0.070359 0.0067515 -0.056712 -0.1723 -0.12823 -0.072496 
-0.070194 -0.03353 -0.052931 -0.0021268 -0.083676 -0.17098 -0.16934 -0.031064 
0.035195 0.016288 0.051965 0.061501 -0.03501 0.0092177 -0.054246 0.10902 
0.18596 0.14305 0.12447 0.13401 0.041607 0.21227 0.11888 0.32752 
0.28675 0.18662 0.10655 0.14469 0.069064 0.23644 0.1807 0.4339 
0.28626 0.12464 0.070544 0.12497 0.063639 0.18909 0.16755 0.35958 
0.1539 0.069393 0.038483 0.092411 0.038812 0.12957 0.11625 0.19057 
-0.029584 0.0046141 -0.0057439 0.046046 -0.004593 0.01711 0.016616 -0.11886 
-0.15931 -0.036654 -0.012978 0.021549 -0.03353 -0.06855 -0.065262 -0.31797 
-0.1695 -0.01528 -0.0027845 0.027303 -0.03764 -0.10571 -0.081868 -0.024323 
-0.095843 0.017274 0.034044 0.073832 -0.006566 -0.10554 -0.096829 0.26801 
-0.044874 0.028125 0.026152 0.093398 0.01415 -0.097816 -0.11787 0.13351 
1.0539e-005 0.065776 0.021056 0.075805 0.0083956 -0.062302 -0.093376 -0.18019 
0.029112 0.078436 0.02829 0.074654 0.0098754 -0.0022913 -0.057863 -0.34608 
0.0088889 0.064461 0.03799 0.079587 0.013986 0.022371 -0.014458 -0.27325 
-0.0080457 0.072188 0.044073 0.082053 0.015959 0.020398 0.0046141 -0.16605 
0.007738 0.058377 0.039799 0.08156 0.01711 0.015794 0.00066819 -0.11771 
0.0021479 0.079258 0.067091 0.08978 0.022371 0.0082312 -0.010019 -0.077757 
0.025001 0.076956 0.09685 0.10819 0.036839 0.050486 0.017603 0.0062583 
0.066927 0.085012 0.087314 0.11198 0.043087 0.019411 0.004943 0.11115 
0.079258 0.11428 0.058377 0.10195 0.037497 0.01415 -0.0011404 0.13582 
0.073504 0.058377 0.01563 0.091753 0.027468 0.051143 0.0019835 0.078272 
0.064625 0.026481 -0.0095255 0.079422 0.013821 0.061008 0.021713 0.059364 
0.042429 0.039799 -0.02235 0.038648 -0.017417 0.061172 0.035195 0.044896 
-0.072332 -0.019555 -0.038462 0.017603 -0.043724 -0.049642 -0.047505 -0.097487 
-0.15816 -0.053424 -0.05441 -0.0034422 -0.072496 -0.28196 -0.23033 -0.19646 
-0.13119 -0.043395 -0.063124 -0.01676 -0.090088 -0.39803 -0.33523 -0.12905 
-0.012814 -0.0031133 0.0092177 0.028619 -0.061973 -0.28673 -0.3155 0.052294 
0.097508 0.14535 0.13039 0.11592 0.0093821 -0.12445 -0.19942 0.087808 
0.13664 0.20767 0.1881 0.17051 0.074326 0.060679 -0.030735 0.086328 
0.19879 0.16492 0.16442 0.18284 0.10458 0.16623 0.085999 0.18185 
0.22822 0.11066 0.097344 0.14815 0.091096 0.23151 0.17297 0.3632 
0.18843 0.048513 0.026152 0.11592 0.071531 0.35087 0.28691 0.36402 
0.099645 0.035524 0.032564 0.11411 0.062981 0.37405 0.32522 0.1659 
0.0054362 0.024015 -0.010183 0.064132 0.022864 0.27705 0.2731 0.011684 
-0.062631 -0.041751 -0.065262 0.0092177 -0.025967 0.23529 0.23151 -0.032708 
-0.075291 -0.052602 -0.057041 -0.0029489 -0.045368 0.23677 0.21523 -0.16276 
-0.11853 0.0095465 0.016945 0.039141 -0.023994 0.10293 0.12233 -0.28147 
-0.041422 0.11494 0.11707 0.11724 0.03799 0.15357 0.12003 -0.26716 
0.20767 0.19566 0.19139 0.17396 0.093562 0.2103 0.17281 0.058049 
0.24433 0.18218 0.16114 0.17741 0.10474 0.12497 0.13795 0.26028 
0.18054 0.081231 0.063968 0.11625 0.049006 -0.14566 -0.076442 0.28428 
-0.012485 -0.066084 -0.073482 0.012177 -0.062467 -0.39803 -0.31122 0.094055 
-0.15141 -0.14204 -0.13316 -0.03353 -0.12083 -0.36877 -0.35562 -0.098309 
-0.083512 -0.039449 -0.021856 0.029112 -0.067564 -0.055397 -0.1404 -0.041093 
0.063968 0.084026 0.075312 0.09274 -0.00064712 0.14075 0.044896 0.095864 
0.12069 0.10408 0.096193 0.12612 0.040292 0.15193 0.11378 0.13006 
0.19057 0.12694 0.081395 0.12513 0.049664 0.07301 0.065776 0.18432 
0.18629 0.056898 0.033387 0.091589 0.030427 -0.038627 -0.021034 0.17906 
0.10343 -0.045368 -0.031228 0.039141 -0.01232 -0.049971 -0.04323 0.18251 
0.077449 -0.038298 -0.037311 0.019411 -0.034681 -0.020706 -0.042901 0.11806 
0.086163 0.04358 0.022042 0.039634 -0.028269 0.038977 -0.00097594 0.046375 
-0.021034 0.12677 0.093726 0.09126 0.01415 0.24433 0.16229 -0.015938 
-0.04323 0.12118 0.1077 0.12529 0.04917 0.3729 0.28954 0.00066819 
-0.053753 0.015959 0.02122 0.11526 0.049664 0.34972 0.31536 -0.011663 
-0.0965 -0.060987 -0.053588 0.048184 0.0028056 0.25929 0.25403 -0.061645 
-0.0050863 -0.012649 -0.014951 0.036182 -0.014622 0.24564 0.232 -0.028269 
0.0062583 0.027468 0.022206 0.057227 -0.0068948 0.22065 0.2121 0.0047785 
0.030592 0.10096 0.078107 0.097015 0.02122 0.2024 0.17725 0.028947 
0.085999 0.13549 0.10639 0.12743 0.047526 0.093233 0.1054 0.093398 
0.12513 0.11115 0.081067 0.11905 0.043745 -0.078908 -0.027775 0.11559 
0.075641 0.034702 0.023028 0.075312 0.010697 -0.21488 -0.17575 0.031249 
-0.023172 -0.070194 -0.00031829 0.037497 -0.028269 -0.27275 -0.25878 -0.085813 
-0.11722 -0.072332 -0.014129 0.020398 -0.045696 -0.23214 -0.23379 -0.1404 
-0.05737 0.013821 0.029276 0.060186 -0.016924 -0.09387 -0.15552 -0.080717 
0.077121 0.062981 0.045224 0.10408 0.022864 0.00083261 -0.055068 0.044896 
0.12085 0.097344 0.049664 0.10014 0.031742 0.046868 0.014972 0.08863 
0.11477 0.093233 0.00033937 0.068407 0.011848 0.073504 0.036182 0.14798 
0.10967 0.044731 -0.013143 0.042265 -0.010841 0.047033 0.03092 0.22427 
0.068571 0.0041209 -0.042079 0.01415 -0.039284 0.016288 0.018754 0.25041 
0.015794 -0.041586 -0.04471 0.00050378 -0.061316 -0.0406 -0.043395 0.08304 
-0.13168 -0.026624 -0.017253 0.012177 -0.058028 -0.072003 -0.082196 -0.21537 
-0.21241 0.06479 0.057227 0.057555 -0.018404 0.032236 -0.022514 -0.35989 
-0.082196 0.12595 0.12332 0.12349 0.03799 0.14305 0.078436 -0.14878 
0.091425 0.10819 0.12447 0.14141 0.061501 0.12299 0.10277 0.15357 
0.14239 0.051636 0.073175 0.12398 0.053774 0.11296 0.10162 0.26094 
0.10556 -0.034352 -0.0013048 0.10129 0.035688 0.12003 0.095699 0.13516 
0.10343 -0.0039354 -0.034188 0.045553 -0.0049219 0.19501 0.13483 0.059693 
-0.023007 -0.015938 -0.06 0.0023123 -0.049807 0.0023123 0.016288 -0.182 
-0.21192 -0.04619 -0.077428 -0.028104 -0.096172 -0.32208 -0.24003 -0.29988 
-0.27867 -0.059836 -0.053424 -0.019226 -0.098309 -0.43503 -0.36532 -0.17641 
-0.17328 -0.060987 -0.0070593 0.019083 -0.061973 -0.34641 -0.34559 0.0074092 
0.04506 0.012342 0.051143 0.066927 -0.0087034 -0.082361 -0.17542 0.10507 
0.26291 0.12661 0.11066 0.10935 0.036017 0.20816 0.08715 0.1419 
0.22855 0.19418 0.12085 0.13056 0.058213 0.26998 0.18563 0.16015 
0.11872 0.18613 0.13532 0.14667 0.070544 0.14502 0.14897 0.37109 
0.069722 0.15324 0.097179 0.15456 0.0786 -0.0083746 0.041443 0.43308 
-0.0062372 0.04506 0.020398 0.12447 0.0592 -0.14632 -0.10965 0.15423 
-0.014787 -0.016595 -0.027282 0.055582 0.0062583 -0.22968 -0.2106 -0.13958 
0.0064227 0.0052718 0.011848 0.058542 -0.00031829 -0.14204 -0.17279 -0.16555 
0.064954 0.09422 0.097672 0.11362 0.042265 0.033387 -0.035174 -0.04619 
0.097508 0.13532 0.081395 0.11905 0.056733 0.1544 0.079094 -0.039449 
0.083862 0.091096 0.005765 0.071037 0.021713 0.12118 0.08863 -0.11097 
0.020233 0.021384 -0.028104 0.027468 -0.02794 -0.052109 -0.025967 -0.093376 
-0.062467 -0.061151 -0.08384 -0.023501 -0.086142 -0.15092 -0.12001 0.0039565 
-0.076113 -0.10867 -0.059343 -0.028104 -0.096007 -0.029091 -0.07266 -0.054246 
-0.012156 -0.046025 0.011684 0.013821 -0.067235 0.147 0.064132 -0.041422 
-0.00015387 0.023193 0.055089 0.074326 -0.021363 0.12102 0.089123 0.048677 
-0.0039354 0.064461 0.062488 0.1174 0.028783 0.15916 0.12217 0.20503 
0.12628 0.15144 0.093562 0.1345 0.062159 0.22805 0.18333 0.3877 
0.23792 0.17347 0.1276 0.15785 0.083533 0.22822 0.20865 0.40513 
0.23118 0.14124 0.094384 0.14387 0.076463 0.092247 0.10606 0.18432 
0.13434 0.09274 0.052952 0.11263 0.049499 -0.13284 -0.07825 -0.03912 
0.053609 -0.0031133 0.025166 0.082382 0.020069 -0.31468 -0.23938 -0.13382 
0.015959 0.026646 0.023851 0.06479 -0.0016336 -0.36038 -0.33901 -0.034681 
-0.019226 0.060844 0.023028 0.057062 -0.013143 -0.28344 -0.30794 0.099316 
-0.036489 0.036017 0.013657 0.04506 -0.019061 -0.052273 -0.13284 0.059035 
-0.056055 0.0072447 -0.0021268 0.03092 -0.031557 0.052952 -0.027282 -0.078086 
-0.044381 -0.054082 -0.009361 0.039799 -0.028269 0.093233 0.036346 -0.17197 
-0.050958 -0.0054151 0.01415 0.084519 0.0060938 0.17528 0.11543 -0.23313 
-0.029255 0.082546 0.036017 0.083697 0.019576 0.2583 0.1955 -0.12659 
-0.0082102 0.093891 0.037497 0.083368 0.023686 0.31585 0.26817 0.060186 
0.047691 0.083697 0.045882 0.086492 0.024837 0.30056 0.27409 0.17659 
0.098659 0.055911 0.044567 0.083204 0.016781 0.14387 0.16755 0.18876 
0.09685 0.027468 0.02681 0.071695 0.0036276 0.041607 0.06594 0.10803 
0.092411 0.04654 0.036182 0.077285 0.0044497 -0.018733 -0.019061 0.0044497 
0.059035 0.050979 0.040621 0.070708 -0.0039354 -0.072167 -0.073482 -0.12231 
0.059528 0.041607 0.01826 0.067749 -0.0082102 -0.039284 -0.05589 -0.10982 
0.070215 0.048513 0.05624 0.07597 0.0051074 0.042758 -0.0070593 -0.060165 
0.041607 0.011191 0.032564 0.074326 0.0092177 0.079258 0.039963 0.042758 
0.01974 0.032071 0.011355 0.088958 0.018096 0.060022 0.059857 0.088136 
0.025824 0.082875 0.027632 0.077614 0.0079024 -0.042901 -0.030242 0.16015 
0.064461 0.077943 0.017274 0.067256 -0.0077169 -0.1182 -0.10193 0.2537 
0.020562 0.065283 0.03092 0.071037 -0.010676 -0.13678 -0.13645 0.14617 
-0.067728 0.047362 0.037168 0.078107 -0.0014692 -0.10028 -0.13086 0.036182 
-0.045203 0.062323 0.059528 0.091425 0.017438 0.043416 -0.026953 0.060844 
0.01267 0.072188 0.037826 0.08567 0.020891 0.10129 0.043416 0.00017495 
0.034537 0.03536 0.023028 0.064461 0.0060938 0.10688 0.059528 -0.13793 
0.089945 -0.0095255 0.0052718 0.040128 -0.01117 0.1271 0.091425 -0.13727 
0.14568 0.024508 0.04506 0.064625 -0.0022913 0.12529 0.096193 -0.12642 
0.052459 0.012999 0.021878 0.071859 0.0016547 0.078929 0.066598 -0.1843 
-0.10143 -0.026296 -0.021528 0.067749 0.00033937 0.13516 0.09685 -0.23888 
-0.15454 -0.0055795 -0.029255 0.037332 -0.020377 0.18465 0.12217 -0.20205 
-0.050136 0.043251 0.026152 0.059693 -0.008539 0.14864 0.12875 0.03651 
0.085012 0.12973 0.081889 0.10524 0.024179 0.12233 0.11625 0.2486 
0.17906 0.11263 0.071695 0.10902 0.03536 0.082875 0.079587 0.37175 
0.16064 0.06183 0.068078 0.10524 0.031249 -0.041586 -0.016924 0.30763 
0.044073 0.062159 0.032236 0.084848 0.013821 -0.15651 -0.12642 0.056898 
0.00050378 0.055254 0.037004 0.075641 0.0013258 -0.24299 -0.23675 -0.10867 
0.047197 0.085835 0.049006 0.075476 -0.0032777 -0.27571 -0.27999 -0.15832 
0.08419 0.10935 0.074654 0.08863 0.0093821 -0.1547 -0.18742 -0.086142 
0.048019 0.043416 0.055089 0.10359 0.030427 0.033715 -0.060494 -0.08121 
-0.057041 -0.011005 0.007738 0.10047 0.034537 0.097508 0.032893 -0.13662 
-0.066084 -0.019061 -0.021363 0.052294 0.0047785 0.12053 0.09274 -0.093376 
0.023193 -0.030406 -0.021692 0.034702 -0.012485 0.19336 0.14371 0.027303 
0.10343 0.043416 0.013328 0.050157 -0.0091966 0.20438 0.17297 0.14371 
0.083204 0.038648 0.025166 0.061995 -0.0024557 0.1659 0.16212 0.14157 
0.024673 0.052952 0.03651 0.071037 0.0026412 0.11346 0.1105 0.12973 
0.073997 0.088794 0.045882 0.077614 0.0088889 0.10902 0.09422 0.15012 
0.031578 0.058049 0.05213 0.081889 0.011191 0.060844 0.049006 0.077614 
-0.043395 -0.0024557 0.038483 0.068407 0.00033937 -0.043888 -0.033694 -0.036654 
-0.054904 -0.015609 0.025495 0.058706 -0.0077169 -0.11738 -0.10702 -0.14467 
-0.01117 -0.036654 0.00033937 0.067585 -0.0036066 -0.16424 -0.1649 -0.055397 
0.08419 0.027303 0.0093821 0.087643 0.012835 -0.12642 -0.14928 0.15127 
0.12612 0.054432 0.028619 0.078436 0.011848 -0.016102 -0.065591 0.22197 
0.082053 0.055582 0.014808 0.065447 0.0021479 0.08863 0.020233 0.21161 
0.075641 0.093562 0.013986 0.060515 -0.0077169 0.074819 0.038155 0.16212 
0.12299 0.11 0.082053 0.095371 0.01267 0.063639 0.051965 0.099152 
0.11658 0.13039 0.098166 0.12381 0.036839 0.030263 0.013821 0.041278 
0.06479 0.13154 0.091425 0.13647 0.049335 -0.0868 -0.079566 0.020069 
-0.016102 0.054432 0.050157 0.098001 0.026974 -0.15421 -0.13826 -0.14895 
-0.14533 -0.041915 -0.0062372 0.058049 -0.0039354 -0.17887 -0.18463 -0.32092 
-0.13267 -0.0047575 0.019905 0.05772 -0.0027845 -0.1473 -0.16934 -0.15651 
0.011191 0.0024767 -0.0052507 0.071695 0.012177 -0.010183 -0.065097 0.14453 
0.10935 0.026317 0.0098754 0.085012 0.021878 0.036839 -0.011498 0.30171 
0.16492 0.0046141 0.018589 0.074654 0.012342 -0.00031829 -0.019719 0.22707 
0.12694 0.031414 0.063803 0.096028 0.027139 0.086985 0.032893 0.13647 
0.090931 0.085177 0.06183 0.10096 0.036182 0.18777 0.11395 0.12118 
0.033387 0.11083 0.067091 0.10474 0.042923 0.2953 0.2223 0.18563 
-0.010183 0.093069 0.071695 0.10902 0.046375 0.33969 0.28626 0.19846 
-0.067892 0.045389 0.037826 0.084026 0.023028 0.21276 0.20832 -0.018404 
-0.096172 -0.041915 0.0037921 0.043416 -0.017911 0.021713 0.06035 -0.23231 
-0.1187 -0.086142 -0.044052 0.00066819 -0.063782 -0.13037 -0.088937 -0.21619 
-0.075127 -0.082032 -0.047834 -0.01117 -0.088773 -0.15125 -0.1376 -0.066906 
0.055089 0.020233 -0.0083746 0.048019 -0.043395 -0.083018 -0.093048 0.11576 
0.16048 0.12003 0.065612 0.10869 0.015301 -0.03912 -0.072003 0.2491 
0.14996 0.12036 0.08978 0.12612 0.040621 -0.059836 -0.07825 0.24384 
0.072353 0.12069 0.08156 0.12414 0.048184 -0.041915 -0.05589 0.11855 
0.020562 0.099152 0.018754 0.086492 0.029276 0.064461 0.0047785 -0.029584 
-0.021692 0.016288 0.030098 0.076299 0.020398 0.094055 0.045553 -0.19712 
-0.010841 0.00066819 0.0031344 0.056733 0.0037921 0.079916 0.056569 -0.20551 
0.015137 0.0069159 0.018425 0.051143 -0.0068948 0.0065871 0.0065871 -0.17641 
0.036675 0.02533 0.055747 0.061666 -0.0027845 0.041936 0.021878 -0.048327 
0.11461 0.098001 0.0689 0.081395 0.012506 0.072846 0.052623 0.1664 
0.23052 0.15193 0.085012 0.10984 0.034702 0.10803 0.088465 0.40907 
0.26981 0.16245 0.085012 0.14897 0.06594 0.14831 0.11674 0.4658 
0.12102 0.09981 0.037497 0.11477 0.047855 0.13993 0.11115 0.42995 
-0.19696 -0.066577 -0.048492 0.036346 -0.016924 -0.0004827 0.01563 0.35054 
-0.33687 -0.14171 -0.071181 -0.0029489 -0.064111 -0.095349 -0.08269 0.1322 
-0.25023 -0.043888 -0.018239 0.015794 -0.057205 -0.034516 -0.075291 -0.16292 
-0.073976 0.013986 0.02829 0.051472 -0.025967 0.031085 -0.024487 -0.39031 
0.0088889 0.076627 0.044731 0.075312 0.00033937 0.065612 0.027468 -0.44506 
0.043416 0.069064 0.052294 0.08304 0.013328 0.066763 0.042265 -0.34329 
0.016781 0.0090533 0.028454 0.061337 1.0539e-005 0.012835 0.010697 -0.26782 
0.02533 0.023686 0.01267 0.041443 -0.017417 0.0031344 0.0065871 -0.19071 
0.077943 0.051472 0.050486 0.072024 0.0016547 0.12168 0.07038 -0.014293 
0.15193 0.088301 0.03947 0.1077 0.031414 0.19155 0.14782 0.20471 
0.18432 0.082382 0.018918 0.090767 0.0227 0.11576 0.12513 0.28412 
0.12381 0.016616 0.023522 0.075312 0.0031344 0.0065871 0.026646 0.25091 
0.074983 -0.017911 0.012177 0.060186 -0.013471 0.0036276 0.0016547 0.28658 
0.12217 0.029441 0.0019835 0.050979 -0.016595 0.11888 0.072681 0.35728 
0.15801 0.051472 0.00297 0.055582 -0.0091966 0.19813 0.13203 0.3295 
0.09981 0.08419 0.034044 0.067091 0.0023123 0.18185 0.14437 0.14519 
-0.012156 0.032071 0.054103 0.076627 0.0067515 0.024015 0.047033 -0.12692 
-0.048656 0.022371 0.026974 0.062323 -0.0049219 -0.1108 -0.079895 -0.28607 
-0.061809 0.050979 0.023851 0.06035 -0.0031133 -0.063453 -0.078579 -0.17789 
-0.079566 0.049499 0.032236 0.066763 0.00050378 -0.022514 -0.057041 -0.10143 
-0.091732 0.042594 0.0044497 0.075148 -0.0011404 -0.11294 -0.11146 -0.13875 
-0.098144 0.035853 -0.0059084 0.067585 -0.010019 -0.27144 -0.23132 -0.1843 
-0.029255 0.026646 -0.015444 0.036182 -0.03057 -0.27177 -0.26585 -0.062631 
0.03092 0.024837 0.005765 0.048677 -0.019719 -0.094199 -0.16029 0.012342 
0.055089 0.025001 0.034044 0.069558 -0.0016336 0.027961 -0.021034 0.065118 
0.086657 0.058377 0.069886 0.096521 0.013657 0.00033937 -0.031228 0.084684 
0.080738 0.10754 0.06183 0.096521 0.01826 -0.069865 -0.071016 0.067256 
0.076956 0.088958 0.066434 0.098001 0.028454 0.022206 -0.0098543 0.044731 
0.042758 0.087972 0.059528 0.094548 0.033551 0.17676 0.09833 0.044567 
0.040785 0.077614 0.042265 0.077614 0.024508 0.26044 0.19303 0.042923 
0.088465 0.053445 0.033715 0.073832 0.020069 0.30648 0.25732 0.094055 
0.098988 0.035031 0.015959 0.082711 0.021713 0.22855 0.2223 0.094713 
0.088465 0.031249 -0.013636 0.069229 0.0067515 0.095864 0.11888 -0.0067304 
0.10507 0.022371 -0.013471 0.043909 -0.019061 -0.055397 -0.018568 -0.046847 
0.10178 0.04358 0.017438 0.055089 -0.018897 -0.19975 -0.15552 -0.017088 
0.04917 0.020562 0.050979 0.081067 0.00033937 -0.23 -0.2203 -0.047176 
0.018754 0.040128 0.056404 0.090767 0.020727 -0.15684 -0.19334 -0.030077 
0.020398 0.1026 0.042429 0.085506 0.020562 -0.12692 -0.16818 0.0046141 
0.011355 0.071531 0.015794 0.060679 0.0031344 -0.088115 -0.12593 0.061008 
0.0044497 0.030263 0.00099702 0.04654 -0.015609 -0.07562 -0.11212 0.18432 
-0.016431 0.004943 0.0075736 0.039305 -0.033201 -0.12725 -0.13711 0.26373 
-0.023172 -0.038956 -0.0068948 0.029112 -0.050136 -0.15668 -0.14665 0.28576 
0.018096 -0.0057439 -0.001798 0.05476 -0.029584 -0.0091966 -0.078415 0.15555 
0.065776 0.061995 0.055418 0.10787 0.025001 0.17626 0.071859 -0.091897 
-0.0083746 0.095535 0.094384 0.12727 0.051965 0.19566 0.14996 -0.26338 
0.017274 0.14141 0.092904 0.13236 0.059857 0.18383 0.15801 -0.16934 
0.10211 0.12661 0.0689 0.12053 0.059528 0.21046 0.1858 -0.015609 
0.14009 0.065118 0.050979 0.10524 0.050814 0.28099 0.24301 0.031085 
0.078107 0.043087 0.0037921 0.066105 0.018425 0.24976 0.22904 -0.031064 
-0.009361 -0.01676 -0.0068948 0.037497 -0.013471 0.14469 0.15785 -0.051287 
-0.069701 -0.0031133 0.03388 0.047033 -0.019884 0.0037921 0.041936 -0.03353 
-0.060658 0.065283 0.012506 0.042594 -0.019884 -0.022185 -0.014458 0.0088889 
-0.024487 -0.0072237 0.017438 0.054103 -0.012156 -0.0072237 -0.020377 0.05624 
0.0065871 0.058049 0.024508 0.070051 -0.0049219 -0.11853 -0.12281 0.004943 
0.096193 0.1105 0.063145 0.11165 0.019411 -0.3206 -0.26897 0.045224 
0.14683 0.1345 0.072681 0.11954 0.03388 -0.28179 -0.27423 0.30253 
0.12332 0.097672 0.06035 0.10984 0.032236 -0.12248 -0.1912 0.23249 
0.057884 0.018918 0.032071 0.088136 0.0088889 -0.060823 -0.12823 -0.086142 
0.10491 -0.0062372 0.016452 0.067749 -0.0044286 -0.0047575 -0.036983 -0.15174 
0.1613 0.036675 0.011026 0.061172 -0.0032777 0.11625 0.052459 -0.006566 
0.035853 -0.011334 0.016945 0.044731 -0.015609 0.10787 0.076134 0.070215 
-0.10291 0.00066819 0.023028 0.046375 -0.018733 0.14354 0.12003 0.051801 
-0.087129 0.056569 0.071859 0.094055 0.012342 0.21079 0.17067 0.11592 
-0.071181 0.03947 0.063968 0.098823 0.024837 0.20964 0.18284 0.06183 
-0.029091 0.031742 -0.0029489 0.092082 0.023522 0.12842 0.13203 -0.0019624 
0.0052718 0.00033937 -0.031721 0.057062 0.0021479 0.067913 0.076134 0.029276 
0.01711 -0.021528 -0.0029489 0.048677 -0.0077169 0.057884 0.053774 0.055254 
0.012835 0.018918 -0.0014692 0.045224 -0.015938 0.02829 0.020891 0.024344 
0.034044 0.029441 0.046704 0.072517 -0.0036066 -0.027775 -0.029584 -0.017253 
0.060679 0.072681 0.064132 0.095042 0.015794 -0.01117 -0.02942 0.00066819 
0.067749 0.08567 0.052952 0.096028 0.022864 0.0083956 -0.026624 0.054267 
0.01152 0.048841 0.025001 0.067749 0.0023123 -0.085156 -0.086964 -0.035174 
-0.014787 0.056404 0.013164 0.0592 -0.0078813 -0.049971 -0.077264 -0.041093 
-0.017582 0.04095 0.029605 0.055911 -0.0091966 0.046211 -0.0096899 -0.025802 
0.0080668 0.018589 0.0079024 0.050979 -0.013965 0.032564 0.0039565 0.0090533 
0.058049 0.07449 0.03388 0.092247 0.010533 0.00033937 0.0032988 0.035524 
0.12184 0.1105 0.069393 0.11625 0.040621 0.098823 0.051965 0.098166 
0.10704 0.072353 0.080902 0.12283 0.051801 0.11346 0.082053 0.11017 
0.057555 0.021056 0.046046 0.09833 0.035031 0.065283 0.071531 0.12628 
0.027632 -0.018239 0.0092177 0.068407 0.0092177 0.016616 0.019576 0.16936 
0.051308 -0.0016336 0.0083956 0.055089 -0.0078813 -0.021692 -0.021363 0.092576 
0.041278 0.037826 0.014643 0.058706 -0.012978 -0.018733 -0.035996 0.030592 
-0.0083746 0.009711 -0.029913 0.020398 -0.040764 -0.037969 -0.055068 -0.089431 
-0.10242 0.038319 -0.015444 0.012177 -0.056383 -0.054246 -0.070359 -0.16407 
-0.13711 0.041114 0.050157 0.050486 -0.028433 -0.035832 -0.058356 -0.18183 
-0.072332 0.057884 0.080738 0.098001 0.01415 0.019083 -0.013143 -0.048327 
0.066434 0.089287 0.049828 0.12612 0.047855 0.058706 0.028454 0.10885 
0.14354 0.073997 0.052952 0.10885 0.044402 0.04506 0.023522 0.1955 
0.16837 0.062981 0.029605 0.083368 0.0227 -0.0060728 -0.0095255 0.24778 
0.16903 0.082546 0.044567 0.087314 0.021878 0.05624 0.021549 0.22756 
0.1322 0.079751 0.03388 0.077943 0.017274 0.13253 0.07597 0.1391 
0.096521 0.094877 0.030263 0.078765 0.012999 0.1276 0.090603 0.058049 
0.045718 0.019083 0.01563 0.065776 0.0019835 0.072024 0.065283 0.00066819 
0.00099702 -0.0075525 0.017438 0.036346 -0.01676 0.02681 0.045389 -0.025802 
-0.02235 -0.004593 0.0056006 0.032893 -0.029748 0.05213 0.031907 -0.088773 
-0.11508 -0.008539 0.015959 0.047033 -0.023007 0.070708 0.056898 -0.17394 
-0.17591 0.023193 0.049992 0.088301 0.0093821 0.078765 0.055582 -0.19071 
-0.12659 0.076463 0.08304 0.12414 0.042758 0.076299 0.065118 -0.09091 
0.010369 0.084026 0.049992 0.10491 0.037004 0.066763 0.068407 0.034373 
0.10754 0.083862 0.020891 0.077778 0.01711 0.059364 0.05624 0.11609 
0.15242 0.12891 0.04917 0.084519 0.013821 0.020398 0.02122 0.1391 
0.1641 0.099481 0.055582 0.093398 0.018096 -0.017417 -0.018568 0.1299 
0.11083 0.086821 0.046868 0.090438 0.017274 -0.053588 -0.064111 0.10244 
0.049664 0.025166 0.027303 0.072517 0.0069159 -0.1113 -0.11048 0.075476 
0.03947 -0.017746 1.0539e-005 0.051636 -0.0070593 -0.047505 -0.088773 0.098823 
0.062652 0.0052718 0.017438 0.045224 -0.012814 -0.027282 -0.063289 0.12957 
0.014808 0.0044497 0.051636 0.044896 -0.018239 -0.014129 -0.044381 0.2246 
-0.059672 -0.0077169 0.014972 0.0592 -0.014458 -0.042408 -0.058521 0.25107 
-0.09239 0.0085601 -0.033037 0.062817 -0.0138 -0.060494 -0.08384 0.016945 
-0.028762 0.058542 0.01563 0.063639 -0.0059084 0.044402 -0.013965 -0.076606 
0.06183 0.11576 0.097015 0.11247 0.03388 0.16492 0.095371 -0.011663 
0.14552 0.094055 0.066105 0.11231 0.041443 0.16837 0.12825 0.056569 
0.1567 0.071695 0.034866 0.092247 0.031085 0.14272 0.1396 0.082217 
0.13828 0.075148 0.036017 0.081067 0.023193 0.15834 0.1322 0.024837 
0.016452 0.04095 0.020891 0.069064 0.010533 0.066763 0.064625 -0.045532 
-0.10817 0.021056 0.0036276 0.045553 -0.014787 -0.057041 -0.017582 -0.11771 
-0.096994 0.081067 0.026152 0.04506 -0.024816 -0.12527 -0.11689 -0.11639 
0.025001 0.046704 0.027468 0.052459 -0.024487 -0.17082 -0.16391 -0.016924 
0.11247 0.047033 0.045882 0.069886 -0.011663 -0.15552 -0.16802 0.05624 
0.10754 0.039634 0.03092 0.10113 0.018425 -0.044052 -0.1016 0.038648 
0.058871 0.062981 0.026974 0.085835 0.019411 0.024179 -0.02942 0.024837 
0.055418 0.066598 0.025988 0.07449 0.007738 0.081724 0.024837 0.064625 
-0.025145 -0.03764 0.0036276 0.057391 -0.010841 0.029769 0.0080668 0.014808 
-0.10637 -0.083676 -0.0052507 0.044402 -0.025967 -0.045203 -0.043395 -0.0054151 
-0.081539 0.011355 0.022371 0.056898 -0.021856 -0.10472 -0.1016 -0.012156 
0.0044497 0.070708 0.057555 0.085177 -0.00015387 -0.13645 -0.14895 -0.011498 
0.076134 0.12233 0.081889 0.10228 0.020727 -0.11311 -0.13481 0.064625 
0.075805 0.12003 0.073668 0.098823 0.026481 -0.042079 -0.089595 0.070051 
0.084848 0.060186 0.04506 0.079422 0.016123 -0.0088678 -0.053424 0.040785 
0.062652 0.0014903 0.0087245 0.076134 0.016123 0.13006 0.073339 0.023686 
0.026974 0.01004 0.0093821 0.084355 0.027468 0.2999 0.21145 0.029769 
0.063968 0.073832 0.021713 0.081067 0.028454 0.38704 0.31749 0.012013 
0.066763 0.076956 0.028947 0.077285 0.021713 0.30385 0.3073 0.042923 
0.042265 0.056898 -0.01528 0.041278 -0.013143 0.17281 0.19435 0.016781 
0.0032988 0.035853 -0.006566 0.034702 -0.031228 -0.033037 0.025988 -0.026953 
0.024837 0.01004 0.029276 0.054596 -0.023994 -0.1279 -0.0771 0.0028056 
0.0092177 0.023357 0.037497 0.070051 -0.010019 -0.15158 -0.1404 0.037332 
-0.03501 0.045389 0.051308 0.075641 -0.0016336 -0.11755 -0.14287 -0.0055795 
-0.058521 0.04095 0.044731 0.071695 -0.0047575 -0.096665 -0.12971 -0.07266 
-0.035996 0.024837 0.030263 0.065612 -0.011498 -0.02794 -0.081045 -0.05589 
0.017438 0.05476 0.047855 0.08419 0.0044497 0.049499 -0.0039354 0.029605 
0.045718 0.061501 0.020727 0.10129 0.022864 0.1128 0.051308 0.014643 
0.052952 0.027961 0.0019835 0.069886 0.0044497 0.093398 0.058377 0.0021479 
0.12891 0.08156 0.00297 0.053938 -0.0068948 0.13615 0.10836 0.11165 
0.15111 0.026152 0.00017495 0.049664 -0.013471 0.16558 0.12332 0.14848 
0.046704 -0.016102 0.00083261 0.043745 -0.024323 0.044896 0.046868 0.067091 
0.0039565 0.030098 -0.00081153 0.041443 -0.025309 -0.033201 -0.0095255 -0.00081153 
0.058706 0.062488 0.045718 0.070708 -0.0032777 -0.027118 -0.044381 -0.064111 
0.093726 0.098494 0.055747 0.079422 0.0093821 -0.036325 -0.051287 -0.062796 
0.087314 0.07038 0.043087 0.073504 0.0034632 -0.025802 -0.034023 -0.012814 
0.0014903 0.00017495 0.073175 0.076956 0.0044497 -0.025309 -0.042079 -0.050464 
-0.045368 0.020069 0.031578 0.08156 0.01267 0.072353 0.023686 -0.03353 
-0.05589 0.012506 -0.0034422 0.087643 0.0227 0.18613 0.12677 0.036017 
-0.055068 0.01152 0.0037921 0.06479 0.0092177 0.17824 0.14749 0.074326 
-0.00015387 0.052952 0.018754 0.061501 0.0014903 0.12233 0.12201 0.11609 
0.071695 0.076134 0.010369 0.056898 -0.004593 0.1105 0.10063 0.11313 
0.052952 0.040785 0.026974 0.060186 -0.0057439 0.075641 0.065776 0.12661 
0.035524 0.03651 0.014808 0.056076 -0.013636 -0.018404 -0.0032777 0.16048 
-0.055397 -0.023829 0.0041209 0.043909 -0.025309 -0.054904 -0.058685 0.050979 
-0.087129 -0.0055795 0.022864 0.050157 -0.022679 -0.062631 -0.084005 -0.1376 
0.020562 0.054596 0.069722 0.068242 -0.0047575 0.022371 -0.023336 -0.15388 
0.13006 0.079751 0.064461 0.082711 0.011026 0.08304 0.032893 -0.10867 
0.1248 0.090931 0.058377 0.098001 0.020727 0.059364 0.036675 -0.045039 
0.08156 0.083862 0.044073 0.12168 0.041607 0.011848 0.01826 0.043251 
0.066269 0.077449 0.066598 0.11461 0.044402 0.004943 -0.0019624 0.14552 
0.067585 0.056076 0.013657 0.079094 0.020069 0.011684 -0.0032777 0.19665 
0.075312 0.027961 0.0016547 0.060844 0.00050378 0.014315 0.00017495 0.19024 
0.083368 0.027468 0.042594 0.076299 0.0060938 -0.014622 -0.03057 0.16393 
0.12151 0.065118 0.068078 0.099316 0.026317 0.055254 0.017274 0.21079 
0.071202 0.029934 0.050814 0.098001 0.030098 0.088794 0.057062 0.14765 
0.025988 0.043745 0.033551 0.072353 0.0080668 -0.028433 -0.015938 0.010697 
-0.009361 0.053281 0.051472 0.073339 0.00066819 -0.17377 -0.14188 -0.13004 
-0.070687 0.046211 0.064132 0.08304 0.0083956 -0.22951 -0.21389 -0.17854 
-0.10554 0.055254 0.025659 0.096193 0.019576 -0.15552 -0.20501 -0.20863 
-0.011005 0.0093821 -0.0057439 0.086821 0.019411 -0.015609 -0.090581 -0.18923 
0.01711 0.046211 0.010533 0.069064 0.016123 0.18596 0.069558 -0.12577 
0.019247 0.057391 0.043087 0.08156 0.020727 0.23052 0.16623 0.034537 
0.14354 0.039799 0.063145 0.095864 0.024837 0.19369 0.18037 0.25913 
0.1659 0.068242 0.039963 0.08567 0.016288 0.088958 0.095042 0.20964 
0.13056 0.070544 0.031249 0.08304 0.013164 0.039963 0.047033 0.28165 
0.053116 0.014479 0.024508 0.069064 0.0070803 0.084848 0.066598 0.38129 
-0.0090322 0.026974 0.028454 0.05624 -0.0050863 0.078107 0.0592 0.3946 
-0.0024557 0.040128 0.046704 0.063639 -0.0088678 -0.038298 -0.028762 0.24417 
0.042758 0.067256 0.097344 0.10326 0.013164 -0.11755 -0.092226 -0.018568 
0.01004 0.056569 0.058706 0.11822 0.032071 -0.10341 -0.12807 -0.23773 
-0.060987 -0.023007 -0.0016336 0.10047 0.027796 -0.14615 -0.16095 -0.31961 
-0.082196 -0.020048 -0.010676 0.055418 -0.0024557 -0.15372 -0.15783 -0.24924 
0.02829 0.046375 0.023028 0.064461 -0.0026201 -0.096336 -0.12922 -0.12626 
0.074983 0.089616 0.038812 0.074819 0.0046141 -0.011663 -0.060494 -0.032379 
0.054267 0.13056 0.058213 0.091918 0.01563 0.027468 -0.017582 0.0079024 
0.026317 0.1054 0.060186 0.096521 0.019905 0.0067515 -0.016924 0.037826 
0.059528 0.072353 0.061995 0.095371 0.023357 0.03651 0.0072447 0.072024 
0.066434 0.081067 0.065776 0.095042 0.025988 0.10359 0.060515 0.06594 
0.06479 0.044402 0.046704 0.081231 0.018918 0.16492 0.11444 0.08863 
0.0051074 0.017274 0.015794 0.066269 0.0083956 0.18317 0.14864 0.068407 
-0.051122 -0.0013048 0.0062583 0.072024 0.0075736 0.14897 0.12529 0.023028 
0.016452 -0.0011404 -0.012156 0.071037 0.0064227 0.095535 0.097508 0.053116 
0.073997 0.014808 -0.011663 0.048677 -0.0088678 0.061008 0.065283 0.10113 
0.073339 0.079916 -0.0013048 0.042923 -0.015116 0.059857 0.038648 0.10145 
0.01267 0.08419 0.010862 0.050814 -0.015938 0.0023123 -0.0052507 0.038319 
-0.033037 0.074326 0.016288 0.055254 -0.0138 -0.058685 -0.039449 -0.059672 
-0.0406 0.064132 0.072846 0.09274 0.011684 -0.010841 -0.042901 -0.10965 
-0.016266 0.076299 0.070708 0.11115 0.032893 0.0079024 -0.022185 -0.07562 
-0.0040998 0.063803 0.035524 0.079094 0.016452 0.0056006 -0.0067304 -0.082361 
-0.018568 0.012835 -0.010019 0.042594 -0.016431 -0.061151 -0.072003 0.0062583 
0.022864 -0.0082102 0.0039565 0.040292 -0.030242 -0.14188 -0.13267 0.12184 
0.042429 0.015301 0.0083956 0.078765 -0.0070593 -0.085978 -0.11985 0.076627 
0.025659 0.027139 0.026974 0.10014 0.01974 0.069722 -0.0054151 0.049828 
0.066269 0.058377 0.034209 0.08008 0.015137 0.17478 0.098659 0.15144 
0.070708 0.034866 0.026646 0.076627 0.0098754 0.13993 0.10556 0.19205 
0.087643 0.021713 0.043416 0.090438 0.013986 0.035524 0.041772 0.11033 
0.097672 0.081067 0.050486 0.086163 0.017274 0.005765 0.0034632 0.023522 
0.13812 0.09274 0.034373 0.08567 0.021878 0.071531 0.024837 -0.022514 
0.090767 0.063803 0.023522 0.069229 0.01004 0.034209 0.013657 0.017438 
0.066598 0.058049 0.027139 0.060844 -0.00064712 -0.047669 -0.038627 0.084026 
0.033387 0.0088889 0.022371 0.049664 -0.010348 -0.036818 -0.060494 -0.02794 
-0.089924 0.017932 0.018096 0.049335 -0.012814 0.069393 0.0051074 -0.20995 
-0.18035 0.043251 0.00017495 0.088136 0.010369 0.12217 0.08156 -0.24102 
-0.15289 0.025824 0.040456 0.11346 0.031742 0.14568 0.10359 -0.15109 
-0.014622 0.10376 0.039141 0.1003 0.026317 0.059364 0.053281 0.040128 
0.11987 0.12858 0.050979 0.097179 0.023686 -0.028926 0.004943 0.19468 
0.10458 0.11724 0.030263 0.079751 0.012177 -0.086142 -0.071674 0.24417 
0.062488 0.054596 -0.0055795 0.051636 -0.01232 -0.16588 -0.1524 0.15094 
0.0023123 -0.009361 -0.0068948 0.039799 -0.023994 -0.18808 -0.18594 0.022864 
0.00083261 -0.049149 0.023028 0.055418 -0.0091966 -0.023994 -0.093048 0.020727 
0.061501 -0.049971 0.0227 0.058049 -0.0029489 0.098494 0.028619 0.067091 
0.071202 -0.0021268 0.03092 0.056404 -0.0057439 0.15324 0.098166 0.00083261 
0.086492 0.06742 0.064625 0.082217 0.0092177 0.15522 0.12135 0.0090533 
0.1248 0.079422 0.058049 0.097015 0.020562 0.14864 0.1276 0.039799 
0.13023 0.081889 0.048841 0.12349 0.038977 0.099974 0.087314 -0.022185 
0.049006 0.079258 0.055254 0.11017 0.032729 0.0014903 0.0093821 -0.065262 
-0.026624 0.050321 0.044238 0.1008 0.029276 -0.030406 -0.030077 0.0069159 
-0.045203 0.044731 0.016945 0.074654 0.010862 -0.045532 -0.055232 0.082875 
-0.021034 0.056569 0.030098 0.073997 0.0060938 -0.058685 -0.072003 0.17889 
0.0046141 -0.0031133 0.0087245 0.058377 -0.004593 -0.031557 -0.055232 0.17856 
-0.0083746 0.0036276 0.00050378 0.046211 -0.014622 0.027796 -0.027282 0.044896 
-0.00064712 0.033551 0.00050378 0.03799 -0.022514 0.044896 0.0059294 -0.021034 
0.06479 0.049828 0.034209 0.055418 -0.01117 0.076956 0.051801 0.0056006 
0.095206 0.079587 0.068407 0.082875 0.009711 0.085012 0.056569 0.037826 
0.086821 0.048677 0.068242 0.1105 0.029441 0.020069 0.01974 0.037826 
0.076463 0.03536 0.064132 0.13335 0.045882 -0.018239 -0.021199 0.04358 
0.044402 0.056733 0.033387 0.098494 0.029276 -0.021199 -0.037476 -0.0067304 
-0.0098543 0.071859 0.0028056 0.067585 0.0067515 0.013657 -0.017911 -0.060329 
-0.010512 0.030592 0.0072447 0.055254 -0.0050863 0.027961 0.0069159 -0.07414 
-0.00064712 0.026317 -0.015609 0.038155 -0.025145 -0.0098543 -0.02235 -0.030735 
0.005765 0.0069159 -0.018404 0.027468 -0.034516 -0.032543 -0.03912 0.043745 
0.025166 0.064132 0.044896 0.06742 -0.0055795 0.091096 0.039305 0.12151 
0.053774 0.085835 0.095042 0.10162 0.024508 0.17396 0.11559 0.15604 
0.063968 0.095535 0.10556 0.12151 0.045882 0.20767 0.16853 0.16377 
0.044731 0.077778 0.072846 0.10935 0.04095 0.17149 0.1442 0.089945 
0.01974 0.043909 0.045389 0.12398 0.043251 0.076792 0.063803 -0.0032777 
-0.022021 0.0021479 -0.0032777 0.10573 0.034866 0.035524 0.032071 -0.096665 
0.06035 0.041443 0.011684 0.081395 0.02681 0.059528 0.05476 -0.045696 
0.096357 0.033222 0.0046141 0.062159 0.0069159 0.019905 0.016452 0.0042853 
0.059035 0.0037921 -0.014622 0.041936 -0.018404 -0.19202 -0.13678 -0.06855 
-0.063289 -0.04471 -0.021363 0.027303 -0.039284 -0.38422 -0.32372 -0.12856 
-0.064768 0.0064227 0.0046141 0.040292 -0.031886 -0.31501 -0.32684 -0.069208 
0.022042 0.059528 0.042429 0.070544 -0.0027845 -0.013143 -0.10489 0.055254 
0.082217 0.11576 0.072846 0.08978 0.016452 0.19172 0.082875 0.14009 
0.11559 0.15094 0.087314 0.10277 0.026152 0.17889 0.13253 0.20125 
0.11592 0.15785 0.091753 0.11724 0.036675 0.13582 0.13615 0.21342 
0.11132 0.090767 0.040785 0.13039 0.053938 0.20339 0.16459 0.23414 
0.074161 0.032564 0.0047785 0.10589 0.040621 0.15686 0.13779 0.098494 
-0.0042642 -0.013965 -0.015116 0.055254 -0.00031829 0.041936 0.061666 -0.10258 
-0.095514 -0.049314 -0.01676 0.036346 -0.026953 -0.062467 -0.042737 -0.19581 
-0.1085 -0.010512 -0.01117 0.034209 -0.037969 -0.12346 -0.10406 -0.21143 
-0.016102 0.026974 0.013492 0.045224 -0.031886 -0.11294 -0.11968 -0.074633 
0.12053 0.072681 0.026481 0.058706 -0.017253 -0.05326 -0.090088 0.079587 
0.16327 0.10063 0.045224 0.073668 0.00099702 0.029112 -0.021856 0.1544 
0.11296 0.040785 0.043909 0.084026 0.011684 0.043087 -0.0031133 0.13532 
0.037332 0.021384 0.03947 0.073997 0.0098754 0.039305 0.0085601 0.1151 
0.039305 0.085999 0.070051 0.086328 0.019411 0.089452 0.052459 0.11428 
0.060844 0.076792 0.067749 0.11592 0.0421 0.14124 0.090438 0.058377 
0.092411 0.084355 0.055089 0.13582 0.060186 0.088958 0.074654 0.00033937 
0.075641 0.067091 0.034373 0.098494 0.039141 0.041443 0.047362 -0.10127 
0.050486 0.034702 0.023686 0.079422 0.020233 -0.0019624 -0.013471 -0.14171 
-0.021856 0.046211 0.0072447 0.060186 -0.0044286 -0.12412 -0.099131 -0.1136 
-0.11031 0.038483 0.0079024 0.049992 -0.023501 -0.17213 -0.13843 -0.045532 
-0.085813 0.019083 0.0074092 0.050321 -0.029091 -0.15816 -0.16835 0.050979 
-0.037805 0.027139 0.012177 0.05213 -0.023994 -0.11903 -0.1455 0.10935 
0.0024767 0.0037921 0.017932 0.052952 -0.017088 -0.050136 -0.084498 0.12792 
0.090767 0.031742 0.054925 0.068407 -0.0024557 0.027468 -0.020706 0.18366 
0.12349 0.070051 0.047033 0.085835 0.011848 0.094055 0.04358 0.17265 
0.072024 0.04506 0.024344 0.090767 0.02122 0.17396 0.10935 0.042594 
0.028619 0.044238 -0.015444 0.078272 0.016288 0.26011 0.19155 0.0016547 
0.065118 0.05065 0.012999 0.062488 0.004943 0.21408 0.19468 -0.00097594 
0.073997 0.063803 0.0324 0.078765 0.015959 0.27228 0.23233 -0.0026201 
0.071695 0.10622 0.057062 0.092411 0.026152 0.27507 0.24367 -0.0068948 
0.094548 0.10819 0.057227 0.095371 0.019576 0.032071 0.08008 0.052623 
0.077285 0.073997 0.036182 0.079422 0.0013258 -0.13744 -0.082361 0.15094 
0.069722 0.032729 0.009711 0.042594 -0.027282 -0.16802 -0.1621 0.25255 
0.083204 -0.03353 -0.0034422 0.034209 -0.032543 -0.1039 -0.12544 0.13615 
0.088794 -0.016595 0.052952 0.063968 -0.010019 -0.042737 -0.097322 0.015465 
0.050979 0.039634 0.067091 0.095864 0.019576 0.03092 -0.02498 0.046704 
-0.0040998 0.0032988 0.035031 0.10063 0.031414 0.10819 0.043251 -0.0042642 
-0.10456 0.010204 -0.0021268 0.074161 0.0098754 0.03388 0.01152 -0.14714 
-0.10521 0.028454 0.01826 0.061501 -0.0078813 -0.048492 -0.037969 -0.15125 
-0.0771 0.023686 0.0092177 0.057555 -0.016266 -0.082525 -0.077922 -0.22836 
-0.10242 0.0421 0.020727 0.060186 -0.015444 -0.095678 -0.10916 -0.27012 
-0.061809 0.020069 0.022535 0.061008 -0.011498 -0.038791 -0.071509 -0.08532 
0.035195 0.047197 0.035524 0.076627 0.0069159 0.09126 0.033551 0.11165 
0.081231 0.12464 0.038648 0.073668 0.010697 0.14502 0.097344 0.20832 
0.13532 0.12151 0.059528 0.080738 0.014808 0.13779 0.11115 0.21786 
0.15587 0.06035 0.046375 0.073668 0.010369 0.1613 0.11707 0.23693 
0.076299 -0.0138 0.020891 0.071037 0.0028056 0.09422 0.082382 0.18103 
-0.026296 -0.012814 0.021384 0.10211 0.020727 0.037168 0.03388 0.049499 
-0.010841 0.057227 0.020891 0.094055 0.025001 0.099645 0.06331 0.029112 
0.065612 0.067091 0.013986 0.079916 0.015959 0.10228 0.069393 0.014808 
0.048841 0.042758 0.026481 0.074326 0.012177 0.12595 0.097015 0.02122 
0.025824 0.02122 0.014479 0.057227 -0.0044286 0.072024 0.054925 0.029934 
-0.0055795 -0.017911 0.0064227 0.047526 -0.021528 -0.028433 -0.01676 0.0046141 
0.0051074 0.013986 0.010533 0.056733 -0.018568 -0.076277 -0.061645 0.0026412 
0.05476 0.097508 0.059035 0.077285 0.00066819 -0.073647 -0.085485 0.013657 
0.075312 0.10507 0.095864 0.10803 0.027961 -0.04882 -0.071838 -0.014787 
0.06742 0.090109 0.076627 0.10376 0.033222 0.022042 -0.0098543 0.0085601 
0.051143 0.040128 0.015301 0.076463 0.016945 0.070708 0.031249 -0.016431 
-0.0039354 0.01711 -0.010841 0.072188 0.0059294 0.065776 0.036839 -0.079237 
-0.05885 -0.006566 -0.043395 0.040456 -0.028433 0.025824 0.032564 -0.11804 
-0.10686 -0.060329 -0.041257 0.015465 -0.060658 -0.013307 -0.013965 -0.16309 
-0.11294 -0.026953 0.022864 0.04917 -0.0406 -0.0016336 -0.017253 -0.14237 
-0.035832 0.065118 0.09422 0.10754 0.011026 -0.0011404 -0.017746 0.020069 
0.10458 0.10984 0.13401 0.1493 0.056076 -0.095185 -0.074962 0.19188 
0.14206 0.13713 0.084684 0.13565 0.057227 -0.15536 -0.14056 0.24038 
0.14058 0.10162 0.065118 0.11247 0.045553 -0.13612 -0.15684 0.16459 
0.10425 0.051308 0.031414 0.076299 0.017438 -0.07973 -0.12396 0.08156 
0.055254 0.043416 0.018754 0.058706 0.00099702 0.066763 -0.0090322 0.01152 
-0.028433 0.0070803 0.026481 0.061995 1.0539e-005 0.1858 0.093726 -0.015938 
-0.058028 0.010697 0.023686 0.08715 0.01711 0.17117 0.1299 0.009711 
-0.027282 0.050321 0.020562 0.091425 0.025001 0.13368 0.12891 0.067091 
0.014643 0.02681 -0.00031829 0.060515 0.0042853 0.10589 0.093726 0.095042 
0.042429 0.032564 0.009711 0.056569 -0.0068948 0.02533 0.028454 0.071859 
0.056733 0.023851 0.025166 0.064625 -0.0078813 -0.075949 -0.039942 -0.014951 
0.053609 -0.00031829 -0.0087034 0.042758 -0.034352 -0.16079 -0.12757 -0.17871 
-0.02235 0.027632 0.0021479 0.039799 -0.050136 -0.17575 -0.17377 -0.20567 
0.00066819 0.052294 0.058049 0.071859 -0.02087 -0.021363 -0.071509 0.044731 
0.054596 0.071859 0.085835 0.099974 0.01152 0.0786 0.021384 0.32539 
0.13467 0.12595 0.10721 0.12316 0.039963 0.071366 0.048348 0.414 
0.15144 0.12233 0.10852 0.13943 0.061666 0.10556 0.066598 0.2024 
0.1345 0.073997 0.056569 0.14946 0.071366 0.069393 0.046211 -0.035338 
0.082546 0.018425 0.013821 0.11263 0.047691 -0.0014692 -0.0019624 -0.093212 
0.041443 -0.00097594 0.0062583 0.075476 0.017932 -0.030406 -0.033201 0.018096 
-0.018733 0.016452 -0.018404 0.044402 -0.010183 -0.061973 -0.066741 0.070544 
-0.057534 0.05213 -0.019555 0.032729 -0.027118 -0.079072 -0.08828 0.073668 
-0.014293 0.053445 -0.0029489 0.034702 -0.030899 -0.051615 -0.080717 0.095535 
0.051636 0.06479 0.0227 0.051636 -0.021692 -0.01232 -0.050136 0.019905 
0.024015 0.0018191 0.030427 0.058049 -0.012156 0.059528 0.012835 -0.10341 
-0.00064712 -0.017911 0.01974 0.050157 -0.012485 0.11165 0.061172 -0.11179 
-0.015116 0.039141 0.045718 0.06479 -0.0078813 0.049992 0.037168 -0.063618 
0.038977 0.09833 0.10441 0.11263 0.027961 0.046046 0.050486 0.022206 
0.11576 0.12085 0.090274 0.14289 0.058706 0.063474 0.039141 0.096521 
0.11263 0.07301 0.059528 0.13516 0.062652 0.067913 0.042265 0.073668 
0.04095 0.035688 -0.016102 0.061666 0.013821 0.067256 0.052623 0.014808 
-0.059343 -0.015938 -0.02646 0.033222 -0.020212 0.038812 0.024837 0.0032988 
-0.065755 -0.0083746 -0.035338 0.016123 -0.0406 0.019247 0.01004 0.041443 
0.017932 0.022042 -0.024158 0.017438 -0.043724 0.038648 0.018918 0.11313 
0.086163 0.084026 0.010533 0.038483 -0.031228 0.043087 0.021878 0.16738 
0.10639 0.094055 0.06742 0.077121 -0.0011404 0.059857 0.0324 0.13861 
0.088958 0.087808 0.081889 0.097672 0.019247 0.070215 0.039634 0.08304 
0.07597 0.085012 0.049992 0.079587 0.0060938 -0.046025 -0.037476 0.0064227 
0.080244 0.029605 0.036017 0.076792 -0.0036066 -0.15585 -0.13349 -0.012485 
0.10359 0.018425 -0.0019624 0.080738 0.0098754 -0.097816 -0.13284 0.025166 
0.14387 0.02681 0.015465 0.084684 0.020727 0.019083 -0.039449 0.11313 
0.18711 0.050979 0.015959 0.070051 0.012506 0.10836 0.048841 0.072024 
0.17478 0.092411 0.012013 0.06331 0.0037921 0.13598 0.087643 0.0093821 
0.017932 0.010697 -0.047998 0.017438 -0.036983 0.060844 0.047033 -0.12938 
-0.13136 -0.046025 -0.036489 0.0064227 -0.059507 -0.0055795 0.011848 -0.10193 
-0.13152 0.01563 0.010204 0.037168 -0.035832 0.076956 0.0421 0.10754 
-0.084827 0.022042 0.03092 0.054103 -0.017911 0.10885 0.078765 0.25781 
-0.042573 0.027303 0.035524 0.056569 -0.014951 0.068242 0.068407 0.17149 
-0.0075525 0.036346 0.031085 0.05624 -0.016924 -0.0070593 -0.0098543 -0.05178 
0.0018191 0.0047785 0.0227 0.057884 -0.017911 -0.097816 -0.09387 -0.1353 
-0.01232 0.039141 0.014643 0.080573 0.00297 -0.12116 -0.11491 0.057391 
0.011026 0.055911 0.067091 0.10935 0.031907 -0.020048 -0.05885 0.17462 
0.10359 0.078436 0.074819 0.11839 0.044402 0.071531 0.012506 0.011191 
0.11954 0.092576 0.059035 0.11033 0.042758 0.090767 0.048513 -0.14418 
0.048184 0.045224 0.028125 0.08419 0.024015 0.078929 0.049499 -0.218 
0.037661 0.039799 0.031907 0.079751 0.017767 0.083204 0.049992 -0.16999 
0.074326 0.060679 0.036017 0.083204 0.01974 0.11461 0.073832 -0.080717 
0.088465 0.056898 0.065118 0.080573 0.01563 0.074819 0.062817 -0.02942 
0.056569 0.073339 0.073997 0.09126 0.016616 0.010533 0.017767 0.018425 
0.021549 0.067256 0.062488 0.089616 0.013986 -0.015116 -0.010019 0.097837 
-0.0042642 0.028783 0.015959 0.077449 0.0059294 -0.032215 -0.03912 0.16229 
-0.026131 0.037332 -0.010512 0.069558 0.00033937 -0.006566 -0.014951 0.14042 
-0.012978 0.033551 -0.01117 0.047362 -0.012978 0.01004 -0.01676 0.09833 
0.021549 0.015794 -0.0052507 0.039141 -0.022679 0.035853 0.0013258 0.020398 
0.047691 0.060515 0.0062583 0.043416 -0.022185 0.026481 0.013492 0.037826 
0.040456 0.053116 0.014808 0.051308 -0.017088 0.03388 0.018425 0.037168 
0.013657 0.031907 0.032071 0.063639 -0.0080457 0.030263 0.011848 0.020233 
-0.021199 0.037497 0.037332 0.069886 -0.0036066 0.0098754 -0.00097594 -0.0016336 
-0.013307 0.01711 0.034702 0.064461 -0.0073881 -0.0088678 -0.023994 -0.019555 
0.007738 0.066269 0.085341 0.095206 0.013821 0.0034632 -0.017746 -0.027611 
0.035524 0.064954 0.083697 0.10589 0.026974 0.059364 0.0070803 -0.0047575 
0.042594 0.045718 0.030098 0.093069 0.020727 0.019247 -0.00081153 -0.017088 
0.0047785 0.063145 -0.023994 0.076627 0.0042853 -0.05441 -0.049149 -0.010348 
-0.0044286 0.048019 -0.0047575 0.055089 -0.013143 -0.050629 -0.070523 0.0088889 
0.0044497 0.067913 0.037826 0.069722 -0.003771 -0.012814 -0.054082 -0.004593 
0.049006 0.094877 0.058049 0.091918 0.017932 0.069229 0.018096 -0.009361 
0.073175 0.065447 0.082546 0.11444 0.039634 0.11954 0.076463 0.013821 
0.030098 0.053281 0.074983 0.1151 0.047362 0.14502 0.10491 -0.015773 
-0.047998 0.028454 0.051143 0.097508 0.036017 0.17067 0.14634 -0.024816 
-0.055232 -0.00097594 0.039634 0.077121 0.014643 0.13236 0.12316 0.049828 
0.0069159 0.028619 0.048841 0.078272 0.0070803 0.086492 0.089945 0.09126 
0.058213 0.033551 0.026974 0.063803 -0.004593 0.033387 0.054432 0.17067 
0.080573 0.030263 0.0060938 0.06594 -0.006566 0.0016547 0.0014903 0.16311 
0.094055 0.05772 0.01563 0.087808 0.0051074 -0.054246 -0.051451 0.080902 
0.070873 0.048019 0.034044 0.082217 0.0060938 -0.058356 -0.069536 0.018918 
0.087808 0.032729 0.043416 0.086163 0.011355 -0.010348 -0.043066 0.021878 
0.089287 0.073175 0.047362 0.087808 0.014643 0.029605 -0.0096899 0.016781 
-0.020706 0.028947 0.030427 0.077121 0.011191 0.016616 -0.01676 -0.13037 
-0.092061 0.020233 0.025659 0.073832 0.0046141 -0.032379 -0.041751 -0.11837 
-0.0503 0.027632 0.026481 0.070873 -0.0026201 -0.062302 -0.064275 0.052459 
0.0080668 0.053774 0.058377 0.089945 0.01004 -0.059507 -0.072003 0.17725 
0.032071 0.10408 0.10655 0.10836 0.029276 -0.039942 -0.067399 0.17511 
0.022371 0.076792 0.12825 0.13187 0.053445 0.042923 -0.0088678 0.058049 
0.013986 0.055911 0.065776 0.13269 0.059528 0.10721 0.044731 -0.10258 
-0.027282 0.064132 0.0062583 0.10803 0.039963 0.069722 0.03799 -0.17345 
-0.075455 0.022206 -0.030735 0.047855 -0.012814 -0.0064016 0.0059294 -0.12922 
-0.080388 0.012342 -0.051122 0.010862 -0.058356 -0.095349 -0.074304 -0.029748 
0.053938 0.030427 -0.0014692 0.027303 -0.052602 -0.020048 -0.057041 0.08304 
0.12858 0.022535 0.01826 0.054432 -0.023007 0.083862 0.04917 0.20273 
0.15966 0.042923 0.036839 0.070708 -0.0021268 0.12661 0.084026 0.28609 
0.15061 0.026317 0.042758 0.0786 0.0088889 0.087808 0.070215 0.24795 
0.092411 0.021549 0.025495 0.068078 0.0037921 0.12316 0.10129 0.1544 
0.093069 0.038483 0.01563 0.050157 -0.0040998 0.20684 0.15505 0.096686 
0.096521 0.025659 0.012999 0.045718 -0.0080457 0.22756 0.18498 0.035853 
0.01152 0.0095465 -0.023994 0.038483 -0.017746 0.22476 0.18909 -0.056877 
-0.029255 0.03651 -0.0060728 0.069558 -0.0075525 0.062323 0.077449 -0.098802 
-0.0072237 0.043251 0.055911 0.088958 0.0036276 -0.063124 -0.028104 -0.07562 
0.01974 0.080409 0.048019 0.094055 0.01004 -0.10127 -0.10423 0.014808 
0.037497 0.071202 0.058871 0.096028 0.011355 -0.12905 -0.13629 0.047197 
0.061666 0.082217 0.047855 0.098001 0.013657 -0.10028 -0.13021 0.036017 
0.062488 0.094713 0.03651 0.085999 0.015794 -0.018897 -0.073976 0.011684 
0.021384 0.055254 0.016616 0.060844 0.0023123 0.07301 0.011848 -0.052273 
-0.014458 0.011848 0.0047785 0.04358 -0.016595 0.064461 0.045718 -0.062138 
-0.0021268 0.01152 0.012835 0.048184 -0.020048 0.02681 0.014315 -0.026624 
0.00033937 -0.0059084 0.041114 0.060679 -0.014458 -0.059343 -0.048163 0.016288 
0.053281 0.02829 0.060022 0.091425 0.0087245 -0.079895 -0.062302 0.14749 
0.11526 0.064461 0.033058 0.11444 0.029112 -0.1016 -0.088937 0.25946 
0.099974 0.049499 0.018589 0.081231 0.0059294 -0.12856 -0.12922 0.23644 
-0.0091966 0.037332 -0.013965 0.047362 -0.031064 -0.11985 -0.1205 0.094548 
-0.03764 0.049992 -0.0032777 0.043909 -0.037969 0.028125 -0.040928 -0.0019624 
-0.017253 0.0037921 -0.0026201 0.045882 -0.031886 0.13351 0.061008 -0.048327 
0.04654 0.038648 -0.013143 0.035031 -0.029913 0.19435 0.13598 -0.045861 
0.11691 0.066269 0.050157 0.073668 -0.0004827 0.15324 0.13647 0.060515 
0.16064 0.069886 0.089287 0.1008 0.023028 0.056076 0.074983 0.1927 
0.13795 0.037497 0.052459 0.084355 0.014972 0.02122 0.019576 0.09981 
0.011355 -0.034516 0.015959 0.060515 -0.0075525 0.0046141 -0.015938 -0.11656 
-0.047669 -0.021856 0.03388 0.072353 -0.008539 0.025988 -0.0019624 -0.21274 
-0.04619 0.028454 0.044896 0.11165 0.021384 0.058871 0.021549 -0.14944 
-0.0068948 0.042923 0.043909 0.10326 0.029605 0.046868 0.024508 -0.055561 
0.045389 0.088958 0.055582 0.099481 0.026974 0.030427 0.022535 0.018754 
0.033058 0.096357 0.069229 0.10852 0.027796 -0.022679 -0.044052 0.056733 
0.033387 0.039634 0.01711 0.07449 0.0018191 -0.12067 -0.11212 0.081395 
-0.009361 0.029276 -0.013307 0.043909 -0.025638 -0.058356 -0.076113 0.171 
0.023028 0.047197 0.00083261 0.043416 -0.025967 0.039141 -0.017417 0.20142 
0.041607 0.068736 0.029276 0.05476 -0.011334 0.14354 0.07038 0.19205 
0.07597 0.084026 0.062652 0.076956 0.0070803 0.20224 0.14848 0.046046 
0.069393 0.085177 0.091753 0.095371 0.018425 0.13236 0.1151 -0.034352 
0.04654 0.081067 0.051965 0.10376 0.018425 0.029441 0.044567 -0.065919 
0.027139 0.034044 0.0098754 0.09685 0.0079024 -0.033037 -0.021528 -0.096007 
-0.057534 -0.03205 -0.0082102 0.058049 -0.019719 -0.18117 -0.13892 -0.20764 
-0.095021 -0.014458 -0.011827 0.042758 -0.031392 -0.2448 -0.22491 -0.23822 
-0.1016 -0.010348 -0.0027845 0.038483 -0.038791 -0.21784 -0.23116 -0.095678 
-0.073482 0.026317 0.0227 0.052952 -0.033037 -0.20008 -0.22145 0.07038 
0.033387 0.10425 0.062652 0.088136 0.00017495 -0.10998 -0.15174 0.19796 
0.21474 0.072188 0.086821 0.11592 0.032236 0.023851 -0.047012 0.33772 
0.39082 0.015301 0.052294 0.09833 0.025659 0.022864 -0.019555 0.40957 
0.3558 0.028454 0.041443 0.082053 0.0092177 0.040128 0.0064227 0.35547 
0.12085 0.03388 0.048677 0.085177 0.0090533 0.13532 0.06479 0.16492 
-0.12264 0.074161 0.0421 0.09685 0.018918 0.21013 0.14124 -0.1113 
-0.16966 0.056733 0.051308 0.12529 0.043251 0.25518 0.21342 -0.27637 
-0.10209 0.057062 0.053774 0.11066 0.038648 0.17199 0.1613 -0.35923 
-0.032872 0.065283 0.020891 0.079094 0.013164 0.048019 0.074326 -0.26996 
-0.023007 -0.014458 -0.03616 0.032564 -0.026789 0.01974 0.040128 -0.13958 
0.028947 -0.029748 -0.026953 0.023028 -0.043066 0.004943 -0.0067304 -0.0054151 
-0.028269 0.032564 0.015959 0.043909 -0.032708 -0.063124 -0.055068 0.10293 
-0.030406 0.036182 0.011355 0.057884 -0.019061 -0.091075 -0.081868 0.2098 
0.013492 0.067749 0.019576 0.051308 -0.019884 -0.071181 -0.087786 0.15292 
0.050321 0.082217 0.068242 0.069393 -0.0060728 -0.048163 -0.073482 0.10408 
0.068407 0.071695 0.059857 0.086657 0.010862 0.019247 -0.022843 0.18826 
0.074161 0.086985 0.065776 0.11905 0.038648 0.066763 0.020562 0.18711 
0.059528 0.026974 0.027796 0.1174 0.045224 0.074983 0.038648 0.076134 
0.042429 -0.0042642 -0.0011404 0.07038 0.012013 0.073668 0.042429 -0.078086 
0.042594 0.017274 0.0092177 0.05772 -0.01528 -0.0098543 -0.017417 -0.14139 
0.095042 0.036675 0.022864 0.062817 -0.020541 -0.058192 -0.05589 -0.093541 
0.1396 0.073668 0.028454 0.066105 -0.012649 -0.0031133 -0.036818 -0.030242 
0.1345 0.10014 0.036839 0.076299 0.0051074 0.073175 0.022042 0.0064227 
0.097508 0.098494 0.044896 0.086163 0.018918 0.11839 0.085012 0.053938 
0.060679 0.092576 0.050979 0.079916 0.013492 0.10063 0.07597 0.055911 
-0.05589 0.018918 0.0059294 0.047691 -0.014458 0.03388 0.033058 0.014808 
-0.10752 -0.0073881 0.01152 0.051143 -0.017253 0.020398 0.022864 0.020727 
-0.09091 0.046211 0.076299 0.099316 0.019411 0.084684 0.020562 0.042923 
-0.046354 0.053445 0.091918 0.14239 0.05476 0.076463 0.042594 0.01711 
-0.045861 0.027468 0.068078 0.1202 0.051801 0.045718 0.050321 0.01974 
0.0090533 0.065283 0.026974 0.09126 0.031414 0.040621 0.02533 -0.04619 
0.0064227 0.033058 0.026317 0.073175 0.01711 0.018754 0.010369 -0.01232 
0.054267 0.011026 -0.032543 0.031578 -0.013965 0.055747 0.029276 0.10014 
0.08156 -0.033365 -0.086964 -0.015116 -0.057863 0.053445 0.025988 0.15078 
0.04917 -0.072167 -0.091239 -0.04619 -0.094527 0.04506 0.021056 0.087643 
0.0028056 0.031085 -0.032215 -0.020706 -0.092883 -0.023501 -0.028269 -0.054246 
0.086328 0.1276 0.073832 0.054267 -0.03764 -0.0090322 -0.031886 -0.016924 
0.15061 0.18054 0.13664 0.12529 0.029441 0.06594 0.026481 0.074819 
0.023028 0.085341 0.10556 0.15785 0.067091 0.073997 0.034209 0.032729 
-0.14122 -0.035338 0.037332 0.12727 0.055418 0.031742 0.012506 -0.072332 
-0.12248 -0.063618 0.05065 0.10819 0.038155 -0.016102 -0.014622 -0.081868 
-0.0077169 -0.0096899 0.076463 0.11428 0.038812 -0.004593 -0.025309 -0.046847 
0.074161 0.023851 0.034537 0.091589 0.024344 0.005765 -0.022185 0.098659 
0.12562 0.096028 0.031578 0.076627 0.013492 0.04654 0.029934 0.21835 
0.1419 0.12398 0.0689 0.099974 0.028783 0.074654 0.042923 0.19254 
0.092904 0.091918 0.0421 0.083697 0.019576 0.048677 0.027796 0.16097 
0.036182 0.080244 0.017438 0.058706 -0.00015387 0.0041209 0.0052718 0.19024 
0.010533 0.013164 0.017603 0.050814 -0.013636 -0.0040998 -0.024158 0.1271 
-0.067399 -0.0083746 0.022042 0.049664 -0.014622 0.075312 0.025001 -0.064275 
-0.061151 0.022371 0.0044497 0.072188 0.0034632 0.16804 0.10458 -0.16654 
-0.001798 0.028947 0.015465 0.086657 0.016452 0.17281 0.13286 -0.1889 
-0.035832 0.028947 0.0042853 0.062488 -0.0016336 0.083533 0.084848 -0.21126 
0.013164 0.037661 0.027796 0.066105 -0.0091966 0.012177 0.028125 -0.067892 
0.096357 0.039141 0.028619 0.070051 -0.016266 -0.077922 -0.058521 0.022206 
0.10639 0.08419 0.0065871 0.058542 -0.021692 -0.082854 -0.083512 0.059857 
0.070051 0.041114 0.054925 0.083368 0.0051074 0.034373 -0.023172 0.10688 
0.041114 0.033715 0.072353 0.088301 0.019411 0.10639 0.049664 0.1636 
0.043416 0.070873 0.059364 0.088301 0.019083 0.074819 0.055582 0.17182 
0.048019 0.038648 0.052294 0.083368 0.013821 0.062488 0.036182 0.088465 
-0.0016336 0.045553 0.03947 0.076463 0.0075736 0.013821 0.0037921 0.052294 
-0.017911 0.029605 0.020398 0.083533 0.011355 -0.0091966 -0.0049219 0.024837 
-0.078908 -0.060823 -0.030406 0.065447 -0.004593 -0.06 -0.064604 -0.054904 
-0.072003 -0.048656 -0.048163 0.018754 -0.048327 -0.16227 -0.14517 -0.083347 
0.023686 0.041114 -0.003771 0.034537 -0.046025 -0.16851 -0.15322 -0.028926 
0.1151 0.1322 0.045553 0.072353 -0.009361 -0.032543 -0.085649 0.056569 
0.15028 0.17034 0.073504 0.097344 0.017603 0.06035 0.005765 0.1008 
0.13253 0.075312 0.045553 0.092247 0.017274 0.1008 0.059364 0.087479 
0.065283 0.0013258 0.038319 0.08419 0.0070803 0.034209 0.030098 0.081067 
0.0324 0.0083956 0.034866 0.071695 -0.0039354 0.011684 0.0070803 0.077121 
0.033222 0.053116 0.048348 0.071695 0.0011614 0.064954 0.022042 0.076792 
0.093726 0.089945 0.054596 0.082382 0.0070803 0.040292 0.018096 0.1197 
0.10129 0.094055 0.014643 0.096357 0.017274 -0.0064016 -0.015938 0.09685 
0.020069 0.0227 0.016123 0.09274 0.01563 -0.093212 -0.093212 -0.063124 
-0.047669 0.0074092 0.017767 0.068571 0.00033937 -0.095185 -0.11426 -0.18939 
-0.066084 0.028783 0.023851 0.070215 0.0016547 -0.028269 -0.068057 -0.17345 
-0.048985 0.064625 0.027961 0.072846 0.0069159 0.088301 0.01267 -0.12215 
-0.00097594 0.10014 0.025824 0.0689 0.0041209 0.063639 0.031414 -0.039449 
0.032236 0.10491 0.036346 0.073339 0.0039565 0.046704 0.04358 0.033715 
0.030098 0.094548 0.045718 0.077449 0.0075736 0.082546 0.049992 0.017767 
0.021384 0.072188 0.055582 0.087643 0.016452 0.077449 0.057227 0.029276 
0.046046 -0.011663 0.044567 0.079258 0.013657 0.065447 0.062817 0.074819 
0.11329 -0.012156 0.021878 0.065283 0.0044497 0.046211 0.034209 0.15555 
0.18662 0.034537 0.040621 0.088465 0.017274 0.013492 0.0083956 0.20717 
0.20142 0.09422 0.025659 0.11362 0.035195 -0.0055795 -0.0083746 0.14848 
0.15078 0.12118 0.03651 0.09126 0.022864 -0.028597 -0.039942 0.051143 
0.061995 0.085506 0.034537 0.082217 0.016288 -0.039613 -0.053424 0.046046 
-0.0050863 0.01711 -0.008539 0.051636 -0.0059084 -0.067892 -0.051615 0.11724 
-0.020048 0.01974 0.019247 0.05772 -0.0090322 -0.084827 -0.087622 0.14026 
-0.049314 -0.012156 0.0067515 0.051965 -0.011498 -0.018239 -0.056219 0.14387 
-0.081703 0.0421 0.0072447 0.044896 -0.016266 0.047855 -0.0044286 0.15752 
0.0036276 0.090109 0.027139 0.040128 -0.024816 0.08567 0.042265 0.14141 
0.041607 0.048184 0.020562 0.041114 -0.026296 0.074654 0.047691 0.066763 
0.078272 0.051308 0.018425 0.053609 -0.017911 0.11609 0.062323 -0.049314 
0.076956 0.027468 0.048513 0.090438 0.0098754 0.093891 0.062488 -0.15388 
0.016945 0.023357 0.027468 0.10836 0.03092 0.038648 0.043909 -0.20797 
-0.041422 0.033715 0.03799 0.090438 0.02533 0.020233 0.0093821 -0.19893 
0.042429 -0.0022913 -0.011827 0.055254 0.004943 0.10129 0.063145 -0.012978 
0.12792 -0.015938 -0.016595 0.037168 -0.012156 0.16344 0.14157 0.10458 
0.14321 0.013821 0.015301 0.048348 -0.010512 0.17281 0.14798 0.13319 
0.11263 0.084519 0.065612 0.085506 0.011684 0.11263 0.11115 0.15801 
0.056404 0.12299 0.078929 0.10721 0.029276 -0.0011404 0.031578 0.14354 
0.017767 0.096028 0.065612 0.094384 0.022535 -0.044052 -0.034352 0.1031 
-0.016431 0.024508 0.057062 0.082875 0.011191 -0.073318 -0.073976 0.073997 
-0.052931 0.0036276 0.020727 0.06331 -0.011498 -0.069701 -0.088444 -0.023007 
-0.059836 -0.019884 0.012506 0.075476 -0.010348 -0.080059 -0.099624 -0.061973 
-0.022185 0.0026412 0.009711 0.083204 0.00033937 -0.047341 -0.076442 -0.028269 
0.040785 0.063145 0.031907 0.082053 0.0021479 -0.018404 -0.046847 0.015301 
0.08304 0.040785 0.033387 0.080902 0.0019835 -0.0096899 -0.039613 0.11083 
0.062323 0.012506 0.007738 0.063639 -0.006566 0.082875 0.028125 0.16344 
0.00099702 -0.0014692 0.00297 0.05213 -0.013965 0.10425 0.06035 0.11642 
-0.018404 0.00099702 -0.0072237 0.041443 -0.023007 0.082382 0.052787 0.012342 
-0.021692 0.013657 0.005765 0.044731 -0.023007 0.055747 0.040621 -0.021199 
0.019905 0.038155 0.03092 0.052459 -0.017088 0.047033 0.02829 0.0024767 
0.069393 0.042594 0.032071 0.057062 -0.014787 0.023522 0.010533 0.050486 
0.11083 0.052623 0.042923 0.070873 -0.0064016 0.0039565 0.010369 0.027796 
0.092247 0.066598 0.042429 0.10589 0.021549 0.032564 0.0065871 0.0013258 
0.075476 0.078929 0.049335 0.10951 0.038319 0.080902 0.043416 0.026974 
0.044402 0.05624 0.029276 0.086657 0.02681 0.10951 0.082382 0.005765 
0.050321 0.045389 -0.017911 0.04917 -0.0011404 0.11477 0.082875 -0.0031133 
0.069229 0.077943 0.0014903 0.046375 -0.012156 0.076299 0.063639 0.028947 
0.020069 0.04506 0.0082312 0.044896 -0.021528 0.038483 0.03651 -0.013143 
-0.042244 0.01563 0.0082312 0.051801 -0.02646 -0.028269 -0.02498 -0.065097 
-0.044874 0.058706 0.046211 0.065283 -0.020377 -0.089759 -0.081539 -0.042079 
-0.010019 0.051308 0.068736 0.079587 -0.0082102 -0.12494 -0.13136 0.051308 
0.010862 0.034866 0.064461 0.086657 0.0011614 -0.16901 -0.16983 0.058542 
0.018096 0.08008 0.067585 0.098494 0.016945 -0.0406 -0.093376 0.022535 
-0.003771 0.04654 0.036346 0.11674 0.037661 0.069722 -0.0059084 -0.028104 
-0.072989 0.0054362 0.0046141 0.074654 0.011026 0.020069 -0.010841 -0.11672 
-0.10587 -0.047834 -0.036983 0.02829 -0.03616 -0.058192 -0.058356 -0.16259 
-0.021692 -0.045368 -0.017253 0.026646 -0.047998 -0.037969 -0.063453 -0.10932 
0.055747 0.036675 0.037168 0.061501 -0.022021 -0.0031133 -0.027118 0.024179 
0.073668 0.040128 0.069393 0.093891 0.010204 -0.0026201 -0.0087034 0.062817 
0.070873 0.049006 0.10014 0.12102 0.040621 0.084684 0.025166 0.065776 
0.074161 0.11247 0.14469 0.1562 0.075805 0.1128 0.072024 0.11181 
0.043909 0.07449 0.12644 0.15472 0.080244 0.086657 0.08008 0.066269 
0.043251 0.091589 0.08863 0.12595 0.058377 0.059364 0.048019 0.040292 
0.077614 0.11247 0.055911 0.10951 0.040456 0.054267 0.03536 0.064296 
0.12184 0.088465 0.0095465 0.10129 0.029276 0.016452 0.0092177 0.044238 
0.061008 0.054267 -0.0075525 0.06742 -0.0019624 -0.03501 -0.03912 0.010697 
-0.0049219 -0.022185 -0.047341 0.018754 -0.050136 -0.072989 -0.074798 -0.022021 
-0.012156 -0.029255 -0.040928 0.011191 -0.063124 -0.021692 -0.054246 -0.043066 
-0.021528 0.035031 -0.00015387 0.032893 -0.044217 0.065283 0.012835 0.017603 
-0.0091966 0.082053 0.039141 0.061995 -0.017253 0.09274 0.053938 0.072517 
-0.0011404 0.06035 0.030098 0.068571 -0.006566 0.050321 0.026317 0.038977 
-0.026624 0.051143 0.023522 0.058871 -0.01232 -0.045368 -0.045861 0.020233 
-0.0077169 0.047033 0.04654 0.063639 -0.011498 -0.081374 -0.079237 0.01974 
0.018096 0.062488 0.072517 0.086328 0.0036276 -0.034516 -0.072003 0.067585 
0.07597 0.04358 0.075148 0.11017 0.022042 0.033058 -0.014458 0.061995 
0.086821 0.077943 0.023028 0.11444 0.035195 0.093069 0.04506 0.04917 
0.042594 0.044073 0.043745 0.10458 0.034373 0.11691 0.070215 0.027632 
0.010369 0.0047785 0.044073 0.091589 0.022042 0.05476 0.04506 -0.0014692 
-0.004593 0.018096 0.042265 0.090274 0.017767 0.029112 0.033058 -0.062467 
0.00066819 0.062488 0.048513 0.091096 0.014643 0.024673 0.007738 -0.036489 
0.011191 0.050486 0.037168 0.079587 0.0034632 -0.013636 -0.004593 0.0054362 
0.034537 0.057062 0.011848 0.064461 -0.0083746 0.0056006 -0.0044286 0.058542 
0.04095 0.048184 0.021056 0.059857 -0.016595 -0.024487 -0.03501 0.12776 
0.055911 0.027139 0.050157 0.069393 -0.012649 -0.048656 -0.056548 0.12677 
0.02829 0.05065 0.054267 0.074819 -0.00097594 0.028783 0.0042853 0.12053 
0.014315 0.025001 0.036839 0.08156 0.0067515 0.10326 0.051308 0.1003 
0.0082312 0.020562 0.011684 0.085999 0.012342 0.047197 0.0324 0.01826 
0.014972 0.06742 0.014479 0.082217 0.012506 0.047855 0.0227 -0.065097 
0.035031 0.053445 -0.00081153 0.062323 0.00033937 0.051801 0.026152 -0.047669 
0.064954 0.048184 0.0046141 0.05476 -0.0070593 0.057391 0.03651 0.017603 
0.10211 0.061008 -0.0096899 0.035524 -0.022843 0.076134 0.050321 0.14009 
0.080244 0.039141 0.017438 0.048841 -0.018568 0.02533 0.019905 0.23035 
0.069393 0.053609 0.036182 0.06183 -0.0075525 0.057555 0.038483 0.1756 
0.037826 0.053938 0.0083956 0.045718 -0.013636 0.10935 0.06479 0.075641 
0.012177 0.0083956 0.0056006 0.042923 -0.017253 0.17511 0.12332 0.026974 
0.036675 0.058213 0.038319 0.055089 -0.0138 0.14552 0.14174 0.018754 
0.077943 0.096686 0.076463 0.090274 0.01152 0.15916 0.12825 0.013164 
0.072024 0.076792 0.053938 0.11757 0.032729 0.081395 0.081067 -0.0021268 
0.052623 0.069558 0.011191 0.098659 0.023193 -0.011005 0.021056 0.0064227 
0.039305 0.034209 -0.018897 0.051308 -0.018568 -0.14615 -0.11064 -0.0067304 
0.014479 0.0036276 -0.016595 0.03536 -0.033859 -0.23839 -0.21044 -0.006566 
0.02533 0.035195 0.00050378 0.044073 -0.026624 -0.22606 -0.2254 0.07449 
0.031414 0.01267 -0.003771 0.037826 -0.025309 -0.13448 -0.17641 0.067749 
0.03651 0.02829 0.010533 0.047691 -0.014458 -0.010512 -0.077264 0.04358 
0.024015 0.07301 0.049499 0.069229 0.0023123 0.16886 0.071531 -0.041422 
-0.00015387 0.095042 0.079422 0.084848 0.013986 0.20323 0.14223 -0.039449 
-0.045696 0.076627 0.047855 0.07301 0.0019835 0.063639 0.07301 -0.033694 
-0.083183 0.020891 0.027468 0.060844 -0.0088678 0.047526 0.03388 -0.020377 
-0.045368 0.047526 0.026646 0.08715 0.01267 0.098659 0.063145 0.036182 
0.04358 0.064625 0.011684 0.087808 0.018918 0.10704 0.083533 0.071859 
0.099974 0.035853 0.011355 0.065283 0.004943 0.079587 0.058213 0.10228 
0.11987 0.01004 -0.0050863 0.051636 -0.0083746 0.031249 0.023193 0.10737 
0.093233 0.036675 0.0018191 0.047197 -0.01528 -0.013471 0.00099702 0.14256 
0.078272 0.044567 0.021549 0.054596 -0.012649 -0.049478 -0.05589 0.10326 
0.012999 0.055418 0.025988 0.062652 -0.0077169 -0.016431 -0.04323 0.053116 
0.068242 0.047855 0.015465 0.059528 -0.0098543 0.0093821 -0.023336 -0.0073881 
0.094055 0.01974 0.059857 0.069229 -0.0024557 -0.022185 -0.040106 -0.019884 
-0.0034422 0.026481 0.03388 0.061501 -0.0082102 -0.011498 -0.046025 -0.068386 
-0.055726 0.0023123 0.035195 0.070873 -0.0014692 -0.045039 -0.055068 0.0054362 
-0.029913 0.048841 0.046375 0.11937 0.035688 0.0056006 -0.028597 0.11346 
0.0016547 0.070708 0.044731 0.10951 0.041772 0.034866 0.0023123 0.099974 
0.079751 0.050814 0.049335 0.10113 0.037168 0.07597 0.034044 0.029441 
0.10162 0.041278 0.018918 0.076299 0.016781 0.044238 0.023522 0.01711 
0.079258 0.0082312 -0.0055795 0.049664 -0.0098543 -0.01232 -0.014129 0.025988 
0.053116 -0.022514 -0.016924 0.031249 -0.03057 -0.023665 -0.045039 0.034209 
0.051143 0.035195 0.0088889 0.042923 -0.030899 -0.0042642 -0.031557 0.075641 
0.043087 0.068736 0.044896 0.077943 -0.0034422 0.044731 0.0059294 0.035688 
0.010204 0.098494 0.07301 0.094713 0.015301 0.054103 0.018918 -0.041751 
0.0095465 0.13154 0.12464 0.12398 0.040456 -0.041257 -0.041422 -0.13267 
0.032071 0.085012 0.087314 0.12858 0.053774 0.023028 0.00099702 -0.17114 
0.049828 0.063474 0.055747 0.12546 0.060844 0.15275 0.086821 -0.087951 
-0.020048 0.05065 0.044567 0.10852 0.049335 0.18777 0.13647 -0.10752 
-0.092719 0.0227 0.0023123 0.068407 0.015794 0.15768 0.15407 -0.057534 
-0.062138 -0.004593 -0.011663 0.044402 -0.011827 0.074326 0.083697 0.030427 
-0.0073881 -0.039449 -0.015773 0.032071 -0.029584 -0.00081153 0.015465 0.01563 
-0.038133 -0.055068 -0.016266 0.027303 -0.043724 -0.14171 -0.10308 -0.046025 
-0.062796 -0.0027845 0.0032988 0.042429 -0.03912 -0.24793 -0.21537 -0.05737 
-0.019061 0.012177 0.047033 0.061995 -0.013965 -0.10324 -0.15026 0.0051074 
0.085506 0.059693 0.066927 0.085835 0.016781 0.11707 0.027796 0.13368 
0.20816 0.12069 0.097344 0.1105 0.038155 0.16804 0.10967 0.24992 
0.25469 0.16821 0.10063 0.1294 0.052787 0.086821 0.082382 0.28675 
0.17643 0.13006 0.041443 0.13171 0.054596 -0.060658 -0.041257 0.21901 
0.073339 0.043251 0.01711 0.08863 0.02681 -0.12675 -0.11837 0.065118 
0.0098754 -0.051944 -0.019061 0.047855 -0.0068948 -0.11278 -0.1307 -0.010183 
0.036182 -0.044546 -0.020212 0.033551 -0.029584 -0.048163 -0.095185 0.048348 
0.033387 -0.042079 -0.0016336 0.038648 -0.032872 -0.0098543 -0.050464 0.077943 
-0.028433 0.01415 0.034209 0.06183 -0.0138 0.070215 0.026317 0.03651 
-0.061645 0.084026 0.057391 0.08567 0.0082312 0.11 0.062488 -0.036489 
-0.082525 0.083368 0.079422 0.1008 0.023028 0.091753 0.064625 -0.10719 
-0.048163 0.05624 0.098823 0.11905 0.041772 0.11724 0.10359 -0.070194 
0.042758 0.058213 0.073832 0.10885 0.040128 0.11954 0.095699 0.035853 
0.14387 0.059857 0.043745 0.10458 0.036182 0.085177 0.077943 0.057555 
0.059693 0.056569 0.0046141 0.098494 0.032236 0.044238 0.047855 0.068078 
-0.058685 -0.00031829 -0.014129 0.056733 0.00297 0.0024767 -0.0039354 0.061666 
-0.089431 -0.015773 -0.038791 0.022535 -0.028104 -0.037969 -0.041751 -0.0091966 
0.039305 0.037168 -0.013471 0.023522 -0.036818 -0.039449 -0.064933 -0.026789 
0.15045 0.027796 -0.0022913 0.033551 -0.033694 -0.037805 -0.059672 -0.043066 
0.053609 0.036839 0.014972 0.049992 -0.024652 -0.05326 -0.074962 -0.049971 
-0.0027845 0.088136 0.039963 0.073668 -0.0072237 -0.089595 -0.10176 -0.048163 
-0.021856 0.096686 0.098659 0.092247 0.011026 -0.095678 -0.10932 -0.019226 
0.027961 0.069886 0.069393 0.090438 0.017932 -0.056055 -0.087622 0.029934 
0.070051 0.005765 0.039634 0.078929 0.015794 0.033222 -0.019884 0.073504 
0.062652 0.0014903 0.015301 0.07449 0.0087245 0.077449 0.028454 0.11313 
0.040456 0.0098754 0.0026412 0.078107 0.007738 0.060679 0.041607 0.1368 
0.027303 0.02829 -0.012156 0.049828 -0.01117 0.084519 0.054103 0.10507 
0.044073 0.028947 0.017438 0.057884 -0.011005 0.049499 0.033058 0.068078 
0.048019 0.072353 0.029769 0.069393 -0.003771 0.029441 0.030263 0.039799 
0.074326 0.067256 0.048184 0.080902 0.0070803 0.04917 0.023686 0.038812 
0.0047785 0.030427 0.037661 0.076463 0.007738 0.072846 0.029441 0.020233 
-0.041915 0.049828 0.017438 0.062488 0.00017495 0.069558 0.048184 -0.047505 
-0.046847 -0.018568 -0.012485 0.033715 -0.023665 0.012013 0.00099702 -0.14829 
-0.0032777 0.0087245 -0.0070593 0.026152 -0.034023 0.0016547 -0.012649 -0.15092 
0.024179 0.069393 0.051308 0.059364 -0.0098543 0.073997 0.03799 0.017767 
0.054596 0.10622 0.083204 0.11099 0.028454 0.079587 0.054925 0.16738 
0.086657 0.13154 0.08156 0.1539 0.066434 0.047855 0.037332 0.17988 
0.084355 0.082053 0.05065 0.11839 0.053938 0.044073 0.023851 0.18415 
0.051636 0.053116 0.027961 0.088465 0.030756 0.047855 0.021549 0.19303 
0.055582 0.064296 0.019905 0.072353 0.016123 0.10967 0.065283 0.17659 
0.053116 0.016452 0.0069159 0.054925 -0.00015387 0.15456 0.09981 0.13121 
0.040621 0.0042853 0.00017495 0.046375 -0.018404 0.037661 0.034702 -0.0052507 
-0.0021268 0.025001 0.041772 0.072024 -0.010512 -0.067399 -0.050464 -0.1016 
-0.020212 0.043745 0.06183 0.085012 0.0037921 -0.039942 -0.059836 -0.12429 
0.0059294 0.079258 0.042923 0.080409 0.0088889 -0.023665 -0.050793 -0.096007 
0.060022 0.078272 0.047197 0.075641 0.011684 0.03799 0.015137 -0.076277 
0.036017 0.082711 0.063145 0.093562 0.026317 0.058213 0.034702 -0.12149 
-0.084005 0.055254 0.0069159 0.090274 0.023028 -0.010183 -0.012649 -0.2157 
-0.15766 -0.02646 -0.051287 0.031742 -0.018075 -0.023501 -0.021199 -0.23724 
-0.080717 -0.011005 -0.051944 0.0064227 -0.047341 -0.00015387 -0.018897 -0.091568 
0.074654 0.033058 0.022042 0.045389 -0.029255 -0.0022913 -0.014129 0.10984 
0.22739 0.093562 0.098166 0.10672 0.017603 0.073504 0.043745 0.23693 
0.27064 0.16278 0.11395 0.13762 0.05213 0.15292 0.10277 0.30352 
0.17429 0.1322 0.083204 0.12891 0.055582 0.16229 0.12431 0.25551 
0.083533 0.077449 0.04917 0.09685 0.033387 0.079422 0.075476 0.18859 
0.10359 0.035524 0.074819 0.063968 0.0067515 0.0062583 0.015301 0.14552 
0.10014 0.044238 0.041772 0.062323 0.0034632 0.039963 0.015301 0.082711 
-0.0073881 -0.019719 0.052787 0.071859 0.0072447 0.10277 0.072846 0.049335 
-0.13448 -0.058356 0.0037921 0.078436 0.009711 0.074654 0.053445 -0.025638 
-0.15454 -0.058192 0.0056006 0.068736 0.0036276 0.05065 0.044402 -0.013965 
-0.060823 -0.0091966 0.028947 0.071531 0.0028056 0.034702 0.015959 -0.01232 
0.039305 0.059364 0.040456 0.081724 0.004943 -0.049971 -0.052109 -0.052602 
0.072517 0.038319 0.019905 0.069722 -0.0026201 -0.045532 -0.046683 -0.031228 
0.049499 0.049335 -0.0039354 0.047691 -0.016595 -0.019061 -0.047669 -0.017746 
0.041443 0.065776 0.0032988 0.045389 -0.019719 1.0539e-005 -0.029091 -0.0039354 
0.077285 0.068078 0.025659 0.052459 -0.014622 0.030427 0.0065871 0.047526 
0.062981 0.094384 0.056404 0.071366 -0.0032777 0.016288 -0.0049219 0.095206 
0.048184 0.082382 0.09685 0.1008 0.017603 -0.05737 -0.061151 0.088301 
0.07597 0.058377 0.056076 0.09981 0.01974 -0.077593 -0.082196 0.094055 
0.10343 0.055747 0.027632 0.11937 0.035031 -0.072332 -0.086636 0.06183 
0.088958 0.019083 0.013492 0.089123 0.022535 -0.026624 -0.061973 0.018589 
0.071366 0.012177 0.025988 0.076299 0.01152 -0.0013048 -0.043395 -0.0022913 
-0.0029489 0.007738 -0.0039354 0.051801 -0.010676 -0.021199 -0.046683 -0.053917 
-0.080059 0.029605 0.00033937 0.046211 -0.019719 -0.035174 -0.055232 -0.12774 
-0.09091 0.019411 -0.00031829 0.043745 -0.022514 -0.018897 -0.049971 -0.065591 
-0.044217 -0.047998 -0.009361 0.034866 -0.03057 -0.014458 -0.038462 -0.0062372 
0.033551 -0.019226 0.03536 0.05624 -0.018404 0.004943 -0.020212 0.097508 
0.064132 0.046704 0.11576 0.11 0.02122 0.054596 0.013657 0.17248 
0.084684 0.066105 0.14371 0.14009 0.05213 0.055089 0.028454 0.24959 
0.14502 0.055418 0.09981 0.14108 0.060186 0.044238 0.039634 0.31453 
0.12036 0.037497 -0.0054151 0.10902 0.042758 0.03799 0.016123 0.21243 
0.058871 0.057227 -0.0068948 0.067749 0.014315 0.027468 0.0037921 -0.0014692 
-0.0073881 0.12727 0.031578 0.070708 0.0085601 0.020398 0.014808 -0.14139 
-0.064111 0.10014 0.021713 0.06742 0.0021479 0.0083956 -0.0098543 -0.19433 
-0.10554 0.013492 -0.0070593 0.042594 -0.018404 -0.039449 -0.043395 -0.19104 
-0.079895 0.0072447 -0.016102 0.028783 -0.031392 -0.017582 -0.035667 -0.071016 
0.022371 0.011026 0.01004 0.042923 -0.026131 -0.029255 -0.05589 0.013492 
0.040785 0.018754 0.029605 0.051636 -0.019555 -0.03912 -0.05441 0.1151 
0.059857 0.054432 0.038648 0.052952 -0.014293 -0.0013048 -0.027611 0.15292 
0.051801 0.0042853 0.0069159 0.038648 -0.023007 0.019247 -0.013143 0.071859 
0.032071 -0.034516 0.00297 0.046375 -0.023172 0.028947 -0.00031829 -0.014293 
0.060679 0.028125 0.036675 0.10244 0.020233 0.069229 0.026974 0.0092177 
0.06183 0.066105 0.055747 0.1008 0.031085 0.08715 0.055582 0.072517 
0.0227 0.09126 0.043416 0.091589 0.022206 0.06035 0.044402 0.03799 
0.016781 0.072846 0.023522 0.075148 0.0098754 0.052294 0.030756 0.013821 
0.053938 0.058049 0.02829 0.071695 0.0082312 0.085506 0.053774 0.036839 
0.068078 0.063474 0.023851 0.067913 0.0079024 0.086985 0.074161 0.020891 
0.011191 0.033058 0.025166 0.066927 0.0028056 0.0090533 0.00050378 -0.088608 
-0.060658 0.036017 0.045553 0.072353 -0.00081153 -0.12018 -0.099295 -0.13152 
-0.095349 0.041936 0.048513 0.073832 -0.0014692 -0.13053 -0.11804 -0.17427 
-0.077593 0.019411 0.041443 0.076792 0.004943 -0.012485 -0.062467 -0.11787 
0.011848 0.060022 0.005765 0.083697 0.012835 0.046211 0.0016547 0.047526 
0.11099 0.083204 0.016616 0.088794 0.019576 0.084355 0.060844 0.19961 
0.15292 0.058871 0.051308 0.095206 0.025001 0.11937 0.080244 0.16245 
0.13795 0.090931 0.031414 0.084355 0.019905 0.1197 0.090603 0.13351 
0.077285 0.027303 -0.0040998 0.058871 -0.0011404 0.05772 0.048677 0.068078 
0.051636 0.04095 0.018754 0.058213 -0.0054151 0.070873 0.048841 0.042923 
0.040785 0.082546 0.050157 0.072681 0.0026412 0.096357 0.068571 0.052623 
0.016288 0.049664 0.034209 0.067749 0.00099702 0.10491 0.074326 0.030263 
0.0069159 0.057391 0.043251 0.068078 -0.00031829 0.049335 0.041114 -0.034352 
-0.0014692 0.070544 0.047691 0.069886 0.00033937 0.012999 0.0079024 -0.058521 
0.0088889 0.047362 0.049335 0.088465 0.013328 0.011191 -0.0082102 -0.025145 
0.011848 0.065447 0.029769 0.097015 0.024673 0.01974 -0.0022913 0.021056 
0.028619 0.043416 0.032729 0.093726 0.028125 0.032071 0.01004 0.042923 
0.047855 0.020233 0.0052718 0.064954 0.0039565 -0.0064016 -0.020541 0.020069 
0.055418 0.0013258 -0.017582 0.03651 -0.024652 -0.048656 -0.053917 -0.0040998 
0.0059294 0.00033937 -0.025309 0.024015 -0.040928 -0.02498 -0.033365 -0.003771 
-0.013965 0.051636 0.024344 0.050157 -0.023336 0.034537 -0.0070593 -0.025145 
-0.030077 0.090931 0.069229 0.090274 0.01004 0.07597 0.034866 -0.02942 
0.035524 0.068407 0.065447 0.094713 0.022864 0.083697 0.062981 0.024837 
0.079422 0.07449 0.046704 0.082546 0.016452 0.063803 0.040785 0.038155 
0.1026 0.0689 0.046868 0.074819 0.009711 0.019083 0.013328 0.089123 
0.11231 0.046375 0.03799 0.08156 0.011355 0.028619 0.012177 0.10984 
0.097344 0.077121 0.011684 0.089287 0.016288 0.021056 0.00050378 0.10852 
0.12529 0.020562 -0.016266 0.069558 0.004943 0.0082312 -0.0075525 0.14683 
0.089945 0.011684 -0.0062372 0.051143 -0.010019 0.031085 0.00297 0.11691 
0.038155 0.032893 0.0031344 0.050979 -0.014293 0.0079024 -0.012978 0.04358 
-0.040106 0.035853 0.03092 0.066598 -0.0057439 0.013164 -0.013307 -0.12807 
-0.070523 0.0592 0.02829 0.066598 -0.00081153 0.027961 -0.010348 -0.17049 
0.036346 0.068078 0.041772 0.078929 0.01004 0.027303 0.0024767 -0.055068 
0.11609 0.032893 0.049499 0.081067 0.01826 0.08419 0.055582 0.065283 
0.11576 0.05624 0.024015 0.059364 0.0041209 0.1054 0.06594 0.0026412 
0.043909 0.0044497 0.015794 0.04358 -0.014951 0.052459 0.037332 -0.060987 
-0.023501 -0.0021268 0.010204 0.045553 -0.021363 -0.011498 0.0067515 0.0080668 
-0.038133 0.029112 -0.0091966 0.056898 -0.015938 -0.00064712 -0.018239 0.055582 
-0.0024557 0.0070803 0.0054362 0.072353 -0.0052507 -0.0064016 -0.021363 0.16558 
0.056569 0.012999 0.044567 0.08567 0.0036276 -0.078744 -0.056712 0.38375 
0.040456 0.063145 0.077121 0.10918 0.021878 -0.10456 -0.10242 0.41647 
0.056404 0.041607 0.053281 0.099481 0.023193 -0.097816 -0.11639 0.20421 
0.062323 0.064954 0.031249 0.081724 0.019576 0.010369 -0.048656 -0.081539 
0.055747 0.042758 0.01563 0.064625 0.0060938 0.028454 -0.016431 -0.20978 
0.053774 0.0056006 0.024508 0.056076 -0.0064016 -0.049642 -0.052109 -0.14632 
0.035031 0.026974 0.05065 0.070873 0.0026412 -0.0087034 -0.028597 -0.013307 
0.038977 0.015959 0.078765 0.088958 0.016616 0.05772 0.017438 0.058213 
0.0095465 0.023851 0.06331 0.094713 0.020562 0.013328 -0.00031829 0.067749 
-0.0098543 0.048841 0.020069 0.094384 0.020069 -0.020377 -0.027447 0.082546 
0.024015 0.027796 0.0039565 0.08304 0.016123 0.0075736 -0.021363 0.047691 
-0.018733 0.050157 0.03651 0.082711 0.019247 0.10392 0.047033 -0.038462 
-0.0014692 0.05476 0.030756 0.077614 0.018754 0.1835 0.11461 -0.10078 
0.036017 0.044238 0.044567 0.084026 0.018425 0.15209 0.12003 -0.030406 
0.0786 0.046868 0.021713 0.070215 0.0087245 0.088301 0.10343 0.082053 
0.12677 0.019905 0.023357 0.06594 0.0028056 0.074326 0.054432 0.1853 
0.12233 0.034537 0.041772 0.070051 0.00297 0.020727 0.017767 0.18136 
0.03388 0.063639 0.052623 0.071859 0.0028056 -0.0095255 -0.0032777 0.11806 
-0.081868 0.025824 0.051308 0.076792 0.0028056 -0.02498 -0.041751 0.016288 
-0.13678 0.007738 0.041936 0.076299 0.00050378 -0.065591 -0.076113 -0.0052507 
-0.054739 0.023193 0.018918 0.089945 0.01267 -0.021692 -0.048163 0.0026412 
0.021384 0.017932 0.012506 0.097179 0.020727 -0.023336 -0.049478 0.00050378 
0.070051 0.01974 0.010204 0.070544 0.0019835 -0.073318 -0.079401 -0.023829 
0.028125 0.028454 0.027961 0.069722 -0.0062372 -0.12198 -0.12116 -0.054904 
0.01563 0.048019 0.038648 0.077285 -0.0014692 -0.12609 -0.1376 -0.045861 
0.063639 0.083862 0.047526 0.088136 0.013986 -0.0019624 -0.054575 0.027632 
0.13319 0.083697 0.052459 0.090931 0.023851 0.13598 0.055747 0.14239 
0.13993 0.093069 0.045553 0.082382 0.014643 0.11757 0.078929 0.14026 
0.025495 0.079751 0.047526 0.076299 0.0031344 0.050979 0.044896 0.086657 
-0.036654 0.02533 0.03092 0.061008 -0.0088678 0.04358 0.023028 0.042923 
-0.051944 -0.0095255 0.020562 0.043745 -0.025638 0.020069 0.0065871 -0.067235 
-0.024816 0.015137 0.0052718 0.067913 -0.0050863 0.057062 0.031742 -0.079566 
0.038155 0.041278 0.010204 0.078272 0.01152 0.09685 0.065612 -0.010183 
0.053445 0.048184 0.024673 0.072353 0.0031344 0.013328 0.015959 0.035195 
0.026974 0.028125 0.031249 0.067256 -0.0091966 -0.12429 -0.078415 -0.031064 
-0.017746 0.047362 0.056076 0.087314 -0.0011404 -0.19301 -0.17772 -0.098309 
-0.020048 0.074819 0.065612 0.096193 0.00297 -0.19959 -0.20551 -0.066906 
0.011355 0.062817 0.05065 0.096028 0.0075736 -0.086307 -0.12149 -0.017088 
0.049828 0.063803 0.058871 0.089123 0.0082312 0.056733 0.0064227 0.069722 
0.03388 0.080902 0.047197 0.08008 0.0051074 0.12464 0.070873 -0.026131 
0.022206 0.084026 0.07597 0.09685 0.01563 0.078107 0.049664 -0.045696 
0.039634 0.091096 0.06035 0.10014 0.021878 0.00050378 -0.0049219 -0.062138 
0.054925 0.072846 0.056733 0.11642 0.046868 0.14223 0.086821 0.034044 
0.047197 0.027632 0.0014903 0.084026 0.041607 0.41105 0.29744 0.16097 
0.083368 0.045882 0.0032988 0.062488 0.024179 0.49999 0.42321 0.23183 
0.10655 0.027303 -0.022021 0.038155 -0.0050863 0.38244 0.37964 0.30155 
0.072846 0.01267 -0.031886 0.012342 -0.037476 0.22476 0.2468 0.29119 
-0.0019624 0.012342 0.0037921 0.029934 -0.044217 -0.012649 0.050157 0.10474 
-0.043888 0.035688 0.027468 0.053116 -0.038462 -0.25713 -0.17723 -0.04619 
-0.032872 0.047691 0.047362 0.066763 -0.028762 -0.34131 -0.30613 -0.088444 
0.0026412 0.058542 0.055747 0.077614 -0.013143 -0.29906 -0.31386 -0.054575 
0.033715 0.024673 0.045224 0.076627 0.0021479 -0.18364 -0.23033 -0.093212 
-0.0138 0.047197 0.031907 0.081067 0.012342 -0.052766 -0.13415 -0.18972 
-0.073154 0.071037 -0.0060728 0.0786 0.01267 -0.051451 -0.084498 -0.18249 
-0.016266 0.052623 0.033058 0.082382 0.013821 -0.071181 -0.071016 -0.070359 
0.10343 0.094713 0.033222 0.078765 0.011355 -0.05178 -0.074962 0.059857 
0.16442 0.065283 0.034044 0.078765 0.015794 0.038648 -0.0087034 0.12908 
0.14289 0.053938 0.027961 0.07301 0.015137 0.1294 0.078272 0.10441 
0.099645 0.085012 0.017274 0.06331 0.0059294 0.15292 0.10672 0.11378 
0.0060938 0.073504 0.02681 0.068242 0.0075736 0.1493 0.12135 0.084355 
-0.042737 0.049664 0.023686 0.058706 0.00033937 0.17034 0.14141 0.072517 
-0.065262 0.041278 0.027303 0.062323 -0.0021268 0.12151 0.11247 0.044238 
-0.040271 -0.00015387 0.036017 0.06183 -0.0055795 0.053938 0.057555 -0.023336 
-0.039942 0.025988 0.0074092 0.069558 0.00083261 0.060844 0.044238 -0.064933 
-0.051287 -0.00097594 -0.01676 0.077285 0.01004 0.095042 0.063968 -0.053424 
