0.03092 -0.57264 -0.084169 0.013492 -0.046025 0.069393 0.045224 0.095206 
-0.0042642 -0.54403 -0.11952 -0.043888 -0.088444 0.05065 0.035524 0.049664 
-0.1256 -0.47498 -0.15388 -0.089266 -0.12922 0.028619 0.027139 0.00050378 
-0.26667 -0.32405 -0.12659 -0.0868 -0.13744 -0.0073881 -0.015609 -0.023665 
-0.10012 -0.032872 -0.077593 -0.053424 -0.11935 -0.016431 -0.02794 0.010697 
0.10737 0.28461 0.0026412 0.0080668 -0.073976 0.024015 -0.0011404 0.059364 
0.20865 0.51298 0.088794 0.093233 -0.0095255 0.031414 0.011848 0.088301 
0.23003 0.73478 0.22033 0.19007 0.066105 0.020398 0.0023123 0.069722 
0.23923 0.65323 0.2976 0.27327 0.13762 0.051965 0.0090533 0.071037 
0.14946 0.38129 0.2759 0.3027 0.1664 0.015959 -0.0034422 0.025001 
0.026481 0.12677 0.18826 0.27655 0.15407 0.028947 -0.0029489 0.013492 
0.007738 0.086657 0.1299 0.22411 0.11987 0.011684 -0.01117 0.045718 
0.071366 0.14305 0.1174 0.18465 0.088301 0.011684 -0.0090322 0.041278 
0.11592 0.013657 0.057391 0.13335 0.052459 0.014808 -0.0042642 0.051143 
0.10836 -0.080223 0.01711 0.085999 0.016123 0.048841 0.013492 0.048677 
0.1197 0.071366 0.055582 0.088958 0.012506 0.057884 0.031578 0.047362 
0.084684 0.20602 0.095042 0.1179 0.030098 0.047197 0.041607 0.046046 
-0.019061 0.21852 0.069229 0.096193 0.016123 0.034537 0.013492 -0.065755 
-0.083347 0.18925 0.015794 0.06742 -0.0075525 -0.019884 -0.025474 -0.13925 
-0.16407 -0.00081153 0.044073 0.072517 -0.013307 0.01563 0.00099702 -0.064933 
-0.27275 -0.51592 -0.091404 -0.011663 -0.065097 0.005765 -0.013471 -0.022679 
-0.2938 -0.75004 -0.21998 -0.092554 -0.12807 -0.0019624 -0.015773 0.0082312 
-0.013636 -0.15684 -0.12264 -0.068386 -0.12412 0.029769 0.011684 0.1077 
0.19402 0.2588 -0.022514 -0.017417 -0.092226 0.044238 0.011026 0.14979 
0.19385 0.066434 -0.11409 -0.05178 -0.10998 0.011848 -0.0029489 0.15949 
0.16771 0.0088889 -0.12116 -0.067399 -0.11952 0.030592 -0.00031829 0.13302 
0.18563 0.17856 0.011026 0.0092177 -0.072167 0.041936 0.0082312 0.083204 
0.18892 0.37685 0.20405 0.15867 0.036017 0.070051 0.035688 0.028783 
0.14535 0.44294 0.29546 0.26389 0.12677 0.073832 0.040128 0.019905 
0.090109 0.22723 0.24926 0.27212 0.14963 0.052459 0.02681 0.01267 
0.028783 0.043251 0.14963 0.21128 0.11707 0.047362 0.026481 0.012177 
0.041443 0.15226 0.12365 0.18695 0.094877 0.045718 0.0070803 0.034866 
0.077285 0.13861 0.028454 0.13779 0.057555 0.018425 -0.0039354 -0.0042642 
0.12529 0.037661 -0.021528 0.071037 0.0059294 0.0014903 -0.0004827 0.023028 
0.1835 -0.13974 -0.04882 0.021549 -0.036654 0.020562 -0.0075525 0.036839 
0.22328 -0.39212 -0.065097 -0.0044286 -0.063453 0.0088889 -0.012814 0.045882 
0.1202 -0.56146 -0.12281 -0.053588 -0.10078 0.012342 0.0093821 0.024015 
-0.031064 -0.42681 -0.12922 -0.077428 -0.12494 0.0037921 -0.017746 -0.009361 
-0.22014 -0.28327 -0.10669 -0.068057 -0.12593 1.0539e-005 -0.019061 -0.036489 
-0.19992 -0.1746 -0.062467 -0.047012 -0.11261 0.023357 0.0042853 0.0080668 
-0.16802 -0.091239 -0.055068 -0.028104 -0.097158 0.029441 0.0085601 -0.0082102 
-0.26519 0.19533 -0.01676 -0.0054151 -0.081374 0.00066819 -0.012978 -0.048985 
-0.44276 0.5873 0.012999 0.039634 -0.048327 -0.0052507 -0.022679 -0.073154 
-0.30892 0.69039 0.079422 0.11724 0.007738 -0.027447 -0.041915 -0.054739 
-0.09798 0.46185 0.1853 0.19385 0.073339 -0.0062372 -0.025638 0.011026 
0.066763 0.1978 0.23019 0.24367 0.12102 0.027796 -0.0026201 0.046868 
0.22394 -0.020541 0.2246 0.25683 0.13713 0.023686 0.00083261 0.029769 
0.22509 -0.22261 0.11066 0.18876 0.099152 0.014643 -0.0049219 0.057555 
0.20208 -0.16588 -0.033201 0.073668 0.020233 0.034373 -0.0062372 0.068736 
0.22674 0.005765 -0.12889 -0.024652 -0.059178 0.026481 1.0539e-005 0.091918 
0.18958 -0.006566 -0.16013 -0.090746 -0.1205 0.040785 0.028947 0.14141 
0.10639 -0.10127 -0.10209 -0.084169 -0.13136 0.050979 0.025001 0.14733 
0.085999 -0.056055 0.02681 0.0036276 -0.077428 0.036839 0.018096 0.12168 
0.091918 -0.094527 0.016781 0.037332 -0.043559 0.037168 0.036839 0.064132 
0.047362 -0.2665 -0.11607 -0.014293 -0.069701 0.045882 0.019083 -0.0026201 
-0.025145 -0.2185 -0.16818 -0.076771 -0.11574 0.017603 0.0018191 -0.039942 
-0.0021268 0.13171 -0.061645 -0.034681 -0.10028 0.028454 0.0072447 -0.014129 
0.0090533 0.32884 0.12661 0.092576 -0.017417 0.009711 -0.0090322 0.0074092 
0.01004 0.44968 0.21539 0.19418 0.066763 0.016288 -0.0054151 0.02122 
0.012999 0.54159 0.17856 0.20586 0.092247 0.043416 0.0041209 0.038812 
-0.0057439 0.51331 0.09981 0.16393 0.068571 -0.0096899 -0.022185 0.022864 
-0.066906 0.30763 0.014808 0.089123 0.01415 -0.023501 -0.041422 -0.0039354 
-0.16934 0.097344 0.013986 0.060022 -0.015444 -0.011334 -0.040271 -0.024487 
-0.25549 0.070215 0.053445 0.070215 -0.0096899 0.0051074 -0.02498 -0.08269 
-0.19268 -0.041751 0.065118 0.099152 0.012506 0.026481 -0.00081153 -0.047176 
-0.05178 -0.22688 0.047362 0.12168 0.035031 0.080244 0.029112 0.017274 
0.1299 -0.16884 0.065118 0.11609 0.038155 0.05772 0.032071 0.07038 
0.21079 0.030427 0.096028 0.12743 0.043416 0.048184 0.043251 0.09685 
0.22 0.044238 0.10836 0.14223 0.050814 0.0324 0.018754 0.08863 
0.17034 -0.016924 0.059364 0.11395 0.032236 0.0064227 -0.0055795 0.079916 
0.15045 -0.066906 0.025988 0.086985 0.013821 0.034537 0.017603 0.093069 
0.092904 -0.042408 -0.0011404 0.065776 -0.0026201 0.037497 0.0075736 0.082875 
0.058049 -0.020706 -0.020212 0.03092 -0.029091 0.035688 0.013657 0.066434 
0.012506 -0.23411 -0.052602 -0.0078813 -0.059836 0.021056 0.012999 0.045389 
0.038648 -0.39425 -0.086142 -0.042573 -0.091075 0.030592 0.0088889 0.0083956 
0.11494 -0.031721 -0.0042642 0.014643 -0.061809 0.048841 0.024179 0.0014903 
0.050321 0.28445 0.016452 0.069229 -0.020541 0.02681 0.010204 0.022864 
-0.046519 0.27705 0.016452 0.067256 -0.013636 0.018754 0.0013258 0.024015 
-0.11919 0.10244 0.077121 0.10113 0.012177 0.03388 0.010862 0.025166 
-0.076442 -0.14352 0.080244 0.11658 0.027961 0.066598 0.029934 0.0227 
-0.0024557 -0.070523 0.089123 0.1248 0.037004 0.03947 0.018918 0.00017495 
0.063474 0.11313 0.12529 0.15226 0.05476 0.010697 0.0021479 0.028125 
0.12283 0.26389 0.11181 0.15176 0.056733 -0.014293 -0.024652 0.035524 
0.09274 0.35728 0.12612 0.15176 0.05624 -0.032872 -0.043888 -0.013143 
0.13056 0.27853 0.18465 0.18876 0.083368 -0.017582 -0.023336 0.00017495 
0.21753 -0.13596 0.11115 0.159 0.072188 0.030756 -0.0090322 0.0016547 
0.2029 -0.48452 -0.093048 0.045224 -0.00097594 0.030263 0.0047785 -0.020706 
0.079094 -0.5368 -0.24973 -0.089924 -0.10308 0.016123 0.0095465 -0.025309 
-0.051615 -0.43717 -0.27275 -0.17789 -0.18545 0.011355 -0.001798 -0.027611 
-0.07003 -0.2208 -0.21685 -0.17164 -0.20337 0.024673 0.0046141 0.022535 
-0.064604 0.24564 -0.047012 -0.064111 -0.13908 0.026646 0.024673 0.073504 
-0.11459 0.68184 0.073504 0.04654 -0.058521 -0.0049219 -0.014622 0.051472 
-0.10258 0.5189 0.08715 0.097015 -0.010019 -0.048163 -0.049807 0.052952 
0.071859 0.13351 0.085177 0.10819 0.012506 0.013821 -0.017582 0.082875 
0.17659 -0.19729 0.062159 0.098001 0.012999 0.010862 -0.017417 0.08156 
0.14157 -0.2716 0.019247 0.063639 -0.0070593 0.03799 0.004943 0.055254 
-0.048327 -0.10998 0.044073 0.090767 0.0083956 0.04506 0.01152 0.0093821 
-0.0868 -0.16259 0.036346 0.10672 0.018754 0.047855 0.019083 -0.040435 
-0.078086 -0.39656 0.026317 0.11214 0.028619 0.074819 0.039799 -0.045861 
-0.063618 -0.40872 0.070544 0.11296 0.029276 0.058542 0.030427 0.011355 
0.0064227 -0.24464 0.10589 0.13105 0.042429 0.059035 0.034373 0.096028 
0.03651 0.01563 0.12414 0.1539 0.060515 0.052952 0.049006 0.15719 
0.070051 0.24466 0.12085 0.1567 0.062488 0.03799 0.016452 0.069558 
0.16163 0.29119 0.1276 0.16311 0.062323 0.0014903 -0.014951 -0.05178 
0.26061 0.36419 0.14437 0.17034 0.066598 -0.004593 -0.010676 -0.069701 
0.23019 0.55507 0.16738 0.18284 0.075641 -0.0047575 -0.031228 -0.072825 
0.12266 0.70239 0.14782 0.17544 0.070051 -0.030077 -0.043724 -0.030406 
0.015959 0.78229 0.17051 0.19632 0.085177 -0.028433 -0.031886 0.032564 
-0.031721 0.71653 0.10507 0.19057 0.087643 0.0062583 -0.025638 0.032236 
-0.091404 0.3221 0.025659 0.12908 0.048677 0.0026412 -0.019226 0.032071 
-0.25121 -0.13678 -0.051122 0.043745 -0.0091966 0.023028 -0.0044286 -0.0049219 
-0.32717 -0.28311 -0.10324 -0.017746 -0.06148 0.01974 -0.0052507 -0.039284 
-0.13086 -0.020212 -0.098144 -0.043888 -0.092226 0.0082312 -0.0077169 0.014972 
0.14108 0.31651 0.023193 0.027139 -0.05326 0.048348 0.013328 0.073175 
0.35695 0.25041 0.085999 0.088794 -0.0082102 0.034537 0.013986 0.12727 
0.3826 -0.2185 0.054267 0.08715 0.0021479 0.016945 0.0047785 0.13302 
0.10195 -0.85182 -0.14319 -0.045532 -0.082854 0.014479 -0.0087034 0.031742 
-0.17509 -0.91199 -0.2739 -0.16473 -0.17624 0.011026 -0.011992 -0.027611 
-0.2014 -0.31106 -0.10916 -0.10127 -0.15289 0.03092 0.01004 -0.018075 
-0.13464 0.087808 0.042758 0.035524 -0.062796 0.041278 0.011848 -0.033365 
-0.066413 0.28971 0.10293 0.12743 0.014315 0.018589 0.00083261 -0.021856 
-0.0024557 0.36435 0.15341 0.16558 0.056076 0.029769 0.022206 0.022371 
0.08863 0.34002 0.11987 0.16442 0.067749 0.034373 0.013328 0.040456 
0.15867 0.463 0.18629 0.20701 0.099645 0.04506 0.021878 0.084519 
0.13746 0.4755 0.22887 0.24301 0.1276 0.041443 0.043416 0.079422 
0.095206 0.42321 0.23496 0.26143 0.14535 0.050486 0.027632 0.054432 
0.04917 0.31749 0.22887 0.25863 0.14568 -0.0040998 -0.0067304 0.057884 
0.017438 -0.085485 0.066434 0.15209 0.073668 0.004943 -0.011827 0.037168 
-0.001798 -0.41875 -0.13908 -0.023829 -0.054082 -0.012978 -0.031228 0.033715 
0.036839 -0.29363 -0.12083 -0.063782 -0.10275 0.010697 -0.013636 0.061995 
0.13762 0.024179 -0.018075 0.016123 -0.063124 0.017438 -0.0098543 0.081724 
0.21145 0.33887 0.10392 0.12085 0.012835 0.0021479 -0.022021 0.049499 
0.19796 0.57102 0.1442 0.16179 0.053609 -0.0075525 -0.026953 0.039305 
0.10984 0.52005 0.11115 0.1567 0.059693 -0.0014692 -0.028762 0.0013258 
0.037332 0.4824 0.16788 0.19139 0.084848 0.032564 -0.0029489 0.0072447 
-0.006566 0.49818 0.26916 0.26373 0.14042 0.061008 0.033715 0.034866 
-0.10406 0.37635 0.25863 0.28362 0.16245 0.077285 0.052294 0.055089 
-0.21307 0.17495 0.14206 0.21243 0.12661 0.075641 0.057555 0.14897 
-0.064768 -0.062467 -0.011663 0.08863 0.042594 0.097344 0.072846 0.13269 
0.034866 -0.39524 -0.15569 -0.050793 -0.066248 0.05476 0.031249 -0.048492 
-0.024487 -1.0442 -0.22162 -0.12593 -0.14221 0.0069159 -0.0073881 -0.21389 
-0.14254 -1.9776 -0.40757 -0.26206 -0.25187 0.010533 -0.0022913 -0.18167 
-0.088115 -1.6379 -0.34657 -0.25763 -0.27325 0.022371 -0.01528 -0.10669 
0.064132 -0.48041 -0.15076 -0.16358 -0.22129 -0.019719 -0.025145 0.011848 
0.15999 0.21457 -0.019719 -0.043395 -0.13333 0.042429 0.016452 0.1636 
0.096686 0.29037 -0.025638 -0.0052507 -0.088937 0.025824 0.0079024 0.22033 
0.071366 0.47599 -0.017088 0.014479 -0.065426 0.011355 -0.0044286 0.14765 
0.13121 0.91481 0.04095 0.057391 -0.03205 0.039305 0.0039565 0.037004 
0.18267 1.0593 0.090931 0.10047 -0.00064712 0.016945 -0.0072237 0.0036276 
0.18826 0.91662 0.20372 0.17133 0.052294 0.015794 0.0011614 0.0067515 
0.22164 0.78821 0.20651 0.20701 0.087479 0.01563 -0.0078813 0.010369 
0.2195 0.56165 -0.055232 0.062652 0.00083261 -0.010841 -0.028433 0.035853 
0.18596 0.055582 -0.28114 -0.11196 -0.12379 -0.0083746 -0.020377 0.039305 
0.036839 -0.30909 -0.21077 -0.11097 -0.14648 0.015301 -0.011498 0.044896 
-0.056548 -0.40675 0.075805 0.03651 -0.05885 0.040128 0.010369 0.069722 
-0.097487 -0.33243 0.30072 0.22575 0.083697 0.073668 0.059364 0.12447 
-0.12955 -0.2203 0.27343 0.27902 0.15144 0.091753 0.060679 0.10178 
-0.21455 -0.40527 0.027961 0.14305 0.068736 0.01004 0.0070803 -0.009361 
-0.37091 -0.60503 -0.1912 -0.045203 -0.077922 -0.06296 -0.048985 -0.15437 
-0.28295 -0.24743 -0.12001 -0.069043 -0.12264 -0.10094 -0.09798 -0.19811 
-0.032543 0.034537 0.081889 0.047691 -0.054246 -0.056877 -0.079072 -0.090253 
0.12546 -0.048327 0.13023 0.1077 0.0026412 -0.0044286 -0.044381 -0.021692 
0.18235 0.016123 0.023522 0.076956 1.0539e-005 0.045553 0.0034632 0.057555 
0.1664 0.14568 -0.031228 0.062652 -0.0026201 0.08567 0.051472 0.1271 
0.16311 0.22 -0.0054151 0.067749 0.0026412 0.12069 0.081724 0.12842 
0.14815 0.036839 -0.013143 0.042758 -0.014787 0.084684 0.064461 0.0786 
0.020727 -0.16111 -0.13021 -0.03764 -0.07414 0.041278 0.029605 -0.062138 
-0.060329 -0.22655 -0.22129 -0.12725 -0.14862 0.026481 0.0041209 -0.18084 
-0.040271 -0.17213 -0.13021 -0.10341 -0.15388 0.010697 -0.0042642 -0.069208 
-0.0004827 0.17659 0.050486 0.019247 -0.080059 0.030756 0.012835 0.1026 
0.026974 0.55047 0.17791 0.14042 0.011684 0.035524 0.015959 0.14881 
0.068078 0.68101 0.21375 0.20257 0.071202 -0.013965 -0.01939 0.14782 
0.045882 0.57858 0.1539 0.18613 0.072188 -0.015773 -0.011827 0.070544 
0.0062583 0.23019 0.05624 0.12579 0.034702 0.025824 -0.003771 0.023686 
0.038155 0.12562 0.035688 0.12036 0.02829 0.03651 0.012177 0.081231 
0.069393 0.25584 0.11411 0.16262 0.06035 0.046211 0.036346 0.12546 
0.1077 0.14469 0.19994 0.22016 0.10524 0.032893 0.042429 0.18859 
0.079258 -0.26848 0.086163 0.16146 0.079751 -0.0032777 0.00017495 0.20273 
0.078436 -0.45591 0.059035 0.1299 0.055911 -0.019719 -0.034188 0.050157 
-0.022021 -0.33539 0.076299 0.1248 0.051143 0.014972 -0.023829 -0.13201 
-0.066577 -0.20189 0.12858 0.15275 0.069886 0.013492 -0.015938 -0.16802 
-0.00064712 -0.16999 0.085835 0.13088 0.057884 0.046046 0.010862 -0.14681 
0.11461 -0.071016 0.085835 0.13467 0.05065 0.037332 0.018425 -0.055068 
0.15111 0.22197 0.19336 0.18744 0.073997 0.0070803 0.0013258 0.055911 
0.13138 0.51446 0.28741 0.27853 0.12842 0.0079024 -0.011827 0.076792 
0.033715 0.58204 0.22263 0.29892 0.14733 -0.047176 -0.052931 0.085999 
0.045224 0.54784 0.064296 0.18103 0.085012 -0.033037 -0.049971 0.10441 
0.036346 0.22674 -0.12198 0.017767 -0.020541 0.046046 -0.0095255 0.092411 
-0.049807 -0.06148 -0.31238 -0.16506 -0.15816 0.058871 0.015794 0.032236 
-0.10752 -0.25927 -0.31846 -0.23329 -0.23165 0.057391 0.047855 -0.0034422 
-0.0088678 -0.65271 -0.29955 -0.25006 -0.25204 0.097508 0.063639 0.051472 
0.1516 -0.50638 -0.21586 -0.2032 -0.22589 0.07449 0.059693 0.14321 
0.11477 -0.10406 -0.044217 -0.084334 -0.15224 0.034373 0.045553 0.11526 
-0.019061 0.18185 0.12924 0.069393 -0.045368 -0.020706 -0.016266 -0.014293 
-0.074304 0.21293 0.25584 0.20767 0.068242 -0.030406 -0.041586 -0.10012 
-0.04882 0.051801 0.32917 0.33065 0.17856 0.042758 0.0093821 -0.058028 
-0.10061 -0.0083746 0.37619 0.41499 0.25567 0.049006 0.023357 -0.003771 
-0.33391 -0.023007 0.36057 0.40891 0.26011 0.052623 0.026974 -0.062631 
-0.2642 -0.010676 0.26932 0.35071 0.22279 0.065118 0.035031 -0.02235 
0.076299 0.091918 0.19731 0.28165 0.17495 0.063474 0.038483 0.064296 
0.42486 0.22608 0.047691 0.16245 0.090767 0.038483 0.027961 0.12825 
0.47434 0.29267 -0.03764 0.063968 0.010204 0.018425 0.0026412 0.16163 
0.31125 0.30862 -0.12379 -0.028269 -0.070523 -0.076442 -0.068057 0.16508 
0.20438 0.23825 -0.1695 -0.10554 -0.14023 -0.076771 -0.089266 0.13516 
0.1544 0.32062 -0.10373 -0.086471 -0.14056 -0.023665 -0.063124 0.052952 
0.17708 0.25567 -0.051451 -0.047176 -0.1136 0.026646 -0.020048 0.024673 
0.11576 0.16114 -0.11837 -0.061151 -0.11919 0.0227 0.0046141 -0.061645 
0.061172 0.18794 -0.14171 -0.057699 -0.11804 0.031249 0.0018191 -0.10735 
-0.0057439 0.095864 -0.032543 -0.011827 -0.087786 -0.013307 -0.02087 -0.028597 
-0.068057 -0.045203 0.14831 0.1151 -0.00097594 0.0028056 0.0024767 0.026481 
-0.1381 -0.255 0.077778 0.1179 0.01974 0.029112 -0.0004827 -0.011992 
-0.27423 -0.5493 -0.12445 -0.011498 -0.060165 0.027632 0.0019835 -0.073976 
-0.48567 -0.70943 -0.18052 -0.094856 -0.12873 0.026481 0.0056006 -0.12116 
-0.48254 -0.65288 -0.12511 -0.08532 -0.13892 0.0079024 -0.01117 -0.08532 
-0.14829 -0.17542 -0.018239 -0.023336 -0.10258 -0.034023 -0.038298 -0.041093 
0.060186 -0.093212 -0.050629 -0.023501 -0.094692 -0.012649 -0.03764 -0.025309 
0.17248 -0.24694 -0.14878 -0.072003 -0.12297 -0.012156 -0.03205 0.012177 
0.3466 0.054596 -0.10554 -0.055397 -0.1136 0.023357 -0.0036066 0.11181 
0.40792 0.44343 -0.05178 0.012013 -0.066741 0.083368 0.043909 0.14716 
0.33394 0.67181 0.11362 0.10639 0.0059294 0.052952 0.032893 0.087479 
0.2662 0.81107 0.2833 0.24877 0.11329 0.065118 0.030592 0.037168 
0.14124 0.92632 0.4875 0.42601 0.24992 0.04917 0.027632 0.0083956 
0.042265 1.0728 0.59667 0.55836 0.35301 0.01974 0.010204 0.036346 
-0.031557 0.98518 0.55228 0.57924 0.36928 0.023522 0.016452 0.060679 
0.0062583 0.25041 0.2736 0.40792 0.25978 0.034373 0.0028056 0.061008 
0.029441 -0.59155 -0.084827 0.11905 0.063968 -0.0016336 -0.017088 0.024508 
0.060515 -0.91923 -0.28574 -0.11541 -0.11327 0.00066819 -0.0049219 0.0041209 
-0.0771 -1.0963 -0.39672 -0.27653 -0.25878 -0.01232 -0.028597 0.021549 
-0.19318 -1.6611 -0.61769 -0.45295 -0.40412 -0.027611 -0.039613 0.039141 
-0.15421 -1.5392 -0.70795 -0.55258 -0.49323 -0.01676 -0.035503 0.058871 
-0.2208 -0.84836 -0.50605 -0.47794 -0.45542 -0.00097594 -0.024816 0.030263 
-0.28443 0.38408 0.0065871 -0.14171 -0.23773 0.036675 0.0026412 -0.012978 
0.052623 1.3018 0.44903 0.25485 0.056898 0.093233 0.051801 0.0036276 
0.48174 1.4585 0.64846 0.52679 0.29809 0.083368 0.059857 0.077778 
0.52844 1.3362 0.60144 0.59322 0.37948 0.053445 0.042594 0.097344 
0.22953 0.95674 0.41877 0.50575 0.31864 0.031907 0.0098754 0.043745 
0.061337 0.52794 0.24038 0.35728 0.22197 0.039963 0.011848 0.082217 
-0.083347 0.012835 0.070051 0.18958 0.11378 0.065447 0.035853 0.074983 
-0.23099 -0.31599 0.011191 0.099974 0.041443 0.0786 0.043087 0.053281 
-0.26289 -0.24661 -0.029255 0.054432 -0.0021268 0.065776 0.0421 0.047526 
-0.13103 -0.0771 -0.09091 0.015959 -0.036983 0.031907 0.029441 0.034866 
0.004943 -0.15898 -0.1912 -0.073811 -0.10275 0.023851 0.011848 0.037332 
0.18942 -0.20797 -0.16062 -0.10209 -0.14122 0.0011614 -0.0088678 0.040292 
0.25222 -0.098802 -0.084663 -0.062302 -0.12757 0.00297 -0.0091966 -0.017088 
0.013492 -0.38274 -0.12346 -0.076771 -0.13711 0.0042853 -0.020541 -0.077757 
-0.17131 -0.7387 -0.17706 -0.121 -0.16703 0.013492 -0.013965 -0.023994 
-0.20995 -0.71831 -0.097816 -0.076277 -0.13908 0.0324 0.011355 0.025659 
-0.058192 -0.23987 0.097015 0.055747 -0.045039 0.04917 0.027961 0.10408 
0.12677 0.43209 0.2389 0.18859 0.060844 0.060022 0.038977 0.15604 
0.11822 0.54159 0.15752 0.17791 0.077121 0.057227 0.044731 0.14519 
0.040292 0.35843 0.081395 0.1493 0.06331 0.071366 0.045718 0.13582 
0.023686 0.23825 0.090109 0.16229 0.071037 0.086821 0.059364 0.10178 
0.078107 0.24696 0.094877 0.15357 0.06742 0.07597 0.052294 0.086657 
0.16886 0.26702 0.089123 0.14009 0.05772 0.055747 0.046868 0.1197 
0.077778 0.18909 -0.016924 0.068736 0.0093821 0.039963 0.027139 0.075476 
-0.043066 0.18169 -0.087293 -0.0044286 -0.047505 0.030427 0.0067515 -0.011334 
-0.06707 0.41384 0.01152 0.033058 -0.03912 0.0044497 -0.015773 -0.069208 
0.085999 0.60801 0.12316 0.11609 0.014479 -0.0052507 -0.022185 -0.18282 
0.23611 0.3928 0.060515 0.10096 0.013328 -0.019061 -0.036983 -0.21258 
0.27935 0.33032 -0.072003 0.005765 -0.052766 -0.029255 -0.044874 -0.062796 
0.10096 0.0092177 -0.12807 -0.057205 -0.1113 -0.057863 -0.047834 0.015465 
-0.062302 -0.41185 -0.03764 -0.016102 -0.091404 0.0085601 -0.025638 0.12217 
-0.064933 -0.48879 0.0031344 0.048019 -0.039613 0.063639 0.022371 0.17133 
-0.28854 -0.58859 -0.080059 -0.0055795 -0.062302 0.048019 0.029769 0.088794 
-0.4033 -0.68313 -0.1085 -0.04471 -0.095349 0.020891 0.0032988 0.00083261 
-0.17969 -0.42549 0.042923 0.038812 -0.049807 0.007738 -0.0095255 -0.015609 
0.037661 -0.084663 0.23249 0.18974 0.058213 0.033551 0.013986 0.028125 
0.17084 0.16541 0.27425 0.2657 0.13072 0.031414 0.0051074 0.048677 
0.21819 0.38704 0.20323 0.25387 0.13384 0.019576 -0.0019624 0.047362 
0.1955 0.55244 0.06183 0.15144 0.066763 0.016616 -0.00097594 0.064461 
0.067585 0.65684 0.04095 0.10162 0.02829 0.032071 0.0067515 0.074819 
0.014479 0.64188 0.11625 0.13138 0.040785 0.0324 0.0082312 0.033387 
0.094548 0.414 0.085999 0.14272 0.050157 0.058049 0.017274 0.0036276 
0.13302 0.076299 0.015794 0.11625 0.03388 0.010533 -0.0068948 -0.015773 
0.058706 -0.279 -0.1455 -0.017911 -0.05885 -0.0095255 -0.021692 -0.032708 
-0.042901 -0.49751 -0.26256 -0.14632 -0.16161 -0.0050863 -0.032708 -0.01939 
0.0021479 -0.37008 -0.21323 -0.15783 -0.19252 0.0016547 -0.017253 0.028783 
0.047197 -0.39688 -0.080717 -0.081539 -0.14911 0.025988 0.013821 0.076792 
0.091425 -0.43273 0.083368 0.05213 -0.050793 0.054925 0.021549 0.097015 
0.18678 -0.12149 0.21638 0.1807 0.053281 0.042758 0.021384 0.088301 
0.18876 0.15834 0.27902 0.26143 0.12694 0.02681 0.025988 0.072517 
0.090767 0.25156 0.25058 0.27475 0.14881 0.019576 -0.0088678 0.041443 
0.059035 0.32325 0.27162 0.29185 0.16196 -0.0067304 -0.021034 0.0014903 
-0.097158 0.19418 0.25436 0.30779 0.17001 0.01711 -0.010183 -0.06296 
-0.15257 0.15259 0.27524 0.3392 0.18662 -0.01117 -0.026296 -0.046847 
0.055089 0.73823 0.38408 0.3923 0.21885 -0.00015387 -0.017746 -0.0031133 
0.26965 1.2099 0.30105 0.36238 0.19994 -0.0073881 -0.024816 0.028619 
0.00297 0.91382 0.00033937 0.15735 0.060515 -0.027118 -0.038627 -0.032379 
-0.2185 0.31157 -0.26749 -0.080717 -0.10341 -0.012649 -0.03353 -0.028433 
-0.12297 -0.41875 -0.4592 -0.29643 -0.26667 0.033058 -0.0072237 0.020233 
-0.025967 -1.0346 -0.56985 -0.44917 -0.39376 0.043909 0.011026 0.080902 
-0.022021 -1.58 -0.55604 -0.4878 -0.43075 0.07038 0.040621 0.096193 
-0.042079 -1.7355 -0.46479 -0.4564 -0.40297 0.097837 0.059528 0.11313 
-0.014293 -1.0713 -0.31057 -0.34 -0.33128 0.047855 0.035195 0.063803 
0.048677 -0.042408 -0.12626 -0.15964 -0.21866 -0.00015387 0.00017495 -0.0047575 
0.1294 0.66967 0.1613 0.089123 -0.045203 0.010697 -0.017417 0.024015 
0.29086 1.2305 0.49292 0.37126 0.17248 -0.0034422 -0.01939 0.081724 
0.29908 1.4237 0.70814 0.60949 0.35942 -0.016595 -0.014129 0.11642 
0.11806 1.0205 0.58187 0.6141 0.37405 0.012013 -0.016102 0.096521 
-0.064933 0.45511 0.44196 0.53321 0.3198 -0.034681 -0.044381 0.047033 
0.019576 -0.1016 0.25518 0.38359 0.22641 0.01152 -0.010512 0.048513 
0.03651 -0.43815 0.021549 0.18678 0.097837 0.015465 -0.015116 -0.015773 
-0.044874 -0.47235 -0.27177 -0.084334 -0.094199 -0.010676 -0.030242 -0.070852 
-0.0047575 -0.20501 -0.32799 -0.21702 -0.21307 0.014315 -0.0067304 -0.059836 
0.0036276 0.098988 -0.19959 -0.17723 -0.21323 0.0083956 -0.013307 0.011684 
-0.094363 0.33558 -0.12297 -0.096994 -0.15964 0.032071 0.004943 0.021384 
-0.10193 0.45955 -0.11228 -0.050958 -0.11738 0.042429 0.027961 0.050979 
-0.014951 0.10622 -0.087622 -0.047998 -0.10834 0.05476 0.030756 0.10178 
0.20355 -0.2984 -0.050629 -0.020541 -0.087622 0.082711 0.051308 0.1248 
0.45182 -0.21356 0.044896 0.049335 -0.037147 0.079916 0.053938 0.1641 
0.45708 -0.070359 0.098988 0.10967 0.012835 0.068078 0.045718 0.11165 
0.19402 -0.090581 0.034373 0.087479 0.0056006 0.038319 0.021549 -0.0062372 
0.021713 -0.24431 -0.049642 0.023851 -0.040435 0.0092177 -0.0080457 -0.094034 
-0.23855 -0.22622 -0.093376 -0.034352 -0.092061 -0.034023 -0.043559 -0.13941 
-0.66636 -0.1621 -0.11426 -0.070852 -0.12757 -0.029913 -0.03205 -0.15355 
-0.42747 0.13697 -0.0022913 -0.0036066 -0.085978 0.029112 -0.0073881 -0.0016336 
0.26505 0.46547 0.14502 0.14354 0.022042 0.077285 0.040621 0.12792 
0.41006 0.63547 0.13039 0.18185 0.070051 0.070873 0.062981 0.16919 
0.34216 0.43801 -0.017088 0.082875 0.016288 0.076792 0.043087 0.12579 
0.034537 -0.066413 -0.10521 -0.0083746 -0.051122 0.033222 0.015301 -0.084169 
-0.25943 -0.28837 -0.010841 0.02122 -0.043395 0.044073 0.0227 -0.18052 
-0.35447 0.16492 0.26307 0.20158 0.070708 0.029112 0.011191 -0.1062 
-0.2203 0.74612 0.39674 0.34972 0.18547 0.020233 0.0093821 -0.017746 
0.28083 0.54702 0.34462 0.36419 0.20882 0.036675 0.018754 0.081231 
0.58828 0.12168 0.19714 0.27409 0.15111 0.016288 0.0039565 0.11247 
0.48733 0.070708 0.15867 0.21523 0.10935 0.00050378 -0.003771 0.059035 
0.23167 -0.14451 0.061501 0.14404 0.059857 0.03799 0.0059294 0.031414 
-0.032708 -0.76665 -0.12971 0.011848 -0.034023 0.020891 -0.0040998 -0.049642 
-0.30892 -0.81449 -0.1769 -0.052437 -0.092226 0.0079024 -0.0138 -0.090746 
-0.78819 -0.40116 -0.09387 -0.049314 -0.10193 0.021384 -0.003771 -0.11672 
-0.6828 -0.35331 -0.23083 -0.13547 -0.16259 0.011848 -0.010512 -0.081539 
-0.070687 -0.28212 -0.31205 -0.21932 -0.22655 0.021713 0.004943 0.018918 
0.29711 -0.10883 -0.26108 -0.21998 -0.23707 0.047033 0.012999 0.10376 
0.40661 0.013164 -0.16572 -0.15947 -0.20074 0.054267 0.022206 0.12283 
0.4043 0.020069 0.0092177 -0.03501 -0.11639 0.052787 0.045718 0.12102 
0.24433 0.15176 0.24811 0.16607 0.029934 0.07301 0.047362 0.14634 
0.019905 0.60588 0.42864 0.35071 0.18087 0.079916 0.052787 0.13762 
0.1664 1.1838 0.42272 0.42321 0.25617 0.030427 0.048348 0.083697 
0.14042 1.0144 0.23578 0.34248 0.20882 0.010697 -0.0014692 -0.023501 
-0.10965 0.54373 0.042265 0.20438 0.10984 -0.019884 -0.036489 -0.13119 
-0.0047575 0.7282 0.1202 0.18103 0.085999 -0.018733 -0.030735 -0.046683 
0.34544 0.39855 0.11033 0.16656 0.071859 -0.0072237 -0.02235 0.018754 
0.31569 -0.51839 -0.02235 0.070215 0.0044497 -0.0067304 -0.027282 -0.017253 
0.40167 -1.1987 -0.15191 -0.040106 -0.076935 0.01974 -0.0032777 -0.045203 
0.3313 -1.193 -0.13333 -0.069701 -0.11212 0.0324 0.0051074 -0.03616 
-0.068057 -0.68148 -0.16769 -0.11738 -0.15355 0.01826 -0.00081153 -0.028926 
-0.58333 -0.30531 -0.26453 -0.19252 -0.21471 0.0039565 -0.014293 -0.021363 
-0.63315 0.033715 -0.17197 -0.16753 -0.21307 -0.01676 -0.031886 -0.019061 
-0.49257 0.092904 -0.013471 -0.043724 -0.13547 -0.026624 -0.041257 -0.017417 
-0.74182 0.15193 0.16459 0.13335 -0.00097594 0.0090533 -0.025474 0.0026412 
-0.6121 0.23512 0.22723 0.24219 0.10195 0.027632 -0.004593 0.05213 
-0.026131 0.44903 0.21342 0.25387 0.13664 0.080573 0.054267 0.10787 
0.38359 0.42354 0.096357 0.18267 0.097837 0.060186 0.040128 0.09422 
0.36304 -0.03353 -0.057205 0.0592 0.00297 0.013164 0.0028056 0.045553 
0.39904 -0.016102 0.027468 0.064461 -0.013636 0.01563 0.010862 0.065776 
0.20323 0.16179 0.10573 0.11642 0.019083 0.027632 0.0026412 0.029441 
0.13236 0.25255 -0.012156 0.053774 -0.017582 0.005765 -0.011005 0.0036276 
0.31601 0.072517 -0.12083 -0.043559 -0.088773 -0.022843 -0.023336 0.030098 
0.28954 -0.16802 -0.13777 -0.084827 -0.12988 -0.0064016 -0.038133 0.03799 
0.016452 -0.091404 -0.036654 -0.027611 -0.10406 -0.0042642 -0.029748 0.01415 
-0.21126 -0.17558 0.053445 0.066434 -0.03616 0.028454 -0.0057439 0.061501 
0.049335 -0.32717 -0.040764 0.034702 -0.041422 0.025824 0.0036276 0.14124 
0.092904 -0.6001 -0.24184 -0.11146 -0.13744 0.00099702 -0.0075525 0.094713 
-0.067399 -0.32273 -0.068879 -0.05178 -0.11442 0.045553 0.0092177 0.081395 
-0.079401 0.43209 0.26242 0.17396 0.03536 0.035195 0.0088889 0.062159 
-0.093048 1.0902 0.40414 0.34281 0.17034 -0.013965 -0.019884 0.013986 
-0.11409 1.1458 0.36632 0.37652 0.21589 0.0032988 -0.031064 0.0098754 
-0.18101 0.86549 0.2292 0.29826 0.16853 -0.0062372 -0.030899 -0.023501 
0.06479 0.60999 0.1562 0.23315 0.12381 0.0098754 -0.0052507 0.033551 
0.34314 -0.17197 0.0093821 0.10639 0.033715 0.017603 -0.0026201 0.070708 
0.35383 -0.79559 -0.16013 -0.034023 -0.073482 0.0042853 -0.01528 -0.013471 
0.31947 -0.6976 -0.1108 -0.03205 -0.092061 -0.016595 -0.011498 -0.075291 
0.29004 -0.37584 -0.010019 0.015301 -0.067728 -0.019719 -0.038298 -0.097651 
0.014643 -0.017911 0.10737 0.10458 -0.0054151 -0.024652 -0.042573 -0.048327 
-0.44308 0.2634 0.22197 0.20651 0.076463 0.0060938 -0.012649 0.011355 
-0.5682 0.43489 0.23068 0.24696 0.11822 0.037004 0.0087245 0.045553 
-0.29051 0.37471 0.15883 0.21704 0.11198 0.051636 0.030592 0.1031 
-0.0039354 0.4704 0.22263 0.2588 0.14404 0.053774 0.027632 0.147 
0.26932 0.56346 0.34298 0.32884 0.19385 0.06479 0.038155 0.16788 
0.3096 0.37372 0.41022 0.41039 0.24499 0.026646 0.0227 0.11148 
0.15916 -0.32142 0.20158 0.293 0.16706 0.016781 -0.00015387 0.044731 
-0.020048 -0.72324 -0.069536 0.098659 0.02829 -0.014622 -0.025474 0.0047785 
-0.18709 -1.1016 -0.42747 -0.17969 -0.16753 -0.017582 -0.035667 -0.0059084 
-0.067235 -1.1889 -0.56163 -0.38472 -0.3326 0.047362 -0.010841 0.027139 
0.37257 -0.36186 -0.38751 -0.352 -0.33967 0.040128 0.0065871 0.062817 
0.51874 0.29859 -0.27308 -0.27374 -0.29807 0.020233 0.0047785 0.074161 
0.3489 0.57118 -0.21882 -0.2157 -0.26552 -0.036983 -0.038956 0.014479 
0.12003 0.96282 0.040785 -0.029748 -0.14023 -0.051451 -0.066906 0.0080668 
-0.073811 0.97252 0.21753 0.15489 0.0072447 -0.0067304 -0.025145 0.0018191 
-0.050464 0.66819 0.21819 0.21013 0.078107 0.065447 0.0227 0.042594 
0.077614 0.36337 0.23463 0.24203 0.11773 0.088136 0.054925 0.10491 
0.1368 -0.0406 0.19369 0.23167 0.12398 0.09833 0.082546 0.14798 
0.19813 -0.36976 0.072353 0.16936 0.088301 0.11378 0.10195 0.147 
0.24614 -0.68691 -0.044381 0.091589 0.038155 0.10507 0.090109 0.12217 
0.22476 -0.65436 -0.070523 0.021549 -0.020048 0.085341 0.077943 0.099316 
0.097672 -0.77947 0.025659 0.049828 -0.020377 0.059528 0.049828 0.0054362 
0.035031 -0.3714 0.20964 0.17906 0.056733 0.031249 0.024673 -0.022021 
0.0075736 0.64139 0.38753 0.33443 0.16673 0.03092 0.0080668 -0.016266 
-0.06148 1.2351 0.48569 0.45133 0.25304 0.0074092 -0.0088678 -0.076442 
0.0014903 1.4164 0.31519 0.38507 0.2098 -0.082032 -0.076771 -0.16539 
-0.13021 0.48405 -0.12198 0.084519 0.0037921 -0.077922 -0.10094 -0.18084 
-0.13201 -0.54683 -0.32273 -0.15339 -0.16473 -0.056219 -0.085485 -0.052602 
0.048348 -0.42007 -0.22704 -0.1718 -0.2009 -0.0062372 -0.036654 0.09981 
0.37389 0.078765 -0.070852 -0.062631 -0.13596 0.048348 0.0032988 0.22345 
0.45807 0.019905 -0.060987 -0.00015387 -0.081045 0.063639 0.027303 0.27754 
0.16755 -0.32388 -0.15717 -0.07266 -0.11672 0.069064 0.058706 0.16821 
-0.24529 -0.59632 -0.2836 -0.17608 -0.19104 0.044073 0.025988 0.017932 
-0.54305 -0.8579 -0.30333 -0.22787 -0.23806 0.043251 0.0227 -0.034352 
-0.86267 -0.66455 -0.28558 -0.24053 -0.25631 0.054596 0.031907 -0.08269 
-0.091732 -0.052931 -0.23017 -0.20781 -0.24184 0.057555 0.031578 -0.021692 
0.54882 0.6746 -0.086307 -0.099295 -0.1746 0.049499 0.033715 0.045882 
0.5069 0.91909 0.055254 0.013821 -0.091897 0.012506 0.011191 0.046046 
0.38589 0.68019 0.26653 0.18383 0.038155 0.0074092 -0.0080457 0.041772 
0.1904 0.39296 0.50789 0.40759 0.21753 0.051143 0.02122 0.066105 
-0.1552 0.34561 0.5771 0.55326 0.35202 0.074654 0.040128 0.06331 
-0.25615 0.054925 0.4607 0.54866 0.36978 0.071531 0.046046 0.10293 
0.23775 -0.42911 0.22427 0.37175 0.25683 0.061666 0.04506 0.14437 
0.49835 -0.73804 -0.048327 0.13549 0.088465 0.06183 0.020398 0.11263 
0.32982 -0.37255 -0.072989 0.036346 -0.0047575 0.020069 -0.0011404 0.054267 
0.099481 0.39493 -0.0055795 0.041772 -0.028926 -0.033859 -0.035832 -0.003771 
-0.36762 0.90659 0.031249 0.06035 -0.028104 -0.039449 -0.063782 -0.18841 
-0.57708 0.93306 0.049664 0.079916 -0.013471 0.0056006 -0.030735 -0.19942 
0.086492 0.8765 -0.047012 0.020398 -0.041586 0.040456 0.027796 0.01711 
0.61574 0.27754 -0.26108 -0.13793 -0.14287 0.095206 0.061995 0.20684 
0.37668 -0.75103 -0.32027 -0.23214 -0.22491 0.061172 0.044896 0.1881 
-0.36285 -1.4697 -0.41185 -0.31073 -0.30481 -0.03501 -0.020706 -0.067399 
-1.2224 -2.1337 -0.54864 -0.40806 -0.39392 -0.087458 -0.096336 -0.35315 
-1.2023 -1.3018 -0.21932 -0.26354 -0.31714 -0.086471 -0.10176 -0.2744 
-0.29347 0.414 0.37093 0.16821 -0.020212 -0.015116 -0.044874 -0.041422 
0.17363 1.2382 0.72836 0.54932 0.29234 0.0421 0.009711 0.13927 
-0.0055795 1.2575 0.67657 0.64994 0.4145 0.057391 0.029769 0.17133 
0.019905 1.2287 0.37603 0.49473 0.32851 0.037661 0.022206 0.097344 
0.21326 1.1011 0.10195 0.27409 0.18152 0.032729 0.011355 0.038155 
0.18448 0.54389 -0.15141 0.017932 0.0014903 0.041278 0.018754 0.044402 
0.17741 -0.28952 -0.25384 -0.13218 -0.12462 0.073997 0.032729 0.059035 
0.30681 -0.41711 0.011684 -0.022185 -0.078908 0.084519 0.051965 0.1391 
0.41253 -0.15783 0.22345 0.17034 0.051143 0.082382 0.067913 0.19517 
0.42732 -0.23198 0.13697 0.19846 0.093233 0.072024 0.048019 0.12381 
0.2491 -0.88519 -0.16835 -0.014787 -0.042079 -0.023172 -0.020541 0.01004 
0.012835 -0.90854 -0.35595 -0.20386 -0.1963 -0.039284 -0.040106 -0.064275 
-0.12412 -0.17657 -0.25565 -0.20682 -0.23296 -0.051615 -0.059836 -0.080552 
-0.057699 0.083368 -0.12494 -0.12823 -0.19416 -0.039613 -0.058192 -0.013143 
0.11658 0.022042 0.10145 0.050486 -0.065097 0.025495 -0.0075525 0.080738 
0.20109 0.37159 0.43225 0.32111 0.14568 0.095042 0.042923 0.11395 
0.089616 0.93388 0.5776 0.50706 0.31355 0.08863 0.062323 0.10343 
0.1008 1.0146 0.30779 0.39016 0.26044 0.059857 0.05476 0.048841 
-0.12873 0.46136 -0.10982 0.091918 0.049664 0.013328 0.00050378 -0.033859 
-0.69513 -0.18364 -0.49372 -0.24349 -0.20715 -0.069208 -0.064275 -0.1621 
-0.92186 -0.53187 -0.58958 -0.4056 -0.364 -0.048327 -0.071674 -0.19614 
-0.65485 -0.88996 -0.42779 -0.3857 -0.37485 -0.019061 -0.045696 -0.098473 
-0.22589 -0.94997 -0.1935 -0.23214 -0.27061 0.012013 -0.011334 0.021713 
0.20849 -0.57034 0.032729 -0.038627 -0.12922 0.051308 0.01711 0.079751 
0.57677 0.070215 0.21506 0.14519 0.015959 0.071037 0.039305 0.14108 
0.68167 0.44968 0.34923 0.30039 0.14798 0.077449 0.052459 0.183 
0.48733 0.62199 0.33328 0.34873 0.20536 0.073175 0.037661 0.13713 
0.47944 0.60785 0.25222 0.305 0.17725 0.016945 0.0075736 0.13006 
0.4265 0.37553 0.25271 0.27129 0.15028 -0.0013048 -0.011005 0.13927 
0.040621 0.43587 0.26011 0.28346 0.15226 0.017274 -0.015773 0.12365 
-0.037311 0.47023 0.31897 0.34709 0.19632 0.027961 -0.0034422 0.078436 
0.095535 0.05213 0.29941 0.37701 0.22822 0.037661 0.012835 0.08863 
0.0093821 -0.074469 0.18152 0.2805 0.17347 0.072188 0.034866 0.065283 
-0.34756 -0.10719 -0.0083746 0.12529 0.062488 0.050157 0.026646 0.0095465 
-0.49257 -0.83883 -0.38406 -0.16851 -0.15092 0.0024767 0.0088889 -0.072989 
-0.2351 -0.92613 -0.67359 -0.45805 -0.38587 -0.048985 -0.044052 -0.10275 
-0.098638 -0.18824 -0.49882 -0.45246 -0.42894 -0.050629 -0.059507 -0.039284 
-0.014622 0.84378 0.047526 -0.11179 -0.21471 -0.003771 -0.018404 0.044238 
0.43768 1.1866 0.32341 0.17544 0.004943 0.025824 -0.00031829 0.057391 
0.39658 0.73461 0.23562 0.22296 0.082711 0.015137 -0.0026201 0.020069 
0.26044 -0.054575 -0.19959 -0.027611 -0.066084 -0.0077169 -0.023501 -0.037311 
-0.070687 -0.49751 -0.46775 -0.25023 -0.23691 -0.045532 -0.043724 -0.043395 
-0.14237 -0.28952 -0.11623 -0.10801 -0.17608 -0.014129 -0.032215 0.079422 
0.30631 0.43669 0.39329 0.24285 0.06742 0.096028 0.029769 0.17149 
0.69302 0.63103 0.54767 0.46053 0.26077 0.10672 0.066927 0.23923 
0.51528 0.37241 0.40694 0.45314 0.28938 0.09422 0.071037 0.15587 
0.1299 -0.037805 0.19303 0.31289 0.19632 0.042429 0.022864 0.005765 
-0.14303 -0.35825 -0.047505 0.10836 0.047691 -0.020377 -0.026953 -0.079072 
-0.4592 -0.41776 -0.13316 -0.022514 -0.061316 -0.018404 -0.032543 -0.10258 
-0.53762 -0.35858 -0.099953 -0.061973 -0.10521 0.031742 -0.010841 -0.058192 
-0.34838 0.0034632 -0.039942 -0.027118 -0.088937 0.076299 0.038155 0.091096 
-0.31484 0.45478 -0.043395 -0.004593 -0.068057 0.098659 0.083533 0.15801 
-0.19745 0.22082 -0.18627 -0.070359 -0.10719 0.081067 0.060844 0.081067 
0.37257 -0.09798 -0.20025 -0.10784 -0.1455 0.017274 0.015465 0.038812 
1.1674 0.16245 0.0034632 -0.0096899 -0.096665 0.024344 0.014972 0.084355 
1.2537 0.41302 0.13713 0.1105 -0.010183 0.0052718 -0.010348 0.023686 
0.29694 0.042758 0.098166 0.1248 0.0080668 -0.064111 -0.068386 -0.14023 
-0.37715 -0.19038 0.24318 0.22082 0.0689 -0.084991 -0.087458 -0.20436 
-0.59402 -0.049971 0.32621 0.31157 0.13746 -0.065426 -0.090253 -0.10225 
-0.99157 -0.18528 0.27261 0.30072 0.14585 -0.02235 -0.055232 -0.081374 
-0.86513 -0.27884 0.1003 0.19139 0.088465 0.026152 -0.014293 -0.085813 
-0.36186 0.037661 -0.013143 0.081395 0.017438 0.045718 0.014643 0.0069159 
0.050321 0.22115 -0.094692 0.0059294 -0.03912 0.071202 0.042758 0.1373 
0.39164 0.23216 -0.23576 -0.091075 -0.1108 0.097179 0.061995 0.20783 
0.65241 0.071859 -0.22359 -0.12938 -0.14977 0.096028 0.057555 0.21326 
0.42009 -0.3081 -0.2282 -0.16227 -0.18216 0.074819 0.050979 0.049828 
0.26521 -0.26568 -0.12034 -0.10932 -0.15717 0.064954 0.037004 -0.047012 
0.24597 0.09685 0.024344 0.0014903 -0.086964 0.024179 0.011684 -0.084991 
-0.11015 0.37767 0.19912 0.15818 0.024837 0.0036276 -0.0077169 -0.065097 
-0.1741 0.38211 0.38573 0.32588 0.15604 0.021713 -0.00064712 -0.010019 
0.10754 0.22723 0.54965 0.51331 0.2999 0.034702 0.01152 0.082382 
0.28905 -0.022514 0.47369 0.49966 0.30582 0.025988 0.023028 0.1031 
0.24778 -0.21915 0.17577 0.30483 0.18366 0.02681 0.0070803 0.097015 
-0.025145 -0.47367 -0.28771 -0.036325 -0.057041 -0.017253 -0.02646 0.039141 
-0.4878 -0.56376 -0.41119 -0.2185 -0.20781 -0.010841 -0.025967 -0.03501 
-0.52135 0.40595 -0.001798 -0.036489 -0.1187 -0.015938 -0.043559 -0.082525 
-0.14796 0.97729 0.18185 0.12447 -0.0021268 -0.01117 -0.03353 -0.10012 
-0.085813 0.22805 -0.074469 0.035524 -0.038133 -0.023501 -0.052273 -0.14895 
-0.13136 -0.35562 -0.17509 -0.070194 -0.11294 -0.019226 -0.044874 -0.087786 
0.032893 -0.20452 0.098494 0.065776 -0.034352 0.03799 0.00017495 0.0098754 
0.24811 0.038812 0.35153 0.27195 0.11872 0.078272 0.036346 0.13861 
0.31766 0.19533 0.25485 0.27524 0.15324 0.087972 0.057391 0.21326 
0.16607 0.34084 -0.080717 0.066927 0.02533 0.065283 0.047855 0.13713 
-0.09946 0.36106 -0.30876 -0.1547 -0.14319 0.044238 0.022371 0.052623 
0.0092177 -0.040271 -0.3326 -0.23806 -0.22869 0.048348 0.024344 0.080573 
0.16936 -0.56311 -0.2037 -0.16457 -0.19909 0.051636 0.032729 0.058213 
0.06742 -0.78901 -0.0868 -0.075291 -0.14566 0.0064227 -0.011498 -0.0083746 
0.045224 -0.90837 -0.026624 -0.017582 -0.10637 -0.056548 -0.057699 -0.028104 
0.22822 -0.68033 0.13105 0.10458 -0.018075 -0.042737 -0.042737 -0.027282 
0.3119 0.41253 0.3803 0.30829 0.13845 0.0079024 -0.019226 0.021056 
0.28609 1.3413 0.45905 0.43094 0.24745 0.018425 -0.0060728 0.10129 
0.072353 1.082 0.24778 0.33476 0.20355 0.031578 0.023686 0.11 
-0.41661 0.44771 0.051801 0.17528 0.099645 0.054596 0.023357 0.073339 
-0.46824 0.1932 0.086657 0.14157 0.066269 0.057227 0.031414 0.085012 
-0.1695 0.26389 0.26192 0.23644 0.12579 0.10244 0.074326 0.13565 
0.23003 0.096357 0.27392 0.28379 0.16673 0.09126 0.065118 0.086492 
0.79512 -0.17673 0.030263 0.17001 0.091589 0.031249 0.024837 -0.0014692 
1.242 -0.57166 -0.17131 0.0013258 -0.034516 0.026646 0.01415 0.034044 
0.16442 -1.3651 -0.39179 -0.21948 -0.20436 -0.012649 -0.020212 -0.045861 
-1.1606 -1.1935 -0.44522 -0.33145 -0.31402 -0.06707 -0.071016 -0.18479 
-1.5331 -0.050464 -0.37387 -0.33095 -0.34608 -0.12264 -0.13086 -0.26404 
-0.99107 0.97778 -0.21833 -0.23477 -0.2984 -0.12807 -0.1404 -0.16868 
0.0042853 1.1251 0.025659 -0.043395 -0.15618 -0.026131 -0.069208 0.040621 
0.63892 0.61262 0.10244 0.069722 -0.044874 0.062652 0.0070803 0.15555 
0.83803 0.26735 0.18432 0.15653 0.041443 0.083533 0.046868 0.23085 
0.6746 0.16722 0.20405 0.20257 0.090274 0.085012 0.060515 0.18317 
0.037497 0.018096 0.1613 0.19451 0.093069 0.073175 0.034866 0.066927 
-0.12905 0.12036 0.097508 0.18037 0.082217 0.020727 0.010533 0.044402 
0.098166 0.37652 -0.0050863 0.11658 0.039141 -0.0057439 0.016616 0.056569 
0.054103 0.09126 -0.1108 0.004943 -0.038627 0.039799 0.011684 0.069064 
-0.10932 -0.55373 -0.25352 -0.13004 -0.14352 0.012999 -0.0049219 -0.10752 
0.017932 -0.52496 -0.20649 -0.14928 -0.17821 0.0062583 0.00066819 -0.12544 
0.25239 0.12924 0.13269 0.059857 -0.053095 0.021549 0.0070803 -0.031886 
0.25699 0.25929 0.27639 0.22164 0.074161 0.0060938 -0.0052507 0.048019 
0.11806 0.14552 0.2953 0.2828 0.14354 0.047526 0.031249 0.062323 
0.072681 0.23742 0.26932 0.29037 0.16722 0.047197 0.02681 0.091096 
0.049664 0.15768 0.17265 0.2246 0.12957 0.01711 0.0059294 0.036017 
-0.05326 0.018425 -0.029748 0.087314 0.031249 0.026974 0.0039565 0.012835 
0.088136 0.12809 -0.027775 0.068736 -0.0016336 0.015301 0.0014903 0.081395 
0.32308 0.25304 0.064461 0.11444 0.021549 0.033222 0.012342 0.15883 
0.047362 -0.13514 0.062652 0.10885 0.022864 0.060844 0.025988 0.11296 
-0.44341 -0.55982 -0.022843 0.044402 -0.02087 0.034702 0.01563 0.0041209 
-0.37091 -0.4028 -0.061645 0.0024767 -0.063946 -0.026131 -0.02942 -0.11886 
-0.37814 -0.048492 0.037826 0.046375 -0.049314 -0.017088 -0.048163 -0.18019 
-0.53877 0.13582 0.1784 0.15538 0.024015 -0.01117 -0.038791 -0.14977 
-0.22573 -0.018404 0.16311 0.18777 0.066927 0.011355 -0.0042642 -0.053917 
0.27064 0.2269 0.030263 0.10787 0.031249 0.041936 0.0072447 0.033551 
0.4778 0.56181 -0.12675 -0.022843 -0.051122 0.062652 0.034209 0.13993 
0.59174 0.85266 -0.16342 -0.079566 -0.10489 0.055418 0.053281 0.19698 
0.69729 0.75073 -0.1838 -0.088444 -0.12494 0.05476 0.037004 0.22033 
0.64205 0.041936 -0.13448 -0.082361 -0.12988 0.038483 0.022864 0.21013 
0.62265 -0.64498 -0.0060728 -0.006566 -0.083512 0.072517 0.050486 0.19813 
0.44837 -0.55275 0.22986 0.171 0.039141 0.064296 0.039305 0.08008 
-0.099131 -0.32931 0.37833 0.32012 0.15982 0.038648 0.020069 -0.089102 
-0.53302 0.018918 0.44804 0.42321 0.24449 0.016945 0.00033937 -0.16638 
-1.2083 0.6284 0.35893 0.40463 0.23825 -0.033201 -0.042573 -0.24793 
-1.5825 0.60127 0.059364 0.19862 0.091753 -0.10538 -0.10242 -0.29856 
-0.70368 0.16903 -0.14665 -0.0052507 -0.05737 -0.040271 -0.066741 -0.066741 
0.56905 -0.17509 -0.18019 -0.092554 -0.13481 -0.038298 -0.054246 0.15472 
1.1734 -0.78227 -0.30662 -0.19597 -0.21652 -0.013636 -0.040271 0.17659 
1.2101 -0.77849 -0.35216 -0.23855 -0.255 0.051472 -0.0014692 0.21375 
0.77144 -0.29709 -0.23921 -0.20419 -0.22984 0.11329 0.062981 0.18432 
-0.26453 0.031907 -0.035996 -0.069372 -0.13777 0.11099 0.079258 0.019411 
-0.79526 0.51594 0.17396 0.11 -0.010512 0.098823 0.069229 -0.035338 
-0.48682 0.91366 0.3632 0.29596 0.1345 0.050486 0.0421 -0.010183 
-0.33737 0.79791 0.41121 0.3951 0.23249 0.072024 0.06594 0.041772 
-0.20353 0.4681 0.30467 0.36189 0.22789 0.080902 0.060186 0.1419 
-0.051122 0.16163 0.12825 0.23298 0.14141 0.046704 0.03799 0.2103 
0.18613 -0.23954 -0.010512 0.09274 0.039799 0.0034632 0.047855 0.21095 
0.3683 -0.26881 -0.036325 0.036839 -0.018239 -0.00031829 -0.0031133 0.12562 
0.36649 0.058377 0.089123 0.1225 0.022042 -0.012814 -0.024816 -0.047669 
0.18925 -0.30596 -0.04323 0.063145 -0.015116 -0.085156 -0.078579 -0.16013 
0.14404 -0.71979 -0.28443 -0.12757 -0.14698 -0.062302 -0.080223 -0.15141 
0.11707 -1.1039 -0.39754 -0.26765 -0.2573 0.041443 -0.0070593 -0.063124 
-0.012814 -0.99173 -0.31813 -0.26124 -0.26782 0.10359 0.047033 0.022371 
-0.0031133 -0.14056 -0.031228 -0.085813 -0.15454 0.10376 0.070215 0.14075 
0.24153 0.87437 0.33262 0.20208 0.047526 0.059857 0.057884 0.18991 
0.366 1.4686 0.43423 0.3706 0.19073 0.01415 0.004943 0.13598 
0.25535 1.1825 0.42831 0.41565 0.23151 -0.049478 -0.054082 -0.060494 
0.041114 0.53995 0.43225 0.4362 0.24088 -0.088608 -0.091404 -0.21998 
-0.48912 0.048348 0.25156 0.33739 0.1738 -0.037476 -0.081374 -0.28262 
-0.96575 -0.37847 0.010533 0.17462 0.075805 -0.0031133 -0.041422 -0.20074 
-0.76386 -0.83274 -0.20978 -0.0064016 -0.040764 0.061995 0.035853 0.024508 
-0.14352 -0.93189 -0.39129 -0.21882 -0.19712 0.082053 0.062159 0.23956 
0.18218 -1.1691 -0.76583 -0.53548 -0.43437 0.030263 0.023028 0.19616 
0.29678 -0.69464 -0.86661 -0.71272 -0.58218 -0.008539 -0.010019 0.14272 
0.54241 0.40414 -0.42483 -0.49701 -0.46462 -0.018897 -0.036489 0.12644 
0.52992 1.0426 0.1179 -0.08384 -0.20173 -0.054575 -0.06444 0.076463 
0.43982 1.1323 0.56264 0.34298 0.11674 -0.0088678 -0.036983 0.050321 
0.56198 0.88834 0.71373 0.59157 0.35087 0.036675 0.0019835 0.091096 
0.17265 0.5947 0.60012 0.60588 0.39806 0.063474 0.028454 0.039963 
-0.60454 0.31799 0.26965 0.41844 0.28017 0.087479 0.057555 -0.06855 
-0.83587 -0.066084 -0.07825 0.14848 0.094877 0.078272 0.053609 -0.093705 
-0.68444 -0.49816 -0.16687 0.0064227 -0.02794 0.041936 0.030592 -0.043559 
-0.079237 -0.22885 -0.010183 0.026974 -0.0406 0.0024767 -0.0050863 0.055418 
0.58204 0.0087245 -0.0036066 0.034209 -0.045368 -0.043888 -0.037969 0.15357 
0.72014 -0.32767 -0.11261 -0.03353 -0.090581 -0.030242 -0.042737 0.14881 
0.38934 -0.57527 -0.023829 -0.00031829 -0.071016 0.040785 -0.0070593 0.10819 
-0.075291 -0.40182 0.046704 0.054925 -0.03057 0.052459 0.016123 -0.033037 
-0.26765 -0.2203 0.060022 0.079751 -0.0044286 0.044073 0.031907 -0.063124 
0.23907 -0.19301 -0.015116 0.035031 -0.027611 0.046868 0.025659 0.010369 
0.61508 0.1202 0.090767 0.091753 0.0052718 0.058542 0.038155 0.091589 
0.52383 0.46941 0.29892 0.24367 0.11214 0.077614 0.070215 0.17133 
0.25502 0.95246 0.30434 0.31832 0.17708 0.051965 0.037661 0.12595 
0.15094 1.1468 0.10787 0.23364 0.12513 0.0014903 -0.0040998 0.026317 
0.16146 0.83507 -0.11343 0.044073 -0.0068948 -0.0064016 -0.015116 -0.036654 
-0.089431 -0.13218 -0.26782 -0.12494 -0.14106 -0.018075 -0.034681 -0.093705 
-0.23954 -0.81811 -0.30185 -0.20682 -0.2208 -0.011827 -0.03353 -0.0868 
-0.57001 -0.75432 -0.20386 -0.17871 -0.22113 -0.012156 -0.0098543 -0.10817 
-1.0389 -0.61473 -0.072167 -0.085813 -0.16753 -0.059178 -0.056877 -0.17197 
-0.82814 -0.17295 0.10392 0.057884 -0.064768 -0.06 -0.079401 -0.13152 
-0.24694 0.14963 0.087972 0.099316 -0.01117 -0.0032777 -0.047669 -0.042408 
0.10441 0.1562 -0.033694 0.043087 -0.033694 0.016616 -0.018897 0.024179 
0.3563 0.31388 0.079094 0.088301 -0.0031133 0.041607 0.013986 0.14404 
0.51956 0.6769 0.38079 0.31338 0.15472 0.11411 0.057391 0.23446 
0.65734 0.93388 0.51446 0.49769 0.30368 0.081395 0.057555 0.26554 
0.76733 0.74957 0.41548 0.47319 0.31207 0.093726 0.086163 0.25584 
0.70387 0.25173 0.13697 0.28708 0.1955 0.1151 0.085012 0.23841 
0.55721 -0.28804 -0.19893 0.0069159 -0.0004827 0.071366 0.055254 0.14881 
0.25419 -0.59319 -0.36367 -0.19942 -0.1741 0.037332 0.041114 0.020398 
-0.15635 -0.32915 -0.15207 -0.13678 -0.17443 0.026974 0.012177 -0.028433 
-0.56376 -0.21718 0.0060938 -0.026131 -0.11212 -0.015938 -0.024652 -0.12083 
-0.83521 -0.34476 -0.0087034 0.00017495 -0.089759 -0.04882 -0.061151 -0.17443 
-1.12 -0.28031 -0.021528 1.0539e-005 -0.084498 -0.045368 -0.066413 -0.20189 
-0.90673 -0.089924 0.11543 0.08567 -0.02087 0.010697 -0.025309 -0.10406 
-0.0083746 0.16722 0.26636 0.24433 0.10606 0.10343 0.051472 0.088794 
0.52383 0.50246 0.22641 0.28576 0.16508 0.12497 0.089287 0.18415 
0.78936 0.47007 0.041278 0.15933 0.093726 0.098001 0.081724 0.21095 
0.81255 0.16903 -0.17016 -0.022021 -0.043066 0.053609 0.040292 0.1539 
0.54619 -0.075949 -0.29034 -0.16588 -0.17476 -0.022021 -0.023007 0.0090533 
0.12595 -0.17525 -0.12642 -0.11343 -0.17262 -0.045532 -0.05326 -0.026789 
-0.6777 -0.33638 0.039141 0.0032988 -0.096172 0.0069159 -0.033365 -0.080717 
-1.1185 -0.43733 0.3193 0.23019 0.072353 0.026646 -0.0095255 -0.11113 
-0.30235 0.35613 0.55836 0.4556 0.25732 0.042429 0.030592 0.033222 
0.53781 0.79298 0.40858 0.43768 0.27655 0.068571 0.035524 0.11099 
1.0093 0.47073 0.046046 0.20717 0.12349 0.010862 0.0013258 0.082875 
0.50805 -0.31386 -0.18709 -0.0026201 -0.039778 -0.04471 -0.031392 0.0016547 
-0.015116 -0.25072 -0.16588 -0.055068 -0.10669 -0.0503 -0.069536 -0.061151 
0.061995 0.14321 -0.12905 -0.073647 -0.13596 -0.070194 -0.080223 -0.046847 
-0.29626 0.022042 -0.25088 -0.15848 -0.19301 -0.042573 -0.053424 -0.032379 
-0.40757 -0.08532 -0.32553 -0.23461 -0.24529 0.037168 -0.0049219 0.064954 
-0.56935 0.089945 -0.21603 -0.19202 -0.21899 0.092411 0.049335 0.075312 
-0.83521 -0.014622 -0.094199 -0.10225 -0.15503 0.10556 0.067585 -0.034023 
-0.5345 -0.0055795 0.15472 0.082546 -0.027282 0.080902 0.057884 -0.018897 
-0.026789 0.24778 0.39477 0.29546 0.13631 0.090109 0.071037 0.10787 
0.70551 0.28034 0.45083 0.40841 0.24384 0.09422 0.064625 0.19731 
1.3573 -0.034352 0.2731 0.34281 0.21589 0.052459 0.036839 0.20684 
1.653 -0.00031829 0.045224 0.20175 0.11526 0.011026 0.0054362 0.19402 
1.3543 -0.047505 -0.12494 0.047197 -0.0052507 0.0032988 -0.014622 0.09685 
-0.15257 -0.40461 -0.23231 -0.10127 -0.12379 -0.033859 -0.053424 -0.10554 
-1.3227 -0.19137 -0.13612 -0.090088 -0.13711 -0.035174 -0.045861 -0.16934 
-1.2347 0.18613 0.13154 0.08008 -0.025967 0.043745 -0.00015387 -0.072989 
-0.95721 0.38869 0.33394 0.27458 0.12447 0.071037 0.026481 0.063803 
-0.23313 0.31141 0.26899 0.2953 0.16706 0.086657 0.071531 0.19977 
0.90445 0.28576 0.1202 0.20438 0.1174 0.10425 0.075641 0.22164 
1.2379 0.38227 0.037661 0.11642 0.048019 0.035195 0.028947 0.093398 
0.67773 0.53419 -0.19367 -0.07266 -0.1039 -0.095021 -0.063618 -0.16046 
-0.84951 0.012013 -0.5317 -0.33983 -0.32224 -0.17345 -0.16572 -0.44539 
-1.3184 -0.54864 -0.43569 -0.34575 -0.36663 -0.13481 -0.15668 -0.36778 
-0.6731 -0.63742 -0.10932 -0.15174 -0.23757 -0.010183 -0.056712 -0.088773 
-0.44456 -0.80052 0.022042 -0.011005 -0.11311 0.076956 0.021056 0.041607 
-0.2619 -0.72259 0.079422 0.074819 -0.024323 0.12135 0.075641 0.12151 
0.020398 -0.28689 0.20898 0.18942 0.073175 0.1562 0.1225 0.15061 
0.24515 0.25567 0.40924 0.35465 0.2006 0.10343 0.093562 0.16015 
0.46596 0.35514 0.44541 0.43949 0.27836 0.087314 0.072681 0.17643 
0.46892 0.20717 0.32506 0.38408 0.24614 0.042923 0.033551 0.082053 
0.34133 0.12283 0.18119 0.27606 0.16475 -0.018897 -0.02942 0.0080668 
0.25551 0.46086 0.10622 0.18695 0.089452 -0.033365 -0.042737 -0.004593 
0.18202 0.8058 0.026646 0.12201 0.036182 -0.010019 -0.036654 -0.0090322 
0.12332 0.69844 -0.19334 -0.022514 -0.067399 -0.033859 -0.048656 -0.010019 
0.070544 0.11181 -0.44719 -0.25795 -0.23625 -0.028104 -0.032379 0.01974 
-0.048985 -0.55784 -0.52611 -0.39623 -0.35447 0.031578 -0.0057439 0.037497 
-0.094856 -0.55604 -0.34756 -0.33391 -0.32816 0.066763 0.031085 0.09685 
-0.031392 -0.19975 -0.071016 -0.13793 -0.19301 0.14272 0.079587 0.13467 
0.016123 -0.014787 0.20471 0.10293 -0.015938 0.12858 0.096357 0.12135 
-0.034681 -0.017253 0.27392 0.2269 0.094548 0.093562 0.076627 0.059528 
-0.12593 0.00033937 0.22148 0.23479 0.11247 0.016452 0.030098 -0.018239 
-0.15881 0.12085 0.1904 0.21983 0.092247 -0.034023 -0.032708 -0.10308 
0.012177 0.053116 0.1493 0.18695 0.068571 -0.058356 -0.06296 -0.075291 
0.10211 -0.090253 -0.0027845 0.099481 0.010533 -0.06296 -0.072825 -0.041915 
0.038319 0.10343 -0.024158 0.076956 -0.0095255 -0.037805 -0.06444 -0.065097 
-0.072989 0.15308 0.026646 0.082217 -0.0070593 -0.017417 -0.042901 0.0065871 
-0.1427 0.11691 0.073997 0.10589 0.012999 0.039305 -0.0059084 0.044731 
-0.080059 0.10129 0.011026 0.069064 -0.0078813 0.031742 -0.0026201 0.04654 
0.03651 0.03536 -0.061151 0.014972 -0.04323 0.031907 0.0083956 0.050486 
0.099152 -0.10209 -0.12264 -0.046519 -0.085485 0.077449 0.033387 0.050321 
0.18974 -0.085978 -0.11886 -0.065591 -0.10719 0.065283 0.039799 0.09274 
0.53781 0.25617 0.024015 0.016123 -0.060329 0.049992 0.046211 0.22263 
0.68233 0.52959 0.15867 0.11444 0.010204 0.042923 0.02122 0.14437 
0.49835 0.49638 0.20553 0.19928 0.076463 0.014315 0.00297 0.061337 
0.13138 0.041607 0.14289 0.19977 0.084355 0.011191 0.0060938 -0.0067304 
-0.013307 -0.60372 -0.034188 0.11395 0.029276 0.0051074 -0.019555 -0.021528 
-0.10932 -0.71815 0.0052718 0.077778 -0.0027845 0.00033937 -0.019555 0.027139 
0.42453 0.078107 0.17182 0.16673 0.055747 0.055418 0.032893 0.16525 
0.94589 1.1955 0.27688 0.26702 0.13779 0.085835 0.058706 0.27129 
0.85957 1.3448 0.27672 0.29596 0.16656 0.038812 0.029605 0.14502 
0.38046 0.7573 0.20997 0.26291 0.13467 0.022206 -0.0011404 0.012013 
-0.5077 -0.09091 0.01711 0.13121 0.041936 0.0065871 -0.017417 -0.10423 
-0.98088 -1.4976 -0.37617 -0.17262 -0.15865 0.040456 0.0090533 -0.098967 
-0.78276 -1.7911 -0.50852 -0.36367 -0.31172 0.072353 0.038648 -0.039449 
-0.81186 -0.59418 -0.26765 -0.28558 -0.29018 0.02533 0.013164 -0.0050863 
-0.24924 0.72179 0.12184 -0.0013048 -0.11261 -0.02087 -0.020212 0.092904 
0.24499 1.4235 0.33689 0.25715 0.08008 -0.03764 -0.049807 0.048348 
0.37504 1.3658 0.28626 0.30352 0.14634 -0.049478 -0.070687 -0.045696 
0.99718 0.95131 0.13615 0.21786 0.10211 -0.011005 -0.035996 0.071037 
1.1927 0.10787 0.031085 0.1276 0.043087 0.042758 0.0021479 0.18843 
0.64566 -0.48123 0.022864 0.09126 0.01415 0.046211 0.014643 0.18366 
-0.038791 -0.61177 -0.011827 0.050486 -0.018404 0.024837 0.021384 0.033387 
-0.29265 -0.34345 0.064461 0.085341 0.00017495 0.037661 -0.0011404 -0.037805 
-0.4781 -0.16079 -0.008539 0.043416 -0.026624 0.0070803 -0.0088678 -0.061316 
-0.5488 -0.071509 -0.063618 -0.012814 -0.070523 -0.001798 -0.014787 -0.062302 
-0.46594 -0.020706 -0.04323 -0.013471 -0.079237 0.015959 -0.014787 -0.09798 
-0.013471 0.15883 0.06742 0.068078 -0.027611 0.0067515 -0.011827 -0.058521 
0.30418 0.33657 0.1345 0.1687 0.05065 0.026646 0.0042853 -0.019061 
0.20964 0.34199 0.17462 0.20651 0.093562 0.037332 0.016781 0.038319 
-0.10308 0.076463 0.13795 0.18974 0.089287 0.041114 0.022042 0.066598 
-0.14451 -0.24398 0.087972 0.15341 0.066105 0.069393 0.037826 0.079587 
-0.098638 -0.54206 0.018754 0.095371 0.022206 0.054267 0.038648 0.087314 
-0.074304 -0.58284 -0.025967 0.045224 -0.019061 0.0227 0.013492 0.057391 
-0.011663 -0.054082 0.056898 0.075476 -0.011663 0.00083261 -0.013307 -0.0013048 
-0.026296 0.32999 0.056733 0.082053 -0.0091966 -0.0049219 -0.026296 0.0074092 
-0.10982 0.3027 -0.03912 0.023851 -0.046354 -0.0022913 -0.022843 -0.003771 
-0.18167 0.01152 -0.067399 -0.013636 -0.072332 0.01711 -0.018239 0.027303 
0.036346 0.054267 0.08715 0.089616 -0.0091966 0.040456 0.0036276 0.098166 
0.32867 0.53551 0.34265 0.29957 0.1419 0.042758 0.034866 0.072024 
0.30681 0.28149 0.21934 0.28658 0.159 0.042594 0.01415 0.03651 
0.19172 -0.291 -0.060494 0.091589 0.029769 -0.0026201 -0.011498 -0.001798 
-0.53285 -0.38258 -0.13415 -0.021692 -0.067892 -0.064933 -0.046683 -0.12429 
-0.67557 0.15883 -0.02235 0.0088889 -0.071838 -0.057205 -0.076277 -0.19729 
-0.35299 0.15028 -0.045203 0.0013258 -0.079401 -0.052437 -0.070523 -0.14434 
-0.44358 -0.17838 -0.16227 -0.074798 -0.12642 -0.023007 -0.042901 -0.11787 
-0.075949 -0.12018 -0.15207 -0.12708 -0.16095 0.024179 0.010204 0.035031 
0.19961 0.00017495 -0.22261 -0.16588 -0.19005 0.063968 0.036017 0.12168 
0.20997 0.28839 -0.14895 -0.13744 -0.17706 0.040128 0.016452 0.14305 
0.32522 0.77769 0.041772 1.0539e-005 -0.087951 0.061008 0.031085 0.1659 
0.38918 0.90823 0.21178 0.17955 0.046375 0.074161 0.043416 0.1858 
0.40578 0.23348 0.25765 0.25748 0.12168 0.059035 0.033222 0.11674 
0.080244 -0.94323 0.095371 0.17807 0.082382 0.026974 0.0079024 0.0087245 
-0.23362 -1.0869 -0.024816 0.078765 0.016288 0.025659 0.0041209 -0.039449 
-0.11952 -0.61934 -0.035667 0.033387 -0.022514 0.052623 0.017767 -0.074469 
-0.22704 -0.41448 -0.090746 -0.018897 -0.071016 0.0019835 -0.011663 -0.10406 
-0.31895 -0.60651 -0.066906 -0.023994 -0.087786 -0.014787 -0.011663 -0.047998 
-0.34674 -0.38981 0.13351 0.099316 -0.0082102 0.051308 0.0065871 0.049828 
-0.15076 0.30598 0.34791 0.27343 0.11937 0.024015 0.0036276 0.058542 
0.11313 1.1233 0.53649 0.4482 0.25008 0.022371 0.030263 0.031907 
0.34577 1.2645 0.50739 0.51643 0.30664 0.035031 0.014643 0.066434 
0.51528 1.1363 0.23545 0.39987 0.23956 0.03799 0.015794 0.11674 
0.50854 1.4569 0.12792 0.26044 0.15061 0.040456 0.027468 0.12053 
0.2828 1.4809 0.049992 0.1567 0.072846 0.016781 1.0539e-005 0.065612 
-0.064111 0.16821 -0.14171 -0.0070593 -0.050136 -0.02087 -0.03205 -0.014787 
-0.26848 -1.3156 -0.43421 -0.25664 -0.23724 -0.021034 -0.045861 -0.090417 
-0.17443 -1.7119 -0.57971 -0.43207 -0.38373 0.011684 -0.020541 -0.01117 
-0.052766 -1.6717 -0.57445 -0.49455 -0.43782 0.041278 0.014315 0.06035 
-0.14369 -1.5537 -0.42615 -0.42845 -0.3954 0.069393 0.03092 0.041772 
-0.00097594 -0.63939 -0.12034 -0.21636 -0.25598 0.069064 0.04095 0.11576 
0.34676 0.4778 0.12513 0.019576 -0.086142 0.08304 0.057884 0.19188 
0.37257 1.0477 0.26126 0.21046 0.064461 0.05476 0.037004 0.19402 
0.19714 0.88653 0.28428 0.30944 0.15768 0.0087245 -0.0016336 0.13828 
-0.1113 0.29612 0.23364 0.28478 0.15522 -0.025474 -0.025145 -0.029748 
-0.27522 -0.025145 0.16607 0.23775 0.12118 -0.01117 -0.036325 -0.11491 
-0.11393 -0.059014 0.060844 0.15489 0.063639 -0.016595 -0.037476 -0.089266 
0.083862 -0.20123 -0.17706 -0.028433 -0.064111 -0.023172 -0.021692 -0.061151 
0.1927 0.091753 -0.28755 -0.1644 -0.17493 0.010204 -0.017088 0.0031344 
0.16048 0.56494 -0.18265 -0.15405 -0.19202 -0.012485 -0.027447 0.042758 
0.1368 0.77555 0.10737 0.032564 -0.073976 0.032729 0.013657 0.081889 
0.19895 0.61196 0.35301 0.24548 0.090109 0.0689 0.037004 0.13121 
0.19106 0.19122 0.38096 0.34807 0.19155 0.08304 0.055911 0.16804 
0.08304 -0.1986 0.26899 0.33985 0.20602 0.12497 0.073832 0.10096 
-0.098967 -0.53696 -0.014622 0.16722 0.094713 0.04506 0.035853 0.0060938 
-0.23921 -0.63561 -0.21208 -0.041422 -0.059507 0.015794 0.0062583 -0.054739 
-0.097158 -0.39425 -0.12708 -0.065262 -0.10702 0.016288 -0.008539 -0.058685 
0.21769 0.22953 -0.0771 -0.049478 -0.11048 -0.019061 -0.024487 0.017767 
0.37685 0.34676 -0.11064 -0.06296 -0.12198 -0.034188 -0.044052 0.088301 
0.24532 -0.16983 -0.12363 -0.074633 -0.1307 0.01267 -0.011005 0.16755 
0.094384 -0.51888 -0.0070593 -0.0064016 -0.086471 0.046704 0.0095465 0.13565 
0.16081 -0.096665 0.081724 0.066598 -0.029091 0.03536 0.020562 0.080573 
0.19155 0.2486 0.14387 0.1276 0.022535 0.047362 0.020233 0.0024767 
0.11905 0.39148 0.20438 0.19599 0.077449 0.040456 0.020398 0.041278 
-0.011827 0.19435 0.1105 0.18596 0.083697 0.03651 0.033715 0.082711 
-0.16999 0.0227 0.063145 0.1636 0.074819 0.060844 0.03388 0.090603 
-0.35808 -0.045368 0.051801 0.12135 0.043251 0.038812 0.023193 0.087643 
-0.17887 0.21621 0.10885 0.14223 0.052787 0.046375 0.03388 0.050321 
-0.0039354 0.96857 0.062488 0.11937 0.033222 0.0075736 -0.0039354 -0.025802 
-0.098309 0.54439 -0.13415 -0.02087 -0.072167 -0.07414 -0.071016 -0.21126 
-0.33063 -0.35167 -0.31468 -0.17904 -0.19877 -0.092883 -0.098473 -0.29067 
-0.013307 -0.49981 -0.2887 -0.22195 -0.24694 -0.049971 -0.07414 -0.094692 
0.13203 -0.54962 -0.14434 -0.15684 -0.20978 0.013986 -0.020706 0.053609 
0.076134 -0.19696 0.12677 0.037332 -0.070852 0.055254 0.012835 0.079916 
0.32736 0.54866 0.34923 0.26422 0.10524 0.072353 0.039634 0.15867 
0.57069 0.9329 0.56954 0.49687 0.29628 0.10524 0.074654 0.20914 
0.34462 0.92303 0.62544 0.62955 0.41861 0.14519 0.10458 0.20997 
0.048184 0.36731 0.42634 0.52449 0.35975 0.10392 0.086985 0.18695 
0.037004 -0.41283 0.12365 0.29809 0.20323 0.088136 0.0689 0.11083 
0.54521 -0.85675 -0.17197 0.029441 0.0018191 0.033715 0.019411 0.0324 
0.73363 -0.89045 -0.42023 -0.22211 -0.20337 -0.048327 -0.0406 -0.039942 
0.2121 -0.54798 -0.36417 -0.2836 -0.29002 -0.077428 -0.063946 -0.048985 
-0.33917 0.32802 0.018425 -0.065591 -0.16539 -0.02794 -0.048656 -0.015609 
-0.77898 1.1406 0.27146 0.16525 0.007738 -0.029913 -0.050958 -0.023336 
-0.92712 1.2195 0.2731 0.24417 0.10113 0.013657 -0.01528 -0.049314 
-0.59928 0.65405 0.15472 0.20224 0.099152 0.065118 0.020727 -0.018404 
-0.31846 -0.096172 0.0088889 0.11592 0.043745 0.021056 0.0051074 -0.062467 
-0.50211 -0.82403 -0.16243 -0.0078813 -0.051287 -0.014951 -0.023172 -0.15388 
-0.47416 -1.1275 -0.17443 -0.082196 -0.11903 -0.020541 -0.031557 -0.145 
-0.0067304 -0.70664 0.10803 0.069229 -0.034023 0.012177 -0.016266 -0.11508 
0.57201 0.086163 0.32917 0.26176 0.10984 0.051636 0.017767 1.0539e-005 
0.94737 0.58779 0.34594 0.33788 0.18563 0.036839 0.016616 0.097672 
0.96085 0.80843 0.28609 0.329 0.18547 0.013821 0.0041209 0.12497 
0.23151 0.65832 0.18777 0.26307 0.1345 0.015137 -0.025309 0.0083956 
-0.31912 0.21704 0.13417 0.21013 0.094055 0.0067515 -0.019719 0.021549 
-0.33358 0.13845 0.086163 0.15818 0.061995 0.028454 0.00017495 0.034702 
-0.34937 0.058213 -0.074962 0.025495 -0.02794 0.068736 0.025001 0.059364 
-0.14237 -0.3127 -0.31303 -0.16638 -0.16572 0.045224 0.024179 0.11428 
0.23183 -0.7336 -0.46594 -0.29182 -0.26733 0.058377 0.047197 0.16919 
0.3027 -1.2543 -0.38077 -0.31994 -0.30284 0.032564 0.019576 0.11526 
0.25354 -0.73295 -0.15306 -0.18364 -0.23181 0.0036276 -0.0096899 0.0074092 
0.084848 0.31618 -0.058192 -0.081374 -0.16062 -0.020048 -0.025145 -0.081045 
0.015959 1.2114 0.080902 0.048019 -0.066248 -0.034188 -0.046847 -0.068057 
-0.26864 0.96414 0.18103 0.14881 0.016781 -0.040106 -0.054739 -0.11163 
-0.52776 0.0062583 0.086492 0.1299 0.0227 -0.006566 -0.028433 -0.079072 
-0.17558 -0.60306 -0.038462 0.038483 -0.025309 0.03947 0.0014903 0.066105 
0.31667 -0.61457 -0.083347 -0.023501 -0.071838 0.044073 0.018918 0.14552 
0.45001 -0.19992 -0.10489 -0.057205 -0.10719 0.037826 0.018425 0.11329 
-0.029584 0.15374 0.03651 0.039634 -0.054246 0.01711 -0.0019624 0.044402 
-0.76862 0.42009 0.15259 0.16508 0.03651 -0.010348 -0.026624 -0.11935 
-0.73163 0.47632 0.22509 0.23035 0.092576 -0.034023 -0.048163 -0.1621 
-0.015609 0.40809 0.2514 0.26866 0.12414 -0.010512 -0.030899 -0.040764 
0.50443 0.35071 0.23463 0.2759 0.14009 0.040785 0.0082312 0.082546 
0.65602 0.40003 0.24285 0.28214 0.15719 0.11181 0.060022 0.18235 
0.6455 0.33246 0.14502 0.22197 0.12842 0.12168 0.088301 0.27475 
0.64731 0.030263 -0.05441 0.074983 0.03092 0.09833 0.096686 0.21885 
0.19665 -0.99699 -0.38044 -0.20025 -0.17295 0.030427 0.047691 0.089616 
-0.59846 -1.4537 -0.58727 -0.42631 -0.3663 -0.0091966 -0.012649 -0.10801 
-0.63052 -0.8824 -0.45591 -0.42368 -0.41069 -0.057699 -0.039613 -0.14122 
-0.29117 0.18629 -0.043724 -0.14615 -0.24529 -0.042408 -0.06 -0.080223 
0.0042853 1.0166 0.37586 0.25041 0.048019 0.018918 -0.015116 0.055418 
0.18004 1.0726 0.4949 0.42962 0.22608 0.063145 0.03536 0.11263 
0.24038 0.4727 0.31388 0.38112 0.21983 0.036017 0.011191 0.078436 
0.31782 0.31453 0.21441 0.30401 0.17577 0.0090533 -0.003771 0.074326 
0.23348 0.21128 0.098166 0.19944 0.10622 0.034209 -0.0031133 0.060844 
0.11905 0.04917 0.0067515 0.10622 0.035688 0.022206 -0.0021268 0.050814 
0.077449 -0.025802 -0.056712 0.030263 -0.026131 0.0042853 -0.0072237 0.017932 
0.18695 0.30023 -0.095185 -0.028269 -0.073647 0.054596 0.021384 0.091425 
0.38786 0.51364 -0.10225 -0.054739 -0.10012 0.057062 0.031742 0.13812 
0.62577 0.05476 -0.066906 -0.038956 -0.094034 0.071037 0.046046 0.14075 
0.8377 -0.54338 -0.093376 -0.026296 -0.082032 0.095371 0.059857 0.18251 
0.39247 -0.60306 -0.14402 -0.046847 -0.098144 0.02681 0.015794 0.084519 
0.20586 0.067913 -0.057863 -0.025474 -0.095021 -0.0088678 -0.010512 0.044238 
-0.29117 0.76108 0.11773 0.089287 -0.02794 -0.029091 -0.046683 -0.031228 
-0.85741 0.42173 0.086657 0.11346 -0.0026201 -0.041751 -0.063124 -0.12971 
-0.44654 -0.60141 0.041443 0.092576 0.0013258 0.01415 -0.00031829 0.0056006 
0.15522 -0.40642 0.25288 0.22493 0.09981 0.098001 0.049499 0.16114 
0.54406 0.66211 0.2657 0.27425 0.14864 0.048513 0.036346 0.078107 
0.49276 0.68841 -0.1233 0.033387 -0.019226 -0.052931 -0.036818 -0.1113 
-0.071509 -0.23033 -0.35808 -0.1935 -0.20436 -0.094692 -0.087293 -0.23247 
-0.46479 -0.73656 -0.17936 -0.16062 -0.21471 -0.084334 -0.095349 -0.16523 
-0.93632 -0.63413 0.13565 0.073997 -0.053917 0.025001 -0.01676 -0.04471 
-1.3863 -0.6435 0.25847 0.23874 0.095206 0.083368 0.034373 -0.030899 
-0.54962 -0.5613 0.27787 0.29086 0.16574 0.11214 0.073832 0.076792 
0.10113 -0.33342 0.090438 0.18942 0.11165 0.093069 0.069229 0.11757 
0.2565 0.35416 -0.076771 0.039963 -0.0054151 0.019247 0.0227 0.077121 
0.44327 0.99735 -0.070359 -0.0019624 -0.059014 -0.023501 -0.023336 0.069886 
0.73872 1.2788 0.04358 0.05624 -0.030406 0.032564 0.0041209 0.11872 
0.86417 1.0815 0.074819 0.086492 -0.0029489 0.050321 0.020398 0.17166 
0.68512 0.58993 0.1179 0.10918 0.018425 0.021878 0.013657 0.17593 
0.21095 -0.11343 0.099152 0.11428 0.021878 0.031085 0.004943 0.09274 
-0.28393 -0.87451 0.13039 0.14913 0.04358 0.0060938 -0.012485 -0.014458 
-0.45739 -1.2249 0.066763 0.15259 0.053938 -0.0062372 -0.0073881 -0.082032 
0.024508 -0.72555 0.032236 0.11707 0.030098 -0.00031829 -0.022185 -0.0965 
0.38984 -0.066248 0.014479 0.08008 -0.0011404 -0.017746 -0.032215 -0.1256 
0.41927 0.16048 -0.13432 -0.028104 -0.078744 -0.015938 -0.022514 -0.04882 
0.15703 0.12168 -0.30366 -0.17591 -0.18726 0.013821 -0.012156 0.03947 
-0.30613 -0.13349 -0.26026 -0.19992 -0.22261 0.031414 0.0026412 -0.023829 
-0.42286 0.029441 0.084848 0.010862 -0.089102 0.074326 0.040456 -0.010841 
-0.21619 0.58631 0.28971 0.20355 0.058377 0.041114 0.026974 0.01711 
0.01004 1.0531 0.27096 0.26126 0.12332 0.014479 0.013164 0.1151 
-0.11705 1.0779 0.15818 0.21408 0.098001 0.015301 -0.0039354 0.071366 
-0.2859 0.38277 0.036017 0.12973 0.038319 -0.010512 -0.02646 -0.0050863 
-0.49274 -0.7798 -0.061645 0.059035 -0.015773 -0.0050863 -0.030242 -0.068057 
-0.80249 -1.2946 -0.12445 -0.024652 -0.075455 0.0062583 -0.022843 -0.072825 
-0.67343 -1.0082 -0.15207 -0.074469 -0.1182 0.0059294 -0.022185 -0.081045 
-0.25187 -0.50984 -0.11771 -0.071674 -0.12314 0.01974 -0.00081153 -0.018404 
0.12875 -0.10423 -0.08269 -0.0503 -0.10834 0.072188 0.031907 0.078107 
0.2976 -0.032872 -0.097651 -0.051287 -0.10719 0.072353 0.048019 0.097179 
0.36369 0.20651 -0.1039 -0.060329 -0.11524 0.041278 0.04095 0.066105 
0.46908 0.57003 0.054103 0.039799 -0.050793 0.052623 0.03651 0.11099 
0.51232 0.64155 0.25913 0.19681 0.065776 0.06742 0.046046 0.11 
0.37964 0.60061 0.36008 0.317 0.16969 0.060844 0.062488 0.1054 
0.31684 0.40595 0.25929 0.30056 0.17281 0.0227 0.011684 0.075148 
0.34643 0.19813 0.14091 0.22756 0.11494 0.0064227 -0.0067304 0.040128 
0.27343 0.16508 0.16179 0.21802 0.10014 0.028454 0.01711 0.062488 
0.19665 0.4025 0.16081 0.21293 0.09274 0.033551 0.013821 0.031578 
-0.12675 0.43752 0.18004 0.22082 0.094384 0.0023123 -0.0057439 0.070051 
-0.2739 0.53501 0.26833 0.27787 0.13384 0.015465 -0.0016336 0.16903 
-0.42664 0.44886 0.29941 0.31618 0.16969 0.029441 0.00066819 0.1179 
-0.064604 0.29661 0.2486 0.29678 0.16426 0.023851 -0.0026201 0.031085 
0.31042 -0.14517 0.098988 0.1904 0.09833 0.045718 0.0087245 0.01004 
0.24614 -1.2397 -0.26239 -0.082196 -0.086471 0.016452 -0.0072237 -0.080388 
0.17725 -1.3995 -0.56508 -0.3714 -0.30942 -0.020048 -0.034023 -0.13432 
0.17922 -0.61407 -0.49455 -0.41793 -0.38669 0.0011614 -0.029255 -0.061973 
-0.047341 0.035524 -0.26272 -0.26354 -0.30268 0.0056006 -0.022185 0.00099702 
-0.066741 0.16969 0.0019835 -0.06 -0.16227 0.02122 0.01152 0.096521 
0.25798 0.33574 0.30122 0.18728 0.027632 0.066598 0.040785 0.27376 
0.26439 0.64057 0.39428 0.34281 0.16969 0.072024 0.04654 0.22263 
-0.13991 0.78739 0.26866 0.32358 0.18432 0.052787 0.039963 0.057555 
-0.1935 0.70716 0.020562 0.15472 0.075148 -0.0055795 -0.014951 -0.080059 
0.29234 0.49687 -0.032543 0.065118 -0.0021268 -0.024158 -0.039284 -0.07266 
0.87782 0.17708 0.053281 0.077285 -0.0073881 0.0075736 -0.0090322 0.0082312 
0.53764 -0.28607 -0.031886 0.027961 -0.043066 0.0093821 -0.01232 0.0034632 
-0.36071 -0.73031 -0.17312 -0.086471 -0.12314 0.0085601 -0.016266 -0.016266 
-0.95836 -0.88881 -0.21965 -0.13497 -0.16572 0.038812 0.0070803 -0.032379 
-0.79065 -0.35315 -0.010183 -0.0013048 -0.084991 0.034373 0.01004 -0.03353 
-0.11607 0.44738 0.23315 0.18399 0.051143 0.03947 0.013492 0.018754 
0.36386 0.81534 0.29826 0.28231 0.14042 0.060022 0.025824 0.039141 
0.48684 0.72754 0.22427 0.27031 0.14437 0.033058 0.016616 0.01711 
0.38688 0.24005 0.056898 0.16015 0.074161 0.00033937 -0.0057439 0.06035 
0.31322 -0.43651 -0.080388 0.035688 -0.017088 0.026974 -0.00064712 0.15916 
0.3706 -0.80085 -0.063946 0.00017495 -0.05441 0.02829 0.0060938 0.26225 
0.42009 -0.5294 0.082875 0.069558 -0.015773 0.053609 0.03651 0.21621 
0.31651 -0.057205 0.079094 0.090603 -0.001798 0.047362 0.0092177 0.074654 
-0.010676 0.41285 -0.00031829 0.051636 -0.030899 -0.02087 -0.029748 -0.047176 
-0.56524 0.59568 -0.082854 -0.0055795 -0.078415 -0.046025 -0.040271 -0.15454 
-0.51263 0.32752 -0.028597 0.032893 -0.054739 0.015137 -0.019719 -0.10423 
0.11231 0.22838 0.098823 0.12069 0.012835 0.024015 -0.0022913 -0.0096899 
0.30631 0.52581 0.22164 0.21079 0.082382 0.031249 0.014643 0.055254 
0.33772 0.87223 0.34725 0.32687 0.171 0.04095 0.021384 0.10672 
0.47484 0.52729 0.26833 0.31305 0.17182 0.029276 0.012999 0.07449 
0.18004 -0.16736 0.19172 0.26061 0.13746 0.027961 0.010533 -0.0138 
-0.37913 -0.87746 1.0539e-005 0.12118 0.039799 0.0024767 -0.015938 -0.14007 
-0.39195 -1.5308 -0.44374 -0.21471 -0.1963 -0.051451 -0.06 -0.16013 
-0.24431 -1.5488 -0.64794 -0.46643 -0.39639 -0.038627 -0.054575 -0.070523 
-0.56311 -0.48517 -0.41135 -0.39097 -0.37567 -0.0067304 -0.035667 -0.047012 
-0.77536 0.54734 -0.10193 -0.17608 -0.22951 0.04358 0.0056006 -0.0073881 
-0.46873 0.77851 -0.041257 -0.045532 -0.1256 0.064625 0.028454 0.033058 
-0.36581 0.51939 0.0059294 0.025659 -0.063618 0.041443 0.023522 0.054103 
-0.17427 0.36715 0.23677 0.18366 0.047526 0.022042 0.017767 0.022371 
0.10145 0.3101 0.38096 0.33311 0.15785 -0.00064712 -0.014787 0.016123 
0.44015 0.39921 0.64945 0.56165 0.32391 0.044238 0.013821 0.13335 
0.63514 0.56543 0.74842 0.7037 0.44064 0.066763 0.053281 0.19599 
0.7402 0.62709 0.5679 0.63942 0.39806 0.066763 0.038319 0.14782 
0.57941 0.29086 0.11115 0.32292 0.18794 0.012506 0.0016547 0.043251 
0.26307 -0.052273 -0.47613 -0.16079 -0.14418 -0.028433 -0.028762 -0.03057 
0.054103 -0.44752 -0.76698 -0.51888 -0.41875 -0.021363 -0.039449 -0.019226 
-0.18331 -0.60503 -0.56689 -0.5128 -0.45426 0.0011614 -0.023501 0.020891 
-0.51576 -0.51707 -0.3982 -0.38784 -0.37896 0.019905 -0.01232 -0.021692 
-0.57215 -0.64564 -0.2859 -0.29084 -0.31451 0.017603 -0.0044286 -0.0965 
-0.27867 -0.41842 -0.059014 -0.11903 -0.19318 0.055089 0.02681 -0.049807 
0.17149 0.12957 0.11477 0.059693 -0.052766 0.090438 0.055254 0.10211 
0.32259 0.73757 0.21819 0.18728 0.057555 0.072353 0.059528 0.18333 
0.27113 1.1956 0.38704 0.3364 0.17774 0.046375 0.037826 0.17429 
-0.13053 0.90955 0.44541 0.43456 0.25913 0.055582 0.021384 0.079587 
-0.47564 -0.46561 0.22526 0.31749 0.18695 0.043251 0.017603 -0.034352 
-0.40182 -1.4768 -0.17312 0.019083 -0.010841 -0.0044286 -0.010512 -0.089924 
0.020891 -1.2502 -0.3936 -0.22145 -0.20205 -0.020541 -0.039449 -0.11491 
0.60637 -0.18561 -0.21718 -0.18084 -0.21767 -0.038791 -0.052273 -0.01939 
0.36205 0.68068 0.038483 0.013164 -0.098144 -0.022185 -0.025638 0.028947 
-0.22918 0.83096 0.18448 0.14798 0.01267 0.0098754 -0.021692 -0.023994 
-0.38833 0.67197 0.19895 0.20569 0.070544 -0.0042642 -0.025309 -0.035503 
-0.25812 0.49999 0.18399 0.22246 0.097344 0.021384 0.01826 0.010697 
-0.020541 0.33525 0.15193 0.20306 0.093069 0.039141 0.014972 0.091096 
0.35876 0.17643 0.17265 0.21095 0.1008 0.042758 0.02122 0.14585 
0.68447 -0.097322 0.071695 0.15028 0.056898 0.040456 0.02122 0.16426 
0.91087 -0.29281 -0.10275 0.012177 -0.03616 0.033387 0.01563 0.17889 
0.7961 -0.098638 -0.17904 -0.092061 -0.11837 0.0227 0.009711 0.1664 
-0.054739 0.033058 -0.11837 -0.087293 -0.13218 0.038155 0.0093821 0.066763 
-0.40987 0.19632 0.018754 0.021056 -0.065591 0.051308 0.016123 0.0028056 
-0.25582 -0.042573 0.10754 0.1322 0.025166 0.069393 0.037168 -0.047341 
-0.17377 -0.62821 -0.061809 0.037168 -0.018404 0.054103 0.02681 -0.121 
0.012835 -0.63331 -0.15865 -0.06296 -0.095514 0.015465 0.0016547 -0.11294 
-0.038298 -0.08532 -0.13777 -0.083018 -0.13168 -0.026624 -0.030077 -0.038133 
-0.17295 0.34298 -0.06707 -0.049149 -0.12231 -0.037476 -0.054082 0.0052718 
-0.53516 0.37224 -0.0073881 0.00297 -0.088773 -0.030406 -0.050464 -0.030406 
-1.0121 -0.03764 0.069886 0.068407 -0.034188 0.0056006 -0.012156 -0.0138 
-0.55258 -0.11409 0.24022 0.2024 0.075641 0.099316 0.031085 0.073668 
0.33706 0.095699 0.29793 0.28001 0.15374 0.10277 0.068078 0.14486 
0.87897 0.43817 0.25091 0.2902 0.17363 0.080738 0.071859 0.11165 
0.89327 0.73248 0.12546 0.23101 0.12414 0.0051074 0.0041209 0.057062 
0.59502 0.41844 0.042923 0.1641 0.060515 -0.034023 -0.039613 0.02681 
0.4339 0.021878 0.070708 0.13549 0.031414 -0.0098543 -0.023336 0.091096 
0.18415 -0.28114 0.13615 0.16673 0.054103 0.037332 1.0539e-005 0.055254 
-0.087786 -0.36992 0.093891 0.14617 0.052459 0.038319 0.012835 0.059035 
-0.13497 -0.25368 0.067091 0.12316 0.040128 0.083533 0.043745 0.050814 
-0.14254 0.18333 0.08008 0.12184 0.039799 0.075148 0.04917 0.042758 
0.0083956 0.6848 -0.044381 0.037497 -0.015116 0.065776 0.047691 0.072353 
0.22065 0.16064 -0.19482 -0.093376 -0.11508 0.04654 0.024015 0.036017 
0.07301 -1.1479 -0.20732 -0.15207 -0.17591 -0.0016336 -0.014622 -0.03353 
0.048677 -1.3485 -0.1256 -0.12445 -0.17821 -0.067399 -0.072003 -0.061645 
0.021384 -0.54979 0.0024767 -0.0031133 -0.10587 -0.072167 -0.09239 -0.10719 
-0.073318 0.53337 0.19205 0.17939 0.025824 -0.074962 -0.093541 -0.047998 
-0.0062372 1.2482 0.30993 0.28708 0.12365 -0.01117 -0.03616 0.030756 
-0.015444 1.3166 0.27623 0.30105 0.15801 0.048184 0.0036276 0.052623 
-0.09239 0.93964 0.23759 0.28576 0.16064 0.047855 0.018096 0.037004 
-0.20238 0.32835 0.060515 0.17051 0.08978 0.074819 0.057555 0.032071 
-0.0771 -0.058521 -0.11557 0.018096 -0.02087 0.062817 0.041443 -0.0040998 
-0.072332 -0.15257 -0.08384 -0.019226 -0.06855 0.025166 0.020398 0.031907 
-0.24924 -0.14073 0.14223 0.1031 0.00017495 0.037332 0.031085 0.029934 
-0.35907 0.0039565 0.38162 0.28741 0.1373 0.093398 0.053938 0.047526 
-0.279 0.2537 0.50493 0.44705 0.27212 0.11559 0.08304 0.071202 
0.12562 0.078107 0.38408 0.44327 0.2879 0.10244 0.085341 0.10885 
0.43489 -0.43667 0.1031 0.27179 0.1659 0.026646 0.029276 0.088958 
0.28741 -0.91742 -0.25993 -0.034845 -0.06296 -0.036818 -0.03764 0.00066819 
0.18284 -0.98154 -0.53433 -0.31994 -0.28064 -0.027447 -0.050629 -0.041586 
0.11691 -0.52578 -0.61654 -0.47284 -0.42007 -0.0068948 -0.036818 0.015959 
-0.12757 0.054267 -0.65978 -0.55982 -0.49422 -0.0036066 -0.027282 0.056898 
-0.1695 0.44294 -0.49504 -0.48682 -0.45081 0.020233 -0.014787 0.091753 
0.072681 0.42634 -0.15141 -0.25023 -0.29462 0.028619 -0.0024557 0.14338 
0.58763 0.31749 0.15259 0.023522 -0.098802 0.051143 0.031249 0.15851 
0.76339 0.28379 0.33065 0.22937 0.068407 0.04506 0.013492 0.059693 
0.49391 0.16673 0.38638 0.34594 0.17593 0.024179 -0.0011404 -0.066248 
0.052952 -0.030242 0.32522 0.37389 0.21145 0.01004 0.01267 -0.034352 
-0.4587 0.24893 0.29102 0.37405 0.21934 0.022042 0.00033937 -0.064604 
-0.37255 0.58713 0.19385 0.28839 0.16311 -0.014129 -0.013143 -0.038133 
-0.03616 0.49473 0.084026 0.18728 0.089616 0.0019835 -0.0088678 -0.018733 
-0.037311 0.25189 0.08567 0.15209 0.054103 -0.0077169 -0.025638 -0.015116 
-0.09387 0.028125 0.1567 0.18021 0.072353 0.036839 0.0092177 0.049664 
-0.12363 -0.19663 0.16558 0.19977 0.095535 0.11855 0.057391 0.072517 
-0.12577 -0.14665 0.045718 0.12661 0.054925 0.08978 0.062159 0.086492 
0.016945 0.039799 1.0539e-005 0.055089 -0.00097594 0.068242 0.050814 0.04358 
-0.1187 0.19714 -0.084334 -0.019061 -0.069208 0.00297 -0.003771 -0.085813 
-0.58547 -0.22392 -0.16605 -0.098967 -0.14221 -0.048492 -0.052109 -0.19663 
-0.26864 -0.43651 -0.1353 -0.077922 -0.14089 -0.025145 -0.043066 -0.038462 
0.44343 -0.083347 -0.036325 0.0065871 -0.079566 0.021056 -0.0047575 0.10819 
0.74415 0.53436 0.039799 0.057227 -0.033201 0.030263 0.0023123 0.14206 
0.56362 0.70502 -0.069701 -0.0011404 -0.063618 0.025166 0.007738 0.10819 
0.088465 0.23183 -0.18315 -0.089266 -0.12445 0.051308 0.012506 0.066434 
-0.36121 -0.16786 -0.13777 -0.092554 -0.13678 0.048841 0.019411 0.049335 
-0.1478 -0.60668 -0.11311 -0.080881 -0.1307 0.038812 0.039963 0.046211 
0.11674 -0.70483 -0.065097 -0.056055 -0.11393 0.039963 0.018918 0.024673 
0.23348 -0.16177 0.099974 0.06035 -0.037969 0.035853 0.017932 0.060186 
0.39921 0.25304 0.20388 0.16344 0.044731 0.036675 0.027796 0.073832 
0.22098 0.28067 0.17659 0.18925 0.074983 0.013986 0.017274 0.039634 
-0.009361 0.080738 0.11937 0.18251 0.074326 -0.006566 -0.011334 0.03799 
0.080244 -0.1376 0.10211 0.18613 0.077449 0.01152 -0.008539 0.05213 
0.028619 0.30862 0.17149 0.20734 0.094055 0.040292 0.010369 0.035688 
-0.045039 0.9227 0.25321 0.26866 0.14157 0.052952 0.030427 0.034044 
-0.14484 0.90511 0.19681 0.25107 0.13565 0.043909 0.020233 -0.029091 
-0.16983 0.35153 0.094384 0.17971 0.086328 0.02122 0.0046141 -0.030242 
0.66063 -0.21126 -0.049642 0.06035 -0.00064712 0.016288 1.0539e-005 0.073832 
0.87404 -0.70335 -0.19449 -0.077428 -0.10916 0.01415 -0.012814 0.052787 
-0.0040998 -1.0827 -0.22918 -0.15585 -0.18463 -0.027611 -0.041915 -0.06707 
-0.67376 -0.58366 -0.0027845 -0.034188 -0.11574 0.016616 -0.017253 -0.071509 
-0.91051 -0.081539 0.22279 0.15308 0.020727 0.041443 0.005765 -0.045532 
-1.1229 -0.11771 0.21457 0.23003 0.09981 0.0069159 -0.006566 0.0054362 
-0.62213 0.44327 0.17133 0.24367 0.12447 0.013986 0.0080668 0.059364 
-0.10719 1.1922 0.23348 0.26324 0.13878 -0.0036066 -0.021199 0.0062583 
-0.054246 1.1716 0.28428 0.30533 0.16442 -0.0026201 -0.022679 -0.01528 
0.2685 0.85102 0.26587 0.31026 0.17741 0.035688 0.01004 0.043745 
0.66605 0.21326 0.021713 0.15028 0.073339 0.040456 0.0080668 0.0421 
0.47944 -1.0545 -0.50655 -0.24398 -0.20847 -0.064604 -0.058685 -0.08384 
-0.011334 -2.1222 -0.91824 -0.65041 -0.5271 -0.10193 -0.10028 -0.21307 
-0.095843 -1.9054 -0.68346 -0.64663 -0.57379 -0.075127 -0.095021 -0.078579 
0.10655 -0.57988 0.031249 -0.19433 -0.27308 0.013986 -0.023007 0.097508 
0.074819 0.65224 0.48437 0.25765 0.057227 0.078765 0.033387 0.16327 
0.12562 1.2568 0.6483 0.55968 0.32078 0.093891 0.055418 0.20175 
0.16985 1.2581 0.72689 0.69334 0.45001 0.10622 0.075312 0.22559 
0.06479 0.93339 0.61985 0.67888 0.4436 0.11839 0.057062 0.083368 
0.026646 0.54192 0.31355 0.47106 0.29842 0.040292 0.022535 0.01004 
0.014479 0.023522 -0.0062372 0.19517 0.10852 0.025659 0.012999 -0.043888 
0.0072447 -0.32224 -0.13645 0.016781 -0.022021 0.03536 0.0046141 -0.045696 
-0.08828 -0.5419 -0.22655 -0.10883 -0.1279 -0.013636 -0.025309 -0.051287 
-0.12511 -0.49537 -0.31517 -0.21767 -0.22145 -0.0138 -0.013471 -0.025638 
-0.06855 -0.18939 -0.4033 -0.31731 -0.30366 0.031578 -0.010676 0.0024767 
0.0019835 -0.22984 -0.55061 -0.44769 -0.40461 -0.0016336 -0.01939 0.02681 
0.0080668 -0.1741 -0.49783 -0.46133 -0.43042 -0.02235 -0.022679 0.030263 
0.054103 0.2223 -0.21471 -0.25121 -0.30054 0.0064227 -0.022514 0.047033 
0.032729 0.30681 0.1664 0.041278 -0.089759 0.060186 0.022371 0.098823 
0.017438 0.2292 0.41976 0.30286 0.12316 0.086492 0.055254 0.09422 
0.18662 0.17478 0.41384 0.39428 0.22624 0.053938 0.046704 0.086821 
0.28247 0.069229 0.3193 0.36928 0.22197 -0.0011404 -0.004593 -0.0060728 
0.24515 -0.13908 0.15653 0.25995 0.1419 -0.029748 -0.034845 -0.11804 
-0.10817 -0.36482 0.026974 0.13845 0.049664 -0.038956 -0.053095 -0.13596 
-0.54831 -0.24464 0.034866 0.094384 0.011355 -0.0022913 -0.026953 -0.029584 
-0.5026 0.022864 0.18629 0.17314 0.062488 0.088301 0.035524 0.10902 
-0.27472 0.35745 0.28231 0.26242 0.13417 0.095206 0.062652 0.20569 
0.072353 0.60588 0.11083 0.19764 0.1031 0.079916 0.058213 0.12628 
0.4607 0.66885 -0.16276 0.026974 -0.018897 0.022864 0.0074092 0.082546 
0.6991 0.59239 -0.23477 -0.10867 -0.13366 0.011191 -0.0022913 0.11 
0.55343 0.38573 -0.26782 -0.17838 -0.20288 -0.012485 -0.01117 0.035853 
0.13203 -0.12774 -0.24069 -0.18759 -0.22557 -0.023007 -0.042244 -0.068057 
-0.1233 -0.5294 -0.1935 -0.1644 -0.21159 -0.0054151 -0.031721 -0.10784 
-0.15454 -0.57346 -0.12297 -0.12116 -0.17706 0.026646 0.009711 -0.095843 
0.029276 -0.28311 -0.0047575 -0.026131 -0.10801 0.0013258 -0.013636 -0.038133 
0.19599 -0.031228 0.11609 0.094713 -0.016266 -0.032543 -0.03205 0.05476 
0.29727 0.025495 0.12694 0.13253 0.029441 0.007738 -0.0068948 0.10014 
0.2417 -0.21636 0.06742 0.10228 0.023522 0.077449 0.040621 0.15078 
0.12233 -0.40395 0.0018191 0.075476 0.0062583 0.11526 0.077285 0.17577 
0.24367 0.054267 0.10721 0.15374 0.053774 0.12398 0.090931 0.16722 
0.31503 0.61114 0.16574 0.18958 0.077449 0.040456 0.039141 0.083204 
0.21293 0.63728 0.069064 0.14289 0.047033 0.024508 0.015301 -0.013471 
0.063639 0.64797 -0.026296 0.065283 -0.012978 -0.01528 -0.022843 0.00033937 
-0.05326 0.37109 -0.093212 -0.0075525 -0.068386 -0.014129 -0.036489 0.061172 
0.49769 0.09126 -0.064275 -0.015116 -0.080388 0.029605 0.00050378 0.14058 
0.7162 0.10524 -0.0034422 0.020398 -0.050793 0.13467 0.058213 0.1927 
0.16853 -0.033859 0.03388 0.044567 -0.029748 0.076627 0.048677 0.12184 
-0.71141 -0.26354 0.088301 0.084026 -0.0052507 0.024179 0.025824 -0.034845 
-1.2985 -0.35529 0.1932 0.16804 0.051636 0.016945 -0.0049219 -0.15618 
-1.0218 0.064132 0.31733 0.29185 0.14338 -0.001798 -0.014951 -0.08121 
-0.571 0.23923 0.28609 0.34248 0.18876 0.0011614 -0.0042642 -0.068714 
0.3415 0.35054 0.23742 0.30648 0.17281 0.030592 0.0032988 0.014643 
1.4549 0.58927 0.20306 0.2708 0.14946 0.0026412 -0.0067304 0.11477 
1.3438 0.31815 0.061008 0.1641 0.071366 0.010862 -0.011334 0.051472 
0.33525 0.054596 -0.092554 0.031907 -0.029748 -0.037805 -0.053917 -0.044217 
-0.53516 0.28921 -0.075949 -0.009361 -0.075127 -0.056548 -0.069536 -0.061151 
-0.4781 -0.072003 -0.0868 -0.024816 -0.09239 -0.017911 -0.048985 -0.0022913 
-0.23099 -0.57429 -0.12429 -0.06855 -0.12116 0.028125 -0.0098543 0.048184 
-0.32553 -1.0152 -0.25582 -0.17082 -0.18939 0.05476 0.020069 0.045553 
-0.55209 -1.0171 -0.28821 -0.22672 -0.23757 0.046375 0.019411 -0.024323 
-0.46791 -0.38274 -0.17657 -0.1501 -0.19761 0.020727 -0.0014692 -0.045039 
-0.054739 0.2565 0.089945 0.057884 -0.058521 0.02122 0.0011614 -0.010676 
0.13664 0.37471 0.26817 0.22296 0.076627 0.049006 0.020069 0.034373 
0.2006 0.4847 0.38918 0.35646 0.1927 0.050979 0.028125 0.08863 
0.27212 0.51216 0.3586 0.38342 0.23381 0.071037 0.04917 0.10359 
0.19336 0.23101 0.10441 0.23249 0.13598 0.077943 0.047362 0.10622 
0.16212 0.010697 -0.086142 0.059528 0.013657 0.068407 0.039141 0.077285 
0.16031 0.03651 -0.109 -0.016431 -0.054082 0.057391 0.051308 0.046046 
0.20619 0.244 0.086163 0.068736 -0.01528 0.047691 0.028619 0.0039565 
0.18087 0.23397 0.2953 0.22674 0.088794 0.012177 0.00083261 -0.03501 
-0.018568 0.20914 0.32308 0.30286 0.15308 -0.006566 -0.013471 -0.072332 
-0.055232 0.62281 0.38507 0.38655 0.21013 -0.02498 -0.03616 0.0051074 
0.092411 1.0424 0.41154 0.45281 0.24778 -0.050958 -0.058028 0.031249 
-0.14122 0.57776 0.047362 0.22131 0.081231 -0.058685 -0.086964 -0.096007 
-0.61194 -0.43388 -0.41185 -0.14714 -0.16407 -0.063453 -0.087458 -0.15174 
-0.6144 -1.5611 -0.68724 -0.45394 -0.38077 -0.013471 -0.047669 -0.080717 
-0.18495 -1.3681 -0.53795 -0.46955 -0.41645 0.040456 -0.0042642 0.060515 
0.20175 -0.49619 -0.23362 -0.28459 -0.29725 0.057555 0.016616 0.084684 
0.58105 0.087479 -0.12692 -0.1621 -0.21027 0.040785 0.017438 0.084848 
0.66868 0.39921 0.064625 -0.0078813 -0.099953 0.039799 0.01563 0.070708 
0.079258 0.15078 0.26094 0.17248 0.034537 0.01974 -0.0044286 -0.05178 
-0.81828 -0.079895 0.38046 0.32588 0.15752 -0.054739 -0.056712 -0.14023 
-0.8648 0.18333 0.33805 0.36764 0.20175 0.027961 -0.016595 -0.055726 
-0.34476 0.31914 0.084355 0.24153 0.12513 0.048348 0.021713 0.076299 
0.15999 0.51315 -0.15569 0.021878 -0.027282 0.024179 0.020891 0.10655 
0.60144 0.72952 -0.071345 0.0037921 -0.056877 0.040621 0.0090533 0.17495 
0.74333 0.50986 0.05772 0.068242 -0.017088 0.074326 0.0421 0.15703 
0.6238 0.045882 0.056733 0.081889 -0.0016336 0.061666 0.053774 0.093398 
0.52926 -0.32536 -0.031557 0.034537 -0.034845 0.037332 0.018096 0.053445 
0.28757 -0.28311 0.0093821 0.050321 -0.032872 0.038812 0.013821 0.033222 
-0.015773 -0.017582 0.11872 0.11066 0.0064227 0.032564 0.018918 0.0023123 
-0.15931 0.025988 0.17495 0.1738 0.054432 0.042594 0.017274 0.0021479 
-0.43371 -0.094527 0.066434 0.1197 0.02533 0.013328 -0.001798 -0.064933 
-0.4661 -0.16818 -0.12494 0.007738 -0.053095 0.0079024 -0.010841 -0.021692 
0.15275 -0.14385 -0.21356 -0.07003 -0.11409 0.0067515 -0.01528 0.12908 
0.40628 -0.051122 -0.14451 -0.085649 -0.13251 0.01711 -0.0034422 0.17281 
-0.18923 -0.093376 -0.11163 -0.073811 -0.12988 0.016123 0.016288 0.073339 
-0.22474 0.24449 -0.0050863 -0.0011404 -0.082032 0.016123 -0.0042642 0.025824 
-0.36499 0.21079 0.11296 0.091096 -0.016102 0.0042853 -0.011663 -0.054082 
-0.2083 0.15028 0.2052 0.1881 0.063968 0.018918 -0.011992 -0.046025 
0.26225 -0.1552 0.20783 0.22887 0.10819 0.015301 -0.004593 0.026974 
0.67805 -0.13234 0.20701 0.23216 0.11444 0.045553 0.030756 0.083533 
0.56954 0.28198 0.16475 0.20619 0.10343 0.072846 0.043745 0.11526 
0.23529 0.17593 0.073175 0.147 0.064954 0.054432 0.035853 0.10524 
0.087808 -0.15372 -0.19531 -0.017417 -0.05178 0.018425 0.019576 0.0786 
0.26357 -0.10587 -0.36088 -0.18364 -0.18775 -0.013307 -0.02235 0.023193 
0.39871 0.26751 -0.22622 -0.18101 -0.21751 -0.029584 -0.042737 -0.0070593 
0.48388 0.3775 -0.011498 -0.043724 -0.13612 -0.0047575 -0.018075 -0.0060728 
-0.3155 0.15768 0.045882 0.03651 -0.070194 -0.0088678 -0.027775 -0.099624 
-1.1913 0.066269 0.18909 0.15818 0.028619 0.023357 -0.0062372 -0.057863 
-1.231 0.10392 0.36386 0.31174 0.15587 0.064954 0.027961 0.02829 
-0.59352 0.21457 0.47582 0.43291 0.26488 0.093069 0.057227 0.10737 
0.12102 0.27902 0.51167 0.50509 0.33098 0.087314 0.065612 0.15144 
0.33262 0.098659 0.2805 0.37948 0.232 0.043251 0.027139 0.087808 
0.21194 -0.26026 -0.11097 0.094055 0.018589 -0.022679 -0.028433 -0.0040998 
0.20421 -0.43256 -0.36269 -0.13925 -0.15684 -0.04619 -0.052109 -0.049478 
0.2343 -0.16588 -0.3737 -0.24562 -0.24875 -0.010019 -0.041257 0.014643 
0.19484 0.16508 -0.26223 -0.22441 -0.25532 -0.0098543 -0.043559 0.023193 
0.2121 0.21326 -0.11639 -0.12675 -0.19235 0.025824 -0.001798 0.047362 
0.26044 0.21835 -0.021528 -0.031392 -0.11311 0.073339 0.03388 0.095535 
0.15308 -0.07562 -0.067564 -0.030077 -0.095349 0.063639 0.037168 0.084519 
0.0075736 -0.40675 -0.03912 -0.012814 -0.077593 0.022042 0.024344 0.059857 
-0.065426 -0.59007 -0.030242 -0.0070593 -0.074962 0.044896 0.020562 0.071366 
0.0085601 -0.21899 0.11822 0.072846 -0.021856 0.030756 0.018589 0.064461 
0.14716 0.34183 0.25354 0.20964 0.077121 0.014315 0.01267 0.066598 
0.12085 0.45396 0.24121 0.24729 0.11609 0.00050378 -0.012485 0.047855 
0.077285 0.48405 0.18925 0.2611 0.11872 -0.010512 -0.026953 -0.0044286 
0.084519 0.44853 0.1248 0.20701 0.082217 0.035853 0.0037921 0.041114 
-0.14254 0.39493 0.090274 0.16163 0.045553 0.004943 -0.012978 -0.042079 
-0.36186 0.20783 0.072024 0.13384 0.030263 0.0042853 -0.018239 -0.09239 
0.005765 -0.17608 0.11461 0.14782 0.048184 0.037497 0.0090533 0.037168 
0.11313 -0.41563 0.072517 0.12299 0.036675 0.054432 0.020562 0.057391 
0.031414 -0.33868 -0.06707 0.029934 -0.027611 0.0080668 -0.0073881 -0.040106 
0.057884 0.092904 0.019083 0.050321 -0.025802 0.023028 -0.003771 -0.02794 
0.02533 0.40973 0.14733 0.12694 0.02122 -0.0011404 -0.018239 -0.010183 
0.15094 0.38392 0.21819 0.18711 0.070873 0.0060938 -0.0091966 0.070708 
-0.059343 0.00099702 0.051965 0.13171 0.045553 0.014315 -0.013636 0.062323 
-0.43421 -0.33572 -0.27029 -0.070194 -0.092883 -0.025145 -0.043066 -0.035667 
-0.29577 -0.43897 -0.37222 -0.22491 -0.21882 -0.023501 -0.029255 -0.049478 
0.1174 0.024837 -0.078908 -0.1016 -0.1644 0.013986 -0.015444 0.012506 
0.41039 0.053281 0.1904 0.1105 -0.01676 0.028454 0.015137 0.08419 
0.58516 -0.18282 0.16508 0.17051 0.061172 0.10803 0.079094 0.22361 
0.68923 -0.03501 0.051472 0.11987 0.049992 0.12792 0.097837 0.31256 
0.62018 0.36863 -0.069536 0.026974 -0.018568 0.063145 0.055911 0.19057 
0.23874 0.22493 -0.050464 -0.014129 -0.066577 0.039963 0.024837 0.058049 
-0.13201 -0.72555 -0.25779 -0.15536 -0.17443 -0.028433 -0.027118 -0.044874 
-0.38488 -1.0863 -0.35397 -0.267 -0.27489 -0.09239 -0.094363 -0.15257 
-0.40708 -0.10604 -0.032708 -0.084827 -0.17821 -0.075949 -0.10258 -0.18676 
-0.073647 1.4368 0.44113 0.30714 0.094548 -0.045696 -0.076771 -0.1353 
0.18267 1.6821 0.512 0.45971 0.24005 -0.035832 -0.065097 -0.12938 
0.21917 0.88324 0.28067 0.36978 0.2001 0.042758 -0.0068948 -0.014129 
0.28543 0.3364 0.10014 0.22986 0.11888 0.084355 0.041936 0.15144 
0.27228 0.0064227 0.093398 0.17692 0.091753 0.11033 0.083862 0.19484 
0.039634 -0.5294 0.14502 0.1807 0.08978 0.092247 0.061337 0.026152 
-0.095678 -0.71256 0.086657 0.15028 0.059693 0.030098 0.016945 -0.054246 
-0.3936 -0.46101 0.0085601 0.075641 0.0013258 -0.028269 -0.0044286 -0.021363 
-0.6777 -0.32405 -0.04882 0.019247 -0.044052 -0.010019 -0.022021 0.017767 
-0.31007 -0.22721 -0.030077 0.010862 -0.052109 0.036839 0.007738 0.066105 
0.18514 -0.060987 0.031907 0.057227 -0.020377 0.092082 0.066269 0.093233 
0.37471 0.20635 -0.028926 0.06035 -0.015609 0.080409 0.053609 0.10063 
0.44196 0.48059 -0.029913 0.034209 -0.033859 0.051965 0.038812 0.065447 
0.25896 0.42946 -0.059343 0.0060938 -0.057205 -0.00015387 0.0072447 0.05476 
0.22756 0.14453 -0.08121 -0.018568 -0.07973 0.026152 0.00066819 0.040456 
0.24318 -0.23198 -0.18101 -0.096665 -0.13777 -0.054246 -0.06 0.019576 
-0.017582 -0.33802 -0.15536 -0.10834 -0.16177 -0.031886 -0.060165 0.032564 
0.009711 0.13434 0.088301 0.043416 -0.066413 -0.0098543 -0.037805 0.0786 
0.017767 0.40677 0.29875 0.21934 0.071037 0.042429 0.0060938 0.05624 
-0.071674 0.44672 0.32325 0.29579 0.14601 0.11806 0.071859 0.1008 
0.33459 0.62906 0.28773 0.30911 0.17051 0.11296 0.086985 0.23973 
0.31864 0.60736 0.17528 0.25008 0.13647 0.06035 0.054925 0.26406 
0.041607 0.41992 0.10474 0.20816 0.1003 0.012835 0.00083261 0.074654 
-0.27719 -0.087458 0.11954 0.18136 0.066598 -0.035338 -0.047669 -0.16342 
-0.36071 -0.80742 -0.0031133 0.090603 0.0036276 -0.029255 -0.035503 -0.22737 
-0.56344 -1.285 -0.27522 -0.11146 -0.13053 -0.026296 -0.053917 -0.2471 
-0.9526 -0.90689 -0.43585 -0.2859 -0.26782 -0.042244 -0.061645 -0.29347 
-0.76895 -0.10439 -0.26667 -0.24414 -0.26667 -0.0068948 -0.026296 -0.15931 
-0.30054 0.65553 0.034209 -0.039613 -0.13464 0.045553 0.0098754 0.026974 
0.34479 1.0049 0.19928 0.13384 -0.00064712 0.027468 0.010204 0.17873 
0.73839 0.97203 0.19024 0.18152 0.055911 0.037661 0.016781 0.20931 
0.62396 0.62117 0.14338 0.16015 0.054267 0.024344 0.0056006 0.16607 
0.21227 -0.18134 0.034209 0.1151 0.030592 0.028619 0.0047785 0.091753 
-0.0077169 -0.65929 -0.089924 0.043251 -0.019061 0.033715 0.0028056 0.019411 
-0.15848 -0.41497 -0.19761 -0.079895 -0.11311 -0.0047575 -0.021528 -0.050958 
-0.23609 -0.073976 -0.032543 -0.019884 -0.091732 0.020069 -0.0036066 0.0019835 
0.021549 0.056404 0.14782 0.11822 0.0075736 0.082875 0.039963 0.097672 
0.29217 1.0539e-005 0.27343 0.23808 0.10589 0.07301 0.046211 0.14223 
0.43373 0.2468 0.42519 0.37882 0.2121 0.053445 0.042265 0.18037 
0.39148 0.0042853 0.23989 0.30894 0.17297 0.039634 0.017438 0.13171 
-0.12856 -0.84064 -0.2938 -0.045532 -0.071345 -0.037476 -0.042079 -0.022679 
-0.50145 -0.79592 -0.46413 -0.28738 -0.2568 -0.021363 -0.032379 -0.051944 
-0.24003 0.0088889 -0.25187 -0.22557 -0.24809 0.034044 -0.014787 0.01004 
-0.061809 0.55409 -0.030735 -0.057534 -0.13974 0.04506 0.011848 -0.0067304 
0.0014903 0.6141 0.15259 0.12677 1.0539e-005 0.062159 0.049006 0.012342 
0.16179 0.63679 0.27869 0.25008 0.11181 0.098494 0.065283 0.083697 
-0.0064016 0.34002 0.16179 0.22082 0.11707 0.083533 0.062323 0.12102 
0.005765 0.06331 0.12891 0.18613 0.094877 0.049335 0.049006 0.090274 
0.0072447 -0.095678 0.039305 0.1179 0.03799 0.012013 0.00083261 -0.01117 
0.051143 -0.58234 -0.25072 -0.090746 -0.11146 -0.035174 -0.038298 -0.062796 
0.18761 -0.84803 -0.4051 -0.27111 -0.25582 -0.030242 -0.052931 -0.054739 
0.084519 -0.65929 -0.28426 -0.25713 -0.2767 -0.041586 -0.061316 -0.12675 
-0.21948 -0.12823 0.020891 -0.071181 -0.16786 -0.051615 -0.068879 -0.12034 
-0.049971 0.37142 0.20027 0.1225 -0.026296 -0.040764 -0.065591 0.024015 
0.19764 0.38457 0.25337 0.25633 0.091918 0.00050378 -0.033365 0.11757 
0.084355 0.33953 0.20405 0.26998 0.13269 0.05624 0.013328 0.094384 
0.23759 0.66194 0.18481 0.24729 0.13697 0.10918 0.058542 0.055911 
0.16048 0.73642 0.11757 0.19435 0.10113 0.063474 0.033058 0.0088889 
-0.22293 0.46826 0.053445 0.13072 0.044402 0.015794 0.012506 -0.049478 
-0.36088 -0.038791 0.14256 0.15341 0.04654 0.012013 -0.0052507 0.031085 
-0.30284 -0.47054 0.23989 0.23512 0.10145 0.014479 -0.0054151 0.11477 
-0.070523 -0.42829 0.20717 0.23907 0.11444 0.033387 0.012835 0.15061 
0.15834 -0.32684 0.056404 0.13713 0.053445 0.023522 0.00083261 0.086657 
0.58483 -0.05589 0.025824 0.08304 0.012506 -0.0031133 -0.018733 0.11231 
1.0883 0.42288 0.090767 0.11937 0.0324 0.035031 0.01826 0.18317 
0.94424 0.56757 -0.0073881 0.090438 0.012342 0.047362 0.022371 0.10836 
0.49605 0.51989 -0.10784 0.0011614 -0.053753 0.031249 0.011191 0.025988 
-0.19285 0.12365 -0.33819 -0.18528 -0.19235 -0.00081153 -0.01528 -0.061645 
-0.88486 -0.65468 -0.57429 -0.40576 -0.36762 -0.062467 -0.068386 -0.23592 
-0.64729 -0.69546 -0.50671 -0.43421 -0.41481 -0.055726 -0.069372 -0.19564 
-0.28706 -0.42056 -0.3127 -0.32816 -0.3497 -0.01232 -0.047012 -0.094363 
-0.19137 0.057884 0.08304 -0.037147 -0.14665 0.034537 -0.004593 0.019905 
-0.15437 0.51446 0.40694 0.25798 0.08156 0.065776 0.033222 0.064461 
0.0019835 0.48257 0.42223 0.37093 0.1978 0.065776 0.032236 0.051636 
0.38063 0.49161 0.34725 0.36748 0.20717 0.026317 0.012835 0.10852 
0.69219 0.69318 0.35317 0.38277 0.21704 0.015959 0.0082312 0.19385 
0.6866 0.29859 0.24992 0.35136 0.19468 0.046375 0.010369 0.19862 
0.28198 -0.10817 0.1396 0.25683 0.13121 0.031907 0.005765 0.13582 
-0.28426 -0.092226 0.060515 0.16179 0.067585 0.017767 0.0060938 0.01004 
-0.59599 0.1493 0.052787 0.12447 0.042758 0.0324 -0.0004827 -0.13053 
-0.59139 -0.25878 -0.040928 0.049499 -0.0083746 0.057227 0.018425 -0.11311 
0.042265 -0.41727 -0.010183 0.035031 -0.025967 0.06183 0.050979 0.035688 
0.64632 0.071531 0.082382 0.090438 0.0046141 0.070544 0.054432 0.14946 
0.67098 0.39329 0.14256 0.13943 0.03799 0.038812 0.029934 0.1562 
0.44179 0.45297 0.10326 0.13236 0.0324 0.021878 0.0056006 0.071366 
-0.045861 0.087972 -0.014458 0.055089 -0.02498 -0.025802 -0.035338 -0.034188 
-0.60174 -0.18183 -0.069372 0.00066819 -0.066741 -0.028433 -0.043888 -0.059343 
-0.59352 -0.26091 -0.17377 -0.056219 -0.10669 0.014479 -0.019226 -0.017746 
-0.045696 -0.19745 -0.20041 -0.099953 -0.14287 0.007738 -0.018568 0.010697 
0.31766 0.18843 -0.12133 -0.082854 -0.14171 -0.0019624 -0.020541 0.032893 
0.40069 0.44196 0.044731 0.026152 -0.067892 0.031249 0.0052718 0.065612 
0.2394 0.057062 0.03092 0.053774 -0.031392 0.048677 0.014972 0.084519 
-0.012649 -0.25713 -0.065755 0.0072447 -0.052437 0.035524 0.01974 0.044073 
-0.28788 -0.18824 0.0056006 0.043251 -0.034023 0.017438 -0.0078813 -0.060494 
-0.28706 0.028783 0.15966 0.14634 0.030592 -0.018897 -0.028597 -0.076935 
-0.1182 0.12694 0.20816 0.19796 0.07038 -0.021692 -0.023172 0.018425 
-0.20353 0.23479 0.14042 0.19188 0.073832 0.023686 -0.0078813 0.052623 
-0.032708 0.16706 0.18514 0.22016 0.098494 0.064954 0.030427 0.10721 
0.25436 0.12118 0.23085 0.27869 0.15226 0.11658 0.091753 0.20487 
0.18136 0.29365 0.19254 0.26718 0.15308 0.1003 0.075312 0.13664 
0.28017 0.08156 0.097015 0.18383 0.093398 0.05624 0.047855 0.073668 
0.39082 -0.4079 -0.0059084 0.095699 0.027796 0.041278 0.033387 -0.008539 
0.232 -0.26996 -0.05326 0.030427 -0.028269 0.023686 0.0082312 -0.10867 
0.1493 -0.053753 -0.15174 -0.060165 -0.10768 -0.024158 -0.027282 -0.097158 
-0.11409 -0.48813 -0.3132 -0.19778 -0.21488 -0.0064016 -0.032708 -0.10176 
-0.1473 -0.85839 -0.32652 -0.26272 -0.27357 0.013164 -0.021692 -0.036325 
-0.15799 -0.3492 -0.15125 -0.16917 -0.22343 0.0067515 -0.0138 0.010533 
-0.14648 0.3318 0.013821 -0.035996 -0.12889 0.041936 -0.0013048 0.054267 
-0.3155 0.34183 0.04917 0.044567 -0.058028 0.011684 -0.010183 0.056569 
-0.70845 0.3826 0.16377 0.17758 0.049499 0.0324 0.0059294 0.013986 
-0.437 0.69302 0.28346 0.28543 0.14634 0.056733 0.0227 0.032893 
0.040621 0.7162 0.26061 0.29809 0.17133 0.044731 0.024837 0.044402 
0.30467 0.44524 0.16771 0.24121 0.13845 0.044238 0.038977 0.038155 
0.26307 -0.047012 0.08978 0.1687 0.081231 0.041772 0.02533 0.055089 
0.16262 -0.51658 0.026317 0.10458 0.023357 0.011848 1.0539e-005 0.021878 
0.34183 -0.58711 0.019905 0.080902 -0.0004827 0.027961 0.018096 0.030592 
0.52926 -0.099624 0.1031 0.11707 0.018425 0.05065 0.02122 0.051801 
0.32769 0.41203 0.045389 0.086657 -0.0031133 0.023028 0.01152 0.021713 
-0.10883 0.20651 -0.096994 -0.015444 -0.076442 -0.016924 -0.012814 -0.0039354 
-0.3737 -0.12642 -0.054246 -0.01528 -0.084991 0.0021479 -0.01939 -0.035832 
-0.36186 -0.049642 0.09422 0.10803 -0.0019624 0.019083 -0.0064016 -0.034681 
-0.14846 0.040456 0.16508 0.17971 0.063639 0.031742 0.0082312 0.00083261 
0.037004 0.20668 0.2006 0.21934 0.098494 0.01152 0.0021479 0.085835 
0.20224 0.18251 0.20931 0.24121 0.11609 0.032071 0.012013 0.17166 
0.29464 -0.1113 0.11839 0.1909 0.085012 0.064132 0.026974 0.13401 
0.19172 -0.12412 -0.03764 0.07038 -0.003771 -0.012485 -0.019061 0.044073 
0.087972 0.15867 -0.18775 -0.066413 -0.11541 -0.070687 -0.072825 -0.0075525 
-0.14878 0.016288 -0.51132 -0.32635 -0.30087 -0.041093 -0.070852 -0.071345 
-0.43108 -0.45394 -0.61901 -0.49405 -0.43536 -0.022843 -0.057534 -0.097487 
-0.23872 -0.35447 -0.28048 -0.33523 -0.34065 0.014808 -0.01117 -0.052437 
0.086328 0.16229 0.072024 -0.03616 -0.13399 0.07449 0.032236 0.0059294 
0.1179 0.4995 0.24005 0.19385 0.042758 0.063803 0.040621 0.075641 
0.11609 0.61295 0.32012 0.30072 0.14585 0.020233 0.043416 0.15028 
0.15407 0.28757 0.19764 0.25748 0.13006 0.039799 0.023686 0.15752 
0.14864 -0.19416 0.0046141 0.12118 0.043416 0.0080668 -0.0078813 0.13138 
0.25896 -0.24234 0.012999 0.080573 0.0092177 0.034209 0.018096 0.033058 
0.2052 0.09126 0.14585 0.14749 0.044731 0.017603 0.0044497 -0.182 
0.016123 0.38474 0.18547 0.19681 0.080902 -0.004593 -0.016102 -0.19449 
0.0034632 0.39345 0.17824 0.19484 0.083368 0.030098 0.033387 -0.05178 
0.10967 -0.095349 0.09833 0.14667 0.058213 0.032236 0.0227 0.10754 
0.1761 -0.43322 0.10967 0.14519 0.061172 0.077121 0.051472 0.20947 
0.27951 -0.35216 0.098988 0.15176 0.066927 0.085341 0.058377 0.22887 
0.37455 0.096028 0.027961 0.1276 0.046046 0.03947 0.025001 0.14848 
0.12513 0.40447 0.0047785 0.077614 1.0539e-005 -0.017253 -0.017911 0.064954 
0.1465 0.58138 0.12825 0.14026 0.033222 0.019083 -0.013636 0.041772 
-0.098967 0.27507 0.064954 0.1174 0.020727 -0.0031133 -0.030406 -0.051122 
-0.52118 -0.13366 -0.023994 0.050157 -0.026789 -0.015938 -0.023172 -0.090581 
-0.15783 0.095042 0.068736 0.09422 -0.0013048 0.032236 -0.0077169 0.00017495 
-0.04882 0.16344 0.16541 0.16344 0.04917 0.032071 0.0036276 0.015465 
-0.23806 0.057227 0.074983 0.12497 0.034209 0.015137 0.029112 0.0092177 
0.14716 0.086492 -0.027611 0.047362 -0.01676 0.038812 0.016781 0.06742 
0.31256 0.20964 0.017603 0.051308 -0.02498 0.014315 -0.00064712 0.09685 
0.18728 0.16278 0.016288 0.074161 -0.012485 0.025988 0.0059294 0.04654 
0.035688 -0.0049219 -0.1649 -0.031557 -0.084169 -0.016924 -0.033037 -0.032872 
-0.095349 -0.44276 -0.37748 -0.21981 -0.22244 -0.042244 -0.053588 -0.046683 
0.040292 -1.0335 -0.44292 -0.33128 -0.3132 0.019083 -0.0095255 0.019576 
0.26028 -0.93994 -0.44062 -0.36943 -0.34213 0.050321 0.018754 0.12184 
0.46136 0.050814 -0.21044 -0.23625 -0.25795 0.039799 0.020069 0.12579 
0.45675 0.8645 0.18202 0.054267 -0.066248 0.049006 0.018425 0.051965 
0.37093 1.1866 0.52663 0.37405 0.17084 0.059035 0.036017 0.044731 
-0.16407 0.82849 0.67131 0.57168 0.33541 0.065776 0.040456 -0.0078813 
-0.72193 -0.067235 0.45198 0.5023 0.29974 0.073504 0.031085 -0.11771 
-0.36301 -1.0212 -0.055232 0.16804 0.066927 -0.021692 -0.022185 -0.12198 
-0.11294 -1.0971 -0.3395 -0.095678 -0.11968 -0.033365 -0.03764 -0.058356 
-0.010183 -0.073318 -0.1746 -0.082361 -0.13021 0.021713 -0.015444 0.0051074 
-0.02235 0.60571 -0.00064712 -0.0021268 -0.082361 0.023357 0.0018191 0.033715 
-0.11196 0.64353 0.086328 0.079916 -0.022843 0.0083956 0.0069159 0.022371 
-0.11656 0.30056 0.11461 0.12891 0.017274 0.014643 -0.006566 0.032564 
0.019247 0.038319 0.10425 0.13713 0.026317 0.0037921 -0.013636 0.067749 
0.16311 0.059693 0.16081 0.17824 0.0592 0.014643 0.0039565 0.0786 
0.22296 0.11231 0.16294 0.18843 0.073339 0.038977 0.022864 0.096686 
0.15999 0.00066819 0.075148 0.13467 0.044567 0.043416 0.024015 0.081889 
0.11609 0.014643 -0.0022913 0.059857 -0.010019 0.052623 0.040292 0.051636 
0.22328 0.03536 0.00083261 0.062981 -0.014458 0.052623 0.033551 0.063474 
0.18366 -0.09946 0.045224 0.10343 0.011026 0.064461 0.045553 0.10951 
0.057227 0.10145 0.08156 0.1391 0.041607 0.060515 0.03388 0.091918 
-0.044217 0.39707 0.17067 0.19369 0.077121 0.035524 0.013492 0.0227 
-0.15454 0.36994 0.19912 0.22624 0.10063 0.013328 0.0013258 -0.0068948 
-0.0075525 0.25206 0.2029 0.24088 0.1179 0.09126 0.033715 0.046375 
0.33196 0.17725 0.11757 0.18892 0.08978 0.057555 0.030592 0.055089 
0.078929 -0.78326 -0.2037 -0.034516 -0.06 0.040128 0.020891 -0.038956 
0.13121 -1.1525 -0.44637 -0.27094 -0.24184 0.0016547 -0.016102 -0.040928 
0.32292 -0.41661 -0.27818 -0.25664 -0.27472 -0.045203 -0.049314 0.01004 
0.037332 0.18333 0.055582 -0.045368 -0.15339 -0.05737 -0.056383 -0.045532 
-0.51296 0.50394 0.18629 0.11444 -0.029913 -0.054739 -0.07825 -0.15618 
-0.89654 0.74842 0.14141 0.17232 0.033222 -0.032872 -0.059836 -0.096994 
-0.45772 0.8063 0.16262 0.2246 0.090767 0.031742 0.007738 0.020891 
0.093562 0.40414 0.18054 0.22427 0.10655 0.059693 0.02533 0.053445 
0.46218 -0.22918 -0.045039 0.080738 0.01563 0.024179 0.0095465 0.080573 
0.68562 -0.53269 -0.072167 0.011848 -0.042737 0.029441 0.017274 0.10573 
0.25929 -0.18693 0.1756 0.14453 0.031907 0.040621 0.013821 0.044567 
-0.52135 0.0093821 0.2394 0.22476 0.09833 0.035688 -0.0040998 0.0024767 
-0.62673 0.19402 0.097344 0.16508 0.072517 0.061995 0.023522 0.019083 
-0.26552 0.24367 -0.020212 0.082217 0.014643 0.05624 0.034537 0.073832 
0.17363 -0.31122 -0.17509 -0.064111 -0.088444 0.071366 0.048019 0.13006 
0.33558 -0.28278 -0.26157 -0.16375 -0.16835 0.10293 0.067585 0.2052 
0.31256 0.1544 -0.27078 -0.18561 -0.19975 0.073832 0.055418 0.16278 
0.3364 0.51019 -0.072989 -0.057534 -0.12807 0.011191 0.012013 0.080573 
0.27425 0.20651 0.13943 0.092082 -0.024816 0.019247 0.00033937 0.026974 
0.25978 -0.19268 0.22164 0.19221 0.055747 -0.029748 -0.034188 0.018589 
0.32226 -0.37436 0.2685 0.26735 0.12184 0.00066819 -0.020048 0.0090533 
0.26653 0.066763 0.35745 0.34939 0.19057 0.03536 -0.00097594 0.047197 
-0.013143 0.46547 0.25173 0.31322 0.17676 0.0093821 -0.010183 0.01152 
-0.52792 0.44376 -0.028597 0.11905 0.037661 -0.028104 -0.029255 -0.079566 
-0.59813 0.32999 -0.19712 -0.065919 -0.10078 -0.043066 -0.054904 -0.04882 
-0.33506 -0.1866 -0.29018 -0.18397 -0.19761 -0.02087 -0.040271 0.0085601 
0.22542 -0.48123 -0.17361 -0.15125 -0.18693 0.036675 0.0059294 0.010369 
0.72409 -0.20962 0.0093821 -0.011663 -0.094034 0.060022 0.024344 -0.034516 
0.65569 0.066434 0.081231 0.095535 -0.01232 0.010862 0.0021479 -0.043888 
-0.077428 0.21983 -0.00064712 0.062488 -0.021528 0.011848 -0.0014692 -0.049478 
-0.76418 0.1493 -0.18019 -0.06444 -0.10719 -0.012814 -0.021856 -0.040764 
-0.44621 0.029605 -0.22754 -0.13793 -0.16983 0.0079024 -0.0098543 0.090603 
-0.080059 -0.14763 -0.066248 -0.062796 -0.12774 0.080573 0.03651 0.16574 
-0.19844 -0.2642 0.082382 0.053774 -0.041915 0.069722 0.043087 0.083697 
-0.23576 -0.37074 0.05772 0.07038 -0.016595 0.049499 0.026646 -0.10719 
-0.11886 -0.21817 0.044731 0.071366 -0.0091966 0.027303 0.011684 -0.11278 
0.1932 0.11954 0.043251 0.071531 -0.0078813 -0.010676 -0.014129 -0.0050863 
0.25765 0.11576 0.13006 0.13516 0.033715 0.029605 0.0090533 0.093562 
0.1659 0.50624 0.28675 0.29661 0.14617 0.059857 0.041772 0.12973 
0.24449 0.87716 0.41795 0.41039 0.23562 0.048841 0.031249 0.19155 
0.34281 0.64846 0.26307 0.34117 0.19698 0.028125 0.029441 0.14338 
0.22197 0.054432 -0.017746 0.13845 0.052459 -0.01676 -0.025474 -0.0090322 
-0.038298 -0.65205 -0.32339 -0.12379 -0.13843 -0.094527 -0.086471 -0.11705 
-0.19318 -0.95605 -0.49389 -0.32799 -0.29906 -0.066906 -0.074633 -0.12511 
-0.23757 -0.82469 -0.45821 -0.38077 -0.3617 -0.034023 -0.063782 -0.058521 
-0.087786 -0.089266 -0.078579 -0.17065 -0.2351 0.020891 -0.014951 0.072846 
0.090109 0.44343 0.18267 0.06742 -0.060165 0.073997 0.032236 0.12201 
0.31141 0.60736 0.22444 0.18284 0.049664 0.072024 0.045718 0.15456 
0.44952 0.40463 0.061337 0.13532 0.04358 0.052952 0.040785 0.12118 
0.21523 0.1174 -0.08384 0.050321 -0.010019 0.051308 0.027303 0.014643 
0.15719 0.18202 0.024837 0.065447 -0.014951 0.00033937 -0.010019 0.01415 
0.28182 0.24745 0.2685 0.22065 0.082053 0.019411 -0.00015387 0.082875 
0.13943 0.50673 0.43472 0.37915 0.2052 0.074326 0.036182 0.11674 
-0.28196 0.51594 0.44327 0.44146 0.25913 0.054267 0.029769 0.044402 
-0.45032 0.36254 0.41187 0.44179 0.26307 0.044073 0.025166 0.029112 
0.069393 0.23792 0.33394 0.39839 0.24236 0.058049 0.031907 0.10967 
0.4219 -0.59139 0.073997 0.21194 0.11822 0.020562 0.0069159 0.088136 
0.26932 -1.6379 -0.40149 -0.16177 -0.14599 -0.048163 -0.041093 -0.039778 
-0.11294 -0.95425 -0.57642 -0.40198 -0.3474 -0.054082 -0.069043 -0.10735 
-0.2739 0.18152 -0.3377 -0.30925 -0.32257 -0.023172 -0.0503 -0.055232 
-0.36811 0.58401 -0.011334 -0.063946 -0.15881 0.039141 0.0074092 0.0013258 
0.045882 0.65454 0.1368 0.087643 -0.031721 0.066927 0.041443 0.085506 
0.49358 0.70058 0.19237 0.17791 0.053774 0.037826 0.025001 0.095042 
0.42453 0.40973 0.20536 0.21868 0.095699 0.046704 0.024179 0.012342 
0.23562 0.23216 0.22509 0.24532 0.1174 0.0024767 -0.0087034 -0.036654 
-0.1376 0.13401 0.14585 0.20471 0.089945 -0.0042642 -0.015773 -0.05441 
-0.21882 0.13713 0.072517 0.14502 0.048677 0.013986 -0.0087034 -0.011334 
-0.21356 -0.017746 0.060679 0.10293 0.018096 0.028454 0.0014903 0.057884 
-0.20633 0.11625 0.17297 0.16278 0.056733 0.071366 0.035524 0.086163 
0.10228 0.40776 0.26932 0.26061 0.13286 0.13434 0.084519 0.13779 
0.35432 0.19451 0.20602 0.26636 0.15176 0.09981 0.074983 0.16294 
0.38441 -0.34592 0.014479 0.15818 0.079916 0.03947 0.03536 0.10704 
0.32966 -0.73755 -0.046025 0.055911 -0.006566 0.0065871 -0.0019624 0.085341 
0.27294 -0.76928 -0.089759 -0.0080457 -0.066906 -0.0077169 -0.025638 0.12184 
0.25008 -0.16013 -0.1649 -0.079566 -0.12494 -0.017253 -0.028597 0.061995 
0.24712 0.39592 -0.3839 -0.24825 -0.24957 -0.021692 -0.039284 -0.0078813 
-0.071181 -0.018733 -0.486 -0.37074 -0.35792 -0.058685 -0.072167 -0.074798 
-0.33506 -0.24628 -0.24579 -0.26716 -0.30613 -0.034188 -0.039942 -0.13727 
-0.22918 0.19221 0.064625 -0.039942 -0.14813 -0.0077169 -0.027447 -0.14566 
-0.17575 0.55655 0.18925 0.11773 -0.012978 0.026481 -0.0059084 -0.16999 
-0.059178 0.55951 0.25321 0.23479 0.094877 0.025988 0.021549 -0.021363 
0.023686 0.3974 0.25929 0.29711 0.15752 0.075312 0.038483 0.10211 
-0.21784 0.061501 0.23858 0.31125 0.17478 0.0421 0.031085 0.093069 
-0.49537 -0.27785 0.14502 0.23183 0.12464 0.039799 0.025824 0.032236 
-0.22787 -0.15207 0.03651 0.13401 0.053609 0.029934 0.0046141 0.026646 
0.012835 -0.0016336 -0.017911 0.065776 -0.0029489 0.015794 -0.0016336 0.048841 
-0.073482 0.09833 -0.02942 0.029769 -0.034845 0.0227 -0.0022913 0.036839 
-0.084991 0.17692 0.044402 0.065118 -0.018568 0.022535 -0.0036066 0.038319 
0.13269 0.24121 0.11642 0.12118 0.022535 0.049006 0.019247 0.035853 
0.28889 0.12677 0.050486 0.093562 0.010204 0.053774 0.02533 0.046046 
0.28445 -0.049642 -0.080552 -0.0098543 -0.059507 0.023193 0.0044497 0.011848 
0.16262 -0.31829 -0.17657 -0.097322 -0.13201 -0.009361 -0.011334 0.0098754 
0.095371 -0.23822 -0.1205 -0.071181 -0.13021 0.0095465 -0.016595 0.04506 
0.20964 0.097015 0.013657 0.038977 -0.058685 0.01152 -0.0088678 0.084519 
0.25123 0.19468 0.043909 0.072681 -0.01939 0.021878 0.03388 0.12579 
0.28921 0.19994 0.077778 0.1054 0.011848 0.061172 0.036675 0.17067 
0.17363 0.35186 0.21161 0.20175 0.085177 0.074654 0.049664 0.16114 
-0.33046 0.15555 0.13549 0.18218 0.081889 0.029112 0.027796 0.0059294 
-0.46429 -0.1552 -0.1376 0.0023123 -0.045696 -0.0049219 -0.019061 -0.14188 
-0.0503 -0.59566 -0.22885 -0.11722 -0.13941 0.0072447 -0.013471 -0.096665 
0.48191 -0.94126 -0.068714 -0.063946 -0.11459 0.08715 0.050814 0.090767 
0.2925 -0.69086 0.14634 0.084026 -0.016431 0.071695 0.046375 0.12776 
-0.29133 0.44722 0.46547 0.34396 0.16442 0.0046141 0.0014903 0.0054362 
-0.78737 1.5319 0.49934 0.48635 0.26044 -0.10373 -0.087458 -0.18397 
-0.79033 1.5424 0.25683 0.3849 0.16689 -0.13415 -0.13777 -0.23116 
-0.61999 0.43489 0.072681 0.21753 0.060022 -0.086471 -0.11409 -0.17377 
-0.080717 -0.35183 -0.015116 0.1026 0.0039565 0.015301 -0.034681 0.013164 
0.40858 -0.54699 -0.19515 -0.050793 -0.086636 0.067256 0.0227 0.16541 
0.621 -0.43174 -0.48452 -0.29725 -0.2568 0.052294 0.032071 0.19024 
0.57168 -0.12379 -0.51592 -0.40741 -0.35644 0.058377 0.027303 0.15883 
0.47747 0.12299 -0.30531 -0.31961 -0.31254 0.052787 0.02533 0.057062 
0.47747 0.15144 -0.089595 -0.15881 -0.20633 0.043251 0.046868 0.032729 
0.5115 0.19681 0.1179 0.030427 -0.068057 0.072846 0.046868 0.089945 
0.63728 0.43489 0.27771 0.23298 0.086657 0.10441 0.06594 0.18218 
0.41779 -0.013307 0.28938 0.31355 0.1664 0.090767 0.078929 0.1465 
-0.27127 -0.9406 0.0227 0.18284 0.083368 0.064954 0.039799 0.050321 
-0.87878 -1.7766 -0.11064 0.020562 -0.036818 -0.011005 -0.01117 -0.089759 
-1.3414 -0.90229 -0.01939 0.02829 -0.049314 -0.040271 -0.033859 -0.21718 
-0.85247 0.5046 0.11707 0.11411 0.0054362 0.0013258 -0.02087 -0.12429 
0.25863 1.2509 0.16558 0.17774 0.061337 0.0421 0.016452 0.1151 
0.56148 1.3969 0.12464 0.16985 0.060679 0.027796 0.0052718 0.16442 
0.41417 0.90297 0.1054 0.15407 0.046375 0.007738 -0.0083746 0.11559 
0.014808 0.053116 0.072681 0.11954 0.019905 -0.0077169 -0.024487 -0.0004827 
-0.47646 -0.55719 0.04654 0.091589 0.0024767 0.018918 -0.016924 -0.10225 
-0.27061 -0.77865 0.068736 0.1003 0.0072447 0.0060938 -0.017417 -0.058521 
0.19796 -0.33211 0.14058 0.17232 0.057062 0.051965 0.019411 0.049828 
0.40924 0.21654 0.22197 0.2514 0.12053 0.086657 0.035853 0.11543 
0.46728 0.046868 0.093398 0.17889 0.085835 0.048677 0.02829 0.1368 
0.35745 -0.047669 -0.20879 -0.027775 -0.058521 0.01974 0.020233 0.069886 
0.11921 0.36517 -0.29692 -0.17312 -0.18315 -0.023172 -0.030406 -0.031721 
-0.044381 0.62807 -0.20567 -0.16539 -0.20649 0.00050378 -0.021528 -0.052602 
0.25025 0.63054 -0.10883 -0.10127 -0.17032 0.0085601 -0.0021268 0.033551 
0.41187 0.24828 -0.088937 -0.073318 -0.14303 0.015137 -0.017417 0.065447 
0.30385 -0.43075 -0.068386 -0.055068 -0.12905 -0.032872 -0.042573 -0.028762 
0.040292 -1.0687 0.0062583 -0.0036066 -0.092226 -0.0022913 -0.029584 -0.034681 
-0.069865 -0.9919 0.10556 0.093069 -0.01232 0.054267 0.017438 0.053116 
-0.082361 -0.29133 0.078929 0.13072 0.037004 0.10277 0.066927 0.098659 
-0.15602 0.52531 0.024179 0.10392 0.0324 0.10655 0.074326 0.086985 
-0.011827 1.1366 -0.084005 0.012177 -0.03764 0.024344 0.021713 0.026152 
-0.30021 0.8451 -0.14122 -0.057863 -0.10176 -0.011663 -0.017253 -0.051287 
-0.6098 -0.095349 -0.10176 -0.057205 -0.11228 0.019247 -0.014129 -0.051944 
-0.6828 -0.92761 -0.016266 -0.0090322 -0.08384 0.01415 -0.014787 -0.066906 
-0.54699 -1.4458 0.015465 0.034866 -0.053753 -0.0075525 -0.018239 -0.059672 
-0.10225 -0.89012 0.20635 0.16541 0.037004 0.046046 0.0069159 0.022535 
0.37389 0.72442 0.59124 0.45314 0.23578 0.048019 0.022371 0.092411 
0.52811 1.9761 0.79413 0.68052 0.39773 0.031578 0.029934 0.12628 
0.52087 1.7637 0.51857 0.6044 0.36485 0.039305 0.01267 0.16081 
0.41844 0.92566 0.056569 0.31437 0.17215 0.027303 0.009711 0.12085 
0.27606 -0.14254 -0.3686 -0.086142 -0.10061 -0.0082102 0.0013258 0.047362 
0.14552 -1.4102 -0.64498 -0.40675 -0.34213 -0.025638 -0.042737 -0.023994 
-0.074633 -1.3687 -0.53877 -0.45607 -0.40806 -0.019719 -0.044052 -0.087951 
-0.19877 -0.40149 -0.24151 -0.28804 -0.29347 0.020891 -0.0034422 -0.051287 
-0.075291 0.49539 0.0087245 -0.074469 -0.14023 0.04506 0.014479 0.0039565 
0.41877 0.8673 0.17708 0.12595 0.0016547 0.036839 0.017932 0.083204 
0.7213 0.31388 0.089123 0.11806 0.013821 0.025659 0.005765 0.066763 
0.70041 -0.028762 0.14831 0.14667 0.02681 0.010697 -0.0027845 0.098166 
0.29004 0.021384 0.30812 0.2662 0.11083 0.033058 0.013492 0.1419 
-0.18594 0.074654 0.36616 0.37372 0.20142 0.063803 0.0083956 0.12825 
-0.5973 0.17429 0.33246 0.39904 0.22855 0.056569 0.022371 0.054267 
-0.92334 0.011355 0.16706 0.28017 0.15703 0.026152 0.013657 -0.069701 
-0.3857 0.17577 0.080409 0.18284 0.086492 0.040292 0.013328 0.013164 
0.26044 0.52383 0.064954 0.13483 0.049992 0.05065 0.022042 0.099316 
0.22756 0.42009 -0.069701 0.030756 -0.027611 0.02122 0.016616 0.027303 
-0.046354 -0.29807 -0.30136 -0.15684 -0.16769 0.014972 0.0013258 -0.044052 
-0.093541 -0.95869 -0.38949 -0.27703 -0.27242 0.018425 -0.0013048 -0.015444 
-0.054246 -0.72883 -0.14993 -0.18726 -0.23165 0.037332 0.035524 0.061501 
0.0060938 0.12825 0.18432 0.060186 -0.066906 0.025001 0.0056006 0.028125 
0.074161 0.58121 0.31421 0.24203 0.078107 -0.008539 -0.02235 -0.08532 
0.052459 0.30122 0.16969 0.23052 0.092576 -0.018733 -0.028762 -0.121 
0.19007 0.24351 0.11658 0.21523 0.088136 -0.014787 -0.031721 -0.040106 
0.27425 0.27014 0.11724 0.18481 0.072188 0.013821 -0.014293 0.062981 
0.21621 0.08008 0.079258 0.14798 0.051143 0.029112 -0.00081153 0.11526 
0.20323 0.17133 0.15999 0.18711 0.076299 0.046046 0.014643 0.085341 
0.19287 0.28395 0.21753 0.23463 0.11609 0.061008 0.034537 0.075312 
0.18563 0.3364 0.2006 0.23693 0.12644 0.081889 0.048841 0.098659 
0.16919 0.20388 0.13762 0.19731 0.096357 0.045882 0.026481 0.097179 
0.24959 0.11461 0.14585 0.17265 0.070708 0.029934 0.01563 0.071695 
0.22526 0.098494 0.17692 0.19205 0.080738 0.052787 0.019247 0.080409 
0.068736 -0.029255 0.11313 0.15949 0.064461 0.055911 0.02829 0.069064 
-0.29117 0.15785 -0.057041 0.064296 0.0014903 0.048677 0.036346 0.035195 
-0.47827 0.11806 -0.2841 -0.10012 -0.11771 0.037004 0.01004 -0.022514 
-0.30925 -0.28886 -0.35677 -0.23313 -0.23198 -0.0049219 -0.015609 -0.041257 
-0.037969 -1.1047 -0.36811 -0.29215 -0.29396 0.012013 0.012342 0.011848 
0.082546 -1.4751 -0.46101 -0.36943 -0.34904 0.032893 0.012342 0.03651 
0.07038 -1.1778 -0.29429 -0.29577 -0.30021 0.04917 0.031085 0.093233 
0.03092 -0.020706 0.064296 -0.039942 -0.133 0.051636 0.036675 0.071695 
0.099152 1.3587 0.23266 0.15818 0.012342 0.016781 -0.0040998 -0.014129 
0.080738 1.585 0.22871 0.2172 0.071859 -0.02498 -0.032543 -0.10768 
0.23841 0.89656 0.2805 0.26537 0.11411 0.013986 -0.0047575 -0.0022913 
0.58368 0.30615 0.38359 0.3586 0.1858 0.035031 0.012835 0.13615 
0.48388 0.21474 0.39296 0.41828 0.24104 0.040456 0.019905 0.18317 
-0.050629 0.27376 0.19287 0.32884 0.18859 0.01563 -0.0068948 0.048348 
-0.69743 0.18794 -0.018404 0.13845 0.054432 -0.0091966 -0.03205 -0.10784 
-0.72538 0.022864 -0.10242 0.016945 -0.038298 0.028947 -0.0078813 -0.073482 
-0.14451 -0.3224 -0.11574 -0.034352 -0.082854 0.0592 0.022535 0.015301 
0.26702 -0.62591 -0.048492 -0.015773 -0.080059 0.0786 0.047855 0.1026 
0.35136 -0.72177 -0.054575 -0.017911 -0.081868 0.021056 0.025988 0.065776 
0.34544 -0.54847 -0.14829 -0.070194 -0.11656 0.022535 -0.0036066 0.044402 
0.35005 0.13417 -0.062467 -0.042573 -0.10669 0.017274 -0.0031133 0.031085 
-0.182 0.20503 0.082546 0.051801 -0.042901 0.024673 0.016288 -0.049642 
-0.5493 -0.13333 0.11132 0.10408 -0.00081153 -0.004593 -0.015444 -0.069043 
-0.24809 0.21128 0.08304 0.13598 0.02681 -0.029913 -0.039778 -0.0082102 
0.20158 0.87404 0.14404 0.20175 0.077121 -0.013143 -0.026296 0.078765 
0.28724 0.64287 -0.0096899 0.09422 0.010533 -0.024323 -0.041751 0.0421 
0.46629 0.034209 -0.1113 -0.0090322 -0.067728 -0.017253 -0.034516 0.11559 
0.19172 -0.70302 -0.20025 -0.10012 -0.13596 0.0080668 -0.019884 0.093069 
-0.4763 -1.0947 -0.30629 -0.20567 -0.21373 0.036675 -0.0021268 -0.034681 
-0.67606 -0.17328 -0.21669 -0.18216 -0.20797 0.028783 0.0046141 -0.10423 
-0.40724 1.1126 0.10211 0.027468 -0.073318 0.066434 0.027139 -0.083183 
-0.13267 0.7425 0.07301 0.071531 -0.029584 0.01004 0.00033937 -0.053095 
0.13697 -0.22704 -0.11179 -0.031392 -0.089431 -0.0087034 -0.017746 -0.00064712 
0.30418 -0.51625 -0.038133 -0.013471 -0.084334 0.037004 -0.0021268 0.030098 
0.26488 -0.44308 0.033715 0.054103 -0.037805 0.034866 0.0046141 0.0227 
0.14716 0.23874 0.11724 0.14716 0.032071 0.024015 0.0083956 0.0042853 
0.13861 0.82718 0.19879 0.21046 0.085835 0.042429 0.0014903 -0.027611 
0.2052 0.87404 0.21276 0.2389 0.11378 0.022535 0.0037921 0.035853 
0.1294 0.17396 0.12677 0.19237 0.083368 0.01711 0.014808 0.087972 
0.043909 -0.60931 0.010862 0.10326 0.019411 -0.015444 -0.025309 0.073339 
0.080244 -0.81647 -0.0072237 0.057555 -0.022843 -0.042408 -0.052602 0.0786 
-0.20518 -0.78967 -0.036818 0.020233 -0.052109 -0.0082102 -0.031392 -0.017088 
-0.52381 -0.59385 -0.064111 -0.022021 -0.08121 0.020562 -0.022679 -0.11903 
-0.56327 -0.1843 -0.030735 -0.012156 -0.078086 0.025495 -0.001798 -0.0868 
-0.41037 0.45133 0.014479 0.038977 -0.046354 0.023522 0.0072447 -0.016595 
-0.0868 0.95328 0.071202 0.10672 0.0018191 1.0539e-005 -0.015773 0.048841 
0.16755 0.83721 0.099316 0.14371 0.034866 0.026152 -0.00031829 0.12694 
0.29448 0.28642 0.088794 0.13746 0.039634 0.050157 0.022864 0.171 
0.40019 0.089287 0.17971 0.19221 0.081889 0.075805 0.043745 0.14223 
0.33361 0.086657 0.22394 0.24285 0.12414 0.058213 0.037332 0.073668 
0.183 0.22739 0.20717 0.24515 0.13138 0.071366 0.033222 0.024344 
0.30319 0.42403 0.15111 0.21375 0.10951 0.057555 0.033387 0.095042 
0.29711 0.12612 0.044402 0.13351 0.054103 0.04917 0.03651 0.088136 
0.062323 -0.75629 -0.2037 -0.069372 -0.089924 0.019247 0.0037921 -0.0082102 
0.072517 -1.2472 -0.31895 -0.20847 -0.20945 -0.023336 -0.027447 -0.0059084 
-0.2351 -0.92975 -0.062302 -0.085485 -0.15125 0.0013258 -0.0052507 -0.022185 
-0.53335 -0.35841 0.19221 0.13565 0.0021479 0.046046 0.0062583 -0.013471 
-0.20567 0.28889 0.33509 0.29727 0.13927 0.06742 0.030756 0.035853 
0.10885 0.64238 0.25452 0.29645 0.1641 0.078436 0.062817 0.0067515 
0.42699 0.9301 0.065776 0.17741 0.084684 0.029112 0.018096 -0.027611 
0.57316 1.0904 -0.12692 0.0085601 -0.049642 -0.063782 -0.050793 0.0011614 
0.329 0.018589 -0.33293 -0.18249 -0.20123 -0.064604 -0.070687 0.0092177 
-0.054575 -0.55982 -0.23198 -0.18117 -0.22589 -0.043559 -0.064768 0.056404 
-0.78079 -0.22984 -0.039613 -0.073647 -0.15289 0.014643 -0.025967 0.024673 
-0.83439 -0.052437 0.12036 0.066763 -0.038956 0.083697 0.023686 0.029769 
-0.29199 0.1978 0.3101 0.24153 0.10211 0.090438 0.052787 0.11329 
0.159 0.57513 0.49259 0.43324 0.25535 0.12201 0.087972 0.20783 
0.58023 0.69055 0.53025 0.5337 0.34577 0.14091 0.10343 0.2149 
0.8331 0.54685 0.39575 0.47221 0.31305 0.09126 0.076299 0.15308 
0.66901 -0.05441 0.16146 0.29941 0.18892 0.022042 0.020233 0.0069159 
0.31569 -0.65863 -0.076113 0.091096 0.032071 -0.0080457 -0.025802 -0.11311 
0.15883 -0.77898 -0.11146 -0.0096899 -0.059343 -0.020541 -0.035503 -0.065426 
-0.099295 -0.57379 -0.35808 -0.20534 -0.20715 -0.045532 -0.041093 -0.028926 
-0.26239 -0.079401 -0.55554 -0.40083 -0.36433 -0.034516 -0.056383 -0.02794 
-0.13612 0.41269 -0.40083 -0.37485 -0.3742 -0.01117 -0.036325 0.046375 
-0.012978 0.67625 -0.063618 -0.15717 -0.22968 0.033387 0.027468 0.070708 
-0.050136 0.43406 0.15456 0.052623 -0.069372 0.055089 0.022042 -0.072825 
-0.13168 0.33163 0.29809 0.24071 0.084355 0.038812 0.019247 -0.19054 
-0.15585 0.18514 0.27475 0.31601 0.16623 0.033222 0.020727 -0.098638 
0.035524 -0.023007 0.14996 0.23989 0.13056 0.023357 0.010697 0.087808 
