0.044567 0.054267 1.0539e-005 0.07597 0.023522 0.01004 -0.0088678 0.031249 
0.054432 0.027468 -0.017253 0.048019 0.044731 0.029112 -0.0024557 0.022371 
0.041278 0.033551 0.0046141 0.049335 0.040292 0.02122 -0.0064016 0.018754 
0.020891 0.038319 0.014808 0.054596 0.045224 0.01152 0.0019835 0.036017 
0.014972 0.025495 0.020562 0.060186 0.039305 0.0324 0.010533 0.01711 
0.029112 0.051636 0.025988 0.064954 0.038319 0.018096 1.0539e-005 0.02533 
0.026481 0.022864 0.046046 0.0689 0.018589 0.019083 0.0042853 0.044731 
0.026317 0.034044 0.043416 0.06742 0.012177 0.025001 -0.00031829 0.022206 
0.051801 0.059364 0.041114 0.06331 0.014808 0.038155 0.011355 0.014808 
0.042265 0.025495 0.038648 0.073668 0.025659 0.019083 0.0093821 0.034209 
0.041607 0.040456 0.0014903 0.089452 0.010204 0.023522 0.0018191 0.011191 
0.033058 0.049499 0.015301 0.075148 0.027468 0.017438 1.0539e-005 0.020069 
0.026152 0.028125 0.042594 0.079916 0.01415 0.0227 0.0047785 0.032729 
0.022864 0.04917 0.010204 0.064954 0.027632 0.032071 0.0060938 0.01826 
0.017603 0.046375 0.0062583 0.05213 0.032236 0.0090533 -0.0019624 0.0095465 
0.019083 0.031249 0.0083956 0.050979 0.036346 0.030427 0.0032988 0.030427 
0.036675 0.055254 0.01826 0.060186 0.037661 0.033222 0.007738 0.037168 
0.040621 0.043745 0.0324 0.061666 0.034702 0.0026412 -0.0091966 0.028125 
0.044731 0.03947 0.057555 0.072353 0.029276 0.038812 0.00099702 0.040128 
0.040292 0.055089 0.067256 0.087643 0.02829 0.018754 -0.0042642 0.025495 
0.033058 0.04095 0.046211 0.09422 0.028783 0.012506 0.0046141 0.028947 
0.033222 0.042758 0.017274 0.10129 0.014315 0.026974 -0.0004827 0.013492 
0.028125 0.036675 -0.0014692 0.067749 0.012342 -0.011992 -0.022679 0.017603 
0.016452 0.032236 0.0060938 0.055582 0.023522 0.012177 -0.0016336 0.034209 
0.024344 0.052787 0.010862 0.059693 0.027961 0.031578 0.0042853 0.019905 
0.030592 0.032564 0.0056006 0.050979 0.024015 0.0087245 -0.0060728 0.026974 
0.041936 0.0324 0.011684 0.05476 0.026152 0.031742 0.01004 0.041936 
0.048184 0.049335 0.014808 0.05624 0.037661 0.02533 0.0047785 0.019905 
0.047362 0.036346 0.030263 0.058542 0.043745 0.016616 -0.00064712 0.03092 
0.023522 0.043251 0.050321 0.074654 0.058377 0.036346 0.00033937 0.02681 
0.0227 0.062488 0.053609 0.079751 0.040785 0.027468 0.0028056 0.032236 
0.027961 0.044567 0.041772 0.085012 0.016616 0.026152 0.0024767 0.031249 
0.019576 0.051965 0.013821 0.095206 0.023851 0.036017 0.0039565 0.027632 
0.037332 0.033222 -0.0021268 0.06331 0.026974 0.03799 0.012177 0.030427 
0.022371 0.025166 0.01415 0.061337 0.010204 0.024344 0.007738 0.029934 
0.038977 0.085506 0.00083261 0.048677 0.058213 0.059693 0.010533 0.027632 
0.036675 0.049992 0.026152 0.061666 0.026646 0.015794 -0.0039354 0.019411 
0.074161 0.049828 0.0093821 0.053281 0.040128 0.033222 0.016288 0.023522 
0.047033 0.058049 0.019905 0.056569 0.034866 0.015137 -0.0039354 0.033222 
0.020233 0.033715 0.027796 0.057062 0.03092 0.020069 -0.0031133 0.023851 
0.030263 0.041278 0.041607 0.060679 0.029934 0.025001 0.016452 0.037168 
0.01711 0.038155 0.075312 0.086821 0.0085601 0.025988 0.0039565 0.022371 
0.015301 0.032893 0.061172 0.1026 0.033387 0.015137 -0.00097594 0.019411 
0.032564 0.067091 0.034866 0.12529 0.025166 0.015794 0.00297 0.030592 
0.016123 0.053445 0.028947 0.092411 0.017274 0.01711 -0.00064712 0.023357 
0.01974 0.043251 0.037826 0.084519 0.00017495 0.020891 0.0034632 0.024837 
0.039305 0.061008 0.024344 0.075476 0.020398 0.031249 -0.00081153 0.037332 
0.045882 0.041443 0.014315 0.065447 0.02681 0.019083 -0.0050863 0.026481 
0.029112 0.041936 0.018754 0.058213 0.015465 0.00017495 -0.014787 0.02533 
0.0324 0.034866 0.027796 0.06479 0.020398 0.02829 -0.0049219 0.044073 
0.032893 0.030756 0.037497 0.066598 0.015794 0.017932 -0.0072237 0.014315 
0.0079024 0.057391 0.053281 0.074326 0.018589 0.0087245 0.0021479 0.033058 
0.018096 0.041772 0.068078 0.08715 0.0074092 0.033715 -0.0047575 0.040621 
0.026317 0.037826 0.06331 0.10507 0.045224 0.027139 0.0019835 0.033058 
0.032893 0.061172 0.020891 0.10573 0.058542 0.021713 0.017438 0.044238 
0.027139 0.0324 0.014808 0.079916 0.04095 0.040128 0.01415 0.032564 
0.033551 0.013492 0.0074092 0.060515 0.032893 0.013492 -0.0026201 0.014972 
0.03651 0.058213 0.033551 0.070708 0.01152 0.02681 0.010369 0.038812 
0.029441 0.025988 0.056733 0.08715 0.046211 0.029276 0.0019835 0.024179 
0.015794 0.062159 0.034866 0.080244 0.019083 0.020562 -0.00064712 0.013328 
0.020562 0.039305 0.041607 0.073668 0.025659 0.027796 -0.00064712 0.010369 
0.02829 0.022371 0.04506 0.076463 0.011848 0.022864 -0.0004827 0.029934 
0.039799 0.066105 0.036675 0.073504 0.034702 0.021713 0.0016547 0.042923 
0.031249 0.037332 0.032236 0.064954 0.028619 0.041772 0.0069159 0.051143 
0.025659 0.03651 0.043087 0.077778 0.021056 0.0092177 -0.008539 0.047362 
0.048841 0.048841 0.025824 0.099974 0.030756 0.016452 -0.0055795 0.04654 
0.057227 0.04358 0.03092 0.086492 0.04506 0.038977 -0.0014692 0.038812 
0.024837 0.047197 0.033222 0.079751 0.04654 0.026481 0.00050378 0.004943 
0.010204 0.049006 0.026317 0.072517 0.031742 0.022206 0.019576 0.0062583 
0.015301 0.022371 0.020398 0.06594 0.0021479 0.032729 0.013164 0.027303 
0.041114 0.042265 0.035688 0.07301 0.0059294 0.015301 0.0028056 0.02681 
0.025824 0.024015 0.022371 0.065447 0.011684 0.01267 0.010533 0.039305 
0.023686 -0.019061 0.020562 0.057227 0.026974 0.014972 -0.0024557 0.032893 
0.019411 0.043909 0.042265 0.066434 0.026152 0.0088889 -0.0075525 0.028619 
0.042265 0.037497 0.059693 0.081067 0.030098 0.033551 0.010369 0.031578 
0.04358 0.025166 0.047197 0.084026 0.013821 0.012013 0.0056006 0.028125 
0.04506 0.03651 0.010369 0.091096 0.021384 0.01004 -0.0032777 0.037826 
0.050157 0.038155 -0.015609 0.06183 0.044402 0.010369 -0.020048 0.030427 
0.028619 0.063474 0.02122 0.064461 0.041936 0.019576 -0.0075525 0.020233 
0.024837 0.058213 0.017438 0.061337 0.037497 0.033222 0.0041209 0.0031344 
-0.00097594 0.040785 0.030263 0.066269 0.025824 0.036182 0.0046141 0.00017495 
-0.013636 0.040621 0.036675 0.074326 0.029276 0.012835 -0.013471 -0.018239 
0.01415 0.047033 0.025166 0.068242 0.017932 0.022371 0.00066819 0.016288 
0.018918 0.043087 0.024673 0.055254 0.025988 0.039305 0.0065871 0.045553 
0.052459 0.050321 0.02533 0.054103 0.0095465 0.01267 -0.0059084 0.02681 
0.05624 0.032729 0.034044 0.055254 0.014479 0.0051074 0.016945 0.049006 
0.050157 0.040621 0.049335 0.075641 0.013492 0.024673 0.00017495 0.048677 
0.042923 0.052952 0.018754 0.10096 0.014479 -0.015609 -0.022185 0.027468 
0.023686 0.035524 0.010204 0.078929 0.041443 0.011026 -0.0019624 0.018754 
0.023851 0.082546 -0.017746 0.049499 0.020233 0.027961 -0.0040998 -0.0088678 
0.025659 0.060022 0.0070803 0.050979 0.042594 0.011355 -0.0080457 -0.010183 
0.014643 0.048677 -0.0050863 0.043745 0.058871 0.026152 0.011355 0.014972 
0.018589 0.059857 0.01974 0.053774 0.020727 0.018096 0.00066819 0.0324 
0.041607 0.046046 0.02829 0.065283 0.016288 0.024344 -0.00064712 0.038977 
0.04095 0.057227 0.038155 0.067585 0.01004 0.03947 0.0082312 0.04506 
0.057227 0.07449 0.039799 0.070873 0.021878 0.022042 0.0014903 0.041278 
0.057391 0.051636 0.043251 0.069722 0.0064227 0.010204 -0.0080457 0.032564 
0.049006 0.050321 0.031578 0.076299 0.017438 0.037826 0.0036276 0.028783 
0.027303 0.035524 0.014808 0.09126 0.020233 0.035195 0.012999 0.049006 
0.034209 0.019576 0.023686 0.080409 0.027961 0.024015 0.013986 0.020398 
0.024179 0.03799 0.025495 0.075148 0.038155 0.032729 0.0080668 0.044238 
0.01267 0.036675 0.01152 0.064132 0.034044 0.012177 -0.006566 0.016452 
0.024179 0.035031 0.005765 0.05476 0.045224 0.019083 0.01152 0.022864 
0.030427 0.060679 0.02681 0.06035 0.046211 0.034866 0.004943 0.029441 
0.043251 0.050486 0.036346 0.076134 0.043416 0.032236 0.0088889 0.020562 
0.040128 0.076134 0.04654 0.074326 0.029769 0.038977 0.021384 0.032893 
0.03536 0.058377 0.043416 0.07301 0.025495 0.032564 0.020233 0.046868 
0.038648 0.029605 0.049335 0.076627 0.02533 0.015301 0.0034632 0.016781 
0.03092 0.01711 0.010697 0.077285 0.028619 0.042758 0.0095465 0.03799 
0.0092177 0.004943 0.0059294 0.089616 0.018425 0.022371 0.0031344 0.034702 
0.036017 0.04095 -0.0024557 0.060679 0.034537 0.020727 0.0016547 0.0069159 
0.025659 0.092576 0.017767 0.062817 0.019576 0.032564 0.0042853 0.030427 
0.073997 0.082217 0.044731 0.08008 0.024508 -0.0026201 -0.020212 0.061501 
0.067749 0.077614 0.041936 0.083533 0.041772 0.021549 -0.0075525 0.045389 
0.080244 0.055089 0.056898 0.086821 0.05065 0.046868 0.012506 0.058377 
0.065776 -0.0026201 0.044567 0.08304 0.043416 0.032893 0.0064227 0.062159 
0.033715 -0.048656 0.0069159 0.069558 0.031742 0.0062583 0.0092177 0.059528 
-0.009361 -0.10357 0.0088889 0.044731 0.026317 0.028619 0.0024767 0.061501 
-0.0014692 0.00017495 0.047362 0.048841 0.055747 0.012835 -0.011005 0.039799 
0.021056 0.10392 0.062159 0.098823 0.028783 0.0079024 0.0013258 0.0095465 
-0.013965 0.1419 0.062159 0.13121 0.022864 0.016123 -0.010512 -0.054246 
-0.049149 0.14321 0.06183 0.1151 0.042429 0.016288 -0.0098543 -0.069043 
-0.015773 0.10737 0.048348 0.10014 0.036839 0.026974 0.0079024 -0.051122 
0.048841 0.020562 0.009711 0.0689 0.016452 0.016781 0.0024767 0.05213 
0.10902 0.03388 0.0074092 0.057884 0.020727 0.013164 -0.0049219 0.10852 
0.10589 0.073504 0.022535 0.064625 0.041114 0.045553 0.018918 0.1077 
0.041114 0.061008 0.055582 0.085506 0.058213 0.045389 0.016123 0.075476 
0.014643 0.040292 0.044567 0.074161 0.048677 0.038812 0.016123 0.024015 
0.0087245 -0.0014692 0.022535 0.056076 0.037826 0.044073 0.012342 0.027139 
0.022206 -0.0049219 -0.0014692 0.045224 0.016452 0.02829 0.0036276 0.018918 
0.030263 0.015465 -0.0047575 0.052787 0.01004 0.0062583 -0.0047575 0.022371 
0.041607 -0.0070593 0.037332 0.097672 0.033222 0.04095 0.00297 0.039305 
0.044896 0.017603 0.054267 0.10014 0.027303 0.030427 0.007738 0.056076 
0.037826 0.015794 0.065612 0.10408 0.023028 0.01826 0.009711 0.050979 
0.03092 -0.009361 0.038155 0.089945 0.01974 0.027303 0.00033937 0.03536 
0.02533 0.036346 0.059857 0.095535 0.037826 0.021384 0.0021479 0.025166 
0.036182 0.089123 0.054925 0.094877 0.02122 0.028947 0.011191 0.010862 
0.027303 0.10211 0.050157 0.096193 0.028125 0.012177 -0.010019 0.030098 
0.029441 0.077778 0.050321 0.082382 0.015301 0.01267 -0.0072237 0.0065871 
0.053445 0.0041209 0.034866 0.066763 0.012999 0.010697 -0.009361 0.016616 
0.040456 0.04654 0.023851 0.060186 0.01974 0.017274 -0.0070593 0.034373 
0.01826 0.060186 0.02533 0.089452 0.055747 0.0098754 -0.0095255 0.0067515 
-0.012156 0.062652 0.0092177 0.097837 0.046211 0.02829 -0.003771 0.023686 
-0.027447 0.099974 0.038977 0.090438 0.049992 0.03092 0.0028056 0.036346 
0.0042853 0.063968 0.05624 0.09685 0.051801 0.012013 -0.0034422 0.047362 
0.023357 0.038155 0.035195 0.085999 0.03947 0.037661 0.0051074 0.018425 
0.034866 0.07597 0.035688 0.077943 0.0019835 0.01826 -0.011992 0.023357 
0.063803 0.1276 0.05772 0.091425 0.03092 0.033058 0.015137 0.021713 
0.11115 0.16738 0.10277 0.11674 0.016616 0.053609 0.012342 0.048348 
0.12924 0.12842 0.08567 0.11691 0.019905 0.037004 0.01415 0.08304 
0.13286 -0.035174 0.041772 0.078765 0.009711 0.014315 0.020727 0.071695 
0.027961 -0.22935 -0.017582 0.033058 0.010862 0.019576 -0.0016336 0.026646 
-0.073811 -0.27867 -0.047012 0.010533 0.028454 -0.020212 -0.035503 -0.0016336 
-0.04323 -0.087622 -0.04323 0.029769 0.02122 -0.004593 -0.021856 0.019411 
0.0018191 0.12891 -0.019061 0.035853 0.041772 0.043416 -0.0044286 0.034702 
0.065118 0.1641 0.03799 0.061666 0.010862 0.024344 0.0011614 0.075312 
0.076792 0.14996 0.049992 0.080738 0.029934 0.054103 0.038483 0.055418 
0.0421 0.10244 0.01267 0.064954 0.017438 0.032564 0.016288 -0.011663 
-0.0062372 0.023357 0.018096 0.060844 0.026317 0.040292 0.018754 -0.088773 
-0.036818 -0.12741 0.0079024 0.050321 0.027961 0.025659 0.0067515 -0.04619 
-0.038791 -0.32356 -0.038791 0.020562 0.023522 -0.00015387 -0.0090322 0.0056006 
-0.021363 -0.33819 -0.071345 -0.021199 -0.0078813 -0.00097594 -0.016924 0.03092 
0.057227 -0.09239 -0.024323 -0.0024557 -0.0098543 0.025824 -0.008539 0.073339 
0.11115 0.20306 0.040128 0.058049 0.018754 0.0088889 -0.01117 0.063474 
0.050814 0.48158 0.13072 0.16607 0.06479 0.03799 0.018096 -0.016102 
-0.014951 0.56823 0.13302 0.17034 0.064625 0.061337 0.028947 -0.051287 
-0.009361 0.42436 0.070215 0.13154 0.041443 0.038155 0.023028 -0.023336 
0.021384 0.27228 0.022864 0.090438 0.0031344 0.010369 0.0080668 0.0019835 
0.076956 0.17199 0.038648 0.083533 0.016123 0.014972 -0.0039354 0.08304 
0.12891 0.096686 0.10195 0.1151 0.010204 -0.032379 -0.034845 0.11937 
0.15407 0.090603 0.1031 0.13549 0.022042 0.028619 -0.0040998 0.097837 
0.14486 0.0064227 0.086328 0.12085 0.01267 0.03092 0.010369 0.099645 
0.1008 -0.094199 0.03799 0.082546 0.021549 0.024344 0.004943 0.067913 
0.017767 -0.182 -0.010348 0.038812 0.0083956 0.036346 0.012835 0.029276 
-0.061809 -0.24135 -0.027447 0.031578 0.0227 0.020891 0.00033937 -0.0021268 
-0.10045 -0.23313 -0.015116 0.055089 0.03947 0.017767 -0.0040998 -0.034845 
-0.088608 -0.14402 -0.012814 0.04506 0.0421 0.032236 0.00297 -0.026789 
-0.040764 -0.087622 -0.015773 0.036839 0.015301 0.0080668 -0.0098543 0.0032988 
0.020562 -0.049478 -0.0087034 0.034373 0.024837 -0.001798 -0.015116 0.013164 
0.075641 0.0227 0.022371 0.053938 0.027632 0.0227 0.0023123 0.026481 
0.056569 0.14634 0.0023123 0.049335 0.028454 0.031085 0.0067515 0.031742 
-0.001798 0.24564 -0.015444 0.042923 0.017603 0.021549 0.018096 -0.033694 
-0.070523 0.25271 0.010862 0.037497 0.0031344 0.012999 -0.0019624 -0.035996 
-0.015609 0.24564 0.079094 0.073668 0.035853 0.019905 0.00297 -0.0050863 
0.03651 0.30582 0.12299 0.12447 0.013164 0.019247 0.010204 0.039799 
0.10129 0.24811 0.13384 0.16607 0.022535 0.044402 0.0075736 0.069558 
0.11329 0.17001 0.088465 0.17133 0.033058 0.018096 -0.0013048 0.074326 
0.07597 0.10556 0.077614 0.14042 0.032893 0.036839 0.011026 0.036182 
0.077614 0.076956 0.060186 0.11822 0.037826 0.021384 0.0018191 0.034537 
0.09274 0.10885 0.033222 0.093562 0.046375 0.027632 0.0056006 0.058706 
0.07449 0.076956 -0.00031829 0.060515 0.046868 0.028947 0.0062583 0.070708 
0.011191 0.0093821 -0.037147 0.023028 0.028783 0.022371 0.0019835 0.045389 
-0.060494 -0.11245 -0.065262 0.004943 -0.0075525 -0.00031829 -0.02794 -0.030077 
-0.095514 -0.27308 -0.055397 -0.0096899 0.00066819 0.023193 -0.011663 -0.0021268 
-0.062467 -0.33276 -0.04882 -0.023007 -0.019719 0.02122 -0.0059084 0.042429 
-0.026296 -0.26946 0.04095 0.035688 0.024508 0.01563 0.0011614 0.025166 
0.054925 -0.043888 0.1026 0.10967 0.057555 0.040621 0.0039565 0.044731 
0.09981 0.25469 0.12513 0.17445 0.037661 0.022206 -0.00081153 0.058213 
0.096521 0.36846 0.12891 0.16985 0.042429 0.0021479 0.012177 0.033551 
0.11083 0.33953 0.086328 0.1465 0.031742 0.031249 0.0064227 0.036346 
0.078272 0.26291 0.064132 0.12233 0.020233 0.013821 -0.0021268 0.055747 
0.067749 0.18054 0.0023123 0.072681 0.028619 0.01415 0.0028056 0.022042 
0.086163 0.15193 0.004943 0.058049 0.027796 0.011848 0.0062583 0.067749 
0.055089 0.09422 0.05065 0.081724 0.059528 0.023522 0.0075736 0.082875 
-0.0004827 -0.027282 0.062488 0.088301 0.052623 0.050814 0.016452 0.032729 
0.0069159 -0.05885 0.055582 0.081231 0.03536 0.018425 0.0032988 0.035688 
0.063803 -0.047998 0.050979 0.065776 0.0082312 0.020398 0.0039565 0.045882 
0.05624 -0.24727 -0.021856 0.045718 0.021549 0.030427 0.00297 0.029441 
0.042429 -0.41661 -0.066906 0.044402 0.056569 0.014972 0.00297 0.047691 
0.055254 -0.28771 -0.014951 0.038319 0.039634 0.020398 0.0023123 0.047855 
0.084519 -0.038133 0.048841 0.073997 0.074654 0.04095 0.0090533 0.053445 
0.025495 0.076299 0.062817 0.093726 0.042429 0.01004 -0.0072237 0.030427 
-0.019719 0.073832 0.03651 0.078929 0.029441 0.016452 0.005765 0.0013258 
-0.072003 0.089452 -0.020706 0.041936 0.029441 0.027303 0.0018191 -0.0062372 
-0.098144 0.097015 -0.037969 0.019247 0.032071 0.0052718 -0.0096899 0.0092177 
-0.035832 0.12727 0.0021479 0.026152 0.033058 -0.0077169 0.00017495 -0.003771 
0.067091 0.23693 0.085012 0.079422 0.064296 0.027139 0.0016547 0.039963 
0.086163 0.26455 0.1562 0.15275 0.041443 0.0421 0.014479 0.046375 
0.089123 0.15999 0.11378 0.16607 0.020233 0.018425 0.013328 0.034209 
0.062323 0.09126 0.067913 0.16097 -0.0027845 0.014479 0.00017495 0.026481 
0.06742 0.075805 0.028125 0.10524 0.0080668 -0.006566 -0.015444 0.036839 
0.088958 0.048841 -0.0052507 0.06479 0.023028 0.010204 -0.017417 0.028125 
0.13565 0.076134 0.00083261 0.054432 0.013492 0.0065871 -0.013471 0.06035 
0.054103 0.097015 0.029769 0.061008 0.047526 0.045224 0.015137 0.052952 
-0.035338 0.085177 0.040785 0.075476 0.063968 0.066269 0.028125 0.0060938 
-0.10554 -0.040928 0.020727 0.060186 0.0592 0.048019 0.02533 -0.0090322 
-0.094199 -0.2596 -0.030899 0.020398 0.048677 0.017767 0.0098754 0.0070803 
-0.032708 -0.40889 -0.052273 -0.006566 0.0421 0.028125 0.0013258 0.055089 
0.018918 -0.56097 -0.081539 -0.03501 0.034866 0.01826 -0.0044286 0.050157 
0.096521 -0.47662 -0.11311 -0.040928 0.01711 0.013821 0.0036276 0.072024 
0.10129 -0.13448 -0.060823 1.0539e-005 0.0075736 0.027468 0.0082312 0.056898 
-0.010019 0.14404 0.025001 0.044567 0.039305 0.035524 0.013821 -0.001798 
-0.066906 0.19073 0.066763 0.083204 0.05213 0.020727 0.020233 -0.031886 
-0.049478 0.20454 0.082546 0.10902 -0.025474 0.018425 0.0019835 0.004943 
0.0044497 0.20931 0.072846 0.10869 0.015794 0.0075736 -0.0064016 0.031578 
0.016781 0.29744 0.091589 0.12299 0.012506 0.029605 0.0014903 0.032564 
0.059528 0.35925 0.11313 0.13582 0.01711 0.024015 0.0064227 0.015794 
0.09274 0.34544 0.12694 0.14519 0.031414 0.02681 0.0082312 0.046868 
0.090109 0.30927 0.12612 0.14683 0.038483 0.034866 0.012177 0.034044 
0.051143 0.16936 0.093562 0.13006 0.029934 0.029769 0.007738 0.023028 
-0.0032777 -0.0138 0.024673 0.1008 0.027139 -0.0019624 -0.006566 0.012177 
0.011026 -0.10127 -0.034188 0.072517 0.0085601 0.0227 -0.01232 0.0087245 
0.02122 -0.021034 -0.0057439 0.053609 0.004943 -0.0087034 -0.021528 0.016781 
0.066763 0.10014 -0.0014692 0.048019 0.0079024 0.020233 -0.0067304 0.054432 
0.069558 0.10622 0.020727 0.051965 0.033058 0.048677 0.010697 0.064296 
0.021056 0.058542 0.01004 0.051965 0.028454 0.039799 0.010697 0.017767 
-0.037311 0.043087 -0.012814 0.037826 0.036839 0.019083 0.017274 -0.02646 
-0.01528 0.040292 -0.004593 0.034373 0.02122 0.019905 -0.0019624 -0.030735 
0.072024 0.0042853 0.022042 0.048841 0.017438 -0.0050863 -0.025145 0.011848 
-0.0040998 -0.070194 0.027632 0.05065 0.0082312 0.0082312 -0.00015387 0.00297 
-0.048656 -0.18282 0.027303 0.056076 0.019411 0.02681 0.0023123 0.045718 
0.0082312 -0.20633 0.01004 0.068407 0.040621 0.030756 0.0079024 0.055089 
0.031578 -0.16539 0.019247 0.097508 0.058871 0.045553 0.027303 0.031414 
-0.035174 -0.23181 0.0060938 0.068078 0.046704 0.037661 0.017767 -0.0064016 
-0.048492 -0.28344 -0.023336 0.039799 0.021549 0.020233 0.0016547 -0.013471 
-0.0057439 -0.22606 -0.028597 0.024837 0.0085601 0.041278 0.014315 0.01152 
0.066434 0.039305 0.033222 0.062488 0.0070803 0.022042 0.0021479 0.063639 
0.10606 0.38885 0.073997 0.093562 0.0026412 0.027468 0.0062583 0.10228 
0.10014 0.5485 0.089616 0.11642 0.0047785 0.041278 0.010533 0.069393 
0.10622 0.55063 0.099316 0.12053 0.0036276 0.01267 -0.008539 0.062488 
0.054596 0.49342 0.085506 0.11757 -0.0044286 0.0067515 -0.012156 -0.0027845 
0.0034632 0.46596 0.092411 0.12053 -0.0138 0.027139 -0.017417 -0.078908 
0.035524 0.46481 0.079094 0.13286 0.0019835 0.0070803 -0.016266 -0.028269 
0.064132 0.42666 0.040128 0.12908 -0.0047575 -0.023501 -0.013636 0.016288 
0.079258 0.28872 0.03092 0.098494 0.015794 0.023357 -0.0088678 0.049664 
0.080244 0.11609 0.069064 0.10721 0.04506 0.025495 1.0539e-005 0.05624 
0.050979 -0.14517 0.050486 0.10129 0.04358 0.033387 0.015959 0.037661 
0.023357 -0.39277 0.034373 0.085012 0.0227 0.038648 0.013492 0.023357 
-0.029913 -0.64219 -0.028433 0.038977 0.01563 0.020398 0.0046141 0.01974 
-0.038462 -0.49109 -0.021692 0.028454 0.0032988 0.041936 0.021713 -0.0059084 
-0.016595 -0.0019624 0.040785 0.056404 0.0039565 0.02533 0.010533 0.019411 
0.026152 0.24236 0.059857 0.07301 0.022042 0.02122 0.0041209 0.051636 
0.097837 0.15209 0.0689 0.088958 0.019576 0.035524 0.010369 0.063803 
0.15308 0.098166 0.00297 0.060679 0.063474 0.052952 0.022371 0.066598 
0.14634 0.062488 0.0014903 0.078929 0.04506 0.030427 0.010533 0.079751 
0.13878 0.13171 -0.003771 0.061172 0.058871 0.056898 0.020233 0.070708 
0.026317 0.16327 0.012013 0.058049 0.047362 0.026646 0.0056006 0.0065871 
-0.055726 0.13088 0.018096 0.059693 0.017767 -0.0004827 -0.0032777 -0.0068948 
-0.089924 0.060186 -0.04471 0.020398 -0.00081153 0.015465 -0.013143 -0.041422 
-0.073154 0.031414 -0.070359 -0.0026201 0.0032988 -0.0064016 -0.028104 -0.032708 
-0.035338 0.093069 -0.023336 0.012342 0.00033937 0.014479 0.0064227 0.0041209 
0.044567 0.18152 0.052623 0.059528 0.02533 0.0421 0.0098754 0.017603 
0.045553 0.14437 0.11494 0.1105 0.038483 0.029605 0.0090533 0.024344 
0.056404 0.09685 0.15061 0.15045 0.022864 0.025988 0.018754 0.040456 
0.079094 0.18596 0.17725 0.20142 0.031085 0.009711 -0.0082102 0.027468 
0.043909 0.21474 0.14305 0.22328 0.016452 0.00083261 -0.016431 0.032564 
-0.027447 0.054432 0.060515 0.14667 0.01826 0.016781 -0.0019624 0.017438 
0.0075736 -0.13596 -0.028433 0.067256 0.029441 0.019247 -0.0022913 0.037004 
0.076299 -0.1649 -0.070359 0.017603 0.040621 0.015137 -0.0029489 0.080244 
0.11313 -0.017911 -0.0088678 0.030427 0.062488 0.048019 0.013164 0.063968 
0.10688 0.061172 0.05476 0.072846 0.053774 0.036182 0.012835 0.044402 
0.12151 0.1202 0.083368 0.10573 0.030756 0.023686 0.0046141 0.062817 
0.12381 0.083862 0.089945 0.10507 0.026974 0.049664 0.01826 0.05772 
0.065776 -0.025638 0.029276 0.072024 0.027303 0.022206 0.0019835 0.019411 
-0.031064 -0.02942 -0.021363 0.038319 0.0095465 0.028783 0.016616 0.00099702 
-0.070359 0.033551 -0.027611 0.040128 -0.0049219 0.014315 -0.0039354 -0.03501 
-0.076277 -0.042901 -0.0088678 0.068407 0.016288 0.005765 -0.0096899 0.0031344 
-0.058521 -0.076935 0.0059294 0.061337 0.035688 0.025988 0.017603 0.037004 
0.03651 -0.042408 0.031085 0.071859 0.037826 0.038483 0.0014903 0.038155 
0.091096 0.055911 0.050814 0.085999 0.038483 0.020233 0.00083261 0.055089 
0.12332 0.16525 0.046211 0.089123 0.038648 0.024673 0.0041209 0.063474 
0.076956 0.074819 0.013821 0.067749 0.03947 0.011355 -0.0067304 0.041772 
0.010369 -0.096829 -0.014622 0.026481 0.046868 0.015301 -0.0068948 0.036839 
-0.022185 -0.14204 -0.038956 0.005765 0.03651 0.018589 -0.010019 0.038155 
-0.041093 -0.11442 -0.013636 0.011684 0.0044497 0.0052718 -0.015444 0.028125 
-0.041586 -0.073482 0.021878 0.044238 0.0021479 0.0065871 -0.018733 0.01004 
0.00033937 -0.055726 0.044402 0.090931 0.0069159 0.032564 -0.0070593 -0.0070593 
0.038977 0.034373 0.058049 0.11937 0.039963 0.0070803 -0.01676 0.024344 
0.078272 0.12332 0.089616 0.13023 0.036839 0.021056 -0.0019624 0.033551 
0.083204 0.16442 0.078929 0.12661 0.068571 0.050979 0.010697 0.034702 
0.040292 0.19221 0.11609 0.14848 0.063968 0.03536 0.0098754 0.037826 
-0.0057439 0.18547 0.065612 0.11658 0.040785 0.041607 0.038812 0.029441 
0.0075736 0.1391 0.0083956 0.073175 0.058706 0.04095 0.017274 0.017274 
0.11214 0.12595 0.030427 0.047855 0.035688 0.025659 0.0074092 0.036839 
0.16064 0.08156 0.0083956 0.044238 0.050979 0.015794 0.01974 0.08715 
0.15292 0.009711 0.015465 0.04654 0.062323 0.037826 0.0037921 0.10704 
0.1054 -0.069701 0.041607 0.066763 0.040292 0.010533 -0.0047575 0.054432 
0.01974 -0.14977 0.0034632 0.07301 0.029934 0.028125 0.0034632 0.033058 
-0.057699 -0.22885 -0.038298 0.05213 0.035524 0.02681 0.0016547 0.0098754 
-0.097487 -0.25763 -0.038298 0.015794 0.024673 0.024344 0.0072447 -0.014458 
-0.093541 -0.19219 -0.055068 0.00050378 -0.0091966 0.0019835 -0.012978 -0.027611 
-0.056877 0.054103 0.0074092 0.035853 0.016123 0.0052718 -0.010841 0.0039565 
-0.044217 0.21424 0.076956 0.087643 0.014808 0.01711 -0.0032777 0.022206 
0.014315 0.15423 0.10211 0.11609 0.032729 0.051308 0.017603 0.024508 
0.095371 0.1008 0.089945 0.11872 0.036017 0.030756 0.0067515 0.050321 
0.1539 0.062817 0.070215 0.11017 0.032236 0.027961 0.011684 0.082217 
0.12464 0.012835 0.0421 0.077449 0.023357 0.028947 0.0054362 0.033715 
0.036675 -0.0016336 -0.0050863 0.054267 0.041114 0.009711 -0.0073881 0.011191 
-0.063124 -0.014293 -0.0087034 0.062652 0.040292 0.01974 0.0088889 0.029441 
-0.1159 0.0098754 0.016452 0.082217 0.029605 0.041936 0.011355 0.0039565 
-0.10505 -0.0040998 0.042923 0.076792 -0.013636 0.013328 -0.0055795 0.0092177 
-0.033859 -0.010512 0.03947 0.081395 0.017603 0.026481 0.0087245 0.0056006 
0.091425 0.04358 0.020233 0.066105 0.018096 0.023357 -0.0019624 0.038812 
0.16262 0.079422 -0.027611 0.033551 0.0064227 0.019576 -0.00064712 0.07301 
0.1807 0.084848 0.0075736 0.038483 0.022042 0.056569 0.024508 0.1054 
0.12349 0.17643 0.047855 0.066927 0.038155 0.034373 0.011355 0.024344 
0.033551 0.21161 0.062981 0.076299 0.048513 0.024673 0.0014903 -0.048163 
0.0023123 0.1299 0.040128 0.067256 0.0064227 0.031414 0.00297 -0.037969 
0.013492 0.082382 0.005765 0.045718 0.013164 0.0065871 -0.010676 0.020727 
0.025495 0.022206 0.0052718 0.064625 0.023522 0.019576 -0.0029489 0.060844 
0.029934 0.031085 0.02122 0.090274 0.039141 0.048841 0.012342 0.064296 
0.023193 0.12661 0.047362 0.088958 0.022864 0.011684 -0.0064016 0.031907 
-0.025967 0.089945 0.029934 0.081067 0.0095465 0.013657 -0.006566 0.016288 
-0.028926 0.027303 0.051308 0.087314 0.010862 0.022371 -0.0070593 -0.012814 
-0.0040998 0.0075736 0.04506 0.090438 0.01563 0.0095465 -0.01676 0.01826 
0.062488 0.063639 0.055911 0.093891 0.01004 0.026646 0.011848 0.035524 
0.094713 0.14058 0.06183 0.098494 0.0075736 0.027632 -0.0091966 0.014643 
0.010533 0.090438 0.071202 0.10014 0.014972 0.011684 -0.010183 -0.025967 
-0.014622 0.054596 0.07597 0.098988 0.02681 0.032729 0.015301 -0.0040998 
-0.0082102 0.042758 0.078765 0.10787 0.029112 0.036346 0.012999 0.024508 
0.01711 -0.023007 0.030427 0.10244 0.031907 0.022371 0.0036276 0.046211 
0.047855 -0.03205 -0.012814 0.080244 0.03947 0.03799 0.0098754 0.071859 
0.061995 0.089452 -0.018897 0.048348 0.045389 0.025659 -0.00064712 0.029934 
0.089123 0.21095 0.02681 0.056733 0.050157 0.032071 0.007738 0.019905 
0.11017 0.31536 0.049499 0.079751 0.019576 0.036182 0.0090533 0.049664 
0.15028 0.29267 0.033058 0.072681 0.0062583 0.0024767 -0.013636 0.060515 
0.15489 0.26488 0.071695 0.095699 0.019247 0.021384 -0.0016336 0.049992 
0.099481 0.22098 0.072353 0.10836 0.012835 0.039141 0.0075736 0.034044 
0.043087 0.17462 0.078272 0.10129 0.010369 0.027632 0.0023123 0.0021479 
-0.016924 0.11231 0.063639 0.096028 0.016945 -0.004593 1.0539e-005 -0.013471 
-0.0029489 0.058049 0.052294 0.085012 -0.0042642 0.01563 -0.010676 0.0082312 
0.042758 -0.052109 -0.0062372 0.071366 -0.0026201 0.027468 0.0016547 0.02829 
0.0018191 -0.18167 -0.049478 0.053116 0.021384 0.027961 0.015465 0.032729 
-0.070852 -0.25976 -0.075291 0.0026412 0.058871 0.031085 0.011355 -0.015938 
-0.13464 -0.31254 -0.10817 -0.039284 0.031742 0.0039565 -0.0073881 -0.017911 
-0.15355 -0.24266 -0.11607 -0.060165 0.024179 0.0024767 -0.0021268 -0.028597 
-0.052766 0.042923 -0.06148 -0.034681 0.0052718 0.0018191 -0.011334 -0.011827 
0.057555 0.27902 0.042594 0.037004 0.036839 0.0051074 -0.0138 0.016123 
0.11132 0.29744 0.097837 0.09833 0.034044 0.041114 0.0088889 0.055582 
0.12497 0.16969 0.13549 0.14486 0.025659 0.043251 0.014808 0.064132 
0.12743 0.10458 0.14338 0.15522 0.050979 0.038648 0.017932 0.068407 
0.11181 0.05476 0.10622 0.15423 0.044731 0.047691 0.01974 0.0786 
0.056569 -0.056877 0.0689 0.14174 0.035031 0.032071 0.010533 0.043909 
0.03536 -0.074962 0.037168 0.13203 0.040128 0.025824 0.0060938 0.04095 
0.017603 -0.034352 0.038812 0.10129 0.029276 0.046704 0.01267 0.067749 
0.034702 0.015137 0.01711 0.078765 0.045718 0.042758 0.019411 0.050814 
0.046704 0.090438 0.030592 0.073504 0.060186 0.034209 0.030263 0.0592 
0.047362 0.052787 0.0032988 0.057391 0.047033 0.031742 0.0098754 0.029112 
0.051143 -0.009361 -0.018568 0.037661 0.025001 0.01267 -0.0068948 0.012835 
-0.021856 -0.1062 -0.047669 0.0054362 0.01267 0.005765 0.0036276 0.0085601 
-0.084334 -0.22474 -0.069536 -0.017088 0.0039565 0.0059294 -0.012814 -0.039942 
-0.081374 -0.23921 -0.038133 -0.013307 0.01267 0.0018191 -0.016595 -0.022843 
-0.015938 -0.16407 -0.0031133 0.020233 0.0051074 0.0075736 -0.0032777 0.025495 
0.062159 0.0032988 0.02533 0.063803 0.039634 0.0047785 -0.015773 0.050979 
0.072681 0.14404 0.03388 0.099152 0.019576 -0.0078813 -0.020377 0.046704 
0.060679 0.23019 0.080738 0.11494 0.014479 0.019576 -0.0077169 0.056569 
0.077943 0.30533 0.13631 0.1539 0.025166 0.029605 0.00297 0.031085 
0.079587 0.24367 0.12497 0.16212 0.058706 0.026646 0.0060938 0.057062 
0.050321 0.0072447 0.061172 0.12414 0.071859 0.043745 0.01563 0.051636 
0.013657 -0.12609 -0.0052507 0.070708 0.051965 0.037497 0.013986 0.045389 
0.038483 -0.093705 -0.016102 0.034866 0.035031 0.0227 0.0080668 0.049992 
0.051965 -0.0064016 -0.0059084 0.026317 0.035853 0.036346 0.010369 0.057555 
0.027796 0.073997 -0.040764 0.0059294 0.019411 0.027303 0.0051074 0.040785 
-0.027447 -0.099789 -0.069865 -0.021528 0.017603 0.016452 0.012506 0.0052718 
0.00066819 -0.12593 -0.067728 -0.017746 0.019247 0.014479 -0.010183 0.015794 
0.013986 0.055582 0.0047785 0.041936 0.02533 0.0085601 -0.014787 0.0018191 
0.043087 0.15226 0.05624 0.078272 0.026152 0.024673 0.010533 0.062159 
0.09274 0.15982 0.082053 0.1077 0.051801 0.039799 0.016452 0.025001 
0.064625 0.066927 0.087314 0.12118 0.044402 0.021549 0.0032988 0.048841 
-0.010019 -0.064604 0.08978 0.13335 0.030263 -0.0014692 -0.0072237 0.047691 
-0.032543 0.0093821 0.11148 0.14305 0.029276 0.024344 -0.0064016 0.010204 
0.031414 0.14338 0.13582 0.15735 0.023851 0.021878 0.00066819 0.056404 
0.1276 0.28362 0.12677 0.15637 0.047197 0.040785 0.017603 0.092247 
0.20191 0.34035 0.10935 0.1322 0.060515 0.032729 0.011191 0.086821 
0.17676 0.21737 0.073668 0.11954 0.042758 0.012835 -0.0016336 0.07038 
0.041278 0.041278 -0.01117 0.095864 0.037004 0.041443 0.018754 0.0046141 
-0.19285 -0.084663 -0.072332 0.029441 0.017603 0.00017495 -0.015609 -0.11968 
-0.26864 -0.077428 -0.068386 -0.0050863 0.012999 -0.0055795 -0.023829 -0.13349 
-0.11245 0.10639 0.0051074 0.03092 0.017932 0.015137 -0.015938 -0.035338 
0.051636 0.18037 0.085341 0.091918 0.038155 0.0021479 -0.021363 0.041114 
0.12398 0.092576 0.095371 0.11609 0.023522 0.024673 -0.00031829 0.084355 
0.09422 0.0098754 0.06331 0.11 0.030098 0.049664 0.0085601 0.091589 
0.06479 -0.063946 0.035853 0.080244 0.029769 0.031414 0.0075736 0.070708 
0.048348 -0.0082102 0.012506 0.064296 0.023851 0.021713 0.022371 0.062817 
0.060186 0.054103 0.026974 0.054596 0.032729 0.024837 0.0062583 0.042758 
0.064461 0.068736 0.029605 0.074819 0.029276 0.007738 -0.0082102 0.038155 
0.064625 0.080244 0.027961 0.095042 0.025001 0.021384 0.011026 0.035688 
0.089616 0.14502 0.056898 0.1077 0.033551 0.024837 0.00050378 0.027303 
0.087972 0.15028 0.066763 0.10787 0.024508 0.0070803 -0.0068948 0.0227 
0.06594 0.14601 0.054432 0.10145 0.024344 0.032893 0.0095465 0.041114 
0.06331 0.088794 0.031907 0.085012 0.025001 0.033715 0.0088889 0.049006 
0.055582 0.016781 0.034866 0.077449 0.031742 0.015959 0.0014903 0.032071 
0.032071 -0.069372 0.019576 0.066269 0.04095 0.020891 -0.0027845 0.032564 
-0.019555 -0.12462 0.024015 0.058377 0.027961 0.016123 -0.0098543 -0.0073881 
-0.034681 -0.092554 0.033058 0.047691 0.011026 0.0074092 -0.01232 0.017603 
-0.034845 -0.012814 0.045389 0.063474 0.012999 0.032071 0.0028056 0.020398 
-0.060494 -0.0044286 0.019576 0.05476 0.010369 -0.008539 -0.023007 -0.00097594 
-0.052109 -0.10357 -0.050464 0.038155 0.016288 -0.013636 -0.028104 -0.00031829 
-0.044217 -0.1478 -0.072003 0.011191 -0.0014692 0.0079024 -0.018404 0.0037921 
-0.020706 -0.084498 -0.02794 0.018096 0.0046141 0.017603 -0.0096899 0.0014903 
0.01563 0.037332 0.0421 0.061008 0.01974 0.031742 0.028619 0.045882 
0.055582 0.12957 0.070873 0.095864 0.056569 0.059528 0.036182 0.053116 
0.094877 0.13286 0.091753 0.1151 0.053116 0.0689 0.048677 0.028125 
0.13943 0.18021 0.057391 0.10178 0.038977 0.038483 0.041443 0.051801 
0.13976 0.11855 0.044567 0.085506 0.030756 0.031578 0.025824 0.034044 
0.10556 0.090603 0.061337 0.077449 0.021384 0.024179 0.007738 0.032729 
0.075476 0.034209 0.017438 0.0689 0.020069 0.046704 0.027468 0.041936 
0.070873 -0.038956 -0.0004827 0.050157 0.029934 0.0087245 -0.0016336 0.016945 
0.049006 -0.075127 -0.035667 0.039799 0.053938 0.020562 -0.0072237 0.013821 
-0.003771 -0.0771 -0.0042642 0.057391 0.038155 0.017438 -0.0080457 0.034702 
-0.0771 -0.0040998 0.026646 0.067585 0.044896 0.016945 -0.009361 0.0019835 
-0.083676 0.052459 0.03651 0.075641 0.021056 0.019083 -0.0054151 0.018425 
0.00033937 0.062323 0.039799 0.079422 0.0092177 0.032729 0.00033937 0.042758 
0.099481 0.072681 0.05772 0.090438 0.01152 0.035195 -0.00081153 0.06479 
0.17297 0.088301 0.041772 0.085341 0.024179 0.028619 0.014643 0.081395 
0.14897 -0.025802 0.031742 0.071531 0.028947 0.037168 0.016945 0.06479 
0.069886 -0.060987 -0.013307 0.037661 0.016616 0.035031 0.014479 0.020891 
0.0018191 -0.062302 -0.032543 0.012013 0.03536 0.037332 0.04654 -0.0024557 
-0.071838 -0.072332 -0.050958 -0.0052507 0.017932 0.026481 0.013821 -0.014787 
-0.099624 0.017932 -0.069043 -0.0011404 0.029934 0.0079024 -0.0024557 -0.047505 
-0.066413 0.08715 -0.0072237 0.048348 0.055747 0.018096 0.010697 -0.0036066 
-0.051615 0.066763 0.046046 0.075641 0.050157 0.042594 0.01711 0.02533 
-0.014622 0.037004 0.069064 0.098659 0.053281 0.025166 0.0087245 0.031085 
0.065283 0.055254 0.080573 0.11395 0.045389 0.022864 0.0064227 0.066434 
0.13976 0.075641 0.055747 0.10408 0.024837 0.011026 -0.0047575 0.10145 
0.15357 0.085835 0.049006 0.097015 0.038977 0.0013258 -0.011663 0.085177 
0.13746 0.097179 0.046868 0.087808 0.0324 0.034702 0.00050378 0.05065 
0.09981 0.13516 0.055089 0.086163 0.021878 0.023357 -0.0026201 0.048841 
0.084848 0.1733 0.089452 0.1026 0.028783 0.019247 -0.00031829 0.033387 
0.040292 0.18629 0.09126 0.11724 0.027796 0.028125 -0.0004827 0.057555 
-0.0054151 0.18958 0.043251 0.11526 0.028454 0.019905 -0.0049219 0.016452 
-0.0047575 0.13384 0.031578 0.11707 0.027961 0.024837 0.011355 0.013821 
0.0041209 0.15966 0.0090533 0.076299 0.024179 0.023686 0.0046141 0.023686 
0.024508 0.2052 0.027468 0.075641 0.028619 0.01152 -0.0057439 0.012506 
0.051308 0.21671 0.043909 0.084684 0.041607 0.02122 0.017603 0.013986 
0.05065 0.14733 0.048677 0.087314 0.027961 0.032564 0.0065871 0.039634 
0.021056 -0.017746 0.029934 0.07597 0.024673 0.019247 0.00017495 0.0074092 
0.015465 -0.1935 -0.0062372 0.043087 0.021384 0.01826 0.0075736 0.024344 
-0.0088678 -0.18594 -0.03353 0.011026 0.015137 0.028125 0.0074092 0.02829 
-0.0054151 -0.08121 -0.017911 0.0070803 0.017438 0.0031344 -0.012649 0.0036276 
0.012999 -0.013471 0.026152 0.040292 0.037004 0.039305 0.00066819 0.028783 
-0.017088 -0.15865 0.025495 0.077121 0.0324 0.020233 -0.0011404 0.011848 
-0.042901 -0.23822 0.016452 0.090109 0.048184 0.035031 0.0032988 0.011026 
-0.017253 -0.056548 0.041772 0.088958 0.038155 0.041443 0.01267 0.033715 
0.0028056 0.15834 0.041607 0.085012 0.019083 0.037004 0.015465 0.0069159 
0.032236 0.2611 0.041114 0.08419 0.03651 0.0051074 -0.0019624 0.026646 
0.038483 0.28609 0.03388 0.080902 0.023686 0.0090533 0.0024767 0.024673 
0.041114 0.17774 0.023851 0.073339 0.027139 0.007738 -0.012156 0.012506 
0.04358 0.17708 0.035524 0.071366 0.036017 0.031085 0.0024767 0.043416 
0.063145 0.23085 0.033715 0.062817 0.033222 0.016616 -0.0075525 0.042758 
0.069393 0.20602 0.073668 0.077614 -0.0059084 0.012177 -0.0090322 0.05065 
0.11395 0.17495 0.059857 0.091753 0.033551 0.03651 0.024344 0.06035 
0.14913 0.097015 0.03799 0.11576 0.031414 0.039305 0.026481 0.079916 
0.12513 -0.045368 0.04506 0.11181 0.032893 0.028783 0.011191 0.060679 
0.062817 -0.11031 0.024179 0.086985 0.026317 0.044731 0.016616 0.029112 
-0.0036066 -0.07973 0.026481 0.076792 0.014808 0.0065871 -0.0067304 -0.0075525 
-0.023501 0.076792 0.039305 0.081395 0.024015 -0.0050863 -0.021856 -0.024816 
-0.028104 0.26406 0.089945 0.11346 0.033715 -0.00031829 -0.017911 -0.018568 
0.0067515 0.33344 0.11806 0.14026 0.03947 -0.001798 -0.023172 -0.06444 
0.05476 0.28067 0.10967 0.14009 0.035031 0.017603 -0.0083746 -0.046519 
0.084026 0.10902 0.093069 0.12612 0.051472 0.052952 0.01415 0.070215 
0.077121 -0.19153 0.058377 0.096357 0.015137 0.03947 0.019411 0.086821 
0.037332 -0.35545 -0.023665 0.045718 0.031742 0.026152 0.016288 0.073997 
-0.0011404 -0.31649 -0.08269 0.015794 0.010697 0.029276 0.0032988 0.053774 
-0.060165 -0.27177 -0.094199 -0.014129 0.018918 0.023686 -0.0004827 -0.0138 
-0.12938 -0.35677 -0.07825 -0.027611 0.025166 -0.00031829 -0.0024557 -0.051944 
-0.12445 -0.31616 -0.047341 -0.010841 0.015959 0.021713 -0.0060728 -0.025638 
0.018096 -0.079237 0.0044497 0.023522 0.035853 0.031578 0.0079024 0.018918 
0.10589 0.19977 0.085341 0.08567 0.043087 0.039305 0.025495 0.061337 
0.14338 0.34709 0.12529 0.13565 0.057391 0.044731 0.012506 0.10573 
0.11658 0.37586 0.11362 0.1373 0.050979 0.033387 0.01004 0.059857 
0.056569 0.33624 0.12529 0.1373 0.038483 0.043251 0.019247 0.03947 
0.0031344 0.28165 0.090109 0.12562 0.010369 0.023686 0.0067515 -0.0022913 
0.030098 0.21687 0.078107 0.12628 -0.013143 0.034209 0.013164 0.026646 
0.03651 0.055089 0.027303 0.12053 0.026646 0.051801 0.022371 0.021549 
0.016781 -0.045368 0.010369 0.080738 0.030098 0.040128 0.022206 0.025166 
0.0031344 -0.058685 -0.0075525 0.05476 0.0039565 0.034866 0.015301 0.0087245 
-0.0047575 -0.075784 0.0021479 0.049992 0.019905 0.04095 0.012506 0.031249 
0.014808 -0.059507 0.019083 0.056404 0.02681 0.044402 0.016616 0.030756 
0.009711 -0.041257 0.026481 0.06479 0.028619 0.049664 0.033058 0.021056 
0.0042853 -0.048656 0.0070803 0.056076 0.027632 0.060022 0.02681 0.032071 
0.020069 -0.049149 0.00050378 0.039799 0.012177 0.024508 0.009711 0.035195 
0.066763 -0.017417 0.021549 0.031907 0.020069 0.0088889 -0.00097594 0.042758 
0.090767 0.020727 0.078929 0.085835 0.041607 0.0421 0.0056006 0.06479 
0.065283 -0.0014692 0.066105 0.10326 0.076299 0.062981 0.030427 0.043416 
0.0031344 -0.10702 -0.011498 0.076956 0.011026 0.036839 0.032564 0.049006 
-0.030735 -0.12314 -0.017253 0.038812 0.0095465 0.031249 0.016452 0.022042 
-0.030735 -0.050464 -0.0088678 0.036839 0.015137 0.042758 0.023193 0.020069 
-0.052602 -0.017582 0.024015 0.059528 0.020233 0.04095 0.02829 0.037661 
-0.057863 -0.062467 0.014972 0.0592 0.011848 0.02533 0.010369 0.020233 
-0.021199 -0.03912 0.027139 0.062488 0.017603 0.020727 0.0088889 0.033387 
0.039305 0.01004 0.039305 0.073668 0.026481 0.041607 0.012013 0.041114 
0.083368 0.1003 0.046211 0.075476 0.020727 0.0046141 -0.0049219 0.039305 
0.12201 0.18185 0.084026 0.098659 0.019083 -0.029584 -0.03057 0.039634 
0.16426 0.30253 0.11691 0.12595 0.053116 0.00017495 -0.028926 0.051143 
0.16771 0.36386 0.088958 0.12924 0.010533 0.0013258 -0.021692 0.055911 
0.17511 0.3466 0.051636 0.13467 0.027468 -0.011005 -0.016266 0.035524 
0.079916 0.28905 0.031249 0.10211 0.027632 0.011848 -0.014787 0.032236 
-0.039942 0.18744 -0.0026201 0.066598 0.028783 0.0067515 -0.013965 -0.0022913 
-0.18479 0.03388 0.019576 0.063145 0.012177 0.0095465 -0.0014692 -0.056219 
-0.15174 0.0032988 0.031907 0.076627 0.024673 0.0088889 -0.013143 -0.02235 
-0.038627 0.017603 0.026646 0.072353 0.034044 0.0032988 -0.01528 0.019905 
0.051636 -0.029913 0.0065871 0.05624 0.029441 0.01415 -0.003771 0.088794 
0.096686 -0.057863 0.037168 0.063474 0.0059294 0.0021479 -0.015938 0.11 
0.12168 -0.13744 0.013492 0.047691 0.00033937 -0.001798 -0.018897 0.082546 
0.077778 -0.15552 -0.014129 0.024673 -0.017911 -0.008539 -0.014129 0.055418 
0.0088889 -0.053095 -0.024487 0.020069 0.017438 0.011191 -0.013965 0.043416 
0.013657 0.013986 -0.045532 0.049992 0.022371 -0.0047575 -0.019884 0.031085 
0.017603 0.063639 0.044238 0.087808 0.042758 0.023851 -0.010512 0.024179 
0.042265 0.061666 0.05624 0.094713 0.030756 0.011355 -0.0091966 0.024508 
0.021384 0.078436 0.011026 0.071695 0.026974 -0.0083746 -0.015116 0.011684 
0.05624 0.17018 0.0065871 0.061501 0.01267 0.020398 -0.018404 0.0324 
0.12973 0.20799 0.055089 0.081889 0.028619 -0.0072237 -0.023665 0.041936 
0.14848 0.18711 0.092904 0.10951 0.031907 -0.018733 -0.022843 0.036839 
0.10063 0.17412 0.081231 0.10639 0.018425 0.0083956 -0.018404 0.026481 
0.024837 0.1248 0.070051 0.098166 0.0088889 -0.015116 -0.030735 0.0039565 
-0.0014692 0.059693 0.030592 0.07301 0.0032988 0.0046141 -0.019555 -0.020048 
0.0059294 0.019247 0.010862 0.057884 0.022206 0.011684 -0.011005 0.022371 
0.043087 -0.023336 0.013657 0.076134 0.034866 0.012999 -0.0059084 0.041607 
0.010697 -0.05441 -0.011005 0.069229 0.046211 0.022535 -0.0032777 0.039141 
-0.0019624 -0.066248 0.011684 0.060844 0.066763 0.030098 0.0036276 0.050814 
0.044896 0.019905 0.057555 0.086821 0.076299 0.035195 0.011848 0.059364 
0.13582 0.18728 0.12365 0.13615 0.06331 0.011684 -0.0039354 0.056898 
0.13516 0.21671 0.11066 0.14617 0.013986 -0.038298 -0.040106 0.054596 
-0.0029489 0.18481 0.063474 0.11576 -0.00031829 -0.055561 -0.064275 -0.0060728 
-0.031557 0.16706 0.038812 0.093233 0.0026412 -0.022185 -0.053424 -0.017088 
-0.063453 0.073339 0.0074092 0.058706 0.012506 0.0051074 -0.033037 -0.010183 
-0.12774 1.0539e-005 -0.021692 0.024837 -0.0032777 0.013164 -0.0044286 -0.066413 
-0.084827 -0.018897 -0.048985 -0.0057439 -0.0039354 -0.017911 -0.017253 -0.0077169 
0.0324 0.013657 -0.041586 0.024179 0.016781 -0.00097594 -0.019719 0.041936 
0.13795 0.059857 0.054103 0.088136 0.041114 0.034537 0.016781 0.1026 
0.15604 0.043745 0.073997 0.10852 0.069558 0.066105 0.032236 0.11181 
0.057062 -0.0068948 -0.0064016 0.055418 0.059857 0.0059294 -0.00081153 0.034209 
-0.08121 -0.01676 -0.05441 0.010862 0.028454 -0.0040998 -0.012156 -0.052437 
-0.11426 -0.11376 -0.063453 -0.012156 0.0069159 -0.017911 -0.035338 -0.065919 
-0.023829 -0.2351 -0.052766 -0.011334 0.0044497 -0.0090322 -0.03057 -0.014951 
0.066269 -0.3007 -0.080388 -0.032708 0.024015 0.037004 0.00099702 0.04654 
0.11724 -0.17493 -0.014622 -0.0026201 0.032236 0.019905 -0.0016336 0.059364 
0.11263 0.077285 0.072353 0.055418 0.040621 0.025166 -0.004593 0.025495 
0.045882 0.1567 0.11296 0.11855 0.049992 0.035853 0.005765 0.021384 
0.032893 0.1419 0.073339 0.14634 0.072188 0.026317 -0.0013048 0.049992 
0.034866 0.10951 0.047197 0.11707 0.072188 0.032564 0.0065871 0.044402 
0.047033 0.016452 0.00083261 0.069886 0.05772 0.048184 0.025988 0.047197 
-0.0049219 -0.0077169 -0.0059084 0.048841 0.03799 0.027796 0.0095465 0.013986 
-0.084663 -0.0060728 0.0046141 0.050321 0.03092 -0.0067304 0.0059294 -0.0087034 
-0.10489 0.010697 0.047691 0.075312 0.019576 -0.004593 -0.019884 0.0075736 
-0.011663 0.18004 0.094877 0.11757 0.031742 -0.014951 -0.030077 0.04095 
0.061008 0.23068 0.062159 0.10014 0.0032988 -0.0055795 -0.011334 0.034702 
0.073832 0.12184 -0.0044286 0.050814 -0.013471 0.0021479 -0.020377 0.01711 
0.072024 0.073668 -0.018404 0.025001 0.0037921 -0.004593 -0.034023 0.0088889 
0.085835 0.036017 0.037661 0.06035 0.012506 0.026646 -0.006566 0.013986 
0.065447 0.038648 0.021878 0.09126 0.028619 0.047526 0.011684 0.020233 
0.029605 0.022206 0.021878 0.075148 0.026974 0.023686 0.0059294 0.03536 
-0.0072237 -0.028926 -0.0067304 0.05065 0.023522 0.069393 0.017274 0.014643 
-0.052931 -0.046025 -0.055232 0.012342 0.0016547 0.035524 0.010697 0.012013 
-0.045696 -0.032379 -0.057041 -0.0042642 0.011191 0.012506 0.00099702 0.0026412 
0.0083956 -0.0057439 -0.024158 0.010862 0.019083 0.03799 0.0042853 0.022206 
0.086492 0.10343 0.051636 0.065283 0.030098 0.028619 0.0067515 0.044567 
0.14782 0.13582 0.10524 0.10787 0.06742 0.034209 0.015301 0.065283 
0.1978 0.10935 0.14026 0.13762 0.076134 0.067913 0.025166 0.084684 
0.19944 0.054103 0.11905 0.14256 0.060186 0.0421 0.02122 0.079751 
0.13927 -0.055232 0.062652 0.12332 0.034209 0.036675 0.034044 0.040785 
0.037168 -0.062631 0.013821 0.10326 -0.0019624 0.020069 0.0069159 -0.013965 
-0.049971 -0.099624 -0.003771 0.055911 -0.013636 0.00099702 -0.010348 -0.0077169 
-0.060658 -0.11524 -0.011992 0.040456 -0.0059084 0.024179 0.0090533 -0.010019 
0.040785 0.024015 0.027632 0.061666 0.029441 0.055582 0.021384 0.071859 
0.19698 0.18678 0.042923 0.074654 0.011355 0.037004 0.01974 0.11033 
0.18596 0.32966 0.09274 0.1151 0.030427 0.069393 0.035688 0.059528 
0.14338 0.35021 0.1026 0.13023 0.036839 0.066105 0.039141 0.069229 
0.068242 0.23594 0.10491 0.12842 0.048184 0.078272 0.052294 0.065283 
-0.076935 0.15505 0.056733 0.094055 0.030592 0.055911 0.034373 -0.014458 
-0.14484 0.078272 -0.0096899 0.043745 -0.0022913 -0.023665 -0.023829 -0.079237 
-0.11491 -0.055561 -0.039942 0.030263 -0.027118 -0.047669 -0.055068 -0.093376 
-0.098473 -0.093541 -0.020541 0.054432 -0.018568 -0.012978 -0.043888 -0.042079 
-0.049807 -0.092061 0.0227 0.05624 0.010697 0.031742 -0.0042642 0.056569 
0.01152 -0.27522 0.00066819 0.048841 0.022864 0.019905 0.0072447 0.14239 
0.051965 -0.47087 -0.058356 0.0092177 0.012177 0.04917 0.022864 0.16837 
0.12069 -0.3224 -0.023172 0.019083 0.0082312 0.066763 0.035524 0.12792 
0.10047 0.06035 0.062488 0.069558 0.031249 0.063474 0.056569 0.084848 
0.10047 0.33311 0.12151 0.1276 0.016781 0.051308 0.03388 0.022042 
0.1105 0.47747 0.17149 0.17314 0.01711 0.020891 0.017932 0.045553 
0.1026 0.44212 0.17281 0.18678 0.017767 0.021384 0.012177 0.0065871 
0.1128 0.32095 0.15259 0.18498 0.035195 0.057555 0.03092 0.043745 
0.19599 0.25387 0.1197 0.17676 0.05476 0.073175 0.047526 0.08715 
0.20783 0.19977 0.084355 0.17725 0.024508 0.086328 0.052952 0.096193 
0.1345 -0.034023 0.028947 0.1105 0.017438 0.035853 0.025659 0.070708 
-0.012978 -0.30251 -0.059178 0.02681 -0.0031133 0.022535 0.0088889 0.016781 
-0.133 -0.31205 -0.13004 -0.043066 -0.023336 -0.0057439 -0.027118 -0.070687 
-0.19252 -0.089759 -0.065262 -0.027611 -0.021528 -0.046683 -0.059836 -0.12116 
-0.15832 0.083697 0.046211 0.045389 -0.010019 -0.060823 -0.073811 -0.13234 
-0.063946 0.12529 0.095371 0.10951 0.012835 -0.030242 -0.062467 -0.038462 
0.0062583 0.084026 0.10721 0.13006 0.048019 0.015301 -0.019884 0.065283 
-0.0039354 0.098166 0.079916 0.11477 0.041443 0.048513 0.026317 0.098166 
-0.024816 0.057391 0.029441 0.073997 0.021713 0.067585 0.033715 0.062652 
-0.0098543 -0.022679 0.0024767 0.067585 0.02533 0.061501 0.037168 0.066598 
-0.0060728 -0.012814 -0.012814 0.06742 0.020891 0.065776 0.061172 0.036675 
0.03536 -0.015773 -0.003771 0.052623 0.019083 0.063639 0.041607 0.012342 
0.034209 0.017767 -0.0059084 0.045224 0.027796 0.024673 0.020562 0.030427 
-0.0049219 0.098988 0.010862 0.049992 0.014479 0.011191 0.009711 0.01267 
0.010533 0.14552 0.028947 0.063968 0.02122 -0.0013048 -0.01117 0.053938 
0.021878 0.10524 0.026974 0.06742 0.023686 0.0072447 -0.012814 0.060022 
-0.065755 0.0028056 0.019083 0.064296 0.009711 0.015137 -0.012649 -0.010676 
-0.17575 -0.052109 0.024344 0.059035 -0.0021268 -0.010676 -0.028269 -0.040435 
-0.15191 -0.060494 0.04358 0.044073 0.0013258 0.01152 -0.022185 -0.026131 
-0.016431 -0.018239 0.028619 0.050321 0.022535 0.037004 -0.0031133 0.009711 
0.097344 0.058542 0.073668 0.076792 0.033058 0.048513 0.019576 0.049828 
0.11526 0.14174 0.085999 0.13878 0.068078 0.033715 0.014808 0.064625 
0.13351 0.092082 0.044896 0.11296 0.080738 0.04358 0.012999 0.040128 
0.091096 0.011848 0.027139 0.081889 0.054267 0.040785 0.01563 0.038648 
0.041772 -0.034352 0.010697 0.065776 0.023357 0.0051074 0.0069159 -0.0042642 
-0.028433 -0.043066 -0.011992 0.043087 -0.0014692 0.0092177 -0.0098543 -0.01676 
-0.024652 -0.018075 -0.0054151 0.039963 -0.010019 0.01415 -0.0059084 -0.0032777 
0.00017495 0.031907 -0.0055795 0.035524 0.0083956 0.013492 0.0044497 -0.0080457 
0.058706 0.12381 0.019247 0.054596 0.015465 0.0227 -0.0072237 0.023028 
0.087314 0.22526 0.054596 0.070544 0.03651 0.029605 0.005765 0.045224 
0.061172 0.21654 0.072024 0.082546 0.050814 0.042429 0.01974 0.019247 
-0.00064712 0.21293 0.054432 0.098166 0.034702 0.031907 0.010697 0.023357 
0.017603 0.2269 0.077943 0.14256 0.048184 0.034702 0.01267 0.074983 
0.043087 0.20799 0.11888 0.15604 0.065118 0.033058 0.016452 0.082711 
-0.059014 0.11855 0.06331 0.12464 0.052459 0.027961 0.0059294 0.023028 
-0.18019 -0.022185 -0.038956 0.046375 0.023357 -0.0039354 -0.0080457 -0.040928 
-0.14911 -0.047176 -0.02794 0.028125 0.055254 0.026317 -0.0082102 -0.080717 
-0.088444 0.011191 -0.020706 0.0227 0.03536 -0.0013048 -0.019061 -0.030077 
-0.0062372 -0.066413 -0.0073881 0.029276 0.022535 0.015137 -0.00081153 0.0421 
0.096028 -0.1085 0.011684 0.040456 0.041936 0.033222 0.015301 0.095535 
0.20388 -0.022514 0.048184 0.06331 0.059857 0.051472 0.026317 0.14058 
0.23381 -0.010019 0.045553 0.073668 0.03536 0.032893 0.045718 0.098988 
0.19764 -0.0095255 0.037826 0.081231 0.031249 0.040785 0.020069 0.048184 
0.15735 0.027632 0.03947 0.12201 0.036675 0.020727 0.0072447 0.054432 
0.07597 0.057884 0.041772 0.10014 0.058542 0.063474 0.044238 0.037497 
0.0421 0.0034632 -0.012156 0.057884 0.067256 0.057227 0.025001 0.034044 
0.043745 -0.072003 -0.055397 0.016123 0.065776 0.032564 0.016781 0.030427 
0.073668 0.016616 0.027796 0.049664 0.074983 0.058542 0.033222 0.0051074 
0.023686 0.13516 0.10967 0.11181 0.073504 0.053938 0.032729 0.040128 
-0.040928 0.10606 0.083862 0.12118 0.078765 0.042594 0.027303 0.045718 
-0.042408 0.072024 0.059857 0.098659 0.034702 0.029605 0.015137 0.014479 
-0.031721 0.095042 0.064625 0.087314 -0.0031133 -0.024323 -0.02942 -0.006566 
-0.078579 0.17922 0.048184 0.079422 -0.031064 -0.055068 -0.060494 -0.021199 
-0.067892 0.20799 0.0016547 0.07038 -0.016102 -0.019719 -0.049478 -0.012649 
-0.025474 0.058706 -0.031228 0.063639 0.014479 0.0051074 -0.027775 0.021549 
0.017438 0.08567 0.041443 0.083368 0.050321 0.030263 0.013821 0.070051 
0.084684 0.24828 0.069722 0.10491 0.063474 0.050814 0.018096 0.056076 
0.13384 0.28116 0.033058 0.084684 0.044238 0.038812 0.017932 0.041114 
0.13927 0.20109 -0.0091966 0.051636 0.031414 0.07038 0.062159 0.1031 
0.12266 0.048841 0.014479 0.054267 0.018096 0.062159 0.0421 0.10474 
-0.004593 -0.18282 0.016945 0.058377 0.025495 0.067913 0.045553 0.057555 
-0.040764 -0.28344 0.029605 0.05624 0.034866 0.043745 0.032564 0.0324 
-0.0064016 -0.22951 0.053938 0.06479 0.026646 0.040128 0.03799 0.014479 
0.04506 -0.21537 0.086492 0.098166 0.067091 0.023522 0.016945 0.027303 
0.053281 -0.16736 0.041443 0.11888 0.066598 0.050486 0.020233 0.030592 
0.1276 -0.061151 0.016123 0.11017 0.028125 0.0062583 -0.0027845 0.061337 
0.19205 0.06479 -0.013307 0.060022 0.023193 -0.015116 -0.020541 0.084684 
0.15949 0.13467 -0.013965 0.040785 -0.0029489 -0.0047575 -0.030735 0.034537 
0.096521 0.089616 0.0014903 0.04358 -0.0075525 -0.034023 -0.050629 -0.0064016 
0.059035 0.018918 -0.0087034 0.035195 0.027796 -0.013471 -0.038133 -0.0083746 
-0.0004827 0.0013258 0.0060938 0.046046 0.06479 0.016452 -0.025967 -0.041586 
0.042594 0.1516 0.11674 0.11132 0.053281 -0.0054151 -0.026953 0.00066819 
0.067585 0.2902 0.17906 0.17149 0.033551 0.028619 0.014315 0.046375 
-0.057699 0.25239 0.12792 0.15357 0.0024767 0.047526 0.012013 -0.023829 
-0.17147 0.095535 0.009711 0.078436 -0.039778 0.044567 0.020727 -0.050629 
-0.11245 0.051801 -0.022843 0.065776 -0.034188 0.043909 0.041114 1.0539e-005 
-0.035832 0.0018191 -0.0060728 0.075148 -0.0044286 0.061172 0.033715 0.00297 
0.012835 -0.019061 0.020398 0.069064 0.018754 0.085341 0.05772 0.087808 
0.086163 0.064625 0.053774 0.087314 0.017603 0.13779 0.10343 0.13976 
0.0786 0.11198 0.070873 0.10326 -0.0059084 0.083533 0.071037 0.088465 
0.055418 0.068242 0.039305 0.087479 0.0082312 -0.0082102 -0.001798 0.057884 
0.095042 0.024015 -0.015773 0.053281 -0.0078813 -0.044381 -0.058521 0.035195 
0.059693 -0.089431 -0.028762 0.024179 -0.001798 -0.08828 -0.095678 0.012342 
0.041114 -0.1478 -0.019226 0.014479 -0.00031829 -0.032872 -0.065262 0.027961 
0.12217 -0.02087 0.091918 0.080902 0.051472 0.025659 -0.016924 0.10408 
0.21769 0.18711 0.19599 0.1784 0.090109 0.03388 0.0023123 0.1927 
0.14667 0.16623 0.15209 0.20471 0.08419 0.054596 0.026646 0.16656 
0.079916 -0.018568 0.06594 0.16114 0.024673 0.073504 0.039305 0.059528 
0.051472 -0.061645 0.0054362 0.091753 0.022371 0.029769 0.013821 -0.034023 
0.085999 0.018918 -0.001798 0.061666 0.011684 0.0065871 0.018096 -0.091075 
0.05772 -0.0016336 -0.061645 0.011026 0.021713 0.021549 0.00083261 -0.12231 
0.01152 -0.10702 -0.08269 -0.021692 0.0085601 0.0082312 -0.004593 -0.080388 
-0.10916 -0.40576 -0.10324 -0.048656 -0.020048 -0.0070593 -0.01232 -0.040928 
-0.1935 -0.29873 -0.088773 -0.047505 -0.017417 0.011026 -0.02087 -0.014458 
-0.10571 0.019905 -0.037476 -0.021199 0.019576 -0.011498 -0.024652 0.015959 
-0.006566 0.18317 0.029769 0.0324 0.04506 0.03651 0.0098754 0.0072447 
-0.0021268 0.2565 0.0592 0.0689 0.052294 0.048019 0.017274 -0.018404 
0.00099702 0.18432 0.025659 0.08863 0.054103 0.028125 0.014643 0.031742 
0.079916 0.072846 0.0042853 0.089287 0.034702 0.059693 0.028947 0.10425 
0.19139 0.11658 0.063639 0.098494 0.023193 0.034044 0.017438 0.13286 
0.2052 0.14157 0.050814 0.094055 0.019247 0.022371 0.0072447 0.13138 
0.062817 0.1294 0.013328 0.07301 0.038155 0.015794 -0.0062372 0.06183 
-0.015773 0.15111 0.033387 0.073504 0.072188 0.0095465 -0.010019 1.0539e-005 
0.0013258 0.037661 0.034209 0.077614 0.050321 -0.035667 -0.036489 0.0047785 
-0.050958 -0.018239 0.027632 0.070708 0.036675 0.00033937 -0.04471 -0.033365 
-0.054904 0.066105 0.056404 0.081395 0.041443 -0.0040998 -0.029584 -0.012978 
0.085341 0.069722 0.061501 0.077614 0.055418 0.023522 0.009711 0.045389 
0.11148 0.03388 0.051308 0.080902 0.043087 0.034702 0.0056006 0.019905 
-0.042244 0.011848 0.011355 0.071037 0.04654 0.0092177 -0.0075525 -0.035996 
-0.092883 -0.088773 -0.048163 0.046211 0.052459 0.0041209 0.0016547 -0.020212 
-0.015609 -0.14763 -0.10965 -0.024323 0.038812 0.0034632 -0.026296 0.021549 
0.0075736 -0.14517 -0.10538 -0.047669 0.020398 -0.02794 -0.041586 0.031742 
0.04654 -0.060165 -0.058521 -0.025638 0.020727 -0.0021268 -0.025967 0.10655 
0.083533 -0.023665 -0.073811 -0.028597 0.017603 -0.0039354 -0.027118 0.096028 
0.073504 -0.047669 -0.06148 -0.024652 0.027468 0.0079024 -0.021199 0.062981 
0.022864 0.043251 0.0088889 0.021713 0.023357 0.024015 -0.0090322 0.026152 
0.11181 0.21441 0.036839 0.051308 0.0093821 0.010862 -0.012814 0.017274 
0.18547 0.25321 0.03092 0.054925 0.0031344 0.00050378 -0.016102 0.027632 
0.11674 0.1544 -0.017253 0.024837 -0.0013048 0.00083261 -0.023501 -0.0072237 
-0.057534 -0.036818 -0.031721 0.023851 0.018589 -0.01117 -0.03353 -0.072332 
-0.18627 -0.078908 0.062488 0.10852 0.049828 0.011026 -0.016431 -0.094034 
-0.11787 0.11625 0.171 0.17659 0.082875 0.031907 0.0013258 -0.042737 
0.071037 0.36402 0.20092 0.22049 0.067585 0.027139 0.0080668 0.095535 
0.24301 0.52827 0.16459 0.21062 0.025659 0.015137 0.015794 0.18613 
0.22789 0.41976 0.038812 0.12628 -0.0049219 -0.0090322 -0.017253 0.11247 
0.19533 -0.035174 -0.13596 -0.014787 -0.0049219 -0.02794 -0.039613 0.053774 
0.1197 -0.25286 -0.14944 -0.069372 0.0032988 -0.03912 -0.04619 -0.009361 
-0.11179 -0.17328 0.027468 0.0080668 0.022371 -0.015609 -0.036818 -0.074469 
-0.22244 -0.03764 0.18958 0.13483 0.061172 0.0065871 -0.020706 -0.066741 
-0.23083 -0.0083746 0.17988 0.17511 0.058377 0.05624 0.0098754 -0.044874 
-0.10554 -0.087129 0.062159 0.14141 0.020398 0.018754 -0.00015387 -0.032872 
0.035853 -0.11031 -0.031228 0.089616 0.017274 0.02122 0.0018191 0.054267 
0.10655 -0.086307 -0.055397 0.029441 0.021878 0.016616 -0.0019624 0.099481 
0.050979 -0.096829 -0.046354 0.012177 0.033715 0.021056 -0.0013048 0.096357 
-0.062467 -0.00015387 -0.013471 0.023851 0.045389 0.019576 -0.0029489 0.042265 
-0.13596 0.035195 0.013657 0.044238 0.038319 0.025988 -0.021528 -0.016595 
-0.057205 0.11132 0.017438 0.05213 0.01826 0.01974 -0.011334 -0.017417 
0.080738 0.22312 0.042265 0.060844 0.046704 0.026317 0.012013 0.055254 
0.1225 0.28494 0.09685 0.098823 0.014808 0.038812 0.014315 0.029276 
0.1077 0.329 0.12102 0.13269 0.012013 -0.021856 -0.028104 -0.030406 
0.049006 0.36517 0.1396 0.15571 0.00050378 -0.023501 -0.023336 -0.058356 
0.052623 0.28067 0.11 0.16426 0.0034632 0.0034632 -0.020212 -0.0022913 
0.15555 0.20619 0.063803 0.15407 -0.0039354 0.0060938 -0.011827 0.082711 
0.18284 0.2121 0.030756 0.10967 0.0083956 0.054925 0.027961 0.15538 
0.14108 0.084848 0.079587 0.12102 0.032729 0.06331 0.034866 0.12365 
0.081889 0.00050378 0.093726 0.13056 0.059857 0.068736 0.043087 0.077778 
-0.031228 0.01004 0.044896 0.10277 0.045224 0.057391 0.039799 0.041607 
-0.060658 -0.0095255 0.052623 0.096357 0.018096 0.044073 0.023028 0.0018191 
-0.00031829 -0.031557 0.03536 0.078272 -0.020212 0.040785 0.032564 0.034537 
0.085999 -0.019555 0.026481 0.061337 -0.022021 0.049828 0.032729 0.094713 
0.12612 0.02681 -0.0021268 0.038977 0.048184 0.025659 0.014808 0.086492 
0.12102 -0.032872 0.0031344 0.039305 0.032893 0.021384 0.0047785 0.023357 
-0.071181 -0.17361 0.022864 0.066269 0.048513 0.031578 0.0018191 -0.10357 
-0.30563 -0.097651 0.066434 0.11872 0.036182 0.01826 -0.0082102 -0.14829 
-0.22968 0.063803 0.12513 0.14437 0.03799 0.025495 0.017603 -0.062302 
-0.097158 0.13598 0.11658 0.1516 0.012835 0.040456 0.01826 0.00033937 
0.061995 0.27096 0.09422 0.14141 0.0028056 0.05065 0.026317 0.048348 
0.21983 0.26965 0.076134 0.12727 0.024508 0.046868 0.04506 0.11937 
0.293 0.1562 0.044896 0.10129 0.02533 0.048513 0.031414 0.11987 
0.16393 -0.054904 -0.048656 0.026152 0.016945 0.024344 0.0098754 0.073175 
0.013986 -0.2351 -0.10998 -0.038956 0.0039565 0.02533 0.0098754 0.03947 
-0.062302 -0.19729 -0.04471 -0.028269 -0.011498 0.034044 0.011191 0.014479 
-0.024323 -0.031064 0.043251 0.035195 0.0080668 0.033058 0.018425 0.04917 
0.041114 0.13006 0.095535 0.12562 0.0095465 0.07449 0.037332 0.057391 
0.074983 0.20964 0.11757 0.16097 0.024344 0.067585 0.043909 0.033058 
0.052623 0.11033 0.075476 0.13384 0.014808 0.050321 0.034209 0.024673 
0.025001 -0.054739 -0.0042642 0.07597 0.0051074 0.03799 0.016781 0.020562 
-0.010841 -0.13103 -0.020706 0.042429 0.0069159 0.012177 -0.0031133 -0.0004827 
0.018589 -0.23642 -0.0055795 0.035524 0.029934 0.016781 -0.0021268 0.0324 
0.062159 -0.062467 0.058377 0.076792 0.048841 0.03092 0.0026412 0.0592 
0.11494 0.19205 0.10491 0.11576 0.052952 0.0324 0.0062583 0.054925 
0.12562 0.23249 0.10359 0.12628 0.041443 0.015959 0.015959 0.060515 
0.099974 0.1664 0.092082 0.11313 0.037826 0.06594 0.033387 0.055911 
0.052623 0.076956 0.038483 0.087314 0.013492 0.091753 0.059693 0.061666 
0.025001 -0.030735 -0.01939 0.067913 0.018589 0.082217 0.074819 0.073668 
-0.031392 -0.061645 -0.013143 0.060844 0.013821 0.064296 0.050486 0.032071 
-0.027611 -0.1792 -0.030735 0.029769 0.011684 0.026646 0.02122 0.033715 
-0.02646 -0.121 -0.024323 0.013164 0.0227 0.022864 0.0095465 0.056076 
-0.0072237 -0.075291 0.016616 0.042758 0.024508 0.027468 0.0072447 0.029934 
0.059035 0.048841 0.05476 0.075312 0.044731 0.070051 0.035195 0.076134 
0.094055 0.079094 0.029441 0.077778 0.047855 0.043416 0.020398 0.076134 
0.16064 0.080244 0.02533 0.055418 0.03651 -0.014622 -0.022514 0.024837 
0.18794 0.11313 0.054432 0.071695 0.028619 -0.02942 -0.038462 0.0074092 
0.15851 0.10688 0.043745 0.075148 0.03947 0.023357 -0.028269 0.029441 
0.093398 -0.035832 0.042429 0.076627 0.025495 0.029441 -0.0068948 0.027961 
-0.084827 -0.19663 -0.0062372 0.077614 0.0087245 0.00050378 -0.0091966 -0.0083746 
-0.25615 -0.18315 -0.0067304 0.076299 0.0037921 0.042429 0.0088889 -0.016266 
-0.16983 -0.075455 0.05213 0.096193 0.009711 0.066598 0.025824 -0.0039354 
0.043909 0.15308 0.086657 0.11707 0.014972 0.077449 0.065447 0.069064 
0.20027 0.22624 0.026152 0.086163 0.023851 0.054432 0.047033 0.080738 
0.25535 0.00083261 -0.016924 0.046704 0.066434 0.013986 0.0087245 0.053445 
0.091918 -0.086307 0.01711 0.055254 0.077121 0.017603 0.0087245 0.0065871 
-0.096829 -0.031886 0.070215 0.085999 0.068736 0.015137 -0.0064016 -0.02942 
-0.182 -0.027118 0.062159 0.08715 0.057227 0.016288 -0.0062372 -0.043395 
-0.12396 0.094877 0.053116 0.083368 0.038483 0.057555 0.01152 -0.010019 
-0.045861 0.11905 0.041443 0.075476 0.038483 0.0021479 -0.0083746 0.0098754 
-0.033365 -0.040106 -0.030735 0.043909 0.023851 -0.028269 -0.033365 0.024837 
0.0021479 -0.081539 -0.068057 0.027303 0.017932 0.0065871 -0.026296 0.02829 
0.060022 -0.06444 -0.08121 -0.014458 0.013657 -0.011498 -0.031392 0.040785 
0.12036 0.039141 0.013492 0.032564 0.015465 -0.00081153 -0.025309 0.047033 
0.13384 0.13434 0.062652 0.077614 0.013328 0.031085 -0.0080457 0.062817 
0.10244 0.080738 0.058542 0.08978 0.029276 0.025659 -0.0036066 0.0324 
0.033715 0.011848 0.028125 0.079258 0.033551 0.033715 0.0056006 0.014315 
-0.028597 -0.023665 -0.010019 0.047855 0.028947 0.027961 -0.00064712 0.01826 
-0.0088678 0.029605 0.0013258 0.041772 0.030263 0.0024767 -0.016431 0.0041209 
0.06035 0.074819 0.030098 0.049335 0.040456 -0.011827 -0.010183 0.017438 
0.058213 0.091753 0.036839 0.060022 0.067585 -0.0075525 -0.024652 0.01152 
0.04358 0.20257 0.013492 0.071531 0.081724 -0.0050863 -0.023172 0.0037921 
0.075805 0.35251 0.033715 0.096193 0.1008 0.01974 0.0042853 0.043087 
0.080902 0.40973 0.030592 0.079916 0.029605 0.0070803 -0.014458 0.021056 
0.047033 0.32736 0.046211 0.085835 0.0056006 -0.026131 -0.033859 -0.00081153 
0.017603 0.2565 0.10688 0.12727 0.0092177 0.0059294 -0.017088 -0.010019 
0.0060938 0.21046 0.16179 0.1738 0.043087 0.041772 0.0082312 0.035853 
0.10376 0.12644 0.14782 0.18103 0.049006 -0.011663 -0.017911 0.062652 
0.096521 0.054267 0.11839 0.16196 0.015794 -0.068879 -0.07414 0.014643 
0.064954 0.086163 0.11477 0.14848 -0.019719 -0.12116 -0.12018 -0.018733 
0.03947 0.038812 0.061008 0.10787 -0.023007 -0.068386 -0.094856 -0.015609 
-0.067235 -0.17986 -0.043724 0.030263 0.0041209 0.045389 -0.022021 0.0041209 
-0.14944 -0.25697 -0.096172 -0.013307 -0.0083746 0.10967 0.049828 0.0090533 
-0.20041 -0.072989 -0.13547 -0.032708 0.031742 0.078272 0.066434 -0.0024557 
-0.063618 0.21424 0.0014903 0.020233 0.066598 0.04917 0.035031 0.067749 
0.081889 0.35071 0.076463 0.091096 0.10014 -0.0014692 -0.0073881 0.046704 
0.17248 0.18152 0.050321 0.090767 0.075641 -0.029255 -0.017746 0.082875 
0.10787 -0.015609 -0.090417 -0.0031133 0.034373 -0.033201 -0.042244 0.058871 
0.033551 -0.11771 -0.14582 -0.066248 -0.0026201 -0.0067304 -0.029255 0.066598 
-0.1016 -0.070359 -0.028597 -0.013636 0.0037921 0.051308 0.01152 0.036346 
-0.085156 0.10951 0.092247 0.073175 0.040456 0.062323 0.029769 0.00297 
0.043087 0.1151 0.088465 0.10096 0.039305 0.039305 0.020233 -0.016431 
0.094384 -0.034845 0.04506 0.082053 0.030263 0.0090533 -0.008539 -0.0034422 
0.06742 -0.013965 0.035688 0.079258 0.010204 -0.014129 -0.027447 -0.0024557 
0.1294 0.052952 0.013821 0.087972 -0.00015387 -0.012978 -0.033037 0.0014903 
0.19764 0.12595 0.049992 0.10178 0.020233 -0.00064712 -0.016102 0.045389 
0.20882 0.17445 0.068242 0.10902 0.020562 0.0093821 -0.017417 0.069722 
0.14881 0.14321 0.071366 0.11181 0.037826 0.030263 -0.001798 0.066434 
0.049992 0.16607 0.083368 0.12168 0.044073 0.055418 0.019247 0.069722 
-0.013965 0.15127 0.067256 0.11329 0.051801 0.048841 0.023028 0.052952 
-0.077922 0.01267 0.014315 0.078765 0.035195 0.045553 0.039305 0.045718 
-0.15635 -0.14977 -0.040764 0.020069 0.023028 0.040456 0.020891 0.004943 
-0.19416 -0.17279 -0.035503 0.004943 0.0013258 0.020891 0.0065871 -0.049149 
-0.16999 -0.1284 -0.0019624 0.018918 0.010862 0.025166 0.016123 -0.040928 
-0.16917 -0.10998 -0.022843 0.018754 0.010862 0.054267 0.026152 -0.040435 
-0.081703 -0.072825 -0.024323 0.043909 0.015137 0.036839 0.020562 0.0062583 
0.052952 0.0032988 -0.014129 0.051636 0.0037921 0.072517 0.04358 0.066434 
0.18169 0.095371 0.004943 0.049828 0.023028 0.056404 0.03947 0.11395 
0.21802 0.14223 0.044402 0.075148 0.013821 0.055582 0.03536 0.089616 
0.19418 0.1493 0.031742 0.073504 0.020398 0.042594 0.023851 0.075312 
0.17922 0.072024 0.011355 0.055582 0.03799 -0.004593 -0.012814 0.067091 
0.14568 -0.084334 -0.017088 0.035031 0.037497 1.0539e-005 -0.019555 0.03947 
-0.05326 -0.1353 0.010697 0.040292 0.04358 0.05213 -0.0014692 -0.01939 
-0.15158 -0.10719 0.07597 0.078436 0.048184 0.043745 0.010369 -0.049971 
-0.032379 -0.06855 0.11773 0.12053 0.047362 0.06594 0.039305 0.018425 
0.086821 -0.10521 0.053938 0.10343 0.014808 0.041772 0.02122 0.072353 
0.018918 -0.20814 -0.04882 0.052294 0.0046141 0.028125 0.0069159 0.025495 
-0.029091 -0.19367 -0.083512 0.0044497 0.004943 0.0095465 0.014315 -0.0070593 
0.034537 -0.044052 -0.014293 0.025001 0.015301 0.038319 0.00297 0.015301 
0.090931 0.13039 0.055089 0.074326 0.033222 0.039141 0.014808 0.051636 
0.12168 0.35613 0.078765 0.10787 0.12727 0.023357 0.040128 0.049664 
0.051143 0.40365 0.092411 0.11954 0.056076 0.048513 0.025824 0.029934 
-0.013307 0.30648 0.075641 0.11674 0.015959 0.029605 0.0064227 -0.012978 
-0.022679 0.20405 0.023851 0.079422 0.019083 0.05065 0.019083 0.0034632 
0.067256 0.078107 0.012835 0.058871 -0.0049219 0.024673 0.012013 0.055582 
0.10606 -0.027775 0.032236 0.059857 0.0072447 0.010369 -0.003771 0.038483 
0.047197 -0.11935 0.024179 0.064461 0.018918 0.050157 0.011191 0.015465 
-0.11327 -0.33786 -0.025638 0.066598 0.0075736 0.033551 0.016452 -0.028433 
-0.13875 -0.38784 -0.048985 0.030756 0.034044 0.0054362 -0.0082102 -0.044052 
0.0095465 -0.24858 0.0087245 0.044567 0.0092177 0.025001 0.01267 0.052623 
0.11526 -0.20649 0.036182 0.066763 0.047855 0.0042853 -0.011334 0.072024 
0.14321 -0.157 0.055089 0.080409 0.049006 0.00083261 -0.0011404 0.071695 
0.16245 0.14437 0.084519 0.10819 0.0421 0.025166 -0.0062372 0.065118 
0.16377 0.35005 0.12085 0.13236 0.058542 0.030098 -0.0004827 0.041772 
0.090767 0.38145 0.085506 0.12118 0.029934 0.0075736 0.011191 0.023686 
0.037661 0.27869 0.036017 0.084519 -0.0070593 0.012013 -0.011334 0.035031 
0.078436 0.22082 0.013164 0.054432 -0.010841 -0.012649 -0.025967 0.037332 
0.06742 0.17051 0.00017495 0.051472 -0.030077 0.0085601 -0.0031133 0.0062583 
0.053938 0.15456 0.021056 0.08978 -0.001798 0.022371 -0.0062372 0.057884 
0.043745 0.13319 0.094548 0.12825 0.060186 0.04506 0.013986 0.029605 
-0.040764 0.063474 0.095371 0.13532 0.084355 0.060844 0.031742 -0.033859 
-0.090253 0.013164 0.064296 0.11411 0.06479 0.04506 0.023193 -0.036983 
-0.027447 0.039141 0.027468 0.085341 0.031249 0.023357 0.010862 -0.0070593 
-0.021528 0.09422 0.0093821 0.065283 0.011684 0.039799 0.0070803 0.00033937 
-0.038791 0.22082 0.012999 0.0592 0.0042853 0.0056006 -0.010183 0.004943 
0.041772 0.31305 0.034373 0.065447 -0.0014692 -0.026953 -0.03501 0.013164 
0.11296 0.21391 0.047855 0.069064 -0.021034 0.0082312 -0.023665 0.048184 
0.19122 0.16804 0.085012 0.093726 -0.014622 -0.00031829 -0.022185 0.093726 
0.22641 0.09126 0.0689 0.10803 0.027468 0.0227 0.0072447 0.14848 
0.26274 -0.048163 0.028783 0.10737 0.068242 0.071859 0.032564 0.17232 
0.16952 -0.089924 0.034044 0.1179 0.082382 0.030263 0.015137 0.08419 
-0.024652 -0.095843 0.036839 0.093726 0.05624 0.027303 0.024673 -0.014129 
-0.086964 -0.14533 -0.016266 0.05476 0.024179 0.021878 0.0064227 -0.03501 
-0.089924 -0.14056 -0.039449 0.023686 0.011191 0.0093821 -0.0064016 -0.029255 
-0.057534 -0.082196 -0.023665 0.021549 0.010533 0.017932 0.010204 -0.0019624 
-0.063453 0.029276 0.0069159 0.038155 0.017932 0.01826 -0.004593 0.018754 
-0.059014 0.10244 0.027796 0.050814 0.018589 0.0032988 -0.014293 0.012177 
-0.061316 0.14946 0.036346 0.060022 0.0062583 0.026152 -0.001798 0.0065871 
-0.018404 0.16311 0.063145 0.072681 0.0070803 0.023522 -0.0057439 0.038977 
-0.0036066 0.12727 0.05213 0.078107 0.021384 0.016616 -0.0019624 0.040456 
0.01826 0.083862 -0.014951 0.09126 0.0092177 0.04917 0.017274 0.061008 
0.09833 0.12053 0.032236 0.10852 0.025659 0.010697 -0.0042642 0.064625 
0.10096 0.016945 0.0016547 0.070544 -0.014458 -0.02942 -0.035832 0.050979 
0.060515 0.06331 0.035195 0.077778 0.036346 0.038155 -0.0032777 0.029441 
0.10376 0.20717 0.1128 0.13039 0.05476 0.024015 -0.0082102 0.073997 
0.10145 0.24038 0.1003 0.13828 0.016288 0.036017 0.011026 0.041114 
0.023851 0.082875 0.048184 0.11033 0.021878 0.043251 0.020233 0.0013258 
-0.018075 -0.070194 -0.0088678 0.062323 0.0080668 0.0070803 -0.0029489 -0.0060728 
-0.0039354 -0.13267 0.00033937 0.047033 0.028947 -0.0050863 -0.014129 0.011026 
0.0227 -0.017746 0.053609 0.066434 0.037497 0.016781 -0.010348 0.028783 
0.013164 0.10047 0.1248 0.11658 0.066269 0.018425 -0.0050863 0.010862 
0.02533 0.093562 0.098823 0.14042 0.046211 0.026974 0.01152 0.043909 
0.046704 -0.034023 0.023851 0.12168 0.0227 0.010862 -0.0062372 0.037332 
0.011191 -0.22376 -0.06148 0.031742 0.00099702 -0.0019624 -0.019884 -0.01528 
-0.017253 -0.12955 -0.093376 -0.017417 0.0092177 0.02829 0.0036276 -0.0021268 
0.017274 0.06594 -0.080223 -0.024816 0.0085601 0.04095 0.017767 0.040128 
-0.013143 0.026152 -0.02942 -0.0036066 0.010862 0.029934 0.014972 0.059528 
-0.041422 -0.013471 0.0039565 0.019905 0.027139 0.048841 0.010204 0.068571 
0.013986 0.041114 0.046046 0.062652 0.045389 0.032564 0.010533 0.090603 
0.12102 0.20651 0.11313 0.10162 0.030098 0.044896 0.019411 0.07449 
0.11822 0.23003 0.14321 0.14108 0.034209 0.051636 0.022535 0.050157 
0.067585 0.1539 0.10343 0.1368 0.013492 0.036017 0.014972 0.017932 
0.0060938 -0.019884 0.03947 0.10228 0.022206 0.026317 0.013986 0.00017495 
0.0087245 -0.10949 0.010533 0.098001 0.041443 0.041278 0.01004 0.011191 
0.0051074 -0.14747 0.048513 0.11115 0.05476 0.034702 0.010204 0.023028 
-0.039449 -0.13744 0.053445 0.097508 0.060679 -0.018568 0.00017495 0.015465 
-0.048985 -0.066084 0.019411 0.075312 0.051308 0.0036276 -0.018075 0.010204 
0.036675 0.10902 0.010697 0.06183 0.010369 -0.011992 -0.026131 0.011848 
0.10655 0.21868 0.038812 0.069558 0.011191 -0.010183 -0.016102 0.043745 
0.067585 0.18317 0.055089 0.085999 0.04095 0.0085601 -0.012814 0.05476 
0.01563 0.12414 0.046868 0.079094 0.027632 0.028947 0.0026412 0.030427 
0.024837 0.036017 0.036346 0.06331 0.045553 0.040292 0.018096 -0.013307 
0.072681 -0.097322 0.009711 0.043745 0.012506 -0.0052507 -0.015116 -0.046025 
0.053445 -0.13727 -0.010512 0.030592 0.0018191 -0.013307 -0.026624 -0.020377 
-0.010841 -0.040435 -0.036818 0.038319 -0.00081153 0.017438 0.0023123 0.049992 
-0.015609 -0.053588 -0.052273 0.028454 0.030098 0.018425 -0.0004827 0.095699 
-0.044217 -0.18134 -0.049807 0.0065871 0.053938 0.029112 0.015301 0.086492 
-0.093376 -0.25401 0.0044497 0.033715 0.081724 0.076299 0.036675 0.050814 
-0.096007 -0.20847 0.019247 0.050157 0.078272 0.024344 0.0095465 0.030098 
-0.079401 -0.028597 0.0087245 0.048677 0.034702 0.012835 -0.0011404 -0.012649 
0.025166 0.12677 0.026974 0.06479 0.016945 0.029112 0.00017495 0.057391 
0.072681 0.26011 0.052623 0.080573 0.015301 0.025495 -0.00031829 0.024508 
0.091589 0.4362 0.081067 0.11543 0.0021479 0.020891 0.011848 0.0026412 
0.15292 0.46382 0.13154 0.14157 -0.00097594 0.005765 -0.016924 -0.0077169 
0.14305 0.42354 0.1516 0.16656 0.012013 -0.0040998 -0.015116 0.005765 
0.069722 0.37126 0.081395 0.15982 0.028783 -0.01117 -0.018897 0.032564 
0.029112 0.32818 0.057884 0.13976 0.031414 -0.035996 -0.050793 0.049828 
0.11017 0.28773 0.047362 0.10984 0.020727 -0.010183 -0.032215 0.049499 
0.24778 0.19501 0.062981 0.10688 0.039141 0.054596 0.016452 0.1271 
0.33969 -0.068879 0.034866 0.089287 0.050814 0.067091 0.037004 0.1756 
0.25781 -0.4832 -0.10883 -0.0095255 0.051801 0.05213 0.033387 0.11905 
-0.050958 -0.69201 -0.18019 -0.092061 0.040785 0.028947 0.0044497 -0.045039 
-0.39113 -0.49603 -0.096007 -0.069701 0.015137 -0.00097594 -0.025802 -0.14171 
-0.47482 -0.16046 0.007738 -0.0027845 0.032071 -0.0036066 -0.021528 -0.12807 
-0.28508 0.04095 0.06479 0.069886 0.029605 0.028783 -0.0060728 -0.020541 
-0.076935 0.21079 0.1202 0.12118 0.026646 0.025659 0.0016547 0.054267 
0.088465 0.27705 0.10507 0.1539 0.018096 0.028125 0.010369 0.034044 
0.1516 0.2468 0.02533 0.12414 0.023851 0.027632 0.0036276 0.064954 
0.26159 0.18004 0.0018191 0.076134 0.02681 0.020891 0.0018191 0.085012 
0.27113 0.12003 0.028947 0.082217 0.023028 0.056898 0.042758 0.092411 
0.088465 0.060515 0.02681 0.07301 0.032236 0.032893 0.017767 0.0016547 
-0.039284 0.036675 0.040621 0.076792 0.03799 0.0098754 -0.006566 -0.021363 
0.054103 0.10277 0.061337 0.094713 0.044238 0.030098 0.014643 0.024015 
0.13532 0.15571 0.072188 0.099974 0.033387 0.044238 0.013492 0.077285 
0.10491 0.11691 0.051143 0.08567 0.018918 0.019905 0.0041209 0.043416 
0.00066819 0.076627 0.066434 0.086328 0.0098754 0.026481 0.013164 0.017932 
-0.090417 0.095699 0.025988 0.07301 0.0056006 0.029934 0.0082312 -0.012156 
-0.1501 0.062652 -0.014951 0.061172 0.00050378 0.031414 0.0070803 -0.033037 
-0.11623 0.10622 -0.05589 0.038648 0.0083956 0.050486 0.021056 -0.022514 
-0.038791 0.19303 0.010697 0.055089 0.04358 0.059364 0.034209 0.037661 
0.088465 0.28872 0.091096 0.10507 0.044731 0.053116 0.03536 0.054267 
0.15472 0.31371 0.092576 0.11411 0.042429 0.056404 0.03536 0.069558 
0.18037 0.16755 0.079258 0.11444 0.041443 0.03799 0.021384 0.066434 
0.17182 -0.038298 0.047197 0.09833 0.038648 -0.015938 -0.0067304 0.039799 
0.15324 -0.074633 0.03651 0.080738 0.048841 -0.016924 -0.034516 0.054103 
0.16212 -0.056219 0.077614 0.093726 0.056898 -0.009361 -0.028926 0.071202 
0.1299 -0.12412 0.055911 0.08978 0.052294 0.024179 0.007738 0.046704 
0.013328 -0.30777 0.018754 0.066763 0.029112 0.079587 0.03651 0.013492 
-0.12149 -0.49849 -0.078744 0.018918 0.014972 0.065447 0.043251 -0.0098543 
-0.16901 -0.34164 -0.071674 0.023028 0.023686 0.070708 0.053281 -0.021692 
-0.12659 -0.10867 -0.056712 -0.00015387 0.014315 0.01974 0.012177 0.012506 
-0.133 -0.12708 -0.042573 0.00017495 0.01152 0.017603 0.0065871 -0.013636 
-0.086307 -0.00081153 -0.0070593 0.023851 0.040456 0.029276 0.0060938 0.015959 
0.020398 0.1544 0.06479 0.072353 0.031742 0.031578 0.0067515 0.054267 
0.071531 0.24943 0.085177 0.11395 0.038648 0.07301 0.037004 0.068571 
0.15127 0.30105 0.090767 0.12431 0.056569 0.056076 0.033222 0.068242 
0.21737 0.26653 0.08863 0.12085 0.040621 0.021549 0.0098754 0.076627 
0.1978 0.20849 0.10655 0.12266 0.045882 0.024015 0.0047785 0.037004 
0.064625 0.077943 0.11691 0.15949 0.080244 0.038319 0.0079024 0.03536 
-0.070852 -0.067399 0.052459 0.13351 0.05213 0.025659 0.0021479 0.024179 
-0.086636 0.0021479 0.0021479 0.10491 0.031249 0.0060938 0.00017495 0.0074092 
-0.036489 0.027796 0.0019835 0.069064 0.0046141 0.009711 -0.0091966 0.022371 
-0.0068948 0.00050378 0.004943 0.061337 0.020069 0.013328 -0.0059084 0.030427 
-0.010183 -0.055397 0.0019835 0.050814 0.020398 0.026481 0.020069 0.0074092 
-0.024816 -0.10965 -0.017417 0.034866 0.026974 0.050321 0.010204 0.026481 
0.025166 -0.084991 -0.038627 0.015301 0.031249 0.030592 0.013328 0.034044 
0.066434 -0.017582 -0.015444 0.032236 0.016616 0.04358 0.023028 0.037826 
0.10754 -0.0068948 0.013821 0.039634 0.01826 0.027796 0.0072447 0.034373 
0.12908 0.03799 0.073504 0.063968 0.013657 0.033387 0.012342 0.05213 
0.1391 0.061501 0.061172 0.079422 0.03651 0.04654 0.018425 0.065118 
0.1225 -0.035667 0.053774 0.096193 0.055582 0.053281 0.025659 0.083368 
0.029769 -0.061151 0.009711 0.098823 0.07038 0.041607 0.0227 0.053609 
-0.055726 -0.090746 -0.0031133 0.064461 0.050157 0.034866 0.011848 0.0083956 
-0.078579 -0.071674 -0.026296 0.032729 0.005765 -0.004593 -0.016431 -0.0083746 
-0.037311 0.0054362 -0.021692 0.025824 -0.00081153 -0.017088 -0.030735 -0.0042642 
0.01563 0.06479 0.026974 0.0592 -0.0059084 0.0083956 -0.021034 -0.0013048 
0.082711 0.15028 0.076299 0.096521 0.017932 0.0069159 -0.017582 0.029934 
0.11346 0.21243 0.11757 0.13631 0.031085 0.0074092 -0.012156 0.046704 
0.15686 0.25239 0.11937 0.14453 0.034866 0.029112 -0.0026201 0.053938 
0.15209 0.30681 0.13088 0.14913 0.030427 0.01974 -0.0014692 0.070544 
0.060844 0.22953 0.11658 0.13943 0.032236 0.005765 0.009711 0.029276 
0.010204 0.17265 0.077121 0.12316 0.036017 0.012177 -0.0091966 0.056569 
0.087972 0.23512 0.065447 0.13664 0.015959 0.0032988 -0.012485 0.10096 
0.091918 0.21342 0.060844 0.11921 0.017603 -0.001798 -0.001798 0.059364 
0.075148 0.096193 -0.004593 0.069064 0.014479 0.01004 -0.0091966 0.054925 
0.073997 0.026974 -0.044052 0.024179 -0.0036066 -0.010019 -0.025309 0.027632 
-0.016102 -0.04471 -0.05737 1.0539e-005 0.01152 0.019083 -0.018568 -0.060165 
-0.10538 -0.14928 -0.069043 -0.01528 0.017603 0.012999 -0.012649 -0.059343 
-0.07973 -0.16802 -0.011498 0.01563 0.043909 0.019083 -0.0042642 -0.009361 
-0.053424 -0.17493 0.076956 0.071037 0.050321 0.038812 0.0039565 0.010369 
-0.024323 -0.010841 0.076956 0.090109 0.039634 0.017932 0.0016547 0.025166 
0.038977 0.13434 0.068407 0.072517 0.020727 0.016616 0.0021479 0.068407 
0.10392 0.17117 0.046046 0.08156 -0.0011404 0.021056 -0.0004827 0.074654 
0.15883 0.1909 0.068571 0.11494 0.029112 0.018589 -0.0029489 0.072024 
0.099481 0.11214 0.039141 0.12102 0.018918 0.018589 0.0069159 0.041936 
0.10622 0.062652 0.042594 0.098659 0.046046 0.038483 0.013164 0.044567 
0.066927 0.023851 0.020069 0.0786 0.050157 0.020069 0.0046141 0.032071 
-0.026953 -0.036818 -0.015444 0.04506 0.012342 -0.02087 -0.0054151 -0.009361 
-0.086307 -0.038298 -0.035338 0.021056 -0.0138 -0.05441 -0.041586 -0.032872 
-0.07562 0.036675 -0.02794 0.014479 -0.014458 -0.032872 -0.048985 -0.021692 
-0.05326 0.090274 0.0041209 0.027796 0.0018191 -0.00064712 -0.017911 0.016781 
0.020069 0.16525 0.060022 0.064296 0.0088889 0.0082312 -0.017253 0.025824 
0.070051 0.22427 0.091753 0.10639 0.017767 0.0054362 -0.017417 0.045553 
0.13582 0.35432 0.11494 0.1322 0.0039565 0.0090533 -0.012649 0.048841 
0.13351 0.45182 0.14075 0.1664 0.016781 0.00033937 -0.016431 0.050814 
0.078272 0.2925 0.095206 0.17708 0.031085 0.0082312 -0.012649 0.034702 
-0.022843 0.12924 0.081067 0.14617 0.038483 0.046704 0.0034632 0.018425 
0.019083 0.12973 0.069064 0.12447 0.038977 0.031578 0.0069159 0.059857 
0.060515 0.098166 0.047526 0.10902 0.04654 0.027139 0.0039565 0.08978 
0.062981 0.028454 0.026974 0.082711 0.025659 0.019905 -0.003771 0.077449 
0.060186 -0.12182 -0.0087034 0.048184 0.0098754 -0.0068948 -0.018075 0.068736 
0.037661 -0.1912 -0.033694 0.022535 -0.0034422 -0.014951 -0.020541 0.012835 
0.025166 -0.17953 -0.016595 0.010533 -0.021528 0.014972 -0.0098543 0.015137 
0.021713 -0.20682 -0.023994 0.0044497 -0.013143 0.0018191 -0.014622 0.04917 
-0.056712 -0.36959 -0.043559 0.00050378 0.0227 0.00017495 -0.0004827 0.013821 
-0.2499 -0.49685 -0.10949 -0.028762 0.0083956 -0.0077169 -0.024158 -0.0868 
-0.30202 -0.34148 -0.080059 -0.0050863 0.0074092 -0.004593 -0.025802 -0.089759 
-0.15289 -0.018404 -0.008539 0.022042 0.030098 0.013328 -0.0036066 -0.043395 
0.056569 0.18251 0.058377 0.074161 0.068078 0.028947 0.0060938 0.030756 
0.11411 0.29628 0.08567 0.10819 0.068078 0.031249 0.0095465 0.050321 
0.12365 0.4219 0.15324 0.16245 0.073339 0.042594 0.016781 0.034044 
0.13121 0.41828 0.16344 0.19205 0.091918 0.024344 0.0059294 0.023522 
0.12792 0.2685 0.075805 0.1368 0.03388 0.005765 -0.0082102 0.062652 
0.021878 0.097015 -0.030242 0.050814 -0.0049219 0.01826 -0.015116 -0.0064016 
-0.06296 0.070873 -0.035667 0.016945 -0.015938 -0.010676 -0.030077 -0.0016336 
-0.068057 0.078929 -0.010019 0.019576 -0.017417 0.014808 -0.010348 0.032893 
0.03536 -0.12889 -0.032543 0.024015 -0.0064016 0.05065 0.0092177 0.0786 
0.11329 -0.4781 -0.097322 0.0059294 -0.0049219 0.017932 0.0011614 0.065776 
0.079094 -0.51312 -0.065591 -0.0088678 0.018589 -0.021856 -0.020048 0.007738 
-0.045039 -0.30218 0.057884 0.062323 0.042429 -0.010512 -0.037969 -0.021692 
-0.057863 -0.039778 0.097672 0.11329 0.052952 -0.0052507 -0.028597 0.0042853 
0.014315 0.17117 0.099974 0.12316 0.061172 0.045389 0.013986 0.042594 
0.086163 0.26159 0.078436 0.12151 0.036182 0.075476 0.034209 0.04095 
0.063639 0.2565 0.074326 0.13236 0.02681 0.084684 0.052952 0.11576 
0.043745 0.21868 0.077943 0.12069 0.028947 0.083862 0.073175 0.045389 
0.049335 0.25798 0.10277 0.12365 0.054103 0.05772 0.034866 0.049828 
0.076792 0.41696 0.13631 0.14716 0.027139 0.013821 0.0069159 0.033387 
0.051472 0.34775 0.086985 0.1493 0.035688 0.019905 0.016781 -0.013307 
-0.010841 0.071695 -0.024487 0.091753 -0.0013048 1.0539e-005 -0.0090322 -0.01232 
0.0051074 -0.075127 -0.12412 -0.012649 -0.00015387 0.04506 0.018918 0.042594 
0.0019835 -0.23444 -0.15109 -0.069208 0.0028056 0.076299 0.04095 0.062323 
0.025001 -0.30629 -0.11491 -0.068714 0.033387 0.080409 0.051636 0.11099 
0.050321 -0.27736 -0.048327 -0.026131 0.06479 0.072517 0.052294 0.092411 
0.040456 -0.43799 -0.042573 -0.011005 0.075805 0.037332 0.016288 0.011026 
0.05065 -0.30333 -0.0077169 0.015465 0.067091 -0.0054151 -0.02235 0.012506 
0.11477 0.024015 0.086492 0.078765 0.050979 0.011355 0.0016547 0.023193 
0.15094 0.23463 0.13746 0.1299 0.050979 0.064132 0.02533 0.035524 
0.097179 0.29711 0.13779 0.15242 0.01415 0.047197 0.025659 0.01826 
0.044896 0.12727 0.052787 0.11921 0.010533 0.055911 0.050157 0.0060938 
-0.012649 0.032564 -0.0075525 0.09685 0.0037921 0.042758 0.026646 0.014479 
-0.21241 0.022371 -0.033365 0.044567 0.021056 -0.0096899 -0.019061 -0.0057439 
-0.22162 0.053938 0.03799 0.070051 0.042923 -0.012978 -0.021528 -0.011827 
-0.032215 0.1077 0.065283 0.097344 0.052294 -0.032872 -0.042737 0.044402 
0.10918 0.091918 0.013492 0.0689 0.049828 -0.058356 -0.067892 0.024673 
0.22049 0.081395 0.025166 0.06742 0.022206 -0.04323 -0.071674 0.005765 
0.22328 0.052459 0.016781 0.061008 -0.0027845 -0.0064016 -0.042901 0.015959 
0.097344 -0.10752 0.009711 0.052952 0.0062583 0.066763 0.01826 0.049664 
0.0088889 -0.20781 0.024837 0.054267 0.041607 0.14782 0.089616 0.073504 
0.022206 -0.075949 0.071037 0.08008 0.052623 0.13532 0.10359 0.085506 
0.041278 0.085012 0.06183 0.10869 0.029276 0.06742 0.063474 0.074654 
0.080573 0.24285 0.067749 0.13549 0.012999 0.027961 0.012835 0.049664 
0.12233 0.42486 0.12085 0.15357 0.024344 0.031249 0.011355 0.058706 
0.12595 0.45412 0.13927 0.17215 0.035031 0.045718 0.035688 0.075312 
0.04506 0.28395 0.055418 0.12628 0.027632 0.04506 0.017932 0.027796 
-0.036818 0.06183 0.0028056 0.073339 0.027632 0.020233 0.005765 0.0098754 
-0.045039 -0.016595 0.0065871 0.058542 0.017767 0.00033937 0.0044497 0.04095 
-0.0024557 0.010204 0.015137 0.057391 0.0074092 0.011026 -0.0078813 0.03092 
0.05624 -0.046519 0.01974 0.051143 1.0539e-005 0.009711 -0.015444 0.050321 
0.079094 -0.14139 0.0065871 0.036675 0.025166 0.012506 -0.0057439 0.0324 
0.042758 -0.1889 -0.0052507 0.029934 0.024508 0.0046141 -0.014787 0.0028056 
-0.048985 -0.27604 -0.02942 0.032236 0.037497 0.033715 0.0047785 0.013657 
-0.032872 -0.21619 -0.064111 0.0090533 0.06594 0.058049 0.02681 0.012342 
-0.009361 -0.016102 -0.006566 0.027139 0.023357 0.058213 0.033551 0.035688 
0.074654 0.28675 0.067749 0.077943 0.046211 0.062488 0.04358 0.11165 
0.14552 0.54899 0.12135 0.13335 0.033387 0.033222 0.012999 0.094384 
0.17955 0.69055 0.17445 0.17906 0.04095 0.0056006 -0.011334 0.094713 
0.14239 0.56477 0.14206 0.17511 0.029934 -0.022185 -0.027282 0.05213 
0.066927 0.24926 0.037497 0.11296 0.015794 -0.035667 -0.048163 -0.030077 
-0.040764 -0.14615 -0.046519 0.031414 -0.0040998 -0.039778 -0.061151 -0.13432 
-0.077922 -0.37436 -0.055726 0.0067515 0.021056 -0.02498 -0.038791 -0.15076 
-0.014458 -0.30235 0.0095465 0.029441 0.060679 0.022371 -0.0082102 -0.017088 
0.0065871 -0.145 0.10408 0.10376 0.075641 0.059857 0.027468 0.11296 
0.00297 0.017438 0.092082 0.14552 0.036346 0.035688 0.026646 0.11181 
0.01004 0.075641 0.073997 0.13023 0.025001 0.031085 0.023193 0.069886 
0.020233 0.13779 0.048513 0.10737 0.023357 0.037661 0.01711 0.048677 
0.1054 0.18087 0.041443 0.096028 0.015794 0.063968 0.039141 0.033387 
0.097179 0.14157 0.018754 0.073997 0.020069 0.035195 0.021713 0.033551 
0.10951 0.21145 0.068407 0.099645 0.038155 0.023686 0.010533 0.059528 
0.005765 0.15242 0.080902 0.11346 0.04917 0.051308 0.014808 0.027303 
-0.16046 0.015301 0.024508 0.078107 0.017603 0.025659 0.0046141 -0.04882 
-0.15191 0.00083261 -0.0077169 0.037004 -0.0070593 0.021549 0.0028056 -0.042079 
0.026152 0.12562 0.047197 0.061337 -0.0016336 0.022371 -0.00031829 0.046375 
0.17495 0.18942 0.078436 0.098494 0.035031 0.01711 -0.0062372 0.095699 
0.12875 0.11576 0.038812 0.1008 0.039305 0.03092 0.013657 0.068407 
0.0026412 -0.15733 -0.045861 0.058377 0.044402 0.039141 0.013986 -0.0080457 
-0.061645 -0.25335 -0.072496 0.0044497 0.02533 0.015959 0.00017495 -0.032543 
-0.0049219 0.020891 -0.047669 0.0041209 0.035031 0.011191 -0.00015387 0.01826 
0.11263 0.24778 0.05065 0.064461 0.031742 0.020398 -0.0055795 0.062981 
0.11198 0.35646 0.10425 0.11066 0.035853 0.016123 -0.003771 0.04358 
0.037497 0.24597 0.070544 0.10622 0.026481 0.026481 0.0092177 0.023686 
0.09126 0.07038 0.037004 0.091589 0.021384 0.049006 0.019083 0.017438 
0.13812 -0.042408 0.03799 0.076792 0.01711 0.032071 0.017438 0.03536 
0.087314 -0.090581 0.088465 0.092576 0.036675 0.05065 0.015137 0.03092 
0.0031344 -0.081868 0.086163 0.10721 0.037826 0.022371 0.0062583 0.02533 
-0.07825 -0.061316 0.039305 0.095699 0.052294 0.034537 0.0072447 0.03388 
-0.12807 -0.13678 -0.070359 0.047033 0.053938 0.028125 0.00017495 -0.011827 
-0.082032 -0.11607 -0.11623 -0.023829 0.052952 0.0018191 -0.016266 -0.027282 
-0.062631 -0.15964 -0.091075 -0.037476 0.031414 -0.016266 -0.029748 -0.030899 
0.00066819 -0.10357 0.0052718 0.015137 0.027961 0.0011614 -0.025967 -0.022843 
0.077449 0.067749 0.048348 0.064296 0.01004 0.0024767 -0.021363 0.027468 
0.16393 0.11148 0.050979 0.078436 0.0037921 0.027303 0.017438 0.087479 
0.069393 0.060844 0.049335 0.088301 0.016452 0.06594 0.023028 0.027632 
0.0018191 0.049664 0.077778 0.10113 0.01711 0.016781 0.0039565 0.021713 
0.031742 0.062817 0.14667 0.13878 0.058706 0.05476 0.0324 0.064625 
0.11888 0.14009 0.16196 0.17396 0.050321 0.028947 0.0072447 0.063474 
0.10852 0.14502 0.12135 0.17034 0.046704 0.016288 0.0042853 0.064954 
0.053609 0.062323 0.041443 0.15012 0.036346 0.031414 0.013821 0.041607 
0.027961 0.044567 0.013164 0.092576 0.022042 0.014972 -0.017746 0.035524 
0.037004 -0.0064016 -0.045696 0.031742 0.029769 0.0088889 -0.012156 0.031907 
0.00066819 -0.028597 -0.056548 0.0064227 0.016452 0.044896 0.017932 0.030098 
-0.12955 0.0085601 -0.032215 0.009711 0.0324 0.010533 -0.0060728 -0.010019 
-0.21948 -0.059178 -0.044381 0.00099702 0.0018191 0.0088889 -0.012814 -0.057699 
-0.14254 -0.11015 -0.043066 -0.00081153 -0.0077169 0.014972 -0.010676 -0.028433 
0.051965 -0.022514 -0.00064712 0.017603 0.025988 0.01826 0.0018191 0.050321 
0.16541 0.025824 0.056076 0.0592 0.032071 0.010204 0.00017495 0.08419 
0.19829 0.098494 0.090109 0.097015 0.03092 0.033387 0.0042853 0.093726 
0.11132 0.040292 0.071366 0.11083 0.024015 0.031414 0.010369 0.086163 
-0.047998 -0.20518 -0.069701 0.052787 0.022535 0.035031 0.024015 0.033715 
-0.063453 -0.3834 -0.12182 -0.025802 0.011848 0.036839 0.013164 -0.01939 
0.015137 -0.37173 -0.081374 -0.024816 0.03651 0.015959 0.0032988 -0.0070593 
0.15867 -0.10275 0.013986 0.030756 0.048019 0.042265 0.02533 0.07038 
0.21868 0.19961 0.081395 0.085835 0.050321 0.036182 0.018918 0.075641 
0.15982 0.36221 0.094713 0.11378 0.037332 0.0067515 -0.0013048 0.082217 
0.11888 0.42469 0.10902 0.1345 0.015465 0.0070803 -0.0047575 0.070708 
0.091425 0.402 0.12908 0.15226 0.0011614 0.0069159 -0.017746 0.054925 
0.0034632 0.26932 0.13664 0.15818 0.015959 0.0018191 -0.017253 0.025495 
-0.06855 0.16508 0.087314 0.13253 -0.0050863 -0.019226 -0.026953 -0.0075525 
-0.013471 0.082711 0.10359 0.14239 -0.00097594 0.0028056 -0.021692 0.0044497 
0.1567 0.049499 0.098659 0.18021 0.0013258 0.024673 -0.0016336 0.096028 
0.30352 0.18728 0.14996 0.19155 0.028783 0.071366 0.026974 0.13861 
0.27261 0.19369 0.1174 0.17248 0.031249 0.030263 0.0079024 0.087972 
-0.054082 -0.10949 -0.11755 0.013328 0.020727 -0.0040998 -0.0044286 -0.055232 
-0.41481 -0.28295 -0.25664 -0.12544 0.02122 -0.0095255 -0.022514 -0.14796 
-0.4125 -0.079566 -0.13958 -0.10308 0.035195 0.016288 -0.0077169 -0.095185 
-0.30777 0.1197 0.014315 0.0042853 0.068242 0.044402 0.033058 -0.036489 
-0.12675 0.15292 0.052294 0.050321 0.044073 0.062159 0.037497 0.029934 
0.11346 0.05065 -0.019555 0.022042 0.019576 0.030592 0.015301 0.10935 
0.21671 -0.023665 -0.041586 -0.0014692 0.0042853 0.041936 0.02533 0.11642 
0.15275 -0.092554 0.0075736 0.036017 0.040621 0.048019 0.023686 0.06331 
0.075148 -0.16786 0.026317 0.085999 0.044402 0.037661 0.016781 0.027468 
0.081067 -0.12971 0.11033 0.12217 0.053609 0.040128 0.020562 0.052623 
0.16278 0.055911 0.15637 0.17084 0.025001 0.029441 0.011191 0.076134 
0.19961 0.19221 0.18317 0.20487 0.035195 -0.017417 -0.017911 0.1105 
0.13697 0.33278 0.15094 0.19402 0.049828 0.058049 0.012177 0.070544 
0.1031 0.29234 0.11148 0.16969 0.03799 0.061666 0.026152 0.004943 
0.053116 0.21654 0.046046 0.1151 0.017767 0.035853 0.017274 -0.026953 
-0.027775 0.019576 -0.023501 0.044073 -0.0073881 0.020891 -0.0016336 -0.067399 
-0.042737 -0.13464 -0.045368 0.0047785 0.0062583 -0.015444 -0.029913 -0.07562 
-0.0095255 -0.055561 0.0021479 0.021056 0.03799 -0.0072237 -0.0059084 -0.0052507 
0.014315 0.047033 0.028783 0.061008 0.016123 0.012342 -0.022514 0.055911 
-0.016102 0.1636 0.051308 0.10885 0.019905 -0.034188 -0.048492 0.055747 
-0.080881 0.18284 0.061008 0.1128 0.016945 -0.031228 -0.054082 0.040292 
-0.17394 0.046868 -0.02794 0.052787 0.016452 -0.023007 -0.054246 -0.021528 
-0.22951 -0.0070593 -0.047669 0.022864 0.031414 0.012177 -0.020212 -0.045203 
-0.16835 -0.035832 -0.019719 0.023851 0.031414 0.070873 0.029441 -0.0024557 
-0.094034 -0.086142 -0.02498 0.017767 0.012013 0.090109 0.057884 0.014808 
0.08567 -0.0011404 -0.0090322 0.024344 0.032564 0.078929 0.0592 0.073668 
0.21704 0.078107 0.0042853 0.038155 0.058871 0.073997 0.047526 0.10556 
0.21408 0.13351 0.044402 0.061337 0.062159 0.035031 0.022864 0.073504 
0.15686 0.13467 0.054267 0.075805 0.064954 0.027468 0.0083956 0.03947 
0.098823 -0.03764 0.053445 0.091753 0.056569 0.031742 0.0032988 0.026646 
0.066434 -0.084169 -0.0047575 0.090109 0.027632 -0.015444 -0.028762 -0.00081153 
0.034537 -0.00081153 0.049006 0.095042 0.019247 -0.0088678 -0.025967 0.0074092 
0.060022 0.11757 0.10113 0.12727 0.026974 0.018096 -0.012814 0.0064227 
0.091096 0.20191 0.093069 0.13368 0.021713 0.020891 -0.006566 0.00050378 
0.12661 0.21408 0.08304 0.12825 0.0080668 0.035524 0.020069 0.042429 
0.098988 0.15719 0.047197 0.10162 0.004943 0.025495 0.0054362 0.038812 
-0.02794 0.060679 0.026646 0.087972 0.01004 0.00099702 -0.014622 0.0067515 
-0.18791 -0.078744 0.01004 0.058871 0.018918 0.0072447 0.0026412 -0.0087034 
-0.21833 -0.25236 -0.045368 0.0082312 0.013492 -0.0036066 -0.018897 -0.031721 
-0.16835 -0.41365 -0.099789 -0.041422 0.022042 -0.013471 -0.024158 -0.021856 
-0.056548 -0.35545 -0.072003 -0.029255 0.048348 0.0095465 -0.014622 0.0036276 
0.075148 -0.096829 -0.016431 0.032071 0.066763 0.01563 -0.013471 0.038319 
0.19681 0.16788 0.063145 0.094713 0.043745 0.018754 -0.0036066 0.09274 
0.22279 0.23331 0.10474 0.12612 0.00066819 0.030756 0.0060938 0.12677 
0.22427 0.25008 0.059364 0.11017 0.0036276 0.016452 -0.0044286 0.11411 
0.27047 0.13006 0.016945 0.083368 -0.0042642 0.024837 0.00099702 0.093233 
0.24351 0.014972 0.053774 0.093398 0.037332 0.055582 0.022042 0.094713 
0.09981 -0.03501 0.057062 0.097344 0.059364 0.047033 0.018589 0.039963 
-0.026624 -0.10916 0.02829 0.074326 0.026974 0.031578 0.018096 -0.0072237 
-0.082032 -0.10735 0.0079024 0.053116 0.018754 0.009711 0.0014903 -0.03353 
-0.157 0.024344 0.020727 0.053774 0.027303 0.01152 -0.010348 -0.055068 
-0.094692 0.18185 0.060679 0.08008 0.051636 0.0093821 0.012506 -0.041586 
0.03651 0.32785 0.073175 0.11395 0.029112 0.032071 0.0067515 0.0042853 
0.14848 0.31536 0.060186 0.13713 0.019083 0.024344 0.0037921 0.021056 
0.15505 0.28872 0.040292 0.10425 0.023522 0.018918 0.0065871 0.066269 
0.074983 0.2029 0.044402 0.097015 0.015301 0.01152 -0.023336 0.043416 
-0.017088 0.00050378 0.04095 0.090767 0.039963 0.016452 -0.012814 0.00033937 
-0.042244 -0.17328 0.0080668 0.065118 0.040456 0.038812 0.009711 0.012506 
0.037661 -0.21455 -0.0060728 0.047855 0.025824 0.045389 0.01826 0.044073 
0.11247 -0.12182 0.0060938 0.047855 0.01267 0.015301 0.0037921 0.063968 
0.075148 0.077285 0.054596 0.072353 0.00297 0.029112 -0.0014692 0.043416 
0.011848 0.17429 0.06035 0.082053 0.0014903 0.0024767 -0.017417 0.012835 
-0.0055795 0.12562 0.033715 0.070873 0.005765 0.010862 -0.021528 0.01152 
0.06331 0.096686 0.043909 0.095042 0.048184 0.051308 0.0072447 0.060679 
0.1271 0.15193 0.10228 0.15916 0.058213 0.046704 0.023686 0.059035 
0.08304 0.15867 0.090109 0.14535 0.056076 0.02533 0.024837 0.038812 
0.049664 0.15489 0.070708 0.12875 0.049499 0.048513 0.020233 0.061172 
0.025166 0.059528 0.03947 0.10293 0.026481 0.03536 0.01563 0.025659 
0.0085601 -0.053588 -0.048163 0.031907 0.0013258 0.015794 0.005765 0.015465 
0.0056006 -0.16325 -0.10423 -0.02942 -0.014129 0.020562 -0.0032777 0.018589 
0.050486 -0.080552 -0.028597 0.0014903 -0.0036066 0.028125 0.0032988 0.045553 
0.027796 0.15752 0.064461 0.060844 0.019411 0.029276 0.016616 0.037826 
-0.0078813 0.1345 0.098988 0.10129 0.047362 0.024015 0.0087245 0.037168 
-0.023172 0.073668 0.10277 0.12003 0.054925 0.027468 0.0067515 0.030098 
-0.076935 0.074326 0.098988 0.14897 0.037497 0.034537 0.0067515 -0.0004827 
-0.13958 0.042923 0.031249 0.13302 0.016781 0.01004 -0.0062372 -0.063782 
-0.1016 0.02533 -0.041751 0.054925 0.031249 0.014808 -0.0075525 -0.047012 
0.011848 0.059035 -0.0067304 0.045718 0.044731 0.039799 0.012342 0.026974 
0.16262 0.08304 0.056076 0.079916 0.062981 0.061995 0.029276 0.081395 
0.19122 0.054925 0.062817 0.097015 0.056733 0.074161 0.046704 0.088958 
0.093233 0.042758 0.056898 0.08863 0.043416 0.089945 0.056076 0.071037 
-0.057699 0.012506 -0.0031133 0.056569 0.014643 0.031414 0.020069 0.015465 
-0.024323 0.065612 -0.0078813 0.034537 0.022042 0.01267 0.010533 0.02829 
0.095699 0.11231 0.011026 0.03651 0.015465 0.021549 -0.0052507 0.055582 
0.13483 0.17281 0.053938 0.066105 0.013986 -0.0070593 -0.019061 0.065776 
0.14371 0.21523 0.073175 0.098823 -0.0082102 -0.03353 -0.025474 0.070051 
0.10063 0.11806 0.042594 0.11592 0.0047785 -0.040928 -0.05737 0.06183 
0.0095465 -0.072003 0.0024767 0.078436 0.039799 -0.059507 -0.070359 0.0042853 
-0.076442 -0.27818 -0.036818 0.032071 0.040128 0.0023123 -0.027118 -0.0064016 
-0.019226 -0.11031 -0.035667 0.023851 0.086163 0.061666 0.0042853 0.013492 
0.055582 0.15374 0.053774 0.066434 0.052952 0.043909 0.017932 -0.00015387 
0.024837 0.26965 0.088465 0.10326 0.0019835 0.037168 0.014972 -0.034516 
0.009711 0.18136 0.065612 0.10228 0.0075736 0.019083 0.0032988 -0.022679 
-0.047669 0.085999 0.055254 0.095371 -0.0016336 0.019411 0.0034632 0.00066819 
-0.18298 -0.0078813 0.031249 0.075312 0.026646 0.022371 -0.0019624 -0.021363 
-0.23806 -0.0029489 0.022535 0.054432 0.053938 0.023193 -0.0034422 -0.0040998 
-0.094363 0.057884 0.048184 0.081724 0.027796 0.011848 -0.0029489 0.049006 
0.069064 0.052787 0.020891 0.10458 0.030098 0.044073 -0.003771 0.10672 
0.13549 0.013328 0.024673 0.082875 0.02829 0.032071 0.0034632 0.10129 
0.14535 -0.030735 0.012835 0.070708 0.06479 0.032071 0.01152 0.098494 
0.10145 -0.090253 -0.036489 0.028783 0.031249 0.012342 -0.009361 0.0074092 
0.046868 -0.12429 -0.090088 -0.027282 0.022206 -0.0098543 -0.028433 -0.030242 
0.10902 -0.14648 -0.044874 -0.012485 0.033222 -0.0029489 -0.0075525 0.032729 
0.16344 -0.015938 0.058377 0.063145 0.069064 0.026481 0.0098754 0.11674 
0.038155 0.085835 0.046375 0.076463 0.03947 0.01711 -0.0032777 0.044731 
-0.084169 0.030592 0.026974 0.061008 0.022206 -0.0075525 -0.0067304 -0.019226 
-0.11113 -0.028762 0.0095465 0.046704 0.019247 -0.018404 -0.038133 -0.07266 
-0.05326 -0.052437 0.01826 0.059693 0.044238 -0.030242 -0.047012 -0.045861 
-0.0088678 0.096686 0.064296 0.11806 0.094384 0.00033937 -0.020541 0.02829 
0.014972 0.21737 0.085506 0.12381 0.037497 0.0021479 -0.021856 0.037004 
-0.020048 0.18333 0.073339 0.11198 0.0013258 0.0075736 -0.016924 0.0070803 
0.0036276 0.084519 0.049335 0.098823 0.011026 0.045718 0.011191 0.048348 
0.061666 0.021384 0.03536 0.08567 0.029276 0.055418 0.025495 0.0689 
0.059528 -0.033694 0.011848 0.066434 0.037497 0.057391 0.031907 0.037168 
0.04917 -0.033365 -0.0026201 0.051308 0.039305 0.098823 0.051636 0.054596 
0.06331 0.00297 0.035195 0.059528 0.036182 0.044238 0.029112 0.033058 
0.063968 0.014643 0.042758 0.067256 0.028783 0.037497 0.023686 0.034209 
0.062159 0.086657 0.059693 0.076134 -0.0068948 0.044896 0.018096 0.056076 
0.079587 0.13664 0.046211 0.085835 -0.021199 0.054432 0.0324 0.034537 
0.099974 0.1105 0.022864 0.10326 -0.028433 0.024837 0.024015 0.044402 
0.11855 0.10211 0.043909 0.091425 0.0037921 0.046868 0.029276 0.060186 
0.097672 0.073832 0.048184 0.093562 0.065776 0.044402 0.02533 0.048348 
0.076463 0.018918 0.03092 0.083862 0.066763 0.03536 0.031907 0.048019 
0.029605 -0.0027845 0.023193 0.072517 0.067091 0.026481 0.0085601 0.034209 
-0.048492 -0.14813 -0.016266 0.04506 0.056569 0.017438 0.00033937 0.0019835 
-0.15388 -0.44752 -0.092719 -0.016924 0.030098 0.004943 -0.009361 -0.021692 
-0.14895 -0.53154 -0.11048 -0.055397 0.031907 -0.0060728 -0.02087 -0.020048 
-0.12889 -0.27966 -0.050958 -0.035174 0.033551 -0.006566 -0.024158 -0.045203 
-0.040271 0.055254 0.042758 0.035195 0.042923 0.016945 -0.012485 0.0052718 
0.12875 0.2754 0.10244 0.10178 0.02533 0.029112 0.0087245 0.10326 
0.15144 0.28412 0.10622 0.1516 -0.01676 0.028783 0.0062583 0.092082 
0.11132 0.24186 0.078765 0.13499 0.01004 0.019411 -0.014951 0.06479 
0.14963 0.22444 0.057391 0.11674 -0.0088678 0.012013 -0.014951 0.083862 
0.19418 0.29332 0.10589 0.13516 0.0062583 0.042429 0.013492 0.092904 
0.1396 0.23726 0.099152 0.13828 0.039305 0.073175 0.027632 0.071366 
0.13976 0.10754 0.058049 0.12184 0.058377 0.066269 0.031249 0.085012 
0.14535 0.14946 0.077943 0.12168 0.049992 0.063639 0.052623 0.063474 
0.009711 0.18152 0.081231 0.10359 0.024837 0.058871 0.040456 0.010204 
-0.13103 0.20914 0.0421 0.080573 0.029769 0.025166 0.013986 -0.061316 
-0.065755 0.19336 -0.039942 0.029441 0.023357 0.0064227 0.017603 -0.059836 
0.085177 0.030427 -0.07825 -0.0087034 0.038483 0.061337 0.02829 -0.011334 
0.1664 -0.13185 -0.061645 0.011026 0.039141 0.056898 0.035524 0.032236 
0.14124 -0.10225 0.025495 0.064296 0.018425 0.070051 0.053281 0.086492 
0.020069 -0.086307 0.059693 0.092411 0.009711 0.00297 0.0060938 0.091425 
-0.048163 -0.078086 0.037497 0.082711 0.019083 -0.057699 -0.050136 0.05213 
-0.022514 -0.017911 0.041114 0.083862 0.0083956 -0.090417 -0.095185 0.043745 
0.032236 0.034537 0.033058 0.076627 -0.013307 -0.11656 -0.12593 0.02533 
0.12776 0.16048 0.09981 0.1174 0.013328 -0.041093 -0.088773 0.030098 
0.17725 0.20619 0.14897 0.16179 0.048348 0.07597 0.0026412 0.082382 
0.16212 0.23529 0.16492 0.18744 0.087479 0.12727 0.069722 0.11313 
0.12661 0.317 0.12579 0.16294 0.074326 0.11378 0.086657 0.097508 
0.11526 0.28017 0.06035 0.11921 0.048513 0.085341 0.062981 0.061501 
0.087479 0.13171 -0.026953 0.069393 0.012999 0.036839 0.027632 -0.020048 
-0.053095 -0.075291 -0.084827 0.025001 -0.0077169 0.0013258 0.013986 -0.047998 
-0.24086 -0.14566 -0.088608 -0.017911 -0.028762 0.0021479 -0.012978 -0.10045 
-0.30169 -0.11196 -0.091075 -0.035667 0.00033937 -0.019884 -0.03205 -0.11705 
-0.16917 0.089616 0.024179 0.030592 0.03799 1.0539e-005 -0.0064016 -0.060494 
0.026317 0.28395 0.10408 0.10293 0.051801 0.0098754 -0.011498 0.035688 
0.1442 0.305 0.10195 0.12628 0.071202 0.021878 0.00050378 0.0786 
0.21753 0.21194 0.088794 0.12332 0.037826 0.029112 0.0037921 0.098659 
0.17281 0.047526 0.045553 0.096357 0.018425 -0.0062372 -0.028926 0.075805 
0.004943 -0.23395 0.0011614 0.052787 0.0042853 -0.011005 -0.033365 -0.035832 
-0.034352 -0.29117 0.0047785 0.040456 0.0046141 0.0054362 -0.022185 -0.020377 
0.00297 -0.08121 0.048348 0.084848 0.016781 0.0085601 -0.018075 0.016781 
0.018425 0.14206 0.095535 0.13878 0.045224 0.007738 -0.016595 0.025001 
0.021549 0.24104 0.090931 0.1368 0.052787 0.029605 -0.0024557 0.012177 
0.034702 0.24055 0.077121 0.12464 0.04917 0.018425 -0.0050863 0.035031 
0.038319 0.12809 0.032564 0.092904 0.021549 0.0227 -0.00031829 0.035031 
-0.047834 0.0021479 -0.03764 0.037826 0.016616 0.030592 0.0014903 0.012013 
-0.1455 -0.056877 -0.065919 -0.0034422 0.0088889 0.029112 0.00083261 -0.047176 
-0.13366 -0.034516 -0.033859 0.0018191 0.030427 0.057391 0.039799 0.0018191 
0.032893 0.057062 0.045224 0.046704 0.01711 0.052294 0.03388 0.065612 
0.11494 0.15456 0.15538 0.11921 0.019905 0.029441 0.018096 0.079587 
0.098001 0.1299 0.067091 0.10277 0.045224 0.016945 0.019247 0.05772 
0.052952 -0.027118 -0.041586 0.037826 0.01415 0.004943 -0.012814 0.0090533 
0.060515 -0.23494 -0.10735 0.0042853 0.0067515 -0.029255 -0.030077 0.022864 
0.035688 -0.23592 -0.047176 0.0046141 0.03092 0.022371 0.0011614 0.033222 
-0.061973 -0.13086 0.0070803 0.035524 0.054432 0.024508 0.0069159 0.044238 
-0.16983 -0.1256 0.026481 0.058377 0.058213 0.036017 0.012835 -0.02942 
-0.17558 -0.14484 0.039963 0.065612 0.047526 0.036346 0.015794 -0.0036066 
-0.073482 -0.032215 0.045718 0.076134 0.0032988 0.012999 0.00050378 0.026152 
0.11954 0.042429 0.063145 0.091425 0.014808 0.025166 0.0075736 0.046046 
0.21276 0.050321 0.043416 0.079916 0.0021479 0.036017 0.0080668 0.079751 
0.1761 0.044402 0.067913 0.091096 0.040621 0.03092 0.0036276 0.060844 
0.10326 0.050979 0.068078 0.093233 0.031742 0.025988 0.0065871 0.027303 
-0.0062372 0.084684 0.045389 0.098823 0.035195 0.025001 0.00066819 0.01563 
-0.048327 0.064461 -0.0004827 0.085012 0.016945 0.019905 -0.0016336 0.0021479 
-0.087786 -0.020212 -0.0077169 0.06479 0.04358 0.030427 0.036346 0.026481 
-0.087951 -0.21915 -0.066248 0.0090533 0.030263 0.036675 0.017603 0.01711 
-0.051122 -0.21998 -0.05737 -0.0029489 0.045389 0.033387 0.013821 0.036839 
-0.0055795 -0.057205 -0.033365 0.005765 0.051308 0.026481 0.021056 0.017932 
0.049664 -0.011334 -0.0036066 0.029276 0.043087 0.026974 0.0060938 0.034702 
0.12529 0.10524 0.059857 0.072353 0.035853 0.030263 0.0085601 0.063968 
0.17412 0.23167 0.11609 0.10721 0.028619 0.060022 0.030756 0.084684 
0.077285 0.23348 0.10918 0.12431 0.028454 0.024344 0.0085601 0.036346 
0.0019835 0.23282 0.066269 0.10359 -0.011992 -0.0042642 -0.015609 -0.016924 
0.010533 0.16278 0.0088889 0.069393 -0.0075525 0.0041209 -0.017088 -0.0024557 
0.077285 0.077778 0.0026412 0.085012 0.0092177 0.0085601 -0.011334 0.058213 
0.12628 0.1294 0.055747 0.10392 0.009711 0.017603 -0.01117 0.069229 
0.14042 0.13384 0.07038 0.10819 0.032893 0.042265 0.0098754 0.09274 
0.062488 0.0018191 0.027468 0.087643 0.037661 0.052459 0.019576 0.074983 
-0.006566 -0.04882 0.0080668 0.065447 0.04506 0.020069 0.0098754 0.011191 
-0.015444 -0.029913 0.023357 0.058213 0.055582 0.025988 -0.0060728 0.027303 
0.11559 0.076627 0.079587 0.098494 0.053609 0.033551 0.0095465 0.049992 
0.15735 0.10441 0.09422 0.11033 0.056076 0.051143 0.047855 0.064461 
0.14683 -0.0004827 0.060022 0.093069 0.053281 0.049664 0.029112 0.087314 
0.098001 -0.093376 0.03651 0.067749 0.061666 0.036839 0.019905 0.064461 
0.053938 -0.13349 0.0013258 0.055089 0.029112 0.017932 0.017438 0.044731 
-0.027282 -0.049478 -0.0029489 0.072353 0.0056006 0.022206 -0.008539 0.015794 
-0.068714 0.16442 0.033387 0.081889 0.0041209 0.0037921 -0.013965 -0.06444 
-0.041257 0.22476 0.072353 0.098988 -0.015773 -0.018897 -0.027775 -0.04619 
0.05772 0.16262 0.048677 0.098001 0.019576 -0.0024557 -0.021034 0.016452 
0.18152 0.14437 0.060844 0.09126 0.019576 0.042265 0.0070803 0.066434 
0.2029 0.13351 0.041607 0.084848 0.017603 0.026152 0.00050378 0.076956 
-0.0031133 0.071531 -0.027775 0.052623 0.011684 0.014479 -0.010676 0.013328 
-0.30794 -0.10637 -0.034681 0.019083 0.031249 0.016781 -0.0073881 -0.082854 
-0.39129 -0.14303 -0.014951 0.016945 0.040456 0.046868 0.016781 -0.066248 
-0.16276 0.031414 0.049664 0.052952 0.03947 0.041607 0.019411 0.009711 
0.14946 0.29283 0.075641 0.093726 0.014643 0.034044 0.01974 0.060186 
0.35728 0.37224 0.10556 0.14519 0.026646 0.035031 0.0098754 0.1276 
0.35054 0.23858 0.063474 0.12809 0.022206 0.021713 0.0016547 0.12168 
0.1909 0.053445 0.027632 0.091753 0.020727 0.0044497 0.00050378 0.058542 
0.053774 -0.021199 -0.017911 0.050979 0.0088889 0.010862 -0.012485 -0.0014692 
-0.01117 -0.030899 -0.020541 0.035031 -0.030735 -0.0024557 -0.027118 -0.030735 
-0.057699 -0.032708 0.049006 0.070544 0.039634 0.025988 0.0093821 -0.0021268 
-0.11968 0.014808 0.061995 0.092247 0.073175 0.060679 0.029276 0.016616 
-0.081703 0.03388 0.047526 0.079916 0.055747 0.035195 0.018096 0.026974 
0.025824 0.099645 0.053774 0.075476 0.029112 0.025988 0.017274 0.03651 
0.10376 0.13631 0.077943 0.090438 0.0085601 0.014808 -0.0004827 0.064132 
0.11428 0.071037 0.0421 0.090438 -0.018568 0.0079024 -0.010183 0.050979 
0.02829 -0.027282 -0.006566 0.08419 0.0023123 0.029605 -0.0031133 0.027961 
-0.024652 -0.021363 -0.035996 0.045718 0.020069 0.010697 -0.01232 0.0065871 
-0.010841 -0.024323 -0.015444 0.037168 0.009711 0.010862 -0.010348 0.026317 
0.050486 0.0421 0.013492 0.045389 0.0093821 0.014643 -0.010841 0.026974 
0.03536 0.085012 0.037497 0.065447 0.026646 0.0069159 -0.014458 -0.0055795 
0.0026412 0.11888 0.053116 0.081395 0.024508 0.013328 -0.0080457 -0.025474 
0.063639 0.16607 0.062817 0.093891 0.019905 0.016945 -0.010512 0.0098754 
0.083204 0.10359 0.041278 0.086657 0.024837 0.017767 -0.0073881 0.039799 
0.076299 0.019411 0.024015 0.062817 0.028454 0.014808 0.0085601 0.043909 
0.10704 0.048513 0.025495 0.05476 0.040621 0.042265 0.011191 0.087643 
0.015465 -0.074304 -0.00031829 0.048019 0.0421 0.020069 -0.00015387 0.057884 
-0.099295 -0.071181 -0.003771 0.061501 0.023193 0.015137 0.004943 -0.0095255 
-0.15454 -0.026131 0.0037921 0.077943 0.010204 0.01826 -0.004593 -0.041751 
-0.15848 -0.010348 0.012342 0.063639 0.0095465 0.014479 -0.0039354 -0.024158 
-0.032379 0.082053 0.023357 0.068571 -0.010676 0.030756 0.0060938 0.017603 
0.2029 0.17593 0.054432 0.088958 0.029441 0.032729 0.012835 0.11543 
0.25041 0.20208 0.10293 0.12151 0.016945 0.044402 0.01711 0.10458 
0.08156 0.15966 0.12053 0.14469 0.044073 0.042758 0.014808 0.031742 
-0.074962 -0.016102 0.065447 0.11576 0.031578 0.021384 0.0032988 -0.016924 
-0.1381 -0.23757 -0.0088678 0.054925 0.028454 0.017274 0.0011614 -0.037805 
-0.16983 -0.28344 -0.058192 0.0075736 0.031907 0.010369 -0.0078813 -0.024487 
-0.091568 -0.22688 -0.015938 0.013492 0.014479 0.00066819 -0.017911 0.011848 
0.030263 -0.19844 0.019576 0.058213 0.032564 0.033222 0.011848 0.044238 
0.13056 -0.09946 0.02122 0.09126 0.057884 0.063474 0.029441 0.097344 
0.1539 0.098823 0.047855 0.096521 0.069064 0.0689 0.041772 0.08304 
0.2052 0.26932 0.067091 0.10672 0.044402 0.03651 0.037661 0.082546 
0.22361 0.26225 0.037661 0.086985 0.025659 0.037826 0.009711 0.1026 
0.16936 0.3586 0.03947 0.083862 -0.0057439 0.0059294 -0.0098543 0.070215 
0.087972 0.52186 0.072188 0.10606 0.0056006 0.01415 0.00033937 0.073339 
0.027796 0.59124 0.095864 0.12595 0.02122 -0.004593 -0.02498 0.070873 
-0.059507 0.41664 0.086163 0.12135 0.027961 -0.033037 -0.047834 0.029112 
-0.096172 0.033222 0.047197 0.09126 0.012013 -0.034188 -0.047998 -0.016431 
-0.16342 -0.45311 -0.0057439 0.045882 0.004943 -0.019061 -0.047505 -0.034352 
-0.15717 -0.52776 -0.064275 0.0082312 0.012013 0.0074092 -0.024158 -0.0503 
0.057391 -0.21274 0.018096 0.072681 0.056569 0.095206 0.040621 0.0080668 
0.20799 0.0065871 0.070051 0.10228 0.07038 0.11378 0.073504 0.012177 
0.094713 0.082217 0.033387 0.083533 0.028783 0.071366 0.055582 -0.056055 
-0.080552 0.081067 -0.01528 0.048184 0.013164 0.024673 0.014315 -0.042244 
-0.021034 0.19583 0.012177 0.052459 0.033058 0.0036276 -0.004593 0.074983 
0.010862 0.1391 0.029769 0.055089 0.064132 0.0093821 -0.0013048 0.07449 
-0.059178 -0.19466 -0.018733 0.034209 0.032729 -0.023172 -0.037805 0.052294 
-0.07973 -0.32273 -0.041093 0.0082312 0.03651 -0.063618 -0.073154 0.05213 
0.087479 -0.07825 0.023193 0.03947 0.041278 -0.036983 -0.044546 0.054103 
0.12677 0.22657 0.11083 0.1128 0.06479 0.019905 -0.024652 0.060515 
0.06594 0.34068 0.14453 0.16722 0.053774 0.029769 0.00066819 0.032893 
0.012835 0.2246 0.07301 0.16114 0.045389 0.05476 0.030427 0.015301 
0.024837 -0.031228 -0.03912 0.064461 0.018589 0.051636 0.02681 0.042923 
0.022371 -0.11031 -0.055561 0.017603 0.045224 0.040128 0.024344 0.035031 
0.054103 0.050486 0.0075736 0.044567 0.036182 0.052294 0.027796 0.031414 
0.066598 0.23956 0.057555 0.080573 0.049335 0.027632 0.013164 0.029112 
-0.023994 0.19731 0.0028056 0.058377 0.017767 0.0042853 -0.0077169 -0.017911 
-0.038133 0.1516 -0.0014692 0.047691 0.01267 0.010862 -0.014787 0.00033937 
0.07301 0.15423 0.055911 0.07301 -0.0013048 0.00050378 -0.018733 0.061172 
0.091918 0.10672 0.084026 0.095371 0.035195 0.0037921 -0.01528 0.045882 
-0.054739 0.024673 0.078765 0.10326 0.018754 0.010533 -0.020706 0.0072447 
-0.015773 0.0592 0.079751 0.12003 0.025824 0.0013258 -0.023994 0.052952 
0.088958 0.10672 0.060186 0.13088 0.024837 -0.0049219 -0.014787 0.041114 
0.079094 0.13828 0.043416 0.11839 0.039305 0.010862 -0.016595 -0.025309 
-0.00081153 0.048184 -0.013636 0.066105 0.042429 0.0074092 -0.01676 -0.053753 
-0.054739 -0.10373 -0.05589 0.019247 0.040456 -0.0072237 -0.0062372 -0.043066 
-0.0042642 -0.10867 -0.025474 0.018754 0.028454 0.058213 0.016781 0.0021479 
0.0024767 -0.086471 0.021056 0.045882 0.034537 0.039141 0.019083 0.061995 
0.023522 -0.034352 0.058377 0.078765 0.028783 0.048841 0.035195 0.031414 
0.12349 0.040292 0.067091 0.086328 0.039305 0.040456 0.021056 0.082546 
0.17149 0.023686 0.071202 0.090931 0.026974 0.02533 0.009711 0.10458 
0.20027 0.032071 0.073504 0.098166 0.0324 0.026481 0.0047785 0.078107 
0.17906 0.060186 0.064132 0.097179 0.01415 0.0079024 -0.0054151 0.06479 
0.080902 0.01152 0.033058 0.10803 -0.0013048 -0.0138 -0.028597 0.016123 
-0.065426 -0.066741 -0.040764 0.056076 1.0539e-005 0.012177 -0.023172 -0.032708 
-0.14089 -0.030077 -0.031721 0.029769 0.010862 -0.0062372 -0.02794 -0.038956 
-0.12609 0.029276 -0.0080457 0.038319 0.042923 0.026974 -0.0054151 -0.019555 
-0.051287 0.16393 0.052787 0.075312 0.068242 0.065612 0.028947 0.0079024 
0.0080668 0.18284 0.091425 0.11033 0.07038 0.073175 0.043251 0.020069 
-0.0014692 0.14174 0.069558 0.11033 0.062817 0.075312 0.055418 -0.009361 
0.034866 0.18481 0.11346 0.12562 0.031578 0.070873 0.066434 0.020398 
0.15637 0.080738 0.085506 0.1174 0.030592 0.06479 0.052787 0.086492 
0.21819 -0.0965 0.00297 0.067749 0.0052718 0.039305 0.054103 0.098166 
0.11872 -0.18775 -0.0077169 0.043251 0.00033937 0.044073 0.027961 0.08567 
0.038812 -0.2032 0.021878 0.082053 -0.028269 0.01004 0.0023123 0.073668 
0.013986 0.018425 0.051636 0.10787 0.0079024 0.053116 0.025988 0.020398 
0.052459 0.13319 0.035031 0.090603 0.039799 0.076627 0.044238 0.032564 
0.076956 0.034537 -0.0042642 0.057391 0.037661 0.045224 0.032236 0.045882 
0.012999 -0.14665 -0.080717 -0.0040998 0.023193 0.02829 0.009711 0.009711 
-0.054904 -0.17427 -0.063782 -0.013307 0.031414 0.0080668 -0.011992 0.038483 
-0.062796 -0.0057439 0.047855 0.055911 0.07301 0.012013 -0.0090322 0.012835 
0.019576 0.10408 0.086657 0.096193 0.072681 0.048841 -0.00064712 0.025988 
0.092904 0.10145 0.11888 0.12316 0.05476 0.029605 0.0052718 0.036017 
0.15308 0.086328 0.097508 0.13647 0.028125 0.039963 0.017603 0.072024 
0.18465 0.090109 0.060679 0.11444 0.009711 0.03799 0.010862 0.10326 
0.10326 0.067091 -0.022185 0.063803 -0.0040998 -0.0022913 -0.014951 0.055089 
-0.14237 0.20783 -0.035503 0.049335 -0.015116 -0.015609 -0.024816 -0.091075 
-0.23527 0.16936 0.019576 0.057391 0.0087245 0.013821 -0.017417 -0.084498 
-0.13021 0.073997 0.041772 0.078107 0.020727 0.013986 -0.010348 -0.013965 
-0.0098543 -0.017088 0.0095465 0.061337 0.036182 0.016781 0.016452 0.035688 
0.014479 -0.10669 -0.018568 0.03651 0.045882 0.046375 0.019083 0.062159 
0.052952 -0.074633 -0.00031829 0.042429 0.046375 0.047855 0.025495 0.086492 
0.13088 0.01415 0.036675 0.062323 0.028947 0.049499 0.032564 0.07301 
0.18942 0.062323 0.056076 0.078107 0.0028056 0.047033 0.032893 0.080738 
0.22378 0.080573 0.093233 0.10047 0.021056 0.037004 0.02122 0.10195 
0.1853 -0.0050863 0.085177 0.11132 0.037661 0.039799 0.004943 0.038483 
0.11181 -0.088608 0.039799 0.11822 0.044238 0.019905 -0.0016336 0.040785 
-0.085156 -0.10538 0.020727 0.096193 0.056569 0.023357 0.0016547 -0.034516 
-0.279 -0.2231 -0.048492 0.033551 0.0067515 0.021549 -0.0087034 -0.098309 
-0.24645 -0.21027 -0.040106 0.013821 -0.0042642 -0.0026201 -0.018568 -0.067399 
-0.18857 -0.16029 -0.056712 -0.0022913 -0.0011404 -0.0078813 -0.02498 -0.026131 
-0.030899 0.058542 -0.019226 0.014643 0.026646 0.025166 -0.010183 0.021878 
0.09126 0.36912 0.048841 0.061666 0.024508 0.0070803 -0.021692 0.085835 
0.15012 0.52893 0.10852 0.10984 0.049992 0.021056 0.0056006 0.070708 
0.15785 0.53567 0.1322 0.13368 0.0324 0.0031344 -0.016595 0.048513 
0.10787 0.45938 0.1299 0.14141 0.037168 -0.0021268 -0.021363 0.048841 
0.11017 0.22427 0.091918 0.12727 0.037168 -0.003771 -0.0062372 0.039963 
0.06183 -0.053095 0.009711 0.099974 0.016123 0.016945 -0.010841 0.032893 
0.02122 -0.2573 -0.045696 0.043909 0.02681 -0.006566 -0.019884 0.036839 
0.0031344 -0.31007 -0.054082 0.011355 0.025166 0.004943 -0.0096899 0.015465 
-0.0098543 -0.1843 -0.048163 0.0032988 0.037332 -0.006566 -0.023994 -0.0060728 
-0.013965 -0.16523 -0.070687 -0.018568 0.0070803 -0.006566 -0.026624 -0.0052507 
0.01826 -0.074962 -0.038298 -0.0042642 -0.0077169 0.016781 -0.021856 -0.014293 
0.016452 0.085341 0.012835 0.034702 -0.0014692 0.005765 -0.018733 0.0042853 
-0.004593 0.15571 0.075148 0.086821 0.034702 -0.0031133 -0.018568 0.033715 
0.007738 0.21441 0.12217 0.12497 0.02829 0.013328 -0.017746 0.029605 
0.037661 0.31322 0.1368 0.14848 0.05213 0.0083956 -0.015116 0.044238 
0.10195 0.34281 0.14289 0.16525 0.040456 0.014643 -0.0078813 0.048184 
0.13483 0.19484 0.048513 0.12973 0.020891 0.0059294 -0.015444 0.039634 
0.10606 0.057391 -0.025638 0.088465 -0.0027845 -0.025309 -0.039778 0.032729 
0.10589 0.013492 -0.0031133 0.065612 0.039305 -0.010841 -0.021034 0.033387 
0.11872 0.094548 0.079916 0.10491 0.056076 0.04506 0.0039565 0.043745 
0.10244 0.099316 0.08008 0.11674 0.062652 0.034702 0.0092177 0.044073 
-0.049314 -0.034023 0.014479 0.072681 0.017274 0.013328 0.015959 -0.0060728 
-0.14911 -0.042573 -0.020541 0.037004 0.0069159 0.010369 -0.0078813 -0.028104 
-0.12215 -0.046847 -0.0083746 0.03092 -0.010183 -0.010348 -0.024158 -0.042244 
-0.072825 -0.053753 0.0042853 0.035524 -0.0075525 -0.00031829 -0.010512 -0.0027845 
0.028125 0.024344 0.037332 0.057062 0.010533 0.0046141 -0.02235 0.061172 
0.1345 0.14552 0.065447 0.079422 0.030263 0.01826 -0.0088678 0.095042 
0.13302 0.11444 0.010204 0.080902 0.042265 0.030756 0.0024767 0.066763 
0.14864 0.071202 0.0095465 0.087643 0.053938 0.028454 0.0034632 0.086821 
0.094713 0.059528 0.048841 0.095535 0.063639 0.037826 0.012835 0.069229 
-0.028762 0.056898 0.10277 0.1271 0.049335 0.045882 0.015794 -0.022843 
-0.074304 0.052459 0.10178 0.13976 0.03388 0.033551 0.012506 -0.021856 
0.049335 0.14058 0.13828 0.16755 0.020891 0.0092177 -0.0026201 0.042265 
0.17018 0.13088 0.14338 0.18119 0.033715 0.093398 0.024344 0.075312 
0.12957 -0.027447 0.08304 0.14848 0.028454 0.0046141 -0.0087034 0.062817 
0.1077 -0.0068948 0.0092177 0.096193 -0.016102 0.018096 0.01267 0.0085601 
0.12217 0.047033 -0.050464 0.020727 0.0019835 -0.0032777 -0.012978 0.025001 
-0.0406 -0.020212 -0.069208 -0.018568 0.0014903 0.013328 -0.0060728 -0.045532 
-0.22014 -0.073647 -0.14204 -0.066248 -0.0016336 0.0037921 -0.0049219 -0.12445 
-0.085978 -0.1404 -0.14007 -0.047341 0.0087245 0.032236 0.020727 -0.017253 
0.16804 -0.036325 -0.0024557 0.012342 0.056569 0.071037 0.04654 0.10491 
0.28839 0.14946 0.091096 0.089287 0.073175 0.10425 0.076463 0.16311 
0.2588 0.24466 0.11987 0.13302 0.043909 0.08715 0.066105 0.15801 
0.15374 0.24499 0.10984 0.1373 0.016781 0.038483 0.034044 0.1174 
-0.050793 0.14683 0.11411 0.1465 0.0023123 0.031249 0.01415 0.030756 
-0.22343 0.12743 0.14552 0.171 0.01711 0.013986 -0.0052507 -0.036818 
-0.25993 0.058213 0.11822 0.15604 0.0039565 -0.0042642 -0.024487 -0.064275 
-0.20255 -0.12856 0.025166 0.092904 0.023686 0.034209 -0.0039354 -0.063946 
-0.13925 -0.32536 -0.082361 0.011026 0.05213 0.043416 0.0080668 -0.031886 
-0.039284 -0.37863 -0.1284 -0.042244 0.050814 0.046375 0.0227 0.0090533 
0.015465 -0.32767 -0.12149 -0.035503 0.044731 0.066598 0.028947 0.010369 
0.034209 -0.034188 -0.049314 -0.0019624 0.049664 0.026481 0.010369 0.037661 
0.14519 0.23808 0.066434 0.062323 0.066105 0.041278 0.033058 0.068571 
0.16952 0.2925 0.090109 0.10639 0.035853 0.03947 0.014972 0.048513 
0.13615 0.24532 0.1202 0.13993 0.019411 0.020891 0.0039565 0.061666 
0.11346 0.21654 0.096357 0.13795 0.0082312 0.017274 0.015794 0.058377 
0.09981 0.19057 0.096357 0.13615 0.010204 0.020562 0.0064227 0.031742 
0.058542 0.20503 0.12102 0.14601 0.010533 0.013164 -0.0039354 0.016123 
-0.014622 0.15242 0.12612 0.15061 0.013821 0.030592 0.0062583 0.00050378 
-0.028926 0.017767 0.086821 0.12776 0.010697 -0.0072237 -0.019226 0.022042 
0.069886 -0.071838 0.028783 0.091918 0.0069159 -0.02235 -0.031392 0.083533 
0.080244 -0.18989 -0.072332 0.039141 0.021878 0.024015 -0.012156 0.07597 
-0.03764 -0.23132 -0.090088 0.0056006 0.029934 0.055418 0.019576 0.03947 
-0.043395 -0.21537 -0.09387 -0.025802 0.040128 0.074654 0.04358 0.043909 
-0.0059084 -0.060823 -0.032215 -0.0014692 0.038977 0.092904 0.043416 0.027468 
-0.01528 0.19566 0.0090533 0.031578 0.030263 0.0052718 -0.0040998 0.0014903 
-0.0036066 0.37619 0.031578 0.055254 0.01711 -0.026131 -0.031228 0.013657 
0.024015 0.37635 0.020069 0.059528 0.0088889 0.0044497 -0.026296 0.01152 
0.047855 0.24088 0.018425 0.052294 0.0064227 0.045553 0.0079024 0.048677 
0.041607 0.059693 0.03799 0.060186 0.010697 0.050321 0.035524 0.050979 
0.01711 -0.041257 0.085012 0.092082 0.031249 0.079422 0.044896 0.019083 
-0.047176 -0.034681 0.0786 0.11017 0.027632 0.043745 0.027468 -0.030899 
-0.1113 -0.081045 0.038319 0.11132 0.024508 0.010533 0.007738 -0.099131 
-0.11261 -0.12133 0.028125 0.11888 0.027632 0.01563 -0.031721 -0.062631 
-0.0067304 -0.22409 0.021549 0.089452 0.048348 -0.014787 -0.025967 0.03092 
0.052294 -0.2836 0.043087 0.090767 0.031414 -0.015773 -0.028926 0.10392 
0.10688 -0.15799 0.0013258 0.061008 0.044402 0.00050378 -0.028597 0.08567 
0.18136 0.086821 -0.018239 0.035195 0.038483 -0.049971 -0.060165 0.066434 
0.16788 0.24186 0.039305 0.065776 -0.014458 0.00083261 -0.035174 0.08304 
0.095535 0.30763 0.1003 0.11707 0.018425 0.007738 -0.033365 0.052623 
0.027632 0.36715 0.11411 0.13006 0.040128 0.019905 -0.01232 0.024015 
0.10277 0.31799 0.094877 0.1225 0.034702 0.047855 0.012013 0.042594 
0.17906 0.1807 0.059035 0.10293 0.024673 0.051308 0.020398 0.055254 
