0.0227 -0.1575 -0.06855 0.00297 0.01152 0.0014903 -0.019061 0.00050378 
0.076463 -0.063453 -0.045203 0.0018191 0.013657 0.0013258 -0.0052507 -0.01528 
0.10951 0.035688 0.0024767 0.031249 0.023357 0.017767 -0.0068948 0.057062 
0.068242 0.16179 0.037168 0.060186 0.027303 0.033551 0.0062583 0.070215 
-0.027118 0.19139 0.046704 0.076792 0.031085 0.021878 0.012999 0.043087 
-0.049971 0.16969 -0.0078813 0.047033 0.051143 0.019411 -0.0019624 0.0098754 
-0.011005 0.14979 0.019905 0.057391 0.025988 0.020562 -0.0016336 -0.00081153 
0.036017 0.074326 -0.0083746 0.0324 0.024015 0.048513 0.024179 0.011848 
0.023028 0.089945 -0.00097594 0.028783 0.017274 0.050321 0.02681 0.031742 
0.037497 0.13138 0.013821 0.041772 0.0059294 0.041772 0.023357 0.0052718 
-0.0042642 0.10754 0.0041209 0.052952 0.018918 0.033715 0.013164 0.0019835 
0.01563 0.099974 0.0065871 0.086492 0.014315 0.0085601 -0.0064016 0.019247 
0.049992 0.11148 0.034373 0.083862 0.027796 0.0036276 -0.012156 0.013986 
0.051472 0.07449 0.051308 0.088794 0.015959 0.013164 -0.014458 0.027139 
0.017767 0.10129 0.053938 0.093562 0.013328 -0.0029489 -0.022021 0.023193 
0.011191 0.096521 0.048184 0.089123 0.01267 -0.0082102 -0.016102 -0.01117 
0.015959 0.072188 0.0036276 0.061995 0.01826 0.0080668 -0.018733 0.023851 
0.042265 -0.01232 -0.0016336 0.040621 0.046704 0.0051074 -0.013307 0.013492 
0.026646 -0.20353 -0.013471 0.026317 0.030592 0.026646 0.01267 0.027632 
0.025988 -0.20814 0.03651 0.041607 0.026646 0.05065 0.01711 0.0421 
-0.02087 -0.087293 0.045718 0.066105 0.018589 0.012342 0.00017495 0.019411 
0.0026412 0.054925 0.072517 0.12151 0.012999 0.0065871 -0.0022913 0.026974 
0.092247 0.29349 0.13828 0.18383 0.016452 0.037004 0.0074092 0.05213 
0.18251 0.38753 0.15505 0.18974 0.015959 0.043087 0.021549 0.055254 
0.22887 0.30746 0.10113 0.16163 0.020562 0.051143 0.025001 0.069064 
0.18563 0.14272 0.014315 0.093233 0.01711 0.030263 0.013821 0.069229 
0.069393 -0.056712 -0.050136 0.028619 0.018096 0.028619 0.0060938 0.034044 
-0.018239 -0.16539 -0.070852 -0.0072237 0.013492 0.016945 -0.0078813 0.005765 
-0.055232 -0.073647 -0.046683 -0.017417 0.022206 -0.0055795 -0.019719 -0.021363 
-0.13497 0.027632 -0.0068948 0.0082312 0.02829 -0.0050863 -0.025145 -0.10341 
-0.12001 0.075805 0.034209 0.038155 0.040292 0.073997 -0.016431 -0.065755 
-0.025802 0.042758 0.064461 0.079751 0.041607 0.020233 -0.0021268 0.052459 
0.070873 0.036839 0.12266 0.14502 0.0324 0.029112 0.018754 0.12924 
0.14798 0.10244 0.10556 0.15735 0.023028 0.035688 0.010204 0.18169 
0.17314 0.084848 0.072024 0.1322 -0.0072237 0.031249 0.01267 0.13762 
0.18563 0.07449 0.079587 0.12414 0.011191 0.014643 0.011684 0.073997 
0.14683 0.097837 0.0592 0.10244 0.030592 0.0041209 -0.0068948 0.019411 
0.066763 0.04654 0.034373 0.083862 -0.016102 -0.018075 -0.02942 -0.02235 
-0.04619 0.096193 0.035195 0.079751 0.0042853 0.025166 0.0060938 -0.031886 
-0.050793 0.17462 0.044073 0.081889 0.031085 0.023193 0.0039565 -0.0064016 
-0.020541 0.1756 0.050321 0.079587 0.045224 0.034702 0.01415 0.012999 
0.0054362 0.073339 0.060515 0.08419 0.045553 0.045389 0.019576 0.023851 
0.035688 -0.12379 0.047197 0.08304 0.029276 0.0069159 -0.0034422 0.038483 
0.076792 -0.076771 0.013986 0.090603 0.012177 0.0059294 -0.009361 0.060022 
0.13023 0.11888 0.074326 0.11477 0.035195 0.027961 0.0016547 0.090274 
0.13713 0.17478 0.1031 0.13269 0.025001 0.023522 0.0031344 0.094713 
0.11806 0.14354 0.12201 0.15259 0.036017 0.018425 -0.0014692 0.06331 
0.043909 0.041114 0.070544 0.12694 0.017603 0.011026 -0.012156 0.037497 
-0.00064712 -0.036325 0.0421 0.097837 0.012177 0.0092177 -0.014129 0.0067515 
-0.063289 -0.018733 0.01826 0.074326 0.018096 -0.015609 -0.010512 -0.056055 
-0.074633 -0.029748 0.007738 0.053445 0.050979 0.010697 -0.016924 -0.046025 
-0.031064 -0.089924 -0.0036066 0.03947 0.088301 0.00066819 -0.0138 -0.012649 
0.0011614 -0.13168 0.0087245 0.038155 0.048677 0.0090533 0.0041209 -0.0080457 
0.021549 -0.2739 -0.022021 0.021056 0.03651 0.014808 -0.0098543 0.025495 
0.004943 -0.30596 -0.05737 0.0227 0.042429 0.034044 0.0074092 0.061337 
0.017438 -0.18528 -0.055068 0.01152 0.052952 0.063803 0.02829 0.049828 
0.0036276 -0.10012 -0.039284 0.0064227 0.037826 0.024673 0.0092177 -0.034352 
-0.073482 -0.145 -0.066413 -0.012156 0.0098754 -0.0080457 -0.021034 -0.071838 
-0.11146 0.010369 -0.033694 -0.00081153 -0.00097594 0.027303 -0.0026201 -0.0087034 
-0.043395 0.31273 0.051636 0.061172 0.019411 0.048513 0.01826 0.12694 
0.045718 0.49325 0.18383 0.1613 0.025659 0.083204 0.050979 0.17856 
0.1151 0.42601 0.20142 0.19139 0.015794 0.12529 0.081724 0.18925 
0.13878 0.29431 0.17084 0.19385 0.0421 0.09274 0.072188 0.10145 
0.13006 0.21556 0.13943 0.171 0.048348 0.047855 0.040292 0.025166 
0.083862 0.15324 0.086492 0.14552 0.035688 0.019083 0.0041209 -0.033694 
0.016452 0.14946 0.040292 0.12201 0.023357 -0.055561 -0.054082 -0.059178 
-0.063124 0.12875 0.012177 0.092082 0.010862 -0.090088 -0.074304 -0.097816 
-0.05737 0.039799 -0.0090322 0.057884 0.0085601 -0.081703 -0.091404 -0.049314 
0.027796 -0.0096899 -0.036818 0.026317 0.0023123 -0.088608 -0.099789 0.020891 
0.12299 -0.049642 -0.06296 -0.00031829 -0.042737 -0.05326 -0.071016 0.070215 
0.15242 -0.23461 -0.10127 -0.040106 -0.011992 -0.026296 -0.049314 0.13384 
0.1493 -0.28755 -0.121 -0.063289 0.023028 0.017603 -0.017911 0.12184 
0.034209 -0.21817 -0.084005 -0.054246 0.016616 0.048677 0.0018191 0.029769 
-0.070687 -0.023007 0.0013258 -0.0067304 0.01415 0.044731 0.012999 -0.023994 
-0.14369 0.037661 0.053116 0.054925 0.00297 0.10754 0.061172 -0.015116 
-0.14566 -0.12478 0.072188 0.09833 0.080738 0.15242 0.098659 -0.022021 
-0.12133 -0.22195 -0.025967 0.087479 0.11247 0.14256 0.10672 0.0028056 
-0.032872 -0.16358 -0.04619 0.037826 0.10951 0.16212 0.13154 -0.013965 
0.046375 -0.0031133 -0.017253 0.034044 0.11 0.13105 0.11872 0.0046141 
0.065612 0.22887 0.021713 0.053445 0.053609 0.049828 0.053938 0.025824 
0.064625 0.33887 0.097015 0.10869 0.029934 -0.01528 0.0070803 0.021878 
0.028125 0.32637 0.089616 0.11839 0.0080668 -0.041257 -0.046025 0.016123 
0.06331 0.30483 0.068736 0.11214 -0.0067304 -0.06 -0.065262 0.041936 
0.090931 0.22608 0.049664 0.090438 -0.033694 -0.047012 -0.048327 0.031085 
0.17939 0.19369 0.061995 0.084026 0.0052718 -0.014129 -0.044052 0.042758 
0.23183 0.16656 0.07597 0.096193 0.015301 0.0065871 -0.022021 0.08419 
0.23118 0.097508 0.037168 0.097344 0.0088889 0.023851 0.01004 0.094384 
0.11576 0.028947 -0.00064712 0.093562 -0.0098543 -0.0021268 -0.017911 0.056569 
-0.06148 -0.069701 -0.034516 0.044567 -0.021363 -0.019884 -0.039449 -0.018733 
-0.15585 -0.072167 -0.048327 0.014643 0.0028056 0.0090533 -0.022514 -0.054904 
-0.11804 -0.032708 -0.057205 0.00066819 0.026317 0.03092 -0.0057439 -0.018404 
-0.045203 -0.012156 -0.032708 0.0075736 0.049828 0.038483 0.012342 0.054925 
0.0056006 0.058871 0.02533 0.049664 0.072517 0.062323 0.035195 0.11937 
0.085835 0.095535 0.072188 0.090109 0.073668 0.071037 0.045553 0.16853 
0.13976 0.10293 0.1105 0.12464 0.050157 0.0592 0.039305 0.11477 
0.12464 0.079094 0.092082 0.11757 0.031414 0.052459 0.023193 -0.030242 
0.049335 -0.069701 0.035031 0.083204 0.0088889 0.0041209 -0.0067304 -0.068386 
-0.022514 -0.14319 -0.027775 0.05213 0.004943 0.00050378 -0.0004827 -0.03616 
-0.0034422 -0.056055 -0.028433 0.053938 0.026974 0.028125 0.0039565 0.01711 
0.0046141 -0.017417 -0.0088678 0.034373 0.040785 0.015137 0.00033937 0.043416 
-0.047341 0.049664 0.0421 0.066763 0.034702 0.044073 0.032729 0.01974 
-0.05589 0.10622 0.051472 0.0786 0.024673 0.031907 0.016781 -0.0138 
-0.0029489 0.10326 0.035524 0.078436 0.066434 0.047691 0.028125 0.045882 
0.06035 0.097015 0.046211 0.084684 0.064954 0.074161 0.045553 0.043416 
0.093069 0.11231 0.050979 0.08304 0.02829 0.040785 0.031249 0.032893 
0.1442 0.16492 0.077943 0.094713 0.031578 0.015301 0.01415 0.13434 
0.17297 0.15818 0.10984 0.1197 0.018754 0.02533 0.0083956 0.19007 
0.15571 0.080409 0.11165 0.1322 0.00066819 -0.0032777 -0.018733 0.14749 
0.10573 0.056898 0.062652 0.12776 0.0036276 -0.0013048 -0.022185 0.031578 
0.059693 0.048348 0.041443 0.12562 0.026646 -0.0047575 -0.028269 -0.074469 
0.013986 0.014315 0.03651 0.098166 0.020562 -0.020048 -0.037805 -0.062138 
-0.055726 -0.020706 0.0036276 0.071695 0.031907 -0.0021268 -0.02498 0.037497 
-0.03912 0.011355 0.026974 0.069722 0.021713 -0.010019 -0.036489 0.0087245 
-0.023829 0.063145 0.066763 0.08863 0.029934 -0.028597 -0.04323 0.007738 
0.023357 0.14108 0.069393 0.10425 0.01711 -0.0039354 -0.018404 -0.02087 
0.045882 0.13368 0.07301 0.11461 0.029934 0.054596 -0.0029489 0.005765 
0.078929 0.092082 0.061501 0.096521 0.058049 0.060515 0.028454 0.10162 
0.09274 0.05624 0.052787 0.082217 0.051801 0.061337 0.053445 0.12628 
0.034537 0.03947 0.030756 0.073175 0.031085 0.058706 0.032236 0.04095 
0.02829 0.072353 0.047033 0.095864 0.025824 0.016945 0.0037921 -0.0042642 
0.05065 0.13565 0.062652 0.12168 0.013821 -0.010183 -0.010841 0.014315 
0.078107 0.11296 0.067749 0.11559 0.0026412 -0.017746 -0.029091 -0.0039354 
0.051308 0.061666 0.039634 0.099316 0.016452 -0.050629 -0.054082 0.012177 
0.00017495 -0.023501 0.012835 0.073339 0.020891 0.011355 -0.028762 0.010697 
-0.0031133 -0.07003 -0.026953 0.031907 0.0227 0.031742 -0.0026201 0.01563 
-0.018733 -0.025802 -0.023501 0.024344 0.031742 0.046704 0.018754 0.063474 
0.028454 0.024837 0.0088889 0.035853 0.050814 0.069886 0.030756 0.10376 
0.069558 0.0421 0.050321 0.061008 0.050979 0.035195 0.019411 0.12661 
0.086492 0.04654 0.070544 0.085341 0.0324 0.059364 0.042594 0.1613 
0.061666 0.033222 0.067091 0.097015 0.018589 0.095535 0.056733 0.12069 
0.095535 0.097837 0.05772 0.11872 0.029276 0.037661 0.030098 0.044402 
0.094384 0.13121 0.052294 0.12316 0.030263 -0.022021 -0.011334 -0.043395 
0.10178 0.13302 0.052623 0.09981 0.012835 -0.053753 -0.068386 -0.097487 
0.089452 0.14108 0.054267 0.096521 -0.004593 -0.056548 -0.072167 -0.05885 
0.05772 0.08419 0.033387 0.083533 0.010369 -0.013471 -0.041257 -0.019719 
0.0028056 0.094548 0.018425 0.068571 -0.0098543 0.01152 -0.020048 -0.02235 
-0.039449 0.10885 0.025988 0.070873 0.0037921 0.03536 0.00017495 -0.011827 
-0.01676 0.069886 0.028783 0.064461 0.025659 0.032236 0.0070803 0.020891 
0.040785 0.031578 0.038977 0.06183 0.046704 0.050321 0.022864 0.05476 
0.0093821 -0.066413 0.012835 0.046704 0.061172 0.044238 0.023028 0.050814 
-0.054904 -0.14402 -0.0052507 0.040128 0.071037 0.051308 0.027139 0.024837 
-0.10965 -0.099953 -0.015116 0.050814 0.053774 0.014808 0.0024767 0.0047785 
-0.12018 -0.069865 -0.05589 0.032729 0.049664 0.016288 -0.0024557 -0.0070593 
-0.048985 -0.041751 -0.072332 -0.0054151 0.044731 0.024015 -0.004593 1.0539e-005 
0.059035 0.036346 -0.03912 0.0047785 0.06742 0.036017 0.0037921 -0.0029489 
0.061337 0.063145 0.0069159 0.033222 0.050814 0.04095 0.030756 -0.0032777 
-0.020212 0.079916 0.0421 0.064954 0.047197 0.023193 0.0098754 -0.01939 
-0.023665 0.073175 0.065776 0.091753 0.044402 0.01152 0.00066819 0.016123 
0.030427 0.0026412 0.04358 0.082053 0.04654 0.030098 0.025001 0.066927 
0.039963 -0.0049219 0.01563 0.055747 0.029112 0.0421 0.028783 0.094384 
0.08978 0.027961 0.029276 0.052623 -0.022843 0.004943 -0.0004827 0.073504 
0.11839 0.039305 0.038155 0.095206 -0.017746 0.071859 0.029112 0.026974 
0.091589 0.10326 0.048841 0.11346 0.019411 0.096357 0.056733 0.024015 
0.043909 0.052294 0.036675 0.10474 0.050486 0.096686 0.080244 0.070708 
-0.023994 -0.031228 -0.015938 0.059364 0.076627 0.11132 0.088136 0.069722 
-0.021528 -0.044217 -0.021199 0.034702 0.089123 0.061666 0.053609 0.025166 
0.015137 -0.059672 -0.0098543 0.034702 0.039141 -0.006566 -0.0024557 0.028125 
-0.00064712 -0.0072237 -0.00097594 0.040128 -0.0034422 -0.056219 -0.065097 -0.019884 
-0.01939 0.031907 -0.015773 0.031249 -0.019226 -0.13612 -0.12823 -0.035996 
-0.034023 0.036017 -0.01528 0.025495 -0.0042642 -0.10669 -0.12133 -0.0011404 
-0.090746 0.041278 -0.0055795 0.023686 0.01004 -0.022185 -0.06855 -0.0029489 
-0.071509 0.036839 0.018589 0.036017 0.039305 0.031907 -0.014951 1.0539e-005 
0.049499 0.10359 0.044731 0.071859 0.043251 0.054432 0.036182 0.027961 
0.14091 0.14617 0.072024 0.13598 0.05065 0.056569 0.035195 0.033387 
0.079094 0.067585 0.055911 0.11954 0.029276 0.013164 0.0021479 0.0034632 
-0.021034 0.019247 0.027796 0.08715 0.0052718 0.0056006 0.00017495 -0.024158 
-0.03353 0.0056006 0.0095465 0.067913 0.019247 0.033551 0.0075736 -0.021199 
0.017603 -0.015116 0.0070803 0.055747 0.027139 0.040785 0.017767 0.024179 
0.0421 0.0028056 0.01826 0.058049 0.0079024 0.026317 0.0098754 0.07038 
0.048348 0.028783 0.016781 0.057555 -0.0024557 0.009711 -0.0040998 0.062323 
0.10935 0.049006 0.019576 0.052787 0.0037921 0.015301 -0.003771 0.073997 
0.12562 0.048019 0.025495 0.053774 0.0036276 0.022206 -0.0064016 0.095864 
0.10014 -0.096829 0.022206 0.058213 0.0011614 -0.0019624 -0.025967 -0.064604 
0.0054362 -0.15454 0.016452 0.062817 0.032564 -0.00031829 -0.022843 -0.14073 
-0.053588 -0.082032 0.02533 0.093562 0.061501 0.052787 0.011848 -0.015444 
-0.0082102 0.06594 0.044896 0.093398 0.10787 0.066434 0.036182 0.071366 
0.039963 0.20092 0.066269 0.1031 0.13269 0.073668 0.06183 0.068736 
0.026974 0.21786 0.059857 0.10359 0.11296 0.093069 0.062159 0.048019 
0.026974 0.16508 0.052294 0.097672 0.087972 0.048348 0.041443 -0.0022913 
0.027139 0.1179 0.016123 0.07301 0.058049 0.033551 0.036675 0.012177 
0.067256 0.030427 0.021878 0.065283 0.020069 0.019083 0.0075736 0.015465 
0.095042 0.010862 0.038648 0.071859 -0.036654 -0.019884 -0.020541 -0.001798 
0.09422 0.063145 0.071366 0.08304 -0.067728 -0.0138 -0.02087 0.025166 
0.068736 0.053445 0.086985 0.10211 -0.040271 -0.031064 -0.04323 0.03092 
0.038155 0.080244 0.09685 0.1322 -0.030077 -0.021856 -0.043066 0.0070803 
0.013657 0.0786 0.06331 0.14338 -0.014951 0.0031344 -0.028104 0.029112 
0.047033 0.086821 0.045718 0.11247 0.017767 0.011684 -0.011663 0.073668 
0.038812 0.10359 0.04506 0.09833 0.023193 0.032236 0.0060938 0.11576 
0.031907 0.067091 0.02829 0.082546 0.022535 0.012342 -0.0096899 0.14058 
0.026481 0.0070803 0.020398 0.070873 0.033222 -0.013965 -0.034845 0.029441 
0.051472 0.038648 0.033222 0.070708 0.025824 0.021056 -0.011992 -0.039613 
0.077943 0.027632 0.046375 0.076299 0.065612 0.097837 0.037332 0.0069159 
0.099645 0.018754 0.037497 0.06742 0.068571 0.0689 0.046704 0.1008 
0.1026 0.032236 0.020069 0.051965 0.088465 0.084848 0.079587 0.16771 
0.089287 0.0087245 0.014479 0.04654 0.054596 0.072024 0.051143 0.1368 
0.11066 0.10688 0.0060938 0.070544 0.020727 0.015959 0.010369 0.059528 
0.076134 0.1835 0.050979 0.11362 0.020891 0.016781 0.013164 -0.0088678 
0.049006 0.19599 0.073339 0.12085 -0.0067304 0.038483 0.015301 -0.041751 
0.029605 0.15883 0.080738 0.12102 0.011026 0.034866 0.016452 -0.05441 
0.0227 0.025824 0.059364 0.1105 0.035688 0.062159 0.042758 0.012013 
0.03388 -0.0029489 0.052623 0.098988 0.031578 0.051801 0.036675 0.10918 
0.040785 0.050321 0.055418 0.10228 0.046868 0.036182 0.025659 0.10047 
0.076299 0.078929 0.085835 0.11526 0.052787 0.068242 0.037661 0.14272 
0.10359 0.12184 0.068407 0.11411 0.067585 0.058213 0.040621 0.16294 
0.035195 0.013986 0.0421 0.083533 0.031742 0.023522 0.0098754 0.088465 
-0.09239 -0.10949 -0.0068948 0.041278 0.034866 -0.003771 -0.022185 0.01974 
-0.15322 -0.12971 -0.0771 0.013164 0.01152 -0.017253 -0.035174 -0.025638 
-0.14139 -0.0091966 -0.07266 0.015137 0.0062583 0.035688 -0.00081153 -0.023172 
-0.011992 0.17643 -0.02646 0.016288 0.00066819 0.10458 0.055911 -0.0013048 
0.13894 0.29776 0.068078 0.0786 -0.03353 0.071037 0.045224 -0.12725 
0.12677 0.21589 0.086821 0.11132 -0.024652 -0.010019 0.0054362 -0.19696 
0.08304 -0.017417 0.070873 0.11148 -0.014787 -0.091732 -0.07562 -0.025145 
0.05476 -0.21258 0.033551 0.087314 -0.0059084 -0.15684 -0.1376 0.1368 
0.038155 -0.18413 0.018754 0.068078 0.016616 -0.15026 -0.14648 0.23479 
0.024015 0.0028056 0.021549 0.059035 0.027961 -0.067235 -0.11327 0.21342 
0.033387 0.07301 0.052294 0.068078 0.036017 0.0095465 -0.04619 0.12891 
0.016288 0.16163 0.07597 0.088794 0.035195 0.08156 0.023686 0.070215 
0.029441 0.21243 0.060186 0.11 0.037004 0.075476 0.040785 0.021878 
0.015794 0.16097 0.026481 0.10918 0.043416 0.07597 0.045882 -0.063453 
-0.024487 0.059857 0.020233 0.080409 0.025659 0.0786 0.049992 -0.072332 
0.0064227 0.073832 0.028125 0.079422 0.024344 0.068407 0.042923 0.028125 
0.062323 0.10573 0.04506 0.083862 0.028125 0.064132 0.047362 0.058213 
0.077285 0.1687 0.047197 0.084684 0.035195 0.083204 0.048348 0.030098 
0.079916 0.13417 0.026974 0.073832 0.022371 0.061501 0.041278 0.023686 
0.050157 0.01004 0.013821 0.055418 0.045882 0.030592 0.033222 0.026646 
0.0088889 -0.035667 -0.0080457 0.03388 0.033387 -0.0072237 -0.012156 0.029441 
-0.030077 -0.043395 0.0062583 0.036017 0.00099702 -0.057699 -0.056548 0.021056 
-0.093212 -0.079895 -0.012978 0.023357 -0.0052507 -0.077922 -0.070359 -0.055397 
-0.10965 -0.10669 -0.059836 0.010369 -0.020541 -0.06707 -0.098967 -0.063946 
-0.072825 -0.17443 -0.05885 0.025001 -0.010512 -0.02794 -0.063618 0.00066819 
-0.022679 -0.11179 0.012013 0.042429 0.070873 0.028783 -0.014293 -0.0034422 
0.021549 -0.01939 0.053609 0.079587 0.068078 0.049664 0.010697 -0.024323 
0.034537 0.0087245 0.09685 0.1202 0.082217 0.027139 0.01004 -0.041915 
0.039141 -0.022679 0.067091 0.10721 0.071859 0.052294 0.020069 -0.021692 
0.067091 0.010369 0.049828 0.099152 0.036675 0.032236 0.012999 0.0090533 
0.096521 0.15357 0.067913 0.10211 0.038319 0.016945 0.0021479 -0.0098543 
0.14272 0.20355 0.043416 0.079916 0.019905 0.011026 -0.0016336 0.041114 
0.12003 0.059528 -0.0075525 0.038155 0.018096 0.011191 -0.01939 0.077285 
0.042265 0.036675 -0.0078813 0.028783 0.012999 0.016781 -0.0070593 0.049664 
-0.06148 0.088465 0.016616 0.066927 0.017274 0.041936 -0.0034422 0.0227 
-0.17279 0.074654 0.0051074 0.080573 0.038977 0.023522 -0.0059084 -0.050958 
-0.21965 0.070051 0.026317 0.076134 0.042265 -0.017746 -0.014293 -0.0771 
-0.094034 0.060022 0.046868 0.084684 0.027961 -0.020706 -0.033365 0.018425 
0.08567 0.04506 0.037332 0.077778 0.0070803 -0.014951 -0.031886 0.10869 
0.15028 0.063639 0.030263 0.073997 0.0059294 0.028619 0.0098754 0.098659 
0.066434 -0.0031133 0.014315 0.062652 0.014479 0.056404 0.012177 0.035853 
0.0227 -0.022679 0.032729 0.066763 0.049664 0.044238 0.018918 0.034044 
0.041772 0.012342 0.035031 0.069722 0.062323 0.070215 0.0421 0.046046 
0.068078 0.011191 0.06331 0.079422 0.057555 0.085999 0.05624 0.037826 
0.094548 0.022042 0.10195 0.11165 0.054596 0.062488 0.040292 -0.0026201 
0.10408 0.025824 0.048841 0.12233 0.050157 0.063639 0.035195 -0.021363 
0.08304 0.004943 0.024179 0.10737 0.017932 0.020398 0.0072447 0.00099702 
0.054596 0.021549 0.005765 0.072353 0.015465 -0.0040998 -0.012156 0.024179 
0.057555 0.0080668 0.009711 0.064625 0.019083 0.0013258 -0.015938 0.1202 
-0.010183 0.034537 0.045224 0.078929 0.038483 0.012177 -0.013965 0.11066 
-0.043395 0.06594 0.060515 0.097837 0.036017 0.033058 0.00050378 -0.0091966 
-0.0021268 0.093398 0.063803 0.10145 0.040128 0.021056 -0.01232 -0.11064 
0.047691 0.12694 0.054596 0.086985 -0.01232 -0.034845 -0.044217 -0.084498 
0.067256 0.14354 0.025824 0.066105 -0.028926 -0.030242 -0.027447 0.043251 
0.1294 0.13384 0.039305 0.067749 0.0023123 0.0083956 -0.016595 0.15275 
0.095864 0.14963 0.048841 0.086985 0.053281 0.039799 0.010533 0.15785 
-0.0032777 0.11757 0.036675 0.10441 0.067913 0.080244 0.050979 0.083862 
-0.012649 0.092247 0.040621 0.088136 0.044073 0.083533 0.047855 0.045389 
0.031085 0.041772 0.0093821 0.06183 0.029441 0.10014 0.070544 0.083533 
0.057062 -0.047176 -0.0068948 0.047691 0.020562 0.13236 0.094384 0.12612 
0.066269 -0.066741 0.0019835 0.046046 0.030756 0.10902 0.090767 0.11247 
0.076299 -0.023336 0.0090533 0.051472 0.041114 0.048677 0.049335 0.074654 
0.040128 -0.035996 0.034044 0.069393 0.056733 0.021384 0.005765 -0.012814 
-0.040928 -0.044874 0.031085 0.058706 0.039799 -0.049807 -0.047012 -0.041257 
-0.086964 -0.059343 0.034209 0.057062 -0.0044286 -0.10982 -0.10571 -0.12314 
-0.041915 0.057227 0.0060938 0.050157 -0.012156 -0.10752 -0.12774 -0.13086 
0.031249 0.11263 0.044896 0.08715 -0.0087034 -0.066084 -0.095514 -0.0088678 
0.098988 0.10343 0.045224 0.11757 0.060844 -0.036983 -0.0503 0.10787 
0.11066 0.13631 0.043909 0.096193 0.03536 0.048348 -0.001798 0.093726 
0.11987 0.16558 0.068736 0.10803 0.028947 0.029441 -0.0031133 0.089123 
0.11773 0.16311 0.058871 0.10244 0.018754 0.011026 0.0047785 0.062323 
0.13746 0.19205 0.050979 0.093562 -0.017417 0.046375 -0.0011404 0.10293 
0.171 0.22427 0.054925 0.092904 -0.03057 0.057227 0.02681 0.15242 
0.17939 0.19583 0.061501 0.10178 0.00033937 0.093726 0.066927 0.12694 
0.11083 0.14765 0.068078 0.10244 0.034866 0.065776 0.046704 0.015959 
0.012013 0.053281 0.044731 0.066927 0.047362 0.01826 0.012013 -0.069865 
-0.0072237 -0.036983 0.014479 0.053774 0.054432 0.025659 0.0041209 -0.080881 
-0.062302 -0.13826 -0.035503 0.036017 0.042429 0.041772 0.015794 -0.04619 
-0.048985 -0.19285 -0.054082 0.035853 0.051965 0.055747 0.028783 0.050979 
-0.026953 -0.12725 -0.0019624 0.040621 0.079587 0.13286 0.082382 0.063145 
-0.10834 -0.033201 -0.0042642 0.039305 0.040128 0.09833 0.065447 -0.052602 
-0.14698 -0.023994 0.015794 0.051143 0.037661 0.039799 0.031578 -0.1011 
-0.013143 0.027139 -0.0050863 0.042265 0.058706 0.032236 0.020562 0.044731 
0.10836 0.072517 0.063474 0.081395 0.039799 -0.006566 -0.0096899 0.12727 
0.16031 0.098001 0.069722 0.090767 -0.013307 -0.06444 -0.043888 0.10096 
0.13319 0.1373 0.061172 0.088301 -0.056055 -0.074962 -0.082196 0.051965 
0.094548 0.091589 0.039634 0.074326 -0.060165 -0.04619 -0.070194 0.053281 
0.087643 0.088465 0.035853 0.067913 -0.039284 -0.028926 -0.038133 0.058542 
0.19106 0.14733 0.031578 0.082875 0.024673 -0.0044286 -0.036818 0.078765 
0.22723 0.12644 0.046868 0.11559 0.048348 -0.012485 -0.035832 0.056898 
0.12233 0.09126 0.046704 0.099481 0.027139 -0.050793 -0.060165 -0.011992 
0.00297 0.061008 0.047855 0.091753 0.014479 -0.085978 -0.096665 -0.11837 
-0.14681 -0.014129 0.041114 0.089287 0.046868 -0.065097 -0.0868 -0.16457 
-0.22441 -0.02794 0.0042853 0.063803 0.037497 0.073832 0.01004 -0.13053 
-0.19498 -0.013965 -0.01939 0.038812 0.023522 0.17215 0.11017 0.0046141 
-0.062796 0.017438 -0.0087034 0.034373 0.072681 0.19172 0.15423 0.13269 
0.02829 -0.0011404 -0.015938 0.02829 0.095864 0.19353 0.16114 0.13384 
0.020233 -0.12034 -0.031721 0.0044497 0.072188 0.099645 0.098166 0.020398 
0.034373 -0.12198 -0.01528 1.0539e-005 0.023686 0.057227 0.058871 -0.012485 
0.071531 -0.03501 -0.0029489 0.037826 -0.0016336 0.012013 0.0064227 0.040128 
0.083204 0.053445 0.0044497 0.073175 0.0026412 -0.0087034 -0.015116 0.15127 
0.096357 0.14321 0.02681 0.070215 0.0067515 0.015794 0.010369 0.19566 
0.053938 0.14206 0.036839 0.077614 0.01826 0.032564 0.0034632 0.13171 
-0.013965 0.13417 0.053445 0.089287 -0.0049219 -0.012649 -0.024487 0.083533 
-0.023829 0.13171 0.065776 0.097015 0.0013258 -0.042244 -0.041915 0.033387 
-0.027611 0.10474 0.058377 0.095206 -0.029748 -0.042573 -0.080388 -0.0055795 
-0.05737 0.00083261 0.022864 0.075312 -0.032708 -0.075291 -0.088937 0.01826 
-0.057534 -0.041093 -0.0067304 0.03799 -0.028597 -0.01232 -0.042079 -0.00015387 
0.030756 -0.048985 0.023686 0.044402 0.042923 0.0026412 -0.033365 -0.04471 
0.10787 -0.0060728 0.043909 0.075148 0.044073 0.0092177 -0.027611 -0.023336 
0.11526 -0.078744 0.020233 0.077285 0.049664 0.015137 -0.016266 -0.008539 
0.053445 -0.11672 -0.050958 0.058542 0.048184 -0.011334 -0.029255 0.004943 
0.0013258 0.021056 -0.0095255 0.045389 0.049006 0.026974 -0.0019624 0.035688 
-0.014458 0.10113 0.0324 0.065283 0.067913 0.065776 0.023193 0.043416 
-0.054739 0.12497 0.045718 0.081231 0.075641 0.082711 0.043909 0.05624 
0.0019835 0.15324 0.062652 0.084684 0.052623 0.1368 0.10672 0.072353 
0.043416 0.089123 0.041443 0.081067 0.01563 0.13927 0.1105 0.074654 
0.054596 0.034537 0.037332 0.076956 -0.0138 0.075641 0.06594 0.047855 
0.037168 0.026974 0.034866 0.069064 -0.055726 0.00099702 0.026646 0.023357 
0.007738 0.01711 0.035688 0.063968 -0.050629 -0.053588 -0.047834 0.0092177 
-0.020541 -0.0004827 0.03651 0.063474 -0.00081153 -0.10538 -0.095514 0.07449 
0.020891 -0.023829 -0.011992 0.063145 0.070215 -0.067399 -0.081374 0.096357 
0.09126 -0.0070593 -0.014622 0.0689 0.11346 -0.032872 -0.062796 0.084026 
0.088794 0.038977 0.018096 0.064954 0.11428 0.046046 -0.00031829 0.077121 
0.035524 0.054596 0.036346 0.074326 0.075641 0.096193 0.050321 0.043251 
-0.0059084 0.089287 0.047526 0.080902 0.0056006 0.072353 0.046704 -0.0057439 
-0.053588 0.081724 0.026481 0.072024 -0.034845 -0.022514 -0.012814 -0.03764 
-0.048327 0.046046 0.024344 0.066763 -0.0138 -0.0047575 -0.02646 -0.012156 
-0.033037 0.079587 0.053281 0.07449 0.020233 -0.0095255 -0.03764 0.013657 
0.027796 0.039634 0.049335 0.07449 0.050486 -0.0026201 -0.025145 0.033715 
0.078765 0.050321 0.058213 0.080573 0.035031 0.025495 -0.014622 0.030427 
0.06035 0.075148 0.063968 0.096357 0.035195 0.034209 0.0011614 0.01152 
0.057884 0.076627 0.10704 0.14453 0.038648 0.040456 0.033551 0.0090533 
0.1105 0.081395 0.057227 0.1322 0.041114 0.067256 0.038648 0.032071 
0.14519 0.10359 0.041278 0.097508 0.028454 0.038483 0.022206 0.048348 
0.11757 0.072681 0.025166 0.077778 -0.0067304 0.050486 0.04506 0.066598 
0.12891 0.074983 0.053281 0.092576 0.0051074 0.042923 0.020891 0.10195 
0.12743 0.09833 0.08156 0.11148 0.059693 0.016452 0.0056006 0.1054 
0.070873 0.091753 0.071695 0.11461 0.071202 0.025166 0.0019835 0.047197 
-0.069043 0.033222 0.025166 0.076134 0.066105 0.005765 -0.015938 -0.096994 
-0.16325 -0.051615 -0.036818 0.01974 0.024344 0.0031344 -0.017582 -0.15964 
-0.089595 -0.047012 -0.033201 0.0026412 0.014643 -0.0088678 -0.022514 -0.10768 
0.032071 0.03947 0.0093821 0.038155 0.0034632 -0.023172 -0.038627 -0.023829 
0.13319 0.11181 0.03651 0.091753 -0.0087034 -0.022021 -0.036818 0.10129 
0.2657 0.23019 0.10244 0.12924 -0.016266 0.055911 0.018425 0.21769 
0.2976 0.26669 0.13582 0.16015 0.021549 0.096686 0.056569 0.24811 
0.27491 0.12595 0.083533 0.1373 0.066434 0.095535 0.071531 0.17528 
-0.00015387 -0.051944 -0.018404 0.061501 0.014972 0.02681 0.01563 -0.014787 
-0.19745 -0.16111 -0.059672 0.011191 -0.011992 -0.037805 -0.040928 -0.16391 
-0.1598 -0.041257 -0.021034 0.019411 -0.0095255 -0.062631 -0.049314 -0.11771 
-0.056219 0.071037 0.031085 0.043416 -0.0013048 -0.0073881 -0.031721 -0.047834 
-0.0031133 0.031742 0.06594 0.073504 0.034373 0.029934 -0.0032777 0.0018191 
0.0023123 -0.023172 0.059364 0.082875 0.0023123 0.03536 0.023686 0.028783 
-0.015116 0.0070803 0.047691 0.083697 0.030263 0.029934 0.012013 0.0083956 
-0.0055795 0.071366 0.0062583 0.09126 0.025659 0.034209 0.010862 0.017603 
0.052623 0.14601 0.024837 0.079094 0.043745 0.047855 0.023357 0.082711 
0.099974 0.095699 0.027468 0.075641 0.06479 0.037497 0.017603 0.047362 
0.069393 0.10425 0.032564 0.080244 0.094548 0.041607 0.018754 0.015137 
0.066598 0.10967 0.069064 0.097179 0.088958 0.059528 0.029934 0.012342 
0.077943 0.049664 0.055911 0.094384 0.05624 0.037661 0.018425 -0.016431 
0.03536 -0.0077169 0.017767 0.07038 0.01152 -0.0077169 -0.01528 -0.0095255 
-0.0054151 0.033715 -0.009361 0.042265 -0.019719 -0.021528 -0.050793 0.027303 
-0.014293 0.015959 0.019083 0.044402 -0.018568 -0.023829 -0.050958 0.014479 
-0.022679 0.007738 0.034209 0.053938 0.012342 0.0023123 -0.013143 0.049664 
0.0065871 -0.011992 0.021384 0.071366 0.041443 0.041114 0.0059294 0.083533 
0.024673 -0.0067304 0.025495 0.085999 0.026317 0.034702 0.0075736 0.10359 
0.039963 0.045882 0.02122 0.07449 0.016288 0.038319 0.032236 0.1271 
0.038483 0.021056 0.033387 0.081395 -0.00081153 0.08419 0.043416 0.10129 
0.020562 0.019905 0.025988 0.07301 0.029769 0.056569 0.037168 0.060022 
0.039963 0.045224 0.0074092 0.058377 0.038155 0.032893 0.021056 0.023028 
0.013164 0.057062 0.0098754 0.053938 0.054267 -0.016102 -0.020048 0.0047785 
0.01563 0.044238 0.013657 0.054925 0.058706 -0.028762 -0.041093 -0.018075 
0.016945 0.01004 0.020398 0.053281 0.061501 0.0014903 -0.023665 -0.027447 
-0.01117 0.00083261 0.011355 0.041607 0.032729 0.00017495 -0.024323 -0.034188 
0.00033937 0.031414 0.052787 0.077121 0.016123 0.0088889 -0.016266 -0.016431 
0.04917 0.066434 0.06594 0.10474 0.059035 0.031578 -0.0019624 -0.0021268 
0.067749 0.055747 0.049006 0.13154 0.062488 0.030592 0.0044497 0.012013 
0.041772 0.024179 0.014479 0.085506 0.067749 0.03536 0.012506 0.024015 
-0.017746 -0.042901 -0.012814 0.048677 0.055254 0.053609 0.015301 0.0018191 
-0.033365 -0.03764 -0.0039354 0.043416 0.029441 0.027632 0.0046141 -0.020212 
-0.022843 0.037497 0.028783 0.06183 0.025001 0.0085601 0.014315 0.064296 
0.049664 0.11806 0.062981 0.086657 0.048019 0.055089 0.023686 0.14108 
0.092082 0.14535 0.053609 0.092082 0.047855 0.061172 0.034209 0.15883 
0.081067 0.047855 0.013328 0.05772 0.040292 0.033222 0.035195 0.092576 
0.10655 -0.033859 0.0082312 0.031578 0.01152 -0.0016336 0.005765 0.014808 
0.088301 -0.017417 0.031414 0.055418 0.035031 0.012506 -0.0040998 0.027961 
0.011026 0.047855 0.066598 0.10359 0.063968 0.045882 0.031414 0.026152 
0.012177 0.053938 0.056898 0.12908 0.080738 0.013657 0.0044497 0.009711 
-0.00081153 0.037661 0.0095465 0.084519 0.060679 -0.00015387 -0.013965 -0.023829 
-0.0014692 0.042265 -0.00031829 0.056898 0.022535 -0.033365 -0.049642 -0.097651 
0.010862 0.099316 0.018918 0.064132 0.0039565 -0.021363 -0.046847 -0.10883 
0.0065871 0.12266 0.047855 0.080738 -0.0064016 0.023028 -0.0080457 -0.056219 
0.059364 0.073832 0.040456 0.083204 -0.008539 0.087972 0.042758 0.057884 
0.071859 0.044567 0.031907 0.077614 0.034537 0.05772 0.039141 0.068571 
0.015794 -0.0019624 0.04095 0.074654 0.030427 0.0098754 0.0059294 0.029934 
0.038977 0.035195 0.068078 0.086657 0.033058 0.00083261 -0.0083746 0.072517 
0.040785 0.10244 0.079751 0.10392 0.046704 -0.042573 -0.044381 0.08008 
0.03092 0.081395 0.047362 0.11444 0.020562 -0.037969 -0.057534 0.12118 
0.05772 0.058213 0.022042 0.10852 0.033715 -0.023665 -0.052109 0.13993 
0.024673 0.042758 -0.011827 0.058377 0.059528 -0.029913 -0.062796 0.076792 
-0.0073881 0.041114 0.026974 0.065612 0.083204 0.013986 -0.01117 0.010862 
0.031249 0.084355 0.041607 0.084848 0.08567 0.093233 0.051965 0.023686 
0.15176 0.096193 0.079751 0.10655 0.10063 0.10392 0.074326 0.050979 
0.20586 0.098659 0.091589 0.12546 0.06183 0.11576 0.090931 0.052787 
0.090931 0.03536 0.019905 0.08156 -0.014787 0.071202 0.0592 -0.0070593 
-0.10439 -0.073482 -0.044874 0.018589 -0.051451 -0.0088678 -0.0040998 -0.11294 
-0.14352 -0.109 -0.042408 -0.0021268 -0.068879 -0.038791 -0.045203 -0.17936 
-0.078579 0.026974 0.027632 0.045718 -0.02646 -0.0083746 -0.031886 -0.096994 
-0.027118 0.08978 0.060186 0.099316 0.010369 0.058213 0.023522 0.047855 
0.013821 0.079258 0.031249 0.11214 0.036182 0.13697 0.080902 0.17199 
0.097344 0.043909 0.034044 0.08978 0.027796 0.098823 0.076792 0.20158 
0.11378 0.0592 0.044567 0.090767 0.041278 0.062981 0.05772 0.11609 
0.055747 0.060515 0.0087245 0.065283 0.021056 -0.032543 -0.026296 0.039305 
-0.031228 -0.0050863 -0.017911 0.036017 -0.0024557 -0.13316 -0.11656 -0.036325 
-0.055068 0.013821 -0.0049219 0.03947 0.0075736 -0.13037 -0.12429 -0.067399 
0.016781 0.089945 0.041936 0.06035 0.017438 -0.0406 -0.079895 -0.0039354 
0.0064227 0.051636 0.046211 0.069393 0.01267 0.029112 -0.016924 0.04917 
-0.004593 0.040785 0.0689 0.082382 -0.006566 0.047691 0.017274 0.041278 
0.037826 0.0421 0.072517 0.1031 -0.0034422 0.061501 0.023851 0.018096 
0.098659 0.070215 0.05476 0.11674 0.012835 0.069393 0.040128 0.013164 
0.10836 0.10967 0.0039565 0.088958 0.01711 0.07038 0.045718 0.067913 
0.099316 0.036346 -0.0026201 0.059693 -0.0031133 0.074983 0.049499 0.083697 
0.061666 -0.0049219 0.013657 0.059857 0.004943 0.041278 0.03092 0.033058 
0.029276 0.014808 0.024837 0.065612 0.041936 0.038155 0.016452 0.0036276 
0.016452 0.043251 0.01563 0.058213 0.0011614 0.062488 0.029441 -0.056877 
-0.025638 0.057555 0.041443 0.072517 0.036346 -0.018239 -0.018239 -0.047505 
-0.065591 0.046868 0.028783 0.076956 0.031907 -0.022185 -0.037311 0.03092 
-0.022843 0.032729 0.015137 0.056898 0.026317 0.0024767 -0.020541 0.15752 
0.11148 0.041936 0.04506 0.067256 0.022371 0.00297 -0.0019624 0.13812 
0.10178 0.033222 0.034209 0.071366 0.017767 0.050814 0.01152 0.092082 
0.05213 0.023028 0.022535 0.095864 0.013986 0.023851 0.0039565 0.032564 
0.025988 0.077614 0.034537 0.090109 0.020233 0.010204 0.011684 -0.026624 
-0.017088 0.034866 0.046046 0.090109 0.0075736 0.0032988 -0.027447 -0.082196 
0.0026412 0.034373 0.038977 0.081395 -0.01939 0.0054362 -0.015938 -0.018568 
-0.0072237 0.062817 0.012835 0.066105 0.0024767 0.062652 0.029276 0.01563 
0.020398 0.02829 0.0059294 0.053445 0.0036276 0.072024 0.041607 0.063803 
0.062817 0.026317 -0.0019624 0.047855 0.027468 0.0592 0.041607 0.065612 
0.07449 0.021056 0.049335 0.069886 0.063474 0.098659 0.068242 0.064296 
0.076792 0.038812 0.054432 0.074983 0.075476 0.13861 0.10376 0.090438 
0.069558 0.095042 0.058542 0.079422 0.064954 0.13187 0.11083 0.1322 
0.083368 0.053445 0.035031 0.087479 0.060844 0.079422 0.0689 0.19353 
0.057227 0.018918 0.00033937 0.086328 -0.0039354 0.015794 0.013821 0.11609 
-0.056383 -0.0088678 -0.039778 0.034537 -0.06148 -0.041093 -0.046847 -0.20551 
-0.10406 -0.023336 -0.026296 0.020562 -0.024652 -0.080881 -0.096665 -0.31287 
-0.035174 0.009711 0.014972 0.05065 -0.026789 -0.14073 -0.13744 -0.10357 
0.043745 0.08715 0.08156 0.096028 0.007738 -0.13958 -0.12774 0.065283 
0.066105 0.11165 0.078272 0.10984 0.021056 -0.016102 -0.065755 0.13779 
0.10359 0.13976 0.084355 0.12612 0.040292 0.064132 0.0092177 0.14881 
0.14387 0.10195 0.080902 0.11231 0.056569 0.068571 0.051636 0.14437 
0.21276 0.097508 0.077943 0.10606 0.040621 0.055747 0.024673 0.12069 
0.15916 0.09274 0.085177 0.10935 0.034373 0.018096 0.0042853 0.066269 
0.038977 0.010533 0.036017 0.098659 -0.011663 0.0087245 0.0024767 -0.025967 
-0.09387 -0.057699 -0.03353 0.066763 -0.018239 -0.0064016 -0.020048 -0.079566 
-0.11755 -0.030077 -0.069372 0.012999 0.010697 0.0072447 -0.015609 -0.069865 
-0.027611 0.03536 -0.0049219 0.033387 0.034209 0.051636 0.015301 -0.050629 
0.056898 0.14437 0.049335 0.074983 0.044567 0.077285 0.041772 0.0013258 
0.049335 0.14371 0.085999 0.10787 0.042594 0.043251 0.031742 0.052459 
0.041278 0.11905 0.070544 0.10852 0.031742 0.040456 0.023522 0.072188 
0.050157 0.11263 0.04654 0.093069 0.015959 0.0052718 -0.006566 0.077285 
0.084026 0.10721 0.067256 0.096193 0.022371 0.036839 0.010697 0.087972 
0.11625 0.14552 0.099316 0.11724 0.044073 0.063639 0.02533 0.066434 
0.090931 0.093726 0.059035 0.10162 0.085177 0.04506 0.023522 0.099316 
0.035853 -0.08532 -0.036983 0.04654 0.0689 0.015794 0.022206 0.055747 
-0.0087034 -0.16161 -0.089431 0.016781 0.058871 0.013164 -0.0068948 0.031578 
-0.041093 -0.09946 -0.046683 0.0072447 0.079916 0.0036276 -0.016595 0.023357 
-0.097322 -0.044381 -0.0091966 0.024015 0.068407 0.0018191 -0.0070593 -0.016595 
-0.11491 0.03947 0.028947 0.053938 0.017438 0.024015 -0.00064712 -0.042408 
-0.031228 0.066269 0.030427 0.060679 0.012835 -0.023829 -0.029255 -0.026953 
0.091753 0.10326 0.026646 0.06594 -0.035174 0.01004 -0.037805 -0.055232 
0.14272 0.16179 0.039963 0.076299 0.0060938 -0.019719 -0.039449 -0.065097 
0.11395 0.060515 0.058871 0.097837 0.0072447 -0.010019 -0.028269 -0.079566 
0.11855 0.073997 0.076134 0.099152 0.025659 0.034702 -0.0027845 0.007738 
0.08863 0.065612 0.093069 0.10359 0.053116 0.045224 0.016945 0.086328 
-0.0098543 0.0075736 0.028783 0.087972 0.055911 0.017438 0.0019835 0.078929 
-0.1455 -0.041093 -0.013471 0.080738 0.016123 0.012013 -0.014458 -0.0064016 
-0.2185 -0.068386 -0.021692 0.043745 0.00017495 0.0085601 -0.015444 -0.050464 
-0.15174 -0.045203 0.0072447 0.05065 0.007738 0.01826 0.0098754 0.0054362 
-0.053753 0.043416 0.011355 0.055747 0.032071 0.042594 0.012177 0.036346 
0.088958 0.058213 0.0080668 0.052294 0.051636 0.022535 0.0062583 0.06594 
0.1396 0.053609 0.013986 0.055582 0.047526 0.034866 0.02829 0.061337 
0.15374 0.04917 0.0036276 0.046046 0.044731 0.038319 0.017767 0.005765 
0.11905 0.030592 0.014643 0.044731 0.03388 0.0047785 -0.0039354 -0.0026201 
0.11691 0.077778 0.040785 0.054925 0.03388 0.0011614 -0.0021268 0.059857 
0.090767 0.092576 0.064954 0.079422 0.039799 0.024015 1.0539e-005 0.10967 
0.021384 0.095371 0.074983 0.11707 0.050814 0.044238 0.019411 0.13072 
-0.029748 0.1294 0.062488 0.13746 0.051472 0.065447 0.034209 0.053281 
-0.065755 0.075641 0.062488 0.11757 0.031414 0.06035 0.033058 -0.0057439 
-0.019226 -0.034845 -0.0013048 0.070051 0.012013 0.035688 0.024673 0.0028056 
0.059857 -0.037476 -0.016102 0.04506 0.01974 0.040128 0.016288 0.00050378 
0.077121 -0.019555 -0.01676 0.035031 0.01152 0.027961 0.019083 -0.0034422 
0.056898 0.032564 0.013821 0.049499 0.052787 0.032729 0.016616 0.011848 
0.046046 0.051308 0.047362 0.062488 0.055418 0.062488 0.028783 -0.074962 
-0.016266 0.084355 0.037004 0.06479 0.04654 0.024673 0.009711 -0.058028 
-0.1011 0.17692 0.098001 0.1054 0.031249 0.034209 0.026974 -0.036983 
-0.039778 0.22065 0.11346 0.13056 0.012999 0.033715 0.015794 -0.0004827 
0.005765 0.18777 0.066598 0.12595 0.021549 0.033387 0.015959 0.057555 
0.052623 0.11231 0.0421 0.12398 0.023522 0.031414 0.025659 0.063639 
0.061995 0.054925 0.037004 0.096357 0.039305 0.056076 0.023851 0.061172 
0.039141 0.012835 0.010697 0.068736 0.015465 0.046211 0.023851 0.057227 
0.017438 -0.016102 -0.01117 0.045553 0.00099702 0.035195 0.020069 0.058542 
0.033551 -0.063124 -0.019061 0.030263 0.0018191 0.007738 -0.0047575 0.062817 
0.041936 -0.1307 -0.00064712 0.037332 0.018589 0.016781 -0.004593 0.10014 
0.037004 -0.31468 0.0090533 0.036839 0.012506 0.014972 -0.0057439 0.1031 
0.020891 -0.46775 -0.02498 0.01563 -0.0047575 0.015959 -0.0091966 0.080738 
0.02533 -0.33917 -0.028433 0.0042853 0.0056006 0.01826 -0.003771 0.074326 
0.071859 -0.1039 -0.011827 0.017603 0.017274 0.03947 0.014315 0.019905 
0.10819 0.14782 0.031742 0.082875 0.021713 0.026317 0.0034632 0.00083261 
0.088958 0.39707 0.096357 0.13615 0.055911 0.014808 0.0013258 0.012999 
0.085999 0.451 0.11609 0.14848 0.042265 0.055747 0.01826 0.020891 
0.12694 0.41927 0.14946 0.17626 0.044402 0.042758 0.017438 0.044731 
0.1664 0.28856 0.095371 0.15094 0.020562 0.021713 0.018589 0.055911 
0.13549 0.12727 0.058049 0.11411 0.018918 0.016781 0.00066819 0.054103 
0.01711 0.029112 0.0011614 0.070051 0.010369 0.01152 -0.0013048 0.036182 
-0.038133 -0.043724 0.017274 0.057555 0.03536 0.02681 0.015959 0.034373 
-0.030242 -0.062467 0.045389 0.052294 0.034044 0.020891 0.0014903 -0.0026201 
-0.032708 -0.035667 0.037661 0.059693 0.03799 0.013492 -0.0059084 -0.0087034 
-0.11031 -0.065755 0.0075736 0.043251 0.015794 -0.0021268 -0.011005 0.0070803 
-0.081703 -0.046354 -0.010019 0.064461 -0.003771 0.0092177 -0.012156 0.026974 
0.1174 0.017767 0.046211 0.085835 0.019247 0.0227 0.0052718 0.086492 
0.2833 0.056898 0.028619 0.078436 0.022042 0.040621 0.015137 0.10967 
0.21424 0.057884 0.023851 0.076792 0.034537 0.01826 -0.00015387 0.064296 
-0.039613 -0.032379 0.0032988 0.055747 0.0088889 -0.0082102 -0.020706 0.0023123 
-0.14204 -0.0503 -0.046519 0.018754 -0.011005 -0.0034422 -0.019226 -0.010512 
-0.073647 -0.0047575 -0.019226 0.023686 -0.0024557 -0.011334 -0.027611 0.0024767 
-0.018404 0.037826 0.031907 0.053609 0.013164 -0.0055795 -0.026624 0.021384 
-0.02646 0.072517 0.076134 0.082546 0.039634 0.03536 -0.0036066 0.027796 
0.082382 0.11872 0.097179 0.10885 0.073668 0.036182 0.010204 0.060679 
0.17149 0.041443 0.081889 0.12118 0.071366 0.030427 0.019411 0.070051 
0.059857 -0.023172 0.004943 0.09274 0.046704 0.03388 -0.0024557 -0.014951 
-0.0032777 -0.030242 -0.044874 0.038812 0.0034632 -0.011992 -0.028433 -0.044217 
-0.016431 0.023522 -0.020706 0.027961 -0.0075525 -0.014293 -0.014458 0.00099702 
-0.022679 0.076134 -0.010676 0.032236 0.0059294 0.004943 -0.019555 0.025824 
0.0019835 0.081395 0.018425 0.051801 0.021549 0.01563 -0.0091966 0.049499 
0.038977 0.086328 0.051801 0.075312 0.043416 0.032071 0.013164 0.047362 
0.081395 0.11247 0.066763 0.096686 0.044238 0.047033 0.015959 0.038812 
0.092576 0.097179 0.083533 0.10573 0.066927 0.069393 0.038483 0.040621 
0.039634 0.13845 0.076463 0.10392 0.037826 0.047855 0.031414 0.013986 
0.028947 0.18547 0.081724 0.092904 0.022042 0.04095 0.022042 -0.0083746 
0.042758 0.16607 0.057227 0.096521 0.020891 0.0080668 -0.00064712 0.005765 
-0.004593 0.09981 0.015465 0.088958 0.0074092 0.013164 -0.017746 -0.023829 
-0.050958 0.019576 0.0039565 0.065612 0.01415 -0.0075525 -0.030735 -0.043888 
0.0227 0.01152 0.0018191 0.051965 0.0016547 -0.0080457 -0.027611 0.010369 
0.058049 0.020069 -0.030242 0.029276 0.014315 0.033551 -0.0039354 0.0421 
0.030098 0.0069159 0.026317 0.053445 0.053609 0.047033 0.011191 0.040785 
0.044896 0.0786 0.079751 0.098659 0.066434 0.020398 0.01267 0.04506 
0.022535 0.12217 0.11773 0.13434 0.049499 0.0051074 0.00066819 0.061995 
0.068078 0.10359 0.072517 0.11329 0.050814 0.033551 0.0060938 0.071366 
-0.028597 0.14354 0.081889 0.084519 0.023686 0.060844 0.032729 0.030098 
-0.084005 0.070873 0.0062583 0.044567 -0.0075525 0.014315 -0.00064712 0.0031344 
-0.0036066 0.047691 0.0087245 0.051308 -0.010841 -0.008539 -0.023007 -0.00081153 
0.10244 0.06035 0.018754 0.084848 0.033387 0.039963 0.013328 0.051965 
0.14321 0.11313 0.028783 0.085012 0.08715 0.037004 0.01152 0.047855 
0.13894 0.14733 0.065776 0.099645 0.088794 0.035853 0.013657 0.011026 
0.047526 0.11181 0.041772 0.093233 0.08156 0.047526 0.0018191 -0.037476 
-0.096829 -0.011005 0.0032988 0.061008 0.039799 0.017603 -0.0050863 -0.070687 
-0.13185 -0.014293 -0.024323 0.035031 0.0098754 -0.011992 -0.022185 -0.036654 
-0.052437 0.064461 0.028125 0.05624 0.020891 0.052623 0.0098754 0.018425 
0.064296 0.087808 0.076134 0.089452 0.040128 0.09126 0.047855 0.062981 
0.066269 0.10639 0.090603 0.10425 0.056898 0.081231 0.06183 0.038977 
0.055089 0.062652 0.078272 0.10293 0.04506 0.03651 0.020562 0.04917 
0.072681 0.022535 0.030098 0.077285 -0.0019624 -0.045368 -0.038627 0.065283 
0.076792 -0.01676 0.012506 0.086328 -0.0083746 -0.086964 -0.066906 0.097015 
0.082546 -0.021528 0.013164 0.075805 0.0046141 -0.047834 -0.071838 0.073832 
0.11658 -0.020212 0.0023123 0.058542 0.048019 0.019411 -0.023665 0.018096 
0.048348 -0.0060728 -0.020541 0.037004 0.066434 0.086492 0.053609 0.049499 
-0.044546 -0.032708 -0.02087 0.027796 0.044567 0.088958 0.058213 0.00017495 
-0.11048 -0.003771 -0.0021268 0.040292 0.038155 0.055418 0.041607 -0.06707 
-0.060494 0.033387 0.01826 0.053774 0.059035 0.049499 0.038319 -0.027775 
0.063474 0.069393 0.051308 0.06183 0.039799 0.050157 0.038155 0.031249 
0.096357 0.098166 0.067091 0.080244 0.020398 0.025166 0.019083 0.14157 
0.063474 0.066927 0.096357 0.10984 0.01974 0.03651 0.013328 0.15078 
0.03092 0.045882 0.084355 0.11954 0.0039565 -0.0044286 -0.021034 0.044731 
0.04917 0.010204 0.029934 0.11181 -0.0032777 -0.019555 -0.038791 -0.065755 
0.043909 -0.063289 -0.020212 0.056898 -0.024323 -0.013471 -0.041751 -0.075949 
0.019576 -0.017911 -0.018075 0.037497 -0.021528 1.0539e-005 -0.032215 -0.028433 
0.0021479 0.02681 0.028947 0.060679 -0.012814 -0.0022913 -0.01939 0.021878 
0.027468 0.034866 0.025824 0.070215 0.022864 0.047362 0.005765 0.033551 
0.043745 0.0082312 0.00050378 0.053116 0.047362 0.075641 0.037497 0.03947 
0.034044 -0.0082102 0.024508 0.061666 0.067913 0.057062 0.054596 0.093562 
-0.064275 0.0021479 0.069393 0.086657 0.068078 0.06742 0.046704 0.13187 
-0.12708 0.036346 0.067749 0.090931 0.040128 0.050321 0.032564 0.055089 
-0.028762 0.050321 0.07449 0.098166 0.03388 0.035031 0.03388 -0.021199 
0.11313 0.049992 0.033222 0.096357 0.038483 0.037826 0.014315 -0.022679 
0.15949 0.013492 -0.01117 0.081231 0.024344 -0.008539 -0.014293 -0.025309 
0.13582 -0.027775 -0.016431 0.051143 -0.0031133 0.0019835 -0.016102 0.014479 
0.079751 -0.022679 -0.018568 0.042429 0.00017495 -0.042901 -0.041586 0.018096 
-0.051944 -0.049642 -0.0040998 0.041278 -0.027611 -0.069043 -0.078086 0.012013 
-0.05178 -0.044546 0.029112 0.06331 0.0052718 0.047691 -0.016266 0.080902 
-0.0047575 0.03092 0.035853 0.073832 0.025166 0.092411 0.041607 0.042265 
0.034209 0.057227 0.041443 0.081231 0.021713 0.061008 0.036017 0.016616 
-0.045039 0.062817 0.044896 0.072846 0.0051074 -0.044381 -0.039778 0.053445 
0.0019835 0.064296 0.04654 0.074654 0.034702 -0.099953 -0.10094 0.074819 
0.10392 0.079422 0.076463 0.098001 0.040621 -0.027447 -0.052602 0.10704 
0.23282 0.10984 0.070215 0.13532 0.074819 0.075148 0.015794 0.11231 
0.24844 0.063145 0.042265 0.12809 0.043416 0.08008 0.04095 0.094055 
0.10787 0.0092177 0.013821 0.082546 0.010204 0.05065 0.061337 0.07038 
-0.094527 0.033222 0.019576 0.070544 -0.014622 0.029934 0.015301 -0.015116 
-0.067399 0.062817 0.022535 0.066434 0.030756 0.023686 0.012999 -0.027447 
-0.0080457 0.07038 0.024015 0.063803 0.042594 0.045718 0.028454 0.0060938 
0.03536 0.052952 0.0052718 0.060844 0.040292 0.060022 0.023686 0.030756 
0.039634 0.030427 0.01711 0.053938 0.036017 0.038483 0.017932 0.018754 
0.045882 -0.01232 0.017274 0.038483 0.021878 0.032729 0.0098754 -0.024652 
0.045718 0.0037921 0.035853 0.051636 0.01563 -0.01232 -0.021692 -0.073811 
0.064461 0.055911 0.054103 0.073339 0.022206 -0.0049219 -0.021856 -0.065262 
0.05772 0.12118 0.051143 0.10902 0.059364 0.053445 0.0021479 -0.010019 
0.05624 0.14733 0.066763 0.13302 0.057884 0.020891 -0.00097594 0.091589 
0.089287 0.13023 0.053445 0.11937 0.033551 0.031578 0.010862 0.10803 
0.055582 0.13483 0.032071 0.092411 0.011848 0.007738 -0.013143 0.070544 
0.0072447 0.073832 0.024508 0.0786 0.0062583 -0.018239 -0.038133 0.044238 
0.11855 0.094877 0.03947 0.082053 0.033387 0.014808 -0.0067304 0.061666 
0.20816 0.070215 0.01826 0.070051 0.073832 0.078272 0.031907 0.088465 
0.097508 -0.04323 -0.0031133 0.04654 0.063968 0.061172 0.034702 0.01415 
-0.068879 -0.059178 -0.0022913 0.035195 0.049828 0.053281 0.049499 -0.017746 
-0.15059 -0.041751 0.040456 0.050157 0.045389 0.038155 0.024344 -0.012485 
-0.18594 0.022535 0.08863 0.092411 0.016452 -0.006566 -0.0055795 -0.022021 
-0.12757 0.098494 0.072846 0.12135 -0.0083746 -0.030406 -0.028762 -0.01528 
0.0098754 0.11658 0.030427 0.11806 -0.006566 -0.0042642 -0.023336 0.035853 
0.16229 0.10622 0.01004 0.077943 0.010204 0.021713 -0.0040998 0.069229 
0.19944 0.068078 -0.011498 0.051636 0.023028 0.047362 0.022042 0.069722 
0.14749 0.017438 -0.0060728 0.043251 0.022042 0.0069159 -0.0019624 0.046211 
0.044567 0.028619 0.00066819 0.047197 0.061172 0.025495 0.00297 0.011191 
-0.069372 0.020727 0.0092177 0.047526 0.066598 0.037004 0.0064227 -0.041915 
-0.078086 0.036839 0.037168 0.058049 0.052459 0.040785 0.01152 -0.039778 
-0.022679 0.08715 0.024837 0.055747 0.018096 0.01826 0.009711 -0.012649 
-0.016431 0.011848 0.019411 0.059857 0.020069 0.028125 0.0065871 0.013657 
0.030427 0.071531 0.085341 0.098166 0.042429 0.033058 0.011355 0.060186 
0.035195 0.060515 0.047855 0.11691 0.044073 0.035031 0.025495 0.058706 
0.01267 0.03092 0.0085601 0.09981 0.037661 0.077449 0.026646 0.03947 
0.025001 0.070215 0.0070803 0.070051 0.035524 0.019905 0.009711 0.039141 
0.051143 0.076299 0.0074092 0.060515 0.044567 0.016123 -0.016102 0.042265 
0.086163 0.056898 0.025001 0.068242 0.049664 0.022371 -0.0060728 0.047197 
0.10277 0.09833 0.044567 0.065776 0.041114 0.042758 0.016123 0.052787 
0.12924 0.070051 0.033058 0.071037 0.036675 0.047526 0.025001 0.04506 
0.10507 0.027961 0.014315 0.056569 0.0034632 0.036346 0.020398 0.027303 
0.029276 0.004943 -0.010676 0.027632 0.0093821 0.028125 0.012835 -0.022679 
-0.023665 -0.0059084 0.021384 0.039305 0.02122 0.058049 0.015959 -0.036983 
-0.065097 0.041278 0.081889 0.093069 0.050486 0.047033 0.023686 -0.0082102 
-0.063289 0.037004 0.085835 0.13187 0.071366 0.086492 0.053938 0.046046 
-0.028269 0.021056 0.083204 0.14716 0.044073 0.0786 0.055911 0.061666 
-0.0026201 -0.011992 -0.008539 0.076134 0.020727 0.0036276 0.0028056 0.032564 
0.014972 -0.048985 -0.10291 -0.0088678 -0.0036066 -0.016266 -0.014129 -0.016924 
0.052294 -0.031228 -0.041751 0.0047785 0.024179 -0.015116 -0.046519 0.00099702 
-0.014129 0.010369 0.024179 0.043087 0.020727 -0.03501 -0.054082 0.034537 
-0.10012 0.023028 0.06183 0.081724 0.0034632 -0.044874 -0.048163 0.049006 
-0.024487 0.072681 0.071037 0.094055 0.0032988 -0.0064016 -0.035996 0.076299 
0.13532 0.19566 0.098494 0.12168 0.014643 0.027796 -0.0064016 0.11231 
0.24351 0.21704 0.097344 0.12365 0.048677 0.049828 0.026646 0.096028 
0.25978 0.12513 0.023851 0.089287 0.043251 0.084519 0.046211 0.081395 
0.01826 -0.089759 -0.053588 0.044238 0.01711 0.046704 0.030263 -0.024158 
-0.19663 -0.10965 -0.046683 0.02829 -0.00031829 0.016616 0.0047785 -0.087622 
-0.10916 -0.018568 -0.011334 0.03092 -0.00031829 -0.013307 -0.021528 -0.031064 
-0.027282 0.0075736 0.02122 0.054432 -0.001798 -0.0075525 -0.021199 -0.0054151 
0.035853 0.068407 0.05065 0.077614 0.0026412 0.047362 0.02533 0.014643 
0.10063 0.10606 0.057555 0.090603 0.019411 0.068736 0.041114 0.10869 
0.14848 0.078765 0.057227 0.094713 0.027796 0.085177 0.058542 0.12118 
0.15768 0.085177 0.034209 0.075312 0.036675 0.036017 0.022535 0.078765 
0.13467 0.067256 0.047691 0.075148 0.043251 0.0024767 -0.01117 0.057884 
0.051143 0.018754 0.050321 0.077121 0.043745 0.016123 0.0069159 0.020398 
-0.010183 0.033387 0.026974 0.075805 0.024673 0.030756 0.011684 0.025001 
-0.015116 0.009711 0.0011614 0.087972 0.021878 0.013986 -0.0022913 0.039634 
-0.009361 0.061008 0.044731 0.085835 0.023193 0.0018191 0.011026 0.041278 
0.0034632 0.099316 0.081067 0.11214 0.030592 0.0041209 -0.010676 0.040456 
0.063145 0.10491 0.079094 0.1225 0.036017 -0.010183 -0.029584 0.041607 
0.079094 0.10737 0.055418 0.10474 0.044402 0.013657 -0.0080457 0.032236 
0.023851 0.14321 0.027796 0.080244 0.035853 0.00066819 -0.010183 0.048677 
0.049006 0.019576 -0.0082102 0.056076 0.024837 -0.021856 -0.032543 0.030592 
0.047033 0.090931 0.044567 0.044238 0.049006 0.027961 0.0046141 0.0421 
0.087314 0.0689 0.051636 0.058213 0.023686 0.0016547 -0.012649 0.024344 
0.13779 0.11773 0.0786 0.095042 0.019905 0.040621 0.0087245 0.041114 
0.14946 0.14469 0.063639 0.11461 0.023522 0.061995 0.024344 0.058706 
0.13269 0.11905 0.047526 0.11181 0.010369 0.05772 0.028125 0.091096 
0.042265 0.034044 0.044896 0.1003 0.055582 0.04654 0.024179 0.028783 
-0.1358 -0.14221 0.0036276 0.06742 0.040785 0.04358 0.012835 -0.060165 
-0.24743 -0.14895 -0.011827 0.04358 0.019576 0.026317 0.0052718 -0.073154 
-0.22063 0.0085601 0.01267 0.054432 0.030427 0.037332 0.028125 -0.022843 
-0.028926 0.14946 0.067091 0.088465 0.061501 0.055089 0.043416 0.06742 
0.17593 0.16804 0.087479 0.11362 0.04506 0.057555 0.038812 0.10162 
0.14683 0.12381 0.013164 0.061008 0.029934 0.014479 0.014479 0.018096 
0.039634 -0.016431 -0.014129 0.025166 0.0031344 -0.020541 -0.029748 -0.021856 
0.016123 -0.096829 -0.042573 0.0065871 0.041114 -0.027118 -0.042244 -0.0032777 
0.068736 -0.048656 -0.0047575 0.036017 0.01415 -0.051944 -0.060165 0.013986 
-0.0019624 0.0090533 0.0065871 0.073832 -0.00097594 -0.066413 -0.079072 -0.0014692 
-0.056712 0.028125 0.020233 0.069064 -0.0091966 -0.0075525 -0.042901 -0.0091966 
-0.072332 0.03947 0.0065871 0.059035 0.026646 0.036017 -0.011827 0.0014903 
0.054103 0.077449 0.049335 0.08419 0.036839 0.037332 0.0065871 0.072353 
0.13927 0.12447 0.073668 0.10704 0.057391 0.053609 0.029276 0.13171 
0.096357 0.076956 0.077449 0.11181 0.051965 0.070051 0.035688 0.12135 
0.081395 0.08156 0.060186 0.10277 0.054432 0.051143 0.02533 0.10359 
0.082382 0.1077 0.066927 0.093891 0.044402 0.036017 0.028619 0.058871 
0.051143 0.065118 0.045224 0.080738 0.020233 0.016616 -0.0044286 -0.015116 
0.005765 0.0052718 0.014972 0.05476 -0.0036066 -0.051944 -0.055232 -0.05326 
0.02681 0.022206 0.0059294 0.053281 0.023193 -0.038462 -0.041422 -0.043066 
0.0032988 0.013164 0.0052718 0.081724 0.040292 0.010533 -0.02942 -0.044546 
-0.039942 0.037332 0.017274 0.071366 0.053445 0.00297 -0.022021 -0.054904 
-0.017746 0.032893 0.028947 0.072353 0.025495 0.041772 0.015465 -0.0040998 
0.0054362 0.048841 0.027139 0.070215 0.020233 0.018589 0.0041209 0.04358 
-0.057534 0.030756 0.017438 0.062981 0.01004 0.0052718 -0.0070593 0.068407 
-0.050958 0.0085601 0.023686 0.064296 0.020069 0.051636 0.0092177 0.03388 
-0.021363 -0.0032777 0.0021479 0.049828 0.0083956 0.066269 0.022535 0.042758 
-0.00015387 0.019083 0.005765 0.047362 0.018096 0.042594 0.02533 0.074654 
0.04095 0.028947 0.048184 0.064954 0.050979 0.05772 0.0324 0.11888 
0.082546 0.094877 0.10507 0.10935 0.043745 0.035031 0.015301 0.074654 
0.12184 0.14519 0.11329 0.14371 0.025001 0.0014903 -0.0039354 0.035853 
0.1784 0.17018 0.06479 0.14256 0.024015 0.03388 0.00083261 0.028125 
0.19533 0.083368 0.012506 0.079094 0.040785 0.043251 0.015137 0.1442 
0.14634 -0.018404 -0.040928 0.032236 0.036839 0.01152 0.013164 0.096357 
-0.035338 -0.13316 -0.054082 0.0021479 0.091918 0.011355 0.0031344 -0.0040998 
-0.15964 -0.022843 0.051308 0.059857 0.066269 0.033387 0.0065871 -0.06 
-0.16144 0.0075736 0.025495 0.057884 0.068078 0.011848 0.00297 -0.16079 
-0.2111 -0.10571 -0.046519 0.012013 -0.030242 -0.076606 -0.075455 -0.21734 
-0.14402 -0.10143 -0.082361 -0.023829 -0.046683 -0.14171 -0.12297 -0.037805 
0.066105 0.025659 0.0082312 0.018425 -0.030406 -0.082854 -0.094199 0.14223 
0.17626 0.13598 0.08715 0.074326 0.011848 0.028619 -0.033037 0.16574 
0.045224 0.091918 0.07301 0.10343 0.022042 0.064461 0.015465 0.040128 
0.011026 0.10359 0.061172 0.14174 0.03388 0.09274 0.04917 0.0031344 
0.14634 0.14519 0.063639 0.12053 0.055089 0.10622 0.07301 0.050321 
0.22164 0.1345 0.075641 0.11822 0.064625 0.12151 0.094548 0.10096 
0.18152 0.12266 0.044402 0.098494 0.065612 0.094548 0.073997 0.087808 
0.061666 0.057555 0.016123 0.065118 0.056733 0.08567 0.06479 0.10343 
-0.017253 -0.037969 -0.01676 0.042429 0.065283 0.14453 0.1077 0.1248 
-0.024323 -0.031886 -0.008539 0.03651 0.081724 0.15966 0.12431 0.11559 
0.009711 -0.014293 0.017767 0.042758 0.087314 0.015794 0.038977 0.094384 
-0.0004827 -0.011498 0.03092 0.048019 0.019411 -0.033859 -0.017417 -0.042244 
-0.079401 0.037168 0.047526 0.049499 -0.036818 -0.013965 -0.041422 -0.18939 
-0.032215 0.090274 0.062488 0.098659 -0.037147 -0.0029489 -0.022679 -0.046519 
0.041772 0.11017 0.047855 0.10359 -0.039284 -0.081374 -0.058685 0.10606 
0.085012 0.10326 0.030263 0.08567 -0.019061 -0.10275 -0.10406 0.1174 
0.14371 0.090931 0.046211 0.089123 0.010204 -0.052437 -0.085649 0.08567 
0.15275 0.11576 0.055911 0.098823 0.075641 0.05624 -0.0054151 0.041936 
0.16196 0.095864 0.066927 0.10967 0.093562 0.0592 0.023357 0.01152 
0.11855 0.098823 0.053445 0.099645 0.072517 0.043416 0.022535 -0.0078813 
0.01415 0.025495 -0.00081153 0.052952 0.036839 0.038648 0.018918 -0.0036066 
-0.10752 -0.035338 -0.0019624 0.035031 0.010369 -0.0024557 -0.012156 -0.021692 
-0.098638 -0.053588 0.014972 0.025824 0.0070803 -0.035503 -0.036983 -0.00097594 
-0.055068 -0.087951 -0.0032777 0.032564 -0.014293 0.025495 -0.010841 0.015465 
-0.025638 -0.045861 -0.019226 0.049006 -0.0087034 0.035031 0.0070803 0.020069 
0.036839 0.12809 0.051636 0.10014 -0.0011404 0.056076 0.031907 0.014972 
0.17708 0.21786 0.08304 0.11954 0.035524 0.090109 0.042758 0.063145 
0.2098 0.075641 0.010862 0.078436 0.02533 0.082875 0.053445 0.048348 
0.11362 -0.011005 -0.029748 0.038155 0.033551 0.06035 0.058049 0.032893 
-0.13744 -0.086964 -0.039284 0.018918 0.018918 0.029112 0.018589 -0.020212 
-0.26765 -0.10768 -0.0047575 0.025824 0.031414 0.0085601 -0.0021268 -0.0087034 
-0.18824 -0.0064016 0.030756 0.047691 0.037332 0.0072447 1.0539e-005 0.033551 
-0.038462 0.086492 0.06183 0.071695 0.011355 0.0044497 -0.016266 0.034044 
0.12529 0.14848 0.084026 0.092247 -0.0040998 -0.011005 -0.025145 0.11724 
0.24926 0.16377 0.093562 0.1197 0.014972 0.021713 -0.0031133 0.11543 
0.22312 0.12792 0.035195 0.12891 0.082053 0.025824 0.0036276 0.094877 
0.073504 0.030427 -0.0039354 0.082875 -0.0034422 0.00017495 -0.01232 0.014972 
-0.046354 -0.05737 -0.006566 0.052294 -0.0032777 0.023357 -0.01117 -0.018733 
-0.080881 0.017603 0.019411 0.063803 0.03651 0.02681 -0.003771 0.00033937 
0.021878 0.097344 0.030263 0.072188 0.022535 0.025988 -0.00064712 0.015794 
0.097508 0.06331 0.035524 0.070544 0.040292 0.038483 0.0019835 0.040621 
0.11806 0.021549 0.040128 0.071202 0.02122 -0.019061 -0.027282 0.013164 
0.028619 0.041607 0.02122 0.057555 0.017767 -0.035338 -0.03501 -0.046683 
-0.015773 0.054267 0.068078 0.073832 0.024344 -0.038133 -0.054904 -0.080059 
-0.006566 0.089616 0.075312 0.090603 0.042758 -0.033859 -0.056219 -0.089266 
0.026317 0.083204 0.060022 0.10852 0.058706 0.015301 -0.014129 0.015137 
0.0042853 0.033551 0.032729 0.11214 -0.0022913 0.031578 -0.00097594 0.074819 
0.014972 0.03388 0.0072447 0.079094 0.028783 0.041772 0.012999 0.081067 
-0.012485 0.0046141 0.0014903 0.059528 0.011848 0.039963 0.023028 0.066927 
0.032564 0.0085601 -0.0087034 0.039141 0.034044 0.024837 0.0072447 0.024837 
0.055747 0.019411 -0.021199 0.026481 0.02122 0.01267 -0.0034422 0.037661 
0.071366 0.046704 0.0039565 0.043087 0.0085601 0.037004 0.0065871 0.065612 
0.10918 0.095699 0.044402 0.071366 0.009711 0.054432 0.023193 0.079422 
0.084026 0.10869 0.076956 0.096028 0.023522 0.074161 0.042265 0.087808 
0.029769 0.030427 0.053938 0.086657 0.03799 0.056404 0.031742 0.048184 
0.023686 0.030756 0.069229 0.092411 0.048513 0.005765 -0.0049219 -0.0073881 
0.03799 0.053281 0.069722 0.10556 0.042265 0.022864 0.00297 0.01415 
0.1202 0.080244 0.034537 0.11033 0.023851 0.074983 0.029934 0.072188 
0.12595 0.055254 -0.0087034 0.069064 0.045224 0.048184 0.036182 0.066763 
0.033387 0.024673 0.013492 0.06331 0.034702 0.036017 0.038155 0.028454 
-0.033037 0.072681 0.00017495 0.054267 0.028454 0.030427 0.010862 -0.0029489 
-0.066248 0.066105 0.0011614 0.04654 0.0324 -0.0057439 -0.016924 -0.034681 
-0.059672 0.035853 0.017932 0.063803 0.055089 -0.038462 -0.032543 -0.055397 
-0.016266 -0.0062372 0.036675 0.071202 0.049006 -0.071345 -0.079237 -0.052602 
-0.0019624 0.0082312 0.044238 0.074819 0.028125 -0.027282 -0.051122 -0.0072237 
0.037497 0.10129 0.059528 0.081889 0.039305 0.046046 0.0092177 0.10228 
0.090767 0.16377 0.087972 0.10408 0.05772 0.080573 0.03651 0.13894 
0.10376 0.063639 0.084355 0.11165 0.033551 0.068571 0.041772 0.097015 
0.068407 -0.014622 0.015137 0.10359 0.026481 0.053938 0.024837 0.073175 
0.051308 -0.010676 -0.01117 0.070708 0.0062583 0.053445 0.025001 0.042758 
0.061172 -0.01676 -0.0021268 0.049992 0.015301 0.065283 0.038483 0.05476 
0.066927 0.024673 -0.0095255 0.042594 0.038155 0.070215 0.037497 0.043416 
0.034866 0.050814 0.0098754 0.050486 0.042265 0.037826 0.010369 -0.040928 
-0.022021 0.025001 0.012999 0.049828 0.019411 0.0036276 -0.004593 -0.042573 
-0.03205 0.051965 0.019411 0.067091 0.01415 0.023522 -0.0042642 0.017438 
0.020891 0.048348 0.045882 0.067913 0.012835 -0.0064016 -0.021034 0.061172 
0.082217 0.082875 0.088136 0.097015 -0.0055795 0.0088889 -0.0044286 0.081724 
0.10491 0.11066 0.091425 0.11066 0.037661 0.025988 -0.0029489 0.083697 
0.11592 0.11083 0.10754 0.13516 0.072681 0.037332 0.0079024 0.064132 
0.091096 0.17133 0.10063 0.1636 0.088958 0.017932 0.015137 0.067256 
0.049828 0.12809 0.079587 0.14815 0.066434 0.03388 0.011026 0.053609 
-0.025802 -0.049807 -0.029091 0.062981 0.0047785 -0.009361 -0.014458 -0.011005 
-0.13563 -0.1307 -0.065097 0.0072447 -0.0060728 -0.0138 -0.033037 -0.047669 
-0.15816 -0.05441 -0.080552 -0.020377 0.00033937 0.004943 -0.015773 -0.010512 
-0.033037 0.014972 -0.021528 0.0085601 0.0016547 0.015794 -0.0054151 0.024015 
0.088136 0.082053 0.021056 0.037332 0.022864 0.036017 0.0052718 0.064954 
0.1955 0.10293 0.084355 0.086821 0.043909 0.020398 -0.0016336 0.095206 
0.17149 0.10063 0.082217 0.097179 0.031578 0.015137 -0.0039354 0.087479 
0.082546 0.10754 0.092247 0.11033 0.045389 0.012506 -0.013143 0.056569 
0.009711 0.1003 0.064132 0.10885 0.03651 0.016288 -0.0068948 0.021056 
-0.068879 0.0082312 0.0093821 0.09833 0.010204 -0.0078813 -0.019719 -0.057205 
-0.094034 -0.026789 -0.042573 0.041114 -0.015116 0.023193 0.00083261 -0.060494 
-0.030406 0.0067515 -0.030899 0.024179 -0.0021268 0.016781 -0.0019624 -0.044381 
0.017767 0.030098 -0.011663 0.030592 0.027961 0.0227 0.023851 0.0064227 
-0.013143 -0.010348 0.0028056 0.039305 0.028454 0.061501 0.032564 0.038812 
-0.034188 0.0013258 0.0088889 0.047526 0.032729 0.019411 0.012342 0.02533 
0.01974 0.063803 0.038155 0.068736 0.039799 0.023028 0.015794 0.029934 
0.09685 0.067913 0.066598 0.086657 0.059857 0.061008 0.02122 0.055747 
0.14535 0.074983 0.063803 0.087314 0.041443 0.037661 0.018754 0.095042 
0.10967 0.075148 0.084519 0.098494 0.037004 0.063639 0.035853 0.14272 
0.049664 0.08863 0.067749 0.10935 0.026974 0.040292 0.020398 0.074819 
-0.003771 0.068078 0.049335 0.12842 0.028454 -0.01117 -0.019226 -0.06707 
-0.095349 0.05065 0.050321 0.10918 0.019083 -0.021692 -0.03912 -0.084991 
-0.060329 0.062981 0.025001 0.082382 -0.00064712 -0.010841 -0.034188 -0.010019 
0.041443 0.0036276 -0.025309 0.039305 -0.026624 -0.050464 -0.054246 0.028619 
0.10359 -0.09091 -0.0503 0.01004 -0.014129 -0.11311 -0.11261 0.025001 
0.13483 -0.045696 -0.025802 0.021549 0.013657 -0.057863 -0.085485 0.0023123 
0.093398 0.070873 0.029441 0.055747 0.055089 0.056733 0.012013 -0.029255 
0.021384 0.092411 0.067913 0.095042 0.041607 0.077778 0.044567 0.019411 
-0.063618 0.08715 0.05476 0.082546 0.034537 0.03947 0.029605 0.093398 
-0.07825 0.051965 0.039141 0.086821 0.019905 0.004943 0.021056 0.07597 
-0.051451 0.026481 0.029276 0.090931 0.031414 0.026152 0.0028056 0.0046141 
0.0060938 0.069393 0.050321 0.1202 0.030756 0.042594 0.016452 -0.02235 
0.072846 0.082711 0.06742 0.11559 0.02533 0.052294 0.044567 0.0023123 
0.08156 0.077943 0.0592 0.10441 -0.0087034 0.058542 0.046375 -0.01528 
0.095371 0.069393 0.015959 0.076956 0.011191 0.068571 0.048841 0.035688 
0.1544 0.029769 0.013164 0.06331 0.01415 0.072188 0.046868 0.063145 
0.11954 0.054432 0.022864 0.066763 0.05213 0.074819 0.04917 0.069229 
0.086985 0.028947 0.047197 0.072353 0.064461 0.073668 0.054925 0.079422 
0.021713 -0.012649 0.026974 0.060186 0.048348 0.069558 0.047526 0.050157 
-0.039613 0.0087245 0.047033 0.060186 -0.0068948 0.012177 0.0060938 0.022042 
0.04506 0.062652 0.067913 0.085506 0.0064227 -0.062138 -0.051615 0.037497 
0.12053 0.090438 0.06331 0.11806 0.0064227 -0.047341 -0.064604 0.10458 
0.025166 0.074983 0.04506 0.12464 0.007738 -0.047012 -0.070687 0.090438 
-0.032708 0.020562 -0.011498 0.065447 -0.0077169 -0.03616 -0.041915 -0.029255 
-0.014129 0.07301 -0.030735 0.034209 0.0060938 0.0095465 -0.026624 -0.034023 
-0.028597 -0.00097594 -0.033859 0.019576 0.02533 0.019905 -0.0067304 -0.0027845 
-0.015444 -0.027447 0.0079024 0.036839 0.03388 0.017603 0.012999 0.020069 
-0.02087 0.00297 0.051636 0.074161 0.052952 0.037004 0.009711 0.012835 
-0.04471 -0.046354 0.043251 0.060515 0.06183 0.021713 0.0041209 0.0026412 
-0.049314 -0.0083746 0.048184 0.074161 0.037661 0.037168 0.013657 0.054596 
0.067913 0.14552 0.086821 0.097672 0.028125 0.016452 0.0065871 0.070708 
0.19501 0.25304 0.12908 0.13516 0.034537 0.039963 0.017274 0.10556 
0.44278 0.28445 0.079916 0.15193 0.028454 0.049992 0.030427 0.16623 
0.48388 0.22444 -0.0054151 0.10458 0.020727 0.043087 0.020562 0.13121 
0.019576 -0.16062 -0.12511 -0.014293 -0.017253 0.0032988 -0.01117 -0.080059 
-0.45098 -0.37798 -0.13514 -0.06 0.0044497 0.024837 -0.0096899 -0.17789 
-0.46495 -0.21044 0.010697 0.016781 0.073832 0.047362 0.015794 -0.095349 
-0.21143 0.032893 0.11148 0.10228 0.055747 0.046868 0.030756 0.012999 
0.033222 0.18054 0.098659 0.12151 0.032564 0.029605 0.014808 0.066598 
0.1442 0.16311 0.047362 0.097179 0.0070803 0.0082312 -0.0055795 0.074654 
0.16607 0.076299 0.023686 0.060679 0.017438 0.026481 0.020398 0.070544 
0.15489 0.041278 0.026646 0.056569 0.040785 0.067091 0.034537 0.063639 
0.19665 0.11231 0.07449 0.085506 0.097344 0.096357 0.062488 0.079094 
0.18333 0.17018 0.092576 0.1294 0.079258 0.081231 0.069229 0.07301 
0.075805 0.10178 0.063474 0.12825 0.064132 0.067913 0.054267 0.045882 
-0.070687 0.009711 0.0056006 0.076956 0.04358 0.0088889 0.007738 0.011026 
-0.054739 0.01004 0.0014903 0.058377 0.028619 -0.038133 -0.041257 -0.03912 
0.0019835 0.015137 -0.022843 0.035195 -0.0077169 -0.077428 -0.07973 -0.029913 
0.064461 0.011026 -0.011334 0.029769 -0.0098543 -0.073482 -0.084334 0.017767 
0.03799 0.0082312 -0.01117 0.030592 0.0062583 -0.00031829 -0.040928 0.061337 
-0.0029489 0.00017495 -0.0031133 0.03536 -0.0054151 0.024015 -0.013965 0.076463 
-0.074633 -0.013143 0.00099702 0.025659 0.0065871 0.03388 0.0088889 0.058049 
-0.067892 -0.047012 0.0080668 0.032564 0.032564 0.060186 0.026646 0.039963 
0.045389 -0.0050863 0.06331 0.07597 0.051143 0.029934 0.007738 -0.016924 
0.049006 0.10836 0.066434 0.11559 0.062981 0.04917 0.036017 -0.010183 
0.026152 0.10688 0.055911 0.13927 0.063968 0.065283 0.036182 0.01563 
0.07038 0.1179 0.076463 0.12727 0.084355 0.055418 0.035524 0.021549 
0.09274 0.11115 0.042758 0.10211 0.061337 0.056404 0.041772 0.011191 
0.014643 -0.0021268 -0.01676 0.055254 0.016452 0.019576 0.0088889 -0.0078813 
-0.031228 0.010204 -0.01232 0.028947 -0.0044286 0.02829 0.012342 0.021549 
-0.02235 0.099481 0.050486 0.070708 0.013492 0.027139 0.018096 0.059364 
0.069064 0.095042 0.087643 0.10129 0.038319 0.049335 0.031742 0.095535 
0.11428 -0.024652 0.011848 0.060844 0.027632 0.024015 0.01152 0.075805 
0.034702 -0.1455 -0.016595 0.02681 0.018754 0.015794 0.0064227 0.00050378 
-0.0055795 -0.0080457 0.042758 0.061008 0.028947 0.01711 -0.0055795 -0.011992 
-0.015773 0.080902 0.03651 0.088794 0.019247 0.016781 -0.0070593 -0.061645 
-0.00031829 0.052952 0.029769 0.10589 0.01711 0.0095465 -0.016266 -0.13152 
0.0044497 0.042265 0.036182 0.088794 -0.0016336 -0.016595 -0.036818 -0.12478 
-0.11475 -0.00031829 -0.00097594 0.06035 -0.0047575 -0.029584 -0.037476 -0.10143 
0.0047785 0.0060938 -0.017911 0.038648 0.019083 -0.035667 -0.055726 -0.026953 
0.25156 0.11559 0.016781 0.055418 0.048348 -0.055232 -0.066906 0.097837 
0.30089 0.12398 0.076134 0.096357 0.063639 -0.026296 -0.033694 0.13319 
1.0539e-005 0.014479 0.06183 0.094548 0.061172 0.092576 0.023851 0.13927 
-0.19531 -0.014129 0.032893 0.073668 0.046704 0.13187 0.08419 0.1276 
-0.070687 0.02122 0.048184 0.070215 0.016945 0.14305 0.10984 0.15505 
0.11017 0.053116 0.05624 0.082711 0.019411 0.082711 0.072681 0.13335 
0.16985 0.10836 0.068736 0.10852 0.043745 0.033222 0.036675 0.0786 
0.14864 0.064625 0.038812 0.12036 0.023193 0.017274 0.00297 0.0064227 
-0.018075 0.0070803 0.0079024 0.071695 -0.0021268 -0.0054151 -0.013636 -0.043559 
-0.084663 0.038648 0.017274 0.064954 0.0051074 -0.0011404 -0.01528 -0.059836 
-0.042079 0.096521 0.032893 0.073832 0.028454 0.034866 0.0085601 -0.059178 
-0.042901 0.1008 0.068736 0.093726 0.034044 0.033551 0.0092177 -0.060165 
-0.049478 0.057391 0.06183 0.10195 0.01826 0.025166 0.0072447 -0.035338 
-0.018239 0.00099702 0.037826 0.083204 0.0034632 0.04506 0.01415 -0.010512 
0.063474 0.044896 0.037168 0.071859 0.03799 0.0041209 -0.0059084 0.01826 
0.11543 0.063968 0.038155 0.067913 0.03799 -0.012156 -0.016266 0.072846 
0.12332 0.062323 0.037826 0.068736 0.025824 -0.023994 -0.047669 0.037004 
0.1248 0.047855 0.010204 0.085341 0.029441 -0.025638 -0.048985 0.047033 
0.075148 0.06331 0.0060938 0.070708 0.031249 0.026646 -0.0042642 0.041114 
0.070544 0.092082 0.021549 0.069229 0.0067515 0.071202 0.026152 0.053938 
0.064132 0.065447 0.045224 0.082875 0.013986 0.042429 0.022535 0.0786 
0.010697 -0.041751 0.012506 0.063803 0.0090533 0.031414 0.024344 0.067913 
-0.010676 -0.047998 -0.0057439 0.0421 0.039141 0.072517 0.026974 0.06479 
0.016123 0.056569 0.028125 0.060679 -0.0014692 0.026152 0.012177 0.053938 
0.052294 0.10507 0.030592 0.063803 0.021384 0.020891 0.0080668 -0.01528 
0.05624 0.10639 0.033551 0.066105 0.061666 0.013986 -0.0016336 -0.012649 
0.084355 0.081231 0.094384 0.10063 0.082546 0.017274 0.0021479 0.00017495 
-0.0011404 0.0092177 0.066763 0.10836 0.076463 0.036346 0.0013258 0.043416 
-0.045368 -0.0049219 0.022042 0.10556 0.032729 0.02681 0.0041209 0.043416 
-0.0503 0.012835 -0.0016336 0.0689 0.019411 0.0324 0.0070803 0.015301 
0.015959 0.08863 0.01152 0.061008 0.018589 0.03799 0.010862 0.018425 
0.090438 0.076792 0.026646 0.068736 0.02122 0.01974 0.0098754 0.042265 
0.1248 0.064625 0.027961 0.070544 -0.003771 0.015794 0.015301 0.064461 
0.094548 0.097508 0.024673 0.06183 -0.0029489 0.024015 0.0046141 0.06035 
0.095206 0.059857 0.027632 0.067913 0.011848 0.011848 -0.0042642 0.058871 
0.072681 0.0072447 0.049828 0.070544 0.03388 0.0044497 0.011355 0.044238 
0.11724 0.043909 0.060186 0.077943 0.036017 0.031249 0.0065871 0.076792 
0.1927 0.11066 0.087479 0.091753 0.030263 -0.0036066 -0.018404 0.10441 
0.088958 0.10803 0.062488 0.10573 0.023193 0.015959 -0.0070593 0.062323 
-0.038462 0.018589 -0.029913 0.078765 0.02681 0.02122 -0.014951 0.0065871 
-0.006566 0.066105 0.028619 0.077778 0.041936 0.028783 0.0021479 0.045389 
-0.0054151 0.12497 0.051472 0.094055 0.062488 0.071859 0.03388 0.094877 
-0.09798 -0.033037 -0.019555 0.050486 0.047197 0.046046 0.022535 0.038977 
-0.078908 -0.12873 -0.09239 -0.016266 0.00066819 0.0067515 -0.001798 -0.0090322 
-0.025145 -0.084991 -0.072003 -0.028433 -0.025638 -0.0087034 -0.028104 -0.059343 
0.00099702 0.00297 -0.0042642 0.01826 -0.041422 -0.048163 -0.06148 -0.065755 
0.0028056 0.099481 0.093398 0.085177 0.018589 -0.0138 -0.037476 0.017438 
0.0036276 0.11625 0.10754 0.11526 0.055911 0.023357 -0.011992 0.052623 
0.053281 0.10458 0.10606 0.12398 0.059035 0.019083 -0.0087034 0.053445 
0.11724 0.11707 0.071202 0.12464 0.072517 0.022206 0.016781 0.053938 
0.091096 0.08419 0.029769 0.12053 0.10293 0.041772 0.011355 0.0098754 
0.049992 0.052787 -0.0019624 0.071366 0.056898 0.053938 0.024673 -0.028597 
0.057227 0.049499 -0.013143 0.050321 0.049664 0.064132 0.045224 -0.00097594 
0.070051 0.077778 0.037661 0.067256 0.023357 0.023851 0.013657 0.053116 
0.11214 0.14453 0.0592 0.088301 0.031414 0.0037921 -0.0036066 0.10129 
0.1419 0.086163 0.045224 0.088465 0.037332 0.019905 0.0011614 0.14502 
0.12398 0.018918 0.030592 0.079587 0.019576 -0.051122 -0.051287 0.15505 
0.079094 0.03947 0.013986 0.054925 -0.0011404 -0.06855 -0.075949 0.14502 
-0.047998 -0.060329 -0.015116 0.029769 -0.0098543 0.016288 -0.03764 0.10277 
-0.10801 -0.087293 0.0013258 0.034537 0.01563 0.047033 0.0018191 0.039305 
-0.050464 0.0059294 0.067749 0.083368 0.052294 0.0227 0.00050378 -0.070523 
-0.042573 -0.013636 0.050486 0.11461 0.060515 0.071366 0.019905 -0.12396 
-0.096336 -0.11705 -0.011005 0.06742 0.046868 0.046211 0.023357 -0.11738 
-0.077428 -0.029748 -0.0026201 0.049664 0.040785 0.042923 0.029441 -0.051451 
-0.057041 0.022371 -0.0031133 0.048513 0.057227 -0.057699 -0.04471 -0.10423 
-0.022185 0.062323 -0.011005 0.035195 -0.022021 -0.10735 -0.10571 -0.1552 
0.10672 0.047855 0.037004 0.065118 0.011848 -0.036489 -0.067399 -0.0075525 
0.085506 0.023851 0.021549 0.062652 0.025001 0.051965 -0.0039354 0.12776 
-0.028926 0.064625 0.05476 0.085177 0.031907 0.090931 0.049664 0.1784 
-0.018568 0.097508 0.079422 0.10195 0.031085 0.079587 0.062159 0.17708 
-0.0032777 0.04095 0.044731 0.077943 0.019905 0.067256 0.041114 0.0786 
-0.010512 -0.01117 -0.0059084 0.051636 -0.008539 0.04654 0.026152 -0.013471 
0.043087 0.0065871 -0.0027845 0.068407 -0.014951 0.051965 0.025001 -0.064768 
0.085177 0.060515 0.024179 0.077449 0.0075736 0.010369 0.0019835 0.007738 
0.028454 0.044073 0.027468 0.074654 0.065118 0.0036276 -0.0064016 0.044238 
0.0074092 0.048841 0.037168 0.078929 0.077449 0.020233 -0.0036066 0.0013258 
0.048019 0.077778 0.038812 0.079751 0.071531 0.0060938 -0.017582 -0.034681 
0.070544 0.067913 0.030427 0.06742 0.065283 0.00099702 -0.017582 0.0021479 
0.093891 0.077614 0.043745 0.080573 0.053609 0.033551 0.0011614 0.046375 
0.022535 0.058049 0.042265 0.078272 0.021549 0.012835 -0.013471 0.059528 
0.00066819 0.012835 0.033058 0.064954 0.02681 0.024837 0.014643 0.033058 
-0.0077169 -0.017088 0.067913 0.087643 0.028783 0.062817 0.017438 0.058542 
-0.049971 -0.04323 0.020233 0.075312 -0.001798 0.01974 0.0044497 0.023522 
-0.050793 -0.031886 -0.013965 0.085999 -0.010348 0.016781 0.0087245 0.023686 
0.01004 0.055582 0.044238 0.090603 -0.017253 0.022864 0.00083261 0.032729 
0.1271 0.15801 0.072517 0.10622 0.020398 0.044896 0.016288 0.051308 
0.20471 0.13894 0.069393 0.11017 0.048841 0.070708 0.044073 0.064132 
0.069229 0.055747 0.01415 0.076627 0.069393 0.064625 0.042758 0.017274 
-0.12018 -0.048492 -0.0503 0.020891 0.019905 0.043087 0.025659 -0.095514 
-0.14352 -0.051451 -0.034352 0.014315 0.010204 0.073175 0.042923 -0.10653 
-0.02646 0.045882 0.042429 0.052787 0.025495 0.072681 0.047526 -0.048327 
0.089452 0.10803 0.069886 0.080738 0.047197 0.096357 0.067585 0.057062 
0.071202 0.12003 0.083533 0.1008 0.049006 0.082382 0.057884 0.090109 
0.052952 0.12562 0.10195 0.13631 0.023357 -0.018897 -0.012156 0.079422 
0.049335 0.18662 0.064296 0.14864 0.0093821 -0.14171 -0.11294 0.04506 
0.11625 0.15538 0.04095 0.11132 -0.0029489 -0.10653 -0.12593 0.086492 
0.15949 -0.043559 -0.015116 0.056404 -0.0021268 -0.017582 -0.065097 0.20388 
0.071202 -0.10768 -0.013965 0.044073 0.0042853 0.051143 0.016781 0.27146 
0.041443 0.050814 0.039634 0.069393 0.029769 0.052294 0.015137 0.17297 
0.034044 0.13861 0.059857 0.087808 0.037004 0.020069 -0.0031133 -0.078415 
0.044896 0.15308 0.055418 0.082546 0.03092 0.013821 -0.0067304 -0.25812 
-0.0070593 0.014479 0.029276 0.064954 0.036675 0.033715 0.0082312 -0.11376 
-0.072496 -0.022185 0.045718 0.073668 0.038155 0.048841 0.029276 0.03799 
0.0070803 0.031249 0.044731 0.083533 0.046704 0.090931 0.06331 0.094384 
0.095206 0.081724 0.0036276 0.096521 0.091753 0.04358 0.035031 0.075312 
0.067585 0.068242 0.02533 0.1026 0.037004 0.00099702 -0.0024557 0.026646 
0.050486 0.083862 0.0046141 0.069722 0.0023123 0.018425 -0.021363 -0.021856 
0.053938 0.091096 0.025495 0.07301 -0.0062372 0.0026412 -0.018733 0.0031344 
0.058542 0.035853 0.00050378 0.051636 -0.0075525 -0.038791 -0.046519 0.0227 
0.028783 -0.013143 -0.040928 0.017932 -0.0036066 -0.016266 -0.046683 0.044402 
-0.008539 -0.03205 -0.030077 0.016781 0.023686 -0.069701 -0.077593 0.035195 
0.0087245 0.098988 0.042758 0.054432 0.072353 -0.04619 -0.066906 0.044238 
0.057555 0.11691 0.10113 0.1008 0.10803 0.058049 -0.0011404 0.088465 
-0.00015387 0.053116 0.073339 0.096028 0.05772 0.061501 0.024837 0.046868 
0.028125 0.053609 0.058049 0.09126 0.019411 0.053281 0.046704 0.023522 
0.13795 0.051965 0.059857 0.11214 1.0539e-005 0.020891 0.0065871 0.096193 
0.19057 0.068407 0.022864 0.10458 0.00050378 -0.0022913 -0.014129 0.14519 
0.15801 0.10951 0.023193 0.08156 -0.0042642 0.047197 0.022864 0.14058 
0.026317 0.096686 0.01711 0.068407 -0.015609 0.065612 0.032071 0.075641 
0.012506 0.073339 0.016616 0.061008 -0.0047575 0.048513 0.025659 0.068571 
0.052459 -0.060329 -0.008539 0.043745 0.014643 0.020891 0.0080668 -0.0068948 
-0.062796 -0.1307 -0.025802 0.029276 0.013164 -0.00031829 -0.014951 -0.028597 
-0.23855 -0.073976 -0.025474 0.017274 0.016781 -0.014787 -0.027282 -0.078415 
-0.17591 0.053116 0.05624 0.059035 0.028619 -0.028269 -0.034188 -0.014951 
0.093233 0.15653 0.13598 0.1248 0.053774 -0.043559 -0.053917 0.01415 
0.18826 0.19385 0.10935 0.13039 0.068242 -0.040106 -0.059507 0.016123 
0.14765 0.064132 -0.00031829 0.087314 0.031249 -0.043888 -0.068057 0.024837 
0.18974 0.0032988 -0.018733 0.070215 0.028619 0.013164 -0.030406 0.078765 
0.088136 -0.016102 -0.011005 0.045882 0.03388 0.076463 0.03947 0.090109 
-0.015116 -0.0011404 0.020398 0.056898 0.05065 0.09833 0.059035 0.086492 
-0.056055 0.0026412 0.012013 0.057555 0.03388 0.044238 0.029769 0.0024767 
-0.055397 -0.014129 0.027961 0.061501 -0.014458 -0.01117 0.0056006 -0.042573 
-0.098144 -0.015609 0.012013 0.054103 -0.010019 -0.014458 -0.026624 -0.0965 
-0.048163 0.059364 0.0079024 0.048019 -0.022843 0.024015 -0.0022913 -0.056877 
0.068407 0.027796 0.024673 0.052623 0.0046141 0.072846 0.045882 0.050814 
0.077449 0.041936 0.094713 0.093233 0.049992 0.09126 0.069393 0.1276 
0.063145 0.069886 0.072681 0.095206 0.07038 0.069393 0.054267 0.092082 
0.068407 0.048019 0.0324 0.097344 0.052787 0.069229 0.044402 0.062488 
0.057391 0.057391 0.020727 0.098988 0.069393 0.031742 0.018096 0.027468 
-0.021199 -0.0059084 -0.010019 0.0592 0.023357 0.022864 0.0083956 0.011191 
-0.035832 0.0013258 -0.0027845 0.04917 0.0021479 0.023357 0.0028056 0.011848 
0.012342 0.10195 0.030427 0.061995 0.0051074 0.0032988 -0.012978 0.022535 
0.066927 0.11 0.044238 0.078107 -0.008539 -0.021692 -0.029584 0.016288 
0.15538 0.065118 0.023193 0.067913 0.009711 0.0087245 -0.022185 0.027139 
0.089287 0.020891 -0.0004827 0.047197 -0.014458 -0.003771 -0.033694 -0.0011404 
-0.0016336 -0.0070593 -0.011498 0.031249 -0.034188 -0.037969 -0.041257 -0.052602 
-0.069372 0.053281 -0.013636 0.01152 0.019905 -0.029913 -0.064604 -0.076113 
-0.0042642 0.0067515 0.020562 0.044402 0.034209 -0.055561 -0.070687 -0.076113 
0.053116 0.0065871 0.07301 0.11625 0.073997 0.0042853 -0.024158 -0.019226 
0.035195 0.077614 0.11888 0.1733 0.11888 0.1105 0.050321 0.057391 
-0.080717 0.081889 0.11247 0.15851 0.10984 0.11378 0.075641 0.078929 
-0.081703 0.076627 0.045718 0.11231 0.040621 0.093891 0.073504 0.065776 
-0.03764 0.035853 -0.023829 0.057884 -0.017088 0.056898 0.048348 0.076627 
0.017767 -0.03057 -0.048656 0.014972 -0.026624 0.063968 0.047033 0.059035 
0.057062 -0.028926 -0.010676 0.027303 -0.014458 0.1294 0.083533 0.070215 
0.077449 0.053774 0.024508 0.051143 0.052294 0.11083 0.08567 0.091425 
0.040456 0.064296 0.050157 0.076299 0.063968 0.086328 0.07449 0.062817 
0.046868 0.087808 0.069064 0.088958 0.053609 0.047691 0.0324 0.047691 
0.082546 0.10556 0.076792 0.10441 0.043745 -0.031228 -0.028597 0.050814 
0.042429 0.11428 0.066269 0.12464 0.030592 -0.081703 -0.075784 -0.035174 
0.084026 0.11592 0.028454 0.12464 0.034702 -0.058356 -0.096007 -0.029091 
0.18004 0.040456 0.019411 0.08715 0.049499 -0.042408 -0.073482 0.033387 
0.098166 -0.019061 -0.01117 0.052623 0.021384 -0.042408 -0.051615 -0.0059084 
-0.10949 -0.02087 -0.027447 0.029605 -0.020706 -0.0019624 -0.037969 -0.058356 
-0.18709 -0.0068948 0.0024767 0.037004 -0.015938 0.021713 -0.0096899 -0.013965 
-0.13875 0.0034632 -0.010183 0.034044 -0.016102 0.053938 0.031907 0.038977 
-0.054904 0.0044497 0.018425 0.046375 0.035031 0.067091 0.038319 0.079587 
0.0095465 -0.00031829 0.042429 0.066763 0.026152 0.037661 0.024673 0.10655 
0.11214 0.0090533 0.071037 0.083697 0.031249 0.067913 0.039634 0.061337 
0.147 0.0070803 0.054432 0.084848 0.025659 0.035195 0.022206 0.043416 
0.12644 0.14009 0.080244 0.12891 0.040292 0.033551 0.015465 0.016945 
0.098001 0.25419 0.089616 0.15587 0.0592 0.023028 -0.0026201 0.03799 
0.054267 0.16048 0.072681 0.13171 0.071531 0.013328 -0.010512 0.0064227 
0.080244 0.092904 0.043416 0.10573 0.056404 -0.003771 -0.02235 -0.024323 
0.059364 0.052952 0.019905 0.076463 0.027303 0.010697 -0.016102 0.0421 
0.073668 0.02122 -0.029091 0.035524 0.012342 0.0098754 -0.01232 0.099645 
0.05476 0.0060938 -0.047341 0.010533 0.023028 0.037332 0.021878 0.10277 
0.013821 -0.032379 -0.011498 0.020891 0.055911 0.072024 0.030098 0.089452 
-0.040928 -0.078579 0.038648 0.051965 0.062159 0.06035 0.035195 0.037661 
-0.096665 -0.01939 0.067256 0.08304 0.03651 0.052294 0.047362 -0.038133 
-0.07825 0.061995 0.074161 0.099974 0.027796 0.010697 0.0013258 -0.035667 
0.02533 0.13286 0.061501 0.11839 -0.0075525 -0.060823 -0.055397 0.024673 
0.058542 0.11526 0.050979 0.11625 -0.015773 -0.11689 -0.1039 0.024508 
0.10293 0.10063 0.043909 0.095206 -0.0027845 -0.011827 -0.058685 0.071695 
0.14305 0.034373 0.00297 0.069064 0.0324 0.12644 0.053774 0.11625 
0.11806 -0.04471 -0.029584 0.030098 0.03651 0.13121 0.084848 0.015137 
-0.047341 -0.033365 -0.010183 0.028619 0.03092 0.032893 0.025001 -0.069372 
-0.10883 -0.00015387 -0.0073881 0.03799 0.027961 -0.057041 -0.045368 -0.056383 
-0.015444 0.076299 0.054432 0.069229 0.05065 -0.045039 -0.06296 -0.014951 
0.11609 0.12908 0.095699 0.10063 0.061008 -0.04619 -0.068057 0.042265 
0.18383 0.1396 0.091918 0.10754 0.028454 -0.035996 -0.059178 0.052294 
0.21654 0.1225 0.073997 0.11822 0.01267 0.048348 -0.0091966 0.064954 
0.081395 0.036182 -0.00031829 0.1008 0.021384 0.075641 0.030756 0.093233 
-0.12281 -0.11426 -0.064275 0.02533 0.0082312 0.054596 0.050321 0.075312 
-0.18742 -0.13432 -0.067399 -0.0021268 0.01152 0.013492 0.0023123 0.011848 
-0.076606 0.0067515 0.032893 0.049335 0.024673 -0.022679 -0.028762 -0.0044286 
0.043087 0.086985 0.081231 0.095699 0.042429 0.0085601 -0.012978 -0.040764 
0.067256 0.13384 0.058213 0.094877 0.016945 0.0083956 -0.015116 -0.0070593 
0.054432 0.12053 0.015465 0.072681 -0.011334 0.0095465 -0.011334 0.02681 
0.079916 0.034044 0.048841 0.074983 0.0098754 0.016781 -0.00097594 0.048019 
0.10754 -0.014787 0.050486 0.072681 0.037004 0.018096 0.00017495 0.10984 
0.051636 0.0042853 0.060679 0.08156 0.047362 0.018589 -0.001798 0.049006 
-0.028597 0.039634 0.050486 0.095371 0.043745 0.043416 0.0075736 -0.045203 
-0.0073881 0.078929 0.045224 0.11855 0.018589 0.0034632 -0.013143 -0.044381 
0.066763 0.09274 0.056733 0.10754 0.013657 0.0032988 -0.013965 0.039305 
0.14798 0.10491 0.048184 0.098166 0.018096 0.020398 -0.0075525 0.11526 
0.16771 0.14009 0.056076 0.099645 0.017932 0.024837 -0.0054151 0.11543 
0.13878 0.09981 0.019905 0.074983 0.011684 0.023522 0.0041209 0.06594 
0.068078 -0.013965 -0.028433 0.034537 -0.0049219 0.054432 0.021549 0.010369 
-0.059672 -0.095514 -0.010019 0.035853 0.022371 0.074654 0.041772 1.0539e-005 
-0.11442 -0.025802 0.037497 0.049664 0.038483 0.08008 0.072846 -0.014458 
-0.12182 0.11214 0.095864 0.090438 0.024344 0.055254 0.037826 -0.033694 
0.02122 0.20832 0.12233 0.12529 0.021056 0.017932 0.01004 -0.0034422 
0.16689 0.19106 0.084684 0.13647 0.010204 -0.034023 -0.017911 0.033222 
0.27031 0.15867 0.017603 0.11806 0.031907 -0.06855 -0.070852 0.083204 
0.24893 0.0021479 -0.063289 0.035195 0.0074092 -0.05178 -0.066577 0.12102 
-0.091568 -0.206 -0.10078 -0.02498 0.024508 0.005765 -0.032872 0.047197 
-0.27374 -0.16358 -0.021528 0.0085601 0.031578 0.016945 -0.016431 -0.028597 
-0.20551 -0.035667 0.038648 0.05624 0.010369 -0.024158 -0.037969 -0.03353 
-0.10028 0.040785 0.059693 0.08008 0.031578 -0.011498 -0.037147 -0.0050863 
0.06742 0.11247 0.07301 0.10162 0.029769 0.054267 0.011684 0.1322 
0.16097 0.12529 0.057391 0.093233 0.032564 0.060844 0.034702 0.16804 
0.18744 0.11806 0.03388 0.074654 0.0064227 0.058049 0.025659 0.044731 
0.17856 0.11214 0.035031 0.072353 0.0023123 0.025166 0.0067515 -0.029584 
0.076134 0.13171 0.051801 0.096357 0.023851 0.013657 0.010862 -0.035832 
0.069558 0.12661 0.036346 0.14371 0.074326 0.065283 0.012506 -0.06855 
0.090767 0.01004 0.020562 0.093398 0.094713 0.052623 0.026152 0.012342 
0.066598 -0.072989 0.028783 0.079751 0.083368 0.067913 0.051801 0.059693 
-0.07562 -0.078908 0.0051074 0.057555 0.029276 0.033058 0.016288 -0.032872 
-0.15076 -0.014293 0.0069159 0.054925 0.018096 -0.0087034 -0.016431 -0.030077 
-0.18726 0.072188 0.024837 0.061172 0.025166 0.020891 -0.0019624 0.04358 
0.012835 0.1664 0.064625 0.094055 0.070051 0.050486 0.014643 0.15308 
0.21786 0.15489 0.081395 0.10359 0.064132 0.050157 0.025001 0.18646 
0.20717 0.040785 0.023522 0.066105 0.0092177 0.023686 0.0036276 0.10441 
0.069229 -0.030077 0.0014903 0.046046 -0.018075 0.00066819 -0.018075 0.013986 
-0.12083 -0.0868 -0.018733 0.037661 -0.009361 0.053774 0.014643 -0.01939 
-0.17558 -0.057041 -0.022679 0.056404 0.012342 0.08567 0.034044 -0.028597 
-0.0091966 0.032564 0.014808 0.063145 0.039799 0.084848 0.051472 0.044567 
0.11329 0.079422 0.01974 0.057555 0.076134 0.044567 0.037826 0.070215 
0.12447 0.10688 0.031249 0.067749 0.051636 0.015465 -0.00081153 -0.022679 
0.038483 0.0064227 -0.0014692 0.041607 0.021056 -0.059507 -0.058685 -0.25236 
-0.040106 0.021713 -0.010183 0.031249 -0.0096899 -0.091075 -0.073647 -0.22145 
0.026974 0.0075736 0.011684 0.044402 0.0069159 0.0080668 -0.025309 0.021384 
0.035524 0.0044497 0.02122 0.051308 0.040292 0.076463 0.035524 0.15324 
-0.0042642 0.059364 0.037826 0.060515 0.018918 0.069886 0.040621 0.15818 
-0.010183 0.080902 0.069558 0.08156 0.023193 0.023028 0.005765 0.092082 
0.026481 0.1008 0.062981 0.10787 0.020398 -0.0060728 -0.017417 0.050157 
0.02533 0.062159 0.027139 0.11198 0.01826 0.0018191 -0.01676 0.034209 
0.027632 0.021713 0.0016547 0.072846 0.035688 0.015301 -0.0078813 0.0074092 
0.070873 0.057062 -0.0016336 0.054596 0.039634 0.014972 -0.0036066 0.049828 
0.14371 0.034209 0.025824 0.067749 0.066763 0.055911 0.027139 0.070544 
0.087972 -0.0049219 0.027139 0.067091 0.065283 0.050486 0.025988 0.055418 
0.037661 0.0082312 0.015301 0.061008 0.045224 0.024179 0.010369 0.017767 
0.033715 0.05476 0.034702 0.071366 0.020727 0.024837 0.00099702 0.024508 
0.024179 0.11214 0.073832 0.079587 0.041443 -0.0050863 -0.019226 0.028125 
0.051472 0.12414 0.065447 0.08715 0.018754 0.021056 0.00297 0.056076 
0.080573 0.046375 0.053281 0.083862 0.0037921 0.038319 0.004943 0.031085 
0.022371 0.020727 0.00017495 0.071531 -0.017746 0.023193 -0.00081153 -0.050136 
-0.18265 -0.037476 -0.019884 0.070051 0.0026412 0.040292 0.026974 -0.10078 
-0.21948 -0.041422 0.0065871 0.060844 0.040785 0.09833 0.058049 -0.076935 
-0.016595 0.028947 0.034209 0.072517 0.041936 0.10178 0.077121 0.034702 
0.070051 -0.011992 -0.0019624 0.06183 0.0046141 0.084519 0.055089 0.072681 
0.027961 0.00297 -0.0044286 0.04506 0.022042 0.029112 0.022206 0.050486 
-0.0078813 0.013492 0.0028056 0.040292 0.060844 0.00050378 0.00033937 0.045553 
0.011684 0.00033937 -0.0050863 0.041936 0.083368 0.017274 -0.0073881 0.07038 
0.07449 0.044896 0.028783 0.051965 0.076299 0.020398 -0.00064712 0.069886 
0.16031 0.13187 0.099316 0.086163 0.034044 0.0042853 -0.0090322 0.039634 
0.13664 0.18251 0.13713 0.13253 0.02122 0.034044 -0.0067304 0.033551 
0.14535 0.14305 0.08863 0.14765 0.012013 0.015794 -0.0059084 0.041278 
0.12431 0.092247 0.042758 0.13878 0.014808 0.023686 -0.0059084 0.053938 
0.070873 0.084519 0.037497 0.10195 -0.012649 0.030592 -0.0013048 0.039141 
0.030263 0.13894 0.066763 0.11428 0.019247 0.026646 0.0051074 0.0044497 
-0.026789 0.061008 0.036675 0.092082 0.022042 0.019905 0.012835 -0.020212 
-0.02498 -0.018733 -0.0047575 0.056404 0.022864 -0.011663 -0.017746 0.0079024 
-0.047341 -0.034023 -0.023172 0.032071 0.0021479 -0.021199 -0.03501 0.019576 
-0.031886 -0.025967 -0.023336 0.016945 0.010533 -0.049807 -0.037805 0.022042 
0.0054362 -0.013471 -0.0040998 0.02122 0.0044497 -0.006566 -0.038133 -0.0095255 
0.096357 0.031085 0.047526 0.048348 0.031414 0.036017 0.0016547 0.029605 
0.13927 0.072517 0.086328 0.096193 0.034866 0.079258 0.047197 0.10063 
0.12628 0.069393 0.07301 0.12661 0.056076 0.054432 0.035524 0.074654 
0.0052718 0.039799 0.058049 0.12694 0.043909 0.022535 0.012342 0.034702 
-0.061973 0.05065 0.05772 0.11165 0.039634 0.030756 0.0074092 0.048348 
-0.011827 0.10935 0.03651 0.091753 0.037661 0.01563 0.00083261 0.014479 
0.061666 0.10852 0.043087 0.087479 0.0227 0.0031344 -0.010019 0.024344 
0.14469 0.10885 0.074983 0.10376 -0.013636 0.055089 0.014643 0.057884 
0.14174 0.05213 0.061172 0.1026 0.043087 0.062652 0.03092 0.060844 
0.019083 0.0062583 0.024508 0.071859 0.040456 0.071202 0.045389 -0.016431 
-0.039449 0.040456 -0.0042642 0.039799 0.030592 0.0786 0.046868 -0.069208 
0.052787 -0.022514 -0.0091966 0.024179 0.039141 0.043909 0.031085 -0.05178 
0.05476 -0.10242 0.00297 0.038977 0.02533 -0.040271 -0.0088678 0.011848 
-0.089102 -0.084169 0.0064227 0.068407 0.017932 -0.095349 -0.084334 0.1026 
-0.065755 0.022371 0.031742 0.090767 0.01004 -0.18561 -0.16621 0.085341 
-0.052109 0.095371 0.036017 0.086492 -0.023665 -0.1649 -0.16062 0.0088889 
0.0041209 0.11477 0.071202 0.10639 0.015137 -0.0067304 -0.07003 0.0052718 
0.080244 0.056404 0.074654 0.11559 0.026481 0.12464 0.051801 0.077285 
0.13779 0.081231 0.034866 0.090931 0.044731 0.13483 0.099481 0.090274 
0.1026 0.068242 0.023522 0.067585 0.030592 0.12003 0.094713 0.024344 
0.079258 0.089123 0.072846 0.090931 0.026317 0.09685 0.080573 0.0098754 
0.11247 0.12924 0.080902 0.10392 0.051472 0.080244 0.074161 0.095206 
0.10408 0.10326 0.071859 0.097015 0.058871 0.034373 0.032893 0.083862 
0.079916 0.038483 0.045718 0.082875 0.055747 0.015794 0.0079024 0.069064 
-0.025145 -0.1085 -0.061151 0.036839 0.03799 0.0031344 -0.016266 0.0067515 
-0.098802 -0.14418 -0.091404 -0.010348 0.017274 -0.016102 -0.034516 -0.038956 
0.0016547 -0.028433 -0.037476 0.0024767 -0.013471 -0.020048 -0.028762 -0.026296 
0.053116 0.11165 0.038483 0.053774 -0.010183 -0.0059084 -0.03057 0.014808 
0.14075 0.19484 0.098001 0.10787 0.0060938 0.0082312 -0.014293 0.063639 
0.095699 0.21375 0.10655 0.13105 0.033222 -0.010019 -0.011992 0.03092 
-0.075455 0.026646 0.030427 0.091425 0.019411 0.0074092 -0.013965 0.00050378 
-0.17345 -0.09946 -0.055068 0.016781 -0.0044286 -0.014458 -0.026296 0.0087245 
-0.12659 -0.068221 -0.048492 -0.016266 0.0080668 -0.0064016 -0.0138 0.030592 
-0.06444 -0.026131 0.013328 0.020233 0.0092177 -0.004593 -0.020706 0.057227 
0.059528 0.055747 0.034702 0.054596 0.012177 0.016123 -0.013471 0.0098754 
0.055254 0.047691 0.017603 0.081724 0.024837 0.0092177 -0.016924 -0.010348 
0.054925 0.027961 -0.011498 0.069229 0.03536 0.01267 -0.0098543 -0.0024557 
0.050979 0.050486 0.022535 0.068242 0.015794 0.028619 0.0051074 -0.0016336 
0.097508 0.056076 0.024179 0.071859 0.042923 0.073997 0.040456 0.06742 
0.12414 0.10672 0.066269 0.096686 0.074161 0.076956 0.052294 0.13121 
0.12644 0.14469 0.1003 0.13088 0.10162 0.09833 0.068078 0.10836 
0.094384 0.09422 0.06479 0.11494 0.074326 0.089452 0.056076 0.040292 
-0.049478 0.0021479 0.017274 0.067256 0.019576 0.047855 0.025824 -0.03616 
-0.11607 -0.019226 0.0074092 0.043087 -0.0040998 0.0067515 0.016781 -0.039778 
-0.013636 0.024179 0.022206 0.046046 0.0014903 0.0041209 -0.0013048 0.029605 
0.084848 0.097837 0.05065 0.075805 0.0046141 -0.0042642 -0.016431 0.045718 
0.099152 0.078765 0.015794 0.087479 -0.011827 -0.02498 -0.020541 0.024179 
0.10556 0.077614 0.013986 0.083204 0.0080668 -0.0039354 -0.02646 0.05213 
0.22822 0.1179 0.0011614 0.062488 0.024673 0.01711 -0.0083746 0.088794 
0.17955 0.027303 -0.019061 0.039141 0.032729 0.030263 0.005765 0.089945 
-0.034516 -0.058028 -0.068221 -0.0024557 0.044402 0.017274 -0.0049219 -0.0068948 
-0.19597 -0.099131 -0.01939 0.012013 0.033058 -0.0029489 -0.018075 -0.099789 
-0.15848 0.027139 0.062652 0.069886 0.02681 0.03651 0.0024767 -0.044381 
-0.10949 0.096028 0.080738 0.094384 0.017438 0.050486 0.023028 0.024837 
-0.069208 0.034537 0.03092 0.065447 0.02122 0.025659 0.011355 -0.012156 
0.020727 0.011684 -0.003771 0.036017 -0.02235 0.023522 0.009711 0.044238 
0.07301 0.051801 0.037661 0.069064 0.0031344 0.021878 0.0028056 0.061008 
0.13631 0.12233 0.081724 0.13483 0.038812 0.019247 0.0019835 0.072024 
0.18909 0.18843 0.098823 0.14239 0.070873 0.074326 0.036182 0.091753 
0.14305 0.15522 0.074326 0.12529 0.064132 0.052459 0.033551 0.091096 
0.078107 0.095042 0.046046 0.10244 0.043909 0.047526 0.042594 0.055582 
0.049828 0.11395 0.036017 0.087314 0.021056 0.053281 0.031249 0.029934 
0.10441 0.12283 0.012999 0.06479 0.01152 0.030098 0.016616 0.019576 
0.040621 -0.0062372 -0.068386 0.0079024 -0.0057439 -0.0021268 -0.0059084 -0.048656 
-0.10916 -0.1159 -0.054739 -0.013965 -0.0004827 -0.035174 -0.045368 -0.081374 
-0.12511 -0.10505 0.013164 0.029112 0.00066819 -0.071181 -0.077922 -0.050629 
-0.034681 0.01152 0.089452 0.090603 0.046375 -0.012649 -0.037311 -0.0090322 
0.039305 0.13006 0.10885 0.12464 0.060844 0.016452 -0.012978 0.086821 
0.0031344 0.10178 0.06331 0.13253 0.03651 0.03388 0.0052718 0.022042 
-0.009361 0.095699 0.0039565 0.084684 0.0227 -0.028597 -0.028926 -0.011005 
0.0026412 0.055254 -0.010183 0.051143 -0.0052507 -0.045696 -0.056548 0.01152 
0.079094 0.082053 0.0095465 0.048677 0.012999 0.02533 -0.013965 0.026974 
0.078929 0.069229 0.044073 0.075312 0.05065 0.13203 0.072024 0.072188 
0.0074092 -0.0078813 0.027796 0.070051 0.086821 0.1391 0.09981 0.11362 
0.0079024 -0.03912 0.024344 0.063968 0.052294 0.077778 0.080902 0.10655 
0.063803 0.063145 0.049499 0.072353 0.029276 0.051636 0.043909 0.09274 
0.08304 0.094713 0.0421 0.067256 -0.026953 0.0036276 -0.00064712 0.050486 
0.041443 0.084684 0.02533 0.061501 -0.034681 -0.016595 -0.0098543 0.023851 
0.030756 0.066105 0.044238 0.090931 0.015465 0.0034632 -0.0098543 0.095042 
0.064625 0.023357 0.03092 0.10589 0.033058 0.066763 0.03092 0.12792 
0.06742 0.052294 0.041278 0.10047 0.091753 0.092247 0.067256 0.046211 
0.028619 0.074326 0.092576 0.12184 0.071202 0.043909 0.034537 -0.028926 
0.014972 0.013821 0.06742 0.11214 0.035195 -0.017253 -0.008539 -0.043888 
0.02533 0.023851 0.023851 0.083862 0.016123 -0.060494 -0.05589 0.069229 
-0.02498 -0.044546 0.0023123 0.055418 0.012342 -0.063124 -0.079401 0.071202 
-0.11376 -0.015773 0.0036276 0.04358 0.016288 -0.0406 -0.071674 -0.056877 
-0.12379 0.028619 0.01711 0.050486 0.045224 -0.0036066 -0.043888 -0.1108 
-0.013471 0.058542 0.065447 0.076463 0.04506 0.014972 -0.018075 -0.052766 
0.082875 0.092082 0.090931 0.10129 0.045224 0.037497 0.01152 0.0056006 
0.10606 0.062817 0.034044 0.10162 0.046211 0.052787 0.019576 0.057391 
0.15653 0.027139 0.0065871 0.096357 0.04358 0.031249 0.0051074 0.10589 
0.17659 0.051965 -0.00031829 0.062323 -0.0049219 0.038977 0.036182 0.10885 
0.069558 0.043087 0.023357 0.065118 -0.017582 0.050486 0.034373 0.071531 
-0.057205 0.022535 0.046375 0.082711 0.041772 0.047362 0.028619 0.00066819 
-0.035174 0.010862 0.044567 0.082875 0.051965 0.021056 0.033222 0.017932 
0.012342 0.013164 -0.012156 0.045389 0.012013 0.039634 0.013986 0.071531 
-0.028597 0.056404 -0.00081153 0.038155 0.01974 0.01267 -0.0027845 0.058213 
-0.054904 0.06331 0.054432 0.069558 0.032236 0.035524 0.012342 0.040128 
-0.0059084 0.030263 0.099645 0.10277 0.060186 0.044731 0.018096 0.046375 
0.067749 0.091753 0.10113 0.12184 0.054432 0.046211 0.023851 0.042429 
0.11099 0.037332 0.022371 0.096686 0.023522 0.028454 0.0065871 0.0085601 
0.12447 0.039305 -0.060823 0.053774 -0.052109 -0.027282 -0.036818 0.03092 
0.15818 0.073997 -0.032872 0.027632 -0.07266 -0.081045 -0.075455 0.08567 
0.17577 0.066927 0.032729 0.062323 -0.0083746 -0.0014692 -0.038956 0.12842 
0.04358 -0.0029489 0.072024 0.097508 0.090274 0.067256 0.013821 0.042923 
-0.15766 0.043909 0.067256 0.11296 0.13598 0.050814 0.016616 -0.035174 
-0.090417 0.11428 0.08008 0.11543 0.046046 0.012342 -0.0083746 -0.082196 
0.038977 0.16426 0.067585 0.10507 0.0093821 0.0047785 -0.017253 0.018425 
0.086985 0.038483 0.042758 0.08156 0.015301 0.033387 0.023686 0.035853 
0.027632 -0.02087 0.029934 0.049499 0.014479 0.028783 0.027796 0.02533 
0.0062583 0.004943 0.015959 0.055089 0.019411 0.0037921 -0.0011404 0.01826 
-0.001798 0.01267 0.011191 0.056404 0.013657 0.030592 0.0093821 0.00033937 
0.027632 0.036839 0.021878 0.084519 0.037661 0.015137 -0.0021268 -0.0016336 
0.040128 0.031249 0.0062583 0.06479 0.058213 0.032893 0.005765 0.022864 
0.025659 -0.056712 -0.031886 0.030756 0.045224 0.023851 0.0046141 0.00099702 
-0.017417 -0.095349 -0.046354 0.010204 0.019083 -0.0013048 -0.0088678 0.024508 
0.0067515 -0.003771 -0.028269 0.0088889 0.0023123 -0.0016336 -0.015773 0.041443 
0.065118 0.10639 0.050321 0.056733 0.010697 0.0093821 -0.0064016 0.033222 
0.084684 0.16936 0.098001 0.10178 0.015794 -0.009361 -0.028597 -0.0059084 
0.027468 0.099481 0.10885 0.10672 0.026317 -0.014129 -0.030735 -0.025638 
0.058377 0.057555 0.059693 0.095206 0.024837 0.021878 -0.017746 0.0031344 
0.079422 0.052294 0.044402 0.08715 0.032893 0.020727 -0.0080457 0.03092 
0.10606 0.041114 0.023686 0.094877 0.050321 -0.01939 -0.018239 0.036346 
0.073668 0.031249 0.0083956 0.090109 0.045389 0.033387 -0.0050863 0.041936 
0.0069159 0.01826 -0.0095255 0.058542 0.0227 0.024673 0.011355 0.03092 
-0.022514 0.016945 -0.0032777 0.049992 0.030263 0.067091 0.046375 0.009711 
0.0011614 0.056076 0.015794 0.056404 0.052623 0.1128 0.058706 0.0046141 
0.027468 0.08419 0.036675 0.069064 0.049992 0.10655 0.077285 0.027303 
0.0024767 0.081395 0.045882 0.076956 0.023522 0.091425 0.075148 0.047855 
0.02829 0.033222 0.019411 0.058377 0.012342 0.044731 0.041443 0.078929 
-0.0039354 -0.11459 -0.033694 0.021056 -0.018239 -0.037805 -0.033694 0.023193 
-0.043888 -0.11886 -0.011498 0.01563 -0.010019 -0.12001 -0.10554 -0.036489 
0.010204 0.025166 0.035195 0.052623 0.012342 -0.11376 -0.12741 -0.099624 
0.020233 0.06742 0.048348 0.095699 0.04917 -0.017582 -0.063618 -0.049149 
0.013821 0.086821 0.041607 0.11033 0.068407 0.077614 0.017438 0.076463 
0.034209 0.096357 0.05772 0.10524 0.038155 0.065776 0.038155 0.12349 
0.0060938 0.043251 0.03799 0.092411 0.027961 0.025824 0.018754 0.12316 
0.015794 0.056733 0.0032988 0.064132 0.014808 0.033222 0.0047785 0.071859 
0.042265 0.073668 0.022371 0.064132 0.0031344 0.012999 -0.0044286 0.03947 
0.10425 0.1031 0.031578 0.071366 0.0082312 0.0046141 0.0044497 0.035031 
0.11773 0.10836 0.036182 0.068407 0.012506 0.039141 0.007738 0.0227 
0.10754 0.058377 0.039141 0.0689 0.01267 0.033551 0.013164 0.035853 
0.079258 -0.044052 0.023028 0.04506 0.03651 0.045224 0.0324 0.041772 
-0.038627 -0.047505 0.02681 0.060844 0.023028 0.043251 0.020398 0.0042853 
-0.096829 0.0016547 0.03651 0.10145 0.031578 0.02681 0.010533 0.0013258 
-0.042244 0.090767 0.04506 0.097837 0.034537 0.031085 0.0065871 -0.00097594 
0.027468 0.077778 0.045224 0.092247 0.024673 0.02681 0.013657 -0.0096899 
0.072024 0.071037 0.037332 0.082382 0.025824 0.03947 0.017274 0.071695 
0.13631 0.1294 0.033387 0.078272 0.049335 0.0075736 -0.0072237 0.063968 
0.11839 0.086328 0.022042 0.065283 0.055911 -0.027447 -0.03912 0.044896 
0.093233 0.074326 0.028783 0.066763 0.042594 0.015794 -0.015609 0.091096 
0.011191 0.02829 0.023522 0.066269 0.023686 0.10852 0.050486 0.066927 
-0.091897 -0.0042642 0.010697 0.04654 0.023686 0.097015 0.064132 0.06742 
-0.11705 0.0056006 0.055747 0.08156 0.038319 0.065447 0.051801 0.10589 
-0.02646 0.0042853 0.050321 0.094548 0.012342 0.025001 0.010697 0.049664 
0.013986 0.052459 0.033551 0.11691 0.013328 -0.059507 -0.054904 -0.0057439 
0.018589 0.08567 0.038483 0.093891 0.032729 -0.11541 -0.089595 -0.041093 
0.047691 0.090931 0.071859 0.10639 0.036346 -0.073482 -0.098309 -0.073976 
0.078436 0.11148 0.047691 0.096028 -0.0026201 -0.03057 -0.067235 -0.075127 
0.08567 0.083368 0.041607 0.088301 0.0044497 0.03092 -0.008539 0.016945 
0.093891 -0.0060728 -0.004593 0.055418 0.0018191 0.04917 0.01152 0.094384 
0.11888 0.024179 0.0227 0.059364 0.019083 0.061501 0.029605 0.13812 
0.10441 0.1248 0.069886 0.086163 0.05065 0.084684 0.058213 0.11822 
0.079751 0.17906 0.094877 0.10984 0.079587 0.09833 0.06183 0.072188 
0.096521 0.13779 0.048184 0.086821 0.068571 0.047855 0.037497 0.06183 
0.0421 0.036346 0.030263 0.089287 0.0037921 0.0014903 0.0019835 0.061501 
-0.15618 -0.087951 -0.0060728 0.079916 -0.012649 -0.018568 -0.028762 0.046704 
-0.14648 -0.084169 0.0088889 0.062652 0.015959 0.023028 -0.0057439 0.076956 
-0.031228 -0.050136 -0.012978 0.043087 0.016616 0.042265 0.0014903 0.035195 
0.085506 0.057391 0.01563 0.052787 0.014972 -0.014293 -0.031064 -0.026953 
0.10622 0.13499 0.049664 0.076792 -0.017582 -0.083512 -0.07414 -0.15125 
0.043745 0.14223 0.066598 0.09685 0.00083261 -0.023007 -0.058521 -0.15881 
-0.038956 0.058706 0.030427 0.083204 0.032564 0.044567 0.0056006 -0.060494 
-0.059836 -0.067235 0.025824 0.066927 0.034209 0.059528 0.048841 0.064461 
0.029934 -0.07003 0.028947 0.057062 0.05772 0.061501 0.041772 0.12809 
0.096028 0.031578 0.066105 0.083368 0.082875 0.07038 0.046704 0.11198 
0.10573 0.068736 0.039141 0.094877 0.07038 0.072353 0.052623 0.055254 
0.075148 0.089616 0.012177 0.09685 0.042758 0.023851 0.012177 0.0047785 
0.013657 0.047526 -0.0077169 0.052787 -0.0073881 -0.036325 -0.033037 0.019247 
-0.020377 -0.028104 -0.037805 0.02122 -0.018404 -0.019719 -0.033201 0.068407 
0.056569 0.00017495 -0.016266 0.029769 -0.017253 0.060844 0.01974 0.14782 
0.058377 0.03388 0.025166 0.055254 0.023028 0.13302 0.080573 0.036839 
-0.050464 0.035031 0.043251 0.071695 0.030756 0.10441 0.066269 -0.14319 
-0.076935 0.037497 0.032236 0.072353 0.022042 0.035524 0.028619 -0.046025 
-0.028269 0.039634 0.04917 0.073175 0.01267 -0.0026201 0.00017495 0.08156 
0.019905 0.066434 0.06035 0.082217 0.013492 0.0092177 -0.00097594 0.12398 
0.062817 0.074983 0.067091 0.088958 0.020562 -0.044874 -0.05441 0.084519 
0.080409 0.064296 0.052623 0.10885 0.041278 -0.087293 -0.079566 -0.023172 
0.070544 0.070215 0.010204 0.10178 0.047855 1.0539e-005 -0.056219 -0.052602 
0.056733 0.051801 0.016781 0.074983 0.050321 0.046375 -0.00081153 0.016288 
0.050486 0.042758 -0.019719 0.041607 0.049828 0.058213 0.036182 0.065283 
0.075805 0.027961 0.016945 0.050979 0.035031 0.043251 0.025166 0.059035 
0.052623 0.06594 0.051308 0.076792 0.043909 0.024673 0.011684 0.068078 
0.066269 0.12595 0.063474 0.094548 0.05476 0.038812 0.021384 0.079258 
0.10967 0.13335 0.041772 0.083697 0.026646 0.015959 0.0046141 0.015301 
0.0689 0.020398 0.00066819 0.044073 -0.00097594 -0.040764 -0.042408 -0.045203 
0.0093821 -0.079237 -0.038627 0.007738 -0.055068 -0.0096899 -0.040271 -0.074798 
-0.084827 -0.14287 -0.01676 -0.0004827 -0.019226 0.041607 -0.00015387 -0.094363 
-0.20962 -0.12166 -0.0095255 0.031742 0.026317 0.074161 0.038155 -0.066084 
-0.1672 0.058377 0.051965 0.11066 0.06594 0.09422 0.052952 0.037661 
0.041278 0.10754 0.082217 0.12102 0.10326 0.062652 0.043087 0.093233 
0.081231 0.081724 0.052623 0.10754 0.079751 0.033222 0.025988 0.086163 
0.089123 0.11378 0.047691 0.094055 0.051143 0.037332 0.013164 0.062323 
0.12513 0.11132 0.033058 0.081231 0.033387 -0.0054151 -0.015938 0.06594 
0.11329 0.072517 0.00066819 0.055911 0.0067515 -0.017582 -0.011827 0.040621 
0.088958 0.088794 0.02533 0.062159 -0.0004827 0.01152 -0.012814 0.055911 
0.12924 0.061172 0.056404 0.077778 0.0064227 -0.0022913 -0.019884 0.071531 
0.10984 0.055418 0.079094 0.092904 0.016288 0.034866 0.00066819 0.077943 
-0.014129 -0.00015387 0.053445 0.086492 0.023851 0.020891 -0.0072237 0.017932 
-0.10817 -0.039778 0.005765 0.07449 0.03388 0.020727 -0.0062372 -0.032215 
-0.099953 -0.0060728 -0.018075 0.07597 0.032564 0.036017 0.0072447 -0.022021 
-0.015116 0.016945 0.014643 0.064132 0.024179 0.043745 0.017438 -0.0024557 
0.070544 0.053609 0.02681 0.068242 0.031742 0.011191 0.0032988 0.025166 
0.11329 0.11 0.01004 0.06035 0.017932 0.020562 -0.00064712 0.050321 
0.10803 0.10162 0.035195 0.069064 0.046704 0.0026412 -0.018239 0.033715 
0.10589 0.069393 0.026646 0.068407 0.051801 0.014643 -0.010183 0.029769 
0.048841 0.029934 0.041278 0.072188 0.040456 0.028619 -0.0029489 0.032729 
0.0052718 0.034209 0.044073 0.074983 0.027468 0.004943 -0.01117 0.0592 
1.0539e-005 0.069722 0.050486 0.069229 -0.0014692 -0.0067304 -0.0059084 0.085012 
0.015301 0.03799 0.049335 0.075312 0.0072447 0.02533 -0.0022913 0.086492 
0.05476 0.073339 0.033715 0.098659 0.00050378 0.019576 -0.0016336 0.021056 
0.086985 0.12283 0.041772 0.11625 0.0092177 0.035688 0.026646 0.013657 
0.06331 0.088465 0.027139 0.087314 0.016781 0.054925 0.025495 0.024179 
0.075476 0.016781 0.0064227 0.06594 0.031249 0.037826 0.020233 0.020562 
0.096521 0.08304 0.043416 0.079422 0.044731 0.016123 0.013164 0.038155 
0.15604 0.15703 0.094055 0.11559 0.0592 0.029934 0.0019835 0.07038 
0.041607 0.092247 0.052952 0.10047 0.062323 -0.02498 -0.026789 0.012177 
-0.10538 -0.050793 -0.031064 0.038648 0.024179 0.017438 -0.011005 -0.02646 
-0.027611 -0.09798 0.028454 0.039141 0.011684 0.011848 -0.0075525 0.027632 
0.052952 -0.044546 0.032071 0.053609 0.041278 0.021713 0.00066819 0.03947 
-0.052766 0.0019835 0.057391 0.085835 0.071531 0.036017 0.0083956 0.032236 
-0.096336 0.020069 0.036346 0.096028 0.063145 0.045389 0.015137 0.013821 
-0.059178 0.034702 0.024837 0.093891 0.073668 0.039634 0.018589 0.0056006 
0.034044 0.091753 0.039963 0.089452 0.034702 0.040128 0.01415 0.0051074 
0.1299 0.17166 0.064625 0.10096 0.0098754 0.0080668 -0.0019624 0.020891 
0.16623 0.20092 0.09422 0.12431 0.010369 -0.02087 -0.008539 0.013821 
0.15851 0.13203 0.058542 0.1077 0.032893 0.005765 -0.010183 0.021056 
0.1077 -0.0073881 -0.011334 0.056898 0.041936 0.040456 0.011355 0.015959 
-0.010841 -0.13497 -0.0503 0.01004 0.032071 0.035031 0.027632 0.044731 
-0.13136 -0.063946 -0.023007 0.0064227 -0.010348 0.037497 0.018096 0.13894 
-0.074469 0.040621 0.032236 0.041278 0.00050378 0.024344 0.010533 0.171 
-0.056219 0.025001 0.049335 0.075476 -0.010348 -0.0082102 -0.014129 0.070544 
-0.076113 -0.0078813 0.028454 0.097344 -0.011992 -0.009361 -0.027775 -0.030735 
0.038812 0.07449 0.061008 0.10754 -0.020377 0.016452 -0.016924 -0.042573 
0.15341 0.12135 0.070873 0.11411 0.020398 0.035031 0.004943 0.027961 
0.13615 0.12233 0.032564 0.091096 0.028125 -0.040764 -0.041915 0.055089 
0.091096 0.05065 0.015794 0.072024 0.025659 -0.028597 -0.047998 0.06594 
0.016123 0.033387 0.018754 0.062652 0.027139 0.037826 -0.012814 0.042923 
-0.094363 0.018425 0.029112 0.068078 0.025824 0.050486 0.012835 -0.0082102 
-0.070359 0.049499 0.076627 0.088794 0.030098 0.050979 0.025824 -0.035338 
-0.0011404 0.051636 0.062981 0.089452 0.042923 0.079422 0.040785 -0.0034422 
0.064625 0.054432 0.049499 0.078107 0.050979 0.057391 0.039305 0.005765 
0.11822 0.051965 0.026152 0.078929 0.046046 0.033551 0.035853 0.04095 
0.12381 0.11296 0.026974 0.095042 0.043745 0.039799 0.012342 0.084026 
0.11198 0.10096 0.02533 0.079587 0.019576 0.020562 0.0056006 0.07449 
0.15341 0.085177 -0.00031829 0.059364 0.030592 0.043416 0.031414 0.066434 
0.13664 0.068736 -0.012485 0.043251 0.017603 0.033387 0.012506 0.032729 
-0.10637 -0.074633 -0.027447 0.025824 0.018589 -0.0019624 -0.016924 -0.059836 
-0.15783 -0.12248 -0.015116 0.026317 0.010533 -0.019555 -0.033859 -0.076935 
-0.080223 0.019083 0.06331 0.074983 0.033551 -0.037805 -0.049971 -0.041422 
-0.061809 0.091589 0.10293 0.11181 0.029934 -0.019719 -0.040106 0.010369 
-0.013143 0.10129 0.095206 0.11724 0.037168 0.061172 0.012999 0.065776 
-0.0052507 0.035853 0.011026 0.066105 0.031414 0.057884 0.02681 0.070051 
0.041278 0.0051074 -0.0060728 0.055582 0.046704 0.03947 0.024673 0.093726 
0.080738 -0.0011404 0.0052718 0.073997 0.03536 0.05772 0.019411 0.084355 
0.077614 0.016616 0.027796 0.076299 0.025824 0.026152 0.0042853 0.055747 
0.11 0.14009 0.075641 0.11477 0.057884 -0.01232 -0.006566 0.013164 
0.082217 0.13943 0.056404 0.10524 0.020562 0.021056 -0.0050863 0.0059294 
-0.00097594 0.011026 0.0013258 0.067749 0.010533 0.015137 -0.0055795 -0.012814 
-0.10061 -0.037476 -0.029255 0.029934 -0.014622 -0.0098543 -0.0095255 -0.040928 
-0.10768 -0.046683 -0.0016336 0.045389 -0.003771 -0.025967 -0.042408 -0.029584 
-0.008539 -0.011992 0.0021479 0.042429 -0.0016336 -0.028433 -0.047834 -0.015773 
0.10211 0.07301 0.036346 0.058706 0.0082312 -0.03616 -0.051615 -0.010676 
0.17445 0.1373 0.03651 0.058377 0.0090533 -0.012814 -0.037805 0.042265 
0.17462 0.063803 -0.018239 0.041114 0.014643 0.020727 -0.0072237 0.03536 
0.14404 0.037661 -0.004593 0.070708 0.043087 0.076956 0.040128 0.079587 
0.036182 0.035853 0.049006 0.086492 0.071037 0.1008 0.065118 0.067749 
-0.12445 0.034866 0.05213 0.09126 0.076956 0.093398 0.068736 -0.010512 
-0.1649 -0.014787 0.022535 0.068242 0.036839 0.075641 0.060186 -0.022843 
-0.13629 -0.052931 -0.029091 0.028125 -0.0090322 0.022535 0.01711 -0.00097594 
-0.068879 -0.03501 -0.073647 -0.0096899 -0.021034 -0.018404 -0.01939 0.011191 
0.027303 0.010369 0.0028056 0.025659 0.040128 -0.034516 -0.047834 0.049006 
0.13203 0.10376 0.090109 0.079422 0.046704 -0.059343 -0.072003 0.074983 
0.1687 0.16755 0.12118 0.12135 0.05213 -0.016595 -0.034516 0.032236 
0.18251 0.14552 0.11905 0.13039 0.038648 0.016452 -0.020377 0.016616 
0.14256 0.080902 0.060186 0.11658 0.021384 0.0227 -0.008539 0.020398 
0.08156 0.066434 0.022371 0.11411 0.031742 0.031249 0.019247 0.013657 
0.0082312 0.039963 0.016616 0.086328 0.01563 0.05624 0.032729 0.016781 
-0.020212 0.023686 0.01415 0.06742 0.026974 0.02122 0.011191 0.0095465 
-0.003771 0.022535 0.00099702 0.056733 0.032564 0.027632 0.011355 0.013986 
0.070544 0.0075736 -0.0055795 0.044238 0.026974 0.055911 0.027632 0.097015 
0.061008 0.052787 0.010369 0.049664 -0.00031829 0.06479 0.03947 0.12825 
0.038977 0.054103 0.016945 0.056076 0.033551 0.095042 0.06183 0.10113 
-0.0026201 0.081067 0.031578 0.061008 0.040456 0.087972 0.055582 0.0056006 
-0.01939 0.10228 0.058542 0.070051 0.03092 0.030756 0.021056 -0.079237 
0.047197 0.05213 0.1008 0.10836 0.045389 0.031742 0.0052718 0.0082312 
0.033551 0.031907 0.098659 0.13631 0.062159 0.016288 -0.0031133 0.053281 
0.018096 0.011026 0.0324 0.12562 0.025988 -0.011498 -0.028104 0.024673 
0.031249 -0.0057439 -0.0083746 0.0689 0.00050378 -0.021199 -0.040764 0.018918 
0.05213 0.0075736 -0.024487 0.042265 0.011191 -0.023172 -0.044052 0.00017495 
0.010862 0.061995 0.012835 0.051143 0.0054362 -0.013143 -0.027775 -0.024816 
0.0079024 0.11 0.027468 0.064132 0.026317 0.034044 -0.0022913 -0.009361 
0.084519 0.097179 0.026152 0.065612 0.017932 0.079258 0.04095 0.045553 
0.083368 0.01826 0.042758 0.078436 0.050979 0.1202 0.095371 0.071695 
-0.047341 -0.023994 0.027303 0.061501 0.05213 0.069064 0.058213 0.062488 
-0.084005 -0.040928 -0.033201 0.029276 0.041278 -0.03353 -0.021199 0.066105 
-0.033201 0.009711 0.02681 0.04917 -0.0016336 -0.063946 -0.055561 0.04917 
0.035688 0.073668 0.030427 0.073504 0.009711 -0.044381 -0.068386 0.048513 
0.10228 0.11296 0.064461 0.11921 0.025988 0.011848 -0.02498 0.079916 
0.099974 0.10836 0.087808 0.12628 0.03799 0.071202 0.019083 0.036182 
0.098659 0.099316 0.070708 0.11905 0.047033 0.018589 0.0016547 0.023193 
0.10672 0.065776 0.0227 0.087314 0.024179 0.014315 -0.0031133 0.028125 
0.096028 0.058871 -0.0077169 0.054596 -0.011663 0.0023123 -0.021692 0.051308 
0.042429 0.026646 -0.031228 0.027796 -0.037147 0.0093821 -0.016266 0.058213 
0.0037921 0.011684 -0.00097594 0.02533 -0.015609 0.046046 0.01152 0.038648 
0.067091 0.053445 0.052623 0.063803 0.05624 0.083862 0.038319 0.015959 
0.054267 0.061666 0.099152 0.098494 0.087314 0.069393 0.040128 0.016288 
0.034209 0.034702 0.11181 0.12595 0.07449 0.012999 0.024015 0.014315 
-0.022514 0.054103 0.042429 0.12562 0.049992 0.012177 -0.0016336 0.018096 
-0.097816 0.045224 0.024344 0.11099 -0.0036066 0.0064227 -0.012649 -0.0004827 
-0.011498 0.075148 0.043416 0.096521 -0.011992 0.0324 0.01563 0.026152 
0.10244 0.12579 0.042758 0.090274 -0.0029489 0.0042853 -0.0077169 0.091096 
0.10474 0.1008 0.046046 0.096028 0.013164 -0.006566 -0.022843 0.1077 
0.10606 0.028454 -0.0091966 0.052787 0.0026412 -0.025474 -0.028926 0.047855 
0.071695 -0.033859 -0.041751 0.01974 0.014808 -0.016431 -0.047834 0.014808 
-0.053588 -0.066413 -0.016595 0.018754 0.036839 -0.0087034 -0.036818 -0.017417 
-0.12166 -0.060987 0.024673 0.040621 0.063968 0.026152 -0.010019 -0.043888 
-0.06855 -0.011498 0.063803 0.069229 0.066598 0.036182 0.0046141 -0.0011404 
0.045882 0.11132 0.090767 0.10918 0.030263 0.053445 0.029934 0.057391 
0.14338 0.16525 0.066763 0.13203 0.037661 0.054432 0.02829 0.061666 
0.082053 0.015465 0.012177 0.091918 0.016123 0.01563 0.0011614 0.020891 
-0.027447 -0.063289 -0.031886 0.041607 -0.012814 0.029441 0.0087245 0.025988 
0.010533 0.0075736 -0.0059084 0.042429 -0.013471 0.037168 0.007738 0.022535 
-0.043724 0.040128 0.01826 0.056076 0.0024767 0.041443 0.0037921 0.016123 
-0.068386 0.037168 0.031085 0.069064 0.064296 0.085506 0.059857 0.024015 
0.020891 0.011026 0.030427 0.077449 0.10754 0.096357 0.059528 0.046868 
0.062159 -0.0082102 0.039963 0.069886 0.068736 -0.033859 -0.021363 0.034537 
0.032236 0.055747 0.029934 0.06479 0.023193 -0.15668 -0.11294 -0.046354 
0.038483 0.1031 0.063145 0.077943 0.03651 -0.063946 -0.096007 -0.035832 
0.058706 0.10047 0.07597 0.097508 0.044731 -0.0039354 -0.039613 0.046211 
0.091918 0.082875 0.032564 0.10589 0.013492 0.029276 -0.0040998 0.10622 
0.075148 0.034537 0.023851 0.09422 0.026481 0.0037921 -0.013636 0.10803 
0.039141 0.018918 0.0042853 0.063474 -0.0050863 -0.016102 -0.031557 0.06479 
0.018096 0.03092 -0.015116 0.042265 -0.0090322 -0.003771 -0.033201 0.03536 
0.036182 0.064954 0.02533 0.060679 0.01563 0.039799 0.0026412 0.085835 
0.072188 0.071202 0.047033 0.088301 0.058871 0.099152 0.057555 0.12135 
0.029769 0.055418 0.049499 0.094384 0.075312 0.15028 0.095699 0.058542 
-0.023665 -0.0077169 0.030427 0.08567 0.064625 0.10622 0.077121 -0.10801 
-0.07825 -0.031721 -0.0027845 0.041772 0.011848 0.018754 0.017932 -0.26618 
-0.10225 -0.048985 0.0079024 0.038155 0.011191 -0.011498 -0.018075 -0.18463 
-0.072332 -0.0014692 0.021878 0.055911 0.027139 -0.013965 -0.024158 0.01415 
0.047691 0.037004 0.014972 0.093562 0.053938 -0.037147 -0.026789 0.14897 
0.11724 0.053445 0.033551 0.092082 0.040128 -0.076771 -0.086142 0.12184 
0.14716 0.12102 0.050814 0.096357 0.029934 -0.052766 -0.07562 0.10721 
0.080244 0.12973 0.06742 0.10244 0.0067515 0.035853 0.0036276 0.088465 
0.044402 0.071695 0.0227 0.078765 0.015301 0.076134 0.031249 0.030756 
-0.012485 -0.018239 -0.03353 0.031249 0.013164 0.012342 0.0018191 -0.047834 
-0.019555 -0.0024557 -0.012485 0.030592 0.023851 0.016288 0.0011614 -0.056055 
0.032893 0.078272 0.055418 0.069393 0.046046 0.013328 -0.0039354 0.00033937 
0.12398 0.16475 0.10145 0.10293 0.044402 0.023193 0.0042853 0.059857 
0.13812 0.12957 0.082875 0.10474 0.0028056 0.037826 0.0013258 0.063145 
0.1003 0.068078 0.025988 0.079916 -0.045039 -0.0068948 -0.019226 0.06183 
0.004943 -0.031064 -0.059836 0.045224 -0.027282 0.022371 -0.0021268 0.048348 
-0.10324 -0.1016 -0.046683 0.035195 0.039799 0.044238 0.011355 -0.0070593 
-0.070523 -0.014622 0.02122 0.060515 0.1031 0.071695 0.038319 0.023851 
0.057391 0.10359 0.10491 0.11674 0.11757 0.062488 0.042429 0.08156 
0.20586 0.17232 0.13417 0.15209 0.090109 0.091425 0.058213 0.10162 
0.16278 0.1465 0.098823 0.14289 0.059035 0.069886 0.047526 0.0689 
0.00050378 0.077614 0.038483 0.09833 0.025824 0.038483 0.037168 -0.0088678 
-0.021363 0.029605 0.0095465 0.060022 0.0026412 0.00033937 -0.010183 -0.062302 
-0.041751 -0.022843 0.026974 0.057884 -0.0026201 -0.024323 -0.030242 -0.0083746 
-0.14303 -0.10258 -0.019226 0.0227 -0.026789 -0.019226 -0.015938 -0.0068948 
-0.059014 -0.033859 -0.034845 0.01004 -0.028104 -0.0016336 -0.024652 0.011026 
0.089616 0.047526 -0.025802 0.040785 -0.014787 0.0036276 -0.018568 0.07301 
0.11839 0.11428 0.029605 0.071202 0.018425 0.042594 0.027632 0.11888 
0.074326 0.095042 0.031085 0.073339 0.032071 0.05772 0.029441 0.093891 
0.030098 0.041772 0.033551 0.077778 0.047033 0.030263 0.012013 0.068078 
0.052623 0.061501 0.041607 0.08008 0.02829 0.02829 0.0060938 0.021056 
0.075148 0.11378 0.041278 0.080409 0.034537 0.027632 -0.0004827 -0.010512 
0.060186 0.063145 0.029605 0.073504 0.036675 0.017274 -0.0036066 -0.01939 
0.057391 0.020398 0.024344 0.06183 0.03092 0.052294 0.016616 -0.012649 
0.019247 -0.0049219 0.041772 0.063968 0.011191 0.056898 0.028454 -0.0082102 
0.023357 0.012177 0.067256 0.082711 0.011355 0.033058 0.017603 0.009711 
0.038155 0.056733 0.041278 0.087808 0.029934 0.057555 0.027961 0.012506 
0.022371 0.04917 0.030263 0.10474 0.025988 0.05624 0.030592 -0.0014692 
0.035853 0.055747 -0.012978 0.053774 0.033387 0.040292 0.03651 0.0042853 
0.023028 0.041278 -0.028926 0.029276 0.024179 0.066434 0.043087 0.019411 
-0.0088678 0.032564 -0.038956 0.014643 0.0095465 0.039141 0.028619 0.11329 
0.027632 0.031414 0.01004 0.03799 0.033058 -0.010019 0.009711 0.23545 
0.0046141 0.033551 0.051965 0.067913 0.070215 -0.018733 -0.018239 0.24071 
0.019905 0.076463 0.069229 0.099316 0.068242 -0.0019624 -0.023829 0.19451 
0.14486 0.1368 0.066434 0.098001 0.021384 0.070051 0.027632 0.081724 
0.20964 0.083862 0.050814 0.08156 0.00017495 0.036017 0.011355 -0.0073881 
0.060679 0.0082312 0.047362 0.073997 0.019576 0.021713 -0.0050863 -0.064768 
-0.032708 0.056404 0.048019 0.099316 0.015794 -0.010183 -0.033201 -0.2111 
0.049006 0.17971 0.070215 0.14124 0.021056 -0.073482 -0.080552 -0.27259 
0.067256 0.21457 0.10359 0.14305 0.012177 -0.067235 -0.078908 -0.15191 
-0.026131 -0.0021268 -0.012814 0.073504 0.0080668 -0.036983 -0.060658 0.020398 
-0.059836 -0.22984 -0.11919 -0.017911 -0.0040998 0.0088889 -0.028762 0.11905 
0.00050378 -0.11755 -0.045696 -0.0057439 0.034537 0.06479 0.027961 0.18514 
0.069722 -0.013965 0.016616 0.03799 0.066105 0.1539 0.090603 0.13943 
-0.064933 0.02122 0.068571 0.078765 0.092411 0.13483 0.095371 0.0324 
-0.12314 0.088136 0.061172 0.084684 0.05476 0.05476 0.069064 0.026152 
-0.028433 0.071531 0.054267 0.076956 0.0092177 0.0095465 0.0082312 0.05213 
0.0324 -0.0095255 0.01267 0.058213 -0.028433 0.0088889 -0.0067304 0.016288 
0.038319 0.017767 -0.0068948 0.066269 -0.015773 0.020891 0.010533 -0.025967 
0.053609 0.058049 0.047526 0.10359 0.0088889 -0.0091966 -0.015773 0.0042853 
0.10441 0.13483 0.056898 0.10228 0.035031 -0.041422 -0.041257 0.1026 
0.10737 0.12677 0.053938 0.096521 0.016945 -0.073976 -0.064604 0.1128 
0.071695 0.083368 0.032236 0.082546 0.0090533 -0.057534 -0.080881 0.03651 
0.076299 0.1105 0.023028 0.069064 0.026481 -0.00064712 -0.041586 -0.023994 
0.068078 0.083533 0.067749 0.095699 0.065776 0.051143 0.004943 -0.037969 
0.0026412 0.05065 0.070873 0.099974 0.085835 0.043745 0.01711 -0.075291 
-0.049971 0.027796 0.05476 0.085012 0.056404 -0.0077169 -0.011334 -0.093048 
-0.024323 -0.020377 0.020398 0.0592 0.019905 -0.00081153 -0.022514 -0.028762 
0.042594 0.0072447 0.020398 0.056569 -0.022679 -0.00031829 -0.021856 0.058542 
0.069722 0.067256 0.017932 0.070873 -0.025145 0.065118 0.030592 0.16804 
0.05476 0.046211 0.027632 0.095042 0.025659 0.10935 0.062488 0.12743 
0.049006 0.066105 0.033387 0.086657 0.03947 0.11395 0.0786 0.099974 
0.024344 0.037332 0.02122 0.072353 0.045389 0.048513 0.059035 0.062323 
0.0059294 -0.012156 0.00066819 0.053445 0.045389 -0.0027845 -0.0032777 0.054103 
-0.039778 -0.010348 -0.006566 0.040456 0.0324 -0.03764 -0.038791 0.048348 
-0.020541 -0.031228 -0.019719 0.025988 0.023193 -0.01676 -0.022514 0.0080668 
0.022864 -0.0044286 0.0031344 0.029934 0.009711 0.0052718 -0.022185 -0.02498 
0.047033 0.048841 0.03536 0.057884 0.019247 0.0095465 -0.0138 -0.022185 
0.046046 0.077943 0.051801 0.07301 0.022864 0.033222 0.013328 -0.027775 
0.025659 0.095042 0.060844 0.085177 0.047526 0.04506 0.017274 0.00099702 
-0.017417 0.028947 0.0088889 0.078272 0.090274 0.022042 0.013164 0.069558 
0.057227 0.007738 0.007738 0.083368 0.069558 0.063639 0.038483 0.11658 
0.1174 0.036182 0.022371 0.075805 0.051801 0.064132 0.038483 0.090109 
0.096521 0.042594 0.035688 0.077285 0.046704 0.043909 0.0227 0.039963 
0.031578 -0.011663 0.0046141 0.055582 0.0047785 0.0075736 -0.00081153 -0.018239 
-0.047176 0.017603 0.0013258 0.04506 -0.020706 -0.034845 -0.039778 -0.044217 
