0.025659 0.042758 0.037168 0.078107 0.031907 -0.018404 -0.012649 0.027139 
-0.067564 -0.12774 0.0093821 0.050979 0.089287 0.05772 0.010697 0.041936 
0.020891 -0.064604 0.10113 0.083533 0.19846 0.12924 0.083204 0.11214 
0.20569 0.18448 0.11099 0.15883 0.26866 0.17511 0.1368 0.10918 
0.23315 0.23216 0.092904 0.14519 0.1909 0.10425 0.090109 0.085012 
0.14552 0.10014 0.025001 0.093398 0.10524 0.013657 0.020562 0.0046141 
0.046211 0.063639 0.092576 0.12513 0.10573 0.048677 0.0324 0.024344 
0.086657 -0.017417 0.15949 0.1733 0.081067 0.027468 0.013328 0.030427 
0.1613 -0.081539 0.13894 0.17758 -0.026953 -0.033859 -0.031392 0.035524 
0.14996 -0.036489 0.052459 0.12003 -0.094034 -0.046519 -0.06444 0.010369 
-0.036325 0.02829 -0.01117 0.056076 -0.099624 -0.050136 -0.074469 -0.0049219 
-0.36252 0.088958 -0.003771 0.041772 -0.060329 0.021549 -0.017088 -0.011827 
-0.46396 0.10359 0.084519 0.092904 -0.064275 0.053116 0.009711 -0.052602 
-0.19794 0.055254 0.11855 0.13878 -0.048985 0.036017 0.014479 -0.018075 
0.10096 -0.03501 0.026974 0.12135 -0.026624 0.031249 0.034702 0.06479 
0.12825 -0.2083 -0.14648 -0.013636 -0.029584 0.024015 0.010369 0.042594 
0.075476 -0.35282 -0.25565 -0.13777 -0.045368 -0.041915 -0.039284 -0.0088678 
0.19369 -0.21833 -0.26026 -0.18413 -0.11278 -0.10406 -0.094199 -0.041093 
0.28182 -0.040764 -0.16046 -0.13859 -0.073154 -0.073811 -0.092061 0.009711 
0.2001 0.050814 -0.011498 -0.028597 -0.0034422 0.0014903 -0.038791 0.072353 
0.086163 0.12595 0.072846 0.064132 0.06594 0.090767 0.033551 0.098988 
-0.035996 0.16722 0.077614 0.088136 0.085506 0.090767 0.055747 0.054925 
-0.047669 0.18432 0.058871 0.080902 0.047855 0.064132 0.047691 0.032564 
-0.0034422 0.083697 0.018589 0.059035 0.023686 0.082382 0.042758 0.014972 
-0.035832 -0.028762 -0.029748 0.03799 -0.0044286 -0.013965 -0.0138 -0.024652 
-0.07973 -0.11656 -0.0771 0.017274 -0.02794 -0.084498 -0.074962 -0.043888 
-0.06296 -0.19054 -0.05178 0.0047785 0.0067515 -0.019061 -0.049807 -0.0036066 
-0.055397 -0.1501 0.068736 0.077449 0.059364 0.055089 0.0059294 -0.0059084 
-0.12346 -0.096007 0.147 0.1516 0.12661 0.093233 0.06183 -0.035832 
-0.12922 0.034537 0.15883 0.18646 0.1904 0.071202 0.049828 -0.043559 
0.032564 0.24532 0.14289 0.18284 0.17232 0.018425 0.017603 0.029112 
0.22279 0.43045 0.18383 0.21276 0.15982 -0.0011404 0.025659 0.11231 
0.34906 0.36517 0.23348 0.24548 0.1784 0.11017 0.063145 0.15785 
0.36616 0.2006 0.26488 0.27113 0.19764 0.16936 0.12365 0.18087 
0.2052 0.085506 0.21704 0.25255 0.13647 0.13943 0.12612 0.14601 
0.01152 -0.025638 0.012999 0.13697 -0.0029489 0.050979 0.049828 0.063474 
-0.067728 -0.083676 -0.15109 0.0093821 -0.075949 -0.018239 -0.011992 -0.033201 
-0.11689 -0.194 -0.19498 -0.090746 -0.12182 -0.016266 -0.032872 -0.082525 
-0.098802 -0.27094 -0.20978 -0.13662 -0.16144 -0.080552 -0.091732 -0.0771 
-0.10784 -0.24957 -0.25434 -0.18068 -0.14056 -0.06148 -0.082525 0.02681 
-0.22968 0.018096 -0.25483 -0.19466 -0.049807 0.011026 -0.040271 0.050157 
-0.19548 0.40891 -0.02942 -0.054739 0.043909 0.045224 0.00297 0.0098754 
-0.047176 0.64451 0.17791 0.11559 0.055089 0.0052718 -0.010512 -0.014787 
0.15834 0.60374 0.22345 0.21358 0.0080668 0.0072447 -0.013143 -0.0096899 
0.25617 0.50525 0.14535 0.18251 -0.0044286 0.00066819 -0.02087 -0.020706 
0.2052 0.34216 0.012835 0.096193 0.0031344 0.047526 0.032236 0.00066819 
0.069064 0.17544 -0.068879 0.03651 0.034537 0.089452 0.052787 0.036182 
-0.039449 0.030756 -0.066906 0.026974 0.064132 0.048348 0.03388 0.016452 
-0.008539 -0.16703 0.083862 0.094713 0.081724 -0.029255 -0.016924 -0.0077169 
0.0026412 -0.29281 0.25436 0.22411 0.082546 -0.0503 -0.056548 0.010369 
0.010369 -0.31287 0.38079 0.35087 0.14946 0.074161 0.017767 0.090109 
0.13499 -0.13152 0.35169 0.37093 0.159 0.16525 0.10408 0.19073 
0.14256 -0.061151 0.090274 0.20388 0.081724 0.10704 0.090438 0.11855 
-0.058028 -0.12955 -0.10061 0.026317 0.018096 0.051143 0.041772 -0.012978 
-0.21143 -0.02794 -0.0868 -0.022021 0.04654 0.076463 0.044896 -0.014622 
-0.17295 0.086821 -0.095021 -0.053095 -0.0026201 0.024837 0.011684 0.0080668 
0.031578 0.082875 -0.11837 -0.079566 -0.063782 -0.022021 -0.030242 0.010697 
0.15587 0.0042853 -0.13596 -0.054246 -0.065426 -0.048163 -0.062631 0.015301 
0.2195 0.056076 -0.11459 -0.056548 -0.023994 -0.049478 -0.069043 0.019083 
0.26077 0.12842 -0.040928 -0.015444 0.10655 0.013657 -0.015938 0.082546 
0.28872 0.076299 0.019083 0.035031 0.21128 0.095699 0.041607 0.1322 
0.18514 0.032893 0.010533 0.046375 0.22674 0.11378 0.075476 0.097344 
0.036675 0.15933 0.068078 0.083368 0.16969 0.092411 0.080738 0.05065 
-0.0031133 0.2343 0.17478 0.16196 0.086985 0.0786 0.060022 0.032071 
-0.024816 0.12036 0.24811 0.23298 0.041278 0.040785 0.037661 0.0227 
-0.25138 -0.12527 0.20471 0.22624 -0.012156 0.0019835 0.0054362 -0.023501 
-0.364 -0.13234 0.18448 0.20997 -0.010512 -0.037969 -0.040764 -0.086307 
-0.16555 0.069064 0.20208 0.23923 -0.011992 -0.058356 -0.067235 -0.12511 
-0.031557 0.27425 0.21704 0.27409 -0.023994 0.0016547 -0.02942 -0.047012 
-0.13727 0.21704 0.10573 0.19583 -0.028762 0.031249 0.0014903 -0.049971 
-0.15848 0.0059294 -0.010348 0.092247 -0.041586 0.034866 0.0093821 -0.048163 
-0.041093 -0.045532 -0.081045 0.021713 -0.065755 0.038155 -0.0075525 0.0037921 
0.014479 -0.041093 -0.036818 0.014479 0.00033937 0.015137 -0.004593 0.052294 
0.042594 0.038812 0.028947 0.054103 0.058377 0.019083 -0.0032777 0.061666 
0.16722 0.15719 0.041936 0.074654 0.061995 0.069886 0.021056 0.088301 
0.27754 0.20339 -0.025145 0.02829 0.0083956 0.036675 0.014972 0.11198 
0.30451 0.17051 -0.048985 -0.003771 -0.033365 -0.0004827 -0.00097594 0.12908 
0.19451 0.063968 -0.0098543 0.011684 -0.0031133 -0.0027845 -0.020541 0.1391 
0.055582 -0.12889 -0.0072237 0.0324 0.018918 -0.0082102 -0.033694 0.026317 
0.0092177 -0.31517 -0.066906 0.017274 -0.003771 -0.027118 -0.034352 -0.011498 
0.041607 -0.45361 -0.14237 -0.051944 0.012506 0.0056006 -0.025474 0.0072447 
0.068736 -0.3931 -0.1011 -0.060165 0.00297 0.027796 -0.0031133 0.054432 
0.041936 -0.095185 0.073504 0.053609 0.028125 0.052952 0.0324 0.027139 
-0.0040998 0.098659 0.14437 0.13236 0.020069 0.011684 0.015959 -0.028597 
0.0024767 0.20405 0.11954 0.14667 -0.011334 0.0056006 -0.0039354 -0.053917 
0.13269 0.28017 0.15045 0.17593 0.026974 0.0421 0.010697 0.023522 
0.1641 0.27688 0.1562 0.1858 0.033387 0.053281 0.027632 0.15061 
-0.010512 0.18761 0.098494 0.14469 0.026481 0.040128 0.020891 0.12677 
-0.17098 -0.0039354 -0.059507 0.029276 0.014315 0.022864 0.0019835 0.033551 
-0.13086 -0.075784 -0.17657 -0.061973 -0.010676 -0.0021268 -0.02235 -0.048985 
0.00050378 0.10589 -0.16111 -0.062796 -0.046683 -0.026624 -0.040928 -0.057041 
0.090109 0.27902 -0.076771 -0.04619 -0.059343 -0.012814 -0.035996 0.015465 
0.02533 0.27524 0.045224 0.0421 -0.026624 -0.013471 -0.038791 0.029934 
-0.15141 0.19533 0.23003 0.19172 -0.0047575 -0.023994 -0.034352 0.010533 
-0.14023 0.17856 0.40595 0.35597 0.040785 0.016945 -0.0054151 0.028947 
-0.051287 0.048019 0.39033 0.39855 0.051472 0.080409 0.035031 0.048841 
0.005765 -0.21652 0.18119 0.28182 0.015465 0.0786 0.079422 0.055418 
0.07449 -0.20485 -0.018897 0.10951 -0.05178 0.028125 0.026152 0.061337 
0.26258 0.1539 -0.11146 -0.014458 -0.096829 -0.020706 -0.019719 0.045553 
0.44475 0.50098 -0.073482 -0.026953 -0.087293 -0.015609 -0.021856 0.067913 
0.43702 0.50937 0.053445 0.060844 -0.027775 0.021878 -0.014622 0.079422 
0.27327 0.25551 0.11362 0.1516 0.015465 0.022371 -0.0050863 0.061501 
0.029112 0.0054362 -0.018733 0.072353 -0.016595 -0.020048 -0.031557 0.013986 
-0.10439 0.049664 -0.27226 -0.11903 -0.058521 -0.079072 -0.084169 -0.012814 
-0.099131 0.33443 -0.29281 -0.19268 -0.034845 -0.055232 -0.080717 0.0016547 
0.051143 0.41664 -0.10439 -0.10341 0.054267 0.039634 -0.014293 0.072024 
0.11724 0.25156 0.022206 0.0041209 0.1225 0.10047 0.052952 0.13121 
0.092576 -0.13547 0.057227 0.058213 0.10277 0.098001 0.06742 0.10376 
0.072024 -0.46429 0.053116 0.060844 0.046375 0.07449 0.059528 0.08567 
0.016452 -0.58004 -0.037969 0.015301 0.059364 0.055911 0.038812 0.063639 
-0.0090322 -0.45525 -0.18101 -0.086307 0.027139 0.0085601 0.014643 0.026974 
0.017274 -0.11607 -0.24842 -0.14615 -0.020048 0.0095465 -0.0090322 0.014972 
-0.028269 -0.14237 -0.19942 -0.12379 -0.045696 0.00083261 -0.01939 0.00099702 
-0.080881 -0.33934 0.058213 0.020562 -0.026624 -0.038133 -0.032379 -0.023994 
-0.11689 -0.32356 0.24778 0.1909 0.021713 -0.020048 -0.043395 -0.019061 
-0.19383 -0.10324 0.24022 0.24893 0.082053 -0.0077169 -0.028926 -0.03616 
-0.12544 0.1128 0.24153 0.26685 0.1105 0.035524 0.0052718 -0.023007 
0.093891 0.23282 0.15407 0.21901 0.12365 0.039963 0.01152 0.057062 
0.27162 0.28954 0.025659 0.11592 0.098166 0.032236 0.014315 0.1077 
0.21408 0.16558 -0.10883 -0.013471 0.085506 0.066763 0.02533 0.071366 
0.070544 0.065776 -0.15552 -0.088608 0.0069159 0.017274 0.00099702 0.017932 
-0.0036066 0.20372 0.0054362 0.0047785 0.0079024 0.00099702 -0.0077169 0.032729 
-0.068386 0.29283 0.15324 0.15423 0.082382 0.068078 0.027632 0.0062583 
-0.071838 0.27442 0.097015 0.15127 0.079916 0.049006 0.021384 0.036675 
0.048019 0.17593 -0.0083746 0.074983 0.092247 0.019247 0.0080668 0.02829 
0.082053 0.14108 0.023028 0.070051 0.093069 0.067585 0.031742 0.04506 
0.10408 0.1225 0.095371 0.11313 0.11329 0.064461 0.03799 0.052952 
0.14404 0.13121 0.11724 0.12825 0.10606 0.053609 0.044238 0.06035 
0.13138 0.067091 0.059693 0.1026 0.066598 0.027961 0.011684 0.042923 
0.060679 -0.28903 -0.087293 -0.0050863 -0.0026201 -0.017746 -0.028269 0.012342 
-0.0062372 -0.48764 -0.1524 -0.075291 -0.031557 -0.033037 -0.037805 -0.019061 
-0.041915 -0.34164 -0.098144 -0.060329 -0.025309 -0.0055795 -0.031392 -0.0032777 
-0.055561 -0.22376 -0.075784 -0.027775 0.039799 0.028947 -0.0032777 0.0028056 
-0.059178 -0.080388 -0.014787 0.022371 0.055582 0.03651 0.007738 -0.0078813 
-0.069208 0.0070803 0.012013 0.043416 0.026481 0.010204 -0.0080457 0.0082312 
-0.13415 0.043416 0.10129 0.10704 0.028783 -0.034352 -0.035338 0.0087245 
-0.15207 0.12299 0.19188 0.18498 0.020398 0.010533 -0.022843 0.014972 
-0.046354 0.16163 0.1881 0.21276 0.089287 0.044896 0.0054362 0.03799 
0.053281 0.15324 0.14371 0.19517 0.12217 0.061501 0.033222 0.026152 
0.1271 0.1128 0.13483 0.18563 0.10754 0.081724 0.044896 0.047691 
0.16722 0.027961 0.11263 0.16114 0.089123 0.06594 0.040128 0.053116 
0.15275 0.032564 0.08419 0.1276 0.097179 0.052623 0.043087 0.024837 
0.096357 -0.021692 0.042265 0.09274 0.079916 0.036839 0.021056 0.015794 
0.13483 -0.00064712 0.036182 0.089452 0.039634 -0.0034422 -0.0091966 0.023686 
0.17824 0.1368 0.04506 0.11987 0.050486 0.0052718 -0.0090322 0.029276 
0.10211 0.22838 0.034866 0.094713 0.030263 0.043087 0.0051074 0.027961 
-0.047012 0.22526 0.049499 0.08304 0.027961 0.029112 0.0075736 0.026152 
-0.14796 0.23989 0.15061 0.15489 0.031578 0.035524 0.020562 0.0034632 
-0.1455 0.2782 0.15587 0.1784 0.048348 0.024673 0.0054362 0.016945 
-0.11903 0.27179 0.10507 0.14848 0.019905 0.012999 -0.0042642 0.021384 
-0.12478 0.22822 -0.013471 0.069886 -0.019555 0.026646 -0.0044286 0.0070803 
-0.090581 0.20306 -0.066906 0.0034632 -0.032379 -0.012485 -0.028433 0.016452 
0.060844 0.10737 -0.07562 -0.034188 -0.021363 -0.014129 -0.033037 0.048841 
0.15883 -0.022021 -0.034681 -0.01939 -0.009361 0.01152 -0.024487 0.025659 
0.14453 -0.0042642 0.054267 0.058871 0.0098754 -0.0004827 -0.025638 0.041114 
0.079422 0.078107 0.17478 0.18794 0.047526 0.031085 -0.001798 0.010862 
0.062652 0.024508 0.19073 0.20816 0.040128 0.069558 0.01152 0.010697 
0.017932 0.079258 0.032071 0.12003 0.004943 0.023028 0.0034632 0.034044 
0.066434 0.31338 -0.10439 -0.0049219 0.039799 0.00297 -0.0096899 0.07449 
-0.045532 0.19435 -0.22787 -0.11886 0.0019835 0.012835 -0.017746 0.051472 
-0.13991 -0.18052 -0.25434 -0.17805 -0.0072237 -0.023501 -0.041422 0.010533 
-0.075784 -0.36219 -0.1815 -0.14632 0.020562 -0.021199 -0.019061 -0.015938 
0.025495 -0.2402 -0.0138 -0.044874 0.058871 0.0095465 -0.012978 0.038319 
0.097344 -0.015938 0.055418 0.026152 0.012506 0.042758 0.010697 0.054925 
0.15653 0.044402 -0.024816 0.0088889 -0.0014692 0.0042853 0.0031344 0.037661 
0.17939 0.10573 -0.074304 0.0019835 0.02681 0.051143 0.03388 0.084355 
0.12579 0.1322 0.035195 0.078107 0.08008 0.083204 0.053609 0.06479 
0.044567 0.11329 0.29185 0.24466 0.10737 0.088465 0.06742 0.046868 
0.064132 0.17281 0.50608 0.43472 0.073668 0.059364 0.045224 0.034044 
0.055418 0.26422 0.48799 0.48635 0.013164 0.02829 0.023193 0.059693 
0.044896 0.32818 0.19106 0.31963 -0.037147 0.0046141 -0.0060728 -0.015444 
0.034537 0.18037 -0.15125 0.044567 -0.076113 -0.031886 -0.04323 -0.034188 
0.0052718 -0.09798 -0.34427 -0.16769 -0.031228 -0.025802 -0.041915 0.009711 
-0.046354 -0.039613 -0.24168 -0.1838 0.016123 0.028783 -0.016102 0.056569 
-0.087458 0.12299 -0.011992 -0.058192 0.050486 0.05213 0.012177 0.08419 
-0.12741 -0.094856 0.043251 0.030427 0.045553 0.033222 0.01711 0.042429 
-0.13941 -0.55341 -0.1963 -0.083347 -0.012978 0.023193 -0.0036066 -0.01939 
-0.13284 -0.81071 -0.49981 -0.28179 -0.040106 -0.027282 -0.037969 -0.02498 
-0.032872 -0.52759 -0.39738 -0.31994 -0.041915 -0.027118 -0.025145 -0.028926 
0.075476 -0.066741 -0.1011 -0.14763 0.00099702 -0.0044286 -0.032215 -0.0036066 
0.1031 0.14568 0.12398 0.049992 0.049006 0.017767 -0.010841 0.070708 
0.1271 0.16886 0.22789 0.18202 0.1008 0.059857 0.037332 0.085835 
0.13319 0.19122 0.22213 0.23003 0.11559 0.10425 0.062652 0.060844 
0.093891 0.19336 0.24762 0.25337 0.053609 0.050321 0.036017 0.004943 
0.08978 0.15061 0.20947 0.23792 -0.043066 -0.0021268 -0.0067304 -0.048656 
0.099152 0.15144 0.083533 0.15456 -0.098638 -0.046354 -0.043888 0.010369 
0.055089 0.091096 -0.0055795 0.073832 -0.084169 -0.045861 -0.054904 0.097344 
-0.047341 0.023193 -0.027775 0.059528 -0.11048 -0.075949 -0.086471 0.044731 
-0.057534 0.0592 0.073175 0.12184 -0.061973 -0.067564 -0.083018 -0.0019624 
0.065283 0.067256 0.22953 0.22493 0.067749 0.027303 -0.019884 0.024015 
0.14568 0.08567 0.28691 0.29365 0.17692 0.1322 0.05624 0.061995 
0.22361 0.16969 0.30467 0.32884 0.21638 0.14815 0.10293 0.10556 
0.16196 0.23627 0.29217 0.32851 0.1419 0.10836 0.10211 0.10458 
0.11494 0.24219 0.20158 0.27392 0.079094 0.074654 0.060515 0.08156 
0.11444 0.14667 0.10951 0.1955 0.050321 0.024179 0.017438 0.10244 
0.07301 0.029605 0.11362 0.15982 0.0095465 0.0088889 0.015465 0.070544 
-0.02498 -0.047012 0.23068 0.22328 0.043745 0.04506 0.014643 0.010533 
-0.22145 -0.089595 0.17149 0.21737 0.05476 0.051308 0.023193 -0.054246 
-0.32882 -0.25516 -0.24579 -0.017582 -0.03353 0.0421 0.046211 -0.13349 
-0.23543 -0.49274 -0.58267 -0.34213 -0.10028 -0.041422 -0.027775 -0.078415 
-0.049971 -0.30218 -0.53105 -0.42319 -0.12905 -0.06148 -0.054904 0.0075736 
0.10704 0.17396 -0.30481 -0.31583 -0.071345 -0.031392 -0.056383 0.046046 
0.036017 0.24729 -0.0016336 -0.089102 -0.081539 -0.045368 -0.078415 0.025824 
0.10277 0.19188 0.30237 0.18004 -0.004593 -0.0052507 -0.038627 0.060679 
0.30418 0.15966 0.36238 0.31963 0.049499 0.054103 0.0080668 0.14289 
0.37274 0.15949 0.20355 0.2611 0.021384 0.028454 0.0067515 0.15785 
0.27047 0.22559 0.14486 0.22296 0.030756 0.016123 -0.0029489 0.12776 
0.051965 0.095535 0.21227 0.23627 0.035853 0.043087 0.0046141 0.046046 
-0.22655 0.14897 0.36616 0.35465 0.10129 0.079422 0.035031 -0.11656 
-0.32931 0.38556 0.4676 0.48141 0.15785 0.08978 0.067749 -0.16539 
-0.16177 0.3678 0.28445 0.38079 0.13154 0.060022 0.047526 -0.1404 
0.013986 -0.0068948 -0.14089 0.083697 0.072188 0.058706 0.03799 -0.017417 
0.14749 -0.21866 -0.43618 -0.21323 0.054925 0.080902 0.07301 0.081724 
0.20799 -0.10538 -0.3663 -0.26881 0.01004 0.082382 0.062488 0.11576 
0.2121 0.27869 -0.13432 -0.15487 0.034209 0.031907 0.029769 0.18333 
0.11181 0.39148 0.050979 -0.0032777 -0.029584 -0.017746 -0.0080457 0.1544 
0.030427 0.26143 0.21441 0.14502 -0.076606 -0.037476 -0.048327 0.034866 
0.005765 0.1345 0.26685 0.232 -0.054082 -0.014787 -0.038627 -0.013471 
-0.024158 0.074326 0.24318 0.25452 -0.036489 0.020233 -0.014951 -0.013143 
-0.038133 0.14831 0.17117 0.25074 -0.019719 0.00066819 -0.02498 -0.018733 
-0.098473 0.058377 0.069064 0.1927 -0.014951 -0.018897 -0.035503 -0.020048 
-0.13366 -0.17558 0.025824 0.11642 0.031578 0.038977 1.0539e-005 -0.041093 
-0.017911 -0.19663 0.092247 0.13713 0.10819 0.0592 0.022371 0.0028056 
0.075805 -0.19482 0.034209 0.10014 0.10721 0.046375 0.028619 0.04654 
0.11346 -0.16161 -0.13284 -0.018897 0.11181 0.051472 0.02681 0.055582 
0.17544 -0.034188 -0.11031 -0.046354 0.14798 0.060186 0.033058 0.084684 
0.18909 0.022042 -0.054246 -0.024487 0.14437 0.088136 0.070215 0.10014 
0.087479 0.075805 -0.109 -0.061151 0.07038 0.053609 0.030427 0.051308 
-0.058028 0.17232 -0.20337 -0.14155 -0.025474 -0.0072237 -0.0090322 0.0026412 
-0.056712 0.19583 -0.16901 -0.14023 -0.042737 -0.027775 -0.021692 0.020562 
0.045389 0.21523 -0.055232 -0.049478 -0.0503 -0.016266 -0.032379 0.032071 
0.086821 0.23693 0.059528 0.076956 -0.035832 0.00297 -0.021856 0.043416 
0.074161 0.16623 0.063803 0.094877 0.0016547 0.01826 -0.010512 0.032564 
0.047362 0.13976 -0.059836 0.023686 0.0079024 0.0060938 -0.017746 -0.02942 
0.01152 0.097837 -0.25006 -0.11985 0.0062583 -0.0073881 -0.023994 -0.057863 
-0.017088 -0.059836 -0.38916 -0.26305 -0.036818 -0.006566 -0.02646 -0.032379 
-0.018568 -0.17065 -0.35216 -0.28492 -0.03912 -0.024816 -0.040928 -0.0060728 
-0.021199 -0.23346 -0.081703 -0.12955 -0.0064016 -0.020212 -0.039449 0.063639 
0.049006 -0.18167 0.21243 0.12069 0.06331 0.028125 -0.009361 0.17758 
0.16475 0.0095465 0.27376 0.22559 0.097015 0.041607 0.0064227 0.17988 
0.12875 -0.014951 0.12365 0.18498 0.099316 0.065612 0.038155 0.13779 
0.049992 -0.27127 0.041278 0.12431 0.083533 0.050814 0.020233 0.0018191 
-0.0090322 -0.48041 0.058871 0.1562 0.053609 0.018754 -0.0022913 -0.073647 
-0.00031829 -0.37617 0.31766 0.29135 0.054596 -0.01528 -0.0044286 -0.027775 
0.0075736 0.11543 0.52005 0.45741 0.087314 0.032893 -0.00081153 0.034373 
0.026152 0.41384 0.40118 0.44541 0.10491 0.067091 0.030427 0.04358 
-0.026789 0.56379 0.14831 0.27853 0.08156 0.069064 0.061337 0.081231 
-0.038956 0.63958 -0.015938 0.11642 0.0039565 0.03536 0.025495 0.038812 
0.0070803 0.39214 -0.10176 0.0044497 -0.02942 -0.030899 -0.027775 0.025166 
0.076792 0.047197 -0.19038 -0.09946 -0.037311 -0.021856 -0.031064 0.050157 
0.12299 -0.11031 -0.19778 -0.13859 0.016452 0.0028056 -0.023501 0.044567 
0.17034 -0.11672 -0.12445 -0.1085 0.071037 0.027961 -0.0021268 0.0592 
0.15982 -0.044381 -0.12314 -0.086307 0.11066 0.025166 -0.0090322 0.084026 
0.066763 -0.0090322 -0.11376 -0.051287 0.082053 -0.0082102 -0.026789 0.027796 
-0.0080457 -0.043395 -0.064933 -0.033201 0.043251 -0.021363 -0.037147 0.0023123 
-0.018568 -0.12494 -0.038956 -0.0059084 0.074326 0.040128 -0.0011404 0.027139 
0.02533 -0.14796 0.0031344 0.028125 0.069558 0.053938 0.020727 0.052294 
0.052787 -0.010676 0.024673 0.048513 0.045882 0.017932 0.0036276 0.036346 
0.048841 0.13631 0.060186 0.08008 -0.017582 0.041114 0.0060938 0.050486 
0.044238 0.2246 0.064954 0.087314 -0.021199 0.0059294 -0.01939 0.03388 
0.021713 0.21556 0.013328 0.055089 -0.03057 -0.035667 -0.031886 -0.0095255 
-0.029748 0.055418 -0.042244 0.0024767 -0.045203 -0.032215 -0.060823 -0.050793 
-0.0088678 -0.075784 -0.031886 0.0059294 -0.019555 -0.019061 -0.045861 -0.016924 
0.036839 -0.041586 -0.026953 0.037004 0.034866 0.0069159 -0.0096899 0.048348 
0.05624 0.067749 0.043745 0.094548 0.037332 0.050979 0.011026 0.032893 
0.094384 0.1493 0.1008 0.12792 0.072188 0.051965 0.025824 0.051801 
0.065447 0.13795 0.1516 0.16969 0.086492 0.090603 0.062159 0.068242 
-0.0016336 0.039305 0.22674 0.22937 0.078272 0.010204 0.012999 -0.00081153 
-0.071181 -0.024816 0.2149 0.24088 0.042429 -0.0503 -0.045039 -0.036983 
-0.076606 -0.036654 0.20388 0.24548 0.073339 -0.015116 -0.041257 -0.0044286 
-0.010841 0.0042853 0.11461 0.1807 0.1128 0.048348 0.005765 0.049335 
0.042594 0.070215 0.037661 0.10244 0.12546 0.089452 0.050979 0.05772 
0.021713 0.029934 0.11855 0.1276 0.090767 0.076627 0.051636 0.0075736 
0.036346 0.17182 0.2754 0.25255 0.061172 0.059035 0.039799 -0.012485 
0.080738 0.33147 0.16508 0.25403 0.063474 0.056569 0.037332 0.029441 
0.10063 0.34627 -0.077757 0.071366 0.0028056 0.050814 0.029934 0.031414 
0.069886 0.19599 -0.1815 -0.062467 -0.056877 -0.039942 -0.035338 -0.015773 
0.093562 0.028947 -0.19071 -0.1113 -0.090581 -0.07825 -0.064768 0.0064227 
0.10392 -0.082032 -0.17427 -0.12412 -0.066906 -0.040106 -0.061809 0.038483 
0.096521 -0.069865 -0.23 -0.16062 -0.0026201 0.020398 -0.022679 0.021056 
0.050979 -0.10489 -0.22869 -0.17394 0.020891 0.073997 0.043251 0.0014903 
-0.033201 -0.095021 -0.14665 -0.13974 0.030263 0.021056 0.01415 -0.013143 
-0.20649 -0.033365 -0.074962 -0.085156 0.017603 -0.0082102 -0.016431 -0.03912 
-0.28212 -0.093212 -0.044052 -0.038791 0.02533 0.028454 0.0018191 -0.033201 
-0.16605 0.0067515 0.091753 0.078765 0.042923 0.058049 0.024673 -0.044217 
-0.11031 0.15012 0.28313 0.25978 0.030263 0.036017 0.019247 -0.038462 
-0.069208 0.14552 0.33772 0.33262 0.016123 0.061008 0.015301 0.032893 
0.024179 0.1105 0.27014 0.31914 -0.029913 0.023028 0.0047785 0.051965 
0.11674 0.092904 0.23825 0.29645 -0.014458 0.017767 0.0028056 0.066763 
0.18909 0.072846 0.32012 0.34347 0.039634 0.035031 0.005765 0.076792 
0.20372 0.052294 0.2366 0.30187 0.079916 0.041278 0.0098754 0.06594 
0.21293 -0.086307 -0.00097594 0.1345 0.097344 0.040621 0.015794 0.047197 
0.16426 -0.24677 -0.20156 -0.047505 0.093233 0.074161 0.030756 0.08715 
0.078929 -0.097816 -0.25023 -0.15717 0.041772 0.031578 0.012835 0.071531 
0.027139 0.1003 -0.16358 -0.1404 0.044731 0.015301 0.017438 0.048348 
-0.028762 0.17955 -0.089595 -0.069536 0.020069 0.013821 -0.0067304 0.042923 
-0.060823 0.021713 -0.11968 -0.044217 -0.03912 -0.030735 -0.036325 0.020891 
-0.05737 -0.16095 -0.19926 -0.11524 -0.085813 -0.03205 -0.03057 -0.02498 
-0.026131 -0.0062372 -0.063289 -0.0503 -0.047341 0.0021479 -0.022679 -0.01117 
-0.050629 0.077121 0.069558 0.055582 -0.029255 0.01152 -0.014622 -0.056548 
-0.1062 -0.034023 0.11921 0.1174 -0.013471 0.059035 0.02681 -0.06444 
-0.087458 0.0227 0.2537 0.23216 0.043087 0.090438 0.056898 -0.048656 
0.0044497 0.082053 0.39049 0.35695 0.056569 0.07449 0.054925 0.013657 
0.055582 0.11263 0.25469 0.30352 0.037332 1.0539e-005 0.029605 0.075312 
0.043745 0.085506 0.03799 0.14749 -0.037969 -0.048163 -0.037969 0.05772 
0.06035 -0.098144 -0.13645 -0.019719 -0.032379 -0.060987 -0.066741 0.033715 
0.077449 -0.15684 -0.27423 -0.13251 -0.021856 -0.0078813 -0.046354 0.062323 
0.070708 -0.15026 -0.33342 -0.2111 0.013492 0.011026 -0.027282 0.043251 
0.015959 -0.017417 -0.23494 -0.19433 0.034209 0.0032988 -0.020048 0.026974 
0.087643 0.2833 0.012506 -0.028926 0.047526 0.017932 -0.0082102 0.053281 
0.15308 0.46728 0.26373 0.1835 0.091096 0.034866 0.0036276 0.061666 
0.1396 0.39132 0.34265 0.3027 0.072024 0.047691 0.037168 0.073997 
0.056733 0.13812 0.19994 0.25765 0.013492 0.057062 0.029112 0.088794 
-0.016266 -0.089102 0.15653 0.22526 0.011355 0.023686 0.010533 0.051308 
-0.10127 -0.31912 0.13565 0.19007 0.018754 -0.0091966 -0.0060728 -0.024652 
-0.10357 -0.36038 0.15094 0.1858 0.089945 0.037332 0.0095465 -0.046847 
0.038155 -0.15914 0.21704 0.23233 0.14387 0.092411 0.051965 -0.018239 
0.11329 -0.024158 0.27606 0.30763 0.15094 0.097344 0.074161 0.024837 
0.054267 -0.085485 0.20783 0.28609 0.10573 0.055582 0.049828 0.095864 
0.014479 -0.087951 -0.045861 0.11231 0.11559 0.025988 0.029769 0.17281 
0.069064 0.00297 -0.086636 0.023193 0.11987 0.090109 0.059364 0.1613 
0.1853 0.20142 -0.021692 0.023686 0.12266 0.088465 0.066269 0.12201 
0.15637 0.37866 -0.015116 0.020891 -0.0022913 0.058049 0.044896 0.053281 
0.10639 0.43258 -0.1381 -0.060658 -0.095185 -0.00064712 -0.012978 0.012342 
0.027139 0.45462 -0.17016 -0.11146 -0.17575 -0.12955 -0.11097 -0.069701 
-0.008539 0.47106 -0.13136 -0.1039 -0.14928 -0.15372 -0.15224 -0.10308 
0.016781 0.31897 0.032071 0.0067515 -0.068386 -0.061151 -0.11689 -0.047669 
0.06331 0.064625 0.1539 0.12332 0.051308 0.021713 -0.035503 0.0051074 
0.068407 -0.17032 0.13812 0.18202 0.10885 0.066269 0.024344 0.06183 
0.043745 -0.25319 0.17429 0.22559 0.063145 0.093398 0.052952 0.076627 
0.023686 -0.19712 0.16919 0.21474 0.012177 0.05624 0.04095 0.078107 
0.012013 -0.26585 0.085835 0.16031 0.01415 0.02122 0.025166 0.059364 
0.0052718 -0.36384 -0.11524 0.017603 0.067749 0.036182 0.01267 0.037661 
0.0092177 -0.27193 -0.23822 -0.11853 0.11625 0.017438 0.0032988 0.04095 
0.015959 -0.028597 -0.25302 -0.17213 0.10704 0.020891 0.011355 0.047526 
0.037826 0.32522 -0.11738 -0.11574 0.10655 0.029276 0.0093821 0.044073 
0.047033 0.48289 -0.052109 -0.065919 0.12316 0.041772 0.010204 0.029605 
0.048348 0.28724 -0.15618 -0.10752 0.081395 0.061337 0.02829 0.046375 
0.059035 0.058871 -0.069208 -0.050629 0.053116 0.048348 0.024344 0.055418 
0.055911 -0.015116 0.24976 0.19533 0.021384 0.026646 0.01152 0.059528 
0.01152 -0.061645 0.45494 0.38359 -0.012156 0.02681 0.0036276 0.023522 
-0.019555 -0.068714 0.37931 0.4025 -0.022185 0.0079024 -0.0096899 0.022864 
0.10014 -0.0095255 0.40315 0.43735 0.040292 0.05772 0.024344 0.059364 
0.17577 0.16212 0.46432 0.48388 0.10721 0.082053 0.043909 0.10162 
0.13499 0.32276 0.30303 0.39378 0.11954 0.037004 0.024508 0.10392 
0.068078 0.34216 0.16114 0.27327 0.079094 0.01152 0.013986 0.062981 
0.081067 0.27902 0.073175 0.1784 0.042265 0.027961 0.0047785 0.024179 
0.053774 0.080738 -0.15914 -0.02087 -0.026296 -0.014787 -0.024487 -0.013636 
-0.076277 -0.12314 -0.46873 -0.291 -0.090253 -0.04471 -0.042079 -0.043395 
-0.15569 -0.1159 -0.40905 -0.31961 -0.041093 -0.019226 -0.033694 -0.051451 
-0.11903 -0.206 -0.16062 -0.15947 0.0054362 -0.0077169 -0.029584 -0.026296 
-0.011334 -0.29133 -0.1136 -0.10653 -0.0054151 0.01004 -0.011992 0.010862 
0.095042 -0.068714 -0.037805 -0.035832 0.0032988 0.02122 -0.0095255 0.033387 
0.11362 0.23496 0.17429 0.12316 0.031907 0.034373 0.0046141 0.034537 
0.079258 0.37372 0.25535 0.23003 0.056076 0.051472 0.017603 0.022042 
0.1003 0.36896 0.11181 0.17593 0.055911 0.014643 0.0031344 0.045389 
0.18103 0.24449 0.11559 0.1659 0.052952 0.01267 -0.0059084 0.06594 
0.19353 0.19977 0.12102 0.15982 0.038155 0.0098754 -0.0075525 0.062652 
0.10343 0.24269 0.079916 0.13993 0.0083956 0.014643 -0.0098543 0.070708 
-0.071345 0.071859 0.059528 0.11099 -0.012156 -0.0091966 -0.015116 -0.0057439 
-0.22672 -0.14846 -0.13366 -0.009361 -0.0024557 0.023357 -0.010512 -0.0032777 
-0.18808 -0.46939 -0.3224 -0.13366 0.014808 0.0064227 -0.019061 0.0059294 
0.012999 -0.59911 -0.34115 -0.23263 0.019083 0.026317 0.015959 -0.0070593 
0.1544 -0.22441 -0.20863 -0.19285 0.025659 0.040292 0.024015 0.014315 
0.13203 0.32292 -0.10225 -0.10752 -0.031392 -0.0044286 -0.011334 0.01974 
0.038319 0.51759 -0.062467 -0.053588 -0.070359 -0.031228 -0.023994 -0.020048 
-0.063618 0.4487 -0.032215 -0.01528 -0.049971 0.0013258 -0.027447 -0.013636 
0.024344 0.3678 0.053281 0.058706 -0.009361 0.026317 -0.0060728 0.031249 
0.083204 0.20306 0.13154 0.12431 0.014972 0.044238 0.017274 0.037826 
0.055911 -0.090253 0.03947 0.079587 -0.0068948 0.013492 -0.0019624 0.036675 
-0.018404 -0.36301 -0.082196 -0.0026201 0.0064227 -0.00064712 -0.015938 0.019411 
-0.058356 -0.23033 0.16607 0.15999 0.081889 0.050979 0.0093821 0.0051074 
0.0046141 0.11083 0.42206 0.38507 0.14963 0.12612 0.071366 0.033387 
0.018754 0.23298 0.27951 0.33739 0.13236 0.10425 0.078765 -0.042737 
-0.049642 0.079916 0.067585 0.18481 0.05065 0.077285 0.060679 -0.047341 
-0.0019624 -0.00064712 -0.045203 0.06742 -0.001798 0.044731 0.036182 0.029276 
0.064132 -0.011005 0.0042853 0.058377 -0.036654 -0.003771 0.014479 0.066269 
0.093069 0.038977 0.012835 0.055254 -0.062302 -0.02498 -0.030406 0.064625 
0.069393 -0.03205 0.055582 0.078436 -0.022185 -0.040928 -0.052931 0.070873 
0.062323 -0.084169 -0.076606 0.0032988 0.050157 0.0093821 -0.010019 0.048348 
0.078107 -0.032543 -0.18101 -0.10028 0.055747 0.065118 0.022371 0.053938 
0.03947 0.049828 -0.12922 -0.096007 0.024344 0.047362 0.024508 0.045224 
-0.05885 0.06479 -0.083183 -0.031721 0.020233 0.042429 0.029934 0.0013258 
-0.096007 0.026152 -0.047505 0.011026 0.027468 0.052459 0.025659 -0.035338 
-0.10225 -0.0050863 -0.043724 0.00017495 -0.00081153 0.025001 0.0018191 -0.039942 
-0.038133 -0.022679 -0.094034 -0.032872 -0.057534 0.019411 -0.0040998 -0.012814 
0.057227 0.015959 -0.16868 -0.092719 -0.092554 -0.008539 -0.021692 0.035195 
0.091425 0.072681 -0.17147 -0.11327 -0.087622 -0.032872 -0.042079 0.051143 
0.039799 0.072517 -0.14599 -0.10916 -0.052602 -0.001798 -0.039942 0.03651 
0.037661 0.010204 -0.11639 -0.088608 -0.018404 -0.0055795 -0.037147 0.031578 
0.056898 -0.0011404 -0.11903 -0.10012 0.053774 0.049499 0.01711 0.031742 
0.076463 -0.034188 -0.10341 -0.080388 0.069886 0.11937 0.062817 0.048348 
0.069229 -0.096994 -0.0083746 -0.0047575 0.089452 0.10425 0.075312 0.046375 
0.02829 -0.18463 0.072846 0.083533 0.086163 0.077121 0.079422 0.0056006 
-0.032543 -0.19318 0.19172 0.20503 0.10704 0.097837 0.071531 0.015301 
-0.0096899 -0.061809 0.22624 0.244 0.11099 0.086985 0.064461 0.049499 
0.013657 0.027796 0.29135 0.29546 0.047033 0.037661 0.043416 0.019576 
0.031742 0.061995 0.37701 0.36912 0.013657 -0.026953 -0.022021 0.0098754 
0.042923 0.20438 0.3729 0.39115 -0.03353 -0.085649 -0.076277 0.032236 
0.080902 0.35071 0.28971 0.34692 -0.01528 -0.035338 -0.057534 0.05065 
0.11987 0.366 0.14848 0.24762 0.02533 0.047033 0.00099702 0.062323 
0.11707 0.29809 0.012177 0.12003 0.026152 0.05065 0.025495 0.054925 
0.066927 -0.0057439 -0.24677 -0.10078 -0.024652 0.044402 0.019576 0.034044 
0.039141 -0.23855 -0.36943 -0.24793 -0.04882 0.01974 0.0051074 0.07301 
0.054103 -0.20995 -0.20304 -0.16046 -0.044381 -0.0032777 -0.014951 0.11099 
0.03799 -0.11607 0.031907 -0.00081153 -0.031557 -0.013965 -0.016102 0.10639 
-0.042737 0.0098754 0.07597 0.071202 0.018096 -0.030242 -0.040764 0.021878 
-0.15717 0.076627 0.17297 0.16031 0.061172 0.0034632 -0.024652 -0.06707 
-0.14582 0.14124 0.26159 0.24926 0.12299 0.079094 0.025495 -0.02087 
0.024015 0.11132 0.25008 0.27442 0.17955 0.12414 0.084519 0.072517 
0.1174 -0.042408 0.31355 0.32522 0.15686 0.1054 0.1003 0.12283 
0.12694 -0.1205 0.19944 0.25929 0.077121 0.071859 0.064461 0.080738 
0.14058 -0.05737 0.050814 0.14634 0.043909 0.028125 0.026317 0.025824 
0.17807 0.030263 -0.036818 0.053938 0.038977 0.018918 0.018754 0.011355 
0.12447 0.18119 -0.016924 0.039305 0.030427 0.02533 0.0021479 -0.042901 
-0.044217 0.29924 0.09685 0.12792 0.004943 0.0064227 -0.0060728 -0.01528 
-0.10916 0.28165 0.15061 0.16853 0.018918 0.011684 -0.0031133 0.029276 
-0.038627 0.14798 0.079751 0.13647 -0.0096899 -0.018075 -0.027611 0.034537 
0.033222 0.027961 -0.060658 0.038812 -0.044217 -0.039284 -0.047012 0.044896 
0.10162 0.03092 -0.10456 -0.021692 -0.035174 0.0051074 -0.029748 0.0064227 
0.081067 0.098001 0.004943 0.02533 0.0042853 -0.011498 -0.034681 0.010533 
0.011848 0.099316 0.15423 0.13697 0.037661 0.01974 -0.0080457 0.07038 
0.0031344 0.14305 0.1641 0.171 0.10425 0.052294 0.0070803 0.086163 
0.082875 0.24614 0.12694 0.15719 0.096357 -0.003771 -0.015938 0.078765 
0.13056 0.40907 0.20882 0.20142 0.066927 0.0069159 -0.0026201 0.085999 
0.049992 0.37405 0.2486 0.26505 0.069722 0.023357 -0.0047575 0.023028 
-0.023829 0.12053 0.20043 0.28658 0.081889 -0.0016336 -0.018075 -0.014129 
-0.013636 -0.15717 0.11921 0.21013 0.073668 0.019083 0.010697 -0.016266 
-0.041586 -0.31369 0.089945 0.15604 0.020562 0.030756 0.010862 -0.022514 
-0.034681 -0.31238 0.12118 0.16525 0.01004 0.037004 0.015137 0.02829 
-0.023829 -0.31106 0.0059294 0.08978 0.0059294 0.036182 0.029605 0.069722 
-0.086307 -0.40001 -0.25582 -0.10489 -0.020212 -0.027775 -0.029255 0.0036276 
-0.080881 -0.22622 -0.25401 -0.16572 0.0016547 -0.069043 -0.070194 -0.030242 
0.093891 0.27968 -0.033694 -0.058356 0.082382 -0.00031829 -0.033694 -0.001798 
0.16146 0.38227 0.061008 0.029276 0.11 0.057391 0.011684 0.035031 
0.11461 0.26981 -0.0059084 0.024344 0.11017 0.050486 0.026317 0.040621 
0.078107 0.36156 -0.11524 -0.030242 0.063803 0.037004 0.0041209 0.033715 
0.093069 0.4025 -0.17953 -0.072825 0.00017495 -0.0083746 -0.023007 0.073668 
0.15292 0.26291 -0.24102 -0.15191 -0.011498 -0.0011404 -0.018568 0.10639 
0.10359 0.11905 -0.2647 -0.19696 -0.054904 -0.013965 -0.040435 0.073668 
0.062488 0.057884 -0.10258 -0.10686 -0.061973 -0.058192 -0.068386 -0.010676 
-0.0083746 0.022864 0.083368 0.040292 -0.00081153 -0.03501 -0.047341 -0.06855 
0.00066819 -0.065755 0.19977 0.16969 0.083862 0.051143 -0.0049219 -0.049314 
-0.0062372 -0.21998 0.33574 0.29875 0.082546 0.077778 0.03536 -0.034023 
-0.010512 -0.1205 0.30286 0.31914 0.08715 0.075312 0.067913 0.051965 
0.0421 0.10113 0.24219 0.29546 0.10655 0.090931 0.066763 0.1003 
0.058377 0.20125 0.20273 0.25732 0.090767 0.057227 0.046046 0.079422 
0.051636 0.19057 0.055747 0.17577 0.034537 0.00099702 0.019247 0.031578 
0.053609 -0.15454 -0.16029 0.01004 -0.022679 -0.010019 -0.022185 0.00083261 
-0.015609 -0.73179 -0.3959 -0.21586 -0.0868 -0.066741 -0.069536 -0.046354 
-0.06 -0.84853 -0.33474 -0.25302 -0.075949 -0.038133 -0.059672 -0.060329 
-0.010183 -0.46084 0.070708 -0.0138 0.045553 0.012177 -0.029255 -0.052766 
0.046704 -0.01232 0.46432 0.31256 0.064461 0.031578 0.00083261 -0.0052507 
0.022864 0.244 0.36764 0.36041 0.03799 0.027303 -0.009361 0.022535 
-0.033859 0.40924 0.01826 0.15867 -0.0077169 -0.03616 -0.045532 0.025001 
-0.06707 0.49769 -0.18939 -0.02498 0.013657 0.012835 -0.013471 0.10524 
-0.020706 0.47319 -0.17295 -0.098638 0.031085 0.066927 0.023522 0.18333 
0.21687 0.38129 -0.10061 -0.075127 0.049828 0.071859 0.03947 0.17528 
0.32128 0.17971 -0.065591 -0.021692 0.012013 0.01152 0.020727 0.090109 
0.1807 -0.11705 -0.09798 -0.024158 -0.011334 -0.010348 -0.032215 -0.022021 
-0.10637 -0.23905 -0.11935 -0.055232 0.023357 -0.01117 -0.033037 -0.12198 
-0.32027 -0.17065 -0.051615 -0.025474 0.077614 -0.0077169 -0.011663 -0.1672 
-0.24809 -0.10456 0.0098754 0.023686 0.036839 0.03651 0.0042853 -0.11557 
0.0026412 -0.012814 0.067749 0.072681 0.02533 0.025659 0.012177 0.019576 
0.16853 0.011191 0.10787 0.12102 0.020727 0.044402 0.026152 0.12464 
0.23266 0.027796 0.1687 0.1664 0.015465 0.04358 0.023522 0.1465 
0.22493 0.20602 0.1738 0.18892 -0.035174 0.020727 0.0074092 0.077285 
0.15176 0.32341 0.12546 0.16163 -0.0055795 0.032071 0.0065871 0.062159 
0.027468 0.36501 0.17593 0.20175 0.013821 -0.003771 -0.021199 0.038319 
-0.06707 0.31536 0.24515 0.27655 -0.0034422 -0.011827 -0.030899 0.005765 
-0.083347 0.063145 0.045389 0.16722 0.0054362 0.023028 -0.013636 0.020891 
-0.027775 -0.19827 -0.16588 -0.012649 0.018754 0.025495 -0.0040998 0.020398 
0.020727 -0.26585 -0.17114 -0.077922 0.041936 0.016781 0.0013258 0.040456 
0.03947 -0.29248 -0.027447 -0.016431 0.05772 0.043416 0.01415 0.050486 
0.0227 -0.3349 0.082711 0.071037 0.051801 0.020562 0.0024767 0.022371 
0.027303 -0.279 0.091753 0.10885 0.044402 0.02533 0.022371 -0.0064016 
0.062817 0.021384 0.11937 0.13023 0.060186 0.065447 0.034537 -0.019555 
0.049499 0.34314 0.25863 0.22312 0.023028 0.059528 0.036839 -0.017417 
0.027632 0.47665 0.31947 0.28428 -0.016266 0.023193 -0.0098543 -0.059014 
-0.09387 0.35712 0.10014 0.19649 -0.015444 0.00050378 -0.023665 -0.058192 
-0.082032 0.15176 -0.074304 0.095535 0.00083261 -0.048163 -0.052109 -0.01676 
-0.017417 0.059364 -0.10686 0.00017495 -0.013965 0.0088889 -0.021692 0.055582 
0.049335 0.092411 -0.12429 -0.049642 0.0046141 0.025495 -0.011827 0.093233 
0.067256 0.049006 -0.14336 -0.076935 0.027139 0.032236 0.0039565 0.064132 
0.090274 0.029276 -0.09091 -0.059507 0.052294 0.058049 0.013821 0.068571 
0.11132 0.095699 -0.011498 -0.0047575 0.06331 0.05772 0.030592 0.079094 
0.10606 0.11576 -0.0044286 0.01267 0.030263 0.037497 0.019411 0.077449 
0.052787 0.14174 -0.018733 0.00297 -0.060494 -0.018568 -0.026624 0.020398 
-0.018075 0.095206 -0.019226 0.00297 -0.097816 -0.041586 -0.055232 -0.028269 
-0.067235 0.060022 -0.12609 -0.050958 -0.076442 -0.0042642 -0.026789 -0.029748 
-0.05326 0.1391 -0.18068 -0.091075 -0.029091 0.02533 -0.0078813 0.038648 
-0.0019624 0.14387 -0.17197 -0.073154 0.027139 0.013986 -0.0091966 0.069229 
0.066598 0.10376 -0.050793 -0.028926 0.058213 -0.019555 -0.010019 0.048019 
0.084519 0.094548 0.11247 0.094877 0.10639 0.0093821 -0.015116 0.038155 
0.089945 0.0039565 0.21769 0.20158 0.19813 0.070873 0.026317 -0.021034 
0.058049 0.0042853 0.31881 0.2999 0.2417 0.16081 0.098001 -0.021199 
0.063145 0.043909 0.43406 0.40447 0.22098 0.14864 0.11461 0.014315 
0.083368 0.053116 0.18974 0.27672 0.1174 0.088301 0.08156 0.047197 
0.11296 0.10606 -0.19104 -0.0019624 0.013328 0.055254 0.049992 0.10441 
0.18465 0.16525 -0.34822 -0.19926 -0.080059 0.022535 0.01711 0.12875 
0.088136 0.12365 -0.31649 -0.2499 -0.16506 -0.034681 -0.035832 0.030427 
-0.027611 0.019083 -0.27588 -0.21603 -0.16523 -0.052766 -0.071509 -0.0039354 
-0.03616 0.00297 -0.069701 -0.073647 -0.14665 -0.063289 -0.081045 0.0060938 
-0.033037 0.01711 0.081724 0.051801 -0.074469 -0.076606 -0.087458 0.030098 
-0.035503 -0.17591 0.083862 0.09833 -0.019555 -0.05589 -0.084827 0.015794 
-0.013471 -0.38833 0.17511 0.17889 0.095535 0.024015 -0.023665 0.039799 
0.022042 -0.28245 0.2925 0.28165 0.23529 0.13861 0.086163 0.07038 
0.05213 -0.015444 0.35695 0.35662 0.29793 0.17807 0.13351 0.09126 
0.02829 0.11691 0.21769 0.28757 0.23841 0.12842 0.11477 0.029276 
0.041278 0.14223 0.047033 0.15341 0.16442 0.078107 0.092247 0.025988 
0.10145 0.25419 0.11921 0.14946 0.10836 0.068736 0.06594 0.075476 
0.1276 0.37109 0.098823 0.14404 0.044731 0.048019 0.038319 0.074819 
0.10392 0.40562 -0.0067304 0.094548 -0.0078813 0.007738 0.0032988 0.057062 
0.06479 0.20849 -0.10406 0.0093821 0.00066819 -0.013143 -0.023994 0.029441 
0.064132 -0.076277 -0.15437 -0.064111 0.066105 -0.0088678 -0.025967 0.027961 
0.054267 -0.30399 -0.20025 -0.1182 0.037004 0.0064227 -0.014458 0.037332 
-0.0013048 -0.40987 -0.36647 -0.24645 -0.041422 -0.024652 -0.032708 0.023193 
-0.041257 -0.19926 -0.29725 -0.24694 -0.050629 -0.024816 -0.039449 0.01826 
0.051965 0.19813 0.049664 -0.020541 0.040785 0.096521 0.077943 0.066269 
0.10162 0.35728 0.20865 0.14009 0.12579 0.080738 0.061501 0.093069 
0.034702 0.26948 0.20372 0.19057 0.10787 0.090274 0.069393 0.065447 
-0.1062 -0.056548 0.28132 0.25535 0.036182 0.048019 0.032564 0.01974 
-0.085813 -0.27785 0.35432 0.33492 -0.010183 -0.011498 -0.010348 -0.01939 
0.08156 -0.30366 0.4122 0.44294 0.032893 -0.0014692 -0.0039354 0.037004 
0.084355 -0.14763 0.61656 0.58582 0.062817 0.0032988 -0.023829 0.085177 
0.047855 0.083697 0.56642 0.59683 0.048513 0.0026412 -0.021034 0.028947 
0.043416 0.32062 0.11987 0.32292 0.037332 0.040785 0.010862 0.039963 
0.089616 0.53123 -0.20057 0.023522 0.044896 0.086492 0.045882 0.087808 
0.11494 0.52712 -0.32767 -0.16539 0.039305 0.080573 0.049664 0.041607 
0.044238 0.1197 -0.38291 -0.2744 0.0019835 0.046046 0.036346 0.025659 
-0.016595 -0.021528 -0.3298 -0.28147 -0.018733 0.0013258 -0.0022913 0.00099702 
-0.075455 -0.14254 -0.21504 -0.22211 -0.029091 -0.025145 -0.030242 -0.063289 
-0.076277 -0.35216 -0.098473 -0.11031 -0.017417 -0.029255 -0.04619 -0.063782 
-0.027611 -0.29133 0.0069159 -0.0022913 -0.0040998 -0.039449 -0.061973 -0.03616 
0.050814 -0.044381 0.16097 0.15949 0.033551 -0.026953 -0.05178 0.0028056 
0.055418 0.18498 0.24515 0.24055 0.039141 0.041936 -0.011663 -0.010512 
0.034373 0.26126 0.24959 0.27244 0.081889 0.061501 0.023522 0.020233 
-0.01117 0.15719 0.17034 0.23249 0.069886 0.075312 0.048184 0.020891 
-0.02498 0.022371 0.0092177 0.11411 0.0080668 0.07038 0.0421 0.051636 
-0.10061 -0.030406 -0.12346 -0.0083746 -0.073976 -0.0098543 -0.017253 -0.0082102 
-0.17279 -0.075949 -0.11179 -0.049807 -0.12133 -0.065755 -0.050629 0.0016547 
-0.071181 -0.047176 -0.059672 -0.032872 -0.073482 -0.036983 -0.053753 0.072188 
0.066763 -0.066906 -0.022679 -0.0078813 0.0051074 0.010862 -0.023172 0.10556 
0.12201 -0.11968 -0.074633 -0.027282 0.06479 0.047855 0.023851 0.087972 
0.14996 -0.069208 -0.16769 -0.080059 0.077121 0.072681 0.034044 0.055747 
0.16459 0.049992 -0.038133 0.00099702 0.062323 0.070544 0.041607 0.017274 
0.1391 0.1105 0.079422 0.079094 0.027303 0.046211 0.038648 0.032564 
0.056733 0.16525 0.12677 0.12957 -0.023665 0.0085601 -0.0011404 0.032564 
-0.014458 0.16015 0.13878 0.15703 -0.045368 -0.026953 -0.033037 -0.031392 
-0.0013048 -0.0068948 0.0044497 0.084684 -0.043066 -0.017911 -0.036983 -0.03616 
0.024344 -0.22458 0.0088889 0.066269 -0.0083746 -0.017253 -0.037476 -0.058028 
0.024179 -0.10784 0.10228 0.11773 0.021056 -0.0091966 -0.029091 -0.067235 
-0.026789 0.2463 0.14667 0.15012 0.00033937 0.0064227 -0.019555 -0.02646 
-0.025802 0.43686 0.033058 0.085506 -0.039778 -0.0088678 -0.027282 0.027139 
-0.078086 0.21967 -0.10637 -0.014293 -0.056383 -0.026953 -0.033201 0.0062583 
-0.087129 -0.2425 -0.046025 0.011355 -0.0088678 0.014479 -0.017582 0.020562 
-0.0052507 -0.29413 0.13351 0.1567 0.074326 0.048348 0.013492 0.074326 
0.019576 0.01004 0.21194 0.21983 0.095206 0.05476 0.044238 0.063803 
0.016616 0.17676 0.11165 0.17182 0.05065 0.11411 0.080738 0.029112 
0.041936 0.1562 -0.10867 0.02122 0.039305 0.0093821 0.015137 0.039634 
0.064625 0.067913 -0.29034 -0.1524 0.023522 0.0032988 0.0088889 0.031085 
0.065447 0.009711 -0.35677 -0.25236 -0.015444 -0.0082102 -0.018075 0.037497 
0.081724 -0.079237 -0.3201 -0.2813 -0.054904 -0.05589 -0.062467 0.05476 
0.093726 -0.019226 -0.21389 -0.21784 -0.052273 -0.011827 -0.040764 0.0227 
0.0786 0.024673 -0.019884 -0.083347 -0.052437 0.0011614 -0.028762 0.013164 
0.04358 0.072353 -0.023994 -0.026953 -0.037476 -0.034188 -0.046683 -0.010512 
0.025824 0.12973 0.037661 0.0592 -0.018568 -0.021856 -0.048163 -0.018404 
0.018589 0.13664 0.15374 0.1687 0.052787 0.019411 -0.018733 0.016452 
0.032729 0.14913 0.40792 0.35284 0.13467 0.079422 0.039799 0.020069 
0.032729 0.14617 0.51578 0.48454 0.19106 0.11576 0.072188 0.031578 
-0.044217 -0.021692 0.25239 0.35038 0.13664 0.065283 0.049335 0.004943 
-0.048656 -0.081045 0.24811 0.30977 0.099481 0.05624 0.059364 0.010697 
0.045224 -0.011992 0.47221 0.44048 0.15374 0.11609 0.083368 0.058049 
0.11444 -0.08384 0.36452 0.40546 0.12184 0.066763 0.056076 0.083368 
0.096686 -0.11475 0.0047785 0.16574 0.053445 0.00017495 0.018918 0.046046 
0.10688 -0.0042642 -0.19548 -0.044381 -0.050464 -0.0091966 -0.016595 0.052459 
0.069886 0.07449 -0.25582 -0.15536 -0.0771 -0.053095 -0.057534 0.043087 
0.020233 0.084684 -0.28377 -0.18117 -0.066906 -0.025145 -0.049314 0.017274 
0.020398 0.26554 -0.1284 -0.10472 0.038648 0.024179 -0.013965 0.047033 
0.014808 0.40611 0.048019 0.023193 0.10918 0.059857 0.022864 0.055582 
0.029441 0.33048 0.16311 0.13713 0.10096 0.071531 0.035031 0.00066819 
0.03388 0.26801 0.10902 0.1391 0.060515 0.034373 0.011026 0.0082312 
0.028783 0.17791 0.035524 0.10014 0.036675 0.011191 -0.0016336 0.0090533 
0.013328 -0.090417 -0.014951 0.056898 0.041772 0.044402 -0.004593 0.0090533 
0.022371 -0.23642 0.039634 0.070544 0.060844 0.025495 -0.0011404 0.044402 
0.050979 -0.20271 0.12069 0.11362 0.067749 0.031742 0.014972 0.022535 
0.040621 -0.072332 0.097179 0.11494 0.03092 0.040621 0.012506 0.031085 
0.075641 0.26883 0.14749 0.17297 0.019411 0.038648 0.01711 0.048184 
0.10145 0.46497 0.26192 0.2805 0.015137 0.0083956 0.010369 0.049006 
0.039799 0.1516 0.24236 0.28165 -0.018239 -0.015444 -0.034352 0.061501 
-0.0070593 -0.15043 0.091918 0.19073 0.010369 -0.011005 -0.029748 0.079587 
0.020891 -0.18956 0.13187 0.18547 0.085835 0.056733 0.024344 0.074983 
-0.00097594 -0.14106 0.053609 0.13039 0.11017 0.085999 0.04654 0.065612 
-0.034023 -0.084005 -0.091239 0.014315 0.092411 0.079258 0.056569 0.035031 
-0.048327 0.10392 -0.12379 -0.044546 0.040456 0.032071 0.021549 -0.042079 
-0.0022913 0.29234 -0.12067 -0.073647 -0.042079 -0.031064 -0.024158 -0.026296 
0.064954 0.25551 -0.11343 -0.085649 -0.065755 -0.032379 -0.044052 0.019576 
0.071037 0.093891 -0.10768 -0.080552 0.0037921 0.04506 -0.0021268 0.02122 
0.072517 0.09422 -0.10061 -0.057041 0.066434 0.080573 0.037826 0.053609 
0.05213 0.1294 -0.030735 0.0093821 0.074819 0.03651 0.026974 -0.00015387 
0.012999 0.074326 0.052623 0.067256 0.066927 0.019083 0.0036276 -0.0057439 
0.030098 -0.010348 0.26209 0.22296 0.10014 0.037497 0.0095465 0.030592 
0.062488 -0.017088 0.31125 0.30368 0.10359 0.061666 0.038648 0.054267 
0.085506 0.039799 0.30862 0.3267 0.055911 0.058706 0.029769 0.0592 
0.10507 0.01267 0.20158 0.27244 0.009711 0.010204 0.0019835 0.024344 
0.14716 0.010697 0.026974 0.14239 0.00066819 0.010533 0.0085601 0.0324 
0.13746 -0.089266 -0.2037 -0.055561 0.016781 0.019247 -0.0021268 0.0039565 
0.0024767 -0.30284 -0.28179 -0.17591 -0.018404 -0.012156 -0.021528 0.015794 
-0.11903 -0.3691 -0.26272 -0.21389 -0.031064 -0.018075 -0.021528 0.022864 
-0.084498 -0.14846 -0.20255 -0.17558 -0.018733 0.016123 -0.0087034 0.03651 
-0.021034 0.091918 -0.1085 -0.075127 -0.010183 0.023028 0.0036276 0.051965 
0.026974 0.25847 0.014972 0.012013 0.0093821 0.038155 0.017603 0.048019 
0.045224 0.30862 0.0041209 0.030592 0.00066819 0.029276 0.0051074 0.052787 
0.08304 0.33015 -0.18052 -0.080223 -0.040928 -0.024323 -0.030077 0.021384 
0.10063 0.33788 -0.30909 -0.19729 -0.0503 -0.016102 -0.036818 0.0054362 
0.069229 0.17528 -0.27999 -0.22195 -0.028433 -0.016431 -0.039778 0.0087245 
0.024673 0.0016547 -0.12412 -0.12593 0.028454 0.0024767 -0.028269 0.017767 
0.021713 -0.069536 0.040621 -0.0019624 0.043416 0.035688 -0.0011404 0.014643 
1.0539e-005 -0.1598 0.18284 0.12612 0.024673 0.0062583 -0.0042642 0.036346 
0.03799 -0.10735 0.46826 0.36156 0.052294 0.023522 0.01152 0.043251 
0.094877 0.066434 0.62002 0.56017 0.055089 0.045389 0.024508 0.078272 
0.12003 0.09422 0.38375 0.49835 -0.012156 0.034866 0.014972 0.08567 
0.033715 -0.046354 -0.086142 0.15653 -0.034845 -0.0057439 0.0060938 0.06479 
0.020562 -0.017911 -0.20403 -0.034681 0.00066819 -0.0067304 -0.021034 -0.02646 
0.039305 0.33015 0.036839 0.048513 0.075805 0.026152 -0.0029489 -0.040271 
-0.027447 0.35103 0.15686 0.14108 0.11559 0.039141 0.014315 -0.063782 
-0.029091 0.20717 0.13549 0.1567 0.12316 0.042265 0.017603 -0.025967 
-0.016595 0.19714 0.1179 0.15144 0.11181 0.082546 0.051143 0.046046 
0.014643 -0.057205 0.11346 0.14585 0.07597 0.12069 0.082217 0.074161 
-0.034023 -0.52135 -0.10521 -0.00031829 -0.023007 0.066763 0.048019 0.06742 
-0.089924 -0.49948 -0.33276 -0.19202 -0.08532 -0.015116 -0.0083746 0.034209 
-0.068879 -0.035996 -0.51428 -0.36022 -0.11097 -0.031721 -0.047176 0.010204 
0.10836 0.34824 -0.4319 -0.34394 -0.10028 -0.045532 -0.061151 0.034866 
0.16442 0.47385 -0.16588 -0.19877 -0.049314 -0.0090322 -0.038462 0.054925 
0.065447 0.35038 0.11707 0.025659 -0.017253 0.023357 -0.016431 0.031578 
0.069886 0.2491 0.37093 0.27129 0.045553 0.025988 -0.0019624 0.045224 
0.066763 -0.062467 0.52548 0.45281 0.048348 -0.0013048 -0.00031829 0.043416 
-0.0057439 -0.37074 0.51167 0.51232 0.052459 -0.011827 -0.032379 0.0054362 
-0.042244 -0.43273 0.4025 0.46152 0.092576 0.0024767 -0.026296 0.011355 
0.0074092 -0.2568 0.23989 0.34758 0.11625 0.13467 0.07597 0.060515 
0.0093821 0.0079024 0.069064 0.19007 0.092576 0.098988 0.071366 0.041443 
-0.02942 0.19172 0.033058 0.13483 0.050321 0.058377 0.049992 -0.017911 
-0.046354 0.2121 -0.031064 0.076463 -0.0087034 0.030427 0.027139 0.004943 
0.014643 0.16574 -0.062467 0.017274 -0.043559 -0.0059084 -0.017582 0.011026 
0.10967 0.13828 -0.11607 -0.040106 -0.099624 -0.067892 -0.063618 0.02681 
0.10014 0.053281 -0.11327 -0.052931 -0.076606 -0.032872 -0.062796 0.018918 
0.048677 0.062323 -0.078908 -0.038791 -0.044217 -0.069536 -0.082854 0.0024767 
0.065776 0.076299 0.015465 0.029112 0.027632 -0.018075 -0.050958 0.025001 
0.027632 0.12398 0.11707 0.11691 0.14535 0.097672 0.028619 0.084848 
-0.066084 0.16706 0.083368 0.11954 0.19796 0.13812 0.083533 0.064954 
-0.19071 0.11822 -0.0098543 0.049664 0.12316 0.082382 0.067749 -0.022679 
-0.16029 0.051636 -0.10604 -0.038462 0.037661 0.036839 0.028783 -0.032543 
-0.001798 -0.0034422 -0.11574 -0.058192 -0.038791 -0.046025 -0.03616 0.0062583 
0.11691 -0.046519 0.0019835 0.036346 -0.020377 -0.022679 -0.02498 0.048348 
0.12924 -0.11491 0.0786 0.095206 0.0085601 0.019247 -0.0078813 0.03092 
0.093891 -0.14961 0.11296 0.13516 0.086985 0.048348 0.016616 0.018754 
0.061008 -0.077428 0.37668 0.32045 0.14585 0.10195 0.071859 0.057062 
0.037332 0.047033 0.57053 0.49966 0.10491 0.064461 0.046375 0.030263 
0.014479 -0.059836 0.36008 0.42568 0.032564 -0.032543 -0.025474 0.013821 
0.016945 -0.095349 -0.019061 0.16689 -0.046683 -0.046354 -0.052931 0.025495 
0.043251 -0.050136 -0.25516 -0.073154 -0.021692 -0.029255 -0.0503 0.032071 
0.051308 -0.044874 -0.32767 -0.20748 0.024837 0.0044497 -0.024158 0.04358 
0.071859 -0.16062 -0.28081 -0.21998 0.084684 0.048184 0.0041209 0.068407 
0.088465 -0.18759 -0.16457 -0.15043 0.09685 0.050979 0.017274 0.044896 
0.070873 -0.036654 -0.10291 -0.057041 0.072517 0.042429 0.018096 0.014808 
0.025495 -0.052437 -0.14287 -0.087293 0.01415 0.028125 0.0065871 -0.0052507 
-0.014951 -0.16753 -0.1358 -0.091897 -0.021199 0.0056006 -0.0077169 0.020727 
-0.046519 0.031085 0.098166 0.056898 -0.0070593 0.0070803 -0.00081153 0.074983 
-0.034352 0.33229 0.30368 0.23627 0.024837 0.026646 0.0018191 0.060844 
0.0092177 0.37586 0.19057 0.23068 0.010369 0.012835 -0.0087034 0.016781 
0.10935 0.2833 0.027961 0.12776 -0.014129 0.027796 0.021384 0.083862 
0.15094 0.19501 -0.023501 0.051636 0.011026 0.031249 0.013492 0.13828 
0.096521 0.094384 -0.022679 0.025495 0.03092 0.0098754 -0.004593 0.076299 
-0.037311 0.1031 0.044567 0.06183 0.072024 0.022864 0.0044497 -0.092554 
-0.11031 0.072517 0.068407 0.10145 0.09422 0.03799 0.0093821 -0.17328 
-0.071016 -0.17805 -0.020212 0.077778 0.087479 0.024673 0.01267 -0.080552 
0.06035 -0.21965 -0.064604 0.016288 0.043087 0.029112 0.01152 0.035195 
0.14716 -0.01232 -0.087129 -0.027282 0.0014903 0.023686 -0.004593 0.08156 
0.13434 0.18942 -0.08384 -0.038133 -0.029255 0.014479 -0.0036066 0.087479 
0.1419 0.33114 -0.0082102 0.018589 -0.022843 0.018096 -0.010676 0.091918 
0.1008 0.20027 -0.0090322 0.024015 -0.01528 0.014315 -0.0095255 0.079258 
0.11 0.069229 -0.032543 -0.0047575 0.04654 -0.015444 -0.027447 0.069393 
0.056898 0.044238 -0.036325 -0.0040998 -0.035503 0.023028 -0.014787 0.068407 
-0.011992 -0.11787 -0.24234 -0.14665 -0.085813 -0.00081153 -0.022843 0.020233 
-0.031064 -0.19235 -0.36795 -0.26864 -0.088115 -0.031228 -0.03057 -0.033037 
-0.0044286 -0.096336 -0.22787 -0.19614 -0.067564 -0.055397 -0.064275 -0.089595 
0.024015 0.074819 0.058049 0.028947 0.033222 -0.023829 -0.053095 -0.094034 
0.066763 0.19879 0.32818 0.25107 0.18646 0.064461 0.038155 0.03536 
0.0592 0.2389 0.59634 0.49802 0.30598 0.17824 0.11543 0.16146 
-0.0082102 0.27146 0.82027 0.72508 0.32078 0.19813 0.15883 0.15752 
0.054103 0.28478 0.71817 0.73938 0.23249 0.14996 0.14305 0.12612 
0.11609 0.20602 0.19813 0.40759 0.06035 0.079258 0.076134 0.087314 
0.11017 0.11609 -0.43799 -0.10998 -0.11541 -0.034023 -0.01528 0.06331 
0.06479 0.029276 -0.65041 -0.42812 -0.20173 -0.059507 -0.069043 0.06183 
0.0037921 -0.081374 -0.43289 -0.40856 -0.21554 -0.083512 -0.095514 -0.0004827 
-0.013143 -0.040764 -0.12198 -0.20074 -0.15914 -0.060823 -0.083676 -0.023336 
-0.0031133 -0.03912 -0.10127 -0.088115 -0.051944 -0.0026201 -0.048327 -0.032379 
-0.051122 -0.089759 0.025659 0.040785 0.04917 0.019247 -0.020048 -0.054904 
-0.019555 -0.12198 0.40891 0.30598 0.14585 0.045224 0.021056 -0.026131 
0.034373 -0.032708 0.56724 0.4944 0.18761 0.093233 0.051472 0.030427 
0.043745 0.22131 0.45609 0.48273 0.15768 0.10359 0.071859 0.023522 
0.014808 0.32687 0.1493 0.28921 0.1271 0.085177 0.080738 0.049828 
0.040128 0.29053 -0.034681 0.11165 0.037332 0.0421 0.030427 0.038319 
0.0060938 0.28379 -0.071016 0.019247 -0.052766 -0.033037 -0.027611 0.011026 
-0.033859 0.14206 -0.048492 -0.0047575 -0.054739 -0.038791 -0.031557 0.0324 
0.010204 0.040785 0.0052718 0.022535 -0.034681 -0.0138 -0.03501 0.052294 
0.028125 0.090767 0.027961 0.043251 -0.030077 0.0098754 -0.019555 0.016288 
0.074161 0.20865 0.0093821 0.070544 -0.0064016 0.024344 0.0046141 0.056076 
0.11346 0.14075 0.075805 0.1128 0.029112 0.044073 0.025988 0.05065 
0.077449 -0.21274 0.013164 0.078765 0.075148 0.045882 0.023193 0.051308 
0.029112 -0.46429 -0.084005 0.0056006 0.087314 0.049664 0.021878 0.023357 
-0.0083746 -0.33671 -0.10867 -0.038298 0.064461 0.0067515 -0.0044286 -0.013307 
0.01267 -0.11376 -0.047012 -0.013471 0.066763 0.0065871 -0.0090322 -0.014787 
0.037004 0.062981 0.079751 0.075148 0.10228 0.034209 0.0037921 0.028947 
0.0592 0.21556 0.15604 0.1442 0.10819 0.044567 0.015794 0.042594 
0.064296 0.232 0.16196 0.16673 0.074161 0.06742 0.037497 0.059857 
0.058377 0.26357 0.17988 0.18218 0.0059294 0.048677 0.034702 0.060515 
0.059857 0.35613 0.2246 0.23627 -0.051944 -0.0026201 -0.0054151 0.029769 
-0.023172 0.35186 0.16327 0.22312 -0.023007 -0.037311 -0.033859 0.023193 
-0.10242 0.26406 0.14502 0.2029 -0.0095255 -0.0062372 -0.037476 -0.02087 
-0.071674 0.028125 0.050321 0.13565 0.048184 0.0085601 -0.018075 -0.051287 
-0.029255 -0.078415 0.14157 0.17166 0.085341 0.015959 -0.0024557 -0.0042642 
0.063145 -0.14878 0.10063 0.15275 0.088136 0.07038 0.029769 0.074161 
0.042923 -0.36877 -0.23017 -0.069536 -0.0034422 -0.030735 -0.024487 0.0592 
0.027468 -0.4324 -0.50063 -0.31254 -0.025967 -0.041257 -0.046683 0.029605 
0.042923 -0.18134 -0.35726 -0.3127 -0.011663 -0.010183 -0.047176 0.038319 
0.049992 0.025001 -0.087293 -0.15339 0.064625 0.024673 -0.013143 0.036839 
0.051801 0.041607 0.03651 0.0031344 0.09685 0.079751 0.021878 0.022864 
0.029769 0.055089 0.096521 0.09981 0.091425 0.062323 0.033715 0.013328 
-0.015773 0.078765 0.1174 0.16623 0.05213 0.058213 0.027796 -0.0054151 
0.017932 0.12184 0.24992 0.24005 0.0044497 0.031742 0.012835 0.02681 
0.038155 0.18004 0.37093 0.34298 -0.013471 -0.004593 -0.012978 0.046868 
0.07038 0.11378 0.15292 0.24745 -0.0406 -0.014293 -0.025967 0.047362 
0.022864 0.034373 -0.12527 0.035688 -0.081703 -0.027775 -0.044052 0.05213 
0.0042853 -0.061316 -0.16835 -0.060823 -0.07003 -0.047176 -0.062631 0.030263 
0.040621 -0.074633 -0.044381 -0.016266 -0.011992 -0.017253 -0.030406 0.041114 
0.073832 -0.051287 0.007738 0.020727 0.040785 0.024508 -0.009361 0.046704 
0.10392 -0.084005 -0.010676 0.019576 0.054432 0.052294 0.020562 0.038319 
0.069064 0.054596 -0.032872 0.0032988 0.064954 0.0421 0.029934 0.034702 
-0.0021268 0.24745 0.026317 0.060844 0.11148 0.061172 0.033222 0.030592 
-0.065097 0.36649 0.072353 0.11855 0.12118 0.060186 0.035853 -0.011992 
-0.0059084 0.35958 -0.052273 0.038483 0.053445 0.057391 0.037168 0.013164 
0.038812 0.24762 -0.18528 -0.07825 -0.021363 0.015301 0.0065871 0.023686 
0.018918 0.1197 -0.21554 -0.13908 -0.074962 -0.02646 -0.027447 0.016781 
0.028783 -0.071509 -0.20797 -0.15487 -0.11985 -0.047176 -0.066248 0.01004 
-0.028762 -0.53039 -0.3155 -0.23083 -0.099295 -0.055232 -0.074962 0.012013 
-0.062467 -0.79772 -0.41086 -0.31994 -0.027118 -0.028104 -0.056055 -0.0013048 
0.004943 -0.46676 -0.19334 -0.21438 -0.0026201 0.016123 -0.02498 0.01826 
0.065118 0.15209 0.13269 0.03092 0.025824 -0.021363 -0.037147 0.031742 
0.14354 0.64353 0.44327 0.31042 0.086328 -0.0049219 -0.018239 0.045389 
0.13812 0.70798 0.46119 0.43998 0.147 0.079258 0.029441 0.073175 
0.086985 0.39115 0.40989 0.4801 0.1955 0.13121 0.081889 0.060515 
0.0059294 -0.020706 0.41483 0.46695 0.16952 0.11954 0.10852 0.040621 
-0.011498 -0.29166 0.29448 0.38244 0.12529 0.10441 0.083204 0.036017 
0.021056 -0.22458 0.29448 0.35745 0.078272 0.062652 0.054596 0.035031 
-0.0082102 -0.19597 0.17774 0.26324 -0.013471 0.02829 0.034702 0.032071 
-0.013471 -0.21784 -0.12396 0.034537 -0.075455 -0.039778 -0.036818 0.00083261 
0.0031344 -0.084498 -0.20386 -0.089102 -0.087951 -0.085649 -0.083347 -0.01939 
0.039963 0.071366 -0.18446 -0.10554 -0.058356 -0.017088 -0.05326 -0.0022913 
0.046375 0.22328 -0.11968 -0.098309 0.031907 0.029441 -0.012814 0.024015 
0.022864 0.30714 -0.14188 -0.11491 0.063639 0.0056006 -0.011663 0.012013 
0.034209 0.28626 -0.13004 -0.079401 0.045553 0.043909 0.0092177 0.017767 
0.086985 0.28543 0.037332 0.034866 0.044402 0.065118 0.03799 0.063474 
0.077449 0.19106 0.097015 0.096521 0.027303 0.052294 0.035195 0.034044 
-0.022679 0.037004 0.04095 0.076956 -0.0067304 0.013492 0.0023123 0.007738 
-0.025638 0.023193 0.047197 0.085835 -0.0088678 -0.028597 -0.034681 0.025495 
0.0082312 0.0083956 0.097015 0.12283 0.037004 -0.027611 -0.024487 0.066763 
0.057555 -0.19893 0.00033937 0.076627 0.0786 0.046375 0.0074092 0.12053 
0.10688 -0.16868 -0.10932 -0.017417 0.11707 0.079916 0.044402 0.12513 
0.10803 0.024015 -0.11031 -0.069372 0.062817 0.088136 0.053116 0.06594 
0.0092177 0.28527 0.01152 -0.0060728 0.004943 0.031907 0.019905 -0.020706 
-0.051615 0.42782 0.20635 0.14979 -0.0095255 -0.0083746 -0.010348 -0.068386 
-0.079895 0.12973 0.36928 0.34068 -0.017253 -0.003771 -0.022021 -0.06707 
-0.133 -0.14862 0.3775 0.39477 0.012013 -0.003771 -0.020706 -0.027118 
-0.065755 -0.06444 0.32604 0.37915 -0.006566 0.012835 -0.010512 0.0023123 
0.068736 0.16426 0.24696 0.32555 0.027796 0.048677 0.010862 0.031414 
0.2269 0.2343 0.087643 0.20569 0.068736 0.060186 0.027303 0.09274 
0.31042 0.10639 -0.12018 0.026974 0.028125 0.036017 0.018918 0.11395 
0.26389 -0.025474 -0.40642 -0.21932 -0.024816 0.01004 -0.0078813 0.08567 
0.14371 -0.039449 -0.52447 -0.38357 -0.052109 0.0067515 -0.014293 0.071695 
0.012835 -0.09239 -0.41135 -0.38061 -0.023994 -0.0075525 -0.020541 0.0011614 
-0.12905 -0.29824 -0.33835 -0.33885 0.017274 -0.0095255 -0.03501 -0.060658 
-0.093376 -0.2425 -0.036818 -0.10883 0.11378 0.0324 -0.0021268 -0.0054151 
-0.10669 0.067585 0.19813 0.14502 0.19007 0.066105 0.047526 -0.003771 
-0.18742 0.31108 0.54093 0.41812 0.15686 0.059693 0.03536 0.0039565 
-0.083676 0.38951 0.6381 0.58072 0.15094 0.072681 0.045882 0.057062 
0.011355 0.3946 0.52466 0.56773 0.11066 0.08419 0.068571 0.048348 
0.03388 0.28362 0.45182 0.51676 0.019576 0.059693 0.047033 0.036017 
0.033387 -0.046519 0.25288 0.36715 -0.044546 0.011191 0.0092177 0.029112 
0.054925 -0.31599 -0.04323 0.13302 -0.056712 0.005765 -0.004593 0.020233 
0.077121 -0.20041 -0.27637 -0.10143 -0.051615 -0.0029489 -0.013471 0.043745 
0.11181 0.011684 -0.31468 -0.20764 -0.042737 -0.00064712 -0.01676 0.052459 
0.08978 0.10721 -0.25993 -0.21554 -0.054246 0.021384 -0.0138 0.024015 
0.05624 0.098988 -0.24908 -0.19663 -0.049314 -0.023501 -0.03912 0.012342 
0.053609 0.063474 -0.23444 -0.16111 -0.040764 -0.048492 -0.057534 0.012342 
0.040128 0.058542 -0.13284 -0.11426 0.024508 0.0087245 -0.030077 0.016123 
0.033551 0.039305 -0.033694 -0.029748 0.10622 0.065447 0.018754 0.026974 
0.01415 -0.0024557 0.054267 0.050486 0.13023 0.074983 0.048348 -0.00081153 
-0.015938 0.030263 0.076792 0.084848 0.087643 0.038319 0.01152 -0.0047575 
-0.025967 0.022864 0.15028 0.15686 0.042923 0.0072447 -0.0096899 -0.0067304 
-0.018568 0.085177 0.15719 0.1733 0.011191 0.019411 0.024344 0.035688 
0.0085601 0.034373 0.12102 0.14996 -0.022514 0.0083956 0.0011614 0.039634 
0.023522 0.021713 0.086657 0.15982 -0.016266 0.013328 -0.0027845 0.062817 
0.037332 0.10359 0.051472 0.11017 0.010533 0.012999 0.0059294 0.044567 
0.053281 0.094384 0.037332 0.12118 0.042923 0.054103 0.013164 0.062817 
0.047526 -0.082525 0.00017495 0.094713 0.0056006 0.01974 0.0042853 0.055418 
0.040456 -0.23296 -0.061316 0.023193 0.010369 0.03947 0.013986 0.029441 
0.047197 -0.18117 -0.060494 0.0024767 0.031085 0.040128 0.01711 0.036182 
0.040128 -0.040271 -0.017253 0.021384 0.049006 0.048184 0.024508 0.034209 
-0.006566 -0.031392 -0.053095 -0.0029489 -0.0004827 0.01415 -0.0029489 -0.0052507 
-0.055068 -0.049314 -0.17509 -0.09239 -0.049314 -0.027775 -0.03764 -0.022679 
-0.025309 0.14387 -0.27916 -0.18512 -0.01676 -0.019719 -0.036325 0.0023123 
0.079258 0.29365 -0.18167 -0.1547 0.060515 0.058542 0.011684 0.043745 
0.1174 0.29875 0.068736 0.0042853 0.10606 0.074654 0.038812 0.076956 
0.084519 0.25617 0.21309 0.15867 0.11526 0.084519 0.066269 0.052787 
0.0087245 0.088465 0.14848 0.19139 0.064461 0.064625 0.046211 -0.042244 
-0.00015387 -0.15602 0.23956 0.26899 0.038155 0.01711 0.0088889 -0.057699 
0.0075736 -0.22195 0.51594 0.45675 0.057884 0.0093821 0.020727 0.02829 
0.0016547 -0.070359 0.37767 0.42847 0.049006 0.030427 0.009711 0.10458 
-0.062138 0.11987 0.12809 0.26702 0.01415 0.020891 0.0034632 0.13532 
-0.020706 0.12118 0.0046141 0.1299 -0.0029489 0.024508 0.0069159 0.072024 
0.011355 0.10359 -0.15783 -0.023829 -0.027118 0.00083261 -0.019061 0.010533 
0.073832 0.13384 -0.2933 -0.17361 -0.05737 -0.022021 -0.036818 -0.00097594 
0.14667 0.17265 -0.33753 -0.25927 -0.080059 -0.026789 -0.043559 0.0054362 
0.17215 0.18876 -0.23 -0.21948 -0.060987 -0.01676 -0.042408 0.0064227 
0.14979 0.17018 -0.086307 -0.10867 -0.028104 -0.0068948 -0.031721 0.032729 
0.076463 0.043251 -0.019719 -0.0062372 -0.013965 0.023851 -0.016102 0.0059294 
0.014643 -0.039449 0.012999 0.049992 -0.021363 0.01415 -0.014129 0.013821 
-0.053753 -0.055068 0.17199 0.15785 0.037332 0.0075736 -0.0095255 -0.0011404 
-0.041751 0.022535 0.41203 0.34955 0.08715 0.02533 -0.0044286 -0.012978 
0.0090533 0.087479 0.31421 0.34561 0.067585 0.013821 -0.0059084 0.048184 
0.039634 0.025659 -0.1205 0.065776 0.044073 0.045718 0.017603 0.093891 
0.050321 -0.067399 -0.38324 -0.18643 0.092247 0.085012 0.04095 0.078107 
0.066434 0.041443 -0.25976 -0.20057 0.093398 0.075312 0.042429 0.073175 
0.080902 0.24236 0.037004 -0.032379 0.036346 0.043251 0.03947 0.062323 
0.097015 0.3706 0.2486 0.15275 0.0021479 0.014643 0.0021479 0.037004 
0.076956 0.25715 0.35646 0.30352 0.012835 -0.00097594 -0.011992 0.037826 
0.058706 0.043745 0.58384 0.53238 0.08304 0.050814 0.02122 0.055418 
0.062652 -0.038298 0.57349 0.58796 0.11296 0.086657 0.048513 0.073175 
0.077285 -0.1672 0.13039 0.32045 0.06183 0.041278 0.030592 0.075312 
0.035853 -0.35118 -0.31155 -0.049478 0.042265 0.024179 0.014972 0.094384 
-0.016102 -0.23066 -0.28377 -0.15668 0.072353 0.025001 0.0034632 0.044402 
-0.033694 0.062652 -0.063946 -0.065097 0.074819 -0.026296 -0.030406 -0.0052507 
-0.057041 0.15341 -0.095843 -0.065097 -0.021199 0.0087245 -0.027118 -0.091404 
-0.064275 0.16081 -0.12757 -0.091732 -0.097816 -0.038791 -0.051287 -0.11393 
-0.03912 0.11888 -0.06855 -0.060329 -0.10406 -0.07003 -0.065591 -0.054739 
-0.0064016 0.12694 0.066927 0.042594 -0.022679 -0.00064712 -0.040271 -0.022679 
0.052952 0.19616 0.25206 0.2098 0.10836 0.058213 0.01711 0.060186 
0.082875 0.1978 0.2246 0.26784 0.13746 0.1026 0.085835 0.13023 
0.061172 0.073175 0.10376 0.19106 0.078765 0.083533 0.06594 0.11691 
0.053938 -0.028269 0.050486 0.12842 0.036182 0.045389 0.034537 0.10047 
0.084355 -0.049642 0.023851 0.087972 -0.0067304 0.0059294 0.011355 0.10967 
0.097015 -0.040928 -0.042408 0.034044 0.013164 -0.017746 -0.02235 0.10392 
0.098166 -0.04619 -0.028269 0.02122 0.031249 -0.017253 -0.032708 0.058542 
0.13401 -0.036654 0.046868 0.066763 0.084848 0.024015 -0.013471 0.0024767 
0.083368 -0.010183 0.13894 0.13105 0.1026 0.024344 -0.0068948 -0.054246 
0.010862 0.057884 0.20273 0.17659 0.069558 0.012177 -0.004593 -0.060165 
-0.058028 0.060679 0.072188 0.12727 0.021549 0.039963 0.0085601 -0.027447 
-0.084169 0.019905 -0.023007 0.060022 0.0095465 0.029769 0.0083956 0.035853 
-0.084827 0.11017 -0.038627 0.059528 0.0042853 0.016452 0.00050378 0.098823 
-0.044217 0.1516 0.022535 0.067749 0.029441 0.036182 0.0062583 0.047526 
-0.030077 0.049992 0.02681 0.071366 0.053609 0.026974 0.0072447 -0.058685 
-0.022514 -0.040764 -0.0013048 0.053445 0.056404 0.03799 0.027632 -0.073811 
-0.0036066 -0.076442 -0.066413 0.00099702 0.021384 0.024508 0.0042853 -0.060165 
0.044896 -0.0075525 -0.093705 -0.033201 -0.0059084 -0.012978 -0.019226 0.0047785 
0.10852 0.10902 -0.10538 -0.05326 0.00297 0.0052718 -0.015938 0.094548 
0.12908 0.16985 -0.038133 -0.024816 0.031085 0.014479 -0.0080457 0.14108 
0.12381 0.20076 0.013164 0.012177 0.034702 0.02681 0.00066819 0.1465 
0.13203 0.13434 0.047033 0.050486 0.017932 0.019576 0.00050378 0.092247 
0.058706 -0.075291 0.083204 0.11378 -0.0138 0.012013 -0.018733 -0.023665 
-0.023007 -0.35726 0.055089 0.12661 -0.049807 -0.0052507 -0.027282 -0.097487 
-0.083676 -0.26815 0.083368 0.12858 -0.030077 0.047197 0.0080668 -0.045696 
-0.060494 0.0019835 0.064296 0.11642 0.013821 0.041607 0.016452 0.024179 
0.014315 0.13894 0.012013 0.08304 0.016452 0.0059294 -0.0040998 0.07038 
0.090767 0.13894 -0.032708 0.035195 0.035031 0.0059294 -0.018404 0.083697 
0.096028 0.16097 -0.024816 0.031085 0.093398 0.02533 -0.0034422 0.027139 
0.099316 0.2149 -0.0068948 0.030756 0.11954 0.052787 0.023193 0.067585 
0.058871 0.2121 0.027632 0.048677 0.090603 0.081067 0.039963 0.077285 
-0.018733 0.22378 0.091753 0.086163 0.030098 0.0052718 -0.004593 -0.020541 
-0.075455 0.25469 0.10343 0.11428 -0.040271 -0.064768 -0.03764 -0.06707 
0.011191 0.13088 0.041278 0.11477 -0.022185 0.0065871 -0.027118 -0.030899 
0.11099 0.10359 -0.048163 0.079916 0.040292 0.043251 0.0042853 0.028619 
0.065118 -0.0031133 -0.084005 0.0044497 0.00297 0.020233 0.01267 0.012013 
-0.023501 -0.17361 -0.11064 -0.041422 -0.028926 -0.0062372 -0.021692 -0.042408 
-0.074798 -0.19466 -0.12527 -0.065262 -0.045368 -0.0098543 -0.026296 0.0016547 
0.040292 0.028619 -0.018897 -0.0016336 -0.0057439 0.030592 0.0062583 0.070544 
0.048513 0.096357 0.0689 0.070215 0.03388 0.048348 0.020233 0.086328 
0.014479 0.078765 0.053445 0.076463 0.021384 0.0056006 -0.003771 0.05772 
0.012342 0.12102 0.029276 0.059035 0.011355 0.030592 -0.00031829 0.015301 
0.012177 0.22065 0.052294 0.071695 0.023686 0.020891 -0.0070593 -0.055068 
0.0047785 0.26653 0.092576 0.10639 0.032893 0.013328 -0.0055795 -0.042573 
-0.00064712 0.034044 0.094877 0.14124 0.051965 0.038977 0.0060938 0.030263 
0.072024 -0.19153 0.083862 0.15242 0.087479 0.029769 0.005765 0.058706 
0.12003 -0.20485 0.11461 0.15834 0.10836 0.039799 0.021549 0.086985 
0.081231 -0.045368 0.16804 0.18991 0.11839 0.040456 0.014315 0.1128 
0.029441 0.091753 0.11362 0.16689 0.06331 0.051308 0.022371 0.071695 
-0.045368 0.057227 0.054267 0.12168 0.01826 0.061337 0.052294 0.04506 
-0.035503 0.016781 -0.077757 0.019411 0.013492 0.044238 0.025988 0.011684 
0.025495 0.042265 -0.24365 -0.1256 -0.036654 -0.025967 -0.021856 -0.049314 
0.079258 0.13615 -0.17641 -0.13695 -0.030077 -0.024158 -0.024158 -0.0050863 
0.095206 0.15982 -0.028104 -0.052437 -0.014129 -0.0057439 -0.021363 0.033222 
0.043416 0.02122 0.066927 0.044567 -0.032379 -0.00015387 -0.019061 0.049006 
0.012506 -0.23477 0.13023 0.14289 0.00066819 0.038977 0.00297 0.04358 
0.010204 -0.20205 0.17182 0.20997 0.049335 0.041278 0.01267 0.054103 
0.067913 0.10392 0.25962 0.27162 0.061666 0.039634 0.017603 0.050157 
0.067749 0.29694 0.28017 0.30253 0.043251 0.043416 0.01711 0.037826 
0.058706 0.19007 0.16146 0.23742 0.021713 0.013986 -0.0026201 0.0067515 
0.030592 -0.02942 -0.12741 0.032893 0.013657 0.022864 0.0026412 0.031249 
-0.035174 -0.06444 -0.28985 -0.1404 0.013492 0.065118 0.021878 0.02122 
-0.13974 -0.045368 -0.32323 -0.2328 -0.0032777 -0.00015387 -0.00097594 -0.031557 
-0.16095 -0.1159 -0.23658 -0.21274 -0.0095255 -0.057699 -0.039613 -0.057863 
-0.072825 -0.10932 0.054267 -0.024158 0.051965 0.01004 -0.022514 0.033551 
0.037497 -0.072332 0.3318 0.22592 0.12135 0.072517 0.029112 0.055747 
0.095371 0.057391 0.41812 0.39773 0.1539 0.10589 0.075641 0.082875 
0.16985 0.27047 0.31815 0.37504 0.14864 0.08715 0.066763 0.12414 
0.159 0.29826 0.22361 0.29349 0.1003 0.064625 0.053938 0.089945 
0.11313 0.21342 0.074983 0.18202 0.045718 0.058706 0.04358 0.049664 
0.070051 0.066434 -0.086142 0.036346 0.01267 0.028125 0.015465 0.036182 
0.014808 -0.076442 -0.16572 -0.060823 -0.023829 -0.0004827 -0.0068948 0.00066819 
0.029934 -0.095349 -0.10143 -0.050793 -0.04471 0.022042 -0.010676 0.0092177 
0.0324 -0.017746 0.0324 0.020069 -0.03353 -0.032379 -0.039613 0.019576 
0.029769 0.021549 0.062159 0.071531 -0.021692 -0.00097594 -0.032543 -0.041422 
-0.017746 0.0070803 0.036182 0.06479 0.032564 0.017274 -0.023172 0.023357 
-0.02942 -0.07414 -0.032543 0.019083 0.052623 0.037661 0.0052718 0.023522 
-0.025802 -0.045039 -0.04471 0.033222 0.067585 0.049992 0.021056 0.038483 
-0.0013048 0.072353 0.1516 0.1442 0.066763 0.077614 0.022206 0.062323 
0.061995 0.075476 0.20586 0.20947 0.04654 0.057227 0.027139 0.047197 
0.086657 0.032893 -0.010841 0.091425 -0.001798 -0.0073881 0.0075736 0.061337 
0.068571 -0.0075525 -0.06707 0.016452 -0.02942 -0.0067304 -0.021199 0.039963 
0.066105 0.098988 0.031742 0.058542 -0.01232 0.0019835 -0.020377 0.012506 
0.077285 0.22427 0.12316 0.12644 0.038977 0.025988 0.0095465 0.032893 
0.027796 0.17462 0.065118 0.1026 0.042265 0.032729 0.0056006 0.04917 
-0.001798 0.083697 -0.0077169 0.048677 0.022042 0.0052718 -0.012156 0.0083956 
-0.023501 0.080573 0.14404 0.13088 0.048677 0.01974 -0.0031133 0.0087245 
0.0041209 0.12036 0.32144 0.30286 0.089452 0.05772 0.020398 0.031907 
0.085999 0.15999 0.2098 0.29448 0.072188 0.071037 0.038648 0.021549 
0.11198 0.049499 0.027303 0.147 0.038319 0.060515 0.032564 0.014643 
0.064954 -0.058192 -0.092061 0.025495 -0.0075525 -0.013965 -0.017746 -0.00097594 
0.048348 0.0070803 -0.11738 -0.03057 0.020727 -0.023007 -0.024652 0.080573 
0.069886 0.095864 -0.085156 -0.032379 0.049006 0.0689 0.018754 0.1202 
0.064132 -0.013471 -0.11048 -0.060165 0.031249 0.045718 0.016452 0.086821 
0.0024767 -0.28771 -0.25911 -0.16868 -0.02087 0.0056006 -0.0050863 0.00066819 
-0.025309 -0.14961 -0.28738 -0.22441 -0.033201 -0.018568 -0.03616 -0.028433 
0.010862 0.19155 -0.0771 -0.11113 -0.014787 -0.019555 -0.037805 -0.00081153 
0.028125 0.25896 0.14963 0.077778 0.050486 0.0092177 -0.0047575 0.022864 
0.049992 0.1636 0.23496 0.22131 0.064132 0.025659 -0.0040998 0.036182 
0.010862 0.09126 0.099645 0.18843 0.024179 0.0014903 -0.017582 0.015137 
-0.028926 0.015794 -0.0052507 0.091425 -0.025145 -0.0039354 -0.0087034 -0.0072237 
-0.017582 0.067256 0.14585 0.15883 0.013492 0.056569 0.026646 0.009711 
0.032236 0.19961 0.17528 0.19649 -0.0022913 0.067913 0.03947 0.021713 
0.053281 0.20882 0.080573 0.14469 -0.024652 0.027303 0.021384 0.046046 
0.037826 0.11198 -0.011827 0.07301 -0.0031133 -0.020212 -0.022185 0.037661 
0.062159 0.065283 -0.00081153 0.054267 0.068571 -0.0068948 -0.027118 0.012835 
0.09685 -0.031557 0.017274 0.050486 0.1345 0.05065 0.01267 0.018096 
0.10113 -0.10702 0.0026412 0.037661 0.17511 0.078765 0.043251 0.038155 
0.065776 -0.22211 -0.019226 0.020891 0.12825 0.071695 0.047197 0.049828 
0.022864 -0.29561 -0.074304 0.0074092 0.013986 0.025001 0.01267 0.005765 
0.0074092 -0.044217 -0.015116 0.033058 -0.049478 -0.026953 -0.027447 0.0031344 
0.04654 0.32703 0.21539 0.18235 -0.047834 -0.020212 -0.030406 0.058871 
0.035031 0.5286 0.32769 0.30418 -0.0044286 0.035524 -0.0027845 0.077614 
-0.0075525 0.34479 0.1008 0.20109 0.015137 0.0088889 -0.0098543 0.012013 
-0.051287 0.18267 -0.1769 -0.0083746 -0.039449 -0.038956 -0.03353 -0.08384 
0.0042853 0.055747 -0.26815 -0.14533 -0.025474 -0.0016336 -0.028104 -0.044217 
0.048841 -0.073482 -0.17197 -0.13267 -0.039778 -0.011827 -0.02498 -0.0019624 
0.05213 -0.12609 -0.060823 -0.067728 -0.029091 -0.0070593 -0.026131 0.03947 
0.02533 -0.15158 -0.067728 -0.051944 -0.010183 0.01004 -0.010676 0.071695 
0.0044497 -0.21521 -0.18742 -0.11393 0.0023123 0.023193 0.00017495 0.077943 
0.043251 -0.081703 -0.16259 -0.081703 0.03799 0.046211 0.009711 0.08419 
0.065776 0.10277 -0.023172 -0.0050863 0.076463 0.044896 0.013492 0.040621 
0.055254 0.15144 0.041443 0.050979 0.079422 0.046704 0.023028 0.0054362 
0.029605 0.11181 0.058213 0.082711 0.069064 0.049664 0.015794 -0.019719 
-0.036654 0.027796 0.23825 0.20717 0.041936 0.026974 0.0074092 0.007738 
-0.043888 -0.0036066 0.38869 0.34314 0.020562 0.0083956 -0.0047575 0.00050378 
0.026481 0.07038 0.27902 0.31897 0.0039565 0.019576 -0.0077169 0.041443 
0.051472 0.17215 0.16015 0.23578 0.0065871 0.00099702 -0.018404 0.044567 
0.051801 0.13878 0.12233 0.183 0.014643 -0.011992 -0.01528 0.01826 
0.027303 0.072846 0.038812 0.10885 0.0021479 -0.0027845 -0.023172 0.024015 
0.027139 0.031907 -0.0098543 0.06594 0.025001 0.0056006 -0.017746 0.043087 
0.010533 -0.052273 -0.206 -0.054082 0.031414 0.011684 0.0037921 0.015465 
0.011355 -0.0088678 -0.26831 -0.15109 0.042429 0.02122 -0.0021268 0.041443 
0.010862 0.023193 -0.15816 -0.11738 0.012013 -0.0013048 -0.026624 0.027961 
0.0088889 0.070544 -0.013143 -0.022843 -0.008539 0.00033937 -0.019061 0.013492 
0.10063 0.13121 0.18925 0.14174 0.017438 0.024508 -0.0055795 0.043251 
0.098494 0.11822 0.31042 0.26981 0.027961 0.017603 -0.0039354 0.058049 
0.043745 0.071202 0.26685 0.28708 -0.0075525 0.0026412 -0.017417 0.032236 
0.057555 0.04654 0.22328 0.26653 0.060022 0.034373 0.0032988 0.053609 
0.079916 -0.19614 -0.0014692 0.11592 0.13664 0.10787 0.060186 0.074983 
0.062981 -0.24118 -0.24825 -0.092061 0.11444 0.12398 0.084026 0.073504 
0.079094 0.040456 -0.24086 -0.15026 0.090603 0.062323 0.054925 0.067585 
0.048184 0.20224 -0.16638 -0.10078 0.02681 -0.03057 -0.017417 0.041772 
-0.0036066 0.10425 -0.05737 -0.047834 -0.039284 -0.061645 -0.061973 0.020891 
-0.037311 -0.073318 0.029934 0.026481 -0.039613 -0.048656 -0.066741 0.0060938 
-0.020048 -0.22968 0.1858 0.15867 0.056898 0.023357 -0.0080457 0.012342 
0.023851 -0.20995 0.49901 0.40841 0.17824 0.085341 0.043745 0.047197 
0.060679 -0.12182 0.48865 0.48273 0.19007 0.089945 0.062817 0.066269 
0.062652 -0.020048 0.14437 0.28428 0.098659 0.071366 0.070873 0.034866 
0.061008 0.074161 -0.10045 0.056898 -0.0080457 0.049499 0.038812 0.0052718 
0.051143 0.24893 -0.059343 0.00050378 -0.037805 0.025001 0.01563 0.025166 
0.017274 0.39 0.084026 0.067256 -0.076606 -0.00064712 -0.0087034 -0.0032777 
0.035524 0.32933 0.01826 0.075641 -0.05589 -0.018075 -0.034188 -0.019226 
0.021878 0.22822 -0.065755 0.03651 -0.060823 -0.038462 -0.050629 -0.010183 
0.010697 0.012506 -0.095021 -0.015444 -0.013636 0.0011614 -0.033201 -0.02646 
0.012506 -0.025967 -0.060494 -0.011498 0.031907 0.0024767 -0.024158 -0.0070593 
0.009711 0.016616 -0.003771 0.022864 0.084026 0.038155 0.009711 0.007738 
0.046704 0.14289 0.093069 0.094877 0.10162 0.089123 0.041772 0.023522 
0.058049 0.2611 0.15012 0.15357 0.084026 0.076299 0.04917 0.047855 
0.040456 0.21112 0.14634 0.16919 0.076463 0.047197 0.038812 0.095535 
0.02533 0.039963 0.10145 0.15308 0.060022 0.027139 0.0098754 0.12694 
0.017438 -0.07003 0.015794 0.0786 0.011848 0.018096 0.00033937 0.079258 
-0.001798 -0.2448 -0.010019 0.042758 -0.010348 0.025001 0.017767 0.055582 
0.035524 -0.53006 -0.042737 0.037497 -0.015609 0.031249 0.0098754 0.056898 
0.022371 -0.69086 -0.17887 -0.055561 -0.013471 -0.0004827 -0.010841 0.03651 
-0.011992 -0.38833 -0.22014 -0.12363 0.018096 0.0028056 -0.0091966 -0.031721 
0.052787 0.16393 -0.018404 -0.021528 0.065612 0.027961 0.0011614 -0.021856 
0.099152 0.42551 0.066927 0.062159 0.07449 0.059364 0.027796 0.013657 
0.12661 0.39033 0.10622 0.10951 0.066434 0.072681 0.038483 0.01415 
0.041443 0.35942 0.16952 0.17215 0.069722 0.056569 0.033715 0.02533 
-0.0055795 0.28494 0.23726 0.22822 0.052623 0.034866 0.020398 0.02829 
0.05213 0.24269 0.19517 0.22328 0.048184 0.048348 0.023357 0.017767 
0.13253 0.24597 0.1465 0.1858 0.040785 0.049335 0.020562 0.035688 
0.12628 0.063474 0.076956 0.13812 0.0060938 0.021384 0.0065871 0.04917 
0.048677 -0.059178 -0.022514 0.088794 -0.033859 0.0036276 -0.015938 0.0090533 
-0.017582 -0.026624 -0.097816 0.0095465 -0.063782 -0.04323 -0.053917 -0.0090322 
-0.041257 0.045553 -0.16095 -0.062467 -0.070852 -0.052766 -0.053424 0.0075736 
-0.042244 0.071859 -0.19383 -0.11163 -0.004593 0.013492 -0.028269 0.020562 
-0.14336 -0.019884 -0.25138 -0.16851 0.023686 0.034537 -0.0027845 0.026481 
-0.22425 -0.062302 -0.34822 -0.25319 -0.025802 -0.001798 -0.009361 0.01974 
-0.069865 0.10819 -0.2739 -0.23707 -0.014622 0.0095465 -0.01939 0.010369 
0.092904 0.21506 0.071695 -0.029091 0.0051074 0.0074092 -0.014458 0.035688 
0.094055 0.08008 0.2218 0.14206 0.00099702 0.018096 -0.0047575 0.027961 
0.040621 -0.12774 0.23397 0.21178 -0.028433 -0.0034422 -0.019719 0.016123 
0.030756 -0.28492 0.43324 0.38326 0.031249 0.0227 -0.0040998 0.023357 
0.052952 -0.1621 0.66194 0.60916 0.1202 0.073997 0.041114 0.065776 
0.096357 0.055254 0.43554 0.52844 0.10047 0.062652 0.034866 0.069064 
0.15933 0.19484 -0.034188 0.20388 0.07038 0.018425 0.012999 0.10096 
0.15752 0.26998 -0.27588 -0.067728 0.0070803 0.034044 0.0032988 0.10556 
0.1174 0.20503 -0.39508 -0.24168 -0.027282 -0.033694 -0.039942 0.058871 
-0.015116 0.22772 -0.35595 -0.28393 -0.079237 -0.073976 -0.079401 -0.089595 
-0.08532 0.34133 -0.11179 -0.13645 -0.066084 -0.058356 -0.092719 -0.1404 
-0.049478 0.19928 0.12809 0.047691 -0.0022913 -0.0044286 -0.047176 -0.023994 
-0.016102 -0.14484 0.064132 0.088465 0.10145 0.10474 0.055911 0.15472 
-0.010019 -0.19926 0.15324 0.147 0.079422 0.0786 0.056733 0.086985 
-0.0014692 -0.21652 0.11559 0.14946 0.054267 0.021384 0.0056006 0.01974 
0.014315 -0.20222 -0.0087034 0.10129 0.029276 0.027796 0.021713 0.047362 
-0.00064712 -0.042244 -0.00097594 0.074654 0.064461 0.063145 0.023522 0.080409 
-0.067399 0.13105 0.13138 0.14026 0.068736 0.022864 0.0074092 0.049499 
-0.031721 0.27129 0.20372 0.20257 0.036182 0.012835 0.0026412 0.015137 
0.052952 0.27244 0.14798 0.19583 0.015959 0.014315 -0.0062372 0.0098754 
0.11592 0.25337 0.055911 0.13319 0.007738 0.016945 -0.0029489 0.023522 
0.093891 0.13088 -0.032872 0.055911 -0.016595 0.0034632 -0.011334 0.024837 
0.054267 0.0067515 -0.062302 0.0021479 -0.015938 -0.01232 -0.025802 -0.012978 
0.034044 -0.079401 0.027632 0.035853 0.0083956 -0.001798 -0.021363 0.026152 
0.080409 -0.086964 0.094055 0.092247 0.02681 0.047033 0.0088889 0.049335 
0.062323 -0.20567 0.058706 0.11247 0.060679 0.020398 0.00066819 0.047197 
0.049992 -0.14434 0.026974 0.12431 0.066927 0.01974 -0.0019624 0.047691 
-0.0029489 0.029441 -0.016431 0.063639 0.073339 0.038812 0.0067515 0.030756 
-0.014622 0.11362 -0.025802 0.037332 0.058049 0.032564 0.007738 0.015794 
0.019247 0.14141 0.085177 0.094384 0.063145 0.021549 0.014972 0.020562 
0.079916 0.18514 0.29793 0.25255 0.093069 0.067913 0.032071 0.049335 
0.11526 0.23594 0.37652 0.35432 0.11609 0.071202 0.047033 0.072846 
0.054267 0.14913 0.17133 0.25748 0.063803 0.058706 0.049335 0.072517 
-0.0087034 0.039799 -0.039449 0.093233 0.023686 0.017274 0.0087245 0.026152 
-0.048492 0.0018191 -0.10209 -0.012978 -0.0022913 -0.0082102 -0.018239 -0.033201 
-0.024652 -0.01939 -0.083347 -0.035832 -0.034516 -0.025145 -0.036325 -0.045532 
0.050486 -0.036654 -0.091897 -0.024487 -0.050136 -0.03912 -0.055232 -0.092719 
0.096357 0.074983 -0.053424 0.009711 -0.014293 -0.042737 -0.058028 -0.03616 
0.1128 0.23562 0.038812 0.063968 0.059693 0.066105 0.012835 0.08419 
0.068407 0.32489 0.0786 0.10441 0.10787 0.10326 0.059693 0.11773 
0.0014903 0.11033 -0.043888 0.037004 0.066269 0.043416 0.03388 0.07301 
-0.014787 -0.18084 -0.10801 -0.02942 0.038648 0.017767 0.0062583 0.050321 
0.058377 -0.2596 -0.08121 -0.03501 0.00099702 -0.0021268 -0.01676 0.050979 
0.15028 -0.18676 -0.0052507 -0.00097594 0.0046141 0.012835 -0.0095255 0.079587 
0.17117 -0.071674 0.034373 0.040128 0.015959 0.036839 0.00066819 0.066927 
0.10967 0.031085 0.019905 0.040785 -0.0090322 0.0011614 -0.017417 0.0031344 
-0.008539 0.023193 -0.03205 0.027468 -0.0087034 -0.0026201 0.0044497 -0.026624 
-0.12445 0.093562 -0.046354 0.034373 0.022206 0.029769 0.0014903 -0.040764 
-0.089595 0.23068 -0.017088 0.043909 0.028125 0.022864 1.0539e-005 -0.0073881 
0.020398 0.29924 0.028947 0.06594 0.039799 0.044073 0.036017 0.054925 
0.08978 0.25502 0.073832 0.10293 0.069393 0.04917 0.026646 0.044238 
0.077943 0.055582 0.017603 0.074326 0.039799 -0.001798 -0.0096899 0.049664 
0.081724 -0.084827 0.079422 0.10178 0.036182 0.0065871 -0.014293 0.041443 
0.11428 -0.081703 0.18596 0.17922 0.049992 0.028454 -0.0024557 0.06331 
0.15259 0.038648 0.13549 0.18498 0.034373 0.010204 -0.0067304 0.056569 
0.075805 -0.019555 -0.043724 0.050321 -0.0004827 0.027632 0.00297 0.010697 
-0.015773 -0.20912 -0.24069 -0.10867 -0.02794 -0.0004827 -0.021692 -0.049149 
-0.11574 -0.29643 -0.21702 -0.1473 -0.025309 -0.02794 -0.040928 -0.063782 
-0.11656 -0.16638 -0.083018 -0.061645 0.0056006 0.007738 -0.029913 -0.0034422 
-0.049478 0.072517 0.01152 0.01711 0.033551 0.039141 0.0026412 0.0085601 
0.025001 0.22098 0.080738 0.08567 0.078436 0.024179 0.005765 0.039963 
0.059857 0.21457 0.075641 0.10672 0.073997 0.040292 0.0090533 0.067585 
0.10573 0.18498 0.11559 0.13976 0.070873 0.020069 -0.0082102 0.11822 
0.089616 0.1391 0.15341 0.17182 0.086821 0.03388 0.021384 0.15999 
0.065776 0.095699 0.095206 0.147 0.069229 0.046375 0.023522 0.1299 
0.047033 0.042594 0.0056006 0.075805 0.0092177 0.0031344 -0.010019 0.039963 
0.0021479 -0.03912 -0.062796 -0.0004827 -0.055232 -0.039778 -0.029584 -0.038298 
-0.061151 0.019083 -0.073976 -0.029255 -0.03912 -0.013471 -0.038133 -0.093048 
-0.059672 0.15818 0.0059294 0.029441 0.037332 0.031742 -0.0026201 -0.084663 
0.0018191 0.26225 0.059528 0.10918 0.033551 0.024179 0.025659 -0.001798 
0.0689 0.24795 0.061337 0.10376 -0.0075525 0.0013258 -0.0082102 0.040292 
0.056733 -0.023336 -0.048327 0.033551 -0.0060728 -0.034188 -0.035996 0.060022 
0.082546 -0.2111 -0.097487 -0.019719 0.014479 0.040621 0.00066819 0.083697 
0.037661 -0.23806 -0.020212 0.011355 0.016781 0.077778 0.037826 0.09274 
-0.010348 -0.098802 0.10425 0.095864 0.05065 0.060679 0.040621 0.059364 
-0.080223 -0.0070593 0.049006 0.085506 0.031085 0.053116 0.037497 0.017603 
-0.090581 0.020562 -0.016431 0.038812 -0.0055795 0.00033937 -0.0024557 -0.0080457 
-0.010676 0.046704 0.050321 0.056733 0.016781 -0.014951 -0.02235 0.040292 
0.059035 0.14141 0.097672 0.10639 0.049006 0.015301 -0.010676 0.060515 
0.034044 0.24597 0.18465 0.18991 0.093562 0.0324 0.0051074 0.0019835 
0.023193 0.34939 0.16788 0.23348 0.11033 0.042429 0.024344 -0.014458 
0.070051 0.32374 0.098659 0.16607 0.099645 0.053281 0.02829 0.027468 
0.095042 0.16442 -0.01528 0.077121 0.019576 0.027796 0.011848 0.031085 
0.060844 -0.056219 -0.21751 -0.07973 -0.028926 0.037497 0.028947 0.043745 
0.025824 -0.20518 -0.21817 -0.13432 -0.036489 0.023522 0.0067515 0.055911 
-0.001798 -0.2014 -0.11557 -0.089595 -0.0014692 -0.014622 -0.01528 0.033222 
-0.045368 -0.2859 -0.0073881 -0.0054151 0.032236 -0.0062372 -0.02235 0.05213 
-0.00031829 -0.17936 0.33722 0.22575 0.10852 0.053774 0.01563 0.11642 
0.048184 0.067913 0.50641 0.41072 0.13713 0.10293 0.0592 0.13138 
0.057062 0.22493 0.67904 0.59338 0.10014 0.11905 0.083204 0.1008 
0.040292 0.26505 0.57645 0.61344 0.015794 0.022371 0.025988 -0.025145 
0.029769 0.25633 0.12332 0.35399 -0.030406 -0.037805 -0.031228 -0.069208 
0.044896 0.11494 -0.092061 0.10639 0.014479 -0.051287 -0.047834 -0.015116 
0.06479 0.0064227 -0.18808 -0.042079 0.079094 0.04654 0.0018191 0.020398 
0.091425 0.070873 -0.23132 -0.12626 0.11362 0.055582 0.030263 0.011026 
0.10655 0.16245 -0.17871 -0.13366 0.057062 0.049828 0.015137 0.034537 
0.10162 0.22805 -0.15914 -0.1284 -0.0082102 0.0034632 -0.017746 -0.010183 
0.093726 0.23381 -0.1358 -0.11031 -0.031721 0.0059294 0.00017495 0.027139 
0.086492 0.19484 -0.020048 -0.035338 -0.0068948 0.031742 0.007738 0.064954 
0.0592 0.15719 0.097344 0.066434 0.031414 0.029605 0.0080668 0.041114 
0.043416 0.08156 0.14223 0.12085 0.038977 0.030098 0.018425 0.021878 
-0.019226 -0.15174 0.14141 0.183 0.022206 0.025001 -0.001798 0.010862 
-0.062467 -0.48978 0.090767 0.17511 0.022206 -0.0050863 -0.015938 -0.015116 
-0.037969 -0.41809 0.12825 0.17511 0.048841 0.017603 0.00033937 0.022042 
0.03947 -0.087293 0.18678 0.2126 0.046704 0.014808 -0.0019624 0.057555 
0.086657 0.13302 0.14108 0.19303 0.024015 0.015959 -0.0019624 0.058871 
0.10507 0.080738 -0.018733 0.084519 0.019247 0.029112 0.0032988 0.053116 
0.074654 0.10359 -0.069536 0.016123 0.01415 0.015301 -0.0060728 0.016288 
0.056898 0.16525 -0.028597 0.0069159 0.0036276 -0.0013048 -0.017746 0.012835 
0.061172 0.18383 0.01974 0.033715 0.018096 0.014479 -0.014951 0.035853 
0.049664 0.10441 0.063639 0.063474 0.050814 0.028947 -0.0062372 0.037826 
0.0092177 -0.051122 0.038483 0.076463 0.0592 0.036182 0.0082312 0.030098 
0.0090533 -0.06444 0.035853 0.098823 0.053445 0.053938 0.019576 0.040621 
0.028454 -0.0013048 0.074983 0.12233 0.069886 0.035853 0.01415 0.025001 
0.066598 0.037826 0.092082 0.13105 0.059035 0.032071 0.031742 0.039634 
0.039634 0.06594 0.12546 0.15637 0.061337 0.052952 0.01267 0.017932 
0.0080668 0.066763 0.1544 0.17807 0.03536 0.031249 0.010697 -0.0049219 
-0.010019 0.02829 0.014643 0.093562 0.023357 0.012013 0.009711 -0.047341 
-0.016266 0.095699 -0.14303 -0.032872 -0.018239 -0.0027845 -0.017253 -0.028269 
-0.0082102 0.10935 -0.21077 -0.12067 -0.026131 -0.060987 -0.05885 -0.01528 
0.026152 0.074654 -0.17575 -0.13826 -0.019884 -0.0083746 -0.037147 0.026974 
0.036839 0.07597 -0.095349 -0.087622 0.0069159 0.004943 -0.028269 0.06594 
0.040456 0.060679 -0.021692 -0.020048 -0.01676 -0.020212 -0.03501 0.029112 
0.034702 0.0011614 -0.10258 -0.028433 -0.044546 -0.003771 -0.031721 0.024508 
0.010369 -0.066577 -0.14303 -0.070687 -0.021034 -0.010676 -0.033201 0.032071 
0.039305 -0.086142 0.0032988 0.0079024 0.015794 0.01711 -0.012649 0.027468 
0.061008 -0.047834 0.11033 0.098001 0.031414 0.04095 0.0037921 0.034537 
0.024179 -0.089759 0.067585 0.10343 0.040456 0.0047785 -0.014622 -0.00097594 
-0.020212 -0.2568 0.0019835 0.064625 0.03536 0.024344 0.00033937 -0.0095255 
-0.023501 -0.26585 -0.047834 0.016945 0.059528 0.051472 0.016452 0.0080668 
0.01152 0.059528 0.11263 0.095042 0.048677 0.041114 0.017603 0.012835 
0.0028056 0.3489 0.32407 0.23973 0.038812 0.010697 0.033551 0.010862 
0.004943 0.36534 0.17314 0.21342 0.007738 0.0013258 0.00083261 0.018754 
0.046211 0.27738 -0.021363 0.080902 0.034866 -0.033365 -0.03616 0.023028 
0.031742 0.19073 -0.14698 -0.0032777 0.026974 0.007738 -0.016266 0.011848 
0.025001 0.13401 -0.06 -0.019884 0.012342 0.0075736 -0.01117 0.038812 
0.026317 0.12973 0.041443 0.047526 0.0067515 0.013164 -0.0082102 0.031578 
0.053281 0.14305 0.10277 0.11165 0.017438 0.042265 0.016288 0.047033 
0.044073 0.051472 0.028783 0.080573 0.0041209 0.01711 0.0032988 0.061337 
0.024179 -0.02087 -0.10752 -0.011992 -0.027775 -0.023501 -0.027775 0.0421 
0.038812 0.0072447 -0.13399 -0.059178 -0.010183 -0.003771 -0.019884 0.049499 
0.017274 -0.12873 -0.10686 -0.06707 0.0079024 0.029934 -0.0026201 0.051143 
-0.021856 -0.33309 -0.17805 -0.12018 -0.022021 0.023522 -0.0072237 -0.0049219 
0.0032988 -0.22063 -0.13234 -0.10998 -0.0013048 -0.0011404 -0.023994 -0.015609 
0.038648 0.097508 0.010862 0.007738 0.0060938 -0.029913 -0.047012 -0.0088678 
0.031578 0.27557 0.10244 0.11773 0.047033 -0.021528 -0.025802 -0.0024557 
0.034537 0.2514 0.16837 0.17988 0.12085 0.056076 0.020562 0.055254 
0.06594 0.21276 0.2001 0.21934 0.12414 0.090274 0.054432 0.064954 
0.028947 0.14141 0.11839 0.17971 0.089616 0.061172 0.058871 0.042265 
0.0051074 0.012835 0.060022 0.13056 0.05476 0.05213 0.036017 0.035031 
0.013657 -0.076442 0.094713 0.13582 0.052952 0.026317 0.020727 0.084684 
0.049828 -0.095185 0.099481 0.1391 0.079751 0.050321 0.0324 0.10343 
0.095864 -0.054246 0.090109 0.13056 0.071037 0.077449 0.049992 0.13023 
0.084355 0.07038 0.0088889 0.0689 0.030263 0.028454 0.020562 0.055582 
0.094384 0.13056 -0.062467 0.0031344 -0.025474 -0.022514 -0.021363 -0.019226 
0.13138 0.16393 -0.063124 0.0024767 -0.054082 -0.046683 -0.053095 0.01152 
0.1294 0.19632 -0.10538 -0.011827 -0.0062372 0.020233 -0.017417 0.013328 
-0.036818 0.13746 -0.1233 -0.049971 0.057884 0.071202 0.026974 0.0090533 
-0.17772 0.088136 -0.092554 -0.046683 0.081889 0.067585 0.036017 -0.037805 
-0.071016 0.14782 -0.037311 -0.0138 0.064296 0.042265 0.026481 -0.042079 
0.062817 0.15867 0.19254 0.14256 0.06183 0.060844 0.035031 0.041607 
0.055254 0.044073 0.39526 0.32341 0.068242 0.051143 0.032729 0.08567 
0.0036276 -0.15092 0.37339 0.37339 0.054925 0.038812 0.040292 0.046375 
-0.029255 -0.24562 0.2468 0.30483 0.021713 0.013164 -0.00064712 0.018425 
-0.018404 -0.25713 0.26455 0.2976 0.027468 -0.0083746 -0.01939 0.0019835 
0.038812 -0.18265 0.19665 0.26126 0.057227 0.007738 0.0072447 0.021056 
0.097672 0.12957 -0.048327 0.10244 0.039963 0.035688 0.007738 0.051801 
0.11872 0.27951 -0.24973 -0.060987 0.015137 0.022864 0.0044497 0.070708 
0.085835 0.25896 -0.2864 -0.17197 0.029441 0.032729 0.015959 0.042429 
0.084684 0.20421 -0.18627 -0.14763 0.050486 0.019247 0.004943 0.041278 
0.047033 0.11132 -0.068057 -0.072825 0.03388 0.017932 0.0024767 0.038155 
0.02681 -0.015116 0.044073 0.023522 0.026317 0.03092 0.0051074 0.052459 
0.019905 -0.10965 0.10967 0.10425 0.016123 0.04506 0.013821 0.096028 
0.01267 -0.18726 0.053938 0.093562 -0.063618 0.055254 0.019905 0.061666 
0.033222 -0.03057 -0.013307 0.041607 -0.058685 -0.0013048 -0.0073881 -0.0049219 
0.084519 0.15242 0.044567 0.051965 -0.040928 -0.023501 -0.0406 -0.0082102 
0.06594 0.13006 0.063145 0.084026 -0.013143 -0.00081153 -0.024487 -0.0022913 
0.049664 0.10655 0.035195 0.10293 0.055747 0.080902 0.016945 0.025001 
0.0090533 0.15834 0.08008 0.13598 0.095042 0.039634 0.015301 0.030098 
-0.022843 0.16706 0.19649 0.20158 0.095699 0.024508 0.022042 -0.0027845 
-0.024158 0.16179 0.32637 0.30664 0.082053 0.017767 0.0023123 -0.012485 
-0.022514 0.09422 0.29908 0.32177 0.079587 0.05624 0.027139 0.018096 
-0.0091966 -0.034845 0.13878 0.23068 0.090931 0.073832 0.059364 0.027139 
0.0095465 0.018918 0.025495 0.12858 0.079422 0.071366 0.048513 0.049664 
0.045553 0.17544 -0.041422 0.037826 0.017438 0.032236 0.020398 0.070051 
0.052952 0.14371 -0.14451 -0.065919 -0.049478 0.031085 0.01267 0.051636 
0.0421 -0.018733 -0.11064 -0.073154 -0.074798 0.0062583 -0.019061 0.045553 
0.043909 -0.1427 -0.0059084 -0.0004827 -0.063289 -0.014951 -0.028926 0.038812 
0.042923 -0.19498 -0.012978 0.065283 -0.029913 -0.0024557 -0.034188 0.0079024 
-0.0049219 -0.21899 -0.048163 0.0227 -0.043066 -0.052109 -0.06444 -0.020706 
0.0036276 -0.098802 -0.011992 0.03651 -0.0031133 -0.077428 -0.081703 0.0056006 
0.010862 0.15637 0.15851 0.147 0.03799 0.0051074 -0.045861 -0.0024557 
0.043416 0.28741 0.14897 0.17544 0.082546 0.026481 -0.010183 0.044731 
0.093069 0.2754 -0.049314 0.058542 0.11263 0.09422 0.062488 0.075312 
0.075148 0.26685 -0.091732 -0.0067304 0.14996 0.12677 0.091425 0.094713 
0.065776 0.11954 0.00050378 0.016781 0.10589 0.054267 0.051801 0.085012 
0.016781 -0.16128 0.013164 0.020727 0.011026 -0.01528 -0.0013048 0.018754 
0.0095465 -0.17575 0.018425 0.033058 -0.029255 -0.043724 -0.045532 0.018754 
0.029605 -0.039613 0.0013258 0.044896 -0.02498 -0.0068948 -0.031228 0.028125 
0.029276 0.10754 -0.041422 0.044238 0.00066819 0.015794 -0.0064016 0.021713 
0.012342 0.1105 0.054925 0.082546 0.0018191 0.0095465 -0.017417 0.025988 
0.02122 0.015301 0.12677 0.14075 0.023851 0.015794 -0.0082102 0.050979 
0.013492 -0.018568 0.13138 0.16212 0.017438 0.029112 0.0056006 0.0037921 
-0.00097594 -0.056877 0.091425 0.14387 0.038648 0.026152 0.0031344 -0.0057439 
0.04358 -0.097816 0.10293 0.14716 0.039963 0.027796 0.005765 0.0059294 
0.094055 -0.12116 0.16377 0.18169 0.030756 0.024015 -0.00081153 0.017603 
0.051801 -0.049149 0.22148 0.22559 0.0324 0.01563 -0.0042642 0.036182 
-0.065591 0.090274 0.072517 0.14124 0.022042 0.01152 -0.0087034 0.038977 
-0.088444 0.07449 -0.11245 -0.0022913 -0.012814 0.0019835 -0.023172 -0.017746 
-0.033694 0.01826 -0.18676 -0.079566 -0.04323 -0.041915 -0.047505 0.016945 
0.035524 0.049664 -0.19827 -0.092226 -0.0067304 -0.01232 -0.013471 0.10047 
0.021878 0.072353 -0.093705 -0.054246 0.040456 0.037661 0.0047785 0.072024 
0.030427 0.13598 0.0227 0.026646 0.08304 0.053774 0.020233 0.01826 
0.092082 0.23233 0.058542 0.070873 0.054103 0.090274 0.05772 0.013821 
0.096193 0.12579 -0.026953 0.034209 0.026646 0.014808 0.01004 0.02533 
0.071695 0.052787 0.013657 0.048184 0.028125 -0.030406 -0.035503 0.0060938 
-0.0078813 -0.025309 0.054267 0.077943 0.0082312 0.0018191 -0.021528 -0.015116 
0.029441 -0.0096899 0.03947 0.06742 0.015137 0.043251 0.010533 0.0062583 
0.075148 0.0032988 -0.0060728 0.035524 -0.010019 0.019083 0.0041209 0.049499 
0.055418 -0.017253 -0.030077 0.01267 -0.056383 0.004943 -0.015609 0.040785 
0.031249 0.010204 0.013986 0.052787 -0.046519 -0.015444 -0.034681 0.019247 
0.0019835 0.045718 0.0080668 0.076792 -0.0050863 -0.033201 -0.047834 -0.017088 
-0.024158 -0.009361 -0.089595 0.00099702 0.045718 0.005765 -0.029091 -0.025309 
-0.004593 -0.0032777 -0.083347 -0.018568 0.077614 0.0082312 -0.019555 -0.01528 
0.027139 0.015137 0.10655 0.094055 0.10918 0.053116 0.022864 0.04654 
0.084848 0.07038 0.36353 0.28609 0.16097 0.090603 0.052294 0.043251 
0.10524 0.083862 0.2514 0.28461 0.14338 0.10392 0.07038 0.079258 
0.10408 -0.011334 0.0024767 0.12891 0.055089 0.077285 0.070051 0.074819 
0.048184 0.018918 -0.088773 0.012506 0.0082312 0.023357 0.020233 0.0227 
0.042923 0.14058 0.060022 0.063968 -0.003771 0.011026 0.00099702 0.040621 
0.049335 0.17692 0.13088 0.12644 0.0046141 0.01826 0.0072447 0.099481 
-0.0072237 0.19353 0.082711 0.14108 -0.0029489 0.0079024 -0.010019 0.054432 
-0.033365 0.18185 0.11691 0.18004 -0.001798 -0.0039354 -0.019719 0.016616 
-0.0087034 0.13319 0.1784 0.20602 -0.017088 -0.0024557 -0.019555 0.024179 
0.020069 0.18843 0.058871 0.13582 -0.049971 0.0023123 -0.021528 0.055089 
-0.016595 0.19961 -0.047012 0.052952 -0.0004827 0.0083956 -0.014458 0.018425 
-0.028433 0.2343 -0.08121 -0.012649 0.022042 0.044402 -0.0034422 -0.032872 
0.056569 0.1978 -0.071838 -0.021199 0.03947 0.02122 -0.0060728 -0.012156 
0.12562 0.1493 -0.034681 -0.013965 0.041114 0.026317 0.0036276 0.031414 
0.14946 0.0069159 0.054596 0.044073 0.0227 0.047855 0.016452 0.050321 
0.096028 -0.45657 -0.025474 0.010369 0.036675 0.052623 0.025659 0.01563 
-0.010019 -0.84343 -0.1769 -0.086471 0.038319 0.035031 0.029441 -0.023501 
-0.020048 -0.42927 -0.1108 -0.049478 0.055418 0.035031 0.021549 -0.042079 
0.03799 0.1738 0.075312 0.083697 0.040621 0.034537 0.016945 -0.017911 
0.0421 0.47747 0.15324 0.15522 0.026317 0.038977 0.029769 -0.021034 
0.023851 0.42897 0.083204 0.13417 0.032071 0.022535 0.0075736 -0.010676 
0.029112 0.22493 0.012999 0.077943 0.032564 0.015794 0.00033937 0.032564 
0.050486 0.11477 -0.013636 0.046375 0.028619 0.019576 0.0069159 0.1105 
0.064296 0.0069159 -0.068221 0.0014903 0.026974 0.025001 0.0026412 0.15111 
0.067749 -0.018733 -0.1016 -0.043066 0.020727 0.028454 0.007738 0.16311 
0.11 0.12776 0.045882 0.012506 0.051308 0.10984 0.059857 0.13088 
0.088958 0.22049 0.147 0.11444 0.051472 0.047691 0.035195 0.064625 
0.016781 0.14864 0.093562 0.13056 0.012999 0.015137 0.0082312 -0.00064712 
-0.00031829 0.061008 0.083862 0.15242 -0.019555 0.012342 -0.011498 -0.021528 
-0.006566 -0.048327 0.092082 0.14864 -0.0050863 0.0042853 -0.019061 -0.051944 
-0.0047575 -0.04619 0.24121 0.23644 0.02681 0.039963 0.012342 -0.045039 
0.024015 0.0016547 0.15275 0.21145 0.034044 0.053938 0.024179 -0.025967 
0.014315 0.050814 -0.084169 0.055089 0.060022 0.050157 0.02122 -0.016924 
-0.00015387 -0.0021268 -0.19959 -0.078744 0.027303 0.016781 0.023193 -0.0077169 
-0.048327 -0.051122 -0.059014 -0.041093 0.01152 -0.00097594 -0.0098543 0.0069159 
0.0014903 -0.024652 0.061501 0.047197 0.033715 -0.040928 -0.043066 0.062488 
0.053116 0.044731 0.050979 0.067913 0.064132 0.0083956 -0.0078813 0.074983 
0.083368 -0.0004827 0.1008 0.10228 0.052952 0.047526 0.013821 0.048348 
0.070708 -0.13859 0.19501 0.18498 0.08008 0.01004 -0.0014692 -0.0059084 
0.084355 -0.23494 0.064461 0.16344 0.066105 0.041936 0.015465 0.039634 
0.059693 -0.109 0.007738 0.094055 0.071202 0.044402 0.025495 0.093726 
-0.0052507 0.11609 -0.030242 0.041607 0.047526 0.055911 0.031414 0.072024 
-0.084334 0.25469 -0.10324 -0.022514 0.029276 0.061995 0.028454 -0.028926 
-0.085649 0.22296 -0.17756 -0.096007 -0.015609 0.01974 0.0034632 -0.079566 
-0.0052507 0.14683 -0.14122 -0.10061 -0.029748 -0.012485 -0.021856 -0.0503 
0.0085601 0.0227 -0.085156 -0.06444 -0.03764 -0.0080457 -0.029091 -0.001798 
-0.016595 -0.020212 0.019247 0.010697 0.0046141 -0.02235 -0.041422 -0.017088 
-0.0054151 -0.040435 0.050321 0.050157 0.0036276 -0.017746 -0.035174 -0.0027845 
0.01826 -0.068386 0.15982 0.13434 0.026974 0.014315 -0.017088 0.023851 
0.075148 0.017932 0.32736 0.30007 0.051801 0.034373 0.0028056 0.038977 
0.1202 0.13072 0.3535 0.38622 0.050486 0.044567 0.032071 0.10145 
0.058706 0.17445 0.16755 0.26998 0.04095 0.034702 0.015465 0.11855 
0.029276 0.18004 -0.042737 0.10096 0.034866 0.014315 -0.001798 0.059035 
0.018425 0.14321 -0.12609 -0.012156 0.047033 0.027468 0.016123 0.033715 
0.041772 0.11017 -0.066084 -0.0138 0.058871 0.04095 0.014808 0.007738 
0.040128 0.13121 0.03388 0.035195 0.052294 0.011684 0.00297 0.016288 
0.03799 0.061337 0.082217 0.088136 0.029934 0.03799 0.009711 0.023028 
0.0041209 -0.032215 0.066269 0.084026 0.014479 0.009711 -0.0088678 0.021878 
0.024508 -0.017911 0.062159 0.085835 -0.0059084 0.014972 -0.0057439 0.026481 
0.028454 -0.057534 0.011191 0.058871 0.005765 0.042923 0.011848 0.029441 
0.0041209 -0.16161 -0.057534 0.021056 0.014972 0.015301 -0.0026201 0.027961 
0.0227 -0.15306 -0.11196 -0.0004827 0.017438 -0.0087034 -0.019719 0.03536 
0.029769 -0.010676 -0.069043 -0.013307 0.0083956 0.038648 0.0016547 0.046211 
0.03388 0.16738 0.0227 0.036839 0.019083 0.016288 -0.0070593 0.0047785 
-0.014951 0.2052 0.11724 0.11625 0.029934 1.0539e-005 -0.0036066 -0.021034 
0.00033937 0.20586 0.29826 0.26176 0.027468 -0.0062372 -0.0138 0.04095 
0.05476 0.29563 0.33525 0.33476 0.079258 0.021384 -0.0013048 0.040621 
0.082217 0.25748 0.22739 0.28987 0.078765 0.086328 0.07597 0.093562 
0.14881 0.16541 0.058542 0.16278 0.069886 0.084848 0.068078 0.10573 
0.12513 0.06594 -0.02942 0.043416 -0.020706 0.048348 0.043416 0.079587 
0.049499 -0.12873 -0.20962 -0.096007 -0.061316 -0.010841 -0.0014692 0.031249 
0.016288 -0.11755 -0.19054 -0.10521 -0.043724 0.0013258 -0.011992 0.059035 
-0.099789 -0.12379 -0.10308 -0.049807 0.018589 0.0092177 -0.012156 0.010533 
-0.17936 -0.22885 -0.067728 -0.035667 0.04358 0.010697 -0.013636 -0.058685 
-0.060823 -0.10357 -0.058685 -0.019226 0.051472 -0.013965 -0.029584 -0.05441 
0.1026 0.13631 0.016123 0.03388 0.085506 0.024673 -0.0052507 0.018096 
0.14042 0.22838 0.14765 0.13138 0.1294 0.08863 0.041443 0.077614 
0.13615 0.13417 0.17149 0.17873 0.10211 0.066434 0.041278 0.092411 
0.095535 0.053774 0.12792 0.16426 0.028125 0.049006 0.03799 0.056569 
0.058213 0.063968 0.21967 0.21638 0.019411 0.050157 0.026974 0.051472 
0.031414 0.062159 0.3244 0.28017 0.032071 0.019247 0.0051074 0.041772 
0.072353 0.018425 0.19665 0.24532 -0.02794 -0.011005 -0.0021268 0.054103 
0.12414 0.049828 0.013657 0.14486 -0.021199 0.014643 -0.018239 0.12464 
0.073832 0.091425 -0.15569 0.013492 0.004943 0.028783 -0.0014692 0.094384 
-0.052109 0.085999 -0.23132 -0.10702 0.016781 0.03947 0.01004 -0.014293 
-0.12462 -0.026953 -0.17361 -0.11919 0.015794 -0.0031133 -0.022185 -0.092883 
-0.084663 -0.11656 -0.14221 -0.10735 -0.022185 -0.042737 -0.045696 -0.07825 
0.039963 -0.036654 -0.025474 -0.029913 -0.028762 -0.010019 -0.028104 0.014808 
0.10869 0.10507 0.12036 0.094713 0.0093821 0.01004 -0.018897 0.051965 
0.090438 0.15768 0.16623 0.15752 0.03388 0.018754 -0.010019 0.0062583 
0.072846 0.17462 0.12908 0.15587 0.063968 0.072846 0.02681 0.045553 
0.06035 0.093233 0.0087245 0.075312 0.073504 0.065776 0.037168 0.067749 
0.061337 0.0032988 -0.10883 -0.021199 0.065447 0.042758 0.025495 0.054596 
0.038648 -0.0050863 -0.15766 -0.053095 0.037004 0.021384 0.00099702 0.039141 
0.0042853 0.03388 -0.063946 -0.019061 0.052459 0.039141 0.0090533 0.055418 
0.05624 0.073997 0.11148 0.089616 0.07038 0.040785 0.021056 0.048841 
0.087314 0.089616 0.21852 0.19698 0.055747 0.064461 0.027632 0.051143 
0.028454 -0.0406 0.20635 0.22624 0.015959 0.015959 0.0032988 0.013657 
-0.02087 -0.096994 0.13072 0.18909 0.0072447 -0.0087034 -0.0050863 0.00083261 
-0.030406 -0.038133 0.12792 0.17741 0.0052718 -0.011663 -0.030899 -0.0049219 
-0.0503 0.047526 0.1271 0.1636 0.048677 0.036839 1.0539e-005 -0.0080457 
-0.027282 0.076627 0.036675 0.1174 0.08978 0.074983 0.038155 -0.0091966 
0.019247 0.03092 -0.090088 0.0023123 0.055254 0.050814 0.029934 0.015301 
0.044896 0.0051074 -0.17608 -0.078744 0.0041209 0.0085601 0.0039565 -0.0064016 
0.062817 0.039799 -0.18035 -0.084663 -0.025474 0.005765 -0.0059084 0.021056 
0.032236 0.032236 -0.089431 -0.066906 -0.0031133 0.0031344 -0.023829 0.005765 
0.073832 0.033058 -0.020212 -0.011334 -0.00031829 -0.0070593 -0.027775 0.014972 
0.059528 0.040785 0.094713 0.083204 0.050486 -0.0040998 -0.022021 0.016616 
0.056569 0.066434 0.23594 0.20208 0.040785 0.012835 -0.013471 0.025824 
-0.00015387 0.12168 0.24696 0.24828 0.026974 0.019411 -0.0031133 0.031085 
-0.031557 0.09981 0.070873 0.15768 0.038155 0.039799 0.0064227 0.030098 
-0.040271 0.12595 0.0016547 0.088136 0.04358 0.027139 0.010369 0.080902 
0.037004 0.1442 0.057391 0.087479 0.030592 0.037826 0.029605 0.066763 
0.080409 0.12168 0.047197 0.078436 -0.0049219 0.031578 0.013164 0.06183 
0.07038 0.076627 0.011026 0.073832 -0.01939 -0.0024557 -0.011334 0.047362 
0.063145 0.04095 -0.0022913 0.080738 0.00033937 0.007738 -0.0014692 0.035524 
0.053445 -0.022514 -0.049642 0.029276 0.010533 0.027632 0.00083261 0.037168 
0.024015 -0.13218 -0.11985 -0.037805 0.00297 0.0024767 -0.011334 0.027961 
0.0042853 -0.15914 -0.13152 -0.068879 -0.0091966 0.02829 0.0069159 0.0065871 
-0.023829 -0.047998 -0.047176 -0.029748 -0.019226 0.020069 -0.0060728 0.01267 
-0.069043 0.083368 0.030427 0.031085 -0.05178 -0.014293 -0.02498 -0.019061 
-0.091075 0.053281 0.048677 0.060186 -0.059836 -0.03205 -0.047341 -0.043395 
-0.064933 -0.028926 0.024837 0.055582 -0.045696 -0.063124 -0.074962 -0.017417 
0.020562 0.045553 0.092576 0.096193 0.023357 -0.05441 -0.070359 -0.0083746 
0.11937 0.14026 0.11066 0.12957 0.11115 0.031249 -0.013471 0.046211 
0.17314 0.2565 0.11576 0.16245 0.18136 0.10589 0.053938 0.11839 
0.15094 0.20454 0.094877 0.17528 0.14798 0.15045 0.098823 0.10606 
0.097179 0.050157 0.10277 0.15324 0.1179 0.11477 0.088794 0.081067 
0.030098 -0.084991 0.081231 0.13056 0.06742 0.043745 0.040785 0.057062 
-0.010841 -0.060823 0.10162 0.13697 0.005765 0.017603 0.02681 0.0042853 
-0.01528 0.020069 -0.019719 0.058213 -0.030735 -0.008539 -0.016431 -0.01939 
-0.033694 0.063803 -0.16884 -0.059343 -0.11327 -0.092226 -0.081374 -0.060329 
0.010204 0.060844 -0.13251 -0.07973 -0.065755 -0.072003 -0.071509 -0.017417 
0.044402 0.15966 -0.030406 -0.028433 0.033551 0.043087 -0.0062372 0.095699 
0.019411 0.24795 0.013657 0.016616 0.083204 0.097015 0.053938 0.085835 
-0.0042642 0.18037 0.085177 0.080573 0.064954 0.076627 0.055254 0.011684 
-0.029584 -0.20781 0.014972 0.086328 0.014972 0.017767 0.011355 -0.027118 
-0.01939 -0.42286 0.022535 0.099974 -0.00031829 -0.0083746 -0.016924 -0.010841 
0.045718 -0.088773 0.13269 0.14733 -0.014787 -0.0032777 -0.021363 0.01826 
0.084848 0.27277 0.147 0.17166 -0.038956 -0.014787 -0.033365 0.039634 
0.13368 0.3341 -0.033201 0.073832 -0.011498 -0.021034 -0.037147 0.058542 
0.11625 0.13894 -0.16523 -0.045861 0.070215 0.057062 0.0079024 0.084684 
-0.025309 -0.1667 -0.13464 -0.073318 0.067585 0.040785 0.011684 0.040621 
-0.13991 -0.24842 -0.018075 -0.016595 0.059035 0.022206 0.0072447 -0.013307 
-0.053917 0.015465 0.18251 0.13154 0.06742 0.055582 0.021056 0.0090533 
0.053445 0.17856 0.28889 0.24236 0.064461 0.046046 0.0227 0.026646 
0.091425 0.22148 0.20536 0.24038 0.041607 0.026646 0.026974 0.015465 
0.079587 0.27212 0.11115 0.19303 0.021056 -0.014787 -0.0091966 -0.0067304 
0.051636 0.16853 0.01267 0.13105 0.015301 0.0092177 -0.012156 0.03799 
0.019247 0.051965 -0.078415 0.02681 0.0227 0.016123 -0.021692 0.0082312 
0.011848 -0.028926 -0.12659 -0.039449 0.029112 0.015465 -0.015609 0.020398 
0.040785 -0.088937 -0.12182 -0.064768 0.0037921 0.0018191 -0.0138 0.046211 
0.044896 -0.069372 -0.020048 -0.0080457 0.032071 0.0324 -0.0004827 0.046868 
0.055911 -0.0022913 0.085999 0.078436 0.034044 0.046375 0.013821 0.06035 
0.04917 0.011848 0.091753 0.10359 0.018754 0.025988 0.005765 0.055747 
0.067256 0.085999 0.043416 0.07449 0.017438 0.036182 0.012835 0.057227 
0.064132 0.10704 0.064296 0.084026 0.034044 0.036017 0.013492 0.062488 
0.062981 0.098988 0.13121 0.13976 0.0082312 0.024837 0.012013 0.049992 
0.059035 0.11066 0.12332 0.17725 -0.0090322 0.032564 0.00017495 0.024344 
-0.023336 0.15127 0.079258 0.15587 -0.050958 -0.037311 -0.04471 -0.050958 
-0.083018 0.2389 0.080244 0.14075 0.011191 -0.043559 -0.046519 -0.089431 
-0.074798 0.070051 0.097344 0.13993 0.11609 0.026481 -0.012978 -0.065919 
-0.021363 -0.29117 0.010697 0.085341 0.12677 0.078436 0.035195 -0.0014692 
0.044731 -0.32027 -0.058685 0.024508 0.1225 0.087808 0.076299 0.028454 
0.089452 -0.12955 -0.0077169 0.031578 0.098166 0.08715 0.06594 0.084848 
0.11707 0.096193 0.12283 0.10721 0.075148 0.066269 0.051965 0.11806 
0.11231 0.25074 0.098988 0.11494 0.051636 0.048513 0.041607 0.09981 
0.095371 0.22855 0.035524 0.071366 0.0036276 0.040292 0.024015 0.07597 
0.034209 0.08863 -0.076606 0.00083261 -0.027282 -0.018568 -0.020048 0.064296 
-0.017088 -0.05178 -0.15437 -0.043066 -0.053917 -0.029584 -0.042737 0.038648 
-0.017911 -0.087786 -0.098144 -0.038627 -0.020706 -0.021363 -0.042079 0.066105 
0.037332 -0.05589 -0.0024557 0.014808 0.0087245 0.0059294 -0.022679 0.079258 
0.063968 0.023193 0.09981 0.091589 0.033058 0.0324 0.0059294 0.016945 
0.075805 0.12135 0.052952 0.095535 0.041936 0.035195 0.0065871 0.023028 
0.064954 0.17248 0.027961 0.073175 0.050486 0.019083 0.0087245 0.054596 
0.063145 0.079916 0.056898 0.085999 0.041772 0.037661 0.0062583 0.021878 
0.0064227 0.047197 0.072188 0.097508 0.0082312 0.012999 -0.006566 -0.013471 
-0.043066 0.024344 0.042758 0.079916 -0.021363 -0.0021268 -0.0031133 -0.033365 
-0.054575 0.034537 0.11148 0.11296 -0.0062372 -0.011005 -0.021692 -0.029255 
-0.0091966 0.1128 0.2805 0.25666 0.0052718 -0.01676 -0.03205 0.019083 
0.041114 0.13417 0.25419 0.30862 0.047691 0.015465 0.0046141 0.050979 
0.054596 0.055418 0.025166 0.15686 0.065118 0.056569 0.021384 0.04917 
0.053938 0.017932 -0.055397 0.057555 0.043745 0.042594 0.015959 0.049006 
0.021056 -0.0024557 -0.0072237 0.047691 0.03651 0.041114 0.024837 0.03388 
0.038155 0.066434 -0.00097594 0.048019 0.034209 0.026317 0.017274 0.041772 
0.025166 0.047197 -0.080388 -0.0068948 0.04654 0.013657 0.0014903 0.049664 
0.0093821 -0.17098 -0.16539 -0.084663 0.013492 0.032893 -0.0021268 0.036182 
0.0023123 -0.19712 -0.11393 -0.090581 0.013492 0.019247 -0.0034422 0.012999 
0.023193 -0.065591 0.037826 0.03651 0.039305 0.012835 -0.015444 0.052787 
0.01415 -0.0024557 0.1151 0.10474 0.01267 0.015137 -0.011498 0.022371 
0.053281 0.10902 0.053774 0.10704 0.035524 0.020727 -0.0047575 0.032071 
0.06742 0.15341 0.0056006 0.095535 -0.00031829 -0.0032777 -0.017746 0.050814 
0.068078 0.18415 -0.0042642 0.06183 -0.0090322 0.015794 -0.010512 0.019905 
0.04654 0.15489 -0.0029489 0.052294 0.037661 0.01974 -0.0039354 0.022535 
0.027139 0.068407 0.019247 0.062323 0.074161 0.025824 0.018425 0.029276 
0.01152 0.050321 0.0080668 0.054596 0.079751 0.060022 0.025166 -0.0057439 
0.020727 0.078436 -0.0088678 0.040621 0.060022 0.036346 0.016781 0.027632 
0.019247 0.072024 0.030098 0.051636 0.051636 0.027139 0.016945 0.044567 
0.035031 0.07038 0.060186 0.072517 0.033551 0.023193 0.00297 0.030263 
0.066269 0.029769 0.073668 0.079751 0.010862 0.0034632 -0.0091966 0.03799 
0.046375 -0.0036066 0.030098 0.066763 -0.011992 0.0052718 -0.014951 0.01267 
0.0075736 -0.00097594 0.017932 0.089287 0.0056006 0.0044497 -0.026131 -0.030242 
-0.017746 0.041114 0.15883 0.18646 0.024673 0.013657 -0.016431 -0.040928 
0.013492 0.069722 0.28593 0.27228 0.035031 0.041114 0.010204 -0.030077 
0.044896 0.095864 0.083204 0.17676 -0.0098543 -0.0077169 -0.019884 0.0032988 
0.050157 0.069886 -0.18907 -0.023007 -0.0022913 -0.0022913 -0.021528 0.054267 
0.056569 0.13154 -0.1621 -0.075949 0.048841 0.072846 0.021384 0.077614 
0.058049 0.15061 -0.055561 -0.035996 0.080738 0.097179 0.056733 0.053609 
0.030592 0.047691 0.022371 0.018918 0.029605 0.020727 0.027468 0.050486 
0.047691 -0.023172 0.060022 0.060844 0.0095465 0.00099702 -0.0068948 0.067749 
0.064954 -0.063946 0.025988 0.055747 0.0036276 -0.0077169 -0.020541 0.095699 
0.058871 -0.036818 0.060022 0.082711 0.015959 0.0034632 -0.0062372 0.088794 
0.078436 0.0016547 0.050979 0.11066 0.013328 -0.00064712 -0.023336 0.05476 
0.075476 -0.075784 -0.058521 0.05624 0.05772 -0.022679 -0.039449 0.0059294 
0.024673 -0.061645 -0.1039 -0.010676 0.084026 0.03388 0.0021479 -0.0022913 
0.026317 0.051308 0.021878 0.041278 0.11921 0.074654 0.035195 0.020233 
0.0082312 0.17133 0.14864 0.13417 0.10408 0.087479 0.058049 0.06331 
-0.043724 0.15045 0.17034 0.17824 0.043416 0.063803 0.045553 0.030263 
-0.071509 -0.060494 0.2121 0.22213 0.044402 0.019905 0.0062583 -0.062302 
-0.014129 -0.035338 0.22065 0.24285 0.041936 0.0037921 -0.0095255 -0.042737 
0.083533 0.22674 0.11198 0.17774 0.0080668 0.03388 -0.0014692 -0.0021268 
0.13154 0.23594 -0.083018 0.031085 -0.0059084 0.0059294 -0.012156 0.011026 
0.10211 0.02122 -0.13711 -0.047505 -0.01676 0.00050378 -0.015938 0.026317 
0.048677 -0.086964 -0.07266 -0.010676 0.013657 0.023028 -0.0138 0.034702 
0.065447 0.02122 0.089123 0.10589 0.044567 0.017932 -0.0067304 0.055089 
0.072188 0.2121 0.14782 0.15719 0.051472 0.027468 0.016616 0.045882 
0.064296 0.24811 0.074983 0.12414 0.025001 0.040785 0.0032988 -0.020377 
-0.042244 0.045389 -0.12971 -0.0078813 0.013657 -0.011498 -0.025309 -0.074469 
-0.081703 -0.13612 -0.12363 -0.054904 -0.0059084 -0.0052507 -0.0075525 -0.044217 
-0.057041 -0.14434 -0.014951 -0.0011404 0.010697 0.009711 -0.013471 -0.015444 
-0.0004827 -0.043066 0.086492 0.061666 0.0080668 0.011355 -0.0026201 0.072188 
0.048677 0.047033 0.14979 0.13154 0.0324 0.053445 0.032893 0.12151 
0.10277 0.10359 0.19681 0.183 0.079751 0.073175 0.046704 0.1031 
0.08419 0.11855 0.11609 0.16278 0.021549 0.045553 0.030427 0.098659 
0.049499 0.055418 0.030756 0.13532 -0.041422 -0.02498 -0.01939 0.062488 
0.0036276 -0.013143 -0.029091 0.07597 -0.022843 -0.022514 -0.039778 0.025166 
0.040785 0.049664 0.028947 0.0786 0.0592 0.00050378 -0.021692 0.04095 
0.068078 0.074983 0.049335 0.090109 0.096193 0.066763 0.017767 0.056733 
0.095864 0.10096 0.027303 0.075312 0.090109 0.06035 0.031414 0.037826 
0.077285 0.14453 0.055911 0.087314 0.086163 0.054925 0.035524 0.034866 
0.065612 0.10704 0.12612 0.13582 0.075641 0.069229 0.03799 0.027796 
0.012177 0.040128 0.12283 0.14272 0.033715 0.022371 0.014315 -0.025638 
-0.0027845 0.0083956 0.12546 0.14798 -0.010019 -0.021199 -0.0083746 -0.02942 
0.01267 0.020069 0.086657 0.11461 -0.01939 -0.027611 -0.040271 -0.022185 
0.030592 0.0074092 0.062817 0.11806 0.031085 0.038319 -0.00064712 0.015959 
0.028947 -0.15569 -0.080881 0.043745 0.034209 0.049992 0.02829 0.034044 
-0.022021 -0.279 -0.14582 -0.044217 -0.0004827 0.019576 0.00083261 -0.011992 
-0.077757 -0.13925 -0.045861 -0.016102 -0.014787 -0.001798 -0.019719 -0.022514 
-0.092719 0.06035 -0.032379 0.00083261 -0.017746 0.014479 -0.010676 -0.025145 
-0.055232 0.15094 -0.06444 -0.016266 -0.045696 -0.034516 -0.04323 -0.043066 
0.018096 0.14108 -0.1187 -0.052602 -0.034352 -0.029091 -0.044217 -0.0064016 
0.078929 0.27442 -0.0034422 0.01267 0.016616 0.034209 -0.016102 0.10606 
0.068242 0.41039 0.13697 0.10951 0.037168 0.049992 0.011684 0.12168 
0.074161 0.3364 0.15851 0.15801 0.022371 0.05213 0.022042 0.10129 
0.063639 0.10836 0.15407 0.17314 0.018425 0.034537 0.010204 0.048677 
0.090931 -0.085485 0.1197 0.17725 0.01415 0.01711 -0.0011404 0.0031344 
0.11937 -0.18693 0.01267 0.13203 0.010862 0.0067515 -0.0024557 0.037497 
0.083697 -0.10965 -0.052766 0.046704 0.038812 0.055747 0.0098754 0.042429 
0.012013 0.043251 -0.010841 0.04095 0.078436 0.061501 0.030427 0.0072447 
-0.088773 0.13023 -0.062467 0.0013258 0.039634 0.043416 0.035688 -0.031392 
-0.10012 0.13187 -0.11294 -0.047505 -0.0075525 0.0065871 -0.0014692 -0.021199 
-0.0098543 0.049664 -0.088608 -0.0503 -0.010512 0.0080668 -0.0062372 0.027961 
0.048184 -0.032708 -0.074469 -0.045532 -0.018075 0.0024767 -0.0052507 0.05476 
0.080409 0.014808 0.012999 0.010369 -0.022679 -0.0068948 -0.021856 0.059528 
0.075148 0.058377 0.076627 0.065776 0.0032988 -0.01117 -0.02794 0.04917 
0.062159 0.078436 0.11066 0.11954 0.04358 0.025659 -0.011334 0.053774 
0.058377 0.050486 0.063639 0.13203 0.098988 0.054925 0.024179 0.054925 
0.04358 -0.019226 0.0090533 0.10474 0.090438 0.071037 0.039799 0.060022 
-0.0055795 -0.050464 0.048348 0.086985 0.013492 0.046375 0.019905 0.053609 
-0.009361 -0.052931 0.10145 0.12546 0.028947 0.0083956 -0.0055795 0.0095465 
0.019247 0.025824 0.18596 0.19139 0.02829 0.01711 -0.00081153 0.056404 
0.044731 0.12562 0.17314 0.20536 0.037661 0.047855 0.0064227 0.065447 
0.087643 0.18021 0.030427 0.11559 0.04358 0.01563 -0.0040998 0.04358 
0.046211 0.20734 -0.088608 0.0062583 0.012177 0.025988 0.016452 0.063803 
0.054432 0.24647 -0.11804 -0.048163 0.024837 0.035688 0.014315 0.066927 
0.050814 0.1641 -0.063289 -0.038791 0.019411 -0.0013048 -0.01117 0.004943 
0.037661 0.076792 0.00017495 0.0021479 0.014972 0.0052718 -0.0021268 0.0054362 
0.029112 -0.012485 0.0227 0.065776 0.021384 0.01004 -0.013636 0.015465 
0.037168 -0.1016 0.065447 0.11033 0.010204 -0.011334 -0.02794 0.024508 
0.038977 -0.098309 0.079094 0.11954 -0.0064016 -0.021199 -0.03205 0.009711 
0.031742 -0.058521 0.052459 0.10129 0.038155 0.01267 -0.023336 -0.00031829 
0.021384 0.052623 0.07449 0.11658 0.079258 0.058542 0.019247 0.019247 
0.050321 0.14585 0.058049 0.098988 0.085835 0.084519 0.049828 0.03536 
0.030592 0.11017 0.0044497 0.061995 0.05624 0.040456 0.028783 0.062159 
0.052459 0.063639 -0.012978 0.037661 0.038977 0.01974 0.0090533 0.062981 
0.054925 0.067256 -0.021856 0.018918 0.021056 0.016781 -0.0054151 0.074161 
0.084848 0.023522 -0.0004827 0.025659 0.025001 0.011355 -0.011827 0.064625 
0.085341 -0.0060728 0.026646 0.051965 0.052623 0.03092 0.0075736 0.071695 
0.072517 -0.096665 -0.039613 0.043251 0.059035 0.035195 0.0032988 0.022371 
0.030263 -0.15059 -0.017582 0.048348 0.03799 -0.00031829 -0.0064016 -0.050629 
-0.013143 -0.071838 -0.033694 0.021384 -0.0088678 -0.035338 -0.021034 -0.065262 
0.0052718 -0.05441 -0.017088 0.023522 -0.018568 -0.034188 -0.045368 -0.029255 
-0.0096899 0.084026 0.083204 0.088958 -0.0083746 -0.010512 -0.032708 0.0039565 
-0.065097 0.18777 0.21358 0.18678 0.058542 0.028619 0.020069 0.0079024 
-0.033365 0.10754 0.28313 0.27113 0.11165 0.098659 0.051472 0.03947 
0.050157 0.083368 0.30878 0.30894 0.12266 0.13006 0.092411 0.052459 
0.086821 0.075476 0.19928 0.25387 0.090438 0.10113 0.082053 0.047691 
0.079587 0.032893 0.0056006 0.11609 0.020562 0.0098754 0.016288 0.017767 
0.082711 -0.0029489 -0.11903 -0.006566 -0.02235 -0.026953 -0.027118 -0.011663 
0.10376 0.029276 -0.1279 -0.025474 -0.0072237 0.019083 -0.0082102 0.028454 
0.090109 0.14601 -0.041751 0.0044497 0.0023123 0.010697 -0.010348 0.10556 
0.030263 0.22772 -0.018733 0.019411 0.016123 0.031742 0.0028056 0.12743 
0.0042853 0.12644 -0.024652 0.019083 0.025001 0.030098 -0.0026201 0.078436 
0.033551 -0.0040998 -0.024652 0.01826 0.047691 0.01267 -0.004593 0.037497 
0.049499 -0.054246 -0.00015387 0.033551 0.052294 0.020233 0.0065871 -0.011663 
0.013821 -0.060987 0.0060938 0.056733 0.074654 0.10293 0.015137 -0.0057439 
0.017438 -0.18364 -0.043559 0.0095465 0.033551 0.033551 0.010204 0.0036276 
-0.021856 -0.21784 0.014479 0.023686 0.017274 0.0065871 0.014479 0.00066819 
-0.0032777 -0.059014 0.16179 0.13105 -0.00031829 0.0016547 -0.014787 0.0037921 
0.015794 0.15094 0.18169 0.19385 0.0070803 -0.0073881 -0.023007 0.010369 
0.0034632 0.13434 0.040292 0.15028 -0.0034422 -0.012485 -0.031886 0.015137 
0.0087245 0.11033 -0.045039 0.056898 0.0088889 0.00297 -0.023665 0.021878 
0.04654 0.12973 0.040292 0.081395 0.078929 0.049992 0.01152 0.021549 
0.06183 0.074326 0.12579 0.14174 0.097344 0.073339 0.034702 0.019247 
0.051801 -0.010512 0.087643 0.13006 0.056569 0.027139 0.014479 0.016123 
0.044073 0.019905 -0.068221 0.029605 0.01826 0.029112 0.010697 0.0056006 
0.021384 0.060844 -0.1838 -0.072496 0.0070803 0.032236 0.0059294 -0.013636 
0.026646 0.11625 -0.14171 -0.091404 0.010204 0.023686 -0.00015387 0.041936 
-0.0031133 0.13269 0.0098754 -0.0087034 0.012177 0.029112 0.0034632 0.030098 
-0.029255 0.029441 0.050486 0.047855 0.009711 0.019905 -0.0057439 0.025988 
0.0095465 -0.12544 0.013164 0.054267 -0.0057439 -0.028269 -0.038298 0.049992 
0.023851 -0.17197 0.076792 0.12414 -0.0083746 -0.011498 -0.022021 0.036839 
0.055089 -0.059836 0.24153 0.22559 -0.013965 0.0031344 -0.031064 0.035195 
0.086328 0.10195 0.19303 0.23052 -0.0050863 0.0024767 -0.023007 0.060679 
0.11724 0.1761 0.0072447 0.12398 -0.0011404 0.043909 0.020727 0.072517 
0.084355 0.13516 -0.10571 0.0083956 0.024015 0.055254 0.024673 0.040621 
0.012342 0.050486 -0.096007 -0.030077 0.035524 0.063968 0.03536 0.025988 
-0.017582 0.017438 -0.052931 -0.023665 0.022042 0.018589 0.014479 0.0026412 
-0.022021 0.10178 0.11905 0.086821 0.052623 0.00050378 -0.012156 0.021056 
0.025824 0.11444 0.32621 0.2537 0.090109 0.016781 -0.0059084 0.046704 
0.05772 0.1567 0.26455 0.28346 0.097508 0.06742 0.023851 0.059364 
0.071531 0.1054 0.0079024 0.159 0.068407 0.049335 0.024344 0.054103 
0.056569 0.064954 -0.10143 0.042758 0.033222 0.036675 0.01563 0.023357 
-0.01939 0.048348 -0.08532 -0.0095255 -0.031557 0.020398 -0.0022913 0.014808 
-0.058192 0.0028056 -0.08121 -0.027775 -0.082196 -0.020048 -0.028762 0.00050378 
-0.067564 -0.042408 -0.010019 0.012999 -0.081703 -0.087622 -0.077428 0.0074092 
-0.027282 0.025495 0.10836 0.09981 -0.028597 -0.017417 -0.058521 0.0067515 
0.046046 0.047691 0.11181 0.13697 0.064625 0.048841 0.0014903 0.057391 
0.082217 0.062159 0.055254 0.10639 0.097672 0.074983 0.051636 0.062323 
0.056733 -0.0040998 -0.037311 0.027796 0.082546 0.072353 0.047691 0.057062 
0.055418 -0.0052507 -0.12297 -0.0503 0.070051 0.044073 0.029934 0.042758 
0.095864 0.12612 -0.030735 -0.010841 0.043416 0.018754 0.021878 0.045718 
0.15209 0.20503 0.066269 0.088136 -0.0060728 0.0021479 -0.011005 0.042429 
0.13598 0.13072 0.066105 0.10228 -0.044874 -0.011498 -0.025474 0.041443 
0.07597 0.061501 0.04506 0.093726 -0.032543 0.00050378 -0.015116 -0.011334 
-0.017746 -0.10604 -0.023007 0.051308 -0.0026201 -0.023829 -0.032215 -0.012156 
-0.093212 -0.14961 0.090931 0.10474 0.018096 0.0056006 -0.017253 0.028947 
-0.095185 0.049335 0.22263 0.20651 0.067913 0.10606 0.031578 0.06183 
-0.0098543 0.18087 0.16903 0.21342 0.095206 0.071037 0.041443 0.06594 
0.052623 0.20832 0.090274 0.15949 0.0689 0.063968 0.029112 0.0080668 
0.05065 0.16262 -0.023994 0.058049 0.024837 0.026481 0.0079024 0.0032988 
0.071859 0.073175 -0.1016 -0.024487 0.029769 0.0092177 -0.0068948 0.026481 
