0.068078 0.13828 -0.035996 0.0083956 -0.058521 -0.022514 -0.032215 0.029934 
0.047691 0.08978 -0.034681 0.0074092 -0.061316 -0.0059084 -0.03353 0.022042 
0.016616 0.019247 -0.026624 0.01415 -0.05737 -0.022514 -0.048656 0.0065871 
-0.004593 0.004943 0.013986 0.03947 -0.03764 -0.0054151 -0.030735 -0.016924 
-0.022679 0.020727 0.03651 0.066105 -0.012485 0.021384 -0.01528 -0.05178 
-0.0027845 0.024673 0.063968 0.082382 0.0051074 0.028947 -0.0004827 -0.03353 
0.012342 0.050979 0.053116 0.071859 0.0014903 0.018096 0.013328 -0.024158 
-0.01117 -0.042408 0.0060938 0.055582 -0.012156 0.0037921 -0.014622 -0.071838 
-0.064768 -0.073482 -0.020048 0.050979 -0.019884 0.0021479 -0.017088 -0.064933 
-0.023829 -0.011827 -0.0040998 0.065118 -0.0090322 -0.0039354 -0.0078813 -0.011334 
0.038155 0.073668 0.019576 0.06183 -0.0091966 0.017274 -0.0080457 -0.019719 
0.094713 0.16919 0.01415 0.060515 -0.011663 -0.0022913 -0.017088 0.016616 
0.11313 0.17528 0.015301 0.060186 -0.010512 0.0064227 -0.0032777 0.038483 
0.10573 0.12661 0.043087 0.074654 -0.0021268 0.0090533 -0.014129 0.036017 
0.10162 0.13812 0.031414 0.071037 -0.001798 0.021878 -0.00097594 0.058377 
0.063803 0.077778 0.038648 0.068571 -0.004593 0.019576 -0.0019624 0.081231 
0.083697 0.062159 0.026317 0.059693 -0.011334 0.0065871 -0.012649 0.061172 
0.073339 0.04654 0.0083956 0.043416 -0.025638 -0.0083746 -0.025474 0.066598 
0.083204 0.027468 -0.018733 0.031085 -0.033859 0.023851 -0.011663 0.044073 
0.053116 0.032236 -0.034516 0.041278 -0.029091 0.01826 -0.010512 0.044073 
0.058049 0.037168 0.0082312 0.061995 -0.01232 0.026317 0.0016547 0.029441 
0.071859 0.077614 0.05624 0.087314 0.0072447 0.032729 0.0064227 -0.0027845 
0.046704 0.13351 0.045882 0.089287 0.013164 0.02829 0.0039565 0.009711 
0.026646 0.1026 0.027796 0.077778 0.0070803 0.0059294 -0.0044286 0.018918 
0.029769 0.031414 0.0046141 0.057391 -0.0090322 0.026974 -0.00031829 0.010204 
0.042758 -0.041257 -0.010841 0.042265 -0.023829 0.005765 -0.013471 0.0093821 
0.0019835 -0.11311 -0.026296 0.021549 -0.040435 0.013821 0.0069159 0.025495 
-0.056383 -0.14418 -0.0088678 0.019411 -0.047834 0.025001 -0.0029489 0.0014903 
-0.021199 -0.021856 0.024344 0.039799 -0.037147 0.0085601 -0.0075525 0.039141 
0.07038 0.11198 0.073668 0.090603 -0.00015387 0.026974 0.012013 0.081395 
0.13351 0.21095 0.076299 0.13171 0.038648 0.049006 0.014315 0.088301 
0.13056 0.21112 0.028454 0.10343 0.029441 0.032729 0.01152 0.11543 
0.1128 0.21161 0.041772 0.093398 0.018425 0.025001 0.015301 0.080902 
0.090603 0.21539 0.058542 0.09981 0.018589 0.0065871 0.00066819 0.092904 
0.028454 0.13976 0.086657 0.11724 0.029276 0.012835 -0.0047575 0.053281 
-0.018568 0.033715 0.07597 0.11855 0.035524 0.010533 -0.018733 0.042923 
-0.072825 -0.01232 0.041443 0.098494 0.0227 0.031578 -0.00015387 0.019411 
-0.042408 0.04506 0.045882 0.08008 0.0079024 0.021056 0.00066819 0.057391 
0.049006 0.14535 0.042758 0.069064 -0.0014692 0.047691 0.015301 0.078107 
0.08156 0.1248 0.050486 0.064132 -0.0073881 0.03388 0.01152 0.055254 
-0.0027845 0.049006 0.029769 0.065776 -0.008539 0.02122 0.0036276 0.033058 
-0.07562 0.033058 -0.025802 0.058377 -0.012978 0.035031 0.0039565 0.007738 
-0.065426 -0.036983 -0.0032777 0.063803 -0.0073881 0.01974 -0.0032777 0.009711 
-0.062467 -0.076771 0.067585 0.094877 0.013986 0.038977 0.024179 0.0032988 
-0.031557 0.016123 0.10047 0.12677 0.037661 0.04095 0.015959 0.015137 
0.076463 0.12628 0.11017 0.1419 0.050157 0.031742 0.014315 0.09126 
0.17593 0.18859 0.076792 0.12464 0.041936 0.032564 0.02533 0.13615 
0.24121 0.20224 0.047855 0.10162 0.023851 0.051143 0.024015 0.11313 
0.2024 0.11444 0.068407 0.10096 0.021056 0.04358 0.026317 0.085506 
0.0324 0.029112 0.035195 0.074326 0.0032988 0.043909 0.023028 0.030427 
-0.1524 -0.099295 0.038977 0.060844 -0.010348 0.016288 0.0047785 -0.022185 
-0.25072 -0.2328 -0.0011404 0.041278 -0.02942 -0.0052507 -0.014129 -0.035996 
-0.19877 -0.24003 -0.0095255 0.05624 -0.023665 0.021549 0.0021479 -0.032379 
-0.13185 -0.1279 0.00297 0.073339 -0.010348 0.014643 -0.0029489 -0.020048 
-0.04882 0.1026 0.027139 0.072846 -0.0083746 0.012835 1.0539e-005 0.037168 
0.053609 0.24005 0.061172 0.093891 0.007738 0.053116 0.016616 0.065612 
0.14897 0.22937 0.057555 0.096686 0.014643 0.057227 0.03536 0.080573 
0.13828 0.13417 0.045224 0.088465 0.010369 0.039799 0.020727 0.06183 
0.067256 0.10787 0.064461 0.097344 0.015959 0.04654 0.02122 0.0054362 
0.10376 0.15111 0.10113 0.11921 0.029441 0.039141 0.014808 0.031249 
0.12102 0.1664 0.11921 0.13779 0.043745 0.028783 0.020727 0.038648 
0.029769 0.070051 0.089945 0.12233 0.036182 0.027139 0.0023123 -0.0072237 
-0.071509 -0.10242 0.02122 0.082546 0.0070803 0.010204 -0.010676 -0.041751 
-0.10094 -0.27752 -0.054246 0.044567 -0.024652 -0.0021268 0.00099702 -0.057699 
-0.059672 -0.2961 -0.055397 0.034537 -0.037805 0.019247 -0.0054151 -0.03501 
-0.015116 -0.077757 -0.00097594 0.044402 -0.030735 0.033551 0.012177 0.037332 
-0.0013048 0.10113 0.081889 0.095206 0.0082312 0.069393 0.047033 0.063639 
0.052459 0.11987 0.044238 0.090931 0.012013 0.057555 0.03388 0.053116 
0.069229 0.083204 0.027632 0.074819 1.0539e-005 0.025659 0.013657 0.028454 
0.097179 0.087479 -0.0052507 0.050486 -0.01939 0.029112 0.011355 0.017438 
0.10951 0.077614 -0.015609 0.027139 -0.040435 0.009711 -0.0019624 0.029769 
0.048348 0.082546 -0.049478 -0.00097594 -0.066248 -0.0011404 -0.0098543 0.010862 
-0.077922 0.046211 -0.0080457 0.017603 -0.058685 0.023522 -0.0096899 -0.069865 
-0.062467 0.12266 0.024344 0.05476 -0.03205 0.029112 0.0037921 -0.032543 
0.054432 0.16114 0.048513 0.097015 0.0032988 0.03092 0.011191 0.027796 
0.11477 0.11707 0.034702 0.11674 0.027139 0.06183 0.011355 0.045553 
0.072353 0.0592 0.054925 0.1054 0.022371 0.031249 0.0085601 0.044896 
0.11987 -0.036325 0.056733 0.10195 0.020069 0.029605 0.0067515 0.025001 
0.1807 -0.19778 0.033551 0.084684 0.012835 0.054925 0.018096 0.086492 
0.27327 -0.064768 0.087314 0.11115 0.028619 0.054103 0.027796 0.14535 
0.2879 0.1276 0.11477 0.1396 0.048841 0.039305 0.026152 0.11165 
0.21885 0.2029 0.1294 0.15423 0.061666 0.022371 0.01415 0.068571 
0.067256 0.12677 0.050321 0.10688 0.031085 0.0082312 -0.0070593 0.016123 
-0.14188 -0.18216 -0.035174 0.029769 -0.024816 -0.0034422 -0.0050863 -0.080881 
-0.37058 -0.36269 -0.10324 -0.029584 -0.076277 -0.010512 -0.028926 -0.13727 
-0.44308 -0.27423 -0.12182 -0.034845 -0.093048 -0.025474 -0.040271 -0.12988 
-0.31221 -0.065919 -0.058192 -0.0082102 -0.078908 0.0085601 -0.013965 -0.040928 
-0.045696 0.13269 -0.0034422 0.024179 -0.056383 0.0085601 -0.019226 0.027139 
0.13976 0.16574 -0.0019624 0.030592 -0.045532 0.012342 -0.012156 0.074161 
0.15538 0.15193 0.0069159 0.041278 -0.035338 0.024015 0.0016547 0.060679 
0.19747 0.17396 0.004943 0.04654 -0.029584 0.025824 0.00033937 0.078765 
0.27869 0.075805 0.0047785 0.047855 -0.02794 0.010697 -0.0073881 0.090931 
0.23907 0.060186 0.056569 0.076627 -0.009361 0.01974 0.00297 0.063803 
0.10556 0.14256 0.1151 0.12003 0.025166 0.029276 0.0046141 0.077778 
0.057555 0.16327 0.12743 0.14206 0.04917 0.051143 0.019905 0.076299 
0.059693 0.13499 0.10458 0.14371 0.05624 0.044402 0.016781 0.088301 
0.083697 0.079587 0.057391 0.14634 0.059693 0.03947 0.016945 0.063968 
0.048677 0.05772 0.051472 0.12003 0.042923 0.01711 0.0028056 0.0227 
0.062488 0.063145 0.02122 0.085506 0.014643 0.031578 0.00099702 0.018096 
0.071037 -0.0060728 0.034209 0.079751 0.00297 0.0044497 -0.0138 0.039305 
0.055582 -0.043559 0.028619 0.076299 -0.003771 0.0014903 -0.0075525 0.032564 
0.062817 0.0054362 0.029605 0.071037 -0.0075525 0.013986 -0.014787 0.035524 
0.049335 -0.0044286 0.097508 0.1151 0.023522 0.03799 0.0037921 0.029934 
0.013164 -0.014951 0.097508 0.12694 0.038977 0.014643 0.019576 -0.0016336 
-0.11163 -0.00064712 0.058542 0.095042 0.01826 0.014972 -0.0022913 -0.031557 
-0.15668 0.01826 0.016452 0.061666 -0.011334 -0.0044286 -0.017911 -0.035503 
-0.06444 0.031414 -0.020706 0.040292 -0.031557 0.0034632 -0.013307 -0.021692 
0.039141 0.0072447 -0.030735 0.050814 -0.028433 0.010533 -0.014458 0.043909 
0.094877 -0.0138 -0.003771 0.04506 -0.029584 0.033222 0.0039565 0.081231 
0.041443 0.024015 0.018425 0.055582 -0.026624 0.041114 0.017932 0.049664 
0.025824 0.079422 0.044073 0.077943 -0.014951 0.013657 -0.00031829 0.05213 
0.046375 0.10935 0.031414 0.074161 -0.013471 0.02829 0.0023123 0.052294 
0.087479 0.078436 0.040621 0.079094 -0.0082102 0.04095 0.012177 0.04095 
0.039141 0.00099702 0.058706 0.066927 -0.016102 0.041772 0.015301 0.024015 
-0.035174 -0.017253 0.095042 0.093562 -0.0032777 0.020398 0.0056006 -0.04471 
-0.050958 -0.0013048 0.063968 0.085999 -0.0078813 0.0080668 -0.012978 -0.020048 
0.00297 -0.0082102 0.026974 0.076299 -0.012156 0.015465 -0.0090322 0.02533 
0.053774 0.050486 0.047033 0.098659 0.0042853 0.032893 -0.0019624 0.044238 
0.078765 0.11 0.071695 0.13384 0.033387 0.047033 0.014479 0.056076 
0.085835 0.12694 0.077285 0.1299 0.034537 0.0056006 -0.0096899 0.058213 
0.063968 0.098823 0.058871 0.11263 0.019411 0.020233 0.00083261 0.044402 
0.039799 0.063145 0.013492 0.0786 -0.0078813 0.063968 0.016781 0.037826 
0.067585 0.10836 0.066927 0.098823 0.0023123 0.032071 0.01267 0.061337 
0.13039 0.18859 0.06742 0.10507 0.01004 0.023028 0.023193 0.051308 
0.13516 0.16558 0.070873 0.10704 0.012999 0.06183 0.03092 0.059364 
0.067091 0.038483 0.03092 0.074983 -0.0060728 0.029276 0.012177 0.018918 
-0.021199 -0.056548 0.0044497 0.04654 -0.030242 0.01415 0.014643 -0.021528 
-0.083183 -0.05441 0.022042 0.051308 -0.032543 0.018918 -0.0013048 -0.018733 
-0.13168 0.018425 0.042429 0.083533 -0.010512 0.034373 0.0083956 -0.024323 
-0.03057 0.088465 0.067585 0.13121 0.027961 0.061337 0.040292 0.016781 
0.10935 0.15127 0.047033 0.10967 0.0227 0.068736 0.047855 0.08567 
0.23052 0.21194 0.053116 0.097672 0.013657 0.05213 0.040128 0.10441 
0.23775 0.12497 -0.0026201 0.067091 -0.0096899 0.065612 0.032236 0.099316 
0.10441 0.0067515 -0.033694 0.028619 -0.040928 0.032071 0.016452 0.032564 
-0.063124 -0.038956 -0.025802 0.026317 -0.048492 0.010204 0.00066819 -0.047341 
-0.051615 -0.050958 0.00066819 0.036675 -0.042079 0.028783 0.0019835 -0.038791 
-0.010841 -0.0083746 -0.0068948 0.035195 -0.039613 0.025988 0.0013258 -0.033201 
-0.0044286 0.050814 0.060022 0.068407 -0.012485 0.041443 0.016452 -0.017746 
0.029769 0.12233 0.13187 0.13286 0.037661 0.079751 0.042758 0.039141 
0.007738 0.13927 0.13779 0.16853 0.068242 0.061172 0.041443 0.053445 
-0.036325 0.093398 0.098001 0.18859 0.084355 0.053281 0.035688 0.071695 
0.08156 0.059693 0.0227 0.11148 0.035031 0.040456 0.019905 0.11395 
0.24269 0.0034632 -0.10308 0.0039565 -0.047669 0.01563 -0.0016336 0.082053 
0.25091 -0.073318 -0.12527 -0.049478 -0.098802 0.028619 0.019083 -0.010348 
-0.07414 -0.056219 -0.037805 -0.01117 -0.082525 0.052459 0.015137 -0.10324 
-0.38965 0.080409 0.073832 0.066763 -0.025309 0.027632 0.0087245 -0.15224 
-0.21258 0.17758 0.13187 0.13713 0.034044 0.035853 0.030756 -0.02235 
0.089616 0.16903 0.086821 0.12365 0.034044 0.053609 0.029441 0.07449 
0.16952 0.091753 0.0088889 0.071366 -0.00081153 0.041443 0.022371 0.049335 
0.12743 -0.060165 -0.02794 0.024837 -0.039613 0.041278 0.028783 0.059693 
0.057391 -0.076277 -0.029748 0.027139 -0.048163 0.033387 0.01415 0.074654 
-0.046519 -0.065919 -0.0040998 0.061008 -0.029091 0.014315 0.00033937 0.0227 
-0.086471 0.014808 0.016945 0.060844 -0.02235 0.03947 0.0092177 0.019247 
0.041443 0.13795 0.016123 0.060022 -0.023336 0.011026 0.00083261 0.044402 
0.12875 0.13434 0.012506 0.056733 -0.024652 0.023028 0.0039565 0.079258 
0.080573 0.013492 -0.024323 0.023357 -0.042244 0.070051 0.030592 0.10326 
0.11954 -0.059178 -0.026296 0.017603 -0.048985 0.035031 0.012506 0.039963 
0.00066819 -0.096665 -0.040928 0.0072447 -0.065262 -0.0091966 -0.023994 -0.021528 
-0.14862 -0.059343 -0.0004827 0.021384 -0.058521 -0.0050863 -0.028762 -0.053588 
-0.16391 -0.010676 0.027139 0.038319 -0.043559 0.00050378 -0.028926 -0.067235 
-0.05737 0.0054362 0.042594 0.055254 -0.027775 0.0079024 -0.0095255 -0.054739 
0.0592 0.066598 0.042594 0.086163 -0.0019624 0.042429 0.01711 0.055089 
0.081231 0.075805 0.034866 0.11115 0.022206 0.049664 0.024015 0.088958 
0.056076 0.060022 0.049006 0.10589 0.021056 0.038648 0.033058 0.058871 
0.024344 0.054925 0.016123 0.073997 -0.0054151 0.022864 0.004943 0.048513 
0.047197 0.017274 0.0072447 0.062159 -0.023007 0.0059294 -0.0077169 0.03388 
0.044073 0.052294 -0.0052507 0.045553 -0.03616 1.0539e-005 0.0011614 0.017603 
0.024015 0.071202 0.0085601 0.042594 -0.038791 0.0072447 -0.013471 0.019905 
0.013164 0.053116 0.032236 0.061666 -0.026953 0.011684 -0.012814 0.01267 
-0.00031829 0.084519 0.043416 0.073832 -0.018733 0.0074092 0.00083261 0.033551 
0.029112 0.10047 0.077778 0.092576 -0.0075525 0.010697 -0.011005 0.03799 
0.023686 0.061172 0.090603 0.10524 0.0024767 0.0092177 -0.011827 0.033715 
-0.026624 0.0011614 0.04095 0.096686 -0.0031133 0.0065871 -0.011663 0.01563 
0.016781 0.0059294 0.011026 0.097508 -0.0019624 0.011684 -0.010019 0.030263 
0.11247 0.11247 0.046211 0.092576 -0.0022913 0.013492 -0.01117 0.07597 
0.21095 0.17462 0.066927 0.10491 0.0060938 0.041114 0.0083956 0.1294 
0.20684 0.1003 0.01711 0.075476 -0.012978 0.041936 0.023357 0.11888 
0.065447 -0.011663 -0.030735 0.035031 -0.043395 0.00297 -0.0087034 0.0059294 
-0.14665 -0.082525 -0.052437 0.0011614 -0.075784 -0.023501 -0.039613 -0.10406 
-0.21718 -0.016924 -0.015938 0.018589 -0.072825 -0.05178 -0.061973 -0.14171 
-0.073811 0.1174 0.05213 0.050157 -0.047341 -0.038791 -0.05589 -0.044381 
0.10639 0.1932 0.080738 0.089287 -0.0083746 0.016452 -0.025309 0.02122 
0.16229 0.13697 0.11247 0.11033 0.017438 0.01563 -0.025145 0.032893 
0.18662 0.00050378 0.063474 0.11757 0.02122 0.016616 0.00297 0.058542 
-0.0064016 -0.17986 -0.031228 0.079422 -0.015444 0.0092177 -0.0067304 -0.0040998 
-0.16128 -0.15322 -0.035503 0.038155 -0.049149 -0.0029489 -0.016595 0.026317 
-0.099789 0.046375 0.034373 0.065118 -0.029255 0.028454 0.020069 0.077943 
0.0059294 0.17462 0.089616 0.10951 0.0065871 0.04095 0.014808 0.058542 
0.058213 0.16985 0.043416 0.09274 -0.0040998 -0.0011404 -0.0096899 0.037168 
0.13697 0.14305 0.050321 0.090109 -0.0077169 0.0095465 -0.009361 0.034209 
0.2126 0.12529 0.072517 0.10376 0.00050378 0.0090533 -0.013143 0.070544 
0.21605 0.073339 0.030592 0.074161 -0.018239 -0.0087034 -0.022843 0.046046 
0.068571 -0.03057 0.070215 0.05772 -0.031557 0.0070803 -0.010348 0.015465 
-0.056055 0.0093821 0.036675 0.066269 -0.02646 -0.016924 -0.031557 -0.018897 
-0.1108 0.082875 0.053116 0.097344 -0.0036066 -0.0021268 -0.021034 0.0014903 
-0.016431 0.12299 0.043251 0.12513 0.017932 0.023686 -0.020212 -0.0044286 
0.067091 0.1391 0.048184 0.10524 0.0059294 -0.0014692 -0.022514 0.020562 
0.14289 0.12809 0.049006 0.10145 0.0014903 0.011191 -0.014129 0.042265 
0.14979 0.088465 0.038483 0.090931 -0.0036066 0.03799 0.0016547 0.036675 
0.036182 0.032564 0.0039565 0.057884 -0.028269 0.0083956 -0.0091966 0.0014903 
-0.031886 0.014643 0.011684 0.053774 -0.034352 -0.0050863 -0.019555 -0.003771 
-0.016102 0.01974 0.029112 0.062488 -0.027775 0.0087245 -0.017088 -0.0052507 
0.07038 -0.028597 0.060844 0.080573 -0.015938 0.017438 -0.0077169 0.039963 
0.073997 1.0539e-005 0.051472 0.082546 -0.0138 0.012013 0.0070803 0.051472 
0.054925 0.06479 0.044896 0.080409 -0.014622 0.015959 -0.0050863 0.019905 
0.016452 0.023193 0.0024767 0.086821 -0.012649 -0.012649 -0.022843 0.027303 
0.043416 0.036675 0.025495 0.10244 -0.0019624 -0.0052507 -0.0082102 0.0592 
0.041772 0.040456 0.010862 0.071202 -0.02087 -0.0098543 -0.025474 0.062652 
0.0065871 -0.016924 -0.011827 0.047362 -0.038791 -0.011005 -0.031228 0.031414 
-0.09387 -0.064111 0.0018191 0.045882 -0.041586 0.010697 -0.013143 0.015794 
-0.13464 -0.0011404 0.030098 0.063803 -0.02498 0.021713 -0.0090322 -0.016102 
-0.072989 0.083368 0.091918 0.10655 0.010204 0.016616 -0.001798 -0.0013048 
0.016288 0.058706 0.041772 0.082875 -0.00081153 0.023851 0.0036276 0.027632 
0.076299 -0.043395 -0.026953 0.02829 -0.040271 0.029934 0.0082312 0.036017 
0.11099 -0.030406 -0.0075525 0.022371 -0.053917 0.0090533 -0.0036066 0.045718 
0.10967 0.070544 0.064461 0.065776 -0.026953 0.031249 0.0019835 0.053774 
0.083533 0.11494 0.067256 0.11872 0.009711 0.026317 0.0023123 0.080902 
0.057555 0.11937 0.03536 0.10721 0.0083956 0.02122 0.0016547 0.078436 
0.11576 0.19566 0.050486 0.10113 0.0069159 0.010369 -0.010512 0.068242 
0.24877 0.26077 0.10655 0.13401 0.029276 0.028619 0.0023123 0.12003 
0.25222 0.19616 0.11214 0.14979 0.044073 0.031742 0.011191 0.13351 
0.035853 -0.0771 -0.018239 0.066927 -0.0091966 0.029605 0.0046141 0.050814 
-0.26272 -0.40034 -0.13826 -0.036489 -0.089431 -0.011334 -0.023994 -0.06 
-0.42697 -0.46972 -0.15766 -0.092719 -0.14237 -0.027611 -0.025967 -0.09946 
-0.28936 -0.18923 -0.056712 -0.060329 -0.13021 -0.019555 -0.033365 -0.058521 
0.020727 0.10787 0.05065 0.024015 -0.074962 -0.013307 -0.028597 0.061337 
0.21342 0.30171 0.079094 0.089123 -0.023501 0.019083 0.0026412 0.11362 
0.27195 0.30746 0.075641 0.12825 0.016123 0.03947 0.00297 0.080409 
0.24367 0.20421 0.082546 0.14026 0.037826 0.058542 0.028454 0.099974 
0.14585 0.1179 0.056404 0.11477 0.023028 0.059528 0.043909 0.080244 
-0.031886 0.093891 0.050321 0.098166 0.0032988 0.0227 0.01267 0.01415 
-0.13974 0.045224 0.050979 0.095699 -0.004593 0.022371 0.0041209 0.004943 
-0.052931 -0.066741 0.045882 0.086492 -0.0082102 0.045553 0.016452 0.087808 
0.066927 -0.090746 0.015959 0.076134 -0.014622 0.042594 0.018425 0.055254 
0.052459 -0.073154 0.060844 0.062159 -0.030735 -0.0138 -0.015938 0.040456 
-0.026953 -0.075127 0.041443 0.061008 -0.035338 0.0069159 -0.014951 -0.038956 
0.0023123 -0.041422 0.039141 0.06331 -0.033365 0.0031344 -0.014293 -0.0077169 
0.031578 0.11642 0.10392 0.11609 0.010862 0.027139 0.0024767 0.074654 
0.05624 0.1881 0.080573 0.15571 0.047691 0.080409 0.029276 0.1054 
0.026481 0.15472 0.049499 0.12447 0.02829 0.052294 0.0227 0.084519 
-0.099295 0.076792 -0.018404 0.059857 -0.023829 0.024344 0.017438 0.044073 
-0.069043 0.03536 -0.060165 0.011191 -0.068221 -0.011827 -0.021034 -0.010841 
0.063968 0.0079024 -0.030242 0.01267 -0.074469 0.011355 -0.010676 0.026481 
0.080244 0.033387 0.065283 0.069393 -0.038298 0.0227 0.016452 0.026646 
0.071037 0.072681 0.044896 0.081724 -0.023501 0.02829 0.0044497 0.032564 
0.096193 0.037332 -0.045696 0.024344 -0.060329 0.017767 -0.0019624 0.014643 
0.11083 -0.03616 -0.075784 -0.023007 -0.09798 0.017603 0.0087245 0.0065871 
0.047362 -0.049971 -0.019061 -0.0032777 -0.089431 0.03536 0.0079024 0.035524 
-0.063453 0.019576 0.051965 0.057391 -0.04471 0.032729 0.010369 0.031414 
-0.13744 -0.0091966 0.085835 0.11378 0.0042853 0.048019 0.022535 0.034702 
-0.13514 -0.0096899 0.091589 0.14568 0.034044 0.051801 0.026152 0.012177 
-0.017253 0.091425 0.097672 0.14338 0.037168 0.070544 0.044073 0.050979 
0.061008 0.17708 0.065283 0.12151 0.026152 0.070051 0.044238 0.02122 
0.066269 0.24499 0.039305 0.096357 0.0014903 0.059364 0.033387 0.00083261 
0.11411 0.27557 0.072188 0.10688 -0.0031133 0.030756 0.019247 0.049335 
0.25041 0.25091 0.10491 0.13499 0.007738 0.053609 0.023193 0.099152 
0.21194 0.1613 0.068571 0.11017 -0.011005 0.032236 0.0095465 0.088794 
0.052294 -0.060658 0.021713 0.077285 -0.030242 0.033715 0.013492 0.056404 
-0.13547 -0.25943 -0.036818 0.021713 -0.06296 0.047691 0.016123 -0.0047575 
-0.22491 -0.29199 -0.041422 -0.0029489 -0.080552 0.023522 0.0039565 -0.051122 
-0.1838 -0.1547 0.012342 0.05772 -0.042079 0.01974 0.01415 -0.067235 
-0.062302 0.083533 0.073339 0.11494 0.0039565 0.058871 0.028947 -0.0024557 
0.057884 0.14404 0.034866 0.090438 -0.012814 0.029276 0.019576 0.056404 
0.086163 0.10474 -0.012978 0.054267 -0.037476 0.045224 0.031907 0.057062 
0.048019 0.1202 0.0039565 0.051801 -0.038791 0.038483 0.023028 0.064296 
0.090767 0.11313 0.073175 0.090274 -0.013636 0.039799 0.01974 0.050814 
0.1105 0.13532 0.061501 0.098988 -0.0072237 0.051801 0.027796 0.016945 
0.066763 0.15653 0.058213 0.090274 -0.0090322 0.036839 0.018754 0.010204 
0.0098754 0.10688 0.04506 0.075641 -0.020706 0.047197 0.02533 0.0023123 
0.050979 0.061172 0.053445 0.076627 -0.022185 0.061995 0.036182 0.020398 
0.11954 0.032893 0.030263 0.078929 -0.023336 0.047691 0.025988 0.07038 
0.10096 -0.0096899 0.0062583 0.078765 -0.025802 0.014643 0.005765 0.049335 
0.035688 -0.0031133 -0.017088 0.072681 -0.030735 0.029112 -0.0036066 0.011848 
0.016781 -0.019719 0.0036276 0.058871 -0.035174 0.018589 -0.0019624 0.040785 
0.11132 0.0083956 0.041278 0.07597 -0.016266 0.0052718 -0.0027845 0.012342 
0.19632 0.058213 0.083533 0.10967 0.005765 0.061172 0.020069 0.09981 
0.23331 0.098166 0.062159 0.096193 -0.0031133 0.057391 0.026152 0.11395 
0.15571 0.11461 0.034373 0.08419 -0.019226 0.017767 0.010369 0.082546 
0.019576 -0.019884 -0.020212 0.041278 -0.051944 0.0044497 -0.014622 -0.015773 
-0.19926 -0.16621 -0.058356 -0.0026201 -0.08121 -0.0096899 -0.030406 -0.097158 
-0.26059 -0.13349 -0.062796 -0.010019 -0.084827 0.0052718 -0.0029489 -0.11524 
-0.030077 0.011684 0.048019 0.05213 -0.043559 0.014315 -0.0080457 -0.02235 
0.088301 0.10244 0.098001 0.13121 0.010862 0.023357 0.0013258 0.060679 
-0.056219 0.10836 0.066927 0.13121 0.018425 0.031249 0.020233 0.063968 
0.014808 0.15883 0.079094 0.12776 0.023851 0.059693 0.031414 0.10195 
0.11444 0.1151 0.058542 0.11181 0.02122 0.041936 0.018425 0.083697 
0.097508 -0.0032777 0.016452 0.078765 -0.0029489 0.024015 0.012177 0.021878 
0.049006 -0.093048 -0.011663 0.045553 -0.03205 0.02829 0.0065871 -0.0138 
0.023522 -0.038791 1.0539e-005 0.039963 -0.045368 0.0065871 -0.0096899 -0.031392 
-0.087786 0.060022 -0.012649 0.016616 -0.064111 0.0070803 -0.02087 -0.045039 
-0.033694 0.15094 0.018754 0.035853 -0.053588 -0.0087034 -0.026296 -0.021199 
0.063639 0.23792 0.082546 0.078272 -0.021856 -0.004593 -0.023007 -0.003771 
0.15209 0.13088 0.081724 0.10524 -0.0034422 0.022535 -0.0032777 0.052623 
0.21819 -0.038133 0.032893 0.1174 0.0039565 0.012506 -0.011827 0.08863 
0.18333 -0.040106 -0.0021268 0.074654 -0.022679 -0.0016336 -0.020212 0.051472 
0.093891 -0.057863 -0.0013048 0.056076 -0.031721 0.01711 -0.015609 0.029934 
0.050157 -0.044052 0.022206 0.063968 -0.024652 0.0080668 -0.017088 0.043087 
0.019905 0.053116 0.027468 0.068571 -0.023007 -0.010512 -0.0090322 0.012342 
0.00083261 0.083697 0.026317 0.067091 -0.02794 0.013164 -0.014458 0.0082312 
0.024015 0.097672 0.04917 0.081724 -0.021363 0.010862 -0.01117 0.017274 
0.032071 0.062323 0.03651 0.072353 -0.024816 0.0044497 -0.0014692 -0.0011404 
0.062488 0.047362 0.040456 0.072517 -0.021856 0.005765 -0.018075 -0.0021268 
0.051472 0.047197 0.058377 0.080409 -0.0138 0.0041209 -0.015773 0.0080668 
-0.027118 0.050814 0.061337 0.10145 0.0014903 0.020398 -0.0044286 -0.015116 
-0.077428 0.077943 0.05065 0.12727 0.020233 0.0088889 -0.012814 0.0018191 
0.058377 0.17593 0.074819 0.12349 0.024179 0.020398 -0.0014692 0.044238 
0.23627 0.17676 0.088301 0.13187 0.032893 0.055089 0.01826 0.1105 
0.18563 0.043251 0.025824 0.090438 0.0044497 0.0079024 -0.0044286 0.065447 
0.050486 -0.0026201 -0.0090322 0.052952 -0.032872 -0.0054151 -0.020048 0.019576 
-0.055232 -0.014129 -0.019719 0.031742 -0.057205 -0.001798 -0.025967 0.00050378 
-0.14221 -0.048327 -0.034023 0.01415 -0.075291 -0.025638 -0.047176 -0.044381 
-0.091568 -0.047012 -0.022185 0.012506 -0.072332 -0.019061 -0.040764 -0.063453 
0.059364 0.072353 0.045718 0.043251 -0.042573 0.024179 -0.0062372 -0.021034 
0.11444 0.043745 0.067749 0.08419 -0.003771 0.03536 0.0070803 0.041607 
0.057884 -0.059836 0.060844 0.099974 0.0075736 0.036839 0.012177 0.019411 
-0.026296 0.030263 0.064296 0.12875 0.023028 0.032893 0.007738 0.055911 
-0.064933 0.11658 0.062981 0.11872 0.015959 0.026152 0.0034632 0.033387 
-0.021856 0.085012 0.021384 0.081889 -0.012978 0.00066819 0.0060938 -0.011005 
-0.0026201 0.0065871 0.0044497 0.06035 -0.034023 -0.0062372 -0.0047575 -0.0049219 
0.056733 -0.0013048 -0.0031133 0.04506 -0.045861 -0.01117 -0.024158 0.015465 
0.098001 0.0037921 0.022371 0.062159 -0.032543 0.019411 0.005765 0.029441 
0.075641 0.036839 0.042594 0.072681 -0.021856 0.026481 -0.0004827 0.051636 
0.087479 0.018918 0.0689 0.078765 -0.017746 0.00083261 -0.018568 0.060186 
0.090274 0.095206 0.11378 0.11872 0.009711 0.02533 0.0018191 0.057062 
0.074326 0.19303 0.13631 0.15587 0.037004 0.038977 0.0065871 0.06742 
0.051636 0.10803 0.03651 0.12184 0.017438 0.0037921 -0.011005 0.015137 
-0.010348 0.018425 -0.033694 0.08008 -0.011663 0.013328 -0.0070593 -0.037476 
0.0028056 0.053281 -0.0021268 0.057062 -0.026953 0.025659 0.0016547 -0.017417 
0.098988 0.13171 0.088958 0.10819 0.0085601 0.033715 0.011355 0.059364 
0.1641 0.20142 0.14256 0.15686 0.043909 0.052952 0.044731 0.10211 
0.13088 0.038812 0.026481 0.093562 -0.00064712 0.022864 0.01415 0.10096 
0.064132 -0.094856 -0.065262 0.015137 -0.069208 0.013492 -0.014622 -0.0044286 
0.020891 -0.078086 -0.072167 -0.016102 -0.089431 0.025001 -0.0075525 -0.064933 
-0.13432 -0.18874 -0.03205 -0.0054151 -0.075784 0.020727 -0.0036066 -0.099953 
-0.28327 -0.17065 0.077614 0.066269 -0.020048 0.035524 0.018425 -0.051122 
-0.121 0.035524 0.19681 0.16673 0.05624 0.0592 0.031907 0.07301 
0.071037 0.21605 0.23151 0.24828 0.11921 0.064954 0.042265 0.084848 
0.10819 0.23808 0.16179 0.24877 0.1225 0.052459 0.046046 0.050321 
0.10162 0.049828 -0.0098543 0.11017 0.02122 0.031085 0.014315 0.016123 
0.046868 -0.21093 -0.16457 -0.039942 -0.099295 -0.011827 -0.020377 -0.015116 
-0.15585 -0.18249 -0.17197 -0.094363 -0.15224 -0.017088 -0.026296 -0.031886 
-0.26996 -0.05589 -0.052109 -0.036489 -0.11311 -0.006566 -0.019884 0.00297 
-0.14993 0.086985 0.031742 0.03092 -0.056548 0.013657 -0.0075525 0.034866 
0.044567 0.17314 0.081724 0.082053 -0.015444 0.051308 0.0098754 0.063803 
0.14272 0.13023 0.069722 0.090931 -0.0068948 0.03651 0.012013 0.0786 
0.15209 0.11724 0.075641 0.10096 -0.0011404 0.033387 0.013986 0.062323 
0.1026 0.11066 0.064132 0.097179 -0.0029489 0.042594 0.016781 0.064461 
0.10639 0.10343 0.028783 0.095864 -0.0073881 0.017603 0.0013258 0.03651 
0.070051 0.068736 0.0079024 0.097672 -0.0082102 0.0072447 -0.01117 0.021384 
0.054432 0.044238 0.023193 0.077449 -0.017582 0.039141 0.004943 0.032564 
0.034702 0.061172 0.026646 0.073832 -0.020377 0.029769 0.0031344 0.041443 
0.0324 0.0786 0.041278 0.080409 -0.016595 0.011848 0.0013258 0.04506 
0.015301 0.049335 0.036346 0.082382 -0.017582 0.05213 0.039141 0.049664 
-0.016102 0.029441 0.021713 0.070544 -0.025145 0.02829 0.015959 0.014972 
-0.050629 0.029605 0.012835 0.0689 -0.027447 -0.012485 -0.00031829 0.040621 
-0.052602 0.043087 0.023193 0.061995 -0.032543 0.030592 0.0011614 0.022042 
-0.041915 0.089287 0.068078 0.1031 -0.0091966 0.021384 -0.0042642 0.015301 
0.0023123 0.19944 0.070215 0.10326 -0.006566 0.01415 0.0047785 0.023193 
0.035524 0.2218 0.056733 0.12694 0.010697 0.023851 0.0026412 0.040621 
0.055747 0.23545 0.060186 0.1419 0.023193 0.024179 0.0013258 0.048513 
0.08715 0.19336 0.053445 0.1151 0.0083956 0.049006 0.025495 0.059857 
0.16771 0.1539 0.014315 0.078765 -0.01676 0.030263 0.010862 0.069722 
0.085506 0.059364 0.0026412 0.0592 -0.03353 0.029769 0.0095465 0.059528 
-0.023994 -0.17082 -0.043066 0.022206 -0.060658 0.044238 0.013657 0.046211 
-0.076771 -0.30498 -0.053424 0.0018191 -0.075784 0.038155 0.013821 0.029605 
-0.083512 -0.35627 -0.057041 -0.011827 -0.083018 0.053116 0.025495 0.035195 
-0.058356 -0.30695 -0.05178 -0.0068948 -0.083676 0.072681 0.037661 0.029112 
0.020562 -0.20288 0.0095465 0.01826 -0.071674 0.042758 0.026974 0.037497 
0.093398 -0.16572 0.039141 0.039963 -0.055726 0.043416 0.032564 0.0421 
0.014972 0.088301 0.01267 0.057062 -0.041586 0.051636 0.024508 0.040621 
-0.072825 0.41006 0.017274 0.089616 -0.017746 0.023357 0.0070803 0.014808 
-0.006566 0.55524 0.08304 0.1151 -0.0040998 0.023522 0.013821 0.051965 
0.14075 0.51397 0.10852 0.13779 0.012342 0.054267 0.023851 0.10787 
0.20553 0.41532 0.055911 0.11362 0.00033937 0.054596 0.031249 0.092082 
0.20947 0.17939 -0.00081153 0.066763 -0.030735 0.043745 0.039634 0.070873 
0.051965 -0.097651 -0.071016 0.0062583 -0.071674 0.038977 0.017274 0.012999 
-0.20008 -0.29297 -0.084005 -0.023007 -0.09798 0.013657 -0.0029489 -0.081868 
-0.17789 -0.25138 0.027139 0.026974 -0.067564 0.029112 0.025001 -0.028104 
-0.12248 -0.082525 0.12135 0.10211 -0.0096899 0.056733 0.029441 0.040621 
0.032729 0.010204 0.091589 0.11231 0.0019835 0.033387 0.015959 0.082546 
0.17824 0.014643 0.037332 0.1008 -0.0054151 0.057062 0.030592 0.096521 
0.22131 0.06035 -0.0047575 0.092576 -0.011827 0.059035 0.025495 0.090931 
0.12595 0.044073 0.035195 0.085835 -0.013471 0.046046 0.027796 0.08008 
0.02533 0.038977 0.086163 0.11707 0.0080668 0.08567 0.04654 0.061666 
-0.014951 0.062652 0.09422 0.12858 0.01826 0.066927 0.0421 0.043251 
1.0539e-005 0.073832 0.095371 0.13319 0.025495 0.052623 0.037004 0.041772 
0.033551 0.1031 0.070215 0.11839 0.015301 0.069722 0.033715 0.036675 
0.07449 0.066598 0.026974 0.083204 -0.014458 0.051472 0.024508 0.032236 
0.075312 0.017932 -0.018075 0.037661 -0.050629 0.042594 0.028125 0.037661 
0.016452 -0.0083746 -0.041915 0.0028056 -0.076771 0.044567 0.016452 0.031907 
-0.014129 -0.031228 -0.048656 -0.0072237 -0.08828 0.037661 0.014643 0.0088889 
0.010369 -0.0088678 -0.024323 0.033551 -0.060823 0.034044 0.031907 0.02681 
0.050979 0.050157 0.011026 0.074161 -0.027118 0.040456 0.019576 0.039963 
0.096686 0.079587 0.058871 0.091589 -0.010676 0.037661 0.017767 0.046704 
0.045224 0.047691 0.05624 0.094055 -0.0087034 0.029769 0.023193 0.0032988 
-0.006566 0.065283 0.082546 0.11428 0.0042853 0.021549 0.01152 -0.00097594 
0.034866 0.07301 0.10737 0.1322 0.014972 0.0034632 -0.0031133 0.038319 
0.089945 0.030263 0.061008 0.11444 0.0060938 0.028619 0.0034632 0.022206 
0.11247 -0.052766 0.040128 0.084848 -0.014787 0.015465 1.0539e-005 0.013492 
-0.077922 -0.053424 0.056898 0.083697 -0.016266 0.016616 0.00017495 -0.00064712 
-0.2208 0.050321 0.076792 0.085177 -0.014129 0.023522 0.0042853 -0.030735 
-0.08384 0.14831 0.13056 0.13713 0.020233 0.016123 -0.0036066 0.0039565 
0.057391 0.16426 0.12184 0.17051 0.049664 0.038155 0.014315 0.033058 
0.14568 0.10343 0.055418 0.14568 0.038977 0.030592 0.0065871 0.032564 
0.16377 0.074326 0.045389 0.11115 0.012999 0.0034632 -0.0096899 0.039634 
0.10688 0.01711 0.034373 0.090109 -0.0042642 0.0026412 -0.01528 0.035031 
-0.043066 -0.029913 0.012835 0.068571 -0.023994 -0.010676 -0.026296 0.011848 
-0.086964 -0.010676 -0.022185 0.038648 -0.049149 -0.010348 -0.03501 -0.020212 
0.020233 -0.00031829 -0.023172 0.027139 -0.059014 -0.016924 -0.024652 0.0090533 
0.10014 0.0098754 0.042265 0.052952 -0.038133 0.019083 -0.015116 0.012835 
0.11378 0.057391 0.078107 0.090767 -0.010183 0.0047785 -0.021363 0.013164 
0.090767 0.1128 0.098988 0.10951 0.0031344 -0.0013048 -0.0034422 0.024673 
0.092082 0.086328 0.079587 0.10836 0.0018191 0.011684 -0.020377 0.012999 
0.083368 0.048019 0.0016547 0.090767 -0.0095255 -0.022185 -0.035338 0.027468 
0.080409 0.064954 -0.029091 0.050157 -0.03616 0.00099702 -0.01528 0.024015 
0.11526 0.073668 0.014479 0.05476 -0.03616 -0.008539 -0.02794 0.01415 
0.094713 0.083368 0.060515 0.085835 -0.016102 -0.025145 -0.038956 0.023028 
0.015301 0.013986 0.025824 0.072846 -0.023994 -0.0057439 -0.027775 0.018096 
0.054432 0.019247 0.025001 0.069722 -0.025309 -0.012978 -0.03205 0.031907 
0.11033 0.14831 0.096357 0.11263 0.0069159 -0.024323 -0.040928 0.061666 
0.13532 0.19188 0.15308 0.15735 0.042758 0.0060938 -0.021528 0.063803 
0.09274 0.16508 0.099152 0.1299 0.022535 -0.013471 -0.035996 -0.0004827 
0.065612 0.077121 0.023522 0.077778 -0.015116 -0.042244 -0.05441 -0.013965 
-0.095678 -0.12741 -0.02498 0.039799 -0.042244 -0.021034 -0.048327 -0.068057 
-0.17049 -0.11459 0.0037921 0.071695 -0.025145 -0.02235 -0.049971 -0.055232 
-0.1792 -0.0026201 0.025988 0.072681 -0.018733 -0.010183 -0.03616 -0.017417 
0.010369 0.061501 0.0021479 0.055911 -0.02794 -0.0072237 -0.032708 0.031414 
0.20602 0.098494 -0.0022913 0.047362 -0.030899 -0.0054151 -0.036818 0.073997 
0.13795 0.0067515 0.0042853 0.047691 -0.030242 -0.011334 -0.02087 0.059528 
-0.065919 -0.072332 -0.038462 0.015137 -0.053753 -0.004593 -0.030406 -0.052109 
-0.069372 -0.0088678 -0.032379 0.013328 -0.060165 -0.018075 -0.037476 -0.029748 
0.013986 0.032236 0.026974 0.04654 -0.040928 -0.010676 -0.013965 0.021713 
0.03092 0.057062 0.031742 0.048513 -0.040271 -0.017253 -0.032872 0.024837 
0.082711 0.093562 0.046868 0.051143 -0.036818 -0.033365 -0.045532 0.057062 
0.15851 0.072517 0.011191 0.065447 -0.025474 0.00099702 -0.025309 0.069393 
0.1567 0.06594 -0.036654 0.055089 -0.026296 -0.004593 -0.04471 0.069393 
0.049499 0.072517 0.010533 0.050979 -0.031392 -0.01939 -0.040271 -0.0024557 
0.011848 0.12332 0.034866 0.069558 -0.02087 -0.011827 -0.030735 -0.008539 
0.028454 0.15127 0.034537 0.076299 -0.01528 -0.0054151 -0.02794 0.020398 
0.053774 0.050979 0.0019835 0.056569 -0.024323 0.009711 -0.015938 0.048019 
0.035031 -0.055232 -0.013143 0.037332 -0.037147 0.026152 -0.0068948 0.045718 
-0.0062372 -0.035996 0.011191 0.049499 -0.032543 -0.004593 -0.022185 0.018589 
-0.056055 -0.014787 0.061501 0.075148 -0.01528 0.0070803 -0.019226 0.028125 
0.0031344 0.054103 0.089616 0.099316 0.0047785 0.021549 -0.0077169 0.040621 
0.080244 0.029441 0.050814 0.08567 -0.004593 0.01267 -0.010019 0.044402 
0.066927 -0.032543 -0.00031829 0.059857 -0.022021 -0.0083746 -0.017911 0.033551 
0.030098 -0.0072237 -0.055561 0.039634 -0.036489 0.0042853 -0.025145 -0.0029489 
-0.0021268 0.0093821 -0.027611 0.031085 -0.041586 0.0092177 -0.020377 0.0018191 
0.0087245 0.064132 0.0052718 0.046868 -0.032708 0.00297 0.0088889 0.031907 
0.0095465 0.091589 0.0060938 0.049006 -0.03057 0.016781 -0.0068948 0.02122 
0.00083261 0.069558 0.0098754 0.056898 -0.025309 0.025166 -0.001798 0.030756 
0.016123 0.097837 0.035195 0.067256 -0.017582 0.027632 0.017767 0.039963 
0.028454 0.11806 0.038483 0.070544 -0.014951 0.028125 0.0064227 0.041936 
0.016781 0.073832 0.031249 0.064296 -0.021034 0.0075736 -0.0075525 0.034373 
0.031414 0.030263 0.03388 0.065447 -0.02087 0.025166 -0.0021268 0.028783 
0.056076 0.012835 0.042923 0.0689 -0.017746 0.02122 0.00099702 0.027468 
0.051143 0.015794 0.024015 0.075148 -0.015116 0.027961 0.0064227 0.061666 
0.020069 0.037826 0.00050378 0.081395 -0.013307 0.035853 0.0095465 0.033551 
0.0023123 0.013328 0.010369 0.067749 -0.021199 0.02533 0.01152 0.041936 
-0.024487 -0.025638 0.0051074 0.054267 -0.029091 0.022042 0.0064227 0.022864 
-0.016431 0.010204 0.033715 0.072517 -0.015938 0.031742 0.0052718 0.023522 
0.042923 0.01267 0.029605 0.071202 -0.017417 0.025495 0.0031344 0.045224 
0.046046 -0.014951 0.016123 0.0592 -0.026953 0.022535 0.0019835 0.044073 
0.029769 0.021384 0.026317 0.062488 -0.025309 0.059035 0.0054362 0.067256 
0.062817 0.048841 0.074326 0.088465 -0.0078813 0.030098 0.0062583 0.043251 
0.085341 0.065776 0.074819 0.099645 -0.0021268 0.049664 0.027303 0.065283 
0.05624 0.021713 0.069064 0.090274 -0.0073881 0.046704 0.020727 0.056898 
0.014808 0.016616 0.057884 0.11 0.0051074 0.057227 0.030098 0.047033 
0.09981 0.15374 0.10589 0.16558 0.048677 0.042594 0.03799 0.06594 
0.19846 0.1932 0.098659 0.15653 0.051472 0.051308 0.025495 0.083533 
0.032893 0.039963 0.0047785 0.086985 0.0046141 0.031578 0.013821 0.047197 
-0.029255 -0.022679 -0.014293 0.054267 -0.024487 0.030592 0.016452 -0.0052507 
-0.14698 -0.011663 -0.006566 0.044731 -0.037476 0.02122 0.0083956 -0.037311 
-0.18923 0.058706 0.036017 0.070873 -0.022679 0.01974 -0.0042642 -0.020048 
-0.13514 0.075312 0.03947 0.081067 -0.014458 0.042429 0.0093821 -0.021528 
-0.01939 0.11674 0.047362 0.080902 -0.016595 0.025988 -0.0040998 -0.013143 
0.11181 0.20898 0.057062 0.077778 -0.022185 0.022206 0.0039565 0.067256 
0.15078 0.16064 0.099974 0.11017 -0.0011404 0.062488 0.013986 0.077285 
0.068078 0.040456 0.070708 0.11724 0.0041209 0.044073 0.016123 0.068078 
0.042594 0.034702 0.048677 0.13664 0.018425 0.034373 0.017438 0.057227 
0.051143 -0.018568 0.040785 0.10984 0.0060938 0.066598 0.029112 0.06183 
0.0592 -0.046519 0.0065871 0.071695 -0.020377 0.045389 0.015794 0.055418 
0.043416 -0.054904 0.005765 0.06035 -0.031064 0.0421 0.020727 0.028783 
0.022535 -0.02794 0.037661 0.072024 -0.021856 0.049006 0.016452 0.026317 
0.03651 0.03092 0.050321 0.085341 -0.012978 0.018589 0.0036276 0.05213 
0.028125 0.073175 0.074161 0.10425 0.0014903 0.04506 0.029605 0.031907 
0.059528 0.13121 0.10507 0.12365 0.01267 0.045882 0.021056 0.034702 
0.068736 0.14239 0.10195 0.12497 0.01004 0.027632 0.011191 0.056076 
0.082546 0.095206 0.075312 0.11148 0.0014903 0.04506 0.037497 0.068736 
0.0075736 -0.010019 0.029769 0.091753 -0.010348 0.029441 0.0090533 0.024673 
-0.025309 -0.037805 0.0090533 0.093562 -0.013965 0.024015 0.0032988 -0.0011404 
-0.0057439 -0.017582 -0.0054151 0.061501 -0.035667 0.018918 0.0095465 -0.0052507 
-0.017746 0.076299 0.014479 0.061172 -0.035503 0.059857 0.025824 0.0092177 
-0.074469 0.094384 0.046046 0.079422 -0.021199 0.036839 0.01974 0.015465 
-0.078908 0.090767 0.03799 0.08008 -0.019061 0.03799 0.017274 0.0064227 
0.037661 0.086328 0.030756 0.072517 -0.026953 0.021878 0.0039565 0.041772 
0.16031 0.080573 0.026317 0.067913 -0.031886 0.030592 0.011355 0.089123 
0.11313 0.1008 0.050157 0.077285 -0.026789 0.05624 0.023193 0.050814 
0.034373 0.15407 0.12365 0.12003 0.0023123 0.040128 0.016781 0.051801 
0.039141 0.097837 0.12135 0.13812 0.014315 0.028619 0.012177 0.029276 
0.041607 -0.0095255 0.045718 0.1128 -0.001798 0.050157 0.0074092 0.047197 
0.079916 -0.027118 -0.040928 0.074983 -0.023336 0.029276 0.0036276 0.040456 
0.15933 -0.065262 -0.04619 0.032071 -0.05178 0.029934 0.012342 0.027796 
0.061501 -0.018239 -0.003771 0.040456 -0.048492 0.046868 0.017767 0.017767 
-0.16868 0.051965 0.052952 0.075641 -0.024652 0.037661 0.015301 0.010369 
-0.21817 0.032893 0.03947 0.076792 -0.025474 0.024344 0.024015 -0.02235 
-0.10817 0.021713 0.038977 0.079422 -0.023336 0.044896 0.021878 -0.0062372 
0.044896 0.070708 0.048019 0.086985 -0.014458 0.019905 0.0080668 0.011355 
0.17182 0.082875 0.027468 0.070215 -0.024323 0.041443 0.029276 0.05624 
0.21391 -0.0022913 0.037497 0.062817 -0.034023 0.050157 0.027303 0.057062 
0.099974 -0.046683 0.054267 0.080409 -0.022679 0.042758 0.024508 0.049335 
-0.14369 -0.034516 -0.008539 0.062652 -0.034023 0.031907 0.012835 -0.0098543 
-0.13826 -0.0088678 -0.030077 0.056569 -0.043724 0.0046141 -0.010512 -0.018075 
0.018589 0.012177 -0.053753 0.022864 -0.072332 -0.01117 -0.014458 -0.00031829 
0.10129 0.025495 -0.015773 0.028947 -0.066248 0.032564 -0.003771 0.040785 
0.08863 0.018425 0.016288 0.046704 -0.04882 0.036839 -0.0036066 0.035524 
0.041772 0.01826 0.035688 0.062488 -0.032543 0.019905 -0.001798 0.0093821 
0.014972 0.03536 0.040292 0.076627 -0.022843 0.04917 0.01152 -0.010676 
0.068242 0.061666 0.022864 0.062981 -0.031886 0.019247 -0.0013048 0.024344 
0.069393 0.088301 0.027632 0.059035 -0.039449 0.010533 -0.0032777 0.01974 
0.04358 0.10491 0.055747 0.074326 -0.027611 0.031742 0.0023123 0.0041209 
0.034044 0.071695 0.030098 0.079422 -0.021528 0.031085 0.0034632 0.017767 
0.037168 0.060515 0.022535 0.09274 -0.011992 0.016616 0.01563 0.018425 
0.0421 0.066598 0.012835 0.090109 -0.011498 0.031249 0.0085601 0.039799 
0.023686 0.04506 0.0042853 0.062488 -0.031392 0.011848 -0.0011404 0.047033 
0.023851 0.056404 0.0039565 0.052623 -0.041257 0.027632 0.02533 0.024344 
0.024015 0.0046141 -0.013636 0.037497 -0.053753 0.024179 0.0059294 0.039141 
0.035031 -0.0060728 -0.00064712 0.037826 -0.055068 0.0075736 -0.0047575 0.031085 
0.031414 -0.045203 -0.0070593 0.038812 -0.051615 0.01826 0.0074092 0.033222 
0.059693 -0.0013048 0.05624 0.068571 -0.027611 0.032893 0.0085601 0.049664 
0.052294 0.089616 0.12003 0.11329 0.0023123 0.0011614 -0.021363 0.016288 
0.062159 0.12299 0.12003 0.13319 0.018918 0.036017 0.0060938 0.037332 
0.046704 0.081724 0.077121 0.12316 0.01415 0.027468 0.0052718 0.043745 
0.071859 0.099316 0.029934 0.11806 0.01004 0.017767 -0.00031829 0.026974 
0.12316 0.046868 0.01711 0.099481 -0.00015387 0.023357 0.011355 0.055582 
0.037497 -0.03057 -0.022843 0.051472 -0.033859 0.018096 -0.0004827 0.042923 
-0.029913 -0.010183 -0.027447 0.025001 -0.055726 0.037332 0.011191 0.027632 
-0.012649 0.033715 0.028947 0.05476 -0.038956 0.029605 0.0034632 0.0056006 
0.00083261 0.05065 0.023686 0.056076 -0.039449 -0.012156 -0.025309 0.0011614 
-0.00097594 0.02122 -0.027118 0.029112 -0.057534 -0.012814 -0.015444 0.0069159 
-0.052437 -0.08532 -0.083347 -0.025967 -0.093705 0.0067515 -0.016595 0.023028 
-0.035174 0.0062583 -0.047669 -0.022679 -0.094527 0.0093821 -0.013636 0.0067515 
0.00099702 0.12233 0.03536 0.04358 -0.0503 0.022535 0.0079024 0.01711 
0.051143 0.1881 0.095864 0.10178 -0.0054151 0.029276 0.0042853 0.035031 
0.090767 0.2343 0.045389 0.12513 0.015794 -0.0072237 -0.015609 0.02829 
0.12842 0.16031 0.059035 0.12184 0.01974 0.033715 0.011355 0.047033 
0.11346 0.043087 0.03388 0.092904 -0.0004827 0.030427 0.013164 0.071531 
0.063803 0.034537 0.042265 0.08567 -0.013307 0.0037921 -0.0077169 0.049828 
0.070873 0.094548 0.067256 0.10458 -0.0027845 0.019576 -0.0067304 0.03947 
0.051801 0.055089 0.033715 0.085341 -0.014787 0.0041209 -0.0138 0.043087 
0.05213 -0.011498 0.0080668 0.065283 -0.026624 0.013821 -0.0091966 0.041772 
0.057227 -0.038627 0.034702 0.068242 -0.021199 0.039799 0.0064227 0.043087 
0.043745 0.0075736 0.057391 0.08008 -0.012649 0.027303 0.005765 0.044238 
0.028783 0.020727 0.064296 0.083368 -0.011992 0.00297 -0.016595 -0.0064016 
0.046704 0.016945 0.019247 0.065776 -0.023336 0.019576 -0.015116 0.016616 
0.078272 0.064132 0.023193 0.073668 -0.020541 0.035031 0.0036276 0.028125 
0.056733 0.11822 0.085341 0.12299 0.015794 0.01267 -0.0014692 0.035195 
0.035524 0.17478 0.087808 0.1294 0.025659 0.030427 0.0016547 0.069393 
0.091589 0.18909 0.073175 0.12316 0.020891 0.018425 -0.0044286 0.063145 
0.050321 0.1179 0.02533 0.085012 -0.0064016 0.021384 0.012835 0.053774 
0.0067515 0.042265 -0.028104 0.03947 -0.042573 0.015137 -0.011005 0.0072447 
-0.0011404 -0.038133 -0.019555 0.023193 -0.061151 -0.022514 -0.034352 -0.001798 
-0.018239 -0.069536 -0.01117 0.023522 -0.059507 0.0044497 -0.0032777 0.012013 
0.00083261 0.011684 0.025824 0.039963 -0.042901 0.021549 0.00050378 0.017767 
-0.031721 -0.017417 0.043251 0.055582 -0.034352 0.00297 -0.014951 -0.018239 
0.015301 0.03651 0.081889 0.11 -0.0022913 0.024508 -0.0013048 0.03092 
0.031414 0.092411 0.030427 0.11198 0.0042853 0.015959 -0.0026201 0.067585 
0.080902 0.018096 -0.057205 0.05213 -0.029584 -0.00031829 -0.021528 0.010697 
0.081889 -0.014129 -0.027775 0.029934 -0.044217 0.030098 -0.0027845 0.010862 
-0.0070593 -0.004593 0.078929 0.090767 -0.0026201 0.011848 -0.014951 0.016452 
-0.17887 0.00099702 0.08978 0.11559 0.019411 0.021713 -0.0059084 -0.00031829 
-0.13251 0.088136 0.073175 0.10935 0.012506 0.03799 0.0056006 0.025988 
0.024015 0.10737 0.05476 0.09981 0.0024767 0.025659 0.004943 0.042758 
0.08978 0.063639 0.044073 0.084355 -0.0077169 0.026317 0.0037921 0.035031 
0.0592 0.037332 0.019411 0.050157 -0.030735 0.033551 -0.0052507 0.024015 
0.060022 -0.00097594 0.02122 0.048348 -0.034188 0.014643 -0.0078813 0.021384 
0.037004 0.04358 0.045224 0.062323 -0.024158 0.015959 0.012506 0.055747 
0.057884 0.080573 0.057555 0.10819 0.0054362 0.03947 0.0093821 0.060679 
0.069064 0.059528 0.050979 0.11346 0.012506 0.053116 0.024015 0.038483 
0.069229 0.0085601 0.0090533 0.077121 -0.010348 0.017932 0.020233 0.036017 
0.080244 -0.0138 0.00099702 0.055911 -0.028269 0.018096 0.0037921 0.047197 
0.057555 0.0051074 0.028619 0.064132 -0.028269 0.0092177 -0.0083746 0.0090533 
0.0037921 0.017274 0.043745 0.07449 -0.023336 0.03947 0.0079024 0.0067515 
-0.009361 0.0028056 0.024344 0.067913 -0.026789 0.022206 0.0016547 0.03092 
-0.012485 -0.008539 0.026317 0.063474 -0.025967 0.021056 0.0036276 0.02122 
-0.022514 0.045389 0.060679 0.076463 -0.014787 0.028947 0.0087245 0.010533 
0.033551 0.05476 0.087314 0.10326 0.0036276 0.018096 -0.0059084 0.0041209 
0.062323 0.050486 0.037004 0.089616 -0.0049219 0.0092177 -0.0083746 0.01711 
0.046211 0.055254 0.0062583 0.092247 -0.0057439 0.023357 -0.008539 0.012342 
0.026646 0.028125 0.0019835 0.07038 -0.021363 0.024673 -0.0024557 0.013821 
0.048841 0.069886 0.011026 0.062323 -0.029584 0.042923 0.0069159 0.023851 
0.016945 0.060679 0.013657 0.058213 -0.03353 0.030263 0.00066819 0.01711 
0.005765 0.057884 0.026481 0.058213 -0.032379 -0.00015387 -0.014951 0.012013 
0.06742 0.090438 0.051308 0.0786 -0.013965 0.024508 0.0065871 0.030098 
0.068736 0.072024 0.055254 0.09126 0.00017495 0.068407 0.026646 0.063639 
0.033551 0.02533 0.0069159 0.065612 -0.018568 0.041114 0.022371 0.052787 
-0.0042642 -0.022514 -0.0095255 0.035031 -0.047669 0.013986 0.016452 0.015794 
-0.023007 -0.042573 0.0093821 0.036675 -0.048492 0.040128 0.0019835 0.010862 
-0.019884 0.047197 0.051801 0.081067 -0.019884 0.019411 -0.0026201 -0.0013048 
-0.00015387 0.094384 0.022535 0.089287 -0.008539 0.048841 0.010204 0.017274 
0.075148 0.033058 0.0013258 0.064132 -0.023829 0.032564 0.0083956 0.050814 
0.11296 0.06742 0.018096 0.062981 -0.024652 0.021878 0.0059294 0.059528 
0.058871 0.072517 0.032071 0.073339 -0.016431 0.039141 0.019083 0.042758 
-0.0049219 0.061501 0.03092 0.069393 -0.020541 0.032564 0.011355 0.0070803 
0.016945 0.057884 0.03947 0.078107 -0.015116 0.012999 -0.00064712 0.0069159 
0.04506 0.053609 0.039963 0.082546 -0.012814 0.037332 0.0062583 0.014972 
0.04358 0.081231 0.059364 0.084026 -0.016266 0.012835 -0.0047575 0.024179 
0.067585 0.095864 0.062817 0.091425 -0.01117 0.038319 0.0054362 0.051636 
0.04506 0.078929 0.061666 0.092904 -0.0050863 0.04506 0.0092177 0.0060938 
0.0090533 0.06594 0.03651 0.08715 -0.0059084 0.039799 0.020233 -0.0047575 
0.020233 0.020891 0.015465 0.093891 -0.0029489 0.031414 0.016616 0.042758 
0.061172 0.015465 0.016452 0.070544 -0.021528 0.033222 0.021878 0.065776 
0.082546 0.090274 0.014808 0.064296 -0.031064 0.019411 0.0060938 0.059857 
0.19418 0.14075 0.014808 0.06331 -0.029913 0.030427 0.023193 0.08863 
0.21441 0.1174 0.026974 0.067091 -0.024487 0.03536 0.016945 0.078929 
0.015465 0.036839 0.0036276 0.051143 -0.03616 0.016452 0.00083261 0.021549 
-0.1016 0.035031 0.023851 0.058706 -0.032379 0.019247 0.01267 0.020727 
-0.10801 0.054432 0.026481 0.054267 -0.035832 0.018425 -0.0026201 -0.0083746 
-0.10012 0.040128 0.018589 0.046211 -0.047176 -0.0088678 -0.022021 -0.040271 
-0.074633 0.0034632 0.013164 0.044402 -0.051944 0.00050378 -0.012485 -0.022843 
0.031085 0.0019835 0.0044497 0.06479 -0.037805 0.010533 -0.014787 0.020069 
0.11231 0.035853 0.0421 0.10885 -0.00064712 0.030427 0.0042853 0.065612 
0.06035 -0.018568 0.049828 0.097672 0.00297 0.04506 0.027303 0.08715 
0.027139 0.052294 0.064132 0.10293 0.010204 0.050979 0.025988 0.041607 
0.081231 0.11083 0.075312 0.11872 0.016616 0.012835 0.0014903 0.04654 
0.06742 0.14239 0.045553 0.094055 -0.0027845 0.029769 0.0036276 0.055747 
0.055747 0.082875 -0.026131 0.042758 -0.041422 0.021713 0.0013258 0.031907 
0.079751 -0.083347 -0.054904 0.0028056 -0.07003 0.020233 0.0016547 0.026152 
0.059857 -0.080223 -0.019719 0.015137 -0.065262 0.031085 0.0072447 0.022535 
-0.063946 -0.0059084 0.057062 0.055254 -0.042737 0.020233 -0.0019624 -0.0026201 
-0.10735 -0.0016336 0.067091 0.085506 -0.018404 0.013821 0.009711 0.016452 
-0.06707 0.038483 0.032071 0.096357 -0.0062372 0.029276 0.0037921 0.027468 
-0.026296 0.079916 0.011191 0.09833 -0.0013048 0.045553 0.020727 0.043251 
0.037332 0.068242 0.033551 0.087314 -0.0096899 0.021056 0.021056 0.046375 
0.072024 0.068242 0.016288 0.072681 -0.021856 0.027796 0.007738 0.019411 
0.053774 0.035195 0.0011614 0.053281 -0.035667 0.013657 -0.00031829 0.025659 
0.057884 0.057884 0.021384 0.05772 -0.030242 0.035195 0.013821 0.037826 
0.043745 0.09126 0.056404 0.083368 -0.011334 0.010369 -0.0068948 0.040292 
0.062323 0.091589 0.076134 0.097672 -0.0014692 0.010862 -0.0067304 0.034209 
0.056076 0.066105 0.041443 0.076134 -0.017417 0.026317 0.00297 0.037168 
0.026974 0.0031344 0.026152 0.05772 -0.032543 0.018589 -0.0044286 0.026152 
0.021878 -0.023007 0.027468 0.060186 -0.031721 0.0054362 -0.011005 0.016616 
-0.00097594 0.041772 0.048184 0.097344 -0.0067304 0.036346 -0.00031829 0.029769 
0.022371 0.053116 0.027632 0.11576 0.0062583 0.0032988 -0.0138 0.0074092 
0.060679 0.071202 0.024508 0.084684 -0.011498 0.0059294 -0.012814 0.031907 
0.058542 0.045882 0.022535 0.075476 -0.019061 0.047033 0.00083261 0.040128 
0.026481 -0.029091 0.0060938 0.060186 -0.028433 0.030427 0.0016547 0.018918 
-0.014293 -0.039613 0.01711 0.058542 -0.030077 0.031907 0.0095465 0.036346 
-0.032708 -0.042244 0.037332 0.070051 -0.021199 0.043416 0.0088889 0.017438 
0.05476 0.030098 0.080409 0.10622 0.0014903 0.015301 -0.0064016 0.041936 
0.097837 0.060022 0.063145 0.095699 -0.0029489 0.015301 0.009711 0.050979 
0.040785 0.012506 0.0083956 0.05772 -0.025145 0.03947 0.00297 0.027468 
-0.013965 -0.0040998 0.00050378 0.043087 -0.038133 0.0227 0.0028056 0.027468 
-0.015938 0.059528 0.053116 0.086163 -0.012814 0.022371 0.018425 0.048677 
0.054925 0.10803 0.067585 0.12612 0.016616 0.021549 0.00017495 0.036346 
0.044567 0.1248 0.029769 0.094877 -0.00031829 -0.0077169 -0.018897 0.015137 
-0.049642 0.044402 -0.018239 0.049992 -0.032215 0.0075736 -0.0098543 -0.0021268 
0.020398 0.021056 0.016781 0.053774 -0.033859 0.03388 0.0032988 0.029276 
0.053774 0.1003 0.053281 0.079258 -0.017746 0.027303 0.0079024 0.060844 
0.034866 0.081067 0.049006 0.08863 -0.010348 0.038483 0.014808 0.048348 
0.034866 0.037497 0.034373 0.078436 -0.016266 0.016616 -0.0004827 0.014808 
0.067256 0.072846 0.053445 0.082711 -0.012649 0.01004 -0.0052507 0.037332 
0.098988 0.089945 0.074819 0.094384 -0.0024557 0.024344 -0.0004827 0.06742 
0.13236 0.09274 0.075641 0.10885 0.0093821 0.040621 0.0079024 0.049006 
0.086657 0.065776 0.07038 0.12003 0.019247 0.025001 0.0046141 0.034044 
-0.013965 0.0062583 0.037332 0.12365 0.023851 0.025988 -0.0032777 -0.014129 
0.00099702 -0.0083746 0.010862 0.0786 -0.0095255 0.013986 -0.0062372 0.0056006 
0.039305 0.0028056 -0.022185 0.044731 -0.036983 0.014315 0.0016547 0.048677 
0.061501 -0.04323 -0.014129 0.031907 -0.050793 0.032236 0.0031344 0.040456 
0.037004 -0.0060728 0.018754 0.051308 -0.041093 0.027139 0.0052718 0.032564 
0.017438 0.023686 0.040456 0.066269 -0.027611 0.020891 0.014808 0.038812 
-0.028433 0.047033 0.049992 0.083533 -0.012485 0.019576 -0.0032777 0.029605 
0.010533 0.077449 0.046211 0.08008 -0.013143 0.0082312 -0.0019624 0.025659 
0.070708 0.12447 0.082875 0.097672 -0.00015387 0.020069 0.011355 0.055418 
0.10672 0.14371 0.12513 0.15144 0.036017 0.030427 0.017274 0.015301 
0.081889 0.11937 0.065612 0.13976 0.03388 0.019576 0.0051074 0.027139 
-0.0050863 -0.019061 -0.01676 0.10589 0.010533 0.03092 0.0036276 -0.021034 
-0.057534 -0.079237 -0.060658 0.031249 -0.041257 0.00099702 -0.013307 -0.015609 
-0.029584 -0.042079 -0.041586 0.014643 -0.06 0.021056 -0.0021268 0.0011614 
0.018096 0.030098 -0.0057439 0.034209 -0.047505 0.023851 -0.001798 0.00033937 
0.072024 0.087972 0.015794 0.049499 -0.032379 0.02829 -0.0021268 0.03799 
0.065612 0.073339 0.065283 0.083204 -0.009361 0.020727 0.00099702 0.075476 
0.066763 0.060515 0.07597 0.1031 0.0072447 0.042594 0.013328 0.06742 
0.069229 0.070708 0.060844 0.093726 0.00099702 0.043087 0.01826 0.038319 
0.035853 0.016288 0.047855 0.076627 -0.011992 0.013164 0.00099702 0.0056006 
0.013657 0.042429 0.056733 0.077943 -0.013965 0.011684 -0.0064016 -0.0068948 
0.046375 0.11707 0.071366 0.11691 0.011848 0.024015 -0.0004827 0.03536 
0.093562 0.12217 0.036839 0.12431 0.0227 0.04506 0.029769 0.074654 
0.063639 0.12349 0.026317 0.091918 0.00017495 0.034702 0.013657 0.031085 
-0.0083746 0.022864 0.0036276 0.065447 -0.021199 0.010697 -0.01117 -0.014129 
-0.037476 -0.041422 -0.001798 0.052294 -0.031557 0.005765 0.0041209 -0.012649 
-0.017582 -0.028269 -0.025309 0.024508 -0.047998 0.029276 0.00099702 0.017767 
0.031742 0.031907 0.0069159 0.038977 -0.041586 0.020233 -0.0011404 0.024179 
0.026481 0.0324 0.014808 0.043416 -0.039778 0.019247 0.0083956 0.013986 
-0.0004827 0.0227 0.029605 0.050814 -0.036489 0.016781 -0.0036066 0.015301 
-0.026131 0.018754 0.025824 0.049499 -0.035338 0.01826 -0.0027845 0.028619 
-0.011992 0.03536 0.037826 0.065447 -0.021034 0.041936 0.014972 0.03536 
0.079094 0.05772 0.057555 0.10228 0.0083956 0.03799 0.015465 0.038648 
0.10672 0.082382 0.065283 0.13056 0.031578 0.028783 0.01004 0.049992 
0.079258 0.085341 0.04506 0.10244 0.013657 0.062488 0.023851 0.032071 
0.035195 0.069722 0.014972 0.073668 -0.01117 0.027468 0.010533 0.016123 
0.013492 0.03651 0.0026412 0.057884 -0.02646 0.014643 0.00083261 0.026317 
0.007738 0.040621 -0.003771 0.044731 -0.035503 0.015959 -0.0090322 0.012999 
0.020069 0.015137 0.028783 0.056404 -0.028926 0.011026 -0.0091966 0.024673 
0.020398 0.0098754 0.029605 0.059035 -0.025145 0.0085601 -0.011992 0.040128 
0.05213 0.035524 0.039963 0.063145 -0.022514 0.031907 -0.0029489 0.0227 
0.038977 0.024837 0.0421 0.068736 -0.019226 0.04358 0.013164 0.025824 
0.026974 0.052787 0.043416 0.078436 -0.013636 0.024179 0.022042 0.025659 
0.040621 0.043416 0.0019835 0.085506 -0.0096899 0.04506 0.022206 0.02533 
0.046211 0.052952 0.017603 0.078272 -0.012814 0.016288 0.0031344 0.041772 
0.062159 0.077121 0.040128 0.079422 -0.013471 0.01004 0.0098754 0.040785 
0.03651 0.090603 0.0082312 0.06331 -0.023994 0.018589 -0.0062372 0.03947 
0.036017 0.042429 -0.021034 0.033387 -0.046683 0.01711 -0.0055795 0.032564 
0.03388 0.063968 -0.011663 0.028947 -0.050793 0.021878 0.01004 0.017932 
0.064296 0.041607 -0.0090322 0.026152 -0.049807 0.030263 0.010533 0.037497 
0.072024 0.058871 0.081231 0.077778 -0.014622 0.019247 0.0021479 0.046375 
0.028454 0.056076 0.10885 0.09981 0.0062583 0.032564 -0.004593 -0.014458 
0.0047785 0.034209 0.097344 0.11181 0.013821 0.013328 -0.008539 0.0031344 
-0.028762 0.016616 0.031742 0.10211 0.004943 0.0046141 -0.0073881 -0.0042642 
-0.024158 0.023686 0.012177 0.10474 0.0079024 0.029769 -0.0026201 0.030427 
0.086657 0.07449 0.027632 0.088465 0.00083261 0.016945 -0.0036066 0.096193 
0.12003 0.10951 0.034373 0.080409 -0.0064016 0.024673 0.0024767 0.072846 
-0.01939 0.062652 -0.016266 0.045389 -0.033201 0.026317 -0.0088678 -0.0036066 
-0.038298 0.0082312 -0.071016 -0.0024557 -0.07266 1.0539e-005 -0.021856 -0.0082102 
-0.0068948 -0.11853 -0.13695 -0.062467 -0.11705 -0.0040998 -0.013965 -0.013307 
-0.019226 -0.081703 -0.028104 -0.0098543 -0.086964 0.027796 -0.0039354 0.017767 
0.045553 0.13795 0.13943 0.10392 -0.0034422 0.041278 0.012177 0.073997 
0.09274 0.22542 0.15571 0.15061 0.041114 0.027961 0.025988 0.042265 
0.10113 0.13417 0.06594 0.11378 0.020562 0.031414 0.011848 0.044731 
0.023193 -0.0027845 -0.013965 0.066927 -0.019555 -0.018568 -0.024158 0.021056 
-0.023336 -0.077264 -0.0034422 0.082875 -0.015609 -0.0042642 -0.0138 -0.006566 
-0.0021268 0.03536 0.047197 0.093398 -0.0047575 0.010533 -0.011005 0.019905 
0.11609 0.11132 0.088465 0.11921 0.016123 0.013492 -0.0080457 0.06594 
0.13615 0.11115 0.11313 0.14502 0.040456 0.037826 0.017603 0.067913 
0.16492 0.20208 0.15555 0.17807 0.06742 0.034209 0.013328 0.098166 
0.12776 0.21095 0.12973 0.16969 0.063968 0.034702 0.019576 0.087643 
0.040621 0.02533 0.032236 0.10754 0.020233 0.044731 0.016616 0.035853 
-0.16605 -0.2374 -0.12264 -0.023501 -0.080223 -0.0026201 -0.015609 -0.054739 
-0.27226 -0.33753 -0.14254 -0.082525 -0.13727 -0.028104 -0.038627 -0.08384 
-0.17476 -0.14385 -0.027611 -0.027118 -0.10406 -0.001798 -0.025802 -0.020541 
-0.009361 0.10737 0.057227 0.06035 -0.039284 0.020727 -0.009361 0.044402 
0.1151 0.16245 0.041114 0.10622 0.0037921 0.044073 0.016616 0.052623 
0.12431 0.10014 0.041443 0.095206 0.004943 0.047362 0.017603 0.055418 
0.085341 0.072024 0.031414 0.081889 -0.0067304 0.027796 0.0036276 0.027632 
0.040456 0.053116 0.013657 0.065612 -0.020377 0.0090533 -0.0021268 0.016616 
0.047691 0.098823 0.041936 0.078765 -0.012156 0.039799 0.0024767 0.035853 
0.080573 0.10918 0.086985 0.10902 0.0082312 0.024837 0.0064227 0.042923 
0.0786 0.1003 0.083862 0.12299 0.021056 0.017767 0.013164 0.029934 
-0.0078813 0.090438 0.066269 0.10392 0.0080668 0.035688 0.011684 0.025001 
-0.029584 0.03092 0.056076 0.092576 -0.0019624 0.024015 0.0056006 0.028947 
-0.0060728 0.018754 0.057227 0.088136 -0.0059084 0.035195 0.02122 0.032236 
0.024837 0.028947 0.033058 0.084519 -0.0077169 0.029769 0.0079024 0.03947 
0.050321 0.022371 0.025988 0.082053 -0.010841 0.017603 -0.0027845 0.015137 
0.060186 0.024344 0.015959 0.070215 -0.019061 0.040785 0.012342 0.012835 
0.011684 -0.0072237 0.0093821 0.05624 -0.032215 0.023193 0.0046141 0.055089 
0.015465 -0.032215 -0.0042642 0.045224 -0.040106 0.021056 0.0052718 0.034044 
-0.0049219 0.049992 0.030592 0.061666 -0.030735 0.051308 0.029605 0.029276 
0.022206 0.063968 0.036182 0.072024 -0.021856 0.029441 0.014808 0.021713 
0.065776 0.052952 0.026152 0.071531 -0.01939 0.029112 0.016452 -0.010676 
0.067749 0.014808 0.018754 0.059693 -0.026624 0.03947 0.012506 0.01974 
0.032071 0.0011614 0.041936 0.057884 -0.033037 0.015137 -0.0004827 0.022864 
-0.017088 0.032071 0.044238 0.062488 -0.034845 -0.006566 -0.020706 -0.001798 
0.04654 0.10376 0.075476 0.11083 -0.00015387 0.041443 0.00066819 0.045224 
0.077121 0.12677 0.074326 0.14305 0.030592 0.043087 0.013986 0.078107 
0.079094 0.10063 0.024673 0.10145 0.013328 0.051472 0.030098 0.046211 
0.11707 0.013328 -0.012814 0.055582 -0.019555 0.039141 0.016452 0.032729 
0.027139 -0.046519 0.01004 0.055911 -0.031228 0.02122 0.0014903 -0.021528 
-0.14796 -0.035338 0.01974 0.057884 -0.035832 0.0051074 0.0047785 -0.03205 
-0.052109 0.030427 0.049335 0.079258 -0.017746 0.024508 0.0028056 0.034209 
0.05624 0.11115 0.034373 0.077778 -0.013471 0.025659 0.0036276 0.036839 
0.041936 0.1396 0.036017 0.067913 -0.020048 0.027632 0.018754 0.033551 
0.0044497 0.014808 0.011684 0.048513 -0.03616 0.041443 0.012835 0.0227 
0.028454 -0.069865 0.0069159 0.03651 -0.046519 0.0095465 -0.0036066 0.0083956 
0.066598 -0.0070593 0.018425 0.058871 -0.031064 0.048184 0.020069 0.070215 
0.09833 0.071695 0.023028 0.090603 -0.0064016 0.033715 0.014808 0.067749 
0.097672 0.1003 0.0011614 0.073668 -0.017253 0.014972 -0.0068948 0.038155 
0.06331 0.043745 0.0024767 0.055747 -0.030899 0.022206 -0.0014692 0.012177 
0.024837 0.045553 0.0098754 0.054432 -0.034023 0.0087245 -0.010348 0.027961 
0.03388 0.080738 0.019905 0.061666 -0.02794 0.020398 -0.0031133 0.029934 
0.038483 0.081067 0.052294 0.082875 -0.010019 0.052623 0.015959 0.052787 
0.061501 0.1008 0.056733 0.09126 -0.0019624 0.037661 0.013821 0.04095 
0.079916 0.1174 0.073997 0.091589 -0.0013048 0.047362 0.023193 0.034373 
0.068078 0.074654 0.072188 0.092247 -0.0024557 0.028783 0.0072447 0.040456 
0.04095 0.049664 0.054925 0.082382 -0.011334 -0.0011404 -0.013965 0.036675 
0.021549 0.018754 0.035853 0.079587 -0.014951 0.009711 0.0079024 0.01974 
0.0090533 0.00066819 -0.0044286 0.077614 -0.015444 0.022864 -0.0013048 0.03799 
0.029605 0.044567 0.00017495 0.062488 -0.026131 0.01711 -0.0022913 0.01415 
0.043909 0.037168 0.029276 0.069558 -0.022185 0.016452 0.015301 0.025824 
0.0072447 0.019905 0.04095 0.077778 -0.015938 0.025824 0.0062583 0.040785 
-0.020377 0.019083 0.030427 0.073504 -0.015773 0.02533 0.0039565 0.013986 
-0.0075525 0.023851 0.014972 0.063639 -0.02235 0.019247 0.0026412 0.0087245 
0.063145 0.051965 0.016945 0.060022 -0.025474 0.02122 -0.0011404 0.037168 
0.070708 0.0075736 0.014808 0.058213 -0.027118 0.013492 -0.004593 0.022206 
0.062817 0.028947 0.062159 0.075476 -0.017911 0.021549 0.0023123 0.017932 
0.027139 0.095371 0.053938 0.07597 -0.01939 -0.011498 -0.022021 0.0036276 
0.004943 0.091753 0.029934 0.071037 -0.023172 0.0044497 -0.018568 0.014972 
-0.0022913 0.028125 -0.021363 0.067256 -0.02235 0.036017 -0.0082102 0.028619 
-0.015116 0.018754 -0.0013048 0.051965 -0.028762 0.021878 -0.0078813 0.028947 
-0.021856 0.0041209 0.023522 0.066269 -0.020048 0.022042 0.00050378 -0.0070593 
0.032729 0.014972 0.045224 0.079094 -0.010676 0.044731 0.011026 0.045882 
0.11017 0.065612 0.041278 0.081395 -0.0067304 0.0080668 -0.010512 0.048841 
0.13088 0.09274 0.065612 0.093726 0.0023123 0.018754 0.0080668 0.046704 
0.14568 0.19402 0.092904 0.11444 0.013492 0.048184 0.0046141 0.071366 
0.12513 0.16245 0.053774 0.095371 -0.001798 0.02122 0.0024767 0.078436 
0.058213 0.021713 0.035195 0.073668 -0.016595 0.031907 0.023028 0.031414 
-0.096829 -0.072496 -0.027775 0.025495 -0.050464 0.0075736 -0.0064016 -0.030899 
-0.10949 -0.10719 -0.00097594 0.035195 -0.049807 -0.022021 -0.03205 -0.054575 
-0.046683 -0.063946 0.0067515 0.068407 -0.024487 0.018096 -0.00031829 -0.0072237 
-0.019555 -0.016431 -0.0036066 0.055089 -0.028597 0.020069 -0.00064712 0.0070803 
-0.046683 0.033058 0.028454 0.063145 -0.025802 0.013164 -0.0052507 0.017767 
-0.010019 0.10507 0.043087 0.0786 -0.017746 0.023851 0.0023123 0.028947 
0.041114 0.11444 0.042265 0.081395 -0.013143 0.017274 -0.0050863 0.024508 
0.09422 0.095042 0.071202 0.097344 -0.00081153 0.023028 -0.00031829 0.037332 
0.10244 0.12085 0.092411 0.1225 0.017603 0.032071 0.0042853 0.053116 
0.10704 0.16262 0.13631 0.14782 0.03651 0.028947 0.005765 0.065118 
0.15538 0.16903 0.12135 0.14798 0.037332 0.0041209 -0.014951 0.074654 
0.16771 0.10162 0.062488 0.11148 0.014479 0.037004 0.00083261 0.056076 
-0.036325 -0.011005 -0.022514 0.072188 -0.014458 0.014972 -0.0060728 -0.0050863 
-0.1695 -0.088115 -0.047341 0.051965 -0.030735 0.0023123 -0.015609 -0.01676 
-0.10094 -0.068714 -0.080059 1.0539e-005 -0.066413 0.031414 -0.0013048 0.03092 
0.036839 -0.080552 -0.026296 0.012342 -0.062796 0.016945 -0.0042642 0.01974 
0.066763 -0.021199 -0.023994 0.019083 -0.059672 -0.006566 -0.0068948 0.025001 
0.019576 0.017603 0.016452 0.040785 -0.04471 0.022042 -0.0036066 0.0092177 
0.030427 0.058706 0.041772 0.072024 -0.020541 0.020727 0.00017495 0.023686 
0.070215 0.11411 0.059364 0.088958 -0.0064016 0.019411 0.016945 0.048184 
0.058706 0.10441 0.077778 0.093726 -0.0042642 0.01974 0.0079024 0.01711 
-0.027118 0.071366 0.053938 0.081724 -0.012485 -0.010676 -0.017911 0.0082312 
-0.015938 0.067091 0.044731 0.079094 -0.014622 0.019247 0.0032988 0.03536 
0.00099702 0.0098754 0.047362 0.1003 0.004943 0.038155 0.011026 0.016781 
0.021384 0.0028056 0.052787 0.1271 0.026974 0.045553 0.019247 0.02829 
0.048019 0.023357 0.02829 0.095206 0.0059294 0.027961 0.01152 0.041936 
0.075805 0.020727 -0.022679 0.040292 -0.038791 0.014972 -0.0083746 0.061666 
0.04095 0.069722 -0.0083746 0.035524 -0.048163 0.0031344 -0.014293 0.040785 
0.044238 0.090767 0.039963 0.059528 -0.028762 0.0082312 0.0072447 0.038812 
0.0093821 0.062159 0.041772 0.073997 -0.015609 0.026481 0.0051074 0.0016547 
0.018096 0.053774 0.048348 0.082217 -0.0096899 0.019083 0.00297 0.011355 
0.021056 0.011026 0.032893 0.066763 -0.01939 0.034866 0.0026412 0.039799 
0.038483 0.012177 0.041936 0.066105 -0.022185 0.029769 0.00297 0.023851 
0.045224 0.052294 0.058706 0.080738 -0.014458 0.013164 -0.0050863 0.039305 
0.056076 0.034209 0.035195 0.094877 -0.00081153 0.03388 -0.0040998 0.035688 
0.053938 0.02122 0.011191 0.098001 0.0028056 0.025659 -0.0039354 0.025988 
0.024179 0.062817 0.0018191 0.063474 -0.019884 0.015959 0.013821 0.0093821 
0.062652 0.052787 0.0085601 0.057062 -0.028762 0.034866 0.010697 0.018754 
0.057227 0.090931 0.043251 0.077943 -0.016595 0.034702 0.013821 0.051308 
0.0056006 0.084026 0.048513 0.080244 -0.013636 0.023193 0.013328 0.0421 
0.0069159 0.08978 0.030756 0.073668 -0.019061 0.02829 0.0018191 0.01152 
0.089945 0.12381 0.072024 0.092411 -0.006566 0.020069 0.0023123 0.052294 
0.081395 0.074161 0.055418 0.088301 -0.006566 0.033715 0.015301 0.046046 
0.05772 0.048348 0.037168 0.070873 -0.018733 0.028619 0.007738 0.01974 
0.039963 0.026317 0.065612 0.084519 -0.011498 0.020398 0.0021479 0.015465 
0.016452 -0.037805 0.066598 0.11691 0.01415 0.033715 0.0085601 0.014808 
0.025988 0.016123 0.031578 0.11822 0.015137 0.022206 0.0016547 0.046704 
0.081724 0.068571 0.0028056 0.075641 -0.015444 0.0037921 -0.0064016 0.061172 
0.056569 0.056404 -0.030899 0.037332 -0.046354 0.031414 0.00050378 0.017932 
-0.023172 -0.014951 -0.049478 0.010697 -0.066906 0.022864 -0.0032777 -0.038791 
-0.068221 -0.1427 -0.04471 0.004943 -0.070852 0.012342 -0.006566 -0.027118 
-0.049478 -0.075949 0.047033 0.058213 -0.031392 0.038155 0.0067515 0.007738 
-0.053588 0.10096 0.10359 0.11592 0.013164 0.040456 0.011848 0.022206 
0.016616 0.18004 0.090438 0.11855 0.017932 0.030592 0.01563 0.049006 
0.093891 0.18021 0.099974 0.12151 0.018918 0.036182 0.015137 0.018096 
0.13812 0.13598 0.10178 0.12858 0.023851 0.030263 0.013164 0.059364 
0.093233 0.026317 0.026974 0.10967 0.011684 0.015465 0.022535 0.041114 
0.054925 0.019083 -0.0044286 0.094713 -0.0004827 0.022371 0.00017495 0.033058 
0.013657 0.017438 -0.0013048 0.068242 -0.021692 0.0069159 -0.01117 0.032729 
0.021878 0.041443 0.01415 0.062652 -0.028597 0.024837 0.0079024 0.043251 
0.053445 0.080244 0.031249 0.07301 -0.021856 0.022864 -0.00015387 0.051308 
0.013164 0.049828 0.034702 0.073997 -0.019555 0.0060938 -0.0098543 0.01415 
-0.013636 -0.051615 0.0069159 0.058871 -0.030899 0.015465 -0.0026201 0.017274 
0.023357 -0.033365 0.011848 0.056076 -0.033201 0.021713 -0.0024557 0.038319 
0.084684 -0.042244 0.033715 0.06183 -0.028597 0.017438 0.0034632 0.059364 
0.046375 0.029112 0.058377 0.076627 -0.017911 0.034209 0.0052718 0.025659 
-0.027611 0.014808 0.069229 0.093233 -0.0078813 0.013492 -0.0060728 -0.012485 
-0.071181 0.0070803 0.017932 0.077778 -0.018239 0.0052718 -0.0096899 -0.004593 
-0.048492 0.05213 -0.0090322 0.082053 -0.013965 0.015794 -0.011498 0.0028056 
0.070544 0.051143 0.023686 0.076463 -0.014951 0.023357 -0.00015387 0.016616 
0.043087 0.034866 0.0062583 0.063474 -0.022021 0.034373 0.0090533 0.0085601 
-0.025309 0.084355 0.025824 0.066105 -0.023007 0.027303 0.00017495 0.017932 
-0.0138 0.11806 0.044567 0.082217 -0.014293 0.02829 0.0046141 0.011355 
0.047855 0.10885 0.018589 0.065612 -0.024487 0.019411 0.0052718 0.033222 
0.049992 0.096686 0.022206 0.06594 -0.026953 0.025659 -0.0031133 0.037826 
0.050814 0.048841 0.025166 0.061008 -0.030242 0.027303 1.0539e-005 0.026646 
0.031085 0.033387 0.048513 0.06742 -0.023994 0.026152 0.023522 0.046704 
0.024015 -0.016102 0.057555 0.076299 -0.018075 0.038812 0.0080668 0.0093821 
0.014315 -0.042408 0.02533 0.078929 -0.016924 0.016616 -0.001798 0.026481 
0.022206 -0.0082102 -0.0036066 0.092904 -0.0098543 -0.011334 0.0036276 0.019576 
0.024673 0.009711 0.034044 0.086821 -0.011334 0.019905 -0.004593 0.053609 
0.06331 0.0689 0.065283 0.099645 -0.0021268 0.030427 0.0046141 0.058213 
0.065283 0.087479 0.013164 0.073832 -0.017253 0.036017 0.012342 0.027303 
0.091425 0.076463 -0.0064016 0.056076 -0.030406 0.032236 0.011848 0.010862 
0.030098 0.061995 0.0056006 0.051472 -0.033859 0.024837 0.0062583 0.023686 
-0.027775 0.040128 0.018589 0.057062 -0.031557 0.020727 0.0052718 0.014479 
-0.0068948 0.039141 0.054103 0.072517 -0.023172 0.014315 -0.0021268 0.012177 
0.0054362 0.0689 0.077449 0.089616 -0.010512 0.016123 -0.0004827 0.01711 
0.021056 0.03651 0.048513 0.082053 -0.013965 0.021056 -0.0032777 0.020398 
0.01974 0.061666 0.042758 0.094548 -0.0064016 0.018425 -0.0027845 0.039963 
0.068571 0.15127 0.037004 0.11395 0.0093821 0.013657 -0.0067304 0.050321 
0.13697 0.12464 0.038483 0.096193 0.0023123 0.030263 -0.0014692 0.032071 
0.15127 0.058542 0.024673 0.077285 -0.014951 0.021384 -0.0026201 0.056076 
0.057391 0.020398 0.019411 0.066598 -0.024816 0.03536 0.010369 0.049006 
-0.021692 -0.0039354 -0.015444 0.04095 -0.040271 0.032893 0.0039565 0.035688 
0.019411 0.010862 -0.00031829 0.040292 -0.041586 0.012835 -0.0047575 0.051636 
0.10704 0.05213 0.014972 0.04917 -0.035832 0.013164 0.011684 0.060679 
0.02533 0.013821 0.0227 0.051965 -0.037311 0.02829 0.0052718 0.014479 
-0.026789 0.013164 0.051472 0.07038 -0.026789 -0.010841 -0.018897 0.027303 
-0.074798 0.020562 0.073832 0.08978 -0.0077169 0.026646 0.011191 -0.02087 
-0.098967 0.0592 0.060022 0.11625 0.012999 0.019247 0.0019835 -0.041422 
-0.020048 0.11444 0.051308 0.13549 0.027468 0.031249 0.0069159 -0.015444 
0.08419 0.13516 0.072681 0.12842 0.023357 0.034702 0.013492 0.028125 
0.1008 0.1442 0.043745 0.1026 0.0032988 0.019576 0.0024767 0.058706 
0.06479 0.054103 -0.0013048 0.063968 -0.025309 0.020562 0.0021479 0.074326 
0.088958 0.031907 -0.010676 0.046211 -0.038956 0.039799 0.012177 0.061008 
0.093891 0.10885 0.025988 0.060515 -0.029584 0.03388 0.0075736 0.05624 
0.092082 0.07449 0.03947 0.073339 -0.018733 0.0085601 -0.0098543 0.047033 
0.051965 0.025824 0.032729 0.063968 -0.025145 0.035688 -0.014622 0.02829 
0.0051074 -0.031064 0.039963 0.066927 -0.025309 0.01563 -0.012156 0.018096 
-0.015116 -0.062796 0.022535 0.05476 -0.033859 0.018589 -0.0060728 0.0018191 
-0.01232 -0.032543 0.034209 0.076299 -0.015116 0.027139 -0.0021268 0.0037921 
0.0075736 -0.018568 0.018096 0.094055 -0.0013048 0.02681 0.0026412 0.0087245 
0.046211 -0.0040998 0.0034632 0.066598 -0.018568 0.0079024 0.0087245 0.023686 
0.075476 0.027961 0.03536 0.076956 -0.016924 0.032071 0.0075736 0.038483 
0.0324 0.036017 0.02122 0.069886 -0.022843 0.01826 0.0011614 0.039963 
0.033387 0.036182 0.0095465 0.065118 -0.027118 0.016616 0.0062583 0.017274 
-0.001798 0.046704 0.016288 0.060186 -0.028269 0.023851 -0.0039354 0.020398 
0.00083261 0.044073 0.033222 0.063803 -0.027611 0.027303 0.00083261 0.022371 
0.0023123 0.067585 0.081724 0.095042 -0.0073881 0.033387 0.013986 0.0098754 
0.013821 0.085835 0.089616 0.10425 0.0018191 0.025988 0.0080668 0.028454 
0.03536 0.050157 0.054267 0.095042 -0.0022913 -0.015773 -0.017253 0.055254 
0.059693 0.068078 0.036675 0.10244 0.005765 0.045882 0.0037921 0.030263 
0.077778 0.06035 0.015794 0.10063 0.0047785 0.040292 0.012506 0.035031 
0.059857 0.041114 0.035031 0.086985 -0.0049219 0.025166 0.0098754 0.037826 
0.019576 0.061666 0.054267 0.092411 -0.0036066 0.035195 0.0032988 0.02533 
0.023851 0.066105 0.03092 0.083697 -0.010348 0.014808 -0.0078813 0.038648 
0.023357 0.048019 0.039141 0.084848 -0.013143 0.0034632 -0.01232 0.018918 
0.039141 0.045389 0.030427 0.07597 -0.02087 0.018425 -0.011498 0.022206 
0.054432 0.068407 0.025166 0.057884 -0.03501 0.0046141 -0.016102 0.030098 
0.08156 0.073668 0.050814 0.068407 -0.025967 0.037168 0.018425 0.029769 
0.043416 0.0085601 0.034209 0.056404 -0.028269 0.044402 0.0039565 0.0031344 
-0.025802 -0.068221 0.010369 0.049992 -0.035503 0.016288 -0.0026201 -0.0034422 
-0.074798 -0.070523 0.0080668 0.077614 -0.021199 0.0070803 0.0014903 -0.00097594 
-0.024487 -0.024652 0.013657 0.086985 -0.010841 0.023686 0.00297 0.035031 
0.012342 0.024179 0.020727 0.072846 -0.017582 -0.0019624 -0.015609 0.05476 
-0.027447 0.066598 0.01711 0.066598 -0.024323 0.024015 0.0013258 0.0024767 
-0.033037 0.056569 0.034373 0.076463 -0.021692 0.01711 -0.010019 0.020398 
0.050486 0.084519 0.064296 0.093233 -0.009361 0.023028 -0.00064712 0.047691 
0.084519 0.1008 0.078107 0.11461 0.0092177 0.053609 0.015959 0.046704 
0.10737 0.097837 0.061337 0.10063 0.00017495 0.027468 0.0072447 0.055911 
0.099974 0.063639 0.039141 0.076299 -0.01939 0.025988 0.0042853 0.028454 
0.069722 0.036675 0.025166 0.06183 -0.030899 0.031414 0.0021479 -0.0040998 
0.048019 0.03092 0.046375 0.079751 -0.016595 0.021878 -0.00064712 0.029769 
0.0044497 0.067913 0.027468 0.10277 1.0539e-005 0.011848 -0.0072237 0.0069159 
-0.0082102 0.036182 -0.0022913 0.087808 -0.0062372 0.037826 0.0026412 0.024508 
0.0044497 0.042265 0.017438 0.070544 -0.02235 0.028947 0.0082312 0.038483 
0.037497 0.067091 0.023028 0.069064 -0.025474 0.0028056 0.0026412 0.029605 
0.024673 0.031249 0.015137 0.064954 -0.030242 0.027961 -0.00031829 0.0075736 
0.024179 0.016452 0.004943 0.051801 -0.040271 0.010204 -0.0042642 0.026646 
0.026152 0.023357 0.014315 0.059364 -0.03764 0.026646 -0.016431 -0.0062372 
0.042429 0.056898 0.048019 0.073175 -0.024487 0.029441 -0.006566 0.031085 
0.059528 0.10556 0.068078 0.091753 -0.0091966 0.021549 0.0013258 0.046704 
0.096521 0.11231 0.086328 0.10096 0.00099702 0.041278 0.023686 0.046375 
0.061008 0.11855 0.082875 0.10392 0.004943 0.043745 0.005765 0.031249 
0.058542 0.10787 0.032236 0.10622 0.0028056 0.018096 -0.00015387 0.020398 
0.067091 0.03388 0.005765 0.095042 -0.0047575 0.040456 0.028619 0.025988 
0.052952 0.024837 0.0062583 0.068736 -0.023994 0.026152 0.012342 0.019411 
0.023686 0.089452 0.032564 0.073997 -0.020541 0.015465 0.0019835 -0.022843 
-0.064604 -0.042737 -0.022843 0.039634 -0.045696 0.025001 -0.0004827 -0.026624 
-0.10521 -0.01939 0.01415 0.050157 -0.043395 0.010697 -0.0072237 -0.00015387 
0.0083956 0.10408 0.049006 0.07449 -0.024652 0.021549 0.0013258 0.02681 
0.10622 0.12102 0.033387 0.07597 -0.019719 0.030098 0.0014903 0.046046 
0.071366 -0.035338 -0.017582 0.034373 -0.047176 0.0028056 -0.015444 0.053116 
-0.047505 -0.13645 -0.014622 0.01974 -0.058192 0.023028 -0.0027845 0.0087245 
-0.080717 -0.084991 0.038812 0.050486 -0.038791 0.036675 -0.0031133 -0.017253 
-0.050629 0.061337 0.048513 0.090767 -0.0090322 0.025166 0.0014903 0.027961 
0.06742 0.10885 0.017438 0.099481 1.0539e-005 0.011684 0.010533 0.069722 
0.1105 0.078107 0.019411 0.073997 -0.016431 0.029605 0.0070803 0.065283 
0.13779 0.083533 0.01974 0.071859 -0.023665 0.020891 -0.0044286 0.043251 
0.1299 0.052952 0.020398 0.066434 -0.02794 0.01711 0.0080668 0.040128 
0.082382 0.049664 0.03092 0.070873 -0.025474 0.027139 -0.0068948 0.036675 
0.032236 0.072681 0.026974 0.068407 -0.025638 0.0083956 -0.012156 0.00099702 
-0.008539 0.071366 0.036839 0.072024 -0.020706 0.029605 0.011684 0.0018191 
-0.0057439 0.073668 0.036017 0.069064 -0.02235 0.027796 0.0082312 0.0083956 
0.0016547 0.048841 0.03536 0.055254 -0.034188 0.00099702 -0.014787 0.015794 
0.050321 0.052952 0.046375 0.069393 -0.025967 0.032564 0.0054362 0.036017 
0.034209 0.05624 0.066763 0.1031 -0.0026201 0.026974 -0.0013048 0.055911 
0.012506 0.031085 0.050814 0.12562 0.016123 0.020562 -0.00081153 0.033058 
0.021878 0.044731 0.036017 0.095371 0.00050378 0.048184 0.014315 0.0421 
0.049335 0.004943 0.011191 0.067585 -0.02235 0.029276 0.0088889 0.049664 
0.059693 -0.02942 0.0031344 0.054432 -0.033201 0.022535 0.0054362 0.035688 
0.014972 0.057062 0.022864 0.061337 -0.028597 0.032236 0.0024767 0.033551 
0.0037921 0.055418 0.042265 0.074654 -0.020048 0.021384 0.0031344 0.024673 
-0.018075 0.045882 0.043087 0.083204 -0.015444 0.0067515 -0.0029489 0.015959 
-0.0090322 0.088794 0.046046 0.075312 -0.020706 0.019905 -0.0042642 0.026646 
0.044567 0.063803 0.051801 0.079422 -0.018897 0.02533 0.00066819 0.027303 
0.10425 0.090767 0.063639 0.093398 -0.01117 0.034866 0.02681 0.080409 
0.086328 0.066434 0.023522 0.07038 -0.022021 0.0069159 -0.011827 0.076792 
-0.0096899 -0.027611 -0.0034422 0.080409 -0.016595 0.012506 -0.011827 0.018096 
-0.050629 -0.1108 -0.039613 0.034537 -0.045368 0.022371 0.036346 0.011684 
-0.078579 -0.05326 -0.012649 0.033058 -0.050629 0.010862 0.00297 -0.0059084 
-0.047834 0.0080668 0.025988 0.046375 -0.040928 0.040128 0.013986 -0.010183 
0.005765 0.1373 0.065776 0.085999 -0.010348 0.041278 0.019083 0.015959 
0.069064 0.12579 0.069886 0.10129 0.005765 0.039141 0.015794 0.043745 
0.10458 0.071037 0.045882 0.094055 0.0034632 0.014315 0.0041209 0.048184 
0.11428 0.11132 0.047033 0.072846 -0.011992 0.014643 0.0047785 0.045882 
0.048348 0.05213 0.060515 0.077449 -0.017088 0.0070803 -0.009361 0.029605 
-0.006566 0.037004 0.053938 0.088958 -0.013636 0.0092177 -0.0088678 0.034209 
0.038319 0.05476 0.045718 0.10507 -0.0019624 0.039305 0.0023123 0.047033 
0.071695 0.049664 0.014479 0.11296 0.0069159 0.023028 -0.0022913 0.054925 
0.10096 0.07597 0.030592 0.090931 -0.0040998 0.027961 0.0044497 0.066269 
0.11526 0.059528 0.037168 0.080409 -0.010183 0.051143 0.009711 0.063639 
0.007738 0.035031 0.017274 0.066434 -0.02235 0.0051074 -0.013965 -0.0024557 
-0.038627 0.010862 -0.020048 0.029441 -0.053095 0.0024767 -0.0042642 -0.034023 
-0.021692 -0.022679 -0.022843 0.022371 -0.060658 0.011026 -0.012978 0.0054362 
-0.045861 -0.033037 0.024837 0.046868 -0.041257 0.027303 -0.0013048 0.030756 
-0.040928 -0.00015387 0.066763 0.078107 -0.015116 0.030756 0.027303 0.0592 
0.040292 0.046868 0.098823 0.10622 0.0036276 0.029605 0.0085601 0.0592 
0.032564 0.088301 0.082875 0.10458 0.00066819 0.028125 0.0067515 0.0031344 
0.049499 0.097672 0.040456 0.10507 0.00033937 0.0062583 0.0013258 0.033387 
0.10145 0.11543 0.013821 0.10622 0.0047785 0.010533 -0.01232 0.061172 
0.11543 0.10787 0.010204 0.075805 -0.014787 0.0095465 -0.010841 0.042429 
0.055582 0.02533 0.010369 0.063145 -0.02498 0.026974 0.0059294 0.039305 
0.00017495 0.025001 0.0092177 0.058871 -0.028762 0.029276 0.0083956 0.020069 
0.031578 0.072517 0.027632 0.061995 -0.028433 0.013986 0.0011614 0.012506 
0.088136 0.10096 0.028783 0.066105 -0.027611 0.02122 -0.004593 0.034373 
0.041278 0.067091 0.024508 0.066269 -0.027775 0.028947 -0.0014692 -0.0021268 
-0.0052507 0.075312 0.059528 0.08008 -0.019061 0.011026 -0.0055795 0.013492 
0.056898 0.087314 0.099481 0.10491 0.00297 0.025001 -0.0013048 0.044238 
0.17824 0.04654 0.078436 0.10852 0.0088889 0.015465 -0.0055795 0.041278 
0.15357 -0.081703 0.041443 0.10474 0.007738 0.015301 0.00099702 0.044731 
-0.1649 -0.1473 -0.041915 0.064132 -0.020212 0.017767 -0.008539 0.0013258 
-0.26108 -0.054246 -0.027611 0.032893 -0.047341 -0.00015387 -0.017253 -0.027775 
-0.05589 0.028619 0.017274 0.053774 -0.035338 0.021713 0.0085601 0.0085601 
0.01152 0.04506 0.068078 0.087314 -0.010019 0.039799 0.017603 0.042923 
-0.0047575 0.06594 0.044073 0.088301 -0.0062372 0.02533 0.0092177 0.01415 
0.056898 0.059857 0.023357 0.078929 -0.014129 0.025988 0.013492 0.041114 
0.10195 0.046046 0.012835 0.055254 -0.032379 0.025495 0.0039565 0.029441 
0.10606 0.068078 0.032893 0.061501 -0.029913 0.01711 1.0539e-005 0.035524 
0.055582 0.0689 0.066269 0.082546 -0.011992 0.080573 0.031249 0.012013 
0.067256 0.080738 0.062981 0.09126 -0.0040998 0.037332 0.022864 0.041443 
0.056898 0.030263 0.041607 0.10737 0.0080668 0.0024767 -0.0062372 0.040292 
0.04917 0.020398 0.030592 0.11115 0.01152 0.035524 0.0023123 0.034866 
0.044073 0.063968 0.016616 0.084848 -0.006566 0.021384 -0.0047575 0.032729 
0.05213 0.055418 0.030427 0.077778 -0.015444 0.02829 0.0060938 0.036839 
-0.008539 0.032564 0.024179 0.077285 -0.015609 0.034373 0.0070803 0.018589 
-0.013471 0.052623 0.026481 0.069064 -0.020212 0.026974 0.0031344 -0.003771 
0.028454 0.055747 0.039141 0.078765 -0.014293 0.029934 0.0047785 0.00083261 
0.03092 0.062488 0.035524 0.074983 -0.016102 0.029605 0.00017495 0.038155 
0.011191 0.029605 0.053938 0.079422 -0.017088 0.011684 -0.0064016 0.028125 
0.029605 0.034209 0.066763 0.089123 -0.0096899 0.020233 0.012013 0.026152 
0.047033 0.088136 0.076792 0.10047 0.0014903 0.021056 -0.014622 0.030756 
0.052294 0.08008 0.031742 0.10195 0.0018191 0.0087245 -0.013965 0.022535 
-0.0083746 0.067585 -0.0044286 0.10047 0.00050378 0.020727 0.012013 0.035524 
0.021713 0.056733 0.0052718 0.070708 -0.018075 0.024837 0.00297 0.01711 
0.016945 0.02829 0.017438 0.059364 -0.026131 0.021549 -0.0032777 -0.0004827 
0.03536 0.016616 0.023193 0.064461 -0.021528 0.03799 0.015465 0.0080668 
0.060515 0.0085601 0.015959 0.058706 -0.024816 0.044238 0.021056 0.026152 
0.065283 0.0062583 0.016452 0.060186 -0.027611 0.034866 0.015794 0.034373 
0.082053 0.080573 0.010862 0.049828 -0.036654 0.023193 0.009711 0.069064 
0.08978 0.080573 0.021878 0.051472 -0.037147 0.012999 -0.0082102 0.082711 
0.075476 0.070051 0.059528 0.071202 -0.020377 0.031414 0.0074092 0.085999 
0.026646 0.038977 0.062817 0.085012 -0.0072237 0.036017 0.0034632 0.045882 
-0.04323 0.010533 0.069558 0.11658 0.014808 0.027303 0.0016547 -0.023829 
-0.082032 0.034537 0.072681 0.14305 0.030427 0.018754 -0.0004827 0.0019835 
-0.030077 0.052952 0.030756 0.098494 0.0026412 0.029276 0.0028056 0.015794 
-0.025309 -0.0034422 0.0028056 0.061337 -0.02794 0.010697 -0.0055795 -0.011334 
-0.025145 0.031414 -0.025309 0.034866 -0.048656 0.0080668 -0.0055795 -0.018075 
0.066598 0.046375 0.027468 0.057884 -0.035338 0.043745 0.00297 0.04654 
0.10622 0.047691 0.042594 0.07301 -0.022185 0.029934 0.0067515 0.052623 
0.060515 0.052787 0.021384 0.060515 -0.02942 0.013328 0.013986 0.055254 
0.04095 0.02533 0.023357 0.053609 -0.035667 0.015959 -0.0044286 0.031249 
0.037004 0.018918 0.037332 0.066434 -0.026953 0.018096 -0.0011404 0.024837 
0.058706 0.046211 0.057062 0.07597 -0.016595 0.025001 0.015794 0.054267 
0.056733 0.063968 0.062981 0.098001 -0.00097594 0.035031 0.0042853 0.059528 
0.079751 0.09126 0.034373 0.11214 0.01004 0.020891 0.00033937 0.04095 
0.091425 0.083533 -0.0021268 0.071037 -0.015444 0.033715 0.014808 0.011848 
0.029769 0.065283 0.023193 0.066105 -0.02235 0.018754 -0.0021268 0.022371 
0.029605 0.10326 -0.01232 0.042429 -0.037476 0.048184 0.014643 0.01974 
0.027961 0.074819 0.018425 0.052952 -0.034681 0.025001 0.013986 0.035688 
0.058871 0.015137 0.014315 0.055747 -0.03501 0.011848 -0.0034422 0.026152 
0.023522 0.033058 -0.0011404 0.045553 -0.043724 0.016123 -0.0016336 0.039634 
-0.01232 0.013657 0.037661 0.062323 -0.029091 0.036182 0.0014903 0.026646 
-0.023501 0.030263 0.055747 0.071366 -0.02087 0.037004 0.0075736 0.015137 
0.0083956 0.04358 0.051308 0.074819 -0.017911 0.016452 0.00050378 0.011355 
0.033715 -0.0060728 0.046211 0.076463 -0.017417 0.025824 -0.0029489 0.0074092 
0.05213 -0.069701 -0.0073881 0.079587 -0.014951 0.012506 -0.010348 0.031085 
0.047197 -0.056548 0.011191 0.066763 -0.018897 0.043416 0.031907 0.041607 
0.043745 0.0075736 0.032893 0.073175 -0.012649 0.038483 0.018918 0.037826 
0.0082312 0.08008 0.0592 0.088794 -0.0077169 0.018754 0.007738 0.031742 
0.0051074 0.07449 0.028125 0.076463 -0.018404 0.0098754 0.0090533 0.022535 
0.010697 0.12381 0.029112 0.072024 -0.026296 0.014479 -0.0032777 0.024179 
0.049499 0.171 0.03092 0.074326 -0.023665 0.0075736 -0.0095255 0.022206 
0.079422 0.13532 0.057227 0.080738 -0.012814 0.035524 0.0059294 0.041772 
0.040292 0.045553 0.065118 0.085835 -0.0078813 0.023686 -0.0021268 0.029769 
0.033715 0.093891 0.084684 0.10162 0.0041209 0.024673 0.0023123 0.033058 
0.091589 0.12003 0.075312 0.1105 0.0092177 0.027632 0.0083956 0.044896 
0.040456 0.0592 0.0041209 0.092082 -0.003771 0.024344 -0.0042642 0.023028 
-0.063289 -0.067564 -0.025145 0.064461 -0.019555 0.015137 -0.0067304 0.01152 
-0.070359 -0.095349 -0.04471 0.023851 -0.051451 0.035853 -0.0021268 0.011026 
-0.0087034 -0.018568 -0.025309 0.020562 -0.061151 0.028125 -0.0016336 0.023357 
0.091918 0.010204 0.0079024 0.03947 -0.050464 0.018589 1.0539e-005 0.054596 
0.10096 -0.039613 0.0042853 0.041114 -0.043888 0.033715 0.0042853 0.026481 
-0.017911 -0.11212 0.0044497 0.044402 -0.035832 0.018425 -0.0024557 0.015465 
-0.022185 -0.0095255 0.062652 0.076299 -0.013636 0.023028 0.0088889 -0.00031829 
0.060679 0.13943 0.096686 0.10425 0.0069159 0.034702 0.0082312 0.028783 
0.043416 0.15407 0.068571 0.095206 0.00050378 0.027303 -0.0067304 0.02533 
0.028619 0.11132 0.063145 0.097179 -0.0004827 0.021384 0.01152 0.04917 
0.10343 0.12842 0.086657 0.13516 0.024673 0.033551 0.009711 0.051965 
0.090438 0.062981 0.079422 0.15028 0.03651 0.022042 0.00297 0.036017 
0.0021479 0.034209 0.072188 0.12776 0.024015 0.022371 0.019411 0.033715 
-0.079401 0.029769 0.016452 0.08567 -0.0054151 0.030592 0.007738 0.014808 
-0.014622 -0.010348 -0.011334 0.04917 -0.034023 0.0067515 -0.0067304 0.024837 
0.055254 -0.012156 -0.032708 0.024344 -0.053588 0.025659 0.0013258 0.027139 
0.032564 0.0079024 -0.02235 0.022371 -0.059507 0.017767 -0.0029489 0.024015 
-0.031557 0.038319 0.028125 0.047033 -0.043888 0.0016547 -0.014951 0.012342 
-0.028762 0.07449 0.040785 0.061666 -0.031721 0.038977 -0.017417 0.009711 
0.01974 0.049499 0.073504 0.077943 -0.01939 0.023193 -0.0049219 0.034209 
0.041114 0.035524 0.045224 0.085999 -0.010183 -0.023501 -0.029091 0.079751 
0.038812 0.037497 0.046868 0.11247 0.0093821 0.044402 -0.0016336 0.034537 
0.054103 0.07038 0.062981 0.12184 0.020069 0.016288 -0.0064016 0.051965 
0.073668 0.054925 0.03536 0.094548 0.0019835 0.02829 0.0054362 0.046211 
0.017438 0.032071 0.035195 0.087479 -0.0055795 0.051636 0.013986 0.036675 
0.018754 0.0069159 0.011355 0.067091 -0.019555 0.016123 -0.0027845 0.040292 
0.039799 0.037826 0.035031 0.071202 -0.017911 0.019083 0.01563 0.04358 
0.032071 0.039799 0.0060938 0.057555 -0.027447 0.031085 0.0036276 0.043416 
0.016123 0.027468 0.020069 0.050486 -0.034845 0.017438 -0.0034422 0.0051074 
0.012177 0.02122 0.041278 0.061995 -0.02794 0.044402 0.02681 0.028619 
0.024015 0.023357 0.07038 0.085012 -0.0080457 0.037168 0.016616 0.02533 
0.060186 0.075312 0.098166 0.11428 0.013492 0.018754 0.0064227 0.059035 
0.012835 0.074326 0.047033 0.12792 0.025495 0.037004 0.016616 0.031742 
-0.011005 0.07301 0.051308 0.11461 0.017274 0.043745 0.027139 0.016452 
0.025659 0.12431 0.050979 0.099481 0.0024767 0.012506 0.0032988 0.033387 
0.08156 0.095206 0.013164 0.069064 -0.019226 0.010862 -0.0067304 0.041114 
0.11855 0.025988 -0.018404 0.040785 -0.041257 0.016945 -0.0050863 0.058706 
0.02122 -0.0019624 -0.023665 0.031085 -0.050793 -0.004593 -0.01676 0.031249 
-0.091732 -0.0082102 0.0070803 0.042265 -0.043724 0.018425 -0.012485 -0.02794 
-0.061151 0.046704 0.038155 0.061501 -0.026789 0.018754 -0.0075525 -0.001798 
0.027961 0.10228 0.059693 0.078765 -0.010512 0.03388 0.0065871 0.025495 
0.076134 0.087808 0.065283 0.091425 -0.0016336 0.062981 0.020562 0.048677 
0.039963 0.04654 0.041772 0.089616 -0.0070593 0.009711 -0.0022913 0.028454 
0.04654 0.092576 0.0051074 0.098166 -0.0011404 0.024344 0.0085601 0.045224 
0.054925 0.038155 0.010533 0.071202 -0.015116 0.025001 -0.0011404 0.045553 
0.039634 0.014315 -0.0078813 0.050321 -0.033694 0.0031344 -0.0138 0.027961 
0.025166 0.010533 0.01826 0.059035 -0.027282 0.01563 0.010862 0.012013 
0.06479 0.047033 0.04654 0.08156 -0.006566 0.041772 0.01415 0.029605 
0.10178 0.13434 0.039799 0.079422 -0.0072237 0.02533 0.01152 0.03799 
0.10376 0.097837 0.037168 0.07449 -0.012485 0.022371 0.019247 0.029769 
0.041772 0.085012 0.070873 0.093562 -0.0029489 0.042923 0.024837 0.047855 
-0.0091966 0.11559 0.11296 0.1225 0.015959 0.026974 0.013492 0.031742 
-0.041093 0.028454 0.10721 0.11296 0.012177 0.026152 0.010697 0.014972 
-0.037805 -0.00031829 0.031414 0.093726 -0.0016336 0.012177 -0.0031133 0.0031344 
0.016288 0.029441 -0.040928 0.062981 -0.026624 0.0052718 -0.0082102 0.038977 
0.094055 0.0026412 -0.041257 0.026646 -0.052437 0.033058 0.0014903 0.046704 
0.087314 0.05213 0.0083956 0.046211 -0.040764 0.034866 0.010204 0.042429 
0.093891 0.087479 0.051801 0.077614 -0.013143 0.034702 0.016616 0.063803 
0.050321 0.094548 0.059857 0.096686 0.00297 0.064954 0.0016547 0.00017495 
0.00297 0.06331 0.017767 0.069558 -0.016102 0.019905 -0.0013048 0.023357 
0.05476 0.050157 0.01974 0.070544 -0.020706 0.016123 0.0013258 0.037497 
0.058542 0.023686 0.034373 0.068736 -0.022514 0.028783 0.0051074 0.021549 
0.077614 0.030263 0.025988 0.063639 -0.025145 -0.0082102 -0.020048 0.052459 
0.036017 -0.015609 0.046375 0.066598 -0.023665 0.026646 0.011848 0.033222 
0.025495 -0.0004827 1.0539e-005 0.066598 -0.023007 0.063803 0.004943 0.0023123 
1.0539e-005 -0.018239 -0.0055795 0.078436 -0.016595 0.005765 -0.0095255 0.027468 
0.011848 0.025659 0.0088889 0.062488 -0.025474 -0.0054151 0.0024767 0.017274 
-0.026953 0.057062 0.01974 0.063639 -0.025474 0.019905 -0.0073881 0.007738 
0.00099702 0.018425 0.024179 0.067256 -0.022185 0.022042 0.00083261 0.037168 
0.068242 0.035853 0.01004 0.05772 -0.026953 0.024673 0.0064227 0.02681 
0.088136 0.064954 0.015959 0.058213 -0.027447 0.029276 0.0034632 0.045553 
0.012013 0.068736 0.028783 0.064625 -0.026953 0.012342 -0.0067304 0.028619 
-0.0054151 0.078929 0.058049 0.078272 -0.014951 0.030427 0.0080668 0.0090533 
0.023851 0.060679 0.035195 0.07038 -0.018897 0.017438 0.0069159 0.034866 
0.051143 0.012999 0.019411 0.056569 -0.028104 0.011355 -0.0011404 0.0079024 
0.019083 0.028619 0.0041209 0.03947 -0.0406 0.049006 -0.00081153 0.0037921 
0.044238 0.056898 0.0082312 0.072188 -0.021856 0.022042 -0.00097594 0.050979 
0.040621 0.04654 0.012506 0.063145 -0.02498 0.018589 0.0067515 0.058213 
0.058377 0.071859 0.025988 0.06742 -0.023829 0.038319 0.0082312 0.046704 
0.057227 0.025166 0.022535 0.067585 -0.023336 0.025824 0.0070803 0.05065 
0.029441 -0.0022913 0.053774 0.08419 -0.010841 0.021384 0.015794 0.024179 
0.019083 0.004943 0.053774 0.087808 -0.0068948 0.035195 0.013492 0.010204 
0.012999 -0.0042642 0.034537 0.082711 -0.011334 0.011191 -0.0027845 0.025495 
0.050979 0.018425 0.05624 0.085012 -0.010183 0.0092177 0.0062583 0.032729 
0.034209 0.030263 0.057555 0.08304 -0.010019 0.025824 0.0024767 0.038812 
0.026646 0.031578 0.048513 0.074819 -0.012485 0.025166 0.0031344 0.037497 
0.018754 0.075476 0.027796 0.079587 -0.011334 0.019411 0.0069159 0.026974 
0.049335 0.13483 0.025988 0.09833 0.00033937 0.03092 0.0098754 0.044238 
0.10935 0.08978 0.0079024 0.072024 -0.01676 0.022371 0.0047785 0.064625 
0.073504 0.027139 -0.03501 0.031742 -0.04471 0.03388 0.013328 0.016945 
-0.027775 0.00033937 -0.01117 0.032236 -0.050793 0.0090533 -0.0072237 0.013492 
-0.071345 0.042923 0.0028056 0.041443 -0.044381 0.0036276 -0.012156 0.0074092 
-0.013471 0.078272 0.012177 0.047855 -0.038462 0.027632 -0.0004827 0.01826 
0.13417 0.059857 0.056898 0.082546 -0.014129 0.031907 0.0047785 0.071531 
0.13697 0.079916 0.081889 0.096193 -0.0011404 0.036182 0.012835 0.057555 
0.15242 0.078107 0.090603 0.11198 0.012835 0.045224 0.016288 0.047033 
0.022535 0.004943 0.074161 0.088465 -0.0062372 -0.0049219 -0.016266 0.029441 
-0.16802 -0.031557 0.00050378 0.068736 -0.025474 -0.018897 -0.030406 -0.021199 
-0.15141 0.005765 -0.026624 0.062817 -0.031228 0.0046141 -0.028104 -0.016102 
0.011355 0.03799 0.029605 0.070708 -0.020706 0.022371 -0.0067304 0.034537 
0.053445 0.06594 0.052952 0.085835 -0.0067304 0.035195 0.02122 -0.0087034 
0.074161 0.077285 0.017932 0.071859 -0.014293 0.0324 0.012999 0.013328 
0.040456 0.067913 0.0019835 0.054596 -0.026296 0.019411 0.0023123 0.041443 
0.040456 0.050814 0.0042853 0.047691 -0.03353 0.022206 0.011026 0.05065 
0.048677 0.013164 0.013328 0.047855 -0.038791 0.027961 0.0039565 0.041607 
0.055418 0.067091 0.046046 0.065118 -0.031886 -0.00081153 -0.012978 0.034702 
0.073175 0.057062 0.089287 0.10195 -0.0031133 0.048019 0.00297 0.032071 
0.045882 0.065447 0.10573 0.12595 0.01711 0.038319 0.0098754 0.027961 
0.039141 0.070051 0.070215 0.11839 0.015137 -0.0078813 -0.016102 0.030427 
-0.0080457 0.00083261 0.01267 0.10589 0.0069159 0.023193 -0.0091966 -0.0026201 
-0.0095255 -0.0032777 0.0032988 0.077121 -0.012978 0.014972 -0.0064016 0.025824 
0.033387 0.045553 0.039634 0.081724 -0.011992 0.009711 -0.010183 0.03536 
0.091425 0.058542 0.079422 0.10885 0.0072447 0.058706 0.018425 0.056733 
0.08304 0.058871 0.081231 0.11806 0.01267 0.040128 0.011684 0.066927 
0.023686 0.055582 0.059528 0.10984 0.0072447 0.023357 0.0062583 0.023357 
0.013164 0.021878 0.014643 0.076956 -0.014458 0.029441 0.0013258 0.013821 
0.0065871 0.036182 -0.02235 0.03388 -0.043888 0.020562 -0.0032777 0.0065871 
-0.014787 0.034866 -0.0082102 0.023851 -0.052931 0.045553 0.023193 0.0041209 
-0.0049219 0.044567 0.035853 0.049828 -0.03353 0.032071 0.011848 0.029769 
0.047855 0.095206 0.0026412 0.066927 -0.022185 0.014479 -0.0064016 0.034866 
0.049828 0.046704 -0.0026201 0.078436 -0.016102 0.011191 0.0021479 0.02681 
0.019411 0.039305 -0.00097594 0.062159 -0.027447 0.018425 -0.0027845 0.06183 
0.038319 0.046046 0.052459 0.084355 -0.012156 0.01826 -0.0026201 0.032564 
0.0039565 0.027468 0.034373 0.085999 -0.0090322 0.016945 0.0092177 0.0082312 
0.0051074 0.049992 0.038155 0.082546 -0.011334 0.018589 -0.0013048 0.015959 
0.030427 0.0592 0.059364 0.097837 -0.00064712 0.024837 0.0014903 0.028783 
0.021713 0.043251 0.054596 0.097672 0.0018191 0.023522 0.00033937 0.013821 
0.012013 0.063803 0.053938 0.086328 -0.0060728 0.027303 0.0064227 0.045882 
0.024508 0.034537 0.058213 0.084519 -0.0082102 0.017767 -0.00031829 0.019905 
0.057391 0.018754 0.058871 0.081067 -0.010512 0.044402 0.015465 0.042594 
0.086492 0.014643 0.024837 0.084684 -0.0095255 0.027796 0.0087245 0.036182 
0.0059294 -0.00031829 0.029441 0.1054 0.0016547 0.016945 -0.0027845 0.0026412 
-0.063289 0.034537 0.031578 0.087643 -0.0073881 0.032236 0.0013258 0.0092177 
-0.02087 0.063639 0.039963 0.088958 -0.0078813 0.0074092 -0.0049219 0.034537 
0.028454 0.021056 0.011191 0.068078 -0.022185 0.010533 -0.0040998 0.027632 
0.033222 0.0026412 -0.045696 0.0227 -0.054575 0.028125 -0.0036066 0.032564 
0.046211 0.020233 -0.036489 0.013492 -0.066577 -0.001798 -0.019884 0.029112 
0.079751 0.076134 0.020069 0.047033 -0.04882 0.0031344 -0.0059084 0.033058 
0.060186 0.08978 0.054103 0.070544 -0.029748 0.032729 -0.0052507 0.047362 
0.018096 0.061337 0.063474 0.080244 -0.017253 0.018425 -0.0029489 0.029934 
0.0021479 0.062159 0.070544 0.078929 -0.013965 0.056733 0.015794 0.016288 
0.037332 0.069229 0.076299 0.11658 0.014972 0.040128 0.0070803 0.011191 
0.026481 0.073668 0.055911 0.13779 0.027632 0.010697 0.0018191 0.037168 
0.048513 0.062817 0.01152 0.085835 -0.0098543 0.016452 0.0062583 0.02829 
0.029112 0.019576 -0.015116 0.04506 -0.042079 0.018918 -0.013143 0.038319 
0.016452 0.0047785 0.017438 0.058871 -0.034188 0.027796 1.0539e-005 0.027632 
0.004943 0.051801 0.052459 0.082875 -0.012978 0.037826 0.011026 0.03092 
0.013657 0.061995 0.033715 0.079916 -0.011005 0.038319 0.014972 0.036017 
0.042265 0.081067 0.027468 0.071695 -0.018568 0.042923 0.012999 0.02681 
0.030427 0.051965 0.024015 0.057062 -0.030735 0.020562 0.00297 0.027303 
0.0083956 -0.014293 0.018096 0.048513 -0.039284 0.013492 -0.0080457 0.020562 
0.020891 0.00297 0.0074092 0.045553 -0.042079 0.01711 -0.0067304 0.014315 
0.044402 0.053281 0.016945 0.073832 -0.022021 0.024179 -0.0064016 0.042429 
0.07301 0.091918 0.017438 0.089616 -0.0075525 0.026974 -0.0052507 0.036839 
0.073668 0.12973 0.029441 0.081724 -0.0088678 0.032071 0.012835 0.040128 
0.062159 0.07038 0.019905 0.071037 -0.015444 0.03947 0.0074092 0.047197 
0.058049 0.01415 -0.0040998 0.052623 -0.03057 0.010862 -0.0095255 0.033715 
0.038648 -0.0029489 0.010862 0.051143 -0.037147 0.019247 0.015465 0.0324 
-0.013143 -0.01939 0.0041209 0.041936 -0.042408 0.03651 0.0056006 0.034537 
0.0087245 -0.0026201 0.0060938 0.038977 -0.04471 0.018754 -0.001798 0.009711 
0.010204 0.045224 0.032564 0.05476 -0.034845 0.026646 0.012999 0.00297 
-0.03057 0.036182 0.045553 0.068571 -0.023665 0.030263 0.0075736 -0.0073881 
-0.0044286 0.053609 0.055254 0.08304 -0.0138 0.017603 0.00033937 0.012999 
0.044567 0.068242 0.049664 0.1003 -0.0016336 0.045224 0.020233 0.024837 
0.075805 0.071037 0.019247 0.096357 -0.0004827 0.021878 0.0074092 0.038483 
0.072353 0.055089 0.010533 0.064461 -0.02235 0.0026412 -0.010348 0.037332 
0.050157 0.034373 0.010862 0.0592 -0.028269 0.018425 -0.0082102 0.054103 
0.06183 0.017767 0.015137 0.057884 -0.031392 0.022042 0.0024767 0.045224 
0.0070803 0.06331 0.025495 0.063474 -0.028269 0.025659 0.0039565 0.037332 
-0.008539 0.066105 0.045224 0.082217 -0.01117 0.04917 0.016452 0.045553 
0.042265 0.072681 0.060186 0.088136 -0.0057439 0.033058 0.0098754 0.030427 
0.059528 0.055582 0.048677 0.089123 -0.0060728 0.032071 0.016781 0.034373 
0.040621 -0.0022913 0.05624 0.080738 -0.011992 0.03799 0.012506 0.041607 
0.048513 0.016288 0.07038 0.098823 1.0539e-005 0.026481 0.0079024 0.040292 
0.04095 0.029934 0.03536 0.10803 0.0083956 0.022535 0.014479 0.019247 
0.055911 -0.0016336 0.027632 0.094877 0.00099702 0.017438 0.0072447 0.044567 
0.024179 0.021384 0.026317 0.08156 -0.010019 0.0052718 -0.0072237 0.017932 
-0.01939 -0.0021268 0.025495 0.071859 -0.015938 0.013328 0.0080668 0.024179 
0.005765 0.02829 0.040292 0.076956 -0.012978 0.026974 0.0044497 0.015301 
0.035524 0.098166 0.043087 0.081724 -0.0091966 0.0090533 -0.0050863 0.027468 
0.035524 0.052787 0.033551 0.081067 -0.011992 0.023028 -0.0019624 0.0421 
0.079258 0.065447 0.027961 0.080738 -0.014951 0.029934 0.0031344 0.044238 
0.031085 0.059364 0.035524 0.070708 -0.023501 0.024015 0.0019835 0.020727 
-0.012649 0.068736 0.071037 0.08419 -0.013471 0.027632 0.011191 0.018425 
0.010533 0.12003 0.08419 0.10491 0.0023123 0.022371 0.0031344 0.011191 
0.019083 0.12085 0.0421 0.11 0.0069159 0.013328 -0.0040998 0.025659 
0.010862 0.14338 0.012342 0.082875 -0.010183 0.010204 -0.014622 0.047033 
0.077285 0.11559 0.024508 0.069393 -0.024652 0.012506 -0.014787 0.029441 
0.088136 0.064461 0.034537 0.076792 -0.019226 0.02681 0.0019835 0.063145 
0.060515 0.013657 0.04917 0.086821 -0.0039354 0.055418 0.019411 0.058706 
0.0032988 -0.015116 0.024673 0.073668 -0.0095255 0.057555 0.027632 0.022042 
-0.006566 -0.078908 0.012506 0.060022 -0.022843 0.028125 0.013492 0.0069159 
-0.0138 -0.058521 0.028947 0.064625 -0.025145 0.036346 0.0060938 0.038812 
0.0054362 0.0023123 0.042923 0.06594 -0.028762 0.0065871 -0.0096899 0.01004 
0.038483 0.057884 0.092576 0.098494 -0.0040998 0.018754 0.0064227 0.0018191 
0.024179 0.11921 0.089945 0.11724 0.012342 0.021384 -0.0057439 -0.016924 
0.068736 0.13236 0.055418 0.13828 0.025001 0.016288 -0.006566 0.014972 
0.10326 0.086657 0.033715 0.1174 0.012999 0.0082312 0.009711 0.056569 
0.080244 0.053774 0.023193 0.089123 -0.011827 0.019083 -0.00031829 0.043909 
0.047526 0.024508 -0.023501 0.045224 -0.044381 0.0088889 -0.008539 0.01267 
0.023522 0.024673 -0.040928 0.021384 -0.062302 0.012506 0.0026412 0.035688 
-0.011498 0.035688 -0.013636 0.023357 -0.060165 0.029276 0.00066819 0.028125 
-0.0029489 0.035195 0.0095465 0.037004 -0.047341 0.034866 0.011355 0.04654 
0.029441 0.053445 0.036182 0.053281 -0.032872 0.035524 0.012342 0.039799 
0.042429 0.02829 0.037332 0.062817 -0.028762 0.02681 0.0060938 0.0227 
-0.0029489 -0.0095255 0.05476 0.072188 -0.025309 0.010533 -0.003771 0.014972 
-0.021692 0.028125 0.045718 0.085341 -0.01528 0.020233 -0.0031133 0.01152 
-0.018568 0.0037921 0.018425 0.090438 -0.011498 0.0023123 -0.010348 -0.0052507 
0.021384 0.0095465 0.01974 0.098166 -0.0067304 0.013328 -0.0080457 0.035524 
0.052294 0.047855 -0.0138 0.055254 -0.035503 0.030427 1.0539e-005 0.048348 
0.070544 0.083533 0.032071 0.068736 -0.032708 0.014479 -0.0087034 0.03388 
0.08419 0.10359 0.020562 0.068736 -0.032872 0.0227 -0.0062372 0.045389 
0.078929 0.075805 0.031742 0.072517 -0.024652 0.039963 0.011684 0.05476 
0.085999 0.065447 0.058377 0.094055 -0.0095255 0.028619 0.0024767 0.051801 
0.076627 0.13779 0.091918 0.11461 0.0034632 0.02122 0.017274 0.067749 
0.03388 0.13236 0.080244 0.10195 -0.0075525 0.0095465 -0.0055795 0.052623 
0.0023123 0.040456 0.034044 0.074819 -0.024487 0.0085601 -0.0096899 0.011355 
-0.020377 -0.017417 0.031742 0.06594 -0.026131 0.018918 -0.00031829 -0.019226 
-0.024323 -0.035174 -0.01117 0.066598 -0.02235 0.030263 -0.0029489 -0.047998 
-0.029748 -0.010348 -0.013143 0.061501 -0.027118 0.019905 -0.0013048 -0.045039 
-0.011992 -0.019061 -0.027118 0.033551 -0.051944 0.019083 0.0093821 0.034537 
0.065776 0.026974 -0.0088678 0.038812 -0.051451 0.032729 0.0074092 0.06594 
0.073668 0.027796 -0.018897 0.028783 -0.059343 0.0093821 -0.003771 0.068571 
0.090109 0.035524 -0.0014692 0.030756 -0.054575 0.036346 1.0539e-005 0.057227 
0.063474 0.050814 0.026974 0.056733 -0.03616 0.02829 0.0026412 0.040456 
0.026481 0.080244 0.0786 0.093562 -0.0075525 0.025166 0.0065871 0.044073 
0.0087245 0.06594 0.10803 0.11839 0.01152 0.039141 0.01152 0.030098 
0.0069159 0.039634 0.089452 0.11313 0.010204 0.027139 0.00050378 0.029769 
0.01563 0.017603 0.020398 0.085341 -0.0088678 0.011355 -0.010348 0.039141 
0.045389 0.0227 -0.0016336 0.078765 -0.016431 0.025824 -0.0050863 0.0324 
0.05065 0.082217 0.005765 0.082053 -0.015116 0.020233 -0.0022913 0.02829 
0.045389 0.041936 0.011026 0.062488 -0.027282 0.015794 0.0082312 0.035031 
0.024015 0.015959 0.030427 0.071202 -0.023665 0.037826 -0.0019624 0.034373 
0.0018191 0.027632 0.02533 0.069886 -0.02498 0.012835 -0.0060728 0.01267 
-0.00015387 0.019083 0.016123 0.06183 -0.02794 0.022535 0.019905 0.023193 
0.031085 0.022535 0.033058 0.072517 -0.021528 0.033058 0.0080668 0.031742 
-0.0026201 0.059364 0.037826 0.067749 -0.023665 0.021878 0.0042853 0.025001 
0.032236 0.044402 0.049006 0.073504 -0.020541 0.020233 0.014315 0.029769 
0.05065 0.073997 0.053609 0.080738 -0.015773 0.037826 0.01004 -0.0016336 
0.04917 0.068407 0.048348 0.083862 -0.010183 0.011355 -0.0011404 0.031249 
0.063474 0.071531 0.035195 0.092576 -0.0027845 0.023686 -0.0013048 0.021549 
0.061172 0.10343 0.016616 0.088465 -0.0073881 0.023357 -0.0016336 0.02533 
0.03947 0.076463 0.014479 0.067749 -0.023172 0.011684 -0.001798 0.038812 
0.0083956 0.032564 0.025166 0.067913 -0.026789 0.039799 0.007738 0.020727 
0.0087245 0.036675 0.015959 0.061008 -0.032215 0.023851 0.0037921 0.019083 
0.01563 0.017932 0.02533 0.064296 -0.030242 0.0095465 -0.0064016 0.038319 
0.047033 0.033222 0.026317 0.069558 -0.025145 0.034866 0.00099702 0.033551 
0.084355 0.078765 0.033222 0.065447 -0.028269 0.019576 -0.0049219 0.035524 
0.096686 0.062817 0.034209 0.061666 -0.031064 0.024837 0.0051074 0.029769 
0.017767 0.028454 0.038648 0.066598 -0.027775 0.031907 0.0065871 -0.028597 
-0.0019624 0.012506 0.0421 0.077449 -0.021692 0.025001 0.0065871 0.025988 
-0.0040998 0.007738 0.040621 0.093891 -0.0068948 0.005765 0.010369 0.037168 
0.0037921 0.03799 0.030098 0.083533 -0.006566 0.037661 0.0085601 0.017274 
0.04506 0.026646 0.017767 0.069229 -0.016595 0.030427 0.01004 0.020727 
0.055418 0.027139 0.019905 0.065118 -0.023007 0.016781 0.017932 0.025495 
0.11066 0.099152 0.043909 0.074161 -0.01939 0.022371 0.0046141 0.052459 
0.11395 0.12529 0.070873 0.094055 -0.0078813 0.011026 -0.0031133 0.08567 
0.10869 0.097344 0.035195 0.079916 -0.013636 0.024015 0.0037921 0.073832 
0.038812 0.013986 -0.017911 0.038155 -0.041915 0.0067515 -0.011498 0.027139 
-0.093705 -0.047012 -0.022514 0.033058 -0.049478 0.021878 -0.00031829 -0.042244 
-0.088115 0.059364 0.1151 0.1008 -0.0072237 0.031742 0.0024767 -0.026953 
-0.02087 0.11329 0.11378 0.13121 0.024179 0.042429 0.017767 0.032236 
0.038977 0.007738 -0.00031829 0.10014 0.0095465 0.020398 0.0034632 0.026152 
0.065776 -0.030899 -0.0067304 0.062323 -0.018075 0.033715 0.0093821 0.0011614 
0.038155 -0.0027845 0.0034632 0.053116 -0.031721 0.026152 0.0026412 0.030756 
0.028454 0.051801 0.049335 0.077614 -0.018239 0.029769 0.009711 0.044073 
0.047855 0.098001 0.01974 0.066927 -0.022021 0.03651 0.0072447 0.031414 
0.090109 0.077449 0.025495 0.062488 -0.025802 0.027468 0.0069159 0.047855 
0.078107 0.056898 0.022864 0.063968 -0.024158 0.030427 0.019905 0.049499 
0.085177 0.073339 0.033387 0.063968 -0.02235 0.033222 0.010533 0.0324 
0.026646 0.022371 0.023193 0.05476 -0.029091 0.0085601 -0.0049219 0.034209 
-0.0073881 0.028454 0.030592 0.059364 -0.028433 0.018754 0.010862 0.020562 
0.019905 0.032564 0.068078 0.096686 -0.0034422 0.021549 0.0090533 0.062159 
0.040456 0.071366 0.081231 0.14338 0.03388 0.027468 0.0090533 0.041114 
0.028619 0.11099 0.072846 0.12612 0.028454 0.017438 0.005765 0.036017 
0.0056006 0.061501 0.040621 0.098659 0.0093821 0.024179 0.0013258 0.01711 
0.0069159 0.018918 0.032893 0.07597 -0.011663 0.016123 -0.0032777 0.022206 
0.051308 0.069229 0.025001 0.0689 -0.018404 0.028619 0.0067515 0.023028 
0.040785 0.045389 0.025659 0.067913 -0.019884 0.024179 0.0042853 0.0324 
-0.017746 0.047855 0.047197 0.078272 -0.013307 0.0065871 -0.009361 0.023522 
-0.038133 0.029605 0.072024 0.088301 -0.0068948 0.025166 0.0083956 0.0098754 
0.020562 0.034209 0.083204 0.1003 0.0011614 0.0036276 -0.01232 0.045389 
0.10359 0.060679 0.071859 0.095042 1.0539e-005 -0.0022913 -0.017746 0.061995 
0.062159 -0.00015387 0.007738 0.078107 -0.013143 0.024673 -0.011663 0.024344 
-0.065755 -0.05885 -0.043395 0.055582 -0.030077 0.010862 -0.013471 -0.0068948 
-0.11607 -0.022514 -0.045532 0.023193 -0.050793 0.01267 -0.0075525 -0.0036066 
0.046704 0.067585 0.018589 0.045389 -0.034681 0.043251 0.017767 0.038977 
0.10885 0.087643 0.050157 0.079751 -0.0064016 0.042265 0.016945 0.052459 
0.048019 0.053116 0.046704 0.082875 -0.0027845 0.010369 0.02122 0.023522 
-0.003771 0.030098 0.00017495 0.054432 -0.026296 0.013164 -0.0044286 0.014643 
0.019083 -0.011663 -0.06 0.010862 -0.060658 0.017438 -0.0032777 0.034209 
0.043087 -0.017911 -0.029584 0.00297 -0.071181 0.020069 0.016452 0.018096 
0.023028 0.0227 0.055089 0.051308 -0.040106 0.026317 0.0037921 0.01563 
0.019411 0.086821 0.1077 0.10606 0.0014903 0.024015 0.0044497 0.007738 
0.0039565 0.093069 0.11247 0.14354 0.032893 0.02829 0.011191 0.028125 
0.039799 0.10655 0.073339 0.15472 0.043416 0.026152 0.011191 0.041936 
0.12053 0.15209 0.060022 0.12266 0.024508 0.017932 0.0052718 0.057227 
0.14354 0.12283 0.022371 0.089945 0.0016547 0.028783 0.00017495 0.061008 
0.051801 0.06594 0.021384 0.073339 -0.013307 0.021384 -0.00097594 0.027796 
-0.089431 -0.012978 0.029112 0.078765 -0.010348 0.0011614 -0.013471 -0.021034 
-0.067235 -0.0054151 0.01267 0.065776 -0.019226 0.027468 -0.0096899 -0.0022913 
-0.028433 -0.018239 0.0074092 0.057555 -0.026953 0.055582 0.021878 0.031414 
0.028125 -0.038298 -0.0054151 0.033222 -0.043724 0.01563 0.0024767 0.012999 
0.041443 0.046211 0.032564 0.049499 -0.035174 0.026152 0.013328 0.028619 
0.087972 0.078107 0.060844 0.069886 -0.020541 0.022371 0.0041209 0.074326 
0.034537 -0.032543 -0.017911 0.057227 -0.028762 0.0087245 0.0047785 0.0079024 
-0.038627 -0.11459 -0.049642 0.042429 -0.039449 0.012999 -0.0090322 0.00066819 
0.0054362 -0.0087034 -0.0087034 0.040292 -0.040435 0.015137 -0.0070593 0.033058 
0.062488 0.084355 0.031414 0.062323 -0.025967 0.021056 0.014808 0.041278 
0.075148 0.055418 0.037826 0.066105 -0.019884 0.032729 0.013164 0.033222 
0.031249 0.064296 0.052952 0.08419 -0.0044286 0.030098 0.010697 0.039141 
0.030756 0.076134 0.0069159 0.058542 -0.020377 0.023357 0.013986 0.019905 
0.041607 0.075476 0.010697 0.053445 -0.029913 0.018754 0.0011614 0.0059294 
0.028454 0.10326 0.045389 0.06594 -0.023994 0.0065871 -0.0072237 -0.0024557 
0.0039565 0.086492 0.057227 0.074326 -0.015116 0.021549 -0.0082102 0.012506 
-0.0054151 0.043087 0.053774 0.0786 -0.01117 0.027961 0.0026412 0.036839 
-0.022514 -0.0067304 0.032564 0.078765 -0.010676 0.0098754 -0.0047575 0.011684 
0.013492 0.0019835 0.0092177 0.094384 0.00033937 0.03947 0.0036276 0.039141 
0.076463 0.026317 0.010697 0.072681 -0.011827 0.02122 0.00066819 0.027961 
0.08156 0.044073 0.015465 0.066105 -0.020212 0.021878 -0.00015387 0.031414 
0.069229 0.053938 0.035524 0.073832 -0.015444 0.038812 0.0062583 0.026646 
0.061666 0.057555 0.047033 0.084684 -0.0072237 0.028947 0.0039565 0.045224 
0.037661 0.028619 0.043251 0.082546 -0.0075525 0.031085 0.012999 0.034537 
0.041443 0.061501 0.028454 0.072517 -0.015609 0.03388 0.0079024 0.038648 
0.047362 0.045224 0.022535 0.054267 -0.028597 0.012342 -0.0032777 0.037332 
0.039634 0.027632 0.048677 0.066105 -0.02087 0.0067515 0.0052718 0.026317 
0.03651 0.059035 0.071695 0.082711 -0.0090322 0.017603 -0.010019 0.025001 
0.013328 0.028454 0.040456 0.095864 0.00050378 0.012835 -0.0095255 0.023357 
0.029934 0.071366 0.029441 0.11263 0.011191 0.02681 0.010533 0.01974 
0.032729 0.043909 0.027139 0.087643 -0.0036066 0.033715 0.010369 0.032236 
0.022042 0.04506 0.014643 0.071695 -0.016266 0.038319 0.016945 0.044896 
0.022864 0.060844 0.031742 0.073175 -0.014129 0.032236 0.019411 0.025495 
0.0011614 0.060679 0.053609 0.088301 -0.0021268 0.026152 0.0065871 0.026646 
0.01415 0.055254 0.040456 0.084355 -0.0042642 0.011026 -0.0059084 0.012506 
0.040128 0.066105 0.021549 0.076134 -0.01232 0.028454 0.0026412 0.026152 
0.073668 0.041607 0.021878 0.060515 -0.02498 0.014972 -0.003771 0.054596 
0.070873 0.042758 0.048841 0.067091 -0.023336 0.010533 -0.0078813 0.034209 
0.01711 0.053116 0.052952 0.078765 -0.015609 0.025988 -0.0014692 0.081231 
0.0037921 0.03092 0.029441 0.093726 -0.0042642 0.021384 -0.0021268 0.043745 
0.02829 0.038155 0.011026 0.1128 0.0092177 0.0079024 -0.01232 0.049828 
0.068242 0.063968 0.050814 0.10047 0.0069159 0.043251 0.0026412 0.043745 
0.076299 0.10935 0.082875 0.11494 0.014315 0.052952 0.021713 0.080573 
0.071366 0.12529 0.066434 0.11362 0.013657 0.025001 0.019411 0.04506 
0.027796 0.11855 0.092082 0.12628 0.01974 0.031907 0.0051074 0.031578 
0.041278 0.064625 0.018918 0.083697 -0.0070593 0.013821 -0.0062372 0.012013 
-0.0055795 0.021384 -0.014129 0.044402 -0.037476 -0.0024557 -0.012978 0.0090533 
0.028125 0.034537 0.036839 0.058213 -0.032215 0.0227 -0.0052507 0.022206 
0.075312 0.084519 0.06479 0.079587 -0.018239 0.017932 -0.0040998 0.046704 
-0.0029489 0.049499 0.051143 0.078436 -0.018897 0.005765 0.0039565 0.01563 
-0.044381 0.047691 0.0092177 0.08567 -0.015116 0.0080668 -0.010183 0.0072447 
-0.0087034 0.023357 0.0067515 0.081889 -0.011663 0.0083956 -0.01117 0.009711 
0.051472 0.072517 0.052787 0.091589 0.0014903 0.049828 0.016781 0.036182 
0.083204 0.13631 0.09685 0.12612 0.028619 0.046211 0.022864 0.06742 
0.053609 0.12365 0.084355 0.13121 0.034537 0.020233 0.016945 0.057391 
0.075805 0.0023123 0.0059294 0.076299 -0.0077169 0.022371 0.0052718 0.032564 
0.075641 -0.035832 -0.051451 0.014479 -0.058356 0.016288 -0.008539 0.056733 
-0.0138 -0.041586 -0.031228 0.0046141 -0.072003 0.012999 -0.0059084 0.024508 
-0.057205 -0.01528 0.054596 0.046211 -0.044052 0.042758 0.011684 0.03651 
-0.0031133 0.057884 0.076956 0.083533 -0.016431 0.018754 0.00083261 0.042923 
0.067585 0.076792 0.069393 0.10096 -0.0011404 0.013164 -0.0014692 0.029112 
0.088465 0.090767 0.034866 0.11346 0.0088889 0.032729 0.014808 0.033551 
0.037826 0.085835 0.0013258 0.079751 -0.010512 0.0082312 -0.0068948 0.013986 
-0.0138 0.049828 -0.0004827 0.052787 -0.031886 0.00050378 0.0090533 -0.0067304 
0.01563 0.056569 0.0088889 0.052294 -0.033694 0.020069 -0.0016336 0.015959 
0.030263 0.067256 0.024179 0.062323 -0.028269 0.0052718 -0.0047575 -0.0082102 
0.066269 0.069722 0.032893 0.067749 -0.022514 0.017438 0.013986 0.036017 
0.072024 0.046868 0.025659 0.068736 -0.02235 0.031249 -0.0052507 0.046868 
0.044073 0.00033937 0.035524 0.066598 -0.023994 0.023028 -0.0026201 0.018425 
0.007738 -0.0075525 0.04095 0.076299 -0.016431 0.038319 0.02681 0.02829 
-0.010019 0.0065871 0.041114 0.076463 -0.015116 0.025659 0.01004 0.021878 
-0.023994 -0.030899 0.047033 0.08304 -0.011663 0.020727 0.0021479 0.02829 
0.015794 0.0087245 0.016452 0.091753 -0.0027845 0.032236 0.010862 0.034537 
0.038483 0.04506 0.0082312 0.071037 -0.015773 0.017767 -0.0004827 0.058542 
0.058706 0.043087 0.01711 0.065612 -0.021528 0.013328 -0.004593 0.045389 
0.051965 0.047197 0.012506 0.06035 -0.023829 0.044402 0.0031344 0.050979 
0.033058 0.022371 -0.0057439 0.042923 -0.036818 0.02122 -0.001798 0.031085 
-0.0024557 -0.0016336 0.016288 0.052952 -0.033365 0.023522 -0.00015387 0.0083956 
-0.01939 0.019247 0.028454 0.066269 -0.022021 0.027796 -0.0039354 0.016781 
0.0044497 0.075641 0.022864 0.059693 -0.022514 0.020233 -0.0022913 0.007738 
0.023851 0.037332 0.05772 0.071366 -0.015609 0.014643 0.0056006 0.0070803 
0.014315 0.062488 0.045224 0.0689 -0.018075 0.035195 0.0060938 0.019083 
-0.0013048 0.018425 0.031249 0.078107 -0.014129 0.041607 0.016452 0.01711 
0.054103 0.016945 0.014315 0.096521 0.00033937 0.035688 0.025824 0.038977 
0.088301 0.014643 0.0016547 0.068571 -0.017417 0.027961 -0.001798 0.037661 
0.049992 -0.011827 0.016452 0.063803 -0.027282 -0.0004827 -0.01117 0.033222 
-0.023172 -0.0022913 -0.0021268 0.048677 -0.037969 0.0087245 -0.0024557 0.026317 
-0.055397 0.00297 0.012342 0.053116 -0.03353 0.011191 -0.008539 0.032729 
-0.019884 0.057227 0.047691 0.066763 -0.022185 -0.0034422 -0.018075 0.03799 
0.10096 0.16245 0.048841 0.084026 -0.0067304 0.051308 0.013821 0.040292 
0.15686 0.14798 0.041772 0.07597 -0.011334 0.038812 0.023028 0.059693 
0.10524 0.090767 0.045882 0.073668 -0.015938 0.023522 0.0095465 0.047526 
-0.014787 0.060186 0.06183 0.083533 -0.012485 0.0324 0.0088889 0.021549 
-0.036654 -0.0049219 0.039141 0.084026 -0.010512 0.015465 -0.0040998 -0.0077169 
0.019411 -0.0075525 -0.028269 0.071859 -0.01528 0.04095 0.014479 0.009711 
0.019083 -0.032543 -0.0057439 0.053938 -0.027775 0.03388 0.010697 0.038812 
0.00017495 -0.004593 0.012506 0.049664 -0.032872 0.042923 0.015301 0.012835 
-0.013143 0.025659 0.014479 0.055911 -0.03057 0.019576 0.0065871 0.012506 
0.021549 0.046704 0.034537 0.069064 -0.022514 0.034044 0.0074092 0.031085 
0.075476 0.047691 0.045389 0.078107 -0.014622 0.026152 0.004943 0.039141 
0.1151 0.074983 0.06035 0.089616 -0.0031133 0.018918 0.02122 0.053445 
0.032729 0.037497 0.060515 0.090109 -0.0036066 0.038155 0.015959 0.050814 
-0.04323 0.055582 0.06594 0.089616 -0.0087034 0.014479 -0.001798 -0.00081153 
-0.003771 0.0689 0.05476 0.086657 -0.011663 0.01563 0.0075736 0.023686 
0.049335 0.054103 0.036346 0.085835 -0.011005 0.023028 0.00050378 0.029276 
0.070708 0.066598 0.0227 0.09685 -0.0029489 0.01711 0.0037921 0.025824 
0.065283 0.051965 0.024673 0.087972 -0.004593 0.026481 0.014479 0.038319 
0.071531 0.041772 0.024508 0.081231 -0.010841 0.021549 0.0014903 0.028783 
0.048019 0.062981 0.028454 0.076463 -0.015116 0.009711 -0.0078813 0.014808 
-0.039778 0.04654 0.048513 0.081067 -0.012978 0.041607 0.0032988 0.041114 
-0.021363 0.071202 0.050814 0.083368 -0.010348 0.020727 0.00017495 0.016288 
0.014643 0.096521 0.037004 0.083862 -0.010512 0.031742 0.0059294 0.037826 
0.0070803 0.0095465 0.024179 0.065612 -0.021692 0.039634 0.0069159 0.025166 
0.029605 0.012835 0.024837 0.061666 -0.026296 0.036182 0.01152 0.020233 
0.052623 0.039963 0.0421 0.064132 -0.02646 0.021549 0.0042853 0.029276 
0.0689 0.054925 0.056733 0.082711 -0.011992 0.027468 -0.00064712 0.036017 
0.03536 0.086821 0.028125 0.10277 0.0046141 0.0227 0.0021479 0.020727 
0.062817 0.071202 0.042923 0.1008 0.0047785 0.010204 0.0080668 0.037332 
0.079916 0.083368 0.037497 0.089945 -0.0034422 0.043745 0.007738 0.061337 
0.039141 0.062323 -0.0090322 0.055582 -0.027118 0.019083 -0.00015387 0.041607 
0.018918 0.0047785 -0.014951 0.037004 -0.041422 0.0087245 0.0056006 0.026646 
0.041607 0.00033937 0.033715 0.063803 -0.024816 0.019576 0.0082312 0.059528 
0.06479 0.083368 0.059693 0.088136 -0.0083746 0.0079024 -0.0068948 0.024344 
0.067256 0.075148 0.047526 0.093398 -0.0036066 -0.010183 -0.008539 0.0324 
0.016288 0.079916 0.0689 0.091096 -0.0078813 0.009711 -0.013307 0.028454 
0.027139 0.10211 0.083533 0.098166 -0.0016336 0.009711 -0.0080457 0.019905 
0.047691 0.080902 0.05476 0.09685 -0.00015387 0.015794 -0.0050863 0.067913 
0.082217 0.064132 -0.0077169 0.0786 -0.010841 0.01974 -0.0059084 0.040785 
0.033387 -0.029255 -0.041586 0.044238 -0.036818 0.01711 -0.0054151 0.037661 
-0.012485 -0.024323 0.00099702 0.044567 -0.042408 0.03799 0.0082312 0.020891 
-0.11524 0.045389 0.026152 0.052623 -0.03501 0.035853 0.0067515 -0.01528 
-0.087622 -0.00081153 0.0093821 0.053774 -0.032215 0.027796 0.0065871 0.0044497 
0.021713 0.0070803 0.0227 0.058049 -0.027611 0.052294 0.018096 0.061337 
0.079422 0.054103 0.043251 0.075641 -0.014622 0.023851 0.0042853 0.03536 
0.075641 0.057884 0.062488 0.088794 -0.0068948 0.030098 0.005765 0.054267 
0.083862 0.080738 0.067091 0.09274 -0.00064712 0.032236 0.00050378 0.028783 
0.082382 0.053445 0.077614 0.096521 0.00099702 0.029441 0.00066819 0.038155 
0.020891 0.031578 0.041278 0.089123 -0.0068948 0.0080668 0.0090533 0.019905 
0.0059294 0.06594 0.031249 0.10704 0.0044497 0.027303 0.0037921 0.027303 
0.032236 0.067913 0.017274 0.082711 -0.0057439 0.018754 -0.003771 0.035524 
0.062323 0.086328 0.019576 0.070051 -0.015938 0.021056 0.017603 0.058871 
0.072188 0.071037 0.013657 0.062488 -0.023336 0.029769 0.00297 0.026481 
0.041936 0.025001 0.012342 0.05624 -0.028926 0.021384 0.0024767 0.03388 
-0.034845 0.0090533 0.019411 0.058213 -0.028762 0.015959 -0.00097594 0.018918 
-0.0016336 0.020562 0.0041209 0.060186 -0.027611 0.0054362 -0.02087 0.018096 
0.026481 0.032071 0.019083 0.049335 -0.035338 0.0065871 -0.017253 0.011026 
0.026317 0.094548 0.055911 0.0689 -0.022185 0.046704 0.009711 0.020069 
0.068078 0.055089 0.073504 0.088794 -0.0070593 0.031907 0.0062583 0.034209 
0.052787 0.034537 0.052952 0.09685 1.0539e-005 0.014972 0.00083261 0.038155 
0.00297 0.011848 0.0028056 0.090274 -0.0040998 0.033387 -0.0054151 0.026317 
0.0016547 0.0056006 0.025001 0.078765 -0.013636 -0.00064712 -0.021034 0.019411 
0.029605 0.031578 0.013821 0.068078 -0.023829 0.0075736 -0.016595 0.017274 
0.086492 0.087808 0.032893 0.073175 -0.020048 0.034373 -0.00097594 0.031742 
0.088958 0.064461 0.021878 0.067256 -0.020541 0.021713 -0.0022913 0.028125 
0.031249 0.044238 0.0064227 0.056076 -0.026131 0.024015 0.01415 0.031907 
0.0032988 0.015465 0.017603 0.056076 -0.025474 0.035688 0.01415 0.022206 
-0.019226 0.040456 0.043909 0.071037 -0.020212 0.0090533 -0.0042642 0.019576 
0.016945 0.082711 0.06742 0.072353 -0.019226 0.0023123 0.014479 0.031907 
0.057062 0.080409 0.079258 0.094877 -0.0050863 0.027961 0.0021479 0.030756 
0.037004 0.086985 0.058871 0.11921 0.011355 0.032564 0.012342 0.033387 
-0.020048 0.034044 -0.0040998 0.095864 -0.0021268 0.015794 0.013164 0.025001 
-0.0080457 -0.021692 0.0046141 0.061501 -0.025802 0.069886 -0.00015387 0.022371 
0.028619 -0.004593 0.0090533 0.056733 -0.031392 0.015794 -0.0039354 0.021056 
0.075805 0.070051 0.021713 0.061172 -0.025309 0.035031 0.020562 0.067091 
0.059035 0.033058 0.024508 0.06183 -0.025309 0.019083 0.0042853 0.033058 
0.017767 0.031249 0.00033937 0.050979 -0.034352 0.020727 0.00033937 0.030263 
0.013986 0.028783 0.032729 0.062652 -0.025145 0.030098 0.0059294 0.018918 
0.025166 0.025659 0.087314 0.098659 0.0021479 0.035524 0.007738 0.012999 
0.049664 0.096357 0.089945 0.11165 0.012506 0.032564 0.010533 0.046211 
0.051143 0.065118 0.061995 0.093891 -0.001798 0.033222 0.0059294 0.019576 
0.020891 0.022864 0.012013 0.081889 -0.012156 0.0082312 -0.0082102 0.047855 
0.016452 0.034044 0.00033937 0.089616 -0.0072237 0.013164 -0.0067304 0.040292 
0.037004 0.051801 0.039305 0.084684 -0.0072237 0.03388 0.0072447 -0.017911 
0.075312 0.083697 0.044073 0.088794 -0.0054151 0.034702 0.011026 0.036182 
0.083204 0.072846 0.017274 0.085012 -0.0077169 0.056733 0.032729 0.056404 
0.084684 0.077943 0.049828 0.088794 -0.0055795 0.049828 0.022864 0.040621 
-0.017746 0.031742 0.0031344 0.060186 -0.023007 0.046046 0.024837 0.046046 
-0.10078 -0.083512 -0.020212 0.029769 -0.048656 0.020398 0.020069 0.0016547 
-0.055726 -0.054246 -0.0024557 0.025495 -0.054904 0.0093821 -0.00015387 0.0041209 
0.044567 0.029276 0.054267 0.060022 -0.030735 0.021878 0.00017495 0.0324 
0.061501 0.044567 0.06479 0.090931 -0.006566 0.032564 0.016945 0.053938 
0.072188 0.077943 0.062323 0.11625 0.012177 0.021713 0.0021479 0.037497 
0.065776 0.10951 0.027468 0.11132 0.013492 0.0074092 -0.0070593 0.02122 
0.057555 0.078765 0.024837 0.085341 -0.0032777 0.019576 -0.0019624 0.023357 
