-0.0059084 -0.038791 0.065118 0.020233 0.03536 0.011684 0.022206 0.012835 
0.0074092 -0.038298 0.12381 0.0087245 0.029769 0.038648 0.037497 0.010862 
0.033058 0.027139 0.088465 0.051143 0.011355 0.020727 0.041936 0.033715 
0.051472 0.048184 0.093891 0.012013 -0.0072237 0.029769 0.033222 0.034209 
0.072188 0.048841 0.051308 0.015465 0.0067515 0.0080668 0.010862 0.042265 
0.072353 0.051801 0.021056 0.045224 0.029605 0.024673 0.021878 0.024837 
0.015301 0.06183 0.0037921 0.014479 0.040785 -0.021692 0.037168 0.029934 
-0.018733 0.054432 0.010862 0.0093821 0.015465 0.018096 0.029769 0.012999 
-0.0062372 0.041772 -0.0096899 0.035853 -0.003771 0.03092 0.01711 0.03388 
0.013657 0.011684 -0.016266 0.0074092 0.024508 0.042923 0.00066819 0.02122 
0.049828 0.02829 -0.0062372 0.018754 0.024508 0.015959 0.038648 0.04654 
0.072024 0.065283 -0.027611 0.045224 0.042923 0.024179 0.035853 0.049664 
0.10441 0.15061 -0.027447 -0.02646 0.033058 0.024508 0.049335 0.064132 
0.10408 0.24712 0.019411 -0.059507 0.014972 0.034209 0.016123 0.049006 
0.098166 0.25058 0.10622 -0.013471 0.016288 0.037661 0.02122 0.028125 
0.064296 0.24367 0.19155 -0.0029489 0.033058 0.021056 0.042429 0.049006 
0.08008 0.24992 0.21145 0.048184 0.046375 0.01826 0.049006 0.037497 
0.077121 0.17001 0.14058 0.098001 0.047855 0.03092 0.040456 0.037332 
0.019083 0.0011614 0.051472 0.081231 0.040621 0.015137 0.021878 0.03536 
-0.042408 -0.12708 -0.035503 0.058542 -0.0029489 0.0011614 0.040785 0.021384 
-0.059836 -0.18315 -0.086471 0.05772 -0.010512 0.00297 0.0079024 -0.0095255 
-0.069865 -0.12544 -0.012649 0.05476 0.02122 0.027303 0.010533 -0.016431 
-0.048492 0.0021479 0.096357 0.11494 0.077943 0.034537 0.01415 0.004943 
0.0013258 0.12694 0.16245 0.13351 0.078272 0.032729 0.038319 0.017932 
0.029112 0.15703 0.17215 0.079916 0.050157 0.01711 0.048513 0.041772 
0.051965 0.16262 0.15933 0.028947 0.014315 0.017767 0.016288 0.024837 
0.052787 0.15719 0.1391 0.06331 0.037497 0.0042853 0.0023123 0.053938 
0.051965 0.14568 0.095535 0.084355 0.054596 0.0095465 0.014479 0.027139 
0.026317 0.095699 0.054925 0.098494 0.057555 0.034537 0.03947 0.027468 
-0.015609 -0.022185 -0.019555 0.074326 0.040621 0.036017 0.045718 -0.00031829 
-0.045368 -0.19137 -0.094363 0.010697 0.019247 0.015465 0.027796 0.011355 
-0.087786 -0.4125 -0.15816 -0.10061 -0.032379 0.00297 0.028619 -0.018733 
-0.097651 -0.39097 -0.1644 -0.14418 -0.041422 -0.01117 0.026646 0.0052718 
-0.062631 -0.11935 -0.10324 -0.13695 -0.048656 -0.0032777 0.022535 -0.004593 
0.009711 0.16706 -0.040271 -0.08269 -0.061645 -0.016924 -0.0029489 -0.011992 
0.069229 0.3512 -0.0073881 -0.023172 -0.010841 -0.0047575 -0.018568 0.020891 
0.083204 0.35564 0.017274 0.065447 -0.0039354 0.022206 -0.084827 0.049499 
0.1031 0.21654 0.0039565 0.078107 0.053445 0.028783 0.029276 0.066927 
0.096521 0.12891 0.058049 0.073175 0.10754 0.027796 0.035195 0.059857 
0.077614 0.06331 0.072846 0.12414 0.076792 0.036675 0.051143 0.066105 
0.045224 0.031578 0.098823 0.092247 0.054596 0.041936 0.032564 0.047691 
0.018589 0.033222 0.11263 0.055747 0.065612 0.042758 0.056404 0.049828 
-0.0059084 0.011191 0.10441 0.055254 0.037497 0.030263 0.050486 0.0070803 
-0.043559 0.016616 0.064461 -0.01117 0.075641 0.0013258 0.037826 0.0023123 
-0.042408 -0.017088 0.040456 -0.004593 0.031414 0.02681 0.018096 0.011848 
-0.044546 -0.034352 0.045882 0.020891 -0.0004827 0.037497 0.029934 0.021549 
-0.010841 -0.016102 0.041607 0.013986 0.010369 0.014972 0.0421 0.033222 
-0.0029489 -0.023829 0.057884 0.031085 0.014479 0.020069 0.018589 0.00050378 
0.03651 0.0083956 0.041607 0.053774 0.028125 0.021549 0.0046141 0.029441 
0.06742 0.035195 -0.0031133 0.0080668 0.021713 0.016288 0.013328 0.016616 
0.061995 0.069393 -0.022843 0.0056006 -0.0004827 -0.0073881 -0.0029489 0.021384 
0.06742 0.040785 -0.037969 0.009711 -0.004593 -0.0057439 0.030592 0.024015 
0.051965 0.084026 -0.049971 -0.008539 -0.0049219 0.023028 0.012342 -0.0029489 
0.039963 0.13845 -0.018897 -0.015116 0.0019835 0.029276 0.0067515 0.035853 
-0.01528 0.047033 -0.049314 0.0013258 0.029276 0.017274 0.041278 0.045718 
-0.0077169 0.040292 -0.006566 -0.019884 0.036839 0.032564 0.061501 0.054267 
0.0046141 0.11296 0.007738 -0.016431 0.023522 0.051472 0.071202 0.055582 
-0.010841 0.12233 0.004943 -0.034681 0.0054362 0.015959 0.044073 0.044238 
-0.027611 0.081231 0.033715 -0.013965 0.013328 0.00297 0.0087245 0.025495 
-0.0014692 0.033715 0.076627 0.00297 0.036346 0.00050378 0.031414 0.026646 
0.036017 0.0041209 0.064954 0.065118 0.077449 0.041936 0.059035 0.027796 
0.08567 -0.050629 0.086163 0.0786 0.090274 0.044731 0.034702 0.053938 
0.11773 -0.062796 0.13138 0.059693 0.077943 0.039799 0.029112 0.030263 
0.041772 0.0080668 0.11198 0.03947 0.045389 0.031085 0.01711 0.0075736 
0.011355 -0.0016336 0.071037 0.042265 0.036346 0.049664 0.040621 -0.00097594 
0.13154 -0.003771 0.0083956 -0.015773 0.038155 0.0079024 0.023851 0.023522 
0.21523 0.11263 -0.074962 -0.042244 0.0080668 0.016452 0.020727 0.056569 
0.18678 0.19188 -0.053917 -0.013636 -0.014129 0.004943 0.022864 0.048677 
0.11 0.2634 0.020891 0.037826 0.024508 0.018589 0.015959 0.041772 
0.013986 0.31914 0.039305 0.058049 0.026317 0.026152 0.026317 0.01415 
-0.011498 0.26899 0.049664 0.095371 0.05065 0.022371 0.018425 0.014643 
0.0074092 0.19369 0.06594 0.058377 0.044402 0.035031 -0.0082102 0.026481 
-0.0031133 0.07301 0.052952 0.026481 0.0013258 0.039963 0.025001 0.041772 
0.0041209 -0.013636 0.070215 0.052623 -0.013636 0.026317 0.034866 0.046046 
0.00050378 -0.10505 0.073832 0.039141 0.031578 0.019083 0.036346 0.053774 
0.03388 -0.13119 0.079751 0.041936 0.04358 0.027796 0.034702 0.039963 
0.055089 -0.11015 0.083204 0.044896 0.04358 0.060844 -0.008539 0.021384 
0.0689 -0.093212 0.031742 0.0093821 0.047526 0.031414 0.040456 0.051308 
0.090603 -0.068879 -0.019061 -0.02942 0.0046141 0.045718 0.04506 0.048841 
0.058706 -0.024487 -0.0029489 0.024344 0.019247 0.026974 0.026152 0.041772 
0.048513 -0.0087034 0.0026412 0.0016547 0.036839 0.034537 0.027632 0.02533 
0.036182 -0.023172 0.052787 0.028947 0.03536 0.0074092 0.016781 0.029769 
0.063639 -0.029091 0.088465 0.055911 0.055254 0.0074092 0.0324 0.0065871 
0.051965 0.0041209 0.052787 0.05624 0.026974 0.00017495 0.024344 0.034044 
0.05065 0.04358 -0.011992 0.058706 0.028619 0.031414 0.030592 0.0034632 
0.062323 0.17643 -0.0040998 0.084355 0.039963 0.013986 0.027139 0.034702 
0.083368 0.26537 0.018096 0.079258 0.053938 0.015959 0.032729 0.039634 
0.086328 0.26472 0.034866 0.074326 0.053938 0.032564 0.038319 0.01826 
0.075805 0.2486 0.066763 0.097344 0.03536 0.048677 0.03388 0.029605 
0.040128 0.17692 0.064132 0.085341 0.017603 0.0324 0.0031344 0.023193 
0.042594 0.027632 0.016781 0.054925 0.022371 0.0080668 0.016288 0.038155 
0.024508 -0.037969 -0.0021268 0.014643 0.0095465 0.017438 0.033387 0.023686 
-0.0014692 -0.023994 -0.018897 0.014479 0.014643 0.022864 0.023686 0.019905 
0.00033937 0.079422 0.038155 0.010204 0.031249 -0.00097594 0.016616 -0.001798 
-0.028104 0.066269 0.039634 0.00083261 -0.0026201 0.0026412 1.0539e-005 0.0082312 
0.012506 -0.0091966 -0.0083746 0.037497 -0.0077169 -0.015116 0.011848 0.027139 
0.017438 -0.16802 -0.035996 0.024673 0.0056006 0.021713 0.047033 0.035853 
-0.0059084 -0.32306 -0.073154 0.016123 0.021713 0.026481 0.015465 0.016288 
-0.060987 -0.34789 -0.06855 0.0051074 0.013492 0.011026 0.012835 0.0031344 
-0.040271 -0.17262 0.012835 -0.019226 0.0023123 0.026974 0.0046141 0.010697 
0.016781 0.011848 0.086821 0.016123 -0.015609 0.018754 0.024837 0.018754 
0.051308 0.14963 0.089452 0.026646 0.0088889 0.00297 0.027303 0.037168 
0.05213 0.18218 0.095206 0.0021479 0.029769 0.0023123 -0.0068948 0.038812 
0.061666 0.21769 0.072846 0.021384 0.03536 0.025659 0.012342 0.050979 
0.080902 0.18498 0.080573 0.058049 0.049992 0.041278 0.03651 0.05065 
0.066763 0.14667 0.088301 0.020891 0.021549 0.030263 0.052623 0.061337 
0.051965 0.11247 0.076956 0.024508 0.018918 0.0059294 0.026974 0.056898 
0.028783 0.032564 0.020562 0.060186 0.034044 0.036346 0.023193 0.037497 
0.0088889 0.028783 0.013657 0.015794 0.039305 0.060844 0.0080668 0.03651 
0.01415 0.038483 -0.0042642 0.024179 0.049992 0.027632 0.036839 0.032893 
0.0036276 0.02681 0.0074092 0.04917 0.034702 0.027303 0.025495 0.035688 
-0.018733 0.034209 0.038648 0.025659 0.0098754 0.020398 0.03092 -0.012814 
-0.016595 0.071859 0.036182 0.021713 0.023522 0.017603 -0.0027845 0.017932 
0.014643 0.096357 0.026152 0.039141 0.021056 0.011848 0.017767 0.011355 
0.02533 0.04506 0.02533 0.0098754 0.013657 0.0034632 0.0227 0.015465 
-0.014951 -0.0083746 0.024837 -0.0087034 0.011191 0.019083 0.01152 0.0067515 
-0.022514 -0.0014692 0.036839 0.015959 0.00297 0.033058 0.037004 0.019083 
0.0079024 -0.037147 0.071202 0.023686 0.0083956 0.024837 0.02122 0.0592 
0.024837 -0.071181 0.004943 -0.0044286 0.023851 0.028783 0.050814 0.037497 
0.053281 -0.072825 0.026317 -0.0039354 -0.018404 0.013328 0.036017 0.034209 
0.037661 -0.024158 0.041443 0.0039565 0.0227 0.015959 0.0092177 0.015465 
0.045224 0.048184 0.093726 0.019247 0.036839 0.0227 0.0014903 0.038977 
0.036839 0.13187 0.11937 0.036346 0.04506 0.033387 0.034866 0.034209 
0.0095465 0.16607 0.098494 0.042923 0.037497 0.052787 0.038648 0.040621 
0.0082312 0.1391 0.030263 0.028125 0.024837 0.032893 0.015301 0.033058 
0.0013258 0.12957 0.028454 0.029276 0.051636 0.021878 0.031249 0.04917 
0.033387 0.13351 0.022535 0.055911 0.032236 0.0095465 0.043251 0.042923 
0.059857 0.084026 0.026481 0.040128 0.025495 0.036017 0.047033 0.049006 
0.14239 0.078929 0.047691 0.038977 0.027303 0.029605 0.0013258 0.037661 
0.13088 0.029769 0.029276 0.043909 0.025001 0.024673 0.01563 0.042594 
0.087479 -0.061809 0.013821 0.015794 0.018096 0.031742 0.014643 0.015301 
-0.018075 -0.12823 0.030263 -0.0073881 0.017438 0.013986 0.016616 0.010533 
-0.093376 -0.12133 0.086985 0.038319 0.0046141 -0.00031829 0.019905 -0.012814 
-0.084663 -0.017088 0.12168 0.075805 0.019247 -0.011827 -0.00015387 -0.018568 
-0.02794 -0.028762 0.09126 0.080902 0.044073 0.01415 0.010369 0.013164 
0.027139 -0.017911 -0.014458 0.05476 0.058049 0.048513 0.030756 0.037826 
0.046375 0.11115 -0.028269 0.026646 0.057227 0.044731 0.054103 0.051143 
0.03651 0.21737 -0.00031829 0.03092 0.023357 0.0044497 0.029276 0.018918 
0.062652 0.20191 0.0024767 0.040292 0.043745 0.020069 0.023193 0.028619 
0.089123 0.15686 0.031414 0.03799 0.048841 0.051143 0.019905 0.027468 
0.068078 0.031249 0.055418 0.024837 0.043745 0.038812 0.03388 0.028783 
0.071859 -0.024158 0.04095 0.064954 0.048348 0.016452 0.055582 0.04506 
0.072681 0.058542 0.034866 0.030263 0.038977 0.016123 0.033551 0.055911 
0.11477 0.17955 0.0052718 0.03799 0.029769 0.031578 0.040128 0.074983 
0.11148 0.25288 -0.021856 0.048184 0.030427 0.028619 0.030098 0.048019 
0.12332 0.30714 0.01152 0.041607 0.038483 0.030592 0.05065 0.060679 
0.086657 0.2269 0.03651 0.024508 0.034209 0.010862 0.0085601 0.016781 
0.0019835 0.087314 0.016616 0.031085 0.037661 0.02122 0.011191 0.011026 
-0.063782 0.11609 0.064625 0.06035 0.040128 0.0013258 0.019905 -0.011498 
-0.034845 0.24088 0.1179 0.076956 0.022206 0.0056006 0.0227 0.0013258 
-0.0016336 0.21704 0.10573 0.088465 0.00099702 0.0070803 0.022864 0.0093821 
0.022535 0.10014 0.017603 0.0324 0.0014903 0.023028 0.0060938 0.016616 
0.054925 -0.049642 -0.05589 -0.012814 -0.0052507 0.013657 0.019083 0.021549 
0.053938 -0.18019 -0.1279 -0.051287 -0.013307 0.0034632 0.01826 0.016781 
0.031085 -0.29774 -0.12166 -0.028104 -0.0138 0.012999 0.034044 0.038648 
0.020398 -0.40461 -0.069865 -0.022021 0.013328 0.037497 0.034866 0.030427 
-0.0022913 -0.38916 -0.014458 -0.0047575 0.048677 0.030263 0.047855 0.065776 
0.023028 -0.38981 0.049006 0.068242 0.054925 0.031907 0.038812 0.013492 
0.018096 -0.19054 0.0421 0.065612 0.078929 0.022371 0.034702 0.036182 
0.024837 0.015137 0.010862 0.037497 0.028783 0.055582 0.0051074 -0.015773 
0.070215 0.17265 0.014479 0.042429 0.0227 0.023357 0.022371 0.034209 
0.095042 0.27951 0.020727 0.014479 0.0095465 0.014315 0.0031344 0.019576 
0.12661 0.39049 0.044567 0.013821 0.014479 0.016452 0.023851 0.03947 
0.076463 0.46481 0.059693 0.020891 0.037168 0.025001 0.0064227 -0.0077169 
-0.02646 0.33903 0.041607 -0.0049219 0.026152 0.016452 0.015465 -0.012485 
-0.049478 0.19533 0.048513 -0.009361 0.0070803 0.020727 0.015137 0.0032988 
0.045224 0.15472 0.074983 0.064461 0.013657 0.014315 0.02533 0.023522 
0.11905 0.11691 0.10819 0.075476 0.010204 0.032729 0.058542 0.062981 
0.086492 -0.0036066 0.062323 0.045224 0.022371 0.03651 0.039305 0.041114 
0.025166 -0.11475 0.017767 0.038483 0.031742 0.0090533 0.024015 0.034373 
0.013821 -0.12922 -0.045368 -0.0059084 -0.0024557 0.019247 0.019576 -0.0034422 
0.015465 -0.071838 -0.0406 0.0059294 0.026646 0.024673 0.013164 0.02829 
-0.0047575 -0.065426 0.0060938 0.042429 0.015465 0.03799 0.036182 0.027961 
-0.017417 -0.077264 -0.0090322 0.00099702 0.017438 0.016288 0.027303 0.016616 
-0.045861 -0.08121 0.0031344 -0.01528 0.032729 0.0044497 0.016616 -0.0067304 
-0.035174 -0.10045 0.024179 0.0083956 0.0042853 0.0069159 -0.0036066 -0.0049219 
-0.035832 -0.13777 1.0539e-005 0.01152 0.020233 0.0072447 0.029769 0.017603 
-0.010183 -0.11097 0.0080668 0.0034632 0.030756 0.012342 0.033551 0.020727 
0.03388 0.037004 0.048184 0.05065 0.038483 0.024179 0.044073 0.048348 
0.061995 0.095864 0.049499 0.036346 0.05065 0.043416 0.040128 0.039305 
0.064625 -0.032708 0.034537 -0.011498 0.03388 0.037168 0.027632 0.049664 
0.029605 -0.11886 -0.0013048 -0.039449 -0.0098543 0.023193 0.022371 0.0026412 
0.01711 0.0051074 -0.021199 -0.047998 0.0039565 0.031085 0.019576 0.022042 
0.050979 0.13203 0.066763 -0.025802 0.022371 0.022864 0.020069 0.022864 
0.062981 0.1687 0.065612 0.023028 0.023686 0.012506 0.033058 0.042758 
0.071695 0.17117 0.08008 0.05213 0.037168 0.042429 0.037826 0.04095 
0.086163 0.18333 0.13138 0.066105 0.044896 0.034373 0.037004 0.039634 
0.043416 0.070708 0.12677 0.069886 0.004943 0.022206 0.025659 0.022371 
0.064625 0.027139 0.077121 0.059693 0.015137 0.012999 0.0056006 -0.0021268 
0.12217 0.11757 0.093726 0.057227 0.041772 0.0082312 -0.021199 0.040292 
0.12529 0.19122 0.08567 0.06479 0.070051 0.039799 0.045389 0.035031 
0.061501 0.1858 0.095699 0.093398 0.071695 0.044238 0.049335 0.046868 
-0.052109 0.14042 0.11 0.08419 0.061337 0.036182 0.042923 0.0227 
-0.15289 0.080902 0.1128 0.086492 0.040621 0.026317 0.021384 -0.006566 
-0.18989 -0.0098543 0.078929 0.095206 0.023193 0.038319 0.037497 0.00017495 
-0.073976 -0.049642 0.029112 0.036346 0.015794 0.018589 0.025824 0.0052718 
0.023686 -0.027447 0.054103 0.025495 0.035524 0.017932 0.0014903 0.026974 
0.063474 -0.042408 0.012999 0.026152 0.0085601 0.0085601 0.0059294 0.018589 
0.063474 -0.010512 0.019247 0.01826 -0.024158 0.039141 0.0013258 0.047197 
0.060515 0.058542 0.004943 0.029441 0.015794 0.035031 0.044402 0.040128 
0.097179 0.1174 0.023193 0.031742 0.038812 0.036182 0.06331 0.063968 
0.12677 0.16015 0.042758 0.0036276 0.038812 0.016452 0.026317 0.0689 
0.1733 0.21408 0.049499 0.0065871 0.042265 0.048019 0.02533 0.069229 
0.15916 0.19714 0.047855 0.042758 0.026317 0.031249 0.039799 0.052787 
0.06183 0.094713 0.051636 0.027303 0.024179 0.021713 0.030263 0.012342 
-0.035174 0.05476 0.023686 0.019576 0.025988 0.012177 0.030756 0.011684 
-0.04882 0.16607 0.073997 0.055418 0.056733 0.038319 0.018096 0.025988 
-0.0059084 0.18218 0.10408 0.053116 0.066763 0.034209 0.034702 0.039141 
0.059035 0.16377 0.10096 0.051472 0.048513 0.03947 0.077614 0.074654 
0.10836 0.15209 0.094055 0.086985 0.06183 0.043745 0.054596 0.079422 
0.067913 0.050157 0.082382 0.050979 0.039141 0.033058 0.024837 0.024015 
-0.011005 -0.032543 0.028125 0.045553 0.031085 0.010369 -0.0044286 0.023851 
-0.045696 -0.071181 0.025659 0.054267 0.044567 0.015465 0.020398 0.0083956 
-0.013965 -0.083512 0.00033937 0.050979 0.04654 0.013164 0.028125 0.03092 
0.057227 -0.078744 0.024508 0.038483 0.011355 0.029276 0.016616 0.037826 
0.044238 -0.026789 0.060844 0.041936 0.025824 0.0093821 0.016123 0.036839 
0.024179 0.074819 -0.0044286 0.019411 0.013986 0.0056006 0.01152 0.027961 
0.041278 0.10573 -0.024652 0.0092177 0.025495 0.0059294 0.022535 0.011355 
0.058871 0.031742 -0.013965 0.027139 0.020069 0.047526 0.014479 0.064296 
0.05476 -0.0082102 -0.01939 0.048348 0.01711 0.037497 0.029605 0.052294 
-0.0044286 -0.051451 -0.021199 0.021384 0.01415 0.033222 0.0064227 0.038155 
-0.053424 -0.0027845 -0.020212 0.0070803 0.022042 0.01415 0.029112 0.0095465 
-0.095678 0.10096 -0.06296 -0.010019 -0.0019624 0.015137 -0.0078813 0.014808 
-0.087458 0.084848 -0.06855 -0.041422 0.0016547 0.01267 -0.0070593 -0.021199 
-0.025802 -0.12083 -0.036983 -0.028433 0.0083956 -0.0004827 0.0014903 0.0072447 
0.027139 -0.15503 -0.00031829 -0.0050863 -0.0082102 0.012835 0.013492 0.02681 
0.086821 0.021549 0.063145 -0.017253 0.016452 0.027468 0.039305 0.049664 
0.088465 0.11461 0.10606 -0.0011404 0.0036276 0.0069159 0.017603 0.052294 
0.083862 0.15176 0.11214 0.037168 0.037004 0.017932 0.023686 0.024837 
0.091918 0.24334 0.12233 0.036839 0.056569 0.029769 0.028619 0.034537 
0.079751 0.20355 0.080244 0.046704 0.036182 0.037168 0.024673 0.020891 
0.0088889 0.072681 0.048677 0.064461 0.027796 0.0092177 0.031085 0.022371 
0.0032988 0.018754 0.057391 0.039305 0.049664 0.014972 0.015137 0.028783 
-0.019719 -0.027611 0.045882 0.010204 0.040456 0.017274 0.014808 0.046868 
0.012342 0.018754 -0.01232 0.017438 0.04095 0.033387 0.032729 0.022042 
0.052787 0.14552 -0.015773 -0.023501 -0.0138 0.010697 0.051143 0.04095 
0.049335 0.13417 -0.070359 -0.043888 -0.015938 0.0036276 0.028454 0.029605 
0.02533 0.020233 -0.054739 0.00017495 -0.025309 0.027303 0.037826 0.037332 
-0.0019624 -0.080388 -0.018075 0.015465 0.015137 0.015137 0.012342 0.025659 
-0.027118 -0.059343 -0.034023 0.038648 0.02829 0.017932 0.026646 0.016781 
-0.087458 -0.15388 -0.022843 0.046046 0.034866 -0.0138 0.015137 -0.034023 
-0.097487 -0.13925 -0.0098543 0.016781 0.016452 0.005765 0.010862 -0.019226 
-0.043724 -0.058192 0.012177 0.058377 0.020727 0.025001 0.021384 -0.0034422 
0.02681 0.064296 0.018754 0.08419 0.027796 0.024508 0.027303 0.0041209 
0.059364 0.097508 0.051308 0.047691 0.035195 0.020562 0.046375 0.029276 
0.04095 0.041772 -0.034023 -0.0047575 0.0227 0.025495 0.024179 0.0021479 
0.019576 0.00033937 -0.087786 -0.051287 -0.024158 0.028947 1.0539e-005 0.028619 
0.082875 0.0092177 -0.057041 -0.07003 -0.012156 0.021056 0.026481 0.030756 
0.1391 0.10129 0.011355 -0.064275 -0.0026201 0.026481 0.062981 0.071202 
0.15259 0.22164 0.090274 -0.031064 0.0085601 0.014972 0.046704 0.064954 
0.12085 0.14026 0.13664 0.0052718 0.027139 0.022371 0.034373 0.03651 
0.052459 -0.061151 0.078436 0.0067515 0.030592 0.010533 0.021384 0.022042 
0.0044497 -0.13645 0.047691 0.022042 0.01267 0.0056006 0.012506 -0.003771 
-0.018404 -0.089266 0.058542 0.070873 -0.0082102 0.04654 0.018589 0.014479 
0.012013 0.049499 0.057884 0.061501 0.020069 0.022535 0.024179 0.026152 
0.058213 0.11905 0.091425 0.073175 0.038319 0.029934 0.029605 0.035031 
0.080409 0.11674 0.10458 0.11066 0.062323 0.026481 0.046375 0.041114 
0.053116 0.038812 0.044402 0.07449 0.022042 0.031085 0.061337 0.053774 
0.051308 0.035195 -0.011498 0.069886 0.041278 0.038648 0.041114 0.046704 
0.048019 0.062323 -0.0054151 0.095864 0.04654 0.055089 0.035688 0.049006 
0.014315 0.088136 0.042265 0.062981 0.055582 0.035524 0.021056 0.026974 
0.0070803 0.13417 0.092576 0.070051 0.060515 0.042265 0.027632 0.010204 
-0.0019624 0.076463 0.041278 0.066269 0.029112 0.027961 0.038155 0.0072447 
-0.025802 -0.05178 -0.057863 0.013821 0.010204 0.011684 0.016945 -0.012156 
-0.040764 -0.13382 -0.079566 0.0072447 0.039963 0.0064227 0.032071 -0.00015387 
-0.056219 -0.10916 -0.068714 0.00033937 -0.003771 0.026974 0.011355 0.00033937 
-0.075127 -0.050136 -0.086307 -0.069372 -0.0070593 0.0037921 0.018918 0.020727 
-0.0029489 -0.014951 -0.087458 -0.087458 -0.00064712 -0.0064016 0.015465 0.020727 
0.059364 0.02681 -0.053753 -0.033037 -0.00097594 -0.025967 0.014479 0.045553 
0.11773 0.10376 0.028125 -0.028269 0.015465 0.01974 0.018918 0.054267 
0.16015 0.18218 0.11888 0.015301 0.036017 0.025166 0.049992 0.073832 
0.171 0.22328 0.17117 0.071366 0.053774 0.031907 0.053281 0.082217 
0.1516 0.17889 0.18185 0.079258 0.068407 0.031578 0.03947 0.067585 
0.090109 0.028619 0.15867 0.072517 0.071202 0.055254 0.039799 0.060186 
0.027961 -0.12412 0.076956 0.06479 0.034044 0.040621 0.026974 0.021384 
0.017767 -0.072825 -0.00015387 0.051965 0.037004 0.014972 0.047362 0.02122 
0.063145 0.19468 -0.008539 0.036839 0.03388 0.00099702 0.0324 0.017603 
0.011355 0.30845 -0.0050863 0.037332 0.013164 0.0016547 -0.0021268 0.023851 
-0.0052507 0.27327 0.067256 0.080244 0.049006 0.017932 0.01711 0.012342 
-0.0013048 0.21408 0.18054 0.078436 0.069229 0.007738 0.047855 0.020398 
-0.0062372 -0.004593 0.18728 0.14749 0.062488 0.031085 0.035853 0.015465 
-0.032543 -0.182 0.22707 0.18103 0.085012 0.065776 0.017274 0.023522 
-0.075291 -0.23642 0.17297 0.17692 0.066105 0.042758 0.025659 0.014643 
-0.10637 -0.2231 0.087479 0.098001 0.038155 0.016945 0.033058 0.021878 
-0.060494 -0.15059 -0.0072237 0.035195 0.032071 0.033715 0.044731 0.02533 
0.0069159 -0.043559 -0.054246 -0.069701 -0.023172 0.044073 0.040621 0.01826 
0.055911 0.081231 -0.093541 -0.1427 -0.028269 0.024673 0.017274 0.031085 
0.082053 0.20882 -0.04471 -0.12133 -0.031228 0.0085601 0.00083261 0.013657 
0.087314 0.22378 0.0098754 -0.084498 -0.018404 -0.0034422 -0.008539 0.011355 
0.077121 0.20619 0.030098 -0.03764 0.004943 0.015959 0.015137 0.022206 
0.077778 0.20043 0.058542 0.023686 0.017932 0.028783 0.0080668 0.044896 
0.088794 0.18415 0.087643 0.05213 0.037332 0.01267 0.012177 0.019905 
0.10178 0.21243 0.086657 0.062488 0.037004 0.012013 0.023522 0.034866 
0.082053 0.18711 0.10803 0.088465 0.037826 0.026646 0.028454 0.040128 
0.072517 0.14568 0.10754 0.055747 0.037826 0.022042 0.020727 0.033551 
0.0324 0.13088 0.11642 0.06594 0.04358 0.021713 0.028454 0.048513 
0.00033937 0.042758 0.11642 0.10803 0.073504 0.024508 0.033551 0.037004 
-0.023994 -0.17953 0.048513 0.086821 0.051965 0.046046 0.046211 0.03651 
-0.056712 -0.26535 -0.051615 0.041278 0.02533 0.024508 0.048019 0.016616 
-0.058028 -0.23181 -0.086471 0.016781 0.0088889 0.024179 0.0227 0.012342 
-0.037969 -0.1935 -0.039778 -0.01117 0.02122 0.035853 0.0032988 0.019905 
0.0046141 -0.075784 0.053609 0.024015 0.023193 0.029934 0.013328 0.013492 
0.069229 0.070873 0.13154 0.08156 0.039141 0.019411 0.031578 0.032729 
0.12283 0.10063 0.067091 0.06331 0.03388 0.017438 0.031742 0.058049 
0.10622 0.068242 0.012999 0.033551 0.031085 0.023522 0.016452 0.051801 
0.079916 0.051965 0.0064227 0.044567 0.064296 0.05476 0.040785 0.047033 
0.045553 0.031249 0.039634 0.029112 0.027796 0.032071 0.055747 0.058706 
0.0088889 0.069229 0.077614 0.032564 0.017438 0.01974 0.065283 0.036346 
0.029934 0.13828 0.091096 0.025495 -0.0098543 0.0093821 0.021713 0.024508 
0.087808 0.1909 0.067749 0.014643 0.0072447 0.02533 0.010697 0.02681 
0.046375 0.17314 0.085506 0.044567 0.049828 0.04095 0.022864 0.038977 
-0.045696 0.16952 0.10244 0.070051 0.04654 0.021878 0.052294 0.025659 
-0.11705 0.10507 0.089123 0.067913 0.013492 0.030756 0.024508 0.0011614 
-0.12379 -0.12675 0.056569 0.017603 0.018425 0.005765 0.0026412 -0.03057 
-0.075949 -0.28525 -0.010676 -0.038462 -0.018568 -0.010019 -0.020541 -0.05326 
-0.001798 -0.18578 -0.07825 -0.040106 -0.028926 -0.0013048 0.0042853 -0.009361 
0.10935 0.033715 -0.030899 0.0052718 0.023851 0.03388 0.035524 0.035195 
0.16278 0.25304 -0.04619 -0.037805 -0.008539 0.032236 0.040621 0.091918 
0.20076 0.32621 -0.017088 -0.023172 0.026974 -0.0039354 0.055911 0.10737 
0.078272 0.26472 -0.022679 -0.026296 0.012999 0.0072447 0.023193 0.073339 
-0.043724 0.098988 -0.051615 -0.054082 -0.015609 0.031085 0.031249 0.011684 
-0.038462 0.068736 0.012506 0.023686 0.020891 0.018589 0.016781 -0.0039354 
0.027303 0.13483 0.050979 0.041114 0.041772 0.011191 0.025988 0.0072447 
0.086821 0.10277 0.096193 0.037168 0.0592 0.0227 0.052787 0.066434 
0.11247 0.0087245 0.083862 0.11148 0.047033 0.048677 0.071695 0.078272 
0.046211 -0.11623 0.031907 0.05772 0.028947 0.038483 0.046704 0.037168 
0.0021479 -0.19811 -0.071674 -0.009361 0.011848 0.017274 0.022371 0.027961 
-0.048327 -0.081045 -0.089924 -0.015609 0.023686 0.014808 -0.0055795 0.0062583 
-0.058028 0.087314 1.0539e-005 -0.012485 0.015465 0.04095 0.0083956 0.032236 
-0.041751 0.061501 0.050814 -0.014129 0.026974 0.042594 0.044238 1.0539e-005 
-0.011334 0.048677 0.085506 0.055089 0.018096 0.019247 0.033058 0.016123 
0.033222 0.10458 0.13121 0.032071 0.0059294 0.011684 0.014643 -0.052602 
0.016616 0.1904 0.089287 0.040621 0.023357 0.0080668 -0.01528 -0.02235 
0.019411 0.23825 0.018096 0.038319 -0.0013048 0.0046141 0.012342 -0.01676 
0.053609 0.28362 -0.066413 -0.0040998 -0.0087034 -0.0077169 0.029605 0.0021479 
0.079916 0.28543 -0.06707 -0.021034 0.01826 0.026481 0.032564 0.050814 
0.082217 0.16722 -0.055397 0.0042853 0.041607 0.065447 0.055418 0.051801 
0.089616 0.060022 -0.009361 -0.010512 0.038812 0.04506 0.054267 0.083862 
0.12891 0.085506 -0.022021 -0.014787 0.031578 0.03092 0.05624 0.06035 
0.1636 0.13203 0.023028 -0.0013048 0.01152 0.014808 0.015465 0.051308 
0.11576 0.067913 -0.018404 -0.024158 -0.0098543 0.020727 -0.0059084 0.025001 
0.082546 0.030098 0.020562 -0.014787 0.0054362 0.013657 0.0023123 0.012342 
0.07038 0.24022 0.12562 0.041443 0.013986 0.013986 0.038155 0.039141 
0.088465 0.31388 0.13746 0.060679 0.053609 0.011355 0.059693 0.054267 
0.093726 0.16179 0.029112 0.079258 0.053116 0.039141 0.037661 0.04654 
0.0072447 -0.10275 0.01826 0.098823 0.046046 0.031414 0.027961 0.017274 
-0.019884 -0.24086 0.017274 0.12727 0.065612 0.042429 0.034044 0.041443 
-0.020541 -0.30415 -0.011498 0.082053 0.07449 0.019905 0.039141 0.031249 
-0.098638 -0.21455 -0.038298 0.06479 0.08304 0.050979 0.029605 0.0080668 
-0.2203 -0.10949 -0.09946 0.035031 0.049335 0.031578 -0.010841 -0.059178 
-0.25138 -0.13053 -0.13021 -0.039942 -0.021692 0.00033937 -0.026296 -0.060987 
-0.12922 -0.14007 0.00297 0.016781 -0.0138 -0.00097594 -0.011498 -0.056055 
0.034373 -0.07003 0.13253 0.13138 0.034702 0.024837 0.00297 -0.00064712 
0.17396 0.0051074 0.16015 0.14289 0.066105 0.0421 -0.00064712 0.026152 
0.20635 0.18235 0.092411 0.059857 0.048019 0.019905 0.007738 0.038977 
0.21408 0.36928 0.0059294 -0.026789 -0.008539 0.018096 0.032893 0.050321 
0.1978 0.36994 0.010204 -0.063618 -0.010348 0.027139 0.061501 0.0786 
0.14552 0.13598 0.041278 -0.041257 0.00297 0.016452 0.040128 0.072024 
0.070708 -0.17213 -0.0138 -0.0075525 0.027303 0.041936 0.028947 0.088958 
0.033222 -0.34559 -0.050136 -0.02794 0.042923 0.025659 0.039141 0.062817 
-0.033037 -0.38981 -0.073154 -0.004593 0.051143 0.03799 0.045389 -0.0004827 
-0.087786 -0.40691 -0.074962 0.033715 0.03092 0.026974 0.045389 0.021878 
-0.12692 -0.34427 -0.075455 0.033222 0.06035 0.023522 0.025495 -0.013471 
-0.078415 -0.16079 -0.045203 0.040292 0.053609 0.020398 0.01563 0.014315 
-0.017088 0.0092177 -0.0055795 0.055911 0.051801 0.0072447 0.012506 0.023028 
0.0065871 0.084519 0.013986 0.032729 0.053774 0.013328 0.023028 0.023522 
-0.013965 0.043087 0.055582 0.031742 0.02122 0.017767 1.0539e-005 0.015465 
0.023522 -0.0049219 0.090931 0.07449 0.021713 0.0064227 0.010862 0.014972 
0.057391 0.065283 0.13549 0.062159 0.02829 0.034373 0.016781 0.041114 
0.090603 0.13878 0.07597 0.032893 0.037826 0.041114 0.032893 0.060186 
0.071037 0.12497 -0.00031829 0.049335 0.039634 0.022864 0.038812 0.04358 
0.085341 0.19616 0.018589 0.041772 0.034537 -0.018075 0.019083 0.0039565 
0.10869 0.26373 0.086328 0.021384 0.0062583 0.025824 0.010533 0.037168 
0.12349 0.2953 0.14519 0.019576 0.0069159 0.010697 0.0080668 0.042429 
0.11855 0.16196 0.13795 0.046868 0.017603 0.013821 0.044073 0.051143 
0.045882 -0.046354 0.067256 0.02681 0.053281 0.009711 0.051143 0.0592 
-0.044217 -0.27834 0.021056 0.034373 0.072517 0.034209 0.03092 0.042758 
-0.068879 -0.28015 0.020398 0.027632 0.037004 0.020233 0.032893 0.023522 
-0.064768 -0.17197 0.031085 0.012835 0.033715 0.022864 0.034866 0.030098 
-0.012814 0.047691 0.0421 0.0019835 0.025659 0.017274 0.040785 0.023686 
-0.015444 0.22148 0.038812 0.022864 0.021713 0.025824 0.037004 0.01563 
-0.021199 0.29563 0.086163 0.036182 0.030263 0.02829 0.011355 0.014479 
0.031085 0.26702 0.12792 0.065776 0.0016547 0.0014903 0.016945 0.012835 
0.047033 0.11148 0.090438 0.049006 -0.0040998 0.011848 0.023028 0.032729 
0.040128 0.004943 -0.0021268 0.014808 0.01826 0.027632 0.013821 0.039141 
0.065776 0.12118 -0.03205 -0.0021268 0.037497 0.023686 0.034044 0.068078 
0.11576 0.28642 -0.0047575 0.029934 0.051801 0.030756 0.054267 0.052952 
0.090603 0.25617 0.024673 -0.0091966 0.039799 0.029605 0.061501 0.066763 
0.026646 0.078765 0.038483 -0.032708 0.020727 0.02829 0.048841 0.05065 
-0.020212 -0.12264 0.046046 -0.010676 -0.011827 0.0036276 0.019411 0.0062583 
-0.080059 -0.23362 0.0085601 -0.0087034 0.0026412 0.0060938 0.0083956 0.0083956 
-0.02794 -0.0087034 0.067256 0.032729 0.020398 0.0227 -0.0024557 0.014315 
0.14502 0.36353 0.1077 0.086657 0.050979 0.041114 0.032893 0.065447 
0.24959 0.45675 0.098823 0.07301 0.036839 0.035853 0.065447 0.073668 
0.19287 0.16623 0.091425 0.054267 0.016616 0.018918 0.027303 0.057227 
0.031414 -0.24497 0.060679 0.068407 0.028947 0.0067515 0.010533 0.01004 
-0.051287 -0.39277 0.042265 0.056733 0.029112 0.010533 0.023193 0.017438 
-0.054904 -0.206 0.063968 0.064132 0.037826 0.031907 0.030098 -0.0029489 
-0.00015387 0.14979 0.056076 0.079258 0.049992 0.015301 0.032729 0.026481 
0.0065871 0.36337 0.0592 0.018425 0.040456 0.049664 0.023686 0.025166 
0.052952 0.52548 0.11313 0.022864 0.017438 0.029441 0.03799 0.044731 
0.08419 0.48125 0.078929 0.045718 0.024673 0.013328 0.079422 0.061666 
0.070051 0.33328 -0.0073881 0.0039565 0.01415 0.010697 0.04358 0.052459 
0.066434 0.18415 -0.015444 0.00033937 0.039799 0.04095 0.028619 0.053445 
0.068571 0.15522 0.020562 0.041443 0.03388 0.034373 0.010697 0.039963 
0.05476 0.24729 0.061337 0.048677 0.036839 0.027961 0.041936 0.048019 
0.039305 0.24647 0.073832 0.014972 0.045224 0.027303 0.033387 0.056733 
-0.0090322 0.1299 0.02533 0.014479 0.013328 0.038483 0.031414 0.029276 
-0.048163 -0.065426 0.019905 0.0060938 0.019905 0.034537 0.020727 0.00297 
-0.096007 -0.12198 0.058706 0.028947 0.024015 0.017767 0.0024767 -0.015609 
-0.046025 -0.18035 0.082217 0.058377 0.0021479 0.046375 0.026974 -0.0034422 
-0.00064712 -0.32816 0.046211 0.046704 0.004943 0.037168 0.0083956 -0.0138 
-0.018733 -0.46084 0.019411 0.0054362 0.011684 0.0092177 -0.01676 -0.022843 
-0.017088 -0.33802 0.038977 0.047691 0.03651 0.016616 0.0028056 0.00033937 
0.07038 0.097179 0.10984 0.12299 0.070873 0.016616 0.024673 0.029605 
0.1294 0.4658 0.11674 0.098001 0.031085 0.031907 0.021384 0.014479 
0.08304 0.39181 0.015794 0.021384 0.0021479 0.021384 0.020398 0.038812 
0.012506 0.12628 -0.018897 -0.010183 -0.0090322 0.036346 0.016781 0.03651 
-0.022843 -0.02498 -0.051451 -0.034845 0.0072447 0.01267 0.020891 0.025824 
-0.016431 -0.0062372 -0.082854 -0.043888 0.004943 0.041443 0.040128 0.0016547 
0.03799 0.089452 -0.034516 -0.0014692 0.00033937 0.01974 0.026646 0.032236 
0.099974 0.07301 -0.0080457 -0.0021268 0.030263 0.027139 0.03947 0.06035 
0.11543 -0.18002 -0.018733 0.0074092 0.027796 0.030592 0.051965 0.077449 
0.016616 -0.54666 -0.057534 0.0093821 0.024179 0.059693 0.077614 0.054596 
-0.16013 -0.82847 -0.085649 -0.015773 0.033387 0.031085 0.044896 0.0064227 
-0.2134 -0.93912 -0.093376 -0.0024557 0.050979 0.023357 0.00099702 -0.025309 
-0.1473 -0.78589 -0.0771 0.041114 0.021549 0.01152 -0.017253 -0.037311 
-0.0075525 -0.24908 0.017274 0.041607 0.024673 0.024344 -0.014622 0.0056006 
0.14683 0.51331 0.1202 0.10869 0.057391 0.026481 0.055911 0.035688 
0.2565 0.98222 0.19353 0.083697 0.042265 0.034537 0.061995 0.093069 
0.20734 0.92928 0.15686 0.034537 0.024837 0.00297 0.035524 0.061172 
0.14404 0.70189 0.09126 0.022371 0.0013258 0.012835 0.013821 0.022535 
0.071859 0.64139 0.060515 0.039634 -0.00064712 -0.0083746 -0.01676 -0.0072237 
-0.018239 0.56148 -0.025638 -0.02235 -0.022185 -0.032379 -0.031886 -0.06148 
-0.076277 0.26472 -0.042573 -0.034845 0.005765 -0.018404 -0.0088678 -0.025145 
-0.078415 0.025988 0.078765 0.077943 0.076299 0.048019 0.024344 0.0052718 
-0.040435 0.011355 0.13417 0.1197 0.045718 0.019411 -0.0039354 0.042758 
0.04506 0.073504 0.094384 0.059693 0.048019 0.0324 0.059528 0.049006 
0.12151 -0.05589 0.01004 -0.012156 0.011026 0.022371 0.034702 0.064132 
0.041772 -0.21619 -0.064275 -0.048985 -0.032543 0.0039565 0.058871 0.0421 
0.016288 -0.3178 -0.061809 -0.066084 -0.0013048 0.0021479 -0.0024557 0.038648 
0.075148 -0.24382 0.024344 -0.008539 0.059528 -0.010676 0.01826 0.0689 
0.159 -0.078744 0.057227 0.0592 0.047691 0.041772 0.066927 0.090438 
0.17018 -0.0075525 0.0064227 0.041443 0.040785 0.056076 0.047526 0.080573 
0.064132 -0.12544 0.0042853 0.016945 0.025166 0.026317 0.027303 0.029112 
-0.050629 -0.25911 0.0072447 0.041607 0.0088889 -0.010348 0.021384 -0.0013048 
-0.097651 -0.32257 0.038812 0.05065 0.033058 0.011026 0.022864 -0.0039354 
-0.080223 -0.27604 0.040292 0.037497 0.047855 0.040292 0.012506 -0.00031829 
-0.016595 -0.11031 -0.0019624 0.07038 0.031085 0.014972 0.01711 0.017603 
0.061995 0.17149 0.016288 0.051636 0.018754 0.015465 0.020727 0.014808 
0.076463 0.31536 0.049499 0.029276 0.01004 0.016616 0.04095 0.01267 
0.04095 0.31108 -0.00015387 0.038812 0.0093821 0.021384 0.017438 0.0092177 
0.0036276 0.38918 0.029605 0.039141 0.044073 0.03092 0.014643 0.027139 
-0.025802 0.50969 0.083368 0.066269 0.043909 0.031085 0.019083 0.042429 
-0.057534 0.43587 0.039141 0.078765 0.0075736 -0.0013048 0.030098 0.013986 
-0.013471 0.41812 0.03799 -0.017088 -0.0032777 -0.004593 0.0074092 -0.010512 
0.072517 0.33969 0.05065 -0.037969 0.00050378 -0.021034 -0.0026201 0.017603 
0.09833 0.159 0.052952 0.0085601 0.016945 0.0098754 0.010697 0.032729 
0.13565 0.061172 0.076299 0.025988 0.058706 0.027796 0.039305 0.089287 
0.17725 -0.0091966 0.10129 0.056898 0.071695 0.056076 0.076627 0.097179 
0.16903 -0.093376 0.095699 0.089616 0.046868 0.034866 0.066269 0.087972 
0.085012 -0.14484 0.031085 0.030756 0.022864 0.023522 0.034209 0.037661 
0.029605 -0.18857 -0.0057439 0.0079024 0.011026 0.019247 0.0016547 0.0075736 
-0.026624 -0.27851 -0.016595 0.043745 0.0039565 -0.0090322 -0.010676 -0.017582 
0.0092177 -0.18265 -0.019719 0.0065871 -0.006566 -0.0067304 0.032729 -0.016595 
0.024673 0.01826 -0.010183 -0.0138 0.01826 0.0083956 0.026646 -0.003771 
0.064132 0.12562 0.017274 0.058871 0.038319 0.038483 0.029276 0.037332 
0.097344 0.18728 0.021056 0.039141 0.040292 0.046211 0.031578 0.058871 
0.10754 0.18876 0.018589 0.017767 0.052952 0.02533 0.04506 0.049335 
0.11905 0.14634 0.02829 0.0079024 0.033387 0.020562 0.035195 0.069722 
0.11428 0.091589 0.064461 0.011355 0.0062583 0.016452 0.018589 0.04654 
0.067913 0.07449 0.056898 0.016452 0.017603 0.016288 0.011848 0.031085 
-0.011334 -0.011498 0.032236 0.010533 0.01415 0.0227 0.020727 0.013164 
-0.028597 -0.20173 -0.0088678 0.036675 0.03651 0.029769 0.056898 0.037497 
-0.063453 -0.39754 -0.059014 0.031414 0.04358 0.059693 0.04654 0.014479 
-0.10341 -0.4758 -0.034845 0.039634 0.041443 0.051472 0.02681 0.012835 
-0.10341 -0.41546 -0.015773 0.054596 0.060679 0.03947 -0.043888 -0.0040998 
-0.12462 -0.20452 -0.012156 0.042594 0.027632 0.0092177 0.039799 -0.0016336 
-0.10752 -0.027447 0.057391 0.039963 0.030263 0.063145 0.060186 0.01267 
-0.066741 0.058542 0.073832 0.074819 0.045553 0.019576 0.020069 0.005765 
0.017932 0.071695 0.051143 0.044731 0.047526 -0.010512 -0.01117 0.033058 
0.14535 0.17149 0.022206 0.046375 0.040456 0.034537 0.03536 0.063145 
0.21523 0.1493 -0.017088 0.033387 0.054267 0.053445 0.029934 0.097179 
0.14848 -0.048492 -0.0077169 -0.01939 0.024344 0.035524 0.058542 0.069722 
0.11411 -0.061809 0.0056006 -0.017911 0.032893 0.019411 0.040785 0.063639 
0.087643 0.15193 0.064461 0.025001 0.030592 0.024673 0.024344 0.024837 
0.073175 0.39263 0.092576 0.0079024 0.025495 0.023028 0.024837 0.0023123 
-0.0078813 0.36748 0.065283 -0.032872 -0.0138 0.0031344 -0.034845 -0.025145 
-0.066741 0.14026 -0.0096899 -0.012978 -0.0138 -0.015609 -0.030077 -0.056877 
-0.15585 -0.17427 -0.072167 -0.032215 -0.0064016 -0.010183 -0.0087034 -0.013636 
-0.18512 -0.35085 0.015301 0.024837 0.037004 0.029934 0.023193 -0.0059084 
-0.096665 -0.27752 0.083862 0.11625 0.050157 0.049992 0.059857 0.062159 
0.046375 -0.12988 0.13795 0.10228 0.06331 0.046375 0.061501 0.066269 
0.14815 0.12579 0.11888 0.06035 0.047526 0.01711 0.054432 0.068078 
0.14437 0.25436 0.026317 0.04095 0.015301 0.039141 0.02122 0.045389 
0.044073 0.18284 -0.025309 -0.018897 0.00297 0.023193 0.028454 0.041936 
-0.0052507 0.10474 -0.028597 -0.030406 0.012013 0.014479 0.028947 0.026646 
-0.0080457 0.053116 -0.034681 -0.012156 0.00033937 0.013164 0.0098754 0.013821 
-0.028104 0.034537 0.012013 0.00099702 0.010369 0.025495 -0.0060728 0.022206 
-0.014622 0.06035 0.074326 0.0067515 0.019905 0.014479 0.013492 0.014972 
-0.027118 0.027796 0.063145 0.045553 0.025001 0.016781 0.029934 0.013657 
0.0074092 0.017438 0.077121 0.041936 0.0227 0.014643 0.01563 0.0054362 
0.062981 0.20273 0.14206 0.074654 0.024015 0.034702 0.0085601 0.019247 
0.083368 0.41335 0.17495 0.10507 0.024508 0.021549 -0.00097594 0.035524 
0.029605 0.45231 0.16886 0.11099 0.041607 0.026646 0.027961 0.044073 
-0.066906 0.22937 0.045718 0.062817 0.048513 0.034537 0.053774 0.037661 
-0.077757 -0.051944 -0.05178 0.029112 0.067091 0.045389 0.034373 0.032236 
0.0085601 -0.092719 -0.088773 -0.0039354 0.031578 0.017438 0.019411 0.036839 
0.11691 0.19764 -0.038791 -0.029584 -0.0031133 0.0085601 0.019247 0.048841 
0.1008 0.30155 -0.0031133 -0.018404 0.00066819 -0.0062372 0.013986 0.04506 
-0.0059084 0.077285 0.032893 0.016288 0.034209 0.029934 0.027796 0.0019835 
-0.066906 -0.029584 0.056076 0.036675 0.045224 0.01563 -0.011334 -0.023665 
0.045718 0.0075736 0.076134 0.05065 0.060186 0.010369 0.0039565 0.0098754 
0.13417 -0.063289 0.064625 0.051308 0.039141 -0.0032777 0.026481 0.026646 
0.13845 -0.082032 0.062159 0.029934 0.0074092 0.025824 0.012835 0.0013258 
0.15209 0.0067515 0.096028 0.055089 0.028454 0.022042 0.024179 0.013328 
0.10244 -0.01528 0.14535 0.096028 0.050979 0.0011614 0.028619 0.026481 
0.025495 0.081067 0.10622 0.09833 0.080409 0.0056006 0.020069 0.086657 
0.037497 0.33394 0.051308 0.051965 0.042923 0.040785 0.058871 0.070051 
0.089287 0.40858 0.018754 0.040785 0.023193 0.0051074 0.048677 0.053116 
0.012835 0.074819 -0.066413 0.0023123 0.020727 0.019247 0.027139 0.044731 
0.031907 -0.23872 -0.076113 -0.020048 0.017274 0.025495 0.025659 0.021878 
0.081067 -0.1547 0.013164 0.03092 0.031907 0.026646 0.032729 0.038155 
0.11724 0.23348 0.038155 0.017274 0.047526 0.020727 0.035195 0.034044 
0.087479 0.61919 0.069886 -0.010183 -0.0087034 0.013657 0.018754 0.041772 
0.11937 0.71291 0.092082 0.0092177 -0.012814 0.011026 0.0056006 0.029276 
0.13417 0.40611 0.076134 -0.0068948 -0.0096899 0.00083261 0.011684 0.034209 
0.071202 0.0093821 0.024508 -0.0026201 0.0082312 0.004943 0.0082312 0.0082312 
-0.023336 -0.35068 -0.063124 0.0021479 0.034044 0.00033937 -0.008539 0.0013258 
-0.10867 -0.46512 -0.18035 -0.052931 -0.014129 0.012835 0.0026412 -0.006566 
-0.088444 -0.27341 -0.17542 -0.052437 -0.022021 0.010369 -0.01528 -0.0026201 
0.0059294 -0.099624 -0.057863 0.034044 0.022371 0.012999 0.035195 0.0064227 
-0.0098543 -0.22261 0.064954 0.097015 0.068571 0.023028 0.042758 -0.015116 
-0.11327 -0.60224 0.046375 0.069064 0.067091 0.028454 0.027468 -0.0031133 
-0.034516 -0.52546 0.053445 0.05772 0.048677 0.031249 0.026481 0.012506 
0.12858 0.004943 0.11674 0.10178 0.063803 0.027139 0.050157 0.059857 
0.20849 0.35975 0.15768 0.11987 0.073339 0.026481 0.058706 0.064625 
0.22361 0.4755 0.1904 0.093398 0.064954 0.011355 0.058213 0.079258 
0.086657 0.29185 0.18892 0.086657 0.061501 0.048841 0.047691 0.06594 
-0.018897 -0.014458 0.1761 0.073504 0.050157 0.033715 0.052952 0.065612 
0.0092177 -0.085649 0.15028 0.070708 0.050814 0.035031 0.079751 0.066763 
0.064296 0.058213 0.036346 0.058871 0.01974 0.029934 0.049664 0.06183 
0.067585 0.20388 -0.038462 -0.031886 -0.022185 0.0065871 -0.0060728 0.0074092 
0.034044 0.232 -0.092554 -0.06444 -0.015609 0.005765 -0.0057439 0.0079024 
0.024015 0.091096 -0.086307 -0.013965 0.036839 0.025659 0.031578 0.058706 
-0.022679 0.048677 -0.038791 -0.0032777 0.055089 0.048841 0.033715 0.027468 
-0.047341 -0.0090322 -0.034352 -0.0072237 0.015301 0.036346 -0.0032777 0.0087245 
0.028947 -0.052273 -0.052437 0.01267 -0.022514 0.0031344 -0.017088 -0.029748 
0.0085601 -0.032543 -0.039613 -0.021199 -0.032872 -0.026624 -0.027118 -0.031886 
-0.0072237 0.043745 0.016616 -0.029584 -0.027775 -0.016924 -0.01117 -0.027118 
-0.0067304 0.084355 0.068078 0.03947 0.023522 0.01711 0.016945 0.017767 
-0.024158 -0.079401 0.10162 0.041114 0.019576 0.018754 0.03947 0.038812 
-0.060658 -0.26733 0.042429 0.031414 0.013986 0.011191 0.018425 0.038648 
-0.07003 -0.2305 0.014643 0.046868 0.0024767 0.026317 0.024344 0.027468 
0.012342 -0.031064 0.038483 0.031578 0.036182 0.013328 0.036346 0.029605 
0.038319 0.17955 0.062488 0.05772 0.06183 0.018425 0.0227 0.034373 
0.056569 0.17133 0.092576 0.10524 0.076463 0.020069 0.015959 0.034373 
0.080573 0.08419 0.10014 0.074983 0.063474 0.022206 0.039963 0.060679 
0.13302 0.10063 0.08863 0.08156 0.056076 0.056733 0.071366 0.075805 
0.17133 0.079587 0.12201 0.087808 0.065612 0.076627 0.041278 0.079258 
0.08008 0.053774 0.054267 0.043251 0.023522 0.023193 0.027796 0.0592 
0.0041209 0.19484 0.039305 0.0041209 0.062488 0.040292 0.0042853 0.049499 
0.023522 0.29053 0.0085601 -0.010183 0.007738 0.016123 0.041607 0.058871 
0.007738 0.079422 -0.040764 -0.023007 0.00099702 0.013164 0.022371 -0.016431 
-0.0050863 -0.21307 -0.068057 -0.035996 -0.021528 -0.015773 -0.011992 -0.004593 
0.052952 -0.31533 -0.017911 -0.016431 0.0088889 0.018918 -0.014622 -0.0011404 
0.067749 -0.17953 0.071695 0.047526 0.03536 0.023193 0.012999 0.064132 
0.094713 0.15489 0.12809 0.077449 0.06594 0.042758 0.063145 0.082382 
0.11921 0.3027 0.12513 0.07597 0.046046 0.037661 0.068242 0.1031 
0.069886 0.24203 0.030756 0.021878 0.028947 0.051636 0.043251 0.05213 
0.016123 0.18251 -0.02794 -0.0077169 -0.004593 0.022371 0.041936 0.019905 
-0.046683 0.049992 -0.035996 0.0023123 0.016945 0.01563 0.026152 0.0085601 
-0.048985 -0.038462 0.0062583 0.057391 0.062652 -0.0068948 0.054432 0.0065871 
-0.1062 -0.022679 0.035031 0.048348 0.042594 0.043251 0.014643 -0.0052507 
-0.19137 -0.013143 0.026481 0.013164 0.027796 0.048677 0.018754 0.014972 
-0.23362 -0.17624 -0.05589 -0.0052507 0.0034632 0.017932 0.0075736 0.0019835 
-0.15947 -0.28245 -0.070359 -0.049807 -0.024816 0.010369 0.019247 0.011848 
0.060844 -0.15931 -0.089595 -0.066906 -0.014458 0.014315 0.011684 0.055747 
0.26192 0.30796 -0.031064 -0.017911 -0.022843 0.0021479 0.0028056 0.080409 
0.33098 0.58352 0.056076 -0.033365 -0.029584 -0.0032777 -0.0011404 0.093069 
0.2371 0.50657 0.10622 -0.01232 -0.008539 -0.0067304 0.013492 0.020069 
0.057884 0.13187 0.060844 0.012506 0.04095 0.021713 0.033222 -0.075784 
-0.058028 -0.19433 -0.0055795 0.016123 0.051472 0.026974 0.028125 -0.080388 
-0.042573 -0.27834 0.030756 0.07597 0.092411 0.020727 0.044073 -0.0031133 
-0.042901 -0.14106 0.10803 0.13697 0.095042 0.0421 0.051308 0.070215 
-0.020212 0.052623 0.19303 0.15933 0.11362 0.071202 0.099481 0.10326 
0.037661 0.15834 0.1636 0.10688 0.080244 0.046868 0.054103 0.098823 
0.052952 0.21786 0.051965 0.054925 0.031742 0.020891 0.044896 0.095864 
0.08978 0.28017 -0.031557 -0.020048 0.0016547 0.01004 0.027796 0.082217 
0.1322 0.23052 -0.024816 -0.04619 0.0018191 0.017932 0.03092 0.052623 
0.11148 0.14289 0.025824 0.013821 0.0044497 0.023686 0.033715 0.057555 
0.01004 0.1128 0.068407 0.031085 0.014808 0.017767 0.014643 0.03388 
-0.17279 0.028783 0.04358 0.0087245 0.029441 -0.003771 0.02829 0.0074092 
-0.18759 0.048019 0.00050378 -0.0004827 0.0227 0.025659 -0.0072237 -0.062467 
-0.096994 0.057062 -0.052766 -0.059672 -0.013307 -0.0062372 -0.014622 -0.082361 
-0.12067 -0.062138 -0.12741 -0.11689 -0.066413 -0.032872 -0.038462 -0.085156 
-0.20847 -0.10735 -0.10291 -0.071181 -0.039284 -0.030077 -0.0073881 -0.10242 
-0.14533 -0.0044286 -0.024816 0.014972 0.012013 0.011684 -0.0039354 -0.025145 
-0.0022913 0.012835 -0.027447 0.084355 0.055747 0.022864 0.0070803 0.059364 
0.10902 -0.098473 -0.026131 0.038812 0.075148 0.025659 0.055911 0.1031 
0.19303 0.058213 0.029605 0.06594 0.078765 0.061666 0.070544 0.12858 
0.15818 0.083533 0.072024 0.064461 0.0786 0.076299 0.065283 0.10556 
0.039305 -0.021034 0.13631 0.066598 0.079916 0.031249 0.040785 0.070544 
0.11017 -0.03205 0.20553 0.10425 0.061008 0.021384 0.047691 0.017438 
0.24828 -0.059507 0.19994 0.097672 0.079587 0.048677 0.08304 0.010533 
0.317 -0.085978 0.17232 0.10047 0.095864 0.073832 0.086163 0.071695 
0.19681 -0.024487 0.13845 0.10688 0.057391 0.044896 0.062981 0.064132 
0.094548 0.040128 0.078272 0.059857 0.021384 0.032893 0.061172 -0.05737 
0.057227 0.11625 0.083533 0.026481 0.016123 0.014972 0.028783 -0.01939 
-0.0013048 0.13417 0.097508 0.03092 -0.0068948 -0.0057439 -0.022514 0.00050378 
-0.19466 0.013492 0.037168 -0.010183 -0.019884 -0.030735 -0.056548 -0.011334 
-0.30202 0.019576 0.013657 -0.033201 -0.021528 -0.0068948 -0.032708 -0.042079 
-0.27637 0.17001 -0.022843 0.0064227 -0.0052507 -0.0027845 -0.0036066 -0.02646 
-0.15832 0.31536 -0.026953 -0.040764 -0.0022913 0.043745 0.010369 -0.001798 
-0.029255 0.42551 -0.036489 -0.040271 0.0072447 0.0060938 -0.0062372 0.0054362 
0.17626 0.48454 0.011684 0.0039565 0.0090533 0.0059294 0.0026412 0.030098 
0.29678 0.46382 0.031578 -0.03501 0.030427 -0.011827 0.02829 0.017767 
0.25798 0.11773 0.06035 0.041114 0.026152 0.031907 0.044896 0.03536 
0.26998 -0.39047 -0.014622 0.11658 0.075312 0.057062 0.085177 0.075641 
0.25946 -0.81022 -0.074798 0.0786 0.095042 0.077614 0.13023 0.12151 
0.15078 -0.81006 -0.080388 0.031578 0.069229 0.064132 0.071037 0.086328 
0.04358 -0.34657 0.022864 0.044567 0.048019 0.03388 0.056076 0.088136 
0.020069 0.044567 0.12135 0.063803 0.023028 0.013164 0.018096 0.048513 
0.014808 0.12168 0.15505 0.049992 0.010862 0.0072447 0.01974 0.039305 
-0.041422 0.10951 0.12283 0.068078 -0.004593 0.0016547 -0.027118 -0.01117 
-0.047834 0.16969 0.076463 0.031085 0.0074092 -0.0070593 -0.021692 -0.049642 
-0.0022913 0.16212 0.076299 0.021056 0.038812 0.0060938 -0.015938 -0.033365 
0.01563 0.13302 0.047362 0.030592 0.01826 -0.016102 -0.027611 0.016288 
0.06742 0.29349 0.069722 0.053609 0.01826 0.031742 0.0227 0.034537 
0.12595 0.36156 0.088794 0.071366 0.020233 0.04095 0.051472 0.048019 
0.13549 0.21753 0.052294 0.083862 0.052294 0.047526 0.080573 0.076134 
0.090767 0.02681 0.015137 0.057555 0.044731 0.031414 0.04654 0.035524 
0.060844 -0.063946 0.022864 0.015301 0.042429 0.040621 0.0082312 0.034702 
0.048513 -0.18019 -0.017746 -0.0070593 0.0052718 0.029934 -0.018404 0.036182 
0.0421 -0.20337 -0.015938 0.0046141 0.00083261 0.014479 0.035524 0.028125 
0.078436 -0.00097594 0.043087 0.023193 0.012506 0.016123 0.04506 0.045553 
0.092411 0.10277 0.10573 0.059857 0.041772 0.02122 0.04095 0.047855 
0.09422 0.13056 0.147 0.10754 0.082875 0.02681 0.049664 0.063145 
0.10737 0.18103 0.09981 0.053281 0.051472 0.027796 0.06479 0.10211 
0.15176 0.18547 -0.032708 0.0075736 0.020562 0.012506 0.04358 0.089287 
0.030263 0.18054 -0.11426 -0.021856 0.028619 -0.008539 0.023193 0.025824 
-0.11376 0.27491 -0.053753 -0.042244 -0.017253 0.0037921 -0.015938 -0.0050863 
-0.16358 0.28543 0.02533 -0.037147 -0.021363 0.012342 -0.029748 -0.053588 
-0.020377 0.2223 0.062488 0.03388 0.030263 0.029441 0.041607 0.034209 
0.15308 0.12628 0.068407 0.048184 0.023357 0.055747 0.053938 0.091425 
0.085835 -0.18709 -0.036654 0.037497 0.0088889 0.029112 0.031742 0.058871 
-0.079237 -0.62065 -0.17591 0.022864 0.015137 0.009711 0.025824 0.0018191 
-0.15257 -0.8454 -0.24414 -0.04882 -0.0036066 0.011684 0.010862 -0.032872 
0.017932 -0.79345 -0.21669 -0.0406 0.024673 0.041443 0.045389 0.021384 
0.19698 -0.48813 -0.056383 0.041936 0.057062 0.042429 0.059364 0.074326 
0.20553 -0.066577 0.083533 0.10211 0.088301 0.046868 0.063639 0.11461 
0.087972 0.32933 0.12825 0.11214 0.067913 0.066598 0.061172 0.082546 
-0.035338 0.5023 0.15883 0.12447 0.087314 0.066105 0.061337 0.095699 
-0.16358 0.55524 0.095371 0.048019 0.043251 0.030098 0.0227 0.028125 
-0.18364 0.67049 0.06742 -0.023172 0.012835 -0.020377 -0.027775 -0.041751 
-0.074962 0.71883 0.14469 -0.013965 -0.031064 -0.02087 -0.060658 -0.076935 
0.030592 0.71357 0.25058 0.071366 -0.003771 0.013821 -0.032708 -0.017417 
0.12283 0.66835 0.26669 0.12973 0.060844 0.036839 0.029605 0.039799 
0.16985 0.63909 0.16262 0.11099 0.050979 0.021549 0.036839 0.066105 
0.17265 0.3466 0.015465 0.038977 -0.0019624 0.01152 0.0039565 0.045553 
0.093233 -0.14056 -0.12133 -0.088608 -0.043066 0.0083956 -0.013471 0.0034632 
0.071202 -0.69546 -0.19827 -0.11541 -0.048327 -0.00015387 0.0054362 0.023851 
0.10425 -1.024 -0.26026 -0.069372 -0.024323 0.034209 0.020891 0.051965 
0.077449 -0.81449 -0.19646 -0.03057 0.03388 0.026974 0.042923 0.053938 
0.023357 -0.29873 -0.031721 0.027139 0.06594 0.027139 0.036675 0.038812 
-0.063289 0.10622 0.10145 0.08978 0.065283 0.030263 0.042594 0.043087 
-0.22145 0.24663 0.12201 0.070708 0.04917 0.020233 0.026317 0.012999 
-0.27193 0.26472 0.082875 0.03092 0.007738 -0.00097594 0.00050378 0.018918 
-0.12922 0.2537 0.026152 0.06479 0.02681 0.033222 0.027961 0.055254 
-0.14188 0.11247 0.061337 0.064461 0.054267 0.044402 0.048513 0.04917 
-0.27423 -0.012814 0.049335 0.067091 0.064132 0.022535 0.055747 0.021549 
-0.18775 -0.079401 -0.0072237 0.040456 0.011848 0.015465 0.032893 0.010204 
0.012835 -0.20041 -0.018897 -0.02794 -0.003771 0.027139 0.0075736 -0.027611 
0.1761 -0.17608 0.02122 0.00017495 0.0088889 0.024015 -0.0095255 -0.090417 
0.18169 -0.12412 0.033387 0.066105 0.027139 0.028454 0.0072447 -0.05737 
0.071202 -0.23477 0.0056006 0.0227 0.038483 0.024508 0.049335 0.01267 
-0.023994 -0.23033 -0.018239 -0.0026201 0.023357 0.013821 0.0095465 0.073668 
-0.051944 0.063803 0.074326 0.034537 -0.0087034 0.0074092 0.0088889 0.054267 
-0.0091966 0.38014 0.20734 0.081067 0.01563 0.01974 0.0014903 0.01563 
0.01563 0.36994 0.23085 0.12644 0.040785 0.062323 0.04095 -0.009361 
0.14124 0.32292 0.13976 0.073832 0.012177 0.027139 0.01004 -0.053753 
0.24449 0.44985 0.043087 0.016288 -0.020212 0.0042853 0.031907 -0.016595 
0.27031 0.57612 0.0324 -0.021199 -0.012156 -0.0039354 0.047197 0.091425 
0.1294 0.45116 -0.025474 -0.012156 0.0042853 0.0041209 0.059693 0.13417 
0.00033937 0.17281 -0.031557 0.012342 0.018096 0.048841 0.063968 0.12266 
-0.10784 -0.23066 -0.10521 0.0042853 0.023686 0.031085 0.047033 0.063968 
-0.1746 -0.58251 -0.13464 0.0065871 0.032071 -0.019719 0.025001 -0.0064016 
-0.11804 -0.56409 -0.066577 0.0085601 0.022371 0.020069 0.01711 -0.0062372 
-0.023336 -0.41102 0.023357 0.054432 0.052459 0.027468 0.032071 0.012835 
-0.014787 -0.51543 0.10293 0.069886 0.052787 0.034209 0.044896 0.054103 
-0.078579 -0.44983 0.11066 0.072846 0.048019 0.01563 0.040785 0.015137 
-0.031064 -0.096007 0.11461 0.041772 0.029605 0.020891 0.013328 0.0021479 
0.13236 0.29152 0.14453 0.0093821 0.013821 0.0082312 0.0052718 0.019411 
0.23003 0.61393 0.13631 0.0090533 -0.013143 0.00297 0.0060938 0.0069159 
0.18054 0.60703 0.072024 -0.023665 -0.0039354 -0.016102 0.0056006 0.027961 
0.040292 0.27064 -0.0062372 -0.035503 -0.022514 0.019411 0.014315 0.027961 
0.020069 0.10113 -0.068057 -0.010676 0.016616 0.034537 0.019083 0.039799 
0.01152 0.093398 -0.12281 -0.035174 0.017932 0.011684 0.036346 0.00099702 
-0.0059084 0.1179 -0.1039 -0.035503 -0.0060728 0.00099702 0.025659 0.012013 
0.051965 0.072353 -0.025474 0.026974 0.028125 0.01711 0.049992 0.049006 
0.14996 -0.04471 0.0421 0.036182 0.036839 0.04358 0.049335 0.079751 
0.099152 -0.13448 0.10556 0.059364 0.065283 0.054103 0.063474 0.053445 
0.051965 -0.18084 0.12677 0.11346 0.086163 0.046211 0.054596 0.060679 
0.039634 -0.21241 0.094713 0.076627 0.074161 0.029112 0.030427 0.069558 
0.04506 -0.14106 0.049992 0.037826 0.025659 0.023193 0.0059294 0.05065 
0.147 0.2856 0.052787 0.041607 0.015137 -0.0091966 -0.0080457 0.065612 
0.23956 0.6769 0.066105 0.0023123 -0.0016336 -0.0087034 0.026646 0.083533 
0.23003 0.73001 0.077614 0.011355 -0.0024557 0.011355 0.024344 0.098166 
0.17873 0.62396 0.038319 0.0062583 0.0070803 0.021056 0.0085601 0.0019835 
0.11905 0.31322 -0.017088 -0.0070593 0.013164 0.0074092 0.023522 -0.055068 
0.028619 -0.06855 -0.040928 0.01826 0.032729 0.021713 0.055254 -0.027118 
-0.024487 -0.29807 -0.0090322 0.085012 0.063803 0.074161 0.066269 -0.020377 
-0.053753 -0.27999 0.064132 0.083697 0.079751 0.058213 0.029934 0.0098754 
-0.012814 -0.061316 0.11674 0.061172 0.06183 0.019247 0.023522 0.080409 
-0.021034 0.12266 0.077121 0.054925 0.014479 -0.006566 0.01004 0.11921 
-0.07266 0.10491 0.05213 0.030592 0.0080668 0.014643 0.024015 0.1003 
-0.025802 0.18498 0.039141 0.034702 -0.0095255 0.037661 0.022042 0.11296 
0.062652 0.39789 0.068571 0.038483 0.012506 0.017603 0.032729 0.014972 
0.21852 0.49391 0.080244 0.033222 0.0092177 0.032071 0.033551 -0.059178 
0.2218 0.34314 0.058871 -0.015444 -0.001798 0.00099702 -0.012156 -0.065426 
0.069722 0.13549 -0.012649 -0.020541 -0.026296 -0.0049219 -0.014129 -0.01117 
-0.0064016 -0.028762 -0.072003 0.019411 0.005765 0.02533 -0.019555 -0.003771 
0.0037921 -0.16292 -0.045203 0.016781 0.045224 0.010697 0.016781 0.069886 
-0.058521 -0.34986 -0.043888 0.042758 0.069064 0.032236 0.056569 0.10918 
-0.085649 -0.26946 0.047691 0.069886 0.060022 0.03651 0.064954 0.066434 
-0.06444 -0.07825 0.038319 0.055089 0.065283 0.055911 0.043909 0.044896 
0.02533 0.093726 0.016452 0.039634 0.039963 0.042429 0.022864 0.026974 
0.037826 0.12283 0.0090533 0.021713 0.023028 0.0324 0.012506 0.039305 
0.010533 0.13894 0.013164 0.0054362 0.0034632 0.023357 0.023028 0.067585 
-0.0044286 0.23331 0.058377 0.033387 0.034373 0.020727 0.06479 0.10951 
-0.072332 0.25814 0.11115 0.06479 0.060186 0.01152 0.037661 0.099316 
-0.091239 0.2371 0.11954 0.071202 0.056076 0.031085 0.0036276 0.012506 
0.13253 0.31832 0.094384 0.071366 0.063968 0.061666 0.013328 -0.074962 
0.32423 0.19632 0.070051 0.097672 0.069229 0.044238 0.078107 -0.034681 
0.21178 -0.17805 0.020069 0.04358 0.073339 0.044896 0.090931 0.011848 
-0.052109 -0.44407 -0.045039 0.022371 0.054103 0.049664 0.050979 -0.018897 
-0.11623 -0.21554 0.023522 0.044238 0.054103 0.036182 -0.0080457 -0.017088 
-0.041422 0.27705 0.11461 0.040456 0.015137 0.0092177 -0.032872 -0.011334 
0.029769 0.585 0.17149 0.017274 -0.011005 -0.0029489 -0.036983 0.0082312 
-0.06855 0.20142 0.11757 -0.0016336 -0.040271 0.01267 -0.03501 -0.019719 
-0.22589 -0.55127 -0.076606 -0.11113 -0.072332 -0.012978 -0.041751 -0.046683 
-0.35693 -1.2061 -0.27999 -0.16013 -0.05441 -0.016431 0.00033937 -0.059343 
-0.28015 -1.2132 -0.2767 -0.063124 0.019411 0.017438 0.068571 0.0095465 
-0.079237 -0.58974 -0.17312 0.036346 0.086657 0.070873 0.087479 0.050814 
0.020233 0.085835 -0.03764 0.077778 0.081231 0.052459 0.058377 0.065612 
0.12661 0.58861 0.12792 0.12381 0.078436 0.033551 0.022206 0.080738 
0.16574 0.79462 0.18662 0.096686 0.080738 0.021384 0.0046141 0.082711 
0.16097 0.73774 0.17774 0.077121 0.054267 0.027139 0.00083261 0.031578 
0.12398 0.3877 0.12694 0.03536 -0.0064016 0.0052718 -0.010512 -0.076771 
0.086821 -0.13941 0.054267 0.055418 0.038483 0.044731 0.050157 -0.067728 
0.11428 -0.41661 0.055089 0.076463 0.086821 0.055254 0.11494 0.056733 
0.147 -0.23724 0.039141 0.089123 0.082546 0.085012 0.12891 0.15374 
0.072846 -0.0077169 0.048184 0.041607 0.059364 0.03092 0.053938 0.1008 
-0.04882 -0.12429 0.012013 -0.0011404 0.0074092 0.017438 -0.006566 0.03799 
-0.072989 -0.16358 -0.035174 -0.015938 -0.001798 0.0026412 -0.014787 -0.0047575 
-0.0014692 0.011848 -0.042573 -0.0050863 0.01826 0.025659 0.010862 -0.0073881 
0.05213 0.47451 0.049006 0.015465 0.0074092 0.024673 0.00083261 -0.014458 
-0.046683 0.69877 0.095206 0.022206 0.014479 -0.00097594 0.0011614 -0.021034 
-0.18857 0.38803 0.065447 0.0092177 0.028783 -0.0070593 -0.0091966 0.0044497 
-0.033859 -0.045861 0.016288 -0.017417 0.0069159 0.025495 -0.0031133 0.027468 
0.011026 -0.48748 -0.062302 -0.03501 -0.0021268 0.0056006 0.038319 0.03947 
-0.13053 -0.80693 -0.10242 -0.015116 -0.010841 -0.0087034 -0.0095255 -0.055561 
-0.18167 -0.50326 -0.061316 -0.013143 0.018425 0.0028056 -0.0091966 -0.062138 
0.040292 0.13401 0.080738 0.032893 0.049992 0.03947 0.0060938 -0.009361 
0.16229 0.43275 0.12464 0.068242 0.02122 0.023522 0.029605 0.036182 
0.20043 0.39329 0.11165 0.020727 -0.0031133 0.0067515 0.029934 0.048841 
0.20536 0.2491 0.043745 0.011026 0.0028056 0.0023123 0.026974 0.071037 
0.20471 0.1322 0.01826 0.043745 0.024508 0.016452 -0.0054151 0.081231 
0.15933 0.10458 0.020069 0.030098 0.049992 0.016616 0.031414 0.081395 
0.087479 0.032564 0.015301 0.02122 0.071366 0.039141 0.070873 0.099481 
-0.010183 -0.069208 -0.029748 0.0421 0.041114 0.041772 0.052787 0.08567 
-0.078415 -0.15437 -0.055561 0.024837 0.047526 0.047691 0.029276 0.072024 
-0.076771 -0.065097 -0.059507 0.027303 0.055911 0.035195 0.026974 0.0041209 
-0.025474 0.19484 0.043909 0.090767 0.099645 0.063803 0.069393 -0.015609 
0.068407 0.48339 0.077285 0.078929 0.094548 0.038977 0.077449 0.016781 
0.12743 0.56773 0.10244 0.066105 0.074983 0.051801 0.071037 0.058377 
0.046868 0.4584 0.07301 0.043087 0.033058 0.01152 0.023686 0.066927 
0.025001 0.22937 0.099974 0.037826 0.040785 0.0034632 0.01004 0.090109 
0.062323 -0.045039 0.13894 0.057391 0.040456 0.0070803 0.030756 0.11198 
0.071366 -0.20419 0.12727 0.0592 0.043909 0.031742 0.018425 0.099316 
0.078436 -0.16292 0.094384 0.04095 0.00017495 0.02122 0.0031344 0.098166 
0.03651 -0.10094 0.036182 -0.011992 -0.022843 0.0024767 -0.016102 0.074983 
0.045389 -0.064111 0.01152 -0.025145 -0.059343 -0.0026201 -0.018568 0.053774 
-0.033694 0.22838 0.021384 -0.023829 -0.037311 -0.0070593 -0.027447 -0.087786 
-0.075784 0.59519 0.017274 0.0021479 -0.013143 0.0021479 -0.015116 -0.21356 
0.10129 0.61443 0.023522 0.016288 0.011848 0.0087245 0.014479 -0.14648 
0.30039 0.41318 0.020891 0.054432 0.031085 0.030427 0.055747 -0.065591 
0.31799 0.017603 -0.001798 0.067585 0.067749 0.060022 0.088136 0.043745 
0.043416 -0.43766 -0.037311 0.054103 0.043909 0.034702 0.065776 0.10869 
-0.16753 -0.63611 -0.09798 0.035853 0.047197 0.021384 0.042758 0.14864 
-0.11393 -0.2984 -0.045861 0.021878 0.049499 0.032071 0.046868 0.11724 
0.0083956 0.17906 0.045224 0.042265 0.024673 0.062323 0.070051 0.12513 
0.043909 0.21885 0.068078 0.059035 0.040785 0.043251 0.05624 0.11642 
-0.060329 0.050157 0.075476 0.055911 0.046704 0.02829 0.053445 0.12792 
-0.11919 0.085506 0.10326 0.058049 0.064461 0.021056 0.0041209 0.038812 
-0.085485 0.079587 0.066269 0.070708 0.046868 0.0080668 -0.042408 0.0024767 
-0.029748 -0.1552 0.0090533 -0.0039354 0.0014903 -0.010841 -0.039449 -0.064933 
0.12201 -0.28656 0.011848 0.0039565 0.037168 0.01826 -0.012156 -0.19202 
0.34627 -0.25532 0.026481 0.065118 0.045389 0.035853 0.055582 -0.13843 
0.25748 -0.47169 0.07597 0.024673 0.036675 0.084848 0.06479 0.054596 
0.099481 -0.28475 0.030592 -0.010676 -0.020377 0.007738 0.02533 0.10129 
0.13664 0.31256 0.078107 0.034373 -0.021034 -0.006566 0.032729 0.026481 
0.26948 0.72475 0.14437 0.0041209 -0.027282 0.010369 0.033058 0.092082 
0.18974 0.87864 0.12168 0.011848 -0.0022913 0.023522 0.029112 0.085341 
-0.048656 0.6215 0.055747 0.052459 0.02122 0.024673 0.005765 0.058706 
-0.13711 0.33328 0.056404 0.042594 0.041936 0.012506 0.025824 0.023851 
-0.1473 0.03092 0.054267 0.065118 0.083697 0.047033 0.018918 -0.034188 
-0.18561 -0.30925 -0.021528 0.071366 0.050321 0.03536 0.03799 -0.05589 
-0.2305 -0.49159 -0.092719 0.0324 0.051472 0.012835 0.034866 -0.026296 
-0.16802 -0.43947 -0.081374 0.028454 0.03651 0.02533 0.057227 0.037168 
0.077285 -0.17641 0.0070803 0.067913 0.044073 0.031578 0.073175 0.1105 
0.27129 -0.12363 0.041278 0.043087 0.040456 0.038977 0.028947 0.082546 
0.29332 -0.17065 -0.023994 -0.016431 0.021878 0.0093821 -0.01117 0.025659 
0.24104 -0.01939 -0.050464 -0.038462 -0.019226 -0.021856 -0.021199 -0.008539 
0.19237 0.19435 -0.020541 -0.018733 -0.013636 -0.010512 0.0024767 -0.031557 
-0.01676 -0.041257 -0.019226 -0.044546 0.005765 0.0093821 0.0019835 -0.039942 
-0.16161 -0.45624 -0.036325 -0.010019 -0.0067304 0.0032988 -0.0083746 -0.069208 
-0.14665 -0.60816 -0.016595 -0.0040998 0.005765 -0.0022913 0.0054362 -0.039778 
-0.0011404 -0.41316 0.023686 0.012506 0.0042853 0.026152 0.045224 0.03799 
0.13302 -0.28886 0.064461 0.053609 0.036017 0.043087 0.083533 0.11444 
0.15867 -0.15388 0.094877 0.098988 0.058213 0.046046 0.081067 0.11296 
0.09981 0.012342 0.065612 0.071531 0.0421 0.042265 0.06479 0.10606 
-0.0039354 0.20323 0.03651 0.0227 0.022042 0.019083 0.033715 0.045882 
-0.1649 0.36731 0.069229 0.048677 0.015959 0.028947 0.043251 0.021713 
-0.32043 0.41285 0.029112 0.010204 0.0090533 0.01152 0.012999 0.009711 
-0.24645 0.52416 0.015794 -0.024487 -0.011827 -0.0073881 -0.020706 -0.038627 
-0.045861 0.55935 0.024344 0.01152 -0.0055795 0.026974 -0.006566 -0.079895 
0.1641 0.34495 0.03651 0.020398 0.038648 0.034044 0.028947 -0.014293 
0.32308 -0.087129 0.047691 0.097179 0.10228 0.048348 0.086492 0.12792 
0.31026 -0.33145 0.043416 0.13105 0.10951 0.060022 0.13516 0.18629 
0.14272 -0.36384 -0.051944 0.076792 0.098166 0.057227 0.12118 0.17906 
0.0082312 -0.15141 -0.035174 0.041936 0.037826 0.06183 0.07597 0.10951 
0.010533 0.18465 0.029769 0.049664 0.02533 0.04917 0.049499 0.066763 
0.012342 0.28428 0.091425 0.029769 0.017767 0.01415 -0.013965 0.0042853 
-0.0070593 0.2486 0.13056 -0.0049219 -0.03205 -0.0016336 -0.057534 -0.052437 
-0.038791 0.25354 0.072024 -0.03912 -0.060987 -0.027447 -0.084663 -0.063618 
-0.084334 0.21901 -0.0027845 -0.068714 -0.070359 -0.028926 -0.057205 -0.064768 
-0.12067 0.005765 -0.076277 -0.072989 -0.058356 -0.010348 -0.032872 -0.029091 
-0.090088 -0.046847 -0.077593 -0.060987 -0.021528 0.010697 -0.017088 -0.048163 
-0.02794 0.22345 0.035688 -0.059507 -0.052437 0.020891 0.047033 -0.011334 
-0.0036066 0.28034 0.1322 0.019905 0.018754 0.028125 0.044073 0.042923 
0.014479 0.14058 0.11855 0.093726 0.080244 0.03799 0.1202 0.091425 
0.10737 0.23512 0.16015 0.13664 0.10622 0.065612 0.10129 0.11428 
0.23923 0.47813 0.17758 0.16771 0.11477 0.058542 0.10392 0.14469 
0.1978 0.44097 0.17412 0.13549 0.10441 0.055911 0.083204 0.11132 
0.13088 0.25798 0.11494 0.096357 0.045718 0.045718 0.049992 0.058049 
0.067256 0.25354 0.086821 0.035031 0.0093821 0.01711 0.020891 0.050814 
0.029441 0.33114 0.038483 0.043416 0.040785 0.019905 0.020233 0.040785 
-0.014951 0.20734 0.022864 0.037661 0.026317 0.026974 0.020069 0.055418 
-0.13908 -0.15043 0.027139 0.0042853 0.032729 0.01711 0.0082312 0.0011614 
-0.39409 -0.50145 0.0019835 -0.015609 0.054432 0.0060938 0.027468 -0.069208 
-0.51773 -0.54568 -0.025802 -0.0052507 0.00083261 0.027468 -0.0073881 -0.12922 
-0.27127 -0.49257 -0.068714 -0.049314 -0.019555 0.0074092 -0.0049219 -0.080223 
0.13631 -0.19827 -0.058685 -0.053588 -0.044052 -0.022679 -0.014129 -0.011827 
0.44393 0.14831 -0.010841 -0.020212 -0.024487 -0.0022913 0.021384 0.055254 
0.46464 0.40381 0.020069 -0.017253 0.0039565 0.016616 0.035853 0.088794 
0.32078 0.55326 0.072681 0.0018191 0.030756 0.04095 0.043087 0.073997 
0.24038 0.52449 0.08863 0.033551 0.0095465 0.025495 0.029934 0.060515 
0.24236 0.35449 0.091918 0.041114 0.022206 0.030098 0.038155 0.061008 
0.2052 0.2006 0.1248 0.096686 0.087808 0.062981 0.082711 0.11329 
0.094548 0.16179 0.17215 0.16212 0.12431 0.075476 0.099152 0.13532 
-0.034188 0.23364 0.15259 0.11083 0.12431 0.083368 0.081067 0.10589 
-0.22918 0.18119 0.098823 0.075641 0.054925 0.057555 0.036017 0.022371 
-0.34493 -0.11163 0.035524 0.025824 0.025988 0.026152 0.018425 -0.035832 
-0.20518 -0.43338 -0.051122 -0.034023 0.01563 0.0023123 0.017932 -0.023007 
0.11461 -0.46216 -0.059014 -0.045368 0.021056 -0.00064712 0.01267 0.054925 
0.30779 -0.206 -0.0031133 0.015794 0.025824 0.016945 0.0087245 0.06183 
0.14733 0.066927 0.032071 0.0054362 -0.021528 -0.0138 -0.042079 -0.046025 
-0.13366 0.016123 0.016452 -0.014129 -0.03057 -0.014293 -0.0082102 -0.091897 
-0.10028 -0.40478 0.019411 0.014315 -0.0013048 0.0062583 0.02122 -0.023007 
0.030263 -0.64005 -0.024158 0.0093821 -0.014458 0.036182 0.023851 0.07038 
0.017932 -0.26815 0.013164 -0.0011404 0.0085601 0.018754 0.0051074 0.063803 
-0.12182 0.05213 -0.017417 0.017932 0.017932 -0.0044286 -0.012156 0.010204 
-0.1307 0.2006 -0.018404 0.0421 0.032071 0.011026 -0.018404 -0.0044286 
0.027468 0.34216 0.025166 0.0019835 0.044567 0.044402 0.01152 -0.05589 
0.13943 0.20767 0.037497 0.041114 0.0689 0.038155 0.018425 -0.14336 
0.15407 -0.10373 -0.012649 0.047691 0.069393 0.01267 0.0039565 -0.10817 
0.27557 -0.20962 -0.031557 0.0082312 0.057227 -0.00031829 0.035524 0.049006 
0.33854 -0.11278 -0.001798 0.00099702 0.013986 0.0090533 0.020069 0.13582 
0.35646 -0.061809 0.0227 0.018918 0.0026412 0.0056006 0.042758 0.16821 
0.1927 -0.097158 0.059693 -0.034352 0.032071 -0.00015387 0.041772 0.094384 
-0.058028 -0.12823 0.0067515 0.034209 0.054596 0.022864 0.083204 0.10935 
-0.22573 -0.055561 0.02681 0.12612 0.093562 0.06331 0.082546 0.074983 
-0.26881 0.17445 0.021713 0.079422 0.08419 0.068736 0.060844 0.03388 
-0.27209 0.58335 0.023028 0.031085 0.021056 0.010533 0.011848 -0.083676 
-0.3275 0.79446 0.026646 0.013492 -0.043559 -0.025638 -0.036489 -0.1838 
-0.2762 0.46941 0.039305 -0.031392 -0.038791 -0.0080457 -0.033694 -0.15076 
-0.054575 -0.22935 -0.045861 -0.029255 0.00017495 0.0037921 -0.027282 -0.010348 
0.031249 -0.80035 -0.13168 0.035688 0.045718 0.026317 0.030263 0.071202 
0.096357 -0.84491 -0.10735 0.029769 0.036017 0.029934 0.039634 0.072846 
0.29875 -0.51148 -0.082525 0.026317 0.035031 0.046868 0.051636 0.10902 
0.43949 0.041114 -0.003771 0.059035 0.037332 0.045224 0.055418 0.11609 
0.35876 0.43242 0.10228 0.042923 0.039963 0.023686 0.036346 0.097179 
0.20438 0.60242 0.14371 0.035524 0.047033 0.010204 0.02829 0.025659 
0.076299 0.69844 0.10507 0.034044 0.020891 0.034373 -0.006566 -0.012156 
0.023357 0.58878 0.085835 0.013492 -0.014458 0.012342 0.016616 -0.0067304 
-0.081868 0.11609 0.035853 0.0069159 -0.017746 0.0047785 0.0074092 0.010533 
-0.19087 -0.3229 -0.03616 0.021713 0.00099702 -0.0060728 0.0044497 -0.031557 
-0.17624 -0.3127 -0.03057 0.023028 0.020727 0.0065871 -0.0091966 -0.01676 
-0.035832 0.1733 0.0014903 0.037826 0.048019 0.020727 0.058871 0.075476 
0.048019 0.55359 0.036182 0.072353 0.038155 0.034866 0.079258 0.079258 
-0.037476 0.41746 0.039799 0.049992 0.029934 0.03092 0.05065 0.041443 
-0.13053 0.098166 0.027303 0.0028056 0.015794 0.034537 0.0080668 -0.0055795 
-0.099789 0.18152 0.050979 0.0019835 0.0098754 0.022371 -0.0073881 0.015465 
0.016781 0.35975 0.082546 0.0082312 0.0062583 0.0059294 0.029441 0.049992 
0.014479 0.159 -0.0088678 -0.016266 -0.0019624 0.00083261 -0.0016336 0.1008 
0.091918 0.050157 -0.043888 -0.011005 -0.014787 1.0539e-005 -0.025638 0.13401 
0.18711 0.20898 0.019247 0.059528 0.0227 0.010204 0.004943 0.038319 
0.31914 0.16492 0.08008 0.090767 0.068736 0.050979 0.099316 -0.071838 
0.27754 -0.30646 0.029276 0.081231 0.070051 0.062159 0.10639 -0.044217 
0.11214 -0.80989 -0.049971 0.039305 0.070708 0.064132 0.059528 0.040621 
0.089616 -0.79049 -0.089102 0.017438 0.047033 0.041936 0.034537 -0.026624 
0.24104 -0.26338 0.0095465 0.039634 0.046704 0.043251 0.044402 0.043416 
0.27836 0.26521 0.095042 0.063474 0.044073 0.019083 0.058377 0.15801 
0.31404 0.4658 0.16015 0.037168 0.046375 0.04095 0.063639 0.23923 
0.14354 0.51364 0.25863 0.04654 0.046704 0.021549 0.04358 0.16936 
-0.051944 0.82619 0.34018 0.09274 0.0014903 -0.021034 0.00033937 0.058542 
-0.11787 0.97811 0.24515 0.068078 -0.028762 -0.033365 -0.012156 0.012506 
-0.052766 0.84165 0.20355 0.046375 0.00033937 0.0060938 0.020398 0.019083 
-0.14599 0.3489 0.053445 0.033058 0.0018191 0.004943 0.020562 -0.0047575 
-0.31961 -0.31024 -0.1108 -0.053753 -0.016102 -0.060165 0.0013258 -0.059507 
-0.28854 -0.58974 -0.22984 -0.077428 0.0054362 0.0028056 -0.009361 -0.052437 
-0.049642 -0.35545 -0.15207 0.010533 0.033387 0.04654 0.027961 -0.011663 
0.097179 -0.22787 -0.065426 0.020069 0.022864 0.029441 0.0324 0.054432 
0.084355 -0.43766 -0.098802 0.0047785 0.025824 0.04095 0.020727 0.047855 
0.0088889 -0.73525 -0.050464 0.058377 0.060844 0.064461 0.031742 0.065118 
0.14206 -0.49833 0.061008 0.087808 0.075312 0.073175 0.076299 0.10359 
0.33492 0.22789 0.24318 0.097179 0.049335 0.046046 0.073339 0.12053 
0.41203 0.65898 0.31125 0.13812 0.072681 0.048348 0.079094 0.11674 
0.21967 0.59157 0.25107 0.099316 0.035688 0.036839 0.049992 0.070544 
0.02122 0.25715 0.10507 0.022206 -0.014787 0.0074092 0.0082312 -0.017746 
-0.052602 0.013986 0.0075736 -0.013307 -0.0044286 -0.0091966 0.020727 -0.06296 
0.0023123 0.081889 0.0083956 -0.0098543 0.0070803 -0.012485 -0.017417 -0.029913 
-0.17328 -0.10834 -0.008539 -0.026624 -0.038791 -0.0088678 -0.012978 -0.032543 
-0.32438 -0.3742 -0.14385 -0.057534 -0.029584 -0.0067304 -0.019884 -0.055068 
-0.23461 -0.60141 -0.16111 -0.049314 0.0018191 -0.0039354 0.02533 -0.018404 
-0.047669 -0.61029 -0.099953 -0.03057 0.021056 0.029276 0.048513 0.068078 
0.19928 -0.43338 0.024837 0.033222 0.066763 0.052952 0.086492 0.13269 
0.26784 -0.30284 0.13943 0.072353 0.055254 0.03388 0.065283 0.14683 
0.2001 -0.018075 0.19073 0.073997 0.048019 0.035688 0.06331 0.09274 
-0.021199 0.329 0.1659 0.065776 0.03799 0.017932 0.044731 -0.0026201 
-0.12116 0.66079 0.1179 0.058377 0.015959 0.016616 -0.014129 -0.051451 
-0.018733 0.83441 0.10145 0.025166 0.0095465 -0.0064016 -0.025802 -0.049314 
0.041607 0.88291 0.061666 0.007738 0.010697 -0.0138 -0.031064 0.0095465 
-0.094363 0.69893 0.023851 0.012177 0.0018191 0.0095465 0.0031344 0.016781 
-0.28673 0.27507 -0.030242 -0.024323 -0.015116 0.017932 0.0041209 0.01267 
-0.25615 -0.066741 -0.051287 0.011026 0.022864 0.01711 0.038812 -0.04882 
0.049335 -0.35085 -0.0031133 0.10704 0.086328 0.048677 0.088465 -0.096007 
0.20405 -0.52184 0.038812 0.085177 0.11674 0.048677 0.097344 0.00066819 
0.19731 -0.37321 0.049992 0.058377 0.055254 0.049335 0.075805 0.090109 
0.13401 -0.12083 0.029934 0.032236 0.029441 0.018589 0.034209 0.083204 
0.11822 0.040785 -0.01117 0.0052718 0.013492 0.004943 0.0028056 0.080409 
0.14996 0.17676 0.025166 0.023357 0.033387 0.016123 0.025988 0.087972 
0.16262 0.17182 0.053774 0.062817 0.052623 0.040292 0.060022 0.083368 
0.010369 -0.41497 -0.055397 0.0083956 0.034537 0.02829 0.028619 0.051636 
-0.38126 -1.1182 -0.20551 -0.030077 -0.0070593 -0.019555 -0.04323 -0.10637 
-0.61638 -1.1412 -0.19548 -0.039613 -0.011334 -0.014129 -0.065426 -0.13316 
-0.37502 -0.56097 -0.089595 -0.015116 0.013657 0.010697 -0.016266 -0.062302 
-0.031886 0.034044 0.025166 0.024673 0.026481 0.017274 0.034044 0.033222 
0.21753 0.53008 0.13269 0.068407 0.013821 0.034209 0.01152 0.099645 
0.21605 0.81386 0.14881 0.034373 0.0079024 0.013492 0.0075736 0.059364 
0.18267 1.0396 0.11 -0.024158 -0.03057 -0.00031829 -0.021199 0.00083261 
0.17659 1.1003 0.11362 -0.0019624 0.00050378 0.0074092 0.014643 -0.0022913 
0.21589 0.85036 0.11066 0.033551 0.049664 0.046704 0.039799 0.051308 
0.27343 0.39658 0.10721 0.095206 0.11214 0.078272 0.071037 0.084684 
0.18481 -0.18232 0.043416 0.088958 0.10458 0.081395 0.0786 0.1003 
0.1174 -0.8168 -0.033859 0.057884 0.084519 0.059364 0.062817 0.091918 
0.042429 -1.0568 -0.096829 0.024015 0.058213 0.044567 0.08304 0.10113 
0.0069159 -0.85198 -0.11722 -0.0082102 0.038319 0.049006 0.041278 0.070708 
-0.00031829 -0.38554 -0.094199 0.021384 0.04654 0.031414 0.010204 0.025659 
-0.051122 0.14272 0.01152 0.033551 0.077778 0.016781 0.0047785 -0.011334 
-0.056877 0.57628 0.069229 0.045389 0.051143 0.0095465 0.01826 -0.022843 
0.039634 0.73708 0.147 0.055254 0.046868 0.017603 -0.01117 -0.023172 
0.15571 0.65191 0.16114 0.036675 0.013657 0.024673 -0.023336 0.0032988 
0.086163 0.58763 0.13861 0.0052718 -0.0057439 -0.0034422 -0.024158 0.015794 
-0.080881 0.46596 0.16903 0.046375 0.015794 -0.0044286 -0.014622 -0.0055795 
-0.072989 0.46612 0.12891 0.031578 0.0028056 0.021384 0.039963 0.0060938 
0.049499 0.54882 0.097015 0.0028056 -0.013143 0.012342 0.016123 -0.062467 
0.097508 0.20947 0.022864 -0.012814 -0.036489 -0.0004827 -0.019226 -0.02794 
0.057391 -0.29248 -0.062138 -0.061809 -0.023994 0.010697 -0.017253 0.0032988 
0.013986 -0.58267 -0.14582 -0.046683 0.021549 0.010533 0.037332 0.063803 
-0.008539 -0.75415 -0.16309 0.013492 0.052787 0.023357 0.047033 0.047362 
-0.016102 -0.88832 -0.1598 -0.010019 0.029934 0.027468 0.024015 0.040621 
-0.015609 -0.67688 -0.089759 0.0064227 0.027961 0.029441 0.025659 0.047526 
0.027961 -0.078579 0.03536 0.055747 0.037661 0.0324 0.036346 0.080738 
0.076299 0.32818 0.10852 0.05213 0.058213 0.052623 0.038812 0.12036 
0.10721 0.36649 0.13269 0.072024 0.069064 0.033715 0.043251 0.12332 
0.18925 0.29924 0.14058 0.11198 0.01974 0.027303 0.035031 0.12595 
0.16081 0.17626 0.081724 0.060186 0.016452 0.020727 -0.0019624 0.018425 
0.023357 0.18087 0.042429 0.04358 0.026974 0.032564 0.017438 -0.10916 
-0.022679 0.24959 0.047362 0.05624 0.02681 0.049335 0.021384 -0.19318 
0.057227 0.2468 0.077285 0.031742 0.041114 0.024344 0.042265 -0.073647 
0.023851 0.1516 0.046375 0.0056006 0.041772 0.027632 0.039963 0.040292 
-0.070194 0.16508 0.052952 0.02829 0.0098754 0.039963 0.037004 0.099152 
-0.087458 0.11806 0.023193 0.026152 0.0042853 0.021549 0.039305 0.088958 
-0.049314 -0.013965 -0.00015387 0.0047785 -0.0062372 0.0054362 0.015465 0.057227 
-0.025309 -0.060165 0.016288 0.021878 0.011684 -0.0064016 0.032071 0.046868 
-0.0083746 0.080244 0.026481 0.031742 0.021878 0.027796 0.012013 0.037168 
0.019247 0.22082 0.074654 0.069229 0.026152 0.023193 0.027632 0.072353 
0.075805 0.3101 0.082053 0.044238 0.0016547 0.012013 0.012506 0.04506 
0.18317 0.27886 0.062488 0.041607 0.0095465 0.027303 0.016452 0.077614 
0.20224 0.0786 0.015959 0.014315 0.037168 0.038812 0.035688 0.069229 
0.13302 -0.076113 0.0080668 0.0036276 0.026152 0.013164 0.038648 0.056404 
-0.02942 -0.21882 -0.0096899 0.01711 0.040785 -0.0059084 0.058213 -0.0091966 
-0.12248 -0.24825 -0.018075 0.032729 0.039963 0.01974 0.0082312 -0.013636 
-0.023665 -0.13793 -0.029748 0.030756 0.041278 0.052459 0.022371 -0.029748 
0.19106 -0.051122 -0.04471 0.057884 0.044567 0.039141 0.069229 -0.0016336 
0.30549 0.13615 0.00066819 0.024837 0.02533 0.068242 0.10326 0.088136 
0.23677 0.24433 0.069558 0.031414 0.04095 0.036346 0.079258 0.11625 
0.0028056 0.023357 -0.00097594 0.051143 0.021878 0.040621 0.026646 0.074983 
-0.31731 -0.35249 -0.04323 0.020891 0.014643 0.025988 -0.022679 -0.034188 
-0.40889 -0.6024 -0.035832 0.0042853 0.005765 0.01004 -0.020212 -0.067235 
-0.16046 -0.45443 -0.015444 0.059693 0.02829 0.02681 0.0070803 -0.035174 
0.14963 -0.075949 0.071859 0.039799 0.053774 0.046211 0.03651 0.048841 
0.17429 0.062817 0.13006 0.044238 0.03388 0.04506 0.058213 0.078107 
0.25419 0.40611 0.14782 0.094877 0.049828 0.047691 0.066269 0.1202 
0.37915 0.9232 0.22263 0.099316 0.058542 0.055747 0.10195 0.1345 
0.31947 1.0131 0.20487 0.077778 0.036675 0.046046 0.065612 0.071531 
-0.01232 0.60867 0.081067 0.031742 -0.010183 0.00033937 0.0032988 -0.034681 
-0.23132 0.38704 -0.0064016 -0.064768 -0.040435 -0.033859 -0.049478 -0.11179 
-0.21652 0.4584 -0.019719 -0.073318 -0.073811 -0.019226 -0.026789 -0.055068 
-0.10653 0.34709 0.0095465 -0.0049219 -0.023665 0.011355 0.016123 0.025166 
-0.0019624 -0.087458 0.049828 0.0421 0.025659 0.020562 0.047855 0.077449 
0.12085 -0.46775 0.0087245 0.035688 0.049664 0.025166 0.054596 0.095699 
0.11757 -0.5493 -0.015444 0.031249 0.050486 0.041607 0.048348 0.089287 
-0.021692 -0.58185 -0.03057 0.022864 0.03536 0.028619 0.049992 0.015137 
-0.12511 -0.55768 -0.027118 0.0023123 0.04358 0.01711 0.016616 0.0021479 
-0.098802 -0.30317 -0.067728 0.025988 0.037826 0.01974 0.024508 0.0056006 
-0.071345 0.041278 -0.013471 0.02829 0.02533 0.031578 0.011026 -0.018897 
-0.014293 0.34594 0.039963 -0.00081153 0.028947 0.020398 0.024508 0.013821 
0.14519 0.57069 0.09685 0.037332 0.050321 0.013328 0.028783 0.06331 
0.2491 0.45544 0.099316 0.034537 0.047033 0.024508 0.033551 0.10228 
0.12003 0.10819 0.016288 0.027632 0.039305 0.046046 0.044731 0.066927 
-0.01232 -0.13875 -0.038627 0.0069159 0.03092 0.02829 0.020069 0.04654 
0.017603 -0.27407 -0.053095 0.036346 0.035688 0.032236 0.042265 0.078272 
0.12612 -0.15174 0.038319 0.035853 0.046046 0.026974 0.032071 0.12217 
0.15883 0.21441 0.14946 0.02122 0.015465 0.026152 0.0052718 0.068736 
-0.066906 0.35317 0.17643 0.032071 -0.014293 0.0031344 0.0014903 -0.13875 
-0.29972 0.16327 0.1373 0.056076 0.029441 0.039963 0.021384 -0.2014 
-0.13004 0.19895 0.19402 0.11214 0.089616 0.076956 0.058049 -0.043066 
0.16821 0.41253 0.16064 0.10507 0.060844 0.066598 0.058542 0.097179 
0.17034 0.40809 0.09422 0.011355 0.027303 0.029112 -0.0016336 0.098001 
0.15472 0.2736 -0.0096899 -0.020706 -0.049642 -0.0078813 -0.01232 0.10606 
0.25666 0.20142 -0.019061 -0.0055795 -0.001798 0.0011614 0.041443 0.092904 
0.25436 0.021549 -0.13316 -0.039449 -0.0062372 0.0031344 0.033222 0.065447 
-0.0054151 -0.36647 -0.18808 -0.084663 -0.034023 -0.003771 -0.03205 -0.046683 
-0.33408 -0.89736 -0.21718 -0.077922 -0.038298 -0.027775 -0.04882 -0.1233 
-0.41201 -0.99206 -0.13991 -0.06444 -0.016266 -0.015773 -0.02942 -0.13021 
-0.36038 -0.71124 -0.00064712 0.0011614 0.025166 0.017438 -0.0062372 -0.097816 
-0.32717 -0.45953 0.013164 0.061666 0.032729 0.035853 0.014479 -0.059836 
-0.21636 -0.28196 -0.010841 0.021384 0.024837 0.016616 0.02122 0.0079024 
0.044238 0.28872 0.058213 0.044402 0.056076 0.034702 0.056076 0.10737 
0.28823 0.83754 0.15193 0.1179 0.093726 0.0689 0.07597 0.16442 
0.40036 0.83556 0.16607 0.11181 0.063639 0.050321 0.067091 0.21309 
0.26685 0.4043 0.13236 0.083204 0.064132 0.038483 0.04506 0.11658 
0.061172 -0.060823 0.066105 0.049992 0.051801 0.021549 -0.0067304 0.016452 
-0.089595 -0.19482 0.0047785 0.010204 0.032071 0.010862 -0.01117 -0.076935 
-0.0067304 0.081067 0.063474 0.014808 0.034702 0.0032988 -0.0057439 -0.049971 
0.19681 0.37093 0.11428 0.051636 0.036675 0.022535 0.040128 0.052623 
0.25617 0.38425 0.13647 0.070873 0.048841 0.032729 0.07038 0.10902 
0.1345 0.28165 0.14552 0.034537 0.047197 0.030756 0.068736 0.0786 
-0.033694 -0.077264 0.017274 0.016452 0.050814 0.025988 0.044567 0.028454 
0.0013258 -0.42187 -0.07266 0.0014903 0.044073 0.029769 0.0067515 0.058377 
0.093069 -0.61227 -0.1358 -0.012978 0.025988 0.019905 0.016781 0.08156 
0.08304 -0.80677 -0.16555 -0.016595 0.021549 0.039799 0.060844 -0.013307 
0.0014903 -0.9845 -0.15536 0.011848 0.017438 0.021056 0.069886 -0.10456 
-0.12889 -0.86135 -0.085978 0.010862 0.044238 0.029441 0.073175 -0.018897 
-0.079072 -0.19564 -0.032872 0.025001 0.0324 0.027139 0.027468 0.022371 
0.023851 0.53074 0.031249 0.02533 -0.011334 0.0062583 -0.018075 0.018425 
0.096686 1.0306 0.073997 -0.028762 -0.04471 -0.017417 -0.057699 -0.013471 
0.086492 1.0102 0.095206 -0.019555 -0.036489 -0.016266 -0.033037 0.014808 
0.071859 0.49818 0.093562 0.033551 0.01152 -0.011663 0.020233 0.098494 
0.10441 0.23331 0.14453 0.075312 0.065118 0.057391 0.061172 0.11576 
0.15028 0.51035 0.21539 0.090931 0.084848 0.046046 0.060844 0.10622 
0.19385 0.89015 0.26998 0.15226 0.07449 0.031742 0.064461 0.072024 
0.10343 0.75648 0.2297 0.076792 0.066105 0.01563 0.034044 0.013986 
-0.028433 0.24893 0.091096 -0.0021268 -0.019555 0.0093821 -0.011663 -0.042901 
-0.10949 -0.255 0.026646 -0.040271 -0.035503 -0.017582 -0.017417 0.0064227 
-0.059672 -0.58925 -0.11459 -0.071509 -0.045039 -0.027447 -0.042737 0.021549 
-0.070687 -0.45147 -0.12429 -0.064604 -0.028433 -0.019555 0.025495 -0.0047575 
-0.08828 -0.39294 -0.042573 0.040128 0.014643 0.0046141 0.0051074 -0.014129 
-0.057534 -0.32947 -0.018897 0.018589 0.013821 0.01974 0.020233 0.049499 
-0.0044286 -0.0503 -0.022514 0.0036276 0.017274 0.015301 -0.0021268 0.047526 
0.19336 0.35366 0.066105 0.048513 0.020069 0.046211 0.033715 -0.0075525 
0.37455 0.43308 0.099645 0.074161 0.065612 0.048348 0.069064 0.030098 
0.30286 0.22361 0.017767 0.042265 0.041114 0.054596 0.061172 0.036182 
0.068571 -0.13744 -0.1016 0.038977 0.049006 0.063145 0.053774 0.045718 
-0.14648 -0.38949 -0.084334 0.027632 0.037332 0.048184 0.04095 0.068571 
-0.22557 -0.41448 0.012835 0.032729 0.048019 0.042429 0.053445 0.095535 
-0.085485 -0.18989 0.10688 0.063639 0.070215 0.03388 0.026481 0.12414 
0.1276 0.19665 0.1077 0.061501 0.052623 0.022535 0.017274 0.11346 
0.28461 0.55688 0.10376 0.035688 0.016452 0.023193 0.0059294 -0.10324 
0.3655 0.74497 0.11872 0.039305 0.038812 0.042265 0.049335 -0.12856 
0.31404 0.63925 0.1008 0.02533 0.037004 0.029441 0.087643 0.095699 
0.11724 0.40578 0.075148 0.016452 0.021549 0.023851 0.073175 0.18218 
-0.068057 0.089123 0.04095 0.0039565 0.019576 0.025495 0.061995 0.13154 
-0.10604 -0.21586 -0.041751 0.021056 0.0037921 0.012013 0.0046141 0.050157 
-0.072496 -0.28426 -0.030406 0.0098754 0.0032988 0.011355 0.012999 0.045224 
0.010204 0.023686 0.057555 0.052459 0.031085 0.031907 0.023028 0.052787 
0.15292 0.37356 0.12365 0.10556 0.030756 0.026152 0.031249 0.062323 
0.20602 0.33081 0.15752 0.076792 0.030098 0.014808 0.0044497 0.0041209 
-0.011992 -0.18479 0.14585 0.067091 0.034209 -0.0016336 -0.016595 -0.10669 
-0.20879 -0.63167 0.043416 0.058049 0.017932 -0.0082102 -0.018239 -0.15405 
-0.13908 -0.52085 -0.039613 -0.004593 0.021384 0.031742 0.0021479 -0.076113 
0.042429 -0.12708 -0.080881 -0.057205 -0.0049219 0.023522 0.0088889 0.047691 
-0.22803 -0.27982 -0.11491 -0.05737 -0.025309 -0.018897 -0.016266 0.018754 
-0.62871 -0.50836 -0.18759 -0.10883 -0.04323 -0.048163 -0.0055795 -0.036983 
-0.53203 -0.21866 -0.14977 -0.073482 -0.0087034 0.016123 0.005765 -0.023829 
-0.095021 0.37635 -0.073482 0.026152 0.011026 0.04506 0.0227 0.096193 
0.24597 0.78016 0.10935 0.085835 0.077285 0.066105 0.076299 0.084355 
0.58894 1.1108 0.32473 0.19451 0.14437 0.073997 0.16755 0.0592 
0.69285 1.0911 0.414 0.24844 0.16788 0.10063 0.1659 0.096686 
0.42962 0.42025 0.29431 0.15456 0.10392 0.061666 0.10129 0.15653 
0.12612 -0.55554 0.031578 0.050486 0.029276 0.01004 0.034866 0.11872 
-0.1279 -1.2025 -0.19794 -0.020212 -0.014951 0.0088889 -0.001798 0.043087 
-0.30646 -1.2334 -0.26913 -0.084005 -0.014787 0.011848 0.0042853 -0.00064712 
-0.18364 -0.82041 -0.23181 -0.052931 0.015301 0.013164 0.0019835 -0.0138 
-0.032872 -0.45081 -0.194 -0.030406 0.023193 0.010369 -0.0039354 -0.0088678 
0.0689 -0.081703 -0.12215 -0.020048 0.013164 0.016781 0.016288 -0.0019624 
0.10211 0.34232 -0.026296 -0.019061 0.026481 0.06035 0.028619 0.061995 
0.042758 0.6529 0.11214 0.010204 0.0011614 0.023686 0.0092177 -0.0040998 
-0.035503 0.80548 0.19895 0.049335 -0.0019624 -0.0060728 0.0021479 0.015301 
-0.053917 0.90922 0.29365 0.072353 0.031578 0.005765 0.0011614 0.0083956 
-0.090417 0.8405 0.36517 0.11362 0.028783 0.023686 0.0011614 0.014972 
-0.055232 0.70518 0.33196 0.098988 0.0014903 0.0093821 0.023028 -0.01232 
-0.0027845 0.49687 0.2103 0.062488 0.00050378 0.01563 0.01826 -0.0040998 
-0.022843 0.082875 0.03799 0.0090533 -0.010183 0.0052718 0.00099702 0.0021479 
-0.045203 -0.33737 -0.15848 -0.026131 -0.00031829 0.015137 0.015465 -0.0062372 
-0.0091966 -0.6463 -0.26683 -0.050958 0.014808 0.015137 0.038319 0.02122 
0.14716 -0.7165 -0.22261 -0.024323 0.048348 0.036182 0.067256 0.088465 
0.17856 -0.56031 -0.1085 0.045718 0.066434 0.08156 0.052294 0.11115 
0.044896 -0.33079 -0.017746 0.029605 0.051308 0.067913 0.030592 0.05624 
-0.13251 -0.093541 0.063474 0.012342 0.004943 0.022864 -0.018733 -0.013471 
-0.20485 0.14552 0.11691 0.051472 0.029934 -0.010019 -0.0047575 -0.046847 
-0.22145 0.31799 0.12842 0.022371 -0.0014692 -0.028597 -0.015609 -0.041257 
-0.10686 0.35646 0.046046 -0.019061 -0.008539 0.023522 -0.0021268 -0.020377 
0.08419 0.36632 0.0064227 0.012835 0.0074092 0.036675 0.033551 0.048677 
0.26505 0.44031 0.025659 0.014479 0.027303 0.025495 0.053116 0.12398 
0.32111 0.43521 0.083533 0.049335 0.047197 0.0037921 0.045224 0.089945 
0.31799 0.3831 0.1151 0.080244 0.049992 0.019247 0.0054362 0.042429 
0.26685 0.29744 0.14157 0.084355 0.042758 0.028947 0.022042 0.018096 
0.069064 0.0087245 0.10524 0.045224 0.038155 0.025824 0.032236 0.0023123 
-0.05589 -0.22392 0.020398 0.052952 0.029934 0.029769 0.050979 0.063145 
-0.0091966 -0.21422 0.015794 0.013821 0.050321 0.04095 0.039305 0.095371 
-0.069208 -0.28738 0.0042853 0.024179 0.048348 0.030098 0.02681 0.058377 
-0.21241 -0.25993 -0.003771 0.022864 0.018096 -0.0068948 -0.00064712 -0.0021268 
-0.21488 -0.16736 0.019083 -0.0098543 -0.011498 -0.014787 0.00083261 0.0067515 
-0.071345 0.073339 0.064954 0.0031344 0.0047785 0.0090533 0.0011614 0.023357 
0.053938 0.12381 0.026481 0.047691 0.036839 0.036675 0.010204 0.058871 
0.035853 -0.10176 -0.030735 0.043909 0.043251 0.045553 0.012177 0.053609 
-0.051122 -0.27538 -0.074633 -0.012814 0.022371 0.021713 0.012999 -0.026789 
-0.072167 -0.22096 -0.095349 0.016945 0.0014903 0.028783 0.044731 -0.087622 
0.098659 0.076463 0.033551 0.068078 0.058213 0.036346 0.051801 0.010204 
0.22164 0.20947 0.15653 0.11773 0.10359 0.055254 0.065283 0.12546 
0.14157 -0.10784 0.10113 0.088136 0.079587 0.054103 0.054596 0.14026 
-0.012649 -0.43585 0.011684 0.04917 0.056898 0.033058 0.058542 0.055582 
0.046868 -0.4638 -0.0067304 0.01974 0.02122 0.025824 0.034373 -0.0091966 
0.28823 -0.2208 0.0088889 0.015137 0.021713 0.016781 0.023686 0.032564 
0.33525 0.034044 0.027468 0.023522 0.0028056 0.014808 0.046704 0.085341 
0.17807 0.30483 0.051965 -0.004593 -0.0031133 0.030592 0.037826 0.086821 
0.01152 0.75549 0.061337 0.0064227 0.017438 0.013164 0.0056006 0.05476 
-0.021034 1.1636 0.11822 0.067913 0.012999 0.0019835 -0.011334 0.015794 
0.011848 1.0386 0.089452 -0.004593 -0.016595 -0.015773 -0.049971 -0.05178 
0.025495 0.29152 0.023686 0.0039565 -0.015444 -0.0047575 -0.042901 -0.062302 
-0.018733 -0.72045 -0.023829 0.045553 0.017767 0.012177 0.039963 -0.024323 
-0.12708 -1.3314 -0.063618 0.02829 0.054596 0.027961 0.069722 0.035031 
-0.1473 -1.2252 -0.063782 0.042265 0.072681 0.046211 0.070215 0.065776 
-0.076442 -0.45509 -0.0021268 0.051636 0.042594 0.056898 0.055582 0.095206 
0.11099 0.43965 0.072846 0.012835 0.021713 0.031085 0.056733 0.090603 
0.17708 0.816 0.052952 -0.010841 -0.02087 0.013657 0.032729 0.068078 
0.18037 0.69154 0.065776 0.03536 -0.0011404 0.020891 0.020891 0.065283 
0.19057 0.50608 0.041114 0.015794 0.05476 0.038483 0.024837 0.044238 
0.15867 0.17955 0.029276 0.030592 0.022042 0.025659 0.016288 0.013986 
0.10704 -0.031392 -0.0011404 0.0227 0.0060938 0.0014903 0.011026 -0.024652 
0.05476 -0.10653 -0.060823 -0.046025 -0.037311 0.00017495 -0.027447 -0.058521 
0.018589 -0.14993 -0.041915 -0.040928 -0.025309 -0.0016336 -0.03616 -0.080881 
-0.074798 -0.2471 0.020398 0.038483 0.0042853 0.012506 0.0039565 -0.032872 
-0.20847 -0.40412 -0.02498 0.015465 0.043745 0.0067515 0.038155 -0.004593 
-0.25483 -0.30333 -0.021692 -0.014622 -0.014129 0.030427 0.063803 0.010697 
-0.12905 0.051801 0.03536 0.070544 0.048348 0.039141 0.066269 0.058871 
0.15522 0.42387 0.14469 0.10458 0.095535 0.041114 0.057062 0.13565 
0.35925 0.61804 0.19369 0.10803 0.089616 0.046046 0.066434 0.18169 
0.33903 0.52909 0.16952 0.1128 0.082711 0.040456 0.047855 0.12661 
0.09126 0.2662 0.061501 0.032893 0.025001 0.0064227 0.013821 0.031742 
-0.07266 0.054432 0.028783 0.01826 0.0082312 0.0026412 -0.0021268 -0.073976 
0.018754 0.053116 0.070051 0.055582 0.027961 0.026974 0.031085 -0.045368 
0.11576 0.025659 0.059528 0.059364 0.033715 0.055582 0.055089 -0.022514 
0.076792 -0.18643 -0.033859 0.00066819 0.028454 0.024508 0.051636 -0.021363 
0.12743 -0.25187 -0.11541 -0.023336 0.025001 0.011684 0.038812 0.029934 
0.25321 0.04917 -0.12297 -0.020541 0.010697 0.023686 -0.0034422 0.10408 
0.20454 0.33476 -0.043066 -0.028597 -0.012649 0.017603 0.014479 0.094055 
-0.048985 0.24285 -0.027611 -0.021692 -0.016431 -0.0027845 0.013986 0.030263 
-0.19581 0.10145 -0.0044286 -0.01117 -0.015116 -0.017088 -0.0080457 0.01563 
-0.34197 0.10819 0.025659 -0.030406 -0.0078813 -0.044546 -0.040764 -0.047669 
-0.48748 0.24334 0.080902 -0.025638 -0.029748 -0.0032777 -0.052766 -0.10357 
-0.47251 0.51232 0.14749 0.033551 -0.024323 0.010697 -0.045532 -0.1478 
-0.22836 0.48109 0.14897 0.032893 0.0059294 0.019247 0.010697 -0.084005 
0.183 0.28856 0.12085 0.026152 0.063968 0.012177 0.043251 0.0075736 
0.37126 -0.011498 0.087314 0.086657 0.066763 0.062981 0.044731 0.11346 
0.19764 -0.34674 0.041936 0.047691 0.070708 0.036017 0.063803 0.079751 
0.033058 -0.51493 0.046704 0.072517 0.082546 0.025166 0.085341 0.084026 
0.025988 -0.28919 0.08419 0.11609 0.08863 0.05624 0.079916 0.09833 
0.040785 0.0324 0.12529 0.069064 0.063474 0.069229 0.064625 0.063803 
0.028619 0.12513 0.043745 0.03536 0.026152 0.0095465 0.019576 0.040128 
0.0083956 0.071695 0.029276 0.021056 0.019576 -0.0083746 0.0013258 -0.0032777 
-0.028433 0.10326 -0.013965 -0.023829 0.00017495 -0.014787 -0.00031829 -0.010512 
-0.073318 0.10359 -0.046025 -0.022021 0.0042853 0.01711 0.012013 -0.0034422 
-0.03764 0.048184 -0.034188 0.026481 0.029276 0.0227 0.027139 0.037168 
0.064132 0.082875 -0.019719 0.011026 0.036182 0.0227 0.059035 0.048019 
0.03388 0.13286 -0.0088678 0.013164 0.034373 0.02533 0.052952 0.053609 
-0.044546 0.24005 0.056076 0.064296 0.041443 0.033715 0.032564 0.025001 
-0.030735 0.31503 0.10343 0.034866 0.01826 0.02681 0.021056 0.0227 
0.065118 0.34988 0.075476 0.043251 0.023686 0.033387 0.026646 0.035688 
0.084684 0.24137 0.077121 0.065283 0.042429 0.044896 0.027632 0.052787 
0.099316 0.060515 0.084519 0.058377 0.063145 0.04917 0.062159 0.082875 
0.11181 -0.15536 0.062817 0.062981 0.059364 0.02533 0.061008 0.091589 
-0.024816 -0.48238 -0.004593 0.023357 0.005765 0.01826 0.017767 0.039799 
-0.11607 -0.62525 -0.0004827 0.025824 0.0019835 -0.003771 -0.022185 -0.051287 
-0.12083 -0.55587 -0.0138 0.0019835 -0.012485 0.0093821 -0.025638 -0.034845 
-0.0091966 -0.3349 0.013657 0.013657 0.0013258 -0.0016336 -0.023172 0.031085 
0.19155 0.054267 0.0013258 0.020233 0.035031 0.024179 0.0082312 0.08419 
0.2634 0.28445 0.0075736 0.0054362 0.026974 0.025166 0.00017495 0.070051 
0.12562 0.21819 0.014643 -0.013307 0.0062583 0.016945 0.012177 -0.0098543 
0.060679 0.014643 0.063968 0.069229 0.049992 0.033551 0.066598 -0.0014692 
0.10211 -0.008539 0.10655 0.11559 0.093562 0.075641 0.12414 0.087479 
0.029276 0.30566 0.14174 0.12118 0.10096 0.065283 0.11987 0.20224 
-0.27555 0.56444 0.15489 0.083862 0.071037 0.053281 0.036182 0.10984 
-0.52118 0.52762 0.14502 0.052952 0.034044 0.0079024 -0.0072237 -0.010183 
-0.38472 0.48947 0.11872 0.030098 0.011684 -0.023994 -0.063124 -0.067728 
0.034373 0.39608 0.010533 -0.025967 -0.032708 -0.021528 -0.0771 -0.093705 
0.35646 0.14568 -0.12577 -0.12198 -0.059343 -0.0138 -0.057041 -0.12544 
0.60193 -0.17723 -0.14484 -0.089759 -0.021199 0.0019835 0.025824 -0.025638 
0.67707 -0.57675 -0.121 -0.0087034 0.014643 0.024344 0.08978 0.1276 
0.51002 -0.7803 -0.035503 0.025659 0.025824 0.036182 0.068736 0.17725 
0.20898 -0.66274 0.041607 0.052294 0.03536 0.051472 0.048841 0.15505 
0.023028 -0.45426 -0.027447 0.075476 0.044731 0.038483 0.039799 0.098659 
0.013821 -0.27982 -0.055561 0.06035 0.080244 0.049828 0.055747 0.093233 
-0.0049219 -0.11886 -0.030077 0.067091 0.085999 0.029112 0.06594 0.01711 
-0.10176 -0.030077 -0.026296 0.05476 0.052952 0.060679 0.060679 0.038319 
-0.089102 0.0024767 0.03092 0.0088889 0.063968 0.044402 0.031085 0.019411 
-0.0027845 0.034866 0.041443 0.019411 0.051636 0.031414 0.041278 0.073339 
-0.084827 -0.018568 -0.0054151 0.069064 0.05065 0.028783 0.022864 0.043909 
-0.15224 0.1978 0.046375 0.02829 0.026646 0.019576 0.0060938 -0.022185 
-0.14681 0.53781 0.13976 0.03651 0.017438 0.0092177 0.011191 -0.039778 
-0.046519 0.72853 0.22164 0.038483 -0.016595 -0.014622 -0.02235 -0.069701 
0.059857 0.58845 0.21819 0.06035 -0.0021268 -0.0052507 0.0080668 -0.025638 
0.090109 0.19139 0.058049 0.028783 0.0014903 0.015794 -0.011663 -0.028104 
0.12694 -0.11837 -0.060329 0.009711 0.030263 0.017932 0.011684 0.054596 
0.094384 -0.38932 -0.1233 -0.0091966 0.038977 0.021713 0.073832 0.069558 
0.065447 -0.40856 -0.121 -0.0036066 0.042594 0.038155 0.068571 0.066598 
0.11806 -0.23625 -0.05326 0.024673 0.066927 0.03947 0.067913 0.041114 
0.14634 -0.082525 0.010697 0.048513 0.054596 0.035031 0.05772 0.080738 
0.14864 0.073339 0.02829 0.039963 0.052787 0.02829 0.042758 0.082382 
0.17462 0.42124 0.049499 0.035688 0.045882 0.032071 0.038483 0.063639 
0.15818 0.68266 0.082382 0.030756 0.0042853 0.019411 0.030427 0.057391 
0.096357 0.53025 0.080573 -0.018897 -0.032872 -0.0050863 -0.025638 -0.0054151 
-0.078744 0.11395 0.094713 -0.025145 -0.042079 -0.032708 -0.04471 -0.037476 
-0.14582 -0.20584 0.091753 0.040456 -0.0088678 0.0070803 -0.027118 -0.096994 
-0.044217 -0.077264 0.081395 0.054103 0.044073 0.028125 0.016452 -0.078415 
0.043251 0.17824 0.077778 0.045553 0.033222 0.0082312 0.025166 -0.038627 
0.007738 0.024344 0.040621 0.036017 0.0072447 0.015301 0.012999 0.038155 
-0.10982 -0.30235 0.010862 -0.0039354 -0.012649 0.021056 0.029276 0.031907 
-0.12873 -0.34953 -0.016595 -0.0039354 -0.004593 0.013164 0.015137 0.055089 
-0.058192 -0.050793 0.044073 0.047197 0.01711 -0.0078813 0.030427 0.047855 
-0.017088 0.26965 0.078436 0.076627 0.058049 0.026646 0.043251 0.06035 
0.076463 0.45922 0.11395 0.095535 0.055254 0.064296 0.060186 0.086985 
0.19237 0.57464 0.11395 0.091425 0.028454 0.04917 0.055911 0.13532 
0.18974 0.49605 0.11937 0.051965 0.029605 0.021056 0.057555 0.096028 
0.11543 0.39197 0.089452 0.058377 0.042923 0.015137 0.029112 -0.037969 
0.041114 0.28231 0.071531 0.10425 0.072846 0.047691 0.005765 -0.073154 
0.0046141 0.072517 -0.017417 0.043909 0.054103 0.037004 -0.0032777 -0.046025 
-0.078579 -0.32734 -0.12494 -0.027447 -0.0039354 0.01267 -0.0040998 0.034702 
-0.16523 -0.61062 -0.20797 -0.038133 -0.033694 0.021056 0.043251 0.041114 
-0.18249 -0.74577 -0.21521 -0.095843 -0.038791 -0.0024557 0.01004 0.0047785 
-0.18939 -0.81417 -0.10308 -0.087622 -0.02794 -0.016431 -0.032379 -0.047998 
-0.16144 -0.47564 0.02829 -0.0016336 0.022864 -0.012156 -0.022843 -0.00064712 
-0.067564 0.33985 0.19287 0.074654 0.047197 0.023357 0.052623 0.05213 
-0.017911 0.77095 0.25896 0.10507 0.059035 0.057062 0.055418 0.044896 
-0.008539 0.58927 0.24285 0.12447 0.050814 0.038155 0.023357 -0.0027845 
0.075312 0.12233 0.1493 0.083368 0.051965 0.03947 0.042594 -0.017582 
0.22213 -0.097487 0.14009 0.015959 0.081395 0.0098754 0.028947 0.04917 
0.19139 -0.03353 0.062652 0.04506 0.057227 0.037826 0.039963 0.091425 
0.08978 0.20339 0.034209 0.058213 0.0227 0.010204 -0.004593 0.027961 
0.12036 0.27721 -0.030735 0.020891 0.022206 -0.0019624 -0.047505 -0.10752 
0.24186 0.33903 -0.014293 0.02122 0.02533 0.0016547 0.024508 -0.042901 
0.27557 0.66474 0.1077 0.092082 0.054103 0.039634 0.066434 0.15423 
0.14256 0.82948 0.21819 0.063803 0.03799 0.0324 0.03799 0.19632 
-0.27012 0.25337 0.073997 0.0036276 -0.032708 0.00099702 -0.014458 0.054432 
-0.57149 -0.33786 -0.034681 -0.031886 -0.036983 -0.021856 -0.060165 -0.13218 
-0.37847 -0.35841 -0.050464 -0.017582 -0.021034 0.028125 -0.045203 -0.13168 
0.027303 -0.19712 -0.066577 -0.016924 0.029769 0.036839 0.056404 -0.014293 
0.24893 -0.079072 -0.082196 0.0028056 0.05624 0.034866 0.073668 0.097344 
0.20092 -0.036818 -0.064111 -0.0049219 0.038648 0.037661 0.06594 0.086163 
0.14831 -0.12988 -0.070687 0.0080668 0.039963 0.056076 0.047362 0.083368 
0.07449 -0.3691 -0.041257 0.045553 0.04917 0.027139 0.038483 0.10343 
0.063639 -0.33128 -0.0014692 0.046046 0.06742 0.013164 0.034702 0.08863 
0.077285 -0.1381 0.042429 0.046375 0.042923 0.0093821 0.009711 0.096193 
0.079094 -0.061809 0.073997 0.049664 0.055582 0.028619 -0.0013048 0.059693 
0.055418 -0.063124 0.099974 0.037497 0.039634 0.021549 0.020233 0.033058 
0.044073 -0.047998 0.062159 0.053609 0.046046 0.050979 0.05624 -0.043559 
-0.0060728 -0.27538 -0.0082102 0.074983 0.048513 0.056404 0.053774 -0.031228 
-0.074469 -0.54173 -0.109 0.0070803 0.031578 0.052787 0.048019 0.0023123 
-0.050629 -0.51312 -0.098802 0.0092177 0.024179 0.0324 0.051472 0.092904 
-0.0062372 -0.19318 0.0037921 0.034702 0.025988 0.026317 0.04095 0.096357 
0.035031 0.061666 0.10129 0.030263 -0.00081153 0.026152 0.023686 0.073832 
0.1151 0.50131 0.16048 0.050979 0.030098 0.019083 0.018425 0.043909 
0.20323 1.0051 0.21424 0.075476 0.029441 0.015794 0.013492 0.058871 
0.18399 1.1626 0.21868 0.061501 0.045224 0.010697 0.0041209 0.017438 
0.11395 0.93618 0.16886 0.01267 0.013821 0.0013258 -0.0052507 -0.020377 
-0.0011404 0.4043 0.094548 -0.036325 -0.055232 -0.0019624 -0.065097 -0.10637 
-0.11475 -0.084498 -0.036489 -0.059178 -0.051451 -0.024323 -0.080881 -0.15306 
-0.003771 -0.065262 -0.046847 -0.044381 -0.03057 -0.0014692 -0.039449 -0.087458 
0.16064 0.059528 -0.041751 -0.021528 -0.0059084 -0.0068948 0.0227 0.011026 
0.16607 -0.00064712 -0.026624 0.027139 0.037826 0.058213 0.046704 0.094713 
0.10803 -0.15454 0.020891 0.065118 0.080902 0.059364 0.082382 0.14075 
0.049006 -0.28295 0.030427 0.091589 0.092576 0.067913 0.099152 0.14913 
-0.051615 -0.35134 -0.01528 0.070215 0.04917 0.050814 0.076792 0.11609 
-0.1279 -0.3959 -0.030406 0.025001 0.024015 0.039305 0.065612 0.07597 
-0.029913 -0.31386 -0.034023 0.0072447 0.034702 0.0062583 0.033058 0.082217 
0.091096 -0.16325 -0.018075 0.022042 0.038155 -0.0052507 0.037332 0.11329 
0.10918 -0.071838 0.03092 0.041936 0.046704 -0.0042642 0.046211 0.081724 
-0.027611 -0.07003 0.069886 0.046375 0.027632 0.029441 0.04095 -0.062138 
-0.069536 -0.073482 0.041936 0.050157 0.024179 -0.0138 0.051143 -0.041751 
-0.037147 -0.042737 0.040456 0.025824 0.031414 -0.0091966 0.018754 0.0023123 
-0.0052507 0.085506 0.064461 0.029276 0.035031 -0.018897 0.0064227 0.068736 
0.10819 0.32736 0.068407 0.039141 -0.00081153 0.0037921 0.0062583 0.090603 
0.16344 0.39822 0.033715 -0.011663 -0.016102 0.0093821 0.019576 0.088794 
0.082711 0.23858 0.017603 0.0075736 0.0054362 0.024015 0.014479 -0.014293 
0.064461 0.22624 0.045389 0.086328 0.049335 0.052459 0.028125 -0.080059 
0.096028 0.19418 0.063803 0.078107 0.07597 0.059364 0.048019 -0.038298 
0.10984 0.090603 0.0324 0.033387 0.053281 0.033551 0.05476 0.022535 
0.11346 0.069229 0.025166 0.013821 -0.011992 0.0028056 0.027139 0.084848 
0.061995 0.13894 0.06035 0.0072447 -0.003771 0.024508 0.010369 0.08419 
-0.11886 0.16607 0.063639 0.01152 0.027632 0.05065 0.019905 0.017438 
-0.23033 0.18662 0.05476 0.047362 0.030098 0.03947 0.014479 -0.047505 
-0.10554 0.19764 0.063145 0.055582 0.064954 0.04506 0.046046 0.0019835 
0.014808 -0.021199 0.0047785 0.051308 0.061172 0.059528 0.060515 0.035031 
-0.067892 -0.42171 -0.033694 0.038812 0.037497 0.042923 0.033387 0.014972 
-0.18923 -0.71091 -0.034352 0.020233 0.031249 0.0095465 0.020398 -0.019555 
-0.14155 -0.5784 -0.059343 0.015301 0.037168 0.015465 0.040621 -0.011498 
0.06183 -0.17756 0.037004 0.046046 0.064461 0.0024767 0.040128 0.053445 
0.22016 0.16278 0.071859 0.052787 0.054596 0.027632 0.049006 0.10195 
0.21293 0.414 0.058871 0.0034632 0.032893 -0.017253 0.019411 0.12628 
0.18596 0.60982 0.032071 0.016288 -0.0029489 -0.0098543 0.034044 0.10244 
0.17265 0.30155 0.0056006 0.025988 0.0052718 0.0052718 0.035031 0.083368 
0.082875 -0.1136 -0.017253 0.030592 0.032236 0.02681 0.0036276 -0.0040998 
0.11494 0.01152 0.059528 0.066269 0.077943 0.025001 0.0054362 -0.029255 
0.25337 0.43669 0.15275 0.099481 0.053938 0.035031 0.050321 0.025988 
0.18235 0.59141 0.15883 0.065118 0.031414 0.0592 0.074819 0.056404 
0.0034632 0.36073 0.13878 0.0324 0.00066819 0.035195 0.025495 0.022042 
-0.15487 0.077778 0.05065 -0.0044286 -0.036983 0.013657 -0.027775 -0.043395 
-0.20403 0.040621 -0.085978 -0.099789 -0.062467 -0.024487 -0.06444 -0.086142 
-0.13826 0.10918 -0.084498 -0.10637 -0.075949 -0.012485 -0.052273 -0.10308 
-0.047341 0.19649 0.0046141 0.0065871 -0.023665 0.014808 -0.017911 -0.058356 
0.14798 0.22213 0.046046 0.040785 0.0421 0.039634 0.028125 0.038483 
0.3318 0.21441 0.062159 0.075476 0.060186 0.045718 0.074983 0.12135 
0.26192 -0.056877 0.042758 0.074654 0.067091 0.053281 0.053116 0.090603 
-0.16095 -0.8311 -0.020377 -0.011663 0.027303 0.0032988 0.051472 -0.052437 
-0.42533 -1.0697 -0.11771 -0.023829 0.015794 0.011848 0.015137 -0.099131 
-0.22425 -0.45492 -0.022021 0.020891 0.046046 0.0067515 0.0082312 -0.013636 
-0.0067304 0.19714 0.081067 0.042429 0.039305 0.045553 0.027632 0.055089 
0.072846 0.42025 0.14305 0.082875 0.049828 0.035195 0.034702 0.086328 
0.10655 0.34495 0.092082 0.086492 0.084848 0.041936 0.055254 0.087972 
0.048841 0.21983 0.037332 0.046046 0.058049 0.034373 0.045718 0.080409 
0.10326 0.1613 0.02533 0.037168 0.041443 0.030756 0.051308 0.10195 
0.24729 0.13549 0.025001 0.039799 0.016452 -0.0078813 0.039141 0.07301 
0.26044 0.098823 0.0093821 0.00033937 -0.013965 -0.049314 0.021384 0.040621 
0.22493 0.17939 0.03947 -0.0057439 0.0034632 -0.024323 -0.0032777 -0.0013048 
0.18514 0.20684 0.024344 0.0065871 1.0539e-005 0.02122 -0.023501 0.0227 
0.093233 0.10014 0.042429 0.027139 -0.0022913 0.031414 -0.01676 0.010533 
-0.032379 -0.013965 0.048841 0.014315 0.0069159 0.037826 0.012506 0.023851 
-0.13744 -0.027611 0.058871 0.0088889 0.0046141 0.030427 0.030427 0.0024767 
-0.11886 0.0060938 0.040621 0.019083 0.0028056 0.043251 0.028619 0.0082312 
-0.06 -0.083018 0.031742 -0.0026201 0.035031 0.051801 0.020069 0.02829 
-0.070194 -0.2374 -0.057699 -0.012156 0.031249 0.038648 0.021384 0.021549 
-0.16703 -0.11689 -0.052273 -0.0080457 -0.0096899 0.017932 0.020727 -0.024487 
-0.12807 0.20553 -0.018568 -0.018404 -0.014129 0.024015 -0.016595 -0.069043 
0.050486 0.33278 0.042265 0.0056006 0.011355 0.0062583 -0.0014692 -0.023501 
0.12957 0.18695 0.049006 0.037661 0.033715 0.013657 -0.0082102 0.063639 
0.094384 -0.037476 -0.0021268 0.017438 0.038648 0.037826 0.04917 0.12431 
0.040621 -0.073811 0.0042853 0.059693 0.070544 0.049992 0.085835 0.09833 
0.052787 0.06183 0.099974 0.13138 0.076792 0.050321 0.092904 0.12743 
0.090931 0.14585 0.14535 0.11806 0.10014 0.040785 0.093233 0.037168 
0.10441 0.068242 0.13236 0.10408 0.093891 0.024179 0.11444 -0.097816 
0.073175 -0.16966 0.050157 0.060022 0.041443 0.00017495 0.080902 -0.050136 
-0.071674 -0.15816 -0.062796 -0.075455 -0.052602 -0.04471 0.027796 0.012506 
-0.074798 -0.078908 -0.074304 -0.046519 -0.046847 -0.029584 -0.017253 0.081067 
-0.08269 -0.33358 -0.051122 0.011684 0.022371 0.0046141 -0.021856 0.087808 
-0.067728 -0.50819 -0.068386 -0.010512 0.038648 0.055747 -0.019719 0.092411 
0.0036276 -0.30399 0.0098754 0.03092 0.057391 0.0689 0.0421 0.12053 
0.11855 0.12266 0.13154 0.080902 0.084026 0.08156 0.083368 0.15686 
0.059364 0.33788 0.11855 0.056404 0.043416 0.054267 0.071366 0.1105 
-0.033201 0.24712 0.081724 0.019411 0.023028 0.047362 0.023522 0.044238 
-0.047505 0.086985 0.0032988 0.036839 0.0042853 0.01415 -0.0021268 -0.033201 
-0.020212 0.077614 -0.04882 0.0021479 0.021713 0.0087245 -0.012485 -0.075127 
-0.006566 0.031742 -0.038298 0.023851 0.054267 0.036675 0.016123 -0.069208 
0.0067515 -0.11985 -0.001798 0.069722 0.074654 0.08304 0.058542 0.023028 
0.071366 -0.16029 -0.0073881 0.094384 0.094055 0.055747 0.066105 0.099974 
0.11214 -0.1085 0.012999 0.066927 0.074161 0.059693 0.072188 0.11296 
0.035688 -0.20074 0.015301 0.05772 0.035688 0.029112 0.062323 0.10852 
-0.0062372 -0.19334 0.01152 0.014972 0.029934 0.027139 0.026317 0.070708 
0.12447 0.16689 0.069393 -0.03912 -0.023007 0.013328 0.0062583 0.028619 
0.29776 0.59305 0.15423 0.014315 -0.0047575 -0.011992 0.020398 -0.037147 
0.25041 0.9324 0.19649 0.042758 -0.014293 -0.029255 -0.0078813 -0.057863 
0.11806 1.0651 0.24219 0.031085 -0.018897 0.010533 -0.014129 -0.026624 
0.016945 0.73691 0.16936 0.0032988 -0.019884 -0.012156 -0.025638 -0.0091966 
-0.082361 0.30138 0.093891 -0.0095255 -0.018404 -0.023007 -0.041586 -0.0029489 
-0.081703 0.051801 0.062159 0.01004 0.01974 -0.03353 -0.018404 -0.0047575 
0.0083956 -0.023007 0.037332 0.042265 0.050157 0.043745 0.047033 0.056404 
0.0041209 -0.27292 -0.0138 0.06742 0.056404 0.04095 0.040292 0.049006 
-0.11787 -0.80594 -0.12757 0.0036276 0.033222 0.02829 0.030756 0.0324 
-0.14599 -0.91594 -0.2037 -0.014129 0.050979 0.03092 0.063639 0.036839 
-0.12626 -0.73031 -0.18446 0.0064227 0.0067515 0.049335 0.048348 0.029441 
-0.07562 -0.32684 -0.058192 -0.010841 0.0067515 0.02122 0.018096 0.01267 
0.04917 0.11625 0.048841 0.0324 0.0054362 -0.014293 0.0046141 0.018918 
0.18333 0.45083 0.098494 0.050979 0.012999 -0.0032777 0.013657 0.029441 
0.24466 0.57776 0.11296 0.03799 0.042265 0.039141 0.045224 0.036839 
0.2389 0.51791 0.11987 0.056404 0.047855 0.025001 0.03092 0.065447 
0.19928 0.51315 0.15061 0.077285 0.035688 0.037497 0.027632 0.072024 
0.12743 0.4921 0.15522 0.044896 0.027303 0.02122 0.028947 0.066598 
0.049992 0.36583 0.10524 0.061666 0.032236 0.039634 0.031249 0.044238 
0.0016547 0.24992 0.095864 0.079422 0.039305 0.020891 0.015465 0.024015 
0.015301 0.27294 0.091425 0.042923 0.033551 0.005765 -0.0062372 -0.015773 
0.00066819 0.17034 0.063474 0.0032988 -0.047012 0.00083261 -0.049314 -0.034188 
-0.03764 -0.18413 0.017274 -0.00081153 -0.0055795 0.0087245 0.0046141 -0.038791 
0.014808 -0.30695 0.030756 0.018918 0.010204 0.020398 0.01267 0.012177 
0.087314 -0.15964 0.079094 0.065118 0.059857 0.032893 0.034702 0.070873 
0.018918 -0.1524 0.08156 0.076463 0.054267 0.042429 -0.0049219 0.04917 
-0.11245 -0.29199 -0.020377 -0.010512 -0.009361 0.010369 -0.02942 0.0036276 
-0.14993 -0.27982 -0.11146 -0.076442 -0.049314 -0.015938 0.017932 -0.023665 
-0.06296 -0.22951 -0.14467 -0.083676 -0.06296 -0.016102 0.0088889 0.013492 
0.10359 0.051308 -0.10554 -0.025802 -0.011992 0.017932 0.040621 0.066763 
0.25633 0.37981 -0.015773 0.019083 0.031907 0.039305 0.050979 0.11444 
0.24466 0.42223 0.030427 0.044238 0.082546 0.026974 0.064625 0.08863 
0.063474 0.41598 0.058377 0.098494 0.095042 0.041607 0.085177 0.035853 
-0.047834 0.37323 0.080573 0.089616 0.084026 0.075476 0.084519 -0.019061 
-0.11886 0.13878 0.10869 0.080573 0.047197 0.082382 0.08008 -0.034188 
-0.14911 -0.21981 0.084355 0.073339 0.043416 0.038483 0.042594 -0.010512 
-0.035174 -0.63693 0.086492 0.052787 0.037168 0.0227 0.044238 0.047691 
0.13878 -0.89818 -0.0064016 0.030098 0.025824 0.0093821 0.010697 0.090767 
0.13351 -0.75218 -0.060165 0.013492 0.0064227 0.035524 0.0095465 0.073504 
-0.070194 -0.34608 -0.058028 0.00017495 0.020727 0.020398 0.018096 0.072681 
-0.14961 0.11 -0.0029489 0.022042 0.051308 0.031742 0.04506 0.060186 
-0.075949 0.50624 0.01974 0.058542 0.062488 0.033058 0.06742 0.074161 
-0.10143 0.42962 -0.0039354 0.025001 0.048019 0.035688 0.034866 0.060186 
-0.01676 0.31404 0.055254 0.032729 0.013164 0.028125 0.026152 -0.0040998 
0.23792 0.30122 0.10737 0.052459 -0.00031829 0.025495 0.037004 0.019083 
0.30368 0.2269 0.095864 -0.016102 -0.027611 -0.017746 0.0019835 0.0062583 
0.23331 0.18777 0.062981 -0.036818 -0.037147 -0.0004827 -0.034188 -0.056383 
0.24055 0.29793 0.010369 -0.0062372 -0.0013048 -0.0040998 -0.019226 -0.060987 
0.2805 0.41696 0.028454 -0.0049219 -0.011663 -0.0070593 -0.00097594 0.044567 
0.14174 0.32966 0.047855 0.016288 0.0047785 0.032236 0.021878 0.069393 
-0.0040998 0.063803 0.0087245 0.047033 0.038319 0.039305 0.039634 0.049499 
-0.060329 -0.14763 0.035688 0.046704 0.074326 0.052459 0.037826 0.016288 
-0.087129 -0.25467 0.067585 0.080902 0.11559 0.051801 0.061008 0.030427 
-0.16753 -0.38077 0.024837 0.079422 0.098823 0.087643 0.068242 0.033551 
-0.425 -0.65419 -0.06 0.013328 0.031578 0.050486 0.068078 -0.0098543 
-0.59533 -0.79855 -0.13136 -0.038462 -0.0088678 0.013492 0.013657 -0.074633 
-0.47334 -0.75383 -0.14928 -0.052109 -0.010676 0.013657 0.00066819 -0.057205 
-0.11212 -0.40182 -0.052602 -0.016102 0.0095465 0.031578 0.020233 0.04358 
0.31322 0.11691 0.055418 0.049335 0.045882 0.04654 0.039799 0.11937 
0.45149 0.58171 0.09422 0.058377 0.019905 0.03092 0.043909 0.15341 
0.39082 0.95065 0.14404 0.049499 0.011026 0.021878 -0.0039354 0.055747 
0.23742 1.0592 0.12825 0.037497 0.00066819 0.0082312 -0.028269 -0.051122 
0.065118 0.88966 0.084355 0.013328 -0.023829 0.0069159 -0.03205 -0.17394 
0.12316 0.65224 0.069064 0.012013 -0.0078813 -0.024816 -0.028926 -0.10916 
0.24038 0.43193 0.051143 0.0032988 -0.0047575 -0.013307 -0.0088678 0.013328 
0.20208 0.20273 0.06183 0.042429 0.027139 0.01711 0.024508 0.10672 
0.1419 0.067256 0.094548 0.068407 0.061501 0.040621 0.073504 0.083533 
0.047691 0.027796 0.12233 0.063639 0.074819 0.040128 0.072024 0.086985 
-0.043066 -0.11985 0.11526 0.063474 0.067091 0.04654 0.07038 0.099481 
-0.11705 -0.31238 0.077285 0.053116 0.058377 0.042265 0.010533 0.046211 
-0.13875 -0.22507 0.018918 0.023357 0.027961 0.019247 -0.0075525 1.0539e-005 
-0.051122 -0.030406 0.043745 0.023686 0.032071 0.0034632 0.0042853 -0.029255 
0.045553 0.085999 0.019247 0.082546 0.057555 0.032729 0.053938 0.062159 
0.048348 0.06742 -0.0098543 0.048184 0.057062 0.043416 0.069229 0.082053 
-0.0091966 0.0092177 -0.0042642 -0.0011404 0.018754 0.028947 0.028783 0.065776 
0.021056 0.029605 0.086492 -0.0057439 0.0031344 0.0013258 0.038483 0.053609 
0.15883 -0.14665 0.039963 -0.0042642 -0.0083746 0.0019835 0.042758 0.086985 
0.064461 -0.49389 -0.036818 0.0026412 0.0065871 0.039963 0.0046141 0.035524 
-0.069372 -0.50112 -0.05589 0.055747 0.042429 0.029769 0.024179 -0.069865 
0.0041209 -0.15421 -0.010348 0.073668 0.09126 0.044238 0.037826 -0.087293 
0.082711 0.026974 0.035524 0.041443 0.078272 0.039963 0.031907 -0.041586 
0.048677 0.2269 0.031249 0.065776 0.029769 0.0324 0.049499 0.022042 
-0.11294 0.63021 0.036182 0.0036276 -0.0138 -0.018075 0.0067515 0.00297 
-0.20879 0.66194 0.054432 -0.030406 -0.031886 -0.028597 -0.032708 -0.0073881 
-0.11853 0.51167 0.033058 -0.004593 -0.038462 -0.026296 -0.025802 0.027796 
-0.042737 0.16114 0.031414 -0.018075 -0.003771 0.018425 0.00083261 0.048513 
0.014479 -0.1575 0.024344 -0.0091966 0.0072447 0.030592 0.021713 0.072188 
0.038977 -0.30021 0.033551 0.0042853 0.012342 0.024673 0.040292 0.10474 
0.06035 -0.24727 0.058706 0.030427 -0.0022913 -0.0049219 0.050979 0.11625 
0.11806 -0.093541 0.096193 0.053609 0.037332 0.027303 0.048348 0.069064 
0.18333 -0.077264 0.091425 0.08304 0.077449 0.03536 0.056569 0.052294 
0.15176 -0.22754 0.025001 0.079258 0.087479 0.035031 0.031414 0.027303 
-0.0049219 -0.32865 0.00297 0.054103 0.056733 0.02681 0.034044 0.027139 
-0.13251 -0.19959 -0.033365 0.021056 0.04358 0.073175 0.020069 0.01004 
-0.14451 0.013164 -0.057699 0.04095 0.06331 0.042758 0.061501 0.022864 
-0.10406 -0.037969 -0.080388 0.00083261 0.04654 0.040785 0.060515 0.038977 
0.026646 -0.13908 -0.044546 0.013821 0.054267 0.024015 0.051965 0.11954 
0.21309 -0.091732 0.025166 0.052952 0.054432 0.040292 0.058871 0.049499 
0.34857 0.068736 0.081067 0.038812 0.033551 0.046046 0.082382 0.0036276 
0.33377 0.21046 0.10228 0.056404 0.0592 0.048348 0.10195 0.081724 
0.11543 0.028947 0.070544 0.035031 0.027961 0.0069159 0.01267 0.059528 
0.066269 -0.089759 0.035688 -0.003771 0.018918 0.0014903 -0.02794 0.033551 
0.14946 0.074161 0.11724 0.039141 0.034044 0.0060938 0.00066819 0.045718 
0.095699 0.28527 0.20142 0.082711 -0.0016336 0.012177 0.0031344 0.022371 
-0.11968 0.16853 0.093233 -0.018897 -0.062631 -0.024323 -0.043724 -0.068221 
-0.28426 0.00033937 -0.081539 -0.070359 -0.057863 0.014972 -0.030077 -0.071345 
-0.37403 -0.11179 -0.11475 -0.0091966 0.031907 0.032564 0.010862 -0.062467 
-0.27061 0.031414 -0.070359 0.014972 0.067913 0.048184 0.026646 -0.035667 
-0.25713 0.11115 -0.078415 0.00033937 0.036346 0.027632 0.016123 -0.067235 
-0.36663 -0.098967 -0.095021 -0.021528 -0.014622 0.01415 -0.023994 -0.087786 
-0.18709 -0.14582 -0.042737 -0.01117 -0.0054151 -0.0019624 -0.013143 -0.013636 
0.23364 0.086328 0.093069 0.062159 0.027961 0.013657 0.018754 0.13828 
0.47122 0.22148 0.17478 0.10852 0.06594 0.023686 0.0592 0.20651 
0.43094 0.096686 0.18235 0.059857 0.077943 0.048184 0.067091 0.12891 
0.33722 0.010862 0.12233 0.029769 0.033058 0.038812 0.037332 0.073832 
0.31618 0.13154 0.075805 0.034209 0.028125 -0.018404 -0.017582 0.0052718 
0.31223 0.52597 0.0227 -0.010676 0.021056 0.014808 0.0028056 0.024015 
0.31634 0.83491 0.052952 -0.024652 0.0070803 0.042758 0.0031344 0.011355 
0.17445 0.5702 0.019411 0.016616 0.0079024 0.0047785 0.02533 0.035853 
-0.03057 0.0028056 -0.023665 0.015301 -0.0096899 0.032564 0.032729 0.024015 
-0.088937 -0.20205 -0.0064016 0.03947 0.048513 0.052294 0.064461 0.041114 
-0.07562 -0.23362 0.031742 0.079094 0.084519 0.096357 0.071531 0.036017 
-0.18791 -0.23313 -0.0052507 0.070544 0.050321 0.038319 0.042923 -0.023007 
-0.18298 -0.043066 -0.0052507 0.029441 0.061666 -0.0011404 0.012835 -0.030077 
-0.12412 -0.0059084 0.019576 0.0019835 0.015959 0.018096 -0.0062372 -0.024652 
-0.062302 -0.0014692 0.042429 0.025988 0.0011614 0.029769 -0.017417 -0.012814 
0.10376 0.31125 0.12858 0.011684 -0.013636 0.0092177 0.0088889 0.018754 
0.26225 0.69581 0.20651 0.04654 0.018425 0.013328 0.028947 0.076956 
0.20668 0.58171 0.18021 0.078272 0.038977 0.028125 0.041443 0.076627 
0.08978 0.15176 0.12661 0.057227 0.053774 0.045718 0.020727 0.073175 
0.074654 -0.13727 0.058871 0.029441 0.0060938 0.020562 0.021713 0.077285 
0.21243 0.037826 0.03799 0.042265 0.012342 0.014643 0.022371 0.082711 
0.19994 0.29448 0.041772 0.01563 -0.010019 0.0036276 0.004943 0.019411 
-0.051615 0.15193 -0.089266 -0.057699 -0.029255 -0.0064016 -0.029913 -0.095678 
-0.20814 -0.022843 -0.12034 -0.05737 -0.020541 -0.0024557 -0.0087034 -0.079237 
-0.21175 -0.19104 -0.073976 0.0046141 0.033222 0.035524 0.0421 -0.035996 
-0.17542 -0.42237 0.0021479 0.065118 0.046704 0.053281 0.041772 0.014479 
-0.10735 -0.42451 0.024673 0.079751 0.058542 0.069064 0.045389 0.056569 
0.084519 -0.027282 0.06594 0.048513 0.047691 0.038155 0.047197 0.12381 
0.26307 0.24433 0.033058 0.017603 0.049499 0.034702 0.075641 0.068242 
0.21013 -0.10308 -0.0096899 0.045389 0.039634 0.013821 0.076134 0.03536 
0.037332 -0.48139 -0.085485 -0.017911 -0.0024557 -0.0014692 0.025495 0.066434 
-0.069536 -0.27867 -0.056219 -0.0082102 0.0019835 0.0021479 -0.0013048 0.054925 
-0.0087034 0.17922 0.054432 0.089616 0.025824 0.01004 0.034373 0.026481 
0.11083 0.15259 0.12825 0.079751 0.062981 0.036017 0.08156 0.059857 
0.087808 -0.15733 0.072517 0.068078 0.04917 0.054596 0.038155 0.13713 
-0.11607 -0.28443 0.005765 0.055418 0.017438 0.016452 -0.010019 0.0592 
-0.16276 0.051965 0.034866 0.024015 0.009711 0.020069 -0.015609 -0.04882 
0.076463 0.52005 0.12053 0.053774 0.026974 0.020398 0.026317 -0.089759 
0.21046 0.73231 0.20569 0.099974 0.035853 0.015465 0.026481 0.0054362 
0.10885 0.61755 0.19007 0.048348 0.027468 -0.011498 0.017767 0.046704 
-0.00081153 0.1932 0.10211 0.020398 0.0070803 0.00033937 0.007738 0.036839 
0.039305 -0.2545 -0.0032777 0.00297 -0.0070593 0.027139 0.029441 0.086657 
0.029276 -0.4781 -0.088444 -0.0036066 0.00083261 0.023522 0.044896 0.069886 
-0.098802 -0.6343 -0.15437 -0.017253 -0.020377 0.020891 0.026317 0.056898 
-0.13843 -0.51263 -0.11294 -0.0055795 0.021384 0.042429 0.045882 0.072681 
-0.1427 -0.36729 -0.060658 0.030756 0.062817 0.023522 0.046375 0.12102 
-0.11212 -0.34559 -0.064604 0.021384 0.060844 0.053774 0.048348 0.041772 
-0.059178 -0.1455 -0.019719 0.012342 0.04917 0.029605 0.025495 -0.0771 
-0.017253 0.16936 -0.016102 0.041443 0.029605 0.0098754 0.035031 -0.093376 
0.055911 0.46711 0.085999 0.051472 0.050486 0.021549 0.032236 0.011848 
0.12299 0.56675 0.15686 0.042758 0.035524 0.020891 0.014315 0.034702 
0.14601 0.59782 0.14733 0.029276 0.0079024 -0.0096899 -0.025474 -0.020706 
0.19829 0.44755 0.082217 -0.033365 -0.035174 -0.012814 -0.043066 -0.021692 
0.10195 0.02829 0.023686 -0.028597 -0.034681 -0.011992 -0.028597 0.0054362 
-0.056219 -0.27275 0.00099702 0.0087245 -0.0064016 0.013328 -0.0096899 0.0052718 
-0.030899 -0.14369 0.05624 0.043087 0.048184 0.032893 0.059035 0.00066819 
0.086657 0.12875 0.091425 0.050814 0.09126 0.03651 0.06183 0.085999 
0.13697 0.16015 0.061172 0.087479 0.074326 0.04506 0.050979 0.096686 
0.046046 0.10228 0.045718 0.072517 0.072024 0.045882 0.042265 0.13203 
-0.040106 0.060515 0.060515 0.091425 0.073339 0.041114 0.044567 0.10655 
-0.060165 -0.040106 -0.0011404 0.09126 0.087643 0.048019 0.058213 0.091096 
-0.018075 -0.18002 -0.066084 0.0026412 0.047691 0.025659 0.036182 0.048677 
-0.013143 -0.3663 -0.070194 -0.025474 0.029441 0.031742 0.025988 0.015137 
-0.027447 -0.47186 -0.083512 0.018918 -0.012156 0.013986 -0.029255 -0.021034 
0.069722 -0.33589 0.0037921 0.0023123 0.017767 0.0016547 0.0028056 -0.0070593 
0.16656 -0.011992 0.071695 0.029112 0.026152 0.032893 0.02829 0.072846 
0.16771 0.34676 0.10885 0.080244 0.033551 0.025659 0.033058 0.054432 
0.090109 0.5434 0.1105 0.040456 0.040621 0.023193 0.036182 0.049828 
-0.0095255 0.6118 0.084684 -0.020212 -0.013965 -0.0055795 0.0060938 -0.043888 
0.036017 0.74168 0.071531 0.0079024 -0.019061 -0.0027845 -0.021692 -0.037805 
0.13779 0.7328 0.08978 0.0047785 -0.017746 -0.0026201 -0.039284 -0.029584 
0.12875 0.46185 0.063639 0.0044497 0.020398 0.015465 -0.0036066 0.01004 
0.0075736 0.061995 0.029769 0.041772 0.038812 0.022535 0.031085 0.0023123 
-0.13053 -0.23017 0.037826 0.063803 0.079751 0.048348 0.078436 0.020233 
-0.15207 -0.26141 0.055254 0.052787 0.063968 0.053938 0.067585 0.012506 
-0.14204 -0.27489 -0.015116 0.038977 0.053774 0.031249 0.046375 0.0052718 
-0.19219 -0.30876 -0.068057 0.017274 0.030756 -0.0024557 0.024508 0.0046141 
-0.14451 -0.3229 -0.03205 0.022371 0.05213 0.0421 0.069229 0.087972 
0.022535 -0.27637 0.024344 0.044402 0.085177 0.054925 0.078272 0.13039 
0.22592 -0.1381 0.046046 0.047855 0.047526 0.037004 0.039634 0.08863 
0.27228 0.15292 0.055747 0.0082312 0.019411 0.024179 0.020398 0.092082 
0.29645 0.64369 0.06742 1.0539e-005 -0.0057439 0.0046141 0.039799 0.075476 
0.24581 0.889 0.062488 -0.022843 -0.029913 -0.0029489 0.049335 0.072846 
0.068736 0.55589 0.014972 -0.024323 -0.017253 -0.0067304 -0.0031133 -0.040928 
-0.098967 0.15456 0.071531 0.018754 0.0047785 0.018096 -0.025638 -0.1085 
-0.22737 -0.24283 0.09685 0.061995 0.0052718 0.026974 -0.013307 -0.1182 
-0.13777 -0.52578 0.033387 0.059035 0.063968 0.048841 0.06742 0.012506 
0.059693 -0.51066 0.040128 0.085835 0.098001 0.027632 0.10343 0.12743 
0.12151 -0.26322 0.00066819 0.066598 0.070051 0.029112 0.024837 0.099316 
0.16031 0.018918 -0.0070593 -0.015116 0.03947 0.015794 -0.020377 0.053774 
0.11937 0.3119 0.062652 -0.021528 -0.018568 -0.003771 -0.040764 -0.010348 
0.060022 0.46103 0.10063 0.040621 -0.0040998 -0.0078813 -0.004593 -0.020377 
-0.073976 0.5189 0.11609 0.024179 0.0060938 0.0041209 0.014808 -0.070687 
