0.055418 0.14634 0.15176 0.041443 0.0092177 0.019411 0.0080668 0.0067515 
0.048348 0.11444 0.11757 0.069558 0.01415 0.026974 0.01415 -0.0072237 
0.04358 0.10014 0.069558 0.034537 0.032893 0.033222 0.031578 0.010697 
0.039963 0.08419 0.038977 0.050979 0.0074092 0.01826 0.031085 0.029605 
0.041772 0.010204 0.023357 0.061666 0.021384 0.021056 0.023193 0.042923 
0.048513 -0.021692 0.034537 0.039141 0.019905 0.018918 0.032729 0.069229 
0.01974 0.047197 0.031414 0.033222 0.034044 0.043087 0.047362 0.048184 
0.028619 0.076627 -0.0060728 0.056569 0.064132 0.028947 0.054596 0.051308 
0.039141 0.043087 -0.052931 0.031742 0.046375 0.015465 0.021384 0.023193 
-0.0059084 0.029769 -0.084334 0.0031344 0.0026412 0.029276 0.018918 0.012013 
-0.066906 0.0011614 -0.089266 -0.030077 -0.023994 0.0070803 0.023028 -0.024487 
-0.065919 -0.054246 -0.087458 -0.01676 -0.012485 -0.0021268 0.028454 -0.017911 
-0.018568 -0.058521 -0.023829 -0.001798 0.0087245 -0.0032777 0.027632 0.021878 
0.014808 -0.028433 -0.028104 0.0046141 0.018425 0.019083 0.012835 0.038319 
0.051636 -0.010841 -0.030242 0.007738 0.0037921 0.01974 0.017274 0.041772 
0.052294 -0.033201 -0.01117 -0.017417 -0.0062372 0.026974 0.023522 0.042265 
0.055747 0.025166 0.050814 -0.024158 -0.011663 0.015301 0.042758 0.04654 
0.069229 0.06035 0.12365 0.010369 0.0087245 0.023357 0.031742 0.040292 
0.10902 0.1077 0.16229 0.021384 0.055911 0.028125 0.035195 0.060515 
0.13549 0.11691 0.12924 0.047691 0.033551 0.077121 0.031249 0.038155 
0.095535 0.11707 0.085012 0.092576 0.056733 0.0421 0.054925 0.071859 
0.029112 0.094548 0.071366 0.06594 0.030098 0.084355 0.063145 0.037826 
-0.033037 0.069558 0.015301 0.02681 0.030263 0.03536 0.02829 0.030592 
-0.042737 0.099316 0.0019835 0.038319 0.040292 0.021384 0.056404 0.025001 
-0.0064016 0.10228 0.032729 0.026317 0.053445 0.017932 0.021878 0.034866 
0.054596 0.12053 0.052787 0.0082312 0.044402 0.035524 0.017603 0.044073 
0.06331 0.086492 0.019247 0.039963 0.032236 0.016781 -0.0024557 0.012342 
0.039305 -0.01528 -0.0080457 0.0069159 0.00033937 0.0070803 -0.0040998 0.0028056 
-0.019061 -0.060329 -0.048985 -0.016102 0.0021479 -0.0016336 0.0088889 -0.022843 
-0.019884 -0.086964 -0.063124 0.0070803 0.0037921 0.012999 0.020069 -0.026296 
-0.049807 -0.10143 -0.09387 -0.028433 -0.015773 -0.0021268 0.005765 -0.039942 
-0.057863 -0.084005 -0.10439 -0.0055795 -0.0138 0.00099702 0.0075736 -0.023829 
-0.021363 -0.023501 -0.091568 0.047362 0.0024767 0.016123 0.038648 0.01415 
0.0098754 -0.013471 -0.062467 0.0013258 0.019083 0.039305 0.045224 0.035195 
0.059528 -0.03501 -0.009361 0.017767 0.034537 0.024673 0.047033 0.072353 
0.091918 0.027139 0.06183 0.03092 0.0689 0.038319 0.043745 0.077449 
0.10869 0.10491 0.087643 0.034537 0.059857 0.044896 0.037332 0.069229 
0.080409 0.10819 0.055911 0.033715 0.030756 0.044896 0.03388 0.047691 
0.051801 0.05772 0.022535 0.039634 0.030756 0.026317 0.048348 0.046868 
0.036017 0.015137 0.0069159 0.040456 0.019083 0.017274 0.033387 0.023522 
0.061501 0.039634 0.040456 0.017438 0.030427 0.031085 0.022864 0.049006 
0.063803 0.022535 0.048513 0.03092 0.035524 0.024673 0.019083 0.025001 
0.043251 0.041443 0.02533 0.044402 0.019576 0.0095465 0.020727 0.041607 
-0.017417 0.066763 0.041772 0.026481 0.029112 -0.013143 0.0095465 0.0054362 
-0.056712 0.031578 0.018425 -0.0068948 -0.0042642 0.019576 0.0044497 -0.0039354 
-0.081045 0.060515 0.046211 0.023357 0.0062583 0.0079024 -0.014293 -0.012978 
-0.042079 0.086163 0.087479 0.015301 0.032564 0.010862 -0.0044286 -0.024158 
-0.0011404 0.073997 0.1026 0.046868 0.03651 -0.0039354 0.026152 -0.021692 
0.018425 0.047526 0.039799 0.054596 0.038483 0.022535 0.020727 -0.0032777 
0.0421 -0.0068948 0.0018191 0.022206 0.029769 0.024344 0.026974 0.05476 
0.021384 -0.013307 0.00083261 0.0018191 0.026646 0.013164 0.026974 0.047691 
0.025659 -0.039942 -0.0047575 0.028783 0.05065 0.016616 0.034209 0.0689 
0.05213 -0.014293 0.044896 0.034702 0.036182 0.046046 0.054267 0.058213 
0.060515 0.069064 0.06742 0.051472 0.042429 0.031249 0.035853 0.047691 
0.032729 0.085999 0.048348 0.057062 0.047197 0.03651 0.015959 0.045553 
0.027961 0.11132 0.056569 0.035195 0.044896 0.014643 0.009711 0.037168 
0.033058 0.15538 0.079422 0.023522 0.045389 0.0047785 0.031578 0.0227 
0.043745 0.14453 0.088301 0.046704 0.054103 0.012835 0.032236 0.033222 
0.073339 0.1077 0.11444 -0.029748 0.038483 -0.0070593 0.035195 0.041772 
0.11132 0.11099 0.072846 0.029934 0.046211 0.016945 0.015465 0.033551 
0.12431 0.11346 0.060515 0.087479 0.071859 0.067256 0.018918 0.056733 
0.10704 0.13088 0.097837 0.035524 0.046704 0.025659 0.043416 0.05772 
0.066434 0.18202 0.14404 0.027796 0.045224 0.041278 0.020727 0.031249 
0.034209 0.16015 0.15883 0.072681 0.05772 0.044567 0.01152 0.025495 
-0.0096899 0.091918 0.14239 0.049335 0.050157 0.046868 0.023028 0.034209 
0.0092177 0.08715 0.073997 0.017603 0.046868 0.018918 0.01563 0.054267 
0.071859 0.13154 0.069229 0.009711 0.039634 0.022535 0.041114 0.055418 
0.11888 0.093891 0.053281 0.00033937 0.05213 0.011684 0.035195 0.055254 
0.056404 0.030427 0.066105 0.0093821 0.0227 0.01563 0.015794 0.04358 
0.014808 0.031085 0.1054 0.034702 0.033551 -0.0019624 0.011191 0.01826 
-0.010841 0.10606 0.087972 0.061172 0.01563 -0.0032777 0.027139 0.016123 
0.02829 0.080738 0.059364 0.062981 0.030427 0.026646 0.009711 0.03947 
0.048348 0.034537 0.032564 0.097672 0.055747 0.036182 0.019411 0.030098 
0.042758 -0.0078813 -0.01676 0.11263 0.081067 0.032071 0.037497 0.024673 
0.0324 -0.076771 -0.047341 0.079751 0.037661 0.03651 0.058871 0.014972 
0.037826 -0.072825 -0.033037 0.052952 0.016452 0.042265 0.059035 0.031742 
0.039799 -0.023665 -0.067235 0.04506 -0.006566 0.017603 0.028125 0.015301 
0.00033937 -0.049314 -0.08121 -0.012485 -0.023336 0.0095465 0.011026 0.011191 
-0.0034422 -0.077264 -0.064275 -0.032708 -0.01939 -0.0026201 0.021878 0.0026412 
0.0056006 -0.057699 -0.016102 0.025824 -0.0073881 0.031578 0.032893 0.011355 
0.018754 0.0080668 0.068736 0.030098 0.026317 0.024015 0.03388 0.020727 
0.0052718 0.036017 0.092411 0.022371 0.021713 0.016452 0.027632 0.024015 
-0.0047575 0.05065 0.024508 0.043416 0.0032988 0.0051074 0.04358 0.040621 
0.033058 0.060844 -0.029584 -0.01939 0.0064227 0.02533 0.033387 0.032729 
0.045389 0.0060938 -0.047176 -0.04882 -0.0019624 0.032236 0.027632 0.03651 
0.033715 -0.024487 -0.042244 -0.021199 -0.0067304 0.014315 0.0227 0.014315 
0.039634 0.011355 -0.023172 -0.030899 0.015465 0.024015 0.0098754 0.040128 
0.05772 0.025988 -0.0052507 -0.0039354 0.021056 0.03947 0.026646 0.058213 
0.074161 0.0087245 -0.01676 0.038977 0.029934 0.025495 0.085835 0.13598 
0.075148 0.036346 -0.027447 0.022535 0.034866 0.026481 0.10425 0.15144 
0.056898 0.052459 0.018754 0.014808 -0.00031829 0.024344 0.095864 0.11099 
0.034537 0.059857 0.10211 0.039963 0.013492 0.022206 0.070544 0.0689 
0.00017495 0.11362 0.19862 0.055418 0.0070803 0.01415 0.040292 0.027303 
-0.014129 0.12612 0.16377 0.059035 0.04095 0.01267 0.014808 0.0324 
-0.018897 0.043745 0.059528 0.08567 0.051308 0.01004 -0.025967 0.0083956 
0.0065871 0.02122 -0.024487 0.072681 0.040785 0.032729 -0.011334 0.0092177 
0.043909 0.0042853 -0.11524 0.043416 0.019083 0.031742 0.0016547 0.035853 
0.12151 0.021878 -0.12363 0.057555 0.017438 0.05772 0.050321 0.088794 
0.12644 0.034702 -0.10538 0.051308 0.027632 0.056569 0.027961 0.064625 
0.087972 -0.0096899 -0.11705 1.0539e-005 0.023357 0.026646 0.0021479 0.019247 
0.010697 -0.031886 -0.1307 -0.03353 0.01152 0.024179 -0.05178 -0.068386 
-0.031557 -0.041093 -0.062796 -0.0087034 0.0088889 0.005765 -0.045039 -0.021363 
-0.04882 -0.035503 0.00099702 -0.010841 0.0014903 0.046868 -0.026131 -0.060658 
-0.028597 -0.052109 0.037497 0.00050378 0.0046141 -0.0027845 -0.016431 -0.10998 
-0.034188 -0.077757 0.033551 0.028619 0.024837 -0.029584 -0.003771 -0.16046 
0.018918 -0.0054151 0.082382 0.040456 0.035031 -0.012156 0.0016547 -0.21455 
0.068078 0.098823 0.16146 0.061008 0.025824 0.031249 0.007738 -0.16342 
0.01826 0.034373 0.073832 0.039305 0.014808 0.018589 0.0092177 -0.121 
-0.050464 -0.053588 -0.036489 -0.058192 -0.01117 0.029605 0.048841 -0.019061 
-0.07414 -0.032215 -0.076771 -0.090746 -0.0031133 0.033551 0.051143 0.03947 
-0.041093 0.047691 -0.044546 -0.051944 0.017603 0.025988 0.047033 0.087972 
-0.010841 0.10556 0.022535 -0.020706 0.024344 0.0074092 0.047526 0.12825 
0.026646 0.15242 0.12743 0.041114 0.049335 0.017438 0.028783 0.14289 
0.047855 0.1955 0.17922 0.14174 0.052787 0.03536 0.037661 0.12135 
0.089452 0.16048 0.11461 0.10704 0.053774 0.049664 0.032071 0.1174 
0.12809 0.15916 0.06479 0.077121 0.037826 -0.00081153 0.044073 0.079587 
0.14437 0.15472 0.015301 0.055582 0.048677 0.0046141 0.011026 0.044402 
0.054267 0.082053 -0.040764 -0.0031133 0.037661 0.01974 0.0013258 0.018754 
-0.052602 -0.0047575 -0.035667 -0.015773 0.036346 0.014479 -0.003771 -0.051615 
-0.096994 -0.0078813 -0.0082102 0.014972 0.034702 0.0074092 -0.0019624 -0.035338 
0.0037921 0.056404 0.04095 0.01826 0.047855 0.024179 0.046704 -0.042244 
0.067913 0.070708 0.089945 0.035524 0.068242 0.044567 0.034373 -0.016431 
0.086328 0.093233 0.094548 0.069229 0.0689 0.057391 0.0060938 -0.030735 
0.098823 0.13351 0.1225 0.10277 0.068078 0.015959 -0.011827 -0.02498 
0.059693 0.13351 0.19796 0.11954 0.060515 -0.0075525 0.023193 -0.034681 
0.046868 0.1225 0.22739 0.14305 0.058049 0.031085 0.022864 0.016288 
0.034209 0.064296 0.1562 0.076792 0.031742 0.036182 0.0023123 0.045718 
0.015794 -0.023665 0.018425 -0.014951 -0.020048 0.0023123 -0.0024557 0.054432 
0.0059294 -0.0771 -0.11672 -0.071016 -0.016924 -0.017417 0.02122 0.070544 
0.011355 -0.052766 -0.12363 -0.064275 -0.0095255 0.016945 0.052459 0.061337 
0.014479 0.027303 -0.053917 0.0054362 0.028125 0.034373 0.087643 0.082217 
0.012013 0.026152 -0.0014692 0.037661 0.072681 0.037004 0.062488 0.047033 
0.013492 0.039634 0.033222 0.065776 0.064296 0.030592 0.028947 0.025001 
0.036346 0.10573 0.10984 0.064625 0.044896 0.037826 0.031085 0.0065871 
0.038977 0.1276 0.1493 0.069393 0.031578 0.02829 0.016781 0.033387 
0.010697 0.093726 0.12825 0.05065 -0.0011404 0.0067515 -0.01676 0.032071 
0.015137 0.1031 0.091096 0.0062583 -0.009361 -0.012649 -0.019719 0.044567 
0.045718 0.11148 0.072517 -0.018239 -0.0042642 0.022206 -0.0055795 0.071531 
0.073668 0.04506 0.044238 0.046046 0.014808 0.02533 0.060679 0.075641 
0.096686 0.032893 -0.0016336 0.054267 0.059528 0.037497 0.072024 0.10326 
0.048348 0.047362 -0.014787 0.034702 0.020891 0.024673 0.071695 0.040128 
0.033058 0.0054362 -0.051122 0.013492 0.051143 0.039305 0.077943 0.025495 
-0.036654 -0.0016336 -0.02498 -0.023994 0.025988 0.023851 0.034373 -0.026789 
-0.070359 0.053938 0.029769 0.014808 0.059528 0.036675 -0.0082102 -0.009361 
0.00083261 0.097344 0.1008 0.055254 0.036675 0.020562 -0.020048 -0.0075525 
0.010204 0.094548 0.14848 0.044567 0.044567 0.036346 0.0085601 0.050486 
0.029605 0.074983 0.1659 0.063474 0.053609 0.04654 0.058377 0.095535 
0.045718 0.054925 0.13647 0.086163 0.035688 0.019905 0.08715 0.12825 
0.026974 0.029934 0.076792 0.068571 0.038977 0.028454 0.065612 0.13236 
0.079258 0.044567 0.053938 0.053445 0.024673 0.030427 0.057227 0.15226 
0.094713 0.05772 0.015794 0.041278 0.01826 0.027303 0.075148 0.17166 
0.10885 0.011191 -0.062302 -0.0040998 0.016616 0.037826 0.087479 0.15933 
0.089616 -0.0055795 -0.085649 -0.016266 0.014479 0.038155 0.10425 0.16574 
0.093726 0.0037921 -0.085156 -0.023994 0.020069 0.041607 0.060679 0.10228 
0.06331 0.0059294 -0.037311 -0.025309 0.016945 0.024837 0.028619 0.039634 
0.046211 0.086821 0.04358 -0.025802 0.0014903 0.00033937 -0.021363 -0.01676 
0.0083956 0.15144 0.10951 -0.0090322 0.010533 0.0014903 0.00066819 0.0024767 
-0.00064712 0.14881 0.073668 0.044567 0.018425 0.014643 0.0019835 0.028125 
-0.017582 0.087314 0.064296 0.055747 0.036182 0.027796 0.016288 0.017932 
-0.032379 -0.019884 0.0016547 -0.0013048 0.049335 -0.004593 -0.0022913 -0.058192 
-0.091897 -0.033859 -0.053424 -0.011005 -0.0050863 -0.0088678 -0.031557 -0.083512 
-0.087622 -0.073647 -0.044052 -0.060494 -0.0087034 -0.021528 -0.021528 -0.063453 
-0.0070593 -0.021528 0.012835 -0.014622 0.0032988 0.0060938 -0.010676 -0.0068948 
0.090438 0.076463 0.044238 0.061501 0.064625 0.04506 0.025824 0.095864 
0.12513 0.070051 0.075312 0.079258 0.065447 0.057884 0.054267 0.090931 
0.082217 0.0095465 0.029934 0.03092 0.021713 0.044238 0.06183 0.061995 
0.01563 -0.009361 0.016781 0.0039565 -0.0090322 0.011848 0.035195 0.014972 
-0.023007 -0.0072237 0.014643 -0.038298 -0.013965 0.020727 0.037004 0.0083956 
-0.018404 -0.017088 -0.018239 -0.028269 0.0032988 0.03092 0.038977 0.0056006 
0.025166 -0.020212 -0.046847 0.02122 0.037661 0.030263 0.041114 0.0041209 
0.074326 0.048348 -0.038791 -0.0068948 0.045224 0.012342 0.063145 -0.019719 
0.089287 0.086163 -0.014787 0.011026 0.05213 0.029934 0.0075736 -0.067728 
0.058213 0.080409 0.031578 0.04358 0.044402 0.041278 -0.052273 -0.095349 
0.042594 0.1179 0.071202 0.032893 0.044073 0.02681 -0.047505 -0.093705 
0.038483 0.13483 0.055747 0.046868 0.044238 0.019576 0.0052718 0.0019835 
0.012835 0.084026 0.042265 0.10145 0.067256 0.00297 0.0070803 0.049499 
0.0062583 0.046046 0.017932 0.088958 0.03536 0.012835 0.01415 0.072353 
0.005765 0.0064227 -0.0024557 0.071859 0.047033 0.0046141 0.037497 0.072681 
-0.034681 -0.085813 -0.021528 0.09833 0.031414 0.020398 0.038483 0.06479 
0.017438 -0.019555 0.072681 0.087643 0.024837 0.0016547 0.049664 0.043087 
0.048677 0.023357 0.096028 0.1003 0.048677 0.014972 0.043745 0.0421 
0.027468 -0.0047575 0.06331 0.10096 0.045718 0.0227 0.079422 0.047197 
0.0018191 -0.031392 0.037168 0.069558 0.021878 0.024508 0.039141 0.01711 
0.00083261 -0.0087034 -0.0016336 0.028947 -0.0031133 0.032564 0.040128 0.032564 
-0.0004827 -0.014787 -0.022843 -0.043724 -0.01232 0.039799 0.050486 0.083204 
0.012342 -0.027447 -0.05326 -0.07003 -0.01939 0.012835 0.051636 0.082875 
0.035195 -0.045532 -0.05178 -0.055561 0.012999 0.023851 0.024015 0.069393 
0.074161 0.0037921 -0.033859 0.012506 0.029769 0.043909 0.043745 0.060679 
0.079751 0.0056006 0.011191 0.029276 0.022535 0.028125 0.018096 0.011355 
0.061666 0.029605 0.055418 -0.014293 -0.0042642 -0.0034422 -0.01676 -0.024816 
0.038483 0.13647 0.14864 0.0093821 0.012506 0.01004 -0.0070593 -0.038133 
0.051965 0.21342 0.1687 0.062488 0.047691 0.041936 0.020398 -0.010841 
0.081231 0.20027 0.13697 0.0592 0.058542 0.033715 0.061337 0.035853 
0.068242 0.15999 0.060186 0.063803 0.047033 0.0041209 0.036675 -0.0034422 
0.039141 0.091589 0.026152 0.074654 0.021549 -0.016924 0.0065871 1.0539e-005 
0.027139 0.10852 0.098166 0.090603 0.063803 0.029112 -0.0077169 -0.03616 
0.056569 0.11132 0.20717 0.16656 0.13056 0.06183 0.026481 0.018425 
0.10721 0.14338 0.16114 0.22542 0.14519 0.072846 0.063803 0.073997 
0.10655 0.017603 0.034373 0.12612 0.084684 0.068736 0.059857 0.096028 
0.061501 -0.08828 -0.052602 0.037168 -0.00064712 0.034537 0.026646 0.042265 
0.010369 -0.055726 -0.017911 0.0067515 -0.014787 0.015301 0.030263 0.049006 
-0.032872 -0.028762 0.023357 -0.023007 -0.030735 -0.019555 0.028454 0.03947 
-0.085813 0.020562 0.063639 -0.039284 -0.031064 -0.028104 0.0098754 0.022042 
-0.10505 0.012177 0.055089 -0.024487 -0.047341 -0.003771 -0.019884 -0.0014692 
-0.051944 0.034209 0.11839 0.0065871 -0.013965 -0.00081153 -0.0078813 -0.021856 
-0.0054151 0.0039565 0.13828 0.070215 -0.0021268 0.029934 0.0019835 0.018096 
0.054432 0.0075736 0.080573 0.069064 0.034044 0.043251 0.019411 0.013492 
0.091425 0.030263 0.02681 0.052623 0.048841 0.027632 -0.0047575 0.064296 
0.12381 0.046375 -0.0088678 0.0059294 0.072681 0.04506 0.01415 0.088465 
0.099974 0.084355 -0.01528 0.018425 0.066105 0.055582 0.034209 0.11872 
0.082546 0.1174 -0.0072237 -0.017417 0.036182 0.061337 0.082053 0.090438 
0.071202 0.13664 0.0018191 0.0051074 0.041278 0.052787 0.093069 0.085012 
0.087314 0.14716 0.023357 0.010533 0.042429 0.037332 0.085012 0.059693 
0.074161 0.14585 0.043251 0.038319 0.051143 0.030427 0.071037 0.02533 
0.042429 0.11263 0.016288 -0.0078813 0.018754 0.041936 0.041772 -0.019555 
0.0021479 0.038977 0.014479 -0.0138 0.00050378 0.036017 0.052459 -0.033201 
-0.014951 0.0013258 0.0064227 0.013492 -0.0044286 0.0042853 0.025988 -0.037311 
-0.021363 0.01004 -0.0029489 0.004943 -0.0095255 -0.0054151 -0.010019 -0.03764 
-0.051287 -0.022514 0.034537 0.022371 0.028125 0.009711 0.018754 0.031085 
0.017603 0.005765 0.052623 0.08419 0.041114 0.034702 -0.0096899 -0.0024557 
0.048348 0.055254 0.044567 0.083368 0.025659 0.005765 -0.02087 0.048677 
0.051965 0.039963 0.019247 0.047033 0.038155 0.00099702 -0.022021 -0.010019 
0.045718 0.045882 -0.0080457 0.032893 0.021878 0.0042853 -0.029091 -0.0026201 
0.02829 0.039963 0.012835 -0.0075525 0.0082312 0.0019835 0.01415 0.012835 
-0.016266 0.036839 -0.011005 -0.034188 0.0060938 0.0039565 0.085506 0.076956 
-0.022679 -0.047176 -0.013965 -0.0054151 -0.015773 0.0028056 0.049828 0.098823 
-0.031557 -0.049314 -0.041586 -0.01676 -0.017911 0.038812 0.059035 0.13812 
0.0024767 -0.01939 -0.0091966 0.00297 -0.003771 0.016781 0.044731 0.09981 
0.019247 -0.009361 -0.017417 0.033387 0.0023123 -0.0090322 0.038648 0.064954 
0.032893 0.017767 -0.031721 -0.024323 0.022042 -0.0044286 0.013821 0.012013 
0.071859 0.084848 -0.0075525 -0.037311 0.020398 0.040785 0.030098 -0.008539 
0.079587 0.064296 -0.006566 -0.0088678 0.01152 0.061172 0.047691 0.0059294 
0.066434 0.056898 -0.030735 -0.020377 0.020891 0.04095 0.048841 -0.0052507 
0.048019 0.098166 0.017603 -0.016102 0.047691 0.066598 0.065283 0.004943 
0.048184 0.14831 0.098659 0.015465 0.048348 0.040456 0.023686 -0.013307 
0.034209 0.1054 0.13713 0.029276 0.033715 0.018096 -0.0004827 -0.036489 
0.0085601 0.065283 0.12546 0.045882 0.0098754 -0.0098543 -0.029748 -0.059178 
-0.030242 0.031907 0.0067515 0.045882 0.010369 0.00083261 -0.013965 -0.044546 
-0.011992 -0.00015387 -0.057205 0.048841 0.015959 0.0023123 0.034537 -0.038133 
0.012999 0.00017495 -0.090088 0.022206 0.029769 0.0046141 0.027468 -0.01676 
0.023193 -0.0034422 -0.066413 -0.011827 0.029276 -0.003771 0.019247 0.0037921 
-0.0019624 0.02533 -0.038791 0.048677 0.023851 0.011848 0.020069 0.0088889 
0.0039565 0.027961 0.047691 0.065118 0.043087 0.015794 0.040621 0.067585 
0.017767 0.053938 0.039305 0.056569 0.031578 0.00017495 0.019576 0.095371 
0.0083956 0.068242 0.091425 0.061337 0.019083 0.017274 0.01004 0.11362 
0.012999 0.026317 0.084355 0.031742 0.013986 0.010862 0.025659 0.087643 
0.0042853 -0.043559 0.039799 0.019905 -0.014293 0.0036276 0.0592 0.11987 
0.021384 -0.096994 -0.004593 0.036839 -0.021034 -0.0042642 0.072681 0.14272 
0.028125 -0.10308 -0.031886 0.030263 0.0087245 0.0059294 0.0689 0.14897 
0.044073 -0.026789 -0.02646 0.01974 0.034702 0.052294 0.053281 0.13105 
0.065776 0.10852 0.050157 0.045224 0.055418 0.047197 0.044073 0.10951 
0.071859 0.15505 0.10951 0.023851 0.050979 0.0085601 0.030756 0.081889 
0.089945 0.19912 0.13861 0.047855 0.041772 0.025495 -0.0021268 0.037661 
0.072846 0.19632 0.14272 0.088136 0.033551 0.04654 -0.011663 0.041443 
0.086985 0.18383 0.08863 0.049992 0.045553 0.04095 -0.019061 -0.015116 
0.026152 0.10721 0.022535 0.016123 0.055582 0.040456 0.014972 -0.053588 
-0.023007 0.026974 -0.032872 0.040456 0.056569 0.02681 0.020233 -0.11097 
-0.056877 -0.012156 -0.034845 0.044567 0.07449 0.042594 0.0032988 -0.10784 
-0.077593 -0.109 -0.016924 0.054267 0.058377 0.034866 0.012177 -0.11475 
-0.096172 -0.1233 -0.0011404 0.072188 0.051636 0.054267 0.063639 -0.10472 
-0.044546 -0.055068 -0.00015387 0.034537 0.031578 0.043909 0.094713 -0.075127 
0.0062583 -0.0047575 0.01563 0.00050378 1.0539e-005 0.024179 0.060186 -0.041422 
0.037004 0.0083956 0.015137 -0.01117 -0.048985 -0.035667 0.040456 0.014315 
0.02681 0.034537 0.041607 -0.0088678 -0.031228 -0.05589 -0.062467 0.026974 
-0.028433 0.072846 0.070873 0.014972 -0.02498 -0.037476 -0.094856 0.068242 
0.012342 0.055911 0.11724 0.0324 -0.00081153 -0.001798 -0.068386 0.076134 
-0.0029489 0.086985 0.11707 0.01826 0.026481 -0.0087034 -0.035832 0.12283 
0.039634 0.13088 0.10326 0.053116 0.054925 0.019905 0.049499 0.14239 
0.058213 0.11658 0.071531 0.048841 0.05624 0.075805 0.12842 0.16755 
0.076463 0.099316 0.019411 0.034373 0.051801 0.095864 0.14601 0.13861 
0.097015 0.090767 0.010533 0.015959 0.06035 0.081067 0.1271 0.1322 
0.085506 0.095699 0.0039565 0.024508 0.069886 0.068571 0.075476 0.13088 
0.057884 0.055747 -0.014787 0.040621 0.066763 0.060679 0.052459 0.10474 
0.01826 0.043416 -0.010348 0.012177 0.040785 0.035031 0.047033 0.056076 
-0.009361 0.02829 -0.012814 0.014315 0.0060938 0.013821 0.037826 0.013657 
-0.024816 0.027303 0.0079024 0.021384 0.02829 -0.020048 -0.029913 -0.050136 
-0.001798 0.032729 0.033222 0.0087245 0.028454 0.00297 -0.063946 -0.060329 
0.039799 0.10474 0.045718 0.027139 0.057062 0.019905 -0.018075 -0.022021 
0.04654 0.069393 0.054925 0.037168 0.030427 0.0039565 0.010533 -0.01676 
0.043087 0.034044 0.039799 0.00050378 0.0037921 0.025166 0.0421 -0.0004827 
0.039963 0.0026412 -0.017253 -0.010676 -0.0138 0.029769 0.011848 -0.073154 
0.032071 -0.010183 -0.0073881 0.034373 0.0075736 0.031085 -0.0088678 -0.10784 
0.016452 -0.04471 0.0069159 0.022371 0.01974 0.049828 0.03536 -0.097816 
0.0024767 -0.027118 0.0095465 0.016781 0.049006 0.053609 0.068078 -0.067728 
0.026974 0.065118 0.010862 0.06183 0.035195 0.037497 0.040128 0.027796 
0.025824 0.082546 0.030098 0.01415 0.020398 -0.0068948 -0.025638 -0.013965 
0.00083261 0.076627 0.058706 0.035688 -0.0068948 -0.028433 -0.098473 -0.051944 
0.015301 0.093562 0.081395 0.04358 0.016452 -0.02235 -0.09091 -0.008539 
0.034209 0.082382 0.13286 0.043745 0.01152 0.034702 -0.021199 0.13351 
0.055911 0.06479 0.078765 0.046868 0.026152 0.036017 0.038319 0.15489 
0.055418 0.10293 0.067256 0.056569 0.025495 0.030263 0.033058 0.076956 
0.069722 0.13549 0.079422 0.050157 0.044731 0.012835 -0.014293 -0.023829 
0.071037 0.10655 0.066105 0.0075736 0.047197 0.031249 -0.00081153 -0.073318 
0.067749 0.067585 -0.0078813 -0.0072237 0.039634 -0.011992 0.0092177 -0.044217 
0.09126 0.10524 -0.040764 -0.015773 0.053116 -0.0040998 0.023522 0.050814 
0.075476 0.075476 -0.071345 -0.018568 0.018425 0.028947 0.064461 0.080738 
0.064625 0.019905 -0.045861 -0.0075525 0.0052718 0.05065 0.11132 0.048184 
0.025001 0.039799 0.03799 0.029605 0.018918 0.015465 0.056404 0.0047785 
0.041278 0.06183 0.091589 0.051801 0.035195 0.028454 0.017603 -0.048327 
0.039634 0.063145 0.13762 0.10787 0.077614 0.078929 0.10392 0.067256 
0.061501 0.11526 0.17971 0.15292 0.091425 0.071531 0.10984 0.1197 
0.11642 0.1105 0.17018 0.12694 0.053445 0.037826 0.15045 0.16738 
0.06183 0.081889 0.19451 0.13713 0.056733 0.026317 0.062652 0.11773 
0.039799 0.029769 0.18004 0.14174 0.041936 0.0592 0.024344 0.076792 
0.0046141 -0.001798 0.15045 0.094877 0.024837 0.016616 -0.050464 0.023686 
-0.036654 -0.064275 0.11 0.088301 0.039634 0.034209 -0.0406 0.0036276 
-0.022185 -0.054246 0.029934 0.097344 0.00066819 0.016781 -0.044874 -0.0064016 
-0.015444 -0.028104 -0.050136 0.027303 -0.0032777 0.030756 -0.013636 -0.011498 
-0.020048 -0.042244 -0.12659 -0.052931 -0.034023 0.01415 0.053445 0.031249 
0.00033937 -0.014622 -0.11639 -0.051287 -0.024816 0.01974 0.058377 0.0069159 
0.054925 0.0046141 -0.047505 -0.061151 0.0054362 -0.015116 0.021713 0.034044 
0.10392 0.046704 0.00066819 -0.017911 0.024344 0.0044497 -0.010512 0.032071 
0.12085 0.059364 0.0056006 0.047197 0.048841 0.048184 0.011026 0.037168 
0.11691 0.052623 -0.021199 0.014643 0.047691 0.090603 0.069558 -0.003771 
0.06742 0.032236 -0.03912 -0.0004827 0.044731 0.088958 0.11592 -0.026789 
-0.0042642 0.029605 0.0041209 0.018096 0.055089 0.042594 0.079751 -0.040764 
-0.021528 0.057062 0.10063 0.041936 0.07597 -0.0091966 0.054596 0.0072447 
-0.033201 0.012999 0.12809 0.055582 0.053116 0.012177 0.097508 0.069722 
-0.029913 -0.042901 0.089616 0.084026 0.036675 0.045718 0.12842 0.10014 
0.045224 0.053281 0.11691 0.068736 0.023686 0.043416 0.11707 0.15193 
0.10556 0.15144 0.10113 0.066105 0.017438 0.005765 0.047855 0.13582 
0.11362 0.14223 0.050321 0.013492 0.022371 -0.041422 -0.0057439 0.13039 
0.093398 0.053774 0.039305 0.031085 0.021384 -0.038627 -0.02235 0.15949 
0.080244 -0.0049219 0.02533 0.0013258 -0.0039354 0.0024767 0.010697 0.22049 
0.046375 -0.048492 -0.0049219 0.016288 0.0013258 0.036017 0.070708 0.18087 
0.019905 -0.047998 0.019083 0.041443 0.0051074 0.043416 0.059693 0.10639 
0.03536 -0.0072237 0.049499 0.045553 0.047033 0.071531 0.051472 -0.0031133 
0.043251 0.053445 0.063968 0.068407 0.060186 0.086492 0.056076 -0.0072237 
0.021713 0.053938 0.066763 0.05476 0.039634 0.038483 0.037332 -0.017746 
0.015137 0.04095 0.0065871 0.035524 0.036839 -0.015773 -0.0042642 -0.028269 
0.0070803 0.010369 -0.018404 -0.012814 -0.0059084 -0.033037 -0.03205 -0.045368 
0.0065871 0.0072447 -0.032708 -0.022021 -0.0067304 -0.021199 -0.026624 -0.03057 
0.011355 -0.041257 -0.042244 -0.033037 0.016452 0.045718 0.0087245 0.031085 
0.026481 -0.036818 -0.010019 -0.030899 0.0079024 0.068736 0.094548 0.056404 
0.035031 0.024179 -0.019061 -0.013965 -0.0060728 0.053938 0.04654 0.046211 
0.0059294 0.019247 -0.059343 -0.056712 -0.04323 -0.02646 -0.037805 -0.0027845 
-0.017088 0.0092177 -0.05589 -0.071838 -0.039613 -0.058192 -0.037476 0.025824 
0.0064227 0.048841 -0.023007 -0.017582 -0.011005 -0.021692 0.012177 0.074654 
0.042265 0.056569 -0.0047575 -0.014458 0.011191 0.040292 0.007738 0.090274 
0.072846 0.090438 0.00066819 -0.031886 0.029934 0.023686 0.01415 0.11872 
0.06742 0.086821 0.017274 -0.026789 0.064954 -0.016431 0.0039565 0.060022 
0.094548 0.15538 0.0032988 -0.02794 0.044238 -0.012978 -0.011827 0.053938 
0.11576 0.1904 0.049499 0.0069159 0.06479 0.019905 0.019905 0.064954 
0.11428 0.20142 0.1031 0.072353 0.11411 0.027303 0.066105 0.090109 
0.084519 0.19418 0.12957 0.060844 0.051143 0.023028 0.042265 0.056733 
0.028783 0.095042 0.14108 0.080409 0.037661 0.00017495 0.017274 0.00050378 
0.018096 0.066434 0.079751 0.09274 0.042758 0.022864 0.012999 -0.044052 
0.0072447 0.061172 0.037826 0.079094 0.055418 0.020233 -0.015938 -0.028104 
-0.004593 0.047362 -0.019226 0.051636 0.061666 0.021713 -0.015938 -0.026789 
0.013821 0.0083956 -0.03501 0.047526 0.04506 0.039799 -0.014951 -0.028269 
0.013492 -0.0055795 0.0018191 0.0421 0.038812 0.041772 -0.0014692 -0.0096899 
-0.021199 0.0042853 0.033551 0.023686 0.017767 0.038977 0.050157 0.013492 
-0.0091966 -0.041915 -0.042737 0.019247 0.0046141 0.031907 0.036346 0.020562 
-0.009361 -0.075455 -0.058685 0.036839 0.0051074 0.039799 0.034537 -0.014622 
-0.024652 -0.061645 -0.073647 0.0024767 0.021549 0.02533 0.054103 -0.02498 
0.0014903 -0.052766 -0.059836 -0.0016336 0.011684 0.0093821 0.01152 -0.017417 
0.034537 0.020069 -0.014458 0.026481 -0.013636 0.0098754 -0.01117 -0.010676 
0.053116 0.075148 -0.0078813 -0.01232 0.019247 0.026974 -0.014458 -0.010841 
0.07301 0.09422 -0.011663 -0.013636 0.037661 0.030592 -0.017088 0.020727 
0.043087 0.083204 0.015959 0.0036276 0.033715 -0.0073881 -0.02087 -0.008539 
-0.031064 0.089616 0.063474 0.005765 0.024837 -0.010676 -0.017582 -0.062302 
-0.07266 0.14519 0.12957 0.042594 0.024673 0.025824 -0.010841 -0.056219 
-0.033859 0.15785 0.21934 0.11888 0.047855 0.041936 0.0036276 -0.029584 
0.039305 0.17922 0.23019 0.13105 0.056404 0.034209 0.029441 0.073175 
0.04358 0.13894 0.14996 0.098823 0.051636 0.026317 0.09833 0.12595 
0.023851 -0.027611 0.013821 0.074161 0.0227 0.04358 0.091589 0.11707 
0.0070803 -0.089924 -0.065426 0.020069 0.011191 0.019411 0.059364 0.069722 
0.0024767 -0.049314 -0.068714 -0.022679 0.029276 0.018096 0.060679 0.065776 
-0.018075 -0.018404 -0.035503 0.027632 0.044896 0.057884 0.073175 0.047197 
-0.056055 -0.026789 -0.024323 0.017274 0.060679 0.11543 0.086821 0.056569 
-0.10637 -0.020212 0.015137 0.041114 0.052952 0.065612 0.0018191 -0.0096899 
-0.095185 -0.022021 0.034537 0.04654 0.026646 0.0031344 -0.030899 -0.021199 
-0.07414 -0.024816 0.03536 0.023193 -0.0024557 0.0062583 -0.026131 -0.031228 
0.0041209 0.042923 0.058213 0.054925 0.026481 0.093891 0.068078 -0.014622 
0.095699 0.12776 0.076792 0.066105 0.06742 0.12299 0.085012 0.0037921 
0.062488 0.080244 0.045718 0.072681 0.074654 0.062323 0.032564 -0.040106 
0.022535 0.045224 0.037332 0.028619 0.017603 0.0098754 0.0064227 -0.076606 
0.019247 0.077449 0.055418 0.048348 0.03388 0.0024767 0.0046141 -0.083018 
0.0024767 0.084848 0.047691 0.10293 0.055747 -0.011005 -0.0019624 -0.059836 
0.0021479 0.058213 0.08863 0.070544 0.055911 -0.022514 0.014808 -0.055232 
0.052623 0.096686 0.068571 0.057227 0.093233 0.026152 0.074161 -0.0052507 
0.076299 0.091918 0.074819 0.051636 0.023193 0.02681 0.09422 0.033715 
0.036346 0.0082312 -0.00097594 -0.017911 -0.075291 -0.027118 0.09833 0.075476 
-0.043888 -0.10982 -0.072496 -0.11771 -0.12001 -0.10308 -0.0087034 0.048348 
-0.09239 -0.13596 -0.10686 -0.11541 -0.12297 -0.1524 -0.10669 0.0085601 
-0.061151 -0.109 -0.082525 -0.096172 -0.071016 -0.14648 -0.11903 0.020727 
-0.013636 -0.059672 -0.034845 -0.053917 0.020233 -0.082361 -0.037476 0.082217 
0.043087 0.046375 0.021056 0.057555 0.048513 0.014808 0.089123 0.14782 
0.081724 0.14239 0.099481 0.075476 0.081889 0.14437 0.13417 0.13516 
0.098166 0.16163 0.11083 0.077614 0.068078 0.17708 0.11461 0.069558 
0.10507 0.1396 0.10063 0.075148 0.050814 0.13894 0.10474 0.039305 
0.081231 0.14683 0.093726 0.019083 0.029276 0.093069 0.076299 0.022042 
0.08156 0.082382 0.062159 0.0051074 0.032564 0.048513 0.052623 -0.039449 
0.0042853 0.0064227 0.0051074 0.032236 0.019411 0.013986 0.01711 -0.057041 
-0.043066 -0.023007 1.0539e-005 -0.0138 0.00083261 -0.027447 -0.02235 -0.064933 
-0.018733 0.015301 0.0098754 0.020891 0.015959 -0.0095255 -0.049807 -0.052273 
0.0046141 0.053609 0.061666 0.057227 0.046868 0.027303 0.00050378 -0.022843 
0.053445 0.088465 0.11066 0.067585 0.089616 0.0689 0.041607 0.049499 
0.097015 0.11 0.074161 0.045553 0.056898 0.056404 0.067256 0.071531 
0.12135 0.10836 0.068407 0.047197 0.0227 0.041443 0.051636 -0.0016336 
0.073668 0.092576 0.037497 0.021549 0.020891 0.062488 -0.0034422 -0.091732 
0.041936 0.085999 0.043416 -0.0004827 0.01004 0.029276 -0.058192 -0.10373 
0.063803 0.063474 0.040785 0.0031344 0.03388 -0.031064 -0.03205 0.01004 
0.06479 0.04358 0.042923 0.01415 0.0037921 -0.071509 0.0093821 0.097837 
0.076792 0.058213 0.0065871 0.011191 0.0016547 -0.058356 0.048677 0.14568 
0.089945 0.073175 -0.0027845 0.012177 0.020233 -0.032379 0.080738 0.14058 
0.11559 0.062488 0.0028056 0.02122 0.022864 0.0067515 0.064296 0.12776 
0.09833 0.063968 0.013492 0.011191 0.04506 0.025824 0.057227 0.14996 
0.096357 0.083862 0.039634 0.0074092 0.037497 0.032071 0.051143 0.15785 
0.096193 0.062323 0.051636 0.055254 0.032893 0.030427 0.048019 0.12184 
0.078107 0.061337 0.080902 0.057062 0.037004 0.034373 0.053281 0.04917 
0.066434 0.071695 0.095371 0.077285 0.054596 0.039634 0.037168 0.0090533 
0.049992 0.038812 0.10441 0.11263 0.066269 0.035524 0.024508 0.013328 
0.046704 0.02533 0.06594 0.073175 0.050157 0.038812 0.00099702 0.030098 
0.031249 0.060186 0.082382 0.052787 0.046046 0.023851 0.024508 0.025824 
0.048348 0.087808 0.053774 0.060844 0.052623 0.055418 0.0067515 0.036346 
0.052623 0.08863 0.051965 0.027468 0.032893 0.054432 -0.0088678 -0.0073881 
0.030098 0.062159 0.057062 0.021384 0.025988 0.048184 -0.044874 -0.041915 
0.029441 0.076463 0.037004 0.06035 0.038812 0.050486 -0.013965 -0.057699 
0.062981 0.060515 0.051143 0.039141 0.041114 0.10392 -0.021199 -0.040435 
0.055582 0.03799 0.054596 0.046704 0.016616 0.043909 0.0092177 -0.00031829 
-0.024652 0.055911 -0.0091966 0.063803 -0.026131 0.03651 0.013164 1.0539e-005 
-0.030899 -0.0070593 -0.040435 -0.006566 -0.016102 0.042429 0.017274 0.04095 
0.041443 0.020398 -0.038791 0.00050378 0.023851 0.10556 0.08419 0.091425 
0.11642 0.096357 0.022864 0.063803 0.076299 0.098001 0.085177 0.1853 
0.16623 0.090931 0.073504 0.079587 0.073997 0.062323 0.044238 0.20454 
0.12875 0.030263 0.084684 0.047197 0.074819 0.0028056 0.0064227 0.19007 
0.013164 -0.064604 0.029934 0.054596 0.043087 -0.0055795 0.0098754 0.10918 
-0.04323 -0.029913 -0.016595 0.034209 0.026317 -0.01676 0.023357 0.039799 
-0.0039354 -0.011498 0.0037921 0.027139 0.032236 -0.032215 0.024673 -0.023501 
0.042429 0.071037 0.041278 0.044238 0.038812 -0.04619 0.049828 -0.018239 
0.012835 0.10869 0.05476 0.054103 0.040621 -0.019061 0.041936 -0.011663 
0.0032988 0.069393 0.046704 0.036017 0.045224 -0.023665 0.0047785 -0.039778 
0.027961 0.054267 0.016123 0.038155 0.053938 -0.0091966 -0.045203 0.0036276 
0.020727 0.039799 0.021713 0.03947 0.043087 0.04095 -0.0054151 0.013492 
-0.025967 0.016616 0.0065871 0.011684 0.035524 0.12233 0.10343 0.057062 
0.043087 0.056898 0.035853 0.026974 0.016945 0.1465 0.17725 0.11148 
0.12266 0.097837 0.072846 0.06594 1.0539e-005 0.11757 0.12842 0.1465 
0.15604 0.15259 0.080573 0.04654 0.021549 0.054103 0.037332 0.10458 
0.14864 0.14157 0.085835 0.058706 0.04095 0.044402 0.014808 0.094713 
0.10441 0.11214 0.06035 0.06479 0.052294 0.048019 -0.006566 0.03536 
-0.038462 0.0037921 -0.0070593 -0.0088678 0.0064227 0.048019 0.0034632 -0.041257 
-0.19318 -0.20222 -0.089759 -0.056383 -0.018239 0.021713 0.0026412 -0.07973 
-0.19778 -0.19663 -0.075784 -0.020541 -0.010841 0.0054362 -0.023007 -0.065755 
-0.099789 -0.06855 -0.023994 -0.0096899 0.018425 0.0018191 -0.020541 -0.03057 
0.01004 0.054267 0.028454 0.033222 0.056404 -0.0011404 -0.023007 -0.049314 
0.061172 0.0786 0.039141 0.04506 0.034044 -0.020706 -0.02235 -0.047834 
0.070708 0.069064 0.013986 -0.015116 -0.016266 -0.06148 -0.029091 -0.093705 
0.040292 0.045718 -0.036983 -0.040764 -0.022021 -0.07003 0.0016547 -0.086142 
0.01563 0.030263 -0.019555 -0.01676 -0.020541 -0.060329 0.03651 -0.0057439 
0.022864 0.036182 -0.042737 -0.015116 0.021384 0.018754 0.077121 0.12299 
0.066105 0.044567 -0.041257 -0.0039354 0.062981 0.059857 0.073339 0.16492 
0.038648 0.019411 -0.044874 0.030098 0.063639 0.075148 0.032564 0.11411 
0.0023123 0.010862 -0.0072237 0.025824 0.031742 0.067256 0.048841 0.059364 
-0.059014 0.032564 0.045553 0.0026412 0.0023123 0.071366 0.0689 0.020069 
-0.024487 0.060022 0.031085 0.024508 0.020891 0.039799 0.068407 0.01415 
0.026152 0.050486 0.0088889 -0.0013048 0.037332 0.015301 0.015137 -0.023172 
0.0031344 0.013492 -0.013471 -0.018897 -0.013636 -0.0047575 0.0032988 -0.029584 
-0.0059084 0.023028 0.013492 0.0034632 -0.023336 0.017438 0.011684 0.0060938 
0.015301 0.024508 0.092904 0.05213 0.02681 0.0095465 0.05624 0.062159 
0.03536 0.018589 0.10984 0.036839 0.026317 0.035524 0.061995 0.079258 
0.03651 0.048841 0.025166 0.074326 0.043909 0.032071 0.035031 0.078929 
0.047197 -0.013636 -0.0014692 0.02829 0.0090533 0.072024 0.043745 0.014972 
0.0032988 -0.063946 -0.022514 0.0080668 -0.010348 0.047526 0.013328 -0.031886 
-0.037476 -0.010676 0.0039565 -0.0022913 -0.0064016 0.027632 -0.0044286 -0.034352 
-0.046354 0.034866 0.02533 0.044073 -0.036983 -0.06855 -0.049971 -0.093212 
-0.032708 0.068407 0.043416 0.010369 0.018754 -0.1108 -0.073976 -0.078086 
-0.022021 0.097837 0.024673 0.023851 0.073175 -0.072003 -0.02235 -0.016102 
0.055254 0.12957 0.043416 0.090109 0.060515 0.0056006 0.05624 0.10408 
0.072024 0.10195 0.062488 0.066927 0.0421 0.053116 0.094713 0.147 
0.11329 0.11658 0.06183 0.052459 0.034537 0.068407 0.10984 0.16837 
0.10803 0.11658 0.068571 0.066763 0.038812 0.0227 0.073997 0.11839 
0.056898 0.031742 0.030263 1.0539e-005 0.054432 -0.010512 0.048019 0.035524 
-0.011663 -0.0075525 -0.031392 -0.024652 0.0060938 -0.0019624 -0.0082102 -0.062467 
-0.042901 -0.026624 -0.006566 0.0082312 -0.012156 -0.0083746 -0.10965 -0.081539 
-0.0090322 0.023686 -0.010512 0.0031344 0.0088889 -0.033694 -0.12725 -0.046025 
0.028454 0.03388 0.038155 0.013986 0.01711 -0.010841 -0.05737 0.011026 
0.059035 0.060515 0.09422 0.076792 0.060022 0.062652 0.1294 0.10803 
0.08156 0.11872 0.10474 0.060679 0.081889 0.17314 0.20569 0.087314 
0.037168 0.072188 0.062159 0.045882 0.03388 0.17856 0.17495 0.078436 
0.025001 0.062323 0.041278 0.040128 0.021056 0.12513 0.065612 0.016288 
-0.01117 0.081889 0.032071 0.026317 0.0095465 0.10145 -0.041751 -0.019555 
-0.020377 0.066105 0.047855 0.0031344 -0.0090322 0.058049 -0.070359 -0.087458 
-0.0016336 0.097837 0.067913 0.016945 -0.0044286 0.029605 -0.082854 -0.06 
0.059528 0.01152 0.037497 0.01004 -0.00081153 -0.0024557 -0.024323 0.033715 
0.070873 0.0036276 0.020891 0.028125 0.012342 -0.016924 0.053774 0.14174 
0.076956 0.011191 0.034044 0.040128 0.038977 -0.05737 0.062652 0.14979 
0.031742 0.062488 0.054432 0.061995 0.050157 -0.07266 0.036182 0.065612 
-0.010512 0.10507 0.074983 0.052787 0.065283 -0.10538 0.0095465 -0.017088 
-0.01232 0.085341 0.10228 0.1026 0.084684 -0.093541 0.019411 -0.064933 
-0.0406 0.061008 0.045718 0.04917 0.022535 -0.11163 -0.0021268 -0.047505 
-0.026624 0.030592 -0.010676 -0.011334 -0.0406 -0.12379 0.0052718 -0.028269 
0.022371 0.026152 -0.012156 -0.024652 -0.023665 -0.13399 -0.010183 0.079916 
0.088958 0.038155 0.029441 0.03536 0.025495 -0.040435 0.019576 0.13878 
0.11033 0.073339 0.090274 0.043087 0.0786 0.084848 0.016945 0.10408 
0.072681 0.076134 0.070051 0.054103 0.048184 0.13861 0.02122 -0.014622 
0.035524 0.05213 0.0072447 0.03799 0.046375 0.17643 0.022535 -0.058356 
0.024179 0.023193 0.0014903 0.011026 0.038648 0.20125 0.069393 -0.00015387 
0.017767 0.072681 0.038319 0.044238 0.047197 0.19928 0.1202 0.082217 
0.053445 0.041936 0.043909 0.046868 0.066434 0.13171 0.089945 0.095371 
0.062488 0.043745 0.03651 0.030592 0.068571 0.072024 0.070051 0.047691 
0.071202 0.047526 0.044402 0.037826 0.061501 0.010697 0.00297 0.013164 
0.080409 0.045882 0.062159 0.085012 0.0227 -0.034023 -0.01528 -0.052931 
0.032071 0.053116 0.044567 0.018918 0.0034632 -0.03353 -0.042573 -0.069865 
-0.020377 0.019083 0.071366 0.019411 0.00083261 -0.02646 -0.021528 -0.07973 
-0.022021 0.035031 0.098001 0.083533 0.037332 -0.024158 0.056898 0.019905 
0.050979 0.013657 0.10195 0.055254 0.034537 -0.028104 0.1026 0.13483 
0.069064 -0.035832 0.011684 0.045389 0.041772 0.013492 0.11247 0.19172 
0.021384 -0.056548 -0.059672 0.011355 -0.0073881 -0.0096899 0.086821 0.14141 
0.018096 -0.038956 -0.083676 -0.030899 -0.034845 -0.027611 0.024837 0.086492 
0.061501 0.067749 -0.01676 0.00099702 0.025001 -0.013471 -0.057041 0.086657 
0.1225 0.20092 0.066763 0.066434 0.073668 0.058377 -0.038956 -0.0044286 
0.14502 0.27425 0.11855 0.05772 0.053116 0.13713 0.011684 -0.038133 
0.14009 0.24597 0.077449 0.077943 0.068242 0.1835 0.024344 -0.08384 
0.032071 0.086328 0.053609 0.056898 0.075148 0.096357 -0.046847 -0.090417 
-0.15914 -0.092554 -0.001798 0.0052718 0.062323 -0.0088678 -0.12379 -0.11656 
-0.17904 -0.14977 -0.022514 0.0013258 0.042758 -0.048327 -0.063618 -0.091897 
0.022042 0.0013258 0.049828 0.037826 0.044402 0.017603 0.081395 0.0079024 
0.11329 0.028783 0.054925 0.05624 0.059857 0.097508 0.18267 0.069393 
0.035853 -0.045203 0.0095465 0.026646 0.018918 0.049664 0.14272 0.098659 
0.039141 -0.043066 0.004943 0.015794 0.013492 0.00099702 0.050814 0.10359 
0.056569 -0.017253 -0.00031829 0.018425 0.023193 -0.061151 0.0087245 0.12743 
0.069886 0.01826 0.013328 0.029605 0.033058 -0.16243 0.012177 0.13006 
0.11017 0.083697 0.093562 0.059035 0.022535 -0.19679 -0.016595 0.11411 
0.15275 0.15144 0.12513 0.12529 0.038319 -0.045203 -0.028597 0.092576 
0.10458 0.11033 0.075476 0.043251 0.020727 0.089123 -0.0057439 0.042429 
-0.013636 -0.013636 -0.019226 -0.019555 -0.015116 0.14239 0.034044 -0.019555 
-0.10028 -0.069701 -0.054246 -0.025309 -0.014787 0.14058 0.055418 -0.023665 
-0.014458 0.079587 0.021056 -0.024323 -0.0039354 0.1493 0.097508 0.005765 
0.063145 0.16985 0.097179 0.034373 0.027468 0.15308 0.12069 0.020727 
0.063968 0.11296 0.031742 0.049664 0.017274 0.11115 0.039634 0.0019835 
0.01826 0.023357 -0.013965 -0.0044286 0.019411 0.075148 -0.017088 0.00297 
0.017932 -0.011005 -0.015938 0.01826 0.057227 0.081067 0.00099702 0.079094 
0.045389 0.0023123 -0.0011404 0.04917 0.041607 0.05476 0.030098 0.12792 
0.063474 0.04095 0.037661 0.036017 0.045389 0.0075736 0.020069 0.17577 
0.092247 0.10326 0.076792 0.011684 0.041278 -0.020048 0.029112 0.15456 
0.1008 0.10376 0.050321 0.071202 0.052623 -0.0091966 0.042758 0.095042 
0.082382 0.067749 0.037332 0.044402 0.055089 -0.009361 0.034702 -0.00015387 
0.019247 -0.00015387 -0.018075 -0.0034422 0.017932 -0.013307 -0.0036066 -0.039284 
-0.030242 -0.037476 -0.041915 0.012835 -0.012814 -0.015609 -0.037147 -0.076935 
-0.042244 0.011191 0.02829 0.019905 -0.011992 -0.044546 -0.01232 -0.092719 
-0.017582 0.061008 0.031907 0.013492 -0.00064712 -0.047176 0.026646 -0.063289 
-0.022843 0.064461 -0.0016336 0.0054362 0.042594 0.01711 0.085177 -0.038462 
0.014643 0.050979 -0.0011404 -0.004593 0.022206 0.074161 0.098823 -0.0021268 
-0.0083746 0.079751 0.020069 -0.0057439 -0.032543 0.036017 0.071695 0.036182 
0.014479 0.094877 0.055418 -0.011663 -0.013636 0.01267 0.0069159 0.077285 
0.055254 0.054103 0.11083 -0.0098543 -0.0027845 0.015301 0.0024767 0.080573 
0.061995 0.036675 0.041936 -0.025967 -0.0091966 0.019576 0.0098754 0.1031 
0.077778 0.026481 0.031085 0.0069159 0.017932 0.029934 -0.0032777 0.071202 
0.075148 -0.001798 -0.01117 0.039141 0.017438 0.036346 0.015137 0.038155 
0.019905 -0.028433 -0.031721 0.052787 0.057555 0.04506 0.060679 -0.018075 
-0.00064712 0.015301 -0.0026201 0.059857 0.082546 0.07301 0.06479 -0.016595 
0.027139 0.088794 0.052787 0.088958 0.067256 0.055089 0.025659 0.033715 
0.067749 0.14223 0.095371 0.082217 0.048841 0.041114 0.029276 0.083533 
0.10228 0.13565 0.12743 0.077121 0.040128 0.031907 0.067256 0.079751 
0.073997 0.098659 0.088794 0.094055 0.0227 0.046375 0.084519 0.03651 
0.018918 0.041278 0.047691 0.031414 -0.0016336 0.014643 0.071366 0.020562 
0.0041209 0.02681 0.027961 0.0092177 -0.012814 -0.0036066 0.046046 0.016123 
0.036346 0.013328 0.022371 0.011355 0.0067515 0.0093821 0.068407 0.057391 
0.045718 0.027632 0.010697 -0.015444 0.051472 0.078107 0.048019 0.00066819 
-0.012156 0.023357 0.009711 -0.0032777 -0.00064712 0.038319 -0.10505 -0.096007 
-0.098638 0.025659 -0.0049219 -0.0060728 -0.041751 -0.045039 -0.21323 -0.18348 
-0.089266 0.052787 -0.027282 -0.039449 -0.030077 -0.081868 -0.15799 -0.10341 
-0.010512 0.024015 -0.0039354 -0.022679 0.0031344 -0.049314 -0.0044286 0.0088889 
0.02533 0.0032988 0.029769 0.028947 0.035195 0.00297 0.086985 0.090931 
0.10935 0.10852 0.028619 0.035031 0.052952 0.079916 0.17478 0.14913 
0.1174 0.12184 0.071695 0.099152 0.11576 0.14519 0.19172 0.13368 
0.052294 0.097837 0.12875 0.16245 0.13779 0.13467 0.17643 0.098659 
0.066927 0.14174 0.15292 0.14469 0.15045 0.089287 0.17347 0.044238 
0.060515 0.097508 0.11017 0.075476 0.08863 0.030098 0.083533 -0.00031829 
0.0324 0.052787 0.036675 0.05624 0.034866 0.024015 -0.0014692 -0.059507 
0.0036276 0.0098754 -0.023994 -0.00064712 -0.023172 0.0062583 -0.083347 -0.10176 
-0.08532 0.010862 -0.025309 -0.020377 -0.035174 -0.015609 -0.11113 -0.077922 
-0.087293 -0.044217 -0.032379 -0.010841 -0.036489 -0.040435 -0.09798 -0.012156 
0.00297 -0.016595 0.0018191 0.0059294 -0.016266 -0.03205 -0.067399 0.039963 
0.084519 0.03388 0.050979 0.0085601 0.0090533 -0.0406 -0.012649 0.047855 
0.11855 0.039305 0.047362 0.033551 0.0324 -0.031064 0.0074092 0.053938 
0.10803 0.040128 0.063803 0.063639 0.046046 0.0052718 0.077121 0.048677 
0.066763 0.080902 0.065776 0.042429 0.039305 0.035195 0.10754 0.044567 
-0.049971 0.054267 0.050486 0.01563 0.030592 0.015301 0.086821 0.05213 
-0.090417 0.0095465 0.057555 0.022042 0.026317 -0.022843 0.011355 0.030427 
-0.096172 0.045389 0.05213 0.017932 0.045224 0.010533 0.099481 0.018589 
-0.0022913 0.10852 0.062652 0.03947 0.049828 0.083862 0.15292 0.091589 
0.11378 0.084355 0.036839 0.03651 0.038155 0.071366 0.075312 0.017438 
0.056898 0.010697 -0.015444 0.0014903 0.0070803 0.0052718 -0.067235 -0.020212 
-0.096994 -0.097322 -0.060494 -0.032708 -0.024652 -0.031392 -0.12149 -0.053917 
-0.17525 -0.21636 -0.084827 -0.042244 -0.011827 -0.018733 -0.10784 -0.05326 
-0.079895 -0.1284 -0.054739 -0.025967 -0.0024557 0.012177 -0.015773 0.0082312 
0.11444 0.085341 -0.01528 0.056569 0.048184 0.071695 0.06035 0.074654 
0.17939 0.18876 0.070051 0.13384 0.10885 0.064461 0.085999 0.10047 
0.15061 0.17445 0.12497 0.11691 0.13582 0.064461 0.10326 0.088465 
0.12053 0.15242 0.12184 0.10951 0.11198 0.043251 0.099974 0.072353 
0.076299 0.12036 0.084519 0.078107 0.038319 0.019576 0.055254 0.041936 
-0.011992 0.051965 -0.0057439 -0.018075 -0.025309 -0.00031829 -0.021692 0.00033937 
-0.12478 -0.010676 -0.0047575 -0.04323 -0.053095 -0.0083746 -0.037805 -0.018075 
-0.098638 -0.018568 -0.0064016 -0.018404 -0.052437 -0.0062372 0.016781 0.078929 
-0.01232 -0.045532 0.025166 0.01711 -0.0031133 0.0046141 0.06331 0.1784 
0.039141 -0.057041 0.05772 0.028125 0.027468 0.023028 0.044567 0.21013 
0.070215 -0.010512 0.054267 0.036675 0.0021479 0.016781 0.042923 0.13417 
0.096686 0.057227 0.028783 0.013492 -0.0022913 -0.0057439 0.057227 0.020562 
0.10458 0.11313 0.040621 0.024344 0.036839 -0.0016336 0.05476 -0.044052 
0.089616 0.13236 0.06183 0.040621 0.061501 0.018096 0.039963 -0.057863 
0.083368 0.13335 0.067585 0.063968 0.056569 0.00099702 0.01711 -0.065591 
0.012835 0.079916 0.04917 0.028125 -0.00064712 -0.057534 -0.018239 -0.09798 
-0.071016 -0.013636 0.0041209 -0.010512 -0.017088 -0.073318 0.0069159 -0.042408 
-0.041586 -0.030735 -0.042737 0.00297 0.018425 0.054267 0.054596 0.020891 
0.0059294 -0.014293 -0.030242 -0.0011404 0.037661 0.11263 0.048184 0.06479 
0.041443 -0.0027845 -0.016102 0.011026 0.053116 0.11724 0.025659 0.13121 
0.08008 0.04917 0.015794 0.041936 0.044073 0.11198 0.076134 0.21967 
0.11083 0.090274 0.05476 0.036675 0.044567 0.1202 0.10129 0.20273 
0.082053 0.072188 0.051472 0.042429 0.040292 0.090274 0.071531 0.060022 
0.0080668 0.036017 0.033387 0.064625 0.047855 0.035195 -0.026789 -0.097487 
-0.03057 0.057062 0.022371 0.018754 0.029441 -0.050793 -0.11459 -0.17246 
-0.010183 0.040292 0.03799 0.019083 0.037661 -0.083183 -0.10784 -0.094527 
0.046046 0.065776 0.086657 0.061995 0.023686 -0.032872 -0.038298 0.044073 
0.09833 0.10737 0.10852 0.048184 0.034209 0.038977 0.064296 0.14634 
0.10737 0.10211 0.071695 0.051308 0.028125 0.062817 0.088136 0.12875 
0.099974 0.076627 0.052294 0.073668 0.039799 0.029769 0.039799 0.057555 
0.11214 0.057062 0.026974 0.063474 0.059857 0.0018191 0.057391 0.038648 
0.06742 0.058542 0.046046 0.052294 0.055418 0.069064 0.06183 0.012506 
0.04095 -0.0013048 0.023357 0.054103 0.02829 0.092576 0.094713 0.031742 
0.0044497 -0.0034422 -0.0087034 -0.014951 -0.020212 0.064132 0.09981 0.020233 
0.0080668 0.036675 -0.062631 -0.046025 -0.021363 0.062817 0.11148 0.0039565 
0.02829 0.049828 -0.020377 0.020398 0.022535 0.041443 0.03651 -0.091075 
0.02122 0.065612 1.0539e-005 0.017932 0.022535 0.022371 -0.038627 -0.047012 
0.072517 0.12266 0.012506 0.024508 0.051143 0.035524 0.013657 0.038648 
0.048677 0.11296 0.041278 0.03947 0.043909 0.051472 0.065612 0.082711 
0.047033 0.063639 0.038483 0.054267 0.054925 0.036346 0.071202 0.071859 
0.079422 0.084684 0.025824 0.043909 0.055911 -0.018239 0.022864 0.082546 
0.078436 0.10556 0.060022 0.025659 0.075805 -0.044217 -0.0034422 0.05624 
0.015301 0.027796 0.081889 0.058377 0.0042853 -0.043559 -0.058521 -0.013965 
-0.042737 0.01826 0.089452 0.021056 -0.01676 -0.040928 -0.078415 -0.072003 
-0.043395 0.041114 0.10902 0.012506 -0.017417 0.0031344 -0.022185 -0.023665 
0.00033937 0.069558 0.10244 0.048348 0.010533 0.033715 0.057391 0.052952 
0.090603 0.082711 0.10277 0.03947 0.08304 0.049828 0.084519 0.1026 
0.12299 0.081067 0.046046 0.0592 0.065776 0.061666 0.05772 0.11099 
0.074654 0.022042 -0.034845 0.033222 0.0227 0.06479 0.040128 0.031414 
0.0227 -0.0091966 -0.044052 -0.018075 -0.014787 0.024344 -0.015773 0.0036276 
0.020562 0.00297 -0.0054151 0.013986 -0.0054151 0.014479 -0.034188 -0.040928 
0.024344 0.058377 -0.0059084 0.03388 0.022864 0.015137 -0.0032777 -0.039942 
0.047691 0.096521 0.023686 0.014643 0.036346 0.041278 0.026317 -0.055561 
0.029276 0.064625 0.014643 0.0065871 0.025495 0.054596 0.070215 -0.020212 
-0.10965 -0.039449 0.0082312 0.027796 -0.00031829 0.043416 0.099316 0.024673 
-0.11196 -0.10078 -0.0026201 -0.014129 -0.017746 0.0065871 0.066763 0.03651 
0.027961 -0.028597 0.021384 -0.0138 0.0054362 0.0028056 -0.0049219 0.041114 
0.12809 0.029276 0.0016547 0.0085601 0.052787 -0.028433 -0.019719 0.13516 
0.15308 0.073504 0.03388 0.0227 0.053116 -0.030899 0.015137 0.24499 
0.14206 0.079094 0.068571 0.068078 0.08156 0.021713 0.061666 0.26899 
0.080902 0.09274 0.082711 0.08978 0.078436 0.060844 0.11017 0.20224 
0.044896 0.11757 0.080738 0.058871 0.052459 0.064625 0.14469 0.082546 
0.036675 0.10721 0.065283 0.049664 0.06183 0.075641 0.15061 0.049664 
-0.00015387 0.041936 0.057227 0.067256 0.062817 0.088301 0.14782 -0.0032777 
0.0024767 0.064625 0.056076 0.051965 0.034537 0.07038 0.084519 -0.093541 
0.026974 0.073175 0.035524 0.0075736 -0.0032777 0.035031 -0.077922 -0.24053 
0.039141 0.026974 0.021056 -0.006566 -0.00031829 0.029276 -0.13481 -0.27456 
0.0062583 -0.0004827 0.042429 -0.0029489 0.005765 0.026974 -0.098638 -0.18528 
-0.06296 -0.043559 0.0019835 -0.044546 0.0031344 -0.052931 -0.048163 -0.091897 
-0.11064 -0.046519 -0.02087 -0.025145 -0.032379 -0.1113 -0.045861 -0.02498 
-0.06296 0.011684 -0.001798 -0.0042642 -0.015444 -0.069701 -0.022514 -0.0026201 
0.031578 0.10392 0.061995 0.036675 0.043087 0.017438 -0.0022913 0.069393 
0.018754 0.054596 0.058871 0.012999 0.038483 0.041772 -0.033694 0.11099 
0.03536 0.023028 0.066105 0.039305 0.047033 0.036346 0.012177 0.18169 
0.09685 0.052294 0.013164 0.038483 0.018425 0.046704 0.079422 0.2491 
0.12102 0.040621 0.029769 0.04358 0.049335 0.048841 0.11263 0.18432 
0.088958 0.048184 0.039799 0.072517 0.05624 0.059528 0.10129 0.098001 
0.047362 0.072024 0.034537 0.022206 0.023522 0.041772 0.079258 0.013821 
0.033058 0.072353 0.029934 0.01974 0.0042853 0.027303 0.04506 -0.020706 
0.041114 0.049499 0.062159 0.052294 0.019905 0.083862 0.014972 -0.027611 
0.051143 0.052459 0.041278 0.051143 0.048019 0.09274 0.018589 -0.012485 
0.022371 0.066434 0.053774 0.045389 0.044073 0.080409 -0.011992 -0.010183 
-0.0083746 0.072188 0.040128 0.066763 0.029605 0.033058 -0.011334 -0.0029489 
0.03388 0.073832 0.031742 0.023686 0.019411 0.032893 0.027303 0.042758 
0.086657 0.085177 0.0087245 0.012835 0.029934 0.042265 0.060515 0.069393 
0.046046 0.0082312 0.0036276 0.031742 -0.0072237 0.052952 0.021384 -0.028269 
-0.062302 -0.045696 -0.036654 -0.021199 -0.018568 0.010533 0.035195 -0.043559 
-0.17904 -0.11787 -0.037805 -0.021692 -0.018239 -0.073976 0.079422 0.010369 
-0.15996 -0.063124 -0.021034 0.0054362 -0.013965 -0.14829 0.077121 0.047197 
-0.057534 -0.041257 0.026317 0.022535 0.025988 -0.11524 0.073832 0.009711 
0.0028056 0.030592 0.042758 0.015301 0.018918 -0.050958 -0.0062372 -0.099953 
0.054596 0.14091 0.041278 0.012835 -0.029091 0.012506 -0.065919 -0.13892 
0.098001 0.16163 0.029112 0.01974 -0.0036066 0.018918 -0.10686 -0.11722 
0.11395 0.090767 0.039141 0.051143 0.039799 0.00050378 -0.057699 -0.03501 
0.068736 -0.012814 0.018918 0.044567 0.067091 0.016945 -0.087786 -0.066084 
-0.052273 -0.06148 0.0036276 0.026974 0.047197 0.05213 -0.15635 -0.097816 
-0.042408 -0.016431 0.035031 0.012999 0.0054362 0.035853 -0.1358 -0.10045 
-0.001798 0.04506 0.028947 0.0098754 -0.00015387 0.042923 -0.060329 -0.055397 
0.041278 0.1202 0.047526 0.052952 0.0095465 0.0786 0.06331 0.075312 
0.084519 0.12414 0.071202 0.037168 0.031414 0.1003 0.12858 0.18646 
0.069393 0.11855 0.049664 0.009711 0.032729 0.034209 0.11954 0.20125 
0.016781 0.090109 0.051308 0.027632 0.031249 0.013164 0.096521 0.18465 
0.036675 0.018918 0.034537 0.01267 0.024179 0.018589 0.10047 0.23627 
0.074819 -0.03205 -0.021528 -0.0031133 0.029441 0.027303 0.066269 0.17692 
0.10836 0.0034632 -0.038627 0.023357 0.019411 0.033058 0.025166 0.11411 
0.089616 0.085506 -0.011498 0.011191 0.025495 0.01152 0.0060938 -0.0029489 
0.066763 0.10195 0.045389 0.042923 0.050321 -0.018897 -0.023829 -0.032708 
-0.022843 0.050486 0.054432 0.059528 0.031414 -0.031064 -0.0013048 -0.067235 
-0.071509 0.004943 0.06331 0.045553 0.033387 -0.00081153 0.058706 0.00033937 
-0.098144 -0.0057439 0.024179 0.046704 0.036182 0.010533 0.10803 0.015959 
-0.050136 0.027632 0.04095 0.056569 0.037661 -0.0029489 0.081067 0.050321 
0.031085 0.03536 0.062652 0.034702 0.062652 -0.074304 0.10754 0.13615 
0.0786 0.063968 0.06479 0.042265 0.051636 -0.045861 0.03536 0.15538 
0.079094 0.092576 0.092082 0.065283 0.029112 -0.021199 -0.010841 0.14798 
0.080244 0.11148 0.069886 0.047855 0.027961 0.020727 -0.0067304 0.11724 
0.051965 -0.00064712 0.018425 0.029769 0.027468 0.021878 0.058049 0.10556 
0.011191 -0.089266 -0.025145 0.018754 0.036346 -0.00097594 0.054103 0.036017 
-0.0016336 1.0539e-005 -0.0067304 -0.020706 -0.016431 -0.026624 0.020727 -0.06444 
-0.027775 0.024673 0.011355 -0.020048 -0.017582 0.0037921 -0.025145 -0.16161 
-0.014129 0.065118 0.072024 0.03651 0.013821 0.094877 -0.022843 -0.14698 
0.069722 0.090603 0.057227 0.06742 0.045882 0.16081 0.075148 -0.070523 
0.10819 0.11494 0.04917 0.061666 0.06594 0.14552 0.11937 0.041443 
0.039799 0.079916 0.054267 0.080409 0.094055 0.11231 0.11543 0.087808 
-0.0039354 0.036839 0.05213 0.088465 0.08008 0.083368 0.1031 0.081395 
0.040785 0.090109 0.079094 0.078929 0.057555 0.049828 0.088136 0.083862 
0.088794 0.095699 0.056733 0.014315 0.013986 -0.018075 0.04917 0.074161 
0.080573 0.093069 0.013328 0.0031344 -0.004593 -0.038791 -0.063782 0.069886 
0.020233 0.032729 0.013821 -0.016102 0.010204 -0.051615 -0.15783 0.07597 
-0.010841 0.00066819 0.007738 -0.0078813 0.012506 -0.037476 -0.059672 0.16804 
-0.022185 -0.050136 0.014808 0.021713 -0.00015387 -0.0052507 0.09126 0.23808 
0.0324 -0.022843 0.051965 0.033551 0.036675 0.051308 0.15604 0.22707 
0.082382 0.10343 0.089452 0.053938 0.060844 0.086821 0.11954 0.13976 
0.1128 0.1271 0.049992 0.074983 0.067585 0.075312 0.068571 0.060022 
0.14617 0.096686 0.038812 0.020398 0.056404 0.096521 0.097179 0.0080668 
0.1761 0.11937 0.059693 0.047197 0.046211 0.16179 0.14009 -0.03205 
0.049992 0.045882 0.067585 0.067091 0.055089 0.14979 0.11609 -0.0503 
-0.11064 -0.063618 0.041772 0.0074092 0.009711 0.064132 0.070051 -0.048656 
-0.098638 -0.029584 -0.0026201 -0.0096899 0.0013258 0.029441 0.055582 -0.011663 
0.028947 0.073668 0.024508 0.022864 0.032564 0.0065871 0.0070803 0.0028056 
0.066927 0.038812 -0.0016336 0.037168 0.046375 -0.039778 -0.018733 0.035853 
0.10803 0.05476 0.051636 0.048184 0.055418 -0.04471 -0.016924 0.073339 
0.13943 0.13154 0.10326 0.080902 0.060186 -0.048327 -0.0039354 0.11461 
0.15735 0.11214 0.091918 0.051636 0.047033 -0.012485 -0.014622 0.10606 
0.081724 0.078272 0.026481 0.018096 0.020891 -0.028269 0.0227 0.05065 
0.0421 0.047855 -0.0080457 -0.00015387 0.0093821 -0.022021 0.018589 -0.033859 
0.025001 0.038319 -0.025967 -0.0039354 -0.0091966 0.029769 -0.011663 -0.10735 
-0.012649 0.00083261 -0.02087 1.0539e-005 0.0059294 0.0059294 -0.035174 -0.17558 
-0.018404 -0.022021 0.012342 -0.0078813 -0.00081153 -0.042079 -0.058192 -0.19383 
0.027303 0.035853 0.051636 0.027139 0.03092 -0.01117 -0.040271 -0.097816 
0.069393 0.044896 0.053281 0.037826 0.052952 0.080573 0.0082312 0.048019 
0.060844 0.025824 0.0082312 0.00297 0.0095465 0.085999 0.047362 0.15292 
0.039799 0.013986 -0.04471 -0.0029489 -0.045861 0.043745 0.017274 0.066763 
-0.037147 -0.004593 -0.024487 -0.0138 -0.018897 0.060022 0.034209 0.0039565 
-0.028104 -0.026789 0.028125 -0.0075525 0.019905 0.1031 -0.0082102 -0.11409 
0.01563 0.021878 0.057391 0.070873 0.069393 0.080902 0.0075736 -0.046519 
0.078272 0.079422 0.060022 0.073504 0.04654 0.095042 0.063145 0.10145 
0.096686 0.14864 0.063803 0.052787 0.058706 0.067913 0.085177 0.14058 
0.077943 0.1539 0.078107 0.1003 0.042265 0.033551 0.049992 0.088465 
0.053445 0.10063 0.06183 0.027303 0.040292 -0.023829 0.0051074 0.032564 
0.023028 0.00083261 0.030427 0.010533 0.016452 -0.056219 -0.023172 0.029605 
0.050979 -0.035832 -0.020706 0.0052718 0.004943 -0.051944 -0.033201 0.049006 
0.054103 -0.041751 -0.032708 -0.040435 -0.024652 -0.024487 0.022535 0.061666 
0.042758 -0.054575 -0.035503 -0.042079 -0.025474 -0.047998 0.0074092 -0.00015387 
0.0051074 -0.018733 -0.0059084 -0.00081153 -0.016102 -0.050629 -0.010841 -0.048327 
-0.03501 0.018425 0.016123 0.0074092 0.010533 -0.0095255 -0.00015387 -0.096829 
-0.023007 0.086492 0.053116 0.036182 0.051801 0.044073 0.043087 -0.071838 
-0.036489 0.072681 0.049992 0.10277 0.046211 0.053938 0.00050378 -0.080881 
-0.06148 0.099316 0.050814 0.063639 0.038483 0.0074092 -0.10291 -0.15174 
-0.045532 0.14486 0.031907 0.038155 0.020398 -0.014293 -0.18232 -0.21652 
0.011355 0.051965 -0.014458 0.027468 0.0037921 -0.0013048 -0.11475 -0.13267 
0.020891 -0.079237 -0.047998 -0.038791 -0.011663 -0.014787 -0.0078813 -0.012156 
0.053774 -0.020706 -0.011005 -0.027775 -0.0016336 -0.036489 0.0079024 0.049006 
0.094548 0.073832 0.029934 0.034044 0.040128 -0.012649 0.058542 0.17232 
0.071859 0.09422 0.08156 0.080738 0.085341 0.046046 0.14157 0.27327 
0.024015 0.049828 0.049499 0.055089 0.063803 0.057391 0.16229 0.29842 
0.049006 0.033058 0.0075736 0.0013258 0.038483 0.047033 0.12825 0.23677 
0.091918 0.044402 0.034044 0.020233 0.011191 0.053281 0.11115 0.12743 
0.078272 0.052787 0.048348 0.017274 0.015465 0.092411 0.080573 -0.0014692 
0.0021479 0.013328 0.030427 0.033551 0.027796 0.080573 0.015959 -0.10653 
-0.064604 -0.066248 0.0324 0.061337 0.047691 0.046375 -0.020706 -0.19959 
-0.14319 -0.073811 0.01415 0.016945 0.007738 0.071695 -0.0067304 -0.18956 
-0.10423 0.047691 0.025659 -0.0032777 -0.0016336 0.036839 0.0013258 -0.11853 
-0.038956 0.11609 0.083697 0.0324 -0.013143 0.041936 -0.0049219 -0.049314 
0.030592 0.14716 0.071531 0.03536 0.013657 0.079587 0.050979 0.032564 
0.11905 0.16081 0.062652 0.059364 0.024179 0.1031 0.10803 0.12661 
0.12381 0.098166 0.039963 0.075312 0.031085 -0.034023 0.035524 0.16853 
0.014972 0.0023123 0.0227 0.011191 0.031578 -0.19054 -0.065591 0.094548 
-0.0080457 -0.029584 0.028619 0.0052718 0.02122 -0.17114 -0.078579 0.20832 
0.056076 0.01563 0.030263 0.017603 0.0018191 -0.019719 0.049664 0.33361 
0.12957 0.058706 0.021878 0.0054362 0.027303 0.06594 0.15275 0.28741 
0.15176 0.071366 0.088136 0.039305 0.024837 0.049335 0.1858 0.072517 
0.08978 0.099481 0.026646 0.037826 0.0032988 0.021878 0.057555 -0.11343 
-0.075291 0.01004 -0.015938 0.017767 -0.013143 0.066763 -0.072332 -0.28673 
-0.14073 -0.078579 -0.011827 0.0021479 0.0046141 0.091425 -0.063946 -0.33227 
-0.16194 -0.1792 -0.020377 0.021384 0.010369 0.10589 -0.04323 -0.15503 
-0.083512 -0.087293 -0.040764 0.0059294 0.022371 0.13105 -0.004593 0.029605 
0.024015 0.033058 0.0090533 0.059528 0.060515 0.14667 0.023522 0.11773 
0.075476 0.086821 0.075148 0.1276 0.11346 0.11855 0.052294 0.13647 
0.004943 0.10359 0.090109 0.090603 0.076463 0.066269 0.060679 0.09981 
0.06742 0.12497 0.11411 0.068407 0.054925 0.021384 0.081395 0.1294 
0.11658 0.11198 0.097344 0.040456 0.023522 -0.027611 0.055911 0.099645 
0.1368 0.12299 0.04654 0.031249 0.0037921 -0.11541 0.03388 0.079587 
0.11642 0.11543 0.031414 0.0013258 0.0047785 -0.11935 0.039799 0.082711 
0.10244 0.045224 0.047855 0.0047785 0.052952 -0.089759 0.033551 0.11888 
0.092411 0.03651 0.049499 0.062817 0.027961 -0.03616 0.050321 0.15555 
0.050157 0.022535 0.076627 0.03947 0.018754 -0.0096899 0.078436 0.15489 
0.010369 0.0021479 0.02122 0.020727 0.0032988 -0.025638 0.082053 0.063968 
-0.0091966 -0.008539 -0.0052507 0.020891 -0.0062372 0.035031 0.054596 0.063803 
0.020891 0.05213 0.01415 0.039799 0.031578 0.072681 -0.0042642 0.027632 
0.05624 0.11263 0.06479 0.055911 0.062159 0.11247 -0.038298 0.029112 
0.087808 0.12316 0.078107 0.074161 0.055418 0.12677 0.0054362 0.029769 
0.098988 0.090931 0.054103 0.033222 0.040128 0.1179 0.070051 0.028125 
0.015794 -0.047176 -0.022185 0.016452 0.02533 0.086163 0.042429 -0.025802 
-0.077593 -0.10637 -0.03501 0.030098 0.029112 0.018754 -0.018897 -0.084169 
-0.11607 -0.045203 -0.023665 0.013657 0.024837 -0.041915 -0.063124 -0.10916 
-0.088937 0.047691 -0.00097594 0.0013258 0.0070803 -0.054246 0.013492 -0.03616 
-0.023501 0.077285 0.031085 0.034209 0.0052718 -0.024487 0.10047 0.08978 
0.05624 0.095535 0.058871 0.031742 0.013657 -0.033037 0.095206 0.12447 
0.11526 0.13384 0.043087 0.025824 0.016616 -0.059836 -0.013307 0.057062 
0.093891 0.053281 0.048019 0.03799 0.027796 -0.0078813 -0.059507 0.053938 
0.095371 0.033058 0.048019 0.049335 0.071531 0.051965 0.016945 0.15374 
0.10096 0.063803 0.075641 0.095371 0.082711 0.064461 0.081231 0.17445 
0.09981 0.083533 0.11822 0.1003 0.062159 0.03947 0.068078 0.12529 
0.10228 0.10491 0.10228 0.080409 0.038319 0.05213 0.075148 0.11576 
0.14913 0.14749 0.070708 0.027303 0.016781 0.078107 0.083862 0.12628 
0.13549 0.16886 0.024015 0.028947 0.035031 0.069886 0.03651 0.085506 
0.051472 0.06479 0.018918 0.010369 0.00066819 0.074326 -0.062138 0.015137 
-0.011827 0.026317 0.012342 0.011026 0.01826 0.041114 -0.14336 -0.067564 
-0.029748 -0.042737 -0.001798 -0.0095255 0.023686 -0.0032777 -0.040928 -0.092883 
-0.082196 -0.109 -0.023501 0.025166 0.05065 0.0095465 0.15851 -0.044052 
-0.057205 -0.02794 0.0592 0.017603 0.095864 0.037826 0.2417 0.023522 
-0.031228 0.0016547 0.024179 0.047526 0.05065 0.0037921 0.13253 0.054267 
-0.034188 -0.042573 -0.00097594 0.00297 0.021056 -0.066577 0.027303 -0.058521 
-0.033694 -0.0082102 -0.028597 -0.034516 -0.033694 -0.067235 -0.026953 -0.14484 
-0.01232 0.13762 0.0227 -0.032872 -0.0049219 -0.036818 -0.063618 -0.22803 
0.063145 0.15883 0.040456 0.021713 0.026481 -0.051287 -0.097322 -0.15125 
0.071531 0.075641 0.05624 0.020069 0.041114 -0.046025 -0.05737 1.0539e-005 
0.060515 0.026974 0.041772 0.02122 0.021878 0.0064227 -0.038298 0.056404 
0.027632 0.039305 0.040292 0.067256 0.023193 0.055911 0.0227 0.089945 
0.03536 0.053938 0.060186 0.037661 0.043251 0.063968 0.088301 0.11148 
0.082217 0.065283 0.077121 0.053281 0.069886 0.065118 0.074819 0.14979 
0.070215 0.066105 0.030427 0.075476 0.071366 0.077449 0.014972 0.13467 
0.079422 0.062323 0.033387 0.026481 0.030592 0.097508 0.046868 0.12168 
0.091425 0.02122 0.0032988 0.01152 0.017438 0.071202 0.051472 0.082053 
0.071531 0.041772 0.02533 0.049664 0.025988 0.061501 0.065612 0.063145 
0.023193 0.025988 0.041278 0.018754 0.0075736 0.017932 0.043909 -0.067892 
-0.054575 -0.00081153 0.017438 0.0052718 0.012999 0.012013 0.018754 -0.17821 
-0.068057 0.0095465 0.0034632 0.0046141 -0.020706 -0.03501 0.0080668 -0.1838 
-0.03057 0.013657 -0.023172 -0.021856 -0.01117 -0.036983 -0.041257 -0.11031 
0.017767 0.0074092 0.0023123 0.0034632 0.0024767 -0.030899 -0.049971 -0.047834 
0.00033937 0.014972 0.032564 0.016945 0.00066819 0.0065871 -0.059178 -0.060823 
-0.014129 0.041607 0.063145 0.027961 0.023357 0.023851 -0.054082 -0.047341 
0.0062583 0.045718 0.029276 0.023522 0.034209 0.046704 0.017767 0.0054362 
0.052952 0.042758 0.037168 0.044567 0.03651 0.031578 0.048841 0.056733 
0.064132 0.082546 0.042594 0.031578 0.043416 0.038155 0.05476 0.035524 
0.058049 0.10721 0.044567 0.041607 0.034209 0.011848 0.035031 -0.013143 
0.011191 0.050814 0.035853 0.011191 0.013986 0.0085601 0.046868 -0.0016336 
-0.023665 0.037332 0.035195 0.0074092 0.013657 0.012999 0.013328 0.029605 
-0.022679 0.043251 -0.029255 -0.0090322 -0.013143 0.027303 -0.0031133 0.047197 
0.039963 0.030592 -0.033201 -0.02087 -0.0060728 0.016945 -0.0054151 0.057555 
0.092576 0.024508 -0.00097594 0.01711 0.016123 0.025659 0.038648 0.097015 
0.08978 0.046046 0.026152 0.03799 0.04654 0.047197 0.067585 0.090109 
0.065612 0.066927 0.076792 0.019576 0.041607 0.090274 0.063968 0.066927 
0.00050378 0.016288 0.0421 0.05213 0.018918 0.039634 0.042594 0.029112 
0.010862 0.038483 0.0054362 0.010862 0.0021479 0.013657 0.04095 0.045553 
0.043745 0.064296 0.023357 0.0079024 0.013821 0.024673 0.059857 0.049664 
0.025824 0.041607 0.0080668 0.046046 0.020562 0.03536 0.032236 0.036675 
0.025166 0.027139 0.005765 0.020233 0.0227 0.0036276 0.01152 0.0064227 
0.036839 0.065118 0.028783 0.004943 0.0324 -0.032708 -0.022679 -0.0019624 
0.057227 0.0689 0.031249 0.057062 0.020891 -0.052931 -0.050136 -0.0016336 
0.032729 0.056569 0.024508 0.026974 0.034702 -0.016266 -0.012649 0.0011614 
0.037332 0.047033 0.029276 0.03092 0.051143 0.076792 0.080738 0.058871 
0.048677 0.082382 0.047691 0.074161 0.056076 0.1105 0.086821 0.049664 
0.06594 0.054596 0.025001 0.051636 0.034373 0.13861 0.057062 0.069393 
0.027796 0.038812 0.030098 0.015137 0.027796 0.087314 0.087808 0.077121 
0.0018191 0.049335 0.010204 0.055254 0.024015 0.047033 0.059364 0.11083 
0.0093821 0.033715 0.0069159 0.030427 0.0095465 0.048348 0.046046 0.15061 
0.0421 0.047855 0.019083 0.015465 0.024673 0.049992 0.059035 0.1807 
0.082217 0.054103 0.052952 0.070215 0.041443 0.052294 0.1077 0.21408 
0.11658 0.10425 0.097344 0.068736 0.072024 0.041114 0.15357 0.23151 
0.094713 0.10967 0.11362 0.068078 0.055582 0.030592 0.11017 0.23381 
0.049828 0.093726 0.03651 0.045718 0.0060938 -0.01117 0.0032988 0.1738 
0.035688 0.07038 -0.0014692 0.0013258 -0.044381 -0.052109 -0.099131 0.086163 
0.045224 0.00099702 -0.030077 -0.034681 -0.037147 0.00017495 -0.035667 0.019576 
0.026481 -0.040106 -0.01117 -0.024816 0.035524 0.058213 0.025659 -0.0059084 
-0.028762 -0.030735 0.029276 0.04654 0.039141 0.029112 0.076134 -0.060165 
0.0014903 -0.0039354 0.061501 0.076627 0.071695 -0.0075525 0.09422 -0.041093 
0.066105 0.078436 0.061172 0.071859 0.083368 -0.010348 0.064461 -0.04471 
0.073832 0.11181 0.0689 0.090767 0.068736 -0.01528 0.011355 -0.087293 
-0.00081153 0.076792 0.031742 0.012835 0.043087 -0.068879 -0.061151 -0.12001 
-0.014129 0.063474 0.049335 0.027961 0.033058 -0.121 -0.081868 -0.077264 
0.0054362 0.092082 0.075476 0.068571 0.021878 -0.097322 -0.02235 0.037168 
0.05213 0.089616 0.05624 0.047362 0.040785 0.028783 0.075476 0.12233 
0.035853 0.033058 0.0227 0.025659 0.030427 0.11526 0.08156 0.17248 
0.032893 0.0031344 -0.015938 0.011191 0.0083956 0.11066 0.015301 0.24976 
0.087643 0.061666 0.032729 0.0046141 0.047362 0.12151 0.0039565 0.27228 
0.11921 0.063968 0.062652 0.034373 0.044073 0.12513 0.064461 0.16492 
0.051636 0.035524 0.11083 0.055911 0.042429 0.11165 0.15357 0.028783 
-0.041915 0.020069 0.031907 0.011026 0.01563 0.058706 0.15012 -0.084991 
-0.030406 0.052294 0.023028 0.0075736 0.0021479 0.043251 0.10491 -0.13168 
0.019247 0.098659 0.01267 0.037332 0.020398 0.011355 -0.01232 -0.18759 
0.0421 0.080902 0.053281 0.053116 0.041278 -0.045861 -0.10275 -0.15224 
0.005765 0.027632 0.040621 0.043087 0.019411 -0.071016 -0.065919 -0.010019 
-0.11179 -0.1182 0.0083956 0.018096 0.012013 -0.029748 0.0087245 0.027139 
-0.095514 -0.11426 -0.055232 -0.045861 -0.028762 -0.00081153 -0.017088 -0.0083746 
-0.060165 -0.019061 -0.060823 -0.042079 -0.016102 -0.0406 -0.093048 -0.02646 
0.025824 0.027303 -0.0039354 0.014643 0.02533 -0.039613 -0.06855 0.040456 
0.1105 0.07449 0.037826 0.036675 0.034866 0.0019835 -0.026296 0.073668 
0.13713 0.10244 0.062159 0.036675 0.02533 0.072024 0.030756 0.061008 
0.089452 0.075805 0.055911 0.045553 0.034866 0.073997 0.064132 0.063968 
0.053774 0.06742 0.060515 0.051636 0.059035 0.0689 0.11214 0.10178 
0.031085 0.026974 0.033551 0.037332 0.072024 0.039799 0.11937 0.085506 
0.038155 0.03536 0.092082 0.044073 0.037168 0.082546 0.11083 0.091918 
0.045882 0.052787 0.12776 0.07449 0.026481 0.078929 0.13549 0.080244 
0.082875 0.10787 0.14568 0.047033 0.026481 0.038483 0.061666 0.051308 
0.084355 0.12727 0.067256 0.041936 0.017274 0.0060938 -0.0016336 -0.087458 
0.031085 0.068078 0.040292 0.026481 0.034866 0.025824 -0.083018 -0.19877 
0.0054362 0.02681 0.016452 0.0085601 0.030098 0.00297 -0.1524 -0.20748 
-0.019061 0.036182 0.037168 0.023522 0.022206 -0.05885 -0.12856 -0.15454 
-0.076606 0.014643 0.045553 0.041607 0.0018191 -0.062467 -0.084991 -0.14714 
-0.096336 0.0014903 0.013164 0.00297 0.0080668 -0.0026201 -0.07973 -0.19022 
-0.025474 0.019411 -0.0022913 1.0539e-005 0.0062583 0.01004 -0.052109 -0.12988 
0.0062583 0.060679 -0.015444 0.01415 0.020562 0.03947 -0.0049219 -0.033694 
0.0092177 0.027961 -0.027282 -0.015444 0.0039565 0.11559 0.11313 0.089287 
-0.061973 -0.010512 -0.061645 -0.00064712 -0.0060728 0.13516 0.16294 0.066269 
-0.10406 -0.044381 -0.019226 0.01152 0.0082312 0.10474 0.12924 0.061995 
-0.050629 0.011355 0.023028 0.010862 0.018096 0.055089 0.12628 0.026152 
-0.027611 0.05624 0.028947 -0.0073881 0.023686 0.073339 0.10836 0.01415 
0.016616 0.08978 0.065283 0.031907 0.034373 0.011191 0.055254 0.13647 
0.056569 0.069229 0.039305 0.020233 0.0037921 -0.052437 -0.028926 0.2269 
0.089123 0.035524 0.033058 0.034537 0.040128 -0.10209 -0.077264 0.22838 
0.13615 0.036839 0.046046 0.046211 0.012013 -0.16046 -0.082361 0.14305 
0.15801 0.083862 0.058542 0.034866 0.012342 -0.20649 -0.0771 0.047526 
0.093233 0.064461 0.050486 0.037332 0.029112 -0.058028 0.021549 -0.039613 
0.062323 0.073339 0.069886 0.070873 0.035853 0.048677 0.071037 -0.059014 
0.034537 0.082875 0.086985 0.064461 0.064625 0.046211 -0.014622 -0.097651 
0.054596 0.08863 0.10047 0.071366 0.050814 0.017603 -0.01117 -0.071181 
0.05624 0.052623 0.12924 0.076956 0.063145 0.064296 0.072188 -0.014129 
0.04358 0.059528 0.053609 0.069229 0.057391 0.14881 0.10902 0.056076 
0.012506 0.023357 -0.0138 0.014315 0.0054362 0.19073 0.09274 0.068078 
0.0051074 0.023851 -0.009361 -0.0024557 -0.0027845 0.16146 0.080409 0.069886 
0.03947 0.078272 0.01974 0.021384 -0.00015387 0.10688 0.081724 0.089287 
0.070708 0.12003 0.039305 0.0013258 0.018425 0.026481 0.084519 0.080244 
0.059528 0.08863 0.0324 0.0028056 0.025988 -0.038133 0.024015 -0.018897 
-0.011498 -0.0060728 -0.037147 0.0019835 0.01152 -0.086142 -0.043066 -0.12166 
-0.071838 -0.042079 -0.06855 -0.027282 -0.015116 -0.13662 -0.052766 -0.080059 
-0.065262 -0.041915 -0.049971 -0.059343 -0.004593 -0.19071 -0.041586 0.06035 
-0.0073881 -0.01939 -0.016431 0.03651 0.005765 -0.12692 0.019576 0.22657 
0.033551 0.014479 0.026481 0.026646 0.019411 -0.014293 0.089123 0.19994 
0.079258 0.073832 0.051801 0.040456 0.059693 0.10326 0.11707 0.12118 
0.1493 0.097179 0.053116 0.11937 0.06035 0.098494 0.12299 0.08008 
0.1539 0.10228 0.067256 0.075805 0.042265 0.060515 0.073339 0.0592 
0.10984 0.0786 0.048677 0.029769 0.029769 0.022535 0.019905 -0.019226 
0.014479 -0.0055795 0.007738 0.01415 -0.020212 -0.050629 -0.0965 -0.085485 
-0.069372 -0.031228 0.061337 -0.0022913 0.0075736 -0.054246 -0.11787 -0.062796 
-0.043395 0.045389 0.04358 0.0069159 0.022535 -0.019226 -0.089595 -0.031886 
0.026646 0.086163 0.048019 0.063803 0.03651 -0.017088 0.0059294 0.077285 
0.13088 0.083533 0.0592 0.053445 0.027632 -0.0032777 0.058213 0.13943 
0.12924 0.058542 0.059857 0.035524 0.040128 0.048513 0.092082 0.12365 
0.064954 0.062981 0.03799 0.035031 0.035195 0.062323 0.098001 0.06183 
0.048841 0.027139 0.044402 0.017438 0.044567 0.034866 0.11017 0.047362 
0.060515 0.030756 -0.0024557 0.024015 0.045389 0.023193 0.081724 0.047033 
0.09126 0.12628 0.018589 0.05476 0.053281 0.078436 0.085341 0.043416 
0.1003 0.10951 0.034373 0.075476 0.061501 0.13154 0.099974 0.04095 
0.058377 0.065776 0.025824 0.04917 0.075476 0.11559 0.066763 0.028619 
0.060515 0.054267 0.018425 0.047362 0.06594 0.0786 0.049006 0.057227 
0.051308 0.03092 0.028783 0.020233 0.013657 0.051143 0.021878 0.062652 
0.03536 -0.00097594 0.016616 0.0011614 -0.009361 0.016616 -0.036983 0.050814 
0.01711 -0.0019624 0.0056006 0.016123 0.018096 0.0046141 -0.064768 0.014643 
0.042429 0.038483 -0.0022913 0.046211 0.025001 0.0069159 0.0080668 0.073668 
0.051472 0.061995 0.0075736 0.016452 0.038812 0.010369 0.026481 0.14831 
0.022864 0.048841 0.059528 0.035031 0.049499 0.0042853 -0.0052507 0.17988 
0.056076 0.074326 0.07038 0.055254 0.049499 -0.0016336 0.035031 0.24351 
0.11773 0.062652 0.039305 0.030592 0.022371 0.025001 0.13023 0.29004 
0.12842 0.021549 0.028454 0.029112 0.032729 0.0592 0.20553 0.28987 
0.11346 0.0011614 0.025988 0.055582 0.035524 0.068736 0.17281 0.17445 
0.070708 0.011355 0.025988 0.03799 0.06594 0.075148 0.11937 0.062323 
-0.0075525 0.02122 0.054925 0.024508 0.027139 0.072353 0.071202 -0.087458 
-0.044217 0.044073 0.052294 0.018754 0.020398 0.090931 0.048677 -0.18561 
-0.0068948 0.10277 0.064132 0.01711 0.011355 0.10211 -0.00097594 -0.28015 
-0.00031829 0.097015 0.088136 0.033058 0.031085 0.092411 -0.074633 -0.3617 
-0.056219 0.029276 0.03536 0.020069 0.027303 0.081231 -0.1524 -0.41316 
-0.099789 0.0087245 -0.018404 -0.029255 0.00033937 0.16459 -0.12889 -0.352 
-0.11722 -0.055232 -0.042079 -0.038956 -0.029091 0.16229 -0.084334 -0.18676 
-0.02942 -0.039778 -0.046847 -0.0027845 0.0051074 0.10228 -0.041751 0.042758 
0.01004 0.059693 -0.023172 0.013657 0.017603 0.028619 -0.029748 0.21671 
-0.0064016 0.067585 0.0062583 0.035688 0.045389 -0.038298 -0.02498 0.20273 
0.046375 0.073997 0.046868 0.10721 0.1008 -0.088608 0.11806 0.30779 
0.16179 0.078436 0.067091 0.083368 0.093891 -0.077428 0.21802 0.40874 
0.1932 0.063803 0.053116 0.042429 0.066105 -0.05178 0.17084 0.36419 
0.14881 0.020233 0.011026 0.021549 0.032236 -0.15306 0.025001 0.14026 
0.09685 0.053938 0.037168 0.04358 0.030592 -0.12807 -0.076935 -0.079401 
0.031578 0.12513 0.089287 0.06331 0.089287 0.031249 -0.064768 -0.20863 
0.015137 0.09685 0.084684 0.059528 0.064296 0.14469 0.0024767 -0.18463 
0.041772 0.081889 0.073175 0.034866 0.0023123 0.18646 0.075641 -0.13053 
-0.017746 0.076463 0.0324 -0.014951 -0.02646 0.19698 0.1105 -0.14451 
-0.14846 0.0095465 -0.035832 -0.046354 -0.030077 0.11543 0.078272 -0.18183 
-0.18808 -0.06855 -0.045039 -0.039778 -0.031228 0.046211 -0.029255 -0.1935 
-0.14796 -0.078579 -0.018897 -0.042573 -0.011005 -0.036654 -0.080059 -0.17164 
-0.087786 -0.018733 0.011684 -0.0088678 -0.022843 -0.075949 -0.072332 -0.17295 
-0.018075 0.0093821 0.08567 0.027139 -0.011498 -0.1233 -0.09798 -0.030899 
0.056898 0.02533 0.040785 0.011191 -0.0090322 -0.12166 -0.0771 0.11033 
0.10343 0.032729 0.034209 0.012835 -0.0062372 -0.062302 -0.049149 0.18448 
0.082711 0.029605 0.051801 0.045553 0.01826 -0.060494 0.035195 0.17117 
0.086163 0.074819 0.051636 0.01974 0.01267 -0.14007 0.014479 0.11937 
0.050486 0.088465 0.022042 0.040621 0.010533 -0.14665 0.0056006 0.04358 
-0.015773 0.071366 0.007738 0.02829 0.032564 -0.055561 0.034044 0.036017 
0.012999 0.092082 -0.018239 0.033551 0.057062 0.061172 0.09833 0.10852 
0.10524 0.15834 0.035688 0.054596 0.073997 0.12102 0.14848 0.13006 
0.2029 0.19599 0.056898 0.092247 0.061337 0.11674 0.12316 0.13779 
0.19649 0.08304 0.043251 0.053609 0.038812 0.040456 0.076299 0.020233 
0.044731 -0.060329 -0.0090322 -0.022021 0.030263 0.025659 0.017274 -0.062467 
-0.19531 -0.1427 -0.039449 -0.023665 -0.020048 0.045389 0.032729 -0.10176 
-0.30892 -0.10883 -0.024487 -0.020706 -0.0014692 0.028947 0.063639 -0.090417 
-0.19696 0.015465 0.035688 0.041443 0.041443 0.010204 0.023522 -0.10324 
-0.006566 0.13878 0.1003 0.091425 0.03388 -0.029091 -0.01528 -0.10949 
0.16179 0.17199 0.13976 0.099481 0.06035 -0.091732 -0.095514 -0.050958 
0.17149 0.12053 0.13187 0.076463 0.066763 -0.080388 -0.14171 0.044731 
0.11576 0.019247 0.086985 0.026152 0.021713 -0.049478 -0.087622 0.092576 
0.037332 -0.031064 0.017274 0.028783 -0.012485 -0.049642 0.010862 0.09833 
0.03388 0.0088889 0.027632 -0.011827 -0.044052 -0.075784 0.012835 0.11658 
0.038977 0.0088889 0.013492 -0.019555 -0.028597 -0.061645 -0.011498 0.072846 
0.0085601 0.029934 -0.010841 0.015137 0.007738 0.0036276 0.038812 0.033222 
-0.010019 0.052623 0.041772 0.03388 0.042265 0.034044 0.11313 0.04917 
0.057555 0.075312 0.040621 0.03947 0.077285 0.068571 0.19451 0.13368 
0.13565 0.08304 0.038155 0.066763 0.056898 0.060679 0.21095 0.27129 
0.13467 0.076134 0.01563 0.018918 0.0324 0.029276 0.16969 0.33607 
0.090767 0.069393 0.017274 0.028125 0.037497 -0.022185 0.095699 0.25617 
0.066763 0.064132 0.052459 0.04917 0.045553 0.052787 0.021713 0.081231 
0.043745 0.06331 0.064132 0.025166 0.027961 0.073339 -0.072332 -0.031064 
0.019083 0.011191 0.019083 -0.0026201 0.031742 0.075641 -0.10357 -0.00015387 
-0.010512 -0.037311 -0.022679 0.0054362 -0.0047575 0.052952 -0.089102 0.095535 
-0.02087 -0.026296 -0.033037 -0.024652 -0.0031133 0.064625 -0.030242 -0.024158 
-0.017582 0.036675 -0.0034422 -0.024816 0.0024767 0.076299 0.020398 -0.10653 
0.032564 0.081395 0.059528 0.058213 0.025659 0.065118 0.064954 -0.055561 
0.1105 0.092247 0.11937 0.06183 0.04095 0.069229 0.12858 0.09274 
0.11559 0.095699 0.063474 0.077943 0.074326 0.086163 0.15686 0.1955 
0.053281 0.044238 0.042594 0.080902 0.043416 0.023686 0.1225 0.1077 
-0.00097594 -0.010183 0.00066819 0.021056 0.01563 0.03799 -0.0022913 -0.051944 
-0.035174 0.017767 0.028125 0.014808 0.015137 0.055418 -0.060165 -0.07562 
-0.022021 0.0024767 0.062652 0.06183 0.058706 0.075641 0.0023123 -0.028104 
0.0016547 0.046375 0.072517 0.031578 0.046704 0.094548 0.031414 -0.00031829 
0.031085 0.069064 0.03536 0.013492 0.022206 0.11017 0.049828 0.039141 
0.049664 0.036839 0.014479 0.012835 0.005765 0.12118 0.017438 0.02681 
0.063145 0.021878 0.024015 0.014972 0.0069159 0.12727 0.050979 0.069722 
0.052459 0.032071 0.021549 0.010862 0.023357 0.12661 0.10392 0.081724 
0.0064227 0.00297 0.0095465 0.024508 0.045718 0.16525 0.13993 0.092247 
0.0044497 0.021384 0.038977 0.051801 0.063639 0.19057 0.074654 0.057391 
0.0421 0.04358 0.010862 0.018918 0.037168 0.16146 0.0032988 0.02829 
0.082711 0.086492 0.0013258 0.0082312 0.051472 0.12776 0.033387 0.049828 
0.099152 0.081067 0.014972 0.036839 0.051636 0.048019 0.071202 0.047033 
0.065283 0.070873 0.034866 0.014315 0.073997 0.023522 0.071366 0.0092177 
0.012835 0.071366 0.026152 0.011355 0.044238 -0.12725 -0.023172 -0.045203 
-0.023172 0.03799 -0.03205 -0.006566 -0.017582 -0.29495 -0.17213 -0.083512 
0.00033937 0.032071 -0.031721 -0.035996 -0.02942 -0.33375 -0.22606 -0.070852 
0.033222 0.06331 -0.011992 -0.02794 -0.046025 -0.25154 -0.095678 0.00017495 
0.039141 0.09274 0.034373 0.031742 -0.0019624 -0.13481 0.033222 0.042923 
0.017274 0.056076 0.078436 0.034209 0.040128 0.022864 0.11329 0.065447 
0.0070803 0.025001 0.078436 0.047033 0.035688 0.15028 0.083697 0.020891 
-0.012978 -0.0075525 0.024673 0.043909 0.020398 0.21835 0.026481 -0.056548 
0.041114 0.022206 0.023193 0.026974 0.020069 0.27392 0.050979 -0.034023 
0.11773 0.10047 0.065447 0.051965 0.06742 0.26702 0.10754 0.042265 
0.11822 0.15226 0.11625 0.10392 0.090931 0.16114 0.09274 0.088301 
0.10293 0.12283 0.14124 0.066763 0.070051 0.15752 0.081231 0.076463 
0.036839 0.033222 0.11642 0.039963 0.047526 0.17643 0.14223 0.056404 
-0.03912 -0.032708 -0.0029489 0.026974 0.019247 0.17511 0.15637 0.009711 
-0.076935 -0.047176 -0.049478 -0.0040998 0.013328 0.078107 0.12661 0.00033937 
-0.0050863 -0.056055 -0.064111 -0.0062372 0.011684 -0.047834 -0.00064712 -0.016431 
0.076627 -0.031392 -0.047176 0.01563 -0.0052507 -0.26486 -0.13316 -0.020541 
0.062323 0.058706 0.0052718 0.0041209 -0.009361 -0.34674 -0.18479 -0.052273 
0.08156 0.10244 0.056404 0.06331 0.035853 -0.19877 -0.10094 -0.0070593 
0.068736 0.10195 0.090931 0.079751 0.063145 -0.25269 -0.061151 0.00297 
-0.0090322 0.058377 0.046868 0.044731 0.0046141 -0.45311 -0.11837 -0.037805 
-0.013143 0.066763 0.044567 0.0075736 -0.01528 -0.34871 0.0072447 0.061501 
0.058542 0.14502 0.088136 0.068407 0.054596 0.024508 0.15653 0.16475 
0.093233 0.17248 0.1248 0.098659 0.058213 0.29217 0.21457 0.21835 
0.11888 0.12036 0.058706 0.061501 0.057062 0.30516 0.16459 0.16311 
0.078436 0.0075736 -0.015116 -0.023994 0.0052718 0.2223 0.089123 0.053938 
0.058377 -0.0075525 0.012342 0.0052718 -0.013471 0.13171 0.043745 -0.012156 
0.032236 0.039799 0.064625 0.012506 0.03092 0.071859 0.041443 0.047855 
-0.013307 -0.0026201 0.074654 0.039634 0.025824 0.017767 0.050486 0.06331 
-0.018897 -0.0088678 0.097508 0.08304 0.057391 -0.020212 0.037497 0.06594 
-0.073976 -0.038133 0.015465 0.03947 0.044402 -0.047012 0.027139 0.062488 
-0.016924 -0.0004827 -0.02794 -0.00031829 0.028783 -0.094199 0.021549 0.045882 
0.089616 0.036017 -0.029255 0.048841 0.045882 -0.10817 0.0014903 0.031249 
0.12349 0.048184 0.021549 0.05213 0.058706 -0.11985 -0.02087 0.034209 
0.12644 0.069064 0.062488 0.053281 0.070051 -0.0042642 -0.015773 0.042758 
0.085835 0.062817 0.082217 0.072517 0.046211 0.061008 0.05772 0.059857 
0.058213 0.10392 0.031907 0.024508 0.013821 0.087479 0.03947 0.08567 
0.047197 0.077778 0.034537 -0.0026201 0.012999 0.049992 0.0082312 -0.0036066 
0.020727 0.027796 0.023522 0.023028 0.023357 0.047362 0.013328 -0.029255 
0.03092 0.02122 0.033222 0.0074092 0.0014903 0.023357 0.032729 0.021713 
0.073997 0.073175 0.06479 0.026974 0.018589 0.050979 0.061172 0.047855 
0.062323 0.063145 0.062652 0.06183 0.058213 0.027303 0.053281 -0.023829 
0.044567 0.046704 0.022042 0.039141 0.055089 0.042758 0.03947 -0.13366 
0.015301 0.051801 0.019083 -0.0036066 0.019083 0.040128 -0.035832 -0.26535 
-0.049971 0.040456 -0.00031829 0.0060938 -0.025309 0.019411 -0.061316 -0.20173 
-0.048985 -0.020377 0.0046141 0.0011614 -0.017911 0.029934 -0.054246 1.0539e-005 
-0.031886 -0.064604 0.02829 -0.0044286 -0.01676 0.071037 0.029769 0.19155 
0.0059294 -0.0024557 0.011848 0.023851 0.0041209 0.12628 0.14354 0.33755 
0.067749 0.035688 0.032893 0.037661 0.042265 0.1442 0.22756 0.33262 
0.072188 0.089945 0.049499 0.055747 0.051801 0.093233 0.15489 0.19879 
-0.0050863 0.074326 0.015465 0.0088889 0.033058 0.0090533 0.0024767 -0.089595 
-0.028433 0.024837 0.01974 0.015137 0.010533 1.0539e-005 -0.047176 -0.18693 
-0.028926 -0.05178 0.018425 0.013986 0.041114 0.032564 -0.026296 -0.1524 
0.010697 -0.055068 -0.016266 0.028947 0.053774 0.073997 0.037168 -0.14336 
0.0079024 0.050486 -0.0059084 0.052459 0.053774 0.16015 0.023686 -0.21192 
-0.054246 0.075476 -0.0024557 0.0087245 0.025495 0.25288 -0.05178 -0.25121 
-0.052931 0.0786 0.0090533 0.00050378 0.012342 0.24005 -0.097816 -0.22655 
0.046046 0.12217 0.029441 0.024179 0.030263 0.14354 -0.063453 -0.064768 
0.11313 0.060022 0.024179 -0.0014692 0.020727 0.02681 -0.026953 0.15407 
0.10178 0.03388 -0.033365 -0.020377 0.00017495 -0.10357 -0.028269 0.26274 
0.077614 0.022535 -0.041915 -0.011663 -0.052273 -0.086471 -0.04619 0.28313 
0.10787 0.0013258 -0.023336 -0.0014692 -0.026789 -0.054082 -0.044217 0.19501 
0.089452 0.011355 0.0083956 -0.014951 -0.03501 -0.10735 -0.039449 0.097508 
-0.004593 -0.0039354 0.037497 0.0023123 -0.011663 -0.16457 0.00033937 -0.073154 
-0.063946 0.056404 0.037004 -0.021528 0.0074092 -0.10308 0.10836 -0.099789 
-0.043395 0.076627 0.10178 0.039963 0.062817 0.15324 0.20208 -0.024487 
0.0087245 0.12431 0.16114 0.12875 0.066763 0.30631 0.24663 0.081395 
0.063474 0.14272 0.12135 0.10145 0.080409 0.29892 0.19665 0.10573 
0.032893 0.07597 0.066763 0.057391 0.066105 0.22592 0.086657 0.061008 
-0.03205 -0.011005 0.028947 0.027468 0.047855 0.1128 -0.025309 0.010369 
-0.08384 -0.033201 -0.029748 -0.022843 0.0024767 -0.05178 -0.11146 -0.009361 
-0.040271 -0.032543 -0.03353 -0.031228 -0.049971 -0.30827 -0.16966 0.00083261 
-0.029584 0.0016547 -0.014787 -0.0078813 -0.045368 -0.45344 -0.18216 -0.030899 
-0.0138 0.039634 -0.0070593 0.04654 -0.0042642 -0.28821 -0.061973 0.010204 
0.011026 0.054596 0.038648 0.058213 0.069722 0.039634 0.091425 0.11115 
0.052459 0.064954 0.074654 0.064625 0.10639 0.23003 0.10162 0.13203 
0.11526 0.072846 0.015794 0.061337 0.08156 0.20553 -0.014129 0.03799 
0.10754 0.095371 -0.015938 0.010862 0.040456 0.1641 -0.12215 -0.055397 
0.073339 0.06479 -0.015609 0.0052718 0.023028 0.055089 -0.1307 -0.076606 
0.065776 0.089945 0.011026 0.033715 0.018589 0.0019835 -0.040764 -0.071509 
0.065776 0.09422 0.044896 0.039634 1.0539e-005 -0.021363 0.03092 -0.096665 
0.0011614 0.08863 0.055418 0.0013258 -0.0022913 -0.062631 0.012999 -0.10176 
-0.004593 0.0023123 0.022042 0.012506 -0.022514 -0.10686 -0.025309 -0.0062372 
-0.013471 -0.036818 0.023357 0.015959 -0.0014692 -0.10801 -0.011827 0.09274 
0.046211 -0.010183 0.016945 0.03799 0.010533 -0.058192 0.053281 0.23759 
0.033715 -0.010841 0.039963 0.067585 0.043251 -0.0073881 0.090109 0.29678 
0.042758 0.056569 0.10573 0.071695 0.096686 -0.0062372 0.096357 0.28182 
0.064625 0.13516 0.1322 0.08567 0.085835 0.021056 0.11444 0.17873 
0.080902 0.12053 0.069229 0.091918 0.072024 0.086328 0.12973 0.13499 
0.047691 0.075641 0.060186 0.039963 0.034044 0.075641 0.13993 0.098494 
0.049664 0.037826 0.072846 0.038977 0.037661 0.039141 0.10672 0.065118 
0.04917 0.073339 0.098166 0.08304 0.012013 0.026317 0.1174 0.045224 
0.069886 0.073832 0.061337 0.015301 0.013164 0.015137 0.13335 -0.023172 
0.017767 0.0065871 -0.013636 -0.0055795 -0.0082102 -0.036818 0.059857 -0.056548 
-0.031228 -0.022021 -0.018239 0.012835 0.0072447 -0.060658 0.014315 -0.035174 
0.011026 -0.0049219 -0.0036066 0.02829 0.052459 0.0098754 0.026152 0.11576 
0.067256 0.054432 0.044402 0.053938 0.06183 0.14897 0.078436 0.17232 
0.14371 0.10622 0.065447 0.069393 0.058706 0.23841 0.10672 0.17692 
0.1294 0.058213 0.03799 0.026317 0.011684 0.22986 0.068078 0.080573 
0.043416 -0.011498 0.0059294 -0.011005 0.018918 0.19846 -0.0021268 -0.021528 
-0.091239 -0.027282 -0.041093 -0.040435 -0.042901 0.1932 -0.060658 -0.08121 
-0.069372 0.065118 0.0069159 -0.015444 -0.034516 0.020233 -0.047669 -0.038298 
0.011355 0.093398 0.065612 0.019411 0.040785 -0.12938 -0.03501 0.027303 
0.073504 0.10047 0.11099 0.085835 0.10474 -0.29149 -0.037311 0.085177 
0.092411 0.12168 0.12677 0.1197 0.074326 -0.43684 -0.08532 0.086163 
0.11625 0.11198 0.079094 0.086163 0.06035 -0.35282 -0.028433 0.050157 
0.092904 0.066927 0.075312 0.09422 0.07597 -0.010841 0.081067 0.031085 
0.076134 0.054103 0.012835 0.050979 0.05213 0.13401 0.087972 -0.052437 
-0.048492 -0.029913 -0.029913 -0.011005 0.036182 0.183 0.044896 -0.082361 
-0.12494 -0.091897 -0.0088678 -0.023829 0.0013258 0.18366 0.027632 -0.045039 
-0.082361 -0.057205 0.0069159 0.005765 -0.011663 0.11017 -0.03501 -0.02498 
0.031742 0.011191 0.0070803 -0.0021268 1.0539e-005 0.077943 -0.026953 0.036346 
0.10688 0.063803 0.035524 0.024837 0.0324 0.21737 0.16344 0.094877 
0.12201 0.094713 0.063639 0.079258 0.081231 0.24976 0.22937 0.087808 
0.081889 0.093233 0.028619 0.017767 0.054103 0.13483 0.16574 -0.027447 
0.054596 0.031907 0.00050378 -0.014787 0.010697 0.02122 0.08304 -0.11426 
0.095042 0.092247 0.0074092 0.0421 0.0227 0.009711 0.042758 -0.10883 
0.090767 0.15571 0.057391 0.051472 0.048677 0.0059294 0.052952 -0.034023 
0.0062583 0.07038 0.052952 0.031414 0.04358 0.011026 0.01711 0.011684 
-0.073647 -0.039613 -0.001798 0.025001 0.024015 -0.061151 -0.011498 0.076463 
-0.14336 -0.079566 -0.032708 -0.040435 -0.040435 -0.070852 -0.041751 0.031742 
-0.093541 -0.0138 -0.0054151 -0.017253 -0.020048 -0.041586 -0.006566 0.044238 
0.012013 0.01152 0.023357 0.047033 0.028947 0.026481 -0.00015387 0.048019 
0.08978 0.052294 0.063474 0.059857 0.079751 0.085999 0.01563 0.10721 
0.10737 0.089616 0.059693 0.045389 0.069393 0.064954 -0.023994 0.14815 
0.12924 0.093398 0.020398 0.028619 0.032564 0.016781 -0.04471 0.14124 
0.13516 0.072517 0.009711 -0.010676 -0.00031829 -0.003771 -0.051122 0.11313 
0.11625 0.059528 0.00066819 -0.00081153 0.0028056 0.01826 -0.010676 0.017438 
0.057391 0.013328 -0.022679 -0.00081153 0.0056006 0.049664 0.025166 -0.072167 
-0.0068948 -0.010019 -0.025474 0.011848 0.016452 0.017932 -0.026624 -0.17065 
-0.084169 0.01974 -0.0032777 0.004943 0.02533 -0.034845 -0.01232 -0.12774 
-0.075455 0.077121 0.036346 0.025659 0.016123 -0.077757 0.0031344 -0.083347 
-0.012649 0.051472 0.076134 0.047526 0.041114 -0.068714 0.026974 -0.029913 
0.028947 0.026152 0.036182 0.034209 0.021056 -0.029748 0.031249 -0.0088678 
0.11954 0.069722 0.024015 0.046046 0.018096 0.014808 0.024508 0.010533 
0.12283 0.099645 0.091425 0.062981 0.021878 0.0018191 0.015959 0.027468 
0.11724 0.12431 0.13417 0.069722 0.026317 -0.062138 -0.0021268 0.083204 
0.10852 0.12546 0.13878 0.082053 0.038483 -0.096994 0.028125 0.16722 
0.049006 0.057555 0.11017 0.080738 0.044731 -0.033365 0.076792 0.16245 
0.023851 0.020398 0.018754 0.017438 0.02681 0.069722 0.13335 0.17593 
0.036182 0.032071 -0.0138 -0.0019624 0.032236 0.10967 0.1077 0.21013 
0.0056006 -0.015609 -0.036983 0.033715 0.033058 0.13828 0.13598 0.23808 
-0.012649 -0.021856 -0.0004827 0.0047785 0.01267 0.14535 0.098823 0.13647 
0.059693 0.032071 0.037004 -0.009361 0.0044497 0.10852 0.055911 0.017603 
0.03799 0.0786 0.05624 0.054596 0.0051074 0.073668 0.018096 -0.10472 
0.014808 0.079422 0.042923 0.041278 0.024344 0.0592 -0.03057 -0.16983 
0.0042853 0.0592 0.0421 0.025001 0.048184 0.017438 -0.034845 -0.19926 
-0.015773 0.088794 0.068242 0.05772 0.013328 -0.026296 -0.035503 -0.20879 
-0.073154 0.062159 0.048841 0.010533 -0.025967 -0.068714 -0.061809 -0.17197 
-0.095843 0.021384 0.040292 -0.021199 -0.045039 -0.010676 -0.043888 -0.15585 
-0.084663 -0.028104 -0.008539 0.0054362 -0.03057 0.092082 0.0085601 -0.052437 
-0.023501 -0.023007 -0.022679 0.014479 0.025988 0.20931 0.10852 0.034209 
0.092247 0.099974 0.021713 0.046046 0.075641 0.20767 0.14026 0.20109 
0.17199 0.089123 0.0421 0.065283 0.054596 0.083862 0.073832 0.33344 
0.060186 -0.035174 0.013328 0.038977 0.016288 0.0067515 -0.01117 0.36402 
-0.020048 -0.14615 -0.0031133 0.0026412 0.03651 0.010862 -0.025309 0.31848 
0.080738 0.0067515 0.044402 0.027961 0.053445 0.016452 0.023357 0.25715 
0.15933 0.15587 0.091425 0.071037 0.072846 0.012835 0.13286 0.1784 
0.17626 0.21441 0.11198 0.099974 0.072517 0.014972 0.21572 0.13861 
0.13828 0.12579 0.092082 0.065283 0.063968 -0.003771 0.18876 0.057555 
0.084519 0.054432 0.052294 0.048019 0.024179 0.004943 0.11855 -0.023172 
0.064461 0.093069 0.094055 0.041772 0.052952 0.1396 0.1008 -0.042079 
0.048019 0.090438 0.055747 0.063474 0.07038 0.21704 0.026481 -0.21192 
-0.038627 0.038648 0.01711 0.027632 0.0056006 0.065118 -0.11935 -0.33539 
-0.080881 0.030098 -0.0044286 -0.03205 -0.017253 -0.030077 -0.12774 -0.33506 
-0.058356 0.037332 0.007738 -0.034188 -0.014787 0.035195 -0.047998 -0.19548 
-0.072825 -0.00097594 0.0079024 -0.0095255 -0.020212 0.044402 -0.054739 -0.13974 
-0.1233 -0.052602 0.01267 -0.041915 -0.0075525 -0.044546 -0.1381 -0.13991 
-0.12149 -0.0024557 -0.024652 -0.00015387 -0.0013048 -0.19761 -0.13333 -0.038133 
-0.058356 0.017932 0.0032988 0.025659 -0.025638 -0.39656 -0.145 0.082546 
0.0014903 0.025001 0.012342 0.025001 0.027468 -0.26963 -0.012814 0.16393 
0.0075736 0.036182 0.012835 0.041936 0.047033 -0.023994 0.069064 0.059364 
-0.03912 -0.014293 0.020727 0.0324 0.013328 0.01415 0.0062583 0.042758 
0.02829 0.004943 0.01563 -0.0067304 -0.014622 0.021713 0.060515 0.22887 
0.12414 0.08863 -0.012814 -0.061316 -0.032708 0.14585 0.16081 0.36534 
0.13121 0.090931 -0.022021 0.0072447 -0.0082102 0.22098 0.15292 0.28116 
0.068078 0.079258 0.017274 0.028947 0.054103 0.18629 0.059857 0.13516 
0.058542 0.053774 0.04506 0.064954 0.10507 0.11231 -0.015773 0.05476 
0.11247 0.032893 0.072353 0.13072 0.16492 0.11148 0.033551 -0.0044286 
0.080573 0.024508 0.039305 0.050979 0.090767 0.08863 0.047526 -0.050629 
-0.018239 0.024344 0.037004 0.039799 0.05213 0.077121 0.064954 -0.13168 
-0.058028 0.068736 0.047197 0.029441 0.013164 0.072517 0.038977 -0.10801 
-0.0050863 0.093562 0.089123 0.047197 0.030263 0.11411 0.031249 -0.11837 
0.05624 0.12447 0.058213 0.020069 0.050979 0.10918 -0.0021268 -0.083347 
0.078436 0.067749 -0.0013048 -0.018075 0.021713 0.01711 -0.043066 -0.086142 
0.0039565 -0.062796 -0.071345 -0.01232 -0.014293 -0.053424 -0.047669 0.023028 
-0.14944 -0.11048 -0.07414 -0.039778 -0.038956 -0.11656 -0.032379 0.054925 
-0.10587 -0.036325 -0.0088678 -0.004593 -0.017911 -0.11442 0.0080668 0.12809 
0.029112 0.082875 0.040785 0.051143 0.0080668 -0.10735 0.025001 0.1567 
0.1026 0.14108 0.075148 0.016616 0.012013 -0.15602 -0.020706 0.15752 
0.091589 0.097837 0.073668 -0.0068948 -0.020377 -0.18726 -0.091897 0.10672 
0.051636 0.064954 0.03651 0.032729 -0.0054151 -0.10784 -0.036818 0.093891 
0.055254 0.047197 0.059693 0.052459 0.048184 0.02829 0.090274 0.068242 
0.042923 0.03947 0.075805 0.071366 0.071202 0.12118 0.15538 0.053116 
0.058706 0.059035 0.06742 0.095864 0.097179 0.096028 0.10737 0.059693 
0.062323 0.05065 0.061501 0.042758 0.077943 0.025659 0.0016547 0.042923 
0.05213 0.027796 0.057227 0.012177 0.017767 -0.034188 -0.078579 0.00033937 
0.011355 0.019083 -0.0080457 0.017767 -0.015938 -0.058028 -0.11146 -0.11228 
-0.014293 0.027961 -0.0060728 -0.006566 -0.027611 -0.063289 -0.023994 -0.1113 
0.013986 0.039799 0.01267 -0.0090322 0.025988 -0.0406 0.089452 0.018918 
0.0062583 0.033551 0.021549 0.037497 0.031742 0.014479 0.16114 0.16294 
0.036346 0.053609 0.029441 0.038977 0.024015 0.067585 0.11083 0.13746 
0.059035 0.04358 0.03092 0.052294 -0.004593 0.093069 0.072024 0.10491 
0.082875 0.087808 0.038977 0.073668 0.024179 0.093562 0.051143 0.07597 
0.076134 0.11461 0.048841 0.062323 0.058213 0.096193 -0.012649 -0.022021 
0.064132 0.099152 0.030756 0.043909 0.083204 0.12546 -0.077593 -0.05589 
0.048184 0.038648 0.024179 0.047855 0.071859 0.10754 -0.058521 -0.032543 
0.027961 0.019411 0.04654 0.016781 0.047855 0.061666 0.057555 0.064296 
0.042265 0.03651 0.013164 0.036675 0.051801 0.067913 0.15456 0.16081 
0.074326 0.029934 0.0083956 0.055254 0.069064 0.089287 0.22509 0.26735 
0.052459 0.029112 0.055911 0.066269 0.072681 0.082053 0.20208 0.25535 
0.027139 0.0786 0.065118 0.056404 0.075805 0.078272 0.14026 0.14913 
0.02122 0.058706 0.10573 0.047197 0.031742 0.071531 0.081067 0.012506 
0.05065 0.077121 0.15193 0.11214 0.049499 0.055747 0.03799 -0.058356 
0.063474 0.078929 0.11954 0.083368 0.056898 0.066269 0.036017 -0.07414 
0.026152 0.0023123 0.055254 0.064132 0.051636 0.059364 0.047855 -0.099789 
0.015301 0.0036276 0.069886 0.048841 0.055089 -0.0029489 -0.024652 -0.13366 
0.033715 0.047526 0.085835 0.031578 0.038648 -0.082854 -0.11722 -0.24645 
0.0021479 0.0592 0.055911 0.0011614 0.013164 -0.19498 -0.17969 -0.24168 
-0.010019 0.020562 0.018096 0.012013 -0.016102 -0.26996 -0.20649 -0.13251 
0.022371 0.0041209 -0.03616 -0.034023 -0.0095255 -0.19301 -0.10357 0.0098754 
0.0093821 0.043416 -0.031228 -0.0073881 0.037004 0.0014903 0.0324 0.15078 
0.054432 0.05065 -0.014293 0.056733 0.040621 0.10145 0.17034 0.26981 
0.094877 0.034702 -0.0027845 0.0069159 0.0082312 0.1396 0.20684 0.24417 
0.059857 0.047033 0.042923 0.027632 -0.014129 0.12792 0.15686 0.10737 
0.013492 -0.0013048 -0.027282 0.009711 -0.02942 0.13384 0.11411 -0.0040998 
-0.050793 0.0095465 -0.026131 -0.017746 -0.019061 0.093726 0.08715 -0.037311 
-0.026296 0.062652 0.012342 0.025495 0.038648 0.083368 0.034373 -0.051287 
0.055582 0.13203 0.079094 0.10589 0.069722 0.13401 0.027796 0.01004 
0.10852 0.08304 0.09685 0.085012 0.085999 0.14667 0.047855 0.090438 
0.044402 -0.027118 0.056569 0.049006 0.051143 0.13746 0.037004 0.064954 
-0.0027845 0.029769 -0.0016336 0.024015 0.030098 0.093726 0.041114 0.055582 
0.034866 0.047855 0.0018191 0.014479 0.034209 0.048184 0.035524 0.050979 
0.11165 0.1008 0.0087245 0.026317 0.027632 -0.035832 0.018425 0.10885 
0.11395 0.090274 0.06331 0.058706 0.039963 -0.073976 0.046211 0.11806 
0.028783 0.042758 0.067913 0.04917 0.029276 -0.074962 0.015794 0.064954 
-0.0090322 -0.028104 0.035031 0.016945 0.022535 -0.094363 0.029112 -0.039284 
-0.039284 -0.02794 -0.0088678 0.0062583 0.014643 -0.065097 0.0039565 -0.088608 
0.011684 0.02533 -0.0039354 0.011684 0.018589 0.035031 0.032236 -0.059014 
0.050321 0.071037 0.02122 0.0052718 -0.0004827 0.10392 0.062981 -0.03501 
0.012177 0.057227 0.037004 0.029276 -0.0011404 0.11198 0.032564 -0.0077169 
-0.026624 0.075148 0.044238 0.025988 -0.0050863 0.060022 -0.00015387 0.0016547 
0.013492 0.096686 0.041278 0.021384 0.00297 0.015465 -0.0095255 0.022864 
0.051965 0.084684 0.015794 0.0095465 0.0090533 -0.0016336 -0.011498 -0.0022913 
-0.0029489 0.015301 -0.022514 0.010204 -0.022185 -0.040764 -0.071509 -0.023665 
-0.056219 -0.018075 -0.045039 -0.042901 -0.060165 -0.071345 -0.074798 -0.039284 
-0.037805 -0.0077169 -0.027282 -0.02942 -0.034188 -0.031064 -0.015609 0.0024767 
0.046868 0.026974 0.028619 0.031578 0.024344 0.048841 0.043251 0.055254 
0.062817 0.04358 -0.011992 0.03092 0.031578 0.065776 0.042265 0.088301 
0.029769 0.0051074 -0.033037 -0.0040998 0.013164 0.0095465 -0.0098543 0.054925 
-0.021199 0.014643 -0.01939 0.034209 -0.009361 -0.032379 -0.026296 -0.067399 
-0.013307 0.062159 0.0324 0.0026412 0.013328 -0.022514 -0.022843 -0.0034422 
0.061337 0.086492 0.082053 0.046211 0.05213 -0.0073881 -0.003771 0.082546 
0.14239 0.1026 0.091589 0.097344 0.073832 0.036182 0.032236 0.14765 
0.16114 0.10162 0.043251 0.046211 0.077121 0.073668 0.059364 0.11987 
0.075476 0.07038 0.0227 0.02681 0.038483 0.085177 0.052952 0.11198 
0.022206 0.037332 0.035195 0.050814 0.033222 0.079094 0.080738 0.089616 
0.018425 0.023357 0.019905 0.010697 0.0052718 0.12973 0.17445 0.11444 
0.031742 0.053938 0.03536 0.013328 0.032564 0.20734 0.17314 0.089123 
-0.014458 0.032729 0.032564 0.044567 0.10014 0.19599 0.10902 0.028619 
-0.042244 0.012999 0.0042853 0.018096 0.036346 0.10063 0.023522 0.048184 
-0.010183 0.039634 -0.0062372 0.0062583 -0.039284 0.028619 0.026646 0.040456 
0.018425 0.0054362 -0.041586 -0.0068948 -0.01939 -0.0021268 0.016945 0.01974 
0.099481 0.023851 -0.042079 -0.014293 -0.029748 -0.065591 -0.1427 -0.05589 
0.06479 0.039963 0.014808 -0.010676 -0.025802 -0.29232 -0.32668 -0.14155 
-0.024652 0.053938 0.027961 0.0070803 -0.012649 -0.45558 -0.36597 -0.1986 
-0.11113 -0.00031829 0.00099702 0.007738 -0.010841 -0.35792 -0.1062 -0.12544 
-0.070687 0.045553 0.058542 0.065283 0.052623 -0.036654 0.13088 0.040621 
0.11247 0.16755 0.10573 0.14108 0.12908 0.1955 0.22822 0.1733 
0.19681 0.17922 0.14913 0.14946 0.1345 0.24104 0.28149 0.17889 
0.14601 0.12595 0.13812 0.095699 0.10343 0.20931 0.2121 0.081889 
0.049499 0.072188 0.061501 0.035853 0.039799 0.1664 0.044731 -0.03616 
-0.010348 0.016288 0.030592 0.011026 -0.0026201 0.050157 -0.12429 -0.13744 
0.0080668 -0.01676 0.017274 -0.014293 -0.030899 -0.066084 -0.16736 -0.10012 
-0.012814 -0.016924 0.0039565 -0.031721 -0.037476 -0.070687 -0.15174 -0.077593 
-0.039449 0.026481 0.00083261 0.0037921 0.0085601 0.0039565 -0.046354 -0.031064 
-0.066906 0.022371 0.024837 0.024508 0.056076 0.077449 0.079751 -0.0004827 
-0.0075525 0.052952 0.023193 0.074161 0.04095 0.12464 0.16821 0.11592 
0.12266 0.1442 0.073997 0.096028 0.083697 0.18284 0.19731 0.21506 
0.1733 0.060844 0.047855 0.06742 0.053445 0.15604 0.14206 0.24301 
0.14913 -0.037805 -0.0022913 0.0087245 0.027632 0.055254 0.062159 0.16031 
0.069393 -0.0078813 0.0046141 0.024015 0.041607 -0.012814 0.0075736 0.067585 
-0.010512 0.012342 0.056569 0.034373 0.03651 -0.031392 0.0088889 0.021384 
0.00050378 0.088794 0.090767 0.075805 0.066598 -0.079072 0.022206 0.035688 
0.060844 0.13812 0.095371 0.1008 0.04506 -0.11376 0.0067515 0.061172 
0.056733 0.12546 0.066269 0.047855 0.016616 -0.12478 -0.034845 0.050321 
0.013986 0.050979 0.049499 0.0069159 0.0044497 -0.16786 -0.033201 0.031085 
-0.015938 0.038812 0.058542 0.036182 0.015794 -0.1039 0.011026 -0.019226 
-0.027282 0.0031344 0.012506 0.013657 0.024015 0.037497 0.028947 -0.02794 
-0.051122 -0.067892 -0.045368 -0.036325 0.00083261 0.084026 0.059035 -0.050629 
-0.041751 -0.028762 -0.034516 -0.013307 -0.0082102 0.075148 0.017603 -0.020377 
0.0421 0.094877 0.027796 0.029769 0.029769 0.10918 0.054596 0.036839 
0.10869 0.12266 0.096357 0.095699 0.08863 0.14371 0.10195 0.038155 
0.058871 0.048348 0.08419 0.086328 0.065283 0.1077 0.077943 0.043416 
-0.023172 -0.035338 -0.0029489 0.023193 0.019083 0.057062 0.050486 0.051308 
-0.021034 -0.022514 -0.028433 -0.025309 -0.0026201 -0.010841 0.041936 0.065447 
0.057227 0.043909 0.032564 0.0072447 0.022371 -0.084663 0.021384 0.08715 
0.10211 0.091589 0.081889 0.042265 0.045553 -0.11064 0.043745 0.12809 
0.12694 0.10063 0.12414 0.050979 0.056733 -0.05326 0.060186 0.084355 
0.046704 0.040128 0.088136 0.048677 0.045553 0.041114 -0.025967 -0.011992 
-0.014293 -0.00081153 0.024015 0.05213 0.024179 0.04506 -0.078579 -0.13415 
-0.027775 0.024015 0.0069159 0.025824 0.019905 0.13894 -0.024323 -0.060823 
0.060515 0.053938 0.026317 0.019247 0.024508 0.19172 0.10145 0.06594 
0.054103 0.063803 0.012506 0.028947 0.031742 0.15061 0.1003 0.093726 
-0.0022913 -0.043066 -0.00097594 -0.025802 -0.021363 0.11444 0.088465 0.094713 
-0.11245 -0.11278 -0.02646 -0.041586 -0.015773 0.13549 0.12661 0.12447 
-0.084663 -0.044217 -0.011334 0.018918 0.021384 0.12562 0.12003 0.16558 
0.061337 0.13138 0.071695 0.048019 0.087643 0.044402 0.13828 0.17659 
0.17758 0.19402 0.094877 0.082875 0.096028 -0.088608 0.08567 0.14749 
0.13993 0.14798 0.063145 0.061995 0.034373 -0.23444 -0.061645 -0.0068948 
0.00297 0.0689 0.034373 -0.020377 -0.064933 -0.30498 -0.19663 -0.1746 
-0.046683 0.038812 -0.011334 -0.032872 -0.057534 -0.15816 -0.14566 -0.19482 
-0.035503 -0.042737 -0.02646 0.00083261 -0.038791 0.064461 -0.059836 -0.16753 
-0.033365 -0.071181 -0.03057 0.0014903 0.019411 0.12398 0.017438 -0.16292 
-0.061809 -0.032215 -0.0072237 -0.026624 0.024344 0.072188 0.070051 -0.077593 
-0.024323 0.061008 0.047362 0.071695 0.061995 0.0689 0.10556 0.052952 
0.065447 0.081067 0.083368 0.045882 0.02533 0.024837 0.094055 0.12414 
0.080573 0.052952 0.021878 0.030427 0.018096 0.044896 0.058213 0.15522 
0.049664 0.061172 0.0227 0.027468 0.013986 0.08156 0.083533 0.159 
0.0083956 0.046375 0.013821 0.016945 0.026974 0.11346 0.12036 0.13269 
-0.026131 0.067749 0.013986 0.017438 0.024508 0.10737 0.097015 0.042758 
-0.017417 0.050979 0.044402 0.037004 0.028947 0.06742 0.060844 0.020398 
0.020233 0.053609 0.062159 0.060844 0.036017 0.043416 0.023028 0.0098754 
0.06594 0.025988 0.025001 0.019905 0.043745 0.02681 -0.0138 0.020069 
0.1105 0.072846 0.010204 0.010533 0.035031 0.0016547 -0.020048 0.0016547 
0.1174 0.11592 0.03651 0.052294 0.03536 -0.0091966 -0.044217 -0.044052 
0.044896 0.052787 0.036675 0.037661 0.023193 -0.035996 -0.093376 -0.12659 
-0.017088 0.0046141 0.032893 0.013986 0.025824 -0.012485 -0.10209 -0.12215 
-0.0040998 0.030427 0.035031 0.031907 0.015794 -0.018733 -0.086964 0.009711 
0.072024 0.080244 0.027632 0.044567 0.026646 0.013821 -0.01676 0.079094 
0.093726 0.052459 0.035524 0.038812 0.049992 -0.0078813 0.012835 0.072353 
0.019905 0.0092177 -0.0021268 0.031249 0.01267 -0.026953 0.0054362 -0.015116 
-0.019884 -0.0052507 -0.0075525 -0.013636 0.00033937 -0.0004827 0.018096 -0.089924 
-0.014622 0.0046141 0.0082312 -0.011992 0.016123 0.03092 0.040292 -0.072167 
-0.029255 0.01415 0.010862 0.043745 0.02829 0.014643 0.099152 0.024837 
-0.0062372 0.047691 0.035524 0.040785 0.056733 0.053774 0.092247 0.099974 
0.04654 0.0786 0.031578 0.0324 0.049006 0.08567 0.093398 0.15785 
0.11066 0.1026 0.066763 0.073832 0.0421 0.084848 0.12053 0.13532 
0.14305 0.14831 0.079094 0.054596 0.038648 0.0592 0.11609 0.055089 
0.13319 0.10852 0.076956 0.035031 0.023522 0.0016547 -0.010841 0.01563 
0.10967 0.079094 0.048513 0.053445 0.048677 -0.0055795 -0.008539 -0.017746 
0.052294 0.0026412 0.0039565 0.011355 0.032564 -0.00015387 -0.013471 -0.046519 
-0.035996 -0.026296 -0.0077169 0.0026412 0.035195 0.0079024 0.012177 -0.034352 
-0.014458 -0.0098543 0.026152 0.051636 0.039963 0.046211 0.047197 0.011684 
0.058706 0.06479 0.033058 0.059528 0.058542 0.067091 0.053609 0.059035 
0.066105 0.10145 0.048841 0.031085 0.041936 0.01974 0.012177 0.096686 
0.02681 0.06479 0.029605 0.026481 0.037168 0.015794 -0.0034422 0.10425 
0.01563 0.032893 0.023028 0.031249 0.025495 0.043745 -0.019884 0.11362 
0.023686 0.038812 0.021713 0.036839 0.038812 0.04917 -0.00064712 0.11362 
0.04095 0.030756 0.028783 0.02533 0.032729 0.05213 0.024015 0.096357 
0.046375 0.016123 0.012506 0.011191 0.0031344 0.01267 -0.020541 0.022042 
0.055254 0.047033 0.023522 -0.0049219 0.0052718 0.05772 0.0036276 -0.028269 
0.031085 0.044731 0.019905 -0.0098543 0.015137 0.14437 0.070215 0.025495 
0.068407 0.028619 0.012835 0.0060938 0.0082312 0.16393 0.061666 0.028619 
0.086821 0.025988 0.012506 0.016781 0.020398 0.12644 0.025988 0.039634 
0.058706 0.049335 0.031085 0.042758 0.02829 0.092904 0.054432 0.01004 
0.021056 0.052952 0.041772 0.047691 0.050486 0.090931 0.13302 0.011191 
-0.0011404 0.062652 0.051143 0.03947 0.060186 -0.028762 0.062817 0.01711 
-0.020706 0.084355 0.055254 0.021056 0.013821 -0.21471 -0.096172 0.04358 
0.053281 0.096028 0.089616 0.082875 0.030756 -0.27522 -0.082196 0.10326 
0.080409 0.08419 0.089945 0.089452 0.059035 -0.18463 0.0028056 0.12233 
0.032564 0.050486 0.074326 0.064296 0.058706 0.079751 0.15275 0.056898 
0.048019 0.08304 0.098823 0.10655 0.093562 0.27392 0.21161 0.01974 
0.078436 0.093233 0.06331 0.045882 0.04095 0.22427 0.080902 0.04358 
0.088465 0.04654 0.013657 -0.014129 0.0052718 0.12102 -0.00097594 0.012835 
0.038648 0.027468 -0.01232 0.01711 0.0083956 0.11674 0.075805 0.11296 
-0.015444 -0.036818 -0.0013048 0.013328 0.029276 0.066927 0.044238 0.13762 
-0.03205 -0.071345 -0.0070593 -0.0091966 0.0098754 -0.1187 -0.12577 0.09422 
-0.014787 -0.010676 0.00033937 0.0028056 -0.020706 -0.30448 -0.13168 0.0088889 
0.020398 0.03651 -0.010512 -0.004593 -0.037311 -0.36121 -0.009361 0.075805 
0.064625 0.081067 0.042265 0.022206 0.018918 -0.11639 0.17001 0.17001 
0.055254 0.11165 0.071531 0.053609 0.046704 0.13319 0.20208 0.13302 
0.0051074 0.11937 0.047362 0.044073 0.041772 0.16245 0.078929 -0.052931 
-0.034352 0.041114 0.039799 -0.014293 -0.010841 0.047033 -0.11245 -0.15668 
0.033551 0.074161 0.024179 -0.011334 -0.024158 -0.01117 -0.16966 -0.1136 
0.066927 0.08156 0.009711 0.017932 0.030263 0.068571 -0.06148 -0.10571 
0.013821 0.01974 0.030756 0.042923 0.072024 0.12201 -0.014458 -0.15536 
-0.041586 0.030427 0.053116 0.065447 0.059857 0.057555 -0.048656 -0.15224 
0.0098754 0.057884 0.056733 0.049006 0.045224 0.022535 -0.014293 -0.018075 
0.098001 0.035853 0.070708 0.033387 0.052623 0.037332 0.061995 0.052623 
0.11461 0.027796 0.030427 0.014643 -0.0036066 0.02533 0.11625 0.061172 
0.044731 0.010697 0.0083956 0.014808 -0.018897 -0.00097594 0.055747 0.03799 
-0.095349 0.009711 0.017767 0.025001 -0.022679 -0.054739 0.047033 0.074654 
-0.087786 0.028783 0.035195 0.012177 -0.010019 -0.049478 0.031578 0.093069 
0.047033 0.064461 0.081724 0.012013 0.028783 -0.056548 0.036346 0.12497 
0.050814 0.087314 0.081889 0.033387 0.029934 0.029769 0.052459 0.1465 
0.026646 0.023028 0.020233 0.014315 0.023193 0.043745 0.082382 0.13039 
0.045389 0.013657 -0.020377 0.037168 0.010697 -0.012485 0.079751 0.093398 
0.056569 0.05772 -0.037969 -0.0059084 0.012177 -0.044052 0.088136 0.069886 
0.073668 0.053609 -0.016266 -0.010019 0.024015 -0.040435 0.040292 0.047691 
0.0092177 -0.018404 -0.038133 0.005765 0.010204 -0.10554 -0.060494 -0.02498 
-0.022843 -0.0096899 -0.019719 -0.035996 -0.035667 -0.073318 -0.070359 -0.081374 
-0.001798 0.064296 -0.0082102 0.0072447 0.012177 -0.0016336 -0.031721 -0.10324 
0.021878 0.089123 0.0092177 0.046868 0.038648 0.081067 0.039963 -0.12478 
0.035524 0.054596 0.010204 0.044896 0.065776 0.082217 0.022042 -0.087293 
0.017767 0.010204 0.004943 0.054925 0.062159 0.07301 0.028619 -0.092719 
-0.010348 0.0082312 0.043087 0.060022 0.0592 0.067091 0.007738 -0.052766 
-0.025802 0.03947 0.06742 0.052459 0.037497 0.07301 0.010697 -0.053095 
-0.067235 0.051308 0.055911 0.042429 0.031085 0.077285 0.0031344 -0.046847 
-0.04882 0.034866 0.080573 0.044567 0.022864 0.076134 -0.015773 -0.0055795 
-0.0096899 0.015959 0.077285 0.047855 0.043909 0.055089 0.0032988 0.064625 
0.090274 0.027961 0.0786 0.042923 0.035853 0.056733 0.056404 0.13664 
0.13088 0.078107 0.058049 0.026481 0.018918 0.042265 0.096028 0.14667 
0.10474 0.066763 0.036017 0.049664 0.022371 0.0037921 0.069229 0.10869 
0.087808 0.047526 0.027961 0.041772 0.051308 -0.0014692 0.061172 0.060844 
0.090931 0.077285 -0.0064016 0.019411 0.040456 0.023028 0.070708 0.061501 
0.093726 0.072846 0.0064227 0.020727 0.026481 0.049006 0.076956 0.072681 
0.064132 0.040292 0.0059294 -0.0016336 0.020562 0.074161 0.075641 0.078929 
0.034373 0.041936 0.036675 0.010533 0.019576 0.061995 0.061995 0.05624 
-0.01232 0.045224 0.0227 0.040785 0.03947 0.069393 0.048348 0.055254 
-0.01232 0.035031 0.033551 0.014479 0.022371 0.08715 0.014315 0.019247 
-0.016924 0.017932 0.027139 0.021549 0.031249 0.063145 0.047691 0.019083 
-0.0034422 0.033058 0.027632 0.060515 0.018425 0.019576 0.020398 -0.017088 
0.021713 0.035853 0.035853 0.037332 0.034866 0.042429 0.027139 -0.019555 
0.056898 0.038319 0.020562 0.040292 0.053938 0.048019 0.039634 -0.011334 
0.053938 0.058706 0.011026 0.064296 0.05065 0.031578 0.029934 0.027632 
0.04917 0.034044 0.0098754 0.018918 0.053116 -0.03057 -0.010841 0.025824 
0.064625 0.021384 0.024179 0.02122 0.057391 -0.035174 -0.041915 0.072681 
0.057062 0.060679 0.057391 0.065447 0.032729 -0.014622 -0.023007 0.10244 
0.0023123 0.0324 0.098494 0.04095 0.038648 0.02122 0.06742 0.14552 
0.029934 0.020069 0.075805 0.020727 0.029605 0.047033 0.12875 0.24943 
0.072517 0.045389 0.1105 0.066763 0.081889 0.065612 0.13762 0.27688 
0.099645 0.1248 0.092576 0.086492 0.083204 0.12431 0.20043 0.26422 
0.091425 0.10491 0.08156 0.061337 0.059035 0.14617 0.21885 0.17182 
0.03947 0.061995 0.065612 0.044567 0.023686 0.10704 0.15489 0.041114 
-0.0055795 -0.0067304 0.034702 0.015137 0.020233 0.029605 0.029112 -0.094692 
-0.068057 -0.021692 -0.0057439 -0.012978 -0.01232 -0.014951 -0.091568 -0.20173 
-0.10357 -0.019719 -0.028926 -0.014293 -0.021856 -0.037311 -0.15996 -0.30909 
-0.12494 -0.0019624 -0.046025 -0.021034 -0.077593 -0.040435 -0.18693 -0.32635 
-0.071509 -0.008539 -0.030735 -0.025145 -0.049314 -0.055068 -0.084991 -0.15372 
0.017603 0.016123 0.011026 0.0051074 -0.0075525 -0.099131 -0.025802 0.0054362 
0.051636 0.047526 0.054596 0.044896 0.04506 -0.051615 -0.010512 0.089123 
0.085506 0.08863 0.032236 0.039141 0.080244 0.030756 0.010369 0.10737 
0.11362 0.091589 0.063474 0.068078 0.072024 0.097508 0.054103 0.18481 
0.1225 0.080573 0.049664 0.088794 0.06035 0.10836 0.051308 0.21062 
0.12168 0.10507 0.055254 0.047691 0.037661 0.077778 0.052459 0.15078 
0.08304 0.089616 0.08156 0.013821 0.016781 0.083862 0.053445 0.066434 
0.056733 0.058049 0.074983 0.039963 0.031907 0.070873 0.07449 0.0069159 
-0.020706 -0.0016336 0.0065871 -0.026624 -0.0022913 -0.050793 -0.0036066 -0.12083 
-0.11097 -0.079566 -0.058356 -0.068714 -0.047505 -0.13991 -0.079895 -0.19909 
-0.10867 -0.056712 -0.035996 -0.037476 -0.05589 -0.072825 -0.037311 -0.10275 
-0.031721 0.03388 0.015137 -0.0095255 -0.023336 0.044731 0.043745 0.076792 
0.071202 0.095371 0.04654 0.021878 0.021549 0.08008 0.095042 0.22213 
0.10145 0.076463 0.05624 0.073668 0.052294 0.045553 0.082217 0.19862 
0.071695 0.01974 0.024837 0.029112 0.032893 0.019083 0.04358 0.11757 
0.046868 0.022535 0.015465 0.016945 0.014315 0.060022 0.024179 0.031414 
-0.0059084 0.022206 0.0023123 0.039305 -0.0016336 0.06183 -0.0044286 -0.031392 
-0.025474 -0.0032777 0.015301 0.0080668 0.0087245 0.056076 -0.008539 -0.085485 
-0.0082102 0.018589 0.049499 0.01267 0.031414 0.058049 -0.003771 -0.056219 
0.048677 0.079094 0.049992 0.080409 0.074161 0.070708 0.04358 0.018096 
0.1345 0.080902 0.049499 0.06742 0.063474 0.051636 0.030592 0.041443 
0.1294 0.065283 0.023851 0.036839 0.036182 -0.064604 -0.058685 -0.00081153 
0.025166 0.039799 -0.0047575 0.039634 -0.0096899 -0.13432 -0.13251 -0.070194 
-0.031557 -0.011992 0.019247 -0.0070593 -0.010841 -0.06148 -0.12462 -0.08384 
-0.039284 -0.049642 0.019411 -0.037969 0.0069159 -0.018568 -0.053753 -0.098802 
-0.0057439 0.0052718 -0.025802 -0.024487 -0.020048 -0.0095255 0.0046141 -0.036983 
0.038155 0.066763 0.024015 0.022042 0.01826 -0.011992 0.085999 -0.051451 
0.062323 0.09274 0.047855 0.045882 0.031085 -0.049478 0.082875 -0.036654 
0.03799 0.11115 0.061008 0.033387 0.043087 -0.05589 0.095371 -0.013965 
0.074819 0.11198 0.082546 0.088794 0.064132 0.042758 0.13023 0.065118 
0.07597 0.084355 0.076627 0.026481 0.062159 0.10491 0.12151 0.12908 
0.067585 0.068242 0.042758 0.013821 0.019083 0.065612 0.09981 0.20175 
0.0421 0.026317 -0.013307 -0.0011404 -0.017911 0.0070803 0.01415 0.23151 
0.035688 -0.00015387 -0.016431 -0.019719 0.0065871 0.011848 -0.0032777 0.22723 
0.079422 0.037168 0.026317 0.01004 0.037826 0.10606 0.032893 0.12973 
0.14091 0.092576 0.090767 0.047033 0.056733 0.10047 0.010862 -0.0026201 
0.10211 0.061008 0.039634 0.024673 0.028125 0.02533 -0.031886 -0.030406 
0.018754 0.039141 0.005765 0.013164 0.0031344 -0.049149 -0.047012 -0.036983 
-0.13251 -0.0138 -0.0031133 0.026646 0.0087245 -0.063618 -0.040106 -0.056877 
-0.14796 -0.022514 0.0080668 -0.010841 0.033387 -0.050793 0.016781 -0.038627 
0.01974 0.040785 0.052294 0.055418 0.071859 -0.03353 0.072024 0.059364 
0.14716 0.075148 0.10392 0.14256 0.086821 0.035688 0.09274 0.12677 
0.17067 0.12283 0.07038 0.084519 0.075641 0.092411 0.12497 0.18267 
0.11757 0.076792 0.030427 0.043251 0.039799 0.090603 0.086328 0.14749 
0.039799 0.05476 0.010862 0.048841 -0.0027845 0.046704 0.03092 0.054103 
0.03536 0.069229 0.012177 -0.010348 -0.019884 0.0041209 -0.01528 -0.034516 
0.041772 0.032729 0.018096 0.0031344 0.019576 0.010697 -0.011005 -0.089759 
0.078765 0.05476 0.062323 0.060844 0.06035 0.034044 0.037168 -0.003771 
0.08715 0.098823 0.064625 0.065447 0.075312 0.042429 0.072517 0.027468 
0.080573 0.10589 0.055911 0.05624 0.051801 -0.013636 0.033387 0.059035 
0.041114 0.056404 0.049335 0.042265 0.027139 -0.015444 -0.019719 0.012999 
0.030263 0.039963 0.050979 0.029441 0.018425 -0.0096899 0.01004 0.0034632 
0.059857 0.064296 0.079587 0.039799 0.035688 0.0016547 0.032236 0.0085601 
0.015301 0.031085 0.067913 0.039634 0.028125 0.00297 0.052459 0.055582 
-0.065097 0.012999 0.039963 0.039141 0.03388 0.0019835 0.024344 0.066434 
-0.04471 0.050157 0.025659 0.023193 0.031249 -0.022021 -0.03353 0.04654 
0.019905 0.095206 0.018754 0.01974 0.024673 -0.018239 0.0044497 0.068242 
-0.0019624 0.0092177 0.00066819 0.010533 0.017603 0.077614 0.038648 0.045224 
-0.040435 -0.079401 0.0056006 -0.0016336 0.022371 0.09422 0.077285 0.039305 
-0.02087 -0.02794 0.013328 0.016781 0.034209 0.077778 0.054267 0.025495 
0.071366 0.046046 0.037004 0.056898 0.047855 0.066927 0.013986 0.034044 
0.095371 0.087808 0.032564 0.066927 0.06183 0.07301 0.020233 0.016452 
0.12135 0.12957 0.07301 0.080738 0.092904 0.092411 0.04095 0.048019 
0.094384 0.057227 0.0689 0.10162 0.074326 0.081395 0.033387 0.031249 
0.050979 0.036182 0.048513 0.027796 0.019576 0.046868 0.0064227 -0.0082102 
-0.041257 0.037168 -0.013636 -0.0060728 -0.0096899 0.043251 -0.00064712 -0.044217 
-0.038462 0.044731 -0.0138 0.010862 0.014643 0.027139 0.0062583 -0.050793 
-0.0044286 0.031742 0.01004 -0.0021268 0.026317 0.018096 0.030098 -0.025638 
0.0039565 0.029276 0.0031344 -0.0044286 -0.00097594 -0.018239 0.0082312 0.0019835 
0.0014903 0.022371 0.020398 0.013164 -0.023007 0.018589 0.035195 0.07038 
0.01004 0.013328 0.047362 0.02122 0.023028 0.014315 0.087972 0.11132 
-0.0075525 0.062652 0.054103 0.034702 0.032564 0.045224 0.070873 0.10178 
-0.01528 0.05065 0.069229 0.051308 0.038483 0.027139 0.04917 0.062981 
0.017274 0.011191 0.06035 0.039305 0.067256 0.085835 0.02681 0.05476 
0.080902 0.056569 0.06035 0.037661 0.066434 0.045882 0.014315 0.029112 
0.038648 0.072353 0.08567 0.076956 0.050814 0.0042853 0.027796 -0.033694 
0.042594 0.072024 0.042594 0.036182 0.023028 -0.031557 0.0083956 -0.072825 
0.040456 0.029276 -0.017746 -0.0077169 0.0011614 -0.050793 -0.065591 -0.098638 
0.038155 0.021384 -0.010676 0.0098754 0.0093821 -0.019719 -0.1182 -0.13563 
0.014972 0.058049 0.029112 -0.0098543 0.0082312 0.025824 -0.094363 -0.1455 
-0.023501 0.044238 0.040292 0.015959 0.012342 0.10359 0.030592 -0.096994 
-0.051944 0.0067515 0.066598 0.060844 0.042594 0.13861 0.12661 0.0095465 
-0.021363 0.04654 0.040785 0.037332 0.02122 0.031742 0.10376 0.092247 
-0.0070593 0.033715 0.018754 0.033551 0.015794 -0.057205 -0.015773 0.11937 
0.0069159 0.017767 0.020398 0.023193 0.018096 -0.032215 -0.07562 0.11987 
0.015465 0.030098 0.015301 0.0023123 -0.008539 0.05476 -0.024652 0.12595 
0.10606 0.027796 0.0083956 -0.016431 -0.0024557 0.074983 0.04917 0.14206 
0.1391 0.045389 0.037826 0.0056006 0.00297 0.039305 0.12612 0.12053 
0.014479 0.031249 0.0019835 0.04917 0.036182 0.01563 0.099316 0.038155 
-0.16687 -0.019061 0.0082312 0.036017 0.053281 0.0014903 0.063474 -0.035667 
-0.1672 -0.06148 -0.015938 0.0047785 0.01004 -0.076606 0.014643 -0.041257 
-0.048985 -0.065097 -0.041422 -0.01232 -0.024158 -0.067235 -0.042901 -0.043888 
0.040128 0.00050378 -0.012814 -0.041257 -0.032872 -0.051615 -0.063618 -0.035996 
0.099152 0.084519 0.048677 -0.0062372 0.0060938 -0.047998 -0.0044286 0.053938 
0.13417 0.15374 0.075148 0.059364 0.050321 0.02122 0.10408 0.1368 
0.095206 0.17018 0.090603 0.071366 0.049992 0.10721 0.15242 0.12776 
0.00083261 0.11165 0.047197 0.055418 0.0324 0.14437 0.11099 0.0037921 
-0.017417 0.036346 0.014315 0.051801 0.012342 0.1128 0.051965 -0.060494 
-0.010183 1.0539e-005 0.011684 0.01563 0.033058 0.086328 0.035031 -0.031228 
0.065118 0.052787 -0.0042642 -0.00097594 0.035031 0.041114 0.037826 0.0592 
0.082711 0.044073 -0.0067304 0.021384 0.04095 0.043909 0.0072447 0.059693 
0.013986 0.01152 0.0051074 0.014972 0.013986 -0.0098543 -0.054904 0.010862 
-0.0072237 0.043909 0.025001 0.028783 0.0016547 -0.083512 -0.086964 -0.0082102 
-0.00081153 0.039963 0.039141 0.04358 0.0042853 -0.099953 -0.037476 -0.024487 
0.028125 0.077285 0.060679 0.038977 0.024179 -0.10341 0.010862 0.022535 
-0.0077169 0.081724 0.040621 0.03092 0.036346 -0.11064 -0.0014692 0.00050378 
-0.055561 0.047197 0.047526 0.044073 0.019083 -0.047176 -0.038791 0.0051074 
0.0046141 0.042265 0.069722 0.044073 0.0052718 0.010369 -0.021528 0.043416 
0.040456 0.059528 0.062981 0.016781 0.029769 0.091589 0.083368 0.069558 
0.086163 0.090931 0.037497 0.032564 0.017274 0.077778 0.10622 0.1003 
0.10014 0.064461 0.026481 0.011191 0.035195 0.056898 0.093891 0.076463 
0.13105 0.057227 0.015959 0.034044 0.068571 0.076299 0.090603 0.073175 
0.03799 0.027796 0.0046141 0.03651 0.064296 0.11132 0.10589 0.042594 
-0.022021 0.028454 -0.0024557 0.045389 0.046211 0.026481 0.074654 0.038648 
0.023357 0.031414 -0.03205 0.0095465 0.01563 -0.069701 0.023522 0.038319 
0.08863 0.057884 0.02829 0.024344 0.014808 -0.12527 -0.034516 0.082711 
0.050979 0.061337 0.070544 0.030427 0.027632 -0.041422 -0.023007 0.041772 
-0.026953 0.017767 0.022864 0.0039565 -0.0067304 0.011355 0.023851 0.050486 
0.0059294 0.018754 0.025659 -0.003771 -0.008539 0.025988 0.032564 0.055747 
0.098001 0.060022 0.043909 0.053609 0.035524 0.055418 0.026152 0.076792 
0.13993 0.0421 0.036839 0.049828 0.058706 0.071531 -0.0026201 0.017932 
0.046868 -0.05589 0.0044497 0.017438 0.037004 0.03799 -0.0021268 -0.034188 
-0.042737 -0.014787 -0.023501 0.025659 0.03947 0.033387 0.00033937 -0.043724 
0.0085601 0.10869 0.037661 0.027139 0.047197 0.063803 0.030098 0.005765 
0.069722 0.16804 0.07301 0.054596 0.075641 0.08715 0.051801 0.021878 
0.099645 0.12727 0.054103 0.087972 0.056898 0.096028 0.10441 0.033715 
0.1054 0.076792 0.035031 0.011355 0.05065 0.089287 0.14716 0.087808 
