0.025659 -0.099789 0.94391 0.060515 -0.042408 0.0016547 -0.0062372 -0.14385 
0.044567 -0.17295 0.68266 0.01563 -0.081374 -0.018568 -0.00064712 -0.0034422 
0.039799 -0.089759 0.3461 -0.045039 -0.10045 -0.013143 -0.039942 0.17001 
0.020233 0.037168 -0.10423 -0.015773 -0.068386 0.025988 -0.052437 0.28593 
0.0054362 0.12891 -0.35118 0.015794 -0.030899 0.10063 0.015959 0.3466 
-0.05589 0.16804 -0.27571 -0.015938 -0.067564 0.078107 0.084848 0.46382 
-0.092554 0.1562 -0.072989 -0.015444 -0.070359 0.041443 0.076463 0.38605 
-0.076935 0.067913 0.071037 0.063474 -0.023007 0.023028 -0.01939 0.08304 
0.033058 -0.10653 0.5115 0.1978 0.016123 0.0062583 -0.013307 -0.20633 
0.092576 -0.26881 0.94967 0.18695 0.018096 0.014479 -0.10028 -0.27357 
0.13532 -0.25204 0.86006 0.072517 -0.041093 -0.0013048 -0.044052 -0.29824 
0.14683 -0.13974 0.81945 0.010697 -0.082196 0.013821 -0.017088 -0.20173 
0.12299 -0.072989 0.5217 -0.080552 -0.13399 -0.034516 0.03536 -0.092554 
0.055747 0.074161 -0.027611 -0.087458 -0.13086 -0.0070593 0.048348 -0.087622 
0.0014903 0.23167 -0.44736 -0.0032777 -0.061809 0.029934 0.040128 -0.045861 
-0.056219 0.27442 -0.57774 0.058542 -0.031228 0.038155 0.078436 0.076134 
-0.084991 0.20323 -0.46972 0.10491 -0.0016336 0.044731 0.13384 0.25896 
-0.035503 0.047691 -0.20896 0.1151 0.012999 0.038648 0.22148 0.26258 
0.052623 -0.046683 -0.0059084 0.12776 -0.0011404 0.02829 0.27655 0.19912 
0.13105 -0.13251 0.1077 0.054925 -0.049149 0.019411 0.28165 0.10376 
0.092411 -0.10554 0.14634 0.0051074 -0.079566 0.0072447 0.14157 0.077449 
0.051636 -0.0078813 0.16689 0.030263 -0.065755 0.00050378 -0.012485 -0.049149 
0.026481 0.14749 0.12546 0.023193 -0.06 0.020727 -0.14073 -0.37403 
-0.018239 0.23742 0.086163 -0.010676 -0.055232 0.014808 -0.19433 -0.44637 
-0.076771 0.30105 0.22312 -0.0029489 -0.039284 0.030263 -0.13678 -0.12346 
-0.10439 0.25798 0.29234 0.027796 -0.054739 0.036346 -0.087458 0.12349 
-0.13415 0.15818 0.28971 0.004943 -0.0503 0.036346 -0.025145 0.2001 
-0.095678 0.020398 0.28099 0.040621 -0.031886 0.065283 0.073175 0.21194 
-0.013143 -0.12577 0.34692 0.063968 -0.031392 0.052623 0.11905 0.17626 
0.064954 -0.22113 0.35087 0.08156 -0.030077 0.032893 0.11296 0.11625 
0.10819 -0.17147 0.2463 0.05213 -0.06707 0.010697 0.10162 0.034702 
0.15982 -0.10291 0.033058 -0.009361 -0.11343 -0.030406 0.11642 -0.017417 
0.2001 -0.049807 -0.12412 -0.13514 -0.18512 -0.043395 0.11954 -0.032708 
0.18563 0.10902 -0.26453 -0.16588 -0.19909 -0.054904 0.037826 0.0034632 
0.13384 0.27688 -0.376 -0.082854 -0.1307 -0.048163 -0.080223 0.0324 
0.10145 0.2976 -0.41415 0.059857 -0.052437 -0.025145 -0.11804 0.011191 
0.13647 0.18317 -0.44736 0.11855 0.0070803 0.01826 -0.068057 -0.047176 
0.21589 0.059857 -0.3931 0.11296 0.018589 0.066927 -0.0019624 -0.07266 
0.13516 0.0056006 -0.46117 0.13286 0.018754 0.10195 0.093562 -0.00097594 
-0.080059 -0.11787 -0.38751 0.057227 -0.010841 0.083204 0.13417 0.10145 
-0.18627 -0.23872 0.034537 0.048841 -0.019719 0.057391 0.14206 0.097015 
-0.23181 -0.16753 0.61245 0.074983 -0.0024557 0.061666 0.15374 0.098659 
-0.18528 -0.028269 0.71817 -0.0095255 -0.061809 0.066763 0.22411 0.091425 
-0.080881 0.050321 0.35514 -0.12001 -0.12889 0.039141 0.18432 -0.0031133 
0.017274 0.084355 0.016123 -0.16292 -0.13875 1.0539e-005 0.07449 -0.10637 
0.091589 0.28626 -0.23411 -0.14632 -0.16654 -0.029584 -0.043559 -0.17262 
0.13598 0.51709 -0.61325 -0.10291 -0.14254 -0.047176 -0.088608 -0.14961 
0.1664 0.57118 -0.99716 -0.05441 -0.11985 -0.027282 -0.1016 -0.10834 
0.16492 0.30401 -0.92695 -0.016431 -0.091404 -0.050793 -0.071838 -0.010183 
0.12118 0.040785 -0.68658 0.074161 -0.036489 -0.015773 -0.029584 0.070873 
0.11724 -0.04619 -0.37946 0.14634 0.01974 0.042758 0.02533 0.23282 
0.047526 -0.13382 -0.2032 0.23019 0.085835 0.06331 0.018589 0.22559 
0.010697 -0.13547 -0.16424 0.21802 0.061666 0.064132 -0.023501 0.11148 
0.043087 -0.08532 -0.09798 0.15078 0.0227 0.035195 -0.0064016 0.045553 
0.048184 -0.020212 0.033387 0.078107 -0.0040998 0.0067515 -0.0029489 0.16985 
0.072517 0.055747 0.19007 0.045224 -0.05326 0.0088889 -0.0029489 0.21441 
0.1003 0.12036 0.22312 -0.01117 -0.071181 0.016452 -0.026624 0.06479 
0.12053 0.14354 0.24811 -0.00031829 -0.057863 0.018425 -0.017582 0.017932 
0.046704 0.088958 0.20783 0.0227 -0.042573 0.038483 0.0075736 0.15735 
-0.09387 0.071859 0.049335 -0.006566 -0.061316 0.049828 0.03799 0.10359 
-0.1644 0.049006 -0.045203 -0.0057439 -0.060165 0.046704 0.05624 -0.24793 
-0.2448 0.064132 0.048348 -0.0029489 -0.048327 0.063145 0.086492 -0.18068 
-0.21159 0.0087245 0.14091 -0.028926 -0.083676 0.044402 0.043416 -0.20682 
-0.034188 -0.063124 0.18317 -0.04323 -0.089595 0.010369 -0.038298 -0.29314 
0.13401 -0.10505 0.16886 -0.03912 -0.080059 -0.01676 -0.073154 -0.37288 
0.2297 -0.051122 0.1248 0.05213 -0.042901 -0.009361 -0.073647 -0.22228 
0.2976 0.072188 -0.0057439 0.087643 -0.022021 -0.00015387 -0.068057 0.062817 
0.38869 0.11543 -0.033694 0.076134 -0.031392 -0.013965 -0.050958 0.26669 
0.35284 0.10162 -0.047341 0.078272 -0.027775 -0.004593 -0.033037 0.30714 
0.1197 0.11987 -0.062631 0.046868 -0.037476 0.035688 0.005765 0.2902 
-0.097158 0.10524 -0.0042642 0.05772 -0.022679 0.05213 -0.011992 0.16574 
-0.14484 0.099481 0.074983 0.070544 0.0046141 0.03799 -0.034845 -0.10505 
-0.11607 0.094055 0.075805 0.07597 -0.020377 0.042923 0.0023123 -0.19794 
-0.07562 0.11921 0.14848 0.011684 -0.053095 0.052294 0.098166 -0.063946 
-0.058356 0.10754 0.22657 0.011684 -0.05737 0.031414 0.14141 0.14881 
-0.059178 0.098823 0.18613 0.024508 -0.069701 0.014479 0.11247 0.25189 
-0.031064 0.071531 0.16442 -0.022514 -0.096665 -0.017746 0.0065871 0.17692 
0.038977 -0.0044286 0.12875 -0.0039354 -0.087786 -0.053095 -0.059672 0.057884 
0.082711 -0.11919 -0.095185 0.10836 -0.0083746 -0.018075 -0.014622 0.091425 
0.1174 -0.099624 -0.11393 0.14831 0.0046141 0.013821 0.033222 0.096028 
0.12513 0.041772 0.051965 0.11148 -0.0087034 0.035688 0.0023123 0.028619 
0.078107 0.15686 0.13203 0.10376 0.02122 0.046046 -0.035503 -0.043559 
0.0227 0.17149 0.22526 0.0786 -0.0070593 0.055582 -0.040435 0.033551 
-0.03912 0.11625 0.2121 0.011191 -0.039449 0.052459 -0.063124 0.071366 
-0.063289 0.11855 0.052787 0.051143 -0.023172 0.08304 -0.1108 -0.015938 
-0.038791 0.09981 0.17692 0.096357 -0.0096899 0.085835 -0.094363 -0.10867 
0.01563 0.016616 0.55606 0.042429 -0.021528 0.067913 0.032236 -0.11919 
0.041936 -0.077757 0.6723 0.015794 -0.0406 0.058542 0.18218 -0.073811 
0.063803 -0.099624 0.57382 0.016616 -0.048985 0.029441 0.23562 -0.015609 
0.088794 -0.1062 0.52926 -0.018733 -0.083018 0.0087245 0.22822 0.063145 
0.10408 -0.0024557 0.52679 -0.0054151 -0.077264 0.00033937 0.17314 0.10836 
0.14058 0.086163 0.37701 0.042758 -0.036818 -0.020706 0.10359 0.071366 
0.13088 0.1784 0.049499 0.070051 -0.047669 -0.009361 0.079258 0.026317 
0.069722 0.20043 -0.37206 0.043909 -0.052109 -0.014787 0.078436 0.078107 
0.012342 0.14568 -0.50951 0.044073 -0.04471 0.0054362 0.090274 0.11395 
0.011355 0.045882 -0.13629 0.042594 -0.051122 0.015137 0.025988 0.12562 
0.032236 -0.055561 0.31355 -0.021856 -0.083183 -0.0040998 -0.047998 0.074983 
0.041443 -0.23675 0.35366 -0.012814 -0.072989 -0.0087034 -0.095185 0.080573 
0.017438 -0.18232 0.16081 0.0082312 -0.04323 0.028125 -0.05326 0.076134 
-0.0073881 -0.037147 -0.044381 0.020562 -0.057041 0.053116 -0.033365 0.04654 
-0.01528 -0.017911 0.024673 -0.026789 -0.087786 0.027632 0.01152 -0.03057 
-0.026789 -0.029748 -0.19794 -0.041751 -0.093048 0.0072447 0.0324 0.019247 
-0.064933 0.096193 -0.51674 -0.0036066 -0.09239 -0.015773 0.065612 0.10145 
-0.047834 0.25271 -0.47926 -0.013636 -0.074633 0.019905 0.1026 0.13006 
-0.012978 0.31716 -0.31451 0.038648 -0.035996 0.035853 0.084355 0.12858 
0.017603 0.27951 0.073504 0.098659 0.0032988 0.049664 0.053116 0.06742 
0.033387 0.21835 0.47648 0.11083 0.021384 0.077614 0.043909 0.066434 
0.026317 0.15505 0.63054 0.080573 -0.00064712 0.065776 0.12053 0.086821 
0.043909 0.0689 0.66276 0.069229 -0.0042642 0.057227 0.19336 0.16311 
0.075476 -0.18759 1.0437 0.053938 -0.052437 0.044073 0.26718 0.28297 
0.08304 -0.31172 1.2198 0.0085601 -0.08121 0.0044497 0.19517 0.38425 
0.051636 -0.22573 0.70469 -0.075127 -0.13481 -0.0088678 0.061337 0.23858 
0.050814 -0.058028 -0.093376 -0.16177 -0.19959 -0.042408 -0.076442 0.028783 
0.072024 0.04654 -1.0813 -0.27768 -0.26371 -0.038298 -0.11196 -0.16309 
0.092411 0.055582 -1.6964 -0.27456 -0.25713 -0.04323 -0.093541 -0.25121 
0.08863 0.033551 -1.5174 -0.16703 -0.1843 -0.0073881 -0.053424 -0.26815 
0.057555 0.059857 -0.86365 -0.017253 -0.080552 0.036839 0.023193 -0.19729 
0.026646 0.094548 -0.24628 0.14798 0.038812 0.062981 0.053938 -0.11755 
-0.0082102 0.039305 0.15949 0.22871 0.10803 0.088465 0.095371 -0.0503 
-0.0036066 -0.080223 0.36863 0.22739 0.074819 0.058213 0.076627 0.068078 
0.0092177 -0.02498 0.31223 0.12792 0.024508 0.048019 0.035031 0.11461 
-0.020377 0.12431 0.29431 0.045553 -0.029913 0.019905 -0.019719 0.18383 
-0.009361 0.20684 0.28987 -0.0040998 -0.084991 -0.0096899 -0.013636 0.18465 
0.049664 0.14535 0.2948 -0.039284 -0.10209 -0.010512 -0.0042642 0.15407 
0.12529 0.054596 0.30681 -0.001798 -0.086471 -0.019719 0.00017495 0.10606 
0.10967 0.01267 0.13828 0.0098754 -0.08121 -0.0054151 0.01826 0.062817 
0.10211 -0.023994 -0.12708 -0.0011404 -0.084991 0.012835 0.020562 -0.0004827 
0.050979 -0.01676 -0.36515 -0.030242 -0.086471 0.0090533 0.049335 -0.047834 
0.048348 0.041278 -0.42615 -0.03764 -0.073976 0.033222 0.01152 -0.093541 
0.044731 0.07038 -0.34493 -0.050629 -0.10735 0.026481 0.016452 -0.16786 
0.068242 0.096193 -0.32125 -0.047834 -0.1016 0.026974 0.0028056 -0.18627 
0.063803 0.11 -0.23642 -0.0032777 -0.075127 0.029934 0.037168 -0.091075 
0.045718 0.064625 -0.11985 0.09126 -0.028762 0.060844 0.084848 0.012835 
0.024344 0.022535 -0.07414 0.10228 -0.013307 0.046868 0.086492 0.097015 
0.021056 0.043251 -0.16111 0.084026 -0.016102 0.026317 0.06035 0.077121 
0.010369 0.10096 -0.23954 0.10195 -0.0026201 0.020562 0.03536 0.058049 
-0.0011404 0.15834 -0.23822 0.078765 -0.024816 0.040785 0.0042853 0.033222 
0.005765 0.19057 -0.16292 0.029605 -0.051944 0.043087 0.004943 0.0019835 
0.049664 0.15423 -0.061645 0.0046141 -0.040271 0.025001 -0.016924 -0.013307 
0.064461 0.11378 0.031414 0.045718 -0.046519 0.020069 -0.041257 -0.097816 
0.05476 0.039799 0.093233 0.061172 -0.028433 0.033551 -0.017253 -0.049971 
0.015794 -0.055232 0.19435 0.041936 -0.036489 0.0227 -0.01528 0.063474 
0.00050378 -0.1016 0.27162 0.034044 -0.054739 0.009711 -0.062302 0.14963 
0.009711 -0.1404 0.23446 0.015465 -0.073482 -0.010348 -0.091239 0.083204 
0.031414 -0.17969 0.032236 -0.021199 -0.098638 -0.018733 -0.054904 -0.025967 
0.01152 -0.079895 -0.23559 0.038155 -0.050958 -0.0077169 0.0075736 -0.069043 
0.0083956 0.090767 -0.39162 0.10556 -0.018404 0.056898 0.023851 -0.086636 
0.052294 0.13072 -0.28607 0.1322 0.011684 0.059693 0.045389 -0.079566 
0.078765 0.10672 -0.13645 0.12562 0.036182 0.035688 0.05213 -0.013471 
0.090109 0.11395 0.11806 0.1202 -0.013471 0.0046141 0.06035 0.039963 
0.071531 0.11231 0.3974 0.05624 -0.03057 0.007738 0.028125 0.010862 
0.052952 0.032071 0.57398 0.031578 -0.041915 0.025988 -0.0087034 -0.052437 
0.034866 -0.091404 0.86302 0.015794 -0.06 0.0031344 -0.008539 -0.090088 
0.013986 -0.097651 0.92731 -0.0083746 -0.06855 -0.0004827 0.013164 -0.0014692 
-0.0075525 -0.0138 0.57891 -0.0042642 -0.067564 0.017932 0.047197 0.033222 
0.018589 0.15768 0.27886 0.012506 -0.041586 0.035688 0.054267 0.082711 
0.055747 0.22263 0.22887 0.046704 -0.049642 0.062488 0.063145 0.071859 
0.042594 0.19484 0.25271 0.081067 -0.012814 0.062323 0.075805 0.096193 
0.012342 0.072846 0.025001 0.082875 0.0080668 0.051308 0.068736 0.025001 
0.0018191 0.026152 -0.46676 0.14305 0.0092177 0.034373 0.028619 -0.011663 
0.03092 0.0036276 -0.6121 0.12332 -0.004593 0.020069 -0.011334 -0.013471 
0.071202 0.025988 -0.31895 0.093562 -0.020541 0.014808 -0.0080457 -0.0036066 
0.093891 0.057062 -0.003771 0.093398 -0.018733 0.01152 -0.019061 -0.017911 
0.0592 0.083862 0.19106 0.0079024 -0.064111 0.0092177 0.017438 0.013821 
-0.0096899 0.028783 0.38112 -0.028762 -0.086142 0.018754 0.026317 0.052459 
-0.06 -0.031228 0.40858 -0.085978 -0.080388 0.048019 0.023357 0.032893 
-0.053095 -0.023829 0.23298 -0.03353 -0.081703 0.053774 0.024344 0.03388 
0.0051074 0.045389 0.063968 -0.010676 -0.067892 0.031742 0.040785 0.038483 
0.0021479 0.041607 0.21901 0.01974 -0.060494 0.018589 0.057555 0.055747 
0.020562 -0.011827 0.34298 0.020398 -0.073154 -0.046025 0.062817 0.051801 
0.059528 -0.10834 0.27524 0.039305 -0.056219 0.01563 0.069886 0.13927 
0.082217 -0.19975 0.20569 0.073339 -0.036654 0.0041209 0.099152 0.22 
0.040456 -0.15848 0.0037921 0.14963 0.01415 0.0227 0.12595 0.19747 
0.0013258 -0.038956 0.11822 0.11872 -0.014129 0.032729 0.10293 0.095699 
-0.044546 0.028454 0.64632 -0.019061 -0.083183 0.0098754 0.056404 0.035853 
-0.0019624 0.053938 0.66983 -0.17246 -0.15799 -0.0083746 0.0079024 0.0592 
0.077614 0.034702 0.22822 -0.17871 -0.19794 -0.023665 -0.034681 0.057062 
0.12562 -0.070852 -0.25976 -0.099131 -0.13415 -0.022843 -0.064768 -0.16457 
0.092576 -0.039613 -0.40642 0.027139 -0.05589 0.013492 -0.037311 -0.21077 
0.0026412 0.13467 -0.29018 0.13828 0.0095465 0.060515 0.012013 0.020233 
-0.038791 0.20947 -0.15865 0.15094 0.029769 0.083204 0.07038 0.17248 
-0.025309 0.18794 -0.079895 0.11658 0.0093821 0.070544 0.12233 0.12743 
0.083533 0.13532 -0.014129 0.10639 -0.0036066 0.03536 0.10047 -0.014951 
0.22723 0.082711 -0.087786 0.066269 -0.039942 0.010369 0.064132 -0.11146 
0.15686 0.10573 -0.16046 0.041607 -0.048985 0.031907 0.068736 -0.0050863 
-0.046519 0.13434 -0.12034 0.058213 -0.011827 0.046704 0.09422 0.12135 
-0.19153 0.10655 0.073997 0.050321 -0.039613 0.044073 0.066763 0.098988 
-0.13793 0.048677 0.1179 -0.021692 -0.072332 0.017438 0.029934 0.047197 
-0.032872 -0.015773 -0.075291 -0.077428 -0.11903 -0.014458 -0.0036066 0.03092 
0.040292 -0.076935 -0.28804 -0.03912 -0.11837 -0.013636 -0.0022913 0.052623 
0.07597 -0.034516 -0.22951 -0.030242 -0.1016 -0.043724 -0.011663 0.058706 
0.074654 0.01415 -0.17624 -0.018075 -0.09387 -0.042244 -0.025474 0.069393 
0.052787 0.10474 -0.29856 0.0088889 -0.058356 0.0056006 -0.016595 0.057227 
0.03536 0.18054 -0.38965 -0.024487 -0.090581 0.014479 0.0088889 -0.011992 
0.037332 0.17396 -0.32717 0.030098 -0.046847 0.041772 0.056733 -0.024816 
0.027468 0.096357 -0.2374 0.071695 -0.011005 0.016781 0.067585 0.043909 
0.038319 -0.01117 0.064296 0.068571 -0.040764 0.0024767 0.013821 0.085341 
0.026974 -0.029584 0.37159 -0.014293 -0.084169 -0.0083746 -0.076113 0.028947 
0.030427 0.01974 0.39575 -0.044381 -0.097487 -0.0073881 -0.13892 -0.019061 
-0.02646 0.098988 0.39345 -0.07825 -0.11278 -0.016595 -0.1723 -0.029584 
-0.10752 0.12069 0.41548 -0.075291 -0.097322 -0.011992 -0.18824 0.055254 
-0.1381 0.11592 0.25091 0.021384 -0.041586 0.016288 -0.14418 0.14881 
-0.14106 0.16081 -0.075784 0.12085 0.033715 0.046868 0.01267 0.23562 
-0.090417 0.16837 -0.3155 0.17199 0.042594 0.080409 0.13516 0.20586 
-0.023665 0.15719 -0.44259 0.12184 0.018425 0.092247 0.16607 0.078107 
0.060515 0.080573 -0.37683 0.065118 -0.02235 0.073339 0.15324 -0.030735 
0.16393 -0.0052507 -0.14862 0.044073 -0.058356 0.066598 0.12003 -0.16276 
0.34512 -0.14352 0.052952 0.012835 -0.06707 0.035853 0.12003 -0.40247 
0.44442 -0.18035 0.0039565 0.0092177 -0.071345 0.051801 0.21802 -0.46643 
0.26028 -0.095021 -0.29824 0.063145 -0.037311 0.047362 0.40036 -0.14484 
-0.0095255 0.10096 -0.42138 0.03947 -0.048985 0.033715 0.46645 0.3535 
-0.14056 0.22887 -0.28722 0.03799 -0.040435 0.03388 0.44459 0.60571 
-0.14928 0.31684 -0.067399 0.05476 0.00017495 0.03799 0.26357 0.44623 
-0.13711 0.35301 0.17018 0.064296 -0.026131 0.022535 -0.088937 -0.057863 
-0.048163 0.30138 0.52433 -0.05885 -0.092719 -0.024652 -0.39458 -0.48912 
0.031578 0.095042 0.75927 -0.084663 -0.11475 -0.047669 -0.52529 -0.53779 
0.051965 -0.12988 0.68447 -0.037476 -0.097158 -0.020048 -0.37091 -0.25302 
0.036017 -0.23576 0.4316 -0.033037 -0.080717 0.020069 -0.14928 0.11494 
0.017438 -0.14763 0.072517 0.0092177 -0.056712 0.041278 0.01415 0.31601 
-0.00081153 -0.060165 -0.20978 0.036182 -0.03616 0.060515 0.11263 0.35876 
0.028125 -0.021856 -0.34855 0.027468 -0.05589 0.037332 0.14568 0.3387 
0.078272 -0.12659 -0.33194 0.0083956 -0.06148 0.037826 0.1567 0.29842 
0.07038 -0.07266 -0.30679 0.051636 -0.025145 0.034373 0.11921 0.25748 
0.059364 0.090438 -0.32438 0.12135 -0.0072237 0.034373 0.081231 0.1733 
0.040621 0.14782 -0.31024 0.13647 0.0062583 0.02122 0.072024 0.10787 
0.043251 0.12168 -0.11245 0.11231 0.0016547 0.039963 0.095206 0.053774 
-0.0088678 0.059364 0.33246 0.08978 -0.017417 0.029605 0.080409 -0.010183 
-0.066413 0.06331 0.63235 -0.0036066 -0.069372 0.054103 0.0018191 -0.24908 
-0.080717 0.093069 0.45774 0.01152 -0.057863 0.036346 -0.029748 -0.52217 
-0.019719 0.14996 -0.029091 0.069558 0.0056006 0.05772 0.0037921 -0.52184 
0.076792 0.16492 -0.33046 0.095206 -0.00097594 0.046375 0.11724 -0.24924 
0.14387 0.070873 -0.21504 0.0324 -0.051615 0.03388 0.14387 -0.034516 
0.19484 0.021713 0.066927 -0.017911 -0.073318 0.058377 0.12085 0.11231 
0.14371 0.039963 0.16262 -0.0011404 -0.08828 0.041443 0.10359 0.1756 
0.041114 0.095206 0.11263 0.026646 -0.054739 0.055911 0.074161 0.1932 
-0.017746 0.11477 0.18251 0.099481 -0.0098543 0.056076 0.085012 0.13631 
-0.037476 -0.06296 0.51676 0.15259 0.0067515 0.0421 0.1008 0.15341 
-0.026789 -0.31254 0.83885 0.086163 -0.031886 0.016452 0.052294 0.29727 
0.023357 -0.40576 0.79561 -0.018404 -0.099789 -0.043724 -0.073154 0.33821 
0.062652 -0.22622 0.48372 -0.065262 -0.12955 -0.065919 -0.1917 0.18021 
0.058542 0.055254 -0.06148 -0.11409 -0.16276 -0.05737 -0.22754 0.051143 
0.023028 0.19714 -0.54634 -0.11491 -0.14566 -0.033365 -0.18117 0.054596 
-0.055068 0.10606 -0.63413 -0.056877 -0.093705 0.0069159 -0.1182 0.087972 
-0.06707 0.062817 -0.58201 0.069064 -0.023501 0.044896 -0.047012 0.12875 
-0.035832 0.16081 -0.48271 0.095535 0.017274 0.053938 0.032729 0.046046 
-0.018897 0.23282 -0.2522 0.11757 0.028947 0.058542 0.037004 -0.098638 
0.029441 0.17265 -0.032379 0.14502 0.020069 0.055254 0.024508 -0.2499 
0.049335 0.079587 0.043416 0.11395 -0.0034422 0.025495 0.049499 -0.24086 
0.067913 0.11839 -0.087129 0.11231 0.00017495 0.046375 0.097837 -0.009361 
0.10951 0.15966 -0.15339 0.099316 0.01152 0.038155 0.11017 0.28593 
0.086657 0.16114 0.051965 0.047197 -0.050958 0.0037921 0.088794 0.36041 
0.0059294 0.12924 0.31141 0.012013 -0.06148 0.036675 0.0039565 0.35876 
-0.081539 0.063145 0.54784 -0.070523 -0.10554 0.012013 -0.049478 0.19385 
-0.071838 0.01711 0.63827 -0.091404 -0.1358 -0.017088 -0.089266 0.010862 
-0.035667 -0.086636 0.41828 -0.13349 -0.16177 -0.009361 -0.1182 -0.40247 
0.007738 -0.096994 0.22887 -0.09239 -0.1376 -0.029913 -0.10784 -0.57922 
0.039634 -0.14056 0.38293 -0.032872 -0.11179 -0.033859 -0.070852 -0.30383 
0.10672 -0.21866 0.48339 -0.088773 -0.14517 -0.011005 -0.047998 -0.17953 
0.16081 -0.24398 0.4362 -0.14122 -0.16868 -0.038133 -0.050136 -0.084334 
0.14667 -0.18643 0.35186 -0.11278 -0.12116 0.0069159 -0.023007 0.020398 
0.072353 0.014479 0.011026 -0.029913 -0.095843 0.038483 0.007738 0.18958 
-0.021528 0.26587 -0.3109 0.031414 -0.038298 0.045224 0.023522 0.23282 
-0.026953 0.31864 -0.3372 0.045882 -0.030899 0.029934 0.041443 0.15275 
-0.018733 0.27195 -0.25138 0.088958 -0.0054151 0.0090533 0.0023123 0.082053 
-0.0098543 0.16114 -0.21373 0.10211 0.0032988 0.028125 0.010204 0.058213 
-0.03912 0.13006 -0.12067 0.073997 -0.019226 0.044073 0.020233 0.043416 
-0.042079 0.086163 -0.065755 0.068242 -0.027118 0.043087 0.059528 0.051636 
-0.033365 -0.0082102 -0.091239 0.032236 -0.053095 0.025988 0.1008 0.10869 
-0.032379 -0.080717 0.044073 0.017603 -0.053424 -0.0027845 0.093398 0.12102 
-0.018239 -0.031064 0.15604 0.058706 -0.0096899 0.050321 0.042429 0.088794 
0.024179 0.072024 0.12266 0.10819 -0.0064016 0.059857 0.042429 0.020727 
0.080902 0.18892 -0.0067304 0.096193 -0.0078813 0.043416 0.098988 -0.0055795 
0.064461 0.25288 -0.084663 0.043416 -0.041422 0.021713 0.13894 -0.023007 
0.064954 0.2121 -0.15174 0.06035 -0.049478 0.031249 0.20388 -0.02794 
0.01974 0.14782 -0.20863 0.038977 -0.045532 0.049992 0.20142 -0.045696 
-0.023829 0.14848 -0.17657 0.065118 -0.021856 0.06331 0.19172 -0.020541 
0.0028056 0.15423 -0.056383 0.0592 -0.01939 0.042429 0.15357 -0.01528 
0.0031344 0.1026 0.071037 0.026646 -0.056712 0.026481 0.10918 0.0098754 
0.053116 0.00099702 0.19928 -0.019061 -0.090581 1.0539e-005 0.027796 -0.0032777 
0.0421 -0.07414 0.18777 -0.10275 -0.11853 -0.010019 -0.08384 -0.051122 
0.025659 -0.028926 -0.015773 -0.075784 -0.12527 -0.0072237 -0.10637 -0.087786 
-0.042408 0.10063 -0.25006 0.026974 -0.054739 -0.00064712 -0.077757 -0.069701 
-0.052931 0.17396 -0.38324 0.15571 0.026974 0.025824 -0.042573 -0.051287 
-0.011005 0.098001 -0.22162 0.21852 0.050814 0.027796 0.0039565 -0.014622 
0.10162 -0.051122 0.27557 0.1373 0.0083956 0.014315 0.061666 -0.0067304 
0.17248 -0.19104 0.81271 0.029112 -0.065755 0.0074092 0.065612 0.01267 
0.14075 -0.26683 1.0858 -0.0039354 -0.071345 0.034537 0.092082 0.086821 
0.093398 -0.16473 0.79364 0.0087245 -0.082854 0.027961 0.13023 0.22115 
0.025001 -0.10554 0.2218 0.031742 -0.059343 0.048677 0.17034 0.37405 
0.029605 0.013821 -0.27407 0.049006 -0.026131 0.048841 0.18859 0.37948 
-0.00031829 0.050321 -0.79394 0.055747 -0.033037 0.047362 0.12316 0.32884 
-0.070687 0.13187 -0.90246 0.059364 -0.018733 0.046211 0.069229 0.21227 
-0.096665 0.19073 -0.64696 0.10162 0.010204 0.051308 0.030427 0.11773 
-0.10406 0.20767 -0.46018 0.13631 0.027303 0.043087 -0.0072237 -0.13744 
-0.072332 0.23151 -0.53253 0.10228 -0.010183 0.020891 -0.020048 -0.4758 
-0.02087 0.22296 -0.5317 0.059693 -0.042079 -0.024652 0.0060938 -0.40856 
0.0085601 0.1978 -0.21915 0.049499 -0.044052 -0.0073881 0.031578 0.0016547 
0.11346 0.13795 0.08567 0.024837 -0.071016 0.0024767 -0.0019624 0.18383 
0.17067 0.099152 0.24943 -0.0095255 -0.076442 0.0324 -0.023829 0.17396 
0.17034 0.039799 0.54915 -0.020212 -0.067235 0.066434 0.011355 0.080738 
0.1299 -0.08384 0.84592 0.024508 -0.053588 0.064132 0.084519 -0.066084 
0.098988 -0.20666 0.58467 0.017767 -0.044052 0.051472 0.11543 -0.12018 
0.10589 -0.22474 0.14815 0.026646 -0.042737 0.044238 0.030756 -0.066577 
0.054596 -0.11311 -0.050629 0.066434 -0.033037 0.019411 -0.07562 0.039634 
0.0016547 0.02829 -0.25779 0.05065 -0.046025 0.007738 -0.12116 0.081395 
-0.029255 0.1493 -0.38192 0.051965 -0.035338 0.0037921 -0.084663 0.12201 
-0.044052 0.17544 -0.35183 0.06742 -0.0055795 0.01004 -0.0031133 0.16442 
-0.053095 0.13434 -0.22491 0.085341 -0.017417 0.011191 0.052952 0.20372 
-0.039613 0.051143 0.02829 0.063968 -0.028433 0.0095465 0.030427 0.046868 
-0.0059084 -0.078415 0.50295 0.020727 -0.056548 0.01004 -0.032543 -0.096172 
0.019083 -0.19498 1.0676 0.011191 -0.084498 -0.012978 -0.069701 -0.15207 
-0.02646 -0.14895 0.95937 -0.050629 -0.10225 -0.024652 -0.044217 -0.027775 
-0.078744 -0.012978 0.33541 -0.076277 -0.10949 0.031742 0.030427 0.099974 
-0.073482 0.013328 -0.10423 -0.07003 -0.093048 0.047855 0.16163 0.16788 
0.013328 0.00083261 -0.13333 -0.06707 -0.1108 0.039305 0.21375 0.058049 
0.1613 0.032729 -0.12511 -0.070523 -0.12034 0.010369 0.12908 -0.071838 
0.36221 0.03651 -0.32536 -0.0771 -0.11755 -0.029255 -0.024652 -0.15207 
0.43094 0.035688 -0.40412 -0.020706 -0.12034 0.0021479 -0.13629 -0.109 
0.3244 0.055747 -0.22491 0.039141 -0.06296 0.023357 -0.13662 -0.1233 
0.23726 0.15061 -0.035996 0.15308 0.029441 0.058706 -0.07562 -0.15996 
0.14798 0.19468 0.12792 0.22592 0.077778 0.083862 0.039634 -0.016924 
-0.040435 0.17462 0.19747 0.18498 0.059857 0.094713 0.14716 0.18037 
-0.19597 0.13351 0.22887 0.092411 0.0042853 0.081395 0.23019 0.36583 
-0.22409 0.064296 0.19632 0.0056006 -0.040764 0.03947 0.22033 0.3341 
-0.13448 0.046704 -0.069865 -0.075455 -0.11245 -0.004593 0.051965 0.18432 
-0.043724 0.05065 -0.28771 -0.11607 -0.12873 -0.043395 -0.10702 -0.0029489 
0.012013 0.056076 -0.23362 -0.079566 -0.092719 -0.020048 -0.1838 -0.12725 
0.035524 0.056569 0.014479 -0.036818 -0.09798 0.0079024 -0.19038 -0.15816 
0.061995 -0.01528 0.11477 -0.018568 -0.088115 0.0018191 -0.12445 -0.15717 
0.10819 -0.077757 0.067256 0.0079024 -0.066413 0.026481 -0.036325 -0.10078 
0.1368 -0.092883 0.026317 0.066598 -0.042901 0.01974 0.019576 -0.034516 
0.12299 -0.025802 0.037661 0.044238 -0.054904 0.049828 0.022864 0.012342 
0.10721 -0.062467 0.040621 0.019411 -0.060823 0.046375 0.018425 0.067913 
0.093233 -0.097816 0.0080668 -0.017911 -0.054739 0.055254 0.077449 0.12792 
0.040785 -0.038627 0.056569 0.011026 -0.059014 0.068571 0.14502 0.21375 
-0.025145 0.12529 0.094877 0.0011614 -0.056877 0.052787 0.17955 0.32144 
-0.040271 0.21408 0.23019 -0.037311 -0.075455 0.038812 0.18662 0.29004 
-0.0072237 0.20355 0.40019 -0.013636 -0.085813 0.0023123 0.19517 0.23496 
0.0014903 0.14733 0.44771 0.023851 -0.052766 0.022371 0.22427 0.14239 
0.0034632 0.08304 0.52893 0.067256 -0.023336 0.028125 0.22608 0.050814 
0.023851 0.00297 0.48881 0.073175 -0.030899 0.065447 0.12168 -0.10061 
0.055911 0.0062583 0.10967 0.034866 -0.051615 0.032729 -0.039449 -0.16851 
0.095371 0.082217 -0.45542 0.041772 -0.04882 -0.020212 -0.12544 -0.21965 
0.14798 0.14585 -0.79427 0.092247 -0.0087034 -0.028762 -0.19318 -0.24628 
0.159 0.16311 -0.74741 0.095699 -0.028104 -0.056877 -0.17805 -0.10867 
0.10293 0.13302 -0.40922 0.037004 -0.057534 0.0070803 -0.10554 0.21983 
0.087643 0.054267 -0.034352 -0.092061 -0.11442 0.0079024 -0.038133 0.37224 
0.085177 -0.019226 0.035853 -0.12281 -0.15898 -0.013143 -0.017417 0.28872 
-0.017911 -0.03353 -0.0087034 -0.12116 -0.15339 0.005765 -0.0029489 0.28889 
-0.1159 0.036839 0.085835 -0.06296 -0.11261 0.032564 0.010204 0.20273 
-0.11491 0.080409 0.22164 0.060515 -0.032872 0.056898 0.013328 0.036675 
-0.077264 0.08304 0.15801 0.086657 -0.00031829 0.054267 0.037826 -0.049642 
-0.021692 0.054596 0.0059294 0.10113 0.0028056 0.044731 0.03651 -0.029584 
0.027303 0.017767 -0.11048 0.11642 0.01711 0.0064227 0.0090533 -0.18742 
0.067256 -0.013636 0.012342 0.10162 -0.026789 0.0019835 0.0052718 -0.36318 
0.065612 -0.059507 0.26389 0.028125 -0.058685 -0.00031829 -0.006566 -0.2744 
0.035853 -0.15322 0.341 -0.052109 -0.10225 -0.017582 0.030427 -0.036818 
-0.0067304 -0.088773 0.16015 -0.038956 -0.11113 -0.013143 0.029112 0.1516 
-0.038133 0.082711 0.14716 0.034044 -0.050958 0.019083 0.044073 0.2269 
-0.011663 0.23381 0.27491 0.093726 -0.006566 0.035031 0.032893 0.16344 
0.0092177 0.14387 0.20898 0.091589 -0.01676 0.021713 0.031085 0.059857 
0.015959 0.059035 -0.078744 0.047855 -0.055068 0.021713 0.020233 -0.014293 
0.035853 0.056569 -0.25598 0.023357 -0.067235 -0.0029489 -0.040106 -0.087458 
0.071531 -0.00031829 -0.31353 -0.063946 -0.092061 0.0056006 -0.060329 -0.076606 
0.06742 -0.13021 -0.13941 -0.066906 -0.12544 0.023193 0.0042853 -0.0095255 
0.035195 -0.14106 0.171 -0.047669 -0.094527 0.04654 0.084026 0.054103 
0.042758 -0.096336 0.27327 -0.0098543 -0.079401 0.035853 0.11231 0.063639 
0.055089 -0.0091966 0.3563 0.033551 -0.055397 0.045882 0.1003 0.046211 
0.051801 0.021878 0.18909 0.047033 -0.041751 0.022371 0.036182 0.032729 
-0.0138 0.089287 0.0016547 0.039305 -0.041422 0.026974 -0.03912 0.022535 
0.021713 0.16179 0.073997 0.018096 -0.051451 0.018918 -0.046847 -0.071838 
0.03092 0.16755 0.51676 0.024015 -0.072332 -0.0049219 -0.074633 -0.037311 
0.042265 0.025988 0.85299 0.035688 -0.059178 0.00297 -0.047012 0.0421 
0.047197 -0.0406 0.53025 0.065118 -0.023665 0.01415 0.016123 0.055911 
0.054925 0.045718 -0.24661 0.073504 -0.045203 0.029934 0.057227 0.03092 
0.034373 0.13894 -0.76583 0.062652 -0.03764 0.031907 0.073339 0.018754 
0.03799 0.16804 -0.82156 0.076299 -0.024323 0.027468 0.04358 -0.0062372 
0.073668 0.13878 -0.6583 0.1105 -0.015444 0.0080668 0.004943 -0.13793 
0.098166 0.12595 -0.34756 0.07597 -0.030735 0.014808 0.0085601 -0.23954 
0.08419 0.11806 -0.13826 0.091096 -0.0067304 0.031907 0.045224 -0.16802 
0.040456 0.1368 0.018425 0.11822 0.030592 0.049664 0.0786 0.089452 
-0.016924 0.13368 0.23726 0.13056 0.018918 0.059693 0.13187 0.22838 
-0.05737 0.070544 0.42272 0.077449 -0.0075525 0.07301 0.15653 0.27935 
-0.053424 -0.062302 0.6118 -0.013143 -0.059836 0.050814 0.14749 0.15522 
-0.027118 -0.19005 0.58253 -0.017746 -0.084169 0.036182 0.062159 0.038319 
-0.047834 -0.13349 0.2736 -0.026624 -0.075949 0.0227 0.010533 -0.0034422 
-0.092554 0.026974 -0.041093 -0.021692 -0.074469 0.013492 -0.004593 -0.0064016 
-0.084663 0.047526 -0.2037 0.014808 -0.075127 -0.003771 0.0056006 0.019083 
0.0082312 -0.026789 -0.39836 -0.019555 -0.092061 0.014479 0.044402 0.061337 
0.093726 -0.10225 -0.47071 0.0024767 -0.078415 0.023193 0.054267 0.067585 
0.11576 -0.10932 -0.39097 0.061995 -0.020048 0.01267 0.046704 0.023193 
0.13499 0.097344 -0.26486 0.10228 -0.021363 -0.0060728 0.027468 -0.034188 
0.21079 0.38901 -0.11771 0.10441 -0.010183 0.005765 0.010862 -0.049478 
0.26225 0.49588 0.35958 0.11395 0.00033937 0.018096 -0.0096899 -0.0039354 
0.20125 0.33163 1.0393 0.073175 -0.035996 0.014972 -0.0095255 0.0092177 
0.068736 0.05065 0.97548 0.012999 -0.061973 0.027632 0.01974 0.067585 
-0.0098543 -0.045532 0.24712 0.016781 -0.056055 0.038319 0.064954 0.069558 
-0.053424 -0.05178 -0.33095 0.050321 -0.037476 0.041114 0.067585 0.11543 
0.023522 -0.045039 -0.60405 0.029276 -0.043066 0.048184 0.053281 0.076956 
0.029276 -0.023665 -0.53368 0.054103 -0.031064 0.031907 0.026974 0.06035 
0.018589 -0.00031829 -0.25894 0.085177 0.0046141 -0.0064016 0.038648 0.044073 
0.0052718 0.014479 0.093398 0.094877 -0.018239 0.035031 0.049499 -0.011005 
0.011026 0.01004 0.31651 0.024837 -0.047834 0.062159 0.073997 -0.1358 
0.040128 -0.025967 0.24367 0.023522 -0.045532 0.036182 0.12431 -0.13103 
0.026152 0.018425 0.14289 0.0786 -0.01939 0.036182 0.15407 -0.04323 
0.020398 0.16245 0.2514 0.028783 -0.04882 -0.0087034 0.13269 0.037168 
0.01826 0.21753 0.48076 -0.022514 -0.087293 -0.027611 0.013986 0.0036276 
0.076134 0.055089 0.18136 -0.0027845 -0.06444 -0.011005 -0.089595 -0.011334 
0.075805 -0.014787 -0.4324 0.036675 -0.058356 -0.001798 -0.12659 0.1179 
0.071531 0.10096 -0.83784 -0.013636 -0.078908 -0.0055795 -0.077593 0.18695 
0.038155 0.14946 -0.95605 -0.019884 -0.059836 -0.0091966 -0.040435 0.24121 
0.027139 0.077121 -0.85461 -0.0024557 -0.091239 0.0044497 0.00050378 0.20799 
-0.010676 0.059528 -0.4684 0.00050378 -0.063289 0.033387 0.027796 0.14289 
-0.0406 0.080573 0.18777 0.046211 -0.027118 0.052459 0.038977 0.068736 
-0.045039 0.10458 0.90659 0.11346 0.013657 0.059857 0.035853 0.046375 
-0.035832 0.13236 1.0906 0.13713 0.035031 0.062488 0.049499 -0.0060728 
0.013657 0.11691 0.77457 0.12365 0.020562 0.037826 0.024015 -0.094692 
0.090274 0.049335 0.35695 0.070708 -0.014622 0.021549 0.02533 -0.096829 
0.14881 0.0026412 0.029112 -0.008539 -0.082525 0.014643 0.077285 0.0042853 
0.13647 -0.064275 -0.12609 -0.1187 -0.14369 0.0074092 0.095042 0.056569 
0.090438 -0.047176 -0.025309 -0.2203 -0.18956 0.011191 0.063803 0.061337 
0.022371 -0.037147 0.16706 -0.20436 -0.21307 0.022371 0.072188 0.077449 
-0.045203 -0.026953 0.35087 -0.14895 -0.16917 0.028125 0.066598 0.097015 
-0.096336 -0.057699 0.34429 -0.017417 -0.082196 0.019576 0.045389 0.031578 
-0.12297 -0.030077 0.15472 0.090603 -0.018568 0.017274 -0.015773 -0.11837 
-0.11179 0.019411 0.051472 0.12168 0.019247 0.028947 0.0082312 -0.084498 
-0.1113 0.065283 0.0065871 0.15801 0.038483 0.060022 0.033222 0.056076 
-0.0095255 0.055911 0.04095 0.13483 0.039634 0.057391 0.045553 0.1197 
0.10441 0.031907 -0.093376 0.087479 -0.019226 0.032893 0.099316 0.17577 
0.1858 0.044238 -0.38077 0.090438 -0.014951 0.016616 0.087643 0.33311 
0.25304 0.090274 -0.46281 0.1248 0.0075736 -0.0073881 0.032893 0.2805 
0.34183 0.093891 -0.28574 0.082711 -0.049314 -0.017253 -0.025802 0.046704 
0.44705 0.044238 -0.057699 -0.059178 -0.1284 -0.026131 -0.0034422 -0.13004 
0.28067 0.069886 0.043416 -0.056548 -0.10949 -0.0031133 -0.0073881 -0.083676 
-0.084991 0.12069 0.016123 0.0018191 -0.067235 0.029605 -0.010019 -0.16523 
-0.33753 0.099152 -0.01528 0.021056 -0.044546 0.059528 -0.0050863 -0.22376 
-0.39277 0.051636 0.050321 0.05213 -0.019719 0.061501 0.022864 -0.0082102 
-0.32323 -0.036489 0.08156 0.035853 -0.017582 0.059857 0.043745 0.091589 
-0.17838 -0.088444 -0.062631 0.022535 -0.06707 0.041772 0.029769 0.089287 
-0.039449 -0.0096899 -0.25713 -0.10538 -0.12971 0.010533 0.017603 0.062652 
0.13039 0.095535 -0.15914 -0.19038 -0.17641 0.0044497 -0.0022913 0.047691 
0.22953 0.11559 0.03388 -0.1547 -0.18167 -0.019061 0.012506 -0.034352 
0.19599 0.046868 0.18859 -0.097816 -0.12281 -0.0075525 0.0083956 -0.030899 
0.088958 -0.027282 0.46777 0.042429 -0.039449 -0.013965 -0.0070593 -0.011992 
0.038319 -0.14681 0.61048 0.17692 0.035524 0.034866 0.018425 0.053609 
0.023357 -0.16342 0.341 0.15719 0.016616 0.071859 0.034702 0.073832 
0.015959 -0.098638 -0.013636 0.13401 0.01152 0.037826 0.053445 0.069886 
0.0019835 0.027796 -0.22869 0.12349 0.028454 0.03947 -0.043888 -0.025638 
-0.013307 0.15571 -0.3206 0.11592 -0.0021268 0.026646 -0.075127 0.022042 
-0.015773 0.24153 -0.29462 0.06479 -0.012156 0.040128 -0.08384 -0.0004827 
-0.021199 0.19714 -0.14204 0.017438 -0.041915 0.078272 -0.019719 0.0041209 
-0.01117 0.023522 0.014643 -0.0026201 -0.073318 0.047362 -0.012978 -0.022514 
0.022535 -0.14287 0.0098754 0.023851 -0.055068 0.021549 -0.0088678 0.0069159 
0.070051 -0.085156 0.018754 0.0011614 -0.073318 0.0052718 0.018918 -0.017417 
0.093726 0.0060938 -0.041422 -0.034352 -0.089266 0.011355 0.059693 -0.055068 
0.11 0.10639 0.15883 -0.098309 -0.14698 0.025001 0.080573 -0.050793 
0.091096 0.17297 0.46711 -0.084169 -0.11853 0.029276 0.064461 0.0044497 
0.034373 0.2172 0.46448 -0.035996 -0.054246 0.031249 0.11937 0.031249 
-0.021034 0.17725 0.2223 -0.014787 -0.064933 0.038155 0.19385 0.01826 
-0.023829 0.1391 -0.079072 -0.024487 -0.069043 0.034373 0.18119 0.040785 
0.035688 0.09981 -0.25154 0.049664 -0.030242 0.033222 0.1202 0.09685 
0.11411 0.0026412 -0.20255 0.1248 0.0016547 -0.0034422 -0.038133 0.086657 
0.12497 -0.1233 0.11099 0.1054 -0.017253 -0.030735 -0.18956 -0.039942 
0.086821 -0.24118 0.42666 0.086492 -0.026953 -0.039613 -0.24612 -0.082196 
0.00099702 -0.23132 0.4408 0.074161 -0.018404 0.009711 -0.17624 -0.056055 
-0.056055 -0.10242 0.092247 0.092904 -0.028597 0.03092 -0.071509 0.067585 
-0.1159 0.018096 -0.28755 0.11642 0.0098754 0.060022 0.005765 0.19501 
-0.10916 0.028454 -0.33589 0.093562 0.020891 0.049499 0.019905 0.17741 
-0.077757 0.0227 -0.23083 0.084848 -0.018239 0.013164 0.00017495 -0.093705 
0.009711 0.13105 -0.11409 0.011684 -0.055397 0.025166 -0.080881 -0.38949 
0.084355 0.27886 -0.020048 -0.049807 -0.0965 -0.026624 -0.06296 -0.35693 
0.053609 0.3244 -0.065426 -0.0024557 -0.077264 0.0056006 0.061666 -0.051615 
0.0044497 0.2925 -0.06707 -0.026131 -0.075291 0.029112 0.15472 0.24564 
-0.015938 0.21178 0.059528 0.015301 -0.054246 0.03947 0.18054 0.39099 
-0.0004827 0.1271 0.22789 0.059528 -0.02498 0.061172 0.16541 0.41285 
0.023522 0.082875 0.37323 0.068242 -0.046519 0.036182 0.088958 0.25617 
0.082875 0.009711 0.55195 0.069558 -0.044546 0.026152 0.033551 0.11888 
0.11083 -0.19663 0.70814 0.072681 -0.031392 0.021384 0.070544 0.063474 
0.064954 -0.2499 0.57431 0.12743 -0.02646 0.034044 0.13615 0.10014 
-0.00064712 -0.07003 0.1641 0.13483 -0.0021268 0.048184 0.19961 0.1003 
-0.022021 0.1493 -0.25845 0.085177 -0.016595 0.035853 0.24038 0.036839 
-0.014293 0.22131 -0.43141 0.037826 -0.039613 0.040456 0.19846 -0.052437 
-0.0091966 0.22937 -0.58875 -0.028597 -0.069865 0.0075736 0.074326 -0.02794 
-0.008539 0.2292 -0.49652 -0.052109 -0.092883 0.012342 -0.052931 0.047197 
-0.0060728 0.17676 -0.39327 -0.044381 -0.077264 -0.013307 -0.10456 0.059364 
0.0069159 0.047033 -0.33178 -0.0087034 -0.081045 -0.026624 -0.10472 0.027961 
0.058213 -0.11278 -0.090088 0.00033937 -0.068714 -0.021692 -0.077757 -0.022514 
0.12036 -0.19285 0.10145 0.016123 -0.057534 0.014315 -0.04323 -0.022185 
0.12792 -0.16095 0.37718 0.041772 -0.05589 0.024344 -0.027447 -0.16851 
0.10162 -0.18512 0.73231 -0.023172 -0.084169 0.019905 -0.0029489 -0.2231 
0.041278 -0.12708 0.7236 -0.039284 -0.090746 0.026152 0.028947 -0.11491 
-0.029913 -0.020706 0.37882 0.038977 -0.042737 0.017274 0.061172 0.14404 
-0.098967 0.12661 0.20684 0.058049 -0.019884 0.019576 0.023028 0.27968 
-0.13037 0.22904 0.23085 0.071366 -0.02942 0.054103 0.022371 0.3198 
-0.10867 0.30944 0.07449 0.030756 -0.045861 0.03799 0.078929 0.25699 
-0.051287 0.33624 -0.26979 0.027961 -0.06444 0.016288 0.10195 0.1174 
0.014479 0.31305 -0.52677 0.026152 -0.064111 0.0083956 0.097344 -0.021363 
0.068736 0.17906 -0.45015 0.054596 -0.051615 0.024344 0.065118 -0.13119 
0.13105 0.058049 -0.26354 0.067585 -0.053095 -0.014622 -0.010019 -0.2351 
0.16508 0.039141 -0.35052 0.0072447 -0.080223 -0.027611 -0.038627 -0.19318 
0.14634 0.024837 -0.43059 0.043745 -0.05441 -0.0096899 0.0032988 -0.036818 
0.14996 -0.14632 -0.34345 0.12283 0.0014903 -0.0054151 0.041114 0.079587 
0.11263 -0.31501 -0.1159 0.14733 -0.0034422 0.029769 0.078929 0.12546 
0.071037 -0.30366 0.038648 0.10589 -0.016924 0.017438 0.11329 0.14881 
-0.014458 -0.14385 0.30582 0.069558 0.004943 0.037004 0.19665 0.12661 
-0.036818 -0.058356 0.59897 0.027796 -0.046354 0.050321 0.15144 -0.011992 
-0.057699 0.026317 0.56165 -0.050793 -0.079895 0.034537 0.070708 -0.063124 
-0.065755 0.081724 0.39132 -0.076442 -0.10094 0.030592 -0.022843 -0.019884 
-0.010841 0.15489 0.31092 -0.063946 -0.10275 0.030098 -0.024323 0.076627 
0.058049 0.15637 0.32999 -0.023994 -0.077264 0.06331 0.069393 0.10145 
0.11872 0.1419 0.31897 0.0072447 -0.06296 0.063803 0.10129 0.055418 
0.083533 0.12464 0.051143 -0.061809 -0.099624 0.049664 0.055254 -0.01676 
0.041772 0.095864 -0.26141 -0.19564 -0.20551 -0.033365 -0.053753 -0.052766 
0.029769 -0.030077 -0.44818 -0.23214 -0.22047 -0.050629 -0.072332 -0.043724 
0.047033 -0.1159 -0.57642 -0.12938 -0.1427 -0.035174 -0.065755 -0.02794 
0.04654 -0.090581 -0.50145 -0.023994 -0.10669 -0.014787 -0.056548 -0.0013048 
0.042265 0.038812 -0.31073 0.060186 -0.040435 0.0047785 -0.043559 0.0011614 
0.0039565 0.12431 -0.18545 0.15637 0.023028 0.026974 -0.02794 0.036839 
-0.0060728 0.10902 -0.074962 0.27623 0.08978 0.045389 0.020069 0.0074092 
0.016945 0.05476 0.045718 0.25962 0.084519 0.0421 0.026152 0.01152 
0.055089 0.097508 0.13779 0.19895 0.054432 0.029276 0.019411 -0.06296 
0.086492 0.066269 0.21506 0.096028 0.0069159 0.035688 0.026646 -0.093376 
0.06035 0.033715 0.24778 0.020891 -0.058028 0.029112 0.056569 -0.054739 
0.018425 0.045718 0.3221 -0.035338 -0.082361 0.028125 0.049828 0.055747 
-0.0026201 0.063639 0.55968 -0.050958 -0.079401 0.044731 0.013986 0.12628 
-0.02235 0.05624 0.73149 -0.039778 -0.1016 0.033058 0.034044 0.13467 
-0.029748 0.085341 0.36846 -0.082361 -0.11722 0.045553 0.077449 0.10145 
0.011026 0.12908 -0.20468 -0.081868 -0.11442 0.026481 0.10113 0.035524 
0.033551 0.058213 -0.47695 -0.0406 -0.11064 0.023357 0.02829 0.0056006 
0.10178 0.034044 -0.46495 -0.010676 -0.074469 0.02122 -0.043724 -0.0016336 
0.11839 -0.081374 0.10359 0.020069 -0.05326 0.018589 -0.052766 0.05476 
0.11576 -0.18578 0.4773 0.041936 -0.03205 0.010369 -0.040435 -0.0138 
0.090931 -0.17049 0.36583 0.032236 -0.061151 -0.01528 0.0021479 -0.023007 
0.034537 -0.061973 0.11543 -0.038462 -0.086471 0.032893 0.037826 -0.011992 
-0.012814 0.027303 -0.013307 -0.020048 -0.069536 0.029112 0.029441 0.11987 
-0.095678 0.071859 -0.10225 0.028783 -0.047505 0.033222 0.0080668 0.11954 
-0.099953 0.1733 -0.33342 0.10869 0.0059294 0.068571 0.054596 0.12349 
-0.11113 0.26011 -0.51132 0.13779 0.0227 0.053938 0.08156 0.075805 
-0.064768 0.32473 -0.43174 0.14042 0.020891 0.049335 0.084848 0.075641 
0.0072447 0.31223 -0.22063 0.067256 -0.023994 0.044402 0.051308 0.038155 
0.032071 0.22246 -0.015938 0.011684 -0.056055 0.05476 0.065118 -0.014458 
0.074819 0.14519 0.11083 -0.026789 -0.060494 0.024673 0.022535 -0.055561 
0.11 0.056898 0.31651 -0.034352 -0.090253 0.017603 -0.034188 -0.057534 
0.12661 0.012835 0.63366 -0.052931 -0.089102 0.0018191 -0.017911 -0.065426 
0.13434 -0.10012 0.79018 -0.047341 -0.084169 -0.017911 -0.025967 -0.050464 
0.083533 -0.16835 0.48141 0.0092177 -0.061809 -0.0031133 -0.052931 -0.054082 
-0.023665 -0.20255 0.054432 0.041278 -0.038956 -0.018404 -0.095843 0.021549 
-0.13021 -0.12511 -0.39984 0.063803 -0.030077 -0.0077169 -0.05589 0.12579 
-0.20304 0.0044497 -0.64498 0.1396 0.020562 0.010862 0.0052718 0.12694 
-0.18907 0.11461 -0.48863 0.16426 0.029276 0.034209 0.054596 0.11 
-0.11935 0.12875 -0.17871 0.19468 0.057391 0.071531 0.083368 0.14026 
0.0032988 0.15703 0.093891 0.18991 0.07301 0.055254 0.053609 0.18859 
0.12908 0.16048 0.36534 0.14913 0.0018191 0.014643 -0.014622 0.10869 
0.26406 0.13647 0.71949 0.055911 -0.052602 -0.0031133 -0.07003 -0.076277 
0.34347 0.18235 0.81961 0.041443 -0.062631 0.0088889 -0.06 -0.15224 
0.24499 0.17412 0.76322 0.055254 -0.051287 0.03092 -0.0080457 -0.022185 
0.022864 0.079258 0.62429 -0.021363 -0.08384 0.039305 0.035031 0.1003 
-0.14517 0.011026 0.26899 -0.054246 -0.092554 0.071859 0.087479 0.2001 
-0.17887 -0.034023 -0.1723 -0.022021 -0.063124 0.064625 0.17001 0.17149 
-0.12922 -0.045861 -0.48633 0.034209 -0.049971 0.08304 0.20092 0.18021 
-0.097487 -0.08532 -0.59993 0.077614 -0.019555 0.065118 0.20372 0.28428 
-0.061973 -0.11261 -0.44999 0.075805 -0.010348 0.013164 0.14321 0.06479 
0.044567 -0.10867 -0.25532 0.048184 -0.075949 -0.033365 0.0059294 -0.35447 
0.1026 -0.031557 -0.35101 0.01152 -0.085156 -0.041422 -0.065262 -0.44062 
0.09126 0.061995 -0.48073 0.018754 -0.071345 -0.0087034 -0.070687 -0.067728 
0.020727 0.13417 -0.34953 0.016452 -0.071838 -0.016266 -0.027775 0.28593 
-0.0036066 0.13006 0.04358 -0.028926 -0.084005 -0.004593 -0.042079 0.3244 
0.06035 0.15078 0.41368 -0.036654 -0.080552 0.0098754 0.0080668 0.084848 
0.047362 0.085835 0.59059 0.01152 -0.03764 0.041607 -0.033694 0.011026 
0.23775 0.039799 0.56494 0.086821 -0.024158 0.058706 -0.028926 -0.046025 
0.32982 0.031085 0.57266 0.091096 -0.017417 0.058213 0.029276 -0.13908 
0.23956 0.12283 0.47747 0.052459 -0.043724 0.062159 0.083204 -0.21734 
-0.011663 0.13335 0.15144 0.0059294 -0.072825 0.051965 0.11987 -0.12807 
-0.15289 0.13631 -0.11656 -0.045861 -0.10308 0.029441 0.10376 0.050979 
-0.13284 0.11543 -0.34378 -0.030077 -0.094363 0.015959 0.026646 0.10524 
-0.061973 0.14174 -0.45739 0.0032988 -0.083018 -0.0080457 -0.029091 0.037168 
-0.056383 0.11526 -0.46988 -0.0057439 -0.078415 -0.021856 0.032071 -0.0055795 
-0.047012 0.055911 -0.3571 0.047526 -0.040271 -0.016924 0.069558 0.016288 
0.0039565 -0.094692 0.044073 0.069558 -0.011827 0.038319 0.06331 0.024508 
0.05772 -0.21537 0.41844 0.050157 -0.047012 0.047691 0.050814 0.062159 
0.093398 -0.15437 0.48947 0.0036276 -0.059672 0.041772 0.022206 0.070708 
0.11839 0.078272 0.19829 0.0059294 -0.054739 0.023028 -0.014622 0.057555 
0.1368 0.17807 0.093562 0.029769 -0.058521 0.011355 -0.034023 0.073339 
0.14437 0.024837 0.25041 -0.020541 -0.080059 0.026974 -0.015444 0.085012 
0.14519 -0.2014 0.32736 -0.047341 -0.10784 0.0037921 -0.021856 0.069229 
0.095042 -0.34049 0.38803 -0.03616 -0.10489 0.0056006 0.004943 0.12151 
0.056898 -0.26223 0.25929 -0.036818 -0.10291 -0.0054151 0.070873 0.16607 
0.029276 -0.0077169 -0.22589 0.0037921 -0.069865 0.024015 0.10195 0.20783 
-0.011334 0.27162 -0.79641 0.037168 -0.02235 0.040292 0.066763 0.14157 
0.0227 0.28231 -1.0427 0.09422 -0.019226 0.014808 0.024179 -0.084663 
0.099152 0.2218 -0.81713 0.051801 -0.045039 0.020562 0.019083 -0.21027 
0.09981 0.24844 -0.51921 0.0044497 -0.074304 -0.003771 0.062488 -0.090253 
0.041443 0.20388 -0.26897 -0.013307 -0.082196 0.042265 0.15489 0.10622 
-0.056219 0.053281 -0.088773 -0.0011404 -0.056548 0.044731 0.16492 0.17001 
-0.046354 -0.056712 0.036182 0.027961 -0.033037 0.037332 0.077121 0.10984 
0.077121 -0.22244 0.23759 0.055747 -0.022514 0.019905 -0.061973 -0.23165 
0.21556 -0.28722 0.66885 -0.020048 -0.072825 -0.013307 -0.20156 -0.61621 
0.2366 -0.13662 0.90445 -0.043559 -0.086964 -0.014129 -0.2032 -0.75662 
0.13006 0.10721 0.6238 -0.030406 -0.055397 0.012013 -0.078415 -0.43158 
-0.027282 0.22148 0.11773 0.028619 -0.051287 0.042429 0.057555 0.10819 
-0.1187 0.18267 -0.13234 0.098001 0.0032988 0.070544 0.12102 0.51512 
-0.1644 0.13647 -0.1427 0.13236 0.023193 0.05772 0.14552 0.61492 
-0.16194 0.16294 -0.15125 0.13795 0.010204 0.060515 0.11642 0.4482 
-0.13875 0.16048 -0.14698 0.09126 -0.014622 0.031578 0.10326 0.18629 
-0.069372 0.14371 -0.13662 0.058542 -0.036654 0.010369 0.087314 0.060844 
0.024344 0.10655 -0.045203 0.07301 -0.019226 0.0014903 0.072353 0.070051 
0.092082 0.075476 0.066927 0.036675 -0.048163 -0.0004827 0.026974 0.073668 
0.14206 -0.0057439 -0.10176 0.055747 -0.048327 -0.00081153 -0.027611 0.01826 
0.20586 -0.078579 -0.37091 -0.047834 -0.0771 -0.012814 -0.080059 -0.024158 
0.29053 -0.069043 -0.55686 -0.11508 -0.13777 0.013986 -0.11755 -0.078086 
0.22739 -0.034845 -0.56426 -0.13974 -0.15832 -0.0032777 -0.091732 -0.093212 
0.11905 -0.11886 -0.18052 -0.0087034 -0.073647 0.023851 0.0024767 -0.013143 
-0.018733 -0.15635 0.26965 0.18728 0.038648 0.056569 0.1299 -0.013636 
-0.12511 -0.10061 0.45577 0.25518 0.080573 0.057391 0.19057 -0.033365 
-0.10028 -0.026789 0.6381 0.23463 0.070051 0.068407 0.17347 -0.024487 
-0.04471 -0.051615 1.0588 0.18744 0.046375 0.038483 0.098001 0.082053 
0.041114 -0.045368 1.2441 0.053774 -0.043888 0.021878 0.062488 0.12875 
0.087479 0.027139 0.42009 -0.033365 -0.082525 0.040621 0.022206 0.17067 
0.073339 0.1174 -0.52003 -0.050793 -0.076442 0.030756 0.060515 0.20125 
0.015465 0.17906 -0.72637 -0.030735 -0.077264 0.062323 0.15785 0.20158 
-0.034023 0.18843 -0.4227 -0.0068948 -0.047012 0.090767 0.22887 0.09981 
-0.013307 0.16344 -0.23822 -0.039449 -0.07003 0.085835 0.20273 -0.017746 
0.018754 0.17856 -0.15224 -0.06148 -0.094692 0.026152 0.061172 -0.068386 
0.01974 0.12053 0.20323 -0.11261 -0.13925 -0.027611 -0.072496 -0.12149 
0.067749 0.032071 0.64451 -0.10916 -0.15289 -0.059507 -0.13612 -0.11508 
0.095535 0.050486 0.59815 -0.05441 -0.11163 -0.061645 -0.1376 -0.11459 
0.11165 0.10195 0.2902 -0.022185 -0.09798 -0.036489 -0.11212 0.046868 
0.072517 0.073832 0.22871 0.034537 -0.051944 -0.035832 -0.053588 0.31223 
0.018918 0.078765 0.15587 0.062323 -0.036654 -0.01528 -0.00081153 0.42831 
-0.028269 0.12283 0.053445 0.13351 -0.015938 -0.010841 1.0539e-005 0.35843 
-0.055726 0.16969 -0.078579 0.12875 -0.0068948 0.0079024 0.050979 0.25896 
-0.028269 0.18383 -0.20929 0.05065 -0.043888 0.024837 0.053445 0.047362 
0.041936 0.15555 -0.20189 -0.023336 -0.083018 0.023028 0.013657 -0.4222 
0.098659 0.066598 -0.13695 -0.10324 -0.12955 0.02681 0.012342 -0.72341 
0.093726 -0.09946 0.01974 -0.074304 -0.11343 0.049335 0.073504 -0.30876 
0.069393 -0.21274 0.26192 -0.023007 -0.066906 0.070051 0.083533 0.12825 
0.059364 -0.25532 0.4288 0.0056006 -0.069536 0.046211 0.059364 0.3073 
0.047855 -0.22014 0.46432 0.026974 -0.04619 0.058213 0.052294 0.31141 
-0.023336 -0.11294 0.33196 0.061995 -0.015773 0.027961 0.046211 0.21704 
-0.077757 0.065447 0.15686 0.10392 -0.0055795 0.029276 0.075312 0.14765 
-0.07414 0.18958 0.024837 0.079587 -0.0057439 0.027796 0.033222 0.084026 
-0.058028 0.22937 -0.033365 0.065612 -0.018075 0.01415 0.010697 0.10195 
-0.092226 0.21885 -0.1011 0.061008 -0.029091 -0.00064712 0.0031344 0.13549 
-0.079237 0.19994 -0.17262 0.022864 -0.059014 -0.0080457 0.0018191 0.15456 
-0.012978 0.17692 -0.24579 -0.015938 -0.081045 -0.0059084 -0.0054151 0.075148 
0.06331 0.13467 -0.098967 -0.015773 -0.064275 -0.0078813 -0.032708 -0.0039354 
0.14108 0.039634 0.16738 -0.011334 -0.10538 -0.021034 -0.059178 -0.13366 
0.1858 -0.014787 0.16886 -0.059014 -0.13826 -0.083512 -0.092883 -0.19235 
0.24778 0.019247 -0.17493 -0.0011404 -0.09091 -0.035338 -0.078086 -0.27966 
0.33394 0.079587 -0.35841 0.069886 -0.056055 0.011684 -0.048327 -0.27867 
0.35054 0.083204 -0.20156 0.046046 -0.047012 0.01974 -0.048163 -0.15257 
0.21885 0.019247 -0.010512 0.063145 -0.023665 0.043745 0.042758 0.038319 
-0.033201 -0.017582 -0.080717 0.12003 0.017438 0.058377 0.15045 0.14733 
-0.21554 0.097344 -0.19466 0.12365 0.014315 0.064461 0.21112 0.16097 
-0.22162 0.14963 -0.21323 0.052294 -0.018239 0.059035 0.18251 0.1197 
-0.16111 0.15489 -0.23987 0.054925 -0.003771 0.03536 0.071037 0.064461 
-0.079401 0.083697 -0.11508 0.055418 -0.037311 0.0046141 -0.028926 0.12414 
-0.018239 0.03651 0.17659 -0.014787 -0.076442 -0.028597 -0.086964 0.10524 
0.043745 -0.06 0.23825 -0.035174 -0.09239 -0.013965 -0.094692 0.038812 
0.066105 -0.072332 0.09981 0.0227 -0.066577 0.021549 -0.037476 -0.065097 
0.058706 -0.018239 0.012835 0.034373 -0.03912 0.030592 -0.013636 -0.084663 
0.067091 0.02681 -0.016924 0.0786 -0.0042642 0.05065 -0.033037 -0.14763 
0.073668 0.0083956 -0.096829 0.13861 0.038812 0.039963 -0.049314 -0.1427 
0.04095 0.044238 -0.11064 0.15357 0.023851 0.025659 -0.044874 -0.039778 
0.014479 0.097508 -0.097158 0.1562 0.023522 0.033058 -0.00064712 0.094055 
-0.0036066 0.11872 0.05065 0.14502 0.027468 0.030756 0.028619 0.12497 
0.013164 0.080244 0.25469 0.092411 -0.03353 0.015794 0.052294 0.085177 
0.023686 0.060186 0.14469 0.043251 -0.064768 0.023522 0.065612 0.084848 
0.03092 0.058706 -0.14073 0.072846 -0.035174 0.046211 0.090109 0.045389 
0.060844 0.037168 -0.29676 0.10622 -0.017417 0.042758 0.084519 -0.057041 
0.097344 -0.049642 -0.17953 0.049006 -0.042573 0.014315 0.041114 -0.34312 
0.17281 -0.056548 -0.031557 0.0067515 -0.069372 -0.0090322 0.021713 -0.39425 
0.27869 0.0047785 0.034209 -0.0050863 -0.065919 -0.0082102 0.045224 -0.10521 
0.34018 0.051636 0.22115 -0.008539 -0.088937 0.0082312 0.066105 0.07301 
0.1904 0.044073 0.293 0.0039565 -0.071181 0.026481 0.10162 0.073339 
-0.0019624 0.055911 0.11461 0.00017495 -0.062302 0.019576 0.14272 0.22444 
-0.11163 0.070873 -0.095678 0.03388 -0.060823 0.03947 0.069886 0.35514 
-0.14369 0.08419 -0.31583 0.063474 -0.031721 0.078765 -0.00064712 0.29037 
-0.14106 0.061666 -0.44571 0.13499 0.018589 0.12118 -0.030899 0.15226 
-0.10752 0.035524 -0.22852 0.1756 0.044731 0.09126 0.013986 0.090438 
-0.06148 0.00297 0.25995 0.10277 -0.0052507 0.052294 0.058213 0.077778 
-0.028926 -0.059014 0.59453 0.0026412 -0.066741 0.007738 0.039799 0.055089 
0.011026 -0.09798 0.70058 -0.028762 -0.076277 0.014643 0.0018191 0.043251 
0.0018191 -0.051287 0.65043 -0.038956 -0.10719 0.0072447 -0.021692 0.037168 
-0.0078813 0.036182 0.35136 -0.069865 -0.12297 -0.00064712 0.037168 0.053445 
0.11905 0.066269 0.11937 -0.094199 -0.13662 -0.0032777 0.088465 0.0018191 
0.22641 0.060515 0.04917 -0.11771 -0.14928 0.0018191 0.11921 -0.0027845 
0.24992 0.085506 0.13401 -0.16555 -0.16358 0.017767 0.10967 -0.046519 
0.13105 -0.0040998 0.18465 -0.1404 -0.15191 0.011191 0.097015 -0.037969 
0.069064 -0.034188 -0.13793 -0.083676 -0.10834 0.016781 0.03947 -0.10143 
0.018096 0.010533 -0.39195 -0.0068948 -0.069865 0.019576 -0.042244 -0.10571 
-0.030406 0.1202 -0.58366 0.057555 -0.028762 0.02533 -0.069043 -0.034188 
-0.069372 0.19862 -0.58004 0.071695 -0.0034422 0.033222 -0.045368 0.030427 
-0.072167 0.1904 -0.33885 0.086163 -0.043066 0.01826 0.027961 0.090109 
-0.07003 0.077614 0.19566 -0.00064712 -0.079401 0.01004 0.070051 0.15982 
-0.05589 -0.021034 0.63268 0.035195 -0.053753 0.013328 0.071202 0.17248 
-0.064604 0.043745 0.62117 0.087808 -0.030406 0.011191 0.067256 0.12283 
-0.023172 0.082217 0.47434 0.030756 -0.049807 0.028125 0.074819 0.040621 
0.01563 0.024508 0.30368 0.010533 -0.060987 0.019247 0.063968 -0.010676 
0.042594 -0.025638 0.23019 0.04917 -0.042408 0.033058 0.053774 0.051472 
0.026646 0.03092 0.17955 0.069064 -0.023336 0.034209 0.041443 0.087808 
-0.0021268 0.13664 0.042429 0.077778 -0.010348 0.079094 0.034866 0.11559 
-0.058521 0.21769 -0.16144 0.08567 0.020727 0.06183 0.060022 0.17462 
-0.044546 0.17429 -0.31155 0.051472 -0.033201 0.018918 0.034209 0.2052 
0.036839 0.0067515 -0.20649 -0.004593 -0.081868 -0.047505 -0.1284 0.073175 
0.11378 -0.14714 -0.021363 -0.065919 -0.12281 -0.078744 -0.23642 -0.08121 
0.13828 -0.20567 -0.0088678 -0.040435 -0.11097 -0.047176 -0.22145 -0.20995 
0.16623 -0.28492 -0.12642 -0.076935 -0.12692 -0.025145 -0.15076 -0.20764 
0.27951 -0.40626 0.0092177 -0.1473 -0.16227 -0.031064 -0.075949 -0.12116 
0.30894 -0.3224 0.20043 -0.085156 -0.12248 -0.02235 0.012342 -0.001798 
0.1105 -0.07003 0.36106 -0.057041 -0.10061 0.041278 0.16229 0.17873 
-0.096994 0.19714 0.3877 -0.025802 -0.060987 0.11822 0.18037 0.26817 
-0.23822 0.40134 0.22756 0.013657 -0.018897 0.11378 0.12727 0.20619 
-0.30268 0.47319 0.043416 0.093069 -0.0019624 0.11559 0.15275 0.10655 
-0.21784 0.34906 -0.13448 0.12727 0.020069 0.097179 0.28823 0.049335 
-0.073647 0.17034 -0.25697 0.14913 0.028125 0.07038 0.41302 -0.11985 
0.028947 0.12447 -0.32092 0.16738 0.027468 0.061501 0.44557 -0.16309 
0.071695 0.13762 -0.43289 0.15226 0.021878 0.031249 0.27886 -0.068386 
0.071695 0.15423 -0.54897 0.17363 0.037168 0.019083 -0.026789 0.083204 
0.095699 0.12135 -0.58612 0.18021 0.064625 0.01415 -0.26009 0.14798 
0.10376 0.088465 -0.61654 0.16146 0.031249 0.0090533 -0.27456 0.15719 
0.080573 0.04917 -0.38126 0.10491 -0.0032777 -0.021856 -0.23395 0.13878 
0.0064227 -0.038462 0.087972 -0.00015387 -0.07003 -0.044546 -0.17739 0.13615 
-0.030899 -0.10702 0.53386 -0.031557 -0.10867 -0.030735 -0.12001 0.10392 
-0.065591 -0.15224 0.86302 -0.073482 -0.12626 -0.035174 -0.05885 0.057391 
-0.010676 -0.25039 1.0412 -0.095678 -0.13711 -0.015116 -0.013636 -0.035996 
0.077778 -0.255 0.80005 -0.045532 -0.11475 -0.027118 0.047526 -0.096336 
0.12595 -0.12494 0.33213 -0.0004827 -0.085813 0.00033937 0.023193 -0.18101 
0.16821 0.094548 -0.1695 0.057884 -0.027775 0.024179 0.031742 -0.18495 
0.15571 0.16064 -0.35414 0.013492 -0.025309 0.046375 0.10869 -0.13218 
0.10524 0.18991 -0.30284 0.047033 -0.031721 0.060022 0.095535 -0.050793 
0.064296 0.19862 -0.14418 0.065612 -0.018733 0.063803 0.092411 0.084355 
0.0016547 0.16886 -0.17427 0.098166 0.0021479 0.085177 0.10063 0.12694 
-0.060658 0.1202 -0.46298 0.10556 0.00066819 0.060679 0.11263 0.13795 
-0.092554 0.14239 -0.59665 0.078765 -0.0027845 0.053938 0.11033 0.10293 
-0.068386 0.11543 -0.40626 0.065283 -0.0083746 0.058377 0.072024 0.096686 
-0.019884 0.02533 -0.052602 0.10408 0.013986 0.066598 0.050814 0.041114 
0.04506 -0.046847 0.37915 0.076299 -0.016431 0.04506 0.043251 0.028783 
0.091096 -0.05326 0.51101 0.0083956 -0.061316 0.025988 0.064132 0.12217 
0.11083 -0.10291 0.47747 -0.01232 -0.064768 0.025166 0.065447 0.17708 
0.096193 -0.066413 0.62117 0.0227 -0.070852 0.02681 0.04506 0.13039 
0.071859 0.026646 0.73396 0.0070803 -0.065591 0.0019835 0.011848 0.059693 
0.0079024 0.089616 0.58976 -0.015116 -0.079401 0.0069159 0.009711 -0.03764 
0.021384 0.092247 0.27853 -0.05441 -0.10094 0.0019835 -0.010512 -0.19597 
0.030592 0.03092 -0.069536 -0.090253 -0.13053 -0.00064712 -0.043888 -0.45985 
0.029769 0.096028 -0.38669 -0.061645 -0.1182 -0.018568 -0.060987 -0.50803 
-0.036818 0.12628 -0.45114 -0.031721 -0.099295 -0.0059084 -0.05326 -0.15109 
-0.072003 0.12875 -0.32109 -0.048985 -0.11245 -0.0080457 -0.025309 0.15719 
-0.048985 0.16771 -0.27999 -0.053588 -0.1039 0.00033937 -0.025145 0.26422 
-0.022843 0.23463 -0.39014 0.013821 -0.039613 0.021549 -0.05441 0.21227 
-0.084663 0.26768 -0.34131 0.13056 0.0034632 0.035688 -0.048985 0.18037 
-0.062138 0.24844 -0.18824 0.15949 0.034537 0.041114 0.01152 0.066269 
0.012506 0.18317 -0.10308 0.13138 0.013328 0.042429 0.046704 0.025824 
-0.020212 0.083368 0.0062583 0.11411 -0.0077169 0.038319 0.069722 0.12069 
-0.05441 0.018754 0.11937 0.074161 -0.02646 0.049828 0.076627 0.2828 
-0.059014 -0.037476 0.20865 -0.0022913 -0.068221 -0.0073881 0.052623 0.30286 
-0.010348 -0.073976 0.54192 -0.038956 -0.083512 -0.024158 0.046868 0.20339 
0.037004 -0.13267 0.95411 -0.069701 -0.11853 -0.019719 0.022371 0.058871 
0.090931 -0.12511 0.86845 -0.050793 -0.10094 0.018754 -0.010183 -0.071181 
0.15719 -0.024323 0.46021 -0.036818 -0.075784 0.019576 -0.049807 -0.20271 
0.26883 -0.037476 0.19369 -0.0059084 -0.082854 0.0032988 -0.07414 -0.36565 
0.39329 -0.095678 0.096686 -0.053588 -0.10291 -0.0026201 -0.021692 -0.36236 
0.39937 -0.063289 -0.11541 -0.059343 -0.11245 0.0056006 0.026481 -0.26437 
0.17544 0.067091 -0.43634 -0.0016336 -0.075291 0.016288 0.073175 -0.096172 
-0.11163 0.15604 -0.53318 0.042265 -0.053424 0.021549 0.072846 0.088136 
-0.25023 0.14749 -0.36992 0.091753 -0.015938 0.015465 0.067749 0.3586 
-0.2208 0.12085 -0.18002 0.09126 0.012835 -0.018239 -0.07973 0.40315 
-0.14582 0.11477 -0.093705 0.12168 -0.0026201 0.013657 -0.040764 0.34084 
-0.087951 0.095371 -0.047176 0.1179 0.004943 0.070873 -0.08532 0.1151 
-0.006566 0.080409 -0.021528 0.14075 0.021878 0.048348 -0.011663 -0.05589 
0.021878 0.012342 0.10803 0.19616 0.019083 0.016616 -0.011334 -0.18298 
0.012506 -0.01232 0.23808 0.10655 -0.020541 0.024179 -0.019061 -0.17854 
0.01711 0.0046141 0.34643 0.057227 -0.041586 0.030263 -0.022843 -0.070359 
0.029934 0.03651 0.45429 -0.0062372 -0.067892 0.055747 -0.017911 0.049664 
0.066269 0.10047 0.43275 -0.10193 -0.13168 -0.0047575 0.037168 0.082382 
0.098166 0.15637 0.087643 -0.1746 -0.17394 -0.00097594 0.08419 0.1197 
0.069393 0.16985 -0.55258 -0.19268 -0.16111 0.00066819 0.13072 0.11165 
0.0786 0.1493 -0.936 -0.10932 -0.1376 0.030427 0.20355 0.080244 
0.088301 0.11543 -0.7969 -0.031886 -0.079401 0.029276 0.22033 0.058377 
0.083862 0.10639 -0.45591 0.083533 -0.010512 0.028783 0.14256 0.036346 
0.051143 0.078107 -0.040435 0.20306 0.050321 0.040128 0.026646 0.037826 
0.047855 -0.035832 0.43719 0.17725 0.044731 0.051801 -0.041422 0.0227 
0.047197 -0.1672 0.83606 0.11033 -0.0031133 0.059528 0.0051074 0.045389 
0.076792 -0.21554 0.75253 0.059035 -0.028597 0.058706 0.11724 0.02122 
0.049335 -0.15618 0.30483 0.0227 -0.081374 0.025495 0.15094 0.066269 
-0.057534 -0.059178 0.014808 0.024508 -0.060165 0.00099702 0.11165 0.19353 
-0.086636 -0.0072237 0.030263 0.047033 -0.03501 -0.012814 -0.014622 0.26159 
-0.067564 -0.026296 0.087314 0.050157 -0.050136 0.0032988 -0.11985 0.14206 
-0.016924 -0.0080457 -0.040928 0.025166 -0.059343 0.02681 -0.097158 0.066598 
0.0075736 0.070708 -0.28179 0.031907 -0.055726 0.013986 -0.041257 -0.023007 
0.058377 0.15407 -0.40823 0.079094 -0.031886 0.020233 -0.0047575 -0.1455 
0.11707 0.15555 -0.39179 0.070873 -0.017582 0.019247 0.04095 -0.23822 
0.2491 0.087643 -0.29018 0.055254 -0.022843 0.038155 0.0065871 -0.30958 
0.3678 0.04917 -0.28886 0.047526 -0.025145 0.025988 -0.013965 -0.20304 
0.24647 0.11559 -0.16555 0.046046 -0.043888 0.039634 0.051143 0.047691 
-0.036983 0.18991 0.14667 0.010697 -0.055726 0.04917 0.14552 0.33953 
-0.21702 0.11707 0.33673 0.0047785 -0.04619 0.072188 0.17824 0.34429 
-0.17805 -0.072003 0.54044 0.068407 -0.047834 0.042758 0.13384 0.20208 
-0.066741 -0.20501 0.58746 0.01563 -0.069208 0.016288 0.071695 0.080244 
-0.0098543 -0.18512 0.35268 -0.054904 -0.10768 0.0079024 0.060022 0.052459 
-0.0096899 -0.019226 0.1197 -0.068879 -0.11113 0.0059294 0.062817 0.012835 
-0.0040998 0.088136 -0.051944 -0.038298 -0.083018 0.057062 0.047033 0.0026412 
0.010369 0.12151 -0.12725 0.039963 -0.032708 0.040456 -0.00081153 -0.016595 
0.015959 0.08978 -0.10275 0.097344 0.026317 0.036182 -0.008539 -0.05178 
0.035688 0.11247 -0.015116 0.11099 0.00297 0.030427 -0.022021 -0.046354 
0.028619 0.15341 -0.12494 0.080573 -0.021034 0.0098754 -0.022514 -0.070687 
0.043251 0.19057 -0.27111 0.041278 -0.04471 0.067913 0.0056006 -0.031721 
0.05624 0.13368 -0.23198 -0.010512 -0.092226 -0.012156 -0.032215 -0.019555 
0.083368 0.037004 -0.092554 0.0070803 -0.076277 0.005765 -0.016431 0.064954 
0.053281 0.0024767 -0.018568 0.02681 -0.061316 0.0047785 0.020727 0.093233 
0.054267 -0.036818 -0.071016 0.084355 -0.017582 0.032729 0.016945 0.038812 
0.04506 -0.13547 -0.11393 0.076956 -0.035996 0.028454 -0.028104 -0.034845 
-0.011992 -0.14122 -0.1644 0.096357 -0.014622 0.036182 0.039141 0.10967 
-0.099131 0.028454 0.017274 0.085506 0.0037921 0.029769 0.061172 0.2006 
-0.10768 0.19961 0.32555 0.024673 -0.056877 0.026317 0.095206 0.19665 
-0.065426 0.14996 0.44903 -0.04323 -0.089595 0.035853 0.035853 0.11921 
-0.023994 0.073504 0.44771 -0.061151 -0.096829 0.01415 -0.045861 0.047691 
-0.031886 0.12957 0.28116 -0.035832 -0.090088 0.0047785 -0.049149 0.03092 
-0.00015387 0.18777 -0.0022913 -0.020048 -0.074633 0.0052718 -0.035503 -0.067892 
0.056898 0.14387 -0.13481 0.037168 -0.0503 -0.0060728 -0.019555 -0.29626 
0.10293 0.059035 -0.12757 0.063968 -0.025474 0.0070803 0.01152 -0.32652 
0.065776 1.0539e-005 -0.031392 0.094877 -0.024323 0.03536 0.054103 -0.062796 
0.1294 0.00050378 -0.073318 0.088958 -0.010348 0.039799 0.071531 0.11231 
0.14634 0.015301 -0.25565 0.04506 -0.013471 0.031249 0.10606 0.17001 
0.1761 -0.02087 -0.19235 0.029769 -0.073482 0.013821 0.091753 0.14289 
0.13878 -0.18019 0.10343 -0.048163 -0.11228 0.014479 0.046046 0.13467 
0.082053 -0.23165 0.30862 -0.037476 -0.10702 -0.0070593 1.0539e-005 0.077449 
0.023522 -0.17739 0.32423 0.023357 -0.075291 -0.021199 -0.028433 0.070544 
-0.033694 -0.11376 0.11658 -0.0090322 -0.085485 -0.025145 -0.023665 0.068407 
-0.059178 0.061666 -0.077757 0.025495 -0.06148 -0.00097594 -0.043724 0.072846 
-0.093212 0.2657 0.12924 0.080573 -0.017911 0.018918 -0.078744 -0.039942 
-0.092061 0.37257 0.30697 0.072681 -0.027775 0.014315 -0.021528 -0.080881 
-0.083183 0.42551 0.12332 -0.0080457 -0.06444 0.050157 0.057227 -0.039284 
-0.063289 0.33903 -0.17476 0.0037921 -0.042408 0.071531 0.081067 0.029769 
-0.023665 0.18202 -0.20304 0.027139 -0.045203 0.082546 0.089452 0.030263 
0.033715 -0.013965 -0.10867 0.016616 -0.041586 0.060186 0.10556 0.037497 
0.049664 -0.11376 0.18399 -0.025309 -0.070523 0.0227 0.13894 0.096193 
0.073504 -0.19548 0.69959 -0.017582 -0.085156 0.0044497 0.1562 0.12546 
0.076463 -0.25401 0.58105 -0.038133 -0.10242 -0.017746 0.080902 0.1465 
0.076627 -0.18512 0.18251 -0.0036066 -0.087129 -0.011663 -0.028433 0.085999 
0.061172 -0.051944 0.061501 0.044073 -0.044052 0.0032988 -0.1136 0.026481 
0.075805 0.025001 0.059528 0.056898 -0.050629 -0.015444 -0.1085 -0.040106 
0.14371 -0.027282 0.061995 0.029769 -0.063453 -0.0022913 -0.10998 -0.095349 
0.22444 -0.065426 0.0026412 0.004943 -0.080223 -0.013471 -0.097816 -0.24809 
0.23364 -0.00015387 -0.070852 0.026481 -0.07266 0.022371 -0.029091 -0.30481 
0.14667 0.082053 -0.067892 -0.020048 -0.082196 0.033715 0.082875 -0.16457 
0.050321 0.085835 0.033715 -0.06148 -0.10012 0.035195 0.21062 0.092411 
-0.019226 0.1026 0.0054362 -0.049478 -0.1256 0.064296 0.23512 0.22444 
-0.049642 0.1373 -0.27736 -0.088115 -0.11837 0.046211 0.13697 0.21769 
-0.018568 0.16064 -0.35956 -0.0070593 -0.060823 0.024344 0.035524 0.16278 
0.0090533 0.072024 -0.18709 0.083533 0.01004 0.020562 -0.01528 0.004943 
0.029441 -0.042901 0.061501 0.13467 0.0056006 0.0079024 -0.07562 -0.043066 
0.014315 -0.040435 0.24614 0.13171 0.011026 0.024344 -0.059836 -0.0062372 
0.0018191 0.02122 0.28165 0.13253 0.017932 0.045882 -0.021199 0.11543 
-0.03616 0.073175 0.31256 0.14667 0.016123 0.043251 0.0082312 0.21983 
-0.023665 0.055582 0.53008 0.074983 -0.012649 0.037168 0.037004 0.21293 
0.020233 0.043909 0.72097 0.010204 -0.05885 0.023028 0.019411 0.092411 
0.0047785 0.048019 0.55507 -0.020377 -0.074962 0.037661 0.0019835 0.015465 
-0.045368 0.034702 0.0054362 -0.045532 -0.10094 0.076956 0.014479 -0.033037 
-0.074469 0.1003 -0.42335 -0.066741 -0.10867 0.034044 0.042758 0.029934 
-0.056877 0.11148 -0.3931 -0.057205 -0.089595 0.019576 0.082382 0.090931 
0.025659 0.13943 -0.19466 -0.0138 -0.0965 0.0098754 0.093562 0.07301 
0.08567 0.18711 -0.17082 0.057884 -0.025309 0.0079024 0.10819 0.040292 
0.15604 0.15259 -0.20288 0.11395 0.01563 0.048348 0.066598 -0.032708 
0.27064 0.036346 -0.19498 0.15061 0.022042 0.037168 0.034209 -0.21685 
0.414 0.05772 -0.1547 0.081889 -0.018733 0.0014903 -0.033037 -0.4301 
0.42486 0.15571 -0.3492 0.0067515 -0.059014 0.014972 -0.050793 -0.45394 
0.20931 0.20635 -0.54979 -0.072825 -0.10357 0.036839 -0.036983 -0.18857 
-0.084498 0.19418 -0.44555 -0.085813 -0.11574 0.040621 0.044567 0.22296 
-0.20616 0.13516 -0.068386 0.044238 -0.038627 0.03388 0.085012 0.463 
-0.16358 -0.034516 0.4242 0.11674 0.014643 0.027796 0.055911 0.48207 
-0.050136 -0.26239 0.78279 0.10425 -0.017746 -0.023665 0.02122 0.35514 
0.076627 -0.38439 0.60637 0.041936 -0.049971 0.0019835 -0.023336 0.16886 
0.15818 -0.28212 0.065612 0.084684 -0.025309 0.01267 -0.046847 -0.079566 
0.19665 -0.157 -0.291 0.12562 -0.0072237 0.03536 -0.060658 -0.21652 
0.1613 -0.011005 -0.33079 0.098659 -0.021199 0.014315 -0.077264 -0.27045 
0.0051074 0.16985 -0.20781 0.058542 -0.037147 0.010533 -0.06296 -0.24529 
-0.11245 0.39608 -0.087458 0.051636 -0.021856 0.027468 -0.010019 -0.16243 
-0.16259 0.45609 -0.00081153 0.047526 -0.053753 0.023028 0.022371 0.12792 
-0.13004 0.40743 0.074326 0.039799 -0.043888 0.048841 0.062817 0.35202 
-0.071838 0.28001 0.26685 0.061008 -0.026953 0.035031 0.10228 0.38474 
-0.010676 0.15127 0.30155 0.079422 -0.028597 0.029112 0.18514 0.35547 
0.0023123 0.078765 -0.020706 0.043251 -0.033201 0.071366 0.23759 0.27425 
0.048841 0.057555 -0.42352 0.038648 -0.035667 0.052787 0.18646 0.11691 
0.12118 0.022535 -0.44983 0.027139 -0.053917 0.025495 0.069722 -0.069701 
0.17758 -0.031064 -0.36828 -0.023994 -0.084991 -0.0024557 -0.010019 -0.17114 
0.20355 -0.054246 -0.26979 -0.030899 -0.086307 0.00083261 -0.042737 -0.20945 
0.14963 -0.05326 -0.15848 0.041278 -0.043888 -0.020706 -0.091239 -0.21307 
0.088301 -0.046354 -0.014622 0.061666 -0.048656 -0.0059084 -0.087622 -0.13415 
0.037332 -0.0095255 0.13894 0.020233 -0.078086 0.014315 -0.039942 -0.015444 
0.01974 -0.023994 0.41548 0.01826 -0.065262 -0.0024557 0.025659 0.064461 
0.03092 -0.075784 0.67082 0.073339 -0.043888 0.036346 0.082711 0.15127 
0.0021479 -0.047998 0.49473 0.097015 -0.013965 0.036839 0.09685 0.17593 
-0.012978 0.025495 0.014972 0.10491 -0.0029489 0.027468 0.05624 0.19139 
-0.010348 0.091589 -0.35989 0.099481 -0.014622 0.0016547 0.0065871 0.18448 
0.018754 0.14321 -0.46035 0.037826 -0.05885 -0.016924 -0.031064 0.066105 
0.077285 0.1271 -0.38209 0.00297 -0.076113 0.0080668 -0.056548 -0.099953 
0.096193 0.021878 -0.22047 -0.028269 -0.070852 0.005765 -0.0034422 -0.12823 
0.06742 -0.033037 -0.23329 0.01004 -0.074633 0.042758 0.065612 0.0072447 
0.036017 -0.017582 -0.376 0.05213 -0.027118 0.062323 0.10852 0.10178 
-0.0026201 0.077285 -0.26535 0.087972 0.00083261 0.065447 0.10145 0.1105 
-0.017253 0.10491 0.077285 0.068571 -0.025474 0.058377 0.073668 0.061501 
-0.0016336 0.10704 0.43538 -0.032872 -0.08532 0.024015 0.029112 0.04654 
-0.02942 0.14535 0.52301 -0.023501 -0.082032 -0.0070593 0.03799 0.032236 
-0.053424 0.21474 0.5919 0.034702 -0.049971 0.0069159 0.057555 0.030427 
-0.06296 0.12727 1.0179 0.071202 -0.049478 0.019576 0.053609 0.039799 
-0.040435 -0.010841 1.2085 0.057391 -0.042244 0.01826 0.036182 0.042594 
-0.011992 -0.088115 0.97482 -0.037805 -0.069865 0.0046141 -0.0036066 -0.0091966 
0.072024 -0.11442 0.51791 -0.080059 -0.12626 -0.023007 -0.044217 -0.029913 
0.11148 -0.13415 -0.27407 -0.092226 -0.11837 -0.0034422 -0.016595 0.0088889 
0.072681 -0.10505 -0.76599 0.0090533 -0.060658 0.039634 0.020562 0.061666 
0.045389 -0.081045 -0.70795 0.084026 -0.025802 0.043087 0.046868 0.082875 
0.061337 0.0032988 -0.48945 0.059693 -0.028433 0.035853 0.086821 0.12036 
0.0032988 0.11378 -0.38258 0.048348 -0.037476 0.022206 0.096686 0.1345 
-0.034516 0.27754 -0.28245 0.051801 -0.031392 0.036839 0.058213 0.068571 
-0.033201 0.2948 -0.19235 0.063145 -0.037311 0.044073 0.030263 -0.045203 
-0.0055795 0.2389 -0.040106 0.086328 -0.006566 0.046046 0.0037921 -0.1672 
0.038812 0.1077 0.27968 0.061501 -0.0011404 0.040128 -0.013636 -0.17756 
0.075148 0.0093821 0.43193 0.088794 -0.016924 0.0052718 0.00050378 -0.10406 
0.077943 -0.1085 0.38326 0.052952 -0.035174 0.023357 -0.013965 0.015959 
0.073339 -0.13908 0.32571 0.024344 -0.052931 0.023686 -0.015609 0.083368 
0.069886 -0.17608 0.37191 0.0592 -0.044052 0.013492 0.011684 0.11198 
0.067585 -0.17065 0.4676 0.067913 -0.024816 0.0093821 0.016616 0.074654 
0.018096 -0.15487 0.72919 0.1077 -0.0044286 0.004943 0.0072447 0.048019 
-0.0055795 -0.10752 0.99209 0.069722 -0.016431 0.025824 0.018754 0.0013258 
-0.022514 -0.016595 0.67394 -0.00015387 -0.089431 0.042923 0.039799 -0.025309 
0.004943 0.093069 0.061337 -0.1307 -0.15668 0.010369 0.054925 -0.031721 
0.016452 0.15078 -0.54157 -0.22885 -0.19761 -0.0503 0.051308 -0.01528 
0.0080668 0.13828 -0.72242 -0.19301 -0.20205 -0.030077 -0.031886 -0.018568 
0.0032988 0.087808 -0.65057 -0.1108 -0.1358 0.011355 -0.063453 -0.028269 
0.057555 0.044896 -0.5322 -0.017746 -0.067564 -0.0067304 -0.076442 -0.00064712 
0.09981 0.063968 -0.25434 0.051965 -0.045861 0.012342 -0.04619 -0.020212 
0.080409 0.094055 -0.056383 0.064296 -0.02646 0.0056006 -0.030406 -0.026624 
0.0037921 0.10211 0.055911 0.082711 -0.01117 0.029605 0.016616 -0.033037 
-0.016924 0.063145 0.22345 0.087808 0.021713 0.064461 0.043087 -0.02646 
0.053281 0.034702 0.33607 0.10244 -0.0011404 0.061172 0.038319 -0.041751 
0.17807 0.11461 0.047033 0.083533 -0.0083746 0.052623 0.083368 0.057062 
0.18728 0.18859 -0.29199 0.064625 -0.014622 0.055254 0.23085 0.17807 
0.014643 0.16294 -0.39113 0.077614 -0.018568 0.065447 0.31667 0.30566 
-0.10932 0.060515 -0.14155 0.058871 -0.019226 0.079751 0.24367 0.31832 
-0.10867 -0.10094 0.18267 0.033715 -0.047176 0.026152 0.1807 0.25304 
-0.046847 -0.1381 0.28806 -0.014129 -0.094692 -0.049642 0.087808 0.1562 
0.070051 -0.086307 0.25847 -0.0868 -0.14385 -0.055726 -0.047669 -0.0868 
0.171 -0.14336 0.33459 -0.12429 -0.16572 -0.046354 -0.17789 -0.34805 
0.17856 -0.4296 0.63892 -0.1358 -0.15372 -0.033859 -0.16309 -0.24858 
0.11017 -0.46166 0.65093 -0.079895 -0.12692 -0.0059084 -0.086964 0.1054 
0.023686 -0.1792 0.24597 0.01974 -0.06148 0.040621 -0.029584 0.19303 
-0.015609 0.17593 -0.28492 0.10228 1.0539e-005 0.086328 0.033551 0.082875 
-0.027611 0.35514 -0.68411 0.10096 0.0026412 0.093069 0.11658 -0.020377 
-0.013965 0.42486 -0.8168 0.025988 -0.035832 0.078107 0.1077 -0.0019624 
0.00297 0.3757 -0.67162 0.012506 -0.0503 0.041278 0.060844 0.0070803 
0.038977 0.24038 -0.33063 0.067749 -0.025309 0.03388 0.078436 0.032071 
0.066763 0.15472 -0.091239 0.08304 -0.014622 0.034702 0.08304 0.010204 
0.05065 0.17643 -0.056548 0.10343 -0.0050863 0.036675 0.08304 0.0037921 
0.027139 0.23578 -0.18101 0.094055 0.0031344 0.023522 0.056404 0.0044497 
0.01267 0.3027 -0.48813 0.090109 -0.039942 -0.015444 0.0044497 0.024344 
0.023357 0.31141 -0.61884 0.033058 -0.075949 -0.041257 0.0036276 0.013492 
0.044073 0.22641 -0.39672 -0.012814 -0.093376 -0.011334 0.014643 0.03092 
0.024344 0.097837 0.0786 0.050814 -0.056219 0.026646 0.043087 0.15768 
0.010369 -0.042079 0.45609 0.063968 -0.028269 0.04917 0.056733 0.24844 
0.0044497 -0.14878 0.54504 0.039634 -0.032379 0.046211 0.047362 0.25469 
-0.0032777 -0.18134 0.42584 -0.043559 -0.090088 0.01563 0.0024767 0.16196 
0.053609 -0.31155 0.41779 -0.14139 -0.16703 -0.0091966 -0.027118 0.020069 
0.12365 -0.42286 0.50986 -0.16227 -0.17904 -0.012485 -0.03057 -0.14106 
0.11033 -0.35841 0.22279 -0.10784 -0.11639 0.01267 -0.0087034 -0.19975 
0.031414 -0.13612 -0.18874 0.0024767 -0.077428 0.032564 0.05213 -0.11524 
0.00050378 0.11905 -0.38439 0.065118 -0.022843 0.040128 0.055911 -0.045039 
0.043416 0.29892 -0.31418 0.13713 0.020562 0.035524 0.019411 -0.12445 
0.097179 0.31453 -0.1598 0.18399 0.038812 0.012506 -0.038956 -0.12725 
0.15357 0.27179 -0.12067 0.14469 0.027468 0.031249 -0.057534 0.057391 
0.11625 0.20076 -0.10176 0.14963 0.040456 0.072353 0.020069 0.16179 
-0.071345 0.23414 -0.011334 0.09833 0.023851 0.081724 0.063803 0.040128 
-0.16523 0.24614 0.063145 0.035853 -0.030242 0.085835 0.068078 -0.041257 
-0.19285 0.19451 0.063145 0.022371 -0.058028 0.051636 0.069722 0.15209 
-0.13711 0.063474 -0.031228 0.0227 -0.054739 0.0041209 0.061008 0.33147 
-0.083347 -0.1108 0.01152 0.0592 -0.059507 0.0024767 0.022864 0.37767 
-0.018897 -0.26667 0.15686 0.035853 -0.052931 -0.01676 -0.0036066 0.22345 
0.032236 -0.17575 0.23101 0.026481 -0.05589 0.0042853 -0.07414 0.030592 
0.0074092 0.034702 0.1835 -0.022843 -0.089595 0.0013258 -0.097158 -0.13119 
0.020069 0.19731 0.043087 -0.068386 -0.1159 -0.0040998 -0.12215 -0.21817 
0.12973 0.21178 -0.063946 -0.05178 -0.096994 -0.012485 -0.11804 -0.32553 
0.31388 0.17281 -0.30827 0.051143 -0.031721 -0.0036066 -0.12478 -0.42681 
0.40496 0.1151 -0.5733 0.12414 0.0042853 0.022864 -0.095678 -0.39327 
0.37372 0.043087 -0.56623 0.15752 0.030592 0.017603 -0.0096899 -0.13678 
0.12414 -0.0050863 -0.23576 0.17314 0.06183 0.047197 0.049335 0.16738 
-0.17016 -0.027611 0.23183 0.18004 0.04095 0.056733 0.076627 0.34347 
-0.28278 -0.061316 0.78164 0.1465 0.020562 0.034537 0.10408 0.39378 
-0.2619 -0.15125 1.2086 0.09981 -0.004593 0.050157 0.16558 0.37422 
-0.19186 -0.22261 1.2706 0.13434 -0.0064016 0.04358 0.21753 0.2366 
-0.068057 -0.21521 1.5227 0.057884 -0.042079 0.027632 0.21687 0.081067 
0.07038 -0.088773 1.3528 -0.047505 -0.11294 0.01152 0.12842 0.013328 
0.18859 0.16426 0.44639 -0.12494 -0.14632 -0.011334 -0.0088678 -0.12034 
0.21802 0.31585 -0.57346 -0.17443 -0.20173 -0.030735 -0.075127 -0.1746 
0.1442 0.3216 -1.0422 -0.24727 -0.22524 -0.031721 -0.050958 -0.038791 
0.051965 0.2782 -1.0517 -0.19975 -0.18019 -0.011005 0.028125 0.2953 
0.041607 0.11181 -0.93123 -0.065755 -0.11212 0.035688 0.019576 0.28658 
0.035195 -0.051451 -0.48912 0.038812 -0.033037 0.041936 -0.0022913 0.031249 
-0.027611 -0.23527 0.11872 0.13779 0.029934 0.043087 -0.010183 -0.076277 
-0.10258 -0.24645 0.45462 0.24121 0.085506 0.038483 -0.01117 0.052623 
-0.086471 -0.21307 0.69104 0.21654 0.060844 0.02829 -0.051615 -0.05737 
-0.041915 -0.084169 0.61048 0.17297 0.029276 0.0026412 -0.050136 -0.42451 
-0.031721 0.065447 0.28921 0.11987 0.019083 0.011355 -0.026953 -0.37715 
-0.036983 0.22937 0.017274 0.08863 -0.021363 0.020069 -0.014458 -0.14517 
-0.03057 0.28099 -0.021363 0.036839 -0.036818 0.041114 0.0074092 -0.074633 
-0.004593 0.2851 0.080573 0.01974 -0.043888 0.076956 0.051801 0.041443 
0.040292 0.21852 0.1322 0.051965 -0.027282 0.08567 0.13171 0.23973 
0.074819 0.15292 0.15341 0.078436 -0.01528 0.061337 0.15801 0.29349 
0.077614 0.062817 0.090931 0.020727 -0.03764 0.063474 0.1807 0.23562 
0.084519 0.066763 0.15785 -0.017582 -0.038133 0.095699 0.17626 0.13056 
0.06183 0.020233 0.11888 -0.010019 -0.072989 0.031085 0.12036 0.083204 
0.027632 0.034702 0.16064 -0.012814 -0.085485 0.044567 0.11033 0.079751 
0.072681 -0.042408 0.29382 -0.012156 -0.070359 -0.0083746 0.051965 0.062652 
0.076134 -0.13859 0.44426 -0.0039354 -0.10653 -0.052109 0.0079024 -0.0019624 
0.087479 -0.13727 0.42288 -0.041093 -0.12807 -0.10472 -0.02498 -0.06444 
0.049499 -0.058685 0.065612 -0.057863 -0.13103 -0.043888 -0.033037 -0.048985 
0.0072447 0.0098754 -0.27242 0.016945 -0.095349 -0.019884 -0.011334 -0.057041 
0.005765 0.068078 -0.4176 0.0036276 -0.084663 -0.018075 -0.015116 -0.12692 
0.035688 0.12085 -0.47498 -0.0072237 -0.091568 -0.019719 -0.028269 -0.13201 
0.01826 0.14831 -0.44851 -0.037805 -0.092554 -0.0049219 -0.030406 -0.024158 
0.01974 0.10392 -0.42352 -0.026624 -0.082196 0.037826 -0.012156 0.069229 
0.025988 0.051965 -0.21175 -0.0077169 -0.05441 0.064132 0.010862 0.10754 
0.058049 -0.0082102 0.050814 0.018918 -0.016924 0.050157 0.035688 0.083697 
0.016616 0.018425 0.07597 0.077614 -0.022514 0.061172 0.01974 0.05772 
-0.036489 0.089287 0.010204 0.10704 0.0052718 0.052952 0.062817 0.014972 
-0.10061 0.16262 -0.068386 0.10704 0.012177 0.07038 0.058706 0.0046141 
-0.057699 0.18761 -0.12642 0.12743 0.0080668 0.063145 0.029441 -0.013143 
-0.0054151 0.15587 -0.16917 0.091096 -0.01528 0.014315 0.021056 0.010533 
0.066434 0.02122 -0.17213 0.055582 -0.040106 -0.0026201 0.027139 0.038977 
0.096028 -0.073976 -0.083018 0.031578 -0.049642 -0.01232 0.042429 0.068736 
0.071037 -0.040435 -0.054739 0.042758 -0.050464 0.0069159 0.051143 0.079258 
0.014315 0.055418 -0.038627 0.036346 -0.045203 -0.0032777 0.073997 0.076134 
-0.052437 0.098166 -0.010348 0.026152 -0.035174 -0.022021 0.035031 0.070708 
-0.054575 0.10491 -0.060823 0.0021479 -0.0771 -0.0044286 -0.013471 0.059528 
-0.057699 0.11937 -0.096665 -0.054739 -0.10176 0.036182 -0.028597 0.045553 
-0.043395 0.10359 -0.090253 -0.04619 -0.093376 0.021713 -0.0054151 0.06183 
-0.015116 0.085012 -0.088115 0.025659 -0.060165 0.026317 0.010862 0.071531 
0.025166 0.09422 -0.16227 0.022042 -0.053917 0.042429 0.021056 0.062323 
0.058542 0.10392 -0.25943 0.0095465 -0.066084 0.021878 0.026974 0.082875 
0.095864 0.10441 -0.30613 0.051636 -0.029584 0.041936 0.016288 0.070544 
0.085177 0.065776 -0.31895 0.07449 -0.035174 0.047362 0.036182 0.080573 
0.088465 0.049335 -0.25911 0.069886 -0.03501 0.02829 0.054432 0.08156 
0.06479 0.058871 -0.10193 0.080573 -0.025474 0.013328 0.062323 0.074983 
0.053938 0.061995 -0.072003 0.09981 -0.019555 -0.011005 0.025988 0.056733 
0.064132 0.087808 -0.066248 0.08419 -0.022021 0.0092177 0.017767 0.07597 
0.069558 0.027632 0.050486 0.082546 -0.018075 0.0023123 0.0087245 0.08978 
0.041772 -0.029584 0.18169 0.073668 -0.018404 0.021384 0.0047785 0.10852 
0.025001 -0.090746 0.30023 0.048841 -0.025309 0.046375 0.034537 0.091589 
-0.034188 -0.12494 0.35366 -0.011498 -0.071674 -0.0026201 0.026974 0.064954 
-0.049314 -0.095185 0.28231 -0.10686 -0.10571 0.020727 0.091753 0.064132 
-0.01232 -0.056383 0.13779 -0.10489 -0.13744 0.038648 0.067091 0.021878 
-0.014293 0.041443 0.079751 -0.080717 -0.11163 0.047033 0.010697 -0.030735 
0.026481 0.11 0.10902 0.035195 -0.041915 0.063639 0.011026 -0.027775 
-0.006566 0.15851 0.044731 0.13828 0.0023123 0.084026 0.13154 0.10408 
-0.0082102 0.2098 -0.17377 0.1368 0.011355 0.072681 0.22427 0.19977 
-0.01939 0.14585 -0.25582 0.11083 0.0056006 0.065447 0.22542 0.23759 
-0.02794 0.080738 -0.15388 0.15012 0.038483 0.059693 0.16508 0.10787 
0.016781 0.04358 0.01415 0.12677 0.009711 0.03388 0.045553 -0.0080457 
0.073997 0.025001 0.30204 0.094384 -0.0021268 0.016288 -0.073811 -0.14747 
0.20503 -0.036489 0.37783 0.051308 -0.019719 0.0034632 -0.18331 -0.15306 
0.35334 -0.070359 0.26537 0.029112 -0.075455 -0.01117 -0.16621 -0.11228 
0.2731 -0.046519 0.17232 -0.040435 -0.10916 -0.019719 -0.05178 0.046704 
0.037332 0.040456 0.1276 -0.079401 -0.12363 -0.014622 0.073832 0.12562 
-0.10637 0.13582 0.054267 -0.090253 -0.13168 0.019905 0.098001 0.10326 
-0.15355 0.21161 -0.18627 -0.10768 -0.12626 0.039141 0.067749 0.036182 
-0.10406 0.19188 -0.27818 -0.065262 -0.0965 0.013492 -0.00081153 -0.079072 
-0.04471 0.10967 -0.023994 0.010204 -0.041751 0.0082312 -0.053917 -0.30054 
0.0080668 -0.088608 0.41351 0.10918 -0.0032777 0.030427 -0.017911 -0.32849 
-0.016266 -0.098473 0.60325 0.12497 0.011026 0.058049 0.055418 -0.032708 
-0.044546 0.028783 0.40151 0.12908 0.033387 0.066105 0.11247 0.22986 
-0.044217 0.082875 0.37635 0.14289 0.016123 0.047691 0.071366 0.29678 
0.037332 -0.059672 0.71686 0.020398 -0.052931 0.025166 0.012835 0.14486 
0.17067 -0.17723 0.86943 -0.11771 -0.14599 -0.010676 -0.042079 -0.072003 
0.24121 -0.14303 0.44015 -0.15585 -0.17673 -0.035996 -0.069865 -0.10768 
0.18761 -0.073482 -0.19482 -0.15602 -0.18364 -0.045696 -0.035832 0.036675 
0.14437 -0.13958 -0.50408 -0.12034 -0.15322 -0.025309 0.031578 0.068242 
0.12398 -0.1381 -0.4689 -0.053917 -0.092061 0.016288 0.080244 -0.00015387 
0.052294 0.049335 -0.36877 0.052294 -0.052602 0.053609 0.067091 -0.040435 
-0.016595 0.21095 -0.12757 0.13993 0.012177 0.047855 0.031414 -0.045039 
-0.052602 0.16771 0.3609 0.16969 0.034702 0.040128 -0.02794 -0.12494 
-0.029255 0.090931 0.75927 0.1613 0.011848 0.016452 -0.02794 -0.26996 
-0.034023 0.078929 0.6945 0.056898 -0.032708 0.012835 0.00099702 -0.29034 
0.0059294 0.09126 0.27721 0.0090533 -0.056383 0.038648 0.027139 -0.11064 
-0.0090322 0.032236 -0.13727 0.010204 -0.059014 0.044238 0.066434 0.16903 
-0.061316 -0.014129 -0.3035 -0.011827 -0.070523 0.025988 0.068736 0.30812 
-0.14615 0.011355 -0.26404 0.0092177 -0.05737 0.023522 0.066434 0.40217 
-0.22063 0.031578 0.048513 -0.0019624 -0.047176 0.033551 0.037332 0.34594 
-0.19433 0.060515 0.23545 -0.011827 -0.079237 0.041114 0.012342 0.18794 
-0.096007 0.058706 0.40069 -0.035503 -0.083018 0.016452 -0.011334 0.021549 
0.029934 -0.059672 0.57908 -0.013143 -0.067235 -0.019719 -0.055232 -0.16654 
0.16574 -0.11968 0.41302 0.01267 -0.0771 -0.013965 -0.07266 -0.18463 
0.20388 -0.043559 0.040785 0.0046141 -0.076442 0.0021479 -0.065919 -0.18397 
0.29596 0.0421 -0.029748 0.036017 -0.059343 -0.009361 -0.034845 -0.34082 
0.42584 0.11855 -0.11689 0.0056006 -0.080552 -0.0064016 -0.047669 -0.42467 
0.44327 0.14157 -0.27472 -0.084663 -0.13645 -0.011827 0.037168 -0.33885 
0.19583 0.12233 -0.6435 -0.069701 -0.10883 0.00066819 0.087314 0.012342 
-0.097651 0.096357 -0.88799 0.048841 -0.01117 0.046868 0.10113 0.33361 
-0.26519 0.023686 -0.60109 0.15489 0.015465 0.043745 0.045224 0.45988 
-0.24727 -0.11343 0.061666 0.11642 0.00017495 0.0087245 0.040785 0.42699 
-0.15931 -0.19235 0.67098 0.070708 -0.034023 0.010204 0.027796 0.317 
-0.10686 -0.080881 0.67131 0.051801 -0.054904 0.0072447 0.029769 0.21967 
-0.064768 0.12529 0.30335 0.0067515 -0.067728 0.020562 0.024015 0.051965 
-0.035503 0.27277 -0.16177 -0.0080457 -0.079401 0.011684 0.009711 -0.0098543 
-0.0034422 0.29694 -0.42747 0.030756 -0.049642 0.036839 0.016288 -0.053424 
-0.0040998 0.2708 -0.44835 0.049664 -0.047176 0.028125 0.017274 -0.041257 
0.0036276 0.22164 -0.31007 0.071202 -0.023665 0.031907 -0.0047575 -0.1233 
0.0421 0.12151 -0.17838 0.076134 -0.00097594 0.015301 -0.02498 -0.20041 
0.069064 -0.012978 -0.13152 0.12299 -0.0011404 0.018425 0.0092177 -0.14928 
0.053609 -0.14632 -0.11294 0.10113 0.0036276 0.025495 0.03947 0.047033 
0.07301 -0.15996 -0.046519 0.06035 -0.028269 0.021384 0.039305 0.14798 
0.094713 -0.042901 -0.012649 0.058871 -0.036818 0.026481 0.051472 0.13269 
0.10277 0.082711 -0.05326 0.039634 -0.026296 0.0324 0.03536 0.079751 
0.098659 0.18037 -0.13136 0.054267 -0.020706 0.023522 0.055911 0.10688 
0.11592 0.24614 -0.182 -0.0032777 -0.052602 0.020891 0.020398 0.080244 
0.12529 0.27261 -0.12116 -0.0096899 -0.081045 0.011848 -0.029091 -0.075784 
0.11346 0.32177 -0.069372 -0.0078813 -0.07414 0.050486 -0.055232 -0.12264 
0.037004 0.35547 -0.049971 -0.026131 -0.058028 0.027961 0.031742 -0.079237 
-0.02646 0.24729 -0.027447 -0.01232 -0.082525 0.029934 0.14815 0.071202 
-0.073647 0.062817 -0.03205 -0.023007 -0.080059 0.043251 0.1853 0.21802 
-0.093376 -0.049478 -0.13086 0.039799 -0.035503 0.069886 0.16377 0.24762 
-0.058028 -0.028433 -0.25746 0.11822 0.0092177 0.08304 0.099645 0.12151 
-0.039942 -0.015938 -0.26913 0.12431 0.020398 0.056898 0.063639 0.040785 
0.010204 -0.11228 -0.082361 0.098988 -0.0064016 0.015959 0.057555 0.036182 
0.058871 -0.17427 0.12628 0.040621 -0.03501 -0.01117 0.048677 0.057062 
0.13647 -0.15487 0.26126 -0.045039 -0.12231 -0.037147 -0.00097594 0.02681 
0.17511 -0.06855 0.35103 -0.05885 -0.12593 -0.045532 -0.051287 -0.027611 
0.17347 0.014972 0.34051 0.025659 -0.06707 -0.033694 -0.096336 -0.06444 
0.13943 0.087808 0.26176 0.093891 -0.022514 0.0093821 -0.099131 -0.064933 
0.076627 0.10556 0.10606 0.10852 0.0070803 0.072517 -0.099295 0.0032988 
0.08715 0.10096 -0.088773 0.10359 0.015301 0.071531 -0.033365 0.04095 
0.052459 0.024015 -0.13908 0.07449 -0.004593 0.066434 0.033715 0.12069 
-0.022514 0.084684 -0.20025 0.036346 -0.03057 0.071366 0.078107 0.098001 
-0.11146 0.16426 -0.23165 0.038319 -0.034681 0.073997 0.11247 0.15144 
-0.10801 0.20717 -0.23017 0.011026 -0.038298 0.064132 0.12546 0.12349 
-0.12067 0.26669 -0.20419 -0.076113 -0.12083 0.028125 0.082875 0.093233 
-0.12264 0.34265 -0.042901 -0.15487 -0.1741 -0.003771 0.084355 -0.006566 
-0.035503 0.26159 0.11329 -0.11771 -0.15668 -0.013965 0.1294 -0.033694 
0.10836 0.03799 0.3655 0.029934 -0.087458 -0.001798 0.17495 -0.040928 
0.21161 -0.2425 0.7647 0.061008 -0.041751 0.033715 0.20175 0.0087245 
0.21079 -0.35825 1.0771 0.011848 -0.054739 0.065283 0.19599 0.10967 
0.13154 -0.25779 0.92336 0.044567 -0.026789 0.069064 0.11658 0.15144 
0.062159 -0.16966 0.46086 0.10507 -0.015773 0.06183 -0.0004827 0.099316 
0.05624 -0.05589 0.054432 0.15587 0.029441 0.031085 -0.068221 0.0093821 
0.085835 0.049664 -0.19729 0.18119 0.065283 0.0090533 -0.084169 -0.058028 
0.11313 0.10524 -0.23132 0.17133 0.012342 0.014808 -0.098802 -0.12198 
0.088794 0.075805 -0.20912 0.10113 -0.018733 -0.00015387 -0.079237 -0.087951 
0.068736 -0.010348 -0.065755 0.038812 -0.049642 -0.0022913 -0.049314 -0.0004827 
0.038319 -0.067564 0.20454 0.0047785 -0.083347 -0.0075525 -0.022021 0.12809 
0.022864 -0.060494 0.29431 -0.078579 -0.12873 -0.019719 0.00066819 0.18054 
0.018096 -0.05589 0.32835 -0.08121 -0.12988 -0.019061 -0.03616 0.13253 
0.0052718 0.017438 0.26636 -0.055397 -0.10275 0.0080668 -0.019719 -0.0060728 
-0.0040998 0.096193 0.012177 -0.042901 -0.099131 0.031742 0.0016547 -0.14599 
-0.0024557 0.075476 -0.21438 -0.050629 -0.090417 0.011355 0.032071 -0.1723 
-0.0095255 0.029769 -0.31402 -0.072003 -0.087129 0.011191 0.033551 -0.04323 
-0.028433 0.067913 -0.24612 -0.042901 -0.10637 0.017932 0.038977 0.10819 
-0.017417 0.12957 -0.19383 -0.010348 -0.085649 0.043416 0.066598 0.19073 
0.0079024 0.14519 -0.17394 0.066927 -0.023172 0.049499 0.065612 0.17659 
0.034537 0.067256 0.086985 0.15061 0.018425 0.046046 0.073504 0.10836 
0.076792 -0.014293 0.23101 0.17248 0.038977 0.053445 0.023522 -0.0098543 
0.14157 -0.026953 0.13351 0.18415 0.033387 0.020398 0.021384 -0.051287 
0.1738 0.019083 -0.095185 0.14568 0.01152 -0.0016336 0.025166 -0.038462 
0.21737 0.035853 -0.067892 0.10343 -0.033201 0.0021479 0.035524 -0.055726 
0.1544 0.049828 0.21967 0.031085 -0.063289 0.013657 0.022371 0.022864 
0.021056 0.043416 0.45264 -0.0068948 -0.061151 0.023851 0.032071 0.10524 
-0.071509 -0.022679 0.61048 -0.00031829 -0.082032 0.0054362 0.086985 0.13647 
-0.039778 -0.067892 0.54389 -0.098473 -0.13251 -0.012485 0.063639 0.065776 
0.02681 -0.046025 -0.099624 -0.098802 -0.13316 -0.0060728 0.025659 0.01415 
0.048677 0.0421 -0.77898 -0.053917 -0.099789 0.024344 -0.016595 -0.045696 
0.071695 0.17034 -0.87599 -0.02235 -0.078086 -0.0064016 -0.087129 -0.051287 
0.070708 0.19221 -0.53039 0.0054362 -0.046354 0.0074092 -0.10505 -0.070852 
0.048677 0.21802 -0.2009 0.01004 -0.033859 0.0060938 -0.071016 -0.11541 
0.029276 0.23134 0.032071 0.0041209 -0.060165 0.011026 -0.080881 -0.17509 
0.035688 0.12266 0.28971 0.066269 -0.028269 0.034866 -0.038956 -0.096829 
0.026974 -0.077757 0.78016 0.13253 0.013821 -0.0075525 -0.050136 -0.054575 
0.06331 -0.18167 0.97828 0.11724 -0.015938 0.0046141 0.0036276 0.0059294 
0.062159 -0.12659 0.52679 0.037004 -0.059672 0.012506 0.024673 0.069558 
0.069722 0.038977 -0.15158 0.021384 -0.06707 0.029441 0.020069 0.094384 
0.088465 0.10754 -0.51 0.027961 -0.057534 0.046704 -0.003771 0.086985 
0.12217 0.16196 -0.64844 0.017932 -0.059836 0.010533 0.0046141 0.096028 
0.039141 0.19912 -0.62789 0.034866 -0.041093 0.012342 0.11855 0.23627 
-0.073318 0.22493 -0.52546 0.059528 -0.0057439 0.018425 0.19237 0.32752 
-0.12659 0.18909 -0.30662 0.038977 -0.04471 0.037826 0.21835 0.34594 
-0.12577 0.1493 -0.11804 0.033715 -0.038627 0.077943 0.171 0.26439 
-0.10932 0.095206 0.020562 0.073504 -0.003771 0.065612 0.06331 0.092082 
-0.061973 0.03388 0.11609 0.1248 0.0095465 0.051308 -0.021856 -0.13349 
0.024179 -0.075784 0.22493 0.06331 -0.020377 0.034866 -0.07266 -0.25878 
0.1008 -0.13695 0.50805 0.0054362 -0.065755 0.014972 -0.074304 -0.2619 
0.20158 -0.13136 0.61722 -0.060494 -0.10669 -0.011005 -0.069043 -0.21998 
0.30385 -0.068386 0.31503 -0.065755 -0.11853 -0.015444 -0.03764 -0.1455 
0.28642 -0.029091 -0.035338 -0.03764 -0.10045 0.00066819 0.0034632 0.0065871 
0.08304 0.028125 -0.1667 0.030098 -0.032872 0.034044 0.056569 0.19336 
-0.10275 0.14272 -0.055726 0.027303 -0.056219 0.040456 0.056569 0.21687 
-0.13004 0.13762 0.040456 -0.01676 -0.07562 0.026317 0.045718 0.12875 
-0.081703 0.076463 0.11773 -0.084827 -0.10982 0.02829 0.12053 0.036017 
-0.035174 -0.0088678 0.21112 -0.038956 -0.10258 0.043251 0.1299 0.0016547 
-0.018404 0.055582 0.18119 -0.00015387 -0.065591 0.037497 0.17067 0.058871 
-0.023829 0.13483 0.090931 0.064625 -0.021692 0.068571 0.18826 0.13549 
-0.012814 0.14913 0.037826 0.11263 0.01974 0.058049 0.13417 0.047855 
0.022206 0.095864 0.018754 0.11477 0.0011614 0.032893 0.08863 0.011191 
0.016945 0.07597 -0.047834 0.1128 0.0034632 0.0069159 0.047526 0.13762 
-0.051287 0.055254 -0.15388 0.080573 -0.0072237 0.017438 -0.011005 0.36271 
-0.099789 0.073832 -0.24118 0.062817 -0.041257 0.016781 -0.0059084 0.29694 
-0.065919 0.11543 -0.29593 0.0032988 -0.065097 0.011848 0.0011614 -0.16523 
-0.003771 0.14256 -0.3594 -0.031721 -0.088608 0.010697 -0.0049219 -0.47235 
0.031578 0.096686 -0.32438 -0.013965 -0.081374 0.012013 0.0039565 -0.26322 
0.065612 0.032071 -0.21274 -0.0062372 -0.065097 0.034866 0.034702 -0.01676 
0.13516 0.025824 -0.050136 0.015959 -0.048656 0.048348 0.036675 0.054596 
0.24186 0.025659 0.3318 0.011355 -0.043395 0.031907 0.062159 0.037661 
0.37849 -0.010348 0.73363 -0.021692 -0.093048 0.015959 -0.056219 0.021056 
0.28346 -0.14698 0.90659 -0.10965 -0.13464 0.027303 -0.072825 0.0065871 
0.069558 -0.061973 0.67394 -0.070523 -0.10489 0.035031 -0.034516 0.030592 
-0.12462 -0.047669 0.36501 0.013164 -0.075784 0.018918 0.0083956 0.069722 
-0.18693 -0.011663 0.22526 0.010369 -0.074962 0.025495 0.049828 0.13286 
-0.16851 0.023851 0.21276 0.046868 -0.058028 0.0021479 0.070708 0.16015 
-0.077428 0.0021479 0.22394 0.057391 -0.049149 0.028125 0.12497 0.16936 
-0.0019624 0.018425 0.076463 0.0227 -0.058028 0.045224 0.14502 0.21408 
0.043909 0.053774 -0.061316 0.0090533 -0.05885 0.023851 0.10819 0.21786 
0.054103 0.10787 -0.31122 0.040456 -0.021363 -0.0021268 0.051308 0.15259 
0.04917 0.12036 -0.60931 0.068736 -0.031886 -0.024652 -0.031392 0.0067515 
0.04095 0.082711 -0.67376 0.050979 -0.036325 -0.0054151 -0.085485 -0.1113 
0.045882 -0.12642 -0.41842 0.0014903 -0.064111 -0.015773 -0.1159 -0.19646 
0.092904 -0.29396 -0.045696 -0.054246 -0.10949 -0.040764 -0.10982 -0.36943 
0.147 -0.33095 0.26587 -0.10094 -0.13448 -0.023665 -0.062631 -0.72489 
0.15538 -0.021856 0.32571 -0.022021 -0.087622 -0.0014692 -0.053588 -0.72505 
0.083204 0.29365 0.20799 0.085506 -0.0054151 0.044896 0.010204 -0.25878 
0.019247 0.35514 0.044073 0.15505 0.027303 0.075805 0.07449 0.1909 
-0.018897 0.20799 -0.030242 0.16327 0.038977 0.080902 0.12644 0.49983 
-0.013471 0.072846 0.0047785 0.049335 0.0082312 0.10704 0.12217 0.55441 
-0.02498 -0.0052507 0.14749 0.043251 -0.043395 0.068407 0.12431 0.41253 
-0.029091 0.021384 0.20076 0.01415 -0.047012 0.072188 0.1054 0.18777 
-0.0075525 0.059364 0.15703 0.032071 -0.03501 0.037004 0.073668 0.03651 
0.01826 0.11428 0.027468 0.088136 -0.023665 -0.0011404 0.068078 -0.030735 
0.033387 0.11592 -0.21619 0.024837 -0.056712 -0.023336 0.047197 -0.013965 
0.037826 0.13647 -0.39705 -0.0070593 -0.084005 -0.024652 -0.0082102 -0.019719 
0.01826 0.13138 -0.46725 0.059528 -0.045039 -0.017582 -0.073976 0.018096 
0.0062583 0.14831 -0.38505 0.085506 -0.035996 -0.0032777 -0.014458 0.11674 
0.0064227 0.11247 -0.20797 0.07038 -0.03501 0.023028 0.088301 0.097179 
0.027139 0.060679 0.01826 0.041936 -0.030242 0.013164 0.1054 0.013164 
0.073668 -0.03057 0.16821 0.098659 -0.023336 0.041278 0.045882 -0.14665 
0.14272 -0.15898 0.55721 0.047197 -0.057041 0.015137 -0.025802 -0.20616 
0.183 -0.19992 1.0509 -0.023172 -0.097322 -0.010512 -0.062138 -0.22984 
0.15949 -0.18578 0.98765 -0.040271 -0.1113 0.011848 -0.045532 -0.23543 
0.099316 -0.23954 0.83869 -0.053095 -0.10521 0.010697 0.0056006 -0.14451 
0.0051074 -0.34937 0.59486 -0.067399 -0.11968 0.010533 -0.023172 0.13943 
-0.076277 -0.31468 0.043745 -0.085485 -0.12609 -0.025802 -0.074469 0.3752 
-0.15257 -0.079401 -0.42072 -0.08532 -0.14155 -0.025309 -0.067564 0.42551 
-0.14418 0.19517 -0.56672 -0.026624 -0.091732 -0.0014692 0.00050378 0.28346 
-0.11409 0.33854 -0.5294 0.039963 -0.025309 0.050157 0.07449 0.10556 
-0.06444 0.35284 -0.33326 0.14798 0.031085 0.097179 0.13121 0.0011614 
-0.053424 0.29727 -0.23214 0.13927 0.026646 0.1197 0.13779 -0.043066 
0.021549 0.21326 -0.22474 0.15094 0.045389 0.065612 0.1128 -0.027611 
0.067913 0.15456 -0.16276 0.14453 0.020891 0.039634 0.13762 -0.065262 
0.14223 0.12579 -0.017417 0.1105 -0.0021268 0.053281 0.061172 -0.072003 
0.13828 0.047197 0.031414 0.077778 -0.019884 0.032236 0.025495 -0.053095 
0.057884 0.039634 -0.043395 0.032893 -0.042737 -0.0044286 0.022371 0.046375 
-0.038627 0.073668 -0.15191 0.055089 -0.043724 0.010697 0.050157 0.12776 
-0.10406 0.1031 -0.21965 0.090438 -0.0036066 0.014808 0.042429 0.20947 
-0.1011 0.096028 -0.14533 0.11214 0.0041209 0.036017 -0.0016336 0.19796 
-0.070523 0.073339 -0.061645 0.12973 -0.0078813 0.0092177 -0.024487 0.18563 
0.0046141 0.05772 0.069558 0.037332 -0.056383 -0.019226 -0.038956 0.1322 
0.094548 0.11477 0.14667 -0.02087 -0.088608 -0.009361 -0.0062372 0.071037 
0.17708 0.13878 0.16936 -0.038627 -0.099295 0.0047785 0.0070803 0.0095465 
0.20454 0.086328 0.17955 -0.042737 -0.10587 0.038812 0.022864 0.036839 
0.13647 0.0065871 0.17363 -0.033859 -0.087786 0.03092 0.016452 0.074326 
0.06035 -0.02646 0.21786 -0.11343 -0.11705 -0.0014692 0.015465 0.092576 
-0.017253 -0.090088 0.12053 -0.20616 -0.21093 -0.027611 -0.004593 0.071037 
-0.049149 -0.13514 -0.12609 -0.17164 -0.17969 0.005765 -0.0090322 0.013492 
-0.076442 -0.14303 -0.16046 -0.065097 -0.10078 0.044567 -0.011992 0.0032988 
-0.059178 -0.083018 -0.0059084 0.077285 -0.01528 0.037004 0.0034632 -0.0052507 
-0.050629 -0.03501 0.19862 0.12809 0.021878 0.041607 0.033222 0.068407 
-0.012156 0.056733 0.35465 0.11937 0.010697 0.024344 0.025659 0.077614 
0.03799 0.13993 0.28412 0.048184 -0.030242 0.023522 0.011848 0.081889 
0.052459 0.15604 -0.076606 0.0090533 -0.066413 0.029769 0.023357 0.02681 
0.039634 0.16558 -0.33885 0.075476 -0.014129 0.032893 0.042265 -0.0059084 
0.037332 0.19501 -0.12609 0.15193 0.049006 0.026974 0.016452 -0.092883 
0.046868 0.18892 0.027961 0.15637 0.023851 0.018918 -0.028926 -0.13843 
0.051143 0.20832 -0.068221 0.11757 -0.00064712 0.023686 -0.01676 -0.11442 
0.056076 0.16558 -0.24497 0.076792 -0.018568 0.022535 -0.011992 -0.023665 
0.054432 0.11231 -0.28163 0.074819 -0.02646 0.022371 0.015465 0.083204 
0.076956 0.010204 -0.028762 0.016288 -0.057205 0.023357 0.024015 0.1442 
0.096357 -0.0868 0.40102 -0.045039 -0.096007 0.017438 0.027468 0.16031 
0.058542 -0.077264 0.48224 -0.10604 -0.11968 0.019905 0.041607 0.12233 
0.020069 -0.018897 0.31486 -0.10801 -0.13908 0.019905 0.060844 0.084355 
-0.0011404 -0.0057439 0.18744 -0.07825 -0.10801 0.027303 0.058049 0.014972 
-0.00015387 -0.0052507 0.071037 -0.017253 -0.063946 0.01152 0.03651 0.0065871 
-0.0072237 0.061501 -0.15635 0.03092 -0.071838 0.01267 0.020891 1.0539e-005 
-0.0072237 0.16459 -0.28311 0.0028056 -0.075455 0.026646 0.026317 0.0021479 
-0.0042642 0.15982 -0.17608 -0.028104 -0.067235 0.023028 0.086821 1.0539e-005 
-0.0068948 0.11526 0.10277 -0.024816 -0.082032 0.025659 0.060844 0.0041209 
-0.016431 0.085341 0.21917 -0.0095255 -0.075949 0.02829 0.018425 -0.050464 
0.071531 0.015959 0.18744 -0.015773 -0.077428 0.025659 -0.023007 -0.049314 
0.09833 -0.024158 0.078929 0.020398 -0.046354 0.03092 0.0016547 -0.031886 
0.082711 -0.037805 -0.11837 0.11658 -0.010019 0.040621 0.032236 0.043909 
0.039305 -0.060329 -0.17789 0.12644 0.00050378 0.017438 0.03651 0.052459 
0.02533 -0.05589 -0.042573 0.095535 -0.014787 -0.012485 0.055582 0.034209 
0.033058 0.030592 0.10063 0.059857 -0.049478 0.024837 0.052787 0.0079024 
0.021713 0.16459 0.098494 0.02533 -0.056548 0.071202 0.062488 -0.048163 
-0.0068948 0.15834 0.046046 0.032071 -0.049478 0.03651 0.020562 -0.12922 
-0.035338 0.060515 0.019083 0.0041209 -0.072825 0.038155 0.01267 -0.25434 
-0.087293 0.037004 -0.10686 -0.052437 -0.1016 0.019576 0.032071 -0.18134 
-0.12198 0.11 -0.16128 -0.023501 -0.07414 0.024179 0.078107 0.0014903 
-0.1547 0.20487 -0.035996 0.024673 -0.021528 0.020398 0.12497 0.18662 
-0.12757 0.21885 0.14075 0.079751 -0.023007 0.035524 0.16114 0.27031 
-0.038298 0.17511 0.3022 0.11 -0.0064016 0.031249 0.1128 0.21062 
0.11592 0.040456 0.64813 0.042594 -0.047341 -0.0014692 -0.060823 -0.023665 
0.36254 -0.11278 0.72935 -0.0091966 -0.098638 -0.035503 -0.15289 -0.31418 
0.51019 -0.2568 0.41927 -0.10143 -0.14632 -0.053917 -0.19844 -0.4033 
0.34939 -0.17295 -0.11196 -0.042573 -0.10258 -0.019226 -0.096829 -0.206 
0.043909 -0.023994 -0.48748 0.063145 -0.036983 0.036017 0.014808 0.072188 
-0.15454 -0.023172 -0.46873 0.09126 -0.014293 0.061008 0.090603 0.27853 
-0.20436 -0.15766 -0.24036 0.096193 -0.0090322 0.051472 0.13943 0.33426 
-0.17443 -0.28508 0.12595 0.10918 0.017603 0.050979 0.12365 0.2833 
-0.076771 -0.2596 0.45692 0.10951 -0.016595 0.048184 0.12447 0.16278 
-0.011992 0.00083261 0.51052 0.018754 -0.06 0.021549 0.11905 0.030427 
0.0059294 0.24219 0.32588 -0.055397 -0.098473 0.022535 0.11839 -0.0082102 
0.0037921 0.31749 -0.029913 -0.0080457 -0.088115 0.016945 0.01004 -0.0026201 
0.026481 0.28806 -0.2984 0.0056006 -0.058356 0.0023123 -0.050958 -0.0039354 
0.021056 0.23364 -0.42467 0.042265 -0.035174 0.03947 -0.029913 -0.034516 
-0.0024557 0.18514 -0.57462 0.09981 -0.0032777 0.035853 0.08567 -0.022021 
-0.0098543 0.17133 -0.50079 0.088465 -0.023501 0.036017 0.13582 -0.011498 
0.040785 0.1807 -0.040106 0.075641 -0.020541 0.01974 0.10606 0.012999 
0.091918 0.20898 0.45626 0.029441 -0.014129 0.020233 0.012835 0.020727 
0.085177 0.17593 0.57546 0.085835 -0.018239 0.015137 -0.020377 0.026317 
0.048184 0.093562 0.35712 0.090603 -0.012485 0.028783 -0.042408 -0.020212 
0.047362 0.0034632 0.10392 0.097344 -0.01676 0.024344 -0.069701 -0.095678 
0.088794 -0.13432 0.23282 0.095535 -0.036818 0.0067515 -0.039942 -0.068879 
0.052459 -0.21981 0.28247 0.018754 -0.066906 0.0041209 0.038977 0.037826 
-0.017746 -0.24529 0.028783 -0.018568 -0.079237 0.024344 0.1345 0.1299 
-0.016924 -0.2887 -0.10538 -0.030735 -0.088608 0.031414 0.14108 0.19829 
0.015959 -0.24562 -0.20879 -0.10439 -0.133 0.023357 0.090603 0.26932 
0.038812 -0.1376 -0.33276 -0.10028 -0.12511 0.016616 0.076463 0.22592 
-0.0098543 0.027632 -0.21406 -0.00097594 -0.044874 0.037826 0.1105 0.17971 
-0.018239 0.2394 0.047691 0.12513 0.0011614 0.030263 0.14437 0.053609 
-0.016102 0.31585 0.23496 0.13236 0.019576 0.05772 0.062159 0.023686 
0.087643 0.26422 0.22592 0.098494 -0.00031829 0.033058 0.0024767 0.019247 
0.21885 0.1322 0.12677 0.1276 -0.0034422 0.0062583 -0.057699 -0.023007 
0.25337 0.050979 -0.040435 0.10622 -0.023501 -0.025309 -0.047834 0.08008 
0.1197 0.029441 -0.17591 0.059857 -0.048985 -0.027447 -0.063618 0.22279 
-0.01528 0.062488 -0.14566 -0.02087 -0.072332 -0.009361 -0.16473 0.16426 
-0.084827 0.10967 -0.40839 -0.11804 -0.13744 0.010204 -0.16539 0.14617 
-0.12281 0.17643 -0.55193 -0.094527 -0.11574 0.039305 -0.086471 -0.059672 
-0.11294 0.20487 -0.35183 0.033222 -0.021528 0.066269 0.020891 -0.364 
-0.067399 0.18103 -0.11196 0.12924 0.0070803 0.050157 0.06742 -0.35266 
0.029934 0.14437 0.0070803 0.070544 -0.031064 0.01004 0.12776 -0.16095 
0.05772 0.12694 -0.064933 0.050321 -0.045039 1.0539e-005 0.11674 0.060515 
0.0421 0.047362 -0.09387 0.076134 -0.026131 0.0034632 0.076792 0.16952 
0.0075736 -0.03912 0.12612 0.077614 -0.0078813 0.014972 0.044402 0.24712 
0.009711 -0.11689 0.51627 0.097015 -0.0078813 0.040128 0.064625 0.256 
0.017767 -0.13662 0.79101 0.015959 -0.051287 0.03799 0.12579 0.28461 
0.023851 -0.13464 0.8696 -0.097158 -0.13152 0.01711 0.15028 0.21737 
0.019576 -0.16835 0.71061 -0.13415 -0.14796 0.020727 0.11329 0.11362 
0.032236 -0.21603 0.52909 -0.074304 -0.1085 0.033058 0.016288 0.029441 
0.037497 -0.10998 0.20865 0.020398 -0.071838 0.044238 -0.049149 -0.0096899 
0.059693 -0.0047575 -0.014787 -0.021528 -0.08269 0.00099702 -0.081539 -0.088773 
0.10524 0.056898 -0.023007 -0.030735 -0.088937 -0.021034 -0.058521 -0.15109 
0.13121 0.12118 -0.16572 -0.003771 -0.083512 -0.01232 -0.086307 -0.31468 
0.10145 0.22838 -0.38702 0.034044 -0.061645 -0.021199 -0.10752 -0.32405 
0.016452 0.25469 -0.52447 0.064132 -0.035832 0.043909 -0.053753 -0.12494 
-0.07973 0.23627 -0.59533 0.12266 0.026152 0.042429 0.013164 0.11181 
-0.087622 0.15703 -0.51658 0.1105 0.0036276 0.033222 0.052787 0.24482 
-0.044381 0.15111 -0.31813 0.04654 -0.035832 0.03536 0.049664 0.25847 
-0.0091966 0.11428 -0.060329 0.053938 -0.031392 0.049499 0.058871 0.33163 
0.025495 0.070708 0.11033 0.059693 -0.035174 0.050979 0.051472 0.25156 
0.044567 0.051143 0.11625 0.0028056 -0.058356 0.018754 0.055418 0.12464 
0.06035 0.069722 0.1151 -0.041586 -0.090581 -0.0055795 -0.00081153 -0.026624 
0.079751 0.068242 0.089452 -0.0059084 -0.073647 -0.0039354 -0.031557 -0.1358 
0.06035 0.06594 0.13154 0.0039565 -0.074798 0.012506 -0.064275 -0.30218 
0.06479 0.084684 0.38293 0.00099702 -0.066577 0.014808 -0.05589 -0.49126 
0.08008 0.085999 0.43752 0.0067515 -0.026624 0.016616 -0.026789 -0.49997 
0.088301 -0.07562 0.44541 0.030263 -0.063289 0.026317 0.02122 -0.18035 
0.086985 -0.14139 0.37504 -0.071838 -0.11097 -0.0054151 0.057884 0.16311 
0.043416 -0.18002 0.30039 -0.073482 -0.11952 0.023522 0.070873 0.30089 
0.051636 -0.10949 0.21441 -0.011005 -0.081703 0.046868 0.086985 0.31881 
-0.0080457 -0.073482 0.036839 0.073339 -0.023994 0.050814 0.09833 0.2565 
-0.057205 -0.0039354 -0.10571 0.075312 -0.020377 0.05213 0.11461 0.17528 
-0.077264 0.027961 -0.28689 0.11346 -0.0052507 0.032071 0.092411 0.0018191 
-0.011005 0.15522 -0.52874 0.10704 -0.0049219 0.054432 0.029934 -0.13152 
0.027632 0.20372 -0.53368 0.063474 -0.023172 0.034373 0.019247 -0.16375 
0.050979 0.22263 -0.17641 0.007738 -0.033037 0.019905 -0.02087 -0.063618 
0.10721 0.12875 0.20684 -0.018733 -0.073976 -0.0016336 -0.017911 0.07449 
0.10491 0.10704 0.51463 -0.036325 -0.084827 0.032236 0.030756 0.12776 
0.094384 0.050157 0.56823 -0.025967 -0.078086 0.050157 0.10441 0.12464 
0.079916 0.015301 0.38145 -0.018239 -0.086142 0.032893 0.081231 0.10573 
0.036346 0.027468 0.11395 -0.037311 -0.095349 0.014315 -0.010512 0.086985 
0.029276 0.055582 -0.09091 0.016781 -0.053424 -0.012814 -0.061645 -0.04619 
-0.00064712 -0.03205 -0.10127 0.047197 -0.033694 0.013328 0.00083261 -0.26798 
0.0042853 -0.05178 -0.11294 0.074326 -0.025145 0.010369 0.12891 -0.29856 
0.062817 0.019411 -0.16342 0.08715 -0.0138 0.01152 0.2149 -0.076113 
0.097672 0.098823 -0.18824 0.068078 -0.010512 0.012177 0.15785 0.097179 
0.066269 0.16278 -0.29166 0.085506 -0.021363 0.0079024 0.0074092 0.21737 
-0.023501 0.23545 -0.48402 0.088794 -0.0067304 0.072517 -0.040271 0.22542 
-0.09239 0.31519 -0.55554 0.10688 0.010369 0.082382 -0.066577 0.17281 
-0.085649 0.30664 -0.4079 0.10951 0.0031344 0.076299 -0.0095255 0.086821 
-0.011992 0.1756 -0.15092 0.036839 -0.032872 0.077121 0.065283 0.074326 
0.03947 0.047197 0.026974 -0.0011404 -0.058685 0.052952 0.1493 0.024673 
0.064461 -0.031064 0.14206 -0.013471 -0.062467 0.044731 0.17001 0.051965 
0.040621 -0.094527 0.29809 0.0013258 -0.081539 0.0044497 0.17807 0.12562 
-0.0070593 -0.19104 0.55392 0.0047785 -0.086307 -0.0091966 0.15505 0.18202 
-0.030735 -0.19893 0.75599 -0.014293 -0.078579 -0.0052507 0.038977 0.17265 
-0.015444 -0.15931 0.54373 0.031578 -0.067728 0.0011614 -0.029255 0.13401 
0.049335 -0.1256 0.1516 0.04358 -0.041915 0.011026 -0.063124 0.020233 
0.10524 -0.11557 -0.087951 0.064625 -0.034023 0.0079024 -0.066084 -0.052602 
0.171 -0.00031829 -0.21241 0.085341 -0.039942 0.009711 -0.081374 -0.12774 
0.29135 0.10293 -0.20879 0.02829 -0.067728 -0.0047575 -0.068057 -0.23428 
0.41368 0.17791 -0.1182 -0.015938 -0.086636 -0.010183 -0.034188 -0.2032 
0.35975 0.25896 -0.095021 -0.018897 -0.061151 0.0042853 -0.00031829 -0.043395 
0.082875 0.2736 -0.11409 0.048019 -0.05589 0.041936 0.062981 0.12118 
-0.16555 0.23594 -0.25072 0.090603 -0.024323 0.0016547 0.10902 0.22246 
-0.23148 0.13532 -0.28788 0.10836 0.0088889 0.030263 0.15637 0.26094 
-0.22113 0.019083 -0.010183 0.079422 -0.030899 0.061995 0.12365 0.20109 
-0.10472 -0.083676 0.27606 0.0092177 -0.061151 0.044238 0.085506 0.17495 
-0.0034422 -0.11903 0.57365 -0.035338 -0.081703 0.05065 0.070215 0.092904 
0.086985 -0.17345 0.86976 0.0592 -0.032215 -0.0022913 0.0085601 0.050486 
0.10014 -0.16079 0.75533 0.090109 -0.010512 0.022371 -0.012649 0.025495 
0.082217 -0.029584 0.23858 0.097837 -0.0082102 0.034866 -0.0034422 0.021878 
0.05624 0.094384 -0.20222 0.094713 0.019247 0.039634 0.01004 0.028454 
0.064625 0.14716 -0.31369 0.090767 -0.019555 0.018589 0.026974 0.059364 
0.068078 0.15719 -0.15026 -0.0049219 -0.075784 -0.010019 0.030263 0.048677 
0.070051 0.17117 0.15127 -0.0406 -0.09946 -0.003771 -0.008539 0.0065871 
0.064132 0.14667 0.1248 -0.0040998 -0.084169 -0.00031829 -0.048985 0.0032988 
0.065283 0.10014 -0.11705 0.037332 -0.055232 0.0037921 -0.063782 -0.0039354 
0.05772 0.087314 -0.33654 0.050979 -0.043066 0.0098754 -0.045696 0.019576 
0.052787 0.067585 -0.29133 0.011026 -0.058521 0.016616 -0.018568 0.013164 
0.082053 0.016781 0.056569 -0.021856 -0.084005 0.040785 -0.016266 0.027632 
0.11165 -0.12642 0.47352 -0.040106 -0.10505 0.012177 -0.0067304 0.0032988 
0.13828 -0.28327 0.65553 -0.0091966 -0.065591 -0.0036066 0.0080668 0.0088889 
0.14141 -0.38636 0.51545 0.065776 -0.050629 0.0059294 0.018589 -0.0054151 
0.1419 -0.24875 0.18284 0.016123 -0.071838 -0.0029489 -0.017582 -0.020212 
0.08863 0.040621 -0.13399 -0.032543 -0.095349 0.016781 0.01415 -0.0068948 
0.014808 0.27376 -0.36778 -0.046683 -0.10143 0.018918 0.10655 0.044073 
-0.062796 0.40282 -0.50721 -0.003771 -0.066248 0.029605 0.18761 0.046211 
-0.091897 0.41022 -0.50408 0.070544 -0.025309 0.010533 0.20569 0.0037921 
-0.027118 0.32982 -0.3007 0.13286 0.01711 0.010697 0.1442 -0.050793 
0.055089 0.20717 -0.065097 0.1373 0.0065871 0.040456 0.042758 -0.10784 
0.066105 0.094877 0.1419 0.10918 0.0080668 0.037168 -0.097651 -0.10472 
0.026152 0.034537 0.2611 0.089616 0.013986 0.029934 -0.12626 -0.04882 
0.021056 -0.061809 0.317 0.075476 -0.020048 0.034702 -0.071509 0.1756 
0.028454 -0.15141 0.39756 0.04358 -0.034023 0.029605 -0.044217 0.41927 
0.073339 -0.20682 0.37422 0.012835 -0.069701 -0.00064712 -0.11278 0.42502 
0.13072 -0.27308 0.19484 -0.019719 -0.10965 -0.029584 -0.12544 0.18202 
0.13072 -0.24661 -0.23757 -0.097158 -0.14747 -0.018733 -0.081045 -0.062796 
0.097508 -0.086964 -0.60503 -0.073976 -0.13218 0.011684 -0.033694 -0.2351 
0.060515 0.05476 -0.57675 -0.047998 -0.081539 0.031085 -0.009361 -0.33145 
-0.030077 0.066763 -0.29002 0.024837 -0.063946 0.026152 0.0062583 -0.39836 
-0.086964 -0.035503 0.18596 0.015137 -0.058028 0.012177 0.040292 -0.33523 
-0.11048 0.01826 0.70584 -0.040928 -0.069865 0.020562 0.084026 -0.15635 
-0.1108 0.2491 0.66243 -0.034681 -0.080881 0.049828 0.13203 0.05476 
-0.098473 0.41154 -0.02087 -0.0080457 -0.056712 0.081395 0.17511 0.18054 
-0.030899 0.37471 -0.53335 0.049664 -0.032379 0.066105 0.13187 0.22707 
0.050814 0.2463 -0.49619 0.084684 -0.017582 0.030263 0.1008 0.18925 
0.13335 0.080573 -0.29215 0.058213 -0.041751 0.005765 0.023522 0.024015 
0.3101 -0.013636 -0.1404 -0.0013048 -0.079401 -0.003771 -0.025309 -0.047341 
0.32818 -0.012485 -0.18808 0.0021479 -0.062302 0.018589 0.018096 -0.051944 
0.11033 0.014479 -0.20353 0.10819 -0.038956 0.027139 0.12085 0.14206 
-0.11541 0.082711 -0.17098 0.094384 -0.0088678 0.052623 0.13253 0.18991 
-0.18561 0.068078 -0.11409 0.12168 0.01563 0.08715 0.094384 0.21227 
-0.15125 0.0074092 0.090603 0.13105 0.011848 0.076792 0.021878 0.22657 
-0.050958 -0.090088 0.27606 0.032071 -0.04471 0.024015 -0.055068 0.19287 
0.041114 -0.19367 0.13631 -0.02498 -0.088937 -0.028762 -0.11541 -0.0075525 
0.10787 -0.17739 -0.20929 -0.032543 -0.097487 -0.029913 -0.096829 -0.1353 
0.075312 -0.077757 -0.279 -0.0080457 -0.079895 0.0014903 -0.02646 -0.13168 
0.047691 0.037826 0.058213 -0.011334 -0.071838 0.016616 0.027961 -0.10784 
0.023357 0.14535 0.24959 -0.023501 -0.046847 0.020562 0.044238 -0.098473 
0.0075736 0.19796 0.19336 0.0047785 -0.066577 0.033058 0.016288 -0.057041 
-0.023665 0.24236 0.064296 0.01267 -0.049478 0.039963 0.037332 0.047691 
-0.041093 0.28165 0.04095 0.06183 -0.018404 0.057884 0.10935 0.10852 
-0.043888 0.24893 0.34791 0.1659 0.03799 0.07038 0.15571 0.12233 
-0.028104 0.21786 0.63054 0.12102 0.020562 0.043909 0.16969 0.14305 
-0.00081153 0.16525 0.56412 0.029934 -0.039613 0.034209 0.14174 0.16623 
0.073339 0.13056 0.1373 -0.0055795 -0.051287 0.044731 0.094384 0.096028 
0.065118 0.08304 -0.35151 0.01563 -0.054575 0.015465 0.0039565 -0.13037 
0.026481 -0.01939 -0.32882 0.031249 -0.043066 0.030263 -0.055397 -0.27193 
0.068407 -0.2203 0.22312 -0.0088678 -0.069865 -0.038791 -0.059178 -0.097816 
0.12398 -0.40708 0.80284 -0.050958 -0.14204 -0.039284 -0.047505 0.075148 
0.099316 -0.41513 1.0514 -0.07825 -0.14007 -0.0050863 -0.001798 0.18136 
0.0039565 -0.21619 0.62478 -0.046354 -0.10176 0.0421 0.041278 0.16673 
-0.027775 0.090438 -0.25154 -0.0022913 -0.066906 0.048184 0.068571 0.14585 
-0.044052 0.24137 -0.68642 -0.043395 -0.084827 0.038319 0.055747 0.098166 
-0.051451 0.23167 -0.65436 -0.041915 -0.094034 0.023851 0.058706 0.045224 
-0.015938 0.076956 -0.61703 0.019083 -0.038627 0.021549 0.049992 0.017932 
0.0059294 0.032071 -0.75826 0.11872 0.011848 0.043745 0.068736 0.020562 
-0.014458 0.18087 -0.76254 0.17051 0.055747 0.055089 0.076134 0.071202 
-0.012814 0.3415 -0.35019 0.16673 0.065118 0.026646 0.054925 0.097508 
-0.0073881 0.31634 0.24729 0.13401 0.01267 0.0067515 0.032564 0.09981 
0.021549 0.22986 0.66655 0.056076 -0.031721 0.010533 0.035688 0.090109 
0.081889 0.079916 0.79298 0.03536 -0.047834 -0.0052507 0.012177 0.030263 
0.12809 -0.054082 0.95591 0.037332 -0.062631 0.0039565 0.010369 -0.053588 
0.095699 -0.18528 1.3752 0.040128 -0.046683 0.056404 0.0013258 -0.088444 
0.10852 -0.19054 1.6336 -0.011334 -0.082854 0.0042853 -0.055397 -0.12856 
0.047197 -0.040764 0.9523 -0.040271 -0.087129 0.024837 0.0018191 -0.094856 
0.01267 0.16492 -0.18989 -0.056712 -0.10653 0.039634 -0.01117 -0.0771 
-0.050464 0.23693 -1.0499 -0.031721 -0.084005 0.034044 0.047526 0.13236 
-0.067728 0.11165 -1.133 -0.02087 -0.081045 0.0034632 0.070051 0.40233 
-0.085156 -0.070687 -0.57215 0.037661 -0.055397 -0.0022913 0.085177 0.45264 
-0.15026 -0.14204 0.084026 0.055911 -0.042901 0.018589 0.080244 0.41959 
-0.14073 -0.17262 0.54603 0.059693 -0.045368 0.0046141 -0.0067304 0.24466 
-0.019884 -0.25894 0.57497 0.047033 -0.056877 -0.0021268 -0.067728 0.01152 
0.10129 -0.30827 0.26077 0.031742 -0.077593 -0.036983 -0.1062 -0.37288 
0.17215 -0.35249 -0.17969 0.016616 -0.083183 -0.042901 -0.084663 -0.80594 
0.17873 -0.13859 -0.74495 0.024673 -0.044874 0.0075736 -0.099295 -0.98252 
0.20125 0.1636 -1.0996 0.060515 -0.046519 0.023686 -0.11015 -0.67704 
0.25896 0.39164 -0.87681 0.0421 -0.04471 0.028947 0.0011614 -0.17312 
0.25173 0.40841 -0.38472 0.047362 -0.031228 0.067749 0.12825 0.36468 
0.12858 0.3341 0.10047 0.054267 -0.029748 0.084026 0.17676 0.58713 
-0.043066 0.22871 0.37438 0.0065871 -0.046354 0.087972 0.12743 0.52137 
-0.11968 0.1636 0.40891 0.0056006 -0.048656 0.057227 0.096521 0.33196 
-0.14944 0.065776 0.41598 0.037826 -0.031557 0.050321 0.11625 0.2126 
-0.11837 -0.029748 0.41795 0.030427 -0.047834 0.023851 0.1345 0.17034 
-0.043559 -0.121 0.41812 0.01711 -0.059507 0.012013 0.057555 0.14864 
0.027632 -0.11968 0.38227 0.02533 -0.037147 0.0080668 -0.087622 0.047855 
0.088794 -0.11985 0.14946 0.08304 -0.04323 -0.0057439 -0.18643 -0.051122 
0.082053 -0.049314 -0.14846 0.047526 -0.059836 0.0021479 -0.14895 -0.071509 
0.070708 0.05624 -0.37321 0.04654 -0.056055 0.0023123 -0.052931 -0.065591 
0.047691 0.17511 -0.41168 0.058213 -0.053095 0.020069 0.038483 -0.02794 
0.024837 0.1927 -0.29495 0.039141 -0.058028 0.0070803 0.076627 -0.035996 
0.036675 0.14289 -0.21521 0.025659 -0.058685 0.0093821 0.063474 -0.069208 
0.052294 0.11609 -0.121 0.030098 -0.036983 -0.0090322 0.08863 -0.071509 
0.037661 0.15226 -0.067235 0.03947 -0.049314 0.039963 0.058377 -0.014293 
0.017274 0.11066 -0.045696 0.050157 -0.034023 0.067913 0.052623 0.0064227 
0.013986 0.046704 -0.10439 0.10787 0.021056 0.052459 0.094877 0.031249 
0.027632 0.045882 -0.2328 0.12151 -0.0036066 0.052952 0.1294 0.029605 
0.064461 0.074654 -0.29413 -0.033365 -0.084991 0.027468 0.12003 0.032893 
0.076463 0.0689 -0.39475 -0.12034 -0.13678 0.021384 0.12168 0.062981 
0.060186 0.025988 -0.30037 -0.019719 -0.086142 0.060515 0.09981 0.10984 
0.045718 -0.034516 -0.0050863 0.023686 -0.039284 0.054596 0.046211 0.12825 
0.062817 0.0080668 0.12102 0.014643 -0.046025 0.0079024 -0.023994 0.092247 
0.064132 0.017932 0.232 0.0095465 -0.040271 -0.016595 -0.072989 0.08863 
0.085999 0.1031 0.4242 0.0018191 -0.059014 -0.024158 -0.045861 0.10228 
0.02533 0.044731 0.51101 0.013821 -0.066084 0.010697 -0.01528 0.098494 
0.017274 0.081889 0.50098 -0.016266 -0.076442 -0.016595 -0.067399 0.015465 
0.0087245 0.10458 0.36485 -0.014129 -0.0965 -0.0067304 0.019576 -0.03616 
-0.0050863 0.10359 0.094055 -0.048985 -0.10456 0.015959 0.017438 -0.017582 
-0.016102 0.084848 -0.069865 0.0036276 -0.064768 0.094877 0.017603 0.069558 
-0.026953 0.08419 -0.20912 0.090109 -0.01676 0.061666 0.011848 0.099645 
-0.0059084 0.088465 -0.18693 0.066269 -0.023665 0.056404 0.023522 0.11691 
0.04506 0.075641 -0.076442 0.025659 -0.039942 0.041443 -0.0042642 0.095371 
0.074326 0.07449 -0.075949 0.016452 -0.010348 0.058542 -0.0090322 0.1105 
0.12266 0.14026 -0.045532 0.038648 -0.028269 0.047526 0.0092177 0.072188 
0.11559 0.17676 -0.063618 0.017274 -0.045696 0.032071 0.098659 0.062488 
0.036346 0.20421 -0.096336 0.053445 -0.032543 0.03388 0.1373 0.072517 
-0.045532 0.20717 -0.047669 0.11329 -0.014458 0.044896 0.13302 0.038812 
-0.10587 0.17232 -0.030077 0.071037 -0.026789 0.020398 0.1276 -0.014951 
-0.095349 0.10113 -0.034681 0.058542 -0.030406 0.027796 0.099316 -0.0013048 
-0.020706 -0.060329 0.062323 0.10458 -0.006566 0.01563 0.072024 0.082711 
0.049006 -0.19926 0.19287 0.082382 -0.026131 0.00017495 0.028454 0.12398 
0.036182 -0.21619 0.27787 0.068242 -0.018733 -0.010676 -0.032872 0.1567 
-0.023007 -0.10341 0.45478 0.0051074 -0.039778 0.0024767 -0.050629 0.15949 
-0.012978 -0.020541 0.67657 -0.038462 -0.094856 -0.010183 -0.0138 0.10376 
0.061666 0.0062583 0.7818 -0.12215 -0.14073 0.0032988 -0.013471 -0.010512 
0.078107 -0.026624 0.79758 -0.1307 -0.15125 0.01267 -0.020048 -0.0088678 
0.027632 -0.048985 0.62676 -0.050958 -0.10965 0.013492 0.028125 0.042265 
-0.01232 -0.040764 0.2588 -0.00064712 -0.07562 0.049335 0.055747 0.017932 
-0.016266 0.0088889 -0.33227 0.024673 -0.058521 0.025659 0.090274 -0.0406 
-0.0042642 0.052623 -0.77816 0.034044 -0.04882 0.0064227 0.040785 -0.0060728 
-0.013307 0.11115 -0.84228 0.026317 -0.069208 -0.004593 -0.022021 0.066598 
0.01004 0.12792 -0.64745 0.023686 -0.063289 -0.016431 -0.083018 0.050486 
0.047691 0.13664 -0.3811 0.062159 -0.011005 0.023193 -0.089595 -0.026296 
0.07597 0.089452 -0.1307 0.13664 0.0095465 0.037826 -0.057534 -0.089266 
0.060844 0.063968 0.081231 0.13976 0.023686 0.065118 -0.041422 -0.063124 
0.030592 0.025988 0.26751 0.14469 0.029112 0.048841 -0.053753 -0.076113 
0.038155 0.032564 0.54422 0.08567 -0.019555 0.025659 -0.0011404 -0.026296 
0.035853 0.074819 0.6626 0.014643 -0.060658 0.039963 0.033715 -0.00097594 
0.0013258 0.1026 0.33788 0.0016547 -0.07266 0.019247 0.041607 0.022206 
-0.0029489 0.093069 0.036675 0.06183 -0.034188 0.0090533 0.067256 -0.031557 
-0.0073881 0.069558 -0.0088678 0.081889 -0.029091 0.013986 0.083533 -0.073154 
-0.0138 0.035688 -0.022514 0.064461 -0.028762 0.034209 0.088136 -0.049971 
-0.027775 -0.0062372 -0.09946 0.027796 -0.025145 0.044567 0.093398 0.048513 
-0.049642 -0.020212 -0.19663 0.03536 -0.055232 0.028947 0.099152 0.14108 
-0.018568 -0.11048 -0.23592 0.022864 -0.062796 0.012999 0.078107 0.14124 
0.032564 -0.11327 -0.32602 -0.02942 -0.097158 -0.021528 0.035853 -0.0019624 
0.0786 -0.072332 -0.11459 -0.017911 -0.089102 0.01826 0.024837 -0.071509 
0.085506 -0.027282 -0.045039 -0.0098543 -0.081868 0.01711 0.020398 -0.05589 
0.088301 0.048513 0.040621 -0.010183 -0.073482 0.030756 0.0026412 -0.039778 
0.11181 0.02681 0.30993 0.0024767 -0.051615 0.010862 -0.017088 -0.072332 
0.13401 -0.0040998 0.61607 0.016288 -0.061645 0.013164 -0.015773 -0.07562 
0.10162 -0.09091 0.60719 0.047033 -0.040106 0.030098 -0.004593 0.036346 
0.065283 -0.21965 0.5868 0.081395 -0.017253 0.01267 -0.01528 0.14502 
0.060515 -0.29889 0.46152 0.062817 -0.057534 -0.026131 -0.057863 0.10639 
0.066434 -0.14352 0.16738 -0.049971 -0.11113 -0.024652 -0.060494 0.0018191 
0.037826 0.09833 -0.091897 -0.091075 -0.1358 -0.039613 -0.018897 0.035524 
0.0059294 0.23101 -0.30843 -0.026131 -0.096994 0.0095465 0.024344 0.093562 
-0.088444 0.25239 -0.522 0.067749 -0.032872 0.031742 0.051143 0.053774 
-0.15043 0.2657 -0.41152 0.1562 0.031249 0.052294 0.041607 -0.073647 
-0.1547 0.29694 -0.32158 0.17297 0.062652 0.072024 0.067913 -0.13974 
-0.096007 0.30072 -0.37255 0.1442 0.02122 0.066927 0.039634 -0.13136 
-0.030406 0.22131 -0.46594 0.11017 0.0032988 0.058049 0.055089 -0.069043 
0.028783 0.13105 -0.31106 0.058542 -0.029748 0.033551 0.057555 -0.17871 
0.10458 -0.0044286 0.01152 0.021384 -0.070194 0.022206 0.069064 -0.18315 
0.13467 -0.10505 0.22427 -0.03912 -0.088773 0.015137 0.046868 0.0093821 
0.15538 -0.18956 0.43028 -0.06148 -0.097816 0.028125 -0.018075 0.15686 
0.14996 -0.20995 0.61607 -0.02942 -0.077264 0.0075736 -0.010676 0.20586 
0.11806 -0.13432 0.50114 -0.017253 -0.090088 0.00083261 0.068242 0.1904 
0.043909 0.018754 0.20323 -0.018568 -0.081045 0.0064227 0.16804 0.18103 
-0.039284 0.13319 -0.027447 -0.02235 -0.059672 0.032893 0.19484 0.10935 
-0.077428 0.21589 -0.14204 0.017932 -0.063946 0.048184 0.14733 0.058049 
-0.094199 0.27376 -0.17821 0.055418 -0.031557 0.03092 0.019576 -0.0075525 
-0.082032 0.25995 -0.18545 0.12316 0.0070803 -0.0013048 -0.07266 0.0016547 
-0.0027845 0.14585 -0.27456 0.1659 0.031742 0.0044497 -0.08121 0.021878 
-0.010676 0.081395 -0.31057 0.16278 0.026317 0.013821 -0.071181 0.051801 
0.0052718 0.064954 -0.20732 0.13253 0.0056006 0.025495 -0.014622 0.059857 
0.013821 0.08863 -0.092226 0.029441 -0.035503 0.028947 0.025988 0.070708 
0.0090533 0.10573 -0.011498 -0.035503 -0.096994 0.029112 0.057555 0.076627 
0.00017495 0.083204 0.14519 -0.080223 -0.10735 0.01826 0.023686 0.060022 
0.087972 0.065283 0.14765 -0.094856 -0.10291 0.020398 -0.022514 0.052294 
0.27261 0.037168 0.0067515 -0.079566 -0.13004 -0.0032777 -0.012156 0.035853 
0.23315 0.059528 -0.020048 -0.061973 -0.10817 0.013821 0.053938 0.14354 
-0.027775 0.048019 0.08567 0.0079024 -0.060658 0.036675 0.12233 0.22542 
-0.20551 -0.0088678 0.11609 0.065283 -0.033859 0.032893 0.13943 0.21112 
-0.24661 -0.20814 -0.016431 0.029112 -0.061151 0.055582 0.099645 0.074161 
-0.15503 -0.1085 0.011355 0.038977 -0.044381 0.053281 0.038977 -0.10834 
