0.11625 0.012835 -0.31533 0.1322 0.023522 0.044731 0.058871 0.093069 
0.18678 0.065118 -0.2716 0.15094 0.023028 0.024837 0.058377 0.059528 
0.28395 0.1562 -0.079566 0.11855 0.0041209 -0.00064712 0.040456 0.00017495 
0.34544 0.2269 -0.02235 0.051636 -0.019884 -0.0039354 0.034866 -0.022021 
0.39526 0.20898 -0.021856 0.039799 -0.052109 0.02122 0.041772 -0.025638 
0.4607 0.17774 -0.010676 0.028783 -0.044874 0.025166 0.052294 -0.0039354 
0.4773 0.10984 -0.091239 0.033551 -0.029748 0.030427 0.04358 0.0070803 
0.4025 0.040456 -0.21899 0.1179 0.022042 0.052294 0.054596 0.0039565 
0.11362 0.090109 -0.25269 0.16229 0.045718 0.057227 0.065776 0.016123 
-0.16966 0.10967 -0.14599 0.055089 -0.019719 0.061172 0.050486 0.036675 
-0.34082 0.058706 0.056404 -0.099789 -0.10538 0.030098 0.037661 0.072353 
-0.44341 -0.0095255 0.17133 -0.19153 -0.19186 0.009711 0.019083 0.11346 
-0.4296 -0.0090322 0.042265 -0.20107 -0.1912 0.015137 -0.0091966 0.12398 
-0.3155 0.0046141 -0.045696 -0.13826 -0.15881 0.011026 0.0028056 0.046868 
-0.1307 -0.028926 -0.044217 0.0051074 -0.086142 0.01711 0.016781 -0.0090322 
-0.030077 0.0082312 -0.077264 0.095206 -0.015938 0.017438 0.012835 -0.092061 
0.059857 0.1368 -0.15931 0.13138 0.011848 0.021056 0.01152 -0.076935 
0.13812 0.2218 -0.27308 0.15653 0.032071 0.011191 0.047033 -0.02646 
0.24532 0.19895 -0.27571 0.14535 0.018425 0.042758 0.022864 -0.014129 
0.25041 0.16459 -0.17575 0.1493 0.025988 0.038319 0.00017495 -0.034023 
0.1322 0.090767 -0.075127 0.1567 0.05476 0.048348 0.01152 -0.0060728 
0.011355 0.052952 0.028454 0.15555 0.021878 0.060186 0.039634 0.027468 
-0.061973 0.035195 0.18629 0.033551 -0.038462 0.047362 0.0786 0.061666 
-0.085156 0.018918 0.41696 -0.038133 -0.089102 0.063803 0.073997 0.056898 
-0.10834 -0.031886 0.5577 -0.073482 -0.11903 0.0080668 0.068078 0.076627 
-0.090746 0.047691 0.3198 -0.12626 -0.13678 0.038648 0.044402 0.068571 
-0.023336 0.14864 0.11395 -0.13119 -0.12905 0.0592 0.021384 0.020562 
0.0036276 0.21802 0.12118 -0.027447 -0.051122 0.048184 0.044073 0.034373 
0.028783 0.25206 0.15472 0.058871 -0.035667 0.033058 0.033222 0.020233 
0.059857 0.14881 0.20914 0.079587 -0.037805 0.0031344 0.01974 0.047526 
0.09833 -0.079237 0.29793 0.04654 -0.056712 -0.023829 0.034702 0.059528 
0.12957 -0.21817 0.35038 0.089945 -0.035338 -0.0088678 0.03947 0.086985 
0.14026 -0.085485 0.1733 0.096028 1.0539e-005 0.051636 0.044073 0.065612 
0.12447 0.068078 -0.10193 0.038483 -0.018897 0.061995 0.034702 0.037168 
0.1544 0.074819 -0.25171 -0.0090322 -0.056877 0.034866 -0.0042642 -0.0077169 
0.052952 0.032564 -0.22162 -0.052602 -0.10538 -0.0024557 0.014808 0.020398 
-0.09946 0.045882 -0.029584 -0.014458 -0.087129 -0.010183 0.016781 0.0046141 
-0.13875 0.088465 0.065118 0.0421 -0.039942 0.0069159 -0.0032777 0.0095465 
-0.072167 0.092576 -0.0052507 0.1419 -0.0080457 0.029605 -0.0027845 -0.022514 
-0.00097594 0.10803 0.035031 0.12168 -0.0019624 0.05213 0.015465 0.0079024 
-0.041751 0.14552 0.022864 0.056404 -0.034845 0.035853 0.035688 0.0039565 
-0.13727 0.099645 -0.012485 0.075148 -0.044052 0.032893 0.025495 0.020069 
-0.19581 0.042758 0.019905 0.087808 -0.011827 0.029605 0.022535 0.029276 
-0.194 -0.01676 0.13088 0.1197 0.0051074 0.022042 0.023028 0.04358 
-0.10127 -0.079895 0.27392 0.14881 0.033387 0.0072447 0.013821 0.085177 
0.032236 -0.058028 0.36731 0.13631 0.010204 0.016616 0.090767 0.10441 
0.12908 -0.02646 0.38211 -0.037311 -0.083018 0.033387 0.13516 0.13565 
0.1641 -0.047176 0.29826 -0.12396 -0.11804 0.049006 0.13779 0.10787 
0.16722 0.0026412 0.12644 -0.11294 -0.12412 0.050486 0.10754 0.11083 
0.20306 0.12118 0.021549 -0.075784 -0.097158 0.02122 0.063639 0.072681 
0.21753 0.21178 -0.010676 -0.018404 -0.082196 0.0082312 0.016781 0.034866 
0.27606 0.21917 -0.008539 0.04095 -0.05589 0.010697 -0.021034 -0.053588 
0.26768 0.232 0.0324 0.025001 -0.067728 0.015301 -0.058192 -0.052437 
0.18251 0.183 0.041278 0.026481 -0.055726 0.0079024 -0.089924 -0.07562 
0.0227 0.054267 -0.013307 0.058377 -0.014622 0.026152 -0.013965 0.0018191 
-0.084827 -0.031557 -0.0073881 0.078107 -0.036983 0.02829 0.020562 0.037661 
-0.1598 -0.040435 0.022535 0.030427 -0.061645 0.020398 -0.0047575 0.049335 
-0.22474 -0.06444 0.04654 -0.0024557 -0.078908 -0.0034422 1.0539e-005 0.041278 
-0.27177 -0.10028 0.10162 0.033222 -0.06707 0.009711 0.087314 0.10639 
-0.17739 -0.13201 0.093726 0.026974 -0.049478 0.020891 0.14634 0.11148 
0.15571 -0.22951 0.13434 0.018918 -0.060987 0.0052718 0.14338 0.076134 
0.37635 -0.27801 0.038648 0.025001 -0.063618 0.01415 0.16508 0.058542 
0.20224 -0.17904 -0.12314 0.02122 -0.069536 0.0054362 0.17873 0.080738 
-0.15273 -0.13448 -0.14878 -0.035503 -0.10867 -0.011827 0.14519 0.1008 
-0.34772 -0.083183 -0.17723 -0.06855 -0.099131 -0.028433 0.0013258 0.0324 
-0.10768 0.036839 -0.14418 -0.021528 -0.084827 0.0085601 -0.10867 -0.03353 
0.27573 0.27244 -0.23954 0.087479 0.00050378 0.047855 -0.11722 -0.060165 
0.34807 0.41631 -0.27127 0.13664 0.033058 0.031578 -0.086636 -0.031557 
0.23627 0.44212 -0.21998 0.13368 0.0095465 0.015137 -0.10604 -0.0075525 
0.077285 0.32884 -0.10176 0.039799 -0.050464 -0.0060728 -0.13168 0.0039565 
0.0019835 0.19583 -0.021692 -0.014787 -0.079566 -0.01117 -0.12642 0.01711 
-0.0014692 0.090603 -0.028597 0.0054362 -0.046354 -0.0091966 -0.09091 0.033222 
-0.01117 0.059528 -0.0090322 0.079094 -0.013471 0.0093821 -0.11196 -0.015444 
-0.032872 0.058871 0.01563 0.1442 0.041936 0.057391 -0.084991 0.0046141 
0.059857 0.03092 -0.0077169 0.16771 0.055747 0.038483 -0.012485 0.047526 
0.25633 -0.078579 -0.03353 0.18613 0.044238 0.032236 0.049828 0.08156 
0.084355 -0.16309 0.076627 0.048184 -0.029584 0.025166 0.13943 0.077614 
-0.44424 -0.14878 0.16623 -0.07003 -0.10916 0.032071 0.20224 0.026974 
-0.6435 -0.029584 0.20257 -0.080717 -0.11574 0.061501 0.22871 0.1248 
-0.41382 0.093562 0.10819 -0.087786 -0.1279 0.059035 0.22789 0.19188 
-0.013307 0.14716 0.030427 -0.11442 -0.13201 0.052623 0.12069 0.18794 
0.32884 0.017274 0.010697 -0.048327 -0.077264 0.0080668 0.0087245 0.03947 
0.50575 -0.1182 0.0032988 0.0065871 -0.084991 -0.040435 -0.10949 -0.046025 
0.439 -0.16506 -0.053753 -0.034845 -0.10341 -0.05589 -0.15799 -0.11179 
0.31519 -0.10817 -0.18134 -0.061809 -0.10998 -0.02646 -0.12955 -0.13218 
0.16492 -0.024158 -0.36334 -0.029584 -0.098144 0.0042853 -0.098802 -0.1256 
0.12891 0.058377 -0.35068 -0.047341 -0.093048 0.0042853 -0.044381 -0.10883 
0.19649 0.11477 -0.17493 -0.030077 -0.075784 0.0079024 -0.013965 -0.05737 
0.10573 0.24269 -0.014622 -0.010676 -0.053588 -0.0047575 0.016616 0.01267 
0.0039565 0.30187 0.087314 0.0074092 -0.069536 -0.00031829 0.0036276 0.015301 
-0.043066 0.24186 0.05476 0.039963 -0.042901 0.024508 0.042594 0.076463 
-0.085156 0.16475 0.020727 0.062159 -0.017417 0.034209 0.018589 0.072681 
-0.15109 0.10474 0.03947 0.072353 -0.023172 0.065612 0.02829 0.10113 
-0.25763 -0.05178 0.043087 0.054103 -0.021363 0.064132 0.069229 0.14437 
-0.24612 -0.085485 0.02681 0.091918 -0.00015387 0.089123 0.12792 0.12118 
-0.012649 -0.038791 0.058213 0.1179 0.016123 0.065447 0.15094 0.074326 
0.31536 -0.018239 0.16196 0.084684 -0.027611 0.020398 0.093233 -0.024816 
0.60752 -0.11228 0.23348 0.021384 -0.065097 -0.0064016 -0.0016336 -0.074962 
0.56724 -0.18002 0.27294 -0.01117 -0.063618 -0.013965 -0.065755 -0.15158 
0.25962 -0.12166 0.36205 -0.023829 -0.093705 -0.0014692 -0.054904 -0.10916 
-0.0060728 0.057227 0.40447 -0.008539 -0.076771 -0.00015387 -0.020706 -0.046354 
-0.058028 0.1853 0.48964 0.039799 -0.044052 0.015301 0.026317 0.04654 
-0.077757 0.31832 0.41943 0.056076 -0.042901 0.0421 0.069886 0.057391 
-0.13432 0.3729 0.17643 -0.025145 -0.081374 0.045553 0.11313 0.083533 
-0.11574 0.34314 0.10244 -0.087622 -0.12297 0.04358 0.15801 0.073668 
-0.10982 0.069722 0.12875 -0.14895 -0.1547 0.038155 0.15768 0.048513 
-0.09091 -0.27144 0.0062583 -0.16983 -0.1889 0.0023123 0.12957 0.026152 
-0.0091966 -0.51329 -0.12527 -0.10291 -0.14928 -0.023172 0.082546 0.018425 
0.11921 -0.39343 -0.24645 0.018918 -0.059178 0.011848 0.08008 0.054596 
0.32555 -0.098967 -0.25352 0.12628 -0.0091966 0.068078 0.1003 0.076299 
0.52729 0.20651 -0.13826 0.076956 -0.0027845 0.066105 0.087479 0.071695 
0.5628 0.38293 -0.0054151 0.0028056 -0.043724 0.076956 0.098494 0.057555 
0.31799 0.35761 0.12233 0.034044 -0.039449 0.051636 0.080738 0.07038 
0.083862 0.23249 0.083697 0.0047785 -0.064275 0.055582 0.10162 0.0062583 
-0.15191 0.15703 -0.023172 -0.015773 -0.06707 0.049006 0.12151 0.0070803 
-0.27144 0.096193 -0.032872 -0.051451 -0.071838 0.014808 0.14141 -0.0029489 
-0.31007 0.01826 0.030263 -0.049149 -0.10275 0.013164 0.12332 -0.031886 
-0.44341 -0.07266 0.14568 -0.023994 -0.086471 -0.0019624 0.1031 -0.079401 
-0.29791 -0.00015387 0.13006 0.048019 -0.03057 0.042758 0.040128 -0.015444 
0.1345 0.023851 0.13236 0.18794 0.045389 0.055089 0.00033937 0.020069 
0.29349 -0.03057 0.28527 0.23364 0.077943 0.05772 -0.016924 0.058706 
0.064461 -0.081539 0.31996 0.25814 0.077285 0.021713 -0.02498 0.058871 
-0.098144 -0.047012 0.10474 0.17001 0.020069 -0.0031133 -0.050629 0.042265 
-0.11113 0.031742 -0.084663 0.007738 -0.087293 0.022371 -0.11738 0.012506 
-0.087786 0.12168 -0.1205 -0.10028 -0.1381 0.025001 -0.11311 0.072681 
-0.026953 0.15176 -0.069208 -0.14139 -0.14023 0.014972 -0.069208 0.1202 
0.086163 0.15587 -0.00081153 -0.14188 -0.16736 -0.0047575 -0.015444 0.11592 
0.1978 0.1664 -0.03616 -0.1182 -0.13547 -0.003771 0.044896 0.11839 
0.21621 0.16541 -0.047669 -0.058356 -0.089431 0.051308 0.098823 0.082053 
0.23825 0.18415 -0.038956 0.019576 -0.033694 0.069229 0.10145 0.058706 
0.31437 0.18366 0.037004 0.038977 -0.033694 0.032236 0.092247 -0.014951 
0.2833 0.12266 0.13828 0.036182 -0.0503 -0.0042642 0.060186 -0.0059084 
0.066763 0.047197 0.2759 0.10852 0.016452 0.0092177 0.017603 0.011848 
-0.15668 -0.10521 0.44935 0.21161 0.057391 0.037661 0.0016547 0.04358 
-0.29922 -0.19761 0.32128 0.25584 0.088794 0.049335 -0.0072237 0.061501 
-0.31435 -0.10012 -0.0024557 0.23414 0.067091 0.036839 0.016781 0.069064 
-0.23592 -0.013636 -0.25812 0.25633 0.061337 0.013328 0.0028056 0.041607 
-0.10686 -0.11804 -0.45591 0.20092 0.050814 0.031907 -0.013471 0.016945 
0.029934 -0.14418 -0.60043 0.10721 -0.0026201 0.041772 -0.015609 0.0093821 
0.18909 0.013328 -0.55538 0.025988 -0.050464 0.027139 -0.034516 -0.030735 
0.19862 0.14585 -0.35299 -0.042079 -0.093212 0.02681 -0.023994 -0.047012 
0.0079024 0.23545 -0.17032 -0.046847 -0.091897 0.012999 -0.041915 -0.035503 
-0.053424 0.24564 -0.032379 0.015301 -0.036818 0.026974 -0.040271 0.012835 
0.086821 0.22986 0.1539 0.029605 -0.048327 0.010204 -0.03353 0.08008 
0.13401 0.21391 0.27573 0.011684 -0.052437 0.016452 0.005765 0.14289 
0.12118 0.14963 0.2805 -0.028269 -0.073318 0.023357 0.017438 0.1493 
0.15193 0.044731 0.25765 -0.014787 -0.080388 0.0054362 -0.014787 0.068736 
0.26143 -0.099789 0.25173 0.10491 -0.0050863 0.0044497 -0.07414 -0.065591 
0.24729 -0.218 0.26422 0.3535 0.12957 -0.021199 -0.1011 -0.052602 
0.11576 -0.19498 0.30418 0.4607 0.23775 0.027632 -0.010348 -0.033859 
-0.074962 -0.061809 0.23101 0.30533 0.1225 0.048513 0.012177 0.061666 
-0.182 0.10639 0.054103 0.038648 -0.027447 0.067091 0.031907 0.089123 
-0.13793 0.11921 -0.16095 -0.0868 -0.11048 0.058871 0.031578 0.056898 
-0.025967 0.045224 -0.44226 -0.065426 -0.12363 0.032071 0.034209 0.0016547 
0.080244 -0.079401 -0.54124 -0.10209 -0.13777 -0.0054151 0.023193 -0.023994 
0.11987 -0.13152 -0.41596 -0.090088 -0.1279 -0.0040998 0.016288 -0.03057 
0.074161 -0.091404 -0.13941 -0.0013048 -0.080059 0.0090533 0.01711 0.0036276 
-0.0042642 0.080902 0.059528 0.0062583 -0.08384 0.012013 0.047855 0.040128 
-0.13727 0.22986 0.16623 0.02533 -0.065097 0.014643 0.060515 0.041114 
-0.23461 0.28247 0.28773 0.062323 -0.017911 0.016945 0.064461 0.055254 
-0.0965 0.1853 0.33854 0.12036 -0.0095255 0.024015 0.068407 0.035524 
0.063803 0.10721 0.30549 0.12398 0.0060938 0.045389 0.062323 0.068571 
0.031249 0.02681 0.27129 0.13088 0.0087245 0.0421 0.084355 0.10178 
0.00017495 -0.0047575 0.17807 0.14256 0.012342 0.035524 0.075148 0.10014 
0.11987 -0.091075 0.092576 0.046046 -0.037311 0.020069 0.03388 0.036017 
0.24564 -0.23642 0.10573 -0.049149 -0.098309 0.0069159 -0.025638 -0.012978 
0.21967 -0.23494 0.061337 -0.058356 -0.10735 0.01004 -0.035503 -0.066084 
0.26274 -0.080881 0.031249 -0.032872 -0.12067 -0.026624 -0.037805 -0.040435 
0.39033 0.0051074 -0.0004827 -0.062631 -0.11343 -0.042244 -0.06148 -0.040435 
0.4071 0.029934 -0.059507 -0.024652 -0.070523 0.011684 -0.0078813 -0.021034 
0.19649 0.01415 -0.098802 -0.0073881 -0.07003 0.074654 0.071037 -0.019226 
0.09422 0.0324 -0.03057 -0.090581 -0.10817 0.071366 0.1322 0.005765 
-0.044546 -0.011005 0.10688 -0.13547 -0.14533 0.045224 0.13664 0.031414 
-0.27653 -0.011498 0.17939 -0.0771 -0.11459 0.019576 0.063968 0.052294 
-0.39146 0.13023 0.18596 -0.012485 -0.085649 0.0088889 0.018096 0.081889 
-0.29199 0.30697 0.12349 0.080738 -0.027611 0.040621 0.030098 0.099481 
-0.084991 0.3461 0.1202 0.12053 0.024508 0.034044 0.0592 0.087643 
0.15324 0.20684 0.14634 0.10129 -0.019061 0.021056 0.024344 0.025824 
0.23907 -0.077593 0.16442 0.012835 -0.061809 -0.018568 -0.018075 0.0044497 
0.11296 -0.25121 0.034373 -0.0083746 -0.076442 0.00099702 -0.022843 -0.02942 
-0.020377 -0.15191 -0.15043 0.020562 -0.064933 0.015465 0.012835 0.010204 
-0.043066 0.050321 -0.23888 0.0092177 -0.054739 0.023028 0.054432 0.017603 
-0.0062372 0.20454 -0.18052 0.075476 -0.013965 0.021056 0.064296 0.080244 
-0.012156 0.31552 -0.11623 0.079094 0.019576 0.037826 0.063474 0.092082 
0.037332 0.23956 -0.17394 0.025659 -0.062302 0.034209 0.051636 0.075805 
0.183 0.22608 -0.11278 0.024673 -0.055561 0.053116 0.082875 0.014972 
0.1516 0.12431 -0.050793 -0.051615 -0.09239 0.043745 0.090603 0.043087 
0.074983 0.034209 0.0062583 -0.11689 -0.15931 0.029934 0.062323 0.044073 
0.046046 -0.085485 0.03388 -0.16046 -0.17197 -0.030077 -0.012485 0.010204 
0.072353 -0.14714 0.00050378 -0.11327 -0.14698 -0.0027845 -0.011992 -0.022185 
0.065118 -0.069208 0.10277 -0.073811 -0.10258 0.020233 0.0023123 -0.0059084 
0.086163 -0.098967 0.34742 -0.066741 -0.11311 0.0036276 -0.0021268 -0.0027845 
0.062817 -0.062467 0.42782 -0.014458 -0.074469 0.0054362 0.00297 0.0024767 
0.0062583 0.06742 0.25041 0.033387 -0.031557 -0.01117 0.0087245 -0.020541 
-0.043888 0.22723 0.053609 0.050979 -0.049478 0.011684 0.018096 -0.041093 
0.029934 0.26768 -0.07562 0.027303 -0.053095 0.012013 0.022371 -0.011334 
0.10902 0.18958 -0.24447 0.093891 -0.0034422 0.026646 0.023028 0.019576 
0.022371 0.058049 -0.27423 0.10737 -0.0067304 0.03536 0.016616 0.08863 
-0.054082 0.0060938 -0.14813 0.05476 -0.035174 0.03536 0.026481 0.081724 
0.037497 -0.026789 -0.045696 0.015137 -0.053095 0.049006 0.037168 0.066763 
0.070215 -0.055068 0.025166 0.0083956 -0.052109 0.018425 0.016616 0.046046 
0.047526 -0.038956 0.038319 0.024344 -0.077428 -0.012814 -0.031557 0.032071 
0.044731 0.096193 0.010533 0.055911 -0.041751 0.005765 -0.029748 0.02122 
0.086985 0.22624 -0.024487 0.11033 0.012506 0.053281 0.068736 0.027796 
0.11559 0.24581 0.012506 0.092082 -0.013307 0.065612 0.14289 0.041443 
0.067585 0.14338 0.046868 0.03388 -0.037476 0.055089 0.13878 0.065447 
0.01152 0.060186 0.1197 0.050979 -0.022514 0.026974 0.062323 0.022042 
0.029934 -0.024816 0.16426 0.097344 -0.0040998 0.0085601 0.03388 -0.0087034 
0.010697 -0.034352 0.11625 0.079587 -0.013307 0.03388 0.052623 -0.014458 
-0.13218 -0.0073881 0.024179 0.077449 -0.022021 0.020398 0.048348 0.019411 
-0.32224 0.0021479 -0.083018 0.071037 -0.013143 0.02533 0.027961 0.088136 
-0.35627 -0.09239 -0.069372 0.021056 -0.072003 0.01974 0.0041209 0.10885 
-0.15026 -0.15355 -0.054575 -0.025802 -0.097651 0.016123 -0.0013048 0.089123 
0.081231 0.004943 -0.052931 -0.045368 -0.10702 0.00033937 -0.059014 0.044896 
0.18794 0.20224 -0.044052 0.026646 -0.066906 0.01826 -0.095185 0.013986 
0.18596 0.2075 -0.065591 0.040456 -0.043724 0.0080668 -0.08269 -0.065426 
0.14206 0.17593 -0.14023 0.055911 -0.031886 0.0051074 -0.027775 -0.045039 
0.15456 0.14634 -0.10456 0.065118 -0.023994 0.013492 0.01004 -0.06 
0.31536 -0.0031133 0.098166 0.024179 -0.06296 -0.01528 -0.019555 -0.057041 
0.36912 -0.18019 0.14585 -0.021199 -0.088444 -0.0082102 -0.023829 -0.06707 
0.18958 -0.18709 -0.010841 -0.056383 -0.080223 0.01974 0.010204 0.0064227 
-0.024158 -0.040435 -0.065426 -0.008539 -0.078086 0.056076 0.081395 0.064625 
-0.096994 0.13549 -0.07414 -0.012156 -0.051944 0.074983 0.10507 0.12053 
-0.095843 0.15341 0.0059294 0.031085 -0.026789 0.062159 0.12957 0.12151 
-0.083018 0.16558 0.026646 0.074654 -0.0138 0.060679 0.11543 0.08863 
-0.025638 0.16278 0.16508 0.055089 -0.024487 0.053938 0.075805 0.076463 
-0.013636 0.17001 0.44607 0.020398 -0.046683 0.016452 0.043087 0.022864 
-0.14204 0.09685 0.74859 0.031742 -0.029748 0.01563 0.0023123 0.026317 
-0.19992 0.02829 0.85365 0.055418 -0.045368 0.0034632 -0.013471 0.016781 
-0.16654 0.039141 0.55129 0.011684 -0.070359 -0.0040998 -0.023172 0.047197 
-0.025638 0.071037 -0.020212 0.013492 -0.063289 -0.027282 -0.015116 -0.020541 
0.08304 0.078107 -0.37452 0.0689 -0.03205 0.010697 0.0052718 -0.041751 
0.20947 0.095042 -0.18824 0.050157 -0.038462 0.0072447 0.051636 -0.046847 
0.3119 0.048513 0.16163 -0.016102 -0.086307 -0.0060728 0.060679 0.018754 
0.30746 0.04506 0.14239 -0.015609 -0.078415 0.0064227 0.035853 0.073832 
0.24219 0.037661 -0.083018 0.020562 -0.054739 0.029605 0.043087 0.10277 
0.13302 0.054267 -0.22803 0.032893 -0.034516 0.059693 0.053445 0.10063 
-0.027282 0.0088889 -0.23083 0.0037921 -0.025638 0.051472 0.06183 0.08863 
-0.056712 -0.027282 -0.10456 -0.033694 -0.084498 0.048019 0.016781 0.068078 
0.085341 -0.12314 0.067913 -0.057863 -0.088773 0.020562 -0.021528 0.0016547 
0.25354 -0.16194 0.18563 -0.013636 -0.063946 0.03388 -0.045696 0.0041209 
0.26422 -0.19466 0.25518 0.070544 -0.033694 0.015794 -0.088444 -0.013307 
0.10293 -0.1552 0.32851 0.065776 -0.03501 -0.0004827 -0.11163 -0.021856 
-0.18627 -0.098473 0.24088 0.088794 -0.020706 0.0042853 -0.072496 -0.021363 
-0.58481 -0.0019624 0.10228 0.147 0.033551 -0.011498 0.027139 0.036839 
-0.6948 0.073504 0.091425 0.13664 0.019411 0.069886 0.077614 0.033058 
-0.32652 0.10063 0.068407 0.08008 -0.0096899 0.049499 0.11263 0.050979 
0.1151 0.15999 0.046211 0.018096 -0.042244 0.026646 0.10458 0.027303 
0.35399 0.22164 0.047526 -0.0077169 -0.082196 0.018425 0.096686 0.015959 
0.41236 0.19862 0.059035 -0.015773 -0.078908 -0.0019624 0.07597 -0.016102 
0.37635 0.14831 0.084848 0.0069159 -0.070359 -0.004593 0.062817 0.0024767 
0.2486 0.1202 0.071695 0.025988 -0.074304 -0.0080457 0.025166 0.012506 
0.13023 0.073832 0.022864 0.0092177 -0.084827 -0.011827 0.058377 0.062159 
0.037661 0.066598 0.0042853 0.028783 -0.055068 0.013492 0.095042 0.087479 
0.037826 -0.023829 0.082875 0.058542 -0.019061 0.034373 0.075641 0.078272 
0.048019 -0.1866 0.14157 0.054432 -0.036489 0.0324 0.0085601 0.032236 
-0.003771 -0.17476 0.083862 0.039634 -0.036489 0.035195 0.0036276 0.015465 
-0.12642 -0.0095255 -0.047341 0.10014 0.0075736 0.044896 0.010697 0.011355 
-0.045203 0.12562 -0.0965 0.17117 0.029769 0.040456 0.012999 -0.008539 
0.02533 0.12776 -0.1279 0.14371 0.020562 0.042923 0.016288 0.025495 
-0.057041 0.071037 -0.21077 0.065283 -0.029584 0.0042853 0.01152 0.029605 
-0.11442 0.1026 -0.33391 0.017274 -0.048985 0.0034632 -0.0016336 0.031907 
-0.13514 0.15308 -0.36104 -0.051615 -0.094199 0.0056006 0.036675 0.022042 
-0.055068 0.13171 -0.21751 -0.092554 -0.11607 0.018589 0.029769 0.032893 
0.078765 0.12579 -0.00081153 -0.049314 -0.089595 -0.0073881 0.014643 0.015137 
0.089123 0.069886 0.08419 -0.043888 -0.11607 0.0064227 0.0052718 0.0034632 
0.18399 0.017932 0.10047 -0.039778 -0.09798 0.00066819 0.027632 -0.01939 
0.24367 -0.047669 -0.065262 0.044896 -0.04471 0.026481 0.044731 0.0028056 
0.22361 -0.022679 -0.13053 0.11806 -0.0040998 0.061337 0.045882 -0.0077169 
0.23578 0.0079024 -0.10324 0.069229 -0.023829 0.04095 0.066105 0.037168 
0.061501 -0.093376 -0.032215 0.037004 -0.035832 0.023357 0.04654 0.070544 
-0.13497 -0.10735 -0.04619 0.054596 -0.0022913 0.026152 0.039305 0.080573 
-0.20173 -0.030077 -0.24677 0.089945 -0.003771 0.036675 0.027139 0.071695 
-0.23757 0.14042 -0.36433 0.091918 -0.0083746 0.04917 0.012013 0.037332 
-0.23543 0.22016 -0.32717 0.06331 -0.028104 0.021878 0.022206 0.01711 
-0.17394 0.20684 -0.21882 0.077943 -0.038627 0.02122 0.034044 0.0042853 
-0.027775 0.089287 -0.067235 0.046375 -0.046519 0.02829 0.039141 0.0044497 
0.10178 0.078436 0.019083 0.018589 -0.062467 0.040456 0.049006 0.028454 
0.20586 0.1738 0.092904 0.03799 -0.051944 0.032236 0.063803 0.038812 
0.26702 0.20471 0.19451 0.013657 -0.066906 1.0539e-005 0.038812 0.012177 
0.20306 0.13072 0.30746 0.013821 -0.065919 -0.0073881 0.017438 -0.019884 
0.11658 0.090438 0.39526 0.01152 -0.051615 -0.028597 -0.023007 -0.019226 
0.067913 0.048184 0.30138 0.019411 -0.074962 0.0069159 -0.014787 0.023851 
0.057391 0.034209 0.13236 -0.025309 -0.083347 0.010697 -0.0077169 0.013328 
0.07301 0.068242 -0.009361 -0.029748 -0.090253 -0.010676 0.034537 0.01974 
0.080573 0.14404 -0.12675 0.014808 -0.073647 0.0082312 0.016452 -0.017582 
0.054103 0.1516 -0.17789 0.0034632 -0.071345 0.015301 -0.037476 -0.028433 
-0.022514 0.16821 -0.17608 -0.035667 -0.084827 0.029605 -0.034352 -0.013307 
-0.13514 0.18909 -0.15618 -0.060494 -0.076442 0.053938 0.024837 0.061008 
-0.1552 0.15341 -0.13366 0.014808 -0.048985 0.077121 0.12513 0.14913 
-0.016924 0.037004 -0.070687 0.082053 -0.0042642 0.073339 0.14256 0.10063 
0.15867 -0.19778 0.049335 0.099481 -0.0036066 0.058542 0.09422 0.048841 
0.076134 -0.34772 0.15949 0.10343 -0.025145 0.047033 0.049335 0.024673 
-0.077428 -0.22951 0.14749 0.055911 -0.034681 0.050321 0.03536 0.052787 
-0.13596 0.051308 0.090109 0.039963 -0.042244 0.033387 -0.0075525 0.055747 
-0.084169 0.23085 0.084684 0.039141 -0.052273 -0.0095255 -0.080059 0.072188 
0.035195 0.19139 0.14305 0.065118 -0.057534 -0.0138 -0.097322 0.0013258 
0.16689 0.035195 0.22493 0.18448 0.037661 0.0095465 -0.049314 -0.011334 
0.2537 -0.091239 0.19122 0.23331 0.11263 0.035688 0.043745 -0.020212 
0.29069 -0.033859 0.13878 0.1493 0.03651 0.039963 0.081067 -0.009361 
0.30796 0.07449 0.22131 -0.032708 -0.073811 0.017767 0.084355 0.0019835 
0.21638 0.031742 0.34068 -0.1741 -0.17328 0.0056006 0.078272 0.020069 
0.031907 -0.14139 0.32506 -0.17673 -0.1935 0.0062583 0.076463 0.061995 
-0.16227 -0.12314 0.19813 -0.13497 -0.15372 0.016945 0.10195 0.085999 
-0.25335 0.057391 0.11313 -0.098144 -0.12034 0.038648 0.098166 0.086657 
-0.20616 0.18004 0.15604 0.0013258 -0.04323 0.043745 0.038155 0.053938 
-0.093048 0.13993 0.22674 0.013328 -0.064768 0.018425 -0.024487 0.03799 
-0.024816 0.072024 0.22263 0.021713 -0.063124 -0.0055795 -0.039449 0.050321 
-0.0027845 -0.008539 0.05772 0.1077 -0.013471 -0.0049219 -0.071509 0.062488 
0.071531 -0.026296 -0.08828 0.18415 0.019411 -0.01232 -0.12133 0.061008 
0.04506 -0.014458 -0.061973 0.14897 0.021384 0.023686 -0.09798 0.077778 
0.089452 0.041607 0.028454 0.10721 -0.0014692 0.034044 -0.049314 0.02122 
0.11526 0.052623 0.18942 0.0227 -0.040764 0.034044 0.0227 0.043745 
0.06479 0.022864 0.27014 -0.067728 -0.099953 0.025988 0.024344 0.039634 
0.0065871 -0.01232 0.21589 -0.11722 -0.12741 0.0028056 0.06331 0.034373 
0.04506 -0.014951 0.012506 -0.065591 -0.078086 0.020069 0.11083 0.041114 
0.11263 -0.028269 -0.24743 0.032236 -0.05441 0.022864 0.12529 0.058706 
0.14206 0.025659 -0.30728 0.058542 -0.034516 0.0075736 0.097672 0.03947 
0.07597 0.039305 -0.21291 0.047855 -0.043559 0.0018191 0.028783 0.03536 
-0.11656 0.031907 -0.14829 0.051965 -0.052273 0.014643 0.021549 0.028619 
-0.24743 0.028454 -0.088937 0.021056 -0.059014 0.0082312 0.0028056 0.010533 
-0.2328 0.038812 0.036346 0.007738 -0.066413 0.010533 0.012835 -0.0096899 
-0.06707 -0.020048 0.22904 0.0067515 -0.05326 0.020562 0.0064227 -0.0095255 
0.096028 -0.11755 0.32752 0.01004 -0.058521 0.039963 -0.017088 -0.010841 
0.13384 -0.10554 0.23907 0.019247 -0.039942 0.062488 -0.0019624 -0.0082102 
0.094877 -0.0078813 0.17166 0.036839 -0.022679 0.043416 0.045882 0.025824 
0.060186 -0.0044286 0.27754 0.055418 -0.037969 0.024673 0.060022 0.019411 
0.025824 -0.0138 0.53584 -0.0040998 -0.077593 0.023357 0.067091 0.044731 
0.077121 0.087808 0.6335 -0.075455 -0.12067 0.01974 0.10852 0.025988 
0.29448 0.17676 0.30911 -0.058685 -0.10702 0.009711 0.12924 0.065283 
0.45577 0.18317 -0.099624 -0.083183 -0.12034 0.020727 0.13105 0.050814 
0.2953 0.098823 -0.32964 -0.018568 -0.078579 0.015794 0.082711 0.077449 
-0.091239 0.046868 -0.37124 0.013328 -0.043888 0.0019835 0.064296 0.089123 
-0.35874 0.0074092 -0.27177 0.074326 -0.04882 0.015137 0.032236 0.098823 
-0.39113 0.026152 -0.19318 0.066598 -0.042408 -0.0068948 -0.040764 0.050814 
-0.3224 0.1197 -0.20616 0.067585 -0.035174 0.010862 -0.071181 0.0047785 
-0.19564 0.22016 -0.21422 0.077614 -0.019061 0.048513 -0.073482 -0.0022913 
-0.066084 0.1516 -0.10669 0.041114 -0.031392 0.048841 -0.075455 -0.0031133 
0.0064227 0.073832 0.016616 0.034044 -0.034516 0.063145 -0.072332 0.016945 
-0.0064016 0.079587 0.048019 0.048019 -0.026131 0.03536 -0.031064 -0.0077169 
-0.026953 0.10113 0.028783 0.0056006 -0.069208 -0.0082102 0.01152 -0.038627 
0.11428 0.10096 0.06479 -0.042901 -0.10028 0.00066819 0.011191 -0.045039 
0.37553 0.068407 0.093726 -0.090253 -0.11524 -0.0055795 -0.003771 -0.060658 
0.46645 -0.012649 0.1641 -0.16292 -0.18709 -0.029584 0.01415 -0.070359 
0.32851 -0.053095 0.18152 -0.17871 -0.18841 -0.030242 0.070708 -0.020048 
0.28741 -0.088115 0.22033 -0.12774 -0.14813 -0.016102 0.095864 -0.009361 
0.21605 -0.022514 0.20306 -0.01117 -0.07414 0.033551 0.098988 0.0047785 
0.019247 0.044731 0.062652 0.11132 0.0013258 0.074161 0.11592 0.0037921 
-0.21241 0.16656 -0.13399 0.23216 0.079751 0.089287 0.10852 0.039634 
-0.29741 0.2708 -0.24661 0.22 0.094384 0.053116 0.087314 0.054925 
-0.20419 0.30714 -0.35677 0.22674 0.059035 0.047197 0.023851 0.03388 
-0.076606 0.25321 -0.38603 0.22789 0.060844 0.013164 -0.036983 -0.011334 
0.057555 0.15818 -0.38242 0.27557 0.094877 0.035688 -0.025638 -0.025474 
0.14568 0.026317 -0.25154 0.22394 0.049499 0.035524 0.020891 -0.02087 
0.10803 -0.09798 0.0087245 0.054267 -0.038462 -0.0040998 0.036839 0.039305 
-0.0088678 -0.20699 0.21243 -0.05589 -0.11541 0.00297 0.052623 0.08419 
-0.010841 -0.14681 0.30911 -0.056548 -0.11804 -0.0026201 0.047362 0.089945 
0.089452 -0.09798 0.31947 -0.092061 -0.13875 0.0070803 0.02681 0.05065 
0.10047 -0.030735 0.29859 -0.088115 -0.12692 0.0095465 0.017767 0.033715 
-0.05326 0.084355 0.075476 -0.068221 -0.090253 0.0069159 0.025495 0.10507 
-0.11508 0.17051 -0.18446 0.012506 -0.063618 0.019576 0.0072447 0.14601 
-0.098473 0.084519 -0.20123 0.070873 -0.018075 0.061501 0.045389 0.1636 
0.00050378 0.0069159 -0.13119 0.14864 0.031414 0.071202 0.067913 0.1299 
0.066598 -0.076935 -0.074798 0.18646 0.051636 0.07449 0.047691 0.065612 
0.11313 -0.03616 -0.11524 0.10852 0.0024767 0.042923 0.013328 -0.0091966 
0.10343 0.10343 -0.18676 0.03536 -0.043066 0.024508 -0.020212 -0.028926 
0.0227 0.24186 -0.19334 0.015465 -0.042408 0.025001 0.0041209 -0.052273 
0.040456 0.30023 -0.10308 0.016945 -0.06707 0.0093821 0.014643 -0.066577 
0.17922 0.24548 -0.014622 0.028947 -0.05589 0.011848 0.031907 -0.086307 
0.098494 0.067091 0.060844 0.072024 -0.021199 0.0067515 0.037168 -0.087458 
0.053938 -0.0868 0.14321 0.14387 0.0024767 0.0074092 0.01152 -0.058192 
0.080244 -0.12412 0.21046 0.085177 -0.025145 0.0041209 -0.0024557 -0.037969 
0.026646 -0.12248 0.25387 0.033058 -0.045532 0.012506 -0.014293 0.0069159 
-0.029913 -0.133 0.24844 0.044238 -0.042573 0.0052718 0.0082312 0.077285 
0.015137 -0.12938 0.2006 0.016123 -0.069701 0.016781 0.084684 0.15374 
0.043087 -0.090253 0.16146 0.037004 -0.043395 0.05065 0.11033 0.13647 
0.025988 0.04654 -0.0406 0.065612 -0.0019624 0.062817 0.12085 0.11954 
-0.0070593 0.089452 -0.12922 0.076627 -0.018897 0.04358 0.068407 0.082053 
-0.033201 0.080573 -0.093705 -0.0083746 -0.057699 0.037661 0.03799 0.083368 
-0.089431 0.10359 -0.074633 -0.078744 -0.09946 0.038319 0.021056 0.082382 
-0.18791 0.15966 -0.1039 -0.084991 -0.11376 0.049664 0.035524 0.095042 
-0.15125 0.1396 -0.21932 -0.13908 -0.14287 0.017438 0.018754 0.056569 
0.076463 0.12381 -0.16128 -0.11837 -0.13859 0.0013258 0.025659 0.025988 
0.14634 0.086328 0.0064227 -0.0771 -0.09387 -0.010676 -0.026953 0.030427 
0.035031 0.0069159 0.15028 -0.041093 -0.092061 0.022042 0.012506 0.0088889 
-0.035996 -0.16259 0.2417 0.0087245 -0.057699 0.01563 0.0093821 0.004943 
-0.014622 -0.31057 0.23134 0.0051074 -0.060658 -0.0068948 0.010862 0.02122 
0.043745 -0.23872 0.17889 0.10113 -0.031064 -0.032708 0.022535 0.020398 
0.10639 0.049664 0.17856 0.16525 0.016781 0.0037921 0.029276 0.0044497 
0.1054 0.24548 0.17824 0.24976 0.083862 0.046704 0.066434 0.0090533 
0.10343 0.26274 0.16344 0.26011 0.099152 0.069558 0.06479 0.0019835 
0.025001 0.25123 0.069393 0.18629 0.061008 0.073668 0.052294 0.035195 
-0.064275 0.20388 -0.064604 0.095042 0.010533 0.062488 0.055418 0.051801 
-0.11179 0.12151 -0.046683 0.044402 -0.0060728 0.046868 0.054596 0.055747 
-0.1016 0.065118 0.011026 -0.066906 -0.10078 0.035524 0.029605 0.028125 
0.015959 -0.0077169 0.070215 -0.18216 -0.16835 0.017438 0.0098754 0.040621 
0.068736 -0.046683 0.13549 -0.21767 -0.19383 -0.00097594 -0.0042642 0.026974 
0.019083 -0.0055795 0.1978 -0.18298 -0.18216 1.0539e-005 -0.012978 0.020398 
0.011848 0.11691 0.23414 -0.16177 -0.16736 0.0018191 -0.0021268 0.026481 
0.071037 0.19616 0.22361 -0.1085 -0.13793 -0.011334 -0.0075525 0.011848 
0.13154 0.18514 0.18794 -0.025474 -0.073811 0.029934 0.0067515 0.012013 
0.14437 0.09274 0.25929 0.013657 -0.058028 0.042429 0.042429 0.041278 
0.053281 -0.00081153 0.2149 0.052787 -0.02646 0.039634 0.061666 0.049006 
0.049664 -0.040271 0.074654 0.11017 0.0082312 0.034702 0.051801 0.031742 
0.18021 0.013164 -0.12133 0.16755 0.017438 0.0036276 0.022864 -0.026131 
0.26899 0.086657 -0.18348 0.13812 0.012999 -0.0031133 0.023851 -0.048656 
0.13417 0.15522 -0.25302 0.11691 0.0021479 0.0056006 0.01152 -0.017417 
-0.095349 0.18119 -0.29725 0.12332 0.0021479 0.025988 0.044402 0.021549 
-0.25664 0.1008 -0.17427 0.069886 -0.033694 0.0227 0.047855 0.083368 
-0.22672 -0.047505 0.02829 0.05624 -0.042737 0.009711 0.034209 0.042758 
-0.085813 -0.15799 0.14749 0.027139 -0.03764 0.009711 -0.0068948 0.0011614 
0.016452 -0.14188 0.2634 -0.0027845 -0.076277 0.016123 0.0082312 -0.023829 
0.05213 -0.061973 0.19846 -0.040928 -0.089759 0.043087 0.0024767 0.03388 
0.054925 0.11674 0.070544 -0.014787 -0.06855 0.061337 0.0021479 0.084355 
-0.028433 0.1978 0.014315 0.04506 -0.043559 0.05476 -0.01117 0.13812 
-0.10078 0.18152 0.020398 0.019905 -0.051122 0.027961 -0.081868 0.079258 
-0.10472 0.098988 0.0056006 0.017767 -0.065755 -0.01676 -0.12429 0.013492 
0.00033937 0.065283 -0.031064 0.017767 -0.065097 -0.019719 -0.0868 -0.064111 
0.068571 0.083533 -0.034023 0.02533 -0.063782 -0.014293 -0.014129 -0.048163 
0.12003 0.10754 0.046375 0.066105 -0.03057 0.0021479 0.034044 -0.024816 
0.14387 0.13943 0.082217 0.095699 0.010533 0.010533 0.066105 -0.0029489 
0.1664 0.15867 0.11674 0.12858 0.00033937 0.027468 0.086492 0.031578 
0.11592 0.14371 0.15637 0.086821 -0.016595 0.049828 0.095206 0.063639 
0.098823 0.10573 0.1687 0.010204 -0.051944 0.06479 0.066105 0.062488 
-0.008539 0.015959 0.12266 -0.039284 -0.089266 0.054267 0.10408 0.090931 
-0.062631 -0.1381 0.10228 -0.09239 -0.098309 0.055911 0.087808 0.093233 
-0.085649 -0.22737 0.10162 -0.079895 -0.1205 0.018425 0.049499 0.063145 
0.0083956 -0.20353 0.16804 -0.023665 -0.085156 -0.0062372 0.020727 0.07449 
0.12447 -0.13826 0.073339 0.014479 -0.0965 -0.0072237 0.0023123 0.0034632 
0.12102 -0.093212 -0.054904 1.0539e-005 -0.088444 -0.011992 -0.0057439 -0.0052507 
0.036182 -0.10965 -0.14599 0.031578 -0.051944 0.015959 -0.034845 -0.035996 
-0.038462 -0.049971 -0.18512 0.06183 -0.036325 0.027139 -0.036654 -0.012156 
-0.039942 0.043416 -0.06855 0.057062 -0.019884 0.033387 0.0051074 0.0013258 
-0.048985 0.14437 0.010697 0.036675 -0.035832 0.015301 -0.0027845 0.0085601 
-0.059672 0.21079 0.038812 0.043909 -0.038791 0.022206 0.00297 -0.035832 
0.0021479 0.16262 0.12513 -0.0044286 -0.08269 0.01267 -0.0075525 -0.040928 
0.15785 0.095042 0.14502 -0.0088678 -0.083347 0.020398 -0.015444 -0.039613 
0.26143 0.10491 0.071202 -0.012978 -0.061809 0.012835 -0.0054151 0.018425 
0.19649 0.11148 -0.047341 0.028454 -0.061809 0.027632 0.022535 0.092904 
0.046211 0.079094 -0.058521 0.021713 -0.048327 0.06331 0.058377 0.12085 
-0.070359 0.013821 -0.063453 -0.0049219 -0.055068 0.071859 0.071859 0.15785 
-0.095843 0.029276 -0.063289 0.023522 -0.045532 0.057227 0.061501 0.11378 
-0.048656 0.035688 -0.074633 -0.0083746 -0.074633 0.027468 0.035031 0.045224 
-0.01117 0.034537 -0.14763 -0.0091966 -0.081045 -0.0087034 0.04095 -0.017746 
-0.0027845 0.010369 -0.20781 0.0324 -0.056219 -0.025309 0.048677 -0.024158 
-0.012814 0.034373 -0.16177 0.063639 -0.048327 -0.0014692 0.027139 -0.034188 
-0.069536 0.049006 -0.029255 0.086821 -0.020706 -0.0067304 0.023028 -0.0095255 
-0.1284 0.041278 0.091096 0.047033 -0.029584 -0.0073881 0.02122 0.0013258 
-0.09798 0.011684 0.18481 0.037497 -0.059343 -0.0070593 0.069722 0.036017 
-0.015116 0.025001 0.18235 0.019083 -0.056219 0.016288 0.0786 0.049828 
0.1031 0.035195 0.19747 0.045718 -0.035503 0.054596 0.071366 0.056733 
0.20175 0.067256 0.17708 0.034702 -0.047505 0.054267 0.05772 0.042429 
0.26537 0.03799 0.12266 0.016945 -0.055232 0.036346 0.080902 0.08715 
0.26258 -0.010676 0.09274 0.026646 -0.051944 0.033058 0.069886 0.086657 
0.23693 -0.025802 0.035195 0.088465 -0.0055795 0.039799 0.065612 0.056404 
0.19714 0.072681 0.01711 0.11263 -0.013471 0.033387 0.057884 0.010369 
0.22328 0.11806 0.033551 0.06183 -0.026789 0.049992 0.055254 -0.0406 
0.1271 0.10326 0.068736 0.013492 -0.043559 0.058542 0.043251 -0.031557 
-0.081374 0.072681 0.11132 0.00066819 -0.067564 0.035688 -0.0078813 -0.014622 
-0.13267 0.03947 -0.010512 -0.019719 -0.081539 0.00083261 -0.041586 0.027961 
-0.10653 0.063474 -0.1159 0.031742 -0.060658 -0.0034422 -0.02498 0.037168 
-0.08532 0.084684 -0.21077 0.069064 -0.037805 -0.00064712 0.0018191 0.05065 
-0.064604 0.096521 -0.25088 0.062323 -0.045203 0.0034632 0.0026412 0.041607 
-0.075127 0.029276 -0.206 0.043251 -0.047998 0.011355 -0.0090322 0.054596 
-0.12396 -0.055068 -0.13382 0.032729 -0.042573 0.052294 -0.030077 0.027796 
-0.16276 -0.041093 -0.094856 0.0082312 -0.066906 0.013821 0.039305 0.042594 
-0.15487 0.055911 -0.01232 0.040456 -0.042244 0.0072447 0.1054 -0.025802 
-0.13086 0.10639 0.045553 0.10704 -0.0034422 0.018425 0.12266 0.032893 
-0.096665 0.15407 0.1026 0.18087 0.035853 0.046375 0.12546 0.047691 
-0.063618 0.21769 0.13664 0.12069 0.0042853 0.059035 0.076627 0.05065 
0.057227 0.23825 0.14798 0.069064 -0.020212 0.050321 0.083862 0.03651 
0.19139 0.23183 0.19764 0.041278 -0.030899 0.0227 0.047033 0.039305 
0.22082 0.16673 0.27113 0.009711 -0.068879 0.011026 0.0082312 0.049335 
0.21556 0.065283 0.25304 -0.073647 -0.10702 0.012342 -0.018239 0.042594 
0.26307 0.016288 0.10441 -0.10439 -0.11475 0.013821 -0.049149 -0.0036066 
0.35498 -0.036325 -0.063618 -0.070852 -0.11212 0.0098754 -0.052931 -0.054082 
0.2782 -0.11722 -0.059836 -0.028762 -0.088937 0.0036276 -0.098967 -0.021034 
0.085835 -0.23839 0.078436 0.012342 -0.065591 0.0087245 -0.060329 0.029605 
-0.11442 -0.15717 0.1151 0.046046 -0.050136 0.026317 0.0079024 0.048184 
-0.16046 -0.042408 0.11 0.057884 -0.045696 0.045882 0.085012 0.040785 
-0.10653 -0.081045 0.1026 0.085177 -0.0078813 0.041278 0.09981 0.029605 
-0.095021 -0.2231 0.064296 0.10491 0.024673 0.04095 0.071366 0.021549 
-0.086964 -0.19926 -0.050136 0.11543 -0.015773 0.031742 0.022371 0.048513 
-0.07266 -0.03057 -0.11245 0.054267 -0.040271 0.012342 -0.0072237 0.011684 
-0.039613 0.19665 -0.015444 0.018918 -0.052109 -0.008539 -0.015773 0.0046141 
-0.044217 0.32802 0.055582 0.060679 -0.036983 -0.011663 -0.021692 0.015137 
-0.061809 0.35366 0.059693 0.030592 -0.046519 -0.0026201 -0.004593 0.052623 
-0.092554 0.27146 -0.011498 -0.030242 -0.082196 0.046046 0.016781 0.081067 
-0.1718 0.14535 -0.032379 -0.05737 -0.072167 0.060515 0.0421 0.098823 
-0.22392 -0.0039354 0.041114 -0.046025 -0.094363 0.043745 0.053116 0.1368 
-0.17262 -0.052273 0.066927 -0.045368 -0.09387 0.036346 0.049992 0.12233 
-0.072989 -0.044052 0.07301 -0.053917 -0.085813 0.055089 0.042923 0.095371 
0.032071 -0.013143 0.070051 -0.018075 -0.088773 0.0421 0.045389 0.037661 
0.088958 -0.0077169 0.1271 -0.011005 -0.076771 0.033058 0.052952 0.014808 
0.24104 0.030592 0.19237 -0.01676 -0.077757 0.0018191 0.013492 -0.058685 
0.45856 0.032729 0.14437 -0.0055795 -0.075455 0.0054362 -0.0060728 -0.082196 
0.27212 0.06331 -0.0062372 -0.015444 -0.075949 0.029276 0.0070803 -0.096007 
0.017932 0.068571 -0.10949 0.040785 -0.037311 0.016452 0.032893 -0.054246 
0.0227 0.022864 -0.11031 0.11625 0.017274 0.013986 0.06479 -0.031886 
0.098823 -0.068714 -0.0059084 0.17314 0.023028 0.020727 0.055089 -0.0070593 
0.042594 -0.092554 0.0064227 0.090931 -0.010348 0.0013258 0.056404 0.046211 
-0.053095 -0.04882 -0.031064 0.027796 -0.047834 0.027796 0.05772 0.07449 
-0.023336 -0.013471 0.037004 0.023193 -0.055561 0.043251 0.086985 0.12973 
0.048841 0.025824 0.076134 -0.0027845 -0.069701 0.01267 0.047855 0.074654 
0.019576 0.094384 0.047691 -0.010512 -0.067892 0.030756 -0.010676 0.049499 
-0.11886 0.19501 -0.022843 0.058213 -0.031557 0.015465 -0.035996 0.027796 
-0.14237 0.21178 -0.018404 0.06331 -0.052766 0.04654 0.0011614 0.032729 
0.087643 0.17429 0.07038 0.033551 -0.050629 0.048348 -0.032708 0.013986 
0.2297 0.088301 0.062652 0.061995 -0.016595 0.054103 -0.062302 -0.01528 
0.15374 -0.10965 0.067256 0.070215 -0.0503 0.021056 -0.07003 -0.073482 
0.20553 -0.3423 0.12414 0.026974 -0.062138 0.014315 0.005765 -0.020377 
0.18152 -0.42171 0.09126 0.055254 -0.037476 0.034209 0.086492 0.013821 
0.041607 -0.30695 0.1294 0.065283 -0.037805 0.041278 0.12677 0.051801 
-0.14155 -0.023829 0.073832 0.018425 -0.054246 0.037168 0.16574 0.082382 
-0.23148 0.31569 -0.034845 0.029934 -0.036654 0.058049 0.20092 0.14026 
-0.1723 0.42601 -0.0771 0.10425 0.0079024 0.067749 0.19714 0.14519 
-0.099953 0.40282 -0.079895 0.10113 -0.011498 0.033551 0.1294 0.0689 
-0.073154 0.3313 -0.016431 0.0087245 -0.066413 -0.021363 0.054596 0.0079024 
-0.026953 0.23101 0.031578 -0.067235 -0.1182 -0.034845 -0.0049219 -0.010676 
0.032729 0.13368 0.034537 -0.067728 -0.13925 -0.042737 -0.030406 -0.027282 
0.10129 0.0324 0.00017495 -0.032215 -0.096829 0.0046141 -0.042737 -0.060329 
0.14963 0.017438 -0.049478 -0.0064016 -0.072003 0.014315 -0.082854 -0.064768 
0.19698 -0.028597 0.012835 0.062817 -0.036818 0.015465 -0.11557 -0.073482 
0.25781 -0.10242 0.08863 0.05476 -0.045039 0.0013258 -0.13037 -0.051944 
0.30533 -0.17986 0.10787 0.10606 -0.0098543 0.017274 -0.12133 -0.024323 
0.24515 -0.11804 0.078765 0.15456 0.039799 0.030427 -0.056877 0.05772 
0.063803 0.053938 0.015465 0.20454 0.046704 0.033222 0.031578 0.099974 
-0.027118 0.11625 -0.046683 0.19468 0.047362 0.047855 0.091753 0.1128 
-0.068386 0.11115 -0.049807 0.16919 0.035853 0.046704 0.11198 0.09981 
-0.031392 0.083204 -0.018075 0.073504 -0.02235 0.0421 0.11872 0.063803 
0.031085 0.0087245 0.077121 -0.018404 -0.085156 0.0051074 0.044896 0.00083261 
0.032729 -0.14336 0.1128 -0.068221 -0.12034 -0.03353 -0.0096899 -0.019061 
-0.00097594 -0.18561 0.038812 -0.05885 -0.10406 -0.0087034 0.0069159 -0.018733 
0.015465 -0.076442 -0.063782 0.03651 -0.054246 0.030098 0.030592 0.013986 
0.071037 0.21375 -0.18874 0.07449 -0.025638 0.058213 0.058542 0.012506 
0.072517 0.37175 -0.20929 0.043745 -0.021856 0.041772 0.043416 0.04506 
0.024837 0.33114 -0.037476 0.038483 -0.049149 0.01974 0.04917 0.061008 
-0.01117 0.20125 0.10211 0.03092 -0.04323 0.014643 0.076299 0.04506 
-0.013307 0.08008 0.18218 0.047197 -0.030735 0.045224 0.10359 0.019083 
-0.039613 -0.01117 0.26751 0.086657 -0.013636 0.022864 0.080409 0.044731 
-0.036983 -0.047341 0.35482 0.062652 -0.03353 0.010697 0.026481 0.0592 
0.038977 -0.025309 0.46612 0.066927 -0.030242 -0.0021268 -0.02235 -0.0059084 
0.14026 -0.014129 0.47648 0.13121 0.0064227 0.0039565 -0.0024557 -0.039942 
0.13023 0.02533 0.31552 0.077943 -0.035832 0.020233 -0.012649 -0.012978 
-0.022843 0.063803 0.062323 -0.062302 -0.10538 0.03092 -0.025638 0.056076 
-0.13941 0.090438 -0.1649 -0.21077 -0.19416 0.004943 -0.0040998 0.070708 
-0.19909 0.13713 -0.22951 -0.1621 -0.17936 0.026481 0.0069159 0.10063 
-0.22836 0.10326 -0.25072 -0.14188 -0.14204 0.05624 0.0062583 0.096357 
-0.15569 0.039305 -0.16259 -0.047341 -0.085813 0.054432 -0.024323 0.063639 
-0.0077169 0.017438 -0.073976 0.0065871 -0.045368 0.019247 -0.020212 0.03536 
0.085341 0.034702 -0.11245 0.024344 -0.054904 0.033715 0.0018191 0.014808 
0.073832 -0.009361 -0.1912 0.047362 -0.041915 0.017274 0.027632 0.039963 
0.026152 -0.026131 -0.18643 0.060186 -0.02235 0.0088889 0.073504 0.076956 
0.0324 -0.040106 -0.061151 0.10524 -0.019061 0.020069 0.066434 0.07038 
0.086985 0.0044497 0.064132 0.10622 -0.0052507 0.032564 0.065612 0.023851 
0.17643 0.1008 0.13187 0.11592 0.0044497 0.046868 0.060186 0.016452 
0.24071 0.12184 0.26554 0.16393 0.023357 0.05476 0.054925 -0.022514 
0.23249 0.070051 0.46547 0.097344 0.004943 0.055911 0.056404 0.015794 
0.14502 0.043251 0.26866 0.02829 -0.033037 0.057391 0.059364 0.030592 
0.011355 0.059528 0.009711 -0.093705 -0.097651 0.017932 0.036675 0.046868 
-0.11475 0.047691 -0.06707 -0.15668 -0.16621 -0.014293 0.031249 0.055418 
-0.19893 0.1197 -0.045203 -0.15322 -0.17016 -0.03353 0.016781 0.021713 
-0.29758 0.16903 -0.061973 -0.077593 -0.11607 0.012835 0.0018191 -0.0042642 
-0.38439 0.23644 -0.016102 0.0069159 -0.074304 0.0085601 -0.013471 0.013492 
-0.46002 0.24137 0.13236 0.016452 -0.063124 -0.0016336 -0.018075 -0.0029489 
-0.41793 0.18843 0.21161 0.022371 -0.06707 -0.0042642 0.0011614 0.028947 
-0.17986 0.063968 0.25584 0.078436 -0.027118 0.019576 0.034044 0.045718 
0.1659 -0.030077 0.18317 0.068242 -0.029584 0.031414 0.036675 0.061501 
0.35745 -0.037805 -0.006566 0.0059294 -0.050629 0.045718 0.040785 0.046375 
0.45988 0.0013258 -0.043724 0.019411 -0.024158 0.04506 0.047691 0.031249 
0.57201 -0.021363 0.047855 0.092411 -0.011827 0.047362 0.058542 0.037332 
0.61771 -0.043066 0.031085 0.1562 0.034537 0.068242 0.057227 0.0069159 
0.62741 -0.050958 -0.095514 0.1197 0.0087245 0.039634 0.048019 0.023028 
0.37898 -0.07266 -0.22359 0.053609 -0.050629 0.0036276 0.026317 0.031249 
-0.11837 -0.11738 -0.17936 -0.055397 -0.11031 -0.0039354 0.027303 0.082546 
-0.35381 -0.19383 0.019083 -0.11722 -0.14221 -0.011827 0.0064227 0.041936 
-0.33112 -0.21241 0.16607 -0.15372 -0.15865 -0.027282 -0.026131 0.036346 
-0.2693 -0.091897 0.16508 -0.12905 -0.16111 -0.042244 -0.035667 -0.0075525 
-0.23379 0.05213 0.087808 -0.040271 -0.095678 -0.02942 -0.031228 0.019247 
-0.15898 0.15867 -0.050629 0.11329 0.02122 0.016288 0.045389 0.03536 
-0.035174 0.25271 -0.16325 0.20438 0.041443 0.056898 0.047526 -0.0087034 
0.047855 0.27491 -0.14681 0.099152 1.0539e-005 0.048019 0.018754 -0.053917 
0.057884 0.18991 -0.0036066 -0.0016336 -0.058192 0.014643 0.02681 -0.037969 
0.06479 0.13302 0.14141 -0.014951 -0.059672 0.03388 0.018425 -0.027611 
0.10343 0.072681 0.19024 -0.028269 -0.073318 0.027139 0.038155 -0.0095255 
0.1054 0.088958 0.15982 -0.049149 -0.092883 0.028125 0.046704 0.02122 
0.031742 0.049664 0.097015 -0.06148 -0.096007 0.0080668 0.027632 0.0023123 
0.082546 -0.0034422 0.058049 0.016945 -0.085485 0.010204 0.023357 0.031414 
0.26702 -0.0075525 0.060844 0.077449 -0.034188 0.01974 0.041936 0.039799 
0.35728 -0.023829 -0.093048 0.13565 -0.0032777 0.016123 0.064954 0.12612 
0.26159 -0.039778 -0.25615 0.15801 0.01711 0.05476 0.08419 0.12612 
0.18843 -0.1205 -0.28196 0.17462 0.03947 0.042594 0.072188 0.12349 
0.070544 -0.09946 -0.21833 0.13861 0.018918 0.024673 0.055582 0.068407 
-0.015938 0.014479 -0.098967 0.073668 -0.0068948 0.022042 0.05476 0.037826 
-0.044217 0.051472 -0.088773 -0.014951 -0.071181 0.025495 0.01711 0.0072447 
0.052623 0.039634 -0.072989 0.0059294 -0.060165 0.016781 -0.010019 -0.026131 
0.083697 -0.039449 -0.0078813 0.046046 -0.017746 0.0082312 0.023686 -0.031228 
-0.035338 -0.14796 0.11609 0.047691 -0.055068 0.0042853 0.054267 0.01152 
-0.14056 -0.20715 0.2098 -0.023665 -0.098144 0.0051074 0.035524 0.004943 
-0.17986 -0.018897 0.19468 -0.034845 -0.085156 0.019083 0.0019835 0.014808 
-0.16769 0.17939 0.081724 0.04095 -0.037969 0.034209 0.005765 -0.00015387 
-0.085978 0.26192 -0.0054151 0.031742 -0.032872 0.043087 0.021878 0.017438 
-0.028433 0.19583 -0.047834 0.037497 -0.034681 0.052294 0.074161 0.085012 
0.015959 0.14897 -0.027775 0.029276 -0.028926 0.043416 0.05624 0.10178 
0.096686 0.12677 -0.034516 0.038977 -0.056383 0.06331 0.042758 0.096686 
0.15719 0.084519 -0.056383 0.046868 -0.046683 0.030098 0.06594 0.046046 
0.25025 0.037661 -0.045203 0.057227 -0.042408 0.020233 0.070708 0.040292 
0.28214 0.0024767 -0.049642 0.062488 -0.052109 0.031414 0.020398 0.0059294 
0.18563 -0.045368 -0.0047575 0.005765 -0.065426 0.033058 -0.022021 0.015465 
0.063803 -0.055232 0.052459 0.013164 -0.058685 0.02122 -0.036983 0.012013 
0.098823 -0.056055 0.074983 0.049335 -0.035832 0.017932 -0.017582 -0.0026201 
0.11395 -0.013471 0.099974 0.027139 -0.06 0.027139 0.012013 -0.0032777 
-0.034845 0.11444 0.11198 0.040128 -0.045861 0.021384 -0.01117 -0.0026201 
-0.14648 0.19254 0.1008 0.012342 -0.041257 0.0689 -0.016102 0.0023123 
-0.078579 0.1179 0.08978 0.0689 -0.044052 0.067749 -0.045368 0.027303 
0.015794 0.055418 0.00050378 0.03651 -0.041751 0.034373 -0.01676 0.00017495 
0.14206 0.0056006 -0.074798 0.025988 -0.054246 0.0062583 -0.038462 -0.0087034 
0.13187 -0.093048 -0.087786 0.02533 -0.069372 -0.0029489 -0.011005 0.0054362 
-0.11656 -0.1843 -0.01676 0.0060938 -0.065919 0.021713 0.034702 0.047362 
-0.35266 -0.076771 0.01267 0.019576 -0.058192 0.01415 0.070051 0.098166 
-0.30613 0.14239 -0.037969 0.016452 -0.045368 0.011355 0.11839 0.12973 
-0.063289 0.26685 -0.047669 0.011355 -0.070523 0.011848 0.098988 0.14765 
0.09422 0.23874 -0.044052 0.025824 -0.054575 0.040621 0.059693 0.11346 
0.18119 0.18925 0.016123 0.091425 -0.009361 -0.029748 0.015301 0.086492 
0.15078 0.15028 0.14913 0.090767 -0.019061 0.042923 0.0074092 -0.0004827 
0.012999 0.10113 0.18678 0.050157 -0.037147 0.054596 0.0016547 0.0065871 
0.02681 -0.0072237 0.13072 0.048841 -0.041586 0.024508 0.013821 -0.0032777 
0.2514 -0.079401 0.147 0.14519 0.019247 0.020727 0.0069159 -0.04323 
0.30763 -0.016431 0.19566 0.19846 0.051143 0.048019 0.011191 -0.075949 
0.1345 0.1202 0.26653 0.19599 0.056898 0.050321 0.041772 -0.023336 
-0.052766 0.16607 0.305 0.09422 0.026974 0.055747 0.036346 0.012999 
-0.12774 0.038648 0.30796 -0.0013048 -0.069372 0.072188 0.038977 0.077943 
-0.082032 -0.079072 0.30779 -0.10686 -0.13497 0.053938 0.049006 0.086163 
-0.0096899 -0.072003 0.21375 -0.14418 -0.16259 0.015794 0.021878 0.042758 
0.053445 0.050321 0.0070803 -0.12675 -0.16868 -0.013636 -0.0036066 0.014643 
0.098494 0.092411 -0.1159 -0.12149 -0.14517 -0.022679 -0.034516 -0.0036066 
0.13976 0.094055 -0.121 -0.066906 -0.11623 0.0026412 -0.03764 0.010369 
0.14404 0.045224 -0.070687 0.0037921 -0.065591 -0.00097594 -0.0022913 -0.021363 
0.15456 0.069064 -0.08384 0.046211 -0.051122 -0.0021268 -0.00064712 -0.029584 
0.23907 0.14765 -0.063289 0.035688 -0.046847 -0.029584 -0.02942 -0.072003 
0.21013 0.1105 -0.052931 0.077285 -0.009361 -0.013471 -0.024487 -0.042244 
0.10145 -0.056383 -0.079895 0.12233 -0.013471 0.010697 -0.0083746 -0.052931 
0.080244 -0.16588 -0.043395 0.067749 -0.03616 0.00017495 0.054432 1.0539e-005 
0.0067515 -0.14122 0.050979 0.060022 -0.031392 0.030427 0.095371 0.055911 
-0.10505 -0.021692 0.21408 0.083368 -0.015773 0.031085 0.093891 0.10606 
-0.18167 0.011026 0.42946 0.064296 -0.024652 0.018918 0.088136 0.11609 
-0.20633 0.037168 0.44541 0.031085 -0.042079 0.047033 0.11411 0.13713 
-0.15421 0.13236 0.28099 0.0095465 -0.042901 0.017603 0.071859 0.11674 
-0.084169 0.21095 0.11905 0.0011614 -0.076935 0.00066819 -0.020377 0.057062 
-0.025309 0.12661 0.10425 -0.029255 -0.083347 0.011684 -0.059672 0.0082312 
0.01711 0.00017495 0.16212 0.009711 -0.051451 0.034866 -0.012649 -0.011663 
0.036017 -0.043395 0.099645 0.041936 -0.03764 0.070051 0.054432 0.020727 
0.094055 -0.066084 -0.024323 -0.021363 -0.062302 0.06594 0.10326 0.03092 
0.17166 -0.064111 -0.031886 -0.047669 -0.084827 0.049992 0.065118 0.023686 
0.21539 0.016781 -0.075291 -0.041422 -0.091239 -0.0011404 -0.017582 -0.036818 
0.19714 0.054596 -0.13152 -0.04619 -0.10982 -0.0059084 -0.035832 -0.037969 
0.1368 0.1105 -0.15947 -0.014293 -0.09239 -0.041751 -0.012814 -0.044546 
0.087479 0.14371 -0.14467 0.036675 -0.030899 -0.01676 0.032564 0.00083261 
-0.038462 0.18152 -0.12527 0.12447 -0.0054151 0.011355 0.086163 0.077449 
-0.14418 0.18366 -0.10637 0.1396 0.020233 0.023851 0.073504 0.10113 
-0.075291 0.13154 0.0032988 0.11543 0.0088889 0.024015 0.040456 0.041772 
0.0036276 0.03947 0.12858 0.078765 -0.028597 -0.0019624 0.012999 0.00083261 
0.038483 -0.038956 0.15061 -0.013143 -0.084169 -0.012978 -0.033694 -0.026296 
0.044238 -0.045532 0.17363 -0.049807 -0.1085 -0.031064 -0.056712 -0.0080457 
0.055747 0.011191 0.19895 -0.073318 -0.11228 -0.0060728 -0.039449 -0.0064016 
0.004943 0.052459 0.16706 -0.038462 -0.11409 -0.0013048 0.0037921 0.027961 
0.039963 0.050157 0.066927 0.0067515 -0.072989 0.027632 0.041936 0.056404 
0.13023 0.021713 -0.11179 0.048513 -0.024323 0.060022 0.071859 0.052787 
0.29349 0.03799 -0.20534 0.1373 0.016288 0.074326 0.078272 0.046704 
0.26718 0.058542 -0.18479 0.12151 0.022371 0.084026 0.087643 0.07301 
0.1345 0.15209 -0.14467 0.06742 -0.0077169 0.061666 0.067913 0.099152 
0.12529 0.17182 -0.10291 0.03536 -0.037147 0.036839 0.036675 0.065776 
0.19747 0.13269 -0.071016 -0.035996 -0.092226 0.014808 0.015137 0.091425 
0.17939 0.032071 -0.016102 -0.070359 -0.109 -0.0068948 -0.013471 0.050979 
0.15292 -0.041915 -0.0078813 -0.052109 -0.083676 0.0085601 0.015301 0.051143 
0.02533 -0.064111 -0.004593 -0.018733 -0.10225 -0.017746 0.00017495 0.01004 
-0.17065 0.01415 0.097015 -0.043559 -0.11212 -0.0096899 -0.023007 -0.00097594 
-0.26765 -0.011498 0.18942 -0.0083746 -0.079895 0.0062583 -0.00097594 -0.010183 
-0.22326 0.0036276 0.11954 0.09833 -0.010676 0.044896 0.021713 -0.025309 
-0.15635 0.12842 -0.073647 0.13319 0.026974 0.065776 0.049664 0.021549 
-0.13464 0.24515 -0.23165 0.12266 0.015301 0.066927 0.045553 0.049828 
-0.14796 0.20092 -0.21965 0.11444 0.011026 0.033387 0.028619 0.047197 
-0.018239 0.14881 -0.17197 0.096357 -0.032872 -0.0077169 0.013821 0.023851 
0.1761 0.13319 -0.16901 0.03799 -0.059178 -0.0088678 0.032236 0.026646 
0.24828 0.11263 -0.10965 0.022042 -0.05326 0.0011614 0.040621 0.057227 
0.17922 0.065612 -0.00081153 0.024837 -0.056548 0.019905 0.048677 0.048841 
0.066763 0.0085601 0.12085 -0.0034422 -0.066413 0.017932 0.021384 0.055418 
-0.0050863 -0.09091 0.15226 -0.0034422 -0.072496 0.0019835 0.02829 0.053938 
-0.031721 -0.088773 0.079258 0.0028056 -0.071016 0.031578 0.035031 0.018754 
-0.025802 -0.0072237 0.053281 -0.0027845 -0.073647 0.041607 0.060844 0.051472 
0.020891 0.13269 0.15637 0.023357 -0.047505 0.064296 0.06331 0.039799 
0.053938 0.21572 0.28494 0.037332 -0.013965 0.070708 0.067749 0.055911 
0.04917 0.19862 0.26126 0.066105 -0.039284 0.070215 0.068078 0.019247 
0.069722 0.080573 0.15308 0.054267 -0.038133 0.066927 0.036839 0.0059294 
0.11461 -0.11146 0.012013 0.11263 -0.0060728 0.012013 0.010697 0.00017495 
0.14009 -0.25713 -0.17986 0.15966 -0.00031829 0.014479 0.0054362 -0.0026201 
0.17988 -0.13103 -0.30695 0.063639 -0.04471 -0.0090322 0.0098754 0.0069159 
0.23134 0.054925 -0.25993 -0.028762 -0.094363 0.012999 0.027139 0.027139 
0.21687 0.13516 -0.25039 -0.069536 -0.096336 0.041607 0.044731 0.040621 
0.10918 0.16064 -0.18907 -0.10489 -0.12659 0.03388 0.045389 0.036839 
-0.033859 0.15209 -0.1256 -0.14122 -0.14566 0.0059294 0.014808 0.034866 
-0.18052 0.1659 -0.099789 -0.1427 -0.1381 0.015959 0.027632 0.034537 
-0.25878 0.1373 0.007738 -0.028104 -0.090253 0.048184 0.019247 0.05476 
-0.22063 0.061995 0.13664 -0.0083746 -0.073154 0.015137 -0.0095255 0.012177 
-0.045039 -0.092719 0.27672 0.046211 -0.039284 0.014479 0.011684 0.015959 
0.056733 -0.057534 0.35893 0.14009 0.019411 0.029934 0.011848 -0.010512 
0.0054362 -0.078744 0.3803 0.21243 0.081889 0.051143 0.027303 0.01004 
-0.040106 -0.062302 0.38967 0.27869 0.1008 0.056076 0.028125 0.0021479 
-0.035832 -0.12166 0.36978 0.23298 0.075805 0.0085601 0.039141 0.016452 
0.10047 -0.24184 0.38046 0.071366 -0.061973 -0.028433 -0.0059084 -0.053095 
0.20619 -0.11919 0.16853 -0.015609 -0.1039 -0.057205 0.012506 -0.062302 
0.12825 0.11872 -0.012649 0.035688 -0.068221 -0.034516 -0.0075525 -0.0047575 
0.0088889 0.25222 -0.1912 0.13384 -0.0082102 -0.0044286 0.014972 0.030263 
-0.038956 0.20405 -0.35825 0.044731 -0.024158 0.050321 0.085177 0.11033 
-0.065426 0.18744 -0.42319 -0.057041 -0.070523 0.082053 0.16081 0.15423 
-0.029584 0.1396 -0.28097 -0.13168 -0.11738 0.079422 0.20651 0.15078 
0.18021 -0.0022913 -0.071674 -0.15388 -0.15125 0.04506 0.15028 0.11 
0.26307 -0.14911 0.08304 -0.11722 -0.1307 0.016945 0.026317 0.043251 
0.16492 -0.2009 0.14585 -0.026789 -0.067564 -0.0050863 -0.019884 0.0072447 
0.066434 -0.13349 0.15686 0.055089 -0.049149 0.020398 -0.022514 0.015301 
-0.013143 -0.11245 0.25748 0.061995 -0.033037 0.037004 -0.029748 0.031907 
-0.061809 -0.070523 0.2999 0.10228 -0.0047575 0.034866 -0.021856 0.054596 
-0.045368 0.070051 0.28675 0.12924 0.0088889 0.031907 0.0024767 0.028125 
-0.0026201 0.14996 0.33772 0.1202 0.004943 0.032236 -0.019719 0.023686 
0.02829 0.1853 0.40644 0.11757 0.0083956 0.028125 -0.058685 -0.021856 
0.06594 0.15292 0.38605 0.069722 -0.011827 0.0060938 -0.095349 -0.05178 
0.061008 0.14289 0.20191 0.034537 -0.07562 -0.037805 -0.098802 -0.044052 
0.074161 0.1225 0.025988 -0.047998 -0.10242 -0.015773 -0.026624 -0.017253 
0.056404 0.1174 -0.12001 -0.11557 -0.12774 0.0024767 0.03651 0.035524 
0.021878 0.090274 -0.25779 -0.02498 -0.089595 0.0044497 0.0056006 0.078765 
0.061995 0.046211 -0.28147 0.012177 -0.055397 0.0065871 -0.061151 0.054925 
0.12858 0.015794 -0.21998 0.018918 -0.054904 -0.0034422 -0.066248 0.023357 
0.11987 -0.077757 -0.13399 0.01711 -0.055068 0.0088889 -0.055726 0.014808 
0.058377 -0.13711 -0.00081153 0.035524 -0.049642 0.020398 0.025166 0.042265 
-0.0080457 -0.11343 0.11461 0.089945 -0.0087034 0.052459 0.09833 0.063803 
-0.055068 0.011026 0.23085 0.11806 0.031249 0.04095 0.11263 0.084848 
-0.054082 0.05476 0.40989 0.15587 0.021384 0.055254 0.12776 0.098823 
-0.026624 0.11444 0.55639 0.1276 0.017603 0.053116 0.12858 0.065118 
-0.004593 0.12546 0.45314 0.098823 -0.00097594 0.033715 0.082875 0.065118 
0.048513 0.16689 0.1419 0.080244 -0.021528 0.031742 0.036675 0.03947 
0.086985 0.15308 -0.1016 -0.009361 -0.075949 0.016781 0.017767 0.034209 
0.24236 0.12365 -0.21323 -0.041751 -0.090746 0.031249 0.010204 -0.00097594 
0.22805 0.097672 -0.18874 -0.080552 -0.090253 0.038812 0.027139 0.028947 
0.07597 0.038155 -0.14287 -0.092226 -0.12429 0.037004 0.011191 0.011026 
0.0056006 -0.021363 0.013328 -0.1159 -0.13497 0.04095 -0.0021268 -0.027775 
-0.021856 -0.093541 0.01415 -0.07003 -0.11015 0.010533 -0.013965 0.02533 
-0.085978 -0.042079 -0.17756 -0.013307 -0.093541 0.013657 0.031907 0.053938 
-0.13892 0.058706 -0.27061 -0.021692 -0.091075 0.00297 0.0056006 0.026646 
-0.16079 0.11362 -0.13349 0.0046141 -0.080881 0.020069 -0.045696 -0.039449 
-0.18791 0.17396 0.075641 0.031742 -0.04471 0.021384 -0.037969 -0.057041 
-0.1159 0.22065 0.11033 0.037004 -0.047176 0.015301 -0.0057439 -0.00015387 
0.0098754 0.20882 0.10425 0.0059294 -0.054575 0.01711 0.045224 0.053445 
0.078272 0.081395 0.12677 -0.028269 -0.063124 0.0051074 0.0064227 0.02829 
0.017603 -0.04323 0.15127 -0.019061 -0.098309 0.022535 -0.02235 0.041278 
-0.063618 -0.026953 0.11691 -0.039613 -0.10225 0.015794 -0.021528 0.016123 
-0.13958 0.13187 0.023028 0.025495 -0.054739 0.042594 0.050814 0.076792 
-0.020048 0.17593 0.0034632 0.086985 -0.026296 0.046375 0.079751 0.085999 
0.20619 0.16475 -0.0095255 0.072188 -0.025638 0.050157 0.078272 0.097344 
0.30746 0.097344 0.0064227 0.078436 -0.01676 0.032729 0.079916 0.030592 
0.2856 0.043745 -0.051615 0.070873 -0.016266 0.031085 0.055418 0.020069 
0.1738 -0.025309 -0.20501 0.10951 -0.0138 0.039799 0.10293 0.0034632 
0.025166 -0.098967 -0.34427 0.13499 0.011191 0.044402 0.11198 0.049828 
-0.13875 -0.050793 -0.33178 0.14174 0.029934 0.07038 0.14437 0.068078 
-0.20468 0.034537 -0.21636 0.13401 -0.003771 0.055089 0.11872 0.059693 
-0.060987 -0.028926 -0.08532 0.073668 -0.032708 0.025659 0.069558 0.012835 
0.1784 -0.015609 -0.0060728 0.055089 -0.044381 0.0034632 0.045553 -0.035174 
0.24005 0.097015 0.012342 0.038648 -0.057041 -0.0075525 0.018754 -0.044546 
0.21342 0.20027 0.098166 -0.043395 -0.11656 -0.029584 -0.0032777 -0.062631 
0.18826 0.14963 0.1761 -0.12182 -0.1478 -0.034023 0.0065871 -0.017417 
-0.036654 0.038648 0.24943 -0.091239 -0.10308 -0.0087034 0.040785 0.026317 
-0.088608 -0.053588 0.31026 -0.0027845 -0.077922 -0.0039354 0.063474 0.037004 
0.1978 -0.094199 0.2195 0.035195 -0.048492 0.0079024 0.044567 -0.0022913 
0.23479 -0.10012 0.038648 0.081889 -0.026953 0.01563 0.025495 0.034866 
0.091753 -0.039778 -0.13415 0.10441 -0.0098543 0.020233 0.014643 0.040128 
-0.060658 0.10277 -0.25171 0.10737 0.0060938 0.033387 0.044073 0.063145 
-0.11524 0.1978 -0.33819 0.10524 0.0064227 0.042265 0.049664 0.049992 
-0.095678 0.14453 -0.364 0.076463 -0.0026201 0.042923 0.071202 0.056569 
-0.041093 0.12085 -0.25401 0.022371 -0.055068 0.040292 0.056898 0.027468 
0.0046141 0.13746 -0.14911 0.024673 -0.052602 0.027468 0.065776 0.047526 
0.069393 0.14782 0.0036276 0.015959 -0.037311 0.02681 0.05065 0.069393 
0.10491 0.092411 0.18613 0.0044497 -0.064275 0.043251 0.070873 0.093726 
0.060515 0.029934 0.25798 -0.057863 -0.091732 0.064461 0.078272 0.084848 
-0.011992 -0.015444 0.25288 -0.042737 -0.090746 0.051143 0.044238 0.055089 
-0.017746 -0.087129 0.24005 0.037826 -0.030899 0.027468 0.067091 0.037332 
0.0074092 -0.089266 0.2657 0.03799 -0.036654 0.015959 0.032893 0.032071 
0.059693 -0.064604 0.23446 0.044402 -0.041257 -0.014129 0.016288 0.046211 
0.083697 -0.012649 0.18284 0.052294 -0.02794 0.031742 -0.0095255 0.0041209 
0.088794 0.040456 0.11 0.047197 -0.040435 0.019411 0.036675 0.047691 
0.078436 0.062817 0.14552 0.023686 -0.062302 0.015301 0.0034632 0.066763 
0.11148 0.023357 0.2001 0.0090533 -0.069536 -0.010841 -0.039449 0.029112 
0.10392 0.075476 0.13532 0.071531 -0.044381 -0.00031829 -0.070523 -0.050958 
0.0421 0.14206 0.05065 0.12381 -0.010841 0.012999 -0.045532 -0.026131 
-0.0064016 0.16278 0.0054362 0.13023 0.0072447 0.0062583 0.023686 0.02829 
0.083697 0.084684 -0.066906 0.10096 -0.0082102 0.0227 0.057555 0.083204 
0.090109 0.025659 -0.20156 0.013986 -0.060987 0.046868 0.061995 0.058049 
0.0039565 -0.028433 -0.19926 -0.054082 -0.084169 0.061501 0.045882 0.042758 
-0.099953 -0.0082102 -0.092061 -0.074469 -0.064933 0.068242 0.053116 0.017438 
-0.15355 0.045389 -0.022843 -0.02087 -0.067399 0.050157 0.052459 0.027632 
-0.13464 0.083862 0.070708 -0.01117 -0.055561 0.027632 -0.00015387 0.018425 
-0.0082102 0.013821 0.09274 0.090109 -0.003771 0.042594 -0.02087 -0.0064016 
0.070051 -0.060823 0.1003 0.14585 0.01267 0.037168 -0.02794 -0.010019 
-0.078415 -0.087458 0.17232 0.04654 -0.040106 0.029605 -0.004593 -0.023665 
-0.10554 -0.071345 0.23216 -0.038956 -0.091239 0.023851 0.027139 0.024179 
0.057062 0.03388 0.28724 -0.080552 -0.10489 0.031085 0.053609 0.032893 
0.11362 0.20092 0.27212 0.0079024 -0.073318 0.044073 0.079094 0.063145 
0.018918 0.26258 0.14108 0.08156 -0.017911 0.051636 0.063803 0.048677 
-0.0014692 0.30631 0.017274 0.11937 0.01711 0.041936 0.034866 0.04917 
0.00297 0.18876 -0.034516 0.089287 -0.024816 0.020562 0.015301 0.02681 
0.063145 -0.03057 -0.023007 -0.045039 -0.10505 -0.0080457 -0.00031829 0.027961 
0.13401 -0.18791 0.0032988 -0.1039 -0.15158 -0.039284 -0.025309 -0.0004827 
0.11165 -0.18561 -0.049314 -0.036654 -0.1085 -0.023007 -0.01117 -0.020377 
0.13401 -0.1381 -0.080059 0.025659 -0.067235 -0.0070593 -0.027282 -0.024323 
0.12447 -0.058192 -0.17016 0.074819 -0.01939 0.020233 -0.01676 0.0070803 
0.047526 0.020398 -0.19975 0.12299 0.030263 0.056404 -0.0034422 0.048841 
-0.090253 0.099974 -0.10702 0.12842 -0.00015387 0.042923 0.0016547 0.067749 
-0.16111 0.11494 -0.009361 0.056569 -0.038298 0.005765 -0.00031829 0.046046 
-0.21537 0.14305 0.087643 0.046375 -0.046847 -0.012978 0.00033937 0.040292 
-0.26848 0.13023 0.19846 0.061172 -0.044052 0.019247 0.022042 0.069064 
-0.22063 0.12497 0.26965 -0.030077 -0.072332 0.033715 0.019247 0.060515 
-0.10538 0.091918 0.2902 -0.094199 -0.11278 0.020562 0.048184 0.059528 
-0.0075525 0.060515 0.21934 -0.11787 -0.11228 0.037168 0.040128 0.036675 
0.1054 0.031907 0.13006 -0.12856 -0.13645 0.027303 0.0019835 0.039634 
0.25222 -0.0075525 0.035688 -0.12149 -0.14089 0.023522 -0.019884 -0.041093 
0.35301 -0.062467 -0.080059 -0.095843 -0.11738 0.040621 -0.018897 -0.044874 
0.24943 -0.082196 -0.064768 0.070873 -0.046683 0.018425 0.03536 -0.03764 
0.11905 0.0069159 -0.11639 0.12118 0.00066819 0.00050378 0.056569 0.0067515 
0.10902 0.22904 -0.26618 0.18711 0.048513 0.031085 0.063474 0.0085601 
0.16344 0.3415 -0.33506 0.23989 0.086492 0.07301 0.053116 0.0011614 
0.1927 0.32966 -0.23148 0.21523 0.067585 0.059857 0.04506 -0.020048 
0.089616 0.21621 0.047033 0.18317 0.033551 0.020562 0.015137 0.00297 
0.029769 0.12398 0.19385 0.17166 0.050979 -0.0022913 -0.00064712 0.021384 
-0.00081153 -0.0083746 0.19188 0.11954 -0.0060728 -0.020706 -0.0047575 0.050814 
-0.045861 -0.17476 0.32226 -0.094856 -0.12346 -0.046847 0.012013 0.080573 
-0.10225 -0.291 0.41072 -0.26091 -0.21981 -0.044546 0.068407 0.08978 
-0.14714 -0.22178 0.56296 -0.19844 -0.19975 -0.018239 0.11411 0.10737 
-0.11048 -0.16835 0.51512 -0.14911 -0.15816 -0.0087034 0.10787 0.084355 
-0.098144 -0.15585 0.2879 -0.075127 -0.11459 0.016781 0.052787 0.086163 
-0.12659 -0.052931 0.018096 -0.010348 -0.063289 0.041936 0.042923 0.05772 
0.16015 0.15933 -0.18397 0.031578 -0.06148 0.041114 -0.0057439 0.025001 
0.30434 0.26291 -0.3127 0.010697 -0.061316 0.031578 -0.046683 -0.046354 
0.15144 0.20471 -0.38538 0.024344 -0.037805 0.0064227 -0.085649 -0.057534 
0.057391 0.11625 -0.34789 0.072188 -0.036818 0.022535 -0.059343 -0.045203 
-0.01939 0.1659 -0.24036 0.05624 -0.041586 0.0087245 -0.035503 0.027632 
-0.0042642 0.14404 -0.053917 0.051472 -0.043066 0.0083956 -0.049971 0.044567 
0.059035 0.13631 0.095371 0.11395 -0.0057439 0.014808 -0.027775 0.034373 
0.084684 0.1299 0.2371 0.11855 0.0014903 0.01711 0.018589 0.027139 
0.064461 0.022206 0.35054 0.060186 -0.03501 0.012835 0.06331 0.013164 
0.0065871 -0.13152 0.40661 -0.027611 -0.064933 0.00050378 0.10507 0.045224 
-0.034516 -0.20485 0.42371 -0.045532 -0.10094 0.009711 0.13697 0.06331 
-0.10587 -0.052766 0.29185 -0.023172 -0.073647 0.040128 0.13697 0.10704 
-0.14385 0.13565 0.13647 0.010697 -0.046519 0.083368 0.11 0.082053 
-0.14073 0.16952 0.027139 0.083533 -0.01528 0.078929 0.10376 0.073997 
-0.064111 0.12217 -0.0091966 0.030263 -0.037805 0.061995 0.06479 0.041278 
0.037661 0.10392 -0.024487 0.015137 -0.054739 0.032071 0.0074092 0.026646 
0.11888 0.12085 -0.14287 0.065283 -0.014293 0.017438 0.0047785 -0.0088678 
0.12628 0.12201 -0.14928 0.071859 -0.021856 0.031414 0.030427 0.01267 
0.13828 0.071366 -0.080223 0.049499 -0.036983 0.020727 0.029934 0.01415 
0.11 0.10622 -0.097322 0.011355 -0.043395 0.014972 0.015959 0.011848 
0.077778 0.10458 -0.10324 0.035688 -0.062467 0.0011614 0.020562 0.015465 
0.068736 -0.034516 -0.037969 0.0074092 -0.075784 0.01152 0.024344 0.027796 
0.063474 -0.11179 0.070051 0.022864 -0.055726 0.027632 0.046704 0.02122 
0.12842 -0.063289 0.076299 -0.0022913 -0.070194 0.0083956 0.00099702 0.010369 
0.19879 -0.074962 0.0032988 -0.023665 -0.088937 -0.010348 -0.034681 -0.010512 
0.10343 -0.21554 -0.048327 -0.012649 -0.081539 0.0074092 -0.024158 -0.037969 
-0.14665 -0.28508 -0.062631 -0.0032777 -0.049642 0.029769 -0.02235 -0.024652 
-0.27768 -0.13415 -0.063946 0.0052718 -0.081539 -0.0091966 0.047691 -0.016924 
-0.24793 0.056569 -0.069701 -0.02646 -0.09239 0.011355 0.0082312 0.025659 
-0.1575 0.17889 -0.019226 0.010862 -0.066248 0.016781 0.044073 0.039141 
-0.074304 0.20273 0.093891 0.06035 -0.04882 0.030592 0.06183 0.10902 
-0.0029489 0.2468 0.11642 0.020891 -0.057205 0.063639 0.11296 0.12431 
0.14831 0.24104 0.022864 0.0019835 -0.063453 0.045224 0.084355 0.11576 
0.32933 0.12283 -0.054246 -0.0026201 -0.057041 0.034702 0.059364 0.02681 
0.39016 0.011026 -0.1284 -0.0083746 -0.079401 0.041772 0.047691 -0.031886 
0.37652 0.016616 -0.1187 0.0023123 -0.066577 0.0067515 0.030756 -0.037311 
0.21342 0.044896 -0.14434 0.016616 -0.044381 0.024015 0.02122 0.022371 
0.18235 -0.025802 -0.22261 0.071202 -0.041751 0.013986 0.016288 0.024344 
0.0095465 -0.074798 -0.26371 0.068736 -0.030735 0.030592 0.0324 0.042429 
-0.15109 0.037332 -0.33013 0.11905 0.012342 0.059528 0.061666 0.051143 
-0.27785 0.10376 -0.32471 0.16574 0.036839 0.06742 0.082546 0.085835 
-0.29265 0.099152 -0.20534 0.086985 0.005765 0.072353 0.066763 0.073504 
-0.15733 0.073339 -0.13925 0.041772 -0.022021 0.044567 0.035031 0.039141 
-0.048656 0.095864 -0.029091 0.045389 -0.031064 0.023028 0.015301 0.023028 
0.00017495 0.046375 0.2126 0.0024767 -0.07562 -0.00081153 0.013492 0.0023123 
0.035195 0.047855 0.45971 -0.054082 -0.10291 0.01415 0.034373 0.024508 
0.049499 0.040292 0.5411 -0.061316 -0.10472 -0.0016336 0.014972 0.018754 
0.087314 0.05065 0.41959 -0.016924 -0.10094 0.0024767 0.01415 0.026481 
0.12151 -0.0016336 0.21194 -0.042737 -0.10439 -0.023172 -0.00031829 -0.0088678 
0.14765 -0.0087034 -0.0024557 -0.018897 -0.087622 -0.0059084 0.011191 0.01415 
0.13795 0.044896 -0.0075525 -0.013143 -0.092719 0.017767 -0.0036066 0.011191 
0.12118 0.02533 0.17544 -0.00031829 -0.073154 0.020398 -0.0057439 0.041607 
0.05772 0.0090533 0.16656 0.074819 -0.027118 0.031085 0.00297 0.041607 
-0.0029489 0.069064 0.020398 0.1733 0.061008 0.051308 0.048348 0.053938 
-0.023994 0.14617 -0.06855 0.23627 0.07301 0.08008 0.10343 0.059528 
-0.10439 0.20027 -0.10916 0.16146 0.041772 0.065447 0.098494 0.11148 
-0.12231 0.17495 -0.15569 0.13762 0.023357 0.049499 0.08863 0.099645 
-0.033859 0.10819 -0.17525 0.093069 -0.030242 0.0037921 0.016288 0.041607 
0.078929 0.061501 -0.1547 -0.071345 -0.12281 -0.013143 0.0087245 -0.01117 
0.13401 0.019905 -0.054246 -0.15141 -0.16621 0.017603 -0.020212 -0.017253 
0.077943 -0.034188 0.064625 -0.046354 -0.087622 0.0090533 -0.025474 -0.0031133 
0.018096 -0.0021268 0.15456 0.088301 -0.012978 0.020069 -0.018404 0.019411 
0.071859 0.024179 0.21638 0.11905 0.0059294 0.0046141 0.015465 0.01152 
0.31552 0.031907 0.20586 0.12497 0.019083 -0.0011404 0.0024767 -0.061973 
0.32506 0.032893 0.21145 0.10524 -0.0095255 0.039634 -0.023994 -0.058356 
0.043745 0.067749 0.19336 0.04917 -0.034681 0.015301 -0.039284 -0.027447 
-0.16638 0.060186 0.16212 -0.0096899 -0.079237 -0.011005 -0.0040998 0.042594 
-0.17591 0.083862 0.10474 0.004943 -0.086636 -0.0064016 0.049664 0.087314 
-0.074304 0.076299 0.030263 -0.010183 -0.081045 0.025659 0.062323 0.092904 
-0.017746 0.10737 0.045882 0.072681 -0.028926 0.045882 0.057227 0.086328 
-0.0050863 0.12135 0.04358 0.1544 0.035524 0.01826 0.05772 0.053774 
0.0034632 0.13894 0.070544 0.08304 -0.025474 0.027796 0.065283 0.028619 
-0.0031133 0.11921 0.085177 -0.023172 -0.085649 0.016616 0.036675 0.020233 
0.027139 0.083533 0.047362 -0.079895 -0.11804 0.02122 0.01004 0.0019835 
-0.013965 0.034866 0.080409 -0.033365 -0.098309 0.016452 -0.0098543 0.0026412 
-0.16013 0.057884 0.1128 -0.019061 -0.068057 0.028125 -0.0091966 -0.020048 
-0.22968 -0.00015387 0.19451 -0.016431 -0.067399 0.032564 0.011684 -0.047834 
0.013164 -0.08532 0.18498 -0.0034422 -0.066084 0.015137 -0.00064712 -0.042244 
0.24301 -0.096829 0.046211 0.037168 -0.061151 0.025824 0.0072447 -0.0036066 
0.25748 -0.07414 -0.04619 0.051472 -0.045203 -0.0019624 0.020727 0.056569 
0.11231 -0.076771 -0.031721 0.06035 -0.021856 0.02122 0.038977 0.088958 
-0.018897 -0.030406 0.020233 0.12875 -0.00064712 0.020233 0.084355 0.12283 
-0.0868 0.055911 0.028783 0.11855 -0.00081153 0.047033 0.050321 0.09274 
-0.010676 0.055747 0.044238 0.12217 -0.0072237 0.010697 0.005765 0.031249 
0.053938 0.016123 0.11576 0.058706 -0.052931 -0.029748 -0.030406 -0.020706 
0.03799 0.0032988 0.15341 -0.030242 -0.096336 -0.034188 -0.013965 -0.022679 
-0.033201 0.095699 0.0065871 -0.09946 -0.10719 0.015137 0.0032988 0.01267 
-0.097158 0.16475 -0.066413 -0.090417 -0.07825 0.051143 0.041278 0.093726 
-0.11738 0.15933 -0.050958 -0.042901 -0.076606 0.064296 0.017603 0.061995 
-0.051451 0.10228 -0.089595 -0.043724 -0.085813 0.019576 0.017603 0.036675 
-0.017088 0.06035 -0.11656 -0.049807 -0.10604 0.0036276 0.013492 -0.0096899 
0.070873 -0.024323 -0.11574 0.030756 -0.071016 0.0039565 -0.013636 -0.033201 
0.27146 -0.084827 -0.06855 0.060679 -0.03616 0.026646 -0.0026201 -0.058685 
0.31996 -0.097487 -0.041751 0.041278 -0.042244 0.038319 0.030098 -0.045532 
0.19468 -0.10521 -0.057863 0.050979 -0.032872 0.03092 0.068078 0.0037921 
0.046704 -0.031064 -0.06855 0.058213 -0.041586 0.018589 0.062488 0.035195 
-0.076935 0.079094 -0.068057 0.097179 -0.0080457 0.051965 0.062323 0.055418 
-0.17345 0.16574 -0.01676 0.15801 0.044402 0.043416 0.036839 0.066105 
-0.22852 0.15111 0.091589 0.13795 -0.0024557 0.030592 0.029605 0.089287 
-0.14204 0.1026 0.10441 0.0227 -0.058028 -0.0059084 0.051801 0.090603 
0.00099702 0.04095 0.099481 -0.069701 -0.11015 -0.0019624 0.049828 0.091425 
0.081724 0.064954 0.034702 -0.046025 -0.093705 0.02681 0.023522 0.069393 
0.029605 0.14404 0.01974 -0.052109 -0.088773 0.027303 0.0080668 0.069393 
-0.062796 0.1179 0.075476 0.023851 -0.041915 0.027303 -0.00015387 0.075148 
-0.11015 0.01711 0.1128 0.10178 0.046211 0.012999 -0.029255 0.049335 
-0.023665 -0.10883 0.10524 0.13746 0.018425 0.044896 -0.02498 0.06594 
0.070708 -0.26059 0.025988 -0.020541 -0.070523 0.041114 0.022535 0.013657 
0.1955 -0.19071 0.12003 -0.073154 -0.11228 0.021549 0.046046 -0.025967 
0.16722 -0.052602 0.086657 -0.11705 -0.14237 0.031907 0.098494 -0.014129 
-0.0036066 0.11707 0.0085601 -0.069208 -0.10949 0.04358 0.10754 0.014972 
-0.047505 0.16294 0.00083261 -0.024487 -0.079072 0.039963 0.089287 0.0051074 
-0.093376 0.13269 0.027961 0.037168 -0.044217 0.030263 0.05065 0.048677 
-0.14385 0.20224 -0.027775 0.046046 -0.036983 0.044238 0.073997 0.061666 
-0.096007 0.27425 -0.029091 0.087643 -0.0098543 0.0421 0.058377 0.050321 
0.062488 0.15571 0.057555 0.048019 -0.014951 0.0092177 0.021549 0.012342 
0.24581 -0.15141 0.13631 0.00017495 -0.087951 0.0019835 0.005765 0.0026412 
0.2856 -0.26585 0.075476 -0.048492 -0.10587 0.00050378 0.01711 0.010369 
0.25699 -0.18068 0.0046141 -0.023172 -0.077922 0.021056 0.043087 0.031742 
0.21326 -0.049314 -0.039449 0.068736 -0.03353 0.019411 0.012013 0.0026412 
0.11609 -0.021199 -0.083183 0.043909 -0.041093 0.016781 -0.039284 0.0018191 
0.1271 -0.047998 -0.15947 0.0026412 -0.070359 0.0059294 -0.031886 -0.018404 
0.28165 -0.071181 -0.092061 0.0051074 -0.07266 -0.031392 -0.0064016 -0.0059084 
0.15242 0.083862 0.016123 0.053445 -0.05441 -0.00064712 0.032236 0.045553 
-0.2619 0.25041 0.11937 0.11099 -0.00031829 0.034209 0.062323 0.09274 
-0.52841 0.30681 0.16097 0.11658 0.02829 0.055418 0.06594 0.089616 
-0.47317 0.27721 0.13006 0.11115 0.0042853 0.069393 0.029769 0.072024 
-0.17772 0.21868 0.21556 0.0075736 -0.051287 0.055582 -0.001798 0.052787 
0.070873 0.17347 0.28823 -0.052931 -0.097816 0.031907 -0.038627 0.014808 
0.25008 0.089945 0.24959 -0.037969 -0.096994 0.019576 -0.044546 0.028125 
0.53353 -0.025638 0.24104 -0.072989 -0.12971 -0.0021268 -0.080388 -0.03205 
0.67016 -0.090581 0.11378 -0.075127 -0.12281 -0.0075525 -0.054246 -0.050629 
0.41976 -0.086307 -0.17821 -0.063289 -0.091568 0.0052718 0.0056006 -0.01939 
-0.030242 -0.017088 -0.39244 -0.042573 -0.10078 0.009711 0.061172 0.063639 
-0.24497 0.057391 -0.33605 -0.062796 -0.10258 0.015959 0.095699 0.075148 
-0.18232 0.061172 -0.095678 -0.04471 -0.084991 0.023522 0.079587 0.045718 
-0.058192 -0.014129 0.08419 0.028947 -0.060494 0.02829 0.063474 0.00066819 
0.022371 -0.057041 0.12579 0.065612 -0.036983 -0.010841 0.026317 -0.013965 
0.047691 -0.043888 0.085506 0.17659 0.023028 -0.0096899 -0.010348 -0.012649 
0.021056 0.0324 0.085012 0.35564 0.14864 0.029769 -0.020377 -0.01939 
-0.0044286 0.10672 0.11346 0.38786 0.17807 0.063639 0.027139 0.0062583 
0.031249 0.1641 0.056898 0.22279 0.10195 0.082217 0.064625 0.03536 
-0.031557 0.15916 -0.033365 0.00083261 -0.016924 0.077943 0.063639 0.062488 
-0.081868 0.17988 -0.079401 -0.11393 -0.12708 0.026481 0.061172 0.021056 
-0.010841 0.18481 -0.085813 -0.18742 -0.18759 0.026481 0.01004 0.0093821 
0.0069159 0.11773 -0.068879 -0.21077 -0.20271 -0.004593 0.029605 -0.0029489 
-0.064111 0.10129 0.092576 -0.14944 -0.16523 -0.042244 0.023851 0.017603 
-0.023501 0.13845 0.10458 -0.091075 -0.14434 -0.042408 0.081067 0.060679 
0.049828 0.18991 -0.071509 -0.078579 -0.12527 -0.018239 0.072188 0.060022 
0.21704 0.15966 -0.18528 -0.023007 -0.066084 0.026974 0.077449 0.053938 
0.21769 0.12825 -0.14122 0.045718 -0.039942 0.034537 0.065118 0.054103 
0.15686 0.094713 -0.068714 0.13253 0.012835 0.042923 0.023686 -0.010676 
0.1294 -0.016266 -0.0083746 0.1738 0.031085 0.01004 0.015137 -0.0091966 
0.014479 -0.121 0.18366 0.08567 -0.043888 -0.034023 -0.024323 -0.0042642 
-0.08828 -0.13777 0.36419 0.0024767 -0.087622 -0.02087 -0.016102 0.020069 
-0.15092 -0.047834 0.46103 0.014808 -0.057699 0.037826 -0.0095255 -0.0095255 
0.0018191 -0.087293 0.40973 0.11806 0.028619 0.068571 -0.00097594 -0.010019 
0.062981 -0.19268 0.24104 0.22 0.087643 0.087479 -0.01676 0.034702 
-0.0057439 -0.10505 0.078272 0.21671 0.075476 0.076134 0.024508 0.073504 
0.049006 0.061995 -0.012156 0.075805 -0.0047575 0.048677 0.08156 0.089123 
0.027139 0.14782 -0.034681 0.041114 -0.068386 0.025495 0.12003 0.10162 
0.0026412 0.17314 -0.072825 -0.017582 -0.10209 0.0090533 0.14617 0.11494 
0.024837 0.1641 -0.20666 -0.069701 -0.13119 0.0052718 0.10622 0.06183 
0.029276 0.18284 -0.18232 -0.089595 -0.14928 -0.0054151 0.082711 0.018096 
-0.10801 0.16607 -0.053095 -0.090581 -0.12955 0.0023123 0.031907 -0.036818 
-0.29002 0.16623 -0.016595 0.038648 -0.0406 0.010862 0.015465 -0.040106 
-0.41431 0.1322 -0.063289 0.13335 0.033551 0.032564 0.027303 0.0092177 
-0.22951 0.10441 -0.087951 0.13532 0.0324 0.063803 0.035195 0.053938 
0.088958 0.044567 -0.045532 0.073668 0.0095465 0.080409 0.042429 -0.006566 
0.27392 -0.034516 0.10162 -0.016102 -0.037476 0.049006 0.029769 0.0052718 
0.25715 -0.13382 0.17692 -0.072003 -0.12741 0.018754 0.025988 -0.022843 
0.14338 -0.19646 0.18909 -0.11212 -0.15289 0.011355 0.028125 0.0011614 
0.038812 -0.16029 0.1539 -0.079566 -0.13497 0.012013 0.04358 0.017767 
0.098823 -0.034516 0.12908 -0.017582 -0.10045 0.0044497 0.026152 0.017438 
0.20964 0.088136 0.14996 0.0085601 -0.074962 0.0044497 0.027796 0.028783 
0.055089 0.076463 0.11148 0.056076 -0.048492 0.009711 0.036017 0.039799 
-0.1085 -0.0073881 0.0085601 0.10376 -0.0083746 -0.0080457 0.040456 0.059528 
-0.071181 -0.060494 0.023522 0.12694 -0.021856 -0.0078813 0.048184 0.044238 
0.014808 -0.0068948 0.048019 0.14124 0.0092177 0.012835 0.038155 0.095371 
-0.00097594 0.037168 0.028454 0.22263 0.064461 0.047526 0.020727 0.061008 
-0.010512 0.034537 -0.03501 0.25847 0.081231 0.044073 0.019576 0.056076 
0.016781 0.079751 -0.096172 0.15226 0.036675 0.086821 0.072517 0.032729 
0.046868 0.13713 -0.12067 -0.03057 -0.065755 0.083204 0.070544 0.033715 
0.039141 0.082217 -0.11935 -0.1672 -0.14023 0.062323 0.031578 1.0539e-005 
0.048841 -0.0083746 -0.076277 -0.26996 -0.21307 0.027961 -0.013965 -0.013307 
0.04917 0.01711 -0.14336 -0.21685 -0.19498 0.0023123 -0.01676 -0.018239 
-0.0027845 0.049499 -0.072825 -0.21373 -0.16572 0.0098754 0.025659 0.0095465 
-0.058685 0.13795 -0.040928 -0.090417 -0.13563 -0.025474 0.081889 0.024344 
-0.095185 0.15144 -0.0014692 -0.025309 -0.10078 -0.036489 0.14206 0.04917 
-0.032215 0.088958 0.084519 0.0028056 -0.087458 -0.042901 0.087808 0.034866 
0.050486 0.004943 0.15292 0.081889 -0.050793 -0.049149 0.03092 -0.001798 
0.093398 -0.021034 0.092082 0.13631 -0.017746 -0.022843 -0.055068 -0.0039354 
0.15966 0.019905 0.068407 0.16722 0.018589 0.0014903 -0.14895 -0.021692 
0.19024 0.080738 0.032236 0.21227 0.061337 0.012013 -0.15421 -0.0062372 
0.15094 0.12003 0.020562 0.25962 0.080573 0.024673 -0.095678 0.026974 
0.12579 0.018425 0.17758 0.24417 0.084026 0.069558 -0.039284 0.059693 
0.14305 -0.19581 0.34396 0.18267 0.057227 0.066598 -0.069372 0.018589 
0.057884 -0.21833 0.23397 0.088794 -0.0021268 0.031249 -0.093212 -0.0040998 
-0.05589 0.0065871 -0.02235 -0.029091 -0.065755 0.034866 -0.05178 0.0047785 
-0.19367 0.12809 -0.15684 -0.094363 -0.10521 0.033058 0.053938 0.06035 
-0.21767 0.11411 -0.13974 -0.092719 -0.1159 0.054267 0.13878 0.085835 
-0.12988 0.12316 -0.14566 -0.080881 -0.12264 0.045553 0.16886 0.11115 
0.013821 0.15916 -0.077264 -0.044217 -0.10078 0.012835 0.15094 0.095206 
0.14749 0.069558 -0.11327 -0.0088678 -0.068221 0.013821 0.12414 0.084684 
0.16969 0.017603 -0.17213 0.070708 -0.045039 0.021384 0.071531 0.027796 
0.18613 0.072846 -0.10406 0.16853 0.02829 0.01004 0.020727 0.0090533 
0.17199 0.1567 0.0042853 0.1909 0.049828 0.01826 -0.008539 0.0072447 
0.16196 0.16788 0.092082 0.1465 0.0037921 0.010369 -0.025967 0.0032988 
0.12825 0.10902 0.094548 0.033387 -0.050629 0.020562 -0.032872 0.0023123 
0.050157 0.065612 -0.047998 -0.041422 -0.09091 0.028454 -0.033365 -0.018404 
-0.029584 0.08978 -0.11968 -0.022185 -0.070852 0.01152 -0.040435 0.011848 
-0.070687 0.057555 -0.028926 -0.024323 -0.0868 0.012506 -0.025145 0.012177 
-0.12675 0.0095465 0.12184 0.0036276 -0.070687 0.02122 -0.0073881 0.042429 
-0.15881 -0.03764 0.29678 0.031907 -0.036818 0.016123 0.014972 0.022206 
-0.21866 -0.0083746 0.39658 0.082546 -0.031392 0.0095465 0.01415 0.068078 
-0.25039 0.047033 0.4025 0.078107 -0.028269 -0.036654 0.024673 0.05065 
-0.1843 0.082053 0.33163 0.080409 -0.035996 -0.015116 -0.0062372 0.057227 
-0.011992 0.12398 0.23446 0.11329 -0.01676 -0.041751 -0.0019624 0.032071 
0.12809 0.20158 0.12447 0.11329 -0.0075525 -0.0004827 0.025824 0.044238 
0.2269 0.21079 -0.040106 0.1465 0.029441 0.039141 0.042594 0.064625 
0.31157 0.14913 -0.16818 0.20191 0.088301 0.069722 0.067585 0.053116 
0.32555 0.10688 -0.22063 0.20553 0.058377 0.072681 0.057555 0.066105 
0.34331 0.097672 -0.22293 0.058049 -0.02794 0.052787 0.08567 0.06479 
0.37471 -0.0503 -0.17345 -0.10045 -0.1233 0.05065 0.049335 0.0072447 
0.33147 -0.24595 -0.14484 -0.14303 -0.1621 0.024015 0.020562 -0.012814 
0.0085601 -0.34641 -0.15733 -0.10587 -0.12133 0.041936 0.038483 0.049335 
-0.31221 -0.25384 -0.018239 -0.08121 -0.10439 0.067256 0.064461 0.047033 
-0.32915 -0.15372 0.15226 -0.033859 -0.078744 0.029112 0.04358 0.012177 
-0.17098 -0.063124 0.41565 -0.11623 -0.13727 0.033058 -0.018239 -0.13103 
-0.049149 0.12875 0.53255 -0.14895 -0.1644 -0.014622 -0.01117 -0.049642 
-0.050958 0.34347 0.33246 -0.06707 -0.083183 0.01415 -0.00097594 -0.039942 
-0.012156 0.33969 0.17708 0.056076 -0.040435 0.020069 0.038648 -0.0062372 
0.044896 0.17396 0.093069 0.09981 -0.00064712 0.069722 0.084026 0.042594 
-0.056548 -0.00015387 0.090767 0.091589 0.005765 0.062488 0.10441 0.099316 
-0.14352 -0.074962 0.19106 0.034373 -0.044546 0.051472 0.094055 0.13351 
-0.078579 -0.064275 0.08863 -0.047505 -0.09091 0.029605 0.10178 0.11296 
0.061501 0.010533 -0.069043 -0.02235 -0.084169 0.013821 0.074326 0.052623 
0.16722 0.056733 -0.11919 0.010369 -0.052602 0.038483 0.054596 0.035031 
0.17297 0.060022 -0.15766 0.049828 -0.046354 0.021056 0.048513 0.016781 
0.12464 0.10392 -0.11557 0.1276 0.0054362 0.034044 0.018425 0.010533 
0.092576 0.12332 -0.075127 0.19616 0.055911 0.012835 0.021056 -0.011992 
0.072681 0.081889 -0.02498 0.19451 0.038648 0.015301 -0.0040998 -0.020541 
-0.0052507 0.033715 0.020233 0.049006 -0.045039 0.035853 0.0044497 -0.00097594 
-0.03501 -0.0067304 0.036346 -0.10752 -0.13678 -0.0042642 0.0036276 -0.0072237 
-0.072167 0.0069159 -0.029913 -0.11031 -0.15026 -0.0057439 0.055747 0.057391 
-0.081045 0.018754 -0.087293 -0.083018 -0.11689 0.026646 0.071366 0.066105 
-0.068221 0.0324 -0.032872 0.01152 -0.041915 0.065776 0.050979 0.038977 
-0.019719 0.038648 0.085835 0.067585 0.011684 0.082875 0.083204 0.035524 
0.017932 0.033058 0.10902 0.059857 -0.032708 0.067585 0.11954 0.058213 
0.016452 0.014315 0.13483 -0.055068 -0.1011 0.029769 0.12562 0.057062 
0.1733 -0.061809 0.19418 -0.13875 -0.1552 0.0051074 0.077121 0.012506 
0.33574 -0.084498 0.10326 -0.093212 -0.14089 0.023357 -0.00081153 -0.0032777 
0.40348 -0.038133 -0.053424 -0.032215 -0.092719 0.046046 0.022042 -0.0034422 
0.23118 0.011191 -0.11639 0.016288 -0.063618 0.04917 0.012013 -0.020706 
-0.13053 0.039963 -0.080881 0.047526 -0.037476 0.020233 -0.0036066 0.0054362 
-0.31155 0.082217 -0.0096899 0.080409 -0.02498 0.029441 -0.017911 0.014808 
-0.13875 0.046375 0.031085 0.098988 -0.013636 0.016945 -0.049971 0.045553 
-0.017911 0.087479 0.14239 0.044402 -0.036325 -0.014787 -0.072167 0.027303 
-0.042079 0.13532 0.15933 -0.019061 -0.097322 -0.02646 -0.061645 0.0090533 
0.0060938 0.12036 0.091918 -0.035832 -0.086471 -0.035503 -0.042901 0.011684 
0.08419 0.082382 0.069722 -0.017582 -0.079237 -0.027447 -0.066413 0.011026 
0.045553 0.028783 0.078765 0.0421 -0.046683 -0.021034 -0.049971 0.05213 
0.0062583 -0.040271 0.18366 0.032729 -0.046519 -0.0022913 -0.03057 0.052952 
0.012506 -0.051615 0.29201 -0.00015387 -0.062796 -0.0013048 0.022864 0.052459 
0.040456 0.022042 0.17593 0.0092177 -0.034845 0.0088889 0.047526 0.023357 
0.073997 0.15966 -0.12626 0.065283 -0.034023 0.04095 0.072681 0.019083 
0.084355 0.21605 -0.51444 0.13582 0.019411 0.049335 0.06331 0.0095465 
0.10425 0.19813 -0.42335 0.085999 -0.0052507 0.059528 0.083368 0.031085 
0.17281 0.10819 -0.14418 0.092411 -0.010348 0.067585 0.057391 0.030263 
0.24203 -0.047669 -0.0060728 0.089452 -0.0075525 0.050321 0.03536 0.046375 
0.19237 -0.071674 -0.027282 0.091753 -0.01117 0.038648 0.011355 0.011355 
0.059364 0.03388 -0.072989 0.088301 -0.02087 0.028947 -0.017582 0.028947 
-0.021363 0.055747 -0.073482 -0.018404 -0.095349 -0.00015387 0.015465 -0.0039354 
-0.053588 0.12118 -0.045696 -0.084827 -0.12445 -0.0087034 -0.0082102 0.013328 
-0.063124 0.17297 -0.097816 -0.048492 -0.086142 0.0087245 -0.017582 0.0092177 
-0.023172 0.23792 -0.031228 -0.016595 -0.086964 -0.0042642 -0.031228 0.0067515 
-0.0068948 0.27047 0.22016 -0.024487 -0.073976 -0.0055795 0.0069159 -0.028597 
-0.018733 0.27491 0.38671 -0.041257 -0.086142 0.0064227 -0.00081153 -0.036489 
-0.032872 0.1391 0.33509 -0.035832 -0.094199 0.01415 0.01974 0.033551 
0.029605 -0.064111 0.18432 -0.037805 -0.090088 0.030098 0.036675 0.055418 
0.064954 -0.16342 0.024508 -0.023829 -0.083512 0.031907 0.049828 0.047691 
-0.016595 -0.13415 -0.077757 0.007738 -0.048327 0.028454 0.059857 0.017932 
-0.11442 -0.076606 -0.15043 0.023522 -0.06855 0.0032988 0.055911 0.046375 
-0.092719 -0.020541 -0.1404 0.078765 -0.023501 0.046046 0.055582 0.05065 
-0.029913 0.06742 -0.087458 0.075148 -0.014293 0.038812 0.071531 0.073668 
0.057391 0.11083 -0.023172 0.078436 -0.026789 0.040785 0.067256 0.059364 
0.070215 0.10951 0.0026412 0.024344 -0.047505 0.043416 0.074654 0.038319 
0.03651 0.11543 -0.047834 0.01826 -0.052931 0.027139 0.013492 0.022371 
0.13253 0.11083 -0.035996 0.066927 -0.024487 0.03092 -0.036325 0.0093821 
0.28017 0.061008 0.06594 0.070051 -0.03764 -0.020706 -0.094692 -0.014787 
0.28494 -0.057041 0.19599 0.0090533 -0.083347 -0.07825 -0.12856 -0.033201 
0.10507 -0.064933 0.20635 -0.061316 -0.11113 -0.06855 -0.11031 -0.019719 
-0.12905 0.064296 0.073175 0.0031344 -0.079566 -0.00031829 -0.0503 0.00066819 
-0.19564 0.20553 -0.012485 0.095864 -0.00097594 0.073339 -0.0027845 0.05772 
-0.10521 0.17001 -0.029913 0.16015 0.056733 0.10984 0.1225 0.082382 
0.068571 0.093891 -0.011334 0.22822 0.091096 0.11214 0.18925 0.11888 
0.14174 -0.025145 0.041443 0.17396 0.050321 0.074654 0.16064 0.10655 
0.11872 -0.10571 0.04095 0.096521 -0.015773 0.046211 0.12447 0.097179 
0.013164 -0.090253 0.023686 0.00050378 -0.054082 0.029934 0.12036 0.067913 
-0.17197 0.01152 0.027632 -0.036489 -0.10423 -0.0049219 0.078929 0.058213 
-0.3474 0.094055 0.02122 -0.084663 -0.12823 -0.038791 0.013657 -0.025474 
-0.15651 0.042758 0.051636 -0.069372 -0.1182 -0.023336 -0.018239 -0.045696 
0.20898 -0.14582 0.047526 0.027796 -0.061809 0.032564 -0.0068948 -0.0138 
0.32851 -0.1843 0.012999 0.065612 -0.027447 0.049006 0.043251 0.033387 
0.1345 -0.098967 0.060844 0.10556 -0.010676 0.028783 0.054267 0.06742 
-0.097651 0.0227 0.081067 0.067256 -0.032872 0.021713 0.049992 0.046211 
-0.062796 0.092082 0.050814 0.033715 -0.058028 0.0227 0.038483 0.022206 
-0.018075 0.14305 0.0037921 0.0019835 -0.062467 0.034044 0.024508 -0.0029489 
0.16771 0.1539 0.12381 0.038319 -0.0039354 0.043087 0.039141 -0.0011404 
0.26209 0.19188 0.17429 0.071531 0.0092177 0.058049 0.025166 0.014808 
0.17215 0.13598 -0.068714 0.077285 -0.0073881 0.042594 0.033387 0.06742 
0.084355 0.061995 -0.19137 0.046868 -0.04471 0.037004 0.057227 0.076627 
0.079916 0.027303 -0.12412 0.0036276 -0.090253 0.0082312 0.097179 0.10491 
0.07301 0.018918 0.0023123 -0.049807 -0.11541 -0.025474 0.076299 0.058871 
0.028783 -0.017911 0.15801 -0.0088678 -0.09091 -0.031557 0.022206 0.036182 
-0.029913 -0.07003 0.29612 0.064296 -0.029091 -0.0042642 -0.017582 0.014479 
-0.1427 -0.087129 0.31569 0.098988 -0.0138 0.017603 -0.042901 0.066598 
-0.22606 -0.088115 0.30483 0.098001 -0.0044286 0.038648 -0.0016336 0.07301 
-0.10357 -0.071345 0.25173 0.10737 -0.00081153 0.028783 0.004943 0.024015 
0.11132 -0.0042642 0.13384 0.11855 -0.017911 0.017603 0.013657 -0.058192 
0.22098 0.13417 0.042594 0.046375 -0.049807 0.011191 0.036017 -0.09091 
0.12381 0.15226 -0.01528 -0.017911 -0.08121 0.032071 0.065776 -0.021692 
-0.092719 0.06183 -0.014129 -0.018897 -0.06707 0.047526 0.097015 0.077943 
-0.17131 -0.025145 -0.034845 -0.00097594 -0.059178 0.059364 0.13006 0.15785 
0.069064 -0.02087 0.018754 0.053116 -0.026953 0.050979 0.084684 0.094713 
0.31848 -0.018239 0.043745 0.0421 -0.014951 0.023357 0.010533 -0.019884 
0.37603 -0.11935 0.0059294 0.0013258 -0.070852 0.015137 -0.020212 -0.006566 
0.34988 -0.14385 -0.071181 -0.047505 -0.10225 -0.021034 -0.0406 -0.0062372 
0.32193 -0.051615 -0.049642 -0.052931 -0.11179 -0.039613 -0.1039 -0.057205 
0.18662 0.050486 0.021384 -0.037805 -0.12774 -0.048163 -0.18676 -0.063289 
-0.010841 0.17511 0.10787 -0.080552 -0.14089 -0.042573 -0.20814 -0.066577 
-0.11261 0.25863 0.12694 -0.056383 -0.11524 -0.025967 -0.082032 0.013328 
-0.2476 0.29168 0.1174 0.053774 -0.028597 0.01267 0.046704 0.073997 
-0.30942 0.26225 0.097344 0.12842 0.0054362 0.040292 0.14996 0.1105 
-0.23905 0.22723 0.061008 0.074326 -0.018568 0.059693 0.18794 0.052623 
-0.1113 0.17001 0.048184 0.048677 -0.01676 0.08008 0.17495 0.044567 
0.041772 0.099316 0.020069 0.060844 -0.025145 0.057884 0.12957 0.062817 
0.11296 -0.00081153 0.067913 0.07597 -0.014622 0.039141 0.073504 0.072188 
0.083368 -0.13349 0.12694 0.01563 -0.059178 0.0062583 0.0098754 0.03651 
-0.024652 -0.13103 0.050486 -0.018404 -0.095843 -0.019884 -0.063946 0.0065871 
-0.074304 -0.0052507 -0.049149 -0.044217 -0.10834 -0.0138 -0.093705 -0.022843 
-0.045203 0.065447 -0.0771 -0.017746 -0.074962 -0.012814 -0.040271 -0.0060728 
-0.037147 0.13121 0.041443 0.0090533 -0.033365 0.0079024 0.023028 0.018096 
0.092904 0.19057 0.15324 0.013986 -0.060494 0.017767 0.045224 -0.0052507 
0.20536 0.23035 0.09981 -0.004593 -0.063618 0.066598 0.066105 0.053445 
0.28708 0.21769 0.04917 -0.03764 -0.080059 0.080244 0.039963 0.026317 
0.39855 0.12891 -0.0075525 0.01974 -0.055397 0.042923 0.0070803 0.0037921 
0.47895 0.047691 0.061337 -0.014458 -0.069208 0.027961 -0.023007 -0.079401 
0.46728 0.030263 0.12595 0.0016547 -0.05885 0.048513 0.015794 -0.051615 
0.34396 0.02681 0.023357 0.060022 -0.015773 0.067913 0.041607 0.012342 
0.18087 -0.027118 -0.090088 0.045718 -0.041093 0.056404 0.034044 0.033387 
-0.086964 -0.14056 -0.069043 0.039305 -0.043066 0.031907 0.0072447 0.034702 
-0.18857 -0.1307 0.009711 0.0042853 -0.042408 0.018918 0.0019835 0.076299 
-0.1889 -0.094199 0.01004 0.0090533 -0.076442 0.012506 0.025988 0.073339 
-0.24464 0.0082312 -0.037147 0.046046 -0.047834 0.020233 0.037332 0.083862 
-0.27834 0.10491 -0.14862 0.091589 -0.0090322 0.030263 0.059528 0.1003 
-0.18742 0.13993 -0.14089 0.13384 0.012999 0.020727 0.097837 0.058377 
-0.092883 0.11461 -0.06296 0.062981 -0.026131 0.016945 0.064296 0.046704 
-0.031392 0.11872 0.019083 0.019247 -0.04882 0.037168 0.036346 0.036017 
0.041607 0.09685 0.090767 0.039634 -0.024158 0.0067515 0.0051074 0.013657 
0.14502 0.063803 0.081889 0.037497 -0.034188 -0.003771 -0.010512 -0.021363 
0.18777 0.06594 -0.0080457 -0.011992 -0.064933 0.025166 0.013328 -0.0032777 
0.16475 0.10458 -0.096829 -0.0138 -0.067892 0.04506 0.061008 0.012835 
0.098166 0.13549 -0.074962 0.015137 -0.057699 0.055582 0.061008 0.025495 
0.071366 0.12036 -0.048985 0.014315 -0.053588 0.056076 0.042265 0.0019835 
0.052952 0.027139 -0.016266 0.030098 -0.047834 0.033551 0.014808 0.021384 
0.079587 -0.032215 0.035524 0.052952 -0.038133 0.0069159 0.0021479 -0.0098543 
0.18448 -0.0039354 0.086821 0.076627 -0.02498 0.017438 0.02533 -0.0062372 
0.24844 0.050979 0.083697 0.08419 -0.014129 0.024508 0.055254 -0.0067304 
0.11329 0.077285 0.07038 0.039634 -0.013636 0.029276 0.081231 0.05065 
0.0085601 0.049664 0.040292 0.0019835 -0.06855 0.032071 0.085012 0.07301 
0.029112 0.013657 0.10639 -0.066577 -0.1062 0.031085 0.10754 0.082382 
0.14223 0.0041209 0.23529 -0.089266 -0.12609 0.051308 0.093233 0.059528 
0.17758 -0.060165 0.23019 0.020398 -0.065919 0.046211 0.050321 0.037497 
0.083862 -0.062467 0.040128 0.042758 -0.036818 0.047526 0.041278 0.052623 
-0.029091 -0.088444 -0.12823 0.073832 -0.025638 0.017767 0.023028 0.026646 
-0.066413 -0.022185 -0.25039 0.10803 0.0041209 0.02829 0.061666 0.02829 
-0.072496 0.055582 -0.20814 0.0786 -0.029091 0.031085 0.020727 -0.0014692 
-0.10867 0.068571 -0.058192 0.032564 -0.040271 0.0092177 0.0085601 0.0019835 
-0.17657 -0.025145 0.12464 -0.011334 -0.064111 -0.00064712 -0.014458 -0.047012 
-0.16786 -0.029584 0.24564 0.0075736 -0.076277 -0.021363 0.00083261 -0.047176 
-0.086142 0.093233 0.12875 -0.021856 -0.089595 0.017438 0.0069159 -0.0032777 
-0.066413 0.24959 -0.17673 0.010862 -0.060494 0.0024767 0.0069159 0.055747 
-0.15668 0.20471 -0.36055 0.062652 -0.027611 0.017767 0.027632 0.11083 
-0.16966 0.10852 -0.22885 0.0051074 -0.065591 0.020891 0.024837 0.1248 
-0.056877 -0.048492 -0.075949 -0.029748 -0.082854 0.016945 0.024344 0.084519 
0.22526 -0.12182 0.038155 -0.14402 -0.13727 0.0069159 -0.0031133 0.040292 
0.38556 -0.063453 0.0034632 -0.079237 -0.14007 -0.0052507 0.0092177 -0.0055795 
0.3678 0.042758 0.097837 -0.036818 -0.086636 0.014479 -0.0032777 0.0032988 
0.232 0.058049 0.30927 -0.015444 -0.076113 0.020069 0.011355 -0.033694 
0.063968 -0.0019624 0.54504 -0.0039354 -0.087622 -0.022843 -0.0019624 -0.030899 
-0.077428 -0.053753 0.53304 0.01267 -0.080388 0.013821 -0.012156 -0.00097594 
-0.09798 -0.037476 0.35958 0.08304 -0.034516 -0.00097594 0.0227 0.025988 
-0.099789 0.069393 0.12168 0.16064 0.029769 0.009711 0.011684 0.034209 
-0.038133 0.14009 -0.076606 0.16558 0.024508 -0.00097594 0.031578 0.0042853 
0.030263 0.18777 -0.2111 0.12612 0.0098754 0.022206 0.027632 0.032729 
-0.03501 0.17001 -0.21323 0.067256 -0.011827 0.026974 0.0324 0.037168 
-0.067892 0.086985 -0.052931 -0.0019624 -0.08532 0.011684 0.015959 0.05772 
0.048513 0.086492 0.030263 -0.12264 -0.14747 -0.0064016 0.017767 0.034044 
0.2343 0.082217 0.049992 -0.1621 -0.16999 -0.018404 0.013328 0.028619 
0.23627 0.066105 -0.0013048 -0.015609 -0.08828 0.0056006 -0.014293 0.0041209 
0.10277 0.049828 -0.041751 0.097015 -0.0067304 0.031578 -0.027611 0.0013258 
-0.019226 0.09833 -0.0083746 0.18399 0.042758 0.024508 -0.012156 0.0092177 
-0.057205 0.11872 0.060186 0.16327 0.044238 0.046704 0.046211 0.043909 
-0.0073881 0.080902 0.051308 0.087643 -0.02794 0.03947 0.052952 0.080409 
0.11526 0.011191 0.033551 0.027796 -0.052109 0.038483 0.043745 0.076792 
0.14469 0.045718 -0.022185 0.044567 -0.041915 0.034044 0.031578 0.062652 
0.085506 0.13335 -0.060165 0.13894 0.0059294 0.019083 0.0079024 0.016616 
0.095699 0.022535 0.051965 0.12069 0.0016547 0.0046141 0.0074092 0.0023123 
0.10474 -0.14533 0.14519 0.043909 -0.048327 0.010697 0.012177 -0.012156 
0.065776 -0.067564 0.098166 0.021713 -0.065262 -0.0034422 0.017932 0.032893 
0.07597 0.057555 0.0026412 0.0090533 -0.076771 -0.0077169 -0.00015387 0.007738 
0.0098754 0.046046 0.018754 0.010697 -0.067728 0.0032988 0.029276 0.025166 
-0.020706 -0.027282 0.15407 0.020069 -0.042901 -0.0032777 0.0065871 0.014479 
-0.027611 -0.10554 0.28954 0.08304 -0.032708 0.013986 0.029934 0.053609 
-0.090746 -0.13908 0.25469 0.13384 0.0039565 0.027139 0.018589 0.055418 
-0.11541 -0.095514 0.17856 0.17445 0.030098 0.029112 0.014315 0.048841 
-0.071674 -0.0034422 0.076627 0.15407 0.0069159 0.024837 0.048841 0.015794 
0.024015 0.058377 -0.010841 0.05476 -0.039284 0.027303 0.028783 -0.00031829 
0.08419 0.098823 -0.11327 0.030756 -0.044546 0.052294 0.041278 0.0074092 
0.12233 0.07597 -0.182 0.078436 0.0031344 0.052952 0.073339 0.044896 
0.09274 0.097015 -0.19449 0.086163 -0.0090322 0.055911 0.098823 0.068242 
0.054103 0.1299 -0.19449 0.093233 -0.0021268 0.060022 0.072517 0.073339 
0.057227 0.1641 -0.16128 0.097508 -0.00081153 0.05772 0.038812 0.045882 
0.050157 0.17034 -0.17049 0.093562 -0.023007 0.046211 -0.0021268 0.010862 
-0.04471 0.18202 -0.1963 0.10951 -0.019555 0.028619 -0.0024557 0.044896 
-0.089102 0.12891 -0.087458 0.022864 -0.049642 0.017767 0.025495 0.011191 
0.0014903 0.087314 0.032236 0.046046 -0.045532 -0.00015387 -0.0044286 0.044402 
0.19385 0.030263 0.17001 -0.024323 -0.097322 -0.012156 -0.0095255 0.011026 
0.26258 0.07597 0.24186 -0.057041 -0.11327 -0.0055795 -0.0055795 0.0037921 
0.23989 0.059857 0.19928 -0.061151 -0.071838 -0.018568 0.04654 0.016616 
0.2075 0.054103 -0.0052507 0.020398 -0.072167 0.0011614 0.041936 -0.008539 
0.13351 -0.033037 -0.16473 -0.026624 -0.090417 0.017438 0.052623 0.0037921 
0.0072447 -0.14632 -0.1381 -0.092883 -0.12725 0.019083 0.036346 0.031578 
-0.13284 -0.23543 0.057227 -0.054575 -0.10982 0.047362 0.057227 0.064625 
-0.24776 -0.17345 0.23052 -0.030077 -0.066906 0.060679 0.087972 0.071695 
-0.26979 -0.00064712 0.41253 -0.014129 -0.054739 0.065612 0.069722 0.069393 
-0.20123 0.14552 0.56247 -0.0078813 -0.057205 0.031249 0.054432 0.069886 
-0.19975 0.19912 0.45494 0.013986 -0.066248 0.037497 0.049664 0.061995 
-0.23461 0.18613 0.16475 0.10458 -0.013471 0.026152 0.067585 0.073997 
-0.2083 0.061666 -0.021528 0.15242 0.039799 0.049992 0.060186 0.082382 
-0.13284 -0.09091 -0.053424 0.15489 0.02681 0.059857 0.050814 0.077943 
0.053116 -0.073318 -0.15931 0.098823 -0.0016336 0.059857 0.074161 0.048513 
0.35366 0.099974 -0.16062 0.083697 -0.01939 0.033058 0.061172 0.011684 
0.47648 0.19912 -0.039942 0.11296 -0.015116 0.010533 0.042923 0.024179 
0.37964 0.21474 -0.063782 0.076956 -0.042408 -0.013471 -0.0057439 -0.0054151 
0.35005 0.14798 -0.096994 -0.0050863 -0.090088 -0.042408 -0.03501 -0.016924 
0.39526 0.035031 -0.059343 -0.039449 -0.074633 0.012177 -0.025474 -0.034188 
0.54373 -0.083676 -0.055232 -0.093376 -0.10456 0.045553 0.036182 -0.014787 
0.52646 -0.12001 0.02829 -0.19449 -0.1552 0.063639 0.051636 -0.049314 
0.16442 -0.086307 0.093069 -0.24694 -0.19663 0.01974 -0.0138 -0.022185 
-0.17624 -0.04619 0.061337 -0.20304 -0.19794 -0.019719 -0.030242 0.029605 
-0.54831 0.053116 -0.039778 -0.14878 -0.16391 0.0016547 0.027139 0.099974 
-0.656 0.14634 -0.052931 -0.080552 -0.11278 0.0090533 0.087972 0.10556 
-0.37124 0.18119 0.10408 -0.058521 -0.092061 -0.0027845 0.079751 0.062652 
-0.0050863 0.12628 0.16097 -0.038298 -0.094199 -0.0072237 0.02829 0.031249 
0.20586 -0.043395 0.13269 0.026974 -0.055068 0.023193 0.016616 -0.0026201 
0.19451 -0.094363 0.016123 0.088136 0.0039565 0.047691 0.054103 0.021384 
0.10902 0.037826 -0.094363 0.11937 0.0018191 0.053281 0.090931 0.01974 
0.056076 0.22641 -0.13448 0.10293 0.0095465 0.031249 0.046046 0.024673 
0.025001 0.28297 -0.12807 0.11921 0.01415 0.047197 0.018096 -0.0040998 
0.031085 0.24597 -0.051615 0.13795 0.015959 0.061337 -0.014622 0.021056 
0.037004 0.17528 0.096686 0.058871 -0.031392 0.0083956 -0.028269 0.017767 
0.069229 0.085835 0.26948 -0.024158 -0.081539 -0.0026201 -0.066577 0.021549 
0.088301 -0.0098543 0.3244 -0.080717 -0.10225 -0.012978 -0.038627 0.016781 
0.10622 -0.10324 0.26505 -0.036489 -0.096336 0.0031344 -0.025309 -0.0032777 
0.27425 -0.14961 0.19698 -0.0050863 -0.071016 0.043745 -0.014951 -0.01528 
0.45725 -0.121 0.16262 -0.00097594 -0.070523 0.011355 -0.0077169 -0.0050863 
0.34955 -0.029255 0.038812 0.054596 -0.043724 0.021056 0.0075736 -0.00064712 
0.034044 0.080244 -0.16046 0.062488 -0.029584 0.042758 0.066434 0.073832 
-0.22014 0.11444 -0.14993 0.069064 -0.010348 0.068736 0.061995 0.099481 
-0.22359 0.043251 -0.038627 0.085012 -0.011663 0.035524 0.066434 0.047197 
-0.00097594 -0.072496 0.032564 0.051801 -0.048492 0.025166 0.029934 -0.031886 
0.15489 -0.1547 -0.035174 0.012835 -0.071181 0.017932 0.019576 -0.079895 
0.10441 -0.14155 -0.11212 0.028125 -0.035667 0.019411 -0.016266 -0.062138 
-0.073318 0.013328 -0.049807 0.045389 -0.053424 0.016288 0.011848 -0.016102 
-0.26338 0.14765 -0.063782 -0.0059084 -0.077264 0.034044 0.045553 0.079094 
-0.26979 0.18498 -0.083512 -0.042901 -0.09239 0.031578 0.039141 0.10195 
-0.17213 0.15587 -0.0060728 -0.025967 -0.087786 0.012342 0.025001 0.088301 
-0.042737 0.11296 0.038977 -0.020212 -0.082525 0.012013 0.023851 0.048184 
0.097344 0.11165 0.049006 0.016945 -0.054575 0.036346 0.011355 0.020398 
0.25469 0.10639 -0.018568 0.065612 -0.0067304 0.025824 -0.008539 -0.021692 
0.39493 0.050321 -0.036325 0.094055 -0.020541 0.04654 -0.02646 -0.026296 
0.23381 0.016288 -0.012814 0.08304 -0.015116 0.020891 -0.0019624 0.0046141 
0.018589 -0.023172 -0.018075 0.055418 -0.036654 0.0075736 0.021549 0.061995 
-0.11557 0.0021479 0.01563 0.029605 -0.061316 0.018918 0.050157 0.062817 
-0.17673 0.076627 0.024508 0.012177 -0.064768 0.012999 0.050321 0.041443 
-0.19679 0.098166 -0.0021268 0.031249 -0.054739 0.012013 0.05065 0.04095 
-0.17279 0.070215 -0.038462 0.047362 -0.048656 -0.0004827 0.04358 0.016945 
-0.13168 0.060679 -0.0024557 0.01267 -0.066248 0.032893 0.052787 0.029276 
-0.034023 0.028619 0.085506 -0.045532 -0.09239 0.026974 0.03799 -0.00081153 
0.021384 0.0083956 0.1419 -0.084498 -0.10456 0.015137 -0.015116 0.0074092 
0.010862 0.0026412 0.14075 -0.087622 -0.12725 0.010533 0.00017495 0.018589 
-0.029913 0.053445 0.15752 -0.11705 -0.13843 -0.0047575 0.016781 0.059035 
0.042265 0.11937 0.1026 -0.10406 -0.12971 0.041607 0.052787 0.059528 
0.19122 0.10293 -0.0070593 -0.0082102 -0.087786 0.037004 0.038319 0.062159 
0.21967 0.044567 -0.090746 0.11444 -0.010676 0.036675 0.027632 0.017767 
0.071366 0.044238 -0.082854 0.26488 0.077614 0.016781 -0.0049219 0.029769 
-0.068386 0.092576 0.011355 0.32111 0.12644 0.013986 -0.01117 0.030263 
-0.10406 0.10474 0.045224 0.26406 0.078765 0.0098754 0.011848 0.048184 
-0.03912 0.080573 0.0075736 0.13828 0.016123 -0.021363 0.016616 0.0074092 
0.054103 0.032893 0.035031 0.050814 -0.025474 -0.0049219 0.021878 0.0054362 
0.098494 -0.0034422 0.11461 0.10935 -0.010512 0.018918 0.034044 0.011848 
0.087972 -0.075949 0.22394 0.2269 0.078107 0.048019 0.098988 0.051636 
0.20191 -0.12297 0.29612 0.30615 0.13384 0.071366 0.16903 0.10096 
0.11494 -0.09239 0.16294 0.26801 0.11822 0.055747 0.20816 0.12036 
-0.12873 0.062323 0.13664 0.0064227 -0.054575 0.026974 0.17001 0.14453 
-0.17756 0.13861 0.18481 -0.23954 -0.22409 0.0026412 0.099645 0.03388 
-0.12231 0.15308 0.099316 -0.28574 -0.23066 0.031578 0.047526 0.036182 
0.037168 0.1008 -0.013636 -0.20584 -0.20732 0.032236 0.02122 0.041936 
0.14716 0.13105 -0.10669 -0.11442 -0.13859 0.034044 -0.0039354 0.020727 
0.14256 0.12233 -0.048985 -0.041751 -0.094856 0.042758 -0.027447 -0.01528 
0.007738 0.10063 -0.034023 0.034702 -0.05441 0.031907 -0.019226 0.025001 
-0.061809 0.11231 -0.026953 0.069558 -0.017253 0.040456 -0.03764 0.048677 
0.017603 0.10293 -0.024816 0.097344 -0.0059084 0.015959 -0.061316 0.02533 
0.11592 0.024015 0.0082312 0.11658 -0.0039354 -0.012156 -0.066577 -0.022021 
0.17939 -0.0060728 0.052952 0.092247 -0.023829 -0.053917 -0.016924 -0.020212 
0.17889 0.029605 0.027303 0.063145 -0.033201 -0.017417 0.042429 -0.023007 
0.12529 0.025166 0.0069159 0.071366 -0.011827 -0.0055795 0.060844 -0.0036066 
0.070544 -0.060165 0.036675 0.088136 -0.017417 0.016288 0.069722 0.01711 
0.062323 -0.14467 0.057062 0.084026 -0.012814 0.01152 0.066269 0.017438 
0.13565 -0.0055795 0.092082 0.073668 -0.016924 0.032564 0.05213 0.026646 
0.15078 0.11921 0.093069 0.10688 -0.004593 0.057227 0.031414 -0.0088678 
0.098659 0.14272 0.086821 0.10244 -0.0039354 0.050979 0.046704 0.026646 
0.065612 0.11083 0.099645 0.13023 0.010697 0.038483 0.031085 0.040785 
0.031085 0.046868 0.14601 0.091918 -0.0016336 0.028125 0.045389 0.048184 
-0.023172 0.037826 0.13039 0.029112 -0.060329 0.036017 0.049006 0.029276 
-0.063946 0.06035 0.079751 -0.028104 -0.086142 0.013657 0.03947 0.022042 
-0.12626 0.11362 -0.0082102 -0.032379 -0.083676 0.018425 0.012506 0.015959 
-0.10308 0.089287 -0.041751 0.03092 -0.064111 -0.022679 0.0024767 0.037497 
-0.02087 0.094548 -0.013636 -0.003771 -0.072332 -0.015938 0.0018191 0.014972 
0.071695 0.080738 -0.04619 -0.086636 -0.12116 0.0023123 0.010862 0.013492 
0.13368 0.085341 -0.062467 -0.068714 -0.10094 0.027468 -0.0016336 0.019576 
0.1373 0.10326 -0.072332 -0.073482 -0.10686 0.046375 0.037497 0.039305 
0.1128 0.1271 -0.049149 -0.072989 -0.095843 0.050979 0.082711 0.04358 
0.037661 0.098001 -0.027118 -0.072003 -0.077922 0.068571 0.11263 0.093233 
-0.045039 0.058706 -0.038298 -0.011334 -0.077593 0.053938 0.097837 0.094877 
-0.10078 0.027139 0.081395 -0.03501 -0.084005 0.040456 0.070873 0.079094 
-0.078908 -0.11639 0.25502 -0.036983 -0.084827 0.026974 0.034702 0.088301 
-0.018897 -0.27522 0.25058 0.03947 -0.04471 0.018425 0.025824 0.030592 
0.060515 -0.28196 0.13812 0.049335 -0.03764 0.030427 -0.0050863 -0.039449 
0.084684 -0.061151 -0.0062372 0.032893 -0.058685 -0.0070593 -0.050136 -0.093541 
0.084355 0.18974 -0.058192 0.012342 -0.055397 -0.017088 -0.091075 -0.069043 
0.20454 0.30763 0.023851 0.00083261 -0.097651 -0.046683 -0.099131 -0.073811 
0.35399 0.25699 0.14617 0.028454 -0.076113 -0.045861 -0.12018 -0.087622 
0.20454 0.12118 0.10392 0.062652 -0.045203 -0.02087 -0.13399 -0.10028 
-0.1187 0.02681 -0.05441 0.049006 -0.047012 -0.0040998 -0.024158 0.048184 
-0.17936 -0.071181 -0.10587 -0.023501 -0.091239 0.0082312 0.10721 0.15061 
-0.073154 -0.16868 -0.086307 -0.038133 -0.086636 0.042594 0.17593 0.16492 
-0.076606 -0.19909 -0.067235 0.022042 -0.063782 0.091753 0.17265 0.1105 
-0.10521 -0.19811 -0.084663 0.016288 -0.049642 0.095864 0.11099 0.11214 
-0.11311 -0.032379 -0.046683 0.048019 -0.02087 0.060186 0.062817 0.08304 
-0.094856 0.20208 -0.073647 0.083862 0.023522 0.06183 0.048019 0.097015 
-0.014787 0.31322 -0.085156 0.17281 0.04506 0.048184 -0.014293 0.076956 
0.13598 0.20849 -0.057041 0.12562 0.021549 0.055582 -0.078579 0.03388 
0.26307 0.062817 0.0019835 0.027468 -0.043724 0.028125 -0.070523 -0.010512 
0.10293 -0.047341 0.11609 -0.039284 -0.11623 0.026646 -0.035338 -0.014293 
-0.17723 -0.0771 0.047033 -0.14023 -0.16013 -0.0070593 0.075148 0.06035 
-0.23938 0.029605 -0.026953 -0.12215 -0.15487 0.0087245 0.090603 0.050321 
-0.098638 0.1202 -0.034023 -0.017253 -0.080388 0.018918 0.085506 0.0421 
0.0095465 0.13549 0.084026 0.01152 -0.070523 0.00083261 0.067091 0.0092177 
0.048677 0.079422 0.16771 -0.011992 -0.080388 -0.010348 0.038483 0.0026412 
0.013986 -0.009361 0.12217 -0.0078813 -0.074304 -0.035503 0.0026412 -0.047341 
0.0087245 -0.075127 0.11214 0.047033 -0.067728 -0.023994 -0.045696 -0.056712 
0.13023 -0.085813 0.099645 0.10392 -0.016431 0.012177 -0.059014 -0.047012 
0.22328 -0.078744 0.054432 0.14996 0.01826 0.038812 -0.037805 0.020398 
0.21128 -0.079072 0.020727 0.20586 0.064296 0.073175 0.042758 0.040621 
0.13401 -0.037311 0.0062583 0.15324 0.035031 0.063639 0.062981 0.07449 
0.010697 0.054103 -0.037969 0.086821 -0.0049219 0.072517 0.049828 0.08715 
-0.1233 0.12579 -0.16062 0.053774 -0.02087 0.062652 0.046375 0.094384 
-0.1695 0.12825 -0.33917 0.04654 -0.041093 0.024673 0.036346 0.093891 
-0.11672 0.1179 -0.41431 0.053445 -0.03501 0.027961 0.053445 0.087479 
-0.12988 0.045224 -0.3566 0.071037 -0.028597 0.021878 0.03799 0.074326 
-0.21619 0.038812 -0.16884 0.066763 -0.041422 0.023028 0.017767 -0.0019624 
-0.081539 0.041114 0.063145 -0.019884 -0.09387 -0.0022913 -0.029913 -0.046519 
0.20783 0.02681 0.25913 -0.05737 -0.1085 0.0014903 -0.012485 -0.060987 
0.26274 -0.0091966 0.42387 -0.052273 -0.097816 0.0093821 -0.0052507 0.012835 
0.065776 0.038319 0.524 -0.040271 -0.10225 0.023357 0.035524 0.04506 
-0.043395 0.079422 0.52383 -0.033037 -0.084498 0.038155 0.063968 0.073175 
-0.068879 0.051472 0.47698 0.04506 -0.022185 0.037661 0.076627 0.073832 
-0.00031829 0.021549 0.4487 0.094384 -0.019884 0.037826 0.093891 0.055911 
0.15242 -0.0022913 0.42749 0.043087 -0.042244 0.034373 0.067256 0.012835 
0.30253 -0.041751 0.30598 -0.042573 -0.094692 0.025659 0.02681 -0.00015387 
0.24449 -0.01676 -0.031721 -0.09387 -0.12067 0.0064227 0.0065871 -0.042408 
0.0080668 0.10096 -0.30613 -0.093705 -0.12248 0.009711 0.055747 -0.035174 
-0.097651 0.26965 -0.43996 -0.051944 -0.095678 -0.00015387 0.060844 -0.05441 
0.048348 0.29069 -0.41004 -0.0087034 -0.050793 0.031249 0.074654 -0.012978 
0.35317 0.22131 -0.32273 0.1151 0.024837 0.17248 0.12677 0.034209 
0.21128 0.098001 -0.29577 0.21342 0.077121 0.097015 0.14585 0.072024 
-0.059507 0.0072447 -0.16539 0.23973 0.090109 0.077778 0.15966 0.088958 
-0.14895 -0.06855 0.071859 0.18744 0.034209 0.044238 0.10556 0.061172 
-0.13711 -0.062138 0.26422 0.078765 -0.02794 0.021713 0.039634 0.042758 
-0.038462 -0.016595 0.34413 0.031907 -0.055561 -0.0004827 0.0083956 0.0039565 
0.013821 0.050321 0.22624 0.068407 -0.033859 -0.036325 -0.044874 -0.025802 
-0.034352 0.083533 0.15374 0.097508 -0.041422 -0.057041 -0.084005 -0.021856 
-0.028762 0.1197 0.15982 0.048677 -0.055726 -0.04471 -0.11968 0.00017495 
0.031249 0.12431 0.24762 -0.04471 -0.09091 -0.015773 -0.086142 0.0072447 
0.064954 0.12908 0.32637 -0.11524 -0.15191 0.0047785 -0.046683 0.049992 
0.11231 0.070708 0.30566 -0.13218 -0.1575 1.0539e-005 0.025659 0.073668 
0.09274 0.025824 0.18136 -0.10801 -0.13547 0.014972 0.057227 0.067091 
0.062323 -0.0091966 0.059693 -0.013636 -0.084991 0.037661 0.058213 0.061008 
0.082217 0.03799 -0.037476 0.034866 -0.034681 0.073832 0.067256 0.064296 
0.14897 0.0037921 -0.04323 0.073339 -0.0044286 0.058049 0.076956 0.025166 
0.18317 -0.01232 -0.049149 0.096193 0.010533 0.048513 0.067585 -0.0021268 
0.12792 0.0069159 -0.035667 0.068407 -0.035667 0.026481 0.046704 -0.0021268 
0.028454 0.056076 -0.053917 0.050157 -0.030242 0.036839 0.031742 0.0087245 
-0.073482 0.054925 -0.036654 0.073175 -0.018239 0.032236 0.030098 0.015465 
-0.15931 0.061501 0.037826 0.1179 -0.0024557 0.017603 0.060679 0.030756 
-0.13448 0.063968 0.064461 0.079916 -0.015773 0.0042853 0.038648 0.08008 
0.043087 0.1248 -0.043724 0.043251 -0.041257 -0.0024557 0.0090533 0.055582 
0.15653 0.12612 -0.12215 -0.00031829 -0.068057 0.026646 -0.0078813 0.054103 
0.066763 0.14617 -0.13464 -0.07414 -0.12116 0.01004 0.0083956 0.033551 
-0.021856 0.14815 -0.089759 -0.080881 -0.11426 0.020233 0.0036276 0.0044497 
0.018425 0.16706 -0.064768 -0.012156 -0.043724 0.029112 -0.022679 -0.032872 
1.0539e-005 0.097508 -0.037147 0.057391 -0.035338 0.037497 -0.027447 -0.029091 
0.005765 0.047362 -0.021692 0.059857 -0.032872 0.036675 -0.024816 -0.001798 
0.073997 0.031085 -0.0044286 0.095535 -0.018568 0.010862 0.010697 0.032071 
0.14798 0.07597 0.043745 0.15226 0.015137 0.0080668 0.01152 0.045224 
0.13532 0.11148 0.094384 0.12661 0.010533 0.018918 0.030263 0.062817 
0.079587 0.071859 0.12957 0.093891 -0.0060728 0.031907 0.018918 0.078436 
0.068242 -0.017417 0.20898 0.023686 -0.049314 -0.003771 0.0044497 0.063803 
0.040128 -0.11048 0.24811 -0.067564 -0.14106 -0.039778 -0.014951 0.068736 
-0.077428 -0.22063 0.13203 -0.11327 -0.15174 -0.039778 -0.028433 0.066105 
-0.21488 -0.32767 -0.075127 -0.1108 -0.12922 -0.030899 -0.013965 0.080902 
-0.25204 -0.33095 -0.28344 -0.058685 -0.11475 0.005765 0.035524 0.054103 
-0.20025 -0.079895 -0.37666 -0.043395 -0.087622 0.025659 0.071695 0.025001 
-0.12905 0.26998 -0.3229 0.012177 -0.048163 0.037332 0.069064 -0.02942 
-0.017911 0.45198 -0.24891 0.078436 -0.018897 0.048677 0.063474 -0.0050863 
0.095535 0.42305 -0.14155 0.045389 -0.020706 0.085177 0.055911 -0.003771 
0.1419 0.2736 -0.057205 0.064954 -0.017417 0.089945 0.039634 0.05476 
0.076627 0.11724 0.019083 0.11444 0.023522 0.041443 0.086492 0.033715 
0.017767 0.10819 0.053281 0.17297 0.01974 0.040128 0.093069 0.03799 
0.0056006 0.20076 0.068242 0.16903 0.026646 0.026481 0.13598 0.057227 
0.021384 0.17725 0.13203 0.17248 0.039141 0.053938 0.11526 0.077943 
-0.0057439 0.08156 0.14453 0.14387 0.020727 0.038319 0.047855 0.027139 
0.0064227 0.04358 0.078929 -0.012649 -0.064604 -0.010841 -0.058521 1.0539e-005 
0.046046 0.024508 0.055582 -0.15273 -0.15865 -0.024487 -0.095349 -0.01117 
0.074654 -0.038956 0.065612 -0.15898 -0.17032 -0.025967 -0.031064 0.0088889 
0.15999 -0.24645 0.17281 -0.10554 -0.15257 -0.00081153 -0.0014692 0.015301 
0.28132 -0.46018 0.24745 -0.0044286 -0.093048 -0.01232 -0.0004827 -0.015773 
0.28642 -0.41678 0.14157 0.050979 -0.027447 0.0047785 -0.0036066 0.016288 
0.028947 -0.27226 -0.036818 0.079258 -0.025802 0.0011614 0.0075736 0.07597 
-0.18594 -0.098144 -0.16868 0.051308 -0.031392 0.034537 0.032564 0.1248 
-0.218 0.06035 -0.121 0.024179 -0.042079 0.038483 0.081889 0.081067 
-0.16901 0.12809 0.039141 0.086492 -0.019226 0.041936 0.096521 0.059035 
-0.09946 0.20569 0.1345 0.10326 0.013164 0.045718 0.10244 0.04506 
-0.070687 0.27475 0.20799 0.083697 0.0023123 0.064461 0.10376 0.052459 
-0.068879 0.27031 0.19385 0.077121 0.0054362 0.062817 0.080244 0.042429 
-0.071016 0.20471 0.17971 0.070708 -0.026296 0.049335 0.067585 0.040456 
-0.041586 0.071531 0.24038 0.0069159 -0.060823 0.022864 0.024344 0.01563 
-0.006566 -0.031721 0.20684 -0.046683 -0.097322 -0.0068948 0.010204 0.032071 
0.035031 -0.082361 0.067585 -0.025474 -0.097487 0.0036276 0.020069 0.035031 
0.086657 -0.054904 -0.18331 -0.019061 -0.084498 0.01152 0.039305 0.030756 
0.14272 -0.040928 -0.3035 0.0047785 -0.068057 0.01004 0.01152 0.026317 
0.147 -0.0055795 -0.1838 0.02681 -0.054575 0.0046141 0.0031344 -0.0095255 
0.11576 0.0093821 0.053445 0.025659 -0.062138 0.011026 0.00297 0.021549 
0.081231 0.031249 0.17445 0.043745 -0.043395 0.014643 0.064625 0.017603 
0.1539 0.023028 0.23019 0.085999 0.00033937 0.044731 0.12233 0.047362 
0.28954 0.031578 0.28001 0.056569 -0.052931 0.010204 0.074326 -0.00015387 
0.26242 -0.02646 0.31289 -0.010348 -0.084498 -0.0032777 0.02681 -0.013965 
0.12036 -0.063289 0.2269 -0.0040998 -0.068714 0.0082312 0.013986 -0.038462 
-0.0019624 -0.021199 0.080244 0.060515 -0.028926 0.054432 0.022371 0.0095465 
-0.078086 0.032893 -0.025145 0.029276 -0.03501 0.044896 -0.003771 -0.011334 
-0.11426 0.09274 -0.067564 -0.01939 -0.065097 0.041278 0.0060938 0.0023123 
-0.12823 0.15308 -0.10078 0.0018191 -0.050464 0.039963 0.023522 0.024179 
-0.032543 0.12924 -0.15766 0.11888 -0.0067304 0.043251 -0.018404 0.035688 
0.061666 0.12562 -0.25894 0.12858 0.0075736 0.046375 -0.078579 0.0041209 
0.085835 0.0031344 -0.33194 -0.0047575 -0.066906 0.018754 -0.069208 -0.00015387 
0.041936 0.074654 -0.2813 -0.070687 -0.10982 0.015301 -0.010183 0.013986 
0.024015 0.093726 -0.16013 -0.090417 -0.12166 0.020562 0.06331 0.01711 
0.082546 0.072846 -0.010676 0.010204 -0.055068 0.027468 0.080738 0.028783 
0.13319 0.077449 0.15637 0.11132 0.0018191 0.050321 0.11592 0.058049 
0.10491 0.10622 0.20438 0.095206 -0.022185 0.036017 0.095699 0.14897 
0.033387 0.07597 0.21638 0.014315 -0.067564 0.01974 0.050486 0.14371 
0.034044 0.037332 0.31174 -0.070194 -0.099131 -0.0044286 -0.021856 0.073832 
-0.0083746 0.00066819 0.49424 -0.11245 -0.16128 -0.0059084 -0.057534 0.00050378 
-0.07003 0.017438 0.46053 -0.11278 -0.13744 -0.0039354 -0.018075 0.0034632 
-0.11228 -0.020048 0.35235 -0.047998 -0.091239 0.0065871 -0.016924 0.016288 
-0.00064712 -0.0080457 0.30187 0.016452 -0.059507 0.0059294 -0.060329 0.005765 
0.17922 0.070544 0.21408 -0.0067304 -0.067564 0.032236 -0.066413 -0.066084 
0.11 0.18514 0.03799 0.017603 -0.049971 0.043251 -0.055561 -0.091075 
0.048348 0.147 -0.13481 0.054596 -0.028926 0.035195 -0.033859 -0.071016 
0.19057 0.0051074 -0.29741 0.039963 -0.053588 0.012342 -0.021692 -0.053424 
0.24597 -0.13958 -0.38587 0.051143 -0.042573 -0.0011404 -0.028926 -0.050464 
0.10047 -0.069372 -0.31846 0.091589 -0.012485 0.0065871 0.025659 0.004943 
-0.079237 0.0013258 -0.050464 0.10524 -0.010676 0.044731 0.081724 0.083533 
-0.16194 0.049992 0.20914 0.029276 -0.045532 0.035195 0.085012 0.11148 
-0.17986 0.088958 0.25239 0.00083261 -0.075949 0.00099702 0.070544 0.094055 
-0.17558 0.17955 0.1105 0.073339 -0.035174 -0.0070593 0.026646 0.0421 
-0.12083 0.20273 -0.064768 0.081889 -0.026131 0.00017495 -0.010841 0.027796 
-0.11228 0.18284 -0.14106 0.062981 -0.025309 0.019247 -0.012978 0.040621 
-0.038956 0.12792 -0.06148 0.044238 -0.0073881 0.040292 -0.0042642 0.051472 
0.1853 0.084848 -0.0060728 0.050321 -0.034352 0.051308 -0.012649 0.01267 
0.30582 0.071037 0.040128 -0.012814 -0.068879 0.054925 0.0092177 0.023028 
0.33015 0.14996 0.03092 -0.032543 -0.078908 0.054925 0.020727 0.024015 
0.11247 0.12908 0.014479 -0.034023 -0.072332 0.033222 0.052459 0.073668 
-0.1478 0.12365 0.035853 -0.044217 -0.096829 0.019083 0.047691 0.063803 
-0.20337 0.0047785 0.035031 0.043087 -0.049971 -0.011498 0.031414 0.063474 
-0.097487 -0.11623 0.14848 0.12743 0.01004 -0.00081153 0.0069159 0.036839 
0.11592 -0.1381 0.2149 0.1368 0.004943 -0.0011404 -0.043724 0.031742 
0.147 -0.034352 0.21326 0.12562 -0.0019624 -0.0087034 -0.06 0.0227 
0.012506 0.055747 0.19435 0.13138 0.019083 -0.0029489 -0.052931 0.031414 
-0.1182 0.078929 0.088301 0.13467 0.0083956 0.01004 0.00050378 0.05772 
-0.14698 0.041443 0.027139 0.089616 -0.011334 0.042594 0.044896 0.060186 
-0.14073 -0.01117 -0.0060728 0.015959 -0.052931 0.04095 0.092082 0.079094 
-0.12231 -0.052931 0.007738 0.014643 -0.062467 0.028947 0.087972 0.033058 
-0.062467 0.036017 -0.081045 0.0227 -0.071345 0.052787 0.048677 0.054925 
-0.019884 0.15144 -0.19071 0.06742 -0.035338 0.027796 0.1003 0.031414 
0.015301 0.24334 -0.21998 0.026317 -0.026296 0.072517 0.099645 0.034373 
-0.012978 0.2103 -0.15487 -0.035338 -0.088608 0.060844 0.088136 0.021056 
0.051636 0.089945 -0.042573 -0.070359 -0.10406 0.044896 0.075148 0.005765 
0.017932 0.079422 -0.00015387 -0.023007 -0.083512 0.027468 0.074819 0.0082312 
0.058542 0.16771 -0.014787 0.094713 -0.030406 0.035195 0.063145 0.022042 
0.066434 0.18481 -0.080717 0.17232 0.014315 0.031249 0.059035 0.020233 
-0.031392 0.10228 -0.15569 0.18235 0.034866 0.014972 0.056733 0.066269 
0.063803 -0.049314 -0.16029 0.061666 -0.023994 -0.0080457 0.058706 0.034044 
0.19221 -0.18578 -0.15668 -0.065755 -0.12001 -0.018404 0.058871 -0.024816 
0.11576 -0.22392 -0.16276 -0.1187 -0.13744 0.014972 0.066105 -0.052602 
0.026974 -0.087458 -0.18907 -0.026624 -0.066577 0.029112 0.08008 0.010533 
0.0786 0.13401 -0.10768 0.067585 -0.034188 0.017438 0.071037 0.053938 
0.12875 0.24597 -0.019884 0.046868 -0.043066 0.0018191 0.073832 0.073997 
0.080244 0.28379 0.03651 0.048019 -0.044052 0.00050378 0.033222 0.081889 
0.05624 0.24203 0.12858 0.084684 -0.033365 -0.0032777 0.0047785 0.04095 
0.11066 0.28214 0.1345 0.041443 -0.056712 -0.017582 0.0051074 0.024344 
0.10819 0.22789 0.17429 -0.0080457 -0.090417 -0.021034 0.018425 -0.025802 
-0.02646 0.14321 0.13253 0.035195 -0.036489 0.00066819 0.012999 -0.025474 
-0.15372 0.14141 0.067091 0.090603 -0.001798 0.076627 -0.004593 -0.013143 
-0.20912 -0.016924 0.11921 0.12381 0.022535 0.08863 0.02122 0.02681 
-0.16786 -0.33441 0.18383 0.06331 -0.0075525 0.080244 0.059857 0.04654 
-0.14599 -0.53762 0.12168 0.055747 -0.03616 0.072024 0.10524 0.072846 
-0.10028 -0.40149 -0.03205 -0.018075 -0.072332 0.069393 0.12135 0.057227 
-0.023665 -0.063782 -0.11656 -0.035996 -0.084827 0.058377 0.12365 0.097344 
0.26669 0.19139 -0.073482 -0.0082102 -0.072989 0.031907 0.10491 0.07597 
0.52334 0.2126 -0.03616 -0.029091 -0.090253 0.0060938 0.042758 0.016288 
0.36221 0.08156 -0.01117 -0.037969 -0.084663 -0.012485 -0.012485 -0.045368 
0.10392 -0.0078813 0.014479 -0.038133 -0.073811 -0.016102 -0.0503 -0.052931 
0.015959 -0.003771 0.026646 -0.042737 -0.11755 -0.026953 -0.054246 -0.024816 
0.050157 0.092576 0.052294 -0.096994 -0.13267 -0.029584 -0.028433 -0.0067304 
0.073997 0.14601 0.086657 -0.109 -0.13366 -0.019884 -0.0090322 0.030756 
0.068407 0.11461 0.089123 -0.047998 -0.10242 -0.012814 0.033551 0.041443 
0.013986 0.0016547 0.14683 -0.037311 -0.091732 0.0227 0.07449 0.076134 
-0.0021268 -0.038462 0.16508 0.017438 -0.059672 0.045224 0.055254 0.054103 
0.031742 -0.0088678 0.16426 0.055911 -0.016266 0.043745 0.027139 0.038812 
0.014808 0.056076 0.13878 0.064461 -0.036983 0.025824 -0.00015387 0.00017495 
-0.027611 0.018754 0.096521 0.015465 -0.058192 0.012835 -0.019226 0.025988 
-0.055561 -0.02087 0.054267 0.026481 -0.045696 0.034702 -0.041093 0.010697 
-0.023007 0.0079024 0.073668 0.072353 -0.018897 0.11576 -0.030735 -0.027447 
0.022371 0.014479 0.15045 0.16771 0.038319 0.037497 -0.027775 0.00083261 
0.057884 -0.015116 0.20471 0.26537 0.10162 0.04358 -0.047998 0.009711 
0.0072447 0.013492 0.17528 0.28609 0.11477 0.0592 -0.069865 0.03536 
-0.045696 0.086821 0.14108 0.20355 0.055747 0.06331 -0.011827 0.050321 
-0.038791 0.17741 0.077285 0.1026 0.00083261 0.051801 0.030756 0.071531 
-0.059178 0.10639 0.00297 -0.07973 -0.087458 0.036017 0.10178 0.076463 
-0.063782 0.012999 0.017767 -0.22195 -0.20386 0.025988 0.10113 0.11378 
-0.042408 -0.086471 0.05476 -0.25253 -0.21438 0.02829 0.070708 0.11937 
-0.028433 -0.12215 0.055089 -0.14122 -0.1455 -0.0024557 0.055254 0.14272 
-0.010348 -0.10341 0.046211 -0.034352 -0.098638 -0.028269 0.028125 0.096686 
0.087479 -0.06855 0.15028 -0.018568 -0.092883 -0.039613 -0.01232 0.054596 
0.13976 -0.020541 0.23923 0.0021479 -0.082854 -0.026296 -0.032379 0.048019 
0.052459 0.099481 0.22509 0.06742 -0.016924 0.019905 -0.055726 0.038155 
-0.00097594 0.11395 0.18136 0.10458 0.00297 0.035524 -0.059672 0.0090533 
