0.5485 -0.084498 0.24482 0.0014903 -0.08532 -0.0013048 -0.03912 -0.046847 
0.48602 -0.065262 0.20438 -0.023501 -0.090088 0.0011614 -0.0083746 0.010369 
0.29267 -0.025309 0.12332 -0.019884 -0.073482 0.019083 0.011355 0.026317 
0.12283 0.00017495 0.009711 0.017767 -0.061151 0.025988 0.029441 0.026317 
-0.039284 0.051801 -0.17575 -0.016102 -0.066741 0.070051 0.11132 0.033222 
-0.2693 0.097837 -0.24168 -0.01528 -0.072825 0.04654 0.27705 0.052459 
-0.45969 0.095371 -0.13004 -0.0013048 -0.056712 0.031578 0.32736 0.066927 
-0.37748 -0.070687 0.036017 0.015794 -0.07003 0.011684 0.293 0.11625 
-0.069536 -0.24513 0.23348 0.031907 -0.056055 0.039305 0.19517 0.11674 
0.21638 -0.2647 0.34117 0.053774 -0.026953 0.0014903 0.10902 0.14223 
0.43883 -0.14073 0.41696 0.10787 -0.0014692 -0.023172 -0.03616 0.063639 
0.33492 -0.055561 0.45807 0.20635 0.064132 0.0051074 -0.15388 0.10178 
0.060515 0.010862 0.36106 0.22822 0.074161 0.009711 -0.23872 0.089123 
-0.071345 -0.0042642 0.31749 0.21852 0.043909 -0.0082102 -0.30711 0.080902 
-0.16457 0.0052718 0.31141 0.062488 -0.049642 -0.026789 -0.34131 0.05065 
-0.15733 -0.051122 0.32982 -0.01117 -0.085978 -0.023829 -0.31238 0.031085 
-0.12182 -0.018897 0.2149 -0.012485 -0.059178 -0.017582 -0.157 0.0098754 
-0.083512 0.033715 -0.077593 0.0014903 -0.086471 0.016452 -0.0060728 -0.024487 
-0.18282 0.0786 -0.26272 -0.030242 -0.097816 0.0018191 0.12332 -0.065755 
-0.068221 0.010369 -0.46298 0.0082312 -0.08121 0.043745 0.20701 -0.053588 
0.30056 0.066105 -0.47482 0.00099702 -0.084991 0.038812 0.21441 -0.0075525 
0.65865 0.26291 -0.32619 -0.034845 -0.088444 0.045553 0.18629 -0.029255 
0.54258 0.33147 -0.28574 0.016452 -0.03912 0.077943 0.11954 -0.036325 
0.11905 0.29382 -0.22672 0.071202 -0.0027845 0.0786 0.08715 -0.05589 
-0.16769 0.16196 -0.11656 0.013657 -0.049971 0.049006 0.050157 0.020233 
-0.303 0.0023123 0.053116 -0.078908 -0.11212 0.022206 0.037168 0.055911 
-0.24414 -0.00081153 0.05065 -0.14369 -0.13859 0.0031344 0.018918 0.1054 
-0.16243 0.0051074 -0.0096899 -0.10982 -0.14862 -0.00097594 0.012999 0.09833 
-0.038298 -0.027775 0.043087 -0.041751 -0.1108 0.016945 -0.0049219 0.098166 
0.1276 -0.015444 0.18399 0.028619 -0.06855 -0.0022913 -0.018075 0.10524 
0.18037 0.088136 0.2583 0.10721 -0.03057 -0.016431 -0.039942 0.088136 
0.083204 0.087643 0.26948 0.11115 -0.013471 0.00066819 -0.020377 0.085341 
0.031249 0.057227 0.18596 0.13351 0.013492 0.030263 0.0031344 0.05772 
0.069722 0.031085 0.04654 0.12398 0.019411 0.05476 -0.0036066 0.01415 
0.073832 0.061008 -0.032215 0.15933 0.014315 0.0227 -0.036983 0.020233 
-0.055232 0.027468 -0.13974 0.20109 0.047033 -0.0054151 -0.075127 0.013164 
-0.060823 -0.037805 -0.16802 0.22279 0.066927 0.0037921 -0.030899 -0.037476 
0.068407 -0.15799 -0.11607 0.15275 0.0074092 -0.0080457 -0.032543 -0.084498 
0.043416 -0.25845 -0.058356 -0.035338 -0.099295 0.0013258 -0.075784 -0.081374 
-0.10078 -0.36351 -0.039942 -0.10653 -0.14204 -0.0019624 -0.068879 -0.019061 
0.013164 -0.35151 -0.059507 -0.090417 -0.12231 0.005765 -0.026789 -0.011827 
0.10688 -0.13974 -0.068714 -0.067399 -0.10521 0.017932 0.041114 0.029112 
0.017932 0.20767 -0.05885 -0.072167 -0.09798 0.051472 0.077449 0.019576 
-0.10932 0.37997 -0.057863 -0.049314 -0.07003 0.06331 0.10672 0.084519 
-0.12297 0.44804 -0.029584 -0.019226 -0.094856 0.057391 0.11362 0.084519 
-0.006566 0.40562 0.023028 -0.0503 -0.096994 0.042923 0.12085 0.039634 
0.09422 0.37307 -0.030242 -0.028104 -0.08121 0.044238 0.086163 0.010697 
0.095699 0.24104 -0.14287 0.058377 -0.035996 0.064132 0.090274 0.01004 
0.11806 0.10162 -0.17904 0.047362 -0.036489 0.065776 0.14404 0.062488 
0.13253 0.010862 -0.029584 -0.016102 -0.073647 0.047033 0.20553 0.044238 
0.17511 -0.022514 0.068078 -0.081374 -0.10028 0.024673 0.20717 0.057555 
0.15604 0.025988 0.041772 -0.067399 -0.12494 0.042594 0.13631 0.047855 
0.10951 0.13516 -0.0080457 0.0032988 -0.065919 0.040785 0.081067 0.012999 
0.054103 0.19205 0.01152 0.13582 0.019576 0.031249 0.018589 -0.041422 
-0.066741 0.22427 0.025001 0.17034 0.029441 0.040456 0.03092 0.011355 
-0.16391 0.1641 0.02122 0.10113 0.013986 0.020727 0.020727 0.042594 
-0.15536 0.033058 0.082382 0.0054362 -0.047176 0.017274 -0.031721 0.052623 
-0.0503 -0.17756 0.32489 -0.024652 -0.083347 0.018589 -0.073154 0.012999 
0.061666 -0.48073 0.451 -0.05441 -0.10341 0.023028 -0.06707 0.0062583 
0.092411 -0.56722 0.28494 -0.053753 -0.10242 0.022042 0.0082312 0.017932 
-0.00081153 -0.32092 0.056569 -0.027118 -0.071674 0.016945 0.068736 0.052787 
-0.10883 0.05065 -0.1598 0.004943 -0.0771 0.027303 0.13171 0.053609 
-0.14878 0.34331 -0.24184 0.0034632 -0.073482 0.051801 0.14091 0.069558 
-0.08269 0.44524 -0.20699 0.031742 -0.055561 0.021056 0.13368 0.070215 
0.0047785 0.40529 -0.18282 0.14765 0.01267 0.0093821 0.12595 0.069722 
0.13499 0.36616 -0.16901 0.26685 0.087643 0.0324 0.077285 0.029605 
0.22131 0.31684 -0.10045 0.30434 0.11017 0.042265 0.046375 -0.029584 
0.33591 0.22279 0.0065871 0.17659 0.047526 0.058377 0.039963 -0.02498 
0.46432 0.11099 0.11905 0.0087245 -0.05885 0.049006 0.057227 -0.0059084 
0.49194 0.020233 0.17248 -0.09239 -0.098967 0.037661 0.035688 0.0069159 
0.3484 -0.01117 0.26636 -0.12642 -0.11196 0.042429 0.037497 0.027139 
0.041114 0.00297 0.40217 -0.12823 -0.14369 0.023028 0.0054362 0.059528 
-0.20271 -0.071345 0.55376 -0.15569 -0.17345 -0.0044286 -0.010183 0.020398 
-0.21554 -0.14961 0.5041 -0.1187 -0.15355 -0.024158 -0.016595 -0.0062372 
-0.091404 -0.21438 0.24515 -0.046025 -0.11228 -0.012978 -0.033859 -0.0026201 
0.037332 -0.16013 -0.019226 -0.0070593 -0.070359 0.019411 -0.029255 0.046211 
0.097344 0.035688 -0.11771 0.043745 -0.032379 0.04654 -0.021856 0.060844 
0.042594 0.21589 -0.21471 0.14733 0.045718 0.054596 0.011191 0.073832 
0.045718 0.28461 -0.32701 0.23989 0.062323 0.0324 -0.0059084 0.01711 
0.097672 0.29168 -0.39228 0.19994 0.048348 0.024179 -0.018075 0.047033 
0.16393 0.24647 -0.30202 0.12908 0.0067515 0.022042 -0.026624 0.034044 
0.16541 0.17659 -0.14911 0.12184 -0.011005 0.01152 -0.0054151 0.04917 
0.086821 0.094548 -0.015444 0.12612 0.00033937 0.020727 0.016123 0.044402 
0.01004 0.1271 0.10244 0.09126 -0.015609 0.02122 0.00050378 0.037497 
-0.021199 0.14733 0.24597 0.037004 -0.049971 -0.0022913 -0.010019 0.016288 
0.0039565 0.11198 0.38425 -0.017582 -0.087622 -0.0036066 -0.0031133 -0.013636 
-0.024487 0.081889 0.4852 0.014479 -0.060165 0.029441 0.020398 -0.012978 
-0.33046 0.077285 0.48141 0.062981 -0.0070593 0.055089 0.080573 0.014479 
-0.45246 -0.018568 0.3581 0.067585 -0.031228 0.048513 0.037004 0.02533 
-0.097651 -0.10291 0.23775 -0.028104 -0.090417 0.01267 0.0044497 0.036182 
0.3295 -0.12149 0.08863 -0.10538 -0.15207 -0.033365 -0.028433 0.028783 
0.5138 0.016123 -0.081703 -0.13267 -0.18052 -0.031064 -0.01676 -0.0077169 
0.49786 0.12776 -0.13645 -0.093048 -0.13399 -0.0052507 -0.0077169 0.094713 
0.45297 0.11494 -0.069865 0.012013 -0.063453 0.0032988 0.03651 0.13713 
0.38622 -0.026789 0.1174 0.044073 -0.033859 0.0074092 0.0065871 0.12447 
0.3558 -0.27686 0.2394 -0.01232 -0.089102 -0.016924 0.016123 0.048184 
0.37997 -0.47761 0.22246 -0.08121 -0.12725 -0.014787 -0.045861 -0.040928 
0.18662 -0.52282 0.12513 -0.011334 -0.071674 -0.012978 -0.054246 -0.096994 
-0.29084 -0.48435 0.10721 0.074654 -0.028926 0.015137 -0.038791 -0.084005 
-0.72916 -0.28179 0.019905 0.034702 -0.038791 0.022371 0.040456 -0.013965 
-0.78605 0.042429 -0.20666 0.039305 -0.033365 0.039141 0.086821 0.011026 
-0.23198 0.34627 -0.27029 0.066105 -0.033037 0.022206 0.065283 0.020727 
0.3951 0.50904 -0.17476 0.018096 -0.070687 0.016288 0.03651 -0.0067304 
0.43439 0.50443 -0.13941 0.0023123 -0.07003 0.012999 0.0011614 0.011848 
0.13072 0.37093 -0.21702 0.05476 -0.016431 0.037826 0.036182 0.053445 
-0.074304 0.1927 -0.23921 0.15407 0.019247 0.060679 0.025001 0.11181 
-0.098473 0.045553 -0.15273 0.16245 0.044896 0.056569 0.03947 0.088465 
-0.13547 -0.044546 0.0031344 0.15127 0.043909 0.054267 0.029276 0.081395 
-0.12544 -0.18315 0.13384 0.10737 -0.0078813 0.027632 0.0018191 0.054432 
-0.087786 -0.17608 0.23874 0.095535 -0.020377 0.0069159 0.00050378 0.029605 
-0.1233 -0.12231 0.2759 0.093398 -0.028926 0.0018191 -0.017582 -0.0095255 
-0.19367 -0.023007 0.26554 0.085835 -0.023829 -0.017582 0.021878 0.022864 
-0.15536 0.050979 0.21852 -0.035503 -0.099131 -0.013965 0.051472 0.036017 
-0.079237 0.10474 0.1636 -0.13185 -0.14188 -0.0073881 0.07597 0.043745 
-0.11212 0.094877 0.14585 -0.14566 -0.13251 0.0013258 0.093562 0.051801 
-0.032543 0.10359 0.21227 -0.14615 -0.16605 0.03799 0.090603 0.073832 
0.18547 0.14798 0.1687 -0.14303 -0.16391 0.02533 0.061501 0.075312 
0.37044 0.17462 -0.029584 -0.062467 -0.10637 0.034209 0.035031 0.041936 
0.47303 0.066269 -0.16062 -0.00015387 -0.07003 0.031414 0.020398 -0.017088 
0.44607 -0.089431 -0.24102 0.032564 -0.041093 0.044896 0.0044497 0.014972 
0.34281 -0.26157 -0.26618 0.087972 -0.0068948 0.044567 0.0082312 0.049828 
0.19221 -0.34131 -0.22951 0.098823 0.0088889 0.0028056 0.018096 -0.0087034 
-0.098473 -0.35463 -0.12692 0.10096 -0.015116 -0.018568 0.020069 -0.03353 
-0.27752 -0.27571 -0.036325 0.1299 0.0047785 -0.00015387 0.025824 -0.035996 
-0.29709 -0.14287 0.041772 0.21062 0.061501 0.03799 0.11642 0.021549 
-0.32553 0.027632 0.041607 0.21967 0.059528 0.051143 0.19205 0.065776 
-0.42878 0.18136 -0.040764 0.076134 -0.02235 0.037497 0.19961 0.086985 
-0.43684 0.35662 -0.15109 -0.017582 -0.070194 0.082053 0.1636 0.0786 
-0.20699 0.48635 -0.21389 -0.06855 -0.11738 -0.012978 0.049992 -0.028269 
0.17166 0.47911 -0.19712 -0.11952 -0.15947 -0.026953 -0.050464 -0.10258 
0.48881 0.34923 0.0052718 -0.069208 -0.10932 -0.0087034 -0.07825 -0.13645 
0.49029 0.21589 0.0095465 -0.030899 -0.041586 0.041936 -0.091732 -0.10423 
0.20882 0.20421 -0.038133 0.039141 -0.046354 0.050814 -0.09387 0.0052718 
-0.014622 0.27179 -0.021528 0.083368 -0.014458 0.04095 -0.13218 0.072188 
-0.094856 0.2343 0.0014903 0.056733 -0.027775 0.051472 -0.14484 0.097837 
-0.014787 0.14387 0.050979 0.059528 -0.0406 0.020233 -0.10242 0.11494 
0.040128 0.025988 0.10852 0.028783 -0.060823 -0.017746 0.0046141 0.086657 
-0.012978 -0.021199 0.13894 0.031249 -0.052437 0.0044497 0.069558 0.10129 
-0.020706 -0.018897 0.13467 0.059035 -0.0098543 0.033715 0.094055 0.097837 
-0.00015387 -0.0004827 0.064132 0.064625 -0.027611 0.058871 0.10787 0.085835 
0.0016547 -0.05326 -0.0034422 0.048348 -0.024652 0.072188 0.14469 0.066598 
0.046211 -0.10702 -0.053917 0.034537 -0.030077 0.074654 0.16377 0.070873 
0.28478 -0.1016 -0.10702 0.041772 -0.060823 0.035195 0.12316 0.0421 
0.27557 0.053116 -0.060165 0.0060938 -0.076935 0.023028 0.10408 0.055418 
0.15127 0.058049 0.057555 -0.030077 -0.093376 -0.00097594 0.052459 0.013821 
0.030427 0.03947 0.17445 0.0065871 -0.09946 -0.032215 0.024179 -0.0075525 
-0.20173 0.065612 0.31585 -0.017088 -0.10275 -0.0406 -0.024323 -0.021528 
-0.26206 0.12102 0.40595 -0.0042642 -0.0868 -0.018897 -0.045203 -0.030899 
-0.050793 0.11757 0.41565 -0.015609 -0.072825 -0.0082102 -0.047669 -0.046025 
0.23923 0.052623 0.26406 -0.016924 -0.10489 0.007738 -0.023336 -0.035174 
0.35778 0.13368 -0.075127 -0.046354 -0.10291 0.035195 0.0324 0.032893 
0.28264 0.16853 -0.28344 -0.06444 -0.099295 0.056898 0.016781 0.045553 
0.18843 -0.017253 -0.2545 -0.027611 -0.09091 0.039305 0.01152 0.055418 
0.23381 -0.1376 -0.1136 -0.019884 -0.074469 0.02681 -0.021363 0.0041209 
0.25403 -0.096829 -0.05737 0.031742 -0.050958 0.027139 -0.020212 0.0011614 
0.070873 0.03651 -0.075949 0.11132 -0.0083746 0.040785 -0.0019624 0.014315 
-0.055232 0.12842 0.0042853 0.058213 -0.045039 0.048677 0.038648 0.0592 
-0.097158 0.034209 0.071859 -0.026624 -0.081045 0.043909 0.063145 0.086328 
-0.12034 -0.14467 0.17166 -0.049149 -0.096665 0.036675 0.065776 0.068736 
-0.19679 -0.15437 0.27261 -0.013965 -0.095021 0.021384 0.062488 0.080738 
-0.23263 0.044402 0.26439 0.016288 -0.059343 0.030592 0.066434 0.11214 
-0.12198 0.18892 0.19714 0.053445 -0.024323 0.03092 0.083697 0.096193 
0.086657 0.10819 0.15242 0.093233 -0.015938 0.022535 0.058542 0.025824 
0.27146 -0.089102 0.15209 0.054267 -0.037311 0.011355 0.06742 -0.033037 
0.22559 -0.13695 0.093398 0.035853 -0.047176 0.0011614 0.067749 -0.017088 
0.055089 0.012506 0.0036276 0.052623 -0.024487 0.005765 0.049992 0.023522 
0.12069 0.12562 -0.065262 0.054925 -0.044874 0.0069159 0.025166 0.01711 
0.39444 0.19517 -0.11607 0.029112 -0.046683 0.029112 -0.025309 0.04358 
0.53847 0.12694 -0.13596 0.0064227 -0.051451 0.054432 0.017932 -0.0049219 
0.23052 0.069558 -0.070852 0.0324 -0.05178 0.062323 0.030592 0.059693 
-0.10719 -0.0082102 0.019247 0.019083 -0.05441 0.05772 0.026152 0.13039 
-0.16786 -0.089924 0.10441 0.031414 -0.057205 0.028454 0.028125 0.10573 
-0.06296 -0.094527 0.12217 0.052294 -0.057041 0.011848 0.033715 0.035031 
-0.080223 -0.004593 0.10425 0.0592 -0.053588 0.020069 0.010533 0.0085601 
-0.37288 0.15292 0.053938 0.052623 -0.035832 0.021384 0.026481 -0.019719 
-0.57231 0.20257 0.021878 0.033387 -0.02235 0.015794 0.064296 -0.02087 
-0.39557 0.19928 0.02829 0.097179 -0.021856 0.010697 0.090603 -0.0060728 
-0.15273 0.14996 0.046704 0.054267 -0.031228 0.034209 0.12332 0.020891 
0.0052718 0.088958 -0.029748 0.038483 -0.041093 0.033551 0.10935 0.031578 
0.14437 0.056404 -0.069701 0.06035 -0.037805 0.017767 0.062652 0.058049 
0.33015 0.068407 -0.074798 0.033715 -0.045039 0.019083 0.038812 0.029276 
0.47928 0.061008 -0.11837 0.05476 -0.028926 0.017274 0.013492 0.011355 
0.51331 0.11329 -0.20682 0.082382 -0.011005 0.036839 -0.023501 -0.0022913 
0.4755 0.1544 -0.24612 0.095206 -0.01232 0.03388 -0.032215 0.01974 
0.35432 0.14469 -0.1889 0.08715 -0.0095255 0.035031 0.025988 0.083862 
0.099645 0.038812 -0.084498 0.10754 0.022864 0.044567 0.063968 0.15144 
-0.30859 -0.10521 0.04506 0.10441 -0.0068948 0.038812 0.068242 0.10885 
-0.4883 -0.2933 0.18037 0.061008 -0.036489 0.016452 0.015959 -0.023829 
-0.32882 -0.40626 0.21408 0.040456 -0.058028 0.016945 -0.056712 -0.1159 
-0.11574 -0.31172 0.20027 0.044567 -0.055561 -0.0039354 -0.053753 -0.1478 
-0.015773 -0.079072 0.15571 -0.00031829 -0.061809 0.031742 -0.018733 -0.03501 
0.0019835 0.083533 0.22361 -0.02498 -0.070194 0.058377 0.049499 0.0085601 
0.023522 0.23611 0.25896 -0.055232 -0.07003 0.043745 0.040785 0.034702 
0.004943 0.34807 0.31782 -0.069536 -0.12231 0.018589 0.027303 0.012342 
-0.012485 0.37191 0.22526 -0.068879 -0.11771 0.0054362 0.024837 0.025001 
0.023522 0.32555 0.086163 -0.058028 -0.11261 -0.016595 0.0054362 0.02681 
0.074819 0.31914 0.014972 0.027796 -0.071016 0.010369 -0.038791 0.023686 
0.06594 0.25863 0.040128 0.06742 -0.033694 -0.009361 -0.053424 0.0080668 
0.0070803 0.15538 -0.010183 0.12595 0.0087245 0.018096 -0.021692 0.040456 
-0.010841 0.01152 -0.070523 0.17429 0.049664 -0.003771 0.05213 0.080409 
-0.026131 -0.12609 -0.080881 0.20997 0.069064 0.050814 0.089945 0.10902 
0.037004 -0.14895 -0.10489 0.24762 0.10178 0.088136 0.07449 0.091753 
0.053116 -0.11015 -0.09239 0.22739 0.10293 0.044073 0.036675 0.055418 
0.0023123 -0.10275 0.00083261 0.12858 0.0052718 0.021549 0.023851 0.049006 
-0.017253 -0.058521 0.046046 -0.029091 -0.08532 0.00050378 0.030427 0.016123 
0.05476 0.061995 0.077614 -0.13152 -0.15174 -0.0087034 0.012177 0.03092 
0.10507 0.24449 0.06183 -0.1672 -0.18907 -0.016102 -0.024323 -0.024323 
0.11378 0.2856 0.0024767 -0.19186 -0.20189 -0.01117 -0.056055 -0.028762 
0.20997 0.24137 0.056404 -0.13168 -0.14878 0.0026412 -0.024816 -0.0091966 
0.19172 0.056898 0.023193 -0.062796 -0.074304 0.038155 0.056898 0.050979 
0.075312 -0.12133 0.036346 -0.017088 -0.067728 0.086985 0.094548 0.091096 
-0.079401 -0.1353 0.0075736 0.014479 -0.053917 0.076134 0.11313 0.072846 
-0.14829 -0.053424 0.072353 0.051143 -0.035503 0.056404 0.066105 0.048841 
-0.14171 -0.024652 0.20569 0.10343 -0.035338 0.031907 0.074983 0.055911 
-0.25861 -0.0503 0.22805 0.010862 -0.080388 0.012177 0.049499 0.05065 
-0.2767 -0.10456 0.18185 -0.042079 -0.1016 0.011684 0.0041209 -0.0027845 
-0.074798 -0.095514 0.16442 0.028619 -0.061151 -0.0062372 -0.014293 -0.042901 
-0.021692 -0.076935 0.2708 0.11642 -0.016924 -0.0064016 -0.029913 -0.06148 
-0.11327 -0.12922 0.42864 0.13878 0.0074092 -0.031721 -0.017746 -0.018568 
0.10622 -0.12938 0.36583 0.061008 -0.014293 -0.054904 -0.020048 0.046375 
0.44245 -0.030242 0.13631 -0.00015387 -0.07973 -0.019719 -0.019555 0.12299 
0.44459 -0.032215 0.14305 -0.095185 -0.12955 -0.011992 -0.023172 0.11921 
0.30763 -0.0503 0.13828 -0.10489 -0.12396 0.02122 0.032564 0.083204 
0.22444 -0.00064712 -0.047176 -0.029913 -0.085978 0.060515 0.053281 0.025988 
0.14881 0.19829 -0.2596 -0.022679 -0.072003 0.063145 0.063639 -0.021199 
0.088794 0.31881 -0.40363 0.0034632 -0.059507 0.062159 0.06742 -0.033201 
-0.0064016 0.33722 -0.4495 0.047855 -0.023336 0.033715 0.061995 0.011848 
-0.099624 0.3318 -0.42944 0.080738 -0.035503 0.0074092 0.053445 0.028125 
-0.23017 0.34972 -0.35759 0.1031 -0.016924 0.01267 0.052952 0.052623 
-0.34263 0.30171 -0.23707 0.18251 0.037826 0.0227 0.061172 0.074983 
-0.30037 0.19681 -0.079072 0.32128 0.10951 0.068078 0.075148 0.077943 
0.023851 0.016945 0.13483 0.27919 0.094713 0.049828 0.086657 0.033715 
0.34988 -0.12725 0.26669 0.09981 -0.0064016 0.037826 0.087643 0.035524 
0.43702 -0.20764 0.26258 -0.0016336 -0.067235 0.035688 0.08715 0.097344 
0.35268 -0.2032 0.20553 -0.072003 -0.11837 0.022864 0.062159 0.10672 
0.18629 -0.24612 0.16969 -0.11327 -0.13744 0.023357 0.01415 0.035688 
-0.034516 -0.30974 0.18728 -0.15799 -0.15076 0.0016547 0.013986 0.0070803 
-0.2476 -0.26108 0.20142 -0.10489 -0.14944 0.0039565 0.016452 0.018589 
-0.24053 -0.075291 0.22838 -0.036489 -0.1011 -0.02235 -0.021856 -0.025638 
-0.11771 0.085835 0.095699 0.0064227 -0.075784 -0.0027845 0.0062583 -0.053095 
0.01711 0.2417 -0.23559 0.073668 -0.037805 0.016288 0.089287 -0.064604 
0.091918 0.27179 -0.46544 0.067749 -0.010019 0.044896 0.08304 -0.0014692 
0.12644 0.18942 -0.41069 0.0065871 -0.050793 0.016781 -0.0019624 0.030098 
0.087643 0.098494 -0.21422 -0.017253 -0.063782 0.021713 -0.017417 0.089452 
0.075641 0.044731 -0.063946 0.025988 -0.067399 0.032071 0.04506 0.1322 
0.11296 0.060679 -0.008539 0.027139 -0.061316 0.014972 0.060844 0.14864 
0.17462 0.09685 0.01826 0.065612 -0.025474 0.0046141 -0.0054151 0.11444 
0.27031 0.17297 0.066434 0.1054 -0.022514 0.01004 -0.072003 0.052459 
0.31371 0.14946 0.1544 0.079916 -0.036654 0.0051074 -0.19778 -0.029255 
0.20767 0.05065 0.30319 0.066434 -0.038462 -0.004593 -0.21521 -0.076935 
0.13943 -0.065262 0.37389 0.082053 -0.028104 -0.017746 -0.17871 -0.084334 
0.19566 -0.077264 0.17445 0.081724 -0.025638 -0.0036066 -0.047505 -0.044546 
0.073997 -0.014293 0.055582 0.092247 -0.021199 0.016945 0.10392 0.020727 
-0.26618 0.021384 -0.021856 0.059528 -0.02235 0.029441 0.18021 0.073175 
-0.62772 0.083862 -0.071509 0.077121 -0.021692 0.041114 0.17215 0.01711 
-0.80085 0.23298 -0.19367 0.05065 -0.016924 0.073504 0.12792 -0.023007 
-0.38439 0.37241 -0.29856 0.041443 -0.021199 0.067749 0.085341 0.01974 
0.1881 0.34331 -0.21998 -0.0078813 -0.063453 0.053445 0.030098 0.063474 
0.3438 0.23134 -0.11705 -0.10784 -0.11886 0.047197 0.0090533 0.10096 
0.25929 0.11378 -0.0080457 -0.11985 -0.133 0.026646 1.0539e-005 0.093891 
0.14552 0.085341 0.046375 -0.079895 -0.10867 0.036839 -0.0014692 0.10935 
0.099645 0.068078 0.047197 -0.041586 -0.099789 0.025001 0.018918 0.091589 
0.029112 -0.033859 -0.020706 -0.019061 -0.087129 0.039799 0.053281 0.081067 
-0.02498 -0.17953 -0.088937 -0.006566 -0.048163 0.031742 0.052623 0.057062 
-0.051615 -0.21438 -0.13925 0.051308 -0.04882 0.0092177 0.0072447 0.029112 
0.048348 -0.14846 -0.10028 0.024179 -0.052109 -0.00081153 -0.0098543 -0.0055795 
0.20503 -0.14007 -0.0011404 0.00083261 -0.067399 -0.0057439 0.025659 -0.010676 
0.24778 -0.055397 0.027303 0.072681 -0.040928 0.01267 0.015137 0.0060938 
0.13828 0.077943 0.047033 0.076956 -0.030242 0.0024767 -0.024158 -0.025145 
0.032729 0.12464 0.097344 0.07449 -0.020541 0.015137 -0.058356 -0.0406 
-0.091075 0.14124 0.15341 0.059857 -0.0014692 0.044073 -0.037969 -0.030899 
-0.2083 0.1978 0.18662 0.014972 -0.050136 0.069064 -0.00015387 0.027468 
-0.28443 0.23348 0.27146 -0.066248 -0.091075 0.050979 0.045718 0.026152 
-0.2254 0.16146 0.56083 -0.093541 -0.1039 0.045718 0.071202 0.039634 
-0.11048 0.11362 0.77243 -0.038462 -0.098967 0.027139 0.031742 0.013328 
-0.036818 0.1613 0.64172 -0.031721 -0.09091 0.022864 0.0051074 -0.013143 
-0.03353 0.10277 0.26274 -0.057041 -0.10209 0.015137 0.026974 -0.0054151 
-0.075949 -0.046683 -0.14993 -0.050136 -0.10949 0.00017495 0.065776 0.031907 
-0.038956 -0.12905 -0.34608 -0.067564 -0.12955 -0.016102 0.051308 0.0014903 
0.16656 -0.084827 -0.31451 0.0019835 -0.089102 -0.03205 0.019411 -0.014622 
0.38573 -0.022843 -0.21406 0.058377 -0.021856 0.0079024 0.034373 -0.021528 
0.48881 0.062159 -0.12905 0.10145 -0.0055795 0.055582 0.081889 -0.0096899 
0.36583 -0.0068948 -0.11705 0.062981 -0.01939 0.098001 0.097672 0.011026 
0.0024767 -0.075291 -0.12297 0.071695 -0.017746 0.069393 0.079587 0.046704 
-0.31073 -0.031392 -0.15355 0.12546 0.00083261 0.049828 0.08715 0.069558 
-0.32076 0.062159 -0.1085 0.078765 -0.014293 0.017603 0.07449 0.052459 
-0.12346 0.17117 -0.0070593 0.073504 -0.019061 0.031742 0.14272 0.042429 
0.032071 0.26159 -0.056219 0.098001 0.0092177 0.05213 0.17511 0.018425 
0.037497 0.23003 -0.10209 0.11526 -0.0039354 0.06331 0.14749 0.10458 
0.028454 0.12168 -0.0503 0.066927 -0.0068948 0.051472 0.096686 0.097837 
0.12562 0.05213 0.12102 0.0064227 -0.0503 0.029112 0.089945 0.098659 
0.31519 -0.031557 0.28593 -0.089102 -0.1113 0.062817 0.021713 0.0098754 
0.3831 -0.19038 0.38573 -0.14056 -0.16457 0.01415 -0.0406 -0.029255 
0.34775 -0.24299 0.40134 -0.13744 -0.16605 -0.0090322 -0.057534 -0.06 
0.22822 -0.13037 0.36041 -0.057699 -0.11541 -0.013965 -0.041915 -0.04619 
0.12102 -0.0057439 0.3706 0.0047785 -0.069043 0.024179 -0.031228 -0.018897 
-0.025638 0.0060938 0.34199 0.048348 -0.041915 0.0324 -0.041093 0.0075736 
-0.15174 -0.14303 0.16064 0.022371 -0.040435 0.027796 -0.0503 -0.03353 
-0.18035 -0.31681 -0.016924 0.0054362 -0.078415 -0.00064712 -0.031721 -0.045368 
-0.064275 -0.21175 0.0062583 -0.031392 -0.091568 -0.0032777 0.066434 0.038812 
0.0227 0.049335 0.075312 -0.033859 -0.09239 -0.0047575 0.092576 0.090438 
0.054267 0.26274 0.068078 0.0044497 -0.084169 0.023357 0.075312 0.077449 
-0.0036066 0.28872 0.075641 0.018096 -0.076442 0.024015 0.037661 0.068736 
-0.074469 0.22378 -0.019061 0.092576 -0.018239 0.012506 0.0034632 0.097508 
-0.034681 0.21375 -0.17706 0.19303 0.048184 0.010533 -0.0072237 0.090767 
0.084684 0.22789 -0.25121 0.2121 0.053445 0.0087245 0.01152 0.080244 
0.15045 0.17084 -0.17936 0.16245 0.029112 0.045389 0.038155 0.053938 
0.11115 0.13598 -0.11031 0.11625 0.025659 0.035853 0.057391 0.050979 
0.079916 0.072846 -0.070359 0.13253 0.0075736 0.03799 0.077614 0.01826 
0.10458 0.041936 0.042429 0.10918 -0.0022913 0.049664 0.039305 -0.0022913 
0.20865 0.07038 0.12677 0.15916 0.025659 0.016616 0.011355 -0.024816 
0.19336 0.093891 0.1174 0.19714 0.040456 0.026481 -0.009361 -0.011992 
-0.045368 0.022864 0.012999 0.080738 -0.013636 0.038812 -0.017582 0.030756 
-0.46692 -0.058192 -0.070852 -0.089431 -0.11179 0.023851 -0.020048 0.0592 
-0.63594 -0.098638 -0.076442 -0.18232 -0.15437 0.014315 -0.025967 0.052294 
-0.37847 -0.11311 -0.0095255 -0.15059 -0.17295 -0.010183 -0.02794 0.051636 
-0.023007 -0.16687 0.032729 -0.071345 -0.12527 0.019247 -0.0064016 0.10556 
0.1442 -0.20057 0.048019 0.081231 -0.026953 0.022864 0.04506 0.15505 
0.10819 -0.13432 0.073504 0.20767 0.021384 0.036675 0.053774 0.12201 
0.13121 0.069064 0.10951 0.12085 -0.0088678 0.014972 -0.03501 0.0046141 
0.10507 0.21819 0.018918 0.038812 -0.057041 -0.0070593 -0.043724 -0.045532 
0.078436 0.30171 -0.12379 0.042758 -0.039613 0.0324 -0.034681 -0.046847 
0.17051 0.29612 -0.20452 0.041443 -0.046354 0.034209 0.011191 -0.027611 
0.39099 0.20306 -0.19761 0.070544 -0.023007 0.029441 0.0098754 -0.037969 
0.32719 0.084355 -0.11048 0.058706 -0.0083746 0.023851 0.0026412 -0.013636 
-0.12905 0.084684 -0.049478 0.054267 -0.045368 0.012013 0.031085 -0.01528 
-0.39738 0.21572 -0.053588 0.036346 -0.050136 0.038483 0.11313 0.050321 
-0.34246 0.31157 -0.033365 0.020398 -0.055726 0.0227 0.16788 0.090438 
-0.24727 0.24104 0.0021479 0.026646 -0.07266 0.030263 0.14765 0.11543 
-0.039284 0.011848 -0.037805 -0.034188 -0.079566 0.016452 0.063639 0.095371 
0.15275 -0.1455 -0.03057 0.01004 -0.045532 0.053445 0.044238 0.020891 
0.30253 -0.18561 0.016452 0.037661 -0.021856 0.030427 0.069886 -0.011827 
0.2269 -0.086636 0.10918 0.095371 -0.027447 -0.034681 -0.018568 0.054925 
0.12349 0.0052718 0.31404 0.13828 -0.0042642 -0.053917 -0.056219 0.058706 
-0.0138 -0.001798 0.45609 0.053281 -0.030242 -0.045203 -0.064275 0.014808 
-0.094527 -0.068386 0.54356 0.011684 -0.064111 0.028619 -0.026624 -0.0014692 
-0.0019624 -0.23477 0.49194 -0.0024557 -0.046519 0.061337 -0.012814 -0.052766 
0.057555 -0.32882 0.34216 -0.040271 -0.085156 0.049992 -0.035996 -0.027282 
0.056898 -0.15503 0.10935 -0.057699 -0.1108 0.011026 -0.03057 0.0082312 
0.045882 0.083533 -0.11442 -0.048656 -0.10078 0.016452 0.026974 0.13351 
0.08419 0.23775 -0.24398 -0.0073881 -0.076442 0.056569 0.14667 0.18087 
0.13828 0.29267 -0.40083 0.022371 -0.043888 0.043251 0.16771 0.15522 
0.17166 0.28626 -0.53269 0.0054362 -0.073976 0.038648 0.12217 0.091753 
0.22986 0.21112 -0.52447 0.041278 -0.047012 0.039141 0.054596 0.031907 
0.27376 0.16031 -0.43585 0.12085 0.013328 0.028619 -0.015116 -0.022679 
0.096193 0.1322 -0.2836 0.21013 0.046704 0.04654 -0.034188 -0.030242 
-0.12396 0.13779 -0.077922 0.093891 -0.0047575 0.010862 -0.083018 -0.098967 
-0.37847 0.021384 0.1202 -0.071674 -0.10686 -0.01232 -0.078086 -0.14122 
-0.49751 -0.15881 0.25518 -0.13875 -0.14007 -0.018404 -0.0088678 -0.16013 
-0.18561 -0.25335 0.32571 -0.12988 -0.14599 -0.0138 0.046375 -0.096829 
0.0592 -0.2545 0.31634 -0.020706 -0.080388 0.017603 0.082546 0.041114 
0.15193 -0.12741 0.29415 0.052294 -0.026624 0.018918 0.094055 0.11872 
0.25847 0.01826 0.23923 0.072517 -0.04471 -0.00015387 0.070051 0.15111 
0.29069 0.10721 0.27244 0.030592 -0.057699 0.0072447 0.059857 0.10672 
0.18892 0.16311 0.35334 -0.003771 -0.078415 0.012835 0.047033 0.093726 
0.12908 0.15686 0.30779 0.013328 -0.066577 0.035031 0.0047785 0.05476 
0.10441 0.10524 0.22049 0.015301 -0.061809 0.027796 -0.001798 0.02533 
0.092576 0.066105 0.047855 0.10145 0.0023123 0.029441 -0.0080457 -0.006566 
0.1271 0.055089 -0.10489 0.12381 0.042758 0.0023123 0.020562 0.0044497 
0.20586 0.10704 -0.14336 0.087314 -0.026296 0.02533 0.02533 1.0539e-005 
0.14535 0.22871 -0.14089 -0.0083746 -0.073318 0.015465 0.004943 0.0037921 
-0.19367 0.30582 -0.093376 -0.05589 -0.098967 0.0082312 0.016945 -0.0040998 
-0.56475 0.2098 0.018754 -0.032379 -0.094856 -0.0042642 0.01004 0.010697 
-0.57774 0.10129 0.01974 -0.044546 -0.089924 0.011848 0.034209 0.034373 
0.0067515 0.055418 -0.032379 -0.033201 -0.08269 0.030592 -0.0049219 0.03651 
0.53847 -0.14073 0.0082312 -0.034188 -0.070359 0.01711 -0.025309 0.011191 
0.6307 -0.42763 0.20832 -0.044874 -0.097651 -0.00097594 -0.035174 0.0019835 
0.41516 -0.58448 0.31881 -0.016924 -0.088937 0.09422 0.019905 0.027632 
0.023686 -0.47482 0.17807 -0.018404 -0.059507 0.017274 0.017603 0.06479 
-0.060329 -0.18874 -0.01528 0.045224 -0.064111 0.020891 0.0059294 0.065447 
-0.10127 0.064296 -0.21011 -0.011498 -0.074798 0.0227 0.0019835 0.038648 
-0.41037 0.23775 -0.29495 -0.011663 -0.071509 0.023357 0.030592 0.027796 
-0.5779 0.35498 -0.24562 0.038648 -0.044874 0.029934 0.069886 0.013164 
-0.33046 0.36665 -0.11919 0.067256 -0.025967 0.029112 0.07301 -0.020212 
-0.017088 0.40102 -0.015444 0.051143 -0.034681 0.054596 0.058213 -0.01117 
0.21441 0.37438 0.027468 0.044731 -0.034188 0.0090533 0.078107 0.025988 
0.36369 0.33081 -0.008539 0.0786 -0.038133 0.022042 0.06594 0.009711 
0.39132 0.26011 0.025495 0.079916 -0.028762 0.0023123 0.054103 -0.016102 
0.38984 0.21539 0.095699 0.031249 -0.039778 0.041278 0.055254 0.009711 
0.15275 0.11592 0.15719 -0.018897 -0.078086 0.075641 0.05624 0.055582 
-0.14582 -0.004593 0.19057 -0.086307 -0.10801 0.067091 0.044731 0.078436 
-0.26798 -0.068221 0.24647 -0.10982 -0.12938 0.07038 0.068736 0.094055 
-0.18183 -0.013143 0.20208 0.0019835 -0.051451 0.065118 0.074326 0.063474 
-0.025802 -0.031392 0.11444 0.063474 -0.017253 0.057227 0.082711 0.015959 
0.072024 -0.12478 0.1248 0.015794 -0.054904 0.025659 0.033387 0.004943 
0.012835 -0.12626 0.17478 -0.065426 -0.084005 -0.0098543 0.022206 -0.019226 
0.016288 -0.045203 0.067256 -0.046519 -0.10604 -0.03912 0.011848 0.0039565 
0.061008 -0.029913 -0.087622 -0.055232 -0.11327 -0.047341 -0.0031133 -0.017417 
0.077778 -0.021692 -0.17509 -0.015609 -0.097651 -0.028104 -0.0022913 0.01974 
0.068078 -0.024487 -0.21438 0.058871 -0.065097 -0.027447 -0.0016336 0.01711 
0.078765 -0.008539 -0.20025 0.078929 -0.039284 -0.0027845 0.0031344 0.051965 
0.171 -0.0060728 -0.17756 0.084519 -0.02794 0.035031 -0.0082102 0.034044 
0.22887 0.020069 -0.082196 0.13812 0.021549 0.053938 0.01711 0.019576 
0.23298 -0.095349 0.049992 0.13976 0.018589 0.083204 0.054596 0.030756 
0.1368 -0.14402 0.14881 0.12924 0.018096 0.071531 0.085999 0.076956 
0.0046141 -0.017582 0.18465 0.1031 0.0090533 0.050486 0.095371 0.09126 
-0.073811 0.17511 0.10491 0.14141 0.014808 0.049335 0.08304 0.11625 
-0.12642 0.30894 0.099974 0.1299 0.013328 0.030263 0.075476 0.11707 
-0.14434 0.31848 0.16656 0.088958 -0.020541 0.022042 0.058213 0.077778 
-0.094856 0.21358 0.21243 0.0088889 -0.065097 0.011191 0.058377 0.077449 
-0.011663 0.12381 0.13417 -0.063289 -0.11245 -0.0075525 0.012835 0.034866 
0.022042 0.07038 0.026646 -0.038462 -0.084005 0.012013 -0.025638 0.028619 
-0.00097594 0.050486 -0.003771 0.0044497 -0.031392 0.01563 -0.010019 0.0046141 
-0.063782 0.034209 0.0042853 0.0034632 -0.068057 0.0227 0.0062583 0.0090533 
-0.27275 0.05213 0.0014903 -0.04619 -0.10028 0.018425 0.012999 0.0028056 
-0.3811 0.15933 -0.056055 -0.015773 -0.081703 0.01267 0.027632 0.035853 
-0.25088 0.20125 -0.12462 0.090767 -0.026953 0.023686 0.036346 0.03799 
0.031414 0.12151 -0.20584 0.1322 0.0090533 0.041443 0.032729 0.052459 
0.19764 -0.029748 -0.16555 0.11888 -0.0029489 0.043745 0.041772 0.028454 
0.1659 -0.078744 -0.069208 0.11247 0.021384 0.045882 0.043909 0.040292 
0.19994 -0.060823 0.066927 0.11017 0.0014903 0.049499 0.038648 0.042594 
0.28149 0.053281 0.042758 0.10606 0.020562 0.041936 0.034373 0.0421 
0.17051 0.11181 -0.010019 0.084519 0.0047785 0.042758 0.02681 0.041443 
0.0072447 0.099645 -0.069372 0.10129 -0.019061 0.035195 0.0074092 0.0324 
-0.068386 -0.051944 -0.029913 0.13269 0.004943 0.015794 0.0031344 0.079422 
0.0019835 -0.16358 0.063968 0.21885 0.054432 0.0082312 0.011355 0.097837 
0.090767 -0.12215 0.15357 0.22887 0.06035 -0.010019 0.026481 0.057391 
0.17297 -0.097487 0.13828 0.10343 -0.027282 -0.00081153 0.049828 -0.027775 
0.12168 -0.17361 0.22723 -0.0083746 -0.087786 -0.014458 0.00017495 -0.056712 
-0.053917 -0.075291 0.25337 0.019083 -0.038462 0.0042853 -0.0088678 -0.031721 
-0.25236 0.15982 0.19106 0.074654 -0.031721 -0.0044286 -0.014129 0.0067515 
-0.36515 0.26505 0.18909 -0.017911 -0.083512 0.0087245 -0.035338 0.0041209 
-0.36778 0.28642 0.1008 -0.081868 -0.11722 0.013657 0.0087245 0.01152 
-0.24793 0.30319 -0.021199 -0.076113 -0.1085 0.047197 0.026152 0.031907 
-0.038791 0.30303 -0.028433 -0.066577 -0.088773 0.073339 0.0421 0.072024 
0.3655 0.24088 0.11346 -0.023994 -0.07003 0.054267 0.036346 0.085835 
0.6478 0.12497 0.066598 0.029276 -0.040106 0.0324 0.034537 0.093069 
0.47698 0.032236 -0.057205 0.035195 -0.057041 0.011848 -0.019061 0.066598 
0.12085 -0.084663 0.11132 0.012999 -0.070687 -0.044546 -0.040106 0.02829 
-0.24628 -0.15306 0.27672 0.051308 -0.026789 -0.018733 -0.009361 0.012506 
-0.33589 -0.15421 0.171 0.082546 -0.029091 -0.0016336 0.028783 -0.00031829 
-0.075291 -0.17739 0.0056006 -0.039942 -0.093541 0.017438 0.037497 -0.080881 
-0.059836 -0.15273 -0.093212 -0.09798 -0.13793 0.0079024 0.0014903 -0.12166 
-0.29906 0.071037 -0.22754 -0.031392 -0.10242 0.0041209 0.0041209 -0.10554 
-0.19022 0.26373 -0.26141 0.036839 -0.059014 0.022864 0.019905 -0.082854 
0.305 0.2292 -0.16588 0.019247 -0.064275 0.031578 0.036182 0.05772 
0.64747 0.061501 0.010533 0.00017495 -0.058356 0.039305 0.050321 0.10293 
0.72524 -0.028926 0.096357 1.0539e-005 -0.082854 0.030427 0.018918 0.13499 
0.49605 0.035524 0.030756 0.013986 -0.064604 0.020398 0.040456 0.086328 
0.10491 0.10162 0.040128 0.089945 -0.016102 0.01563 0.078929 0.076792 
-0.27538 0.13006 0.17166 0.20882 0.054267 0.032893 0.11757 0.05624 
-0.40116 0.10425 0.28149 0.15505 0.034373 0.028454 0.095699 0.035195 
-0.32372 0.074326 0.3558 0.032564 -0.047012 1.0539e-005 0.036346 -0.010676 
-0.097158 0.054596 0.22279 -0.082854 -0.12396 0.011848 -0.012156 -0.043066 
-0.0091966 -0.065097 0.082382 -0.16342 -0.17871 0.016123 -0.038462 -0.058685 
-0.009361 -0.21866 0.080244 -0.20616 -0.19811 -0.0070593 -0.051122 -0.037147 
0.026317 -0.2961 0.15785 -0.22293 -0.18479 0.009711 -0.060987 -0.0014692 
0.10096 -0.099789 0.21375 -0.12166 -0.15585 0.035031 -0.016924 0.034537 
0.050979 0.25436 0.30204 -0.090746 -0.13136 0.048677 -0.021199 0.014315 
0.0041209 0.47517 0.37816 -0.02498 -0.09239 0.024344 -0.017417 0.038812 
0.033387 0.43932 0.14568 0.064132 -0.032215 0.057227 0.04358 0.066927 
0.052787 0.21375 -0.16013 0.11576 0.0046141 0.050979 0.073175 0.027796 
0.22855 -0.26322 -0.26881 0.065776 -0.033201 0.013821 0.08156 0.019576 
0.3535 -0.60964 -0.35068 -0.014293 -0.074304 0.0098754 0.089123 0.013492 
0.29793 -0.60832 -0.43717 -0.048163 -0.10998 0.018425 0.10918 0.082382 
0.12464 -0.28344 -0.43207 -0.06707 -0.11524 0.011848 0.046046 0.030756 
-0.056383 0.077778 -0.40576 -0.031886 -0.091732 -0.0011404 0.027468 0.046868 
-0.18002 0.30138 -0.23444 0.061995 -0.043724 0.012177 0.043087 0.085177 
-0.060165 0.27277 0.013986 0.067256 -0.021692 0.041936 0.050979 0.10162 
0.22592 0.11855 0.18761 0.11132 0.0042853 0.055747 0.010862 0.029112 
0.31914 -0.11163 0.24663 0.20602 0.052787 0.048677 -0.0050863 0.013986 
0.25091 -0.14352 0.26011 0.17445 0.031249 0.026317 -0.0068948 -0.018404 
-0.015609 0.057884 0.18662 0.083697 -0.010841 0.013821 -0.016266 0.0079024 
-0.32783 0.28543 0.079751 -0.011663 -0.045696 0.026974 -0.024158 0.031414 
-0.3686 0.32802 0.0087245 -0.077264 -0.11409 0.014643 -0.030899 0.073832 
-0.17279 0.25337 0.081724 -0.072989 -0.11196 0.015301 0.005765 0.069558 
0.042265 0.11115 0.0592 -0.066248 -0.11179 0.0074092 0.016452 0.048677 
0.14864 0.017932 -0.0031133 0.024179 -0.06296 0.025166 0.03947 0.078436 
0.15144 -0.036818 -0.047834 0.062323 -0.017417 0.056569 0.06594 0.072353 
0.041772 -0.064604 -0.072167 0.11165 0.016616 0.078765 0.10967 0.088465 
-0.060987 -0.10357 -0.057041 0.12908 0.030756 0.068242 0.14749 0.073832 
-0.094199 -0.073482 -0.056219 0.070215 -0.034352 0.039799 0.15144 0.072517 
-0.010512 -0.041915 -0.062467 -0.02087 -0.091568 0.010204 0.14881 0.04095 
-0.057041 -0.041257 -0.03057 -0.073154 -0.1062 0.0036276 0.090438 -0.0073881 
-0.30827 -0.11031 -0.013965 -0.044217 -0.11968 0.0046141 0.0032988 -0.083512 
-0.36581 -0.019226 -0.017088 -0.027282 -0.093048 0.00017495 -0.052602 -0.10078 
0.11428 0.10836 -0.025802 -0.0040998 -0.072825 0.014972 -0.059178 -0.060329 
0.5896 0.17215 -0.046847 0.063803 -0.037311 0.014315 -0.073318 -0.018239 
0.4025 0.15111 -0.10472 0.10918 0.00083261 0.02533 -0.11738 -0.004593 
-0.0026201 0.10178 -0.11968 0.13319 0.0093821 0.030427 -0.12938 0.025166 
-0.1792 0.13368 -0.049478 0.15703 0.046704 0.0024767 -0.10867 0.060515 
-0.16588 0.16426 0.02829 0.18333 0.041114 -0.0027845 -0.038956 0.073832 
-0.11097 0.13812 0.072353 0.12135 0.010533 -0.0068948 0.023357 0.066105 
-0.012485 0.12184 0.11642 0.096193 -0.0096899 -0.0060728 0.076463 0.072188 
0.053938 0.15818 0.15555 0.10852 -0.014951 0.039141 0.13351 0.083368 
0.087479 0.14601 0.13335 0.0689 -0.018733 0.056404 0.17478 0.076627 
0.063803 0.10408 0.077285 0.029112 -0.042408 0.045553 0.14782 0.070215 
0.16525 0.039963 0.027796 -0.027282 -0.076606 0.024015 0.11247 0.0052718 
0.21737 0.054596 0.043251 -0.048656 -0.1455 -0.056055 0.10556 -0.045532 
-0.015444 0.16031 0.057062 -0.092554 -0.13086 0.037497 0.11428 -0.017582 
-0.45492 0.13878 -0.0080457 -0.086964 -0.089266 0.028619 0.11658 0.10754 
-0.57692 0.081231 -0.025474 0.031249 -0.076113 0.018589 0.077614 0.16262 
-0.48073 0.09274 -0.019226 0.015465 -0.052931 0.043416 0.016945 0.13056 
-0.25713 0.12135 -0.062467 0.072188 -0.022021 0.031907 -0.028762 0.058213 
0.10524 0.16804 -0.055397 0.10129 -0.0138 0.034702 -0.052931 -0.031228 
0.35745 0.21753 -0.0019624 0.086492 -0.016266 0.024179 -0.047176 -0.02942 
0.41302 0.24055 0.1299 0.065283 -0.028926 0.020233 -0.059343 0.00099702 
0.5041 0.19928 0.2343 0.027796 -0.034681 0.01415 -0.089595 0.0046141 
0.34446 0.064954 0.25222 0.010533 -0.06855 0.026974 -0.086471 -0.040928 
-0.061645 0.023851 0.16015 0.0075736 -0.057041 0.028454 -0.019884 -0.092554 
-0.30662 -0.031064 0.069064 0.082053 -0.018404 0.018918 -0.00081153 -0.13021 
-0.14385 -0.2938 0.10458 0.090274 -0.032379 -0.001798 0.05065 -0.093541 
0.14568 -0.64005 0.16344 0.038812 -0.056383 -0.011663 0.06331 -0.059507 
0.13779 -0.6412 0.21391 -0.024323 -0.089431 0.023522 0.098823 0.034537 
-0.12281 -0.19844 0.25584 -0.015938 -0.078908 0.027303 0.080573 0.072846 
-0.29182 0.28856 0.14437 -0.020048 -0.084663 0.041772 0.091589 0.14075 
-0.32799 0.58631 -0.02794 0.0082312 -0.06707 0.025659 0.073832 0.12135 
-0.2693 0.63448 -0.13218 0.0093821 -0.035996 0.030756 0.042594 0.12677 
-0.11738 0.44804 -0.071345 0.028947 -0.057205 0.032071 0.049664 0.11378 
0.086328 0.1345 0.11707 0.01004 -0.066906 0.02681 0.043416 0.09422 
0.27327 -0.17032 0.29678 0.071037 -0.034352 0.0070803 0.025824 0.026646 
0.37109 -0.30876 0.33015 0.1008 -0.015116 0.012999 0.022206 0.020398 
0.46152 -0.14171 0.26077 0.026974 -0.055232 0.00066819 0.044567 0.014315 
0.54291 0.027796 0.068407 -0.010183 -0.083183 0.0072447 0.041607 0.013821 
0.48651 0.0036276 -0.12675 -0.054739 -0.099624 -0.0096899 0.03092 0.031249 
0.37652 -0.12116 -0.30218 -0.050958 -0.12478 -0.013143 0.02681 0.042265 
0.26636 -0.15799 -0.31747 -0.076442 -0.11705 0.021549 0.034866 0.095371 
0.089616 -0.18972 -0.085978 0.0016547 -0.049149 0.065447 0.069393 0.071366 
-0.14698 -0.19564 0.16163 0.08304 -0.015116 0.065447 0.026974 0.046868 
-0.3326 -0.16095 0.26653 0.088136 -0.0091966 0.030263 -0.0039354 -0.01232 
-0.34542 -0.087129 0.1955 0.10672 -0.0032777 0.010533 -0.054082 -0.051287 
-0.29939 -0.019719 -0.016102 0.10787 -0.0049219 -0.0075525 -0.0406 -0.078579 
-0.39573 0.094384 -0.070523 0.066763 -0.031557 0.017274 0.012506 -0.071674 
-0.58481 0.20125 -0.0062372 0.039963 -0.03912 0.017767 -0.0034422 -0.092719 
-0.37354 0.26258 0.14453 -0.019061 -0.046519 -0.0080457 0.012177 -0.065426 
0.24005 0.24071 0.28806 -0.028762 -0.096994 -0.014951 0.04506 0.012506 
0.71357 0.19435 0.19122 -0.059507 -0.10949 0.009711 0.096193 0.10474 
0.77424 0.19501 0.060844 -0.044381 -0.097651 0.014479 0.068078 0.12085 
0.52581 0.014643 0.0054362 -0.01232 -0.090253 0.035031 0.056076 0.10096 
0.14667 -0.20518 -0.054575 -0.05326 -0.10932 0.036839 0.014972 0.073668 
-0.014787 -0.29577 -0.036325 -0.055068 -0.12116 -0.030735 -0.022843 -0.014458 
0.025988 -0.22359 -0.051287 -0.012978 -0.083183 0.0011614 -0.02087 -0.037805 
0.092247 -0.0036066 -0.05589 0.069393 -0.053753 0.018096 -0.027282 -0.047341 
0.090603 0.16048 -0.036325 0.095864 -0.018404 0.037332 -0.0016336 -0.028269 
0.0052718 0.17396 -0.021199 0.095699 0.014808 0.036675 0.041772 0.016288 
-0.053917 0.11674 0.0095465 0.16442 0.035524 0.053938 0.075148 0.071366 
-0.12281 0.16574 -0.015609 0.12053 0.023851 0.061501 0.065283 0.085506 
-0.11294 0.15999 -0.056548 -0.00031829 -0.056219 0.059035 0.068407 0.083862 
-0.047998 0.1174 -0.040928 -0.075784 -0.11475 0.041936 0.061172 0.05065 
0.011355 0.065776 -0.063124 -0.11393 -0.13958 0.020233 0.039305 0.037168 
0.038155 0.088958 -0.059507 -0.096336 -0.12971 0.0023123 0.032893 0.0044497 
-0.0064016 0.12332 -0.070359 -0.037147 -0.082525 0.0042853 0.0075736 0.01974 
-0.094199 0.14502 -0.07003 0.025659 -0.070194 0.014315 0.010862 0.046211 
-0.14665 0.08419 0.061337 0.042265 -0.039613 0.011684 0.010369 0.093233 
-0.16901 0.10047 0.092247 0.097015 -0.0027845 0.0227 0.020233 0.11329 
-0.1233 0.082382 0.0069159 0.23907 0.071202 0.047855 0.027632 0.073997 
-0.1159 0.057227 -0.060987 0.3096 0.12398 0.083533 0.03092 0.054432 
-0.15536 0.081889 -0.11031 0.23578 0.079587 0.077121 0.06331 0.011026 
-0.17246 0.070051 -0.086471 0.10343 -0.0034422 0.025659 0.054432 0.031907 
-0.09946 0.024179 -0.12166 -0.03205 -0.11245 -0.014787 0.045224 0.0092177 
0.0016547 0.069229 -0.076606 -0.074798 -0.13843 -0.04619 -0.00081153 0.0090533 
0.10688 0.19172 0.0037921 0.03388 -0.045368 -0.023007 -0.0052507 -0.020048 
0.22148 0.305 0.025659 0.13598 0.0062583 -0.0070593 -0.010841 -0.031557 
0.24269 0.31125 -0.016431 0.089287 -0.0021268 0.034373 0.017274 -0.026131 
0.21737 0.26373 -0.045203 0.039634 -0.024158 0.052952 0.050814 0.026646 
0.33328 0.18415 0.0047785 0.096193 -0.003771 0.080573 0.070215 0.06183 
0.40529 0.13499 0.0074092 0.028947 -0.030242 0.12628 0.082546 0.048019 
0.18695 0.030098 -0.015773 0.027468 -0.030077 0.12283 0.080902 0.053609 
-0.13284 -0.029748 0.025659 0.029441 -0.014458 0.068407 0.079094 0.055582 
-0.38998 -0.10834 0.089616 0.021549 -0.05737 0.035195 0.078272 0.086657 
-0.45328 -0.071016 0.15637 0.0011614 -0.071345 0.013328 0.071859 0.10754 
-0.2471 0.0042853 0.24581 -0.0050863 -0.080881 -0.0059084 0.06479 0.051143 
0.10704 -0.03616 0.26981 0.034373 -0.084498 -0.056548 0.016288 -0.0078813 
0.18119 -0.13267 0.11625 -0.0059084 -0.096007 -0.078415 -0.037311 -0.044546 
0.020727 -0.1136 -0.10867 0.082217 -0.034516 -0.036325 -0.065755 0.0016547 
-0.071345 -0.0059084 -0.26585 0.17182 0.037332 0.032071 -0.043559 0.04358 
0.035031 0.16114 -0.3275 0.12283 0.01711 0.060022 -0.01232 0.058049 
0.14535 0.21145 -0.31862 0.029605 -0.028926 0.091096 0.018589 0.026481 
0.16294 0.054432 -0.27653 -0.013965 -0.029255 0.059528 -0.021856 0.042429 
0.19747 -0.083676 -0.21093 0.044567 -0.064604 0.020562 -0.035174 0.07449 
0.093726 -0.052109 -0.059343 -0.042573 -0.090581 0.025824 -0.070523 0.031414 
-0.054082 0.058706 0.11099 -0.060494 -0.10867 -0.010512 -0.058521 0.024179 
-0.058028 0.23315 0.26044 0.020233 -0.077757 0.0098754 -0.0096899 -0.016266 
0.020069 0.20931 0.32078 0.099974 -0.022843 0.028125 0.072188 0.019576 
0.070544 0.11231 0.54143 0.16706 0.034537 0.079916 0.14206 0.026317 
0.06183 0.10293 0.70518 0.23726 0.095864 0.076627 0.14437 0.068407 
0.10787 0.1151 0.69203 0.25107 0.082382 0.051801 0.14239 0.052294 
0.17314 0.067256 0.58631 0.14552 0.023193 0.039963 0.10211 0.046375 
0.35284 -0.095185 0.43439 -0.021199 -0.071838 0.037826 0.084355 0.10524 
0.46316 -0.25549 0.17084 -0.15964 -0.17328 0.0031344 0.04506 0.088136 
0.33657 -0.3206 -0.22639 -0.23428 -0.21241 -0.011498 -0.0082102 0.015301 
-0.10291 -0.27127 -0.51559 -0.23116 -0.22162 -0.052273 -0.055726 -0.068714 
-0.52151 -0.26338 -0.5294 -0.16342 -0.1838 -0.054575 -0.10078 -0.063124 
-0.57346 -0.15651 -0.40165 -0.15372 -0.18791 -0.046025 -0.12363 -0.079072 
-0.15355 -0.042079 -0.33276 -0.15585 -0.18216 -0.047341 -0.1284 -0.09798 
0.30714 -0.067564 -0.21702 -0.10784 -0.12609 -0.021528 -0.096994 -0.11837 
0.51183 -0.194 0.069064 -0.025638 -0.096007 0.0085601 -0.091732 -0.076606 
0.40825 -0.096829 0.3124 0.026317 -0.051287 0.022864 -0.035503 -0.037311 
0.1368 0.15456 0.44146 0.086985 -0.0077169 0.036675 0.045718 0.05624 
-0.092719 0.24614 0.59749 0.13171 0.009711 0.054925 0.075148 0.1077 
-0.17558 0.20323 0.72541 0.13795 0.014315 0.05065 0.097015 0.12266 
-0.18002 0.13582 0.49934 0.14535 0.0075736 0.028125 0.093069 0.089616 
-0.094034 0.087808 0.10672 0.0786 -0.031557 0.0079024 0.10162 0.089945 
-0.0026201 0.020891 -0.19827 -0.037311 -0.097651 0.010862 0.1077 0.07597 
0.031414 -0.047998 -0.39244 -0.10423 -0.13185 0.033387 0.12809 0.079916 
0.039141 -0.024816 -0.33243 -0.1136 -0.12856 0.013328 0.068407 0.063968 
0.13171 0.027961 -0.1667 -0.10012 -0.13678 0.027961 0.040621 -0.0019624 
0.15423 0.064461 -0.018568 -0.076935 -0.10784 0.020398 0.029276 -0.035503 
-0.094034 0.10474 0.0421 -0.0019624 -0.053917 0.034702 0.023686 0.0013258 
-0.31517 0.10803 0.062323 0.047033 -0.033694 0.060186 0.045224 0.058377 
-0.29429 0.061501 0.093891 0.0046141 -0.063946 0.043745 0.025988 0.08304 
-0.15848 0.011848 0.12595 -0.019061 -0.078579 0.020398 0.024673 0.067913 
-0.0062372 -0.025145 0.10392 -0.021363 -0.07003 -0.016431 0.066105 0.0070803 
0.15735 -0.054246 0.14289 0.005765 -0.097158 -0.017417 0.10408 0.0082312 
0.25567 -0.10143 0.14634 0.030427 -0.064111 -0.0036066 0.074819 -0.0021268 
0.26258 -0.084498 0.11806 0.027303 -0.059014 -0.0019624 -0.013307 -0.011005 
0.28872 0.029769 -0.013143 0.015301 -0.072167 -0.01232 -0.075127 -0.066577 
0.35103 0.19665 -0.17361 -0.00031829 -0.065262 -0.020377 -0.045696 -0.08121 
0.39641 0.35482 -0.23543 0.031578 -0.043888 0.05213 0.007738 -0.071838 
0.15275 0.38967 -0.20452 0.059528 -0.024323 0.06479 0.034044 0.029769 
-0.12264 0.28313 -0.12725 0.037826 -0.0503 0.070051 0.032729 0.13779 
-0.07562 0.20471 -0.099624 0.02829 -0.037311 0.060515 -0.0052507 0.10672 
-0.18364 0.11329 -0.088608 0.018589 -0.017911 0.041443 -0.067892 0.046868 
-0.58267 0.038483 -0.052766 0.024179 -0.064111 0.023851 -0.042737 -0.059343 
-0.64416 0.026481 -0.075127 0.0070803 -0.063124 0.011191 0.031907 -0.039942 
-0.26404 0.16985 -0.070687 0.012506 -0.048327 0.039634 0.11346 0.019247 
0.11165 0.20405 0.004943 0.070708 -0.028433 0.036675 0.16278 0.12299 
0.20931 0.147 0.2006 0.011355 -0.053917 0.036346 0.12464 0.094877 
0.13467 -0.055232 0.36764 -0.018239 -0.08269 0.025495 0.055254 0.043745 
0.11806 -0.18907 0.23627 0.049992 -0.040928 0.01974 0.029769 0.026317 
0.1197 -0.16095 -0.050136 0.10869 -0.014622 0.023522 0.013328 0.034209 
0.14239 0.033715 -0.21718 0.15423 0.021549 0.0032988 0.042594 0.059528 
0.22707 0.25847 -0.25039 0.15374 0.02681 0.012506 0.035195 0.10178 
0.28691 0.35514 -0.21455 0.18202 0.017932 0.037826 0.024508 0.07597 
0.31322 0.20027 -0.15257 0.16064 0.037004 0.03947 0.010862 0.02681 
0.22148 0.06035 -0.13399 0.1562 0.041114 0.046868 0.053609 -0.0044286 
-0.056383 0.10573 -0.11607 0.11855 0.017274 0.053609 0.10441 0.0090533 
-0.24973 0.25074 -0.076277 0.02533 -0.045203 0.057227 0.088794 0.0090533 
-0.23428 0.20701 -0.00064712 0.005765 -0.059672 0.057391 0.071202 -0.027118 
-0.31928 0.079587 0.071859 0.016781 -0.03912 0.029112 0.023357 -0.0034422 
-0.47186 0.1391 0.045553 0.046868 -0.046519 0.013164 0.0056006 -0.0026201 
-0.1016 0.29859 0.13187 0.023851 -0.058356 0.013821 0.041114 0.0013258 
0.55869 0.20997 0.28987 -0.011827 -0.079566 0.034866 0.063803 -0.012649 
0.76602 -0.03353 0.31519 0.0060938 -0.074962 0.032564 0.037332 0.023028 
0.46053 -0.20123 0.19007 0.0037921 -0.068221 0.012835 0.0046141 0.052459 
0.11937 -0.21504 0.00017495 0.018096 -0.058192 0.0037921 -0.041422 0.090603 
-0.12264 -0.23181 -0.033859 0.012835 -0.047834 -0.0055795 -0.058192 0.10984 
-0.21241 -0.20403 -0.0082102 -0.010348 -0.077264 0.037661 -0.05737 0.088301 
-0.1695 -0.076935 -0.017582 -0.0044286 -0.084169 -0.00015387 -0.051944 0.051472 
-0.12971 0.13253 0.027139 0.029934 -0.051944 0.0067515 -0.059672 0.0013258 
-0.16391 0.23381 0.0054362 0.070215 -0.042737 0.0064227 1.0539e-005 -0.0098543 
-0.097322 0.2463 -0.062631 0.064461 -0.023007 0.020562 0.0092177 -0.02498 
0.054267 0.14765 -0.072496 0.075641 -0.012649 0.0689 0.015794 -0.015609 
0.20092 0.034044 -0.038462 0.15604 0.036346 0.080902 0.082711 0.032071 
0.3586 -0.047834 0.12612 0.13351 0.025824 0.081231 0.14009 0.041114 
0.38523 -0.074633 0.26159 0.068571 -0.021528 0.051143 0.12908 0.040621 
0.25765 -0.13415 0.20849 0.04917 -0.017417 -0.0068948 0.096357 0.072188 
0.10096 -0.16638 0.15308 0.10524 -0.016595 0.018425 0.075312 0.087972 
-0.00081153 -0.15964 0.088301 0.10573 -0.016431 0.030756 0.068407 0.14535 
-0.073647 -0.19942 0.19353 0.053774 -0.050793 -0.015938 0.053116 0.13631 
-0.14961 -0.26354 0.15144 0.0032988 -0.078415 -0.058356 0.0080668 0.10852 
-0.22261 -0.19268 0.017438 -0.10538 -0.14944 -0.018568 -0.006566 0.039634 
-0.13711 -0.11837 -0.033201 -0.11376 -0.13695 0.0031344 -0.013471 0.0023123 
-0.033037 -0.00081153 -0.061645 0.019411 -0.039778 0.043251 0.030592 0.0074092 
0.08156 0.16985 -0.1353 0.087479 -0.0050863 0.05065 0.045718 0.027632 
0.26258 0.2828 -0.16999 0.060186 -0.01939 0.044896 0.037661 -0.0078813 
0.19172 0.26784 -0.18627 0.0056006 -0.039778 0.031742 0.019083 0.00050378 
-0.026789 0.20109 -0.0868 -0.016924 -0.082196 0.034866 0.022206 0.018754 
-0.098802 0.17791 0.0098754 -0.016431 -0.078579 0.034866 0.056076 0.063145 
-0.058028 0.1738 0.15916 -0.02087 -0.082196 -0.011498 0.045389 0.082053 
-0.0095255 0.089452 0.34692 0.017274 -0.065097 0.00017495 0.030427 0.060515 
0.024508 0.018589 0.44228 0.0047785 -0.068714 0.0090533 0.021056 0.029934 
0.052952 -0.051122 0.47714 0.0059294 -0.070523 0.0047785 0.051143 0.011355 
0.083697 -0.093376 0.36945 0.030427 -0.041422 -0.011992 0.045882 0.0324 
0.086163 -0.16572 0.18136 0.049006 -0.051944 -0.0027845 0.016452 0.033222 
0.16146 -0.28673 0.041278 -0.0088678 -0.080059 0.0087245 0.024508 0.060679 
0.30122 -0.25582 -0.045203 -0.03616 -0.098967 0.033715 0.020069 0.0016547 
0.33229 0.0095465 -0.059014 -0.0039354 -0.08121 0.03388 0.021384 -0.0095255 
0.24301 0.26587 -0.072496 0.046046 -0.036325 0.043416 -0.004593 -0.011827 
0.1761 0.3512 -0.15783 0.080902 -0.0095255 0.043909 -0.030406 -0.0078813 
0.096028 0.32999 -0.28196 0.12118 0.019083 0.054432 -0.010019 -0.0083746 
-0.081539 0.32982 -0.37913 0.10195 -0.0055795 0.069558 0.055418 0.01152 
-0.16851 0.18892 -0.37518 0.035853 -0.037311 0.044896 0.093726 0.033551 
-0.14977 -0.015609 -0.22655 -0.049149 -0.07414 0.011848 0.097344 0.051636 
-0.055397 -0.063946 -0.057205 -0.030899 -0.099953 0.022535 0.097672 0.064954 
0.1373 0.015301 0.055582 -0.022514 -0.096172 0.040621 0.077778 0.086985 
0.28889 0.16525 0.084519 0.016781 -0.069536 0.016452 0.064296 0.064132 
0.39444 0.24088 0.12168 0.047526 -0.061151 -0.020048 0.025166 0.03799 
0.34347 0.17133 0.27705 -0.034681 -0.10094 -0.043559 0.0023123 0.03388 
0.10885 0.04506 0.39493 -0.044052 -0.10472 -0.012978 0.011026 0.044238 
-0.29791 -0.064768 0.43242 0.0023123 -0.05441 0.020562 0.0036276 0.063474 
-0.57741 -0.13316 0.48865 0.011684 -0.066577 -0.008539 -0.074633 -0.044381 
-0.51197 -0.25516 0.45593 -0.036489 -0.097158 -0.060987 -0.19515 -0.14632 
-0.39244 -0.42467 0.29464 -0.029913 -0.11048 -0.093705 -0.17312 -0.20551 
-0.16539 -0.46413 0.10376 0.037004 -0.074304 -0.031886 -0.055232 -0.15503 
0.25913 -0.13119 0.01826 0.11543 -0.0042642 0.050321 0.072024 -0.069865 
0.58467 0.25814 0.038812 0.15686 0.043087 0.091589 0.10589 0.033222 
0.54948 0.3295 -0.0032777 0.19517 0.078272 0.1054 0.1128 0.087972 
0.28478 0.40644 -0.055397 0.13762 0.028454 0.063803 0.079751 0.13351 
-0.040435 0.39345 -0.12823 0.06742 -0.015773 0.037661 0.080409 0.094713 
-0.099624 0.3124 -0.057534 -0.022843 -0.061809 0.039634 0.036839 0.027632 
-0.0088678 0.20372 -0.017746 -0.099131 -0.14895 0.0021479 -0.02646 -0.051287 
0.086657 0.012342 -0.11409 -0.10373 -0.145 0.0013258 -0.034352 -0.046683 
0.15785 -0.18578 -0.18578 -0.06 -0.11146 0.026317 -0.01117 0.011684 
0.099481 -0.27703 -0.13284 -0.02794 -0.094692 0.005765 0.047362 0.047526 
-0.079072 -0.18479 -0.1598 -0.03353 -0.087622 1.0539e-005 0.051308 0.085177 
-0.14155 0.047526 -0.21751 -0.020212 -0.073976 0.016616 0.041607 0.069558 
-0.053424 0.23825 -0.19761 0.012506 -0.042737 0.021549 0.027796 0.056404 
0.039963 0.24121 -0.12741 0.059035 -0.031886 0.016123 0.017274 -0.0047575 
0.11066 0.18054 -0.018568 0.1174 0.0072447 0.020398 0.0039565 -0.013965 
0.062159 0.11839 -0.011005 0.12332 0.016123 0.01974 -0.0138 -0.050464 
0.038648 0.099974 0.029605 0.17084 0.033058 0.032729 -0.013636 -0.025638 
0.0083956 -0.014458 0.11543 0.19928 0.061008 0.021056 -0.027775 -0.038791 
-0.085649 -0.11146 0.13187 0.11362 0.012506 0.030756 0.0070803 0.015794 
-0.10061 -0.17377 0.13664 0.017603 -0.06 0.01267 0.042429 0.05624 
0.041772 -0.14451 0.07597 -0.060823 -0.12314 0.019083 0.078929 0.0786 
0.075641 -0.019555 0.075148 -0.055726 -0.10686 0.018754 0.11872 0.083533 
-0.085813 0.062981 0.13467 -0.044052 -0.085156 0.0069159 0.14108 0.098166 
-0.19794 0.13467 0.13138 -0.018733 -0.095514 -0.004593 0.12546 0.12464 
-0.15043 0.15999 0.081889 -0.023172 -0.094692 0.0056006 0.069886 0.14174 
0.035524 0.13697 0.14733 -0.0057439 -0.083018 -0.011992 -0.011827 0.0689 
0.21769 0.034044 0.25814 0.027468 -0.073318 -0.014951 -0.036818 -0.00064712 
0.35169 -0.080717 0.23298 -0.015609 -0.083676 0.0018191 0.016288 -0.0040998 
0.32802 -0.041257 0.035031 0.0324 -0.044381 0.035524 0.010862 -0.042573 
0.16344 0.09422 -0.14698 0.12151 0.014808 0.048184 -0.052273 -0.072003 
-0.046519 0.12546 -0.26618 0.17248 0.031907 0.050814 -0.09798 -0.049807 
-0.15947 0.1276 -0.27686 0.1539 0.039634 0.062488 -0.062138 0.048513 
-0.069043 0.13549 -0.19202 0.12349 0.037497 0.048677 0.015959 0.072846 
-0.076935 0.10425 -0.20715 0.14289 0.019083 0.071531 0.017438 0.028783 
-0.255 0.007738 -0.24513 0.12069 0.00297 0.043416 0.0065871 -0.022021 
-0.13234 -0.049807 -0.17575 0.062817 -0.033201 0.026152 0.017603 0.055747 
0.17955 0.012999 -0.073482 0.00033937 -0.076935 0.029441 0.038977 0.11115 
0.24548 0.15538 0.026646 -0.078908 -0.11475 0.02681 0.031907 0.1128 
0.070873 0.16656 0.052952 -0.12955 -0.14517 0.036839 0.060844 0.1276 
-0.079237 0.1345 0.0065871 -0.12626 -0.11787 0.049499 0.092247 0.13072 
-0.17805 0.14798 -0.015116 -0.077264 -0.11623 0.031742 0.10918 0.10491 
-0.13103 0.16919 0.044073 -0.05737 -0.10686 0.016452 0.099645 0.077614 
-0.0087034 0.12776 0.033715 -0.014458 -0.096665 -0.0022913 0.077778 0.038319 
0.083204 0.13171 -0.013636 0.046704 -0.072825 0.018589 0.046211 -0.013636 
0.11263 0.19796 -0.1039 -0.01117 -0.071345 -0.0080457 0.011355 -0.015116 
0.16048 0.26537 -0.11919 -0.0075525 -0.08121 -0.0016336 -0.0083746 -0.041915 
0.39214 0.10737 -0.12675 0.058049 -0.050793 -0.017582 -0.040435 -0.037311 
0.48881 -0.085485 -0.13777 0.076792 -0.02235 0.035524 -0.013636 -0.0078813 
0.17626 -0.071345 -0.11771 0.083204 0.00083261 0.07597 0.0080668 0.08978 
-0.11212 0.067256 -0.18019 0.045389 -0.0060728 0.053116 0.029934 0.11148 
-0.18446 0.11148 -0.17904 0.071366 -0.023994 0.056898 0.043416 0.13253 
-0.11491 0.14108 -0.018568 0.025001 -0.048492 0.040785 0.049664 0.11017 
-0.06707 0.14256 0.16294 -0.021692 -0.079072 0.045553 0.0227 0.072188 
0.096521 0.079422 0.34446 -0.05885 -0.1136 0.019083 -0.010841 -0.0039354 
0.21161 -0.10439 0.46793 -0.14369 -0.16934 -0.014951 -0.021692 -0.032543 
0.1853 -0.24677 0.64369 -0.057205 -0.11787 0.0039565 -0.022185 -0.06444 
0.1248 -0.35956 0.85118 0.021384 -0.052437 -0.012156 -0.023829 -0.053588 
0.060186 -0.31418 0.74694 0.14667 0.0095465 -0.0091966 0.0056006 -0.020212 
0.0082312 -0.16407 0.48536 0.25173 0.091096 0.031414 0.022864 0.010862 
-0.028762 0.099152 0.32111 0.2879 0.12398 0.045718 0.087479 0.049006 
-0.13152 0.2828 0.31667 0.18728 0.040456 0.056404 0.069064 0.081724 
-0.29856 0.31223 0.20076 0.010204 -0.053588 0.047197 0.084026 0.16985 
-0.25598 0.1465 -0.028597 -0.1159 -0.1307 0.068242 0.090767 0.16788 
0.046375 -0.1478 -0.15437 -0.15372 -0.16851 0.010862 0.076792 0.086163 
0.29645 -0.41974 -0.22704 -0.17016 -0.20255 -0.023336 0.054103 -0.017253 
0.31569 -0.39047 -0.40806 -0.094363 -0.15454 -0.05326 -0.00081153 -0.056712 
0.27803 -0.14829 -0.47432 -0.050793 -0.089266 -0.02646 -0.003771 -0.056548 
0.27672 0.10787 -0.40445 -0.0019624 -0.084334 0.023522 0.0098754 -0.011827 
0.10145 0.21901 -0.26206 0.023686 -0.053588 0.03092 0.057227 0.0085601 
-0.13251 0.24318 -0.092061 0.086657 -0.0095255 0.044238 0.071037 0.04095 
-0.16194 0.22361 0.0023123 0.19533 0.062652 0.065118 0.040292 0.023028 
-0.0031133 0.2001 0.15456 0.22509 0.093726 0.052952 0.00017495 0.018589 
0.098823 0.17659 0.27886 0.20865 0.077285 0.041936 -0.029584 -0.035338 
0.0056006 0.14716 0.39296 0.18695 0.060515 0.00083261 -0.038627 -0.035174 
-0.0138 0.10556 0.45741 0.16081 0.023193 -0.001798 -0.010841 0.0028056 
0.096193 0.12677 0.44196 0.18267 0.048677 0.016288 0.080573 0.08304 
0.10803 0.065776 0.39033 0.17741 0.057227 0.055089 0.16311 0.14864 
0.071695 -0.069865 0.20027 0.11165 -0.020212 0.036017 0.19287 0.14535 
0.11033 -0.13777 -0.034188 -0.098473 -0.14122 0.0042853 0.14881 0.09685 
-0.026624 -0.072825 -0.02235 -0.18972 -0.18989 0.01711 0.093398 -0.0064016 
-0.050136 -0.019226 0.068242 -0.17065 -0.17328 0.041114 0.066763 -0.069208 
0.35564 -0.15421 0.18284 -0.16572 -0.16605 0.040621 0.028125 -0.10587 
0.59634 -0.28854 0.19155 -0.11376 -0.13432 0.044567 -0.044217 -0.14352 
0.18004 -0.22491 0.19961 -0.029584 -0.07973 -0.036325 -0.032379 -0.089759 
-0.30087 -0.088608 0.17511 0.0072447 -0.092226 0.0062583 -0.023829 -0.0026201 
-0.28969 0.078765 -0.018239 0.038977 -0.054082 0.014808 -0.011334 0.059528 
-0.17328 0.21983 -0.15848 0.072846 -0.016431 0.047526 -0.0047575 0.095535 
-0.12988 0.24893 -0.21965 0.16064 0.012013 0.014479 -0.044381 0.091589 
-0.17131 0.22641 -0.16177 0.14601 0.012999 0.0088889 -0.012485 0.078765 
-0.17016 0.20635 -0.12215 0.12447 0.01974 0.025166 0.068736 0.070051 
-0.0096899 0.23183 -0.22721 0.20898 0.078436 0.066598 0.10376 0.082546 
0.17708 0.25321 -0.33523 0.23315 0.071859 0.047855 0.099481 0.014643 
0.25123 0.29546 -0.28114 0.16837 0.034373 0.018425 0.011684 -0.069536 
0.26176 0.28708 -0.17936 0.10524 0.0072447 -0.0039354 -0.024487 -0.088115 
0.15423 0.19961 -0.14582 0.050486 -0.049971 0.021384 -0.018897 -0.026624 
-0.052766 0.020727 -0.19268 0.0227 -0.054575 0.033551 0.010862 0.056569 
-0.14484 -0.14846 -0.18545 -0.04882 -0.10653 0.021056 -0.0054151 0.058871 
0.17856 -0.23642 -0.14796 -0.10554 -0.16128 -0.010676 -0.060823 -0.0059084 
0.30681 -0.14714 -0.15947 -0.22869 -0.22047 -0.028762 -0.0771 -0.063782 
0.013492 0.028125 -0.14319 -0.21586 -0.2032 -0.018239 -0.031721 -0.074798 
-0.17427 0.1687 -0.043888 -0.13201 -0.11722 0.032071 0.041278 -0.030899 
-0.14237 0.20684 0.033058 -0.039778 -0.091075 0.016123 0.044896 0.029112 
-0.12182 0.13943 0.14617 -0.052437 -0.093212 0.012177 0.021384 0.029276 
-0.11557 0.020562 0.20947 -0.019061 -0.077757 0.0039565 0.024508 0.028947 
-0.071838 -0.12149 0.2611 0.045389 -0.05589 0.035688 0.063968 0.059857 
-0.021034 -0.14599 0.22312 0.089616 -0.017746 0.046375 0.081231 0.12184 
0.088794 -0.013471 0.0018191 0.10195 -0.0032777 0.045882 0.055582 0.11263 
0.19533 0.046211 -0.069043 0.052459 -0.039613 0.0072447 -0.0022913 0.039141 
0.17643 0.0041209 -0.053095 0.016288 -0.068221 -0.006566 -0.032215 0.0227 
0.0075736 0.10145 -0.18101 0.10754 0.005765 0.024344 0.0075736 0.053609 
-0.086636 0.22345 -0.26206 0.23019 0.11083 0.086821 0.062817 0.10984 
-0.11574 0.24219 -0.22063 0.25436 0.096686 0.086985 0.074654 0.15144 
-0.10982 0.19369 -0.11903 0.10178 0.0054362 0.044073 0.057227 0.097344 
0.016616 0.11378 -0.12955 -0.030735 -0.080552 0.012177 0.0060938 -0.009361 
0.10376 0.089287 -0.16506 0.013328 -0.075949 0.015465 0.010204 -0.012156 
0.11346 0.047033 -0.16276 0.019411 -0.05885 0.018754 -0.0039354 -0.0068948 
0.22707 -0.014293 -0.066741 -0.027611 -0.098309 -0.010183 -0.013143 0.0046141 
0.36846 -0.12692 0.08008 -0.093212 -0.13284 -0.050958 -0.025309 -0.0088678 
0.25288 -0.13629 0.20586 -0.12659 -0.1741 -0.050464 -0.0032777 0.024179 
-0.03501 -0.08121 0.31026 -0.17197 -0.19416 -0.023007 -0.0040998 -0.0042642 
-0.23691 -0.017088 0.42354 -0.13843 -0.16835 -0.015444 -0.0049219 0.026317 
-0.28903 -0.029913 0.45018 -0.029091 -0.0965 0.004943 0.018918 0.052294 
-0.16046 -0.068221 0.39444 0.044731 -0.024487 0.034702 0.10622 0.12792 
-0.0039354 -0.065755 0.32654 0.0689 -0.014458 0.052294 0.043745 0.06331 
0.13647 -0.020212 0.16689 0.046375 -0.018733 0.069558 0.063145 0.04654 
0.1128 -0.019555 0.050486 0.016781 -0.058192 0.069064 0.06035 0.046704 
0.1174 -0.070523 -0.055232 -0.0036066 -0.061151 0.053445 0.077449 0.071859 
0.069886 -0.0022913 -0.10209 0.049006 -0.0083746 0.041114 0.12431 0.098823 
0.021056 0.18942 -0.14336 0.08304 -0.017253 0.050979 0.083862 0.094384 
-0.0080457 0.26094 -0.10012 0.098494 0.0018191 0.073504 0.057227 0.10096 
-0.077757 0.28116 -0.022843 0.095699 -0.0067304 0.024508 0.044073 0.077614 
-0.10916 0.22509 0.060844 0.10688 -0.012485 0.0039565 0.022371 0.077943 
-0.027611 0.11658 0.081889 0.08304 -0.029584 -0.01676 0.040621 0.049006 
0.086821 0.026974 0.073997 0.1031 -0.013143 0.024344 0.039634 0.043416 
0.092082 0.037332 0.091425 0.13532 0.022864 0.0689 0.048019 0.00099702 
0.095371 0.016452 0.12677 0.12151 -0.00097594 0.04095 0.036346 0.0067515 
0.12036 -0.067728 0.21128 0.098166 -0.021856 0.030098 0.034209 0.012342 
0.30977 -0.21373 0.22855 0.043251 -0.037147 -0.013965 0.025824 0.023028 
0.33311 -0.31583 0.21342 -0.0091966 -0.099295 -0.048656 0.02681 0.0067515 
0.13845 -0.14665 0.11066 -0.11508 -0.1524 -0.0095255 0.023686 0.03388 
-0.15602 0.15538 -0.014293 -0.133 -0.15684 -0.017746 0.027961 0.02533 
-0.2836 0.32358 -0.011992 -0.090746 -0.13218 -0.008539 -0.0070593 -0.017746 
-0.22129 0.37668 0.0044497 -0.019884 -0.079237 -0.024652 -0.051122 -0.029091 
-0.069043 0.38227 -0.0095255 0.033222 -0.037311 0.018754 -0.03912 -0.037147 
0.11543 0.34988 -0.030406 0.064132 -0.0021268 0.029769 0.055747 0.02681 
0.26225 0.2029 0.023357 0.054103 -0.045532 0.037497 0.13845 0.03536 
0.33706 0.08978 0.09126 0.0046141 -0.065919 0.039634 0.12694 0.070544 
0.33476 -0.026131 0.09833 -0.014951 -0.081374 0.030098 0.088958 0.052294 
0.2052 -0.076606 0.070873 0.014643 -0.069372 0.033551 0.020398 0.069558 
-0.01232 -0.13843 0.13319 0.026974 -0.056219 0.025659 -0.034681 0.044731 
-0.20074 -0.15191 0.17232 0.075476 -0.023007 0.020891 -0.018568 0.080902 
-0.30514 -0.092719 0.28823 0.12579 0.020727 0.028947 0.00017495 0.052787 
-0.26075 -0.12593 0.35597 0.12069 -0.0004827 0.028947 -0.018404 0.0014903 
-0.14632 -0.23477 0.21145 0.10803 0.0036276 0.032236 -0.061973 -0.045368 
-0.087129 -0.090746 0.075476 0.040292 -0.019884 0.019576 -0.059014 -0.04882 
-0.11722 0.16081 -0.047505 0.01974 -0.068057 0.012506 -0.028762 -0.023007 
-0.1547 0.32407 -0.15552 0.021878 -0.05737 -0.015938 0.0014903 0.019247 
-0.090088 0.317 -0.23296 0.061666 -0.030735 -0.0064016 0.0067515 0.021549 
0.086821 0.25091 -0.31369 0.082546 -0.018404 0.017932 0.013986 -0.037476 
0.25156 0.12217 -0.28541 0.036017 -0.046025 -0.001798 0.033715 -0.072332 
0.44426 -0.0080457 -0.12889 -0.017417 -0.077264 0.012177 0.022371 -0.12314 
0.65734 -0.023829 0.067913 -0.038462 -0.076771 0.010533 0.039634 -0.07414 
0.5702 0.093726 0.23825 -0.036654 -0.097322 0.01563 0.054925 -0.0004827 
0.31157 0.087314 0.31766 -0.085978 -0.12823 0.054103 0.11181 0.11329 
0.15292 0.061666 0.35317 -0.1159 -0.13333 0.032893 0.12743 0.13762 
-0.045861 -0.01117 0.33492 -0.093541 -0.12889 0.019411 0.097015 0.13697 
-0.17789 -0.1256 0.23118 -0.07973 -0.11442 0.0037921 0.036017 0.087314 
-0.23806 -0.23066 0.098001 -0.0138 -0.080059 0.0075736 0.0082312 0.045389 
-0.28804 -0.26206 -0.10373 0.064132 -0.025474 0.030098 -0.023336 0.0060938 
-0.30235 -0.10949 -0.18578 0.052952 -0.047505 0.028454 -0.052766 -0.009361 
-0.23247 0.10293 -0.19926 0.053116 -0.037805 0.0067515 -0.068221 -0.039284 
-0.062138 0.2708 -0.20978 0.049006 -0.022514 0.0023123 -0.076442 -0.023172 
0.059528 0.36205 -0.18791 0.067749 -0.033694 0.0083956 -0.081703 -0.035996 
0.052787 0.31864 -0.11919 0.0324 -0.046519 0.053281 -0.067235 -0.094199 
0.19928 0.096521 -0.057863 0.030263 -0.042901 0.02533 -0.0080457 -0.10012 
0.34807 -0.11278 -0.06296 0.1641 0.025659 0.029276 0.054596 -0.017911 
0.36748 -0.13744 -0.053424 0.20471 0.060515 0.0227 0.11806 0.092247 
0.31437 -0.1552 0.075148 0.15374 0.027961 0.032236 0.13598 0.1054 
0.24384 -0.22902 0.20323 0.092904 0.0011614 0.039141 0.086163 0.11428 
0.078436 -0.16309 0.27836 0.04506 -0.049149 0.026152 0.051801 0.065283 
-0.11015 0.072517 0.2218 0.050486 -0.032543 0.017932 0.027961 0.06479 
-0.25302 0.22164 0.18958 0.10014 0.011191 0.025001 0.057062 0.025495 
-0.21702 0.24515 0.18777 0.12332 0.0031344 0.04358 0.066927 0.06742 
-0.065919 0.1442 0.1659 0.031085 -0.043395 0.058377 0.047362 0.05213 
0.057227 0.029934 0.11066 -0.03912 -0.091239 0.031578 0.04506 0.019083 
0.098494 0.00050378 0.05624 -0.021034 -0.092719 0.035688 0.057227 0.012013 
0.0072447 0.035524 -0.064275 -0.070359 -0.12593 0.0092177 0.075148 0.021713 
-0.072167 0.078272 -0.14632 -0.12922 -0.15191 -0.0068948 0.05065 0.029441 
-0.010676 -0.015938 -0.14944 -0.12988 -0.13612 -0.0022913 0.032236 0.057391 
0.089452 -0.099624 -0.20156 -0.050464 -0.11623 0.020727 0.059857 0.093069 
0.1664 -0.16835 -0.1547 0.0072447 -0.071016 0.030427 0.096686 0.099316 
0.097015 -0.12264 -0.14846 0.071859 -0.023336 0.045882 0.096357 0.073997 
-0.054904 0.053609 -0.21669 0.16821 0.031742 0.057227 0.054432 0.047197 
-0.025145 0.2514 -0.27193 0.12398 0.0227 0.061995 0.017767 0.027632 
0.0051074 0.25058 -0.25006 0.053774 -0.030899 0.018589 -0.0024557 -0.014458 
-0.064768 0.17248 -0.094856 0.031249 -0.047669 0.0011614 0.019905 0.040621 
-0.087458 0.087314 0.1322 0.05213 -0.053588 -0.032379 0.034373 0.035688 
0.06479 0.11329 0.24926 0.080409 -0.026131 -0.023665 0.0070803 -0.011663 
0.17084 0.22542 0.23956 0.11872 0.026152 0.026974 0.020562 -0.024323 
0.14223 0.27606 0.12776 0.1613 0.038977 0.049499 0.075148 0.038319 
0.11214 0.087972 0.044402 0.10014 0.0080668 0.053609 0.10392 0.062488 
0.12283 -0.1113 -0.060658 0.054432 -0.025802 0.022535 0.059857 0.087479 
0.041936 -0.20551 -0.16605 0.064132 -0.035832 0.025495 0.039634 0.079094 
-0.0057439 -0.15766 -0.1935 -0.025638 -0.098802 0.024673 0.029605 0.090931 
-0.10867 -0.095185 -0.16276 -0.095843 -0.13793 0.011355 0.047855 0.097837 
-0.18676 -0.017253 -0.099953 -0.09946 -0.10883 0.02681 0.047362 0.13088 
-0.16621 0.023357 -0.02235 -0.090746 -0.12955 0.036675 0.028125 0.11921 
0.01415 0.11543 0.0051074 -0.038791 -0.087951 0.052952 0.055089 0.089945 
0.062652 0.24038 0.07449 -0.02646 -0.079895 0.078929 0.085341 0.014643 
-0.18594 0.27623 0.24778 0.023686 -0.059014 0.038648 0.11362 -0.10258 
-0.27226 0.11658 0.49818 0.029769 -0.051122 0.014643 0.060186 -0.065755 
-0.12725 -0.068714 0.54537 0.13828 -0.0013048 -0.031886 -0.0060728 -0.01528 
0.16607 -0.21504 0.3267 0.18087 0.024508 -0.04471 -0.096336 0.016781 
0.3928 -0.22326 0.085177 0.11263 -0.030735 -0.043066 -0.1159 0.012177 
0.38079 -0.12692 -0.0868 0.052294 -0.046683 -0.012978 -0.0771 0.037661 
0.01415 0.09126 -0.28459 0.040785 -0.022021 0.041772 -0.040435 0.084026 
-0.40922 0.2851 -0.36597 0.05624 -0.034845 0.033551 -0.02794 0.08304 
-0.45607 0.33213 -0.38159 0.025166 -0.050629 0.01152 -0.036654 0.027139 
-0.085156 0.29037 -0.3252 0.0075736 -0.066413 0.005765 -0.02087 0.011355 
0.37389 0.14387 -0.17213 0.045553 -0.054739 0.016945 -0.015773 -0.00064712 
0.48191 -0.0057439 0.0090533 0.0079024 -0.062302 0.018425 0.023193 0.016781 
0.23742 -0.029913 0.10918 -0.054904 -0.096172 0.018096 0.072024 0.061995 
0.013657 -0.020048 0.2246 -0.066906 -0.08532 0.063474 0.10918 0.08715 
-0.031064 -0.034023 0.34955 -0.094363 -0.121 0.042758 0.12266 0.098659 
-0.17936 -0.03353 0.38507 -0.086307 -0.11639 0.02829 0.099645 0.038319 
-0.44456 0.039141 0.30894 -0.076277 -0.11903 -0.0062372 0.01415 -0.083183 
-0.40132 0.13746 0.16229 -0.009361 -0.092226 -0.011663 -0.07562 -0.12363 
0.19188 0.20438 -0.056219 -0.013965 -0.080388 0.0011614 -0.070687 -0.109 
0.59881 0.1299 -0.22162 0.0082312 -0.064768 0.019411 -0.039284 -0.051287 
0.38836 0.1026 -0.30547 0.046211 -0.035996 0.020233 -0.0022913 0.047691 
0.073997 0.071037 -0.23083 0.080902 -0.023501 0.0072447 0.01267 0.070215 
-0.036489 0.081067 -0.11672 0.094384 -0.010348 0.018918 0.015959 0.095206 
-0.030899 0.059528 0.046868 0.13072 0.033551 0.032236 0.031578 0.060022 
0.0074092 0.047855 0.11773 0.18481 0.037661 0.039634 -0.0072237 0.04654 
0.021713 0.055418 0.15028 0.13565 0.014972 0.019083 -0.056877 0.022371 
0.0042853 0.14881 0.17445 0.028619 -0.043395 0.027303 -0.059672 0.020562 
0.0044497 0.14552 0.31832 -0.031557 -0.08532 0.018589 -0.025967 -0.022679 
0.044731 0.093233 0.72639 -0.066906 -0.10012 0.032236 0.01415 -0.031557 
0.10507 -0.05589 0.93536 -0.078908 -0.10998 0.023522 0.08156 -0.016266 
0.1368 -0.087951 0.77966 -0.109 -0.11607 0.0039565 0.096357 0.01563 
0.070215 -0.016102 0.35103 -0.11228 -0.14698 0.0093821 0.11658 0.061666 
-0.011334 0.052952 -0.11886 -0.12248 -0.14665 0.031578 0.11822 0.08419 
-0.061151 0.048513 -0.35627 -0.084663 -0.11672 0.038155 0.083533 0.044731 
-0.08828 -0.020541 -0.25615 -0.05178 -0.11393 0.029276 0.072024 -0.012814 
-0.039284 -0.16194 -0.0075525 -0.036489 -0.091568 0.0087245 0.054925 -0.04471 
0.053445 -0.19318 0.058049 -0.035503 -0.089266 0.0064227 0.025824 -0.084663 
0.061995 -0.10916 -0.18775 0.049992 -0.044546 0.0074092 0.019905 -0.07825 
0.1077 0.026317 -0.29445 0.11428 -0.012156 0.033551 -0.077264 -0.052766 
0.15982 0.056569 -0.21915 0.15801 0.023193 0.0060938 -0.098967 -0.0075525 
0.037661 0.15094 -0.057863 0.14667 0.039141 0.017274 -0.036983 0.063639 
-0.03616 0.2371 0.10918 0.11954 0.0088889 0.013328 0.062652 0.14749 
0.042758 0.29053 0.15801 0.11839 0.011848 0.057884 0.11115 0.14469 
0.15259 0.24532 0.171 0.079422 -0.0044286 0.061666 0.086657 0.09685 
0.13845 0.13565 0.20388 0.022371 -0.044052 0.06035 0.039799 0.048677 
0.10737 0.050814 0.22246 -0.064933 -0.09091 0.03947 0.0786 0.030756 
-0.028597 0.055747 0.20109 -0.080717 -0.11294 0.049335 0.11773 0.034209 
-0.10916 0.03947 0.11231 -0.050629 -0.095678 0.05624 0.13351 0.051143 
-0.06707 -0.053753 0.023522 -0.05589 -0.11146 0.036675 0.12464 0.087972 
0.044402 -0.11952 -0.097487 -0.038133 -0.091732 0.023357 0.13746 0.083697 
0.10178 -0.12166 -0.10324 0.0324 -0.03616 0.012999 0.12546 0.055418 
0.095535 -0.12527 -0.031064 0.080244 -0.029748 0.012835 0.072188 0.030427 
0.072188 -0.10324 0.054103 0.066598 -0.03501 -0.0042642 0.037826 0.016123 
-0.0050863 -0.011992 0.020398 0.082711 -0.038133 0.0037921 0.0095465 -0.00097594 
-0.069865 0.15505 -0.049642 0.15111 0.010862 0.0079024 0.011848 0.01152 
-0.066741 0.26685 -0.12462 0.15768 0.024179 0.013492 -0.033859 -0.019719 
-0.038462 0.28642 -0.080881 0.079751 -0.017746 0.016452 -0.072496 -0.0054151 
0.048348 0.24071 0.076463 -0.0019624 -0.044381 0.050157 -0.066248 -0.003771 
0.045224 0.12414 0.1636 0.00066819 -0.064933 0.038319 -0.028433 0.024673 
-0.033365 -0.045203 0.20388 0.005765 -0.050629 0.054925 0.045553 0.08978 
-0.093541 -0.12889 0.14124 0.020398 -0.050629 0.0421 0.079094 0.14371 
-0.0029489 -0.21159 0.12398 0.037497 -0.05885 0.036017 0.10145 0.10787 
0.23151 -0.21669 0.10408 0.05065 -0.042737 0.025001 0.15012 0.078272 
0.38589 -0.025638 -0.12281 0.10918 -0.0052507 0.026317 0.18991 0.053609 
0.15127 0.16673 -0.30054 0.15456 0.028783 -0.0032777 0.13943 0.03947 
-0.14533 0.22082 -0.303 0.10688 -0.015938 0.014479 0.043745 0.025166 
-0.12708 0.19007 -0.27719 0.057884 -0.036818 0.019411 -0.022843 -0.032543 
0.16755 0.049499 -0.19942 0.038483 -0.031557 0.020233 -0.0016336 -0.03616 
0.39954 -0.11804 -0.061316 0.051965 -0.049314 0.018425 -0.0024557 -0.039449 
0.21769 -0.13284 0.0592 0.018589 -0.056548 0.0031344 -0.037476 0.062652 
-0.11393 -0.088773 -0.030899 0.07449 -0.032215 -0.013307 -0.093212 0.097179 
-0.1644 -0.078579 -0.16835 0.19303 0.031742 0.0032988 -0.16457 0.034209 
0.085506 -0.13218 -0.13415 0.23298 0.046211 -0.038791 -0.20518 -0.05885 
0.16886 -0.14763 -0.014951 0.1784 0.023851 -0.060494 -0.11837 0.020398 
0.037497 -0.098473 -0.010512 0.073175 -0.015773 -0.0031133 -0.022021 -0.035996 
-0.12314 -0.017746 0.031414 -0.0019624 -0.05441 0.03651 0.099316 0.026481 
-0.1575 0.053281 0.08863 -0.041093 -0.071838 0.071859 0.12727 0.048677 
-0.003771 0.081724 0.12168 -0.051451 -0.080552 0.066269 0.12776 0.052623 
0.15982 0.10787 -0.019061 0.019576 -0.062796 0.034209 0.082053 0.049335 
0.23085 0.16475 -0.080223 0.0054362 -0.06 0.022864 0.064954 0.036017 
0.14157 0.18991 -0.044217 -0.021528 -0.077922 0.0075736 0.05476 0.058706 
-0.0082102 0.19944 -0.049149 0.0026412 -0.06 0.03651 0.065612 0.0786 
-0.052766 0.16656 -0.10439 0.016945 -0.058028 0.030592 0.074161 0.059857 
-0.055726 0.11855 -0.11787 0.027961 -0.056219 0.026152 0.045718 0.023193 
-0.033859 0.010204 -0.07973 0.0052718 -0.042408 0.023193 0.029769 0.027632 
0.024508 -0.10521 0.13006 0.016781 -0.06707 0.037497 0.0069159 -0.018733 
0.018754 -0.1741 0.25123 -0.032872 -0.08269 0.031414 0.015465 -0.026131 
-0.024323 -0.081045 0.20208 -0.041422 -0.0965 0.024508 -0.011005 -0.013471 
0.0098754 0.025824 0.095206 -0.017911 -0.090581 0.037661 -0.02087 0.016123 
0.082053 0.12842 0.0064227 -0.035174 -0.081045 0.014315 -0.01939 -0.0004827 
0.17133 0.10556 0.043087 -0.0070593 -0.071016 0.0067515 -0.023829 -0.010348 
0.22937 -0.019719 0.038483 0.017932 -0.060165 -0.016431 0.0079024 -0.034352 
0.18432 -0.072332 -0.00064712 0.039799 -0.069208 -0.031228 -0.040106 -0.023336 
-0.03501 0.045718 0.0026412 0.03651 -0.060494 -0.012649 -0.0060728 0.017274 
-0.22606 0.13335 -0.055726 0.073832 -0.023501 0.020069 0.023851 0.091096 
-0.21504 0.12891 -0.10686 0.11625 0.005765 0.047197 0.05476 0.11757 
-0.087622 0.10458 -0.109 0.10425 0.0018191 0.047033 0.051308 0.085012 
0.081067 0.14124 -0.05441 0.072353 -0.012814 0.032729 0.012342 0.019905 
0.27064 0.14009 0.087643 0.011026 -0.052437 0.015465 0.0090533 -0.0049219 
0.41516 0.12464 0.22855 -0.085649 -0.12577 0.0041209 0.037497 0.0075736 
0.39082 0.092411 0.22328 -0.11771 -0.145 0.05772 0.05624 0.027139 
-0.013965 0.030263 0.15407 -0.08828 -0.10373 0.02681 0.025824 0.032564 
-0.5881 0.0088889 0.12875 -0.011827 -0.084827 0.044073 0.0082312 0.0037921 
-0.77487 0.10754 0.18415 0.015301 -0.053424 0.04095 0.040456 0.034044 
-0.41596 0.14009 0.34413 0.014643 -0.060823 0.012013 0.050814 0.032729 
-0.0011404 0.080738 0.35531 -0.022514 -0.098638 0.0088889 0.032071 0.022864 
0.18415 -0.0044286 0.27557 -0.073811 -0.12248 0.0026412 0.035524 0.029441 
0.17758 -0.060823 0.18958 -0.03912 -0.089924 0.015137 0.057227 0.078272 
0.096686 0.00066819 0.10491 0.0036276 -0.038791 0.037332 0.088301 0.1128 
0.065612 0.19205 -0.0055795 0.026481 -0.045861 0.052623 0.095042 0.040456 
0.025988 0.32029 -0.15536 0.00297 -0.051122 0.052623 0.044073 -0.047834 
-0.076935 0.3198 -0.22195 -0.018733 -0.063124 0.057884 0.021878 -0.060329 
-0.1016 0.21243 -0.1723 -0.0075525 -0.080223 0.0324 0.027632 -0.025802 
-0.05326 0.17166 -0.033201 0.065118 -0.036654 0.024015 0.057884 0.038319 
0.099152 0.1442 0.0098754 0.01152 -0.062302 0.04506 0.037168 0.051801 
0.27458 0.11806 0.064132 0.023522 -0.070194 0.03388 0.02122 0.039963 
0.23759 0.11313 0.076956 0.00083261 -0.074633 0.023357 0.035688 0.06742 
0.072353 0.093562 0.04506 -0.0004827 -0.071181 0.024837 0.063145 0.067256 
-0.15388 0.018589 0.11724 0.035524 -0.035174 0.029112 0.070544 0.1322 
-0.24743 0.047033 0.22148 0.06742 -0.044874 0.030427 0.056569 0.089616 
-0.17295 0.11937 0.24959 0.056569 -0.032215 0.036182 0.053281 0.055254 
0.092082 0.067585 0.20849 0.077449 -0.016924 0.0024767 0.020233 -0.010348 
0.15522 -0.090088 0.15949 0.13499 0.0034632 -0.011992 0.010533 -0.077264 
0.11691 -0.19416 0.18152 0.039634 -0.045532 -0.029255 -0.020706 -0.10965 
0.18251 -0.21208 0.15883 -0.047834 -0.10308 -0.019226 -0.033859 -0.068057 
0.16344 -0.21603 0.11017 -0.053917 -0.097651 -0.016595 -0.0019624 -0.0027845 
-0.013143 -0.19531 0.058377 -0.026624 -0.092554 0.0032988 0.017767 0.048841 
-0.18019 -0.094692 0.023686 -0.010183 -0.072989 0.034044 0.052459 0.072188 
-0.17345 0.080573 -0.027775 0.018754 -0.040271 0.049828 0.057884 0.079258 
-0.041093 0.2098 -0.069865 0.021878 -0.050629 0.052952 0.029441 0.063968 
0.041278 0.21704 -0.1233 0.034702 -0.038791 0.062323 0.067256 0.043251 
0.1128 0.19303 -0.24694 0.059693 -0.029255 0.045224 0.15916 0.060022 
0.16426 0.159 -0.25763 0.076463 -0.021692 0.038648 0.1761 0.024179 
0.1835 0.11115 -0.15931 0.063968 -0.032215 0.049499 0.14305 0.012342 
0.14305 0.058049 -0.078086 0.054596 -0.035503 0.047362 0.093069 -0.023501 
0.053938 0.0064227 -0.026296 0.077943 0.0075736 0.041936 0.057227 0.010862 
-0.029584 -0.008539 -0.025309 0.06594 -0.03057 0.043745 0.049335 0.06331 
-0.12264 -0.03057 0.020891 0.041607 -0.03501 0.050157 0.056076 0.10688 
-0.17049 -0.098638 0.077285 0.040785 -0.031557 0.072517 0.0074092 0.078436 
-0.19235 -0.094856 0.22624 0.06035 -0.039778 0.048513 -0.091404 0.0090533 
-0.17723 -0.017088 0.32128 0.044731 -0.04882 -0.0044286 -0.20271 -0.088608 
-0.088773 0.082711 0.24992 0.073832 -0.044217 -0.051287 -0.27686 -0.12396 
0.063968 0.1299 0.10507 0.10145 -0.031228 -0.068714 -0.24036 -0.11113 
0.17182 0.15324 0.056404 0.090109 -0.049807 -0.049971 -0.14796 -0.018568 
0.11165 0.2024 0.020562 0.075476 -0.035996 -0.03353 -0.045368 0.078272 
0.035524 0.15949 0.083204 0.0090533 -0.04619 -0.024487 0.048348 0.12513 
0.14239 -0.041751 0.16475 -0.00031829 -0.070852 0.0052718 0.044731 0.12628 
0.28527 -0.21208 0.19533 0.05213 -0.02087 0.037661 0.034702 0.09833 
0.31503 -0.27867 0.21293 0.10113 0.0054362 0.034866 0.014808 0.056076 
0.24466 -0.18907 0.056569 0.19402 0.037826 0.024179 0.039799 0.034702 
0.090931 0.0044497 -0.15585 0.14091 0.013986 0.049664 0.10918 0.05476 
0.0062583 0.1128 -0.27357 0.021056 -0.044874 0.05772 0.12529 0.070708 
0.084519 0.1345 -0.20074 -0.019884 -0.049314 0.079751 0.093398 0.085835 
0.21934 0.030427 -0.095185 0.0093821 -0.060494 0.051472 0.062323 0.076792 
0.31108 -0.011334 -0.09387 0.094877 -0.013143 0.025495 0.053938 0.054103 
0.34199 -0.038627 -0.036818 0.19172 0.038319 -0.006566 0.005765 -0.0078813 
0.17676 -0.045203 0.066105 0.21408 0.041278 0.023028 -0.012814 -0.010183 
-0.12231 -0.097158 0.23627 0.076792 -0.019555 0.028947 0.025659 -0.011005 
-0.34575 0.0090533 0.32982 -0.068714 -0.11722 0.027796 0.042758 0.0095465 
-0.42894 0.14782 0.2662 -0.12823 -0.15437 0.010862 0.025166 0.045718 
-0.34033 0.12661 0.15604 -0.15158 -0.16884 -0.00015387 -0.013965 0.050486 
-0.062467 -0.030242 0.0093821 -0.13925 -0.15421 0.00297 -0.044546 0.021713 
0.33673 -0.095678 -0.22573 -0.11508 -0.10834 0.016452 -0.045368 -0.0098543 
0.475 0.018754 -0.27209 -0.034352 -0.085978 0.036017 0.011848 0.053609 
0.33476 0.073832 -0.19219 0.015794 -0.046847 0.049006 0.04506 0.11691 
0.15341 0.031742 -0.087293 0.087314 -0.01528 0.020727 0.022864 0.13417 
0.00066819 0.055582 -0.0080457 0.1853 0.01974 -0.004593 -0.010841 0.10556 
-0.080059 0.11017 0.025166 0.19566 0.025001 -0.0075525 -0.01528 0.099645 
-0.18265 0.13088 0.074983 0.20109 0.029441 -0.017253 0.020562 0.028947 
-0.22935 0.13401 0.11576 0.17511 0.021384 -0.0067304 0.038155 -0.0091966 
-0.24234 0.10754 0.16903 0.086492 -0.036818 -0.034352 0.024179 -0.040271 
-0.2448 0.072353 0.31026 0.049006 -0.046025 -0.010676 0.012342 -0.083676 
-0.071674 -0.039778 0.35876 0.082875 -0.004593 0.014479 0.020562 -0.10604 
0.40496 -0.20255 0.23874 0.17988 0.033715 0.012506 0.004943 -0.088937 
0.61541 -0.26174 0.018754 0.1807 0.060679 0.034044 -0.01117 -0.031886 
0.27162 -0.22491 -0.12133 0.066927 -0.0095255 0.041936 0.037826 0.11642 
-0.091404 -0.0016336 -0.062138 -0.073811 -0.10456 0.072681 0.11017 0.19336 
-0.13168 0.17215 -0.032543 -0.22244 -0.17657 0.08008 0.17758 0.17708 
-0.0771 0.20849 -0.12001 -0.27752 -0.21685 0.053609 0.14075 0.057555 
-0.051615 0.19122 -0.2961 -0.22145 -0.18939 0.010204 0.10918 0.033551 
-0.038791 0.18826 -0.42187 -0.12741 -0.16276 -0.0090322 0.10885 0.05213 
0.014972 0.18892 -0.4273 -0.067399 -0.12083 0.033387 0.11674 0.091753 
0.15341 0.22 -0.3497 -0.024487 -0.084663 0.032071 0.10113 0.027303 
0.32374 0.15176 -0.19466 0.078272 -0.042737 0.026974 0.082053 -0.072003 
0.48602 0.062981 0.019905 0.07597 -0.036654 0.0013258 0.034866 -0.10867 
0.44245 -0.006566 0.19468 0.051143 -0.065262 -0.012814 0.019576 -0.13448 
0.13417 -0.046847 0.25978 0.082875 -0.034023 0.0092177 0.043416 -0.027282 
-0.25549 0.0098754 0.17758 0.12644 0.00083261 0.025988 0.045882 0.028125 
-0.68165 0.13713 -0.039942 0.13549 0.03092 0.055254 0.055418 0.0072447 
-0.8168 0.13483 -0.09091 0.089945 0.017767 0.048184 0.049828 -0.0019624 
-0.4758 -0.03616 0.015301 -0.00015387 -0.082361 0.038977 0.05213 0.020069 
-0.049314 -0.1695 0.14733 -0.11261 -0.14303 0.027632 0.037004 0.0034632 
0.012177 -0.065426 0.099316 -0.16572 -0.17213 0.012013 0.032893 -0.015938 
-0.18693 0.15719 -0.045696 -0.10406 -0.13218 0.013492 0.028125 -0.0040998 
-0.29182 0.39691 -0.11705 -0.091239 -0.13366 0.029276 0.027139 0.045389 
-0.13185 0.40694 -0.038462 -0.078744 -0.11245 0.017438 0.023522 0.03092 
0.24301 0.36221 0.033387 -0.058192 -0.10373 0.0011614 -0.0068948 -0.028433 
0.46251 0.18596 0.096193 0.0079024 -0.070194 0.020233 -0.0024557 -0.029748 
0.51726 0.070544 0.13812 0.086985 -0.02235 0.033058 0.025988 -0.031064 
0.36172 0.049006 0.083862 0.18054 0.051472 0.041114 0.078272 0.017767 
0.17149 0.1636 -0.023665 0.24269 0.075312 0.071695 0.1031 0.083862 
0.12118 0.02533 -0.042901 0.15555 0.031085 0.058542 0.045882 0.09685 
0.12677 -0.14402 -0.022679 0.049499 -0.037805 0.020891 0.00050378 0.00297 
0.016945 -0.15766 -0.20485 0.011026 -0.076935 0.034537 -0.0059084 -0.0077169 
-0.19729 0.036346 -0.51214 -0.034023 -0.093705 0.01711 0.014808 0.032071 
-0.2961 0.15883 -0.48846 -0.052437 -0.10127 0.015794 -0.014622 0.075476 
-0.25532 0.16262 -0.13382 0.0044497 -0.052109 0.014643 -0.040106 0.06594 
-0.065919 0.1271 0.16278 0.08978 -0.030077 0.018096 -0.056548 0.080902 
0.13335 0.10704 0.36271 0.056569 -0.03501 0.027139 -0.053588 0.027468 
0.12332 0.054432 0.48109 -0.049807 -0.093212 0.040785 -0.025802 0.036017 
0.014479 0.015137 0.50246 -0.079237 -0.11672 0.054596 0.021384 0.040128 
0.0067515 -0.087622 0.47615 -0.10867 -0.12659 0.055747 0.058049 0.060186 
0.030592 -0.19992 0.45116 -0.10489 -0.12807 0.037168 0.050979 0.015301 
-0.019555 -0.19022 0.46547 -0.037805 -0.085485 0.0054362 0.033551 -0.032708 
-0.13021 -0.024323 0.43949 0.0039565 -0.088773 0.0037921 0.0067515 -0.038298 
-0.11261 0.12776 0.33936 0.065447 -0.03353 0.0090533 0.0016547 -0.013307 
0.010204 0.17758 0.051472 0.13417 0.023522 0.043087 -0.0047575 0.069722 
0.10244 0.11642 -0.25615 0.19287 0.051636 0.057884 0.005765 0.095042 
0.12809 0.054432 -0.27341 0.10672 0.011191 0.049664 0.0093821 0.092576 
0.1151 0.012835 -0.1404 0.046704 -0.028269 0.062488 -0.02087 0.036839 
0.033715 0.020727 0.030756 0.04358 -0.048492 0.037004 0.0036276 0.038812 
-0.0087034 0.031742 0.082875 0.022535 -0.071345 0.014972 -0.0032777 0.0421 
0.05213 0.050979 0.14157 0.019576 -0.063618 -0.0022913 0.039634 0.049664 
0.088465 0.017603 0.22838 0.01152 -0.053917 0.005765 0.032729 0.073668 
0.071695 -0.0019624 0.19566 0.048019 -0.049478 0.044896 0.039305 0.088465 
0.10639 0.012177 0.079751 0.054267 -0.031392 0.043745 0.020398 0.05772 
0.12497 0.027961 -0.058192 0.057555 -0.028597 0.039963 0.026317 0.037004 
0.15637 -0.0077169 -0.070194 0.12184 0.010533 0.036839 0.021056 0.037826 
0.10277 -0.11672 0.063639 0.13927 0.025988 0.037004 0.01152 0.051308 
0.039963 -0.10916 0.071531 0.1294 0.010369 0.034866 0.010862 0.077778 
-0.046847 0.012177 0.10885 0.068242 -0.029584 0.007738 0.015465 0.073175 
-0.099624 0.10047 0.1516 -0.017417 -0.096829 -0.02646 0.042594 0.095535 
-0.14369 0.15735 0.18251 -0.052437 -0.10637 -0.024158 0.013164 0.038319 
-0.22458 0.17149 0.14815 0.00099702 -0.060329 -0.019884 0.0056006 0.028125 
-0.12955 0.13467 0.15949 0.054103 -0.058521 -0.023994 0.01415 0.00099702 
0.068571 0.058542 0.15883 0.15028 0.018096 0.015137 0.0092177 0.0088889 
0.28346 0.004943 0.19484 0.13993 0.025988 0.055254 0.025001 -0.0032777 
0.37931 -0.025474 0.26948 0.12201 0.0072447 0.019576 0.021056 -0.015444 
0.19303 0.037168 0.34479 0.089945 -0.0029489 0.04654 0.037826 0.012342 
-0.024816 0.15933 0.20767 0.039963 -0.027118 0.071695 0.05065 0.078107 
-0.035503 0.18004 -0.06296 -0.086964 -0.095514 0.03651 0.078272 0.057555 
0.080573 0.14798 -0.1404 -0.15109 -0.16868 0.0095465 0.047197 0.058706 
0.23989 0.16492 -0.19679 -0.11426 -0.14846 -0.0059084 0.043416 0.048677 
0.22756 0.17363 -0.24645 -0.050464 -0.10094 0.024344 0.051965 0.062817 
0.078436 0.0016547 -0.20468 0.0028056 -0.067399 0.042429 0.071037 0.073832 
0.032893 -0.22836 -0.15651 0.06183 -0.023994 0.023357 0.071695 0.022371 
0.10803 -0.25582 -0.045039 0.10129 -0.0095255 0.012013 0.018754 -0.020706 
-0.041751 -0.044874 0.0095465 0.085506 -0.028926 -0.010512 0.0046141 -0.072825 
-0.36992 0.037661 -0.0055795 0.017932 -0.073976 0.013821 0.024837 -0.080552 
-0.4393 -0.1427 -0.0024557 -0.056055 -0.10571 0.0036276 0.089287 -0.016431 
-0.11771 -0.34756 -0.10686 -0.1039 -0.099789 0.0046141 0.14881 0.042265 
0.30483 -0.30991 -0.15289 -0.059014 -0.11311 0.0039565 0.078107 0.00033937 
0.49473 -0.12741 -0.18232 -0.043066 -0.10127 -0.0095255 0.025166 0.014643 
0.35021 0.10441 -0.15059 0.048348 -0.047669 0.026646 -0.0059084 0.030592 
0.13647 0.24137 -0.088444 0.14815 0.0052718 0.053116 0.027303 0.05624 
0.036346 0.25847 -0.03501 0.12924 0.012013 0.047691 -0.0029489 0.035031 
0.018096 0.24038 0.0087245 0.10474 -0.0088678 0.024344 -0.049314 0.01152 
-0.056219 0.29744 0.0060938 0.091918 -0.0068948 0.010697 -0.096829 -0.033365 
-0.14139 0.33098 0.00099702 0.069722 -0.026296 0.01004 -0.18479 -0.051451 
-0.16095 0.2297 -0.011827 0.030098 -0.050136 -0.026131 -0.20551 -0.0082102 
-0.12034 -0.021363 0.0060938 0.0069159 -0.060823 -0.044052 -0.046354 0.081067 
-0.023829 -0.21471 0.03947 0.025495 -0.091239 -0.051451 0.16278 0.14042 
0.070544 -0.21636 0.097837 0.0046141 -0.097651 -0.014622 0.30023 0.15538 
0.009711 -0.031721 0.021713 0.083533 -0.024652 0.04654 0.31897 0.15703 
-0.03912 0.11313 -0.05326 0.11313 -0.00097594 0.075148 0.24137 0.12792 
0.03388 0.13762 -0.12593 0.00050378 -0.058028 0.067256 0.12694 0.12266 
-0.039613 0.073832 -0.19268 -0.079566 -0.0965 0.069229 0.00033937 0.059035 
-0.30695 0.062159 -0.18035 -0.083183 -0.075949 0.048841 -0.049642 -0.023172 
-0.32931 -0.031392 -0.13958 -0.036325 -0.09239 0.043251 -0.084005 -0.091239 
0.23907 -0.22672 -0.056712 -0.058685 -0.11574 0.0039565 -0.14911 -0.10275 
0.67641 -0.36729 0.025001 -0.018239 -0.096665 -0.019884 -0.206 -0.12297 
0.64928 -0.24382 -0.024323 0.075312 -0.044217 -0.01939 -0.21817 -0.10653 
0.4242 -0.030735 -0.057534 0.099645 -0.020377 0.0085601 -0.11886 -0.052602 
0.080244 0.12151 -0.0080457 0.11477 -0.011005 1.0539e-005 0.014315 0.018754 
-0.3469 0.11526 0.11263 0.098988 -0.020048 -0.0088678 0.079751 0.0070803 
-0.70467 -0.0072237 0.16311 0.018096 -0.072989 0.0054362 0.1345 -0.04471 
-0.83422 0.042923 0.065447 -0.037476 -0.092883 0.025824 0.11477 -0.045368 
-0.34 0.17297 -0.048163 -0.026953 -0.047998 0.065283 0.10162 -0.015773 
0.26916 0.2685 -0.067235 0.07597 -0.026131 0.061337 0.04095 -0.0044286 
0.32604 0.30681 0.026317 0.067256 -0.021034 0.065283 0.065283 0.047526 
0.079587 0.22427 0.11066 0.073668 -0.022021 0.044238 0.06594 0.13943 
-0.043395 0.26965 0.0786 0.090274 -0.0057439 0.046211 0.079258 0.15785 
-0.045696 0.35597 0.058542 0.042923 -0.028433 0.0689 0.064461 0.16179 
0.040456 0.37652 0.12266 -0.019884 -0.057863 0.048677 0.034044 0.08863 
0.14831 0.23282 0.14535 -0.033037 -0.059507 0.032893 -0.011498 0.051636 
0.17232 0.094384 0.11707 -0.023501 -0.08384 0.018096 -0.0098543 0.007738 
0.20175 0.047197 0.019411 -0.019555 -0.08269 -0.011992 0.0016547 0.042265 
0.31042 0.0036276 -0.0004827 0.0088889 -0.077593 -0.037476 0.005765 -0.016102 
0.27064 -0.18775 0.055747 0.016616 -0.098967 -0.037311 0.043909 0.017767 
0.060022 -0.31961 0.079422 0.014479 -0.070194 0.01563 0.07038 0.035031 
-0.14484 -0.27505 0.074161 0.025001 -0.042408 0.028947 0.10787 0.033387 
-0.2134 -0.10308 0.099152 0.057884 -0.024487 0.038483 0.068407 0.0079024 
-0.14698 -0.0052507 0.17824 0.058871 -0.038791 0.035195 0.0098754 -0.027282 
0.0075736 0.038648 0.26702 0.064132 -0.021034 0.029441 0.0065871 -0.048985 
0.10162 0.063639 0.097179 0.084026 0.01267 0.037826 -0.043888 -0.034516 
0.088794 0.17199 -0.12873 0.12792 0.00297 0.01267 -0.068386 0.00033937 
0.0324 0.27162 -0.17147 0.10359 -0.0016336 0.04095 -0.059014 0.0092177 
-0.044546 0.30977 -0.11574 0.086821 0.0036276 0.052952 0.019083 0.051143 
-0.072825 0.28872 0.027468 0.04358 -0.035503 0.048019 0.089616 0.073504 
-0.064111 0.21046 0.1368 -0.047669 -0.087458 0.06035 0.14535 0.093069 
-0.01232 0.13713 0.18103 -0.081703 -0.1187 0.036017 0.14585 0.081889 
0.044073 0.12316 0.26735 -0.063453 -0.10521 0.041278 0.11247 0.068242 
0.058542 0.11444 0.31634 -0.064933 -0.12067 0.054432 0.087314 0.036182 
0.069064 0.080902 0.35712 -0.047998 -0.10242 0.035853 0.060844 0.047033 
0.11 -0.039449 0.33837 -0.053753 -0.10209 0.025166 0.072024 -0.0080457 
0.13467 -0.089266 0.25814 -0.0087034 -0.083676 0.0227 0.08156 0.0095465 
0.12595 -0.052766 0.14996 -0.018075 -0.078744 0.039963 0.078272 0.035524 
0.13615 0.032893 0.033058 -0.0090322 -0.076277 0.023686 0.078765 0.06742 
0.14387 0.075476 -0.072003 0.023851 -0.052931 0.021713 0.071366 0.064132 
0.159 0.1105 -0.15651 0.020398 -0.054739 0.020891 0.059364 0.078272 
0.088136 0.090438 -0.10669 0.045224 -0.026789 0.037826 0.058542 0.10441 
0.00033937 -0.024652 0.04095 0.065447 0.0023123 0.04095 0.029934 0.079094 
-0.034845 -0.11393 0.14009 0.05476 -0.037476 0.024673 0.018425 0.057555 
-0.029091 -0.14566 0.14782 -0.012485 -0.073811 -0.050629 0.029934 0.040785 
-0.048985 -0.11689 0.16015 0.045224 -0.040435 -0.0016336 -0.014622 0.066598 
-0.040435 -0.055561 0.13993 0.029934 -0.057205 -0.0098543 -0.01117 0.0064227 
-0.081703 0.067585 0.11477 -0.042901 -0.095843 0.0072447 0.0024767 0.036839 
-0.13958 0.12497 0.038977 -0.016102 -0.077757 -0.0016336 0.03092 0.041114 
-0.11755 0.14733 -0.034188 0.03388 -0.04323 0.029441 0.040785 0.030098 
-0.062796 0.12858 -0.039449 0.063968 -0.042079 0.021713 0.029605 0.01152 
0.027139 0.05476 0.047526 0.062817 -0.035338 0.023357 0.023028 0.012506 
0.10162 -0.004593 0.17495 0.090767 0.00033937 0.034702 0.049499 0.039634 
0.094384 0.009711 0.18514 0.083204 -0.03353 0.019576 0.074819 0.065612 
0.10376 0.011848 0.096028 0.0070803 -0.072989 0.021384 0.057555 0.037826 
0.21112 -0.0057439 0.078107 -0.039942 -0.087786 0.016288 0.044238 0.039634 
0.36172 -0.065591 0.065612 -0.020212 -0.084498 0.023193 0.025495 -0.0044286 
0.30631 -0.085156 0.026152 -0.016595 -0.069865 0.02122 0.053281 0.014808 
-0.025309 -0.098309 -0.11968 0.0072447 -0.065919 0.013492 0.08008 0.038319 
-0.29577 -0.049971 -0.22326 -0.0032777 -0.041093 0.01152 0.061501 0.047197 
-0.31879 0.037168 -0.21406 -0.0050863 -0.089102 -0.0098543 0.030263 0.047197 
-0.21406 0.16771 -0.12494 -0.0026201 -0.081045 0.0028056 0.00083261 0.034373 
-0.10061 0.20158 -0.047176 0.041443 -0.047998 0.0095465 -0.001798 0.050157 
0.031578 0.14437 0.023193 0.099974 -0.02235 0.021878 -0.018568 -0.0057439 
0.15209 0.056898 -0.020212 0.053774 -0.031557 0.017438 -0.029255 -0.006566 
0.23003 -0.0090322 -0.0095255 0.025659 -0.048327 0.010533 -0.056548 -0.031557 
0.23825 -0.076606 0.018425 0.035195 -0.047341 0.043087 -0.076277 -0.025802 
0.12184 -0.04619 0.13565 -0.0019624 -0.078086 0.020398 -0.067564 0.00083261 
-0.012156 0.0062583 0.26801 -0.01528 -0.086471 -0.011827 -0.077264 0.033058 
-0.047176 0.11263 0.16771 -0.043724 -0.081703 -0.021856 -0.047012 0.030263 
-0.058028 0.15456 -0.055232 -0.0034422 -0.090746 -0.0036066 0.021878 0.024837 
-0.028597 0.11231 -0.24562 0.040621 -0.062138 -0.008539 0.042923 -0.0080457 
0.017932 0.10162 -0.21998 0.12184 -0.0073881 0.015301 0.063639 -0.022843 
0.059528 0.088958 -0.06444 0.22049 0.065447 0.031085 0.048348 -0.0088678 
0.14108 0.019576 0.0032988 0.25337 0.10343 0.054596 0.039305 -0.0036066 
0.21556 0.017274 -0.07973 0.2976 0.12398 0.062159 0.049006 0.013328 
0.2001 0.063145 -0.11623 0.2611 0.11773 0.057062 0.039305 0.0052718 
0.1835 0.14667 -0.12626 0.11444 0.005765 0.027796 0.016288 0.025495 
0.11296 0.17248 -0.1016 -0.032543 -0.087951 0.019083 0.022206 0.0087245 
0.0031344 0.17412 -0.099131 -0.13843 -0.14714 0.015794 0.021384 0.056404 
-0.087458 0.11724 -0.1381 -0.16407 -0.1912 -0.0032777 0.029276 0.046704 
-0.14056 -0.017417 -0.08384 -0.20238 -0.20353 -0.012485 0.00083261 0.031578 
-0.12675 -0.21652 0.052952 -0.16111 -0.17986 -0.008539 -0.035503 0.019576 
-0.012649 -0.24973 0.1567 -0.021528 -0.089924 -0.0062372 -0.045532 -0.0072237 
0.071037 -0.16128 0.12266 0.095042 -0.03501 -0.0039354 -0.072496 -0.023007 
0.047197 -0.10373 -0.060987 0.15061 0.020233 0.036182 0.0082312 0.024673 
-0.10571 -0.097651 -0.23148 0.08419 0.014643 0.037661 0.015959 0.066598 
-0.19433 -0.033201 -0.24332 0.015137 -0.053588 0.033715 0.031414 0.087972 
-0.15273 0.064954 -0.07973 -0.0062372 -0.06 0.029605 0.052459 0.094055 
-0.035174 0.2468 0.0085601 0.033551 -0.0406 0.015137 0.090109 0.087808 
0.11642 0.32818 -0.0082102 0.07597 -0.023665 0.051801 0.070544 0.012177 
0.13549 0.27688 0.01563 0.024015 -0.038627 0.026317 0.033387 -0.037147 
0.097837 0.16081 0.13302 0.046046 -0.032872 0.014315 0.039963 -0.0054151 
0.13023 0.02681 0.28741 0.092411 -0.0067304 -0.0024557 0.10672 0.021878 
0.23759 -0.013143 0.34446 0.1105 -0.023994 -0.0057439 0.10704 0.043087 
0.24005 -0.0034422 0.17034 0.13697 -0.00081153 0.038319 0.045389 0.035031 
0.073997 0.00066819 -0.0072237 0.13121 0.018754 0.032893 0.022371 0.080738 
0.10408 0.053281 -0.087458 0.1179 -0.0080457 0.050979 -0.010676 0.097837 
0.21671 0.069229 -0.026953 0.023357 -0.059507 0.020398 -0.081374 0.076463 
0.095535 -0.025145 0.10836 -0.026131 -0.088115 0.0070803 -0.11574 0.01267 
-0.11048 -0.1547 0.20816 -0.0031133 -0.064933 0.0324 -0.089102 -0.051615 
-0.15224 -0.18183 0.087972 0.029605 -0.052766 0.030263 -0.084498 -0.09091 
-0.019226 -0.033037 -0.06855 0.059693 -0.024323 0.051965 -0.055397 -0.065097 
0.095206 0.15078 -0.1062 0.029276 -0.023501 0.016123 -0.014622 -0.023501 
0.07301 0.19155 -0.0098543 -0.032872 -0.098309 0.012177 0.035524 0.034044 
-0.041257 0.22033 0.044896 -0.082032 -0.11656 0.0052718 0.11198 0.065612 
-0.26387 0.2029 0.018425 -0.048327 -0.09239 0.017603 0.11494 0.034702 
-0.39146 0.12562 -0.0014692 -0.00097594 -0.064275 0.039963 0.13171 0.018096 
-0.083183 0.064132 1.0539e-005 0.0062583 -0.046683 0.048841 0.15604 0.066927 
0.27146 -0.0088678 0.055254 0.014808 -0.043066 0.050486 0.12316 0.14338 
0.34544 -0.14928 0.12743 0.01004 -0.047505 0.056404 0.048513 0.11231 
0.32292 -0.20468 0.15522 0.020069 -0.060329 0.052459 0.023851 0.027468 
0.24795 -0.16161 0.14864 0.012835 -0.06444 0.032564 0.039305 -0.026296 
0.1932 0.0028056 0.084026 0.0092177 -0.046847 0.028783 0.04095 -0.015609 
0.15176 0.1345 0.13746 0.083862 -0.032215 0.030098 0.015137 0.0047785 
0.074161 0.079258 0.17281 0.076956 -0.030406 0.0028056 0.010533 0.057884 
-0.047505 -0.049971 0.16755 0.090274 -0.027118 -0.022514 0.018589 0.076134 
-0.10489 -0.018733 0.15522 0.086821 -0.040106 -0.018075 0.055911 0.095535 
-0.16013 0.10162 0.098166 0.053938 -0.053095 -0.033201 0.01974 0.014972 
-0.23477 0.19205 0.023193 -0.0138 -0.091075 -0.0057439 -0.022679 -0.036489 
-0.17345 0.2024 -0.030735 -0.027118 -0.066741 0.0023123 -0.032543 -0.045203 
0.072188 0.159 -0.028104 0.027961 -0.057863 0.030427 0.017274 -0.0004827 
0.26554 0.051472 -0.037147 0.021713 -0.044052 0.052294 0.037497 0.027139 
0.23693 -0.027775 -0.040435 0.0014903 -0.051451 0.066269 0.041114 0.041278 
0.11214 0.017603 -0.043888 0.00050378 -0.062631 0.074161 0.022371 0.071202 
0.059035 0.13697 -0.09091 -0.076442 -0.10604 0.047362 0.0421 0.085341 
0.1026 0.14338 -0.088444 -0.10406 -0.11903 0.023686 0.028125 0.090274 
0.13664 0.08567 0.011355 -0.049149 -0.10012 0.035853 -0.044217 0.048513 
0.090109 0.11165 0.083204 -0.056712 -0.097816 0.029112 -0.024158 0.048184 
0.13302 0.11921 0.08304 -0.011005 -0.070852 0.020891 0.00099702 0.0065871 
0.20142 -0.05441 0.13154 0.026317 -0.039942 0.00297 0.032564 -0.041257 
0.22723 -0.2402 0.17215 0.076299 -0.039942 -0.0013048 0.038648 -0.068714 
0.18366 -0.18331 0.16196 0.071037 -0.039778 0.0074092 0.06183 -0.021363 
0.065776 0.032893 0.089287 0.089616 -0.015116 0.048184 0.076956 0.0227 
-0.15437 0.22065 -0.014787 0.16821 0.039963 0.07597 0.081889 0.076134 
-0.33161 0.28642 -0.04882 0.15308 0.036675 0.053609 0.11905 0.09833 
-0.41481 0.24729 -0.006566 0.1128 0.0054362 0.040785 0.11017 0.12809 
-0.47991 0.21227 -0.050629 0.035195 -0.022514 0.04095 0.077943 0.098494 
-0.36828 0.17297 -0.063946 -0.055397 -0.10291 0.050486 0.086821 0.070051 
-0.035667 0.057062 0.062488 -0.11311 -0.13662 0.0227 0.12447 0.045718 
0.32687 -0.0044286 0.17725 -0.10078 -0.13678 0.010204 0.14617 0.035524 
0.55129 0.0083956 0.1978 -0.035174 -0.10357 0.01004 0.10113 0.058871 
0.73363 -0.018897 0.17232 -0.0004827 -0.061316 0.032236 0.037826 0.034537 
0.76519 -0.054082 0.11444 0.040456 -0.028269 0.060186 0.0037921 -0.01232 
0.53107 0.0070803 -0.044874 0.083862 -0.0057439 0.037332 0.0092177 -0.04323 
0.076463 0.067091 -0.094856 0.088301 -0.023007 -0.0068948 -0.0052507 0.018754 
-0.13941 -0.099131 0.074819 0.094713 -0.025967 -0.00064712 -0.036489 0.040456 
-0.20304 -0.35052 0.16163 0.15127 0.028619 0.0065871 -0.083347 0.033551 
-0.29511 -0.39195 0.076627 0.17758 0.023686 0.012999 -0.10604 0.015301 
-0.28344 -0.19252 0.0067515 0.098494 -0.0054151 0.00033937 -0.1062 0.01004 
-0.16802 0.069558 0.044896 0.016781 -0.060823 -0.0138 -0.069701 -0.00031829 
-0.044381 0.2754 0.12053 -0.0088678 -0.085156 0.015794 0.0056006 0.03651 
-0.028269 0.35547 0.1197 -0.056712 -0.10275 0.031249 0.11313 0.063968 
0.0024767 0.32308 0.14305 -0.035832 -0.07973 0.055911 0.19205 0.093726 
0.015959 0.20175 0.15883 0.0075736 -0.031721 0.034702 0.14124 0.076134 
0.047855 0.038812 0.33607 0.03092 -0.057699 -0.011334 0.08978 0.030592 
0.08863 0.019083 0.52219 0.0037921 -0.074469 -0.014293 0.028454 0.0028056 
0.073339 0.030427 0.52581 -0.0098543 -0.073318 0.017438 0.023193 -0.017911 
0.01826 0.059528 0.28412 0.021384 -0.05737 0.053938 0.066105 -0.0075525 
0.017932 0.080902 -0.010019 0.025824 -0.041093 0.050814 0.05213 0.0079024 
0.1659 0.061337 -0.19433 0.017767 -0.049314 0.031742 0.032236 0.016288 
0.34791 -0.0059084 -0.2083 0.033715 -0.044381 0.026481 0.01711 0.0052718 
0.24893 -0.044052 -0.20682 0.0046141 -0.071181 0.035853 -0.015116 0.025659 
-0.041093 0.071859 -0.3132 -0.0082102 -0.080388 0.015301 -0.020541 0.034373 
-0.26239 0.18646 -0.44045 0.03388 -0.038298 0.0065871 0.013164 0.074983 
-0.32717 0.23397 -0.56738 0.054596 -0.051122 0.030263 0.01826 0.13828 
-0.16407 0.24219 -0.54666 0.03388 -0.047669 0.032236 0.030592 0.087972 
-0.047669 0.28247 -0.37896 0.021713 -0.062467 0.031742 0.052787 0.069886 
0.026317 0.24449 -0.071674 0.06035 -0.028926 0.037826 0.053609 0.071531 
0.091096 0.088794 0.2149 -0.003771 -0.066906 0.0088889 -0.029255 0.024673 
0.12414 -0.036654 0.36057 -0.06148 -0.11031 -0.031228 -0.057863 -0.051287 
0.1396 -0.15092 0.40743 -0.054246 -0.10275 -0.015444 -0.055561 -0.080223 
0.052787 -0.15602 0.46004 -0.028926 -0.1085 0.0075736 -0.031886 -0.11738 
-0.042244 -0.18068 0.34561 -0.0013048 -0.068714 0.023522 -0.023336 -0.097322 
0.19024 -0.15816 0.23808 0.0064227 -0.047012 0.01004 -0.025967 -0.083676 
0.55195 -0.21948 0.31437 -0.032872 -0.10587 -0.012649 -0.046025 -0.080717 
0.63103 -0.35151 0.37783 -0.087293 -0.13645 -0.037476 -0.10028 -0.10571 
0.37635 -0.36252 0.29596 -0.05178 -0.11804 -0.03501 -0.10521 -0.039942 
0.035524 -0.16868 0.0085601 -0.0055795 -0.083676 -0.027282 -0.021363 0.043416 
-0.25631 0.1562 -0.33786 0.034702 -0.054246 0.013492 0.087479 0.16163 
-0.46068 0.43373 -0.59533 0.10047 0.0047785 0.061995 0.14881 0.17117 
-0.53466 0.49753 -0.58103 0.14289 0.053116 0.09422 0.14996 0.15505 
-0.39294 0.38803 -0.3178 0.09274 -0.011498 0.065776 0.11559 0.074326 
-0.24776 0.29974 -0.15339 0.053116 -0.031721 0.044238 0.13664 0.063474 
-0.038298 0.26636 -0.16917 0.055747 -0.025474 0.047526 0.15719 0.062652 
0.1031 0.20701 -0.2009 0.10359 -0.0055795 0.059693 0.14733 0.057555 
0.18448 0.017438 -0.15421 0.014315 -0.059836 0.036675 0.042758 0.024344 
0.19879 -0.11475 -0.10801 -0.027775 -0.089759 0.0062583 -0.035996 -0.00081153 
0.096357 -0.0868 -0.087293 -0.0060728 -0.070852 -0.00064712 -0.056712 -0.041915 
0.047691 -0.004593 -0.053917 0.034373 -0.049642 0.0069159 -0.061151 -0.0075525 
0.080902 0.073668 0.024344 0.064296 -0.022514 0.03947 -0.069208 0.014808 
0.15193 0.061666 0.077449 0.091096 0.010533 0.046211 -0.078415 0.0056006 
0.20947 0.011684 0.044073 0.097672 -0.0055795 0.051965 -0.12757 -0.031064 
0.19994 -0.085485 -0.030406 0.023522 -0.050958 0.029769 -0.14221 -0.070523 
0.13023 -0.12692 -0.075949 0.016288 -0.057205 0.00297 -0.049807 -0.013471 
0.067256 -0.049971 -0.05737 0.056569 -0.048163 0.029441 0.055747 0.021878 
0.029112 0.07038 -0.004593 0.047362 -0.045368 0.028454 0.13894 0.094384 
0.047855 0.10754 0.013657 0.053281 -0.037969 0.025166 0.17856 0.13286 
0.071695 0.094877 0.042265 0.086492 0.0039565 0.048513 0.19122 0.13368 
0.082053 0.089452 0.062159 0.093233 -0.022021 0.070873 0.16673 0.10967 
0.013164 0.032236 0.1128 0.044238 -0.042573 0.0592 0.12464 0.08863 
-0.11376 -0.03912 0.14568 0.014808 -0.053753 0.03388 0.040456 0.027139 
-0.279 -0.065097 0.13812 -0.0040998 -0.083347 -0.0050863 0.0021479 -0.021034 
-0.21438 -0.043888 0.14338 -0.04471 -0.10817 -0.074633 0.0011614 -0.11212 
0.032071 0.0018191 0.068407 -0.0055795 -0.089431 -0.054904 -0.053095 -0.047834 
0.30631 -0.033859 0.0023123 0.11559 -0.0029489 -0.025967 -0.085978 -0.098309 
0.34594 -0.14582 -0.14237 0.091753 -0.037805 -0.045203 -0.10061 -0.094363 
0.18054 -0.032872 -0.13185 0.04358 -0.042573 0.00017495 -0.04323 0.0082312 
0.015959 0.12776 0.023851 0.05213 -0.017088 0.074654 0.052459 0.12118 
-0.084005 0.18678 0.099974 0.088301 -0.0032777 0.10195 0.099152 0.18333 
-0.11245 0.21638 0.16327 0.098494 0.01004 0.10474 0.08567 0.13943 
-0.076771 0.2486 0.20651 0.10688 0.007738 0.054432 0.070215 0.13828 
-0.045203 0.23414 0.26603 0.08863 -0.015444 0.062159 0.096028 0.095699 
-0.020212 0.096193 0.31289 0.018754 -0.057205 0.03651 0.082382 0.10819 
0.071531 -0.046354 0.30845 -0.018075 -0.080388 0.027139 0.048677 0.079422 
0.21687 -0.041422 0.21572 -0.05885 -0.092061 0.041772 0.043909 0.061172 
0.27294 -0.011827 0.097179 -0.017582 -0.095349 0.019247 0.06035 0.034702 
0.17034 0.01826 -0.018075 -0.017417 -0.087786 0.016781 0.13269 0.044238 
0.0083956 0.054596 -0.076771 -0.019719 -0.089431 0.01267 0.13368 0.03536 
-0.11097 0.097015 -0.050464 0.035853 -0.066413 0.0052718 0.1054 0.021384 
-0.10735 0.11691 0.012835 0.029934 -0.049642 0.03092 0.051801 0.021878 
-0.075784 0.065118 0.11609 -0.0054151 -0.065426 0.03388 0.029112 0.0023123 
-0.24447 -0.0052507 0.16048 -0.00081153 -0.077922 -0.0040998 -0.022843 -0.058685 
-0.48813 0.066269 0.093069 0.054432 -0.059836 -0.030077 -0.054904 -0.11442 
-0.32487 0.17051 0.077614 0.12858 0.0036276 0.020233 -0.030735 -0.048492 
0.0093821 0.17725 0.11724 0.18662 0.069558 0.045882 -0.0022913 0.029441 
0.19632 0.11477 0.17774 0.20947 0.056733 0.016123 0.032236 0.088301 
0.28889 0.10951 0.20191 0.10836 -0.00081153 0.041936 0.028783 0.073339 
0.30138 0.092411 0.18448 0.0080668 -0.065591 0.011355 0.046375 0.072681 
0.23792 0.10721 0.21852 -0.051615 -0.11738 -0.0075525 0.10573 0.047855 
0.23611 0.070051 0.1733 -0.12938 -0.1598 -0.017088 0.12151 0.048841 
0.23677 0.034866 0.071366 -0.1473 -0.17065 0.0023123 0.096357 0.06331 
0.27672 0.021056 -0.0087034 -0.085156 -0.11903 -0.010348 0.02681 0.077943 
0.26866 0.031414 -0.040106 -0.031064 -0.10373 -0.0052507 -0.043888 0.01563 
0.24137 -0.0024557 -0.026296 0.015137 -0.062138 -0.011005 -0.11853 0.025495 
0.079916 -0.040764 -0.0029489 -0.0138 -0.070359 -0.026789 -0.18216 0.042594 
0.038483 -0.089266 0.041607 -0.046847 -0.10669 -0.018239 -0.2203 -0.010512 
0.066763 -0.11623 0.060515 -0.045696 -0.097322 0.0059294 -0.13497 -0.04882 
-0.0082102 -0.074469 0.032893 0.030263 -0.043066 0.066598 0.020069 -0.026953 
-0.010841 -0.026953 -0.011992 0.086985 0.0028056 0.066927 0.11263 -0.028926 
0.031414 -0.10505 -0.14089 0.1174 -0.0060728 0.059364 0.16179 -0.055068 
-0.068714 -0.14813 -0.24628 0.10639 -0.0022913 0.038155 0.15012 -0.013307 
-0.16243 0.026152 -0.17394 0.094713 0.0065871 0.028783 0.11937 0.023357 
-0.13958 0.33558 -0.056548 0.12546 -0.006566 0.035853 0.062981 0.020398 
-0.097816 0.48832 0.063474 0.16212 0.023522 0.0052718 0.026481 0.041278 
-0.096007 0.45149 0.16163 0.23792 0.083368 0.044731 0.04095 0.051143 
-0.01939 0.26669 0.21474 0.28198 0.093398 0.0324 0.010369 0.049335 
0.092082 0.033222 0.25156 0.12792 -0.0047575 0.0070803 -0.0082102 0.087808 
0.14239 -0.26568 0.36057 -0.021692 -0.10965 0.0079024 0.0227 0.077121 
0.17511 -0.46939 0.46366 -0.12593 -0.15783 -0.001798 0.010697 0.06035 
0.20092 -0.44358 0.43982 -0.19449 -0.1843 0.013492 -0.0031133 0.00050378 
0.26784 -0.20995 0.25419 -0.19318 -0.17986 0.026317 0.00017495 0.0054362 
0.31963 -0.032872 0.12069 -0.096994 -0.11048 0.025001 -0.01676 -0.026624 
0.2805 0.098988 0.0037921 -0.030242 -0.09946 0.020398 0.0013258 -0.012156 
0.21556 0.2417 -0.2596 -0.034516 -0.087786 0.01267 0.00083261 0.0079024 
0.16656 0.34084 -0.50096 -0.018075 -0.071838 0.0227 -0.022679 0.012342 
0.12809 0.29661 -0.6435 0.02122 -0.05178 0.016123 -0.016595 -0.0059084 
0.052294 0.16919 -0.4906 0.041278 -0.050464 0.013986 -0.032215 -0.026624 
-0.066906 0.040621 -0.24579 0.093069 -0.014951 0.005765 -0.0075525 0.0023123 
-0.14632 0.038319 -0.028433 0.15867 0.053774 0.00066819 0.01563 0.02122 
-0.17509 0.061666 0.09274 0.16969 0.032071 0.024673 0.021713 0.069558 
-0.255 0.10655 0.090438 0.12957 0.024344 0.049006 0.048348 0.073175 
-0.40034 0.065283 0.098001 0.085177 -0.0088678 0.082382 0.057227 0.04917 
-0.56179 -0.027118 0.10737 0.074819 -0.040106 0.043251 0.048348 0.012999 
-0.50145 -0.15306 0.13697 0.0079024 -0.069208 0.028783 0.051965 0.041772 
-0.077264 -0.17493 0.17577 -0.058521 -0.10291 0.029112 0.032071 -0.026953 
0.2075 -0.12462 0.11674 -0.047505 -0.078908 0.033058 0.045553 -0.08269 
0.26209 -0.011498 0.033715 -0.033694 -0.082854 0.053774 0.051472 -0.086142 
0.46892 -0.030242 -0.0004827 -0.031392 -0.085156 0.053445 0.072517 0.0016547 
0.65356 -0.084169 0.0023123 -0.045039 -0.087622 0.030263 0.083533 0.072353 
0.45297 -0.059507 0.048348 -0.045203 -0.11557 0.0021479 0.060186 0.083204 
0.11099 0.037661 0.087643 -0.083183 -0.1307 -0.016924 0.058871 0.058377 
-0.066906 0.023193 0.041443 -0.07825 -0.12001 -0.0039354 0.033715 0.078765 
-0.12922 0.043909 -0.056712 0.015794 -0.06707 0.0011614 0.10129 0.086163 
-0.19696 0.046046 -0.098802 0.055911 -0.038298 0.021549 0.092576 0.052952 
-0.24793 0.027961 -0.019555 0.088958 -0.010183 0.03651 0.096357 0.069064 
-0.27818 0.055911 0.026481 0.12398 0.026152 0.038483 0.11362 0.071202 
-0.21159 0.19583 0.041936 0.14552 0.022535 0.073504 0.11707 0.1003 
-0.11524 0.26883 0.15785 0.097508 0.00017495 0.0786 0.072517 0.071859 
0.011355 0.22246 0.19632 0.048677 -0.029584 0.051308 0.044402 0.050157 
0.13532 0.13088 0.15144 0.056898 -0.051122 0.038483 -0.0055795 -0.017417 
0.17626 0.099645 0.13779 0.0054362 -0.076606 0.010369 -0.044874 -0.033859 
0.14157 0.098823 0.041607 -0.093048 -0.13021 0.0041209 -0.097816 -0.066741 
0.028783 0.13006 -0.13284 -0.1011 -0.12593 0.0046141 -0.10768 -0.057205 
-0.11278 0.080409 -0.3252 -0.052766 -0.11261 0.02122 -0.059178 -0.04882 
-0.1233 0.040292 -0.21258 -0.034681 -0.078908 0.02829 0.038648 0.029441 
0.041278 -0.15865 -0.098638 0.025988 -0.042244 0.034209 0.098494 0.049664 
0.062159 -0.29725 -0.010348 0.037168 -0.045696 0.02829 0.096357 0.043745 
0.039141 -0.22441 0.037332 0.031578 -0.042901 0.0072447 0.077449 -0.0026201 
0.14026 0.0092177 -0.10078 0.064461 -0.028597 0.013164 0.090931 0.012506 
0.15916 0.1659 -0.21241 0.1179 -0.0016336 0.0227 0.092247 0.064954 
0.049828 0.19796 -0.13645 0.089287 0.0013258 0.044731 0.099645 0.088465 
-0.13152 0.14404 0.028947 0.085341 -0.0098543 0.03651 0.11329 0.15719 
-0.13974 0.12464 0.10589 0.040292 -0.048656 -0.011992 0.053774 0.088301 
0.0324 0.12957 0.082546 0.0013258 -0.09798 -0.033694 -0.045696 0.01826 
0.14058 0.12562 0.061337 -0.030242 -0.10604 -0.024158 -0.096665 -0.039449 
0.12332 0.022206 0.11247 0.017767 -0.064111 0.025495 -0.049478 0.0044497 
0.060844 -0.092226 0.18942 0.088301 -0.019555 0.041607 -0.032379 0.034866 
0.026152 -0.031557 0.11378 0.034866 -0.033694 0.041607 -0.014622 0.069229 
0.020562 0.099974 0.020727 0.012506 -0.055726 0.029769 -0.0032777 0.044731 
0.028947 0.055911 0.14519 0.0011614 -0.070852 0.041278 -0.024158 0.034866 
0.060679 -0.018733 0.33213 0.00050378 -0.092061 0.011684 -0.071016 -0.010841 
0.037004 0.017603 0.27064 0.018754 -0.070194 -0.0082102 -0.089595 0.00017495 
0.03092 0.13302 -0.0042642 0.09981 0.0036276 0.0044497 -0.011663 0.031578 
0.07449 0.1955 -0.094199 0.15259 0.015137 0.013986 0.031414 0.068078 
0.14354 0.19418 -0.084498 0.1077 0.0026412 0.040128 0.061172 0.076463 
0.21013 0.18761 -0.049149 0.075148 -0.011827 0.05065 0.052787 0.051801 
0.22197 0.10359 -0.0087034 0.088301 -0.019061 0.028125 0.036346 0.043909 
0.12036 0.022535 -0.0083746 0.098166 -0.0050863 0.027139 0.035195 0.05213 
-0.032872 0.017438 0.0042853 0.050979 -0.023829 0.04654 0.024508 0.091589 
-0.24661 0.1128 0.01152 -0.069536 -0.088115 0.064296 0.014972 0.033058 
-0.40083 0.1299 0.066763 -0.14336 -0.15207 0.049006 0.021878 -0.026789 
-0.23083 0.050979 0.19155 -0.10571 -0.12511 0.035031 0.04506 -0.051287 
0.10967 -0.06707 0.24236 -0.031064 -0.07266 0.02681 0.035688 0.034537 
0.22855 -0.13103 0.14338 0.076792 -0.038462 0.009711 0.032564 0.076134 
0.18021 -0.09946 -0.017088 0.12053 -0.0070593 0.01826 0.015465 0.085506 
0.25436 -0.036325 -0.13432 0.15111 0.0075736 0.023522 0.024344 0.045224 
0.20372 0.039963 -0.14237 0.15785 0.019083 0.015137 0.038812 0.02681 
-0.013965 0.11461 -0.053424 0.1128 -0.0031133 0.022864 0.045882 -0.01676 
-0.056383 0.18876 0.080902 0.062817 -0.023336 0.025001 0.034373 -0.0077169 
0.08304 0.24005 0.17626 0.017438 -0.033201 0.053774 0.005765 -0.014293 
0.23101 0.2486 0.18678 0.021878 -0.07003 0.013986 0.020727 -0.013965 
0.2024 0.17593 0.25025 -0.041586 -0.10423 -0.017417 -0.0062372 0.00297 
0.12842 0.064625 0.31897 -0.093376 -0.13596 -0.036325 -0.042737 0.015794 
0.04917 -0.050793 0.21638 -0.049971 -0.11919 0.0026412 -0.051287 0.058542 
-0.03501 -0.0059084 0.078765 -0.053917 -0.10554 -0.0016336 -0.048327 0.0023123 
-0.1524 0.10507 0.0039565 -0.040764 -0.094692 0.011026 0.0016547 -0.0040998 
-0.20452 0.14601 -0.021528 0.036182 -0.044052 0.014972 0.024508 0.004943 
-0.15618 0.17297 -0.016431 0.067913 -0.024487 0.031414 0.05065 0.027961 
-0.092061 0.1978 -0.11426 0.082053 -0.0064016 0.062652 0.099974 0.061337 
0.0062583 0.20767 -0.14089 0.10524 0.011684 0.062323 0.11806 0.075641 
0.13368 0.14552 -0.1381 0.07597 -0.020212 0.066598 0.12891 0.056404 
0.21901 0.10228 -0.042408 0.03799 -0.027282 0.061501 0.13187 0.050321 
0.21079 0.044567 0.042758 0.068407 -0.016266 0.068078 0.10754 0.029605 
0.21408 -0.079401 0.094384 0.11263 -0.00015387 0.067585 0.074819 0.028783 
0.18054 -0.2813 0.19073 0.049664 -0.046683 0.043416 0.074654 0.021056 
0.065283 -0.3936 0.27573 -0.010512 -0.08121 0.019083 0.01415 0.032564 
0.0689 -0.38044 0.2371 -0.085156 -0.10752 -0.020212 -0.014129 -0.0082102 
0.18613 -0.30169 0.1373 -0.10028 -0.14221 -0.049642 -0.034352 -0.06707 
0.14404 -0.1889 0.015301 -0.051615 -0.11294 -0.00097594 -0.015116 -0.046025 
-0.0014692 -0.014293 -0.10784 -0.0021268 -0.079566 -0.017582 0.012342 -0.038791 
-0.10028 0.15883 -0.10193 -0.0026201 -0.078908 0.0034632 0.015465 -0.012485 
-0.24924 0.28116 -0.11311 -0.017253 -0.072003 -0.0047575 0.01152 0.029934 
-0.30202 0.29892 -0.098144 0.017438 -0.056055 0.01563 0.018589 0.052294 
-0.25434 0.26472 -0.04323 0.085506 -0.010183 0.039963 0.060679 0.047855 
-0.091732 0.20503 -0.016102 0.11 -0.0082102 0.072188 0.099152 0.039141 
0.11231 0.15176 0.064296 0.057227 -0.034681 0.0421 0.11691 0.01711 
0.24778 0.050321 0.14897 0.033222 -0.035832 0.051965 0.11296 0.057062 
0.2491 -0.023172 0.14058 0.042265 -0.06148 0.034537 0.094548 0.063474 
0.19632 -0.083183 0.089123 -0.019884 -0.086307 0.012506 0.035524 0.047526 
0.073175 -0.06855 -0.011827 0.0018191 -0.07266 -0.013143 -0.049971 0.027139 
-0.010676 -0.046354 -0.13086 0.088465 -0.027118 -0.03353 -0.11557 -0.0055795 
0.029276 -0.026131 -0.2767 0.074326 -0.023172 -0.037476 -0.15059 -0.043888 
0.032893 -0.0406 -0.2545 0.033551 -0.049971 -0.015116 -0.10094 -0.03353 
-0.14089 0.014972 -0.12133 0.0065871 -0.045532 -0.0096899 -0.03501 0.028947 
-0.34 0.052952 -0.0070593 -0.0022913 -0.079237 0.009711 0.052294 0.095535 
-0.26634 0.01415 0.10737 -0.021528 -0.08121 0.032564 0.12102 0.11937 
0.054432 -0.092061 0.17445 0.027961 -0.036818 0.077943 0.19468 0.11477 
0.32308 -0.13053 0.20027 0.15472 0.030427 0.091425 0.21441 0.13023 
0.37323 -0.070194 0.23956 0.13762 0.027139 0.07038 0.14683 0.065612 
0.2828 0.045718 0.22624 0.092247 -0.0062372 0.049828 0.028619 -0.015773 
0.16541 0.070544 0.17758 0.082546 -0.017911 0.011026 -0.00015387 -0.027447 
-0.027447 0.039799 0.15719 0.049664 -0.037476 0.025824 0.01826 0.037826 
-0.18265 -0.13908 0.12529 0.037332 -0.039942 0.050979 0.025988 0.056898 
-0.26815 -0.23675 0.037497 0.017438 -0.033365 0.024179 -0.0091966 0.091589 
-0.12067 -0.17361 -0.11179 0.00066819 -0.089924 -0.001798 -0.035338 0.038319 
0.17495 -0.10752 -0.17377 -0.070852 -0.13382 -0.028762 -0.023007 -0.017582 
0.30072 -0.11985 -0.13596 -0.093376 -0.1427 -0.036654 -0.069043 -0.036983 
0.1733 -0.014293 -0.066577 -0.017088 -0.1062 -0.015773 -0.093705 -0.052602 
0.0067515 0.17889 -0.078744 0.029605 -0.066084 -0.01676 -0.078086 -0.03912 
-0.12741 0.32045 -0.15372 0.031742 -0.052766 0.0069159 0.011848 0.023522 
-0.20501 0.29185 -0.17131 0.011355 -0.040435 0.03092 0.14239 0.072024 
-0.24069 0.25436 -0.069536 0.0067515 -0.051615 0.048019 0.19484 0.09274 
-0.13727 0.17906 0.0046141 0.051801 -0.019884 0.064132 0.17593 0.09833 
0.020891 0.13467 0.019247 0.08978 0.0042853 0.045553 0.096028 0.095206 
0.0067515 0.043745 0.059693 0.086163 -0.026131 0.0079024 0.037826 0.067585 
-0.10932 0.020398 0.089123 -0.024158 -0.094199 -0.017911 -0.021363 0.03947 
-0.11639 0.0087245 0.21293 -0.053917 -0.11113 -0.020377 -0.054575 0.046375 
-0.04471 0.1077 0.23085 -0.006566 -0.079401 0.021384 -0.051451 0.058213 
0.08156 0.17758 0.12431 0.026317 -0.047341 0.046211 -0.08532 0.041278 
0.18432 0.16804 0.07449 0.086657 -0.0050863 0.051308 -0.11952 -0.056055 
0.2583 0.16031 -0.0090322 0.076956 0.011684 0.03947 -0.20896 -0.1279 
0.23101 0.12316 -0.019719 0.051472 -0.041586 0.017274 -0.16259 -0.12988 
0.14371 -0.014787 -0.028104 -0.0064016 -0.067399 0.027139 -0.025474 -0.021692 
0.0227 -0.08269 -0.051451 -0.023829 -0.079072 0.040292 0.12891 0.077614 
-0.16506 -0.11261 -0.0011404 -0.0019624 -0.07825 0.043087 0.20175 0.12694 
-0.14467 -0.14204 -0.0019624 0.020398 -0.053588 0.045718 0.20816 0.10063 
0.038812 -0.080881 -0.035174 0.1077 -0.0052507 0.071202 0.17626 0.058049 
0.10491 0.12513 -0.060823 0.1442 0.037004 0.061337 0.11872 0.027468 
-0.035667 0.2662 -0.019226 0.061666 -0.024323 0.039799 0.088958 0.033058 
-0.13662 0.26899 0.10162 -0.053753 -0.09387 0.031578 0.072024 0.056076 
-0.12741 0.21358 0.19336 -0.10801 -0.11491 0.037661 0.10326 0.070544 
-0.044381 0.16114 0.23693 -0.11113 -0.15733 0.041114 0.073175 0.062323 
0.038155 0.15292 0.23167 -0.11837 -0.14895 0.013657 0.027796 0.03388 
0.18925 0.031249 0.13335 -0.062467 -0.11212 0.021056 -0.014787 0.039799 
0.25535 -0.066248 0.011684 0.037168 -0.060165 -0.0072237 -0.021034 0.015465 
0.19731 -0.11705 -0.10982 0.061172 -0.04619 -0.0083746 -0.062796 0.023522 
0.055747 -0.071345 -0.22261 0.098494 -0.014787 -0.024816 -0.082854 0.043909 
0.050321 -0.00097594 -0.22704 0.14979 0.039799 -0.027118 -0.068714 0.041278 
-0.039778 0.049828 -0.16901 0.18087 0.033551 0.0028056 -0.081539 -0.046354 
-0.31057 0.088794 -0.069865 0.13006 0.017438 0.022371 -0.097487 -0.065591 
-0.35068 0.14585 0.10293 0.086985 -0.0004827 0.055089 -0.08269 -0.068057 
-0.11853 0.22296 0.18514 0.099974 -0.0068948 0.080738 0.0013258 0.00017495 
0.0052718 0.30549 0.20783 0.0021479 -0.064604 0.075476 0.1026 0.063639 
0.0092177 0.2708 0.23808 -0.034516 -0.093048 0.027468 0.051308 0.033387 
0.14782 0.1853 0.27475 -0.046519 -0.099131 0.010697 -0.013965 0.032071 
0.3923 0.14535 0.24318 -0.064275 -0.12741 0.0065871 0.011848 0.0042853 
0.47237 0.099974 0.11033 -0.031064 -0.0965 0.016781 0.070051 0.015137 
0.40989 0.058706 0.12727 0.0018191 -0.055068 0.032236 0.095042 0.044896 
0.20471 -0.0050863 0.20471 0.080902 -0.041586 0.030756 0.087808 0.035688 
-0.17821 0.041772 0.078765 0.028947 -0.056548 0.039963 0.06331 -0.023994 
-0.47038 0.1202 -0.077922 0.020069 -0.05589 0.04095 0.061172 -0.033859 
-0.33917 0.077121 -0.21504 0.083697 -0.014458 0.040128 0.073668 0.020562 
-0.069865 -0.047834 -0.23296 0.11263 0.009711 0.035524 0.04917 0.053774 
0.19928 -0.29166 -0.21817 0.090438 -0.0098543 0.013492 0.029934 0.024015 
0.3295 -0.49635 -0.092226 0.057884 -0.028762 0.0023123 0.043909 0.070708 
0.31536 -0.4495 0.12529 0.04654 -0.049807 0.052623 0.090438 0.094384 
0.24778 -0.26157 0.23348 0.076299 -0.02794 0.050157 0.10178 0.11494 
0.12283 0.018425 0.30286 0.15752 0.036839 0.040621 0.092247 0.12003 
0.11214 0.22493 0.33591 0.22624 0.053609 0.048841 0.059857 0.073504 
0.24055 0.24301 0.2297 0.14831 0.012506 0.010697 0.022864 -0.01528 
0.33969 0.23266 0.13351 0.010697 -0.074962 0.012835 0.0064227 -0.091404 
0.15357 0.25008 -0.033859 -0.067399 -0.12281 0.0041209 0.020727 -0.02498 
-0.11607 0.26505 -0.22507 -0.075455 -0.1113 0.029276 0.039799 0.047197 
-0.25236 0.17495 -0.22721 -0.03764 -0.07562 0.04095 0.042265 0.075641 
-0.20863 0.087643 -0.091897 0.0054362 -0.044546 0.036182 0.0079024 0.040785 
-0.080388 0.009711 0.067585 0.005765 -0.07414 -0.0050863 -0.066906 0.0093821 
0.014479 -0.012485 0.13467 -0.01232 -0.088608 -0.029091 -0.10834 -0.011334 
0.039799 0.01826 0.099316 -0.0047575 -0.077264 -0.011498 -0.07973 0.015794 
0.059857 0.053774 0.062159 -0.0016336 -0.074962 0.0083956 0.0026412 0.01826 
0.10819 0.0039565 -0.011005 0.020398 -0.051451 0.049006 0.078436 0.018918 
0.082217 -0.030077 -0.050136 0.040292 -0.041915 0.044731 0.098659 0.012999 
0.074819 -0.059014 0.033551 0.069558 -0.032379 0.026152 0.090274 0.0227 
0.14453 -0.081045 0.21474 0.057062 -0.045368 0.036675 0.098166 -0.012485 
0.11773 -0.17016 0.3951 0.043909 -0.044546 0.043909 0.095535 0.014315 
-0.00081153 -0.13974 0.36024 0.028947 -0.039284 0.043251 0.10195 0.038483 
-0.060329 -0.045696 0.14256 0.015137 -0.076442 0.020069 0.076627 0.079916 
-0.065919 0.081067 -0.076935 0.0052718 -0.067564 0.025001 0.06594 0.092247 
-0.046847 0.087643 -0.25204 0.0085601 -0.062796 0.023851 0.045718 0.072353 
-0.024323 0.09274 -0.25943 0.03947 -0.047176 0.031907 0.068078 0.07038 
-0.01232 0.098001 -0.055561 -0.022185 -0.084005 0.046046 0.053445 0.046375 
0.0067515 0.11872 0.08008 -0.056055 -0.095843 0.037004 0.032893 0.047691 
0.017932 0.082875 0.10178 -0.078579 -0.093705 0.015301 -0.0031133 0.0079024 
-0.0031133 0.071695 0.073997 -0.029748 -0.095349 0.014808 -0.035667 0.0062583 
