0.16821 0.047691 0.025166 0.053445 0.060679 -0.083512 -0.47383 -0.16868 
0.074983 0.22707 -0.28689 0.093398 0.067749 -0.44292 -1.1413 0.044238 
0.066927 0.30187 -0.43289 0.15703 0.075476 -0.73623 -1.3669 0.023522 
0.09685 0.26554 -0.36515 0.097672 0.043251 -0.73163 -1.0111 -0.036489 
0.14881 0.064461 -0.1792 0.013492 -0.028926 -0.61424 -0.41349 0.21243 
0.33081 -0.13793 -0.031228 -0.039284 -0.031721 -0.14007 0.25271 0.43193 
0.70239 -0.32701 0.14486 -0.04471 -0.035996 0.54915 0.88998 0.27738 
0.7282 -0.31681 0.2754 -0.056548 0.053281 1.2625 1.634 -0.015116 
0.30993 -0.057699 0.23101 -0.0044286 0.10589 1.4209 1.8854 -0.47383 
-0.48896 0.1368 0.12858 0.072846 0.049335 0.36386 1.0217 -0.30498 
-1.2283 0.26422 0.053281 0.06742 0.0046141 -0.50671 -0.12873 0.58089 
-1.3931 0.25387 0.014972 0.050814 -0.019226 -0.63841 -0.91577 0.98107 
-0.96411 0.15028 -0.0059084 -0.0031133 0.013164 -0.19022 -1.191 0.44459 
-0.20468 0.05065 -0.017582 -0.032379 0.063803 0.48618 -0.85395 -0.57166 
0.44311 -0.050958 0.070544 -0.065262 0.056569 0.86335 -0.10193 -1.2244 
0.72228 -0.075455 0.11033 -0.05441 0.067913 0.68677 0.52564 -1.2584 
0.89541 -0.11491 0.31947 0.0064227 0.061172 0.171 0.62511 -0.64614 
0.88341 -0.23263 0.71784 0.040785 0.02829 -0.42878 0.3849 0.38655 
0.50147 -0.27867 0.71176 0.08008 0.02533 -0.78161 -0.016266 1.0449 
0.17511 -0.046683 0.19073 0.095042 0.018589 -0.81548 -0.29133 0.68151 
0.00050378 0.23052 -0.19827 0.11461 0.044567 -0.5659 -0.56459 -0.18643 
-0.11722 0.35153 -0.33983 0.066927 0.016781 -0.32947 -0.74297 -0.61013 
-0.23099 0.30878 -0.32767 0.068242 0.018754 -0.20616 -0.62591 -0.30646 
-0.31172 0.021056 -0.23362 0.097344 -0.0031133 -0.080552 -0.16111 0.27688 
-0.30481 -0.11672 -0.20764 0.058049 0.0052718 0.11329 0.28938 0.55688 
-0.16325 0.076956 -0.18989 0.016945 0.0052718 0.13845 0.40694 0.32259 
-0.055068 0.28642 -0.080059 -0.04882 -0.0077169 -0.12149 0.14881 -0.25056 
-0.0024557 0.18103 0.18826 -0.059836 -0.012485 -0.37863 -0.13547 -0.62608 
-0.091239 0.04095 0.37224 -0.067564 0.0041209 -0.25154 -0.27094 -0.42714 
-0.27259 0.13615 0.2195 -0.00031829 0.02533 0.0080668 -0.16917 0.033551 
-0.37831 0.37044 -0.11968 0.031085 0.037168 -0.086471 0.02681 0.50706 
-0.33079 0.38737 -0.20288 0.046868 -0.0073881 -0.45558 0.12365 0.49112 
0.080573 0.14075 -0.080388 0.057391 -0.073976 -0.88026 -0.11393 -0.011005 
0.68019 -0.157 0.079258 0.066763 -0.06148 -0.97792 -0.44983 -0.52661 
1.038 -0.31517 0.16081 0.06479 -0.040764 -0.59747 -0.5243 -0.74593 
0.58582 -0.29807 0.19385 0.023028 0.01974 0.22756 -0.43207 -0.44029 
-0.12609 -0.15043 0.17067 0.020562 0.053116 1.1626 -0.48238 0.36205 
-0.32092 -0.070687 0.32917 0.03388 0.11181 1.7188 -0.44588 0.83639 
-0.11689 -0.12067 0.50887 0.061995 0.1396 1.207 0.033387 0.81518 
-0.091732 -0.16177 0.34117 0.057884 0.14765 0.15653 0.29711 0.30286 
-0.31402 -0.00081153 -0.0075525 0.072846 0.070873 -0.54946 0.099152 -0.30925 
-0.32668 0.18465 -0.11179 0.054103 0.025166 -0.67376 -0.070359 -0.74314 
0.01974 0.27244 0.086492 -0.040271 0.00017495 -0.522 0.015794 -0.82304 
0.39888 0.31914 0.18103 -0.040764 0.027468 -0.24316 -0.00064712 -0.33079 
0.52778 0.35153 -0.096007 0.063474 0.062817 0.28527 -0.0077169 0.5388 
0.16064 0.26143 -0.27292 0.10507 0.0060938 0.39395 -0.017746 1.0575 
-0.34871 0.088958 -0.22425 0.03092 -0.053424 -0.11919 -0.066577 0.95772 
-0.33786 -0.10489 -0.079895 -0.033365 -0.07825 -0.47251 -0.12346 0.66079 
0.11313 -0.24201 0.050814 -0.042737 -0.095021 -0.5687 -0.02087 0.23792 
0.36748 -0.20682 0.024344 -0.051451 -0.11146 -0.54814 0.19501 -0.040928 
0.32407 -0.20682 0.029769 0.0079024 -0.064933 -0.64646 0.45379 -0.59155 
0.22345 -0.18742 0.089452 0.010369 0.00083261 -0.36006 0.38194 -1.338 
0.171 -0.1159 0.19517 0.026974 0.042594 0.26044 0.049828 -1.2323 
0.12809 0.11313 0.12677 0.0016547 0.018589 0.47254 -0.0036066 -0.23017 
-0.010676 0.38079 -0.052109 0.02829 0.029769 0.19895 0.072024 0.74037 
-0.30892 0.51512 -0.14319 0.078107 0.13269 0.42338 0.43702 1.023 
-0.5225 0.45511 -0.21734 0.1077 0.28247 1.2785 1.0322 0.85168 
-0.32454 0.30204 -0.15224 0.13269 0.27803 1.4932 1.1432 0.75829 
0.10211 0.091096 -0.031886 0.12349 0.14881 0.67641 0.52614 0.41779 
0.48388 -0.11343 -0.0087034 0.098988 -0.0138 -0.30087 -0.39458 -0.47827 
0.61706 -0.24464 0.01974 0.0044497 -0.098144 -0.66751 -1.0443 -1.3447 
0.4385 -0.19778 0.0013258 -0.0077169 -0.081539 -0.38702 -1.0902 -1.1423 
0.087972 -0.027447 0.0016547 0.038155 -0.012485 -0.045861 -0.63676 0.35301 
-0.086964 0.12628 0.036675 0.026974 -0.0036066 0.16853 0.066434 1.7298 
-0.067399 0.16558 0.081067 0.013821 0.034702 0.21934 0.52909 1.6231 
-0.077757 0.12595 0.17149 0.0093821 0.032071 0.032236 0.3928 0.4191 
-0.10965 0.045224 0.317 -0.0016336 0.013492 -0.1478 0.05624 -0.64975 
-0.094034 -0.027775 0.37274 -0.054904 0.014643 -0.14418 -0.044874 -0.9166 
0.047526 -0.021363 0.16442 -0.065755 0.0042853 -0.016595 0.11247 -0.7244 
0.23973 -0.1381 -0.15914 -0.030242 0.017603 0.23578 0.49128 -0.26996 
0.14667 -0.27538 -0.31977 -0.0044286 -0.0078813 0.32062 0.62298 0.084684 
-0.18528 -0.38538 -0.21159 0.0044497 0.027632 0.047526 0.3683 0.54356 
-0.42204 -0.3132 0.0070803 0.042265 0.017932 -0.4421 0.21178 1.0235 
-0.42007 -0.14813 0.042429 0.084355 -0.00064712 -0.79082 -0.077757 0.79758 
-0.048163 0.12414 0.015137 0.012999 -0.055397 -0.85132 -0.52924 -0.10702 
0.49884 0.46021 0.024015 0.00017495 -0.036489 -0.52924 -0.45081 -1.1341 
0.52153 0.57941 0.12381 0.051472 0.036182 0.26077 0.21786 -1.1709 
0.32259 0.38638 0.14683 0.097672 0.085012 0.86039 0.89409 -0.24776 
0.057062 0.19336 -0.029255 0.077285 0.09422 1.087 1.1096 0.44196 
-0.31139 0.1202 -0.17575 0.038977 0.083533 1.208 0.66342 0.71406 
-0.55308 0.18415 -0.24924 0.050814 0.094877 1.0807 0.062159 0.49243 
-0.60437 0.15094 -0.18315 0.01415 0.098823 0.43423 -0.30547 -0.076771 
-0.1233 -0.082032 -0.093048 -0.0032777 0.088794 -0.1547 -0.25154 -0.63775 
0.71603 -0.279 -0.091897 0.026317 0.10507 -0.29149 -0.0090322 -0.93682 
0.96792 -0.23691 -0.032379 0.060186 0.056569 -0.41957 -0.079566 -0.58859 
0.62741 0.022864 0.0689 0.050979 0.010204 -0.46742 -0.37321 0.27968 
0.26554 0.33492 0.22213 0.038977 -0.038462 -0.36433 -0.53861 0.76355 
-0.069536 0.39493 0.29974 0.02533 -0.037476 -0.11705 -0.35989 0.4921 
-0.45229 0.25946 0.1853 -0.0095255 -0.015609 0.084519 -0.073976 0.072517 
-0.62838 0.10655 0.025988 0.031085 -0.0062372 -0.18479 -0.057041 -0.013471 
-0.55373 -0.121 -0.13004 0.072846 0.012013 -0.38324 -0.16736 0.093562 
-0.33802 -0.22639 -0.25401 0.076956 0.0056006 -0.3765 -0.22787 0.15094 
-0.18611 -0.098144 -0.27094 0.0011614 0.014643 -0.21899 -0.19926 0.053281 
0.00033937 0.25123 -0.19515 -0.069372 0.021056 -0.0088678 -0.12955 -0.16572 
0.19961 0.47467 -0.033037 -0.025309 0.035195 0.089452 -0.041751 -0.21685 
0.32884 0.3124 0.21753 -0.011663 0.043251 0.071695 0.036182 -0.23066 
0.30977 -0.031557 0.63991 -0.0057439 0.033551 0.0044497 -0.010348 -0.18298 
0.23578 -0.1986 0.82323 0.036346 -0.0082102 -0.050464 -0.060165 -0.13103 
0.14305 -0.26667 0.71554 0.088794 -0.0054151 -0.072003 -0.14993 -0.015938 
0.065447 -0.19087 0.40019 0.093562 -0.0070593 -0.060494 -0.12346 0.06183 
0.11609 -0.073482 -0.062631 0.072846 0.0092177 -0.20386 -0.10982 0.12546 
0.23035 -0.043066 -0.25088 0.041443 0.0024767 -0.45805 -0.21734 0.16722 
0.20767 -0.088937 -0.24677 0.010862 0.0069159 -0.56031 -0.46117 0.24005 
0.0072447 -0.065919 -0.25187 0.012835 -0.023665 -0.53927 -0.60651 0.1733 
-0.28278 0.13615 -0.28393 0.020069 -0.033694 -0.44983 -0.46133 0.091425 
-0.40658 0.34643 -0.34115 0.075312 0.023357 0.027961 -0.12675 0.077614 
-0.22836 0.33196 -0.23806 0.026974 0.055747 0.7379 0.15045 0.053774 
0.022042 0.20882 -0.099624 0.017438 0.041936 1.059 0.31322 -0.053424 
0.14568 0.19846 0.0037921 0.022371 0.048019 1.0167 0.524 -0.16572 
0.24252 0.21243 0.082382 0.015465 0.08567 0.8331 0.73182 -0.068057 
0.1225 0.17034 0.17824 -0.022021 0.093562 0.65093 1.1463 0.10441 
-0.1792 0.10441 0.23677 0.02122 0.082053 0.24647 0.94293 0.40858 
-0.23938 0.099974 0.19369 0.096686 0.055418 -0.37124 0.064461 0.52433 
-0.12412 0.10967 0.10491 0.081067 0.043251 -0.69381 -0.53664 0.38721 
-0.0040998 0.10047 -0.014622 0.053445 0.020727 -0.5853 -0.42418 0.0093821 
-0.022514 0.10655 -0.19022 0.020727 0.028947 -0.25861 -0.074304 -0.6121 
-0.24842 0.21441 -0.33276 0.042923 0.043251 0.08715 0.27573 -0.73229 
-0.37699 0.27639 -0.34953 0.051472 0.10359 0.43735 0.74431 -0.30087 
-0.16818 0.15456 -0.2134 0.0039565 0.062488 0.51413 0.93059 0.3752 
0.16459 -0.085813 0.039305 -0.02087 0.0098754 0.15259 0.63777 1.2339 
0.45988 -0.25647 0.27639 -0.010841 -0.046847 -0.16111 -0.059672 1.123 
0.60571 -0.3372 0.47714 0.027961 -0.013307 -0.19137 -0.60865 0.20175 
0.59749 -0.3395 0.67214 0.080738 0.031249 -0.27834 -0.79986 -0.59484 
0.4117 -0.33885 0.79232 0.030263 -0.009361 -0.45854 -0.95063 -0.81252 
-0.014787 -0.25187 0.77292 -0.055561 -0.062302 -0.46462 -0.85362 -0.56113 
-0.29429 -0.11212 0.51167 -0.024323 -0.013636 -0.27571 -0.40017 -0.16983 
-0.34016 -0.047669 0.16903 0.056733 0.056404 -0.041422 -0.0068948 0.056569 
-0.23609 -0.026624 -0.28788 0.080244 0.055911 0.037168 -0.070194 0.20339 
-0.073647 0.032071 -0.55275 0.096193 0.0421 0.021713 -0.43174 0.22493 
0.048513 0.07301 -0.53729 0.096028 0.07301 0.32769 -0.15437 0.21737 
0.0786 0.13762 -0.36663 0.093233 0.080902 0.66852 0.35153 0.17067 
0.060022 0.20898 -0.2254 0.07038 0.1105 0.77966 0.90412 0.14601 
0.047526 0.19451 -0.16851 0.025166 0.092247 0.6409 1.2727 0.042923 
0.10211 0.11987 -0.085156 -0.0026201 0.015137 0.26176 1.1075 0.034373 
0.10688 0.016288 0.033551 0.01004 -0.013471 -0.03353 0.85595 0.058213 
0.11198 0.016781 0.047526 -0.025967 0.0034632 -0.015116 0.76569 0.099316 
0.12875 0.018589 -0.040271 -0.018239 -0.0034422 0.086492 0.53912 0.016616 
0.14289 -0.072496 -0.1016 0.007738 -0.030077 0.14206 -0.00081153 -0.0868 
0.084684 -0.19202 -0.070852 -0.0004827 -0.026624 -0.030242 -0.53466 -0.1746 
0.032236 -0.15816 0.020891 0.027303 0.036346 0.0088889 -0.44407 -0.038133 
-0.0013048 0.010697 0.070544 0.064132 0.14404 0.46448 -0.043395 0.19484 
0.03651 0.33591 0.043416 0.099316 0.12233 0.45675 0.1197 0.32966 
0.095371 0.61344 0.070708 0.11 0.089123 0.11033 -0.034516 0.22674 
0.079587 0.39592 0.41647 0.049664 0.030756 -0.21291 -0.22754 0.1128 
-0.014129 -0.074304 1.0159 0.0062583 -0.017417 -0.40428 -0.25072 -0.0965 
-0.094034 -0.33967 1.1082 -0.065591 -0.035338 -0.22557 -0.021528 -0.33424 
-0.073318 -0.44654 0.49358 -0.048163 -0.029913 0.0093821 0.21342 -0.21093 
0.031742 -0.32668 -0.16046 -0.056219 -0.009361 -0.034352 0.066105 0.097672 
0.19698 -0.12642 -0.5128 -0.0027845 -0.033859 -0.12593 -0.12018 0.17067 
0.29628 0.0039565 -0.5419 0.017767 -0.021856 -0.13596 -0.30596 0.12776 
0.29201 0.053445 -0.46396 0.021056 0.011848 -0.081868 -0.36713 0.083204 
0.18613 0.12168 -0.31912 0.051308 0.039799 0.014315 -0.31599 -0.17476 
0.066598 0.15538 -0.10209 0.038648 0.055089 0.034537 -0.1307 -0.41661 
-0.07414 0.20372 -0.032215 0.083368 0.044567 -0.059178 0.070215 -0.34361 
-0.19318 0.27162 -0.075291 0.053281 0.035688 -0.051944 0.1419 -0.0087034 
-0.19959 0.25732 -0.056877 0.072024 0.026317 -0.017088 0.19714 0.18794 
-0.084334 0.1368 0.010862 0.02681 0.0056006 -0.047341 0.16212 0.22624 
0.085506 0.021056 0.16541 0.0082312 -0.0039354 -0.071674 0.062488 0.097508 
0.14798 0.037661 0.16623 0.0087245 -0.026953 0.065283 0.0059294 0.0069159 
0.00033937 0.08863 0.079751 -0.012649 0.015137 0.19501 -0.0031133 0.032564 
-0.22474 0.18448 0.0060938 -0.011827 0.036675 0.027961 -0.045861 0.26176 
-0.29067 0.2075 0.012342 -0.010676 0.04917 -0.20288 -0.047505 0.35071 
-0.17509 0.17955 0.11083 0.022535 0.01974 -0.22606 0.024015 0.27491 
-0.012649 0.064954 0.21572 -0.0013048 -0.045039 -0.37436 -0.13284 0.045553 
0.14206 0.0227 0.19714 -0.032543 -0.062467 -0.45147 -0.40741 0.012506 
0.35843 0.00017495 0.10918 -0.00064712 -0.025638 -0.33424 -0.63824 0.24121 
0.43045 -0.050629 -0.016595 -0.028926 -0.023994 -0.0034422 -0.449 0.10458 
0.47336 -0.032543 -0.058356 -0.010676 0.031742 0.19846 0.12036 -0.35759 
0.78016 0.081231 -0.12511 0.030098 0.058049 0.24367 0.40381 -0.72768 
0.46695 0.20092 -0.16079 0.077943 0.063639 0.18169 -0.070687 -0.28771 
-0.51411 0.20619 -0.13629 0.080409 0.093069 0.044073 -0.58727 0.47188 
-1.0777 0.15916 -0.18397 0.08304 0.10047 -0.35364 -0.54239 0.49309 
-0.89736 0.043745 -0.18824 0.082711 0.063474 -0.69283 -0.22244 -0.11935 
-0.26223 -0.063618 -0.16407 0.027139 0.03092 -0.73097 -0.066248 -0.64877 
0.45215 -0.044052 -0.10061 -0.032708 0.013492 -0.31566 0.17758 -0.45837 
0.67181 0.01152 -0.03501 0.010862 0.0028056 0.01826 0.60505 -0.014951 
0.41927 0.074983 -0.072003 0.067913 0.025166 -0.01117 0.76799 0.011848 
0.27014 0.18596 -0.060494 0.064296 0.0075736 -0.090746 -0.011992 -0.4056 
0.39411 0.17133 0.058871 -0.0067304 -0.0075525 0.30418 -1.1344 -0.36663 
0.34446 0.078107 0.17643 -0.028597 -0.0060728 0.77391 -1.2479 0.20306 
-0.085485 0.097837 0.21687 -0.0021268 0.036182 0.7698 -0.133 0.63728 
-0.52019 0.090109 0.2588 0.022042 0.088465 0.69137 1.2106 0.30829 
-0.76977 0.1322 0.16344 0.084684 0.18662 1.0552 1.8262 -0.28771 
-0.75037 0.26883 -0.1233 0.1391 0.26685 1.336 1.8837 -0.25088 
-0.33276 0.32719 -0.33819 0.13335 0.24778 1.1473 1.7491 0.44097 
0.083204 0.19533 -0.43766 0.10556 0.13351 0.25929 0.96052 0.7425 
0.25946 -0.037147 -0.28278 0.052459 -0.004593 -0.97052 -0.25713 0.40858 
0.33311 -0.24069 0.33065 0.014643 -0.18709 -1.3225 -0.96082 -0.060987 
0.34429 -0.36219 1.0539 -0.077922 -0.14895 -1.073 -1.2142 -0.26322 
0.2269 -0.30169 1.1491 -0.12198 -0.11097 -0.69234 -1.2257 -0.11985 
0.19451 -0.28903 0.61393 -0.10801 -0.052437 -0.28541 -0.91561 -0.082525 
0.21309 -0.26371 0.014479 -0.072989 -0.01232 0.0083956 -0.45542 -0.18265 
0.2103 -0.27571 0.048841 0.042758 0.018425 0.25107 -0.061645 -0.29265 
0.17807 -0.22852 0.34347 0.074161 0.077449 0.43965 0.33657 -0.23395 
0.26801 -0.14402 0.34594 0.11559 0.11181 0.28921 0.66128 -0.19646 
0.20257 -0.0052507 -0.049314 0.10803 0.11 0.11773 0.74546 0.20224 
0.040621 0.1396 -0.41431 0.13812 0.076463 0.16081 0.63218 0.56395 
-0.11935 0.24745 -0.48583 0.14305 0.065283 0.32588 0.39181 0.37734 
-0.18874 0.31963 -0.45558 0.071531 0.059528 0.54274 0.21276 -0.11442 
-0.2573 0.32571 -0.35101 0.026646 0.075805 0.63892 0.12677 -0.32717 
-0.35315 0.29727 -0.24579 0.0034632 0.056569 0.54307 0.18925 -0.23625 
-0.352 0.20388 -0.11179 0.011191 0.01711 0.13269 0.26883 0.0064227 
-0.18167 0.11346 0.027468 0.009711 -0.00097594 -0.32684 0.17807 0.17544 
0.0090533 -0.0098543 0.09833 0.0056006 -0.029255 -0.45476 -0.043724 0.20816 
0.12398 -0.080059 0.22148 0.0075736 -0.031886 -0.21537 -0.12675 0.18563 
0.12644 -0.13744 0.30615 0.030098 -0.00064712 0.30516 0.014972 0.23282 
0.095535 -0.12182 0.28971 0.020727 0.059693 0.95986 0.36797 0.24581 
0.067091 -0.09091 0.19188 0.011848 0.094548 1.107 0.53748 0.25518 
0.0689 -0.026624 0.048513 0.0592 0.074654 0.59996 0.34577 0.10787 
0.088794 0.028454 0.016945 0.038977 0.035524 0.013328 0.081395 0.0032988 
0.080738 0.026317 0.00017495 0.062652 0.052952 -0.40741 -0.16703 0.030427 
0.044896 0.042265 0.07038 0.080409 0.055254 -0.58399 -0.39031 0.42897 
-0.0022913 0.034209 0.13615 0.047691 0.032564 -0.65189 -0.4906 0.90462 
-0.067564 0.00017495 0.25354 -0.014951 -0.047998 -0.70549 -0.40593 0.99176 
0.024179 -0.055561 0.4117 -0.040271 -0.098638 -0.95211 -0.35282 0.29711 
0.26307 -0.1187 0.37487 -0.010183 -0.11113 -1.0828 -0.42368 -0.8385 
0.3974 -0.068386 0.16344 -0.023665 -0.061973 -0.72144 -0.303 -1.46 
0.24203 0.062981 -0.090417 0.013328 -0.05441 -0.3007 -0.17279 -0.8168 
0.060679 0.18284 -0.23905 0.052459 -0.033694 0.032564 -0.16736 0.21112 
-0.16062 0.30648 -0.33901 0.09981 0.02681 0.70387 -0.098638 0.46925 
-0.34444 0.35958 -0.46413 0.082382 0.14354 1.4917 0.099316 0.23233 
-0.30152 0.32489 -0.50474 0.071037 0.12053 1.4454 0.088958 0.14733 
-0.1358 0.27113 -0.4056 0.076956 0.058871 0.46596 -0.077428 0.32045 
-0.027118 0.27244 -0.28952 0.032564 0.012506 -0.51691 -0.21307 0.49934 
0.025824 0.4094 -0.23346 0.03536 0.0080668 -0.87845 -0.34197 0.34857 
0.11428 0.5143 -0.24743 0.051308 0.0042853 -0.80315 -0.45607 -0.133 
0.21737 0.35005 -0.13432 0.078272 0.00083261 -0.56393 -0.39425 -0.64597 
0.11247 0.12414 0.052787 0.067256 0.039305 -0.21373 -0.023994 -0.54749 
-0.0013048 -0.13201 0.31026 -0.009361 0.047033 0.014315 0.17281 0.06331 
0.14634 -0.29709 0.49128 -0.015609 0.01974 -0.07973 0.10162 0.26389 
0.44212 -0.43799 0.54636 -0.087786 -0.034845 -0.10357 -0.14418 -0.039778 
0.78509 -0.43832 0.54981 -0.1307 -0.061316 -0.053753 -0.24529 -0.28656 
0.78673 -0.50079 0.32555 -0.096007 -0.038298 -0.012485 -0.12692 -0.12938 
-0.0070593 -0.48797 -0.058521 0.024508 -0.006566 0.0064227 0.067091 0.18103 
-0.73919 -0.19597 -0.45262 0.10096 0.04358 0.026646 0.20898 0.42453 
-0.81203 0.27919 -0.59402 0.13384 0.074819 0.0324 0.17314 0.37981 
-0.42483 0.49144 -0.4444 0.147 0.073668 0.025824 0.007738 0.14881 
-0.08121 0.49095 -0.23658 0.12497 0.077121 0.075805 -0.017746 -0.072496 
0.089123 0.45692 -0.044546 0.064954 0.079094 0.12283 0.059528 -0.16539 
0.17758 0.37241 0.039141 0.032071 0.057062 0.16755 0.14667 -0.22261 
0.19336 0.21769 0.12299 0.02122 0.037168 0.12644 0.15275 -0.22836 
0.19829 0.08567 0.15834 -0.0088678 0.015959 -0.038791 0.10474 -0.21603 
0.16673 0.074819 0.13993 -0.018897 0.010204 -0.21356 0.050486 -0.16654 
0.1322 0.087808 0.20635 -0.0057439 0.014643 -0.21652 0.031249 -0.075784 
0.020891 0.066105 0.24285 0.0031344 0.01152 -0.095021 0.012506 0.019247 
-0.09387 0.022042 0.1904 0.0088889 0.025495 0.041936 -0.006566 0.12776 
-0.11376 -0.062138 0.14469 0.024508 0.015794 0.21276 -0.095678 0.16656 
-0.030899 -0.13448 0.11115 0.054596 0.030756 0.45396 -0.0503 0.081067 
0.081724 -0.11639 0.059857 0.053445 0.035853 0.29793 0.1179 -0.027282 
0.19862 -0.10176 -0.030899 0.065776 0.044896 -0.072003 0.29744 -0.10768 
0.28214 -0.081539 -0.039613 0.06183 0.058213 -0.20912 0.44919 -0.084334 
0.048184 -0.071181 0.0095465 0.040621 0.039141 -0.027118 0.47106 0.12727 
-0.15026 -0.11163 0.069886 -0.027611 0.033058 0.17725 0.26998 0.23841 
-0.097816 -0.16325 0.10491 -0.049971 0.035524 0.20323 -0.18676 0.17478 
0.00050378 -0.025309 0.093398 0.025001 0.059693 0.25239 -0.46298 -0.0044286 
0.19139 0.16377 0.15522 0.015794 0.047691 0.29152 -0.23165 -0.034352 
0.28757 0.12414 0.26932 0.0031344 0.025495 0.12661 0.22887 -0.026953 
0.12447 -0.11393 0.33903 0.0018191 0.033715 0.068078 0.49473 0.25814 
0.01415 -0.39935 0.30845 0.012013 0.041443 0.13516 0.5605 0.19747 
-0.025145 -0.39146 0.17001 0.012999 0.0227 0.078765 0.52482 0.038155 
-0.10193 0.06331 0.059528 0.042429 0.061172 0.045718 0.65849 -0.056055 
-0.12478 0.55129 -0.0039354 0.10606 0.082875 0.071859 0.54471 -0.16818 
-0.071509 0.6894 -0.1667 0.098988 0.089616 -0.038627 0.066269 -0.22409 
-0.011498 0.55836 -0.41744 0.092411 0.060186 -0.13958 -0.36581 -0.068714 
0.018096 0.3364 -0.58662 0.10244 0.068407 -0.10242 -0.35627 0.20454 
-0.0019624 0.20372 -0.56245 0.090767 0.054925 -0.17789 -0.060823 0.4168 
-0.078579 0.072024 -0.29445 0.01974 0.041443 -0.21965 0.16294 0.31864 
-0.15881 -0.032215 0.13582 -0.02942 0.0072447 -0.068221 0.21983 0.057391 
-0.070852 -0.19482 0.64188 -0.036325 -0.055397 0.14239 -0.0073881 -0.28163 
0.12283 -0.30465 1.0536 -0.070359 -0.028926 0.47106 -0.059343 -0.35858 
0.14305 -0.29199 1.1379 -0.046354 0.027961 0.69367 -0.00064712 -0.055068 
0.078272 -0.23444 0.80284 -0.019884 0.015465 0.62347 0.0088889 0.36748 
0.082053 -0.30152 0.32621 0.029769 0.004943 0.21917 -0.075455 0.53847 
0.17248 -0.267 -0.24201 0.028454 0.0039565 -0.1381 -0.05441 0.44574 
0.16097 -0.082032 -0.46281 0.042594 -0.0064016 -0.27505 0.079751 0.073832 
0.11313 0.19566 -0.37896 0.083533 0.02681 -0.12429 0.079258 -0.27259 
0.054596 0.3581 -0.28886 0.087972 0.03388 -0.019719 -0.082525 -0.4301 
-0.063453 0.39164 -0.22902 0.069393 0.038648 -0.055726 -0.26979 -0.25434 
-0.097322 0.32999 -0.22178 0.052787 0.041936 -0.034516 -0.35742 0.076792 
-0.033201 0.26373 -0.1644 0.062159 0.077449 0.060515 -0.16243 0.27869 
-0.021692 0.25419 -0.12725 0.016616 0.033715 0.077121 0.18613 0.16607 
-0.063782 0.29201 -0.16523 0.020562 0.018754 0.087643 0.47582 0.16837 
-0.071016 0.24828 -0.12116 0.056076 0.073997 0.12053 0.82225 0.33328 
-0.016431 0.13434 -0.022185 0.094877 0.10967 0.27458 0.95378 0.36287 
0.066434 0.017603 0.13187 0.06479 0.063145 0.13615 0.56181 0.072024 
0.10672 -0.021034 0.22296 0.0082312 -0.038791 -0.45854 -0.29199 -0.52414 
0.1636 -0.048327 0.23414 0.020891 -0.05441 -0.93485 -1.057 -0.88388 
0.081395 -0.20863 0.24482 0.0046141 -0.035996 -0.94915 -1.1749 0.030592 
0.015959 -0.46544 0.2634 0.0062583 -0.0059084 -0.68313 -0.73985 1.3392 
0.046375 -0.54551 0.3073 -0.0013048 -0.017088 -0.23494 -0.48517 1.3258 
-0.067399 -0.30843 0.23545 0.016452 0.015794 0.41927 -0.33063 0.12776 
-0.14977 0.11905 0.17626 -0.037311 0.017438 1.0085 0.13878 -1.5151 
0.03947 0.25337 0.14223 -0.052931 0.024179 0.95855 0.69071 -2.0029 
0.040292 0.36008 -0.016102 0.0047785 0.042923 0.94901 1.3184 -0.67145 
-0.091239 0.38112 -0.11639 0.023028 0.044731 0.85069 1.3679 0.75319 
0.013164 0.21474 -0.14451 0.038483 0.028783 0.34775 0.52515 0.68644 
0.25748 0.147 -0.1769 0.054267 0.080902 -0.30037 -0.35956 -0.061645 
0.5485 -0.025309 -0.13695 0.12151 0.086821 -0.37683 -0.54749 -0.45607 
0.64632 -0.26996 -0.077428 0.10507 0.067749 -0.035503 -0.16391 -0.19285 
0.37948 -0.32208 -0.045039 0.050814 0.076956 -0.093212 -0.037147 0.068736 
-0.07414 -0.11212 -0.14237 0.032893 0.086657 -0.26108 -0.084991 0.24334 
-0.36926 0.089945 -0.23379 0.0059294 0.041278 -0.018733 0.056076 0.33689 
-0.44588 0.19714 -0.29002 0.018096 0.066269 0.4288 0.17248 0.43653 
-0.26075 0.18794 -0.30383 0.027632 0.023193 0.25189 -0.039778 0.34561 
0.091425 0.14387 -0.26568 0.04358 -0.022843 -0.2254 -0.35759 0.19928 
0.21704 0.11263 -0.15224 0.0054362 -0.046354 -0.31566 -0.44555 0.16245 
0.040785 0.1539 0.016781 0.011191 -0.01939 0.045882 -0.14155 0.23118 
-0.2083 0.21342 0.12168 0.047691 0.01004 0.08978 0.078436 0.25074 
-0.14352 0.17626 0.25913 0.027796 0.0064227 -0.12198 0.17955 0.31601 
0.11247 0.14601 0.23874 -0.043888 0.01563 -0.17854 0.17199 0.08715 
0.19402 0.13351 0.18152 -0.060329 -0.013143 -0.14911 0.010862 -0.42056 
0.15045 0.10589 0.033058 -0.0042642 0.045718 -0.04323 -0.12182 -0.77092 
0.046211 0.058706 -0.11968 0.053609 0.094384 0.13631 -0.15405 -0.69316 
-0.0087034 0.031578 -0.13481 0.090109 0.09981 0.21506 -0.0044286 -0.36186 
0.048841 -0.064604 -0.008539 0.09685 0.064132 0.17692 0.091589 -0.11787 
0.08978 -0.12001 0.0689 0.030098 0.01826 0.01267 -0.029584 0.0051074 
0.086163 -0.023336 -0.043395 -0.0091966 0.0024767 -0.17706 -0.084005 0.044402 
0.092904 0.098823 -0.18907 -0.010183 0.011355 -0.11738 0.13746 0.097344 
0.069558 0.087972 -0.10225 0.048513 0.056404 0.10754 0.41121 0.14552 
0.093233 -0.012485 0.075476 0.017603 0.053445 0.33246 0.45166 0.20964 
0.021056 -0.026624 0.1733 0.0070803 0.029769 0.32982 0.2103 0.4579 
-0.040928 0.048184 0.14782 -0.02498 0.020069 0.25288 -0.089102 0.50114 
-0.068714 0.1345 0.036182 0.014643 -0.0039354 0.12184 -0.21685 0.31766 
-0.1644 0.19879 0.10047 0.0019835 -0.0096899 -0.14747 -0.27094 0.086163 
-0.27242 0.14289 0.31782 0.015465 -0.00015387 -0.28278 -0.27555 -0.07973 
-0.37518 0.0088889 0.50164 0.052294 0.049006 -0.051451 -0.072332 0.024673 
-0.35151 -0.10324 0.49276 0.044731 0.050321 0.15259 0.031578 0.088465 
-0.090088 -0.12494 0.16327 0.019905 -0.023007 0.044073 -0.15322 -0.027118 
0.49128 -0.12083 -0.18759 -0.012814 -0.051287 -0.15799 -0.43223 -0.4199 
1.0996 -0.091404 -0.25121 -0.012649 -0.032708 -0.25006 -0.4638 -0.76895 
1.1374 -0.0026201 -0.070194 1.0539e-005 0.01004 -0.38011 -0.19416 -0.64696 
0.24893 0.076627 0.037826 0.042594 0.045882 -0.42566 0.1881 0.011355 
-0.63413 0.13023 0.0051074 0.069558 0.071366 -0.19449 0.56839 0.73642 
-0.84113 0.11296 -0.03501 0.053445 0.068242 0.026152 0.57053 1.1351 
-0.48583 0.029276 -0.075291 0.034209 0.043909 -0.0057439 0.14354 0.92764 
-0.059178 -0.1039 -0.054739 0.056569 0.018425 -0.10867 -0.36334 0.43653 
0.2098 -0.18019 0.095535 0.082875 0.019576 -0.15865 -0.68099 -0.11574 
0.3295 -0.14007 0.26948 0.019905 1.0539e-005 -0.2448 -0.52858 -0.32717 
0.24663 0.030263 0.31289 0.011026 -0.010841 -0.33112 -0.17723 0.097837 
-0.008539 0.12349 0.49046 -0.0067304 -0.05326 -0.30366 -0.071509 0.62215 
-0.26831 0.15653 0.64632 0.0056006 -0.044052 -0.1307 -0.2836 0.29398 
-0.48386 0.17265 0.35843 0.016288 -0.021692 -0.073976 -0.43651 -0.50852 
-0.37387 0.19764 -0.12741 0.032893 -0.0138 -0.19597 -0.4809 -0.60125 
-0.017417 0.159 -0.43075 0.074819 -0.016431 -0.28327 -0.40938 -0.16835 
0.30171 0.030592 -0.37699 0.035195 -0.0024557 -0.11228 0.073175 -0.082854 
0.35761 -0.045696 -0.18528 0.018754 0.07038 0.05772 0.55639 -0.21077 
0.30253 -0.050136 -0.038133 0.035524 0.11773 0.17149 0.828 -0.23083 
0.34512 -0.062302 0.1659 0.043909 0.10063 -0.068714 0.64895 -0.060494 
0.37685 -0.26453 0.39247 0.018425 0.067913 -0.045368 0.45018 0.039634 
0.24219 -0.31484 0.34117 0.044238 0.078272 0.20208 0.42601 0.18876 
0.06479 -0.35825 0.1881 0.085835 0.048513 0.20569 0.36896 0.29612 
-0.11935 -0.13037 -0.060658 0.073339 0.024673 0.13845 0.23249 0.28494 
-0.19334 0.24022 -0.20074 0.00066819 -0.057041 0.015959 -0.11146 0.038483 
-0.089759 0.48405 -0.17213 -0.017088 -0.036489 -0.060329 -0.3224 -0.17986 
-0.020048 0.4242 -0.0503 -0.021199 -0.0027845 -0.072825 -0.15158 -0.16111 
-0.12659 0.24466 0.018096 0.011848 0.070215 -0.10258 0.013986 0.094713 
-0.24924 0.10491 -0.02942 0.1031 0.082053 -0.18742 0.015137 0.20832 
-0.077264 0.058049 0.052952 0.12118 0.055254 -0.29955 -0.050629 0.1761 
0.37257 -0.060494 0.1419 0.068571 0.026646 -0.087129 -0.10209 0.12842 
0.69022 -0.14615 0.06183 0.0062583 0.040785 0.30434 -0.06148 -0.070852 
0.49112 -0.096336 -0.10045 -0.0016336 0.022042 0.78377 0.12233 -0.12544 
0.072024 0.007738 -0.29511 0.033058 0.020233 0.89393 0.18152 -0.11639 
-0.21504 0.10343 -0.32306 0.028947 0.021056 0.49227 0.16048 -0.025309 
-0.47136 0.23151 -0.3206 0.043251 0.060844 0.1853 0.31059 0.25436 
-0.61769 0.31815 -0.23724 0.097508 0.097508 0.28182 0.72343 0.54817 
-0.47712 0.32374 -0.051615 0.088958 0.074654 0.34692 0.90412 0.51972 
-0.22392 0.29119 0.069558 0.051965 0.03947 0.11526 0.66852 0.18087 
0.057884 0.18942 0.18333 0.036182 0.037661 -0.099624 0.19698 -0.33375 
0.32966 0.0088889 0.17758 0.053774 0.063968 -0.13908 -0.21143 -0.73722 
0.4214 -0.0040998 -0.070523 0.037661 0.056733 -0.053753 -0.66027 -0.88848 
0.31486 0.11263 -0.26371 0.060679 0.062488 -0.097487 -0.89358 -0.45525 
0.16114 0.16623 -0.36137 0.10145 0.055582 -0.30514 -0.52841 0.21901 
0.051143 0.14239 -0.21044 0.048019 0.038155 -0.34871 -0.11294 0.7578 
-0.057699 0.05065 0.014972 -0.044217 -0.038133 -0.22491 0.15407 0.98206 
-0.051451 -0.003771 0.13631 -0.071345 -0.073318 -0.067564 0.16788 0.66835 
0.017438 -0.025802 0.081889 -0.028926 -0.051287 0.11921 0.19649 0.032236 
0.10211 -0.0057439 0.046046 -0.043559 0.046868 0.86647 0.71899 -0.83768 
0.11691 -0.10998 0.09422 -0.02942 0.11691 1.4334 1.1223 -1.0489 
0.080409 -0.24661 0.22707 0.01267 0.1396 1.032 1.1057 -0.27884 
-0.11903 -0.18002 0.40694 0.03799 0.14091 0.52778 1.0218 0.53978 
-0.21291 0.11691 0.46103 0.042265 0.10376 0.11017 0.37652 0.71998 
-0.10209 0.32111 0.31519 0.066763 0.036346 -0.218 -0.62739 0.1419 
0.14091 0.1835 0.28445 0.058706 -0.025145 -0.26404 -1.0272 -0.50622 
0.28543 -0.21389 0.47221 -0.021034 -0.0057439 -0.06 -0.68296 -0.33786 
0.19122 -0.34789 0.36468 0.0067515 0.070544 0.4579 -0.019061 0.24828 
-0.068386 -0.031228 -0.12905 0.048513 0.11378 0.64517 0.29332 0.42749 
-0.206 0.48996 -0.50359 0.047691 0.052952 0.30483 0.29974 0.21079 
-0.05326 0.69466 -0.5853 0.011191 0.054267 -0.034188 0.27014 -0.021692 
0.10343 0.30105 -0.45476 -0.014458 0.0324 -0.3012 0.087643 -0.17164 
0.19862 -0.056712 -0.23938 -0.030735 0.011026 -0.41415 -0.14056 0.013164 
0.098494 -0.040435 -0.063453 -0.017582 0.01267 -0.38653 -0.3007 0.34676 
-0.061151 0.097508 0.077778 0.020891 0.0023123 -0.24497 -0.32027 0.22887 
-0.12264 0.10277 0.15341 0.040621 -0.0040998 -0.14254 -0.38159 -0.26815 
-0.049807 0.053938 0.19698 0.084355 -0.0024557 -0.12281 -0.4398 -0.42483 
0.13269 -0.042079 0.25863 0.036346 -0.026296 -0.091732 -0.36038 -0.075949 
0.23101 -0.11903 0.26932 -0.0039354 -0.040928 -0.024816 -0.19383 0.46333 
0.17511 -0.18627 0.2754 -0.0055795 -0.045368 0.024015 0.01826 0.29102 
0.16064 -0.11228 0.18481 -0.023829 -0.0098543 -0.030735 0.10556 -0.36565 
0.053116 -0.048163 0.081395 -0.0072237 0.024837 -0.098144 0.037168 -0.65978 
0.03092 0.016945 0.020069 0.018754 0.036017 -0.26305 -0.039449 -0.668 
-0.065591 0.097508 -0.06444 0.093398 0.042265 -0.4781 -0.12609 -0.18742 
-0.10554 0.15308 -0.068057 0.098494 0.059364 -0.57166 -0.29824 0.34133 
0.10491 0.13499 0.11198 0.069229 0.035524 -0.54486 -0.63002 0.25535 
0.19813 0.074326 0.23298 0.042923 -0.017746 -0.36367 -0.77816 -0.08384 
0.11724 0.013492 0.22444 0.00050378 -0.065097 -0.076442 -0.48715 -0.12429 
0.13549 -0.027282 0.15949 -0.059672 -0.076277 0.22674 0.03092 0.069229 
0.20849 -0.10061 0.16969 -0.057534 -0.042244 0.65191 0.70288 0.39756 
0.076463 -0.033859 0.13746 -0.0057439 0.007738 0.90626 1.1146 0.91629 
0.042923 0.041443 0.072188 -0.003771 0.028619 0.67115 0.82997 0.78081 
0.069722 0.01152 0.04506 0.042923 0.13713 0.51594 0.41187 0.11444 
0.12151 0.0044497 -0.094692 0.12135 0.19747 0.27228 0.33032 -0.48369 
0.075476 0.13187 -0.20732 0.14667 0.12036 -0.22228 0.36369 -0.31254 
-0.20057 0.25896 -0.25138 0.099316 0.088136 -0.43223 0.48076 0.23364 
-0.30103 0.19073 -0.17723 0.076134 0.073832 -0.4587 0.30089 0.39707 
-0.052109 0.021056 -0.058521 0.070708 0.03388 -0.449 -0.21734 -0.14007 
0.24532 -0.11672 0.0037921 0.011848 -0.03205 -0.53006 -0.77421 -1.2038 
0.33755 -0.16605 0.064296 0.023851 -0.06296 -0.4906 -0.99288 -1.1714 
0.17939 -0.16901 0.039634 0.029605 -0.041915 -0.34608 -0.77487 -0.13974 
-0.0078813 -0.10867 0.0227 0.065776 -0.0059084 -0.16572 -0.42615 0.62709 
-0.19877 0.018918 0.0092177 0.044402 0.016781 0.037826 -0.18134 0.67921 
-0.35611 0.1955 0.069064 0.01152 -0.029748 -0.060987 -0.19975 0.43867 
-0.35726 0.31092 0.098988 0.02122 -0.058521 -0.25467 -0.21537 0.26291 
-0.11278 0.29316 -0.01232 0.012999 -0.038298 -0.42582 -0.081868 0.24088 
0.18876 0.12694 -0.095514 0.020233 -0.020706 -0.46166 0.091425 0.28708 
0.20092 -0.008539 -0.11459 0.02829 -0.0082102 -0.23198 0.22312 0.22509 
-0.1404 -0.051615 -0.080552 0.053938 0.064296 0.19369 0.32276 0.19862 
-0.36038 -0.032215 0.0016547 0.020398 0.094384 0.52663 0.34183 0.24055 
-0.25943 0.013328 0.028783 0.039634 0.097344 0.53255 0.28428 0.1641 
0.03388 0.027632 0.028783 0.057227 0.079587 0.4921 0.2006 -0.048327 
0.35564 0.048184 0.084026 0.039141 0.067256 0.49539 0.26916 -0.34871 
0.60933 0.027632 0.1932 0.0092177 0.041772 0.28034 0.27392 -0.36219 
0.60621 -0.028269 0.25419 -0.014129 0.011191 0.0044497 0.17741 -0.065919 
0.21835 -0.025145 0.15538 0.0087245 0.0036276 -0.030406 0.12201 0.31042 
-0.16309 -0.025967 -0.0014692 -0.0026201 0.016781 0.23874 0.11642 0.40463 
-0.26634 0.012013 -0.12429 0.0087245 0.045389 0.34692 0.12875 0.25304 
-0.18972 0.040292 -0.099953 0.078765 0.052623 -0.0062372 0.02681 0.0227 
-0.10094 0.022864 0.0013258 0.10014 0.034866 -0.32273 -0.02235 -0.060494 
-0.08828 0.013164 0.061172 0.098988 0.044896 -0.41513 0.037004 -0.098473 
-0.071509 0.043251 0.034373 0.056076 0.020562 -0.40675 -0.1136 -0.10143 
-0.034352 0.096028 -0.029584 0.0083956 -0.011663 -0.35331 -0.36565 -0.048327 
0.015137 0.054267 0.0046141 -0.052766 -0.06855 -0.41431 -0.58645 0.10376 
0.064954 -0.088773 0.091096 -0.075949 -0.053753 -0.34822 -0.40642 0.16574 
0.042758 -0.19778 0.12825 -0.059672 0.0042853 0.099974 -0.021363 0.10639 
-0.017582 -0.15355 0.12529 0.0070803 0.11066 0.70222 0.47007 0.080573 
-0.077757 0.075312 1.0539e-005 0.013164 0.1544 1.0518 0.83375 0.077943 
-0.073482 0.19237 -0.053917 0.018425 0.062488 0.69022 0.64534 -0.056219 
-0.029255 0.16788 -0.074304 0.049499 0.050979 0.42058 0.51528 -0.086142 
0.046046 0.19451 -0.0138 0.03799 0.058706 0.53173 0.47007 -0.049478 
0.12875 0.1664 0.11231 0.029112 0.072353 0.70946 0.43669 0.059035 
0.16985 0.11214 0.13828 0.029769 0.035524 0.53962 0.37915 0.097179 
0.19994 0.038812 0.098823 0.038812 0.016781 -0.12905 0.086163 0.078272 
0.16821 -0.037147 0.064296 0.027961 -0.004593 -0.7535 -0.51707 0.13187 
0.1003 -0.046847 0.037332 -0.00015387 -0.028269 -1.0424 -1.0221 0.22493 
-0.046354 0.094384 0.068736 -0.023829 -0.060329 -1.094 -1.1188 0.25403 
-0.087786 0.23858 0.11576 -0.034516 -0.048163 -0.83455 -0.89325 0.07301 
0.025824 0.20438 0.041443 0.022206 0.034866 -0.17098 -0.27489 -0.076113 
0.15637 0.013657 -0.042244 0.03536 0.080738 0.48585 0.33541 -0.1205 
0.17577 -0.11853 -0.075291 0.072681 0.047691 0.66572 0.34643 -0.28393 
0.15851 -0.064604 -0.09798 0.069229 0.022206 0.743 0.40578 -0.5488 
0.08715 0.021713 -0.12149 0.054267 0.027796 0.75993 0.80169 -0.51839 
-0.060494 0.059035 -0.013636 0.030263 0.02122 0.41943 0.91152 -0.10406 
-0.071509 0.033715 0.15719 -0.048492 -0.0138 -0.066577 0.15686 -0.0027845 
0.041607 0.15407 0.19764 -0.079566 -0.050958 -0.32471 -0.71716 0.23397 
0.023686 0.32539 0.085341 -0.05589 -0.032872 -0.21356 -0.75925 0.73412 
-0.11343 0.30894 0.044402 -0.013965 0.046046 0.2417 0.08008 0.83145 
-0.078086 -0.064604 0.093726 0.045553 0.10754 0.45363 0.9084 0.13549 
0.075641 -0.33243 0.013164 0.12464 0.16294 0.3535 0.94687 -0.68 
0.2754 -0.26897 -0.17542 0.14387 0.0786 0.10869 0.40989 -0.63824 
0.25354 0.072353 -0.4176 0.095371 0.10589 -0.12905 -0.089102 -0.047834 
-0.021856 0.32966 -0.62739 0.014479 0.031578 -0.33704 -0.42286 0.29234 
-0.1307 0.38819 -0.56344 -0.021199 -0.017253 -0.22047 -0.4176 0.20208 
-0.13136 0.28395 -0.23017 0.01152 0.05624 0.075476 -0.084827 -0.13284 
-0.04323 0.15818 0.12003 0.022206 0.065776 0.2583 0.29596 -0.32997 
-0.016595 0.066598 0.36205 0.070051 0.034044 0.3124 0.52235 -0.10965 
-0.0021268 -0.15996 0.71817 0.016781 0.0041209 0.24022 0.36994 0.1054 
0.042923 -0.43832 1.1974 -0.0062372 -0.044052 0.10967 0.057884 0.21013 
0.1567 -0.58925 1.3344 -0.059014 -0.067399 -0.074798 -0.28985 0.31733 
0.19829 -0.37666 0.90725 -0.027118 -0.023994 -0.20238 -0.50063 0.40841 
0.16278 0.069064 0.14617 0.051636 0.029112 -0.11886 -0.39672 0.10622 
0.10622 0.2486 -0.40231 0.06035 0.041772 -0.0072237 -0.23559 -0.2887 
-0.045203 0.12875 -0.61901 0.081067 0.047362 0.0031344 -0.096994 -0.46035 
-0.15372 0.18613 -0.53302 0.089452 0.037661 -0.020706 0.055582 -0.29445 
-0.18068 0.38671 -0.2938 0.085835 0.016123 -0.06855 0.14305 -0.034352 
-0.10078 0.41351 -0.098802 0.0065871 0.0016547 -0.068714 0.13121 0.11773 
0.022371 0.22707 -0.024652 0.0014903 0.0065871 -0.083512 0.11872 0.11165 
0.0092177 0.077943 -0.12642 0.05476 0.022864 -0.066577 0.14223 0.11674 
-0.1552 0.06594 -0.20847 0.075476 0.069722 -0.07973 0.10047 0.18942 
-0.34707 0.14946 -0.15372 0.075805 0.058377 -0.13152 -0.059836 0.33903 
-0.34805 0.15209 -0.10604 0.08567 0.039963 -0.23691 -0.18528 0.34002 
-0.070852 0.12727 -0.0095255 0.10737 0.028619 -0.29741 -0.25253 0.1026 
0.61804 0.017274 0.083862 0.056076 0.018589 -0.31353 -0.27818 -0.5488 
1.2042 -0.049478 0.14305 0.029276 -0.032543 -0.18907 -0.25056 -0.86875 
0.91415 -0.026624 0.14601 0.03651 -0.00064712 0.035031 -0.1136 -0.30859 
0.025495 -0.0013048 0.14552 0.01711 0.031907 0.34479 0.093891 0.33887 
-0.43388 -0.051122 0.23233 0.035853 0.038319 0.45609 0.20602 0.44459 
-0.34526 -0.18923 0.40299 -0.011498 0.013492 0.28461 0.12727 0.071531 
-0.17871 -0.34509 0.50065 -0.015116 0.0092177 0.03536 -0.021363 -0.12955 
-0.16177 -0.37946 0.3946 -0.039778 0.010862 -0.077264 -0.028597 0.087808 
-0.12626 -0.23576 0.20454 0.022206 0.0054362 -0.25335 -0.060494 0.3974 
-0.018897 -0.022021 0.14585 0.092247 0.01974 -0.4689 -0.19548 0.35728 
-0.020541 0.14667 0.11757 0.096028 0.0031344 -0.77339 -0.24875 0.088301 
-0.17641 0.26389 -0.059672 0.10392 0.004943 -0.98088 -0.31501 0.077121 
-0.16539 0.27623 -0.26042 0.091425 -0.0036066 -0.95721 -0.48468 0.16015 
0.16574 0.15933 -0.3035 0.088958 -0.021528 -0.81104 -0.4952 -0.051451 
0.28626 0.12003 -0.23592 -0.015444 -0.047176 -0.32882 -0.20271 -0.56442 
0.42831 0.15061 -0.1792 -0.054082 -0.035503 0.64797 0.17544 -0.91232 
0.68743 0.25321 -0.20057 -0.020212 0.058049 1.7098 0.84329 -0.20732 
0.92731 0.33772 -0.25697 0.048348 0.15423 1.7752 1.3577 0.86779 
0.58796 0.32276 -0.1233 0.077121 0.19484 1.3094 1.1373 1.2652 
-0.13316 0.21128 -0.032379 0.10195 0.1664 0.83704 0.5217 0.80794 
-1.094 0.26751 -0.074962 0.095699 0.082875 0.2583 -0.064275 -0.1667 
-1.5376 0.27935 -0.040435 0.019411 -0.023501 -0.72538 -0.63232 -0.91298 
-1.1343 0.08008 0.1008 -0.027118 -0.099624 -1.3293 -0.84672 -0.52677 
0.049006 -0.35595 0.30319 -0.070359 -0.096336 -1.2132 -0.74939 0.46448 
1.0971 -0.59073 0.28626 -0.04619 -0.042408 -0.59747 -0.44029 0.74744 
1.1363 -0.56261 0.086163 -0.03057 0.015465 0.14289 -0.036983 0.22312 
0.28757 -0.20485 -0.12445 0.047197 0.065283 0.66211 0.33788 -0.31402 
-0.46808 0.16064 -0.19564 0.093726 0.096193 0.84329 0.6894 -0.37387 
-0.55505 0.22805 -0.1011 0.066598 0.10836 0.69499 0.76223 -0.13727 
-0.19581 0.14305 -0.10406 0.023686 0.084848 0.27803 0.49046 0.036839 
0.34873 0.09274 -0.18808 0.0054362 0.042923 -0.0406 0.1562 0.007738 
0.69384 0.092904 -0.23017 0.022535 -0.021856 -0.24102 -0.10341 -0.02794 
0.49638 0.21079 -0.30054 0.0082312 -0.010019 -0.32109 -0.1552 0.11444 
0.027139 0.29316 -0.22918 0.026481 0.020727 -0.24332 -0.043559 0.23907 
-0.3474 0.21835 -0.11672 0.047526 0.054432 -0.026131 0.067585 0.30171 
-0.4689 0.14026 0.0023123 0.06035 0.062981 0.16064 0.20503 0.35054 
-0.36055 0.028947 0.18202 0.046375 0.054925 0.23331 0.26554 0.30598 
-0.18413 -0.071345 0.43998 0.021549 0.055911 0.33805 0.25222 0.23742 
-0.093048 -0.11031 0.75747 0.0088889 0.041607 0.41992 0.17577 0.12085 
0.013328 -0.11031 0.84017 -0.0054151 0.0011614 0.099481 -0.1307 -0.058685 
0.16558 -0.1552 0.71127 0.010369 -0.017417 -0.32569 -0.66307 -0.2739 
0.27557 -0.10965 0.32276 0.024673 0.01563 -0.2961 -0.97924 -0.37765 
0.25863 0.067585 -0.19498 -0.013307 0.040128 0.027796 -0.72144 -0.35085 
0.14354 0.4265 -0.62756 -0.023172 0.017603 0.0592 -0.35299 -0.29824 
-0.034516 0.55984 -0.74149 0.019905 0.022042 0.056733 0.10343 -0.024323 
-0.194 0.12562 -0.49619 0.042429 0.043087 0.37701 0.73807 0.36254 
-0.16769 -0.3377 -0.12988 -0.02942 0.057884 0.6113 1.1647 0.56987 
-0.10998 -0.34904 0.057062 -0.025638 0.035853 0.47961 1.2708 0.47237 
0.089287 -0.21027 0.13138 0.017603 -0.0068948 0.17511 0.87354 -0.26864 
0.41499 -0.09946 0.10392 0.029605 -0.025802 0.10704 0.36221 -0.53318 
0.5212 0.10639 0.029441 0.0037921 0.05065 0.38392 0.33426 0.16245 
0.11378 0.26011 -0.0032777 0.015137 0.11099 0.54685 0.54406 1.243 
-0.3326 0.29596 0.044238 0.07038 0.087314 0.42107 0.4071 1.1905 
-0.37683 0.23282 0.11592 0.048348 0.084355 0.18728 -0.19975 -0.13333 
-0.11278 0.097837 0.16903 0.046868 0.089452 0.040456 -0.73804 -1.2273 
-0.0004827 -0.011827 0.25683 0.04506 0.05065 -0.25138 -0.99979 -1.2688 
-0.028926 -0.060823 0.27195 0.042265 -0.031228 -0.7267 -0.80216 -0.63413 
0.054925 -0.14632 0.28856 -0.0083746 -0.072496 -1.0348 -0.29561 0.06742 
0.18235 -0.23461 0.38869 0.012835 -0.060823 -0.88174 0.03947 0.29678 
0.26373 -0.21948 0.33657 0.031907 0.0090533 -0.37091 -0.12938 0.20799 
0.20273 -0.32027 0.23068 -0.016102 0.0042853 -0.064933 -0.36992 -0.018404 
0.15801 -0.33556 0.043745 -0.025802 -0.009361 0.04654 -0.32602 -0.13547 
0.11642 0.020233 0.048513 -0.0021268 0.03947 0.096357 -0.076113 -0.06855 
0.0087245 0.51002 0.032729 0.097508 0.048348 0.13647 0.24384 0.25584 
-0.012485 0.77276 -0.18857 0.10918 0.028783 0.18925 0.44607 0.4025 
0.10178 0.54619 -0.30843 0.090109 0.025166 0.17889 0.30303 0.13088 
0.17445 0.10392 -0.29495 0.094548 0.018589 0.038155 0.0088889 -0.15405 
0.16919 -0.1552 -0.22606 0.037661 0.030263 -0.11311 -0.15832 -0.17427 
0.061995 -0.12396 -0.16424 -0.0013048 0.028783 -0.24677 -0.11508 -0.095021 
-0.13727 -0.017088 -0.10834 -0.026953 -0.013636 -0.28327 -0.089266 0.05065 
-0.303 0.052459 0.021056 -0.015938 -0.050958 -0.16999 -0.059672 0.19385 
-0.28295 0.055254 0.10178 -0.019884 -0.048985 -0.0042642 0.16114 0.22592 
0.049664 -0.001798 0.14058 -0.011498 -0.015444 0.11017 0.34084 -0.088937 
0.66211 -0.077922 0.13631 0.045224 -0.003771 0.14009 0.21079 -0.55045 
0.8673 -0.11311 0.11674 0.063639 0.026317 -0.056877 -0.063453 -0.38258 
0.37964 -0.052437 0.10655 0.081724 0.053116 -0.35315 -0.47432 0.14437 
-0.15552 0.02122 0.073339 0.081395 0.018918 -0.86809 -0.63709 0.56083 
-0.36959 0.13532 0.030756 0.091589 -0.0062372 -1.0136 -0.46742 0.45823 
-0.37008 0.20125 -0.085485 0.078929 0.045553 -0.5368 -0.10143 0.10244 
-0.28031 0.21885 -0.17427 0.10474 0.052952 0.094055 0.10524 -0.15881 
-0.11689 0.20224 -0.11607 0.093891 0.058049 0.74546 0.21786 0.033058 
0.03536 0.16508 -0.07003 0.045718 0.12299 1.2831 0.54587 0.32867 
0.30977 0.074326 -0.061316 0.0087245 0.17232 1.3964 0.77703 0.36106 
0.48602 -0.057041 -0.0050863 -0.0067304 0.13302 1.3235 0.90807 -0.024816 
0.35843 -0.16111 0.092411 0.023522 0.090603 1.0613 0.69663 -0.51181 
-0.050793 -0.17986 0.18235 0.034209 0.064296 0.29398 0.13154 -0.56048 
-0.46117 -0.10883 0.20208 0.056733 0.01152 -0.46068 -0.23691 0.0786 
-0.45574 0.088136 0.086985 0.08156 -0.012156 -0.84886 -0.4153 0.47369 
-0.24645 0.29234 -0.11574 0.11757 0.01267 -0.84129 -0.52447 0.35646 
-0.040106 0.36567 -0.14533 0.10573 0.0095465 -0.70121 -0.61835 -0.11146 
0.099152 0.25962 -0.077757 0.06479 -0.030899 -0.51477 -0.60668 -0.43453 
0.17577 0.098166 -0.0050863 0.049335 -0.03764 -0.33835 -0.44506 -0.3201 
0.18728 -0.057205 0.072681 -0.0013048 -0.01117 -0.16753 -0.2014 0.021713 
0.17511 -0.046025 0.18991 -0.024652 -0.0022913 -0.031721 0.014972 0.19698 
0.20388 -0.069208 0.30105 -0.033694 -0.033694 0.0032988 0.1368 0.19139 
0.18843 -0.0073881 0.21737 -0.033201 0.014315 0.061501 0.1835 0.2126 
0.10918 -0.032379 0.032729 -0.020048 0.036017 0.18925 0.18563 0.31092 
0.016945 -0.048163 -0.099624 0.00033937 0.04095 0.2611 0.22411 0.23742 
-0.038791 0.089287 -0.13021 0.048513 0.059857 0.31651 0.22082 0.085341 
-0.018075 0.080244 -0.11837 0.034209 0.047362 0.29152 0.2126 0.04095 
0.084519 -0.091239 0.058871 0.0024767 0.038319 0.21917 0.21934 -0.016595 
0.18218 -0.26897 0.14256 -0.01939 0.009711 0.058377 0.18317 -0.030899 
0.14683 -0.20847 0.063803 0.041443 0.013657 -0.10242 0.11329 0.02829 
-0.24595 0.1054 -0.018239 0.060022 0.0075736 -0.031557 0.030427 0.11543 
-0.52891 0.33821 0.031742 0.052787 0.061501 0.09833 -0.034352 0.29957 
-0.4957 0.3489 0.090603 0.061501 0.080738 0.37898 -0.035667 0.56165 
-0.28097 0.27754 0.18383 0.07597 0.095206 0.55096 0.0028056 0.34068 
0.038319 0.09981 0.25123 0.042758 0.064461 0.63268 0.0044497 -0.23461 
0.30516 -0.133 0.24795 -0.012814 0.057555 0.58648 -0.10932 -0.67376 
0.44623 -0.28147 0.15209 -0.011334 0.015465 0.22378 -0.22113 -0.64285 
0.36632 -0.25401 -0.022185 -0.048163 -0.010676 -0.15635 -0.13399 -0.30662 
0.095699 -0.11919 -0.12445 -0.026131 0.004943 -0.32043 0.20865 0.32687 
-0.11935 0.028619 -0.17394 0.029769 0.010862 -0.44308 0.49966 0.89673 
-0.17016 0.097837 -0.16769 0.035853 -0.017746 -0.61177 0.48832 0.99603 
-0.23444 0.12973 -0.084005 0.014479 -0.046847 -0.89292 0.17511 0.57727 
-0.11376 0.11855 -0.027611 0.010533 -0.094363 -0.9794 -0.20551 -0.61786 
0.093233 0.20569 -0.01676 0.069722 -0.017582 -0.67063 -0.42089 -1.4356 
0.088465 0.36797 -0.078086 0.040456 0.04506 -0.26996 -0.52348 -0.68132 
0.067585 0.29793 -0.042901 0.038812 0.08978 0.16163 -0.70861 0.11642 
0.22871 -0.046847 0.17462 0.019576 0.037332 0.71143 -0.77388 0.14535 
0.25304 -0.28475 0.47632 0.024179 0.048348 1.5735 -0.1039 -0.10752 
-0.019884 -0.16144 0.49375 0.057227 0.094877 1.6226 0.86483 0.00050378 
-0.12955 -0.022679 0.25074 0.080738 0.10869 0.80696 1.0574 0.23282 
-0.11327 -0.093048 0.22033 0.01974 0.049992 0.183 0.7698 0.402 
-0.036654 -0.22655 0.34988 -0.08384 0.017603 0.13006 0.84313 0.42502 
0.048513 -0.11804 0.25469 -0.10916 0.010369 -0.23559 0.88423 0.25469 
0.056569 0.098988 0.076792 -0.089266 -0.0055795 -0.69973 0.36731 -0.01939 
-0.010183 0.18514 -0.050958 0.00050378 -0.0021268 -0.90689 -0.6338 -0.23066 
-0.12281 0.16196 -0.16144 0.076792 -0.010841 -0.84212 -1.322 -0.19449 
-0.1358 0.17265 -0.17575 0.095535 -0.010841 -0.59944 -1.2717 0.20388 
-0.046847 0.15686 -0.17427 0.12201 -0.014787 -0.54551 -0.86069 0.55277 
-0.023007 0.13812 -0.17147 0.068736 -0.029584 -0.50342 -0.27604 0.41253 
-0.10341 0.11822 -0.19548 0.078107 -0.014293 -0.20485 0.22115 -0.0026201 
-0.0070593 0.15735 -0.16457 0.069722 0.048019 0.24153 0.71521 -0.24842 
0.29004 0.14716 -0.15569 0.08156 0.087479 0.7305 1.2103 -0.2642 
0.57184 0.11822 -0.057863 0.0016547 0.12776 1.061 1.2749 -0.11459 
0.52153 0.086821 0.014808 -0.023336 0.080573 0.93503 0.73165 -0.033859 
0.27475 0.080409 0.026974 -0.014622 0.004943 0.50197 0.066598 -0.28475 
-0.062467 0.017603 0.087808 -0.023665 -0.036818 0.046704 -0.27571 -0.41365 
-0.30679 0.073832 0.063474 0.05476 0.032236 -0.10406 -0.33671 -0.16111 
-0.40708 0.087972 0.067749 0.069064 0.055911 0.01563 -0.39195 0.22509 
-0.41661 0.14124 0.037826 0.11296 0.056733 0.026974 -0.3229 0.39559 
-0.38472 0.14141 0.032729 0.038155 0.053609 -0.052766 -0.10193 0.28593 
-0.17969 0.14864 0.15374 0.035195 0.04917 -0.29396 0.15735 0.071695 
0.2662 0.15999 0.27442 0.048184 0.025824 -0.42155 0.20092 -0.091239 
0.81189 0.15785 0.34413 0.031085 0.0065871 -0.32257 0.11872 -0.092554 
0.6672 0.10704 0.17133 0.062652 0.047691 -0.035174 0.15653 0.21013 
0.093891 0.075805 -0.025967 0.065118 0.062981 0.35219 0.24104 0.40398 
-0.09798 0.11872 -0.072496 0.0786 0.075641 0.55474 0.22822 0.3581 
0.0098754 0.082217 0.063803 -0.0029489 0.049499 0.62955 0.24137 0.13072 
0.2685 -0.13316 0.2588 -0.055726 0.010204 0.26653 0.12612 -0.11491 
0.41351 -0.39557 0.40595 -0.12198 -0.051122 -0.19515 -0.037805 -0.38176 
0.23512 -0.45903 0.2611 -0.11409 -0.06148 -0.37502 -0.24661 -0.47054 
-0.011663 -0.24628 -0.14517 -0.060494 -0.064275 -0.29084 -0.42697 -0.1649 
-0.20995 0.0085601 -0.46988 0.019576 -0.0062372 -0.052109 -0.41941 0.28149 
-0.39195 0.12299 -0.49964 0.12497 0.051308 0.10902 -0.14434 0.39871 
-0.44489 0.29579 -0.38883 0.14765 0.10425 0.21441 0.29842 0.21079 
-0.26667 0.43472 -0.32734 0.17363 0.16212 0.22197 0.55672 -0.040764 
-0.057041 0.21523 -0.26963 0.16294 0.17824 0.12053 0.57595 -0.15848 
0.20027 -0.25417 -0.18627 0.097837 0.088465 -0.15405 0.23003 -0.091239 
0.34347 -0.3765 0.019411 -0.024323 -0.0032777 -0.25812 -0.073482 0.28708 
0.18563 0.078436 0.12924 -0.083183 -0.034352 -0.067728 0.0023123 0.54027 
-0.0036066 0.73396 0.091589 -0.043724 -0.021034 0.022206 0.085177 0.3849 
0.062159 1.002 0.061337 -0.010183 -0.0138 -0.17147 -0.12133 -0.36236 
0.16673 0.4436 0.088465 0.024344 -0.00081153 -0.35151 -0.45328 -0.94175 
0.11247 -0.24628 0.022535 0.024508 -0.00081153 -0.3885 -0.67672 -0.55472 
0.052294 -0.40889 -0.044217 0.037826 -0.029748 -0.36926 -0.82814 0.22509 
0.13006 -0.29807 0.0036276 0.03388 -0.010841 -0.21225 -0.72719 0.53485 
0.20076 -0.16835 0.1738 0.056076 0.019411 0.17051 -0.51099 0.46645 
0.23151 -0.0070593 0.36073 0.07301 0.034537 0.47961 -0.46709 0.13697 
0.17692 0.067749 0.43982 0.037826 0.0018191 0.22131 -0.41875 -0.26108 
0.011684 -0.028762 0.43965 -0.0011404 0.005765 -0.15289 0.19221 -0.39968 
-0.099953 -0.23592 0.41088 -0.019555 0.032564 -0.34 0.88012 -0.13382 
-0.12248 -0.303 0.19007 0.021549 0.073668 0.0090533 1.3454 0.36912 
0.080573 -0.25845 -0.070359 0.016781 0.012835 0.12118 1.1984 0.99143 
0.29842 -0.19794 -0.091568 0.024508 -0.0052507 0.071531 0.81649 0.74777 
0.22674 -0.089431 -0.023994 0.0044497 -0.0029489 0.043745 0.46333 -0.35907 
0.05772 0.038812 -0.073482 0.0070803 0.030592 0.13812 -0.02235 -1.157 
-0.076113 0.16212 -0.23625 0.028619 0.067091 0.35991 -0.43552 -1.2839 
-0.14928 0.22476 -0.33753 0.018918 0.069886 0.35301 -0.52135 -0.79772 
-0.17805 0.21293 -0.24891 0.057062 0.034537 0.013164 -0.50934 -0.077757 
-0.28936 0.23298 -0.045696 0.044567 0.036017 -0.2374 -0.43733 0.61114 
-0.3839 0.23479 0.085506 0.083697 0.023028 -0.39606 -0.3081 0.68907 
-0.32832 0.16903 0.084684 0.085177 0.00066819 -0.60552 -0.23609 0.42584 
-0.066084 0.11526 0.069393 0.056898 -0.045696 -0.92942 -0.4416 0.12398 
0.2006 -0.014293 0.089452 0.027796 -0.045696 -0.98581 -0.68066 0.048348 
0.31075 -0.052273 0.086821 0.024015 -0.017911 -0.5442 -0.75909 0.2468 
0.21145 0.032729 0.048184 0.028454 -0.02646 0.23627 -0.44522 0.39345 
0.13401 0.12957 0.055582 0.0024767 0.011848 0.9615 -0.13185 0.080409 
0.18251 0.030756 0.093562 -0.0042642 0.08978 1.3138 -0.11278 -0.39129 
0.17906 -0.0057439 0.065283 0.044567 0.19796 1.3796 0.62643 -0.44276 
0.0421 0.085177 -0.047669 0.11526 0.23233 0.9957 1.7793 -0.23198 
-0.14648 0.24038 -0.13777 0.11757 0.17001 0.15012 2.3835 0.087808 
-0.25549 0.23858 -0.12494 0.070708 0.067585 -0.56738 1.7497 0.34544 
-0.28475 0.19007 0.025166 0.036346 -0.0083746 -0.78243 0.48865 0.34462 
-0.14089 0.078765 0.18415 0.023028 -0.035667 -0.68822 -0.74215 0.27475 
0.024508 -0.00031829 0.27491 0.034537 -0.062138 -0.65452 -1.5792 0.15094 
-0.062467 -0.056548 0.22575 0.070708 -0.067728 -0.53877 -1.5726 0.10704 
-0.0013048 -0.076935 0.12003 0.08567 -0.039778 -0.25401 -1.168 -0.25236 
0.44639 -0.25187 0.23364 0.029276 -0.025638 0.23298 -0.63726 -0.7433 
0.68759 -0.46084 0.43702 -0.010183 0.025824 1.3328 0.37438 -0.97184 
0.30812 -0.50901 0.55392 -0.036983 0.055911 1.7433 1.0848 -0.48698 
-0.24118 -0.35578 0.34972 -0.05589 0.05624 1.0677 1.5282 0.34002 
-0.50457 0.063803 -0.15339 0.0051074 0.11905 0.75418 1.8301 1.0509 
-0.46643 0.42765 -0.51 0.09126 0.17528 0.45363 1.1253 1.3092 
-0.18512 0.53567 -0.58037 0.11822 0.10129 0.010369 -0.1575 1.024 
-0.091075 0.43439 -0.44193 0.032564 0.034209 -0.49915 -0.99354 0.46843 
-0.15289 0.32095 -0.27505 0.038483 0.0014903 -0.87451 -1.2193 0.10606 
-0.19564 0.17807 -0.19367 0.059857 -0.0064016 -0.81663 -0.98384 0.023686 
-0.11672 0.16541 -0.083347 0.028125 -0.011663 -0.56935 -0.52677 -0.21998 
0.30746 0.14831 0.051965 -0.0054151 0.018425 -0.24201 0.025495 -0.6948 
0.95131 -0.029091 0.18465 0.017932 0.0786 0.30039 0.81271 -0.94405 
0.8035 -0.071345 0.10935 0.10195 0.11888 0.79232 1.3755 -0.51855 
0.1613 0.045389 -0.075291 0.093726 0.10178 0.74218 1.1892 0.22082 
-0.20288 0.11806 -0.082854 0.061172 0.055418 0.36041 0.4293 0.74004 
-0.23116 0.16294 0.059528 0.060844 0.047691 0.039634 -0.35956 0.67953 
-0.22902 0.17725 0.13105 0.0024767 -0.013965 -0.30498 -0.91972 0.16541 
-0.35068 0.031414 -0.034516 -0.01528 -0.030899 -0.56475 -1.2162 -0.29906 
-0.41711 -0.039613 -0.19268 -0.039942 -0.057863 -0.58316 -1.2084 -0.2864 
-0.26174 0.073175 -0.15191 0.0083956 -0.02087 -0.45213 -0.69694 -0.15388 
0.16788 0.10737 -0.012649 -0.022843 -0.086636 -0.34871 0.0014903 -0.047998 
0.77489 0.071531 0.13647 -0.03912 -0.042244 -0.066741 0.30319 -0.16835 
1.142 -0.095678 0.2736 -0.035338 -0.045368 0.36304 0.2052 -0.20929 
0.55507 -0.24382 0.34479 -0.020212 0.042758 1.0205 0.68693 0.24022 
-0.29314 -0.36992 0.48257 -0.0138 0.08863 1.1338 1.3275 0.75845 
-0.71371 -0.19794 0.37619 0.016452 0.051965 0.71275 1.4467 0.96907 
-0.92416 0.12053 0.056404 0.074161 0.067091 0.37635 1.1894 1.154 
-0.79772 0.26291 -0.33671 0.05065 0.089452 0.14486 0.53156 1.0904 
-0.0868 0.13171 -0.39984 0.026152 0.043087 -0.16523 -0.33112 0.3096 
0.79166 -0.14599 -0.18463 -0.0095255 0.019247 -0.34937 -0.8505 -0.94882 
1.1297 -0.16292 0.10458 -0.010841 -0.024323 -0.45574 -1.1335 -1.759 
0.93618 0.11066 0.19024 -0.025802 -0.047834 -0.48698 -1.25 -1.3908 
0.20158 0.41992 0.042594 -0.008539 0.0034632 -0.38521 -0.79805 -0.28081 
-0.48698 0.46662 0.086821 0.051143 0.00033937 -0.47909 -0.1108 0.81567 
-0.5539 0.23923 0.19649 0.072517 0.043416 -0.49537 0.34594 0.94671 
-0.27867 -0.047998 0.077121 0.081889 0.039963 -0.55357 0.26472 0.32259 
-0.22228 -0.091897 -0.18545 0.061008 0.0042853 -0.66143 0.020727 -0.24694 
-0.2864 0.081889 -0.37452 0.035853 -0.0039354 -0.56261 -0.13349 -0.47597 
-0.12429 0.22164 -0.50655 -0.0026201 0.018096 -0.091239 -0.079072 -0.36926 
0.15226 0.34166 -0.63627 0.020069 0.032893 0.53271 -0.10423 -0.49109 
0.24795 0.45297 -0.5419 0.064954 0.068736 0.87765 -0.17213 -0.48879 
0.21983 0.54027 -0.16506 0.038648 0.039141 0.70239 -0.2739 0.054596 
0.23446 0.26126 0.45609 -0.018733 0.0067515 0.18317 -0.19087 0.26784 
0.20651 -0.46939 1.0715 -0.035667 0.019905 -0.3931 0.062323 0.016452 
0.21901 -0.91117 1.2346 0.014643 0.026646 -0.57429 0.15768 -0.24645 
0.2103 -0.85675 1.0968 -0.012649 0.011684 -0.49586 0.20734 -0.19367 
0.16426 -0.81203 1.026 -0.069208 -0.0868 -0.41678 -0.065426 -0.071674 
0.077778 -0.78506 0.85299 -0.067728 -0.097487 -0.32487 -0.32356 0.090931 
0.024344 -0.41037 0.1687 -0.010348 -0.022514 0.085999 -0.26124 0.19796 
-0.10702 0.12447 -0.54749 0.048019 0.030098 0.44113 -0.0055795 0.39789 
-0.28492 0.42272 -0.74856 0.03799 0.011026 0.33015 0.28626 0.56066 
-0.23888 0.48931 -0.60339 0.080244 0.049664 0.08715 0.41154 0.57941 
-0.05441 0.49144 -0.39343 0.086821 0.12875 0.052787 0.23874 0.171 
-0.04619 0.46399 -0.21932 0.050486 0.1197 0.016781 0.037168 -0.2208 
-0.067399 0.37323 -0.063289 0.042594 0.04654 -0.10308 -0.073318 -0.31632 
-0.073976 0.25798 0.16508 0.035031 0.021384 -0.14632 -0.019061 -0.3007 
-0.038462 0.14305 0.26077 0.032236 0.004943 -0.22902 -0.14073 -0.32109 
0.037826 0.047526 0.25995 0.046868 0.029276 -0.32076 -0.23066 -0.24908 
0.11428 -0.079895 0.33213 0.023028 0.048184 -0.52677 -0.30613 -0.21504 
0.1276 -0.14434 0.23003 0.07038 -0.0021268 -0.80825 -0.53236 -0.25417 
0.10507 -0.11113 0.11658 0.06331 0.042758 -0.63134 -0.6343 -0.25943 
0.10162 -0.01117 -0.041422 0.073175 0.056733 -0.23543 -0.58284 -0.19433 
0.097179 -0.020377 -0.086142 0.058871 -0.0034422 0.36337 -0.18726 -0.10423 
0.077121 -0.049149 0.033715 -0.00015387 0.011355 0.86582 0.41253 -0.0077169 
0.094877 -0.17114 0.15489 -0.024816 0.023193 1.1333 0.76815 0.10392 
0.09422 -0.28969 0.25995 0.0062583 0.084684 1.1923 0.86549 0.28313 
0.032071 -0.35151 0.18399 0.028947 0.10129 0.82389 1.0381 0.46481 
-0.03912 -0.18183 0.036346 0.042265 0.081724 0.32374 1.0929 0.68627 
-0.047505 0.19747 -0.033859 0.040621 0.043745 -0.076935 0.62478 0.767 
-0.016595 0.49375 -0.028597 0.062981 0.045718 -0.1598 -0.1279 0.47122 
0.060679 0.49572 -0.0082102 0.068078 0.097015 0.11855 -0.49487 -0.15059 
0.17593 0.2343 -0.0503 0.060186 0.077614 0.50131 -0.24842 -0.62427 
0.072024 -0.0087034 -0.012485 0.049992 0.064296 0.37898 0.056898 -0.39244 
-0.24875 -0.0054151 -0.040271 0.047691 0.038648 -0.037147 0.14157 0.098823 
-0.39491 0.14979 -0.061151 0.038155 0.035031 -0.27571 0.023851 0.25469 
-0.13284 0.19385 -0.058521 0.03799 -0.014787 -0.36532 -0.035996 0.085177 
0.54652 0.18448 -0.094363 0.037497 -0.030899 -0.33095 -0.058685 -0.13366 
0.75927 0.2126 -0.11672 0.026974 -0.014458 -0.28821 -0.18643 -0.083183 
0.28987 0.28395 -0.1307 0.037661 0.013328 -0.31813 -0.22474 0.15867 
-0.20436 0.26225 -0.10965 0.055582 0.024673 -0.25417 -0.17575 0.27228 
-0.31221 0.13269 -0.067399 0.045882 0.023357 -0.1039 -0.066248 0.24137 
-0.16473 -0.025145 -0.00031829 0.021549 0.020727 0.13138 0.18251 0.076792 
-0.028104 -0.060658 0.089945 0.014808 0.048019 0.30911 0.36649 0.050486 
0.033058 -0.0090322 0.05772 0.019576 0.053116 0.51035 0.58319 0.14437 
0.12677 0.048513 -0.1108 -0.025638 0.060844 0.97581 0.94161 0.23035 
0.21539 0.11444 -0.28081 -0.033037 0.088136 0.95789 0.96562 0.21243 
0.067091 0.17676 -0.45903 0.013986 0.067256 0.35071 0.52992 0.20832 
-0.1358 0.21621 -0.45722 0.067749 0.046375 -0.11722 0.049992 0.16919 
-0.14106 0.21621 -0.26963 0.07597 0.012999 -0.2083 -0.30366 0.085177 
0.061995 0.21786 -0.068221 0.03536 0.0056006 -0.13103 -0.41481 -0.058028 
0.17445 0.23775 -0.043066 0.058213 0.018754 0.05476 -0.34164 -0.16654 
0.074161 0.23151 0.056569 0.039799 0.060844 0.41285 -0.13284 -0.16868 
-0.0011404 0.16952 0.37603 0.0042853 0.052294 0.43456 0.042265 -0.075455 
-0.0064016 0.078436 0.4584 0.017438 0.011026 0.084355 0.021878 0.012999 
0.094713 0.049992 0.15966 0.047197 0.028125 -0.25286 -0.1011 0.069558 
0.36961 0.036017 -0.11064 0.029769 0.054267 -0.37091 -0.16786 0.072681 
0.48026 0.021549 -0.11656 -0.0083746 0.029276 -0.34953 -0.084005 0.35054 
0.16146 0.0051074 -0.091239 -0.012485 -0.021199 -0.22573 0.1738 0.64024 
-0.15947 -0.054739 -0.087622 -0.056055 -0.020377 -0.016431 0.30681 0.45955 
-0.30399 -0.1256 -0.084498 -0.050793 -0.0016336 0.18974 0.26192 -0.26798 
-0.42072 -0.11196 -0.12823 0.0013258 0.019247 0.059035 0.18678 -0.79772 
-0.40576 0.04917 -0.1644 0.03947 0.02533 -0.49208 0.038155 0.063145 
-0.21981 0.2514 -0.26026 0.034702 -0.038298 -1.0728 -0.064933 1.5994 
0.028947 0.36221 -0.30761 0.014479 -0.081868 -1.2985 -0.41333 1.7301 
0.25222 0.22953 -0.19318 0.004943 -0.059343 -0.99009 -1.1078 0.15818 
0.37833 0.03799 -0.015116 0.0034632 -0.016102 -0.22113 -1.1829 -1.7674 
0.33541 -0.031557 0.18859 0.037661 0.11148 0.92747 -0.29495 -2.4785 
0.16574 0.052459 0.183 0.094055 0.18547 1.9832 0.79627 -1.6573 
-0.023994 0.1008 0.18563 0.13187 0.21621 2.3081 1.2545 -0.28081 
-0.1381 0.08978 0.36189 0.088136 0.18415 1.7379 1.0192 0.63942 
-0.15207 -0.056877 0.57793 0.047691 0.12398 0.6672 0.57283 0.78213 
-0.087293 -0.24431 0.7407 0.01415 0.022535 -0.52973 0.11066 0.67838 
0.027468 -0.33293 0.83277 -0.047998 -0.059014 -1.3334 -0.27045 0.42091 
0.047691 -0.31254 0.74152 -0.084827 -0.093705 -1.5813 -0.54486 0.20668 
0.0059294 -0.24908 0.35317 -0.068714 -0.068714 -1.3184 -0.69842 0.20092 
-0.040764 -0.16292 -0.13974 -0.013143 -0.076935 -0.90953 -0.80381 0.3193 
0.0062583 -0.145 -0.32405 -0.01117 -0.05589 -0.35151 -0.69464 0.11444 
0.20158 -0.13925 -0.34674 0.01415 -0.026131 0.098166 -0.38225 -0.3691 
0.29563 -0.0021268 -0.31106 0.065776 -0.020048 0.23151 -0.082525 -0.66833 
0.11543 0.23611 -0.26289 0.084684 0.015465 0.39756 0.2565 -0.39343 
-0.1501 0.39214 -0.21751 0.11921 0.13615 0.68743 0.70913 0.25567 
-0.33506 0.2731 -0.016102 0.11855 0.1756 0.61755 0.70864 0.81567 
-0.30432 0.10343 0.12151 0.14124 0.18711 0.46053 0.45429 0.76733 
-0.082196 -0.00064712 0.18777 0.053281 0.11362 0.183 0.021713 0.16821 
-0.074798 0.011684 0.25271 -0.024323 0.016123 -0.17723 -0.44144 -0.29248 
-0.2014 -0.010019 0.29513 -0.020541 -0.059836 -0.18232 -0.52447 -0.33046 
-0.023336 -0.037476 0.29398 0.0052718 -0.056383 -0.080881 -0.38044 -0.32701 
0.5406 -0.18874 0.31289 0.0052718 -0.031392 -0.3206 -0.35068 -0.48813 
0.86434 -0.19942 0.28872 -0.017088 -0.04471 -0.5636 -0.29873 -0.69135 
0.49605 -0.058521 0.083533 0.050814 0.013492 0.025988 0.10819 -0.43749 
0.02829 0.11033 -0.13349 0.087479 0.10737 0.93454 0.70864 0.026152 
-0.17772 0.15522 -0.19235 0.11674 0.16031 1.0935 0.90478 0.28313 
-0.18545 0.094384 -0.11278 0.12825 0.12349 0.52696 0.69926 0.21013 
-0.14582 -0.090417 0.051965 0.10918 0.072353 -0.15783 0.28428 0.01563 
-0.078579 -0.23625 0.17166 0.018589 -0.015938 -0.60092 -0.1404 0.017438 
0.011684 -0.21011 0.24153 -0.010019 -0.038133 -0.70516 -0.43322 0.26242 
-0.020706 -0.025309 0.24022 0.031249 0.0026412 -0.47465 -0.47893 0.4755 
-0.078086 0.027468 0.38951 0.049664 0.055911 -0.11968 -0.41365 0.22328 
-0.084169 -0.06148 0.51956 -0.00031829 0.03651 0.34396 -0.19761 -0.17854 
-0.077428 -0.16506 0.22855 -0.028433 0.018589 0.56691 0.029605 -0.43437 
-0.030077 -0.029913 -0.10554 0.0069159 -0.018897 0.38605 0.057555 -0.31435 
0.020233 0.09126 -0.26585 0.019576 -0.006566 0.1077 -0.031721 0.18826 
0.090931 0.14601 -0.27637 0.033551 -0.015609 -0.26798 -0.22639 0.53764 
0.16755 0.12595 -0.17082 0.071202 -0.02942 -0.3885 -0.15914 0.41483 
0.22575 0.0592 0.011355 -0.004593 -0.027611 -0.31764 -0.026624 -0.20386 
0.1539 0.060515 0.14437 -0.039449 0.011355 -0.16194 0.1516 -0.75859 
0.039141 0.092904 0.064132 -0.012485 0.043745 -0.0032777 0.3803 -0.43536 
-0.10604 0.21687 -0.10456 0.058706 0.058542 -0.059343 0.41828 0.41729 
-0.08384 0.32555 -0.19466 0.064132 0.069229 -0.50589 -0.28064 0.9426 
0.232 0.24301 -0.20962 0.051308 0.041936 -0.63002 -0.56853 0.71357 
0.46037 -0.0042642 -0.083676 0.0324 0.0067515 -0.35923 -0.43815 0.098659 
0.41433 -0.14961 -0.006566 -0.026953 -0.0054151 -0.15799 -0.44637 -0.571 
0.19024 -0.082361 -0.025967 -0.024816 -0.043066 0.09833 -0.19104 -0.8168 
-0.014951 -0.016595 -0.032543 -0.026953 -0.017253 0.67575 0.41927 -0.46068 
-0.23954 -0.026624 -0.10308 0.03947 0.055418 1.2144 1.3369 0.19649 
-0.35101 -0.15914 -0.13168 0.064625 0.093891 1.4462 2.2104 0.58664 
-0.26108 -0.23346 -0.13925 0.070215 0.11905 0.99932 1.9358 0.61262 
-0.13481 -0.088773 -0.10439 0.048348 0.076299 0.053281 0.51939 0.35334 
-0.030735 0.37866 -0.038462 0.03947 0.016781 -0.66603 -0.81499 0.12497 
0.03651 0.7938 0.012835 0.010204 0.0047785 -0.79263 -1.2808 0.061172 
0.11526 0.73971 0.09274 0.018425 0.031907 -0.64038 -1.0901 0.068571 
0.1174 0.41022 0.1128 0.015794 0.01004 -0.56689 -0.81433 0.0088889 
0.12118 0.1368 0.0037921 -0.031228 -0.019226 -0.47745 -0.498 -0.042244 
0.12217 -0.18052 -0.11935 -0.066413 -0.03616 -0.32832 -0.17953 -0.12149 
0.11576 -0.37913 -0.29478 -0.030899 -0.053588 -0.17476 0.043251 -0.10456 
0.005765 -0.21702 -0.35989 0.018918 -0.027282 0.07038 0.22033 -0.059507 
-0.157 0.24795 -0.38965 0.020891 0.040292 0.26373 0.36698 0.06035 
-0.30415 0.4316 -0.31632 0.036017 0.076627 0.36896 0.46333 0.1179 
-0.28903 0.35087 -0.12412 0.059364 0.064954 0.34725 0.43521 0.11987 
-0.16062 0.20668 0.2121 0.055747 0.040292 0.019576 0.27721 0.040785 
0.15028 0.097179 0.65306 0.042758 0.032236 -0.25368 0.24778 -0.27489 
0.59338 -0.021034 0.74283 0.0042853 0.024673 -0.32997 0.15933 -0.47597 
0.65586 -0.1358 0.62034 0.035031 -0.010512 -0.37156 -0.11607 -0.28821 
0.22756 -0.29363 0.39543 -0.013307 -0.063289 -0.4393 -0.50441 0.17824 
-0.001798 -0.49898 0.28724 -0.096336 -0.12823 -0.29791 -0.3765 0.59848 
0.12792 -0.41628 0.059857 -0.089102 -0.061151 0.26406 0.055582 0.7328 
0.1927 0.15028 -0.44144 -0.029748 0.047691 0.88242 0.53567 0.83129 
-0.25845 0.70864 -0.77405 0.046046 0.16623 1.2803 0.77029 0.88555 
-0.87187 0.90363 -0.76303 0.13417 0.24992 1.6654 0.77983 0.59634 
-0.88026 0.767 -0.32356 0.10721 0.17018 1.3309 0.41417 0.043745 
-0.033859 0.27902 0.094877 0.0087245 0.047526 0.4385 -0.086636 -0.27588 
0.59519 -0.053588 0.16706 0.03092 0.056076 -0.40461 -0.29067 -0.21915 
0.45116 -0.12807 0.21276 0.081395 0.034537 -0.89374 -0.38044 0.08567 
-0.087129 -0.17657 0.30516 0.057884 -0.006566 -1.0116 -0.42862 0.17199 
-0.39425 -0.37699 0.35745 0.049006 -0.014458 -0.86119 -0.3765 -0.34723 
-0.1404 -0.36976 0.2195 0.068407 -0.013965 -0.85757 -0.37189 -0.95392 
0.46991 -0.29149 0.095864 0.13319 -0.020377 -0.99683 -0.24793 -1.1607 
0.7282 -0.15881 0.066105 0.061666 -0.025638 -0.81153 -0.32471 -0.86957 
0.63152 -0.10735 0.058871 -0.090746 -0.093705 -0.88486 -0.69793 -0.52102 
0.33821 -0.071509 0.1539 -0.15996 -0.15224 -0.73393 -0.41382 0.033715 
-0.10193 0.053445 0.11017 -0.11705 -0.052273 0.24943 0.31634 0.61048 
-0.37765 0.21835 -0.044546 -0.042573 0.11921 1.5874 0.85743 0.98173 
-0.3885 0.29892 -0.097158 0.08156 0.18613 2.2875 0.99685 1.0138 
-0.31977 0.2731 -0.070687 0.16492 0.20388 2.337 0.95723 0.83112 
-0.13448 0.11329 0.045224 0.12201 0.18974 1.8418 0.59963 0.12858 
0.00066819 -0.050136 0.23512 0.098166 0.13187 0.85809 0.025495 -0.14188 
0.012506 -0.13481 0.33985 0.045553 0.08156 -0.27933 -0.5248 -0.019719 
0.036839 -0.11278 0.37422 0.033222 0.0083956 -1.0439 -0.85642 -0.38916 
0.14239 -0.1187 0.40841 -0.018568 -0.053917 -1.2499 -0.8796 -0.80792 
0.15604 -0.14796 0.47221 -0.039449 -0.065426 -1.007 -0.67655 -0.31945 
0.077778 -0.11097 0.17051 0.041443 0.012013 -0.61062 -0.2134 0.3489 
0.041114 0.016616 -0.194 0.053116 0.063968 -0.30498 0.25288 0.45445 
0.045882 0.14963 -0.3834 0.053281 0.042758 -0.18463 0.27047 0.032236 
0.050486 0.17363 -0.364 0.028783 0.024673 -0.11968 0.04095 -0.41727 
0.10326 0.09126 -0.11311 0.052459 0.0031344 -0.022679 -0.14763 -0.49619 
0.14453 -0.059672 0.21868 0.028947 0.023522 0.097179 -0.18397 -0.082196 
0.1927 -0.094692 0.25913 0.031414 0.012506 0.28214 -0.11311 0.22509 
0.19731 -0.06444 -0.021856 0.072353 0.038812 0.49687 -0.0055795 0.10935 
0.16541 -0.028926 -0.21866 0.088958 0.025495 0.38655 -0.03501 -0.3686 
0.044238 -0.047176 -0.15174 0.082382 0.016616 0.14749 -0.22984 -0.80841 
-0.13892 -0.054739 0.043087 0.044402 0.0026412 0.0064227 -0.26519 -0.70286 
-0.22573 0.052952 0.18465 0.03536 0.02122 -0.077757 -0.071345 -0.19597 
-0.24941 0.11625 0.31963 -0.017088 0.036182 -0.29232 0.051965 0.56888 
-0.12807 -0.030406 0.46481 -0.065262 0.00050378 -0.5705 0.20273 0.80038 
0.045553 -0.17164 0.51479 -0.038956 0.013657 -0.30925 0.36698 0.44327 
0.17314 -0.13596 0.25123 0.076299 0.11707 0.37274 0.87305 -0.044546 
0.22263 0.00050378 -0.13727 0.13976 0.17643 0.44968 1.0518 -0.20057 
0.16492 0.11773 -0.38833 0.089287 0.12003 -0.037476 0.48569 0.058377 
-0.043395 0.088465 -0.35595 -0.009361 -0.03057 -0.66652 -0.40938 0.2269 
0.068571 0.0098754 -0.27736 -0.094034 -0.15092 -0.91117 -0.91035 0.33344 
0.22822 0.044731 -0.20682 -0.084334 -0.12922 -0.45985 -0.62756 0.26011 
-0.097651 0.28116 -0.091404 -0.019884 -0.010183 0.48421 -0.027118 0.039799 
-0.41365 0.6603 0.019905 0.097344 0.13713 1.4357 0.48043 0.08715 
-0.17262 0.77358 0.15719 0.18383 0.17001 1.5833 0.75007 -0.043724 
0.37356 0.26389 0.10113 0.17676 0.16623 0.88587 0.44787 -0.51378 
0.43028 -0.28837 0.06183 0.17265 0.11263 -0.13612 -0.14878 -0.72834 
-0.028269 -0.37535 0.0046141 0.076134 0.056898 -0.40428 -0.29133 -0.061316 
-0.12494 -0.22458 -0.057699 -0.018897 -0.011663 -0.46939 -0.15355 1.0712 
0.19665 -0.1667 -0.13777 -0.047669 -0.029913 -0.44062 0.19007 1.5 
0.47599 -0.13234 -0.1963 -0.020212 -0.022679 -0.28475 0.45314 0.52104 
0.69696 -0.017911 -0.15487 -0.060165 -0.030242 -0.17969 0.14141 -1.3526 
0.091918 0.30894 -0.068879 -0.018733 -0.033365 -0.17969 -0.15405 -2.1752 
-0.75761 0.61656 -0.079566 0.061995 -0.023336 -0.30136 -0.060987 -0.45509 
-0.98039 0.60966 0.00017495 0.04917 -0.011005 -0.68444 0.030263 2.1029 
-0.70795 0.3119 0.13269 0.01415 -0.036489 -1.0378 -0.15602 2.5683 
-0.083183 -0.040106 0.18547 -0.0088678 -0.043066 -0.88289 -0.38061 0.97104 
0.47254 -0.22145 0.12381 0.019905 -0.038627 -0.4638 -0.51674 -1.189 
0.58269 -0.17131 0.29661 0.0095465 -0.03764 -0.025638 -0.67606 -2.1148 
0.39625 -0.15289 0.57464 0.0011614 -0.030077 0.3198 -0.59829 -1.7401 
0.15637 -0.11771 0.43949 0.076792 0.0032988 0.8086 -0.00064712 -0.68 
-0.0016336 -0.069701 0.067913 0.086821 0.12628 1.2655 0.8229 0.24186 
-0.020048 0.0067515 -0.23066 0.08156 0.17166 1.0585 1.464 0.66539 
0.023357 0.066927 -0.29281 0.040292 0.13434 0.36912 1.5664 0.93388 
0.096686 0.13828 -0.14007 -0.0087034 0.049499 -0.26683 1.1238 1.0648 
0.14733 0.08567 -0.10505 -0.060329 -0.037476 -0.44473 0.61344 0.85792 
0.23151 0.063968 -0.12823 -0.046683 -0.070194 -0.3109 -0.054082 0.42009 
0.24548 0.16031 -0.16079 -0.032872 -0.03205 0.12118 -0.61786 -0.065591 
0.037661 0.26209 -0.18298 0.0074092 0.040128 0.46053 -0.77865 -0.206 
-0.20682 0.30812 -0.20962 0.076956 0.087808 0.88735 -0.78704 -0.09946 
-0.34131 0.29152 -0.21159 0.11576 0.12957 1.0222 -0.5779 0.047033 
-0.3594 0.21112 -0.098309 0.14864 0.13384 0.67246 -0.11426 0.015959 
-0.25598 0.086163 0.033387 0.1008 0.10458 0.05624 0.11198 -0.092554 
-0.048492 0.025824 0.12842 0.035853 0.021878 -0.49339 0.1419 -0.15799 
0.2098 -0.071181 0.13154 0.016123 -0.02235 -0.62542 0.18662 -0.21537 
0.41729 -0.12248 0.07038 0.013328 -0.0013048 -0.45739 0.29776 -0.27144 
0.36008 -0.056219 -0.011005 0.0039565 0.016452 -0.27982 0.23808 -0.18594 
0.13039 0.0021479 -0.044546 -0.036654 -0.014951 -0.17328 0.25567 -0.050958 
-0.081868 0.015137 0.049006 -0.056548 -0.013471 -0.0029489 0.44343 0.075805 
-0.09798 -0.14599 0.18876 -0.059178 -0.0040998 0.14256 0.23496 0.13039 
-0.095185 -0.24858 0.22937 -0.059507 0.061995 0.10951 -0.41217 0.014972 
-0.040928 -0.21652 0.27688 0.0046141 0.0088889 -0.041915 -0.67113 -0.07003 
-0.058521 -0.031886 0.13467 0.035853 0.015137 -0.034352 -0.070523 0.061501 
-0.086307 0.15028 0.16081 0.076134 0.034044 0.081395 0.55803 0.17659 
-0.0095255 0.19336 0.3387 0.080738 0.026317 0.11411 0.52285 0.171 
0.037661 0.15933 0.37159 0.067585 0.0021479 -0.0032777 0.10178 0.067585 
0.075148 0.10704 0.25304 0.023522 -0.0083746 -0.045861 -0.27111 0.0079024 
0.11099 0.055582 0.048513 0.02681 0.05772 0.083862 -0.35315 -0.031392 
0.12809 0.051308 -0.096994 0.018754 0.059857 0.087314 -0.35874 -0.021692 
0.1659 0.014479 -0.19071 0.047691 0.054596 0.099481 -0.24661 -0.038627 
0.16673 0.044567 -0.20057 0.0324 0.020398 0.010862 -0.24151 -0.013471 
0.069229 0.1003 -0.16835 0.024015 -0.00015387 -0.090746 -0.30646 0.12825 
-0.042408 0.10244 -0.12445 0.028619 0.007738 0.18317 -0.12659 0.22279 
-0.11771 0.073175 -0.044217 0.019905 0.013164 0.15949 0.013492 0.20372 
-0.090746 0.061666 0.0090533 -0.0004827 1.0539e-005 -0.21915 0.09274 0.11198 
0.03651 0.051143 0.067749 -0.0054151 -0.0075525 -0.44867 0.14124 0.056076 
0.21128 -0.0059084 0.12743 0.013492 0.0024767 -0.24875 0.088465 -0.045696 
0.13335 -0.047176 0.070051 -0.0042642 0.0227 -0.02235 0.11757 -0.053095 
-0.060987 -0.0026201 0.0032988 0.049006 0.047691 0.16146 0.5217 0.16475 
-0.092554 0.03388 -0.009361 0.12217 0.071366 0.13697 0.6649 0.30056 
-0.076771 0.048184 0.012835 0.10688 0.067256 -0.11639 0.19402 0.17824 
-0.031228 -0.040271 0.036017 0.064296 0.044402 -0.35331 -0.39968 0.05476 
0.05772 -0.068386 0.0037921 0.047197 0.05476 -0.16227 -0.54223 0.079916 
0.015301 -0.035996 -0.015116 0.023522 0.051308 0.24055 -0.027282 0.21326 
-0.05589 0.086163 -0.035174 -0.0047575 0.060022 0.46316 0.60012 0.53123 
-0.13563 0.13121 0.11494 0.043251 0.057062 0.23496 0.60242 0.58006 
-0.44621 0.10359 0.33426 0.049828 -0.02942 -0.47679 -0.088773 0.23118 
-0.53285 0.056733 0.22707 0.048841 -0.087458 -0.73886 -0.65353 -0.63446 
-0.1473 -0.012814 -0.0016336 0.004943 -0.09091 -0.71765 -1.0986 -1.3705 
0.31618 0.0092177 -0.13645 0.0070803 -0.066084 -0.46117 -0.98055 -0.80989 
0.73116 0.23331 -0.12856 0.023193 -0.013143 -0.015609 -0.38455 0.33377 
1.0149 0.33213 -0.17936 -0.0073881 0.056898 0.78016 0.60768 0.94868 
0.5554 0.12365 -0.0050863 0.0032988 0.1835 1.4635 1.1877 0.84378 
-0.12659 -0.21866 0.42354 0.032071 0.23742 1.5416 0.85447 0.47007 
-0.32947 -0.19416 0.62758 0.028125 0.17265 0.85562 0.12332 0.050979 
-0.2009 0.3318 0.37553 0.030263 0.010697 -0.27505 -0.48172 -0.1723 
-0.1279 0.64599 0.030098 0.047855 -0.070523 -0.99223 -0.62427 -0.60552 
-0.015116 0.10672 -0.021199 0.087643 -0.038791 -0.92975 -0.32487 -0.74445 
0.32078 -0.75662 0.045553 0.055254 0.040128 -0.39919 -0.0034422 -0.53022 
0.25173 -1.0011 0.00083261 -0.010512 0.077614 0.10556 0.14256 -0.157 
-0.15339 -0.54075 -0.32043 -0.0098543 0.052787 0.21654 0.28691 0.57168 
-0.37025 0.0032988 -0.45081 0.044073 0.046211 0.18037 0.49506 0.94556 
-0.098309 0.25239 -0.16868 0.022042 0.032071 0.14404 0.45067 0.70107 
0.29513 0.2121 0.051143 -0.00081153 0.041607 0.09274 0.072024 0.159 
0.37093 0.17643 0.057555 0.049828 0.025495 0.05065 -0.30563 -0.3058 
0.15949 0.29004 0.056569 -0.0014692 0.015959 0.034209 -0.40839 -0.74758 
0.082053 0.44031 0.06183 -0.027282 0.012835 0.045718 -0.26141 -0.83866 
0.0060938 0.35794 0.18432 0.0014903 0.026152 0.068242 -0.028597 -0.46347 
-0.097158 0.025001 0.1927 0.051472 0.0093821 0.10589 0.24186 -0.051122 
-0.21455 -0.16868 0.052294 0.059528 0.0092177 0.039799 0.35531 0.13927 
-0.20995 -0.14434 -0.13119 0.065776 0.032564 -0.014787 0.1978 0.16722 
0.012506 0.0056006 -0.2961 0.10967 0.063145 -0.13859 -0.15125 0.0052718 
0.22904 0.37882 -0.25171 0.097837 0.037497 -0.28311 -0.425 -0.11623 
0.28971 0.56987 0.022535 0.039305 0.022042 -0.098309 -0.25664 -0.037476 
0.20914 0.37734 0.28708 -0.008539 0.017274 0.14289 0.10096 0.34676 
-0.0032777 -0.038791 0.4408 -0.023007 0.028947 0.20273 0.37767 0.59239 
-0.040106 -0.3589 0.4242 -0.051122 -0.0032777 0.19007 0.14733 0.54258 
0.21967 -0.47531 0.3073 -0.013636 -0.012649 0.41581 -0.068057 -0.05885 
0.256 -0.38439 0.24729 0.024179 0.018589 0.63547 0.073504 -0.60832 
0.18284 -0.31533 0.16574 0.052952 0.05065 0.53501 -0.084498 -0.72851 
0.14897 -0.22606 -0.049314 0.032729 0.073668 0.38392 -0.11903 -0.40083 
-0.013307 -0.070359 -0.40264 0.044731 0.042429 -0.066906 0.095371 0.00083261 
-0.23346 0.15193 -0.59895 0.062488 -0.062467 -1.1098 0.064132 0.12875 
-0.35611 0.28379 -0.50277 -0.0050863 -0.10571 -1.802 -0.082525 -0.01528 
-0.15865 0.18103 -0.13053 -0.034352 -0.06444 -1.7173 -0.17213 -0.35973 
0.20273 0.040621 0.23035 -0.019555 -0.0027845 -0.99173 -0.32208 -0.47054 
0.39148 0.080409 0.41976 -0.0052507 0.025166 -0.11261 -0.50836 -0.15487 
0.22838 0.1248 0.32835 0.020398 0.082217 0.8451 -0.32273 0.012835 
-0.090581 0.1465 0.095535 0.063474 0.14075 1.5024 0.33985 0.08008 
-0.31386 0.17248 0.13664 0.11313 0.13088 1.4329 0.90955 0.50032 
-0.22918 0.22707 0.27162 0.1105 0.13121 1.0707 1.2399 0.76404 
0.043416 0.13319 0.24828 0.048677 0.09274 0.76339 1.1336 0.61623 
0.14404 0.094384 0.082875 0.04506 0.015301 0.18777 0.50986 0.28478 
0.045224 0.15555 -0.011992 0.043745 -0.04882 -0.43388 -0.20978 -0.0057439 
-0.03912 0.30911 0.043909 0.01711 -0.043724 -0.33835 -0.48369 -0.15783 
-0.077593 0.33969 -0.048327 -0.01676 -0.0029489 -0.056712 -0.36515 -0.1986 
-0.06296 0.30845 -0.31813 0.025988 0.014643 -0.44012 -0.27522 -0.20173 
-0.021363 0.17692 -0.54305 0.01563 -0.0096899 -0.97036 -0.25549 -0.23066 
-0.024652 0.0062583 -0.47778 0.0014903 -0.021363 -1.0105 -0.34592 -0.10949 
-0.0026201 -0.07266 -0.19334 -0.018075 0.005765 -0.66126 -0.52118 0.013328 
0.079422 -0.1159 0.0075736 -0.012485 -0.044874 -0.18907 -0.54683 0.27228 
0.053116 -0.022679 0.091589 -0.020212 -0.017911 0.25304 -0.39442 0.62889 
-0.040271 0.054103 0.032071 0.030263 0.035524 0.73248 0.077943 0.5651 
-0.074633 0.10458 0.057555 0.095042 0.10787 1.0932 0.64682 0.086328 
-0.055068 0.084848 0.24844 0.10622 0.12809 0.94671 0.95296 -0.29478 
0.018096 0.062981 0.41647 0.054103 0.12644 0.5023 1.0493 -0.27736 
0.072681 -0.059178 0.60522 -0.026296 0.052294 0.17741 0.82537 -0.10127 
0.14141 -0.13892 0.59881 -0.0503 0.01563 -0.13349 0.11559 0.074326 
0.13319 -0.16029 0.37981 -0.059178 -0.031228 -0.44358 -0.47498 0.18218 
0.05772 -0.12363 0.12595 0.023028 1.0539e-005 -0.67343 -0.60585 0.25436 
0.025001 -0.081539 -0.12642 0.052787 -0.042408 -0.74149 -0.44917 0.23677 
0.029605 0.018425 -0.31747 0.017932 -0.049314 -0.45706 -0.3206 0.15735 
0.016781 0.16886 -0.36236 0.019247 -0.027775 -0.020377 -0.10949 0.082217 
-0.094034 0.31585 -0.33523 0.030263 0.061337 0.44623 0.23282 0.17906 
-0.18298 0.41433 -0.28278 0.1031 0.17955 0.99702 0.7213 0.31716 
-0.19893 0.37931 -0.20501 0.069393 0.20175 1.5088 1.1147 0.37109 
-0.095349 0.22756 -0.070687 0.04506 0.16936 1.2898 0.90758 0.36846 
0.054432 0.022535 0.051965 -0.003771 0.021549 0.078272 0.20536 0.34906 
0.16969 -0.074962 0.1225 0.0064227 -0.056383 -0.82469 -0.36121 0.31519 
0.18728 -0.023007 0.1853 -0.03057 -0.088608 -0.91101 -0.62279 0.11132 
0.20783 0.00099702 0.18103 -0.034023 -0.084827 -0.60635 -0.95573 -0.5493 
0.15522 -0.053424 0.18498 -0.0047575 -0.050464 -0.23888 -1.108 -0.51033 
-0.0060728 -0.064768 0.147 0.028619 0.054925 0.27524 -0.36959 -0.15224 
-0.10456 -0.021528 0.095042 0.065612 0.15078 0.76026 0.61985 -0.031557 
-0.04471 -0.034516 0.058213 0.089616 0.17347 0.7961 0.90412 0.084684 
0.054267 -0.055397 -0.013307 0.099152 0.13072 0.54734 0.69006 0.26274 
0.2149 -0.021363 -0.054904 0.055089 0.10343 0.26932 0.35778 0.20997 
0.41253 0.039963 -0.090088 0.052623 0.027303 -0.045368 -0.0042642 -0.0072237 
0.2514 0.13269 -0.10242 0.060515 0.0032988 -0.38455 -0.17575 -0.10637 
-0.065919 0.13286 -0.11146 0.047526 -0.033365 -0.63611 -0.20436 -0.062138 
-0.17098 0.094384 -0.10078 0.050486 -0.030899 -0.71042 -0.2716 0.026152 
-0.033201 -0.0022913 -0.035174 0.042758 -0.049971 -0.56705 -0.31698 0.050157 
0.062817 -0.024487 0.076627 0.01563 -0.05178 -0.32125 -0.2744 0.090274 
-0.0088678 -0.050629 0.15259 -0.027447 -0.027447 -0.080552 -0.17641 0.14996 
-0.085813 -0.022185 0.13121 -0.0095255 0.024508 0.16426 -0.018404 0.14305 
-0.064275 0.021384 0.1299 0.024015 0.037497 0.40759 0.08978 -0.013143 
-0.012485 0.025824 0.13828 0.025659 0.028619 0.34807 0.094055 -0.26404 
0.058049 0.022371 0.063474 0.01826 0.01415 0.12135 0.035195 -0.35299 
0.079916 0.02533 -0.081703 0.02681 0.012177 -0.061316 -0.06148 -0.045039 
-0.0050863 0.10277 -0.16884 0.0689 0.062981 -0.097651 -0.062631 0.27886 
0.015959 0.18942 -0.19959 0.070544 0.069886 -0.14582 -0.20945 0.22 
0.010697 0.21342 -0.10916 0.068242 0.058542 -0.21422 -0.43601 -0.2111 
-0.10965 0.091753 0.043087 0.079916 0.023193 -0.30383 -0.68642 -0.50145 
0.055747 -0.046354 0.14881 0.046375 0.0041209 -0.3252 -0.75415 -0.59648 
0.57135 -0.0022913 0.047526 0.063145 -0.020706 -0.23527 -0.54749 -0.59171 
0.79331 0.1345 -0.13251 0.028947 -0.031064 -0.18956 0.01563 -0.27325 
0.29201 0.15801 -0.18002 0.055089 0.0060938 -0.11508 0.77161 0.25304 
-0.29133 0.13121 -0.1524 0.050157 0.04654 0.13993 1.2762 0.57266 
-0.4222 0.095042 -0.09239 0.058542 0.055582 0.378 1.6644 0.68266 
-0.23428 0.11263 -0.063946 0.05213 0.076956 0.27886 1.3444 0.34758 
-0.089431 0.086492 -0.052109 0.076956 0.079751 0.14815 0.29875 -0.0075525 
-0.13908 0.08978 -0.096172 0.059693 0.054925 0.14963 -0.61079 0.086657 
-0.19022 0.076134 -0.025802 0.026152 -0.00081153 0.0014903 -0.85083 0.34627 
-0.098144 -0.0034422 0.1932 -0.02087 -0.072167 -0.34559 -0.98631 0.60867 
0.15292 -0.19761 0.44689 -0.10143 -0.15848 -0.51691 -1.3857 0.90939 
0.31322 -0.34411 0.77605 -0.133 -0.1279 -0.40001 -1.456 0.51578 
0.45133 -0.37156 0.65438 -0.061645 0.05065 0.25304 -0.46462 -0.97546 
0.56592 -0.24316 0.18481 0.06479 0.17906 0.86088 0.95197 -2.3317 
0.22016 0.026646 -0.23132 0.10063 0.22246 1.0036 1.8054 -1.8623 
-0.33194 0.30746 -0.36893 0.12398 0.22263 0.73034 1.8247 -0.28722 
-0.48748 0.50312 -0.15914 0.11066 0.12316 0.14124 0.96973 0.8063 
-0.23707 0.42535 0.099974 0.047691 0.0013258 -0.46183 -0.11278 0.88916 
0.055254 0.232 0.18498 0.034373 -0.041422 -0.64367 -0.69908 0.47155 
0.17544 0.025495 0.17725 0.024344 -0.04323 -0.54206 -0.71206 0.14519 
0.20586 -0.058685 0.074654 0.030427 -0.026624 -0.53943 -0.59106 0.024015 
0.21227 -0.11343 0.0052718 -0.035174 -0.080223 -0.52069 -0.4222 0.025824 
0.15883 -0.084991 0.0026412 -0.064275 -0.047176 -0.22441 -0.0044286 0.11526 
0.14026 -0.065262 0.08008 -0.026296 0.00099702 0.07038 0.31749 0.17478 
0.057555 -0.12133 0.12842 -0.0095255 0.043087 0.17363 0.40513 0.24926 
-0.096007 -0.21751 0.10491 -0.0026201 0.043909 0.25354 0.32522 0.38901 
-0.22228 -0.16654 0.16656 0.047197 0.038155 0.48618 0.32062 0.39592 
-0.26174 -0.038133 0.13845 0.061337 0.020233 0.48257 0.29382 0.17528 
-0.21833 0.15193 -0.0022913 -0.026953 0.023028 0.18892 0.12201 -0.097158 
-0.028433 0.22739 -0.10801 -0.018239 0.00099702 -0.03501 -0.088937 -0.17279 
0.097837 0.24301 -0.0088678 -0.0011404 0.020562 -0.099789 -0.35973 -0.15092 
0.10852 0.16459 0.17314 0.025988 0.065118 -0.011827 -0.36778 -0.089266 
0.15341 0.053938 0.22164 0.024508 0.06594 0.024344 -0.18084 -0.14221 
0.20816 -0.0078813 0.16442 0.025659 0.067913 0.0046141 0.065118 -0.20353 
0.18284 -0.064604 0.12595 0.078929 0.054596 -0.145 0.24384 -0.25615 
0.14683 -0.073647 0.14321 0.048348 0.049664 -0.033365 0.47961 -0.08121 
0.094055 -0.12856 0.089452 0.040621 0.09685 0.18711 0.63498 -0.063782 
0.0592 -0.084005 0.09685 -0.0062372 0.0098754 0.26422 0.42338 -0.041422 
0.022535 0.01974 0.12513 0.0039565 -0.037805 0.28593 0.17856 0.15144 
-0.029091 0.072188 0.044896 -0.015938 0.045389 0.71077 0.27129 0.3216 
-0.11442 0.024179 0.0083956 0.0044497 0.076299 0.86647 0.30697 0.62807 
-0.07003 0.017767 0.029769 0.050157 0.035524 0.16459 -0.10801 0.60653 
0.10458 -0.010841 0.03651 0.029769 -0.026953 -0.46035 -0.48896 0.27261 
0.23348 0.044896 0.0786 0.033222 -0.041257 -0.63643 -0.56853 -0.00031829 
0.26866 0.055254 0.018589 0.051965 0.028619 -0.58514 -0.55373 -0.10308 
-0.038298 0.15999 -0.10587 0.09126 0.095206 -0.53203 -0.42812 -0.048492 
-0.48353 0.25535 -0.14402 0.076134 0.10425 -0.38866 -0.14566 -0.068714 
-0.44884 0.24301 -0.066577 0.061172 0.059857 -0.22787 0.11921 -0.21126 
-0.13168 0.10556 0.11674 0.027961 -0.051451 -0.46495 0.08715 -0.48764 
0.09685 -0.0024557 0.13121 -0.037805 -0.075127 -0.60092 -0.1501 -0.55982 
0.16245 -0.025309 0.1276 -0.042573 -0.047012 -0.010183 -0.35364 -0.35496 
0.18859 0.036839 0.091589 0.016123 0.03536 1.069 -0.076113 0.086163 
0.17445 0.072846 0.016945 0.054432 0.057391 1.3725 0.30483 0.43225 
0.22756 0.11625 -0.11705 0.047691 0.073175 1.0406 0.48684 0.4944 
0.20454 0.072846 -0.18249 0.043745 0.082053 0.82011 0.3101 0.33032 
0.042265 0.034209 -0.10456 0.059693 0.056569 0.61015 0.08978 0.1659 
-0.27785 0.061501 -0.015609 0.047197 0.043087 0.41006 0.17774 0.11757 
-0.36137 0.022042 0.031249 0.073832 0.043745 0.066763 0.24811 0.24417 
-0.26585 0.051143 -0.063453 0.10228 0.077285 -0.38784 0.2999 0.27524 
-0.17131 0.21671 -0.18726 0.092576 0.069722 -0.57034 0.20503 0.14815 
-0.055397 0.38244 -0.23938 0.042265 0.075805 -0.55373 0.11346 0.14716 
0.069229 0.30516 -0.26979 0.051965 0.071366 -0.3423 0.10343 0.2588 
0.12875 0.10984 -0.22425 0.049664 0.043251 -0.15059 0.015959 0.31782 
0.16886 -0.019555 -0.11261 0.020727 -0.024487 -0.13021 -0.093212 0.17922 
0.2223 -0.13168 0.089123 -0.023501 -0.042244 -0.133 -0.23938 -0.03912 
0.25814 -0.27045 0.36238 -0.020048 -0.045696 -0.12215 -0.31484 -0.26387 
0.18004 -0.29725 0.40891 0.019083 -0.045368 -0.044546 -0.32421 -0.62295 
-0.0965 -0.15536 0.29678 0.034866 -0.01676 0.047855 -0.28738 -0.83603 
-0.44259 0.094384 0.14091 0.036675 0.0080668 0.05772 -0.12083 -0.16325 
-0.54124 0.24778 0.026481 0.066269 0.029934 -0.1279 0.019083 0.75484 
-0.27949 0.22279 -0.073976 0.075805 0.034044 -0.35003 -0.057699 0.82997 
0.20651 0.095042 -0.059672 0.06479 0.049006 -0.36055 -0.28771 0.072024 
0.93898 -0.056219 0.045389 0.020891 0.029441 -0.13053 -0.31007 -0.64745 
1.3627 -0.12379 -0.003771 0.01152 0.0013258 -0.023336 -0.43059 -0.52578 
0.65652 0.019411 -0.028762 -0.041586 0.010204 0.048019 -0.67754 0.1761 
-0.54321 0.16442 -0.050136 -0.012978 0.082382 0.55951 -0.42829 0.5942 
-1.0784 0.29037 -0.11557 0.025659 0.066927 0.94095 0.2708 0.54258 
-0.68181 0.244 -0.20814 0.027632 0.070544 0.85579 0.66885 0.0079024 
0.15752 0.048513 -0.19318 -0.010183 0.032236 0.51019 0.54027 -0.68855 
0.55787 -0.11705 -0.047834 -0.0024557 0.016616 0.34643 0.59322 -0.7558 
0.28445 -0.12544 0.09126 0.060844 0.016123 0.29826 0.98469 0.10343 
0.05065 -0.10143 0.13138 0.084355 0.05476 0.080573 1.0894 0.79298 
-0.0039354 0.029441 0.024508 0.1128 0.0689 -0.46232 0.45478 0.63564 
-0.11146 0.13384 -0.15158 0.11247 0.059857 -1.1806 -0.48402 -0.011827 
-0.10932 0.19254 -0.10982 0.064954 -0.018733 -1.396 -1.0034 -0.49734 
0.019905 0.36271 -0.027282 -0.028269 -0.023994 -1.0675 -0.77043 -0.45098 
0.20849 0.28412 0.045553 -0.031064 -0.010019 -0.3395 -0.13218 0.02122 
0.28247 0.028783 0.081067 0.02829 0.060844 0.61081 0.60522 0.35498 
0.20898 -0.20912 0.14141 0.053116 0.085012 1.1891 0.98847 0.39477 
0.090767 -0.25319 0.37126 0.043909 0.07038 1.2119 0.65191 0.20898 
-0.076935 -0.21965 0.79101 0.013328 0.028619 0.99718 0.19566 -0.058356 
-0.32356 -0.17443 0.91859 -0.026296 0.015137 0.68397 0.051801 -0.13908 
-0.34772 -0.12396 0.46596 -0.025802 -0.0060728 -0.22326 -0.00081153 -0.0098543 
-0.14977 -0.024158 -0.19137 0.026974 -0.03764 -0.90969 -0.17114 0.019576 
0.093233 0.098988 -0.559 0.046375 -0.012156 -0.98894 -0.44818 0.063639 
0.25206 0.26077 -0.65288 0.014643 0.016123 -0.66422 -0.50721 0.02533 
0.32177 0.34479 -0.43503 -0.00015387 0.031249 -0.2379 -0.16934 0.066269 
0.39378 0.21375 -0.12988 -0.013307 -0.02087 -0.10669 0.049992 0.054432 
0.46284 -0.055232 0.036017 -0.0068948 -0.050793 -0.10801 0.029769 -0.2374 
0.34775 -0.17016 0.086657 -0.02498 -0.011498 -0.063946 0.0031344 -0.29856 
0.076463 -0.078086 0.13171 -0.030242 0.016781 -0.040928 -0.013471 -0.040928 
-0.21438 0.046375 0.25239 0.026481 0.01974 0.024508 0.13417 0.41532 
-0.29972 0.042758 0.34068 0.021878 0.06742 0.16755 0.16459 0.32785 
-0.24168 -0.0090322 0.28362 0.043416 0.10145 0.34594 0.075641 -0.23675 
-0.043724 -0.062467 0.12727 0.048841 0.10869 0.29365 0.15144 -0.68083 
0.21178 -0.031886 -0.025145 0.12233 0.087314 0.10228 0.22033 -0.60125 
0.19205 0.12003 -0.07562 0.11806 0.040456 -0.14895 0.18235 -0.16802 
-0.023336 0.22213 -0.026296 0.088301 0.025001 -0.26124 0.046375 0.26965 
-0.13859 0.22361 -0.0049219 0.068407 -0.0032777 -0.16966 0.026974 0.41631 
-0.087786 0.069722 -0.03057 0.034373 -0.0050863 0.029112 0.080244 0.39871 
0.023193 -0.14418 -0.022021 0.0026412 0.02533 0.183 -0.0011404 0.25091 
0.099974 -0.17821 0.0024767 -0.001798 0.047362 0.37915 0.074819 0.096686 
0.055089 0.12595 -0.11343 0.047691 0.074819 0.65093 0.30631 0.053116 
-0.12577 0.62429 -0.23987 0.023028 0.080738 0.55146 0.34939 0.12677 
-0.15832 0.7675 -0.17904 0.061172 0.057884 0.26866 0.29711 0.13417 
-0.034681 0.18925 0.054925 0.084519 0.028619 -0.06855 0.21391 0.069722 
-0.019719 -0.352 0.21835 0.032236 0.01563 -0.29051 0.083204 -0.031557 
-0.0095255 -0.44818 0.33344 -0.034516 0.010204 -0.44983 -0.16999 -0.023665 
0.10474 -0.3594 0.35005 -0.052766 -0.03205 -0.62345 -0.5465 -0.16802 
0.16558 -0.27226 0.34955 -0.0083746 -0.045203 -0.76829 -0.85839 -0.18084 
0.048019 0.1978 0.17363 0.046211 -0.044874 -0.97891 -0.80183 -0.11278 
-0.11755 0.57447 -0.018897 0.061337 -0.0054151 -0.83603 -0.43848 -0.03912 
-0.14221 0.37274 -0.13941 0.059528 -0.003771 -0.39606 -0.20074 -0.055397 
-0.021199 0.060844 -0.16062 0.015137 1.0539e-005 0.30944 -0.093376 -0.10949 
0.19303 -0.094527 -0.16605 1.0539e-005 -0.024158 0.91744 0.013328 -0.24266 
0.34035 -0.10308 -0.16786 0.0092177 0.01974 1.1062 -0.05441 -0.20649 
0.23414 -0.037476 -0.11261 0.037332 0.060186 1.1133 -0.088773 -0.089924 
0.0052718 0.021713 -0.1182 0.042758 0.089123 0.82504 0.33854 0.14206 
-0.16259 0.091589 -0.13859 0.061337 0.12414 0.023522 0.7065 0.50591 
-0.2032 0.11181 -0.13415 0.11132 0.17232 -0.65337 0.62248 0.56691 
-0.12001 0.10852 -0.088444 0.11362 0.14946 -0.98187 0.28149 0.36517 
0.014643 0.15555 -0.098802 0.082053 0.062159 -0.87171 0.042594 0.18646 
-0.00081153 0.16936 -0.1792 0.042594 -0.028597 -0.55801 -0.19663 0.13467 
-0.13218 0.15883 -0.15881 0.027961 -0.078415 -0.26782 -0.48402 0.05476 
-0.10587 0.1687 -0.027775 0.0062583 -0.077593 0.39099 -0.58185 -0.10061 
0.0044497 0.14289 0.17149 0.012999 -0.0047575 1.2461 -0.17476 -0.017253 
0.12053 -0.0072237 0.21342 -0.0042642 0.03651 1.3189 0.34807 0.12957 
0.087479 -0.14648 0.073339 -0.0098543 0.051965 0.7647 0.40217 0.055911 
-0.0052507 -0.073154 0.03651 -0.048327 0.027632 0.14157 0.183 -0.14813 
0.021384 0.19764 0.19912 -0.025145 0.039634 -0.053917 0.0021479 -0.30991 
0.090603 0.31305 0.58072 0.060022 0.060844 -0.1741 -0.18643 -0.17377 
0.016945 0.26011 0.68184 0.074983 0.070544 -0.27242 -0.26174 0.13023 
-0.11837 0.0074092 0.44886 0.073997 0.090109 -0.2009 -0.080881 0.3101 
-0.16966 -0.21537 0.14042 0.049335 0.025988 -0.067564 0.13088 0.22444 
-0.086636 -0.26519 -0.10357 0.01974 0.0032988 -0.026131 0.17511 -0.073811 
0.090109 -0.22557 -0.083018 -0.01676 -0.021528 -0.021692 0.11083 -0.30415 
0.30039 -0.1649 0.022371 -0.019719 -0.024816 -0.089431 -0.010183 -0.17509 
0.53485 -0.056383 0.029276 -0.0034422 -0.0075525 -0.1672 -0.082854 0.013328 
0.7065 0.03947 -0.10456 0.030098 1.0539e-005 -0.12494 -0.12478 0.13121 
0.35679 0.11855 -0.21521 0.034866 0.027796 -0.053424 -0.16966 0.17856 
-0.086307 0.14831 -0.21455 0.059528 0.05065 0.088794 -0.044052 0.23446 
-0.1575 0.11921 -0.13843 0.096357 0.074983 0.23858 0.24992 0.33673 
0.015959 0.12184 -0.053424 0.08567 0.04654 0.48141 0.51545 0.39033 
0.062159 0.17495 -0.0072237 0.062323 0.079916 0.45248 0.51841 0.34807 
-0.25779 0.24893 0.020727 0.037497 0.018425 0.039141 0.098166 0.2828 
-0.57429 0.19353 -0.043559 0.02122 0.063474 -0.23543 -0.37896 0.058377 
-0.53631 0.053445 -0.15552 0.015959 0.0046141 -0.33704 -0.73163 -0.21537 
-0.33342 -0.068221 -0.099789 0.01004 -0.0060728 -0.30695 -0.6583 -0.3982 
-0.13349 -0.072825 0.087479 0.01267 0.00099702 -0.016924 0.00033937 -0.3954 
-0.049642 -0.052931 0.28593 -0.039942 0.018918 0.55228 0.96348 0.12743 
0.028454 0.018589 0.39049 -0.06 0.046046 1.1284 1.8801 0.94095 
0.55359 -0.075784 0.35317 -0.064275 0.097179 1.2785 2.3117 1.1008 
0.98271 -0.39031 0.40694 -0.0059084 0.055911 0.86976 1.6103 0.34988 
0.75401 -0.63101 0.56165 0.032236 0.048019 0.32637 0.27442 -0.78622 
0.36583 -0.43388 0.3928 0.073504 0.065447 0.23594 -0.50655 -1.1662 
0.043251 -0.071838 0.075641 0.11231 0.093891 0.0036276 -0.96115 -0.63643 
-0.18282 0.13384 -0.17706 0.067585 0.062817 -0.45147 -1.4324 -0.291 
-0.26683 0.1932 -0.25352 0.064625 0.028619 -0.79805 -1.5621 -0.078908 
-0.15092 0.1932 -0.28508 0.022206 -0.0059084 -0.89522 -1.1366 -0.049807 
-0.0088678 0.18826 -0.17525 -0.008539 -0.045861 -0.86217 -0.52578 -0.25911 
-0.11672 0.18678 0.013986 -0.027775 -0.060165 -0.66636 -0.11327 -0.52052 
-0.21586 0.22411 0.046375 0.00083261 -0.056383 -0.42977 0.091425 -0.38735 
-0.087293 0.14749 -0.021199 0.059035 0.02122 -0.09387 0.33163 0.21638 
0.22904 0.061501 0.017274 0.051472 0.013657 0.11461 0.47961 0.82405 
0.34594 -0.029748 0.17067 0.005765 -0.0088678 0.12332 0.53436 0.88982 
0.015959 -0.014951 0.20619 -0.019884 -0.019719 0.1128 0.40841 0.61492 
-0.23921 0.062981 0.043909 -0.033694 0.00066819 0.14437 0.30303 0.21901 
-0.2032 0.18202 -0.13021 -0.010348 0.029441 0.20355 0.27261 -0.12429 
-0.03205 0.14387 -0.16523 0.036839 0.080902 0.18169 0.19188 -0.30563 
0.1179 -0.0027845 0.044073 0.0786 0.052623 0.067256 0.14535 -0.25828 
0.17873 -0.082854 0.13335 0.038319 0.05772 -0.0036066 0.083533 -0.24266 
0.14058 -0.063289 -0.07414 0.011191 0.019576 -0.013143 0.011848 -0.18002 
0.093069 -0.084991 -0.27357 0.025988 0.017932 -0.0096899 -0.045532 -0.073811 
0.12924 -0.1113 -0.27538 0.043416 0.040456 -0.021034 -0.042079 -0.02235 
0.17906 -0.12527 -0.11985 0.018425 0.039305 -0.04323 -0.078415 -0.055561 
0.14535 -0.011005 -0.042901 0.0060938 -0.025309 -0.077922 -0.13925 -0.079237 
-0.028926 0.18646 1.0539e-005 0.039305 -0.029748 -0.19334 -0.24003 0.005765 
-0.1935 0.34183 0.072353 0.054267 -0.025474 -0.41497 -0.65633 0.16853 
-0.20041 0.29415 0.16969 0.0083956 -0.0004827 -0.44029 -0.82107 0.22394 
-0.11245 0.23841 0.15242 -0.011827 0.0227 -0.15273 -0.49603 0.014479 
0.005765 0.29316 0.073832 0.0047785 0.026152 0.20898 -0.13514 -0.30087 
0.1322 0.24384 0.0421 -0.037969 0.036675 0.48109 0.16262 -0.3959 
0.20438 0.012342 0.041607 -0.033859 0.04654 0.45429 0.35268 -0.25056 
0.17445 -0.25335 0.12168 0.012999 0.090109 0.2269 0.59963 0.081395 
0.10113 -0.36548 0.26768 0.095206 0.060022 -0.06148 1.01 0.46004 
0.093726 -0.34033 0.3124 0.040456 0.060679 -0.10078 0.95427 0.56855 
-0.00031829 -0.19301 0.081395 0.048513 0.00297 -0.12544 0.44607 0.42305 
-0.066906 0.12201 -0.21274 0.1077 0.031742 -0.28097 -0.10456 0.1807 
-0.17295 0.30894 -0.30794 0.073832 -0.02087 -0.45098 -0.45032 -0.11442 
-0.16325 0.27524 -0.12626 0.073504 -0.012156 -0.60487 -0.66208 -0.080388 
-0.085649 0.1516 -0.014293 0.05476 -0.038298 -0.52036 -0.64531 0.14486 
-0.045203 0.10096 0.012999 0.040128 -0.00015387 -0.23707 -0.41678 0.12562 
0.042758 0.16229 0.0088889 0.012835 0.0044497 0.024508 -0.33704 -0.0040998 
0.073504 0.24515 -0.071345 0.04095 -0.043559 0.014808 -0.50786 -0.20551 
0.048841 0.23792 -0.1478 0.054432 0.0044497 -0.055232 -0.5927 -0.24562 
0.019576 0.12365 -0.17953 0.07597 0.07301 0.2371 -0.14171 -0.13563 
0.12365 -0.0011404 -0.096829 0.025824 0.090109 0.39164 0.39066 0.066763 
0.28132 -0.057041 -0.015773 0.02533 0.093398 0.58878 0.78114 0.26406 
0.34331 0.020069 0.035195 0.035853 0.1054 0.76585 0.9763 0.44196 
0.15818 0.05213 0.14026 0.048348 0.13105 0.67033 0.7014 0.38457 
-0.13826 -0.029255 0.15094 0.054103 0.099645 0.27031 0.10787 0.28182 
-0.39113 0.031907 0.27294 0.055254 0.056569 -0.0029489 -0.20189 0.29793 
-0.55998 0.13976 0.34627 -0.0052507 -0.017088 0.042758 -0.085485 0.61064 
-0.59303 0.28165 0.23858 -0.017746 -0.033037 0.085835 0.11362 0.94671 
-0.20518 0.17988 -0.0004827 0.018589 -0.065919 -0.15947 0.035524 0.31157 
0.50016 -0.055726 -0.2032 0.06183 -0.069701 -0.49076 -0.10439 -0.80825 
0.94046 -0.12018 -0.17377 0.056404 -0.045532 -0.6195 -0.27818 -1.4919 
0.59124 -0.058028 0.056404 0.05772 -0.012156 -0.58136 -0.58251 -1.1381 
0.027303 -0.012649 0.53929 0.048513 -0.020377 -0.41481 -0.59862 0.17412 
-0.20814 -0.018897 0.60571 0.020891 0.017438 -0.088608 -0.23559 1.2481 
-0.20123 0.0031344 0.20158 0.025001 0.067256 0.28362 0.21917 1.0911 
-0.10406 0.10392 -0.19992 0.062323 0.11115 0.36517 0.22148 -0.25565 
0.038483 0.17117 -0.31007 0.069722 0.066598 0.14404 -0.13185 -1.265 
0.16442 0.20684 -0.1547 -0.012156 0.040128 -0.016924 -0.026296 -1.0245 
0.24088 0.21605 0.029769 -0.014622 0.065118 0.079916 0.48733 -0.031557 
0.20931 0.20684 0.12776 0.045882 0.10063 0.10162 0.84165 0.8428 
-0.022021 0.14338 0.16689 0.11 0.10622 0.25633 0.85776 0.97301 
-0.18134 -0.017746 0.10195 0.11855 0.088465 0.55639 0.54192 0.31305 
-0.065262 -0.21143 -0.023336 0.064954 0.057391 0.9592 0.3341 -0.34707 
0.096521 -0.23691 -0.10653 0.042758 0.052294 1.1697 0.23874 -0.47399 
0.077449 -0.16473 -0.05885 -0.013307 0.065447 1.109 -0.049971 -0.19581 
-0.064604 -0.066248 0.016123 -0.02498 0.10721 1.1031 -0.16983 0.19813 
-0.14895 0.041278 0.023686 -0.014951 0.093562 0.73034 -0.035338 0.39296 
-0.078415 0.1909 0.02533 0.039141 0.053445 -0.097816 0.2246 0.36813 
0.023357 0.29201 0.048677 0.0047785 -0.018404 -0.72719 0.19731 0.183 
0.10787 0.36024 0.019411 -0.0059084 -0.021528 -0.88092 -0.13152 0.0021479 
0.18481 0.21227 0.017932 0.016616 -0.021692 -0.63019 -0.3834 -0.14911 
0.20158 -0.0078813 -0.0032777 0.0085601 -0.0077169 -0.29495 -0.32783 -0.2476 
0.20947 -0.073318 0.02681 0.014643 0.014315 0.011684 -0.14171 -0.31287 
0.053609 -0.0091966 0.0087245 0.011191 0.023193 0.057391 0.086985 -0.15783 
-0.10357 0.042594 0.025166 0.03388 0.0019835 -0.053588 0.22772 0.018425 
-0.15898 0.05772 0.032564 -0.014622 -0.0004827 -0.12807 0.16311 0.054596 
-0.0022913 0.01415 0.032071 -0.0138 -0.0027845 -0.12445 0.0036276 -0.077593 
0.40315 -0.038298 0.086328 0.035853 0.048841 -0.025967 -0.080059 -0.1695 
0.83622 0.0032988 0.007738 0.050979 0.053281 0.10885 -0.015773 -0.074633 
0.4727 0.088794 -0.14336 0.053938 0.031085 0.17133 0.088136 0.1225 
-0.46988 0.23233 -0.28459 0.026974 0.049828 0.16459 0.10836 0.19172 
-1.018 0.25732 -0.28163 0.0227 0.032729 0.094548 0.047526 0.10803 
-0.71322 0.096686 -0.20912 -0.0029489 0.011355 -0.041257 -0.29774 0.036675 
0.079422 -0.20781 -0.12429 0.00066819 0.0016547 -0.10571 -0.43865 0.19566 
0.58565 -0.29363 0.0042853 0.028783 0.014972 -0.060329 -0.31386 0.14354 
0.53107 -0.13563 0.10787 0.01711 0.023686 -0.019555 -0.086964 -0.1039 
0.03536 0.048513 0.27524 -0.017746 0.018918 -0.0014692 0.061337 -0.40067 
-0.43585 0.053116 0.37553 -0.041751 -0.012978 0.08863 0.20092 -0.17591 
-0.39014 -0.0406 0.40003 -0.0024557 0.020069 0.25699 0.57151 0.40414 
-0.016266 -0.15487 0.46333 -0.022514 0.053938 0.30253 0.78394 0.60209 
0.24729 -0.098473 0.39 0.0031344 0.055089 0.16426 0.51019 0.27705 
0.25567 0.01415 0.16558 0.046046 0.018918 -0.038956 0.034866 -0.035832 
0.18383 0.012506 -0.074304 0.082711 0.030263 -0.23494 -0.19367 -0.14944 
0.13795 -0.040106 -0.24447 0.05476 0.025001 -0.35167 -0.23083 -0.17854 
0.12168 0.08715 -0.38505 0.06742 0.049992 -0.33605 -0.23247 -0.19235 
0.09685 0.24499 -0.39573 0.097672 -0.0036066 -0.40708 -0.23411 -0.1478 
0.036675 0.1932 -0.19235 0.041772 -0.032872 -0.56179 -0.37255 -0.045861 
0.023686 0.025001 0.02533 0.00099702 -0.060658 -0.5927 -0.42911 0.089287 
-0.010019 -0.1524 0.092904 -0.015938 -0.053753 -0.52151 -0.32372 0.22707 
-0.054739 -0.13333 0.082382 0.019576 -0.060494 -0.50014 -0.30004 0.23151 
-0.12823 -0.047341 0.13516 0.0064227 -0.071016 -0.49701 -0.45394 0.16656 
-0.15816 0.14042 0.19468 -0.03764 -0.057699 -0.26223 -0.64975 0.07038 
-0.14517 0.15966 0.18843 -0.046847 -0.036983 0.15193 -0.45048 -0.024816 
-0.17427 0.12332 0.13269 -0.017911 0.035688 0.47878 0.31125 -0.052766 
-0.1986 0.080573 0.062488 0.041936 0.077285 0.63827 0.96068 0.0082312 
-0.054575 0.03799 0.036182 0.074326 0.11691 0.74744 1.1659 0.11905 
0.24022 -0.014293 0.0689 0.11609 0.13253 0.75862 1.01 0.25123 
0.43423 -0.08384 0.10556 0.032071 0.084355 0.37833 0.51183 0.17265 
0.39888 -0.16786 0.13861 0.0046141 -0.0078813 -0.18249 -0.18134 -0.24036 
0.20487 -0.11261 0.11033 0.018425 -0.031721 -0.47613 -0.53187 -0.56245 
-0.0019624 0.055254 0.042758 0.034537 0.0051074 -0.53762 -0.59303 -0.23263 
-0.099131 0.15341 -0.074962 0.050814 0.034537 -0.47071 -0.32454 0.30927 
-0.22557 0.24762 -0.12034 0.052787 0.041443 -0.36795 0.017767 0.75336 
-0.22228 0.23529 -0.10867 0.11378 0.044896 -0.43273 0.19385 0.56477 
-0.06148 0.20569 -0.029255 0.046375 -0.003771 -0.45394 0.18761 -0.022185 
0.1105 0.16886 0.0592 0.016945 0.0011614 -0.25615 0.14963 -0.6606 
0.24778 0.12266 0.14075 0.01826 0.0024767 0.042923 0.016123 -0.70532 
0.37931 0.035195 0.11494 0.024508 -0.02942 0.19681 -0.20912 -0.15618 
0.38737 -0.0077169 0.11855 0.0056006 -0.031392 0.17363 -0.32487 0.75401 
0.095371 -0.057534 0.19747 -0.0057439 0.019083 0.44048 -0.094034 1.0774 
-0.22014 -0.15783 0.2292 0.032729 0.066105 0.67312 0.077614 0.56724 
-0.39886 -0.20666 0.10918 0.031085 0.081889 0.49112 -0.040764 -0.077428 
-0.29955 -0.031064 -0.1353 0.053281 0.090931 0.22016 -0.20896 -0.41678 
0.012013 0.047197 -0.19893 0.032893 0.079751 0.15735 -0.19844 -0.56491 
0.36238 -0.12626 -0.15832 -0.0036066 0.0421 0.28921 0.027303 -0.72588 
0.42173 -0.2203 -0.1353 -0.019719 0.0088889 0.33081 0.35301 -0.59829 
0.14042 -0.096994 0.10852 0.041772 0.025001 0.066269 0.44574 -0.15355 
-0.145 0.029276 0.30796 0.10984 0.079258 -0.0091966 0.49539 0.27557 
-0.13991 0.040128 0.22148 0.1003 0.10902 0.010533 0.55047 0.48092 
-0.091239 -0.0042642 0.021056 0.083368 0.068242 0.023028 0.48585 0.62725 
-0.099953 0.17001 -0.086471 0.10524 0.032893 -0.052273 0.20421 0.54652 
-0.040271 0.5411 -0.090417 0.12513 0.00297 -0.19482 -0.10949 0.31092 
0.16097 0.85858 0.058871 0.067749 0.00017495 -0.43947 -0.28245 -0.29577 
0.3854 0.64616 0.21474 0.01267 -0.026953 -0.63364 -0.5317 -0.75021 
0.40989 0.19862 0.15999 -0.0059084 -0.043559 -0.57412 -0.79493 -0.49948 
0.2782 -0.133 -0.013965 -0.058028 -0.058521 -0.39064 -1.0185 0.015959 
0.07301 -0.2208 -0.23428 -0.054082 -0.012814 0.18054 -0.70845 0.34939 
-0.13793 -0.16588 -0.24677 -0.0060728 0.077121 0.99505 0.10014 0.4288 
-0.25795 -0.12396 -0.097158 0.056404 0.16492 1.5838 0.83918 0.27425 
-0.28015 -0.11261 0.077614 0.079422 0.24663 1.9251 1.3974 0.43242 
-0.21159 -0.058685 0.19468 0.089123 0.20701 1.2311 1.1746 0.51676 
-0.23099 0.076463 0.16656 0.11625 0.11148 0.10852 0.4949 0.40299 
-0.20501 0.082711 0.12283 0.076299 0.0098754 -0.56738 -0.15684 -0.31862 
-0.049149 0.034702 0.055254 0.035195 -0.050464 -0.74528 -0.48879 -1.0256 
0.10935 0.028947 -0.026296 0.018589 -0.038791 -0.48057 -0.36022 -0.98516 
0.21079 0.084848 -0.10686 0.050157 0.012342 -0.28114 -0.19186 -0.43453 
0.50377 0.066269 -0.22737 0.015959 -0.036983 -0.49948 -0.24513 -0.050629 
0.60357 0.088136 -0.2282 0.0042853 -0.033694 -0.70582 -0.1062 0.082875 
0.20109 0.15916 -0.18068 0.035031 -0.027447 -0.62476 0.091589 0.054432 
-0.30859 0.21424 -0.061316 0.023193 -0.011498 -0.41398 0.18777 0.11707 
-0.50967 0.2297 0.11461 -0.027775 -0.003771 -0.093705 -0.051122 0.30598 
-0.30465 0.17117 0.26439 -0.023007 0.00297 0.3101 -0.48649 0.37389 
0.17412 0.10441 0.35071 0.039141 0.048841 0.79873 -0.48501 0.18794 
0.66786 -0.0087034 0.40496 0.041936 0.13203 1.3023 0.086985 0.0592 
0.5651 -0.23444 0.62873 0.076463 0.17265 1.121 0.7966 0.32407 
0.0054362 -0.48797 0.77621 0.068078 0.076792 0.27047 0.75023 0.51972 
-0.3446 -0.47991 0.50558 0.059857 -0.010348 -0.61523 -0.0083746 0.28691 
-0.23231 -0.12577 -0.032215 0.046375 -0.05178 -1.1006 -0.57462 -0.064768 
-0.021856 0.19961 -0.39162 0.023522 -0.075455 -1.169 -1.0756 -0.3857 
0.061172 0.28675 -0.41793 0.030427 -0.081703 -0.91446 -1.2441 -0.51049 
0.047197 0.25617 -0.29051 -0.0083746 -0.037969 -0.34033 -0.91873 -0.31418 
-0.1598 0.26373 -0.26108 0.021056 0.051308 0.47747 0.023193 0.055418 
-0.24941 0.28165 -0.29824 0.042594 0.17873 1.1498 1.292 0.21342 
-0.056383 0.19813 -0.24677 0.11461 0.17084 1.4102 1.683 0.18366 
0.24581 0.078436 -0.1039 0.09833 0.1835 1.4176 1.5243 0.09981 
0.44442 -0.040928 0.026646 0.071859 0.13187 0.9403 1.3125 -0.052437 
0.41927 -0.073482 0.073832 0.039799 0.039799 0.21062 0.83343 -0.33063 
0.024837 -0.0011404 0.09833 0.017603 -0.03501 -0.3035 0.23003 -0.42829 
-0.37995 0.12513 0.097508 0.0059294 0.0024767 -0.60076 -0.17345 -0.052931 
-0.34707 0.17971 0.21326 -0.0091966 -0.023501 -0.79065 -0.49931 0.29974 
-0.21932 0.15851 0.33377 0.0024767 -0.062467 -0.83587 -0.81959 0.38342 
-0.11064 0.051965 0.1248 -0.0091966 -0.07973 -0.66274 -0.79592 0.4556 
1.0539e-005 -0.039778 -0.04323 0.029769 -0.035174 -0.2933 -0.39491 0.75944 
0.033551 -0.095514 -0.045532 0.026646 -0.025309 0.053116 0.041278 0.68529 
0.15061 -0.089266 -0.040106 0.0080668 0.019247 0.26143 0.31437 0.41516 
0.53173 -0.11376 -0.12396 0.0041209 0.039963 0.18596 0.37981 -0.61835 
0.79183 -0.145 -0.14418 -0.00097594 0.02681 0.019247 0.17297 -1.3335 
0.56231 -0.14813 -0.038956 0.021549 -0.02235 -0.12955 -0.16621 -0.60964 
-0.0055795 -0.035174 0.033551 0.035031 0.013328 -0.10982 -0.39392 0.42979 
-0.48485 0.10195 0.10556 0.083368 0.067585 0.17051 -0.42697 1.0682 
-0.6874 0.22164 0.06742 0.11543 0.065283 0.15768 -0.42894 0.877 
-0.43766 0.16146 0.032071 0.07597 0.056898 0.034209 -0.37715 -0.21866 
-0.055726 0.035031 0.098659 -0.020541 0.018425 0.0098754 -0.2933 -0.96247 
0.20536 -0.10702 0.21276 -0.042737 -0.0062372 -0.053095 -0.19153 -0.63084 
0.26537 -0.13152 0.28231 -0.011334 -0.013143 0.058049 0.30187 0.082382 
0.085506 -0.028926 0.097179 0.022371 0.063145 0.35597 1.2325 0.53896 
-0.13793 0.10474 -0.14434 0.037661 0.09126 0.42305 1.608 0.62067 
-0.21356 0.2371 -0.28278 0.031742 0.056076 0.17626 1.1713 0.56576 
-0.05178 0.22345 -0.303 -0.009361 -0.026789 -0.12626 0.40463 0.36682 
0.15785 0.11428 -0.23559 -0.016266 -0.063453 -0.26437 -0.31698 -0.079895 
0.15538 0.050486 -0.2111 0.010533 -0.028597 -0.267 -0.65107 -0.29709 
0.064461 -0.011005 -0.1016 0.048841 0.023193 -0.24579 -0.62361 -0.38011 
0.031907 -0.16161 0.081067 0.020398 0.051143 -0.16144 -0.39014 -0.26437 
0.049828 -0.2596 0.13088 0.012506 0.038977 -0.21406 -0.14582 -0.15487 
0.075312 -0.33868 0.21967 0.010533 0.016945 -0.41201 -0.17361 -0.18084 
0.082875 -0.20123 0.43521 0.029605 0.02533 -0.4421 -0.29676 -0.23724 
0.11905 0.073339 0.50049 0.0093821 0.023686 -0.23263 -0.28508 -0.15322 
0.12003 0.4362 0.29596 0.011026 0.018096 0.015137 -0.18627 -0.023829 
0.043416 0.5217 0.041772 0.018918 0.013164 0.17149 -0.15848 0.045389 
-0.047505 0.4025 -0.11722 0.010533 0.0031344 0.36008 -0.19334 0.091753 
-0.025309 0.24762 -0.22244 0.026646 0.036346 0.58664 -0.030242 0.20816 
0.088136 -0.15552 -0.15125 0.024344 0.015137 0.39937 0.12858 0.34544 
0.12891 -0.43914 -0.029748 0.039963 -0.014458 -0.10176 -0.024323 0.32719 
0.054925 -0.31747 0.012506 0.031249 -0.010348 -0.41793 -0.10538 0.23151 
-0.066248 0.26126 -0.057699 0.028947 0.042758 -0.47136 0.076956 0.10787 
-0.12133 0.74875 -0.17197 0.080573 0.047362 -0.47679 0.10113 0.0095465 
-0.086964 0.5651 -0.18693 0.049006 0.062488 -0.49044 -0.037476 -0.089431 
-0.031721 0.13812 -0.1011 0.077778 0.037168 -0.35841 -0.13481 -0.11327 
0.0047785 -0.03057 0.0031344 0.061172 0.054596 -0.10489 -0.19564 -0.1085 
0.017767 -0.13662 0.063474 0.049828 0.012506 0.17166 -0.23 -0.074962 
0.029112 -0.26552 0.12743 -0.0013048 -0.0047575 0.47862 -0.19778 -0.076771 
0.11263 -0.31895 0.28379 -0.043888 -0.0039354 0.56033 -0.26733 -0.01117 
0.25814 -0.19137 0.40036 -0.036818 0.0062583 0.50295 -0.065097 0.15834 
0.38605 -0.024487 0.28593 -0.03205 0.050321 0.40282 0.40924 0.34199 
0.39937 0.099645 0.01267 -0.0075525 0.0689 0.14437 0.61591 0.24811 
0.20273 0.14979 -0.099131 0.035031 0.046375 -0.038627 0.48553 -0.11245 
-0.090417 -0.048327 0.1271 0.044731 0.025659 -0.12198 0.18251 -0.56278 
-0.23773 -0.23839 0.34002 0.042758 0.033058 -0.12396 0.0052718 -0.40067 
-0.22261 -0.13448 0.30155 0.055911 0.028454 -0.22557 -0.13777 0.20734 
-0.17805 0.13664 0.070051 0.072188 0.0079024 -0.51428 -0.15602 0.65849 
-0.14056 0.34692 -0.20715 0.097672 0.044402 -0.50951 -0.13744 0.56412 
-0.081868 0.34824 -0.34723 0.062981 0.029441 -0.27801 -0.35249 0.034702 
0.12612 0.16327 -0.24727 0.017274 -0.035174 0.038648 -0.61786 -0.53137 
0.3387 -0.0014692 0.025001 -0.0138 -0.060658 0.090603 -0.70006 -0.46577 
0.42107 -0.072167 0.14733 -0.084663 -0.024323 0.042429 -0.43552 -0.12725 
0.33985 -0.0096899 0.016781 -0.021856 0.051965 0.37997 0.15127 -0.060494 
0.061172 0.093069 -0.17016 0.052459 0.070215 0.53452 0.69482 0.23035 
-0.25023 0.18119 -0.23346 0.11576 0.13467 0.44261 0.82077 0.60555 
-0.35644 0.17232 -0.075127 0.082711 0.18432 0.47023 0.44475 0.56083 
-0.17443 0.071531 0.060515 -0.0016336 0.12201 0.95 0.47023 0.22674 
-0.0075525 0.037826 0.090767 -0.017088 0.11707 1.3799 0.80038 -0.16621 
-0.22392 -0.080552 0.0227 -0.032215 0.066598 0.925 0.85332 -0.1644 
-0.43453 -0.0088678 -0.079237 -0.014951 0.038319 -0.042079 0.50295 -0.038791 
-0.2596 0.10819 -0.092883 0.024508 0.056898 -0.51493 0.077121 0.12842 
0.27244 0.15226 -0.064768 0.095864 0.040621 -0.50162 -0.22244 0.083697 
0.91415 0.15949 0.024837 0.070051 -0.026624 -0.54666 -0.52447 -0.27604 
0.88867 0.17018 0.21901 0.050486 -0.040435 -0.5391 -0.68658 -0.4518 
0.2657 0.17676 0.2588 0.10688 0.0013258 -0.34 -0.48846 -0.09239 
-0.26897 0.10622 0.19961 0.084684 0.017932 -0.019226 -0.0027845 0.52926 
-0.35496 -0.03501 0.22723 0.030756 -0.013965 0.12299 0.37718 0.69746 
-0.22852 -0.19022 0.40907 -0.031886 -0.042244 0.085341 0.23151 0.31963 
-0.10078 -0.34674 0.69039 -0.031721 -0.015773 0.090109 -0.13744 -0.29856 
-0.059343 -0.47646 0.76125 -0.047998 0.064132 0.31174 -0.13695 -0.53943 
-0.10883 -0.46725 0.45577 -0.006566 0.054925 0.47714 0.20651 -0.36186 
-0.032708 -0.24924 0.052952 0.054432 0.065283 0.45001 0.44886 -0.05885 
0.026646 -0.084005 -0.19581 0.046046 0.097508 0.43143 0.51134 0.18859 
0.004943 0.00066819 -0.25812 0.055254 0.11855 0.36567 0.38523 0.25896 
0.025166 -0.022514 -0.24069 -0.0026201 0.064296 0.16837 0.17462 0.12316 
0.14371 0.0052718 -0.25023 0.0052718 0.028947 -0.057699 -0.024158 -0.037969 
0.14617 0.18448 -0.28755 0.0069159 0.0064227 -0.19778 -0.13415 -0.11163 
0.090438 0.36896 -0.30613 0.0098754 0.01152 -0.21159 -0.080388 -0.084005 
0.058213 0.37044 -0.15125 0.04917 0.005765 -0.16243 -0.018075 -0.081539 
0.069886 0.28856 0.23315 0.026974 0.0023123 -0.17986 -0.014622 -0.02235 
0.12875 0.17725 0.4242 0.0075736 0.0023123 -0.17032 -0.0072237 0.022864 
0.11214 0.1465 0.29037 -0.0052507 0.022535 -0.093705 0.095042 0.083697 
-0.015116 0.16245 0.084848 0.017438 0.027961 0.031085 0.16886 0.16673 
-0.21932 0.14223 -0.035996 0.012342 0.0034632 0.036675 0.10228 0.26225 
-0.40346 0.079916 -0.026131 0.01004 -0.0049219 -0.31945 -0.55176 0.43571 
-0.37798 0.062323 -0.014458 0.058706 -0.044217 -1.0677 -1.3347 0.55474 
-0.13234 -0.0022913 0.016781 0.10474 -0.063946 -1.5751 -1.7023 0.21967 
0.28116 -0.088608 0.063145 0.090274 -0.11278 -1.7385 -1.6277 -0.47909 
0.80893 -0.20847 0.1636 0.021549 -0.13415 -1.2658 -0.86135 -1.3303 
1.07 -0.18857 0.22855 -0.0080457 -0.09091 -0.40872 0.050979 -1.665 
0.61673 -0.053424 0.18876 -0.021363 0.039305 1.1419 1.2068 -0.7803 
-0.36811 0.17906 0.11346 0.04917 0.26242 3.0695 2.6351 0.72771 
-0.90262 0.29809 0.032564 0.11559 0.33525 3.2148 3.126 1.4416 
-0.66521 0.28675 0.025495 0.095699 0.19484 1.8783 2.1412 1.1723 
-0.13793 0.17067 0.047855 0.0065871 0.082875 0.72491 0.76815 0.66704 
0.24301 0.0021479 0.028783 -0.034845 -0.011663 -0.076442 -0.34246 0.20734 
0.34068 -0.18298 -0.011334 -0.0013048 -0.047176 -0.87187 -1.067 -0.098638 
0.26422 -0.22178 -0.081703 0.015301 -0.055726 -1.3626 -1.3137 -0.32092 
0.12135 -0.069372 -0.13859 0.055747 -0.012649 -1.3303 -1.2444 -0.41135 
0.022206 0.18202 -0.17361 0.045553 0.012342 -0.96641 -1.0342 -0.41102 
-0.034845 0.34758 -0.22787 0.060515 -0.032379 -0.61457 -0.72357 -0.27686 
-0.045203 0.3706 -0.21455 0.016781 -0.035996 -0.54666 -0.42516 0.10984 
-0.047998 0.35103 -0.15289 0.02829 -0.036818 -0.58645 -0.17723 0.38014 
-0.04471 0.22887 -0.090088 0.047362 -0.0098543 -0.40708 0.0044497 0.32259 
0.062488 0.14026 -0.050464 0.071695 -0.0021268 -0.18413 0.03536 0.0067515 
0.18317 0.075805 -0.090253 0.077778 0.013986 -0.19515 -0.11228 -0.32388 
0.029769 0.064625 -0.15832 0.04506 -0.00015387 -0.17279 -0.12133 -0.19531 
-0.15372 0.099316 -0.18907 0.037826 0.0013258 0.05213 0.1465 -0.1552 
-0.11245 0.13319 -0.20501 0.021384 0.03947 0.33509 0.32571 -0.10702 
-0.078086 0.099974 -0.16391 0.04654 0.032893 0.47237 0.37191 0.15226 
-0.097487 0.17248 -0.19564 0.060679 0.059035 0.65241 0.36797 0.44113 
-0.10702 0.26718 -0.17147 0.038648 0.10441 1.1549 0.51496 0.40694 
0.11609 0.20125 -0.059014 0.030592 0.12431 1.3791 0.55162 0.14733 
0.46514 -0.080717 0.1322 0.010862 0.1031 0.97597 0.11198 -0.13744 
0.53041 -0.17657 0.36106 0.076627 0.098001 0.3655 0.016288 -0.16786 
0.19122 -0.062796 0.32144 0.047526 0.10343 -0.14139 0.10918 -0.16161 
-0.19909 0.0044497 0.14321 0.0421 0.048019 -0.44243 0.13697 -0.060987 
-0.3178 -0.057205 -0.0027845 0.0092177 -0.00015387 -0.35052 0.32867 0.19435 
-0.16375 0.00099702 -0.11278 0.005765 -0.022185 0.0052718 0.49934 0.22822 
-0.055726 0.12201 -0.20814 -0.00031829 -0.013471 0.20503 0.62709 0.13203 
-0.1136 0.17117 -0.16999 -0.0044286 0.0026412 0.12069 0.47911 0.14108 
-0.072332 0.17708 -0.1136 0.02122 0.021056 -0.17246 -0.1182 -0.13415 
0.0082312 0.18103 -0.067235 0.048348 0.037826 -0.48879 -0.5876 -0.29133 
0.1054 0.19073 -0.043724 0.055089 0.061666 -0.56639 -0.69612 0.17725 
0.32719 0.010204 -0.0032777 0.049499 0.018096 -0.70154 -0.69875 0.65865 
0.3831 -0.21554 0.15012 -0.0057439 -0.099131 -0.75777 -0.84656 0.54126 
0.17084 -0.34641 0.18087 -0.022679 -0.086964 -0.23658 -0.79164 -0.037805 
-0.10571 -0.17657 0.030592 0.016945 0.015137 0.65158 -0.12133 -0.93517 
-0.28952 0.20586 -0.10669 0.079258 0.12595 1.2124 0.7037 -1.1616 
-0.23609 0.59404 -0.17887 0.10639 0.14979 1.1838 0.89377 -0.46939 
-0.20057 0.63251 -0.15092 0.12217 0.15637 0.86236 0.69022 0.48174 
-0.2476 0.32062 -0.047012 0.087972 0.11329 0.19057 0.43735 0.73741 
-0.10308 -0.068057 -0.042573 0.062981 0.038812 -0.75942 0.12661 0.24433 
0.36189 -0.29297 -0.068879 0.0072447 -0.0098543 -1.0439 -0.12314 -0.31813 
0.85562 -0.28722 -0.080223 -0.029748 -0.037311 -0.7073 -0.19054 -0.33145 
0.60522 -0.15059 0.06742 -0.03912 -0.043559 -0.48123 -0.14566 0.086657 
0.048019 -0.032215 0.33213 -0.11968 -0.038791 -0.44111 -0.056548 0.25436 
-0.21356 -0.1552 0.50443 -0.072825 -0.017253 0.17577 0.02681 -0.0083746 
-0.13793 -0.38998 0.68381 -0.071345 0.014808 1.2219 0.22838 -0.25763 
0.00050378 -0.43404 0.93865 -0.021692 0.015301 1.5328 0.40069 -0.042244 
0.015301 -0.20518 0.92057 0.0044497 0.039141 0.72968 0.40447 0.40052 
-0.10752 -0.038133 0.65356 0.04917 0.024344 -0.15355 0.38951 0.73626 
-0.1815 -0.029255 0.34117 0.045718 0.0051074 -0.63413 0.022042 0.68397 
-0.14171 -0.05326 -0.11574 0.08419 0.0031344 -0.70187 -0.32191 0.44607 
0.026974 0.020727 -0.51871 0.079258 0.016452 -0.54223 -0.41711 0.28461 
0.15111 0.065776 -0.60733 0.054925 0.016123 -0.3543 -0.35118 0.11888 
0.19237 0.18169 -0.38751 0.0080668 -0.0078813 -0.20929 -0.24908 -0.3788 
0.21474 0.26028 0.0036276 -0.041915 0.013492 -0.10209 -0.2231 -0.79509 
0.17544 0.16673 0.26653 -0.028433 0.03092 -0.071674 -0.18874 -0.83636 
0.046046 -0.054246 0.22345 0.010697 0.040456 0.0070803 -0.047669 -0.33276 
-0.059178 -0.13612 0.065612 0.066269 0.017932 0.032564 0.10672 0.25304 
-0.11903 -0.059343 0.0018191 0.081724 0.022535 0.021384 0.21375 0.51002 
-0.07003 0.026152 0.049006 0.10113 0.047197 0.0024767 0.17643 0.26258 
0.043251 0.026317 0.11395 0.14321 0.053116 -0.03353 0.13368 -0.23822 
0.15292 -0.0022913 0.12266 0.089123 0.028619 -0.058685 0.13664 -0.46577 
0.1807 -0.052273 0.19402 0.020727 0.018754 0.011355 0.19764 -0.0503 
0.11494 -0.18002 0.23479 -0.0067304 0.01152 0.060022 0.16541 0.54619 
0.098659 -0.24382 0.23693 0.0034632 0.03092 0.14848 0.092082 0.75829 
0.039799 -0.16769 0.20339 -0.0095255 0.044073 0.23167 -0.092061 0.5531 
-0.067728 0.12595 0.11346 -0.016595 0.016452 0.10425 -0.38192 0.21474 
-0.12281 0.37635 0.025659 0.041114 -0.015116 -0.14188 -0.62821 -0.10587 
-0.1478 0.41762 -0.084169 0.070708 0.040785 -0.28936 -0.57149 -0.3908 
-0.12396 0.20668 -0.086636 0.082217 0.068242 -0.35463 -0.31533 -0.39803 
-0.070687 0.012013 -0.051287 0.066763 0.034044 -0.45163 -0.058192 -0.24266 
-0.12922 -0.049971 -0.028597 0.043416 -0.012156 -0.43865 0.13056 0.092082 
-0.081045 -0.050136 0.038648 -0.0075525 -0.0031133 -0.06 0.49868 0.55787 
0.13845 -0.047176 0.10326 -0.001798 -0.0016336 0.38671 0.73264 0.89344 
0.27244 -0.07825 0.14157 0.020891 0.034209 0.72162 0.92796 0.80926 
0.25452 -0.068386 0.037826 0.047526 0.095699 1.06 1.1703 0.63448 
0.15949 0.015465 -0.089924 0.071859 0.12513 1.0314 0.80959 -0.10867 
0.065447 -0.023007 -0.067399 0.070708 0.10918 0.4214 -0.056219 -1.0475 
0.024673 -0.10653 0.0592 0.067091 -0.00064712 -0.30152 -0.88125 -1.3043 
0.063145 -0.058192 0.070873 0.01152 -0.03057 -0.74561 -1.1658 -0.89259 
0.14387 0.1567 -0.16966 0.017603 0.011848 -0.78556 -0.96806 -0.27851 
0.0087245 0.24597 -0.32799 0.047855 0.020891 -0.67639 -0.58991 0.31453 
-0.21833 0.24597 -0.30827 0.037004 0.012506 -0.45953 -0.22458 0.96644 
-0.30662 0.2297 -0.18117 -0.0039354 -0.010676 -0.28771 -0.096336 1.5399 
-0.28788 0.31684 -0.03353 -0.048492 -0.023007 -0.27489 -0.20732 1.1512 
-0.12642 0.33624 -0.051287 0.033387 0.043251 -0.29824 -0.45657 0.16327 
0.17396 0.34265 -0.091075 0.029934 0.043416 -0.033859 -0.46988 -0.74741 
0.43998 0.32621 -0.050793 0.017603 0.032071 0.47434 -0.069043 -1.1514 
0.26028 0.21178 0.032893 0.06183 0.038483 0.8428 0.29102 -1.0322 
0.04095 0.052952 -0.041257 0.030098 0.01152 0.61656 0.2685 -0.3714 
0.037497 -0.072496 -0.19252 -0.020377 0.0065871 0.46859 0.35465 0.14206 
0.099645 -0.052931 -0.32339 -0.085978 -0.026296 0.67986 0.65569 0.060844 
0.15472 0.10622 -0.36976 0.011026 0.043745 0.6312 0.95411 -0.1917 
-0.15602 0.35745 -0.3686 0.050157 0.10573 0.29661 0.9232 -0.11738 
-0.44571 0.49161 -0.20156 0.08567 0.1202 0.064296 0.74119 0.087643 
-0.29347 0.34824 0.11954 0.09685 0.097015 0.034866 0.58171 0.22082 
0.062159 0.076463 0.402 0.071366 0.069229 -0.084498 0.24071 0.19879 
0.16853 -0.076935 0.52498 0.05065 0.066105 -0.17262 -0.18611 0.030263 
0.010862 -0.066084 0.52778 0.012177 0.032071 -0.19531 -0.449 -0.11442 
-0.18331 -0.049314 0.41022 0.012342 0.0092177 -0.14106 -0.46643 -0.098802 
-0.017253 -0.12659 0.29826 -0.030406 -0.0091966 -0.089102 -0.38603 -0.044546 
0.55721 -0.29561 0.4681 -0.04619 -0.05178 -0.071016 -0.34411 -0.03616 
1.0653 -0.48517 0.43127 -0.080223 -0.05441 -0.090581 -0.35989 -0.1501 
0.91793 -0.42368 0.079916 -0.042737 -0.015938 -0.023172 -0.29988 -0.19005 
0.16673 -0.083018 -0.27308 0.011191 -0.0027845 0.061008 -0.12297 -0.15931 
-0.51592 0.27655 -0.46561 0.045718 0.050814 0.1294 0.080573 -0.037476 
-0.92103 0.43028 -0.39475 0.086492 0.062488 0.088465 0.30779 0.1465 
-0.90015 0.42025 -0.26157 0.050979 0.073997 0.073668 0.41713 0.16541 
-0.46084 0.34347 -0.12166 0.044073 0.0786 0.25518 0.55984 0.091753 
0.026646 0.25436 0.023522 0.042265 0.076956 0.26209 0.49473 -0.043559 
0.27031 0.13401 0.071037 0.059528 0.049499 0.041772 0.1853 -0.13892 
0.25271 0.012506 0.14058 0.023357 0.015301 -0.14993 -0.08532 -0.071838 
0.21079 -0.074798 0.16344 0.012506 -0.028433 -0.21291 -0.31616 0.079258 
0.17067 -0.098309 0.17758 0.024673 -0.031064 -0.16818 -0.3395 0.12053 
0.15111 -0.10406 0.20158 -0.0021268 -0.026789 0.093726 -0.097816 0.050321 
0.19731 -0.10225 0.2218 -0.067399 -0.00031829 0.21243 0.11362 -0.003771 
0.19912 -0.13284 0.18925 -0.052602 0.01152 0.31223 0.26636 0.18777 
0.11494 -0.13826 0.09833 0.036346 0.085835 0.50312 0.35827 0.41581 
-0.08269 -0.031721 0.019905 0.08156 0.10524 0.15851 0.26603 0.45314 
-0.19959 0.044896 0.016123 0.091425 0.06742 -0.5151 0.09685 0.21835 
-0.011827 0.044402 0.0016547 0.072353 0.016123 -0.80364 -0.083676 -0.027775 
0.41877 0.045718 0.04654 0.025824 -0.012156 -0.73278 -0.37715 -0.15257 
0.39493 0.013821 0.096686 -0.047505 -0.019884 -0.42631 -0.46627 0.12283 
0.075312 -0.069865 0.12891 -0.027118 -0.0004827 0.041936 -0.15602 0.26784 
-0.045696 -0.16276 0.30927 0.03536 -0.016266 0.42683 0.1225 -0.24464 
-0.010512 -0.18134 0.48914 -0.026789 0.012013 0.51052 0.14552 -0.79855 
-0.17805 -0.080717 0.32637 0.0046141 0.044731 0.32867 0.10984 -0.29297 
-0.33441 0.031414 -0.07973 0.05624 0.065612 0.12612 0.01711 0.52466 
-0.25532 0.094548 -0.34953 0.09833 0.079258 0.10425 -0.024323 0.65142 
-0.0096899 0.11625 -0.39162 0.084519 0.077614 0.22986 0.17199 0.28297 
0.16278 0.12283 -0.28064 0.06035 0.051801 0.12414 0.24811 0.021713 
0.13894 0.1128 -0.19597 0.10277 0.045224 -0.11755 0.0087245 0.050157 
-0.034023 0.14519 -0.16473 0.092904 0.019247 -0.59287 -0.4541 0.25567 
-0.18775 0.17034 -0.1866 0.066927 -0.068057 -0.92942 -0.99617 0.34742 
-0.18397 0.098659 -0.15832 0.049499 -0.062631 -0.85971 -1.1164 0.27409 
0.013657 -0.0021268 0.017603 0.018754 -0.044546 -0.43865 -0.62936 0.15341 
0.26899 -0.10637 0.14058 -0.047176 -0.049149 0.23545 0.33509 0.0324 
0.45083 -0.099624 0.10014 -0.059836 0.01152 0.77983 1.555 0.15357 
0.51611 0.056898 -0.080388 0.037826 0.13056 1.0717 2.1655 0.26389 
0.24778 0.24269 -0.3275 0.088794 0.19402 1.1979 1.852 0.17741 
-0.1644 0.33328 -0.25713 0.074326 0.18317 0.8862 1.1749 0.17939 
-0.39146 0.30352 0.082546 0.089287 0.10836 0.2879 0.20914 0.21178 
-0.29561 0.244 0.32407 0.085999 0.047362 -0.13333 -0.69431 0.014315 
-0.11541 0.20586 0.28609 0.049006 0.013821 -0.34049 -1.1483 -0.26305 
0.056733 0.13072 0.083204 0.042429 -0.0050863 -0.43815 -1.1333 -0.34049 
0.13549 -0.012649 0.10014 0.051636 -0.05441 -0.47103 -0.7969 -0.18084 
0.16278 -0.29314 0.40858 -0.0022913 -0.071345 -0.54305 -0.37863 0.047197 
0.19944 -0.43306 0.62561 -0.076771 -0.067399 -0.56294 -0.39672 0.13154 
0.2754 -0.29067 0.36452 -0.080059 -0.048327 -0.51 -0.65501 0.005765 
0.2537 -0.13021 -0.08121 -0.0088678 -0.03616 -0.43947 -0.66833 -0.133 
0.10376 -0.0098543 -0.30974 0.020233 -0.0503 -0.42747 -0.38718 -0.29182 
-0.078908 0.1026 -0.32947 0.061666 -0.015116 -0.39064 0.1932 -0.18282 
-0.13941 0.21917 -0.27456 0.10211 0.073832 0.11313 0.78377 0.086492 
-0.10965 0.25518 -0.1912 0.1031 0.12891 0.59914 1.007 0.27129 
-0.010348 0.26258 -0.068879 0.057391 0.11461 0.98074 1.0723 0.16459 
-0.010019 0.16377 0.035031 0.046704 0.11494 1.4613 1.1572 0.010369 
