-0.1233 0.1687 0.060844 0.59568 0.33311 0.11954 0.078929 0.095699 
-0.19794 0.11609 0.22624 0.23775 0.12957 0.11148 0.088465 0.11888 
-0.21603 0.41565 0.18761 -0.34181 -0.23083 0.057391 0.077285 0.075312 
-0.11163 0.59124 0.41927 -0.70302 -0.44851 0.023522 0.051965 0.063803 
0.13861 0.26225 0.64106 -0.54765 -0.41826 -0.027447 0.0019835 -0.0077169 
0.31601 -0.22935 0.88275 -0.14566 -0.17608 -0.019061 -0.020541 -0.010841 
0.37159 -0.76517 0.84724 0.25518 0.073997 0.0014903 -0.033037 -0.051122 
0.30023 -0.88667 0.30927 0.63646 0.30763 0.0062583 -0.058028 -0.054246 
0.19698 -0.74906 -0.14846 0.70321 0.33048 0.0075736 -0.034352 -0.057534 
0.055747 -0.69283 -0.58366 0.42765 0.15259 -0.0090322 -0.0082102 -0.0044286 
-0.019719 -0.48452 -1.1741 0.043416 -0.080717 -0.046519 0.027303 0.059035 
-0.054082 0.13368 -1.01 -0.30942 -0.34164 -0.080223 -0.0039354 0.023851 
-0.080717 0.58121 -0.60322 -0.58103 -0.47301 -0.087458 -0.009361 -0.0016336 
-0.1575 0.78821 -0.72094 -0.72966 -0.51904 -0.019226 0.0072447 0.017767 
-0.13366 0.80367 -0.80282 -0.40379 -0.29232 0.051801 0.043251 0.052294 
-0.043559 0.68956 -0.34953 0.088465 0.0062583 0.10967 0.064625 0.090931 
0.024837 0.47188 0.58796 0.3147 0.16245 0.12332 0.066763 0.070873 
0.016288 0.16722 1.1193 0.41187 0.23381 0.12118 0.072188 0.092904 
0.020398 -0.0024557 0.92829 0.53518 0.28395 0.096357 0.074819 0.075476 
0.0013258 -0.052602 0.43423 0.47155 0.24532 0.093726 0.032071 0.036182 
0.020233 -0.10653 0.35975 0.28001 0.11083 0.055254 0.031249 0.0087245 
0.004943 -0.19992 0.56707 0.11888 0.0098754 0.020562 0.013986 0.020891 
0.0037921 -0.098638 0.1322 0.021549 -0.076113 -0.0032777 0.022864 0.038977 
0.022042 0.065447 -0.48715 0.016781 -0.074304 -0.0062372 0.0080668 0.010204 
0.035195 0.15604 -0.90048 0.027139 -0.071181 0.00066819 0.019411 0.011848 
0.020891 0.244 -1.0314 0.0098754 -0.0771 -0.0052507 -0.00081153 0.012835 
0.0083956 0.17429 -0.51181 -0.026296 -0.084827 -0.015609 -0.0072237 0.031249 
0.076463 -0.034845 0.45511 -0.10472 -0.14237 -0.021034 0.010862 0.020398 
0.074819 0.027796 0.94704 -0.15289 -0.15635 -0.0088678 0.01267 0.05213 
0.0082312 -0.077922 0.66441 -0.039449 -0.090581 0.041772 0.026481 0.0592 
0.0082312 -0.26683 0.29365 0.13039 0.05476 0.12299 0.068571 0.076134 
-0.045696 -0.24135 -0.14369 0.26883 0.1544 0.13828 0.099316 0.084848 
-0.11475 0.1391 -0.57692 0.26981 0.13713 0.11658 0.10852 0.10195 
-0.08828 0.35646 -0.76435 0.08419 0.013821 0.053281 0.055418 0.020398 
0.083697 0.19451 -0.73607 -0.092719 -0.13744 -0.036325 -0.037311 -0.026296 
0.14601 0.028125 -0.42352 -0.22441 -0.22096 -0.068879 -0.047176 -0.060823 
0.089452 0.04095 0.22937 -0.28492 -0.30859 -0.090253 -0.041257 -0.038956 
0.050321 -0.050793 1.4909 -0.33457 -0.34345 -0.10883 -0.0050863 -0.020377 
0.033387 -0.089595 2.1867 -0.21323 -0.25565 -0.065919 0.0018191 0.010862 
-0.029255 0.010204 1.2274 0.081889 -0.050464 0.031085 0.054596 0.069064 
-0.12708 0.24449 -0.05589 0.22674 0.089452 0.09981 0.069064 0.09422 
-0.13925 0.33229 -0.58908 0.10343 0.042758 0.089945 0.053938 0.076956 
-0.014458 0.012342 -0.77224 -0.061151 -0.032708 0.072353 0.052294 0.044073 
0.20208 -0.25911 -0.61506 -0.19087 -0.16523 0.007738 0.0095465 -0.041586 
0.30451 -0.38422 0.56264 -0.34657 -0.28179 -0.055726 -0.038627 -0.091568 
0.22148 -0.65238 1.4495 -0.29396 -0.26223 -0.035174 -0.039284 -0.0868 
0.090274 -0.39064 0.75697 -0.10768 -0.14533 0.029605 0.024344 0.0052718 
0.0088889 0.4242 -0.20518 -0.046025 -0.090746 0.052952 0.062323 0.047855 
-0.061151 0.70387 -0.28475 -0.0068948 -0.056055 0.049992 0.062981 0.095535 
-0.10768 0.30155 -0.020706 0.090931 0.0062583 0.043416 0.056076 0.099152 
-0.054739 -0.1256 0.10129 0.20372 0.031907 0.030098 0.043087 0.084848 
0.038812 -0.28147 0.056733 0.083862 -0.037476 0.0014903 0.078272 0.044567 
0.076463 -0.11261 -0.19235 -0.058028 -0.13218 -0.028104 0.012999 0.011848 
0.032893 0.18383 -0.87434 -0.18676 -0.20551 -0.037805 0.018096 0.022206 
0.020727 0.23249 -1.3852 -0.25187 -0.24973 -0.044546 0.0060938 -0.0054151 
0.069886 0.04654 -0.78309 -0.22162 -0.21323 -0.039449 -0.020212 -0.032215 
0.14519 -0.21208 0.33459 -0.18331 -0.16999 0.0054362 -0.0039354 -0.050464 
0.15242 -0.070359 0.81435 -0.13727 -0.15848 0.0013258 0.012999 -0.049149 
-0.0039354 0.2925 0.69433 -0.089102 -0.121 0.037826 0.049664 -0.0027845 
-0.21027 0.43439 0.14848 0.061337 -0.013471 0.078929 0.077614 0.074654 
-0.26486 0.15341 -0.26322 0.24532 0.1174 0.092576 0.068242 0.12398 
-0.12116 -0.30876 -0.267 0.25189 0.11 0.098166 0.093562 0.10491 
0.092411 -0.50293 0.22509 0.24515 0.090603 0.035031 0.027303 0.026481 
0.16327 -0.26108 0.72146 0.28001 0.10244 -0.011992 -0.0078813 0.018754 
0.14371 0.01974 0.65109 0.28724 0.0786 -0.0064016 -0.018404 -0.020541 
0.26307 0.49786 0.57316 -0.0050863 -0.097487 -0.055068 -0.037969 -0.043395 
0.35219 0.64977 0.61377 -0.29528 -0.27456 -0.066248 -0.032215 -0.083512 
0.31519 0.31618 -0.012156 -0.27637 -0.24579 -0.040928 -0.013965 -0.025967 
0.12776 -0.059343 -0.61424 -0.011663 -0.085485 0.023357 0.037004 0.037826 
-0.049807 -0.42977 -0.44884 0.21868 0.079751 0.085506 0.095042 0.12628 
-0.145 -0.73262 0.085835 0.34183 0.16393 0.1202 0.1419 0.15028 
-0.14648 -0.60783 0.094877 0.43127 0.19385 0.10195 0.12661 0.13138 
-0.056548 -0.16424 0.22575 0.27787 0.099645 0.042758 0.062652 0.036017 
0.051965 0.25781 0.57908 -0.016266 -0.082525 -0.016102 -0.008539 -0.018075 
0.077943 0.63103 0.32374 -0.16375 -0.15898 -0.038627 -0.041257 -0.051287 
0.010533 0.69433 -0.54157 -0.14385 -0.14648 0.00066819 0.019411 0.0051074 
-0.11491 0.57036 -1.6262 -0.027282 -0.042573 0.055254 0.081724 0.06035 
-0.14796 0.33887 -1.985 0.092082 0.035524 0.11231 0.09685 0.11115 
-0.080717 0.12924 -1.202 0.2195 0.093233 0.10162 0.096357 0.11165 
0.0087245 0.11395 -0.14204 0.31256 0.14765 0.06742 0.044731 0.081724 
0.11987 0.12957 0.63876 0.33525 0.13302 0.020069 0.032893 0.027632 
0.15094 0.20405 0.96726 0.039141 -0.080059 -0.065097 -0.021363 -0.025802 
0.11329 0.36353 0.65158 -0.35299 -0.36219 -0.11804 -0.052766 -0.046354 
0.057884 0.10441 -0.036489 -0.46133 -0.42845 -0.11294 -0.037476 -0.030735 
0.071366 -0.092883 -0.5687 -0.25401 -0.28706 -0.089266 -0.019884 -0.023829 
-0.010019 0.025824 -0.77668 0.13384 -0.032708 -0.03353 0.03092 -0.012978 
0.035195 -0.3081 0.057555 0.37849 0.15719 0.029605 0.037332 0.029112 
0.17906 -0.70631 0.9375 0.44146 0.19139 0.051308 0.016945 0.017603 
0.25995 -0.44292 0.98814 0.30944 0.15357 0.10129 0.035853 0.031907 
0.18432 -0.13711 0.54011 0.22065 0.097344 0.11263 0.040621 0.069558 
0.041607 -0.030735 0.1008 0.19944 0.10228 0.1179 0.08304 0.1003 
-0.10012 0.072024 -0.25927 0.17248 0.094055 0.11691 0.093069 0.095699 
-0.1182 0.055747 -0.15651 0.081724 0.0054362 0.10918 0.062159 0.071366 
-0.023501 -0.24628 0.35679 0.04917 -0.013965 0.065118 0.0088889 0.046211 
0.1026 -0.28804 0.60637 0.029605 -0.04323 0.014479 0.010533 0.017438 
0.07449 -0.14221 0.31092 0.12217 0.0090533 0.0024767 0.012177 -0.021856 
-0.085156 0.08008 -0.20616 0.23331 0.045553 0.026152 0.048513 0.038977 
-0.25828 0.42519 -0.76353 0.32654 0.13023 0.067913 0.10524 0.12579 
-0.28673 0.72705 -1.2901 0.28905 0.12316 0.11987 0.11132 0.15982 
-0.13382 0.8599 -1.1307 -0.00064712 -0.04471 0.084848 0.066269 0.077121 
0.031085 0.76388 -0.97019 -0.31353 -0.2134 0.091753 0.076792 0.065776 
0.10491 0.50114 -0.90311 -0.24151 -0.15158 0.11526 0.086985 0.050979 
0.17347 0.05213 0.18004 -0.03205 -0.033201 0.071037 0.039963 0.019576 
0.2468 -0.26897 1.8885 0.01415 -0.10242 -0.031557 -0.076606 -0.054904 
0.26274 -0.48189 2.8799 -0.1159 -0.18791 -0.072167 -0.089431 -0.079072 
0.26357 -0.46298 2.3807 -0.017746 -0.15602 -0.11935 -0.10686 -0.0965 
0.18399 -0.35759 0.91054 0.12546 -0.08269 -0.12231 -0.10489 -0.058356 
0.075312 -0.32734 -0.64614 0.085177 -0.089266 -0.088115 -0.090417 -0.03057 
0.035195 -0.3303 -0.65633 -0.16358 -0.19959 -0.10784 -0.078579 -0.018075 
0.07301 -0.33375 0.25271 -0.49882 -0.37485 -0.080881 -0.068879 -0.055561 
0.085999 -0.26124 0.40858 -0.50901 -0.41579 -0.064768 -0.030735 -0.035503 
-0.053917 0.014315 -0.45065 -0.20534 -0.22145 -0.015444 0.055418 0.066598 
-0.25154 0.2297 -1.1226 0.14272 -0.00097594 0.052787 0.1197 0.16558 
-0.31402 0.26192 -0.92334 0.26422 0.11017 0.099481 0.11773 0.18415 
-0.23395 0.23331 -0.45361 0.232 0.11181 0.14256 0.11214 0.15357 
-0.068221 0.23052 -0.15651 0.1562 0.10343 0.15522 0.11658 0.073832 
0.089123 0.37175 -0.018404 0.1299 0.08715 0.13171 0.048677 -0.008539 
0.19073 0.55968 0.11954 0.15209 0.065776 0.067749 -0.0027845 -0.055232 
0.18185 0.71505 0.17889 0.10014 0.022206 0.053281 0.0075736 -0.015773 
0.09126 0.66046 0.15176 0.050157 -0.015609 0.062323 0.06183 0.038812 
-0.017253 0.40447 0.090767 0.0021479 -0.043559 0.05213 0.041936 0.059364 
-0.018568 -0.23872 0.29037 -0.01939 -0.1011 -0.001798 -0.014787 0.0047785 
0.08567 -0.8191 0.6335 -0.004593 -0.098473 -0.045532 -0.054082 -0.051122 
0.067913 -0.65896 0.62807 0.011848 -0.091568 -0.054575 -0.035667 -0.013307 
-0.021856 -0.30974 0.4921 -0.0016336 -0.095349 -0.0083746 0.025988 0.023193 
-0.030077 -0.24809 0.51134 -0.13053 -0.15059 0.011355 0.038319 0.041772 
0.091589 -0.11952 0.3928 -0.29281 -0.23658 0.0014903 -0.0088678 -0.0062372 
0.21523 0.256 0.029934 -0.25187 -0.18512 0.0023123 0.0037921 -0.01939 
0.15226 0.70633 -0.25615 -0.023336 -0.063289 0.041114 0.029605 0.039634 
-0.098802 0.80531 -0.3862 0.17199 0.05772 0.073832 0.11198 0.09126 
-0.34707 0.60374 -0.59369 0.36419 0.1613 0.11444 0.14552 0.17396 
-0.2961 0.42584 -0.8214 0.53945 0.24499 0.096357 0.08419 0.11921 
-0.055068 0.097015 -0.81893 0.37652 0.13943 0.039634 -0.0067304 0.023522 
0.1835 -0.23198 -0.61605 0.013164 -0.096007 -0.065097 -0.054575 -0.060494 
0.33903 -0.28344 -0.082196 -0.37239 -0.29478 -0.084827 -0.084169 -0.11524 
0.33196 -0.3155 0.53847 -0.72752 -0.51756 -0.056548 -0.081045 -0.0965 
0.13286 0.020562 0.67625 -0.9064 -0.60224 -0.042901 -0.015938 -0.013636 
-0.12034 0.36485 -0.0004827 -0.72966 -0.48961 -0.0014692 0.072188 0.097672 
-0.28837 0.51972 -0.87319 -0.25056 -0.2032 0.077449 0.14716 0.15637 
-0.29232 0.67493 -1.1686 0.18942 0.06035 0.087972 0.15078 0.17626 
-0.17936 0.56773 -0.67244 0.45018 0.22361 0.086821 0.12217 0.12201 
-0.0083746 -0.027282 0.11247 0.609 0.31322 0.045224 0.05772 0.064625 
0.11543 -0.33704 0.75582 0.79577 0.3729 0.0075736 0.005765 0.023522 
0.26373 -0.59023 1.485 1.0288 0.49161 -0.015773 -0.025145 -0.05737 
0.37652 -0.98384 1.7204 0.99061 0.46448 -0.022185 -0.075784 -0.16901 
0.39214 -0.92531 1.3099 0.56148 0.25765 0.0024767 -0.06707 -0.12363 
0.31404 -0.67491 0.35925 0.01826 0.013986 0.1197 0.038977 -0.045368 
0.12612 -0.35562 -0.66488 -0.36713 -0.16588 0.20569 0.12217 0.094548 
-0.20567 0.27738 -1.1152 -0.4735 -0.21241 0.22082 0.21539 0.20964 
-0.34181 0.55984 -0.84475 -0.30498 -0.2037 0.10935 0.1641 0.1761 
-0.19383 0.38359 -0.38274 -0.23658 -0.22721 0.0070803 0.059035 0.093069 
0.011026 0.20355 -0.095514 -0.23724 -0.26124 -0.043395 -0.018075 0.00083261 
0.14174 0.036675 0.085341 -0.18282 -0.23675 -0.098967 -0.065426 -0.052766 
0.16706 0.045553 0.44031 -0.12856 -0.20468 -0.12363 -0.04619 -0.064275 
0.11855 0.2514 0.2246 -0.13004 -0.2032 -0.10719 -0.052437 -0.03912 
0.065447 0.46629 -0.77849 -0.0406 -0.13925 -0.07414 -0.018239 -0.020212 
0.018589 0.39263 -1.2753 0.22394 0.027468 0.020069 0.036182 0.059364 
0.021878 0.26061 -0.81844 0.3466 0.14946 0.084026 0.073175 0.076956 
0.052952 0.087643 -0.016102 0.26406 0.11987 0.076134 0.075312 0.051472 
0.045389 -0.26568 0.60308 0.11937 0.029276 0.048513 0.026974 -0.015609 
0.0075736 -0.42681 0.76355 -0.047834 -0.081374 0.031742 0.0082312 -0.01117 
-0.049314 -0.4638 0.73576 -0.08532 -0.10012 0.052459 0.026317 0.012999 
0.010204 -0.25352 0.79462 0.0227 -0.034352 0.036346 0.038812 0.06742 
0.084355 -0.12642 1.0133 0.10507 -0.0055795 0.030427 0.036839 0.09126 
0.11642 -0.099789 0.81518 0.025988 -0.062467 0.013328 0.0047785 0.090438 
0.13039 -0.0047575 0.34512 -0.16194 -0.19186 -0.034352 -0.02235 0.040292 
0.090274 0.23989 -0.18528 -0.14928 -0.17608 -0.025145 0.0085601 0.048677 
-0.013636 0.32243 -0.84294 0.0060938 -0.078908 0.022864 0.055911 0.052787 
-0.072167 0.15933 -1.3168 0.31388 0.13516 0.074654 0.085341 0.060844 
-0.063618 0.17643 -1.3824 0.61722 0.33295 0.12233 0.091425 0.057227 
-0.010841 0.41318 -0.98318 0.74168 0.38704 0.12875 0.081067 0.048513 
0.10162 0.38984 -0.25088 0.59404 0.28149 0.11 -0.031886 -0.031721 
0.23594 -0.032215 1.4117 0.19336 0.014479 0.011848 -0.013965 -0.080059 
0.22246 -0.3811 2.541 -0.20764 -0.20123 -0.026953 -0.0042642 -0.11886 
0.11378 -0.13843 1.5495 -0.48238 -0.35052 -0.02498 -0.023172 -0.013965 
-0.042901 0.29201 0.27919 -0.53466 -0.36943 -0.008539 0.0036276 0.034209 
-0.1256 0.1909 -0.18446 -0.37979 -0.29199 0.011191 0.032729 0.081231 
-0.099624 -0.18479 0.26653 -0.22589 -0.22639 -0.00015387 0.044731 0.066763 
-0.015444 -0.42862 0.58023 -0.29544 -0.25253 -0.020048 0.013986 -0.013471 
0.020562 -0.63693 -0.46594 -0.2716 -0.24118 -0.04323 -0.013471 -0.0040998 
0.018425 -0.64038 -1.2773 -0.074633 -0.12675 -0.076606 -0.010019 0.023357 
0.073175 -0.13793 -0.498 0.007738 -0.11524 -0.05589 -0.01676 0.023193 
0.095699 0.61097 -0.13415 0.030263 -0.083512 -0.046025 -0.0090322 -0.0067304 
0.10063 0.83227 -0.54798 0.10441 -0.038627 -0.048163 -0.022185 -0.015444 
0.072353 0.53682 -0.65337 0.183 -0.01232 -0.025638 -0.011663 -0.020541 
-0.013471 0.27343 0.25337 0.0026412 -0.096007 -0.016924 -0.0011404 0.013492 
-0.10456 0.33229 1.1558 -0.24266 -0.20419 0.02681 0.047362 0.051636 
-0.15437 0.41368 1.3653 -0.32372 -0.20189 0.064625 0.083862 0.093726 
-0.095678 0.40414 0.80021 -0.1205 -0.095349 0.08978 0.08304 0.097837 
-0.046354 0.41368 -0.25598 0.098001 0.037168 0.1003 0.055582 0.10754 
0.023686 0.30631 -0.84639 0.16985 0.071695 0.079751 0.044402 0.069229 
0.055254 -0.06707 -0.38324 0.097344 0.010204 0.054596 0.053116 0.059857 
0.067913 -0.26042 0.071037 0.044402 -0.035667 0.048677 0.055747 0.015301 
0.017274 -0.054082 -0.033037 0.086163 0.0019835 0.038155 0.058542 0.049664 
0.0016547 0.060679 -0.33704 0.1031 0.029276 0.058542 0.041114 0.023028 
-0.00015387 -0.049971 -0.40215 0.073175 -0.009361 0.050979 0.032564 0.033387 
-0.021692 -0.16884 -0.42319 0.11411 0.017274 0.039799 0.033715 0.044731 
0.013657 -0.25549 -0.010676 0.14026 0.029934 0.047362 0.02829 0.029112 
0.17824 -0.36893 0.63169 0.0013258 -0.070359 -0.018239 -0.038627 -0.032872 
0.19007 -0.18907 0.47352 -0.017417 -0.10834 -0.026131 -0.053095 -0.043559 
0.019576 0.14601 0.13943 0.066105 -0.057041 -0.0070593 0.01415 0.0074092 
-0.099624 0.44015 0.32719 0.0324 -0.080881 -0.051122 -0.01232 0.016452 
-0.08269 0.33887 0.80219 -0.078579 -0.18874 -0.078415 -0.045368 -0.038627 
-0.05441 0.093069 0.706 -0.20682 -0.23658 -0.07266 -0.036325 -0.024158 
-0.060658 -0.049807 0.15407 -0.17328 -0.18611 -0.0040998 0.031249 0.037826 
-0.022514 -0.16835 -0.41776 -0.11919 -0.12379 0.058706 0.094055 0.081889 
0.081067 -0.18627 -0.89752 -0.19285 -0.16572 0.067256 0.10573 0.069558 
0.13417 0.070544 -1.2696 -0.21044 -0.15848 0.068078 0.081889 0.045882 
0.14765 0.2149 -0.97348 -0.064933 -0.066906 0.060186 0.055089 0.044567 
0.089616 0.3341 -0.39261 0.12924 0.029112 0.067585 0.049664 0.066105 
-0.047505 0.45462 0.012835 0.23775 0.083368 0.062323 0.054103 0.079587 
-0.11212 0.28773 0.3267 0.25896 0.090767 0.026646 0.0018191 0.029441 
-0.047834 -0.14599 0.71127 0.24351 0.083697 0.027139 0.017438 0.013986 
0.043416 -0.38126 0.87749 0.2708 0.07449 0.0092177 -0.019061 -0.050629 
0.10803 -0.32356 0.67477 0.32818 0.12595 0.03947 0.0080668 -0.048163 
0.12891 -0.45969 0.27294 0.39888 0.15966 0.049499 0.02122 -0.008539 
0.13894 -0.4929 -0.17114 0.41779 0.14996 0.052459 0.054267 0.033058 
0.11592 -0.11755 -0.45607 0.20668 0.066927 0.079751 0.067091 0.064625 
-0.0024557 0.25041 -0.55538 -0.0070593 -0.03057 0.090438 0.077449 0.097344 
-0.088444 0.33673 -0.31994 -0.14763 -0.097158 0.082053 0.074819 0.10589 
-0.08384 0.45955 -0.1746 -0.22277 -0.17213 0.055418 0.072517 0.095206 
-0.030242 0.54504 -0.14993 -0.23083 -0.19285 0.018589 0.057391 0.03947 
0.059364 0.40776 0.067091 -0.16703 -0.17641 0.0021479 -0.0019624 0.014479 
0.11543 0.23989 0.10293 -0.0073881 -0.098802 0.010369 -0.021034 -0.01939 
0.16771 0.0087245 -0.16177 0.12069 -0.021034 -0.00097594 -0.013471 -0.035174 
0.26883 -0.45081 -0.10193 0.11247 -0.029255 0.016123 -0.017582 -0.07825 
0.16969 -0.42779 -0.12281 0.090931 -0.014129 0.015465 0.0088889 -0.01117 
-0.057041 0.12316 -0.29347 0.18958 0.053116 0.066763 0.05624 0.062159 
-0.2111 0.585 -0.12412 0.24532 0.09833 0.10902 0.077121 0.092576 
-0.20008 0.47106 0.084848 0.3318 0.147 0.079916 0.072353 0.11526 
-0.078086 -0.1889 0.049828 0.46136 0.21276 0.078436 0.084684 0.076627 
0.029605 -0.35759 -0.27078 0.47303 0.23825 0.088465 0.069886 0.052459 
0.083862 -0.03764 -0.46314 0.43275 0.2269 0.11937 0.06742 0.06035 
0.13927 -0.076113 -0.3109 0.25863 0.13746 0.063474 0.0039565 0.005765 
0.15324 -0.2836 -0.081703 -0.085978 -0.10505 0.0037921 -0.017253 -0.013965 
0.15028 -0.20123 -0.076606 -0.5123 -0.36203 -0.011827 0.015137 0.0085601 
0.047197 0.0592 -0.093048 -0.50934 -0.3714 0.011848 0.061501 0.076627 
-0.11607 0.43669 0.031249 -0.069208 -0.09091 0.085177 0.10343 0.11033 
-0.23428 0.63432 0.17478 0.2269 0.098166 0.11625 0.10244 0.12694 
-0.27637 0.68068 0.041114 0.29908 0.16114 0.12053 0.096357 0.1128 
-0.25779 0.72968 0.3244 0.034866 -0.0077169 0.040621 0.064625 0.08715 
-0.094856 0.61985 0.90478 -0.31287 -0.32027 -0.11623 -0.013143 0.010533 
0.25271 -0.40757 1.7874 -0.58349 -0.51017 -0.19301 -0.096665 -0.13366 
0.65832 -1.5803 2.1466 -0.64153 -0.55916 -0.22754 -0.20386 -0.26157 
0.83211 -1.6984 1.2047 -0.41661 -0.44259 -0.25335 -0.24776 -0.31731 
0.57201 -0.89095 -0.23707 -0.041751 -0.22162 -0.2009 -0.17065 -0.19054 
0.2075 -0.49783 -0.055068 0.15785 -0.050958 -0.08269 -0.035996 -0.015773 
-0.081703 -0.47186 0.14765 0.21934 0.056733 0.0592 0.087479 0.16064 
-0.31122 0.051472 -0.57856 0.32654 0.14239 0.14338 0.13878 0.22213 
-0.33161 0.59848 -1.2084 0.33065 0.17807 0.1516 0.14141 0.19879 
-0.17739 0.82899 -1.103 0.33015 0.18185 0.11806 0.12464 0.11625 
-0.075291 0.72853 -0.607 0.25403 0.15653 0.13138 0.10096 0.12727 
-0.019555 0.54274 0.010204 0.076627 0.029441 0.096686 0.049828 0.14289 
-0.049807 0.48964 0.012013 -0.058521 -0.054739 0.095371 0.081724 0.073832 
-0.07414 0.3706 0.16558 -0.14829 -0.13711 0.039799 0.034702 0.0093821 
-0.086471 0.18547 0.63711 -0.19219 -0.18315 -0.020541 0.0098754 -0.017417 
-0.068714 0.06331 0.58845 -0.14681 -0.1621 -0.041915 -0.013143 -0.017088 
-0.041586 -0.039613 0.29431 -0.043888 -0.10571 -0.035667 -0.019884 0.010533 
0.03651 -0.12725 0.21046 -0.011827 -0.072825 -0.0064016 -0.0029489 0.019576 
0.13565 -0.25023 0.32012 -0.080717 -0.12725 -0.0036066 -0.010841 0.029276 
0.1853 -0.27719 0.46941 -0.16144 -0.1769 -0.017911 0.017767 0.0087245 
0.19468 -0.11294 0.48026 -0.27078 -0.24118 -0.050958 -0.014787 -0.01676 
0.18498 0.15472 0.18629 -0.32947 -0.29018 -0.063946 -0.032708 -0.03912 
0.11115 0.20224 -0.41892 -0.30004 -0.26206 -0.017582 -0.026131 -0.0016336 
0.05065 0.30023 -0.67902 -0.069208 -0.10817 0.025824 0.038483 0.039634 
-0.053917 0.29826 -0.52513 0.14913 0.053609 0.081724 0.072517 0.09833 
-0.18364 0.21983 -0.50178 0.39756 0.16788 0.08419 0.097344 0.11428 
-0.25483 -0.064275 -0.40116 0.50131 0.2292 0.065612 0.081231 0.1322 
-0.07973 -0.44243 0.27623 0.32062 0.1054 0.014643 -0.0013048 0.047526 
0.22427 -0.52233 1.6496 0.08419 -0.078908 -0.097487 -0.052437 -0.083512 
0.39329 -0.4033 2.154 -0.15421 -0.22852 -0.16292 -0.10702 -0.15421 
0.32243 -0.062631 0.62363 -0.19877 -0.2402 -0.094856 -0.087951 -0.087458 
0.1664 0.30582 -1.1501 -0.054904 -0.088937 0.0054362 -0.001798 0.014808 
-0.015773 0.27557 -1.2819 0.042923 -0.022843 0.10145 0.05476 0.055418 
-0.15355 0.053609 -0.57264 -0.0027845 -0.01528 0.1197 0.1105 0.099316 
-0.19219 0.10162 -0.18495 -0.062138 -0.053095 0.11329 0.10277 0.10408 
-0.1159 0.25271 0.1373 0.052623 -0.0050863 0.083697 0.11411 0.10951 
0.0024767 0.30286 0.50345 0.09126 -0.010841 0.062981 0.10507 0.089616 
0.01711 0.33985 0.70568 0.05065 -0.034023 0.042429 0.068242 0.055254 
0.0026412 0.26274 0.13351 0.12118 0.024015 0.048677 0.043745 0.034537 
-0.0019624 0.14469 -0.77191 0.20651 0.066927 0.052623 0.017438 0.027961 
-0.037805 0.25107 -1.1169 0.18202 0.064132 0.060679 0.029605 0.056076 
-0.067399 0.40907 -0.86217 0.17445 0.070215 0.079916 0.065283 0.087314 
-0.11705 0.43308 -0.28393 0.24071 0.10951 0.12069 0.085506 0.083533 
-0.10291 0.317 0.056076 0.21046 0.073504 0.084684 0.069558 0.076627 
-0.047176 0.21753 0.074161 0.17807 0.051965 0.056898 0.044567 0.046704 
0.040292 0.096686 0.15785 0.20997 0.073997 0.034537 0.012177 0.014643 
0.11592 -0.015444 0.26784 0.15176 0.011848 -0.00097594 0.004943 -0.017746 
0.17495 -0.17575 0.2657 -0.077757 -0.12379 -0.023994 -0.020706 -0.019226 
0.19501 -0.27719 0.12036 -0.060823 -0.12445 0.01152 0.016288 -0.026131 
0.17297 -0.23444 -0.067892 0.013328 -0.071838 0.011355 -0.016431 0.05624 
0.020233 0.1105 -0.29034 -0.0026201 -0.064111 0.061008 0.05772 0.068078 
-0.047505 0.33574 -0.41448 -0.047341 -0.069701 0.097837 0.061172 0.082217 
-0.056055 0.37586 -0.74363 -0.010512 -0.053917 0.070708 0.063968 0.073339 
-0.036983 0.24647 -1.0815 0.15637 0.010533 0.043087 0.045553 0.055747 
-0.0064016 0.090767 -0.80447 0.22822 0.024179 -0.0068948 0.0074092 0.049664 
-0.0004827 0.10162 0.060844 0.15999 -0.017911 -0.026131 0.016616 0.028619 
-0.062631 0.23151 0.56181 0.14404 0.0072447 0.0075736 0.024673 0.035031 
-0.12856 0.33361 1.1075 0.12842 0.020398 0.067585 0.064625 0.059857 
-0.10571 0.19303 1.6034 0.10573 0.03651 0.10622 0.087643 0.05476 
0.023522 -0.20452 1.7928 0.087643 0.032729 0.10524 0.071366 0.044402 
0.17067 -0.47991 1.3648 0.047855 -0.014787 0.095864 0.054267 0.011026 
0.24696 -0.57182 0.44212 -0.07414 -0.090746 0.038648 0.0059294 -0.024487 
0.26242 -0.42368 -0.59139 -0.25582 -0.22474 -0.021856 -0.02498 -0.049478 
0.25929 -0.24234 -0.93501 -0.41694 -0.34608 -0.086471 -0.11064 -0.09239 
0.25452 -0.12133 -1.1127 -0.57577 -0.49241 -0.16227 -0.12544 -0.12248 
0.11329 0.19303 -1.4572 -0.57231 -0.48649 -0.16161 -0.10489 -0.069043 
-0.033859 0.23989 -1.4084 -0.38949 -0.35595 -0.10768 -0.054246 0.00050378 
-0.087951 0.03651 -0.79526 -0.025474 -0.095514 -0.0024557 0.038319 0.062159 
-0.11935 0.35876 0.095535 0.40644 0.20832 0.11099 0.10491 0.10195 
-0.011334 0.6963 0.96594 0.69137 0.38375 0.12316 0.094055 0.042429 
0.10293 0.50427 1.2793 0.69088 0.38803 0.078929 0.067749 0.054596 
0.048348 0.11411 0.60209 0.58204 0.2828 0.068736 0.07301 0.054103 
-0.0771 -0.14944 -0.26009 0.3854 0.18037 0.079587 0.082875 0.09833 
-0.17427 -0.19104 -0.63742 0.11477 0.026974 0.093562 0.083862 0.10655 
-0.1815 -0.12182 -0.43618 -0.079401 -0.097816 0.072353 0.07449 0.10228 
-0.072003 -0.19498 0.19402 -0.27308 -0.22918 0.023357 0.021384 0.04358 
0.1465 -0.57182 0.91498 -0.43503 -0.35414 -0.035174 -0.00081153 -0.020377 
0.27031 -0.50589 0.97071 -0.42566 -0.33556 -0.07825 -0.038462 -0.085156 
0.20602 -0.072332 0.3295 -0.11738 -0.16259 -0.02498 -0.044546 -0.037476 
0.14617 0.1784 -0.25615 0.17166 0.020727 0.017438 -0.024158 -0.02794 
0.15999 0.13565 -0.3862 0.27261 0.092411 0.022371 0.0090533 0.011191 
0.15785 -0.15076 0.0021479 0.23907 0.0689 0.026974 0.031085 0.0088889 
0.07038 -0.084169 0.3854 0.014479 -0.064275 0.004943 0.031414 0.03947 
-0.08121 0.082546 0.2343 -0.12511 -0.14681 -0.0013048 0.014479 0.03388 
-0.12708 -0.11508 -0.023829 -0.19482 -0.19433 -0.031064 0.0046141 0.04358 
-0.026789 -0.36154 0.04506 -0.20304 -0.25039 -0.047669 -0.018239 0.021384 
0.076463 -0.21817 0.32062 -0.26026 -0.26782 -0.071181 -0.0096899 -0.016595 
0.082053 0.0059294 0.74563 -0.22655 -0.23313 -0.084334 -0.018075 -0.028762 
0.050979 0.13499 0.62758 -0.13399 -0.16835 -0.018897 -0.0098543 -0.016102 
0.049499 0.15209 -0.045039 -0.00097594 -0.083183 0.014643 0.0062583 -0.0026201 
0.025824 0.13746 -0.42105 0.076463 -0.0055795 0.047197 0.040292 0.030427 
0.015959 0.13828 -0.38932 0.15193 0.071037 0.070708 0.096193 0.069393 
-0.024652 0.18547 -0.25088 0.29037 0.12809 0.089123 0.1077 0.068736 
-0.086471 0.1294 -0.38554 0.40973 0.23003 0.13056 0.097179 0.097344 
-0.1108 0.1248 -0.40313 0.42387 0.24005 0.17347 0.10425 0.10228 
-0.070687 0.028125 -0.19663 0.2075 0.11411 0.1031 0.06035 0.074326 
0.022535 -0.091568 -0.02646 -0.084169 -0.097487 0.039799 0.013986 0.024673 
0.13253 -0.19646 0.022206 -0.14106 -0.16506 -0.033037 -0.021692 -0.02235 
0.18333 0.040128 -0.1473 -0.067235 -0.15454 -0.050136 -0.038462 -0.039613 
0.20043 0.60571 0.086821 0.020727 -0.11968 -0.073811 -0.03764 -0.017746 
0.28626 0.76059 0.83852 0.075641 -0.076935 -0.069536 -0.039613 -0.056055 
0.24121 0.15834 1.2543 0.032236 -0.10275 -0.057863 -0.011992 -0.055068 
-0.053095 -0.44012 0.9865 -0.05326 -0.1085 0.015137 0.029112 0.025988 
-0.29561 -0.66817 0.38145 -0.06444 -0.097487 0.047526 0.083368 0.13582 
-0.27949 -0.47334 -0.16966 -0.03912 -0.052437 0.10787 0.11296 0.15111 
-0.1358 0.0092177 -0.62279 -0.019061 -0.037311 0.10787 0.14469 0.14815 
-0.032215 0.32308 -1.141 -0.0036066 -0.034023 0.094877 0.10885 0.095206 
-0.0096899 0.38342 -1.3497 0.025166 -0.01232 0.077614 0.071037 0.082053 
-0.033859 0.25074 -0.91331 0.13927 0.048184 0.096193 0.065118 0.048677 
0.016781 0.073339 -0.18594 0.15209 0.049992 0.069393 0.035195 0.031578 
0.077614 -0.034845 0.44952 0.046375 -0.055068 -0.00064712 0.036017 -0.0049219 
0.094877 0.053774 1.1067 0.012342 -0.078415 -0.011005 0.0098754 -0.021856 
0.14963 0.17856 1.6573 0.11378 -0.0067304 0.0064227 -0.033859 -0.063289 
0.25304 0.15242 2.092 0.06183 -0.037969 -0.016102 -0.02794 -0.057041 
0.28083 0.010533 1.4972 -0.020541 -0.073647 0.015959 0.0024767 -0.02087 
0.13549 0.023851 0.011026 0.10688 0.01563 0.059364 0.071366 0.055911 
-0.081045 0.12842 -0.87664 0.2121 0.090109 0.063639 0.084848 0.093726 
-0.18052 0.16886 -0.87418 0.24153 0.069393 0.048841 0.049335 0.0786 
-0.1085 0.19879 -0.49389 0.13483 -0.0036066 0.029769 0.025988 0.038812 
-0.015938 -0.02087 -0.2841 -0.025474 -0.086307 0.022042 0.014315 0.018425 
0.028783 -0.11163 -0.35463 -0.18907 -0.1815 0.020069 0.04506 0.00297 
-0.0075525 0.68956 -0.81877 -0.22277 -0.18709 0.030756 0.070544 0.051472 
-0.11738 1.2249 -1.1313 -0.036325 -0.059014 0.072681 0.087314 0.10408 
-0.1644 0.93997 -0.81449 0.23512 0.1391 0.10787 0.080738 0.11707 
-0.050958 0.20092 -0.29051 0.43341 0.22411 0.10441 0.039634 0.079587 
0.12842 -0.43158 0.12069 0.50312 0.24597 0.055089 0.01152 0.0059294 
0.30122 -0.7849 0.94753 0.32012 0.099645 -0.01939 -0.040928 -0.082032 
0.32374 -0.64022 1.7491 -0.17789 -0.23214 -0.090746 -0.062302 -0.10965 
0.10507 -0.10406 1.3729 -0.6024 -0.49849 -0.071345 -0.09239 -0.02794 
-0.11327 0.24334 0.45642 -0.6047 -0.47301 -0.076442 0.00050378 0.034373 
-0.1478 0.18711 -0.21882 -0.30037 -0.26437 -0.014293 0.069393 0.14075 
-0.063124 0.060022 -0.52102 -0.023501 -0.087622 0.045389 0.065447 0.060186 
-0.011663 0.060022 -0.28377 0.059857 0.0019835 0.066763 0.085341 0.076627 
0.014972 -0.012978 0.20832 0.085506 0.009711 0.085835 0.085341 0.066434 
0.046868 0.024508 0.53255 0.034866 -0.034352 0.052623 0.050157 0.083862 
0.066434 0.11313 0.053938 -0.11311 -0.15141 0.00017495 0.010204 0.023193 
0.1225 -0.0082102 -0.86234 -0.10094 -0.14993 -0.060165 -0.041586 -0.025967 
0.13236 -0.040764 -1.2277 0.082875 -0.038133 -0.052766 -0.042737 -0.038462 
0.15193 0.11526 -0.9406 0.39691 0.12908 -0.020377 -0.039449 -0.021034 
0.23315 0.016945 -0.20074 0.41006 0.1419 -0.0031133 -0.019884 -0.064933 
0.32637 -0.27472 0.10622 0.31569 0.10902 0.043251 -0.0070593 -0.044217 
0.15571 -0.095678 -0.2032 0.30894 0.14223 0.099152 0.041278 0.022206 
-0.09239 -0.070523 -0.11656 0.24022 0.095699 0.096028 0.085341 0.099645 
-0.18726 -0.64186 0.7772 -0.043066 -0.084827 0.025659 0.057391 0.10145 
-0.18594 -0.7729 0.82488 -0.24283 -0.22195 -0.0022913 0.026152 0.074983 
-0.17493 -0.10291 0.022864 -0.17805 -0.18594 0.01711 0.029276 0.039305 
-0.19301 0.60522 -0.54732 -0.072003 -0.092554 0.048513 0.062981 0.064954 
-0.15865 1.0536 -0.52809 -0.049971 -0.088115 0.048841 0.067091 0.060186 
-0.12527 1.4237 -0.37156 -0.0052507 -0.080223 0.020069 0.05476 0.058871 
-0.032215 1.4243 -0.020048 0.0023123 -0.085649 0.043909 0.076134 0.036839 
0.0074092 0.99751 0.12266 -0.013143 -0.07266 0.054103 0.064954 0.04095 
0.092576 0.085341 -0.47843 -0.020706 -0.078908 0.0062583 0.014972 0.012835 
0.28856 -0.98762 -0.60273 -0.077428 -0.13037 -0.047834 -0.056055 -0.064933 
0.51923 -1.7901 0.1299 -0.25516 -0.23543 -0.10423 -0.12346 -0.15783 
0.4921 -1.3888 -0.14139 -0.22721 -0.21422 -0.089431 -0.082361 -0.093376 
0.066763 -0.063782 -0.70368 0.00033937 -0.025638 0.026646 0.022864 0.092247 
-0.37896 0.78443 -0.11985 0.093069 0.021384 0.12168 0.14913 0.24663 
-0.46298 1.0241 0.69614 0.090603 0.013328 0.11247 0.18317 0.24121 
-0.25023 0.65257 0.96331 0.16262 0.026481 0.060022 0.095699 0.11658 
0.11 -0.44999 0.72557 0.1442 -0.043888 -0.042244 -0.023172 -0.063289 
0.45363 -1.8985 0.97499 -0.095185 -0.22836 -0.14171 -0.15651 -0.20485 
0.56675 -2.3238 1.1526 -0.24316 -0.31303 -0.15964 -0.16884 -0.21504 
0.37668 -1.3689 0.42551 -0.25056 -0.24842 -0.097487 -0.12478 -0.14582 
0.098001 -0.1672 -0.60585 -0.21471 -0.21833 -0.022514 -0.014458 -0.028104 
-0.13399 0.6113 -0.62739 -0.20666 -0.17904 0.031578 0.074161 0.070708 
-0.2374 0.9518 0.3946 -0.11409 -0.11656 0.044731 0.070708 0.13828 
-0.1963 1.0161 1.0728 0.12332 0.025001 0.06183 0.072353 0.16377 
-0.12429 0.90133 0.64846 0.35909 0.16689 0.083204 0.059528 0.15867 
-0.0039354 0.74563 -0.43569 0.3997 0.20405 0.10277 0.066598 0.1105 
0.067913 0.53863 -0.91002 0.26603 0.15094 0.10129 0.060844 0.0421 
0.053609 0.24532 -0.82074 0.091589 0.013164 0.10326 0.075805 0.042594 
-0.016595 0.084684 -0.67606 0.016452 -0.011992 0.095042 0.1008 0.053774 
-0.096829 0.010204 -0.50638 0.01415 -0.0055795 0.090274 0.07301 0.03799 
-0.085156 -0.048163 -0.19926 0.09422 0.026481 0.078272 0.069722 0.048348 
0.00033937 -0.12083 0.17906 0.077285 -0.0042642 0.046211 0.0324 0.0031344 
0.075312 -0.10784 0.49342 -0.0057439 -0.065755 0.018918 -0.0068948 -0.021856 
0.1105 -0.032215 0.95115 0.00099702 -0.05326 -0.009361 -0.015116 -0.019555 
0.11033 0.0011614 1.2826 0.028947 -0.055232 0.01152 0.0031344 0.0095465 
0.048513 0.039141 1.1601 0.013986 -0.04471 0.031742 0.060186 0.040292 
-0.067892 0.20323 0.60061 0.067256 -0.014787 0.046375 0.075805 0.082711 
-0.13464 0.49259 0.075312 0.1003 0.0047785 0.061337 0.063639 0.088958 
-0.085813 0.4293 -0.043395 0.079258 -0.03764 0.038319 0.031414 0.060679 
0.099645 0.1174 0.036839 0.0013258 -0.097322 -0.021034 -0.016102 0.0036276 
0.26751 -0.16901 0.088301 -0.067892 -0.14204 -0.045203 -0.027118 -0.046683 
0.28149 -0.58991 0.17528 -0.017746 -0.11771 -0.038627 -0.043888 -0.057863 
0.22082 -1.1593 0.28412 0.029934 -0.070852 -0.0073881 -0.018733 -0.026789 
0.1054 -1.0394 0.1927 0.17248 0.02122 0.0088889 0.0070803 0.00033937 
0.01415 -0.24546 -0.25417 0.27409 0.090438 0.019411 0.026481 0.018918 
-0.057205 0.30187 -0.7147 0.1322 -0.0014692 0.032071 0.042594 0.053116 
-0.18791 0.60505 -0.74002 0.0069159 -0.03764 0.079258 0.08567 0.11691 
-0.24612 0.90527 -0.57231 0.10474 0.049499 0.12464 0.12562 0.13368 
-0.14862 0.87075 -0.036489 0.18103 0.082546 0.092904 0.088794 0.07449 
0.016616 0.5674 0.44886 -0.018239 -0.044052 0.045882 0.015137 -0.0027845 
0.18498 0.36567 0.45511 -0.26404 -0.20764 -0.0078813 -0.01676 -0.064604 
0.26192 0.25058 0.040621 -0.32438 -0.26371 -0.056219 -0.049149 -0.070852 
0.19237 -0.063453 -0.64877 -0.06 -0.14106 -0.0057439 -0.014951 0.0018191 
-0.045696 -0.072003 -0.95408 0.32276 0.13088 0.098659 0.096028 0.1562 
-0.182 0.32045 -0.62098 0.58417 0.30352 0.12661 0.14996 0.1932 
-0.11442 0.57776 -0.20534 0.54767 0.2583 0.090931 0.11559 0.12414 
-0.0049219 0.35712 -0.16638 0.23825 0.078929 0.051308 0.054103 0.043251 
0.020891 0.10359 -0.33901 -0.03353 -0.071509 0.056569 0.035031 0.036675 
-0.07003 0.24811 -0.21619 -0.15158 -0.10193 0.06742 0.055582 0.058871 
-0.1524 0.5069 -0.29692 -0.091239 -0.07825 0.089287 0.095535 0.097837 
-0.1205 0.48618 -0.17953 0.071695 0.018918 0.074326 0.069558 0.052952 
-0.022185 0.1853 0.39658 0.24943 0.11428 0.079258 0.06331 0.065118 
0.078436 -0.27884 1.6968 0.28149 0.10359 0.050979 0.024673 0.026974 
0.15209 -0.66356 2.1838 0.25469 0.06035 0.0074092 -0.0029489 0.0031344 
0.18909 -0.60339 0.97071 0.36106 0.098166 -0.019719 -0.009361 -0.062467 
0.12546 -0.12626 -0.56985 0.31716 0.090109 -0.050958 -0.014622 -0.048656 
0.00033937 0.43883 -2.0663 0.13615 -0.018897 -0.0036066 -0.0068948 -0.068221 
-0.027775 0.60933 -2.2819 -0.20699 -0.22228 -0.033201 -0.0072237 0.022206 
0.034702 0.35745 -1.4621 -0.50803 -0.4102 -0.052602 -0.01232 0.036839 
0.2052 -0.53466 0.055747 -0.65501 -0.51181 -0.098309 -0.0077169 -0.035338 
0.39493 -1.1359 0.56625 -0.62887 -0.5031 -0.089431 -0.061151 -0.11261 
0.39773 -0.76336 -0.22935 -0.45492 -0.35562 -0.027775 -0.034188 -0.079895 
0.15209 0.059693 -0.9258 -0.13991 -0.10587 0.069064 0.031414 0.029276 
-0.17164 0.63744 -0.86464 0.17412 0.08156 0.13401 0.1128 0.12201 
-0.22622 0.71488 -0.070523 0.36238 0.18432 0.11642 0.086985 0.091096 
0.0034632 0.30533 1.3576 0.28626 0.091096 0.023028 -0.010676 -0.028597 
0.13795 -0.10834 2.2987 0.1756 -0.0022913 -0.032708 -0.024158 -0.027611 
0.033058 -0.3109 1.9288 0.15867 -0.028269 -0.001798 0.007738 0.040292 
-0.12067 -0.52677 0.76782 0.15061 -0.027282 0.0036276 0.039963 0.060515 
-0.21274 -0.41004 -0.39458 0.1031 -0.056383 -0.046519 0.018754 0.028619 
-0.145 0.022206 -0.89687 -0.062467 -0.15816 -0.063453 -0.022843 -0.0072237 
0.012177 0.19583 -0.75728 -0.22951 -0.20534 -0.047669 -0.037969 -0.017911 
0.14568 -0.069701 -0.47103 -0.25549 -0.19367 -0.0031133 -0.021199 -0.0016336 
0.16262 -0.20074 -0.22721 -0.15257 -0.12511 0.066598 0.05772 0.058706 
0.15292 -0.18364 0.095206 -0.0004827 -0.042901 0.075805 0.089123 0.068736 
0.25798 -0.021034 0.78673 0.010697 -0.056712 0.029605 0.020562 -0.039942 
0.35054 0.32489 1.8664 -0.12955 -0.16029 -0.034516 -0.043559 -0.095021 
0.21687 0.32933 2.0554 -0.18101 -0.20436 -0.022679 -0.014951 -0.068386 
0.056898 0.038319 0.8719 -0.13086 -0.15059 0.017603 0.036346 0.026974 
-0.068879 -0.13991 -0.51197 -0.060494 -0.10045 0.028783 0.066927 0.047691 
-0.073482 -0.1912 -1.2387 -0.063946 -0.097651 0.034702 0.038483 0.071202 
-0.011663 -0.21241 -1.1127 -0.17049 -0.18265 0.0092177 0.01415 0.046375 
0.057555 -0.30037 -0.66241 -0.18709 -0.19614 -0.018568 0.0028056 0.033551 
0.0080668 -0.11393 -0.41382 -0.13908 -0.16194 0.031249 0.01415 0.021549 
-0.072167 0.27031 -0.4301 -0.046354 -0.098309 0.04917 0.029769 0.059528 
-0.1039 0.44672 -0.36466 0.025824 -0.027447 0.072024 0.062652 0.056898 
-0.057041 0.40546 -0.25861 0.24417 0.10228 0.07301 0.043909 0.071366 
0.034866 0.31388 0.065283 0.41762 0.20619 0.037168 0.023522 0.01711 
0.062817 0.079094 0.41844 0.42387 0.1756 0.031578 0.012506 0.0090533 
-0.060987 -0.040435 0.65898 0.38885 0.19484 0.088136 0.054103 0.070051 
-0.16243 0.2075 1.2407 0.18185 0.15226 0.20175 0.12003 0.14141 
-0.15405 0.22345 1.3655 -0.11294 0.0042853 0.22164 0.13615 0.15522 
-0.081868 -0.37403 0.27771 -0.16161 -0.05178 0.17955 0.11921 0.12414 
-0.03057 -0.75054 -0.36713 0.14782 0.065447 0.11987 0.09685 0.068736 
0.19303 -0.87253 0.45149 0.37767 0.12842 -0.039778 -0.022185 -0.0406 
0.48174 -1.0353 1.4396 0.29185 -0.049642 -0.20041 -0.14599 -0.18463 
0.58204 -0.44473 0.093069 0.17051 -0.16309 -0.25434 -0.1912 -0.19844 
0.38638 0.56609 -1.3576 0.0011614 -0.24464 -0.22754 -0.10078 -0.14073 
0.10277 1.0342 -0.64811 -0.1935 -0.2716 -0.10225 -0.025474 0.025659 
-0.15717 1.0046 0.50361 -0.23938 -0.25154 0.016123 0.052952 0.085999 
-0.35742 0.74941 0.49966 -0.15289 -0.096994 0.10162 0.12118 0.18481 
-0.30991 0.1909 0.36073 -0.039613 0.017603 0.091918 0.092576 0.13401 
-0.084991 -0.28837 0.93997 -0.1136 -0.095349 0.054596 0.023851 0.013492 
0.065283 -0.35331 0.89344 -0.3252 -0.24414 0.013821 0.012013 -0.015116 
0.057391 -0.033201 -0.66734 -0.449 -0.32142 -0.0004827 0.031742 0.01415 
0.0041209 0.31338 -2.0363 -0.28492 -0.20353 0.049006 0.061172 0.082546 
-0.039613 0.44738 -1.8347 0.086328 0.038977 0.094055 0.094548 0.092576 
-0.035338 0.30714 -0.74445 0.40726 0.23298 0.11181 0.083862 0.098494 
-0.053095 0.16919 0.0088889 0.56148 0.32407 0.12644 0.075312 0.061501 
-0.068386 0.12168 0.33328 0.55573 0.28478 0.11559 0.070215 0.09274 
-0.045532 0.047691 0.40167 0.40891 0.20701 0.077449 0.06035 0.080738 
0.009711 0.0075736 0.37866 0.29661 0.12579 0.072188 0.065118 0.063803 
0.048184 0.051801 0.17626 0.2731 0.11625 0.033387 0.06742 0.054925 
0.044238 0.12875 0.016781 0.20388 0.047691 0.042758 0.025824 0.026152 
0.048841 0.26274 0.014315 0.079587 -0.026131 0.022042 -0.00031829 -0.00064712 
0.03536 0.30072 0.060022 0.0041209 -0.07266 0.022371 0.0064227 0.022371 
0.022206 0.16475 0.24038 -0.019884 -0.10489 -0.0039354 0.0064227 0.018589 
0.038648 -0.03912 0.25206 -0.064768 -0.12429 -0.026789 0.027139 0.017274 
0.11839 -0.2476 0.049828 -0.094856 -0.1478 -0.021856 0.0072447 -0.010183 
0.13993 -0.18183 -0.063946 -0.074304 -0.12823 -0.033859 -0.022185 -0.0026201 
0.096193 0.016616 -0.21011 -0.084334 -0.14993 -0.041422 -0.017746 -0.014787 
0.0092177 0.20914 -0.6703 -0.17756 -0.1917 -0.044381 -0.025967 0.0019835 
-0.090088 0.49259 -1.595 -0.12001 -0.13136 0.0023123 0.057884 0.046704 
-0.13974 0.66194 -1.7485 0.12332 0.017932 0.073997 0.087643 0.090931 
-0.10752 0.59256 -0.84392 0.21194 0.065118 0.074819 0.071202 0.056569 
0.032236 0.34709 0.36632 0.12069 -0.012156 0.017603 0.019905 0.00083261 
0.24532 -0.36038 1.3421 -0.013307 -0.11574 -0.041751 -0.017582 -0.065262 
0.36419 -1.1326 2.3051 -0.12527 -0.18972 -0.038791 -0.014951 -0.058192 
0.27195 -1.3896 2.7561 -0.16194 -0.17871 -0.015444 -0.014458 -0.0098543 
0.048677 -0.96312 2.0711 -0.15141 -0.157 -0.0052507 0.00017495 0.046046 
-0.14221 0.12644 0.68677 -0.1136 -0.13152 -0.0032777 0.018096 0.087314 
-0.17246 0.82586 -0.62147 -0.049478 -0.074469 0.035195 0.063803 0.078107 
-0.10258 0.76125 -1.2908 0.037004 -0.014293 0.069064 0.081724 0.062159 
0.038155 0.64534 -1.461 -0.065262 -0.066741 0.084519 0.044238 0.026317 
0.026646 0.80646 -1.6976 -0.17558 -0.1649 0.055582 0.04095 0.021384 
-0.080388 0.80745 -1.6671 -0.10324 -0.13941 0.011684 0.011026 0.061337 
-0.032543 0.42634 -1.1624 0.16475 -0.014293 -0.026953 0.042429 0.043416 
0.054103 -0.17723 -0.34279 0.43143 0.16146 -0.01232 0.019411 -0.001798 
0.1054 -0.53088 0.40661 0.34248 0.11905 -0.0013048 -0.014787 -0.00031829 
0.16837 -0.6218 0.69351 0.1687 0.039634 0.049335 -0.05326 -0.013143 
0.17939 -0.59221 0.43521 0.0082312 -0.022021 0.062488 0.01974 0.036675 
0.075312 -0.070194 0.086657 0.092576 0.011684 0.10425 0.079422 0.059035 
-0.079401 0.55639 -0.015773 0.12546 0.043087 0.11165 0.098988 0.082053 
-0.14369 0.66128 0.24351 0.010862 -0.0503 0.031578 0.03799 0.033058 
-0.0095255 0.31914 0.51874 -0.11557 -0.15076 -0.022843 -0.022021 -0.010183 
0.10836 -0.14829 0.52334 -0.16095 -0.16786 -0.0034422 -0.0036066 -0.03057 
0.14321 -0.072496 0.56658 -0.17624 -0.145 0.045553 0.052294 0.039634 
0.15242 -0.14155 0.81386 -0.20123 -0.14829 0.035688 0.0592 0.0095465 
0.072024 -0.77849 0.86697 -0.082361 -0.12462 0.029769 0.043251 0.047855 
-0.013636 -0.84277 0.23874 0.023851 -0.04619 0.045718 0.035195 0.063639 
-0.098638 -0.46544 -0.31665 0.12349 0.011191 0.036182 0.045224 0.10425 
-0.12511 -0.082525 -0.26338 0.11937 0.011355 0.0032988 0.041278 0.077778 
-0.08828 0.2029 -0.11524 0.098659 -0.033694 -0.013636 0.016945 0.057391 
-0.030077 0.39477 -0.47613 0.22871 0.046375 0.01415 0.023686 0.056404 
-0.0087034 0.47155 -0.7706 0.40825 0.15653 0.066927 0.045389 0.059693 
-0.02646 0.37915 -0.6509 0.51101 0.2024 0.084026 0.072024 0.067913 
0.0052718 0.26702 -0.5271 0.35021 0.1294 0.061501 0.049006 0.026646 
0.077121 0.077943 -0.23921 -0.053424 -0.099131 -0.0019624 -0.014951 -0.025802 
0.20799 -0.14451 0.71192 -0.44933 -0.33095 -0.048163 -0.06296 -0.074633 
0.30253 -0.31238 1.8054 -0.54979 -0.40412 -0.057041 -0.08121 -0.10275 
0.27327 -0.28393 1.8061 -0.44341 -0.34312 -0.050136 -0.026296 -0.059178 
0.13861 -0.20962 0.58976 -0.29889 -0.26174 -0.040271 -0.0024557 -0.0059084 
-0.027282 -0.16703 -0.033694 -0.0068948 -0.10143 -0.014622 0.01267 0.038648 
-0.048656 -0.15733 0.54685 0.17791 0.010862 -0.0032777 0.021713 0.041772 
-0.013965 -0.18315 0.83375 0.23759 0.047526 0.010862 0.012999 0.020562 
-0.0049219 -0.058685 0.16426 0.34084 0.1294 0.010697 0.03536 0.040785 
0.004943 0.1544 -0.5562 0.3415 0.12891 0.0421 0.057391 0.030592 
-0.03912 0.43521 -1.3293 0.096193 0.011848 0.072188 0.054103 0.062488 
-0.071016 0.7042 -2.0067 -0.14829 -0.13941 0.06479 0.05065 0.057884 
-0.10143 0.76273 -1.8679 -0.073482 -0.12001 0.040785 0.036346 0.055089 
-0.14056 0.68891 -1.1009 0.065776 -0.031064 0.027632 0.054925 0.051636 
-0.16638 0.60999 -0.30514 0.21704 0.073997 0.0592 0.054267 0.07038 
-0.03353 0.086328 0.47648 0.30894 0.15472 0.048841 0.030098 0.015301 
0.17133 -0.50063 1.1027 0.31256 0.11839 0.044567 -0.0032777 -0.012814 
0.27146 -0.72637 1.1739 0.15094 0.027303 0.052294 -0.004593 -0.026296 
0.31453 -0.91265 0.99669 -0.084169 -0.10571 0.03388 0.036346 -0.0047575 
0.28165 -1.0799 0.9814 -0.20863 -0.20107 0.0065871 0.020562 0.0080668 
0.12562 -0.74856 0.60111 -0.16769 -0.17262 -0.0013048 0.02829 0.049664 
-0.07003 0.04506 0.0047785 0.027796 -0.053424 0.040128 0.014643 0.070873 
-0.17476 0.58417 -0.68625 0.16771 0.067913 0.060186 0.058542 0.11395 
-0.14747 0.94539 -1.055 0.17577 0.051801 0.068571 0.077285 0.093726 
-0.094363 0.98814 -0.90443 0.17889 0.045389 0.0592 0.070215 0.078107 
-0.07003 0.78048 -0.46101 0.18004 0.053609 0.06331 0.085835 0.074326 
-0.037969 0.4773 -0.022843 0.17314 0.0592 0.058377 0.067749 0.04095 
0.0080668 0.2006 0.38737 0.11346 0.0090533 0.034044 0.050157 0.025659 
0.023686 0.045389 0.85546 -0.072989 -0.12001 0.010862 0.016945 -0.013965 
0.048513 -0.006566 1.6438 -0.26979 -0.21471 -0.025474 -0.018239 -0.038298 
0.061008 -0.090088 1.7352 -0.19614 -0.19038 -0.034845 -0.0090322 -0.020377 
0.10376 -0.1769 0.95871 -0.0052507 -0.06707 -0.0039354 0.0018191 -0.010512 
0.10984 -0.1866 0.081395 0.091589 -0.0083746 0.03947 0.037332 0.034537 
0.0070803 0.15834 -0.58777 0.15637 0.041114 0.082711 0.076299 0.074983 
-0.093376 0.46382 -1.352 0.11148 0.0087245 0.078107 0.083697 0.09126 
0.034209 0.21934 -2.2352 -0.1501 -0.16687 -0.0047575 1.0539e-005 0.00297 
0.20306 -0.25828 -2.1775 -0.27209 -0.26667 -0.087622 -0.061645 -0.067235 
0.19862 -0.4855 -0.87599 -0.12462 -0.19663 -0.079401 -0.037805 -0.039942 
0.17199 -0.53598 0.36846 0.0036276 -0.082854 -0.018239 -0.017911 -0.022021 
0.12497 -0.3959 0.84559 0.11198 0.0021479 0.017932 0.0054362 0.016452 
0.0056006 -0.028597 0.87568 0.31256 0.12118 0.025001 0.04095 0.053774 
-0.10406 0.24203 1.3531 0.26307 0.082711 0.022535 0.064296 0.086657 
-0.071181 0.20832 1.3719 0.056733 -0.043066 0.0070803 0.072846 0.067091 
-0.0090322 0.1909 0.24614 -0.065426 -0.11738 0.010862 0.038812 0.05624 
0.018754 0.29892 -0.94487 -0.10456 -0.14171 0.011355 0.007738 0.023686 
-0.013636 0.37603 -1.1473 -0.14961 -0.15092 0.035195 0.025001 0.047526 
-0.029913 0.37011 -0.54107 -0.17262 -0.15421 0.05476 0.04095 0.047362 
0.031907 0.46826 0.16508 -0.14928 -0.11212 0.057391 0.080902 0.054267 
0.10211 0.37372 0.75007 -0.087458 -0.0965 0.058213 0.050321 0.024344 
0.08978 -0.001798 1.0738 -0.03353 -0.062302 0.054432 0.022371 0.047855 
0.044896 -0.4319 1.0616 0.054925 -0.018733 0.041114 0.015301 0.037826 
0.013492 -0.6994 0.52663 0.25995 0.097508 0.057227 0.032071 0.067749 
-0.024323 -0.44736 -0.1889 0.35087 0.18169 0.10721 0.10277 0.079258 
-0.02942 -0.079072 -0.55094 0.28461 0.14387 0.11313 0.098166 0.078272 
0.015794 -0.080059 -0.73508 0.079094 0.0060938 0.031249 0.014315 0.01826 
0.14683 -0.40774 -0.63216 -0.20995 -0.24414 -0.091239 -0.069372 -0.057534 
0.2371 -0.42829 -0.09946 -0.52825 -0.45459 -0.16358 -0.098638 -0.10341 
0.2394 -0.0022913 0.21753 -0.67063 -0.53285 -0.16901 -0.063618 -0.07414 
0.14831 0.47582 0.085341 -0.36877 -0.32635 -0.053095 -0.022021 -0.02646 
0.024837 0.6432 -0.093048 0.10852 -0.0060728 0.019247 0.031414 0.035031 
-0.042408 0.52696 0.40759 0.38556 0.16607 0.070873 0.071695 0.059528 
-0.13267 0.30894 0.53271 0.48766 0.22887 0.090438 0.1003 0.071531 
-0.2374 0.40447 0.17265 0.31815 0.12743 0.067913 0.080902 0.064132 
-0.19663 0.43784 -0.1792 0.12842 0.022535 0.048184 0.021056 0.037497 
-0.01939 0.33689 -0.28262 -0.015938 -0.059178 0.031414 0.0093821 -0.0095255 
0.1853 -0.061973 -0.075127 -0.2254 -0.18068 -0.0026201 -0.022514 -0.0062372 
0.30039 -0.68461 0.082382 -0.36729 -0.27472 0.00066819 0.015301 -0.023007 
0.30122 -1.1336 0.10984 -0.25878 -0.20666 0.023522 0.050486 0.014808 
0.171 -0.70746 0.015137 -0.07562 -0.091075 0.06742 0.074654 0.051143 
-0.044381 0.0051074 0.076792 0.09685 -0.044546 0.048841 0.083862 0.097837 
-0.12692 0.57382 0.18218 0.18761 -0.023665 -0.027775 0.063639 0.069229 
-0.11722 0.8691 0.1054 0.26768 0.011684 -0.037805 0.037661 0.012835 
-0.057534 0.6455 -0.015116 0.19665 0.018754 -0.028926 0.00050378 -0.011498 
-0.0011404 0.27212 -0.1307 0.0056006 -0.06707 0.028783 -0.0031133 0.01563 
-0.0011404 0.036839 -0.17542 -0.053424 -0.06855 0.064461 0.047197 0.075148 
-0.030735 -0.12462 -0.18232 0.075312 0.020562 0.086657 0.086163 0.075148 
-0.059507 -0.10061 -0.080717 0.16015 0.047033 0.073504 0.075641 0.048513 
-0.014293 -0.021034 0.18366 0.19237 0.059035 0.048677 0.029112 -0.017253 
0.023851 0.030592 0.42223 0.25798 0.09833 0.047526 0.0227 0.0087245 
0.061995 0.029769 0.52318 0.2103 0.086163 0.056733 0.023028 0.052952 
0.090109 -0.11919 0.46284 0.064625 -0.01528 0.038155 0.0023123 0.087643 
0.051965 0.032564 -0.030077 0.036675 -0.036489 0.025001 0.030098 0.0786 
-0.064275 0.35366 -0.71371 0.171 0.048019 0.040128 0.049664 0.10639 
-0.13168 0.45741 -0.97217 0.21293 0.067913 0.081067 0.064132 0.10145 
-0.10538 0.31322 -0.95622 0.051636 -0.019226 0.079258 0.056898 0.075805 
-0.033365 0.28724 -0.63791 -0.02942 -0.082196 0.034373 0.042758 0.016781 
0.099316 0.12299 -0.042901 -0.06444 -0.098638 0.014479 0.02122 -0.032379 
0.25354 -0.20945 0.64895 -0.14698 -0.18578 -0.049807 -0.037311 -0.073811 
0.28116 -0.13777 0.61936 -0.1427 -0.16786 -0.039284 -0.056055 -0.073318 
0.055582 0.25847 -0.58201 -0.016595 -0.073154 0.049006 0.005765 -0.0013048 
-0.17838 0.45774 -1.2688 0.1202 0.029769 0.10211 0.082217 0.11083 
-0.27489 0.3415 -0.85231 0.11099 0.057555 0.11543 0.13532 0.15209 
-0.21373 0.11559 0.082382 0.13762 0.053281 0.092904 0.095371 0.11231 
-0.089431 -0.23905 1.2094 0.080573 0.012506 0.037168 0.042758 0.072681 
0.087972 -0.67557 2.304 0.12168 -0.035832 0.00017495 -0.0031133 0.0075736 
0.20043 -0.68938 2.1443 0.099645 -0.069536 -0.038956 -0.023829 -0.022185 
0.24795 -0.55127 1.4196 0.1174 -0.046847 -0.036983 -0.024323 -0.017582 
0.2468 -0.39475 0.49654 0.20684 0.024179 -0.0014692 -0.0004827 0.0016547 
0.28445 -0.25335 -0.32767 0.29464 0.096028 0.019576 -0.014622 -0.0070593 
0.29711 -0.067728 -0.86563 0.31108 0.099974 0.028783 -0.034516 -0.023007 
0.072681 0.40052 -1.3592 0.13582 0.024179 0.0227 -0.017746 0.020891 
-0.15618 0.5799 -1.0027 -0.060329 -0.10406 0.04654 0.056076 0.077121 
-0.20288 0.33377 -0.13316 -0.26848 -0.19893 0.032236 0.0016547 0.05624 
-0.1455 0.27409 0.37718 -0.40954 -0.28936 -0.017088 -0.040928 -0.0067304 
-0.13793 0.54554 -0.28804 -0.42171 -0.30596 -0.010348 -0.026953 -0.0011404 
-0.14434 0.64945 -1.2382 -0.23346 -0.1935 0.036182 0.078107 0.092576 
-0.063618 0.42173 -1.2823 0.069886 0.0014903 0.078765 0.10606 0.091425 
0.0051074 0.25863 -1.0657 0.21457 0.097179 0.0689 0.095699 0.10129 
0.014315 0.32325 -0.84951 0.28987 0.10737 0.063145 0.061172 0.053774 
-0.022679 0.20602 -0.10801 0.35827 0.1373 0.059693 0.032729 -0.0036066 
0.028454 -0.27341 0.97729 0.28494 0.077614 0.0090533 0.0042853 -0.027282 
0.16031 -0.80562 1.8605 0.046704 -0.085813 -0.056712 -0.042573 -0.051944 
0.24153 -1.0922 2.9042 -0.23494 -0.24727 -0.081868 -0.066906 -0.070523 
0.31996 -1.3391 3.0688 -0.39113 -0.34624 -0.096007 -0.11442 -0.090088 
0.43176 -1.093 1.4669 -0.41069 -0.35858 -0.14122 -0.14434 -0.16111 
0.4094 -0.14237 -0.64318 -0.29791 -0.30909 -0.11146 -0.091075 -0.1279 
0.18152 0.56231 -1.9272 -0.084169 -0.12396 0.014643 0.012506 0.0047785 
-0.017911 0.46941 -1.6061 0.17955 0.070708 0.1271 0.11822 0.15259 
-0.064604 -0.011498 -0.5636 0.34018 0.18481 0.16377 0.16245 0.15209 
-0.050464 -0.34805 0.31207 0.35186 0.1853 0.13171 0.11822 0.14667 
-0.093048 -0.13875 0.70222 0.2394 0.10622 0.08863 0.091918 0.10556 
-0.1205 0.26735 0.63531 -0.060987 -0.084169 0.019411 0.031085 0.069229 
-0.10324 0.5771 0.11083 -0.29972 -0.27061 -0.046847 0.0052718 0.012506 
-0.10423 0.70946 -0.59467 -0.30925 -0.28492 -0.056712 0.0090533 -0.0059084 
-0.11508 0.72343 -0.936 -0.15207 -0.17295 -0.019719 0.060679 0.0421 
-0.092554 0.6187 -0.92186 -0.018404 -0.075949 0.029934 0.071037 0.060186 
-0.047176 0.44623 -0.76829 0.025495 -0.055232 0.032564 0.055582 0.058377 
0.01711 0.36189 -0.25894 0.015137 -0.060658 0.029934 0.037168 0.059857 
0.080902 0.26817 0.10293 -0.0013048 -0.054739 0.032893 0.023851 0.049664 
0.11132 0.033387 0.40332 -0.019884 -0.056877 0.056569 0.040292 0.059364 
0.14831 -0.38094 0.57661 -0.065262 -0.075949 0.054267 0.033715 0.018918 
0.26505 -0.74396 0.46645 -0.026624 -0.071345 0.005765 -0.01232 -0.045532 
0.36386 -0.93632 0.27442 0.14568 0.02122 -0.025967 -0.04471 -0.098144 
0.32522 -0.644 0.21243 0.32489 0.091425 -0.04471 -0.061645 -0.11064 
0.13615 -0.31287 0.79051 0.30237 0.08304 -0.023336 0.0054362 -0.042901 
-0.11607 0.074161 0.96562 0.048841 -0.062796 0.00297 0.033058 0.022535 
-0.37502 0.51759 0.38392 -0.1672 -0.18463 0.01267 0.058871 0.067749 
-0.43519 0.95526 -0.32553 -0.22639 -0.19531 0.027632 0.066105 0.10425 
-0.25746 1.1141 -0.7604 -0.06855 -0.093048 0.0324 0.084519 0.095535 
-0.028104 0.94161 -0.85362 0.21227 0.10474 0.12562 0.12776 0.082382 
0.20323 0.60621 -0.70286 0.42584 0.23052 0.16804 0.086492 0.22575 
0.24005 0.36123 -0.21685 0.29283 0.19764 0.19122 0.15176 0.12135 
0.24696 -0.28821 0.75697 -0.010019 0.0031344 0.1345 0.11099 0.090931 
0.20471 -1.2533 1.451 -0.26059 -0.20633 0.0098754 0.015301 0.007738 
0.13187 -1.5172 0.72984 -0.34805 -0.31681 -0.088608 -0.038791 -0.029913 
0.10606 -1.0966 -0.54584 -0.25072 -0.29955 -0.10012 -0.06296 -0.056712 
0.021713 -0.13136 -1.2143 0.047855 -0.10784 -0.09946 -0.047176 -0.040435 
-0.086307 0.61377 -1.1696 0.31125 0.031907 -0.047998 -0.0044286 -0.0087034 
-0.044381 0.61886 -0.56261 0.37586 0.094713 -0.022679 0.019411 0.0085601 
0.084848 0.34495 -0.026953 0.31157 0.090438 0.013492 0.039141 0.018096 
0.12053 0.32736 0.30401 0.14634 0.033715 0.057884 0.038483 0.039634 
0.018754 0.42075 0.18054 -0.054739 -0.059343 0.070544 0.045389 0.099152 
-0.17986 0.60834 -0.18611 -0.077922 -0.040435 0.1077 0.073504 0.12266 
-0.2471 0.76141 -0.36729 0.023193 0.041114 0.12381 0.12842 0.12036 
-0.12462 0.95115 -0.16983 0.23726 0.13269 0.11428 0.11642 0.087643 
0.007738 0.47665 0.22904 0.39099 0.20454 0.1179 0.082546 0.046211 
0.033222 -0.10719 0.62215 0.42223 0.21227 0.08715 0.045553 0.051308 
0.013328 -0.22359 0.86943 0.28872 0.10967 0.068571 0.029605 0.047362 
0.021713 -0.17197 0.8377 0.0074092 -0.078415 0.031085 0.022206 0.042594 
0.066434 -0.092226 0.24778 -0.26881 -0.24497 -0.01117 0.0039565 -0.0138 
0.095699 -0.078579 -0.40806 -0.48057 -0.36351 -0.039284 -0.040271 -0.038627 
0.10754 -0.19235 -0.83718 -0.55752 -0.4398 -0.075291 -0.063782 -0.047176 
0.14486 -0.50063 -0.16309 -0.50688 -0.41201 -0.1039 -0.07266 -0.067892 
0.1927 -1.008 0.83129 -0.27308 -0.27505 -0.074798 -0.050793 -0.060987 
0.12579 -1.19 0.889 0.091425 -0.046025 -0.041751 -0.018897 -0.01232 
0.033222 -0.91742 0.096686 0.26505 0.061172 0.042594 1.0539e-005 0.064954 
-0.0013048 -0.32783 -0.32323 0.20865 0.046375 0.061501 0.033058 0.063639 
0.021056 0.37619 -0.51937 0.025824 -0.044381 0.026646 0.036675 0.069064 
0.014808 0.80252 -0.66537 0.032893 -0.045696 0.019247 0.03651 0.039305 
0.016781 1.0962 -0.68592 0.22904 0.091096 0.049992 0.025988 0.038977 
-0.051122 1.1659 -0.61753 0.39033 0.2001 0.073997 0.042758 0.044238 
-0.13333 0.75944 0.033387 0.414 0.22526 0.091096 0.08863 0.10655 
-0.17969 0.14141 0.78805 0.47204 0.23627 0.082217 0.10918 0.12332 
-0.14254 -0.23231 0.73346 0.62051 0.3101 0.10129 0.08978 0.091425 
-0.068057 -0.26996 0.053445 0.57069 0.25436 0.057884 0.034702 0.0065871 
0.070873 -0.16276 -0.52989 0.22953 0.017932 -0.010676 -0.024816 -0.028433 
0.22493 -0.099295 -0.25812 -0.28311 -0.28804 -0.068221 -0.088773 -0.088115 
0.35153 0.12497 0.31749 -0.65715 -0.49866 -0.086142 -0.087458 -0.087293 
0.26094 0.18925 0.54077 -0.79838 -0.51608 -0.07562 -0.038791 -0.044874 
0.069558 -0.0032777 0.55902 -0.66751 -0.44095 -0.0039354 0.017438 0.056898 
-0.076935 -0.18183 0.13582 -0.40149 -0.25911 0.075312 0.087808 0.10721 
-0.097322 -0.22211 -0.23083 -0.091075 -0.08121 0.11987 0.070051 0.10967 
-0.063289 -0.15898 -0.45788 0.30845 0.11888 0.092904 0.096028 0.10359 
-0.039284 -0.083347 -0.30629 0.49243 0.21868 0.069064 0.051801 0.071366 
-0.009361 0.0032988 0.14502 0.48273 0.21079 0.038319 0.030263 0.040456 
0.0037921 -0.089595 0.30237 0.30566 0.12973 0.029769 -0.0052507 -0.0031133 
0.13746 -0.37255 0.40825 0.08567 -0.034516 -0.028269 -0.0771 -0.068386 
0.19533 -0.077264 0.23216 0.013986 -0.079237 -0.058521 -0.086964 -0.091075 
0.051636 0.70041 -0.1233 0.059857 -0.046847 -0.038462 -0.03353 -0.014293 
-0.19745 0.89656 -0.37715 0.10425 -0.011334 0.019905 0.064461 0.10096 
-0.30333 0.57677 -0.41859 0.14223 0.032893 0.057555 0.099481 0.17232 
-0.21274 0.090109 0.093233 0.15028 0.036675 0.093069 0.1003 0.13779 
0.022864 -0.20386 0.70831 0.040456 -0.021363 0.045389 0.043745 0.033387 
0.20487 -0.28377 1.0787 -0.14451 -0.17147 -0.011498 -0.013965 -0.028104 
0.30138 -0.20057 0.77637 -0.30185 -0.24727 -0.011992 -0.015444 -0.069208 
0.28954 0.065283 0.18004 -0.25121 -0.20764 0.012999 0.0019835 -0.028433 
0.22345 0.13088 -0.42155 -0.092719 -0.12067 0.049006 0.012506 -0.019061 
0.04654 0.050979 -0.73541 -0.0083746 -0.068221 0.031085 0.035195 -0.0004827 
-0.11524 -0.00015387 -0.5539 0.047691 -0.037147 0.027303 0.044402 0.064461 
-0.20419 -0.16999 -0.4495 0.21457 0.069558 0.046375 0.059364 0.090931 
-0.16786 -0.16325 -0.12363 0.2736 0.076792 0.015465 0.0421 0.10704 
-0.075127 -0.03501 0.38786 0.15111 0.0037921 0.020069 0.031578 0.044567 
0.032893 0.15686 0.72245 -0.0070593 -0.089924 0.0016547 0.03947 0.043416 
0.091753 0.30056 0.84346 -0.09091 -0.14171 0.0021479 0.016616 -0.0040998 
0.11378 0.48931 0.39625 -0.14993 -0.16523 -0.0011404 0.014972 -0.0060728 
0.091753 0.50558 -0.075127 -0.10291 -0.133 0.011848 0.01826 -0.0011404 
0.011684 0.37685 -0.38998 -0.051944 -0.072496 0.046704 0.024673 0.035031 
-0.038462 0.25814 -0.55916 -0.024652 -0.077428 0.049335 0.058871 0.059364 
-0.036983 0.14963 -0.47071 0.0011614 -0.052931 0.042923 0.049006 0.072353 
-0.059178 0.037497 -0.52611 0.12431 0.034866 0.06594 0.049664 0.074326 
-0.079895 0.0054362 -0.63232 0.25074 0.088136 0.063968 0.041936 0.086328 
-0.041093 0.095206 -0.55538 0.15275 0.01004 0.027632 0.019411 0.030592 
0.066434 0.01152 0.056733 -0.058685 -0.13563 0.0047785 -0.0095255 -0.0050863 
0.19139 -0.29873 0.86401 -0.20238 -0.20616 -0.044381 -0.023994 -0.037805 
0.20668 -0.4153 0.61245 -0.18907 -0.22409 -0.014787 0.011191 -0.008539 
0.17774 -0.28755 -0.27045 -0.095021 -0.13152 0.017274 0.04506 0.024508 
0.20142 -0.35479 -0.22951 -0.038298 -0.091075 0.035688 0.047855 0.01004 
0.13286 -0.31583 0.74152 -0.072332 -0.11919 0.0016547 0.013821 -0.012156 
-0.013636 -0.11113 1.2828 -0.051615 -0.11903 -0.0057439 -0.0044286 0.010204 
-0.10143 0.16607 0.9911 0.10326 0.009711 0.049499 0.025824 0.034373 
-0.11015 0.5212 0.4293 0.18711 0.12973 0.1174 0.041114 0.07301 
-0.14484 0.88982 -0.33901 0.031578 0.061666 0.18415 0.086821 0.081395 
-0.089595 0.80136 -0.71568 -0.12462 -0.038462 0.13532 0.095535 0.10096 
0.04654 0.10622 -0.62805 -0.12182 -0.081868 0.073997 0.062323 0.079094 
0.14206 -0.99946 -0.45114 0.071037 -0.045368 -0.0072237 0.029441 0.01415 
0.26258 -1.4026 0.2685 0.22427 -0.035338 -0.09239 -0.028762 -0.042901 
0.2685 -0.90311 0.57858 0.26685 -0.059343 -0.15816 -0.050629 -0.093048 
0.16623 -0.069043 0.29546 0.09833 -0.16391 -0.15257 -0.071016 -0.074633 
0.068571 0.55343 0.18974 -0.1108 -0.24858 -0.10242 -0.028597 -0.027611 
0.031249 0.80778 -0.67704 -0.32388 -0.30136 -0.063289 -0.022843 -0.0047575 
0.050814 0.56231 -1.0777 -0.50901 -0.37239 -0.067235 -0.0024557 -0.025309 
0.18843 -0.15931 -0.18002 -0.39656 -0.26798 -0.0096899 -0.018733 -0.025802 
0.19681 -0.51806 0.7259 -0.13037 -0.11179 0.045553 0.0046141 -0.0087034 
0.059857 -0.39672 0.76947 0.0689 0.033222 0.093398 0.066927 0.092576 
-0.076606 -0.21998 0.51775 0.17758 0.10458 0.13006 0.10984 0.11855 
-0.09239 0.0011614 0.28938 0.25107 0.12924 0.12825 0.11 0.12858 
-0.03501 0.20816 0.1567 0.18629 0.074983 0.081231 0.070873 0.067091 
0.074983 0.099974 0.11395 0.17429 0.040785 0.042429 -0.0014692 0.0059294 
0.059528 0.10047 -0.16884 0.29908 0.1271 0.03536 0.016945 0.021056 
-0.057699 0.1659 -0.39688 0.38129 0.16903 0.076134 0.059693 0.082053 
-0.092719 0.14157 -0.3446 0.29974 0.12069 0.055418 0.069886 0.069722 
0.01267 -0.021856 -0.13218 0.14963 0.019247 0.037332 0.061995 0.059528 
0.069886 -0.019061 0.11872 0.012835 -0.078908 0.014315 0.018589 0.037826 
0.098988 0.070051 0.27655 -0.085978 -0.12231 -0.0068948 0.0079024 0.016452 
0.047197 0.19501 0.076792 -0.071838 -0.1016 0.02122 0.0227 -0.0004827 
0.01004 0.11296 -0.15651 0.0083956 -0.034845 -0.001798 0.038812 0.00099702 
0.081889 -0.12363 -0.11196 0.030756 -0.06855 -0.009361 -0.0042642 -0.038133 
0.16936 -0.2037 0.091753 -0.037476 -0.11048 -0.022021 -0.025967 -0.059014 
0.18136 -0.14862 0.12381 -0.030242 -0.12149 -0.033365 -0.034352 -0.058192 
0.047526 0.012177 0.013492 0.0023123 -0.11343 -0.023665 -0.0067304 -0.012156 
-0.050629 0.1179 0.088301 -0.01676 -0.098967 -0.0032777 0.025988 0.042265 
-0.091732 0.16031 0.20964 -0.035667 -0.092883 0.030756 0.056569 0.083697 
-0.11672 0.28889 0.030756 0.0034632 -0.032708 0.065283 0.081231 0.10376 
-0.11064 0.46695 -0.21669 0.10984 0.0087245 0.0592 0.083368 0.11083 
-0.067728 0.45675 -0.074469 0.10047 0.0072447 0.045882 0.047691 0.065118 
-0.02498 0.20849 0.2292 0.061995 -0.017911 0.040785 0.051636 0.042758 
-0.030735 0.1904 0.12579 0.10902 0.023028 0.066105 0.054432 0.045553 
-0.058192 0.19435 -0.26338 0.2754 0.13861 0.12316 0.086492 0.07301 
-0.055397 0.041607 -0.49208 0.33558 0.18218 0.12447 0.093891 0.069558 
-0.057699 -0.096829 -0.58136 0.2708 0.15423 0.083862 0.055747 0.018589 
0.03947 0.06594 -0.85215 0.27886 0.11378 0.059528 0.030427 0.017274 
0.03799 0.19501 -1.0358 0.24614 0.10918 0.060186 0.031085 0.035195 
0.075641 -0.0014692 -0.70368 -0.095349 -0.11903 0.032893 0.027303 0.023028 
0.043909 -0.18052 -0.19679 -0.51477 -0.39754 -0.042737 -0.013143 0.0088889 
0.072353 -0.12905 0.27639 -0.53762 -0.42829 -0.051944 0.0056006 0.013657 
0.15193 -0.071181 0.65882 -0.081703 -0.15306 -0.018733 -0.0091966 -0.02794 
0.18087 0.19353 0.84198 0.30253 0.079422 0.0052718 -0.0083746 -0.011992 
0.099645 0.58236 1.4566 0.34758 0.078929 -0.0052507 -0.0083746 0.0072447 
-0.095678 0.55524 1.5271 0.27886 0.061995 -0.018897 0.0065871 0.03092 
-0.14139 0.36994 1.1165 0.14338 0.0072447 -0.0036066 0.020727 0.034866 
-0.051944 0.17133 0.69532 -0.077757 -0.10571 -0.014622 0.030427 0.009711 
0.053445 0.013164 -0.07414 -0.21619 -0.18742 0.017274 0.037826 0.013328 
0.055911 -0.029748 -0.96773 -0.21504 -0.16884 0.074983 0.047691 0.058377 
-0.02087 0.039963 -1.2683 -0.032215 -0.046683 0.095042 0.098823 0.089123 
-0.1062 0.15933 -0.88305 0.25929 0.10951 0.13269 0.13861 0.14716 
-0.081374 0.37882 -0.19564 0.3295 0.17232 0.13302 0.1174 0.11214 
0.0056006 0.31273 0.21326 0.12464 0.046868 0.087643 0.038319 0.059035 
0.085835 0.17462 -0.27538 -0.13991 -0.11607 0.039634 -0.013307 -0.0042642 
0.07038 -0.05178 -0.65238 -0.21241 -0.18972 0.021713 0.005765 -0.030406 
0.088301 -0.55702 -0.27374 -0.066413 -0.1085 -0.0070593 0.0013258 -0.0090322 
0.14124 -0.87845 0.068736 0.16196 0.013328 0.017932 0.015794 0.00066819 
0.17429 -0.6149 0.29398 0.29382 0.083533 0.028619 0.011684 -0.0014692 
0.14831 -0.030406 0.52022 0.27096 0.069722 0.010204 0.014479 -0.0031133 
0.1003 0.23578 0.50509 0.2126 0.028454 -0.00064712 0.01152 0.0028056 
0.044073 0.11609 0.35975 0.2149 0.038155 0.040456 0.071531 0.051801 
-0.038627 0.11559 0.2371 0.17676 0.020233 0.063968 0.076792 0.056898 
-0.12593 0.41253 0.1784 0.007738 -0.049642 0.056404 0.078272 0.07449 
-0.14122 0.59059 0.34627 -0.25647 -0.19761 0.013492 0.053281 0.048513 
-0.039613 0.35268 0.83819 -0.41333 -0.30317 -0.026789 -0.0070593 0.0032988 
0.1322 -0.054082 1.2326 -0.45854 -0.35315 -0.076771 -0.036818 -0.042408 
0.23956 -0.25434 0.91695 -0.38242 -0.33326 -0.1062 -0.072989 -0.075784 
0.30105 -0.22836 0.10606 -0.24283 -0.2476 -0.083512 -0.05885 -0.056219 
0.15867 -0.10094 -1.0744 0.076134 -0.097651 -0.057205 -0.022021 -0.02498 
-0.10275 0.32029 -2.2309 0.43012 0.11822 -0.012814 0.015301 0.043745 
-0.2767 0.75303 -2.2268 0.51167 0.18794 -0.0040998 0.055418 0.078765 
-0.22869 0.53715 -1.2265 0.30138 0.099645 0.0085601 0.026152 0.059857 
0.0087245 -0.23855 0.16278 0.0018191 -0.049807 0.027468 0.0023123 0.011191 
0.13565 -0.45213 1.1468 -0.2037 -0.1547 0.050979 0.030592 0.036839 
0.12217 -0.44308 1.7083 -0.30235 -0.18134 0.079916 0.073175 0.067585 
0.12003 -0.71141 1.6132 -0.16703 -0.14796 0.067256 0.080409 0.0689 
0.14815 -0.84919 0.95361 -0.12741 -0.12346 0.060844 0.060186 0.060844 
0.16081 -0.87056 0.39066 -0.055726 -0.10538 0.013328 0.0031344 0.025495 
0.19944 -0.7507 0.057555 -0.024652 -0.097816 -0.0044286 -0.030899 -0.041751 
0.26291 -0.17542 -0.48945 -0.061151 -0.12725 -0.027775 -0.046354 -0.06 
0.19057 0.42765 -1.0309 -0.030242 -0.11015 -0.033365 -0.038627 -0.052273 
0.013328 0.50937 -1.1073 0.058871 -0.034681 -0.027611 -0.0014692 0.022371 
-0.0082102 0.36485 -0.59385 0.090931 -0.026131 0.020891 0.026481 0.056076 
0.0069159 0.27984 -0.1838 0.10524 0.0088889 0.065118 0.063639 0.085012 
-0.1182 0.33213 0.17001 0.1151 0.031578 0.10014 0.10014 0.094877 
-0.24382 0.46892 0.89788 0.062488 0.010533 0.073504 0.095699 0.099974 
-0.28886 0.38721 1.0815 0.050979 -0.014951 0.052459 0.056733 0.063639 
-0.17854 0.28543 0.4117 0.1761 0.060515 0.048019 0.034866 0.059857 
-0.034516 0.27392 -0.37124 0.20964 0.095864 0.04506 0.02829 0.031414 
0.090109 0.18136 -0.71535 0.10935 0.0069159 0.047855 0.036182 0.028947 
0.13006 -0.015938 -0.62953 -0.044874 -0.07973 0.022535 0.005765 0.0090533 
0.12628 -0.14796 -0.39672 -0.054904 -0.096829 0.0227 0.01004 0.010533 
0.12184 -0.25253 -0.02794 -0.0060728 -0.084663 -0.003771 -0.003771 0.0021479 
0.12414 -0.29051 0.21852 -0.03912 -0.11853 -0.024487 -0.016431 -0.013143 
0.099152 -0.19416 0.13023 -0.011005 -0.093048 0.00017495 -0.0059084 -0.025474 
0.027468 -0.055726 -0.023829 0.030263 -0.051615 0.0026412 -0.0073881 0.015301 
-0.039449 0.047033 0.10211 0.096521 -0.013636 0.017274 0.027468 0.043087 
-0.014293 0.23759 0.40167 0.060186 -0.028762 0.029769 0.038812 0.052623 
0.014643 0.34824 0.39132 -0.0047575 -0.070687 0.01711 0.040785 0.072353 
0.040785 0.27803 0.13516 -0.075949 -0.091568 0.032564 0.056076 0.076627 
0.038155 0.17906 -0.15059 -0.18874 -0.13612 0.066763 0.076627 0.091918 
0.051636 -0.10965 -0.17542 -0.29676 -0.17854 0.078436 0.072024 0.052294 
0.061172 -0.52726 -0.15437 -0.26338 -0.17789 0.068736 0.054267 0.047362 
0.047855 -0.44177 -0.29297 -0.0034422 -0.06 0.057884 0.056404 0.02829 
0.031907 -0.10554 -0.041751 0.31799 0.090274 0.01415 0.024673 -0.0026201 
0.10474 -0.0072237 0.70847 0.49046 0.13121 -0.058356 -0.049314 -0.1016 
0.18613 0.14354 1.5541 0.34396 0.040785 -0.12692 -0.097651 -0.10538 
0.1835 0.3558 1.6292 0.080738 -0.11656 -0.11903 -0.10406 -0.12494 
0.044402 0.48405 0.58993 -0.10735 -0.17558 -0.065262 -0.014951 -0.040106 
-0.10982 0.4533 -0.56294 -0.026296 -0.073482 0.058871 0.075641 0.064954 
-0.18923 0.30697 -1.0439 0.19221 0.088136 0.12924 0.13499 0.21457 
-0.21438 0.23003 -1.0527 0.30286 0.16886 0.14075 0.13417 0.24564 
-0.19301 0.28149 -0.81482 0.25699 0.13779 0.11609 0.095699 0.1881 
-0.14895 0.3974 -0.39869 0.12168 0.07449 0.083697 0.076956 0.11625 
-0.014951 0.47007 -0.46923 -0.0039354 -0.044217 0.16574 0.076956 0.080902 
0.088794 0.41631 -1.0192 -0.078579 -0.079072 0.088958 0.040621 0.021384 
0.076463 0.27244 -0.7992 0.0054362 -0.038133 0.055911 0.042758 0.034373 
0.078765 0.24153 0.74678 0.068571 -0.018568 0.023686 0.049664 -0.013636 
0.031742 0.28724 2.0631 0.037497 -0.021199 0.074819 0.098988 0.035688 
-0.024158 0.47911 1.4761 0.1784 0.073668 0.13417 0.09126 0.039141 
-0.050136 0.64714 0.35646 0.30862 0.16936 0.11214 0.047526 0.025495 
0.0046141 0.36517 0.081067 0.31273 0.10014 0.027468 -0.045532 -0.054904 
0.15144 -0.41727 -0.0060728 0.15999 -0.017582 -0.07562 -0.099953 -0.079237 
0.28576 -1.2033 0.24696 -0.061316 -0.19926 -0.18232 -0.1404 -0.133 
0.31437 -1.4082 0.81994 -0.43437 -0.44407 -0.22277 -0.16095 -0.15322 
0.17955 -0.948 0.38392 -0.8311 -0.64663 -0.1649 -0.090088 -0.066906 
-0.0049219 -0.21504 -0.93008 -0.87007 -0.61177 -0.03616 0.0047785 0.032893 
-0.094363 0.46053 -1.9682 -0.54469 -0.37173 0.021878 0.056404 0.11428 
-0.023007 0.71998 -1.6395 -0.19581 -0.18019 0.047691 0.081067 0.087479 
0.16344 0.41384 -0.062631 -0.044217 -0.089102 0.043909 0.056569 0.041278 
0.2486 0.17824 1.3508 0.021549 -0.042244 0.04654 0.046375 -0.029913 
0.20602 -0.090088 1.7204 0.23446 0.070051 0.03536 0.035688 0.027632 
0.083204 -0.34263 1.4258 0.54833 0.23562 0.043745 0.074161 0.0052718 
0.0087245 -0.35989 0.72869 0.81666 0.4191 0.087972 0.055747 0.043909 
-0.09946 -0.16572 -0.13678 1.0125 0.54373 0.095699 0.053281 0.060515 
-0.14648 0.15078 -0.80085 1.0572 0.52005 0.079916 0.067913 0.06183 
-0.10538 0.35975 -1.1775 0.72195 0.35136 0.0689 0.053774 0.051801 
-0.086142 0.39395 -1.1144 0.12924 0.034537 0.077614 0.067913 0.093398 
-0.08121 0.30204 -0.53187 -0.34098 -0.23116 0.068407 0.081231 0.092411 
-0.073482 0.1322 0.19649 -0.55308 -0.37354 0.034209 0.071695 0.12036 
-0.0062372 -0.10604 0.60785 -0.54765 -0.37518 0.013986 0.044567 0.062652 
0.099316 -0.29051 0.65536 -0.39639 -0.27949 -0.027611 0.020562 0.010204 
0.17593 -0.39721 0.51265 -0.24957 -0.23165 -0.049149 -0.024323 -0.06444 
0.22657 -0.30744 0.20717 -0.31862 -0.26979 -0.07825 -0.066413 -0.087786 
0.19073 -0.19268 -0.075127 -0.3691 -0.31353 -0.07973 -0.074962 -0.068386 
0.11115 -0.068386 -0.38488 -0.27522 -0.25302 -0.00081153 -0.019226 -0.018733 
0.065612 0.026317 -0.26404 -0.13004 -0.15931 0.024508 0.007738 0.012342 
0.022535 0.1179 0.025001 -0.06855 -0.10291 0.03388 0.055747 0.034373 
-0.036325 0.23858 -0.043888 -0.049642 -0.077428 0.034537 0.057227 0.055254 
-0.10209 0.34512 -0.22688 0.029276 -0.054904 0.035853 0.066763 0.088301 
-0.12708 0.22657 -0.24431 0.14568 0.017603 0.044567 0.071859 0.092576 
-0.09798 -0.021034 -0.15141 0.29086 0.1054 0.044073 0.048348 0.070215 
-0.031064 -0.38735 0.089452 0.42568 0.18761 0.036017 0.044402 0.043251 
0.11395 -0.76353 0.4944 0.40496 0.15209 0.0069159 0.0095465 0.0056006 
0.23446 -0.78424 0.99077 0.31947 0.12842 0.032729 0.0037921 0.00083261 
0.1197 -0.11771 0.66655 0.28593 0.13532 0.10967 0.0786 0.055254 
-0.030406 0.84033 -0.41908 0.11066 0.049992 0.14091 0.11395 0.089452 
-0.22359 1.1029 -1.2436 -0.14895 -0.072003 0.13335 0.12628 0.1641 
-0.29889 0.78624 -1.2305 -0.21291 -0.1427 0.068571 0.085012 0.12825 
-0.22655 0.20405 -0.95671 -0.11179 -0.11179 -0.015938 0.028783 0.068407 
0.0013258 -0.39294 -0.2106 -0.093048 -0.17476 -0.032708 -0.029584 -0.011992 
0.34479 -0.88289 1.0853 -0.17427 -0.24842 -0.10702 -0.073811 -0.12659 
0.48684 -0.72949 1.7847 -0.087293 -0.20304 -0.10505 -0.067892 -0.10916 
0.2685 -0.079237 1.6731 0.17643 -0.035503 -0.03912 -0.0062372 -0.02235 
-0.053424 0.3198 0.58648 0.51989 0.22805 0.058706 0.084684 0.07301 
-0.21833 0.29546 -1.0693 0.75697 0.40595 0.1567 0.099645 0.10836 
-0.22737 0.38869 -2.1173 0.81287 0.48257 0.18711 0.1197 0.11937 
-0.14303 0.59552 -2.1747 0.5725 0.34709 0.18646 0.13351 0.094877 
-0.067399 0.92237 -1.1479 -0.012978 0.01415 0.1465 0.11099 0.11 
-0.0091966 1.1919 -0.18446 -0.40576 -0.24579 0.066105 0.061172 0.028454 
0.026974 0.83227 0.29135 -0.46002 -0.33408 -0.0024557 0.0088889 0.017767 
0.0024767 0.03947 0.86483 -0.46643 -0.36285 -0.042244 -0.011827 0.020069 
0.040128 -0.59155 1.5411 -0.37091 -0.34509 -0.10735 -0.03764 -0.0016336 
0.15867 -0.83587 1.5823 -0.21734 -0.27834 -0.1575 -0.10686 -0.081374 
0.183 -0.58464 1.1397 -0.17723 -0.26387 -0.1501 -0.11327 -0.07266 
0.15653 -0.23691 1.1496 -0.38242 -0.3423 -0.1039 -0.077593 -0.038462 
0.061501 0.03092 0.55409 -0.46709 -0.35759 -0.044546 0.022535 0.01711 
-0.097487 0.40398 -0.74774 -0.12494 -0.13399 0.035688 0.076956 0.093398 
-0.24201 0.79166 -1.5238 0.40907 0.22805 0.13861 0.13286 0.14946 
-0.291 0.99768 -1.6168 0.82307 0.50295 0.21342 0.15818 0.15357 
-0.16227 0.77884 -1.2495 0.85052 0.52959 0.18974 0.14881 0.10211 
0.049335 0.25962 -0.44374 0.64731 0.34199 0.11921 0.074326 0.011026 
0.19599 -0.41596 0.48881 0.366 0.13187 0.025166 -0.0075525 -0.050958 
0.3466 -0.88766 1.3663 -0.091404 -0.16917 -0.084827 -0.090088 -0.13514 
0.44738 -1.0246 1.805 -0.60865 -0.51395 -0.1741 -0.15799 -0.18265 
0.35745 -0.63282 2.0366 -0.90854 -0.67885 -0.15536 -0.1307 -0.15174 
0.19205 -0.078908 1.4518 -0.80101 -0.59221 -0.095349 -0.054082 -0.066413 
0.078107 0.053281 -0.3275 -0.53877 -0.39606 -0.062467 -0.0073881 0.034373 
-0.036983 -0.075291 -1.6435 -0.13267 -0.16292 0.0026412 0.040292 0.093726 
-0.11278 0.13121 -1.4389 0.22065 0.077614 0.056898 0.09274 0.12085 
-0.16128 0.58812 -0.57659 0.41581 0.20783 0.1128 0.10458 0.11658 
-0.047834 0.47533 0.45741 0.36797 0.16525 0.07449 0.058213 0.050814 
0.090274 0.078929 0.90577 0.20142 0.050814 0.015794 0.010204 -0.0057439 
0.15308 -0.084498 0.62741 0.095864 -0.0059084 -0.0080457 0.0021479 0.0087245 
0.10162 -0.092061 -0.042737 -0.032543 -0.06148 -0.0019624 0.0047785 0.036675 
0.036182 0.041114 -0.49224 -0.14254 -0.145 -0.010183 0.044402 0.055089 
-0.020706 0.21326 -0.62328 -0.084005 -0.11557 0.0092177 0.041772 0.025166 
-0.044217 0.31914 -0.73212 -0.02646 -0.085485 0.0011614 0.028783 0.040292 
-0.076935 0.35498 -0.41776 0.025988 -0.029255 0.048348 0.065612 0.066269 
-0.16029 0.28379 0.13006 0.037004 -0.03912 0.065776 0.084684 0.10145 
-0.12708 0.14321 0.65241 0.023851 -0.03353 0.080902 0.099974 0.070873 
0.013492 -0.14122 1.193 -0.12231 -0.1159 0.053445 0.041443 0.034537 
0.17018 -0.51526 1.1142 -0.23066 -0.21291 0.010533 -0.008539 -0.016102 
0.27623 -0.75596 0.61114 -0.25417 -0.22557 -0.025309 -0.048656 -0.038298 
0.25995 -0.58744 0.31404 -0.17969 -0.182 -0.023336 -0.056219 -0.052766 
0.2024 -0.20452 -0.18348 -0.090746 -0.11541 -0.031557 -0.014622 -0.014622 
0.11165 0.042429 -1.1596 -0.0087034 -0.084827 -0.029255 -0.0083746 -0.0068948 
0.039963 0.0092177 -1.2104 0.076627 -0.049149 -0.023007 -0.00081153 0.042758 
-0.01117 -0.10308 -0.19252 0.21095 0.024179 -0.014458 0.036675 0.058871 
-0.060165 -0.10045 0.75533 0.23249 0.052459 0.040456 0.048677 0.08419 
-0.081539 0.17741 0.65158 0.31733 0.15259 0.098001 0.10293 0.095535 
-0.15026 0.5919 -0.52924 0.42519 0.23315 0.14305 0.1396 0.14881 
-0.22359 0.90495 -1.4623 0.44804 0.26883 0.18465 0.13138 0.14272 
-0.21274 0.92007 -1.6726 0.42173 0.24186 0.16114 0.10918 0.13138 
-0.096665 0.77309 -0.94011 0.18317 0.095535 0.087972 0.068078 0.072681 
0.091425 0.2098 0.767 -0.21406 -0.17854 -0.043066 -0.034845 -0.031721 
0.27392 -0.64942 2.1749 -0.58925 -0.45114 -0.12314 -0.12001 -0.11146 
0.33887 -1.0315 1.7681 -0.72686 -0.55078 -0.15207 -0.14418 -0.12379 
0.22279 -0.7604 0.30878 -0.51904 -0.42072 -0.061645 -0.037805 0.0067515 
0.022042 -0.42582 -0.77421 0.030263 -0.049807 0.057884 0.11395 0.14683 
-0.082032 -0.20912 -0.5858 0.48832 0.20947 0.11921 0.15851 0.18169 
-0.10817 0.09126 0.22345 0.55228 0.27787 0.1442 0.12135 0.13154 
-0.091239 0.35054 0.40381 0.39723 0.19188 0.10524 0.065447 0.096028 
-0.074633 0.41812 0.18942 0.32769 0.13565 0.056404 0.033058 0.04358 
-0.019061 0.35745 -0.089924 0.2828 0.094713 0.015465 0.027303 0.015959 
0.052623 0.22131 -0.26042 0.21917 0.043909 -0.043395 0.0021479 -0.015938 
0.092247 -0.050464 -0.51362 0.20997 0.050486 -0.0049219 -0.037969 -0.028762 
0.10063 -0.2374 -0.45361 0.18514 0.0080668 -0.018239 -0.017582 -0.030077 
0.091425 -0.089595 -0.43618 0.096686 -0.024487 0.0082312 0.00066819 0.016616 
-0.034352 0.37323 -0.35463 0.047855 -0.041586 0.0052718 0.054596 0.047362 
-0.14303 0.84691 -0.19942 0.098823 -0.001798 0.06331 0.077943 0.087479 
-0.15717 1.0684 -0.29955 -0.03616 -0.041422 0.1026 0.08304 0.082217 
-0.043724 0.8673 -0.66833 -0.21751 -0.11228 0.11263 0.072188 0.084026 
0.04095 0.50986 -0.96493 -0.13908 -0.042079 0.10474 0.061172 0.069558 
0.10589 -0.035667 -0.76961 0.097344 0.019247 0.10951 0.045882 0.016288 
0.16146 -0.4273 -0.12577 0.18169 0.033387 0.012835 0.024344 0.0024767 
0.19336 -0.74018 1.241 0.1613 -0.037969 -0.066084 -0.018568 0.012177 
0.26472 -1.1535 2.6808 0.14256 -0.12264 -0.16523 -0.10489 -0.11968 
0.29694 -1.3319 3.5909 -0.079895 -0.2887 -0.20633 -0.084169 -0.15421 
0.13467 -0.4786 2.2629 -0.19498 -0.29922 -0.13497 -0.036489 -0.068057 
-0.16736 0.44952 -0.92679 0.038812 -0.077264 -0.0019624 0.060515 0.10524 
-0.33852 0.72738 -2.8266 0.31897 0.13467 0.16525 0.15357 0.19287 
-0.32092 0.47582 -2.6727 0.44278 0.25452 0.1978 0.13138 0.20142 
-0.23247 0.43275 -1.5854 0.44311 0.27195 0.16163 0.086492 0.13039 
-0.059507 0.47517 -0.14961 0.30516 0.17873 0.098494 0.05624 0.047362 
0.14667 0.11855 1.6739 0.053445 -0.014622 0.014479 -0.013143 -0.036654 
0.31914 -0.4005 2.8265 -0.28426 -0.25598 -0.069536 -0.073482 -0.109 
0.35646 -0.64334 2.5873 -0.57642 -0.44604 -0.13053 -0.10505 -0.13464 
0.27228 -0.56426 0.73445 -0.66471 -0.52118 -0.109 -0.069208 -0.066248 
0.13943 -0.2961 -1.2291 -0.63939 -0.47695 -0.064768 -0.015609 -0.01676 
-0.0049219 -0.0087034 -1.6625 -0.43782 -0.34789 -0.053095 0.0034632 0.009711 
-0.088444 0.09274 -1.3059 -0.078415 -0.11804 0.011848 0.017932 0.039963 
-0.16111 0.32637 -0.70582 0.18366 0.047033 0.056733 0.060844 0.073832 
-0.22244 0.755 -0.23362 0.37668 0.18169 0.11411 0.10984 0.11691 
-0.095514 0.79331 0.17643 0.35449 0.17988 0.11757 0.11477 0.085999 
0.10063 0.42009 0.49835 0.26274 0.10458 0.095371 0.074161 0.045553 
0.21786 0.23759 0.44639 0.11642 0.019905 0.061995 0.035853 -0.021199 
0.26603 0.033715 0.31026 0.058213 -0.029255 0.030263 0.0069159 -0.017253 
0.26028 -0.53483 0.26685 0.009711 -0.045696 0.010697 0.011026 -0.031228 
0.17347 -0.75415 0.2611 1.0539e-005 -0.0771 0.0056006 0.016123 -0.0016336 
0.054925 -0.37272 0.2126 -0.027447 -0.080223 0.0064227 0.01267 0.02533 
-0.047998 -0.10604 0.14502 -0.066741 -0.099953 0.037168 0.024508 0.0324 
-0.062138 -0.051615 0.11658 -0.038462 -0.10061 0.016945 0.0056006 0.03799 
-0.010676 -0.084334 0.016452 -0.098638 -0.13596 -0.0050863 0.023851 0.035688 
0.054432 -0.047669 -0.11393 -0.083183 -0.13251 -0.0068948 0.00083261 0.010533 
0.047855 0.10655 -0.11459 -0.091568 -0.11113 -0.0050863 -0.00081153 0.033551 
0.0093821 0.12891 0.11658 -0.1718 -0.16605 0.027796 -0.00015387 0.026481 
-0.021199 0.1299 0.13746 -0.31829 -0.24447 0.024015 0.0070803 0.040128 
-0.085485 0.20092 -0.10669 -0.35036 -0.26404 0.013164 0.035688 0.017932 
-0.071674 0.29809 -0.3206 -0.19877 -0.17936 0.018589 0.048513 0.027632 
-0.012156 0.26784 -0.23132 -0.0027845 -0.046354 0.036839 0.05624 0.038319 
0.048677 0.16541 -0.096665 0.1419 0.043087 0.078272 0.065612 0.071202 
0.08008 -0.019061 0.036675 0.16344 0.073339 0.085341 0.061666 0.048677 
0.14124 -0.1473 0.43061 0.14552 0.021056 0.036839 0.054432 0.034044 
0.11 -0.07414 0.56247 0.10573 -0.009361 0.013821 0.031085 0.0069159 
0.065283 0.16738 0.38046 0.12875 0.014972 0.013328 0.0090533 0.011848 
-0.054246 0.49161 0.040785 0.19928 0.051965 0.042429 0.028454 0.027961 
-0.15832 0.53189 -0.03501 0.19862 0.082382 0.097015 0.066763 0.07038 
-0.1353 0.45182 -0.013143 0.2297 0.11378 0.12431 0.10228 0.08978 
-0.062138 0.33361 0.03536 0.22213 0.12628 0.15012 0.093233 0.091096 
0.019905 -0.084498 0.23035 0.17182 0.038977 0.087972 0.068407 0.074326 
0.083204 -0.65518 0.26899 0.10885 -0.0024557 0.01711 0.027961 0.03651 
0.1174 -0.72588 0.004943 0.1322 0.0041209 0.0090533 0.0062583 -0.01676 
0.14026 -0.14319 -0.23691 0.17791 0.0072447 -0.04471 -0.035174 -0.046847 
0.20668 0.32062 -0.48123 0.051965 -0.098309 -0.091568 -0.061973 -0.082196 
0.23118 0.37422 -0.76829 -0.13382 -0.20699 -0.09798 -0.059507 -0.081045 
0.10326 0.40217 -1.2642 -0.15914 -0.18446 -0.055397 -0.012156 0.024344 
-0.022185 0.27869 -1.1678 0.014972 -0.089266 0.013821 0.052952 0.072517 
-0.047998 0.2149 -0.64778 0.11724 0.0013258 0.034866 0.089945 0.087479 
-0.021856 0.24153 -0.23231 0.1299 0.01711 0.032071 0.039634 0.052787 
-0.011005 0.21391 0.49835 0.013328 -0.032215 0.048677 0.051143 0.067256 
-0.056877 0.068736 1.1879 -0.051944 -0.063782 0.072517 0.046211 0.044073 
-0.079401 0.0098754 1.0774 -0.017417 -0.035174 0.076956 0.058542 0.069064 
-0.10423 0.041443 0.25008 0.030263 -0.0034422 0.069558 0.07038 0.061666 
-0.06855 0.069064 -0.1917 0.076792 -0.0087034 0.06035 0.063803 0.084355 
-0.047998 0.013164 -0.049807 0.07449 -0.0064016 0.039799 0.028125 0.040785 
-0.01232 0.052952 0.093726 0.16245 0.037332 0.035853 0.043087 0.053609 
-0.0042642 0.1197 0.069064 0.27096 0.11526 0.090109 0.0786 0.066434 
0.053116 0.293 0.085341 0.40036 0.183 0.097672 0.089452 0.077449 
0.049335 0.19632 0.57053 0.44557 0.2001 0.072517 0.068407 0.033715 
0.056569 -0.06707 0.74218 0.39954 0.15028 0.034537 0.026974 0.026481 
0.095864 -0.25911 -0.056712 0.40611 0.12661 0.0069159 0.014315 -0.0064016 
0.15094 -0.41563 -0.82518 0.31355 0.065447 -0.018897 -0.015773 -0.041915 
0.19649 -0.48764 -0.51082 0.1756 -0.017911 -0.067892 -0.056712 -0.065426 
0.17971 -0.43865 0.32999 -0.10439 -0.16391 -0.08269 -0.10752 -0.084334 
0.10556 -0.06148 0.016123 -0.39491 -0.33457 -0.089759 -0.070852 -0.03205 
-0.032872 0.54093 -0.76928 -0.52365 -0.3788 -0.026953 -0.0011404 0.066269 
-0.20863 0.97318 -0.83357 -0.5243 -0.35233 0.037004 0.11346 0.13499 
-0.29774 1.0823 -0.73837 -0.38801 -0.26585 0.068736 0.15374 0.16952 
-0.19926 0.80959 -0.90065 -0.23017 -0.15437 0.081724 0.12069 0.098494 
-0.076442 0.35514 -0.62887 0.03651 -0.025802 0.030756 0.041772 0.0072447 
-0.0088678 -0.22441 0.21671 0.25551 0.088958 -0.0029489 0.0080668 -0.065591 
0.062981 -0.48879 0.8303 0.37027 0.10047 -0.024487 -0.024323 -0.10423 
0.17363 -0.20074 1.6277 0.26258 0.012506 -0.048656 -0.02794 -0.077593 
0.30122 -0.16095 2.4986 -0.025802 -0.16523 -0.09387 -0.067399 -0.05737 
0.46645 -0.65518 2.5968 -0.38077 -0.34296 -0.10916 -0.11524 -0.047998 
0.41894 -0.70039 1.4853 -0.60257 -0.46972 -0.12511 -0.11015 -0.017582 
0.20109 -1.0253 0.0034632 -0.52973 -0.39228 -0.066906 -0.079072 0.029112 
0.035195 -1.3064 -1.2264 -0.28903 -0.21504 -0.0059084 0.0021479 0.071366 
-0.11048 -0.85445 -1.5233 0.027139 -0.023007 0.085177 0.088136 0.15472 
-0.17032 -0.072003 -0.81252 0.25633 0.10803 0.11411 0.11937 0.13236 
-0.16358 0.82159 -0.34526 0.33607 0.1738 0.13105 0.13631 0.13088 
-0.18183 1.3109 -0.3377 0.32325 0.16393 0.14075 0.10967 0.092904 
-0.14862 1.1124 -0.255 0.1881 0.078436 0.091589 0.076463 0.06331 
-0.052766 0.6238 -0.12593 0.019083 -0.021856 0.044731 0.037661 0.017603 
0.010697 0.21737 -0.13645 -0.10669 -0.084169 0.030098 0.01415 0.0074092 
0.070215 -0.09239 -0.079566 -0.1381 -0.14747 0.0021479 0.031249 0.010204 
0.092411 -0.27505 0.19846 -0.22145 -0.18989 0.017274 0.029769 0.052787 
0.06035 -0.18035 0.40874 -0.26206 -0.22409 0.007738 0.024015 0.052294 
-0.025967 -0.011992 0.60933 -0.25845 -0.21159 0.031414 0.030098 0.11296 
-0.11491 -0.094199 0.38704 -0.1256 -0.11853 0.06183 0.06479 0.13236 
-0.12297 -0.26174 -0.10949 0.15719 0.071531 0.08715 0.090274 0.1345 
-0.036489 -0.3007 -0.064768 0.24926 0.11987 0.074819 0.05772 0.068736 
0.10376 -0.15585 0.25008 0.10408 -0.041093 -0.017746 -0.026624 -0.040764 
0.30483 0.012013 -0.06 -0.17328 -0.24234 -0.13777 -0.11146 -0.17789 
0.47911 0.12069 -0.32717 -0.27686 -0.34279 -0.22211 -0.16276 -0.24102 
0.46991 0.13976 0.183 -0.22228 -0.31139 -0.19153 -0.1381 -0.21784 
0.27771 0.19533 1.012 -0.12692 -0.21422 -0.063124 -0.051451 -0.13727 
-0.009361 0.30697 1.1601 0.1031 -0.014129 0.059693 0.05624 0.019576 
-0.145 0.20092 0.70305 0.26965 0.14535 0.14486 0.13779 0.14009 
-0.10472 -0.039284 -0.085485 0.39559 0.21605 0.18974 0.15423 0.19632 
-0.083018 -0.39392 -0.85774 0.4487 0.26143 0.16558 0.12299 0.1664 
-0.121 -0.54831 -1.0707 0.42519 0.2463 0.15472 0.081889 0.10408 
-0.1695 -0.39623 -0.62542 0.26603 0.14026 0.12579 0.074326 0.085506 
-0.17065 -0.024816 -0.1644 0.045224 -0.010348 0.076299 0.052952 0.098166 
-0.047012 0.22608 0.18432 -0.1667 -0.15306 0.019905 0.035195 0.040128 
0.12431 0.3854 0.77292 -0.27966 -0.23938 -0.031557 -0.034188 -0.045203 
0.18136 0.39132 0.85283 -0.19926 -0.21323 -0.049807 -0.038627 -0.058192 
0.12825 0.37586 0.064461 -0.019061 -0.089759 -0.0032777 -0.0024557 -0.0054151 
0.019576 0.27129 -0.79871 0.31815 0.11165 0.024837 0.048513 0.040292 
-0.026953 0.21243 -0.91002 0.55474 0.26899 0.06183 0.079422 0.071859 
0.037497 0.23874 -0.094363 0.3974 0.15275 0.048677 0.058049 0.029769 
0.18448 0.18399 0.56707 0.02681 -0.062796 0.0054362 0.016616 -0.01232 
0.26225 -0.089759 0.37487 -0.15996 -0.17542 -0.00097594 -0.0080457 -0.075949 
0.21687 -0.24135 -0.18479 -0.15174 -0.16818 0.011848 -0.008539 -0.036818 
0.071366 -0.0868 -0.47153 -0.1062 -0.10686 0.046375 0.095371 0.029769 
-0.080881 0.21802 -0.39261 -0.027775 -0.046847 0.062817 0.051801 0.061172 
-0.15109 0.47023 -0.39475 0.065283 0.02533 0.067256 0.056733 0.077449 
-0.1935 0.75089 -0.30037 0.15719 0.045553 0.13532 0.075476 0.098988 
-0.19449 0.92172 -0.32668 0.2662 0.11559 0.12053 0.099152 0.1031 
-0.15454 0.79528 -0.67918 0.49671 0.23956 0.13894 0.12529 0.10441 
-0.071345 0.3854 -0.31731 0.67427 0.32243 0.095535 0.072681 0.044567 
0.028947 -0.31599 0.68611 0.57069 0.26685 0.061172 0.04506 0.023686 
0.18909 -0.91561 0.43521 0.26472 0.082382 0.014972 -0.034845 -0.070359 
0.32391 -1.0141 -0.23675 -0.2106 -0.21488 -0.10341 -0.087622 -0.13316 
0.27655 -0.48353 -0.14813 -0.59287 -0.47071 -0.15832 -0.097651 -0.14829 
0.15966 -0.20025 0.65668 -0.7581 -0.56261 -0.15306 -0.096336 -0.086471 
0.10967 -0.20748 1.1006 -0.75695 -0.54732 -0.12396 -0.071838 -0.064111 
0.10326 -0.17049 0.4385 -0.46742 -0.37058 -0.057534 -0.035996 0.0023123 
0.10014 -0.011005 -0.55768 -0.059343 -0.1159 -0.02498 -0.00031829 0.055582 
0.030427 0.11214 -1.3681 0.33114 0.11576 0.034373 0.049006 0.099481 
-0.045039 0.16064 -1.3679 0.52926 0.25387 0.07038 0.080409 0.12612 
-0.11491 0.24236 -0.27012 0.50657 0.21654 0.096686 0.11937 0.15686 
-0.091897 0.35482 1.0879 0.24893 0.069886 0.10639 0.10672 0.1271 
-0.11409 0.44064 2.1767 -0.063782 -0.095843 0.067585 0.10047 0.10096 
-0.1279 0.49013 2.1739 -0.24135 -0.16687 0.091096 0.1026 0.10655 
-0.11278 0.44853 0.85973 -0.21323 -0.12659 0.1003 0.085012 0.08567 
-0.031886 0.045718 -0.41776 -0.019061 -0.030735 0.062488 0.045389 0.069064 
0.046704 -0.37781 -0.88174 0.12891 0.041607 0.043251 0.021713 0.052623 
0.08863 -0.31468 -0.59073 0.19928 0.027303 -0.016431 -0.011498 -0.010841 
0.13812 -0.17805 -0.30777 0.17971 0.0064227 -0.072825 -0.061151 -0.073482 
0.1105 -0.21817 -0.74429 0.20388 0.0042853 -0.067892 -0.065919 -0.05885 
-0.013636 -0.019555 -1.2421 0.22723 0.021056 -0.047505 -0.017911 0.00033937 
-0.051615 0.30878 -1.0381 0.099316 -0.035174 0.0090533 0.017274 0.064132 
0.011684 0.32982 -0.59747 -0.14911 -0.16128 0.023028 0.039963 0.046704 
0.10047 0.21161 -0.063289 -0.33424 -0.24924 -0.012156 0.01415 0.040128 
0.057391 0.2269 0.24745 -0.24168 -0.21554 0.017767 0.029276 0.045882 
-0.054082 0.32473 0.47796 -0.030899 -0.069043 0.051801 0.049335 0.096028 
-0.13662 0.41499 0.68644 0.15308 0.044238 0.068078 0.089945 0.099645 
-0.16095 0.48059 0.75401 0.19928 0.069064 0.08419 0.096686 0.11066 
-0.066741 0.42075 1.3064 0.046704 -0.021363 0.060515 0.072353 0.076627 
0.11592 -0.055561 1.714 -0.28525 -0.21537 0.02681 0.033551 0.039799 
0.18547 -0.51559 0.70666 -0.44621 -0.31533 1.0539e-005 -0.0014692 -0.024816 
0.082875 -0.67293 -0.44292 -0.19005 -0.20222 -0.029091 -0.011992 -0.010841 
-0.097816 -0.60372 -0.8071 0.059528 -0.056055 -0.01117 -0.00097594 -0.041257 
-0.11985 -0.62147 -0.75629 0.15719 -0.006566 -0.044874 -0.031228 -0.00097594 
0.04358 -0.53203 -0.5779 0.094713 0.012177 -0.032215 -0.059507 -0.029091 
0.21835 -0.37304 -0.081539 0.055582 -0.063782 -0.017253 -0.030735 -0.010348 
0.2759 -0.18742 0.81139 0.0039565 -0.071016 0.036346 0.032893 0.02829 
0.14716 0.062817 1.0463 0.020233 -0.03912 0.080902 0.069229 0.075476 
0.025659 0.26422 0.71192 0.18711 0.069886 0.12447 0.10819 0.10951 
-0.032708 0.47336 0.03947 0.40792 0.21441 0.14716 0.14091 0.14272 
-0.051451 0.5896 -0.55867 0.56724 0.30566 0.13697 0.13598 0.11 
-0.0068948 0.5337 -0.70072 0.49276 0.24581 0.10524 0.10556 0.029441 
0.064954 0.36073 -0.29692 0.2417 0.050157 0.024344 0.0072447 -0.0088678 
0.071695 0.25946 -0.0049219 -0.038791 -0.12626 -0.050464 -0.031392 -0.047176 
0.060022 0.24778 0.0088889 -0.16605 -0.19581 -0.068221 -0.038791 -0.023501 
-0.0059084 0.31388 -0.013307 -0.078908 -0.14336 0.0044497 0.011848 0.015465 
-0.099131 0.28823 -0.11196 -0.013143 -0.06855 0.038812 0.047033 0.044402 
-0.1159 0.16755 -0.049149 0.060844 0.00083261 0.10326 0.069229 0.067913 
-0.12034 0.1003 0.0051074 0.14535 0.0786 0.11296 0.080738 0.088958 
-0.10456 0.17018 -0.066741 0.22427 0.10014 0.12365 0.082875 0.085341 
-0.037805 0.1807 -0.23609 0.26439 0.1276 0.1054 0.058049 0.083533 
0.055089 0.13713 -0.28804 0.19303 0.086985 0.083368 0.026646 0.0059294 
0.15308 -0.043888 0.27442 -0.059178 -0.051122 0.041114 -0.021856 -0.0503 
0.22444 -0.1547 0.46695 -0.32553 -0.22951 -0.0098543 -0.059836 -0.075949 
0.19369 -0.16638 -0.10143 -0.41365 -0.31764 -0.050136 -0.022843 -0.026296 
0.1202 -0.31747 -0.043395 -0.38801 -0.30794 -0.05885 0.0083956 -0.0080457 
0.11428 -0.61325 0.75615 -0.33983 -0.32125 -0.066084 0.018096 0.027632 
0.067091 -0.63101 0.71899 -0.41431 -0.35052 -0.021199 0.027796 0.031907 
0.01415 -0.24941 0.0046141 -0.33326 -0.2665 0.015465 0.05065 0.075641 
-0.0032777 0.30944 -0.54519 -0.10193 -0.11278 0.048513 0.076627 0.078272 
0.044402 0.52614 -0.39392 0.060679 -0.036818 0.004943 0.047197 0.043909 
0.13976 0.11231 0.14387 0.16821 0.0095465 -0.038791 0.0036276 -0.011663 
0.20832 -0.45607 0.51413 0.34676 0.090438 -0.03057 -0.041257 -0.045696 
0.13943 -0.44687 0.44015 0.548 0.16886 -0.032543 -0.037476 -0.032872 
0.030756 -0.060494 0.17297 0.46316 0.1636 0.00017495 0.016123 0.016616 
-0.0088678 0.20027 -0.29988 0.20947 0.031085 -0.0059084 0.032893 -0.0068948 
-0.014951 0.32111 -1.046 0.0060938 -0.091239 -0.024487 0.017274 0.0090533 
-0.013471 0.37307 -1.4054 -0.18611 -0.19614 -0.0016336 0.0034632 -0.00081153 
0.017767 0.43505 -1.4728 -0.2647 -0.20995 0.0079024 0.0060938 0.0052718 
0.044073 0.29135 -1.2693 -0.23527 -0.13892 0.053116 0.027303 0.010533 
0.0324 0.16311 -0.80742 -0.12675 -0.086142 0.087479 0.064461 0.045389 
0.069393 0.14009 -0.25582 -0.047998 -0.031721 0.08978 0.082053 0.050486 
0.11888 -0.10965 0.84789 -0.0098543 -0.033365 0.0324 0.049499 0.058377 
0.11263 -0.279 2.6382 0.13894 0.02122 0.035688 0.069558 0.042758 
0.040128 -0.2716 2.8995 0.2297 0.06594 0.0059294 0.031907 0.0031344 
0.044896 -0.2037 1.7538 0.22575 0.063803 0.013821 0.04506 0.029769 
-0.032215 -0.066741 0.3313 0.098494 0.0060938 0.019905 0.036839 0.027796 
-0.052273 0.33032 -0.20945 0.05065 -0.049478 -0.0024557 -0.0088678 -0.0031133 
-0.027611 0.64534 -0.20847 -0.010348 -0.084991 0.0036276 -0.0067304 -0.0019624 
-0.086307 0.52252 -0.62361 -0.047669 -0.11837 -0.018733 0.020727 0.054925 
-0.095021 0.15916 -1.108 0.010697 -0.075455 0.011026 0.053609 0.077614 
-0.021363 -0.22178 -0.88289 0.024344 -0.072332 0.023851 0.048019 0.080244 
0.077121 -0.37107 -0.59319 0.0069159 -0.05885 0.044567 0.041443 0.031085 
0.16508 -0.3058 -0.34197 -0.0055795 -0.072003 0.040621 0.013821 0.0013258 
0.19122 -0.20485 0.3216 -0.051615 -0.11853 -0.0083746 -0.012814 -0.025638 
0.12118 -0.056548 0.89229 -0.10587 -0.13366 -0.020048 0.0034632 -0.009361 
0.029441 0.15768 0.78131 -0.12955 -0.12166 0.046704 0.030263 0.0013258 
-0.028104 0.36287 -0.068879 -0.070687 -0.050793 0.076792 0.074161 0.07597 
-0.051287 0.39428 -0.89144 0.15308 0.061172 0.09833 0.092904 0.080409 
-0.038462 0.24647 -0.79608 0.29513 0.10819 0.056076 0.082053 0.078765 
0.092247 -0.10653 0.33985 0.24729 0.036675 -0.014458 0.011355 -0.003771 
0.2103 -0.35299 0.88472 0.1391 -0.097651 -0.12494 -0.078908 -0.087129 
0.24071 -0.255 0.45314 -0.13316 -0.29133 -0.19022 -0.1159 -0.14517 
0.12546 0.0070803 0.28231 -0.38242 -0.41464 -0.17312 -0.10028 -0.078086 
-0.09798 0.26817 0.15045 -0.21669 -0.23411 -0.089431 -0.0073881 0.016123 
-0.20189 0.30681 -0.018404 0.10145 -0.01232 0.03388 0.052787 0.098823 
-0.15898 0.012999 -0.26502 0.29596 0.15275 0.093398 0.077614 0.10441 
-0.045203 -0.2568 -0.1108 0.34051 0.19714 0.14404 0.091753 0.10573 
0.025659 -0.35381 0.36452 0.30631 0.1807 0.16673 0.077285 0.082546 
0.11444 -0.32964 0.90281 0.11066 0.058542 0.11132 0.045882 0.031742 
0.19846 -0.15257 0.69006 0.027632 -0.0049219 0.079916 0.037826 0.0090533 
0.085999 0.47106 -0.10061 0.079587 0.040785 0.1105 0.11033 0.092082 
-0.019884 0.96742 -0.35331 0.11148 0.019247 0.10195 0.1128 0.10655 
-0.047998 0.87568 -0.053753 0.08008 0.00017495 0.07301 0.062323 0.070544 
-0.0013048 0.51907 0.38605 0.018096 -0.046519 0.018754 0.013657 0.0060938 
0.038812 0.1391 0.48783 -0.098473 -0.13316 -0.025967 -0.016431 0.0021479 
0.080573 -0.20847 0.14502 -0.24283 -0.22984 -0.047834 -0.019226 -0.02087 
0.081067 -0.65567 -0.18298 -0.2425 -0.22277 -0.024158 0.0065871 0.029112 
0.005765 -0.6172 -0.48567 -0.079895 -0.10883 0.017603 0.025988 0.058213 
-0.10242 -0.097651 -0.86661 0.097344 -0.038627 0.020398 0.069558 0.044073 
-0.22409 0.13417 -1.2053 0.17001 0.020233 0.043909 0.061337 0.060022 
-0.27111 0.16311 -0.87894 0.18333 0.031249 0.038155 0.052952 0.046375 
-0.17032 0.071366 0.093398 0.15719 0.010697 -0.00081153 0.016781 0.028619 
0.022864 0.23266 0.2833 0.052787 -0.030077 0.018425 0.0047785 0.030592 
0.16196 0.54718 -0.074633 0.02681 -0.040928 0.047526 0.00083261 0.018754 
0.15571 0.72524 -0.077428 -0.028597 -0.042079 0.01152 -0.047998 -0.025474 
0.11773 0.48454 0.29826 -0.17049 -0.14533 0.0036276 -0.033859 0.0060938 
-0.0013048 -0.30547 0.59371 -0.38472 -0.26996 0.0085601 0.010533 0.064625 
-0.003771 -0.89341 0.40546 -0.46988 -0.33358 0.013164 0.031249 0.069722 
0.11477 -0.88552 -0.13251 -0.27588 -0.23313 0.0034632 0.024673 0.018754 
0.17511 -0.56097 -0.6537 -0.0032777 -0.11475 -0.053424 -0.022843 -0.0055795 
0.13647 -0.34049 -0.019719 0.17593 -0.038956 -0.074633 -0.035832 -0.015609 
0.047033 -0.13497 0.93503 0.2537 0.020562 -0.021363 -0.0011404 0.032893 
0.015301 0.15226 0.92879 0.23562 0.02829 0.041607 0.071366 0.054267 
0.0046141 0.35399 0.93306 0.081724 -0.017088 0.058706 0.088958 0.072681 
0.01004 0.32867 0.96989 -0.027611 -0.063946 0.064954 0.08567 0.067585 
-0.0771 0.39592 0.0592 0.032564 -0.023336 0.081889 0.052459 0.066269 
-0.14566 0.53205 -0.91051 0.1442 0.039141 0.078929 0.039141 0.059693 
-0.13629 0.44327 -0.97611 0.1641 0.076792 0.09833 0.050979 0.056898 
-0.073647 0.11658 -0.38669 0.076792 0.028125 0.087479 0.047197 0.032893 
-0.033037 -0.2014 -0.20156 0.038648 -0.022843 0.056733 0.035688 0.04654 
0.024673 -0.44111 -0.31862 0.086492 -0.0021268 0.035853 0.0075736 0.03388 
0.09685 -0.44325 -0.37699 0.061995 -0.022679 0.024508 -0.0052507 0.010204 
0.068078 -0.069865 -0.39656 -0.023665 -0.055561 0.023357 0.034866 0.044567 
0.024837 0.37553 -0.34246 -0.037805 -0.066906 0.067256 0.055747 0.066434 
0.020069 0.53732 -0.23247 0.086657 0.021878 0.098494 0.098166 0.078765 
-0.011005 0.5263 -0.1279 0.26554 0.14305 0.13023 0.12201 0.11674 
-0.0096899 0.35728 -0.051122 0.42732 0.20355 0.11362 0.097508 0.083204 
0.072681 -0.018897 0.26817 0.21917 0.044238 0.020069 0.061666 -0.0036066 
0.21079 -0.3617 0.55573 -0.054575 -0.14599 -0.032872 -0.02646 -0.079237 
0.22904 -0.4056 1.2085 -0.29232 -0.26996 -0.084498 -0.066906 -0.086471 
0.1225 -0.24283 1.582 -0.3446 -0.31106 -0.059178 -0.026624 -0.035667 
0.064625 -0.32783 1.0541 -0.24382 -0.23822 -0.064933 -0.00064712 -0.021856 
0.063474 -0.32043 0.024179 -0.070194 -0.12149 -0.0034422 0.017932 0.023357 
-0.032872 -0.009361 -0.86596 0.19944 0.030592 0.057227 0.066598 0.087314 
-0.054904 0.14815 -1.2252 0.29744 0.10195 0.0592 0.054596 0.12151 
-0.016924 0.056404 -0.96428 0.31536 0.12414 0.038648 0.028783 0.069722 
0.022371 0.014315 0.24153 0.26521 0.11674 0.025166 0.024673 0.027796 
0.063474 0.048513 1.3066 0.22493 0.063474 0.029441 0.028125 -0.025638 
0.086492 0.068571 1.2773 0.17791 0.04358 0.055911 0.030263 -0.0082102 
0.069393 0.054596 0.65915 0.15407 0.013164 0.036346 0.030756 -0.0070593 
0.048348 0.15949 0.12529 0.030592 -0.09091 -0.027611 -0.0059084 -0.012485 
0.066763 0.41779 -0.57725 -0.19745 -0.22014 -0.067399 -0.015938 -0.056877 
0.13187 0.56872 -0.88766 -0.40642 -0.34674 -0.090417 -0.063453 -0.11459 
0.18826 0.48388 -0.7997 -0.5585 -0.40576 -0.056219 -0.053424 -0.097158 
0.10589 0.40348 -0.89785 -0.33178 -0.24891 -0.0039354 -0.012156 0.017767 
-0.041586 0.35942 -0.72505 0.073997 1.0539e-005 0.076627 0.053281 0.15193 
-0.11212 0.18826 -0.2351 0.29053 0.15357 0.12316 0.093726 0.19336 
-0.049807 -0.040106 0.21243 0.34988 0.17478 0.09274 0.057884 0.10885 
0.086657 -0.1473 0.40151 0.22756 0.091753 0.10852 0.027961 0.054925 
0.13795 -0.17657 0.35991 0.11987 0.019576 0.051472 0.034866 0.014315 
0.064954 -0.15668 0.21737 0.14387 0.044731 0.038155 0.022864 0.021549 
-0.01117 -0.08121 0.035688 0.15045 0.021384 0.038483 0.03651 0.010862 
0.0031344 -0.0059084 -0.13185 0.099152 -0.011005 0.0227 0.02681 0.0065871 
0.056733 0.050321 -0.26042 0.054267 -0.039942 0.034044 0.014808 -0.013143 
0.087972 0.075312 -0.09387 0.02829 -0.064275 0.004943 -0.006566 -0.032379 
0.089452 0.080573 0.1077 -0.11524 -0.15651 -0.027282 -0.020706 -0.04619 
0.084848 0.079422 0.23414 -0.24891 -0.23592 -0.054739 -0.028433 -0.040435 
0.030263 0.15209 0.3678 -0.1746 -0.18282 -0.059178 -0.025802 -0.031064 
-0.0082102 0.23858 0.25452 -0.051944 -0.13695 -0.004593 -0.024816 -0.0021268 
-0.053917 0.2925 -0.24973 0.0042853 -0.069701 0.041114 0.020069 0.044073 
-0.12297 0.27507 -0.62213 0.063639 -0.013965 0.072681 0.067913 0.076299 
-0.074304 0.25206 -0.53236 -0.014293 -0.041751 0.053609 0.074161 0.085341 
0.025659 0.13467 -0.2014 -0.21948 -0.18594 0.027468 0.018096 0.048513 
0.064132 0.043416 -0.22885 -0.35397 -0.26042 0.020398 0.018918 0.016452 
0.065776 0.046375 -0.17673 -0.3224 -0.23609 0.024015 0.024015 0.032564 
0.046046 0.11 0.20092 -0.20995 -0.1792 0.012506 0.039963 0.043087 
0.01004 0.18711 0.54126 0.015137 -0.051944 0.023193 0.065118 0.061172 
-0.047012 0.37586 0.58352 0.39526 0.17182 0.071695 0.070873 0.087479 
-0.01676 0.23858 0.1562 0.57086 0.27294 0.048019 0.057227 0.038319 
0.068407 -0.41826 -0.3765 0.61064 0.25584 0.0024767 0.016945 0.01974 
0.049992 -0.61013 -0.68461 0.69532 0.30253 -0.0057439 0.0054362 0.017274 
-0.025967 -0.098309 -0.85034 0.75895 0.35449 0.030756 0.039799 0.068242 
-0.054739 0.47533 -0.26338 0.48289 0.21145 0.072517 0.046868 0.062323 
0.15292 0.70469 1.2344 -0.17131 -0.14911 0.05476 -0.00064712 0.0079024 
0.35761 0.29365 2.8005 -0.74544 -0.51148 -0.037147 -0.061151 -0.096829 
0.30368 -0.56426 2.605 -0.79641 -0.54601 -0.079895 -0.030735 -0.069372 
-0.025638 -1.1262 1.2353 -0.44243 -0.3492 -0.057863 0.011026 -0.0032777 
-0.21981 -1.2203 -0.17739 -0.11393 -0.13119 -0.003771 0.044238 0.076956 
-0.15487 -0.63578 -1.2037 0.072353 -0.018239 -0.0014692 0.034044 0.074326 
-0.020048 0.17018 -1.3998 0.11444 -0.0052507 0.012999 0.024837 0.047033 
0.068571 0.6843 -1.2497 0.030756 -0.049807 0.0041209 0.046375 0.035031 
0.070051 0.39082 -0.93994 -0.0055795 -0.069208 0.004943 0.032071 0.023357 
0.01826 0.0072447 -0.34559 0.083204 0.014643 0.015465 0.056569 0.047197 
-0.023336 -0.18019 0.029441 0.21885 0.062652 0.088958 0.0786 0.037497 
-0.038791 0.10819 0.15818 0.26505 0.12135 0.1128 0.092247 0.063968 
-0.068714 0.61656 0.21852 0.2731 0.12694 0.095371 0.099152 0.082217 
-0.0055795 0.6238 0.54948 0.22592 0.082217 0.081067 0.065283 0.0227 
0.023028 0.25074 0.8428 0.06331 -0.031392 0.010204 -0.014293 -0.01232 
0.014315 -0.22803 0.61163 -0.061809 -0.1187 -0.01676 -0.0062372 -0.018733 
0.0087245 -0.62591 0.4071 -0.052602 -0.11524 -0.015938 -0.0078813 0.024673 
-0.064768 -0.37058 0.15176 0.024015 -0.07414 0.021713 0.057227 0.09422 
-0.099624 0.13516 0.090438 0.041114 -0.046354 0.036839 0.065612 0.095042 
-0.0060728 0.1927 0.22526 0.058377 -0.041257 0.010533 0.051801 0.057227 
0.089287 0.15719 0.069064 0.17133 0.014808 0.0026412 0.031085 0.019905 
0.10277 0.097344 -0.18528 0.25403 0.076956 0.030592 0.01004 -0.014129 
0.082875 0.012835 -0.59599 0.32604 0.12529 0.03388 0.0324 -0.015116 
0.10277 -0.1182 -1.0121 0.36715 0.1687 0.030756 0.0098754 -0.010183 
0.22279 -0.35249 -1.212 0.2953 0.083533 -0.0060728 -0.012978 -0.043724 
0.24153 -0.48698 -0.2254 -0.014951 -0.099789 -0.02646 -0.0047575 -0.020212 
0.20898 -0.48978 1.9329 -0.41382 -0.32865 -0.014787 0.023851 0.0051074 
0.12003 -0.26042 2.5249 -0.40231 -0.31188 0.013328 0.055254 0.034537 
-0.029748 0.08304 1.2496 -0.23839 -0.18791 0.055747 0.081395 0.10129 
-0.17953 0.32292 -0.23263 -0.13464 -0.11327 0.097015 0.10721 0.15144 
-0.25615 0.47237 -1.5936 0.028947 0.0036276 0.087643 0.10195 0.12003 
-0.19745 0.56395 -2.077 0.12529 0.02533 0.064132 0.066434 0.076627 
-0.064275 0.46037 -1.2998 -0.067892 -0.067892 0.025659 0.015301 0.0042853 
0.025166 0.17429 -0.0138 -0.32306 -0.22491 -0.035996 -0.017582 -0.016924 
0.071366 -0.10554 1.4689 -0.44835 -0.34016 -0.059014 -0.022185 -0.012814 
0.11526 -0.13021 2.3433 -0.60618 -0.46413 -0.052602 -0.0055795 0.01152 
0.073175 0.16393 1.2839 -0.44571 -0.38505 -0.04323 0.026317 0.047033 
0.027632 0.25156 -0.37354 -0.018733 -0.12182 0.00066819 0.040128 0.066105 
0.049006 0.1031 -1.8207 0.49506 0.16459 0.031742 0.045553 0.045882 
0.076627 -0.16358 -2.3123 0.70305 0.30615 0.05213 0.01711 0.046868 
0.16936 -0.48567 -1.4654 0.60867 0.25781 0.038483 -0.011005 -0.030899 
0.19747 -0.61572 0.066105 0.52252 0.21243 0.01267 0.0051074 -0.060165 
0.081724 -0.32816 1.6114 0.38211 0.14864 0.020562 -0.031392 -0.061809 
-0.0098543 0.23414 1.7979 0.15883 0.050321 0.037004 -0.0096899 -0.025145 
-0.079072 0.68578 0.73642 -0.086142 -0.061645 0.059035 0.028947 0.065283 
-0.091075 0.80564 -0.43141 -0.22211 -0.15684 0.070051 0.078436 0.12168 
-0.04882 0.64418 -0.78095 -0.32915 -0.21143 0.063145 0.11691 0.11905 
-0.023172 0.53962 -0.9064 -0.41727 -0.28278 0.065612 0.088301 0.10441 
0.0041209 0.63695 -1.116 -0.37304 -0.2568 0.046046 0.077285 0.051636 
-0.023994 0.81896 -0.94389 -0.2762 -0.21537 0.029934 0.044238 0.042758 
0.0085601 0.64402 -0.45706 -0.029913 -0.068714 0.031414 0.015301 0.033387 
0.059364 0.3216 -0.020212 0.090438 0.0056006 0.028619 0.04095 0.021549 
0.15308 -0.23543 0.65553 0.037826 -0.07266 -0.0083746 -0.028597 -0.032379 
0.24121 -0.93123 1.5498 -0.14171 -0.20238 -0.10291 -0.096665 -0.10061 
0.29135 -1.4258 1.7576 -0.24612 -0.28475 -0.14451 -0.13234 -0.10867 
0.27392 -1.3493 1.1216 -0.23461 -0.24858 -0.14122 -0.11623 -0.1085 
0.14568 -0.72505 0.17495 -0.057041 -0.14714 -0.044217 -0.038627 0.004943 
-0.034681 -0.12757 -0.33063 0.12365 1.0539e-005 0.048677 0.060679 0.076299 
-0.10801 0.17906 -0.37321 0.21506 0.069393 0.10589 0.11395 0.1442 
-0.060987 0.58911 -0.48534 0.30516 0.12743 0.097508 0.12085 0.1105 
-0.024158 0.85052 -0.56179 0.34347 0.16377 0.10441 0.10721 0.092411 
-0.046354 0.55261 -0.5659 0.39526 0.19681 0.11132 0.090274 0.061172 
-0.072825 0.18054 -0.54453 0.40348 0.22065 0.14091 0.065118 0.082546 
-0.097322 0.29842 -0.3885 0.40052 0.20503 0.1419 0.068407 0.082053 
-0.076935 0.58236 -0.41826 0.32621 0.18202 0.11987 0.03947 0.065776 
0.064132 0.95394 -0.59681 0.16722 0.0786 0.05213 0.0087245 -0.0088678 
0.10655 1.1493 -0.49849 -0.06707 -0.11311 -0.066084 -0.055068 -0.045368 
0.09981 0.35235 0.056076 -0.33276 -0.29626 -0.10768 -0.084663 -0.089102 
0.15176 -0.7267 0.35827 -0.38817 -0.36269 -0.12412 -0.064111 -0.069865 
0.14239 -1.2112 0.32719 -0.2961 -0.30136 -0.10505 -0.043559 -0.025967 
0.12628 -1.0198 0.79808 -0.27703 -0.27736 -0.050958 0.024508 0.020069 
0.038812 -0.54025 1.5715 -0.41217 -0.29149 0.045389 0.045718 0.040785 
-0.07414 0.00066819 1.2113 -0.2836 -0.15964 0.1368 0.09981 0.11674 
-0.20057 0.70798 0.1003 0.015465 0.035524 0.21572 0.13039 0.15456 
-0.25746 1.0626 -0.61062 0.20668 0.14568 0.19468 0.15308 0.17297 
-0.092061 0.68578 0.13565 0.25008 0.10688 0.076792 0.071366 0.078272 
0.21375 0.21654 1.1244 0.33673 0.089945 -0.075455 -0.058192 -0.066084 
0.41927 -0.093541 0.54981 0.44952 0.071037 -0.14385 -0.145 -0.14813 
0.48092 -0.67409 -0.62838 0.35942 0.016781 -0.1672 -0.19038 -0.19926 
0.42387 -1.4156 -1.1044 0.19583 -0.051615 -0.13908 -0.12889 -0.15635 
0.20175 -1.6318 -0.60996 0.12365 -0.050464 -0.056219 -0.0077169 -0.033037 
-0.1358 -0.74692 -0.18972 0.04095 -0.037476 0.083862 0.094384 0.14798 
-0.33227 0.45412 0.01415 -0.01676 -0.026953 0.15571 0.1322 0.19944 
-0.26864 0.67855 0.10491 -0.0503 -0.013143 0.14256 0.11477 0.1516 
-0.20649 0.56181 -0.10242 0.0090533 -0.0040998 0.13384 0.10145 0.11855 
-0.21258 0.47237 -0.28064 0.098001 0.051308 0.11592 0.13368 0.13746 
-0.19614 0.53386 -0.10834 0.18004 0.094548 0.086328 0.095371 0.094713 
-0.067399 0.585 0.43702 0.16031 0.061995 0.076299 0.047691 0.044731 
-0.027282 0.52646 0.46267 0.159 0.029605 0.04506 0.020233 0.00066819 
0.023357 0.50295 0.052294 0.27409 0.11033 0.038648 0.01004 0.052623 
0.073668 0.32604 -0.12363 0.24071 0.12102 0.058049 0.046704 0.019083 
0.10869 0.1322 -0.051287 0.16031 0.040292 -0.0055795 0.012835 0.020562 
0.12349 -0.14073 0.36764 -0.06444 -0.098967 0.032893 0.011026 -0.0088678 
0.19977 -0.58925 1.0907 -0.29018 -0.26683 -0.026296 -0.035996 -0.047341 
0.23282 -0.81778 1.2833 -0.34164 -0.30991 -0.05737 -0.024652 -0.047176 
0.15242 -0.48813 0.26274 -0.20584 -0.25105 -0.048985 -0.0052507 -0.0022913 
0.025988 -0.18512 -1.2745 -0.017253 -0.12281 -0.011498 0.0095465 0.026317 
-0.081539 0.00050378 -1.835 0.17297 0.0052718 0.0046141 0.0019835 0.040621 
-0.1501 0.32012 -1.5165 0.35416 0.10524 0.051143 0.036675 0.048841 
-0.19696 0.76223 -0.92284 0.40381 0.16623 0.080244 0.10293 0.10162 
-0.20025 0.88324 -0.040271 0.39477 0.19418 0.11411 0.13976 0.13203 
-0.17295 0.66375 1.0279 0.31207 0.1613 0.10721 0.11526 0.14223 
-0.015444 0.13171 2.045 0.13861 0.021713 0.052787 0.044238 0.024673 
0.20076 -0.7895 2.6045 -0.059507 -0.087129 0.030756 -0.018239 -0.025638 
0.41598 -1.4572 2.0159 -0.25319 -0.2111 -0.041422 -0.060165 -0.10275 
0.44327 -0.9549 0.82521 -0.48501 -0.39047 -0.10702 -0.095514 -0.13941 
0.30631 -0.011005 -0.66126 -0.61654 -0.47301 -0.13251 -0.083183 -0.12593 
0.096028 0.54274 -1.6634 -0.44095 -0.38899 -0.12823 -0.089102 -0.07973 
-0.092554 0.68118 -1.9016 -0.25976 -0.27472 -0.072496 -0.045861 -0.047834 
-0.16292 0.66178 -1.9332 -0.097158 -0.17197 -0.022021 -0.0067304 0.010533 
-0.0965 0.32456 -1.7012 0.064954 -0.047998 0.00017495 0.027468 0.005765 
0.026481 -0.21636 -0.59188 0.28412 0.095042 0.054432 0.0421 0.018589 
0.051965 -0.28673 0.82241 0.41927 0.19599 0.1197 0.10359 0.077121 
-0.023172 0.076956 1.2887 0.39608 0.22164 0.16607 0.16196 0.12003 
-0.03353 0.21326 1.4449 0.19073 0.097344 0.12842 0.13417 0.13532 
0.047526 0.096357 1.1491 -0.05441 -0.060494 0.052952 0.080902 0.10178 
0.034702 0.020398 0.28724 -0.047176 -0.10571 -0.0054151 0.035524 0.069229 
-0.06707 -0.13152 -0.23247 0.21046 0.038648 -0.024323 0.0034632 0.059857 
-0.094034 -0.29314 -0.13037 0.34923 0.13121 0.032236 0.036839 0.088301 
0.0072447 -0.21373 0.39296 0.18744 0.041278 0.055911 0.038812 0.040621 
0.024015 0.12743 0.30434 -0.097487 -0.10949 0.059528 0.044731 0.052952 
-0.0077169 0.41647 -0.28147 -0.32125 -0.23017 0.046704 0.050979 0.063968 
0.0065871 0.46267 -0.59993 -0.30432 -0.20173 0.012342 0.037332 0.061501 
0.06035 0.42946 -0.64252 -0.1843 -0.16966 0.015794 0.036182 0.01974 
0.12414 0.29037 -0.56261 -0.079401 -0.11886 0.016781 0.026646 0.012835 
0.11411 0.14058 -0.41546 -0.053917 -0.10538 0.015465 0.014808 -0.0068948 
0.037497 0.15735 -0.21471 -0.02942 -0.087951 0.0075736 0.037332 0.044402 
-0.029748 0.29365 -0.021856 -0.033859 -0.067564 0.029441 0.062488 0.049664 
-0.023829 0.32769 -0.075455 0.048677 -0.016924 0.064132 0.097837 0.083533 
0.032071 0.16525 -0.32306 0.17692 0.06331 0.038155 0.0056006 0.076627 
0.024508 -0.05441 -0.16555 0.27507 0.078929 0.043745 0.036182 0.042758 
0.075805 -0.37469 0.52087 0.29201 0.09126 0.018754 -0.013636 0.0083956 
0.20158 -0.75892 0.91087 0.13319 -0.013636 -0.037805 -0.032379 -0.041093 
0.23348 -0.85067 1.0097 -0.036818 -0.1427 -0.074469 -0.035832 -0.077593 
0.14634 -0.26848 1.2124 -0.24398 -0.26059 -0.07266 -0.073811 -0.060494 
0.048019 0.56231 1.0598 -0.44259 -0.33671 -0.03501 0.00297 0.016123 
-0.060165 0.95674 -0.13037 -0.6052 -0.38538 0.0054362 0.039799 0.0786 
-0.012814 0.92188 -0.91364 -0.47169 -0.33441 -0.0022913 0.037332 0.058049 
-0.0022913 0.56707 -1.1632 -0.095843 -0.12675 -0.023665 0.042758 0.054432 
-0.0050863 0.057884 -1.1106 0.28182 0.062817 -0.0029489 0.048184 0.058377 
0.024015 -0.29709 -0.55965 0.45659 0.15801 0.025001 0.039799 0.0592 
-0.017746 -0.30284 -0.037805 0.37931 0.1294 0.030756 0.042265 0.05213 
-0.088937 -0.25072 0.14223 0.33985 0.12513 0.040292 0.031085 0.039963 
-0.11508 -0.10554 0.15242 0.35597 0.17643 0.072024 0.051143 0.060515 
-0.029584 -0.0062372 0.67641 0.30171 0.1294 0.083697 0.020562 0.035853 
0.055911 0.033551 1.2662 0.022042 -0.027118 0.055582 -0.0039354 0.031249 
0.069722 0.24663 0.92024 -0.16375 -0.1547 0.012835 0.0083956 0.027632 
0.074983 0.55787 -0.0024557 -0.30876 -0.25434 -0.012978 0.0085601 0.033551 
0.1345 0.30779 -0.97973 -0.30974 -0.27423 -0.029748 -0.0021268 -0.0026201 
0.26965 -0.53121 -0.92597 -0.15602 -0.17361 -0.0024557 -0.028269 -0.026624 
0.33081 -1.1744 0.12069 0.04095 -0.030077 0.021056 -0.018897 -0.042079 
0.21802 -1.0559 0.99389 0.14946 0.017274 0.050321 0.0079024 0.020398 
-0.022514 -0.48682 0.8964 0.20701 0.075476 0.075148 0.089123 0.04654 
-0.17394 0.20454 -0.0047575 0.2417 0.11198 0.10063 0.13499 0.13861 
-0.21455 0.69959 -0.83455 0.23512 0.096521 0.1054 0.11247 0.096686 
-0.16506 0.83293 -1.1228 0.14453 0.047362 0.0786 0.059528 0.055254 
-0.061151 0.69614 -0.84803 0.059364 -0.0016336 0.05213 0.034866 0.022864 
-0.02498 0.44442 -0.33342 -0.028104 -0.049971 0.026481 0.032729 0.0046141 
0.016452 0.2006 -0.044217 -0.056877 -0.11278 0.0018191 0.014479 0.00066819 
0.059528 0.0074092 0.19501 -0.067399 -0.12708 -0.0095255 -0.0044286 -0.0021268 
0.099481 -0.13793 0.49177 -0.073482 -0.1427 -0.021034 -0.016924 -0.022021 
0.099645 -0.16342 0.58763 -0.07825 -0.12955 -0.023336 -0.021363 -0.0088678 
0.090767 -0.033365 0.50427 -0.11327 -0.15026 -0.030899 -0.0090322 -0.017253 
0.08715 -0.010841 0.27787 -0.010348 -0.060494 0.025659 -0.0021268 0.01415 
0.075805 -0.20025 0.23825 0.17741 0.056404 0.041278 0.018425 0.025988 
0.11181 -0.267 0.54274 0.33689 0.12003 0.044402 0.029441 0.037826 
0.13319 -0.20485 0.90971 0.23644 0.051636 0.012999 0.017603 0.0052718 
0.14946 -0.24529 0.52186 0.04506 -0.068221 -0.019226 -0.015609 -0.028269 
0.13039 -0.29051 -0.44983 -0.06707 -0.11607 -0.010676 -0.027775 -0.053917 
0.050486 -0.21734 -0.68609 -0.066741 -0.11459 -0.0029489 -0.019061 -0.026624 
-0.026953 -0.066084 -0.59023 -0.13481 -0.13218 0.038319 0.034373 -0.0049219 
-0.094527 -0.010676 -0.56097 -0.092883 -0.11064 0.027303 0.041443 0.034537 
-0.078579 -0.0040998 -0.46331 0.086492 -0.016102 0.018918 0.028619 0.032564 
-0.055561 0.07597 -0.29495 0.13927 0.020069 0.027139 0.024015 0.042923 
-0.072825 0.47813 -0.16966 0.010369 -0.035503 0.062652 0.046704 0.079916 
-0.090417 0.99389 -0.25302 -0.12264 -0.080223 0.10803 0.08715 0.10622 
-0.12166 1.3523 -0.89078 -0.003771 -0.012814 0.14387 0.14009 0.14026 
-0.18627 1.2583 -1.5359 0.28297 0.16245 0.16426 0.14913 0.15308 
-0.11031 0.32752 -0.55883 0.38721 0.18794 0.099481 0.085999 0.092247 
0.16623 -1.0095 1.3724 0.18728 -0.00015387 -0.021363 -0.040435 -0.064111 
0.37997 -1.4647 2.3423 0.0037921 -0.16243 -0.109 -0.099131 -0.13875 
0.52877 -1.0639 2.519 -0.10209 -0.2471 -0.15536 -0.12149 -0.21126 
0.56707 -0.63676 2.46 -0.26963 -0.30284 -0.15552 -0.11837 -0.16999 
0.28214 -0.53581 1.6807 -0.22688 -0.24809 -0.057041 -0.032708 -0.071016 
-0.069043 -0.34427 0.13812 -0.024816 -0.073811 0.049992 0.076299 0.13319 
-0.31238 0.0093821 -1.1848 0.21375 0.095206 0.16475 0.16393 0.21293 
-0.3617 0.43801 -1.6519 0.27754 0.14157 0.1465 0.171 0.2098 
-0.29413 0.79216 -1.4781 0.24532 0.12546 0.10754 0.12464 0.1373 
-0.17673 0.74892 -1.0711 0.2828 0.13615 0.085835 0.083368 0.090438 
-0.042408 0.64123 -0.6999 0.2851 0.15292 0.082382 0.062652 0.05624 
0.00033937 0.65931 -0.56294 0.23907 0.095864 0.076792 0.038319 0.04654 
0.037497 0.67148 -0.1917 0.090438 -0.0026201 0.042923 0.031907 -0.0032777 
0.06594 0.46744 0.14075 -0.077264 -0.11409 -0.0047575 0.0042853 -0.0011404 
0.021549 0.16344 0.22444 -0.15651 -0.1718 -0.010348 -0.0004827 -0.0029489 
0.0034632 -0.0868 0.074326 -0.20978 -0.20584 0.01563 0.020727 0.029934 
0.056076 -0.27078 -0.045203 -0.21159 -0.20551 0.016781 0.014808 0.027961 
0.12431 -0.23099 -0.060329 -0.25763 -0.2231 -0.009361 0.016123 0.016452 
0.18563 -0.056383 0.15785 -0.28048 -0.26634 -0.060165 -0.02646 -0.0068948 
0.20175 -0.084991 0.64254 -0.13645 -0.18364 -0.064111 -0.044546 -0.01528 
0.11231 -0.17854 0.83425 0.10458 -0.044874 -0.030077 -0.038133 -0.0057439 
-0.028762 -0.065919 0.70321 0.32884 0.10507 0.037168 0.034373 0.066269 
-0.055397 0.20882 0.38967 0.33081 0.10885 0.075476 0.050979 0.058542 
-0.065591 0.43078 -0.23905 0.24186 0.076299 0.046868 0.064954 0.077943 
-0.088773 0.39559 -0.97907 0.23923 0.096686 0.077943 0.084519 0.09833 
-0.092554 0.046375 -1.1131 0.26603 0.085177 0.062159 0.098166 0.090767 
0.034209 -0.46084 -0.43897 0.10787 -0.011498 0.028947 0.05213 0.022371 
0.17971 -0.78638 1.2727 -0.15898 -0.20863 -0.073482 -0.02794 -0.050464 
0.25436 -0.83718 2.8773 -0.3594 -0.3326 -0.081045 -0.044874 -0.044052 
0.15341 -0.5225 2.3211 -0.46068 -0.34394 -0.064111 -0.036489 -0.0004827 
0.058213 -0.082196 0.38441 -0.30974 -0.2203 0.00083261 0.007738 0.0047785 
0.024015 0.10293 -0.4952 -0.17279 -0.12462 0.019576 0.011848 -0.035667 
0.13039 0.18909 -0.31484 -0.15125 -0.16835 -0.0096899 -0.012156 -0.017746 
0.10885 0.29365 -0.84869 -0.24809 -0.2203 -0.03353 -0.015444 0.0014903 
0.011848 0.33476 -1.5789 -0.10324 -0.15651 -0.024158 0.0070803 0.057884 
-0.064604 0.38589 -1.6759 0.22345 0.058542 0.038319 0.047033 0.086985 
-0.11327 0.36254 -1.0235 0.41598 0.18613 0.085506 0.099645 0.13565 
-0.11705 0.48635 -0.21258 0.43012 0.19714 0.080738 0.083862 0.1026 
-0.16013 0.55737 0.27507 0.41729 0.20421 0.079587 0.064296 0.09833 
-0.12445 0.44196 0.4459 0.30911 0.13302 0.074326 0.047197 0.043251 
-0.031228 0.27869 0.43291 0.058542 -0.0078813 0.059693 0.020069 0.013657 
0.084026 0.18202 0.55392 -0.16194 -0.14632 0.023193 0.045718 -0.017582 
0.18563 -0.11755 0.70864 -0.22737 -0.20781 0.0037921 0.0095465 -0.0040998 
0.22493 -0.25056 0.75188 -0.18249 -0.19022 -0.014129 -0.031392 -0.021528 
0.14535 -0.089759 0.44672 0.013328 -0.04471 0.029441 0.0059294 0.022042 
0.015137 0.08419 -0.33211 0.16327 0.097672 0.11526 0.093069 0.060022 
-0.1284 -0.023994 -1.2208 0.14913 0.093562 0.16607 0.16886 0.15324 
-0.2032 -0.12889 -1.6352 0.072846 0.046046 0.16738 0.14354 0.12908 
-0.17065 -0.18364 -1.3863 0.1368 0.051143 0.082546 0.075805 0.099645 
-0.022185 -0.015116 -0.79378 0.22328 0.08156 0.0083956 0.021549 0.0070803 
0.13894 0.30089 -0.24776 0.26291 0.038483 -0.075784 -0.056055 -0.067235 
0.26472 0.29069 0.72327 0.1664 -0.065262 -0.15109 -0.10538 -0.12955 
0.29069 -0.0026201 1.7824 -0.045368 -0.21422 -0.17213 -0.11903 -0.16687 
0.19829 -0.28656 1.6714 -0.1455 -0.27736 -0.15602 -0.10225 -0.096007 
0.12809 -0.44983 1.1812 -0.18578 -0.25894 -0.11163 -0.063946 -0.047341 
0.044073 -0.46396 0.8719 -0.31139 -0.27785 -0.035174 0.015959 0.012835 
0.023851 -0.1376 0.23216 -0.33622 -0.2231 0.052459 0.083697 0.048513 
0.0019835 0.19402 -0.5613 -0.13234 -0.082854 0.13351 0.11198 0.0786 
0.014479 0.23907 -1.0353 0.037826 0.032893 0.13943 0.089287 0.084026 
0.028619 -0.0022913 -1.2014 0.044402 0.021549 0.10918 0.072846 0.076627 
0.028125 -0.12248 -1.012 0.10803 0.015794 0.069393 0.067585 0.056733 
0.027303 -0.12231 -0.22195 0.16574 0.031414 0.031414 0.037004 0.041936 
0.011684 0.054432 0.75319 0.20339 0.032071 0.014315 0.0052718 0.040292 
0.0072447 0.27425 1.1512 0.15193 0.009711 -0.0021268 0.010369 0.038155 
0.029605 0.64649 0.59009 0.13647 -0.014293 -0.0044286 0.016616 0.032564 
-0.017582 0.86023 -0.3224 0.1493 0.019411 0.024837 0.049335 0.049335 
-0.089266 0.67805 -0.90706 0.11987 0.024673 0.075312 0.061995 0.064296 
-0.054246 0.26422 -0.90229 0.051965 -0.01676 0.072024 0.059693 0.080573 
0.010697 -0.096665 -0.71124 -0.072167 -0.081045 0.063145 0.051965 0.049664 
0.061501 -0.47514 -0.26009 -0.13333 -0.12231 0.036346 0.017932 0.034373 
0.097179 -0.78391 0.23266 -0.11853 -0.10916 -0.01117 0.033551 0.089287 
0.1174 -0.64893 0.35169 0.022042 -0.06707 0.010862 -0.0064016 0.0051074 
0.025824 -0.24924 0.37685 0.14026 0.029276 0.082382 0.02681 0.025824 
-0.057534 0.068078 0.26209 0.17626 0.07449 0.10737 0.087643 0.10145 
-0.15076 0.33147 -0.18742 0.18909 0.074654 0.11132 0.091589 0.13401 
-0.13744 0.32045 -0.2351 0.1054 0.0052718 0.084355 0.092082 0.11247 
0.0054362 0.12529 0.099152 -0.089595 -0.1256 0.016781 0.0041209 0.026152 
0.11329 0.22082 0.39674 -0.29856 -0.23822 -0.020377 -0.036489 -0.035996 
0.092247 0.41746 0.54734 -0.29873 -0.27999 -0.055397 -0.044217 -0.061973 
0.040785 0.4339 0.51479 -0.19548 -0.19778 -0.062796 -0.02235 -0.068221 
0.039799 0.11822 0.4242 0.036017 -0.065591 -0.048656 0.0070803 -0.015444 
0.028125 -0.0082102 0.50608 0.24499 0.06479 -0.036489 0.023522 0.01267 
-0.03353 0.08304 0.63991 0.36928 0.13631 0.049992 0.03947 0.036346 
-0.088608 0.26406 -0.20468 0.44639 0.19665 0.0786 0.06594 0.072353 
-0.1205 0.42255 -1.5578 0.45675 0.22263 0.092576 0.085835 0.098001 
-0.14287 0.5023 -2.0826 0.37668 0.15966 0.1003 0.086492 0.085835 
-0.03616 -0.0024557 -1.1972 0.14157 0.043416 0.060022 0.032564 0.028947 
0.18646 -0.79213 0.19616 -0.19252 -0.16934 0.017767 -0.030077 -0.034845 
0.3244 -0.78474 1.2851 -0.45278 -0.34263 -0.018733 -0.0062372 -0.050464 
0.3729 -0.099131 2.1966 -0.67409 -0.48485 -0.03205 0.0092177 -0.040764 
0.31174 0.47484 2.3227 -0.81926 -0.53746 -0.020212 0.021713 0.005765 
-0.040928 0.54093 1.2029 -0.53203 -0.32191 0.035853 0.065447 0.08419 
-0.33408 -0.073318 -0.12774 0.06479 0.00099702 0.095371 0.11609 0.18202 
-0.32043 -0.75498 -0.67162 0.42124 0.17774 0.058377 0.068571 0.12168 
-0.0077169 -0.95507 -0.034681 0.37422 0.082711 -0.057534 -0.021199 -0.025145 
0.35843 -0.77175 1.1361 0.014315 -0.15651 -0.17739 -0.14434 -0.18956 
0.49144 -0.23 1.159 -0.22918 -0.30876 -0.19515 -0.17542 -0.23296 
0.30894 0.32407 -0.44571 -0.17641 -0.22343 -0.10768 -0.10061 -0.13678 
0.0021479 0.451 -1.8015 0.10491 0.0037921 0.083368 0.066105 0.067585 
-0.19416 0.27705 -1.8169 0.42469 0.21638 0.17018 0.17873 0.20339 
-0.19712 0.25239 -1.1456 0.53551 0.29464 0.17922 0.18267 0.2126 
-0.10735 0.47171 -0.36762 0.49194 0.26932 0.1054 0.11905 0.12661 
-0.064933 0.62281 0.058871 0.32785 0.18366 0.094713 0.068571 0.075312 
-0.037311 0.49292 0.32012 0.16886 0.074326 0.079422 0.041772 0.039634 
0.01152 0.21638 0.39773 0.1248 0.026974 0.052787 0.019905 0.024673 
0.099152 -0.006566 0.56395 0.022042 -0.059014 -0.020541 -0.018897 -0.034845 
0.16294 -0.10423 0.89837 -0.18989 -0.22343 -0.076277 -0.072003 -0.070687 
0.22772 -0.10324 0.94704 -0.34164 -0.31731 -0.097651 -0.076935 -0.089595 
0.16936 -0.017417 0.82603 -0.34098 -0.31714 -0.081703 -0.032379 -0.063289 
-0.014458 -0.02942 0.016616 -0.18249 -0.19038 -0.045039 0.024837 -0.010512 
-0.15026 -0.25565 -0.88223 0.064132 -0.062631 0.0023123 0.060844 0.052952 
-0.094034 -0.54634 -0.98137 0.20109 0.041607 0.055418 0.085999 0.083368 
0.010369 -0.56574 -0.84228 0.23973 0.073668 0.044238 0.068078 0.080244 
0.055582 -0.27456 -0.51707 0.16031 0.02533 0.052294 0.056076 0.053609 
0.078765 0.086985 0.33394 0.015465 -0.058192 0.020891 0.043416 0.013328 
0.12299 0.16541 1.5707 -0.16769 -0.16818 -0.011992 0.0039565 -0.050136 
0.16738 0.087972 2.2808 -0.39787 -0.28607 -0.029091 -0.021034 -0.024323 
0.16574 -0.085156 1.5368 -0.39524 -0.3178 -0.031886 -0.016924 -0.06 
0.083533 -0.17673 0.041772 -0.10669 -0.14106 0.004943 0.00297 0.0036276 
-0.00064712 -0.10538 -0.64235 0.17708 0.031578 0.03092 0.0018191 0.01974 
-0.0067304 0.15127 -0.67902 0.22871 0.053609 0.012013 0.014643 0.035853 
-0.040435 0.36846 -0.70582 0.1761 0.030592 0.01415 0.033222 0.078436 
-0.086142 0.53271 -0.79181 0.12332 0.01826 0.051308 0.052952 0.10113 
-0.052602 0.49703 -0.65797 0.046704 -0.015938 0.053774 0.048348 0.093233 
0.073339 -0.074304 -0.27916 0.034209 -0.06444 0.040621 0.023686 0.049006 
0.22049 -0.8722 0.059364 -0.025474 -0.084334 0.013328 0.00017495 -0.00031829 
0.21523 -0.96066 -0.10176 -0.0016336 -0.077757 0.018096 -0.026131 -0.058356 
0.0014903 -0.23872 -0.81318 0.24285 0.070708 0.051965 0.014479 0.017932 
-0.27061 0.52055 -1.3054 0.3558 0.16294 0.1179 0.10754 0.10408 
-0.279 0.82685 -0.93863 0.33837 0.16574 0.13516 0.13384 0.1539 
-0.11787 0.77522 0.06035 0.16377 0.082711 0.11362 0.11017 0.071531 
-0.0032777 0.67657 1.0638 -0.14763 -0.12955 0.08304 0.071037 0.04654 
0.056733 0.68775 1.3933 -0.39097 -0.24677 0.052952 0.046211 0.034209 
0.044896 0.70929 0.42436 -0.25763 -0.16276 0.091096 0.076627 0.073175 
0.00017495 0.41236 -0.6948 0.10047 0.048513 0.091753 0.059364 0.060186 
0.010533 -0.16703 -0.41431 0.28412 0.13072 0.059528 0.035524 0.05213 
0.06742 -0.51674 0.69088 0.34807 0.14453 0.029112 0.013164 0.018918 
0.072681 -0.5368 1.1905 0.41795 0.1613 -0.029091 -0.017088 0.047362 
0.16607 -0.40724 1.143 0.37586 0.068571 -0.071181 -0.043066 -0.021199 
0.25354 -0.21817 1.0812 0.033222 -0.14977 -0.13382 -0.084169 -0.063946 
0.16853 0.12579 0.51282 -0.32027 -0.34197 -0.12116 -0.071345 -0.053424 
0.018589 0.49588 -0.83258 -0.30794 -0.27061 -0.023007 -0.0080457 0.020069 
-0.094692 0.63892 -2.197 -0.34822 -0.25088 0.057884 0.036675 0.046868 
-0.16539 0.48536 -2.6316 -0.35973 -0.22951 0.088465 0.076299 0.061995 
-0.18265 0.39066 -1.7433 -0.16523 -0.10472 0.11033 0.096686 0.10408 
-0.12938 0.24499 -0.42467 0.13943 0.048184 0.084848 0.089287 0.10918 
0.069886 -0.10012 0.8326 0.27606 0.098823 0.0421 0.029934 0.017438 
