0.15883 -0.54025 0.65569 1.9801 0.22772 0.053609 0.0023123 -0.038627 
0.04917 -0.14484 0.16196 2.6774 0.27014 0.062488 0.041607 0.031907 
-0.092061 0.12973 -0.26305 1.9441 0.25847 0.11691 0.065283 0.089287 
-0.20567 0.25798 -0.55242 0.2948 0.16327 0.15752 0.098659 0.14716 
-0.18035 0.28593 -0.52102 -1.2998 -0.036325 0.079258 0.091096 0.15176 
-0.081539 0.28593 -0.24661 -2.2316 -0.22474 -0.021528 0.070708 0.13401 
-0.035503 0.28856 0.077778 -2.2776 -0.27111 -0.087786 0.045553 0.083697 
0.0079024 0.24614 0.2223 -1.5534 -0.14796 -0.06 0.012177 0.07038 
0.062488 0.077614 0.24745 -0.64367 0.0034632 0.012835 -0.0040998 0.0421 
0.086492 -0.16029 0.36764 -0.012485 0.078765 0.031742 -0.018897 -0.0024557 
0.10392 -0.29413 0.52252 0.39263 0.080902 0.027139 -0.008539 -0.025474 
0.11099 0.11444 0.76602 0.9768 0.088465 0.013328 -0.0042642 -0.056877 
0.056569 0.68364 0.57135 1.7287 0.15226 0.063803 0.039305 -0.010841 
-0.019555 0.57365 0.035688 2.2051 0.28297 0.17182 0.078436 0.055418 
-0.038462 -0.0096899 -0.39935 1.7928 0.33837 0.18169 0.089123 0.10918 
-0.080223 -0.12462 -0.63643 0.78525 0.28987 0.15242 0.098659 0.083368 
-0.13892 0.31026 -0.71486 -0.089102 0.13582 0.09833 0.08304 0.064132 
-0.038298 0.43916 -0.50392 -0.71765 0.0044497 0.019083 0.037497 -0.017417 
0.078765 0.029112 0.0041209 -0.82272 -0.084991 -0.03616 -0.011005 -0.041586 
0.19714 -0.35644 0.25847 -0.45213 -0.073647 -0.055726 -0.041422 -0.031886 
0.25321 -0.66767 0.31141 0.13631 -0.032215 -0.043395 -0.018239 -0.030406 
0.28346 -0.90788 0.32637 0.47796 0.012177 -0.030735 -0.018075 -0.042573 
0.27902 -0.62312 0.17725 0.35531 0.011848 -0.0011404 -0.0090322 0.0041209 
0.12562 -0.009361 0.0011614 0.044402 0.0047785 0.013657 0.0060938 0.020069 
-0.025474 0.49391 -0.034516 -0.19564 1.0539e-005 0.017932 0.018918 0.063474 
-0.096829 0.62166 0.16919 -0.20666 0.012177 0.022864 0.053938 0.091918 
-0.086636 0.38457 0.38507 -0.17953 0.034373 0.037497 0.063639 0.075641 
0.016123 0.10063 0.44393 -0.13267 0.05065 0.03947 0.058706 0.042265 
0.084684 0.15407 0.21276 -0.093376 0.054103 0.064296 0.04654 0.041936 
0.091918 0.16442 -0.16391 0.17692 0.077614 0.075641 0.059528 0.044402 
0.0092177 -0.039942 -0.33375 0.5771 0.14683 0.11066 0.078765 0.096357 
-0.031886 -0.22803 -0.22293 0.59124 0.12365 0.1105 0.083368 0.086821 
-0.035338 -0.19433 -0.03501 0.050979 0.028125 0.072517 0.046868 0.061666 
-0.013307 1.0539e-005 0.18152 -0.583 -0.11705 0.016123 0.022535 0.0052718 
-0.018404 0.12497 0.28067 -1.1336 -0.2425 -0.079401 -0.0047575 0.005765 
-0.019555 0.1322 0.13023 -1.6362 -0.26026 -0.11015 -0.0075525 -0.0011404 
-0.0083746 0.12595 -0.24283 -1.666 -0.21093 -0.11459 -0.01528 0.0079024 
0.029112 0.11494 -0.45706 -0.83998 -0.12116 -0.088773 -0.015609 -0.00064712 
0.062652 0.063639 -0.36219 0.7236 0.047362 -0.0047575 -0.0087034 0.007738 
0.10063 0.034209 -0.11952 2.2726 0.31223 0.10524 0.029934 0.028947 
0.081395 -0.0052507 0.28149 3.0762 0.46103 0.15555 0.081231 0.044896 
0.063968 -0.063289 0.67033 2.8618 0.43702 0.19369 0.089616 0.061666 
0.086985 -0.13399 0.62906 1.5613 0.29744 0.12283 0.078765 0.052623 
0.050979 -0.062302 0.22394 0.17626 0.16837 0.10721 0.046046 0.053609 
-0.021692 0.047855 -0.14155 -0.46873 0.14141 0.1128 0.087314 0.084355 
-0.041751 0.17034 -0.35315 -0.61391 0.095371 0.10787 0.10787 0.10639 
-0.0067304 0.20849 -0.40067 -0.75235 -0.050629 0.078436 0.085835 0.055747 
0.075805 0.13154 -0.29166 -1.1501 -0.20879 -0.01528 0.032729 0.01711 
0.086985 0.11362 -0.06444 -1.5185 -0.32865 -0.099295 -0.026131 -0.02087 
0.046211 0.13746 0.12003 -1.5756 -0.37387 -0.15355 -0.049149 -0.031557 
0.071202 -0.045861 0.12299 -1.226 -0.34246 -0.15059 -0.064275 -0.049314 
0.031249 -0.34493 0.10951 -0.78572 -0.23559 -0.12692 -0.056219 -0.029584 
-0.091075 -0.49093 0.19517 -0.39738 -0.12494 -0.078908 -0.056712 -0.012649 
-0.1746 -0.25335 0.1151 -0.14533 -0.041751 -0.02794 -0.012156 0.015301 
-0.14698 0.11724 -0.15914 0.012342 0.0039565 1.0539e-005 0.02829 0.045224 
-0.042573 0.53468 -0.17328 0.11888 0.072024 0.010862 0.061501 0.07301 
0.10408 0.74102 0.10885 0.21753 0.10441 0.050321 0.0421 0.027303 
0.20849 0.38934 0.34199 0.28889 0.11494 0.026646 0.04654 0.043745 
0.26653 0.012835 0.32884 0.29152 0.089945 0.012835 0.010204 -0.0024557 
0.33574 -0.18594 0.23907 0.35334 0.033387 0.024179 0.014315 0.010862 
0.31799 -0.18265 0.12151 0.40989 -0.016595 0.0044497 0.010204 0.0041209 
0.15193 -0.032543 -0.15076 0.30253 -0.00015387 0.020891 0.031907 0.087972 
-0.081868 0.057062 -0.36154 0.067913 -0.011005 0.023028 0.034373 0.065447 
-0.19071 0.076134 -0.38702 -0.12314 0.020398 0.036182 0.043745 0.073832 
-0.19334 0.10967 -0.30218 0.053938 0.12217 0.070873 0.079751 0.048841 
-0.17509 0.21441 -0.14599 0.30253 0.22871 0.098988 0.069064 0.07038 
-0.18939 0.46892 -0.076606 0.60242 0.28741 0.090438 0.075148 0.034866 
-0.20962 0.57283 -0.053424 0.77769 0.32423 0.12184 0.06742 0.076792 
-0.18249 0.46448 -0.07003 0.7328 0.28116 0.11017 0.078107 0.056898 
-0.10949 0.12595 -0.12511 0.11822 0.13499 0.095042 0.076956 0.051308 
0.05772 -0.1889 0.044073 -0.76665 -0.081868 -0.0068948 0.013492 -0.047834 
0.21753 -0.5488 0.33377 -1.2247 -0.28114 -0.10423 -0.058685 -0.084005 
0.28576 -0.91347 0.50739 -0.94619 -0.31879 -0.15832 -0.098309 -0.12774 
0.28362 -0.81433 0.28872 -0.2841 -0.22178 -0.109 -0.060658 -0.09946 
0.21638 -0.34493 0.028947 0.1299 -0.1547 -0.063782 -0.026624 -0.023829 
0.13203 0.19451 -0.083676 0.12316 -0.16802 -0.042573 -0.03501 0.0065871 
0.095699 0.43193 -0.10982 -0.16539 -0.13547 -0.027282 -0.018733 0.0060938 
0.26324 0.4043 -0.032872 -0.58547 -0.033365 0.038319 0.018754 0.023686 
0.30253 0.28543 0.13894 -0.99732 0.048019 0.03092 0.034044 0.013328 
0.057062 0.25946 0.18596 -1.2684 0.016781 -0.00015387 0.027468 0.03947 
-0.13415 0.081231 0.27212 -0.95573 0.072353 -0.013471 0.023686 0.05772 
-0.14171 0.0034632 0.35893 0.80449 0.32621 0.042265 0.050814 0.059528 
-0.13201 0.13615 0.24055 3.4546 0.69384 0.24334 0.10573 0.10836 
-0.22228 0.29382 -0.073811 3.8069 0.86203 0.35399 0.19517 0.17758 
-0.28114 0.317 -0.45394 2.7134 0.609 0.36501 0.17347 0.17824 
-0.28245 0.23825 -0.63265 0.030756 0.1174 0.18629 0.13746 0.15259 
-0.13349 0.090931 -0.50063 -1.8988 -0.27604 -0.00097594 0.070873 0.098494 
0.0018191 0.054925 -0.22014 -2.5084 -0.46972 -0.15651 0.0083956 0.034537 
0.092247 0.0324 0.011191 -2.113 -0.4421 -0.18791 -0.018404 -0.00031829 
0.16064 0.044567 0.26439 -1.1821 -0.26979 -0.12774 -0.050136 -0.058356 
0.19287 -0.1917 0.54998 -0.37798 -0.10176 -0.073811 -0.049149 -0.078086 
0.17199 -0.62936 0.76207 0.25222 -0.018239 -0.031064 -0.060165 -0.1182 
0.059857 -0.63413 0.69121 0.76158 0.021056 -0.032379 -0.037311 -0.020541 
-0.038791 -0.13908 0.3124 0.99241 0.098166 0.055254 0.038155 0.03536 
-0.026789 0.41647 0.019576 0.9056 0.16821 0.08978 0.069229 0.088958 
0.046211 0.69877 -0.21554 0.68463 0.19024 0.043087 0.086328 0.024508 
0.16738 0.609 -0.4495 0.33459 0.14716 0.088136 0.038977 0.019247 
0.13105 0.20027 -0.30695 -0.037147 0.081231 0.033715 0.024837 -0.003771 
0.14881 -0.35266 0.18711 -0.29988 -0.01232 -0.0013048 0.023357 0.0088889 
0.21276 -0.83439 0.89278 -0.42122 -0.074633 -0.03057 -0.0073881 -0.022679 
0.2833 -0.81088 1.0602 -0.43996 -0.085156 -0.021692 -0.037147 -0.032379 
0.18695 -0.21208 0.58516 -0.51066 -0.063782 0.0087245 -0.021692 -0.018075 
-0.048985 0.34265 -0.044874 -0.53746 0.023193 0.026152 0.0062583 0.061995 
-0.26864 0.36682 -0.43026 0.016781 0.16179 0.088465 0.075312 0.12875 
-0.19301 0.22739 -0.35792 0.78492 0.27212 0.11296 0.090931 0.11658 
0.020562 0.29596 -0.24595 1.2451 0.29201 0.15587 0.10113 0.086985 
0.096357 0.37767 -0.27374 1.2338 0.25008 0.1544 0.10918 0.13039 
0.022042 0.17856 -0.15799 0.98781 0.17232 0.10737 0.098823 0.11625 
0.046046 0.16245 -0.059343 0.63695 0.11313 0.071366 0.085999 0.062817 
0.089287 0.37685 -0.14467 0.26028 0.039963 0.073668 0.076134 0.013986 
0.10343 0.4043 -0.218 -0.013471 -0.028597 0.0098754 0.015137 0.011848 
0.080244 -0.028762 -0.13333 -0.30942 -0.11064 -0.027775 0.026481 0.021713 
0.03536 -0.25828 -0.073318 -0.59369 -0.14434 -0.046519 0.0032988 0.034373 
0.016616 -0.054575 0.071366 -0.91462 -0.14007 -0.039613 0.016123 0.034373 
0.050321 0.23858 0.30105 -1.1428 -0.16506 -0.055232 -0.012978 0.0021479 
0.053445 0.32144 0.41861 -1.1915 -0.18348 -0.045861 -0.0039354 -0.009361 
0.059528 0.1955 0.49473 -0.86185 -0.18052 -0.086964 -0.023172 -0.022679 
0.10129 0.053609 0.61574 -0.018897 -0.097322 -0.083183 -0.025802 -0.05737 
0.1276 -0.046847 0.51298 0.87042 0.037004 -0.015773 0.033222 -0.064111 
0.085341 -0.182 0.14305 1.3076 0.15341 0.056569 0.0090533 -0.0050863 
0.069229 -0.33917 -0.25023 0.94227 0.11346 0.071531 0.01826 0.0092177 
0.08156 -0.39162 -0.54946 0.15324 -0.0039354 0.022535 0.0074092 0.013986 
0.073997 -0.24743 -0.70615 -0.51362 -0.12577 -0.032543 -0.0031133 -0.019061 
0.048019 0.016945 -0.65945 -0.9549 -0.14467 -0.063946 -0.011992 0.00297 
0.0075736 0.22542 -0.33654 -0.73854 -0.039942 -0.0004827 -0.0060728 0.027961 
-0.038791 0.31026 -0.067564 0.17626 0.17659 0.090274 0.030263 0.072681 
-0.033201 0.4214 -0.0019624 0.77424 0.26373 0.12562 0.049335 0.061008 
0.013657 0.53436 0.030592 0.46464 0.23151 0.10326 0.090603 0.090603 
0.07038 0.23808 0.074654 -0.14648 0.10145 0.06331 0.069722 0.041607 
0.1641 -0.28097 0.14815 -0.51855 -0.040435 -0.022021 0.028783 0.01711 
0.17232 -0.57133 0.16936 -0.49866 -0.12396 -0.023665 0.025495 0.0080668 
0.075805 -0.25352 0.10326 -0.27752 -0.13103 0.0041209 0.0067515 0.052623 
-0.050136 0.18415 0.098988 -0.099789 -0.08384 -0.00015387 0.036839 0.07038 
-0.15618 0.41746 0.058377 -0.032215 -0.068057 -0.028269 0.010862 0.062652 
-0.1473 0.47878 -0.023336 -0.18298 -0.068714 -0.030242 -0.022514 0.00033937 
-0.041093 0.3974 -0.037147 -0.31172 -0.056219 -0.031886 -0.015773 0.00297 
-0.003771 0.25452 -0.16177 -0.36795 -0.059343 -0.024652 -0.023501 0.013328 
0.0060938 0.16015 -0.2859 -0.33293 -0.041257 -0.027118 0.00033937 0.0032988 
-0.0095255 0.033387 -0.24546 -0.33523 -0.026624 -0.021856 -0.0031133 -0.017417 
-0.072167 -0.06855 -0.08121 -0.095185 0.012999 1.0539e-005 0.027961 0.034866 
-0.06148 -0.11426 0.010369 0.33903 0.16623 0.080573 0.023686 0.072188 
-0.057041 -0.18002 0.033222 0.61903 0.23808 0.13203 0.058706 0.051308 
-0.029091 -0.2397 0.026646 0.56888 0.19353 0.093562 0.04358 0.021713 
-0.017746 -0.31435 0.15818 0.43472 0.033715 0.029441 0.00099702 0.03388 
0.063474 -0.26387 0.16048 0.35136 0.011684 0.011684 0.0046141 -0.0032777 
0.16788 -0.03764 -0.098144 0.11658 0.06479 0.03651 0.0028056 -0.020377 
0.16114 0.13023 -0.33408 -0.36893 0.083204 0.065612 0.06183 0.032071 
-0.033037 0.24104 -0.39261 -0.92958 -0.0034422 0.03388 0.08008 0.16081 
-0.27604 0.36106 -0.13695 -1.2273 -0.058521 0.023028 0.057884 0.1909 
-0.32619 0.3632 0.16952 -1.212 -0.040764 0.01004 0.021878 0.14519 
-0.1598 0.19665 0.57382 -0.62131 0.015301 -0.022679 0.010533 0.051143 
0.047197 -0.084498 0.91991 1.0089 0.13006 -0.041915 -0.011663 -0.039613 
0.16689 -0.31057 0.97712 2.7193 0.26061 0.016616 0.015794 -0.05441 
0.21572 -0.50556 0.59601 3.3594 0.35284 0.093726 0.034373 -0.061973 
0.25271 -0.54436 -0.045861 2.5013 0.31832 0.10951 0.041443 -0.051615 
0.20717 -0.35447 -0.44111 0.75073 0.20388 0.11674 0.069229 0.0047785 
0.10737 -0.2305 -0.51148 -0.76517 0.010204 0.097508 0.057227 0.034044 
-0.050958 -0.027447 -0.44374 -1.3663 -0.088115 0.024837 0.036346 0.036017 
-0.14139 0.2103 -0.31122 -1.2287 -0.11524 -0.0042642 0.0079024 0.034702 
-0.1187 0.50986 -0.010676 -0.95803 -0.12412 -0.040928 0.011848 -0.018239 
-0.047669 0.77457 0.19517 -0.5128 -0.093705 -0.037476 0.0069159 0.015137 
-0.086471 0.70995 0.097015 -0.12297 0.041278 0.040292 0.02681 0.027303 
-0.11508 0.44179 -0.1621 0.05624 0.12201 0.080573 0.073832 0.098988 
-0.051944 0.159 -0.11294 -0.034188 0.1197 0.094548 0.080573 0.12102 
0.075641 -0.087622 0.18333 -0.18611 0.025824 0.056569 0.060022 0.086163 
0.12562 -0.20978 0.34429 -0.28245 -0.036818 -0.010676 0.030592 0.044073 
0.091753 -0.1815 0.31799 -0.31945 -0.054904 -0.022679 0.055254 0.080573 
0.072681 -0.16243 0.46925 -0.11623 -0.03501 -0.039778 0.0024767 0.0098754 
0.098988 -0.21027 0.51512 0.39395 -0.019226 -0.062302 -0.023501 0.014315 
0.069064 -0.28212 0.092576 0.75171 0.033058 -0.0068948 0.0051074 0.027139 
0.040292 -0.33112 -0.2134 0.50904 0.078272 0.012999 0.020233 0.040128 
0.10491 -0.27884 -0.12757 0.043087 0.07301 0.031414 0.022864 -0.021856 
0.22526 -0.014622 0.28839 -0.11442 0.056076 0.035195 0.012999 -0.067564 
0.19205 0.14716 0.55491 0.26324 0.081395 0.031085 0.037168 -0.05326 
0.023522 0.10655 0.36928 1.0141 0.1784 0.045718 0.095206 0.046868 
-0.1358 0.044567 0.080738 1.5024 0.29924 0.1003 0.082382 0.090109 
-0.1621 0.064132 0.012177 1.0879 0.20273 0.10606 0.090274 0.11198 
0.19599 -0.083512 -0.089759 0.12464 0.0095465 0.030756 0.027961 0.028783 
0.39132 -0.23411 -0.31616 -0.69151 -0.15322 -0.040764 -0.018404 -0.024323 
0.28823 -0.0083746 -0.45459 -1.0613 -0.19827 -0.041915 0.0095465 0.009711 
0.1345 0.45823 -0.32388 -0.97003 -0.15437 -0.038462 0.0092177 0.050157 
-0.050793 0.63859 -0.16111 -0.5465 -0.11639 -0.019884 0.038319 0.038155 
-0.12379 0.51808 0.024673 -0.066906 0.047526 0.033387 0.029769 0.03536 
-0.0868 0.18037 0.23923 0.38589 0.17692 0.086985 0.038648 0.014643 
0.066434 -0.092554 0.40167 0.73215 0.24071 0.1077 0.048513 0.01152 
0.14831 -0.1381 0.16558 0.6672 0.16426 0.1026 0.046868 0.0085601 
0.056569 -0.016102 -0.22409 0.16459 0.08863 0.08419 0.064132 0.018589 
-0.059672 -0.0024557 -0.33556 -0.31764 0.010204 0.04917 0.023028 0.04358 
-0.10341 -0.069043 -0.19597 -0.49159 -0.055232 -0.014622 -0.0014692 0.01974 
-0.046354 -0.042408 0.12809 -0.40445 -0.12725 -0.059343 -0.021199 0.01563 
0.076299 0.082382 0.50657 -0.15372 -0.10439 -0.055561 -0.020706 -0.0049219 
0.15505 0.16771 0.7037 -0.13629 -0.12248 -0.039613 -0.021034 -0.025638 
0.15966 0.25058 0.66901 -0.22063 -0.11853 -0.016431 -0.024816 -0.034188 
0.1271 0.35728 0.25255 -0.34772 -0.11113 -0.023007 -0.017088 -0.0078813 
0.041443 0.28165 -0.24316 -0.50046 -0.10028 0.005765 0.010369 0.049664 
-0.074304 0.1197 -0.64104 -0.51674 -0.051122 0.0227 0.071366 0.12875 
-0.17591 0.20092 -0.82387 -0.48879 0.022042 0.057062 0.11494 0.16097 
-0.17246 0.41976 -0.4758 -0.43799 0.035195 0.068736 0.096357 0.15949 
-0.084663 0.33459 0.05476 -0.45525 -0.025145 0.013492 0.043745 0.063639 
0.068078 0.040128 0.34462 -0.37567 -0.10916 -0.044381 -0.0055795 -0.037969 
0.1835 -0.061973 0.26077 -0.12527 -0.1256 -0.084169 -0.051615 -0.078086 
0.19287 -0.11574 -0.070523 0.041278 -0.073976 -0.083347 -0.049149 -0.079401 
0.13467 -0.21586 -0.20896 -0.045696 -0.061316 -0.0098543 -0.055561 -0.04619 
0.030427 -0.23214 -0.16144 -0.19564 -0.010676 0.049499 0.0059294 0.016781 
0.037661 -0.22211 -0.13168 -0.1085 0.060022 0.082382 0.058871 0.039799 
0.096028 -0.10028 -0.10965 0.17692 0.14075 0.10737 0.1128 0.0592 
0.062159 0.091425 -0.0021268 0.38342 0.22953 0.12118 0.10376 0.052623 
-0.072332 0.18267 0.21062 0.61969 0.2486 0.12217 0.077285 0.080902 
-0.18249 0.19714 0.32078 0.7864 0.19172 0.088794 0.03799 0.060186 
-0.21126 0.19829 0.19353 0.91925 0.18399 0.059857 0.036017 0.061337 
-0.13596 0.23496 0.045718 1.0687 0.18432 0.0689 0.049335 0.04506 
0.005765 0.27639 -0.00064712 0.70979 0.076956 0.027139 0.0059294 -0.01939 
0.16853 0.36041 0.13105 -0.18298 -0.048327 -0.016102 -0.059507 -0.059507 
0.21293 0.23019 0.28691 -1.0383 -0.15487 -0.046025 -0.040764 -0.049478 
0.16442 -0.00031829 0.42716 -1.4327 -0.18084 -0.05178 -0.014622 -0.02646 
0.087314 -0.20666 0.36534 -1.0345 -0.10423 -0.0138 0.050814 0.026317 
-0.027118 -0.26848 -0.064111 0.1419 0.032236 0.024344 0.053281 0.055911 
-0.056383 -0.15306 -0.45196 1.3385 0.12957 0.062817 0.069558 0.048677 
0.046868 -0.00064712 -0.60076 1.739 0.18678 0.082546 0.071037 0.053774 
0.15587 0.13943 -0.48616 1.1499 0.15867 0.083204 0.076463 0.051965 
0.036839 0.16985 -0.26716 0.20339 0.068407 0.078929 0.087479 0.10491 
-0.088444 0.14716 -0.14665 -0.51839 -0.010676 0.046046 0.04358 0.085506 
-0.12083 0.17889 -0.076113 -0.78441 -0.063782 -0.0024557 0.020233 0.019576 
-0.078579 0.13351 -0.017088 -0.71091 -0.081374 -0.0072237 -0.012485 -0.012156 
-0.046847 -0.042737 0.033058 -0.45163 -0.045368 -0.039449 -0.025967 -0.030077 
0.022042 -0.20962 0.1419 -0.20304 -0.01528 -0.02794 -0.0047575 -0.043395 
0.052294 -0.28558 0.34627 -0.066413 0.030592 -0.017253 -0.022514 -0.018733 
0.01974 -0.26174 0.33903 0.099316 0.070544 0.0090533 -0.0016336 0.013821 
-0.03501 -0.14813 0.11773 0.28313 0.10573 0.050979 0.026481 0.080902 
-0.074469 0.28001 -0.078579 0.40513 0.12349 0.069393 0.068242 0.11526 
-0.034516 0.56444 -0.070687 0.25008 0.10721 0.06183 0.09126 0.12414 
0.14552 0.31305 0.080902 0.14502 0.083697 0.050814 0.07301 0.075805 
0.37997 -0.10341 0.16952 0.13516 0.07597 0.060515 0.062652 0.025659 
0.4145 -0.46758 0.15851 -0.024652 0.059528 0.052952 0.042594 -0.053588 
0.31141 -0.8117 0.29382 -0.29215 0.015959 0.021713 0.013657 -0.036489 
0.2029 -0.62854 0.34479 -0.36795 -0.03616 -0.01232 -0.018897 -0.059507 
0.05065 0.18415 0.11198 -0.31353 -0.081045 -0.0027845 -0.019555 -0.01939 
-0.14352 0.76075 -0.19729 -0.39327 -0.15717 -0.040106 -0.022843 0.014643 
-0.26601 0.56954 -0.26913 -0.25549 -0.16457 -0.063782 -0.021856 0.043745 
-0.26913 0.30714 -0.32536 0.38293 -0.0077169 -0.045696 0.010862 0.054267 
-0.22836 0.32719 -0.28952 1.0485 0.19418 0.029605 0.053281 0.082711 
-0.2083 0.46908 -0.083018 1.2499 0.36468 0.098988 0.077778 0.10047 
-0.1473 0.32128 0.09126 1.3574 0.39888 0.12118 0.074161 0.11674 
-0.0503 -0.025802 0.24449 1.5657 0.42124 0.15637 0.08419 0.13105 
0.053281 -0.39376 0.51627 1.3647 0.37241 0.16558 0.09274 0.14782 
0.23792 -0.93106 0.54981 0.46612 0.16558 0.10935 0.037497 0.032071 
0.3096 -1.022 0.13138 -0.66784 -0.082854 0.00066819 -0.02235 -0.0011404 
0.16525 -0.67852 -0.19104 -1.2923 -0.22441 -0.055068 -0.020048 -0.0027845 
-0.029584 -0.29807 -0.37765 -1.4371 -0.26239 -0.044052 0.0082312 0.025001 
-0.13399 0.03092 -0.41316 -1.2568 -0.23888 -0.031557 0.057555 0.034209 
-0.14369 0.38046 -0.24941 -0.98959 -0.14681 -0.031064 0.037168 0.0085601 
-0.043395 0.58598 0.037168 -0.70088 -0.08828 -0.041915 0.0041209 0.0052718 
0.097672 0.53057 0.2782 -0.30958 -0.036325 -0.041422 -0.011498 -0.0091966 
0.17906 0.26406 0.3923 0.07597 -0.014129 0.00083261 0.0042853 0.011684 
0.1687 -0.12215 0.36304 0.31897 0.045389 0.046704 0.023028 0.0042853 
0.095535 -0.25319 0.13549 0.15242 0.055089 0.019083 0.019247 0.0421 
0.064625 0.057555 -0.042408 0.15489 0.067913 0.024673 0.02829 0.025166 
0.077778 0.82932 -0.074633 0.28856 0.052459 0.0059294 0.08304 0.025495 
0.17528 1.1044 0.068078 0.3678 0.10589 0.050814 0.036182 0.025659 
0.12168 0.64188 0.13236 0.31125 0.10063 0.054925 0.055254 0.038977 
-0.07003 -0.0029489 0.13351 0.17396 0.027468 0.020727 0.030756 0.067585 
-0.041751 -0.41661 0.040292 0.05772 -0.044874 0.010369 0.03092 0.073832 
0.10096 -0.58053 -0.11689 -0.1358 -0.088937 -0.01939 0.027632 0.030098 
0.12924 -0.60141 -0.077264 -0.47136 -0.13826 -0.038462 -0.011992 0.021713 
0.023193 -0.2813 0.019905 -0.76501 -0.10916 -0.023665 -0.033037 0.017932 
-0.040106 0.044238 -0.054739 -0.71601 -0.056219 -0.052766 -0.03057 0.029441 
0.019905 0.03651 -0.05589 -0.23017 -0.05178 -0.05326 -0.045532 -0.032215 
0.044238 -0.10768 -0.039284 0.54307 0.077449 -0.014458 -0.017253 -0.023829 
0.020562 -0.061809 0.055911 1.1361 0.24729 0.052294 0.019411 -0.023829 
0.023193 -0.012814 0.26768 1.3018 0.32012 0.11165 0.060679 0.021384 
0.027468 -0.044381 0.3558 1.1262 0.23874 0.11083 0.067585 0.038648 
-0.0036066 0.030592 0.35235 0.6723 0.1174 0.099481 0.081231 0.054267 
-0.016266 0.30549 0.37175 -0.015609 -0.047505 0.043087 0.059528 0.039634 
-0.071181 0.4875 0.15867 -0.59369 -0.14336 0.037332 0.09422 0.069722 
-0.10637 0.38852 -0.19038 -0.99913 -0.18956 0.0070803 0.072353 0.053938 
-0.10357 0.2029 -0.22737 -1.2441 -0.21093 -0.025474 0.035853 0.048841 
-0.013307 0.024673 -0.028269 -1.2293 -0.17624 -0.076442 1.0539e-005 0.0042853 
0.035688 -0.052602 0.21013 -0.70286 -0.064933 -0.054246 0.0032988 0.0041209 
0.093398 0.023686 0.33525 0.15555 0.090109 0.0042853 0.035688 -0.010019 
0.16245 0.21819 0.16081 0.87289 0.22575 0.11609 0.044896 0.037661 
0.2782 0.20438 0.11477 0.97614 0.22871 0.1345 0.027303 -0.0004827 
0.3387 0.12431 0.088794 0.57464 0.15982 0.072188 0.0082312 -0.020706 
0.25025 0.06331 0.15045 -0.14895 -0.027611 -0.0095255 -0.011663 -0.030899 
0.083533 0.013986 0.25995 -0.92761 -0.25828 -0.079237 -0.0042642 -0.027447 
-0.1358 -0.044052 0.10047 -1.1797 -0.3372 -0.10998 -0.03764 -0.012485 
-0.22376 -0.11048 -0.206 -1.046 -0.28377 -0.097158 -0.049478 -0.011498 
-0.21471 -0.14714 -0.44983 -0.68165 -0.19877 -0.07562 -0.028597 -0.0039354 
-0.11508 -0.051451 -0.41431 -0.23691 -0.13284 -0.088115 -0.014951 -0.032708 
0.050157 -0.021034 -0.20288 0.69828 0.035524 -0.064768 0.016616 -0.050629 
0.1613 0.064132 -0.13514 1.9161 0.3678 0.069558 0.049006 -0.029255 
0.15571 0.31338 -0.057534 2.4182 0.65142 0.22887 0.10524 0.064132 
0.053609 0.61656 0.033715 2.0812 0.73034 0.3341 0.18202 0.16689 
0.038155 0.67148 0.12266 1.1361 0.55984 0.32259 0.19402 0.171 
0.14585 0.53814 0.13828 0.12447 0.23742 0.19681 0.1687 0.097015 
0.29694 0.29316 -0.0050863 -0.7045 -0.048985 0.061172 0.10014 0.038648 
0.16475 -0.053424 -0.087129 -1.132 -0.28541 -0.059836 0.012342 0.039141 
-0.020706 -0.36926 -0.011827 -1.0907 -0.34345 -0.13777 -0.056055 0.009711 
-0.085978 -0.62936 0.089616 -0.77208 -0.27111 -0.10521 -0.05737 -0.001798 
-0.14171 -0.66734 0.098988 -0.49027 -0.1667 -0.098802 -0.031392 -0.01528 
-0.17246 -0.38685 -0.022514 -0.42368 -0.1187 -0.022843 -0.026789 -0.020048 
-0.11113 -0.037476 0.073832 -0.35019 -0.096007 -0.02498 -0.045696 -0.041915 
-0.065919 0.17889 0.17643 0.024179 -0.025145 -0.016102 -0.016266 -0.012156 
-0.056712 0.25502 0.11461 0.46892 0.08419 -0.0055795 0.019083 0.048513 
-0.078086 0.21885 0.011848 0.46399 0.14289 0.058049 0.067256 0.080409 
-0.098144 0.21737 -0.22441 0.29086 0.16475 0.097179 0.063803 0.12644 
-0.073482 0.28165 -0.45788 0.18563 0.17873 0.09981 0.059364 0.13351 
-0.027611 0.26866 -0.39984 0.22246 0.16327 0.074819 0.077614 0.089616 
0.03947 0.15061 -0.17016 0.48783 0.17791 0.061008 0.075476 0.038155 
0.022864 0.083204 -0.15947 0.57299 0.17807 0.083533 0.073668 0.029605 
-0.027447 0.073339 -0.16786 0.4995 0.13845 0.075476 0.058542 0.045718 
-0.085978 0.091918 0.058871 0.48668 0.11017 0.086328 0.072353 0.083368 
-0.047998 0.038648 0.3216 0.41779 0.10014 0.055747 0.041443 0.078929 
-0.0095255 -0.029584 0.27195 0.1391 0.044238 0.043087 0.045389 0.071859 
0.054925 -0.098144 0.050814 -0.13168 -0.0077169 0.014808 0.0075736 0.021878 
0.1613 -0.14681 0.024344 -0.24612 -0.063124 -0.014951 -0.00031829 -0.010676 
0.33163 -0.15224 0.18761 -0.17936 -0.064933 -0.043395 -0.03764 -0.069043 
0.402 -0.092061 0.28741 0.00017495 -0.013307 -0.010183 -0.030242 -0.061973 
0.35547 0.13647 0.1054 0.0085601 0.015959 0.022371 0.030756 -0.044217 
0.11494 0.24877 0.11526 -0.091897 0.01826 0.033222 0.050814 0.047855 
-0.11738 0.15341 0.26472 -0.1963 0.0072447 0.050486 0.061337 0.09981 
-0.23461 -0.033201 0.019576 -0.25976 -0.011992 0.036346 0.08156 0.14338 
-0.22491 0.051308 -0.38702 -0.29429 -0.050629 0.022371 0.081395 0.15423 
-0.11179 0.2976 -0.48337 -0.36137 -0.09946 -0.014458 0.056733 0.10392 
0.08567 0.44968 -0.35595 -0.48287 -0.14714 -0.095349 0.0016547 0.01004 
0.16574 0.22279 -0.1575 -0.58793 -0.12905 -0.090746 -0.041093 -0.04471 
0.12168 -0.40264 0.043087 -0.57807 -0.12215 -0.059836 -0.031886 -0.04619 
0.0069159 -0.81236 0.12118 -0.41201 -0.079401 -0.044217 -0.030899 -0.0016336 
-0.10472 -0.59846 0.22444 0.0041209 -0.035832 -0.020212 -0.0044286 0.033715 
-0.16901 -0.21077 0.34018 0.27606 0.036675 0.010369 0.0032988 0.020562 
-0.14961 0.14946 0.341 0.12316 0.045224 0.048348 0.011848 0.037497 
-0.056055 0.34824 0.17297 -0.1838 0.069229 0.079258 0.034044 0.048513 
0.074654 0.42272 -0.015609 -0.48337 0.061172 0.070873 0.036839 0.052787 
0.2805 0.26406 0.1197 -0.65205 0.018589 0.019411 0.037332 0.016781 
0.34364 -0.048163 0.536 -0.27801 -0.0098543 -0.021199 -0.00015387 -0.021692 
0.26061 -0.21636 0.70946 0.71225 0.078272 0.06742 -0.012814 -0.079401 
0.15094 -0.18857 0.41285 1.7224 0.23282 0.0786 -0.017417 -0.0019624 
0.044402 -0.056055 0.39082 1.9434 0.27771 0.095042 0.046046 0.011355 
0.065447 -0.096007 0.51693 1.2649 0.22805 0.11806 0.10803 0.071202 
0.032729 0.024344 0.20306 0.19369 0.10458 0.051965 0.067091 0.051801 
-0.069372 0.43735 -0.21406 -0.64087 -0.022514 0.0421 0.038319 0.03536 
-0.098802 0.84066 -0.42368 -1.0861 -0.12149 0.011026 0.013164 0.009711 
-0.046683 0.80317 -0.38061 -1.1039 -0.16786 -0.068221 -0.0088678 0.0013258 
0.054925 0.30615 -0.3081 -0.88453 -0.22918 -0.099789 -0.022021 -0.02235 
0.14552 -0.30004 -0.27456 -0.71782 -0.23329 -0.12609 -0.045861 -0.052766 
0.22411 -0.60092 -0.031557 -0.66603 -0.14747 -0.10554 -0.071509 -0.077922 
0.26899 -0.75054 0.30023 -0.44506 -0.038462 -0.050464 -0.097816 -0.077593 
0.31766 -0.76797 0.40513 -0.060987 -0.026789 -0.033365 -0.06148 -0.068386 
0.25765 -0.37781 0.256 0.21474 0.023028 0.0059294 0.0011614 -0.0044286 
0.060844 0.22098 0.13203 0.39345 0.081395 0.046704 0.023357 0.043745 
-0.16457 0.34068 0.23298 0.68841 0.19829 0.10935 0.081724 0.14733 
-0.2397 0.09685 0.27064 1.143 0.32144 0.2006 0.13286 0.20471 
-0.059343 -0.06296 0.23463 1.1355 0.37668 0.23414 0.17988 0.15127 
0.097179 0.03947 0.041936 0.62709 0.2611 0.1756 0.12381 0.093069 
0.0083956 0.27919 -0.16506 0.14239 0.12053 0.061501 0.052294 0.04654 
-0.052109 0.36205 -0.20715 -0.17345 0.0051074 0.0075736 -0.0083746 -0.021528 
-0.017417 0.24449 -0.20584 -0.22984 -0.042737 -0.0095255 -0.014787 -0.073647 
-0.049807 0.17939 -0.20304 -0.12626 -0.028433 0.0069159 0.025659 -0.048656 
-0.1667 0.35202 -0.19038 -0.041586 -0.0032777 0.0085601 0.03536 0.038155 
-0.20863 0.41812 -0.18808 -0.064111 -0.048492 -0.019555 0.03388 0.049499 
-0.13333 0.29168 -0.0965 -0.3132 -0.13481 -0.044381 -0.029091 0.023851 
0.033387 0.030427 0.16245 -0.59813 -0.15141 -0.078579 -0.048327 -0.037147 
0.13927 -0.14139 0.29513 -0.58136 -0.097651 -0.054575 -0.024323 -0.041422 
0.1294 -0.32438 0.15489 -0.33046 0.028125 0.00066819 0.015465 -0.017417 
0.077943 -0.41941 0.02122 -0.027282 0.095371 0.042265 0.056733 0.057884 
0.079258 -0.51444 0.070873 0.38638 0.19681 0.08304 0.067913 0.076134 
0.16738 -0.4878 0.01974 1.2099 0.30845 0.11083 0.085999 0.046375 
0.18185 -0.18035 -0.14961 1.9904 0.41335 0.18728 0.10326 0.098988 
0.12053 0.11872 -0.29561 1.9871 0.35103 0.17807 0.1077 0.10737 
0.10359 0.42716 -0.34657 1.1032 0.18169 0.13368 0.093398 0.099645 
0.044073 0.84822 -0.3275 -0.099624 -0.031557 0.061008 0.052294 0.053445 
-0.11804 0.87058 -0.25384 -0.96839 -0.16407 -0.010841 0.0070803 0.079094 
-0.1986 0.3877 -0.074633 -1.2513 -0.20814 -0.028433 0.028947 0.040292 
-0.11672 -0.1376 -0.025967 -1.262 -0.20616 -0.052437 0.013492 0.01004 
-0.052766 -0.2933 0.0070803 -1.1742 -0.1792 -0.075455 -0.014951 -0.016431 
-0.053588 -0.14303 0.041443 -1.067 -0.1917 -0.089595 -0.0072237 -0.00064712 
-0.046847 -0.037969 -0.11163 -0.80496 -0.16342 -0.052437 0.010697 0.017932 
-0.041915 -0.0011404 -0.1552 -0.24809 -0.073318 0.011684 0.033715 0.047033 
-0.05326 0.042923 -0.16062 0.34084 -0.020541 0.019905 0.041936 0.0054362 
-0.014787 0.12727 -0.23822 0.8525 0.083697 0.0047785 0.022206 0.041936 
0.012999 0.17659 -0.30827 0.99274 0.12908 0.044238 0.020069 0.040128 
0.033715 0.26472 -0.12971 0.72277 0.13335 0.04654 0.068407 0.087643 
0.0067515 0.28099 0.22246 0.54159 0.16475 0.089123 0.084519 0.11444 
-0.028926 0.017932 0.40611 0.40546 0.21704 0.1179 0.095699 0.13812 
0.013821 -0.19087 0.20224 0.17758 0.23463 0.11263 0.069722 0.066105 
0.065776 -0.1376 0.079587 -0.16818 0.1077 0.066269 0.022535 0.00297 
0.15094 -0.075291 0.29563 -0.49734 -0.012156 0.0041209 0.0324 -0.024487 
0.16048 -0.055726 0.52959 -0.71124 -0.11935 -0.042901 0.041607 -0.0095255 
0.076134 0.043909 0.1835 -0.57544 -0.1501 -0.038133 0.0042853 0.0046141 
0.014643 0.17807 -0.17065 -0.34263 -0.13004 -0.06 -0.0042642 0.012999 
0.0085601 0.10984 0.062981 -0.11903 -0.109 -0.050629 -0.035667 -0.013307 
0.050486 -0.085649 0.54603 0.24499 -0.070687 -0.052602 -0.010348 -0.020541 
0.08419 -0.25056 0.47517 0.40644 -0.080388 -0.039778 -0.019226 -0.040435 
0.10277 -0.14648 0.15094 0.16508 -0.065591 -0.015444 -0.014458 -0.008539 
0.095371 0.19632 -0.12166 0.1368 0.08156 0.021878 0.0227 -0.0013048 
0.069064 0.24318 -0.29593 0.7328 0.26258 0.094384 0.062817 0.038648 
0.027632 0.14256 -0.38242 1.0957 0.30467 0.10343 0.1174 0.084355 
-0.020377 0.15324 -0.31024 0.71061 0.23496 0.13861 0.091589 0.10113 
-0.047998 0.17133 -0.067235 0.22016 0.059528 0.063803 0.067091 0.067256 
-0.040764 0.1396 0.13121 0.067585 -0.0771 -0.014293 0.02533 0.030263 
-0.017088 0.12908 0.14387 -0.11771 -0.14254 -0.054739 -0.012485 0.0070803 
-0.019719 0.11395 0.17149 -0.40445 -0.094034 -0.042244 0.018589 0.016945 
-0.02794 0.037826 0.25173 -0.43519 -0.033037 0.0028056 0.019905 0.041278 
-0.021363 -0.018897 0.34462 -0.3132 0.020069 0.032729 0.013492 0.048677 
-0.044546 -0.008539 0.3147 -0.2111 0.024837 0.014808 0.005765 0.059693 
-0.021199 -0.072825 0.061666 -0.14451 0.034373 0.0034632 0.0074092 0.030427 
0.051965 -0.19301 -0.067399 -0.023007 0.027468 0.0021479 0.033551 0.017274 
0.12612 -0.21521 0.023686 0.040456 0.017767 0.028947 -0.0052507 0.00033937 
0.18958 -0.0042642 0.22772 -0.016266 -0.0059084 0.024837 -0.006566 0.00017495 
0.2218 0.23364 0.33953 -0.094363 0.010697 0.017603 0.0044497 1.0539e-005 
0.23923 0.23874 0.44985 -0.19005 -0.025638 0.012999 0.015465 0.0018191 
0.21654 0.092576 0.39641 -0.2545 -0.043888 1.0539e-005 0.01826 -0.041257 
0.097344 0.026317 0.092411 -0.19383 0.005765 0.019411 0.025166 0.010862 
-0.0055795 0.0082312 -0.15635 -0.0060728 0.093398 0.062323 0.053116 0.0421 
-0.023336 -0.060494 -0.21734 0.071202 0.11559 0.073668 0.078107 0.069393 
0.0065871 -0.010841 -0.1427 0.070215 0.068242 0.02533 0.077943 0.047197 
-0.079566 0.27409 0.020562 0.099316 -0.0080457 0.049006 0.082382 0.066927 
-0.16358 0.55392 -0.049149 0.27261 0.027468 1.0539e-005 0.010697 0.06035 
-0.13596 0.46333 -0.16638 0.3974 0.079258 0.042923 0.01267 0.0421 
0.090767 0.12447 -0.090417 0.30072 0.12398 0.075641 0.057555 0.0052718 
0.28691 -0.2693 0.059693 0.27031 0.057227 0.10359 0.062817 -0.011005 
0.17791 -0.56837 0.29776 0.067585 -0.043888 0.0098754 0.010369 -0.010348 
0.054267 -0.6223 0.43028 -0.47334 -0.16621 -0.066577 -0.038298 -0.014129 
-0.0016336 -0.35414 0.18399 -1.0552 -0.22639 -0.075784 -0.064604 -0.016924 
-0.066577 0.17429 -0.30974 -1.2827 -0.1917 -0.047998 -0.010019 0.02681 
-0.06855 0.57003 -0.68872 -1.1726 -0.1182 -0.020706 -0.0044286 0.043087 
0.029605 0.46563 -0.73097 -1.0882 -0.10669 -0.064111 -0.025145 -0.0034422 
0.16278 0.090109 -0.48928 -0.93402 -0.07973 -0.065097 -0.040764 -0.035667 
0.20027 -0.2762 -0.013143 -0.28377 -0.0019624 -0.0078813 -0.022679 -0.018897 
0.17856 -0.2859 0.35005 1.1133 0.17018 0.038483 0.012177 -0.0049219 
0.1276 -0.054082 0.41055 2.3534 0.40019 0.11083 0.071531 0.03536 
0.042265 0.24597 0.090767 2.534 0.52992 0.16969 0.079258 0.050486 
-0.032215 0.4579 -0.36006 1.8365 0.54274 0.2417 0.10984 0.11526 
-0.059836 0.52334 -0.36285 0.91284 0.45823 0.25617 0.1322 0.14864 
0.022535 0.24055 0.064625 0.12579 0.26653 0.20109 0.11428 0.13845 
0.11625 -0.10357 0.31207 -0.47416 0.022206 0.099481 0.084519 0.063145 
0.075312 -0.2568 0.24384 -0.70911 -0.21389 -0.015609 0.038483 0.041772 
-0.081045 -0.14106 -0.056877 -0.632 -0.29709 -0.079566 0.014808 0.045224 
-0.133 0.0018191 -0.15503 -0.37765 -0.26387 -0.069865 0.012506 0.049499 
-0.10784 0.14519 -0.073154 -0.30876 -0.14434 -0.042408 -0.0055795 0.017767 
-0.004593 0.24828 0.02122 -0.49438 -0.078908 -0.016431 0.011355 -0.015773 
0.049992 0.13631 0.14568 -0.67096 -0.03353 0.010533 0.016288 1.0539e-005 
0.084848 -0.31402 0.00033937 -0.68921 -0.0090322 0.020727 0.021056 -0.006566 
0.18481 -0.70911 0.090603 -0.45936 -0.011334 0.0011614 -0.033694 -0.051451 
0.24285 -0.36597 0.26998 0.064132 0.011191 -0.012978 -0.04619 -0.10538 
0.23249 0.2371 0.13697 0.69088 0.091425 0.0026412 -0.016924 -0.032543 
0.11099 0.23266 -0.2328 0.87256 0.12661 0.051965 0.0079024 0.0059294 
-0.026953 0.0034632 -0.49898 0.64139 0.10096 0.0592 0.028454 0.081724 
-0.16703 0.25748 -0.47038 0.34331 0.065447 0.058377 0.040785 0.10918 
-0.23773 0.50147 -0.26141 0.11806 0.04095 0.034702 0.04358 0.13368 
-0.25121 0.59437 -0.063453 0.073339 0.025824 0.01974 0.055089 0.10441 
-0.076113 0.64386 0.2366 -0.025474 0.041772 -0.01232 0.017603 0.061172 
0.097672 0.5531 0.61969 -0.058685 0.034537 -0.009361 -0.017746 -0.0067304 
0.17528 -0.040271 0.73642 0.028947 0.042429 -0.0036066 -0.022021 0.0075736 
0.16294 -0.55932 0.66753 0.244 0.072353 0.052459 0.01563 0.0018191 
0.098823 -0.7775 0.54817 0.54702 0.06594 0.044238 0.056569 0.0064227 
-0.010183 -0.69579 0.41976 0.64797 0.0324 0.013492 0.070215 0.0028056 
-0.09239 -0.36301 0.097508 0.54636 0.035524 0.040785 0.031578 0.022535 
-0.087293 -0.10406 -0.1284 0.19402 0.021056 0.039634 0.027632 0.029441 
-0.06296 0.040456 -0.3132 -0.15405 0.010862 0.04506 0.040128 0.0592 
-0.049642 0.2218 -0.35364 -0.32569 0.01152 0.030263 0.066105 0.050814 
-0.022679 0.29316 -0.22557 -0.37913 -0.033365 0.02829 0.045718 0.068571 
0.041772 0.18678 0.060022 -0.60421 -0.021528 0.0037921 0.039305 0.040785 
0.069064 0.23249 0.18678 -0.55604 0.015959 0.027632 0.03092 0.034537 
0.07449 0.2394 0.16097 -0.19449 0.096686 0.05772 0.052294 0.036346 
0.04095 0.018918 0.016123 0.12858 0.1197 0.07038 0.051308 0.063968 
-0.0016336 -0.34953 -0.15257 0.10672 0.048841 0.046868 0.034702 0.045224 
-0.064768 -0.29725 -0.26864 -0.37913 -0.094363 -0.023336 0.02122 0.044567 
-0.12429 0.10277 -0.24941 -1.0121 -0.2379 -0.096172 -0.0050863 0.023357 
-0.093541 0.33936 -0.047341 -1.1813 -0.25664 -0.083676 -0.0049219 -0.0054151 
-0.045532 0.35975 0.10902 -0.59484 -0.18364 -0.080881 -0.0032777 -0.0064016 
0.010369 0.22657 0.16146 0.020891 -0.071345 -0.045039 0.00033937 0.01563 
0.054432 -0.094692 0.36797 0.17001 -0.0060728 -0.022679 -0.00081153 0.023193 
-0.017746 -0.19449 0.53238 0.54833 0.12036 0.0032988 0.017767 0.026317 
-0.14533 0.10672 0.54685 1.3556 0.2851 0.10902 0.070708 0.069722 
-0.074304 0.34857 0.37882 1.6913 0.34446 0.15127 0.064625 0.052952 
0.12316 0.20471 0.30779 1.1698 0.21391 0.10047 0.043745 0.031414 
0.23874 -0.0965 0.41039 0.45692 0.058542 0.036675 0.014808 0.0090533 
0.26916 -0.19235 0.36978 -0.20847 -0.056877 -0.0042642 0.018425 0.0087245 
0.23907 -0.049807 -0.12873 -0.70647 -0.12429 -0.006566 0.011684 -0.0075525 
0.14404 0.089287 -0.45344 -0.95589 -0.15355 -0.031228 -0.0029489 0.025659 
0.012999 0.095206 -0.33638 -0.95457 -0.12774 -0.032215 0.018918 0.070544 
-0.041093 0.10787 0.0080668 -0.82304 -0.12511 -0.011498 0.023686 0.094548 
-0.0098543 0.11494 0.010204 -0.69036 -0.12198 0.0056006 0.053938 0.039799 
0.16212 0.0079024 -0.27472 -0.47465 -0.10193 0.01004 0.048348 0.004943 
0.30105 -0.14763 -0.42648 -0.21126 -0.049314 -0.026624 0.021713 -0.010183 
0.071531 -0.1866 -0.41892 -0.17131 0.005765 -0.030242 -0.010348 0.031742 
-0.15733 -0.10702 -0.27884 -0.30744 0.029934 -0.021528 -0.023336 0.012177 
-0.16868 0.08863 -0.050464 -0.2665 0.10721 0.0098754 -0.012156 -0.024487 
-0.042737 0.23611 0.17807 0.18481 0.21194 0.050321 0.013657 -0.042737 
0.048184 0.3096 0.42782 0.83408 0.31141 0.11592 0.052787 0.034044 
0.011684 0.42025 0.4191 1.4761 0.32999 0.15735 0.095864 0.097344 
-0.010841 0.5069 0.16558 1.608 0.31766 0.15324 0.1197 0.12957 
0.0072447 0.43291 0.06742 1.0126 0.2029 0.13713 0.10326 0.074326 
0.027632 0.31404 0.29957 0.30253 0.082217 0.080902 0.082217 0.067749 
0.022042 0.27639 0.25946 0.013492 0.0032988 0.024837 0.027303 0.028619 
0.055254 0.27984 -0.15092 -0.052766 0.012342 0.014315 0.014972 0.025659 
0.047033 0.18235 -0.42023 -0.22704 0.0087245 0.013986 0.019905 0.0011614 
0.04506 -0.045696 -0.45065 -0.11196 0.0047785 -0.0075525 0.029934 0.038977 
0.11543 -0.36499 -0.11755 0.23989 -0.023501 -0.011498 0.022042 -0.018897 
0.29069 -0.6167 0.16558 0.77325 0.018754 0.021056 0.020233 -0.054739 
0.41039 -0.74314 0.15456 1.1091 0.1151 0.053281 0.023357 -0.087786 
0.35366 -0.70516 0.053116 0.8086 0.1465 0.060844 0.0034632 -0.040271 
0.15604 -0.41234 0.13828 0.14223 0.099645 0.039141 0.029605 0.013986 
-0.027447 -0.00097594 0.22855 -0.4735 0.023357 0.059035 0.030427 0.066269 
-0.094034 0.28856 0.17001 -0.68839 -0.042737 0.011026 0.014808 0.044402 
-0.11442 0.58565 0.022371 -0.61161 -0.12182 -0.031064 -0.044381 0.010862 
-0.13218 0.91744 -0.060165 -0.48468 -0.11935 -0.069701 -0.047176 0.016123 
-0.077757 0.72935 -0.20205 -0.47728 -0.087293 -0.02087 0.0090533 0.0082312 
-0.03353 0.25091 -0.26963 -0.44325 -0.056383 -0.0016336 0.040456 0.035853 
-0.015938 -0.084005 -0.22392 -0.37699 -0.061151 0.039141 0.035031 0.036017 
0.025166 -0.28377 -0.10817 -0.3589 -0.032708 0.016452 0.03092 0.041607 
-0.00097594 -0.20781 -0.057041 -0.24431 -0.0060728 0.023028 0.038483 0.052787 
-0.052109 0.27672 -0.011827 -0.043888 0.028783 0.022206 0.056076 0.0592 
-0.061645 0.4875 0.089123 0.21326 0.047362 0.0028056 0.032729 0.048513 
0.0074092 0.16804 0.14338 0.38901 0.078929 0.02122 0.012013 0.020891 
0.084684 -0.086636 0.20454 0.65438 0.11642 0.042758 0.0227 0.0024767 
0.1562 -0.1381 0.25567 0.97893 0.21375 0.082546 0.045224 0.014643 
0.19155 -0.20781 0.094877 0.9278 0.21983 0.08419 0.068078 0.011684 
0.10573 -0.3007 -0.17542 0.32637 0.13549 0.05624 0.047197 0.034209 
-0.0095255 -0.22655 -0.35118 -0.29791 -0.025802 -0.0062372 0.014643 0.021713 
-0.090417 0.035853 -0.30004 -0.58695 -0.098638 -0.023829 0.016123 0.083368 
-0.12642 0.28527 -0.11031 -0.54469 -0.094363 0.014972 0.061008 0.089945 
-0.12593 0.30368 0.11609 -0.55949 -0.048327 0.022042 0.055418 0.10589 
-0.10291 0.10754 0.27047 -0.4929 -0.061645 -0.0067304 0.019905 0.056404 
-0.034188 -0.066906 0.13401 -0.13103 -0.043066 0.024179 0.017767 0.040785 
0.035195 -0.23362 -0.10669 0.16031 -0.0036066 0.027139 0.018425 -0.00081153 
0.09833 -0.46857 -0.22047 -0.017417 -0.011334 -0.0034422 -0.017253 -0.0088678 
0.10655 -0.267 -0.27127 -0.47975 -0.076277 -0.05589 -0.0096899 -0.029091 
0.1373 0.08567 -0.14895 -0.82008 -0.13234 -0.065919 -0.025309 -0.037476 
0.17462 0.040292 0.021878 -0.60273 -0.056877 -0.033037 -0.028104 -0.068714 
0.16492 -0.39754 0.20208 -0.15832 0.032729 0.0051074 -0.027118 -0.038956 
0.09126 -0.27719 0.42601 0.16771 0.10228 0.043087 0.033387 0.0032988 
-0.071674 0.2565 0.56428 0.34199 0.094877 0.067749 0.064954 0.048184 
-0.18726 0.3632 0.44935 0.47566 0.10063 0.058706 0.051472 0.069064 
-0.24201 0.17528 0.12743 0.65569 0.098659 0.056733 0.048841 0.08419 
-0.20962 0.28198 -0.040271 0.73938 0.062652 0.019905 0.029112 0.084355 
-0.15421 0.43406 0.11477 0.41433 0.0026412 0.011684 0.053116 0.071202 
-0.050629 0.43308 0.1641 -0.25763 -0.038791 0.00033937 0.051472 0.051308 
-0.028597 0.27984 -0.25532 -0.65436 -0.083183 0.00297 0.041278 0.066598 
-0.024652 0.027961 -0.56097 -0.56146 -0.064604 0.035195 0.05065 0.06331 
0.070215 -0.025145 -0.32701 -0.21734 -0.027118 0.044731 0.047855 0.057555 
0.15587 -0.017253 0.22707 -0.16079 0.0041209 0.033715 0.073832 0.034866 
0.24022 -0.043066 0.65849 -0.35381 0.023028 0.015137 0.034044 0.013657 
0.34462 -0.14007 0.74744 -0.34411 0.031085 0.0011614 0.0021479 -0.017253 
0.31799 -0.17854 0.42601 0.089123 0.053609 -0.018404 -0.025309 -0.047176 
0.13187 -0.17772 -0.0096899 0.44294 0.059035 0.009711 -0.02087 -0.023829 
-0.031392 -0.10193 -0.19318 -0.01232 0.065776 0.033387 0.016123 0.015137 
-0.12034 -0.069208 -0.23181 -0.74495 -0.017088 0.026974 -0.00031829 0.0421 
-0.17295 -0.098309 -0.26354 -1.0291 -0.063289 -0.0022913 -0.00081153 0.019905 
-0.17805 0.024837 -0.36778 -0.63972 -0.042079 0.0088889 0.013986 0.060844 
-0.18265 0.21293 -0.27094 0.30533 0.1026 0.042265 0.014315 0.038977 
-0.13349 0.20865 0.060844 1.3364 0.19764 0.049006 0.046704 0.027139 
-0.022185 0.1516 0.30615 2.1201 0.33624 0.090109 0.033715 -0.013143 
0.090767 -0.0004827 0.60144 2.4288 0.4094 0.14617 0.048513 0.02829 
0.14206 -0.14484 1.0243 2.1392 0.39625 0.1904 0.079094 0.024837 
0.1687 -0.24776 0.69482 1.2622 0.27146 0.2001 0.088136 0.048184 
0.15719 -0.25039 0.036839 0.11987 0.091425 0.12102 0.081231 0.03651 
0.11888 -0.093048 -0.27982 -0.80644 -0.062796 0.037332 0.064296 0.058871 
0.042594 0.29168 -0.24414 -1.1437 -0.16851 -0.015609 0.050486 0.052787 
0.025001 0.50739 -0.072989 -0.96099 -0.19219 -0.048656 0.03092 0.049992 
0.037497 0.44968 -0.048327 -0.68296 -0.16111 -0.043395 0.020891 0.033387 
0.071037 0.27688 -0.056383 -0.50227 -0.11278 -0.034352 0.013492 0.023193 
0.10606 0.12233 -0.0032777 -0.40872 -0.087951 -0.027118 0.004943 -0.0036066 
0.14387 0.084684 0.012506 -0.2887 -0.043724 -0.016431 -0.018733 0.00033937 
0.20257 0.004943 -0.0011404 -0.098473 -0.017417 -0.013307 -0.035174 -0.013636 
0.1756 -0.084498 -0.054246 0.1248 0.0026412 0.0046141 0.0062583 -0.022679 
0.022535 -0.14402 -0.1575 0.29776 -0.0080457 0.01267 0.0090533 -0.014293 
-0.13875 -0.089924 -0.14714 0.26406 -0.0044286 0.0026412 -0.0060728 0.0060938 
-0.19992 -0.079401 -0.10686 0.15028 -0.010841 -0.021692 -0.018897 0.010204 
-0.19794 -0.046519 -0.054575 0.042265 0.026974 -0.010676 0.0082312 0.029605 
-0.11919 0.081395 0.045882 -0.057863 0.065283 0.022864 0.034537 -0.0011404 
-0.020212 0.23151 0.012013 -0.21948 0.10359 0.052623 0.045224 -0.0019624 
0.014315 0.27475 -0.22672 -0.37321 0.12513 0.049992 0.0421 0.032236 
-0.0068948 0.17889 -0.43585 -0.19449 0.17166 0.054103 0.053774 0.083204 
-0.0082102 0.091425 -0.36219 0.42946 0.20553 0.072188 0.076627 0.093069 
0.059364 0.088958 -0.20715 0.86762 0.12727 0.16607 0.10507 0.11231 
0.31585 0.10524 -0.036983 0.87815 0.14239 0.095371 0.061995 0.042265 
0.50575 0.096686 0.25814 0.74809 0.13302 0.071202 0.057062 0.019083 
0.34002 -0.00097594 0.41696 0.49786 -0.011005 0.031249 0.03092 0.077285 
-0.018075 0.16262 0.4408 0.23808 -0.087129 -0.0138 0.050814 0.10211 
-0.18578 0.48405 0.35432 -0.13349 -0.11672 0.0095465 0.050157 0.075312 
-0.15207 0.53929 0.15094 -0.54765 -0.17098 -0.02087 0.012506 0.03947 
-0.025638 0.26274 -0.24973 -0.9013 -0.23 -0.067235 0.0087245 0.017767 
0.076134 -0.070194 -0.47399 -1.1529 -0.26239 -0.087951 -0.016924 -0.010676 
0.10721 -0.31583 -0.15125 -1.0897 -0.21406 -0.10012 -0.03353 -0.015444 
0.08304 -0.63939 0.22674 -0.82831 -0.12166 -0.066084 -0.047176 -0.036983 
0.061337 -0.75547 0.29596 -0.56985 -0.0055795 -0.010019 -0.046354 -0.001798 
0.053116 -0.42631 0.091918 -0.24727 0.094713 0.0079024 -0.023994 0.0026412 
0.038483 0.14535 -0.1746 0.22016 0.24515 0.050486 0.0047785 -0.008539 
0.01152 0.34906 -0.22869 0.87815 0.40874 0.1026 0.062817 0.0052718 
0.023193 0.27721 -0.048327 1.4728 0.48651 0.14848 0.086163 0.044731 
0.067749 0.14157 0.12168 1.5743 0.37685 0.15686 0.086492 0.042594 
0.03651 0.18202 0.020727 0.99537 0.171 0.14289 0.073668 0.068736 
-0.10456 0.36435 -0.17953 0.10195 -0.07003 0.057555 0.072353 0.070873 
-0.20732 0.42568 -0.21373 -0.71354 -0.21504 -0.017417 0.060186 0.10343 
-0.16818 0.25929 -0.15832 -1.105 -0.25204 -0.050793 0.06331 0.076792 
0.0011614 0.049992 -0.095185 -1.0624 -0.21882 -0.041751 0.010533 0.049499 
0.15538 -0.16029 -0.0075525 -0.79378 -0.14402 -0.05737 -0.0064016 0.013821 
0.26225 -0.35447 0.16788 -0.51773 -0.092883 -0.058192 -0.029584 -0.010676 
0.21293 -0.29495 0.54143 -0.28311 -0.057699 -0.074962 -0.014787 -0.0096899 
0.14223 0.015959 0.75352 -0.071509 -0.045039 -0.05589 -0.023994 0.022206 
0.080573 0.29809 0.47073 0.041114 -0.0098543 -0.018568 -0.019719 -0.019884 
0.097179 0.20536 0.01711 0.14075 0.051801 0.016288 -0.00064712 0.011026 
0.1105 0.076956 -0.15585 0.19714 0.10836 0.044731 0.01563 0.00083261 
0.078436 0.10967 -0.098638 0.23874 0.094713 0.064625 0.038155 -0.0080457 
-0.0019624 0.10293 -0.01939 0.22937 0.10441 0.048841 0.04358 0.0021479 
-0.1085 -0.037147 -0.0083746 0.14733 0.10984 0.072517 0.03388 0.042758 
-0.18397 -0.057534 -0.085485 0.087808 0.11444 0.075805 0.060515 0.075641 
-0.16868 0.045882 -0.042244 0.047033 0.073175 0.068242 0.071037 0.12431 
-0.064768 0.17988 0.02829 0.10162 0.044402 0.05213 0.070708 0.096193 
0.057062 0.17133 0.050814 0.17922 0.017603 0.0016547 0.024344 0.021384 
0.16146 0.1026 0.12332 0.32604 0.012013 -0.012978 -0.0070593 -0.043559 
0.1419 0.091918 0.18662 0.47599 0.023357 0.0059294 -0.0026201 -0.040106 
0.12891 -0.00097594 0.30039 0.48931 0.049828 0.023522 -0.004593 -0.028269 
0.069886 -0.37206 0.38721 0.44163 0.11625 0.041114 0.031907 0.011026 
-0.034023 -0.3686 0.36238 0.32555 0.13927 0.016616 0.00050378 0.055254 
-0.074304 -0.039449 0.17939 0.055089 0.064461 0.025495 0.032893 0.059364 
-0.10637 -0.054739 -0.053753 -0.27999 -0.00031829 0.058706 0.06331 0.10918 
-0.10078 -0.34213 -0.0034422 -0.59254 -0.062302 0.047691 0.047691 0.10113 
-0.029584 -0.43717 0.080409 -0.72719 -0.093541 0.010697 0.062323 0.028619 
0.14141 -0.10883 0.0065871 -0.8117 -0.040435 0.051143 0.042594 -0.03353 
0.23446 0.28543 -0.13415 -0.90591 -0.079072 0.0087245 0.017274 -0.03205 
0.19599 0.44048 -0.24497 -0.9475 -0.13596 -0.028762 0.0018191 -0.038462 
0.053938 0.37931 -0.29626 -0.66734 -0.13284 -0.057699 -0.025967 -0.015609 
-0.10291 0.35909 -0.32783 0.0093821 0.015794 -0.032872 -0.0014692 -0.0040998 
-0.25401 0.35202 -0.21455 0.66523 0.16508 0.062652 0.040621 0.074819 
-0.25335 0.39789 0.080573 1.0238 0.23003 0.10063 0.063803 0.080902 
-0.11656 0.33081 0.32243 1.5569 0.20668 0.087972 0.06183 0.061337 
0.029934 0.16574 0.40184 2.1739 0.26373 0.066105 0.025659 0.0064227 
0.055254 0.0075736 0.41384 1.9978 0.28313 0.11 0.044402 0.028947 
0.044731 -0.13086 0.3484 1.0307 0.25452 0.12151 0.054432 0.040292 
0.052294 -0.47991 0.1391 -0.13974 0.12908 0.082875 0.035195 0.066105 
0.090274 -0.60684 -0.15437 -0.96263 -0.013307 0.049499 0.031578 0.071037 
0.12201 -0.437 -0.22458 -1.219 -0.13678 0.013328 0.040621 0.072024 
0.10392 -0.14615 -0.047012 -1.0333 -0.17772 -0.022021 0.045389 0.04095 
0.024508 0.1271 0.0046141 -0.65781 -0.18348 -0.039284 0.028947 0.033222 
0.0024767 0.27475 -0.071016 -0.31057 -0.18742 -0.090253 -0.012156 0.01152 
-0.014787 0.2948 -0.1672 -0.12593 -0.1524 -0.073318 -0.030242 0.01711 
-0.063782 0.34347 -0.15816 -0.11113 -0.12001 -0.046025 -0.030077 0.039141 
-0.057699 0.25535 -0.084827 -0.1404 -0.05178 -0.031064 -0.0095255 0.01826 
0.09981 0.043087 0.073175 -0.24184 0.041443 0.0014903 0.010204 0.0092177 
0.28231 -0.047341 0.17988 -0.14944 0.13927 0.052787 0.054267 -0.033859 
0.30434 0.024179 0.11444 0.29875 0.22476 0.088958 0.065447 -0.024158 
0.16623 0.016452 0.0036276 0.97449 0.27212 0.1396 0.079587 0.022864 
0.048184 -0.29051 -0.079895 1.3821 0.26225 0.12644 0.077943 0.050814 
-0.080223 -0.2813 -0.088608 1.1629 0.2394 0.12414 0.039305 0.073832 
-0.19087 0.14338 0.0095465 0.47089 0.12875 0.074654 0.041936 0.08008 
-0.20649 0.34446 0.091753 -0.23938 -0.033859 0.048348 0.029605 0.087808 
-0.19071 0.24795 0.11707 -0.64531 -0.12905 -0.0096899 0.031414 0.064625 
-0.095349 0.098001 -0.010348 -0.72357 -0.1792 -0.040764 0.037168 0.010369 
0.023028 0.056733 -0.15503 -0.58678 -0.15207 -0.047834 0.017438 0.0013258 
0.077943 0.1151 -0.21932 -0.24102 -0.095678 -0.022514 -0.00015387 -0.014951 
0.092411 0.16294 -0.061809 0.27212 -0.0040998 -0.010512 -0.0039354 -0.00097594 
0.16081 0.19764 0.086163 0.69367 0.10392 0.030427 0.019247 0.0036276 
0.21539 0.1276 0.29974 0.56839 0.18119 0.036346 0.019083 0.061172 
0.17873 -0.039613 0.31897 0.26242 0.19994 0.049006 0.036675 0.029934 
0.092411 -0.15635 0.0592 0.34446 0.3101 0.044896 0.01711 0.061666 
0.017438 -0.22852 -0.12511 0.52581 0.27573 0.10408 0.055582 0.05065 
0.055254 -0.27571 0.040785 0.30582 0.1419 0.081395 0.077121 0.021056 
0.22707 -0.058521 0.37619 -0.12412 -0.069043 -0.019226 -0.0013048 -0.029913 
0.39723 0.26258 0.36698 -0.18167 -0.21669 -0.088608 -0.050958 -0.079895 
0.41022 0.30779 0.041114 -0.11179 -0.18972 -0.085156 -0.047669 -0.070523 
0.17067 0.23003 -0.25105 -0.23691 -0.062796 -0.013471 0.014972 0.024344 
-0.12346 0.13582 -0.40938 -0.34197 -0.014458 0.051143 0.082382 0.074819 
-0.2716 0.18185 -0.51543 -0.34394 0.017767 0.080573 0.07597 0.12447 
-0.24151 0.39164 -0.5243 -0.44851 -0.0024557 0.079258 0.075312 0.10162 
-0.15273 0.48273 -0.22984 -0.59056 -0.04471 -0.00097594 0.046046 0.085177 
-0.067564 0.35564 0.30352 -0.43437 -0.055068 -0.03353 0.0072447 0.034537 
-0.023007 0.18909 0.57924 -0.045532 -0.0060728 -0.010019 -0.0004827 0.010533 
0.0059294 -0.35841 0.58878 0.29316 0.060844 -0.00064712 -0.016595 0.0011614 
0.045718 -0.7655 0.36073 0.36813 0.06183 0.0095465 -0.0032777 0.035853 
0.050814 -0.35266 0.030427 0.24992 0.023028 0.020891 0.027796 0.061995 
0.079587 0.35958 0.012506 -0.035503 -0.056383 0.032236 0.05213 0.068078 
0.078272 0.65405 0.23183 -0.1205 -0.051287 0.021878 0.038977 0.03651 
0.099974 0.53929 0.2708 -0.02646 0.0026412 0.018754 -0.00015387 -0.020706 
0.10047 0.15719 0.09685 0.14996 0.0324 0.0074092 -0.0070593 -0.022021 
0.057884 -0.25023 -0.18594 0.21556 0.044896 0.01563 0.012342 0.0031344 
0.023522 -0.53187 -0.4204 0.062488 0.077614 0.046704 0.027961 0.023193 
0.061008 -0.60372 -0.38258 0.016616 0.10951 0.0689 0.023193 0.01415 
0.12661 -0.41974 -0.19137 -0.046519 0.097837 0.048348 0.015465 0.0023123 
0.11905 -0.053917 -0.015773 -0.16786 0.035853 0.027303 0.021384 0.026646 
0.030756 0.27343 0.14091 -0.32569 0.0052718 0.019576 0.01563 0.045882 
-0.0064016 0.43324 0.26274 -0.37732 -0.041751 -0.014622 0.024837 0.025495 
-0.019555 0.39197 0.31305 -0.30646 -0.025802 0.021056 0.024673 0.020891 
-0.054246 0.26669 0.27935 -0.23839 -0.019555 0.028947 0.024344 0.020398 
-0.069208 0.20438 0.096521 -0.14878 0.014808 0.011684 0.024837 0.039634 
-0.06855 0.12365 -0.15832 0.0054362 0.053938 0.032071 0.03947 0.04506 
-0.048492 0.078765 -0.28311 0.14519 0.073339 0.024179 0.05624 0.026974 
-0.027775 0.0227 -0.25697 0.1105 0.047362 0.031742 0.029769 0.0028056 
0.0085601 0.0069159 -0.16243 0.065447 -0.009361 0.019083 1.0539e-005 0.020233 
0.020069 0.016616 -0.13958 0.051472 -0.026953 -0.0091966 -0.02087 0.028947 
0.036346 -0.066084 -0.040928 0.19353 -0.01232 -0.0032777 0.010697 0.065776 
0.055911 -0.20781 0.072353 0.44261 -0.0077169 -0.0049219 0.038319 0.038319 
0.061995 -0.25434 0.072353 0.48717 -0.0087034 -0.0024557 0.042265 0.064461 
0.086163 -0.1695 0.24976 0.17593 0.0069159 0.031085 0.053774 0.073339 
0.0093821 -0.041586 0.45807 -0.29791 0.0079024 0.024344 0.034044 0.06742 
-0.029748 -0.0022913 0.57316 -0.51839 0.0031344 -0.019884 0.046375 0.046046 
-0.090088 0.13319 0.28889 -0.66702 -0.07414 -0.0047575 0.049828 0.060515 
-0.094692 0.14157 0.035688 -0.74199 -0.09091 -0.0075525 0.028947 0.03092 
-0.12379 0.06742 -0.23362 -0.71897 -0.060329 0.004943 -0.02235 0.012506 
-0.10817 0.042265 -0.40247 -0.52957 -0.028926 -0.029255 -0.011005 -0.032379 
-0.071674 0.11148 -0.20896 -0.32224 0.017603 -0.0040998 -0.0044286 -0.028433 
-0.0062372 0.070215 0.030427 -0.0022913 0.10836 0.022864 0.013328 -0.013636 
0.10096 -0.11689 0.095042 0.74809 0.18925 0.073668 0.019083 0.0042853 
0.24186 -0.23329 0.12776 1.2686 0.244 0.075148 0.00050378 -0.020048 
0.31404 0.049992 0.014972 0.88555 0.15193 0.049992 -0.01232 -0.0138 
0.22789 0.12825 -0.039284 -0.065755 0.044073 0.035195 0.022864 0.02122 
0.069886 -0.014951 0.017767 -0.60503 -0.041093 0.0072447 0.05772 0.053609 
-0.018897 -0.21636 0.19665 -0.43223 -0.068879 -0.020212 0.060515 0.047855 
-0.081374 -0.20501 0.2708 0.41598 0.026317 0.01563 0.066269 0.076792 
-0.11607 0.053116 0.18054 1.2443 0.17528 0.073339 0.046046 0.046046 
-0.09387 0.28905 -0.15372 1.4546 0.24581 0.1151 0.073832 0.054103 
-0.031392 0.52531 -0.55291 0.82027 0.23611 0.11609 0.07301 0.05772 
-0.011663 0.64632 -0.76681 -0.35611 0.10474 0.083862 0.06035 0.06183 
-0.024652 0.49407 -0.60783 -1.1512 -0.043559 0.057391 0.049006 0.088301 
-0.062302 0.12924 -0.076606 -1.1463 -0.069372 0.020233 0.034866 0.092576 
-0.040928 -0.12527 0.33624 -0.57692 -0.026789 -0.0087034 0.038812 0.080244 
0.0083956 -0.17164 0.32292 0.1345 0.012342 -0.036983 0.028947 0.029276 
0.097508 -0.066248 0.27836 0.83343 0.037004 -0.029091 -0.0024557 -0.0019624 
0.28297 -0.18841 0.31799 1.2866 0.11822 0.016123 -0.013143 -0.040764 
0.46316 -0.3178 0.26176 1.1172 0.14765 0.047855 -0.027282 -0.065919 
0.4265 -0.28821 0.22427 0.54981 0.11658 0.031249 0.012013 -0.042573 
0.21885 -0.056548 0.293 -0.043888 0.0095465 0.026974 0.044731 0.024508 
-0.021199 0.11444 0.48109 -0.17279 -0.0047575 0.039141 0.054432 0.069064 
-0.15454 -0.014787 0.81518 0.024673 0.040785 0.061666 0.087643 0.14239 
-0.098802 -0.12626 0.8502 0.060515 0.052787 0.078765 0.05476 0.11247 
-0.038956 -0.0088678 0.71307 -0.17032 0.00083261 0.047197 0.054267 0.060022 
-0.028926 0.16656 0.41861 -0.44621 -0.062631 -0.008539 0.0047785 -0.00097594 
-0.043559 0.11872 0.19665 -0.52907 -0.090088 -0.027447 -0.029255 -0.036818 
0.020727 0.0032988 -0.28327 -0.24842 -0.031228 -0.026953 -0.024323 -0.049478 
0.1197 0.07301 -0.85823 0.25469 0.055911 0.01004 0.017767 -0.014787 
0.12299 0.27392 -0.96641 0.49161 0.14223 0.062652 0.052459 0.02533 
0.053938 0.29316 -0.62591 0.4413 0.19254 0.089123 0.055089 0.046046 
0.034044 0.19237 -0.2642 0.29974 0.18662 0.10244 0.058049 0.032893 
0.062981 0.029112 -0.1284 0.13664 0.17988 0.097015 0.046211 0.037332 
0.081067 -0.031557 -0.0090322 0.08156 0.051143 0.076134 0.024673 0.023357 
0.069722 -0.035174 0.12135 0.10704 -0.018897 0.014643 0.034866 0.039963 
0.06331 -0.029748 0.18004 0.075641 -0.069536 -0.045532 -0.013143 0.0011614 
0.090767 0.022864 0.3826 0.19813 -0.075127 -0.030735 -0.0095255 0.0095465 
0.055418 0.074654 0.463 0.34002 -0.088115 0.0036276 0.0016547 0.012177 
-0.0075525 0.096686 0.41302 0.305 -0.014458 0.01004 0.022864 0.064625 
-0.031392 0.18596 0.48043 -0.12314 0.0011614 -0.00097594 0.047526 0.060186 
-0.018897 0.12809 0.38984 -0.34838 0.031907 0.0227 0.052623 0.045718 
0.018754 -0.025474 0.026152 -0.1501 0.059693 0.041278 0.048513 0.02122 
0.023357 -0.038791 -0.32536 0.056404 0.056733 0.064461 0.06594 0.050486 
0.0036276 0.1202 -0.40905 -0.058028 0.0060938 0.05213 0.047362 0.045389 
-0.023994 0.37652 -0.32783 -0.27884 -0.069372 0.021549 0.048841 0.042429 
-0.016266 0.39132 -0.19581 -0.41217 -0.16457 -0.054246 -0.004593 0.0018191 
0.053445 0.32045 -0.0072237 -0.49471 -0.18167 -0.090746 -0.060823 -0.036983 
0.18366 0.12727 0.30155 -0.35447 -0.1279 -0.068057 -0.065426 -0.084169 
0.18991 -0.10817 0.46021 -0.20682 -0.038627 0.0042853 -0.020706 -0.053424 
0.082875 -0.50704 0.35942 -0.28837 0.038977 0.017438 0.0023123 -0.0090322 
-0.0064016 -0.91972 0.19944 -0.60668 0.032236 0.021056 -0.0021268 0.00033937 
-0.0771 -0.67869 -0.096007 -0.95688 0.025659 0.034373 -0.0034422 0.031414 
-0.1478 0.064954 -0.66126 -0.97578 0.028125 0.014972 0.0324 0.06479 
-0.12215 0.57973 -0.91512 -0.51839 0.024673 0.039799 0.023193 0.065447 
-0.045039 0.78936 -0.49076 0.076463 0.038648 0.01563 0.011026 0.0074092 
-0.020377 0.73494 0.24548 0.4071 0.015794 -0.0019624 0.01267 0.025659 
-0.059178 0.46218 0.63498 0.44327 0.01267 0.026646 0.033715 0.016945 
-0.069865 0.067256 0.63103 0.46168 0.020562 0.020398 0.041607 0.036346 
-0.072496 -0.30859 0.48092 0.94441 0.020069 0.037826 0.058871 0.036017 
-0.034845 -0.5317 0.20273 1.2351 0.085341 0.053774 0.054925 0.048348 
-0.018075 -0.24727 -0.081539 0.65849 0.091918 0.047362 0.049664 0.05772 
0.038155 0.30631 -0.21389 -0.17114 0.049664 0.0082312 0.026481 0.053609 
0.16541 0.45396 -0.49553 -0.41809 0.020233 -0.0138 0.0036276 0.0060938 
0.22476 0.1202 -0.79296 0.05065 0.0062583 -0.00064712 0.0080668 0.040621 
0.18909 -0.15059 -0.78243 0.33015 0.033551 -0.0042642 0.0093821 0.025001 
0.097179 0.056076 -0.47761 0.039634 -0.0064016 -0.019061 -0.0098543 0.062159 
-0.034023 0.24548 -0.093048 -0.44571 -0.035174 -0.025309 -0.0031133 0.057884 
-0.13086 0.29332 0.090767 -0.60125 -0.03912 0.0082312 0.019905 0.098659 
-0.10143 0.34117 0.25485 -0.30892 0.029934 0.054432 0.048677 0.048841 
0.12644 0.32276 0.42009 -0.095021 0.068736 0.076299 0.0080668 -0.023172 
0.33015 -0.023007 0.47961 -0.015444 0.10836 0.062981 0.004943 -0.067728 
0.24449 -0.62312 0.37257 0.13943 0.13713 0.06742 0.017767 -0.011498 
0.0031344 -0.6777 0.031578 0.35975 0.15801 0.1197 0.071859 0.036346 
-0.21833 -0.24349 -0.19548 0.46168 0.14535 0.13105 0.171 0.16738 
-0.28623 -0.028762 -0.20995 0.36534 0.10425 0.087314 0.10129 0.12283 
-0.18183 0.071695 -0.13662 0.13598 -0.028926 -0.011498 0.06479 0.088136 
-0.010841 0.20602 -0.02942 -0.017253 -0.069865 -0.038627 0.00297 0.013328 
0.057884 0.38277 -0.00031829 -0.0052507 -0.078086 -0.04471 -0.021363 -0.00064712 
0.025001 0.28149 0.063474 0.014479 -0.042901 -0.013143 0.0098754 0.031742 
-0.0082102 0.13828 0.086328 0.067913 -0.0138 -0.0072237 -0.0068948 0.031085 
0.004943 0.013164 0.071695 0.16623 0.0044497 -0.0072237 -0.0027845 0.032893 
0.078929 -0.16046 -0.091897 0.25419 0.031907 0.0028056 -0.0022913 0.016452 
0.19221 -0.26174 -0.14122 0.19632 0.033058 0.012342 0.029934 0.0026412 
0.20717 -0.069208 -0.048163 0.080902 0.064625 0.01711 0.045553 0.017932 
0.13006 0.031085 0.18596 -0.18775 0.043745 0.060844 0.051472 0.037332 
0.058706 -0.25483 0.39691 -0.50786 -0.0072237 0.01415 0.019083 0.01415 
0.071037 -0.31303 0.49259 -0.66702 -0.066084 -0.047176 -0.019061 -0.01232 
0.12644 -0.071838 0.41236 -0.52299 -0.034845 -0.082032 -0.034845 -0.042737 
0.19501 0.29102 0.096357 -0.16128 0.025988 -0.020048 -0.01676 -0.049807 
0.22789 0.59124 -0.19926 0.12644 0.1105 0.08567 0.042265 -0.008539 
0.18251 0.65356 -0.26256 0.42305 0.18876 0.12085 0.086985 0.033222 
0.051965 0.29628 0.10277 0.71686 0.17495 0.11231 0.093233 0.031249 
-0.084498 -0.0077169 0.57677 0.98321 0.082875 0.076463 0.10129 0.10787 
-0.17591 -0.096994 0.61163 0.93964 0.019083 0.068407 0.073504 0.10885 
-0.22014 -0.058028 0.20224 0.32539 -0.04471 0.048513 0.051636 0.12595 
-0.20518 0.010862 -0.23987 -0.49471 -0.076277 0.010204 0.053281 0.099481 
-0.12725 0.057062 -0.3788 -1.1035 -0.082032 -0.031228 0.026152 0.080738 
0.020398 -0.036654 -0.28295 -0.95014 -0.014293 -0.028762 0.043909 0.0421 
0.11033 -0.12248 -0.27801 -0.17328 0.093069 0.021549 0.048348 0.052787 
0.14108 0.0065871 -0.30004 0.33558 0.15949 0.069064 0.031907 0.027303 
0.14897 0.12694 -0.02794 0.19155 0.13203 0.067256 -0.0059084 0.013821 
0.12381 0.03947 0.37307 -0.12346 0.059364 0.029112 -0.0055795 -0.018404 
0.11921 -0.070359 0.64599 0.032729 0.015301 0.011355 0.024015 -0.023501 
0.044073 -0.039942 0.6312 0.35991 0.020891 0.021056 0.024344 -0.030077 
-0.023994 -0.021528 0.65767 0.43505 -0.020377 0.041607 0.016781 -0.0075525 
-0.059672 0.0062583 0.60177 0.033058 -0.13349 -0.0087034 0.010862 -0.0050863 
-0.089924 0.20717 0.19714 -0.70023 -0.20649 -0.040106 0.0039565 0.010369 
-0.054904 0.43521 -0.14862 -1.3061 -0.24513 -0.065591 -0.0068948 -0.0060728 
-0.032379 0.40661 -0.1205 -1.652 -0.27029 -0.10998 -0.027611 0.0021479 
0.043745 0.14552 -0.0052507 -1.6867 -0.26075 -0.10932 -0.035503 0.0037921 
0.057555 -0.098638 0.070215 -1.3368 -0.086471 -0.069865 -0.018568 0.017767 
0.086492 -0.24825 0.12595 -0.19942 0.14897 -0.010512 -0.019226 0.0016547 
0.086163 -0.3298 0.24564 1.3076 0.35235 0.066105 0.0087245 -0.00081153 
0.084684 -0.24069 0.24071 2.2972 0.48388 0.15456 0.050486 -0.012649 
0.18843 0.08156 0.15357 2.34 0.48487 0.2463 0.093726 0.045224 
0.14141 0.46349 -0.23938 2.0016 0.44327 0.27392 0.13138 0.076299 
0.1197 0.67625 -0.96592 2.1961 0.38474 0.21852 0.15555 0.096521 
0.050157 0.49605 -1.3755 2.0951 0.29497 0.17462 0.1442 0.10852 
-0.028926 0.22263 -0.94159 0.94325 0.13269 0.093562 0.09685 0.093233 
0.058213 -0.13974 -0.13711 -0.57248 -0.059507 0.047362 0.036675 0.044073 
0.08008 -0.43733 0.48043 -1.3576 -0.23165 -0.053917 -0.01528 -0.019061 
0.075148 -0.5197 0.84214 -1.193 -0.28607 -0.12478 -0.047176 -0.040271 
0.031907 -0.38817 0.87634 -0.46709 -0.21488 -0.121 -0.029091 -0.02794 
-0.047998 -0.13415 0.63909 0.15061 -0.010512 -0.032872 0.00050378 0.025495 
-0.18989 0.26488 0.25765 0.23118 0.11921 0.056076 0.046375 0.087479 
-0.27357 0.50772 -0.047341 -0.072989 0.14848 0.10524 0.065447 0.10787 
-0.27982 0.57382 -0.06707 -0.52809 0.037168 0.052952 0.053281 0.08156 
-0.23313 0.48503 -0.13547 -0.77109 -0.070194 0.01711 0.047691 0.055254 
-0.121 0.22608 -0.47465 -0.82617 -0.10456 -0.016595 0.004943 -0.0029489 
0.17495 -0.24529 -0.58612 -0.81121 -0.15585 -0.07003 -0.058685 -0.060987 
0.51183 -0.68592 -0.38916 -0.6754 -0.20879 -0.10045 -0.093541 -0.12445 
0.50624 -0.8995 -0.095021 -0.15355 -0.13859 -0.096665 -0.053588 -0.059507 
0.30862 -0.77586 0.037826 0.67148 0.074819 -0.031721 0.0098754 0.01826 
-0.0013048 -0.31912 0.012342 1.3661 0.29776 0.11592 0.080738 0.11148 
-0.16818 -0.060494 0.2029 1.7165 0.36287 0.16081 0.12595 0.097344 
-0.17509 0.050321 0.30056 1.7033 0.29201 0.16574 0.094384 0.10474 
-0.1136 0.25387 0.096357 1.2884 0.20734 0.10507 0.071202 0.056569 
0.00083261 0.54619 -0.20452 0.51775 0.10704 0.053116 0.030592 0.012013 
0.053445 0.63613 -0.36038 -0.22244 0.064625 0.036839 0.03651 0.0067515 
0.087643 0.3512 -0.4587 -0.68247 0.010533 0.0092177 0.049006 0.039141 
0.20536 0.26176 -0.57166 -0.80068 -0.040106 0.0072447 0.023522 -0.0024557 
0.27968 0.10852 -0.43207 -0.59204 -0.087951 -0.047834 -0.010019 -0.016924 
0.2218 -0.48271 0.0062583 -0.25943 -0.050958 -0.069043 -0.026296 -0.015938 
0.12579 -0.85708 0.50871 0.034373 -0.042244 -0.075127 -0.031886 -0.0049219 
0.050321 -0.376 0.59798 0.093726 -0.023007 -0.012649 -0.019061 -0.0090322 
-0.0026201 0.50476 0.32867 -0.033694 -0.01676 0.012013 -0.0067304 0.030592 
-0.096336 0.81271 0.071037 -0.22639 -0.045532 -0.0052507 0.028619 0.011191 
-0.10554 0.48766 -0.10521 -0.38209 -0.10094 -0.033859 0.010862 0.028783 
-0.031064 0.048184 0.093398 -0.40839 -0.11787 -0.050136 -0.0077169 0.0011614 
0.06183 -0.33145 0.33081 -0.34427 -0.07562 -0.027447 0.0052718 0.028619 
0.069393 -0.58267 0.40907 -0.31238 -0.037311 0.029605 0.023028 0.042594 
0.028125 -0.54025 0.54636 -0.41727 -0.035338 0.019083 0.051801 0.057227 
-0.065097 -0.034681 0.35679 -0.44867 -0.040764 0.0041209 0.051472 0.064461 
-0.093376 0.46382 -0.0021268 -0.43306 -0.016102 0.03947 0.038812 0.02533 
-0.07562 0.58121 -0.18578 -0.35759 0.0074092 0.036675 0.039799 0.031907 
-0.030077 0.49342 -0.24793 -0.33523 -0.038627 0.01974 0.034044 0.02681 
-0.015444 0.34314 -0.2744 -0.27999 -0.060658 -0.013965 0.034044 0.034044 
-0.041422 0.10967 -0.13974 -0.27801 -0.071838 -0.041093 -0.00031829 0.056404 
-0.0078813 -0.1838 0.11559 -0.37222 -0.090253 -0.041257 -0.013636 0.052623 
0.065612 -0.31435 0.2948 -0.45854 -0.050136 -0.047505 -0.021363 0.039305 
0.061172 -0.19466 0.19928 -0.39244 -0.020048 -0.012649 0.011191 0.032893 
0.032729 0.17248 0.0065871 -0.089266 0.0062583 -0.0068948 0.0079024 0.0037921 
0.058377 0.50591 0.048348 0.18383 0.045553 -0.0067304 -0.0068948 -0.034188 
0.086985 0.50295 0.19007 0.24071 0.11526 0.01974 0.014808 -0.022021 
0.076134 0.17347 0.13056 0.3757 0.16048 0.054925 0.030263 0.043745 
0.083697 -0.20518 0.087808 0.56 0.18991 0.099645 0.077778 0.054432 
0.078272 -0.35414 0.16459 0.63218 0.19764 0.14354 0.09833 0.10129 
0.032236 -0.20847 0.16771 0.44343 0.16706 0.13023 0.099316 0.12053 
-0.021528 0.159 0.13549 0.1687 0.079916 0.10573 0.062981 0.094548 
0.037004 0.33377 0.19336 -0.15109 -0.031228 0.010862 0.020069 0.010697 
0.087643 0.28313 0.25896 -0.48534 -0.12922 -0.053424 0.00066819 -0.021363 
0.047362 0.2708 0.2126 -0.67852 -0.16375 -0.046025 -0.0021268 -0.0091966 
-0.0087034 0.38326 0.1419 -0.70697 -0.19285 -0.049971 -0.017746 0.022042 
-0.045532 0.41943 0.25946 -0.632 -0.20633 -0.059836 -0.02087 0.036675 
-0.070359 0.32423 0.34199 -0.72719 -0.15848 -0.050464 -0.014293 0.031742 
-0.081539 0.16311 0.18152 -1.1149 -0.16111 -0.038956 0.042429 0.051965 
-0.094527 0.020562 -0.20699 -1.4524 -0.11196 -0.0070593 0.037661 0.015301 
-0.059507 -0.14319 -0.60026 -1.225 -0.021034 -0.0016336 0.043087 -0.011005 
0.046211 -0.2762 -0.69694 -0.49619 0.13713 0.020727 0.01152 0.0014903 
0.16212 -0.31862 -0.48221 0.25025 0.26702 0.048677 0.022535 0.012342 
0.16804 -0.32915 -0.03057 1.2098 0.366 0.12003 0.067256 0.039963 
0.13483 -0.23247 0.15193 2.5435 0.39493 0.1539 0.063145 0.047197 
0.082217 0.093891 0.10589 3.4943 0.44064 0.17018 0.072024 0.064625 
-0.048327 0.6044 0.016288 3.2653 0.45725 0.20734 0.11181 0.10704 
-0.06296 0.66868 -0.042737 1.9447 0.37882 0.22476 0.13516 0.14634 
-0.0075525 0.3101 0.15209 0.33163 0.20372 0.16377 0.12957 0.11115 
0.012835 -0.018568 0.32703 -0.73081 -0.01232 0.079587 0.062652 0.074983 
0.0046141 -0.14911 0.24614 -1.0549 -0.12264 -0.00031829 0.016945 0.012835 
0.093726 -0.1552 0.088301 -0.86185 -0.13547 -0.05441 -0.0067304 -0.028762 
0.17396 -0.061645 -0.095678 -0.43421 -0.11146 -0.055068 -0.009361 -0.042079 
0.23414 0.013492 -0.18808 -0.15865 -0.052931 -0.028104 0.021549 -0.041422 
0.18021 0.049828 -0.21521 -0.074633 -0.012156 -0.012814 0.011684 -0.014951 
0.027468 -0.094199 -0.23938 -0.15996 0.031907 0.0046141 0.0095465 0.028454 
-0.12297 -0.072825 -0.20797 -0.020377 0.068571 0.034373 0.028947 0.053774 
-0.12083 -0.0011404 -0.054575 0.19221 0.1128 0.051472 0.053774 0.064461 
-0.032379 0.035195 0.15226 0.24367 0.088794 0.040621 0.051801 0.11724 
-0.0087034 0.0032988 0.22033 0.28938 0.069722 0.05213 0.043416 0.030098 
0.031414 0.073339 0.030263 0.33903 0.05065 0.020562 0.03799 0.038977 
0.088794 0.16837 -0.2476 0.28346 0.01711 0.025824 0.014972 0.016123 
0.1026 0.27212 -0.40116 0.18695 0.021384 0.041443 0.038319 0.036182 
0.1539 0.24712 -0.26716 0.33394 0.07597 0.044238 0.045553 0.0085601 
0.16903 0.28872 -0.091239 0.48158 0.058871 0.044402 0.014315 0.020069 
0.15374 0.32719 0.08304 0.35761 -0.021034 0.016452 -0.0070593 -0.017253 
0.11033 0.064954 0.36945 0.096028 -0.067564 -0.023501 -0.034845 -0.011663 
0.093726 -0.43075 0.4676 -0.14089 -0.091239 -0.021856 -0.012814 -0.010019 
0.025659 -0.59122 0.32128 -0.22228 -0.063453 -0.043395 0.0026412 0.016616 
-0.026131 -0.49619 0.047691 -0.049314 -0.064111 -0.035667 0.0031344 0.030756 
-0.016431 -0.52299 -0.16128 0.31585 0.01152 -0.011005 0.0013258 0.025001 
0.0067515 -0.53548 -0.16555 0.52827 0.094384 0.019083 -0.022185 0.027303 
0.0028056 -0.34789 -0.072003 0.32128 0.12398 0.017932 0.018589 0.038155 
0.026974 -0.035832 -0.044874 0.087643 0.074654 -0.0042642 0.013492 0.025166 
0.021056 0.18054 -0.11722 0.13072 0.050157 0.03092 0.016123 0.033551 
-0.017088 0.30352 -0.062302 0.30253 0.081067 0.088794 0.042923 0.046211 
-0.109 0.51413 0.18498 0.16278 0.093891 0.10195 0.075148 0.10162 
-0.10127 0.73922 0.30977 -0.12807 0.033715 0.091753 0.08567 0.09981 
-0.0014692 0.5457 0.29086 -0.51411 -0.072496 0.042429 0.055582 0.051308 
0.20536 0.062981 0.25765 -0.76501 -0.11656 -0.021692 0.0067515 -0.0060728 
0.3586 -0.44456 0.29727 -0.66192 -0.1039 -0.043066 -0.01676 -0.032379 
0.24663 -0.34296 0.24121 -0.24135 -0.022843 -0.020377 -0.0024557 -0.03764 
-0.011334 0.043416 -0.008539 0.0072447 0.016945 0.0067515 0.030756 0.032893 
-0.18512 0.053281 -0.14171 -0.21833 -0.022021 0.0079024 0.057391 0.044567 
-0.12807 -0.051944 -0.092226 -0.41546 -0.059178 -0.0040998 0.019247 0.031907 
0.00066819 -0.025638 0.018754 -0.28656 -0.10834 -0.040435 -0.029748 -0.031228 
0.071695 -0.069536 0.028947 -0.11886 -0.13251 -0.063289 -0.058521 -0.040764 
0.076463 -0.28295 0.096686 -0.18282 -0.094856 -0.058192 -0.037969 -0.040764 
0.021384 -0.32536 0.21769 -0.38455 -0.075455 -0.055726 -0.031721 0.0095465 
-0.065262 -0.10768 0.32555 -0.40017 -0.050958 -0.063124 -0.025802 0.054267 
-0.17493 0.19616 0.3119 -0.28344 -0.038298 -0.031064 -0.01676 0.068736 
-0.092061 0.3387 -0.011334 -0.3737 -0.029584 -0.0067304 -0.001798 0.033222 
0.13434 0.35646 -0.26683 -0.69036 0.0026412 0.012013 0.040456 -0.012156 
0.22394 0.21852 -0.52233 -0.78622 0.05624 0.027632 0.043251 -0.0042642 
0.14913 0.027139 -0.62476 -0.75859 0.064132 0.021878 0.03799 -0.00031829 
0.035195 -0.045532 -0.26946 -0.59451 -0.00015387 0.012342 0.018918 0.050486 
-0.0039354 0.031414 0.29744 0.026974 0.032071 0.0065871 -0.0049219 -0.013965 
0.083862 -0.14747 0.6769 1.0786 0.10573 0.011191 0.030263 0.020891 
0.088136 -0.19252 0.81386 1.8156 0.21062 0.087314 0.021878 0.01826 
-0.0088678 -0.20107 0.706 1.7111 0.21342 0.13615 0.066927 0.081724 
-0.091075 -0.061645 0.41088 0.83244 0.12085 0.12431 0.074326 0.087479 
-0.12905 0.044073 0.17215 -0.28969 -0.012814 0.049335 0.033387 0.076627 
-0.089266 0.092247 -0.045039 -0.80118 -0.05737 -0.016102 0.035688 0.020891 
-0.0064016 0.34824 -0.28114 -0.58859 -0.043559 -0.034516 0.022042 0.02533 
0.12513 0.43193 -0.2208 -0.14204 0.051965 -0.025802 0.00050378 -0.019226 
0.19122 0.3489 -0.0039354 0.077943 0.1659 0.068078 0.0046141 0.0072447 
0.11937 0.25683 0.048677 0.10836 0.22476 0.1031 0.053445 0.029441 
-0.045039 0.31996 0.00083261 0.26653 0.21424 0.14141 0.10376 0.071366 
-0.21044 0.28642 -0.14369 0.41121 0.18563 0.13631 0.13121 0.11313 
-0.29429 0.22838 -0.22261 0.30631 0.10836 0.10129 0.11477 0.1299 
-0.20797 0.17248 -0.20485 0.01267 0.032893 0.048348 0.055418 0.088794 
-0.013636 0.10474 -0.15454 -0.27193 -0.02794 0.005765 0.04506 0.043909 
0.15308 -0.096172 -0.081868 -0.36614 -0.088115 -0.022185 -0.0019624 -0.0087034 
0.24417 -0.10258 0.007738 -0.25253 -0.090088 -0.044217 -0.027282 -0.021034 
0.22131 0.067091 0.12661 -0.087951 -0.087786 -0.027611 -0.01939 -0.011005 
0.11165 0.15999 0.019576 0.12299 -0.023501 -0.03205 0.014479 0.017438 
0.038483 0.13171 -0.16111 0.30434 0.0039565 -0.0016336 0.038319 -0.0022913 
-0.016595 0.12546 -0.3007 0.40578 0.075641 0.028783 0.042923 0.031414 
-0.067399 0.089616 -0.39442 0.44672 0.11954 0.058377 0.048513 0.038483 
0.0085601 0.12529 -0.40806 0.37389 0.14716 0.054596 0.021549 0.01267 
0.10704 0.10211 -0.35808 0.21983 0.13187 0.077943 0.058542 -0.01939 
0.099974 0.092411 -0.28163 0.0227 0.12168 0.084355 0.096193 -0.0054151 
0.027303 0.078765 0.070708 -0.086636 0.08008 0.059693 0.070215 0.028454 
-0.023007 0.063968 0.72705 -0.036983 0.022864 0.02681 0.03388 0.048348 
0.0075736 -0.10998 1.1537 0.0060938 -0.02942 -0.017088 0.0028056 0.041443 
0.057884 -0.25664 1.0113 0.094713 -0.069208 -0.018897 -0.0090322 0.024179 
0.09685 -0.23181 0.52663 0.054432 -0.08269 -0.010512 0.00066819 0.022042 
0.064625 0.012177 -0.024158 -0.20699 -0.12757 -0.038462 -0.021856 0.013986 
-0.0031133 0.21046 -0.27177 -0.53992 -0.17936 -0.073976 -0.021034 0.01563 
-0.070687 0.26274 -0.1575 -0.83242 -0.1986 -0.064275 -0.014951 0.06183 
-0.11491 0.29152 -0.14615 -0.7969 -0.13103 -0.041751 0.017767 0.10672 
-0.064111 0.30319 -0.10965 -0.40297 0.016781 0.033551 0.044402 0.091589 
0.081231 0.35334 -0.29248 -0.16259 0.14009 0.068242 0.06183 0.048841 
0.17215 0.23348 -0.49833 -0.16013 0.20586 0.092082 0.050814 -0.042408 
0.15982 0.01415 -0.48961 0.34183 0.27277 0.10047 0.054267 -0.0087034 
0.055254 -0.099131 -0.48123 1.1874 0.29793 0.12365 0.10162 0.020891 
-0.051287 -0.17279 -0.42072 1.6736 0.25403 0.13483 0.11494 0.075312 
0.022371 -0.27588 -0.12905 1.4038 0.1271 0.078929 0.036346 0.0421 
0.16919 -0.094527 0.24038 0.77161 -0.014458 0.0072447 -0.017253 -0.010019 
0.18498 0.010533 0.3997 0.17511 -0.11261 -0.015444 -0.00081153 -0.031064 
0.017274 0.16804 0.20569 -0.41053 -0.13908 -0.0047575 0.058871 0.074983 
-0.098802 0.29628 0.010533 -0.86119 -0.16013 0.024344 0.074983 0.095371 
-0.095843 0.24219 -0.02794 -1.2388 -0.22392 0.0042853 0.044402 0.10984 
0.00017495 -0.10291 0.19632 -1.6736 -0.29281 -0.085156 -0.025967 0.021878 
0.12069 -0.66175 0.51759 -1.9935 -0.33835 -0.15043 -0.11639 -0.083512 
0.19501 -0.98466 0.52942 -1.8602 -0.2762 -0.16934 -0.12938 -0.12116 
0.14963 -0.64416 0.31634 -1.2045 -0.12346 -0.10291 -0.089431 -0.076277 
0.062323 -0.065755 0.075312 -0.1746 0.11461 -0.011663 -0.017746 -0.018568 
0.056569 0.38244 0.099645 1.3829 0.37701 0.080244 0.058542 0.016616 
0.072188 0.49112 0.16804 2.6035 0.56938 0.19484 0.088301 0.037661 
0.036017 0.24269 0.055747 2.7487 0.57168 0.25502 0.1322 0.088301 
0.01711 -0.17986 0.032236 2.0878 0.42124 0.2103 0.1271 0.095699 
0.025824 -0.49652 0.062981 1.2113 0.23874 0.1419 0.087479 0.12233 
0.024015 -0.21406 0.16442 0.4293 0.020069 0.065283 0.065283 0.093726 
-0.0021268 0.26143 0.12349 -0.28097 -0.16095 0.00017495 0.03536 0.084519 
-0.0040998 0.49917 -0.081374 -0.87253 -0.27818 -0.042573 0.01563 0.024015 
0.041114 0.44787 -0.22885 -1.3109 -0.31698 -0.074633 -0.027611 0.016123 
0.16541 0.37339 -0.32043 -1.559 -0.28196 -0.081539 -0.022021 -0.015773 
0.17117 0.28626 -0.17049 -1.5895 -0.27045 -0.081539 -0.028269 -0.0091966 
0.061337 0.11691 0.033058 -1.4179 -0.21965 -0.093376 -0.019884 -0.0087034 
-0.016102 -0.12034 0.10228 -0.89456 -0.12774 -0.10373 -0.004593 -0.020706 
-0.0078813 -0.19992 0.0786 0.18547 0.091918 -0.067728 -0.01939 -0.032215 
0.053445 -0.20666 0.072024 1.303 0.27195 0.047197 -0.0032777 -0.059507 
0.089452 -0.19416 0.088136 1.6325 0.30582 0.10359 0.012342 -0.040764 
0.057062 -0.12675 0.053281 1.2287 0.26899 0.13253 0.018425 0.014808 
0.027632 0.033551 0.073504 0.62232 0.22148 0.14782 0.098988 0.082382 
-0.0072237 0.12217 0.18267 0.19912 0.19221 0.13171 0.09981 0.092904 
-0.020541 0.056404 0.27935 0.072517 0.21046 0.13795 0.084355 0.099481 
-0.023994 -0.07266 0.29563 0.3535 0.28724 0.09685 0.06331 0.10096 
-0.077264 -0.18874 0.22707 1.1619 0.4408 0.1322 0.084684 0.074654 
-0.16424 -0.082196 0.13615 1.8655 0.5046 0.16541 0.13368 0.090274 
-0.20485 0.075312 0.14141 2.1936 0.41154 0.17856 0.13894 0.13549 
-0.19778 0.11231 0.090767 1.9301 0.18711 0.13943 0.11346 0.12283 
-0.11311 0.1105 -0.10686 0.89508 -0.06296 0.024837 0.044731 0.085835 
-0.0090322 0.14223 -0.29297 -0.56722 -0.26338 -0.059014 -0.017911 -0.015116 
0.083368 0.26916 -0.29495 -1.668 -0.33934 -0.11097 -0.032379 -0.057534 
0.15719 0.33821 -0.15158 -2.0313 -0.34427 -0.11574 -0.061151 -0.085978 
0.2879 0.10326 0.024344 -1.8373 -0.30547 -0.063618 -0.060165 -0.043395 
0.31486 0.0023123 0.08304 -1.1315 -0.16802 -0.036489 -0.036654 -0.030735 
0.24186 0.14009 -0.054575 -0.279 -0.072167 0.0036276 0.023522 0.027961 
0.13039 0.18333 -0.086142 0.18465 0.011684 0.012177 0.041278 0.022864 
0.054925 0.037661 0.0044497 0.20849 0.044896 0.0059294 0.019411 0.044073 
-0.03353 0.097672 -0.0073881 0.072353 0.069558 0.0090533 0.041114 0.08715 
-0.11163 0.24745 -0.028433 -0.017582 0.046046 0.020069 0.034044 0.095864 
-0.068879 0.20503 -0.068221 0.023851 0.026974 0.022535 0.073339 0.047855 
0.046046 0.078107 -0.07003 0.049499 0.036675 0.014315 0.05065 0.019576 
0.075148 0.054925 -0.011334 0.083697 0.052459 0.017274 0.045882 -0.0027845 
0.038483 0.034866 0.14354 0.20569 0.088136 0.043416 0.025166 0.036346 
-0.0026201 -0.020377 0.27195 0.39608 0.1031 0.08156 0.034866 0.032729 
-0.017253 -0.060494 0.31881 0.59749 0.091918 0.056569 0.053281 0.04654 
0.015301 -0.048327 0.29185 0.52696 0.053445 0.03799 0.028947 0.025824 
0.019411 0.02829 0.25814 0.17166 0.0011614 0.036839 0.012835 0.020727 
-0.051944 0.14585 0.20503 -0.15832 -0.04323 0.023686 0.025988 0.062323 
-0.11804 0.21326 -0.004593 -0.35052 -0.058356 0.022535 0.0016547 0.073504 
-0.052437 0.18859 -0.36647 -0.46084 -0.079895 -0.027447 0.027468 0.036675 
0.0032988 0.12858 -0.57314 -0.66438 -0.12873 -0.081374 -0.0070593 -0.018733 
0.036017 -0.060987 -0.61095 -0.95194 -0.13201 -0.068221 -0.010841 0.0072447 
0.030756 -0.14204 -0.61457 -1.0578 -0.12741 -0.060165 -0.014787 0.020069 
0.022206 0.0041209 -0.32997 -0.93172 -0.15717 -0.04882 -0.027775 0.016288 
0.0067515 0.36156 0.14519 -0.73048 -0.13678 -0.074633 -0.0054151 -0.0062372 
0.067256 0.43225 0.60867 -0.65995 -0.12116 -0.079237 -0.0083746 -0.023829 
0.11428 0.18695 0.60768 -0.057041 0.039141 -0.030899 -0.010348 -0.018075 
0.09833 -0.024487 0.2195 1.073 0.19172 0.032071 0.0026412 0.0067515 
0.022206 0.012013 0.060515 1.6121 0.28478 0.11888 0.044402 0.021384 
-0.040435 0.22279 -0.0073881 1.045 0.2292 0.16163 0.083697 0.069393 
-0.016102 0.27294 -0.041422 -0.0088678 0.072353 0.10984 0.083697 0.068078 
0.0056006 0.097344 0.042594 -0.76188 -0.090088 0.065283 0.035524 0.063968 
0.12085 -0.091075 0.20882 -1.1193 -0.20041 -0.019719 0.015301 0.022206 
0.21621 -0.12675 0.53025 -1.2985 -0.25697 -0.059672 -0.0054151 0.016123 
0.29382 -0.069865 0.69219 -1.152 -0.21965 -0.07414 0.013492 0.0085601 
0.25304 0.0039565 0.39723 -0.43947 -0.056055 -0.063946 0.022371 0.038648 
0.013821 0.018754 -0.29528 0.39395 0.17412 0.026152 0.021713 0.058049 
-0.18232 0.11214 -0.72834 0.79117 0.31947 0.088136 0.043251 0.077778 
-0.22211 0.19961 -0.66652 0.52778 0.26126 0.12201 0.04095 0.073339 
-0.16457 0.24236 -0.31386 0.024344 0.094713 0.061337 0.049499 0.05476 
-0.021363 0.058871 0.048677 -0.21274 -0.13777 -0.068057 0.030098 -0.019884 
0.20323 -0.21636 0.33262 -0.25861 -0.27045 -0.1353 -0.078908 -0.099789 
0.27031 -0.08532 0.37307 -0.34986 -0.30465 -0.14944 -0.10209 -0.10686 
0.14502 0.23627 0.065612 -0.70549 -0.2397 -0.052931 -0.022185 -0.021363 
0.014808 -0.089266 -0.15552 -1.042 -0.11935 -0.016102 0.019576 0.0324 
-0.093212 -0.48748 -0.12346 -1.0044 -0.045861 0.01004 0.044896 0.08008 
-0.15306 -0.28886 0.14617 -0.49109 0.0069159 0.020562 0.036182 0.059364 
-0.10225 0.029934 0.52087 0.17182 0.070215 0.025166 0.047691 0.05065 
-0.065426 -0.024487 0.78936 1.1486 0.21326 0.10902 0.069393 0.042758 
-0.058685 -0.20403 0.82373 1.7403 0.34018 0.13894 0.072353 0.058213 
0.013492 -0.2277 0.88341 1.2239 0.35662 0.12102 0.061172 0.036346 
0.070051 -0.021199 0.59289 0.42091 0.2948 0.094055 0.040456 0.040785 
0.1322 0.39033 -0.079566 0.11855 0.26176 0.11231 0.082053 0.045718 
0.17018 0.79824 -0.77997 0.72508 0.366 0.15028 0.11198 0.05624 
0.12875 0.70716 -1.3816 1.75 0.46925 0.2052 0.12365 0.048841 
0.011026 0.2611 -1.602 2.032 0.38227 0.18547 0.090767 0.065447 
-0.10538 -0.15783 -1.1525 1.2642 0.18859 0.1299 0.054267 0.085341 
-0.12938 -0.36417 -0.24776 0.083862 -0.037311 0.061666 0.057884 0.088465 
-0.083347 -0.22951 0.59749 -0.62821 -0.14977 0.012506 0.065612 0.083204 
-0.037147 0.17856 0.90396 -0.54058 -0.18232 -0.010841 0.012013 0.020233 
0.038977 0.15883 0.83408 -0.067235 -0.1159 -0.053424 -0.044381 -0.039778 
0.21112 -0.45344 0.94424 0.38819 -0.009361 -0.043888 -0.080388 -0.12034 
0.38605 -0.88075 0.91119 0.59535 0.072188 -0.037311 -0.075784 -0.14698 
0.44491 -0.94389 0.36682 0.51216 0.05065 -0.010512 -0.0062372 -0.10932 
0.23331 -0.61966 -0.27144 0.32588 0.05624 0.034044 0.041114 0.033551 
-0.036325 -0.20534 -0.48271 0.11905 0.0592 0.054596 0.090767 0.12825 
-0.17575 0.10458 -0.36318 -0.11903 0.01711 0.062817 0.094877 0.15933 
-0.17772 0.32539 -0.16851 -0.26239 -0.031228 0.033387 0.060844 0.11872 
-0.14961 0.54406 -0.15158 -0.38472 -0.038462 0.0072447 0.04095 0.077943 
-0.087786 0.50542 -0.18643 -0.3252 -0.01117 0.017932 0.025988 0.0069159 
0.11017 0.46908 -0.22277 -0.091075 0.010369 0.036346 0.031578 -0.0040998 
0.22131 0.35071 -0.20551 0.088794 0.024673 0.034044 0.012342 -0.011005 
0.13582 0.1003 -0.087293 0.17314 0.0039565 0.0056006 -0.015609 0.022371 
0.0070803 -0.14566 -0.017582 0.183 0.026481 0.0011614 0.011684 0.026152 
-0.025145 -0.23017 -0.017911 0.29612 0.028454 0.0087245 0.0034632 0.053281 
-0.039613 -0.053917 -0.082196 0.48569 0.053774 0.012342 0.0070803 0.061172 
-0.057699 0.16656 -0.10637 0.52844 0.053116 0.019576 0.037004 0.092247 
-0.081539 0.24992 -0.029091 0.33377 0.047362 0.033551 0.058542 0.087972 
-0.12774 0.18432 0.014479 -0.0059084 -0.018075 0.030098 0.080244 0.093891 
-0.10341 0.14881 0.093726 -0.45377 -0.1108 0.020727 0.057227 0.082875 
-0.019555 0.026152 -0.047505 -1.0425 -0.19877 -0.029091 0.013492 0.060679 
0.13088 -0.06855 -0.24546 -1.4828 -0.27489 -0.12577 -0.030406 -0.019719 
0.2006 0.034702 -0.35841 -1.5001 -0.25204 -0.097158 -0.026296 -0.061316 
0.1858 0.26439 -0.2425 -1.3615 -0.21307 -0.077757 -0.026296 -0.063782 
0.13615 0.28642 0.079751 -1.0131 -0.074962 -0.020048 -0.004593 -0.052109 
0.11691 -0.024487 0.45264 -0.079072 0.12365 0.044238 -0.0029489 -0.037147 
0.18218 -0.51576 0.84773 1.4104 0.27688 0.082875 0.0080668 -0.044546 
0.23562 -0.78917 0.79101 2.5818 0.40907 0.1322 0.033387 -0.030406 
0.17232 -0.60832 0.31733 2.5749 0.43817 0.17429 0.047033 0.024508 
0.049828 -0.043066 -0.22261 1.6703 0.38704 0.18317 0.085341 0.058049 
-0.11705 0.36041 -0.51247 0.68578 0.26801 0.1442 0.10162 0.084026 
-0.21636 0.68381 -0.54124 -0.21899 0.094713 0.087479 0.11329 0.12612 
-0.13892 0.99817 -0.38538 -0.91248 -0.05737 0.025166 0.11674 0.12332 
-0.067399 0.91678 -0.13201 -1.365 -0.2014 -0.032379 0.064954 0.093069 
-0.035832 0.59239 0.094713 -1.545 -0.2596 -0.064604 0.01267 0.049828 
-0.05326 0.33788 0.093726 -1.4435 -0.3081 -0.086636 -0.00097594 0.076627 
-0.080717 0.21654 0.030427 -1.2818 -0.26502 -0.10291 -0.0090322 0.067585 
-0.11278 0.085506 0.061995 -1.1496 -0.22655 -0.090088 -0.0044286 0.070873 
-0.047012 -0.07825 0.10787 -0.90574 -0.1866 -0.097487 -0.03501 0.010369 
0.098494 -0.25565 0.15111 -0.61079 -0.1187 -0.04471 -0.05589 -0.028269 
0.17988 -0.4056 0.21424 -0.35595 -0.047998 -0.028104 -0.060165 -0.052273 
0.13203 -0.32553 0.21885 -0.21258 0.015301 -0.0042642 -0.048327 -0.035174 
0.09274 -0.11508 0.28856 0.016616 0.090109 0.042758 0.021056 -0.030899 
0.10819 -0.043888 0.42798 0.43324 0.14387 0.069886 0.032729 0.004943 
0.10967 -0.021363 0.41729 0.82126 0.15061 0.06594 0.049664 0.01711 
0.11329 0.089452 0.18218 0.87289 0.18202 0.072517 0.065283 0.068407 
0.007738 0.29382 0.041772 0.65569 0.18629 0.090109 0.081724 0.094877 
-0.075127 0.41072 0.16607 0.38441 0.20438 0.11247 0.11658 0.090603 
-0.12198 0.39181 0.20668 0.20125 0.17133 0.089616 0.10935 0.094877 
-0.15158 0.29842 -0.0082102 0.085012 0.12464 0.10589 0.099481 0.11576 
-0.10028 0.13598 -0.095349 0.078436 0.047691 0.090767 0.072353 0.073832 
0.034537 -0.1062 0.16179 0.091425 0.027961 0.035195 0.018096 0.030756 
0.15012 -0.4587 0.45166 0.1784 0.0016547 -0.0067304 0.0042853 -0.034352 
0.15193 -0.43108 0.33854 0.24449 -0.0067304 -0.019555 -0.034023 -0.043066 
0.095042 0.021549 -0.10653 0.019083 -0.054246 -0.029584 -0.025145 -0.049478 
0.024344 0.34725 -0.17624 -0.30974 -0.093048 -0.060658 -0.039942 -0.024487 
-0.019226 0.48996 -0.19712 -0.44292 -0.05885 -0.039778 -0.009361 0.00050378 
-0.0024557 0.36764 -0.42681 -0.22096 0.025001 -0.0040998 0.028947 0.039634 
0.012999 0.10573 -0.48945 -0.13086 0.031907 0.025988 0.039963 0.032236 
0.01974 -0.096665 -0.25631 -0.51806 -0.031557 0.0042853 0.042758 0.040292 
-0.02646 -0.13185 0.11346 -0.8528 -0.12231 0.0037921 0.016616 0.029441 
-0.0503 -0.017746 0.48503 -0.97447 -0.16703 -0.036325 0.01267 0.019576 
0.027468 -0.037969 0.64862 -0.60996 -0.13695 -0.063124 -0.0021268 0.0051074 
0.046375 -0.055232 0.5776 0.19764 -0.015773 -0.036325 0.018918 0.017603 
-0.0073881 1.0539e-005 0.16952 1.0662 0.17363 0.054596 0.046868 0.041936 
-0.035338 0.049992 -0.34394 1.8163 0.37044 0.13023 0.054596 0.067585 
0.0067515 -0.02646 -0.44687 2.376 0.46004 0.17741 0.066105 0.052623 
0.051143 -0.18232 -0.14993 2.1224 0.33805 0.15883 0.076956 0.039141 
0.040292 -0.11048 0.14453 0.95608 0.17988 0.12529 0.047033 0.054596 
0.011355 0.13598 0.33278 -0.34082 -0.016102 0.077614 0.02681 0.050486 
0.048841 0.17133 0.37701 -1.2581 -0.14089 0.010697 0.0041209 0.027961 
0.2006 -0.1085 0.45708 -1.7898 -0.31139 -0.08121 -0.019555 -0.049149 
0.35383 -0.51296 0.47106 -1.6734 -0.28163 -0.13349 -0.043724 -0.07562 
0.35169 -0.30876 0.091425 -0.62246 -0.031064 -0.051122 -0.023172 -0.059014 
0.14486 0.2103 -0.3127 0.73017 0.27261 0.069064 0.031249 0.0031344 
-0.14007 0.43489 -0.37798 1.4025 0.37175 0.17149 0.061172 0.084684 
-0.29314 0.38622 -0.291 1.1159 0.28116 0.17462 0.12497 0.15785 
-0.29232 0.21654 -0.19054 0.32719 0.085506 0.076463 0.11214 0.15324 
-0.11146 0.076134 -0.1159 -0.23313 -0.076771 0.0056006 0.07038 0.10885 
0.059528 0.076956 -0.37255 -0.46133 -0.13596 -0.044874 0.0098754 0.013492 
0.12085 0.12332 -0.59599 -0.49619 -0.17295 -0.056055 -0.031392 -0.021363 
0.10277 0.052459 -0.22195 -0.16934 -0.13678 -0.05885 -0.036489 -0.052931 
0.12332 -0.18545 0.53896 0.31799 -0.067564 -0.061973 -0.037147 -0.031392 
0.14913 -0.47169 0.78229 0.58746 0.0021479 -0.025474 -0.03616 -0.035667 
0.17265 -0.62608 0.57957 0.54965 0.040456 -0.004593 -0.026131 -0.018239 
0.12201 -0.72949 0.13302 0.65454 0.14733 0.037168 0.013492 0.017438 
-0.03353 -0.58185 -0.2859 0.84543 0.23019 0.10622 0.091096 0.096521 
-0.17789 -0.15257 -0.32799 0.72162 0.24614 0.10787 0.095371 0.11461 
-0.15355 0.4482 -0.11327 0.39575 0.16903 0.079916 0.074983 0.065612 
0.041607 0.99669 0.18267 0.1105 0.081395 0.034702 0.021713 -0.0013048 
0.16442 0.9763 0.17232 -0.081539 -0.0049219 0.022206 0.016616 -0.004593 
0.14585 0.50673 -0.26371 -0.19909 -0.056548 0.011191 0.032071 0.0421 
0.098166 0.020398 -0.58744 -0.23592 -0.091732 0.018425 0.03651 0.078272 
0.10474 -0.19745 -0.68379 -0.55916 -0.12363 0.0016547 0.019576 0.093726 
0.066763 -0.18282 -0.7216 -0.96082 -0.13744 -0.015773 0.02122 0.078107 
-0.013143 -0.079566 -0.62098 -1.2285 -0.18232 -0.033037 0.0059294 0.041114 
-0.065097 -0.010019 -0.34345 -1.1386 -0.1815 -0.058521 -0.0068948 0.034209 
-0.072825 -0.0078813 0.15242 -0.83883 -0.14467 -0.070687 -0.024158 0.01267 
-0.016266 -0.040928 0.58812 -0.54749 -0.042408 -0.056877 -0.024816 -0.0098543 
0.11888 -0.022514 1.0269 -0.023829 0.095371 -0.036654 -0.02942 -0.063946 
0.24417 -0.067728 1.1289 1.1281 0.2999 0.022206 -0.0060728 -0.13037 
0.23841 0.0070803 0.68184 2.353 0.45922 0.11905 0.037168 -0.10521 
0.049664 0.04095 0.21293 2.4542 0.44952 0.18925 0.087808 0.0059294 
-0.039613 0.11411 -0.14747 1.8489 0.4025 0.24351 0.15538 0.13319 
-0.055397 0.439 -0.33063 1.1805 0.30171 0.20027 0.17462 0.14979 
-0.059836 0.61147 -0.30448 0.52778 0.062652 0.099316 0.11806 0.10408 
-0.01676 0.61097 -0.303 -0.5659 -0.12675 0.0324 0.061501 0.062652 
0.089287 0.46645 -0.39392 -1.8699 -0.28903 -0.067728 -0.017582 0.022042 
0.24992 0.18185 -0.30876 -2.529 -0.34361 -0.15306 -0.069372 -0.044217 
0.2999 -0.25417 0.026974 -2.446 -0.35019 -0.14977 -0.10489 -0.066084 
0.19813 -0.63709 0.21737 -1.858 -0.19597 -0.091732 -0.04323 -0.051287 
0.034866 -0.66422 0.16196 -0.72209 -0.055397 -0.00097594 0.044238 0.055911 
-0.13497 -0.34213 0.11609 0.8765 0.077449 0.058871 0.083862 0.10639 
-0.21685 -0.093376 0.11543 2.0379 0.11444 0.056733 0.081724 0.159 
-0.17591 -0.26782 0.065283 2.0976 0.096357 0.035524 0.052787 0.074819 
-0.18512 -0.29774 -0.13021 1.3648 0.05772 0.021384 0.05624 0.077943 
-0.20518 0.24104 -0.30317 0.34248 0.0083956 0.032729 0.043745 0.068407 
-0.10521 0.5725 -0.14467 -0.66702 -0.048492 0.0019835 -0.001798 0.01267 
0.0070803 0.48553 0.12414 -1.3487 -0.11163 -0.028762 -0.049807 -0.047998 
0.070051 0.34117 0.23397 -1.5009 -0.14632 -0.048492 -0.05441 -0.056548 
0.043251 0.29809 0.17906 -1.2206 -0.11656 -0.051287 -0.033694 -0.076606 
0.090274 0.44755 0.16722 -0.83406 -0.092719 -0.035503 -0.0027845 -0.03764 
0.17593 0.60785 0.29234 -0.32339 -0.020048 -0.023336 0.016781 -0.036983 
0.25683 0.45001 0.29957 0.29596 0.12497 0.055254 0.037332 -0.0088678 
0.27738 -0.06855 0.22887 0.83195 0.27573 0.10951 0.073339 -0.01117 
0.16788 -0.47975 0.17495 1.1241 0.32177 0.12957 0.10606 0.025495 
0.0042853 -0.52726 0.24318 1.1256 0.23693 0.10228 0.084026 0.071859 
-0.045861 -0.34164 0.19796 0.72672 0.094713 0.069886 0.041936 0.098823 
-0.051615 -0.071674 -0.024158 0.11806 -0.018239 0.01711 0.025495 0.089945 
-0.058685 0.1299 -0.38159 -0.42763 -0.03353 0.0069159 0.013657 0.079751 
-0.12363 0.27195 -0.55225 -0.73179 -0.05178 0.0051074 0.039141 0.099974 
-0.1723 0.24384 -0.45328 -0.73837 -0.062467 0.0016547 0.037497 0.1248 
-0.15848 0.20882 -0.16966 -0.70286 -0.073647 0.032893 0.053445 0.10852 
-0.10061 0.18235 0.083862 -0.45542 0.0047785 0.051636 0.054432 0.081067 
0.0065871 0.083533 0.34347 0.040456 0.082875 0.048841 0.045718 0.026317 
0.099645 -0.094034 0.7088 0.50509 0.095535 0.042429 0.042594 0.0031344 
0.099316 -0.27209 0.99784 0.77621 0.13319 0.037004 0.0036276 -0.0060728 
0.069064 -0.33342 0.90149 0.59486 0.10507 0.050321 -0.00031829 0.0028056 
0.07597 -0.31681 0.51249 0.023686 0.00033937 -0.011005 -0.0054151 0.0034632 
0.11428 -0.28212 0.15259 -0.51543 -0.12725 -0.056055 -0.018733 -0.027611 
0.17166 -0.16588 -0.17016 -0.29791 -0.11574 -0.074962 -0.011498 -0.071509 
0.2828 0.036182 -0.37025 0.49079 0.013657 -0.024323 -0.015116 -0.065262 
0.20783 0.18169 -0.49356 0.86154 0.17906 0.085177 0.051801 0.013821 
-0.0077169 0.37586 -0.44128 0.53666 0.18942 0.11691 0.083533 0.10803 
-0.11919 0.36386 -0.23888 0.13006 0.11263 0.057884 0.070215 0.12283 
-0.11557 0.20208 -0.072989 0.0069159 0.036839 0.036017 0.065776 0.077614 
-0.099624 0.20388 -0.067399 -0.11804 0.032893 0.023357 0.029934 0.052952 
-0.080059 0.31733 -0.18939 -0.34329 -0.058028 0.012835 0.034044 0.027303 
-0.062138 0.45116 -0.2739 -0.45114 -0.10489 -0.010512 0.016945 0.042923 
-0.095349 0.43193 -0.40938 -0.4957 -0.087622 -0.017088 0.046868 0.039799 
-0.03205 0.24137 -0.44325 -0.58234 -0.063289 -0.013143 0.052787 0.063803 
0.06742 0.015465 -0.21406 -0.56722 -0.035667 -0.025967 0.016123 0.023193 
0.11707 -0.25384 0.19517 -0.28147 -0.029255 0.0039565 0.017767 0.018754 
0.099481 -0.40757 0.65372 -0.0050863 0.033715 0.044238 0.033551 0.037826 
0.11 -0.42483 0.86483 0.28067 0.084848 0.067256 0.046046 0.043251 
0.09833 -0.35414 0.65652 0.33246 0.075805 0.057227 0.048184 0.04358 
0.14141 -0.13382 0.32769 0.18037 0.014643 0.055254 0.03799 0.039305 
0.21276 -0.047176 0.21769 -0.097487 -0.011498 0.024015 0.027139 0.018589 
0.16179 -0.016924 0.049335 -0.27094 -0.058192 0.014643 0.016288 0.0039565 
0.05624 0.077121 -0.11376 -0.2397 -0.03205 -0.027775 0.0028056 -0.023007 
-0.027282 0.11839 -0.035338 -0.19811 -0.0050863 0.0067515 -0.01232 -0.0039354 
-0.016924 0.17593 0.28954 0.11263 0.068242 0.015465 -0.013471 -0.011334 
0.036017 0.3119 0.47319 0.62117 0.099152 0.012342 0.0011614 -0.0013048 
0.044402 0.31421 0.14305 1.0582 0.12053 0.038648 0.00033937 0.0041209 
-0.024323 0.017603 -0.15783 0.94884 0.15982 0.06331 0.072846 0.039963 
-0.097322 -0.23625 -0.40346 0.46349 0.15374 0.05213 0.06594 0.050979 
-0.1136 -0.025474 -0.46396 0.041278 0.095371 0.03799 0.037497 0.029112 
-0.095349 0.21819 -0.46643 -0.1741 0.018918 0.020233 0.034702 0.027303 
0.0031344 0.22394 -0.45361 -0.34805 -0.017088 0.033222 0.023851 0.02122 
0.099645 -0.00015387 -0.16457 -0.49405 -0.043395 0.010204 0.030098 0.013164 
0.13631 -0.13563 0.20734 -0.45048 -0.031557 -0.010841 -0.0040998 0.010204 
0.098988 -0.054739 0.40726 -0.09798 0.03536 0.00017495 -0.00097594 0.020398 
0.093233 0.057391 0.35186 0.57151 0.13319 0.064625 0.042923 0.035195 
0.13713 0.10803 0.053609 0.90281 0.17232 0.10359 0.048019 0.043745 
0.058542 0.24219 -0.28886 0.58105 0.11263 0.085177 0.067749 0.049335 
-0.06855 0.33837 -0.5516 0.086657 0.059693 0.068078 0.055747 0.079916 
-0.083183 0.20339 -0.59632 -0.29314 0.0090533 0.040456 0.051308 0.081724 
-0.01939 -0.023665 -0.40428 -0.58629 -0.075127 0.01152 0.040456 0.061337 
0.073832 -0.17114 0.1881 -0.83603 -0.16342 -0.028597 -0.0021268 -0.0080457 
0.13565 -0.12905 0.79512 -0.6879 -0.14434 -0.080881 -0.038133 -0.039778 
0.14223 0.047362 0.95443 -0.02794 -0.041915 -0.05441 -0.055397 -0.083183 
0.057227 0.0065871 0.59289 0.64616 0.029934 0.0018191 -0.023665 -0.011663 
0.040456 -0.081868 0.31733 0.75007 0.029769 0.010862 -0.0067304 0.03092 
-0.038462 -0.17558 0.11987 0.48618 -0.026296 0.0044497 0.014972 0.046868 
-0.035832 -0.26979 -0.10505 -0.0016336 -0.055232 -0.0095255 0.0093821 0.0098754 
-0.0077169 -0.24891 -0.20386 -0.45344 -0.071345 -0.022185 0.00017495 -0.016924 
-0.0014692 -0.042079 -0.077264 -0.6292 -0.028269 -0.019226 0.015959 0.0065871 
-0.034023 0.11691 0.02829 -0.37222 0.051308 0.013821 0.045224 0.085012 
-0.058521 0.08978 0.078929 0.13664 0.13006 0.045882 0.069886 0.12349 
0.021549 0.2121 0.062652 0.53699 0.10688 0.050486 0.038155 0.064954 
0.11494 0.63037 -0.16079 0.40677 0.045718 0.047691 -0.0090322 0.018096 
0.10672 0.67904 -0.61786 -0.11097 0.046704 0.055747 0.017438 0.035853 
0.017932 0.19599 -0.79016 -0.74051 0.044567 0.097179 0.067256 0.076299 
-0.097158 0.032071 -0.47695 -1.0489 0.027468 0.054432 0.057391 0.098166 
-0.083676 0.071202 -0.032543 -0.86004 0.017932 0.015465 0.038319 0.073504 
-0.012485 0.023686 0.37274 0.30993 0.15226 0.026974 0.01826 0.035524 
0.057884 -0.16243 0.55688 2.1759 0.34347 0.073504 0.023357 -0.009361 
0.12398 -0.28196 0.50706 3.3615 0.46563 0.14716 0.046211 -0.00031829 
0.17462 -0.28229 0.33213 3.0604 0.40118 0.18925 0.072024 -0.023501 
0.12168 -0.17032 0.039963 1.4815 0.20767 0.16393 0.042923 -0.015609 
-0.082032 -0.056219 -0.22737 -0.29018 -0.043559 0.043416 0.037826 -0.0013048 
-0.16424 0.15226 -0.33013 -1.3873 -0.19975 -0.047505 0.030592 0.011026 
-0.052931 0.50772 -0.25171 -1.6272 -0.27555 -0.096829 0.009711 0.013328 
0.01974 0.61295 -0.0014692 -1.4342 -0.23806 -0.10423 0.012506 0.029441 
0.036839 0.4408 0.2052 -1.1696 -0.17279 -0.048163 0.015465 0.062652 
0.022371 0.078929 0.33246 -0.85198 -0.12067 -0.037805 0.014479 0.10819 
0.032893 -0.21932 0.44261 -0.5562 -0.098473 -0.053424 0.0079024 0.081231 
0.074654 -0.267 0.36123 -0.1672 -0.058685 -0.037147 -0.011663 0.052459 
0.1373 -0.0077169 0.018754 0.30319 0.06742 0.031742 0.036182 0.05065 
0.16689 0.37948 -0.28426 0.63662 0.17988 0.10376 0.059857 0.038319 
0.20832 0.29415 -0.23757 0.6261 0.17692 0.10441 0.037826 -0.0070593 
0.19764 -0.056712 -0.10883 0.56987 0.14437 0.040128 1.0539e-005 -0.056712 
0.071531 -0.11738 -0.040435 0.58417 0.13532 0.04095 -0.0029489 0.0079024 
-0.096172 -0.078086 0.019576 0.51528 0.16969 0.053116 0.034702 0.040128 
-0.15569 -0.088444 0.050157 0.31273 0.18563 0.086328 0.0421 0.064132 
-0.11245 -0.13629 -0.017582 0.16475 0.1345 0.096686 0.066105 0.0421 
-0.086142 -0.065591 -0.068057 0.20405 0.08715 0.072681 0.082875 0.12168 
-0.13267 0.050321 -0.13464 0.14026 0.044402 0.048348 0.10491 0.15209 
-0.12363 0.021549 -0.29495 -0.076442 0.00033937 0.030098 0.09981 0.15768 
-0.06444 -0.082854 -0.2596 -0.32536 -0.090746 0.0041209 0.041936 0.040621 
0.078436 -0.31945 -0.011334 -0.49142 -0.13645 -0.041915 -0.014293 -0.030406 
0.18547 -0.66323 0.49243 -0.51362 -0.16227 -0.093705 -0.054904 -0.10801 
0.34923 -0.66126 0.68891 -0.36285 -0.1187 -0.081374 -0.058685 -0.12511 
0.29859 0.091918 0.79709 -0.14665 -0.072989 -0.058192 -0.009361 -0.074633 
0.1927 0.71603 0.80926 -0.059507 -0.013307 0.0088889 0.016288 -0.016431 
0.079751 0.92764 0.73576 -0.074798 0.0039565 0.023357 0.042594 -0.0034422 
0.023357 0.77769 0.28083 -0.3663 -0.058685 0.0041209 0.0075736 0.016945 
-0.038791 0.53189 -0.48583 -0.79329 -0.1279 -0.03353 0.0065871 0.025001 
-0.096994 0.22279 -0.77997 -1.1555 -0.21948 -0.050136 -0.0042642 0.035853 
-0.084498 -0.12856 -0.3035 -1.2578 -0.2328 -0.043066 -0.009361 0.03947 
-0.038791 -0.64482 0.085835 -0.94027 -0.19696 -0.01232 -0.0088678 0.026974 
0.03651 -1.0253 0.0062583 -0.45903 -0.11459 -0.023007 -0.011334 0.0075736 
0.062652 -0.76172 -0.11442 -0.2157 -0.017253 -0.001798 0.036182 0.031907 
0.056404 -0.14763 -0.24431 0.18958 0.18087 0.038319 0.061008 0.031249 
0.052459 0.24581 -0.33572 1.0528 0.36682 0.10984 0.076627 0.031742 
0.0095465 0.27014 -0.32487 1.5348 0.43094 0.15374 0.086985 0.01826 
-0.055726 0.2149 -0.056383 1.6432 0.36567 0.13187 0.10343 0.070215 
-0.14254 0.38573 0.17971 1.6349 0.28691 0.10754 0.11625 0.091753 
-0.15306 0.45478 0.11395 1.4031 0.1932 0.099645 0.076627 0.092576 
-0.047998 0.45971 0.0014903 0.47402 0.022042 0.037168 0.040621 0.025495 
-0.030077 0.50049 0.16212 -0.83603 -0.19679 -0.053753 -0.03057 0.00066819 
0.01826 0.31864 0.42157 -1.9208 -0.35759 -0.121 -0.073318 -0.051287 
0.16558 -0.082525 0.59239 -2.2725 -0.37633 -0.15076 -0.066413 -0.091568 
0.3831 -0.47465 0.61689 -1.7071 -0.26305 -0.14303 -0.086964 -0.1113 
0.49243 -0.62805 0.57612 -0.60109 -0.040764 -0.053917 -0.037476 -0.073154 
0.31404 -0.47334 0.27836 0.57069 0.16755 0.08156 0.034373 0.0037921 
-0.011992 -0.28689 -0.21208 1.3508 0.27935 0.14239 0.099316 0.097837 
-0.22902 -0.24398 -0.32964 1.3502 0.24252 0.16179 0.14749 0.1373 
-0.20995 -0.15816 -0.31451 0.91021 0.1054 0.10326 0.11691 0.11247 
-0.1672 -0.0014692 -0.40642 0.28708 -0.038462 0.031907 0.05624 0.082546 
-0.13892 0.23923 -0.49175 -0.22885 -0.098309 -0.011334 0.005765 0.044073 
0.072681 0.41976 -0.47054 -0.45607 -0.10127 -0.0036066 -0.004593 0.0072447 
0.30089 0.46793 -0.39294 -0.37748 -0.019884 -0.01232 0.0060938 -0.011992 
0.26636 0.34791 -0.25763 -0.02498 0.061666 0.0090533 0.011848 0.027139 
0.11099 0.27951 0.015465 0.2149 0.13203 0.0082312 0.0062583 0.030098 
0.027961 0.30418 0.25271 0.54044 0.2103 0.039963 -0.0026201 0.034044 
-0.018897 0.41828 0.36665 0.7088 0.23068 0.10836 0.02829 0.032564 
-0.052109 0.31864 0.32374 0.64451 0.19172 0.10902 0.10672 0.077285 
-0.071016 0.10935 0.1054 0.48257 0.09126 0.081067 0.082711 0.082053 
-0.074633 0.076627 -0.10127 0.2754 0.011848 0.059857 0.061501 0.09126 
-0.036818 0.089945 -0.12133 -0.16111 -0.048163 0.034209 0.0070803 0.025166 
0.00297 0.087972 -0.03616 -0.54749 -0.079401 0.013328 0.026317 0.0024767 
-0.013471 0.18777 0.016945 -0.7216 -0.090253 -0.036654 0.035688 -0.0019624 
-0.079895 0.20734 0.13631 -0.62262 -0.077922 -0.043724 -0.00097594 0.031578 
0.072024 0.15555 0.2006 -0.17904 0.0046141 -0.046847 -0.020377 -0.00031829 
0.19205 -0.010841 0.13976 0.3119 0.1179 0.0026412 -0.048985 0.016123 
0.22986 -0.20879 0.062981 0.60242 0.12628 0.063145 -0.020706 0.011684 
0.12431 -0.17032 -0.06296 0.68414 0.14437 0.11346 0.072681 0.036182 
-0.023172 -0.28607 -0.13892 0.71702 0.13582 0.12431 0.11691 0.08715 
-0.096829 -0.33161 -0.03501 0.75911 0.17626 0.13828 0.12233 0.13943 
-0.030077 -0.15224 0.048513 0.62347 0.18218 0.12168 0.11461 0.09981 
0.018589 0.016781 0.004943 0.5314 0.12135 0.057884 0.058706 0.05624 
0.060186 0.027961 -0.20419 0.47352 0.045553 0.027632 0.023522 0.0079024 
0.022864 0.11526 -0.32931 0.38342 0.017603 0.0028056 0.0098754 0.024837 
0.05624 0.37044 -0.35085 0.15324 0.042429 0.013328 0.0069159 0.037661 
0.0092177 0.61327 -0.25401 0.12858 0.11543 0.064954 0.043745 0.049992 
-0.13152 0.53304 -0.0406 0.081067 0.13713 0.083204 0.071859 0.067913 
-0.22441 0.13631 0.17593 -0.26733 0.095535 0.082546 0.058377 0.089616 
-0.16786 -0.26667 0.40036 -0.65436 -0.069043 0.026481 0.035524 0.10704 
-0.051615 -0.29906 0.52564 -0.95293 -0.22096 -0.043395 0.02122 0.052294 
0.025659 -0.051944 0.63169 -1.1289 -0.30448 -0.089759 -0.0024557 0.014643 
0.19862 0.02122 0.79265 -1.1461 -0.28952 -0.1136 -0.038133 -0.051944 
0.36172 -0.0019624 0.68315 -0.95425 -0.23411 -0.10686 -0.081045 -0.12889 
0.3923 0.21901 0.39033 -0.67178 -0.14878 -0.09239 -0.077428 -0.15322 
0.30105 0.27409 -0.014622 -0.30333 -0.023501 -0.025474 -0.023336 -0.052766 
0.078272 0.086163 -0.083347 0.088136 0.080738 0.051308 0.043416 0.027139 
-0.10768 -0.082196 -0.092719 0.43817 0.14141 0.079751 0.10244 0.10441 
-0.19942 -0.20485 -0.30448 0.61952 0.12316 0.09126 0.096357 0.12233 
-0.16736 -0.28722 -0.49192 0.56296 0.12365 0.075805 0.056404 0.11674 
-0.051615 -0.26519 -0.59599 0.50427 0.12661 0.053281 0.030592 0.058213 
-0.020212 -0.17361 -0.57182 0.46333 0.1179 0.036675 0.01152 0.032564 
-0.081374 0.00297 -0.48419 0.40595 0.083204 0.051801 0.03799 0.018425 
-0.14599 0.232 -0.21356 0.16886 0.020398 0.021549 0.007738 0.031742 
-0.14056 0.47319 0.24269 -0.022514 -0.014293 0.00083261 0.0028056 0.0051074 
-0.1187 0.61459 0.69088 -0.032708 0.0095465 0.0018191 0.0034632 0.035195 
-0.096994 0.51693 0.86598 -0.17657 -0.018075 0.0074092 0.028619 0.03799 
-0.01232 0.17248 0.78936 -0.38866 -0.060494 -0.0040998 0.02829 0.019247 
0.070708 -0.21258 0.82833 -0.83603 -0.17854 -0.049642 -0.026789 -0.026296 
0.15472 -0.44489 0.69466 -1.3067 -0.26996 -0.094692 -0.081868 -0.033365 
0.27409 -0.55209 0.068407 -1.3659 -0.22869 -0.12511 -0.083676 -0.067399 
0.37635 -0.73903 -0.45903 -1.0519 -0.062138 -0.095843 -0.039613 -0.073647 
0.33788 -0.69299 -0.57133 -0.61144 -0.0095255 -0.051944 0.021056 -0.075949 
0.088794 -0.26338 -0.17345 -0.41776 0.084519 -0.014622 0.041772 -0.0088678 
-0.15437 0.1419 0.6695 0.26242 0.24351 0.072517 0.055747 0.038648 
-0.21389 0.16919 1.0962 1.9917 0.49128 0.18958 0.083368 0.092082 
-0.072003 0.1197 0.71209 3.6186 0.67674 0.29267 0.14026 0.084848 
0.13878 0.16442 -0.082196 3.4506 0.61919 0.28626 0.14469 0.069229 
0.18629 0.2976 -0.6782 1.8724 0.32012 0.22559 0.10063 0.046046 
0.085835 0.4168 -0.73031 -0.0138 -0.069208 0.053938 0.062981 0.053938 
0.0019835 0.40546 -0.63167 -1.3607 -0.30498 -0.056055 -0.016102 0.049828 
-0.0013048 0.35564 -0.48994 -1.8641 -0.32898 -0.086307 0.016123 0.046046 
0.02122 0.18711 -0.40083 -1.6711 -0.24562 -0.059836 0.042923 0.063639 
-0.0054151 -0.15372 -0.47465 -1.2421 -0.21455 -0.060658 0.0032988 0.062652 
-0.0075525 -0.46627 -0.36713 -0.83784 -0.20403 -0.10094 -0.051944 0.024179 
0.0034632 -0.24513 0.047197 -0.51132 -0.15717 -0.12198 -0.048656 -0.031886 
0.013657 0.094713 0.4071 -0.21619 -0.05737 -0.080552 -0.038133 -0.024816 
0.0034632 0.11839 0.48405 -0.046847 0.010533 -0.037147 0.0067515 -0.025967 
1.0539e-005 0.14108 0.37027 0.049499 0.054432 0.0095465 -0.0044286 0.018425 
-0.020706 0.24893 0.12283 0.091096 0.087479 0.015137 -0.022514 -0.0019624 
0.021056 0.28461 0.023686 0.14469 0.086821 0.035853 -0.010512 0.0037921 
0.058542 0.20076 0.10129 0.12201 0.086821 0.024015 0.014479 -0.0052507 
0.07597 0.036675 0.053609 0.10359 0.049006 0.012177 -0.0011404 -0.0019624 
0.089287 -0.056548 -0.058685 0.19912 0.032236 0.040128 0.012835 0.010369 
0.08978 -0.061151 -0.18216 0.32062 0.025988 0.044073 0.017603 0.055089 
0.10408 -0.092061 -0.11968 0.33706 -0.009361 0.012013 0.041936 0.040785 
0.073504 -0.064604 0.0013258 0.023522 -0.041257 0.027303 0.057391 0.062488 
0.074654 -0.040435 0.01826 -0.41661 -0.065097 0.01974 0.055911 0.047033 
0.095864 -0.09239 0.032071 -0.38784 0.0034632 0.04358 0.035195 0.03947 
0.16442 -0.017911 -0.014458 0.13335 0.16574 0.060022 0.030592 0.0032988 
0.13483 0.15456 -0.16572 0.66096 0.3022 0.098988 0.047197 0.038319 
0.087972 0.1881 -0.13037 0.69285 0.38096 0.13894 0.083533 0.051965 
0.06742 0.08304 0.086492 0.59568 0.4048 0.15259 0.083697 0.082217 
-0.001798 0.080902 0.1031 1.3254 0.43357 0.14206 0.060844 0.05476 
-0.062302 0.26274 -0.17328 2.3225 0.38688 0.16623 0.082875 0.067091 
-0.08121 0.49966 -0.5322 2.0917 0.23183 0.14798 0.10145 0.05772 
-0.062467 0.35005 -0.55324 0.61327 0.0087245 0.080738 0.098988 0.076627 
-0.032708 0.14733 -0.21603 -1.068 -0.19942 -0.01117 0.05065 0.062159 
0.01563 0.08156 0.16558 -1.8733 -0.29676 -0.090088 -0.0047575 0.057884 
0.086492 0.076956 0.28379 -1.4766 -0.28952 -0.10439 -0.022021 0.031578 
0.16146 0.068078 0.23973 -0.55423 -0.17509 -0.091404 -0.028433 0.00066819 
0.18119 0.055582 0.19599 0.10096 -0.055068 -0.055726 0.0079024 0.0016547 
0.048348 0.045389 0.052787 0.10244 -0.0044286 0.026152 -0.031064 0.012835 
-0.086142 0.011026 -0.058356 -0.25516 -0.053588 0.02829 0.021878 0.052952 
-0.1404 0.022371 -0.072167 -0.49635 -0.02646 0.02122 -0.0004827 0.063474 
-0.084827 -0.031228 0.024837 -0.48205 0.011026 0.034866 0.052623 0.055911 
-0.034188 -0.078086 0.21293 -0.44571 0.036675 0.012506 0.024837 0.0060938 
0.03651 -0.17082 0.38457 -0.29396 -0.016431 -0.0077169 0.01415 -0.0047575 
0.076299 -0.088773 0.39707 0.17528 0.031742 -0.0013048 0.021056 0.0046141 
0.036675 0.14075 0.16196 0.5942 0.098001 0.075805 0.034373 0.025166 
0.033551 0.37586 -0.049807 0.66983 0.14848 0.075805 0.067913 0.051965 
0.066927 0.39132 -0.12774 0.18432 0.05476 0.039799 0.094384 0.056569 
0.12299 0.26488 -0.15816 -0.43125 -0.075784 -0.013965 0.044402 0.025495 
0.15522 0.2006 -0.073647 -0.59763 -0.1815 -0.078744 0.0021479 0.0074092 
0.15259 0.15785 0.0324 -0.45098 -0.2157 -0.077264 -0.063453 -0.042737 
0.073668 -0.091075 -0.060658 -0.31451 -0.19022 -0.077593 -0.041093 -0.029091 
0.04654 -0.36071 -0.010348 -0.50901 -0.11541 -0.049807 -0.004593 -0.030242 
-0.030899 -0.42319 0.14552 -0.45722 0.017767 -0.022021 0.025824 0.012835 
-0.065591 -0.40379 0.24104 0.57809 0.25222 0.064296 0.076627 0.037332 
-0.06855 -0.22704 0.044731 2.3949 0.62166 0.22049 0.10145 0.094877 
-0.13448 0.29563 -0.34213 3.5646 0.84625 0.33361 0.16327 0.087972 
-0.13678 0.75155 -0.29265 2.9884 0.69055 0.31125 0.1373 0.12677 
-0.02646 0.66786 0.15341 1.1052 0.25551 0.12217 0.079751 0.073504 
0.094384 0.20964 0.42305 -0.77438 -0.18232 -0.01676 0.01152 0.031742 
0.1465 -0.21882 0.37241 -1.8069 -0.41513 -0.079566 -0.0059084 0.016123 
0.17659 -0.52907 0.2902 -1.9585 -0.42697 -0.091239 0.020398 0.032893 
0.17544 -0.81334 0.36846 -1.7071 -0.35956 -0.10423 -0.0022913 0.028947 
0.069064 -0.4028 0.41532 -1.3322 -0.28837 -0.10604 -0.018733 0.038155 
-0.087293 0.43308 0.22065 -0.89654 -0.21488 -0.086964 -0.0073881 0.057555 
-0.19268 0.70206 -0.098638 -0.5414 -0.14385 -0.018733 0.018589 0.11132 
-0.18923 0.56954 -0.30514 -0.24184 -0.071674 -0.026953 0.03388 0.10392 
-0.13645 0.48059 -0.3857 0.052952 0.020727 -0.019884 0.034537 0.082217 
-0.13218 0.11263 -0.34098 0.35679 0.1054 0.011191 0.0085601 0.023522 
-0.021363 -0.50753 -0.11787 0.52679 0.16886 0.052787 0.0052718 -0.049807 
0.18662 -0.984 0.2006 0.46662 0.15423 0.029276 -0.033365 -0.17131 
0.1567 -0.74807 0.27425 0.43357 0.12168 0.047033 -0.025967 -0.11656 
0.007738 -0.077757 0.093069 0.43686 0.066105 0.068736 0.014643 -0.029255 
-0.015938 0.29974 0.095535 0.25748 -0.01528 0.026481 0.0026412 0.020891 
-0.0042642 0.31453 0.21769 -0.18134 -0.080388 -0.01528 0.0082312 0.026317 
0.034537 0.17396 0.25978 -0.63693 -0.11475 -0.035174 0.012177 0.036675 
0.090274 0.087643 -0.038133 -0.72752 -0.11623 -0.051122 0.016616 -0.013307 
0.10359 0.098823 -0.25894 -0.70894 -0.11491 -0.046354 -0.022514 0.017767 
0.075476 0.045553 0.076463 -0.50984 -0.031392 -0.013307 -0.0083746 -0.026953 
-0.071509 0.014972 0.43998 -0.20107 0.1054 0.037332 0.013821 0.05476 
-0.099295 -0.065755 0.56921 0.56017 0.2006 0.069393 0.013986 0.063145 
0.036839 -0.17936 0.32111 1.6081 0.23858 0.11806 0.049006 0.030427 
0.33624 -0.12971 -0.12198 2.0323 0.26653 0.087314 0.034866 -0.036983 
0.47796 -0.017088 -0.18989 1.6198 0.23348 0.055582 0.0074092 -0.053424 
0.31782 0.014972 0.024344 0.75352 0.15768 0.071859 0.0421 0.013986 
0.013821 -0.0050863 0.1031 -0.07825 0.090438 0.082875 0.098988 0.095042 
-0.16194 -0.1427 0.099316 -0.76912 0.0095465 0.065612 0.09422 0.12118 
-0.17328 -0.2665 0.033058 -1.2232 -0.10242 -0.0036066 0.040128 0.090274 
-0.20337 -0.061151 -0.05326 -1.37 -0.19926 -0.064275 0.0095465 0.11017 
-0.21882 0.18991 -0.048985 -1.2037 -0.21948 -0.086142 -0.012814 0.084355 
-0.1159 0.3831 0.10195 -0.85034 -0.17772 -0.081539 -0.016595 0.024344 
0.078107 0.6113 0.19402 -0.53976 -0.075291 -0.02942 -0.024323 -0.03912 
0.22016 0.54356 0.10392 -0.3012 0.049006 0.040785 0.019411 -0.028597 
0.24893 0.27014 0.1026 -0.096336 0.1031 0.058213 0.016452 -0.014951 
0.16327 0.099152 0.029112 0.16459 0.083862 0.041114 0.034702 0.025659 
0.058213 0.038319 -0.12346 0.35482 0.076463 0.033058 0.048348 0.0083956 
-0.013636 0.010533 -0.070687 0.45708 0.060679 0.031414 0.036675 0.012835 
-0.075291 -0.082196 0.14075 0.46596 0.031742 0.021056 0.017932 0.017438 
-0.067399 -0.071345 0.23266 0.38885 -0.013636 0.016123 0.014643 0.02122 
0.0026412 -0.01528 0.13795 0.13236 -0.053095 -0.019555 0.0093821 -0.015938 
0.1396 0.043251 -0.05178 -0.24793 -0.10193 -0.021692 0.027961 0.0051074 
0.21358 0.12299 -0.28245 -0.74462 -0.15536 -0.019884 0.022042 0.0082312 
0.147 0.18021 -0.36762 -1.1137 -0.1353 -0.020541 0.012999 0.037661 
0.063639 0.17232 -0.16506 -1.0951 -0.10193 -0.036654 -0.006566 0.04358 
0.066598 0.097015 0.057227 -0.75004 -0.039449 -0.037147 -0.010841 0.019247 
0.16738 -0.22573 0.3364 0.0095465 0.12151 -0.0019624 0.0016547 -0.028104 
0.26866 -0.52743 0.34364 0.99472 0.29793 0.052623 0.021878 -0.025967 
0.1733 -0.3589 0.26472 2.0245 0.4505 0.13746 0.060186 -0.00097594 
-0.058521 -0.024652 0.10787 2.7431 0.55557 0.20339 0.12053 0.09126 
-0.2522 0.1756 -0.33917 2.5315 0.58089 0.25946 0.1659 0.16656 
-0.25795 0.31075 -0.48649 1.4164 0.44113 0.2343 0.17018 0.15916 
-0.17575 0.52104 -0.24612 0.040292 0.11674 0.15259 0.11773 0.12201 
-0.053588 0.67329 -0.041422 -0.83242 -0.16342 0.050814 0.048677 0.055418 
0.052459 0.73691 0.013986 -1.2265 -0.31155 -0.081868 0.0062583 -0.0024557 
0.16541 0.78624 -0.061316 -1.311 -0.32224 -0.12494 -0.028762 -0.02498 
0.2029 0.72327 -0.15783 -0.98927 -0.21915 -0.09091 -0.00064712 -0.0096899 
0.12579 0.39493 -0.25039 -0.56064 -0.044381 -0.0138 0.030427 0.034537 
0.020233 -0.057699 -0.059014 -0.32208 0.034209 0.041278 0.031578 0.066434 
-0.046519 -0.73985 0.26636 -0.25532 0.040456 0.017603 0.023522 0.070215 
-0.061151 -1.2356 0.60834 -0.21734 -0.048985 0.0019835 -0.0095255 0.058213 
-0.067564 -0.96625 0.512 0.10211 0.012177 -0.0036066 0.022864 0.043416 
-0.012814 -0.37567 -0.046519 0.5554 0.10737 0.037332 0.019905 0.039141 
0.019411 0.0060938 -0.38751 0.65487 0.13615 0.093726 0.03947 0.0047785 
0.085341 0.1853 -0.60043 0.43176 0.082546 0.048677 -0.0013048 -0.020541 
0.14075 0.36517 -0.75267 0.03651 -0.023501 0.0059294 0.028125 -0.043066 
0.060186 0.54652 -0.86513 -0.26256 -0.071674 -0.024652 0.018754 -0.026953 
-0.02646 0.38112 -0.59122 -0.30514 -0.063289 -0.035174 -0.0052507 -0.022679 
-0.061151 0.011191 -0.0031133 -0.3737 -0.052273 -0.019061 -0.011005 0.011355 
-0.01528 -0.032543 0.4921 -0.42483 -0.031721 -0.024158 -0.019061 -0.013143 
0.11937 0.014479 0.60851 -0.047998 0.0090533 -0.028433 -0.0088678 -0.029255 
0.13286 -0.06 0.33591 0.56707 0.10195 0.026646 0.0044497 -0.024158 
0.010204 -0.25615 0.052623 1.0644 0.19353 0.057391 0.027961 0.066763 
-0.054246 -0.46298 0.29349 1.0337 0.20734 0.10228 0.031742 0.11839 
-0.1376 -0.34361 0.76306 0.88275 0.24269 0.15999 0.096357 0.16607 
-0.13941 0.171 0.68101 0.65553 0.2782 0.1858 0.171 0.20191 
-0.099131 0.40792 0.41285 0.14782 0.21885 0.13894 0.1322 0.1539 
-0.030899 0.36567 0.2565 -0.18216 0.089123 0.062159 0.068736 0.074983 
0.0013258 0.26094 0.16114 0.046375 0.026646 0.032236 0.055418 0.03651 
0.061172 0.13203 -0.046519 0.36057 0.027468 0.037168 0.025659 0.010369 
0.082875 -0.066741 -0.29528 0.29283 0.0324 0.029605 0.033715 0.0088889 
0.08567 -0.35693 -0.55521 -0.034188 -0.08532 -0.021692 0.0088889 0.020562 
0.086163 -0.58497 -0.76698 -0.38669 -0.19433 -0.059836 -0.021034 0.023851 
0.048348 -0.60684 -0.52809 -0.58629 -0.22573 -0.085156 -0.041751 0.0070803 
-0.00081153 -0.36269 0.0039565 -0.5973 -0.19268 -0.069536 -0.028433 0.0079024 
-0.013307 0.015137 0.20503 -0.40971 -0.12544 -0.049642 -0.0072237 0.01152 
-0.043559 0.2856 0.20306 -0.29396 -0.10505 -0.0406 -0.016924 0.02533 
-0.069536 0.34281 0.17577 -0.27308 -0.077428 -0.058685 -0.02942 0.020233 
0.016781 0.27968 0.18399 -0.059507 -0.014293 -0.014951 -0.029091 -0.017911 
0.13795 0.34068 0.18103 0.159 0.063968 0.029769 -0.021363 -0.047669 
0.22361 0.40644 0.31601 0.098001 0.060844 0.048841 0.02533 -0.048656 
0.17182 0.3318 0.30039 -0.14336 0.041278 0.054596 0.076299 -0.010019 
0.018425 0.2024 0.15423 -0.29643 0.016452 0.051965 0.069393 0.041607 
-0.039284 0.095042 0.023686 -0.40149 0.0056006 0.031249 0.035031 0.039799 
-0.020706 0.13499 -0.001798 -0.45262 -0.038133 0.012999 0.038155 0.046375 
0.052459 0.075148 0.070051 -0.50605 -0.050793 -0.031228 0.020727 0.034209 
0.11592 -0.06707 0.084519 -0.27966 -0.04471 -0.043724 -0.0019624 0.018754 
0.14831 -0.050464 0.067913 0.43258 0.014972 -0.013471 -0.0062372 0.0098754 
0.12201 0.083368 0.076299 0.76865 0.1026 0.047526 -0.0019624 0.047197 
-0.0090322 -0.086142 0.15966 0.30796 0.085012 0.055254 0.024837 0.051308 
-0.041751 -0.30383 0.24466 -0.59517 0.031578 -0.052931 0.013164 0.0093821 
0.025659 -0.24086 0.18054 -1.2574 -0.17295 -0.086471 -0.014787 0.0028056 
0.12562 0.034044 -0.1427 -1.0591 -0.14303 -0.10341 -0.023665 -0.04619 
0.18514 0.2583 -0.42812 -0.12807 0.051308 -0.024323 -0.0060728 -0.012814 
0.12957 0.31782 -0.33326 0.86171 0.26307 0.086985 0.02829 -0.022021 
-0.0011404 0.32226 0.062981 1.2862 0.28067 0.14157 0.012835 0.0227 
-0.08269 0.22033 0.42305 1.2262 0.22411 0.10277 0.047033 0.027303 
-0.016431 -0.12725 0.52548 0.83112 0.19122 0.10343 0.057227 0.051801 
0.074326 -0.35907 0.34051 0.51791 0.19073 0.10359 0.072353 0.063474 
0.069886 -0.056712 -0.020212 0.53814 0.20964 0.12612 0.094384 0.094877 
-0.035503 0.34248 -0.29922 0.56707 0.19155 0.1373 0.1026 0.095864 
-0.045532 0.57217 -0.39113 0.31486 0.065776 0.091425 0.07597 0.088136 
-0.004593 0.56461 -0.36597 -0.19334 -0.10225 0.0092177 0.0421 0.025001 
0.05476 0.36221 -0.27094 -0.8625 -0.24793 -0.062138 -0.0096899 -0.020048 
0.078929 0.1465 -0.14665 -1.4671 -0.29873 -0.099131 -0.02498 -0.046025 
0.11625 -0.032543 -0.0031133 -1.6346 -0.2647 -0.10275 -0.063782 -0.045696 
0.18777 -0.17525 0.11526 -1.4164 -0.21734 -0.10801 -0.083183 -0.072825 
0.19944 -0.24546 0.37109 -0.84968 -0.13136 -0.11343 -0.072332 -0.080059 
0.16459 -0.29002 0.50295 0.20158 0.010369 -0.073154 -0.042737 -0.050958 
0.085835 -0.14582 0.22674 1.3757 0.22822 0.033387 0.025495 0.043251 
-0.033859 0.17166 -0.14171 2.0032 0.42732 0.15818 0.077121 0.10721 
-0.084663 0.44771 -0.40724 1.6402 0.41318 0.20405 0.08008 0.12003 
-0.06148 0.70074 -0.35578 0.72902 0.26801 0.15933 0.072517 0.085177 
-0.0019624 0.51496 -0.23099 -0.15191 0.055418 0.091425 0.048019 0.059857 
0.016945 -0.11508 -0.03501 -0.58875 -0.070194 0.038812 0.081231 0.040785 
0.019083 -0.53762 0.15999 -0.67721 -0.12166 0.024344 0.067256 0.04095 
0.0042853 -0.59632 0.33574 -0.58415 -0.098638 -0.011005 0.051636 0.070215 
0.00050378 -0.40708 0.47698 -0.42401 -0.039284 -0.014129 0.041278 0.077614 
0.11905 -0.13086 0.67098 -0.17394 0.0052718 -0.0034422 0.019576 0.048677 
0.19649 0.031414 0.89903 0.26702 0.10672 0.016781 -0.0013048 -0.0050863 
0.11707 0.17643 0.73396 0.81896 0.18185 0.065283 -0.017253 -0.0057439 
-0.024158 0.34413 0.31075 1.1096 0.21112 0.075641 0.0018191 -0.00097594 
-0.083512 0.35925 -0.15783 0.95197 0.14864 0.065447 0.031249 0.011684 
-0.056055 0.22394 -0.47991 0.45675 0.031414 0.02681 0.051636 0.023357 
0.018425 0.041443 -0.47153 -0.26979 -0.14089 -0.027118 0.027468 0.026317 
0.043087 -0.18084 -0.23428 -0.9817 -0.24086 -0.049807 -0.0091966 0.0069159 
0.0011614 -0.25927 -0.17887 -1.1798 -0.23411 -0.061809 -0.0054151 0.041114 
-0.049149 -0.088115 -0.25088 -1.0284 -0.15388 -0.064275 -0.0021268 0.027468 
-0.043066 0.1373 -0.22573 -0.51115 -0.047834 -0.047176 0.022864 0.023851 
-0.0034422 0.19122 -0.19531 0.26981 0.1077 0.00017495 0.038155 0.037168 
0.038155 0.15522 -0.21455 0.97153 0.21375 0.07038 0.043416 0.051472 
0.064954 0.1442 -0.30284 1.3533 0.29152 0.071531 0.074819 -0.0026201 
0.00050378 0.079094 -0.31501 1.3204 0.31601 0.13138 0.076956 0.066927 
-0.073154 0.014315 -0.26585 0.92385 0.30007 0.16426 0.11494 0.10244 
-0.10028 -0.004593 -0.18561 0.26406 0.15933 0.1419 0.097344 0.12924 
-0.12083 -0.01528 -0.095349 -0.3571 0.0079024 0.1054 0.06183 0.11362 
-0.11409 0.072681 0.17692 -0.87697 -0.14221 0.033058 0.033058 0.085341 
-0.080059 0.50591 0.40348 -0.91643 -0.17558 -0.062302 0.016288 0.046868 
-0.023665 0.78903 0.66786 -0.66406 -0.14319 -0.091568 -0.020377 0.0079024 
0.096686 0.31256 0.70173 -0.5243 -0.15783 -0.086471 -0.051287 -0.042573 
0.14009 -0.58316 0.27064 -0.44555 -0.13119 -0.054904 -0.048163 -0.028104 
0.10129 -1.0618 0.052952 -0.45739 -0.1547 -0.063946 -0.021363 -0.0052507 
0.059035 -0.97677 0.21062 -0.5054 -0.17756 -0.069043 -0.013965 -0.004593 
0.23052 -0.49635 0.402 -0.42533 -0.13432 -0.049642 0.0056006 -0.05326 
0.35399 0.23463 0.42568 -0.020377 -0.047998 -0.0138 0.015794 -0.050629 
0.22345 0.50739 0.15571 0.72869 0.12151 0.061008 0.053774 -0.011005 
0.0083956 0.29579 -0.21307 1.5333 0.33772 0.13582 0.078272 0.061172 
-0.17789 0.23331 -0.42993 1.5396 0.41877 0.21046 0.12743 0.099974 
-0.21356 0.32341 -0.50342 0.8326 0.33953 0.2075 0.1636 0.14864 
-0.20156 0.23759 -0.41546 0.020891 0.15341 0.10441 0.12036 0.14585 
-0.18101 0.012835 -0.32339 -0.5368 -0.012649 0.01826 0.04358 0.092904 
-0.059836 -0.13744 -0.17164 -0.73558 -0.1187 -0.058192 -0.022843 0.00033937 
0.12529 -0.16276 -0.080717 -0.69645 -0.17361 -0.092719 -0.055726 -0.030899 
0.27031 -0.075784 -0.035338 -0.5876 -0.14155 -0.082196 -0.039613 -0.058356 
0.25091 0.079751 0.093069 -0.3931 -0.074962 -0.060329 -0.022843 -0.026296 
0.040292 0.26192 0.17182 -0.16736 -0.012814 0.019905 0.024015 0.044402 
-0.10225 0.32851 0.30023 -0.043888 0.0065871 0.049828 0.048184 0.051472 
-0.12182 0.2297 0.23989 -0.15766 -0.00031829 0.038483 0.046704 0.038977 
-0.049314 0.084355 0.056404 -0.41382 -0.030077 0.0092177 0.036839 0.011848 
0.023193 -0.14188 -0.078579 -0.58695 -0.083347 -0.026789 0.0072447 -0.022514 
0.059528 -0.061973 -0.33276 -0.50063 -0.10587 -0.033201 0.0098754 -0.0034422 
0.050321 0.25567 -0.39935 -0.34263 -0.074633 -0.0032777 0.030756 0.069886 
0.02829 0.41006 0.0052718 -0.35233 -0.018897 0.0016547 0.066269 0.08978 
0.10228 0.21391 0.58121 0.037004 0.075312 -0.0019624 0.047197 0.059364 
0.15423 -0.088608 0.84576 1.2691 0.19813 0.015465 0.017767 0.022371 
0.10622 -0.48567 0.55178 2.3181 0.31536 0.0786 0.029934 0.047691 
-0.015444 -0.58892 -0.0019624 1.8096 0.29382 0.12776 0.041443 0.065612 
-0.06707 -0.36301 -0.35183 0.14338 0.11642 0.091425 0.070708 0.066434 
0.062323 0.081889 -0.37979 -1.4057 -0.047012 0.044073 0.0032988 0.0042853 
0.18744 0.30927 -0.1723 -2.1173 -0.17361 0.0088889 -0.017911 -0.012814 
0.12825 0.32407 0.0060938 -2.3914 -0.29281 -0.089266 -0.039449 -0.049149 
0.13828 0.42847 0.092411 -2.1388 -0.29149 -0.13053 -0.054082 -0.067399 
0.087643 0.44722 0.2976 -0.16539 -0.012156 -0.088773 -0.013143 -0.045861 
0.040292 0.19237 0.67805 2.924 0.43801 0.068571 0.030592 0.034209 
0.015465 -0.071509 0.67164 3.8046 0.72491 0.25156 0.11674 0.077778 
0.011684 -0.36318 0.17396 3.8102 0.67575 0.305 0.12398 0.10852 
0.08978 -0.48369 -0.41908 1.4993 0.35366 0.26801 0.10902 0.071037 
0.11526 -0.3839 -0.82995 -0.54535 -0.01528 0.11017 0.089945 0.054267 
0.049499 -0.16457 -0.81828 -1.639 -0.27489 -0.026789 0.04654 0.041772 
-0.022185 0.036017 -0.29692 -1.8561 -0.40116 -0.13448 -0.0026201 0.022535 
-0.071016 0.15637 0.1613 -1.2582 -0.33802 -0.17575 -0.029913 -0.015773 
-0.041257 0.30927 0.35728 -0.34049 -0.20863 -0.10768 -0.033859 -0.0027845 
-0.010019 0.42157 0.66326 0.081231 -0.080881 -0.044546 -0.0080457 0.0051074 
0.0013258 0.46925 0.85546 -0.098802 -0.009361 -0.0096899 -0.003771 0.048677 
-0.0034422 0.3683 0.60111 -0.31287 0.018754 0.011684 -0.0019624 0.036839 
0.033551 0.19303 0.11346 -0.34345 -0.017582 -0.023501 0.0067515 0.025659 
0.081889 -0.23461 -0.27818 -0.23428 -0.0087034 -0.018568 -0.022514 -0.0054151 
0.1807 -0.80874 -0.31386 -0.1085 0.034537 -0.01676 -0.036983 -0.049642 
0.24976 -1.0037 -0.23839 0.11592 0.096193 -0.029913 -0.042737 -0.063618 
0.17297 -0.42894 -0.25647 0.40463 0.14667 0.0036276 -0.010512 -0.01676 
0.052952 0.52137 -0.31731 0.68858 0.21326 0.085835 0.032893 0.031249 
0.011848 0.97943 -0.34624 0.87667 0.24482 0.13384 0.084519 0.045882 
0.044402 0.75089 -0.37798 0.84362 0.26735 0.15703 0.097015 0.056898 
0.058871 0.34544 -0.26667 0.5485 0.21704 0.12908 0.068078 0.04506 
