0.038648 -0.15372 0.11905 -0.0059084 0.011848 -0.034845 -0.053424 0.033715 
0.033715 0.028947 0.038155 0.00297 0.021056 -0.028433 -0.068714 0.0044497 
0.0044497 0.23068 -0.010183 0.025988 0.020398 -0.0067304 -0.071016 0.016616 
0.014808 0.2292 0.0028056 0.024179 0.014972 0.012013 -0.0024557 0.016781 
0.012999 0.10326 0.019576 0.041278 0.0075736 0.038319 0.073504 0.03536 
1.0539e-005 -0.0026201 -0.0060728 0.045224 0.0083956 0.018589 0.10787 0.015465 
0.0028056 -0.046519 -0.00097594 0.06479 0.020233 0.026646 0.18251 0.031085 
0.036675 0.015137 -0.0095255 0.017932 0.022535 0.068242 0.14239 0.01152 
0.039963 0.054925 0.0070803 0.0095465 0.02829 0.087643 0.034702 0.016123 
0.037826 0.071531 0.048677 0.034044 0.014972 0.087314 -0.0054151 0.015465 
0.055747 0.055254 0.10178 0.01152 0.00050378 0.029276 -0.029748 0.027139 
0.056733 0.043251 0.11757 0.011355 -0.006566 -0.039778 -0.017088 0.046046 
0.056569 0.042923 0.099152 0.031578 -0.0062372 -0.05326 0.012342 0.04654 
0.073668 -0.017417 0.089945 0.067256 0.0065871 -0.085485 -0.0054151 0.05772 
0.077943 -0.080717 0.053938 0.054103 0.0023123 -0.076442 -0.032872 0.061501 
0.06035 -0.060658 0.041772 0.065612 0.0085601 -0.060987 -0.080388 0.047855 
0.01711 -0.032215 0.026974 0.063968 0.014643 -0.037147 -0.038627 0.049006 
-0.0083746 -0.02646 0.0227 0.049335 0.031414 -0.0011404 0.032729 0.046375 
0.00050378 -0.03912 0.040785 0.025495 0.041607 0.029441 0.046375 0.051965 
0.010369 -0.0060728 0.037497 -0.0032777 0.028125 0.041278 0.049335 0.021878 
0.022206 0.053445 -0.0039354 0.025166 0.034866 0.080573 0.028619 0.014479 
0.030592 0.062159 0.00297 0.0072447 0.039634 0.1419 0.057391 0.011684 
0.039141 0.066763 0.014315 -0.0027845 0.041114 0.16969 0.093069 0.0041209 
0.061666 0.041936 0.045553 0.016123 0.034866 0.19402 0.12266 0.0054362 
0.062159 0.061337 0.045389 0.025001 0.036017 0.16031 0.14683 0.021549 
0.042758 0.062488 0.017438 0.0092177 0.022042 0.088301 0.16738 0.038483 
0.038648 0.06331 0.030427 0.022206 0.016781 -0.015609 0.15094 0.052459 
0.049664 0.026646 0.038977 0.057062 0.0072447 -0.097158 0.10754 0.038319 
0.038812 0.031907 0.087314 0.016452 0.0065871 -0.09239 0.027796 0.027796 
0.028125 0.021878 0.041443 0.017274 0.020398 -0.071345 0.062652 0.048677 
0.037497 0.021384 0.041607 0.032564 0.037004 0.0085601 0.096521 0.058377 
0.037168 -0.0096899 0.042758 0.049499 0.044073 0.037004 0.13894 0.079422 
0.025988 -0.022843 0.037497 0.044238 0.022371 0.013164 0.098659 0.048348 
0.0059294 0.046046 -0.00031829 0.045389 0.036839 0.017438 -0.05178 0.028454 
-0.0014692 0.11888 -0.053424 0.058706 0.054103 0.058213 -0.14648 0.035195 
-0.0057439 0.18004 -0.064275 0.033551 0.055911 0.090274 -0.12314 0.06183 
-0.017417 0.19468 -0.067564 0.022042 0.061501 0.073339 -0.054904 0.052952 
-0.014787 0.18317 -0.003771 0.0095465 0.035853 0.044402 0.035524 0.053609 
0.02681 0.19764 0.09981 0.013657 0.030756 0.023193 0.093233 0.022371 
0.076956 0.037826 0.19714 -0.016595 0.012835 0.0062583 0.057227 -0.012814 
0.10524 -0.3127 0.30894 -0.023172 0.010533 -0.00031829 0.036675 -0.06707 
0.12201 -0.26174 0.23298 0.0098754 0.0421 0.0079024 0.046868 -0.024652 
0.083533 0.021384 0.058871 0.011355 0.064132 0.050486 0.050979 0.0018191 
0.035853 0.20323 -0.065262 0.036017 0.075148 0.087314 0.10178 0.05772 
-0.0014692 0.23233 -0.1644 0.069722 0.077778 0.12825 0.14404 0.080573 
-0.016266 0.14568 -0.096665 0.074983 0.08304 0.14124 0.14913 0.098823 
0.0088889 0.079094 -0.0024557 0.051801 0.072188 0.17988 0.093233 0.081724 
0.0013258 0.16722 0.022864 0.035853 0.062817 0.15078 -0.00097594 0.071366 
-0.016595 0.22148 0.023193 0.040785 0.03388 0.055582 -0.078744 0.034373 
0.0079024 0.14601 0.018096 0.012342 0.026481 0.0013258 -0.13645 -0.0016336 
0.021056 0.031578 0.021056 0.01267 0.033387 -0.043888 -0.092554 -0.022021 
0.044073 -0.041586 0.039141 -0.0050863 0.029769 -0.049642 0.043251 0.0039565 
0.03092 0.007738 0.038155 0.014479 0.044238 -0.028926 0.14058 1.0539e-005 
0.03536 0.004943 0.036675 0.013821 0.053774 0.068736 0.16196 0.017603 
0.018425 0.033551 -0.023007 0.02533 0.039305 0.17889 0.14305 0.0056006 
0.0062583 0.11444 -0.026131 0.052952 0.056898 0.21704 0.13565 0.03536 
0.026974 0.18662 -0.047341 0.057884 0.051472 0.17692 0.1174 0.037661 
0.010862 0.17676 0.0019835 0.052952 0.061337 0.080573 0.07597 0.042429 
0.040292 0.027961 0.092576 0.059693 0.050486 -0.035996 0.027632 0.0421 
0.0421 -0.22622 0.11165 0.058871 0.038319 -0.1011 -0.024158 0.034866 
0.041278 -0.20616 0.088794 0.020562 0.032071 -0.11541 -0.014951 0.026646 
0.017932 -0.05326 0.015959 0.031578 0.0227 -0.065591 -0.014622 0.019411 
0.011355 0.037826 0.016945 0.053445 0.030098 -0.017088 -0.084334 -0.0064016 
0.035688 -0.027775 0.074161 0.049828 0.023522 -0.084663 -0.15898 -0.006566 
0.089945 -0.013965 0.10277 0.0098754 0.013492 -0.10209 -0.17312 -0.0406 
0.11231 0.21802 0.0786 -0.0067304 0.013492 -0.03057 -0.081703 -0.050793 
0.07038 0.38079 -0.028104 0.04917 0.026974 0.077778 -0.0095255 -0.0040998 
0.022535 0.26389 0.031907 0.094055 0.072353 0.16179 0.013657 0.012177 
-0.0055795 0.012013 0.024673 0.040292 0.027796 0.13762 0.058049 0.031414 
-0.0082102 -0.13119 0.01711 0.038483 -0.0052507 0.10918 0.050814 0.046375 
0.018589 -0.14796 0.057555 0.045718 0.012013 0.071366 0.033551 0.039305 
0.029441 -0.086471 0.070051 0.035195 0.028783 0.0036276 0.035853 0.04506 
0.048513 -0.0082102 0.084355 0.013657 0.036017 -0.015116 0.034702 0.026646 
0.01974 0.079094 0.01563 0.039305 0.037332 0.022042 0.11 0.039141 
0.021878 0.10721 -0.029584 0.016945 0.038483 0.034044 0.18481 0.0083956 
0.022535 0.11033 -0.021856 0.012999 0.030098 0.010204 0.19862 0.044402 
0.051143 0.067091 -0.011005 0.020069 0.013492 -0.036489 0.17856 0.052459 
0.041772 0.0018191 0.011191 0.044567 -0.0054151 -0.061809 0.05772 0.037004 
0.038319 -0.031721 0.044896 0.03388 -0.018733 -0.047669 -0.0064016 0.047526 
0.032236 -0.038791 0.040621 0.038319 -0.0044286 0.042265 -0.03057 0.022371 
0.029934 -0.047341 0.032564 0.054596 0.0067515 0.11625 -0.0027845 0.045553 
0.015137 0.016616 0.013164 0.022864 0.011026 0.11083 0.053938 0.039963 
0.0079024 0.11691 0.034866 0.037497 0.00099702 0.060844 0.043909 0.045718 
-0.0016336 0.19681 0.032564 0.038812 0.024837 0.037168 0.017438 0.057391 
0.0019835 0.26784 0.035031 0.08156 0.0592 0.077121 -0.0075525 0.063803 
0.0064227 0.32588 0.026317 0.034373 0.043909 -0.011827 -0.035338 0.054267 
0.019411 0.24318 0.059693 -0.012978 0.0079024 -0.11541 -0.089759 0.053774 
0.055254 0.06183 0.11362 -0.017746 -0.012649 -0.13316 -0.12248 0.028125 
0.06035 -0.12988 0.082711 0.0039565 -0.0073881 -0.063782 -0.12182 0.04506 
0.076956 -0.30268 0.047526 0.030756 0.0018191 0.012342 -0.086142 0.022535 
0.085506 -0.36581 0.064461 0.013821 -0.0068948 0.004943 -0.045203 0.0065871 
0.13171 -0.49487 0.13532 -0.0022913 -0.032872 -0.1159 -0.050464 -0.031392 
0.15209 -0.59073 0.16278 -0.024816 -0.040435 -0.26552 -0.074798 -0.024652 
0.075312 -0.23444 -0.026296 0.010204 -0.025309 -0.30728 -0.07562 -0.0036066 
-0.0080457 0.39871 -0.19614 0.047526 0.0095465 -0.23116 -0.13892 0.037004 
-0.053424 0.66227 -0.18298 0.0592 0.0092177 -0.13875 -0.26963 0.038483 
-0.054904 0.58089 -0.037311 0.010204 -0.012649 -0.066906 -0.25631 0.043416 
-0.01676 0.3022 0.1248 0.01711 -0.022679 -0.044052 -0.14813 0.021713 
0.0079024 0.11263 0.14996 0.051143 -0.016924 0.038812 0.013328 0.036182 
0.010697 0.019247 0.12201 0.014315 0.014479 0.13828 0.12053 0.034373 
0.0087245 -0.01528 0.04917 0.02122 0.040456 0.24663 0.11987 0.06331 
0.015959 0.048348 0.02829 0.012177 0.04095 0.23266 0.0080668 0.0088889 
0.041443 0.087314 0.036346 0.0069159 0.014315 0.14798 -0.079072 -0.043395 
0.06479 0.074819 0.0039565 -0.015116 0.0032988 0.08304 -0.011334 -0.086142 
0.071695 0.017767 0.0019835 -0.027118 0.016616 0.086163 0.31634 -0.037476 
0.053938 0.029112 0.027796 0.0082312 0.048019 0.11592 0.67674 0.044567 
0.0032988 -0.016431 0.02533 0.0041209 0.070051 0.12168 0.89459 0.16541 
-0.010841 0.0059294 0.020398 0.018425 0.099152 0.30796 0.79824 0.16738 
0.029441 0.093069 0.030427 -0.03205 0.086657 0.3877 0.34133 0.072353 
0.047362 0.18465 -0.0077169 0.02681 0.040292 0.21112 -0.031721 0.060844 
0.04654 0.11773 -0.0011404 0.00050378 0.036839 0.03092 -0.26453 0.070051 
0.015301 0.033222 0.053281 0.039141 0.034866 -0.13103 -0.39656 0.042594 
-0.0013048 -0.044217 0.10622 0.058871 0.03536 -0.19466 -0.44884 0.025495 
0.0085601 0.038155 0.069064 0.021878 0.018096 -0.17394 -0.42681 -0.019555 
-0.012649 0.088465 0.020069 0.013986 0.0065871 -0.11278 -0.31649 -0.025967 
0.0098754 0.076627 -0.0075525 -0.0067304 -0.0057439 -0.121 -0.18907 -0.019061 
0.020727 0.057391 0.025001 -0.00081153 -0.013143 -0.16638 -0.071181 -0.014787 
0.038319 0.081395 0.059857 -0.045039 -0.0138 -0.10489 0.030427 0.011848 
0.02681 0.11543 -0.025474 -0.030735 0.014972 0.0042853 0.12184 0.019411 
0.030098 0.083862 -0.019884 -0.020706 0.043416 0.13138 0.17544 0.056404 
0.037497 0.064625 0.033551 -0.010183 0.03947 0.17232 0.18136 0.040128 
0.053281 -0.00097594 0.10392 -0.012814 0.037168 0.2098 0.17922 0.055254 
0.058871 -0.041257 0.091425 0.017438 0.030592 0.18794 0.18218 0.0421 
0.040785 -0.051451 0.037826 0.057391 0.03388 0.15571 0.16623 0.056733 
0.050814 0.025659 0.011355 0.036182 0.03092 0.14108 0.17495 0.03536 
0.03388 0.12924 0.011191 0.031414 0.046211 0.14979 0.22953 0.044896 
0.045224 0.087479 0.01563 0.050157 0.058706 0.15061 0.26258 0.027468 
0.0227 -0.049807 -0.015938 0.063968 0.05772 0.11115 0.23594 0.054432 
0.00297 -0.048985 -0.012649 0.054267 0.056898 0.061501 0.13878 0.043745 
-0.0019624 0.023357 0.070544 0.023686 0.047691 0.026317 0.0014903 0.016781 
0.020069 0.087808 0.11313 0.034702 0.037168 0.004943 -0.082032 -0.018897 
0.045718 0.094548 0.11296 0.0090533 0.020891 0.0014903 -0.11738 0.0039565 
0.031742 0.095206 0.068242 0.022535 0.015794 0.014808 -0.046025 0.022371 
0.014972 0.12414 -0.0052507 0.029769 0.019247 0.055582 0.094713 0.063474 
0.0082312 0.11543 -0.031064 0.049828 0.010533 0.069064 0.11625 0.078929 
0.01004 0.063639 -0.022185 0.055089 0.025166 0.055582 0.03947 0.09274 
0.01711 0.037826 -0.001798 0.065283 0.024837 0.017603 -0.035667 0.064625 
0.019905 0.028125 -0.0096899 0.055582 0.026152 0.040128 -0.0064016 0.072353 
0.020398 0.015959 -0.004593 0.038319 0.024179 0.010204 0.045389 0.014972 
0.042265 0.015794 0.036839 0.030098 0.034702 -0.028433 0.12201 -0.0095255 
0.053938 -0.026296 0.051801 0.024344 0.023686 -0.069208 0.070873 -0.040928 
0.046046 -0.039778 0.086985 0.038648 0.0046141 -0.070194 0.013821 -0.038133 
0.044073 -0.044874 0.081724 0.023686 0.0082312 -0.11097 -0.017746 -0.042901 
0.049335 -0.022679 0.054432 0.042923 0.00297 -0.10489 -0.055068 -0.0067304 
0.051636 -0.019719 0.043909 0.082217 -0.013965 -0.13234 -0.12774 -0.017582 
0.05213 0.012835 0.045224 0.065118 -0.02235 -0.12067 -0.16227 -0.003771 
0.071037 0.086657 0.0075736 0.051636 -0.016266 -0.10784 -0.23576 0.037332 
0.050979 0.07038 1.0539e-005 0.067913 0.0014903 -0.066084 -0.25861 -0.0052507 
0.083204 0.070215 0.058871 0.1105 0.0088889 -0.020048 -0.218 -0.029913 
0.063968 0.0028056 0.046211 0.085835 -0.0052507 -0.0039354 -0.17723 -0.021856 
0.085506 -0.068714 0.049992 0.11 0.00066819 0.021549 -0.10883 -0.026296 
0.050486 -0.062631 0.061008 0.099481 0.013657 0.10721 -0.033694 0.010533 
0.020398 0.063145 0.015959 0.069558 0.021056 0.1756 0.061501 0.019083 
0.01563 0.13565 0.016945 0.016123 0.010697 0.15867 0.021713 0.017603 
0.022371 0.10556 0.034373 0.046046 0.0059294 0.058871 0.0074092 0.031907 
0.043251 0.0421 0.051965 0.045224 0.00033937 0.005765 0.062981 0.0421 
0.053938 0.036346 0.053116 0.0064227 -0.0040998 -0.037147 0.090109 0.028619 
0.0592 0.0074092 -0.0027845 -0.014129 -0.0016336 -0.10604 0.11313 0.0021479 
0.05476 0.0041209 -0.0014692 0.020398 0.0085601 -0.12396 0.11674 -0.01528 
0.049499 0.023028 0.0079024 0.066105 0.011848 -0.073154 0.12349 -0.0055795 
0.025495 0.055089 0.037332 0.072188 0.010862 -0.036489 0.19698 -0.010841 
0.040128 0.018425 0.078272 0.080409 0.0070803 0.027139 0.25206 -0.017582 
0.049828 -0.014129 0.077778 0.089287 0.01152 0.086492 0.21128 0.0013258 
0.038648 -0.012978 0.099316 0.046868 -0.0047575 0.067256 0.14881 0.016123 
0.047855 0.076627 0.081395 0.01415 -0.00064712 0.089945 0.087972 0.030427 
0.032729 0.11757 0.038812 0.030756 0.012013 0.10178 0.077285 0.0324 
0.013164 0.10688 0.06331 0.040128 0.016123 0.082546 0.0052718 0.058213 
0.0031344 0.068078 -0.0042642 0.033715 0.022371 0.076299 -0.068386 0.036182 
0.017438 0.079751 -0.027118 0.030263 0.005765 0.028947 -0.13662 0.040621 
0.027632 0.10606 -0.068057 0.0421 -0.0029489 -0.010841 -0.14188 0.0060938 
0.022864 0.081724 -0.047012 0.01826 -0.013307 -0.081045 -0.089924 0.045224 
0.011355 0.033715 0.020069 -0.0014692 -0.008539 -0.086142 -0.042079 0.055582 
0.0046141 0.036017 0.007738 0.016452 0.0018191 -0.047998 -0.055561 0.061008 
0.0062583 0.086163 0.024837 0.033551 -0.0036066 -0.0014692 -0.090088 0.060186 
0.020727 0.084684 0.025495 0.0074092 0.0011614 0.025988 0.020398 0.056898 
0.017603 0.061501 0.076792 0.012177 0.0046141 0.040292 0.13943 0.0051074 
0.030427 0.056569 0.11346 0.014643 0.016288 0.087479 0.17149 0.053281 
0.025988 -0.03616 0.13187 -0.0082102 0.0059294 0.12201 0.17659 0.040292 
0.0324 -0.20666 0.15423 0.0052718 0.0014903 0.09833 0.16738 0.031249 
0.031414 -0.15421 0.099974 0.0092177 0.0047785 0.12497 0.18119 0.033058 
0.039963 -0.041751 0.052459 0.01826 0.005765 0.17791 0.16952 0.039141 
0.023522 -0.0034422 0.042923 -0.010676 0.0052718 0.18317 0.16311 0.048513 
0.018425 0.025001 0.055254 -0.016595 0.0070803 0.12135 0.12414 0.075148 
0.037332 0.06742 0.042429 -0.0062372 0.0028056 0.047362 0.041936 0.061501 
0.022371 0.098823 -0.012485 -0.00064712 -0.0029489 -0.0011404 -0.0068948 0.058213 
0.016452 0.12135 -0.040928 -0.031886 -0.014293 -0.022843 -0.074304 0.044073 
0.021384 0.094055 -0.022843 -0.051615 -0.0060728 0.027961 -0.07562 0.071202 
0.016945 -0.02235 -0.051944 0.01004 0.0037921 0.045718 0.055747 0.10573 
-0.011005 -0.0049219 -0.045039 -0.0096899 0.0044497 0.12595 0.079587 0.097837 
-0.026953 0.044073 -0.0011404 -0.013143 -0.010183 0.051636 0.076792 0.066269 
-0.0047575 0.11921 0.030427 0.0085601 -0.0082102 -0.051287 0.050486 0.067585 
0.024837 0.099152 0.038648 0.045718 1.0539e-005 -0.1205 0.029605 0.046704 
0.047362 0.0093821 0.027468 0.036346 0.02533 -0.093376 0.060515 0.057391 
0.060186 -0.056548 0.045882 0.024508 0.017767 -0.051944 0.09126 0.04506 
0.05476 -0.045696 0.029112 0.020069 0.03388 -0.045039 0.13598 0.046868 
0.083533 0.014808 0.055089 -0.018897 -0.011005 -0.038956 0.096357 0.043909 
0.035524 0.11428 0.031414 -0.014458 -0.023172 -0.016924 -0.020048 0.043745 
0.018754 0.18218 -0.0078813 -0.027447 -0.03764 -0.025309 -0.18134 0.037004 
0.041278 0.2948 -0.018075 -0.039284 -0.044052 -0.11886 -0.32487 0.026317 
0.063474 0.40644 0.016288 -0.02942 0.010862 -0.1404 -0.31681 0.013328 
0.069064 0.35334 0.1151 0.013821 0.041443 0.017767 -0.22228 0.046211 
0.056404 0.092904 0.16064 0.062488 0.096521 0.18152 -0.14895 0.052623 
0.0036276 -0.09798 0.071202 0.055911 0.10293 0.23611 -0.096665 0.03651 
-0.013143 -0.09239 -0.031557 0.067749 0.085341 0.18267 -0.082032 0.044567 
-0.026296 -0.089759 -0.061809 0.043251 0.027961 0.076299 0.013164 0.044073 
0.022535 -0.18331 0.065447 0.045553 -0.0024557 0.024673 0.23331 0.041278 
0.077449 -0.47893 0.18892 -0.016924 0.011684 0.027632 0.451 0.053116 
0.066763 -0.44489 0.082546 0.024508 0.082711 0.14486 0.53156 0.078929 
-0.029255 -0.046683 -0.043066 0.073668 0.090931 0.33574 0.45544 0.11937 
-0.064933 0.37487 -0.062138 0.058377 0.053609 0.31125 0.29612 0.10688 
-0.031392 0.53567 -0.0087034 0.01711 -0.0013048 0.1345 0.084848 0.035688 
0.031414 0.46678 0.00099702 0.023522 -0.010183 -0.08121 -0.15322 0.023851 
0.050157 0.26587 0.026317 0.045224 0.010862 -0.20649 -0.34937 -0.013143 
0.10228 0.05065 0.058213 0.02122 -0.010348 -0.24053 -0.40067 -0.0090322 
0.1197 0.0024767 0.070708 0.009711 -0.018568 -0.19761 -0.24382 -0.029255 
0.11806 0.066763 0.062323 0.042923 -0.0073881 -0.15405 -0.12314 0.030592 
0.090931 0.070873 0.014643 0.074326 0.01267 -0.12116 -0.11985 0.0421 
0.060022 0.051143 0.0021479 0.10162 0.037332 -0.080552 -0.14747 0.058049 
0.024673 0.15374 -0.020212 0.12891 0.088301 0.0088889 -0.15552 0.064132 
0.0041209 0.33394 -0.03501 0.14634 0.095864 0.11674 -0.051615 0.04358 
0.01711 0.30829 0.023851 0.090109 0.077943 0.076956 -0.010019 -0.012814 
0.024015 0.10754 0.027139 0.040456 0.036839 -0.019226 0.047033 -0.028104 
0.047855 -0.086471 0.046375 0.015959 0.010533 -0.010348 0.15292 -0.063124 
0.090274 -0.15635 0.070051 0.019247 0.0036276 0.10902 0.25995 -0.046519 
0.069722 -0.081374 0.080244 0.024673 0.026974 0.16393 0.35761 0.016616 
0.057391 0.042594 0.057227 0.027303 0.019411 0.047691 0.4778 0.082382 
0.020069 0.16114 -0.0027845 0.074326 0.037332 -0.0059084 0.42371 0.10014 
-0.023007 0.18415 -0.031392 0.092247 0.093398 0.0095465 0.25502 0.17495 
-0.028104 0.13713 -0.035832 0.11642 0.12201 0.20767 0.079916 0.092904 
-0.010676 0.067585 -0.038791 0.077121 0.13105 0.35301 -0.059014 0.06331 
0.0421 -0.09239 0.064461 0.088301 0.06035 0.2731 -0.20551 -0.011334 
0.091425 -0.28443 0.15916 0.050157 0.005765 0.074326 -0.21899 -0.047834 
0.090109 -0.16079 0.12168 0.032893 -0.025309 -0.036489 -0.20452 -0.049314 
0.056404 0.10047 0.020562 0.061008 -0.0042642 0.06479 0.018589 0.015794 
-0.0062372 0.24186 -0.022843 0.072846 -0.013636 0.18761 0.2149 0.052952 
-0.0016336 0.16064 0.045718 0.069393 -0.018568 0.19632 0.27212 0.06035 
0.015137 0.043909 0.088301 0.058706 0.0028056 -0.0059084 0.21737 0.014972 
0.0075736 0.0013258 0.1003 0.050321 0.020398 -0.31945 0.031085 -0.023336 
0.0082312 0.01563 0.04095 0.0028056 0.0023123 -0.59763 -0.13612 -0.073811 
-0.041751 0.13286 -0.077593 0.023686 -0.014129 -0.7581 -0.12182 -0.063289 
-0.077922 0.32341 -0.1986 0.082053 -0.004593 -0.69217 -0.12494 0.0042853 
-0.068879 0.24828 -0.21537 0.083697 0.04654 -0.32224 -0.0034422 0.057884 
0.042265 -0.1113 -0.049149 0.078765 0.064132 0.18481 0.1493 0.027796 
0.14913 -0.36334 0.084519 0.044238 0.044896 0.51808 0.19764 -0.01232 
0.1881 -0.3155 0.10425 0.058049 -0.0011404 0.51709 0.083533 -0.03616 
0.18284 -0.016266 0.10113 -0.011334 -0.012814 0.47352 -0.069043 -0.030242 
0.14256 0.1978 0.12365 -0.042573 -0.0050863 0.54356 -0.12675 -0.050629 
0.11806 0.28823 0.10343 -0.022514 0.023522 0.67756 0.018918 -0.023994 
0.015301 0.25633 0.058542 -0.0026201 0.062652 0.66786 0.52055 0.069229 
-0.056712 0.15587 0.10507 -0.018568 0.050321 0.39164 0.8206 0.12464 
-0.083183 0.0036276 0.19287 -0.034516 0.037168 0.022042 0.72541 0.1197 
-0.11311 -0.063782 0.17725 0.046046 0.04506 -0.26848 0.52235 0.14404 
-0.14862 -0.054739 0.1396 0.069722 0.097344 -0.53121 0.2126 0.15522 
-0.079401 -0.10078 0.086821 0.091918 0.10787 -0.60684 -0.15158 0.092247 
-0.022185 -0.10505 -0.017417 0.073668 0.097344 -0.46183 -0.35447 0.022371 
0.047362 0.0046141 -0.084663 0.046211 0.019905 -0.27325 -0.4906 -0.045368 
0.078436 0.10408 -0.080388 0.023028 -0.033365 -0.16292 -0.5705 -0.082196 
0.09274 0.082711 0.018754 -0.0031133 -0.050464 0.014808 -0.53992 -0.11541 
0.094548 0.040292 0.074983 0.018754 -0.043559 0.18136 -0.38718 -0.08269 
0.08008 0.018096 0.089287 -0.0082102 -0.052602 0.29069 -0.19466 -0.0868 
0.071695 0.033715 0.041114 -0.015609 -0.050464 0.35564 -0.055397 -0.038462 
0.042923 0.010697 -0.014129 -0.0072237 -0.040106 0.31486 0.061995 -0.029584 
0.045553 -0.016102 -0.043066 0.012999 -0.041751 0.1294 0.080738 -0.019555 
0.039141 -0.0052507 -0.041093 -0.024652 -0.040764 -0.026624 0.19205 -0.016595 
0.013492 0.06479 -0.028104 -0.03353 -0.036983 -0.10719 0.32769 0.045224 
-0.02498 0.09274 -0.087293 0.026646 -0.010676 -0.099131 0.38671 0.084355 
-0.043888 0.078107 -0.073976 0.0042853 0.062323 -0.17904 0.33985 0.13171 
-0.073482 0.03947 -0.029584 0.015465 0.089452 -0.17624 0.21243 0.098659 
-0.011992 -0.025638 0.0019835 -0.0072237 0.070544 -0.16654 0.037661 0.081067 
0.05213 -0.1159 0.058213 0.00297 0.020398 -0.14961 -0.12182 0.011355 
0.087479 -0.15372 0.13351 -0.059343 -0.010676 -0.098473 -0.3178 -0.013471 
0.12546 -0.097322 0.18284 -0.03353 -0.042408 0.011191 -0.37239 -0.039613 
0.085177 0.088465 0.13072 -0.024487 -0.031228 0.082546 -0.29774 -0.017088 
0.017603 0.31914 0.044896 -0.00097594 -0.028762 0.16936 -0.11212 0.0013258 
-0.054575 0.5069 0.11806 -0.039778 -0.024487 0.31519 0.14108 0.056404 
-0.109 0.45741 0.15061 -0.036983 -0.026131 0.34248 0.22986 0.091753 
-0.10719 0.2736 0.19468 0.024673 0.0028056 0.25271 0.059364 0.11642 
-0.025309 -0.093541 0.31601 0.021878 0.031249 0.12168 -0.17756 0.067091 
0.11461 -0.50605 0.34775 0.00017495 0.022535 -0.13563 -0.29413 -0.021363 
0.20125 -0.65797 0.17988 0.0016547 0.0075736 -0.46495 -0.41612 -0.072003 
0.18415 -0.59993 -0.11771 0.012999 0.00017495 -0.62427 -0.75087 -0.073811 
0.14733 -0.41842 -0.19219 0.015301 0.0023123 -0.66718 -1.0386 -0.041257 
0.084026 -0.20288 -0.074633 0.020069 -0.00031829 -0.60273 -1.0144 -0.0068948 
0.020069 0.06035 0.0421 0.047362 0.0085601 -0.27884 -0.75202 -0.02087 
-0.021199 0.25946 0.037661 0.0079024 0.0067515 0.081724 -0.38192 -0.034681 
-0.014129 0.29316 -0.065262 -0.011663 -0.014951 0.329 -0.0098543 -0.027282 
0.014315 0.25715 -0.089431 -0.025309 0.010862 0.39247 0.47402 -0.028762 
0.0786 0.22164 -0.057041 -0.047834 0.0034632 0.18465 1.1161 -0.069208 
0.11099 0.15111 0.058542 -0.078908 0.00050378 -0.064275 1.2722 -0.0022913 
0.061172 -0.020706 0.18514 -0.049642 1.0539e-005 -0.055068 0.83277 0.080902 
0.025166 -0.026624 0.17265 -0.0072237 0.056733 0.37076 0.59815 0.16196 
-0.054575 0.24992 -0.022514 -0.001798 0.11855 0.94917 0.83326 0.25123 
-0.11771 0.32851 -0.11228 0.035031 0.09981 0.76339 0.70222 0.25074 
-0.041915 0.069064 0.039305 0.026317 0.037332 0.20175 0.060515 0.13582 
0.043745 -0.25006 0.26505 0.0018191 -0.023994 -0.20156 -0.5539 -0.0026201 
0.11115 -0.40478 0.27146 -0.050629 -0.052602 -0.25236 -0.58349 -0.063946 
0.10556 -0.3349 0.18761 -0.047834 -0.062796 -0.17147 -0.2374 -0.023336 
0.090438 -0.17427 0.072681 0.019247 -0.029584 -0.038133 0.18136 0.054432 
0.077778 0.10392 -0.0088678 0.032893 0.015794 -0.057534 0.44031 0.077614 
0.053116 0.22361 -0.042901 0.068571 0.023686 -0.24316 0.18333 0.09126 
-0.027611 0.26373 -0.06707 0.070708 0.0087245 -0.39508 -0.24908 0.062817 
-0.1062 0.32128 -0.05441 0.095371 0.012013 -0.36219 -0.35463 0.078436 
-0.12231 0.3877 -0.061809 0.066434 0.038648 -0.17772 -0.27884 0.049006 
-0.05326 0.28461 -0.039942 0.068242 0.06183 0.031085 -0.010183 0.053938 
0.0064227 0.17347 -0.0098543 0.057062 0.028619 0.0047785 0.25781 0.021056 
0.04654 0.09274 -0.011827 0.0080668 -0.0036066 -0.034516 0.32325 0.046704 
0.024837 -0.044052 0.0011614 0.020727 0.0044497 0.12398 0.37323 0.0065871 
0.14864 -0.2859 -0.0004827 0.017438 0.019083 0.32835 0.25798 0.01152 
0.16031 -0.4758 0.027632 0.043416 0.025988 0.40233 0.064954 -0.029255 
0.17117 -0.42089 0.071695 -0.0047575 0.022206 0.43012 0.0067515 -0.0059084 
0.051636 -0.13119 -0.022185 0.035688 0.056569 0.53962 0.21227 0.090603 
-0.075455 0.23529 -0.10456 0.096028 0.10639 0.60604 0.46201 0.15012 
-0.10012 0.38951 -0.094856 0.11855 0.11329 0.61377 0.56329 0.1493 
-0.074469 0.30681 0.025659 0.062159 0.092576 0.55014 0.4801 0.14946 
-0.0091966 0.21786 0.15785 0.020398 0.051801 0.3027 0.30648 0.07301 
0.04654 0.15801 0.14437 0.034537 0.010697 -0.049807 0.036182 0.066269 
0.056733 0.19205 0.031742 0.029112 -0.0075525 -0.31583 -0.096665 0.06331 
0.049664 0.38573 -0.033694 0.053445 0.01004 -0.44259 -0.16818 0.093069 
0.05213 0.52482 -0.011992 0.047855 0.0056006 -0.55982 -0.31155 0.050321 
0.10507 0.39016 0.047197 0.065283 -0.020212 -0.49948 -0.30958 0.055582 
0.085012 0.14798 0.018754 0.044073 -0.001798 -0.24316 -0.07414 0.015959 
0.051308 -0.060329 -0.037476 0.038483 0.016123 0.013821 0.15999 0.023357 
0.027468 -0.27867 -0.07973 0.068078 0.018589 0.1294 0.20767 1.0539e-005 
0.044896 -0.36482 -0.11935 0.039963 0.029934 0.2583 0.40858 0.032236 
0.05772 -0.20025 -0.14747 0.049499 0.034866 0.32423 0.53912 -0.00015387 
0.051636 0.025166 -0.10209 0.05624 0.019247 0.14683 0.25419 -0.014787 
0.03092 0.14371 0.0031344 0.095535 -0.00031829 -0.086964 -0.095514 -0.03205 
0.0062583 0.085999 0.14552 0.082546 0.017767 -0.086471 -0.19992 0.031085 
-0.012485 0.041772 0.23479 0.11329 0.061501 0.063968 -0.20896 0.055254 
-0.018239 0.19879 0.11872 0.12135 0.065612 0.064461 -0.46857 0.038977 
0.0047785 0.26866 -0.073318 0.11494 0.04917 -0.043888 -0.75037 -0.012814 
0.05772 0.18596 -0.16473 0.090931 0.016452 -0.066248 -0.84475 -0.047834 
0.081395 0.12595 -0.23033 0.07301 -0.0011404 -0.010183 -0.80693 -0.063946 
0.094713 0.10589 -0.25582 0.10606 0.0019835 0.15653 -0.54453 -0.053753 
0.076792 0.12233 -0.22409 0.034373 -0.022185 0.19714 -0.16934 -0.019226 
0.059528 0.10343 -0.1307 0.011355 -0.065262 -0.04619 0.15489 0.017932 
0.059035 0.10376 0.030263 0.029605 -0.063453 -0.20304 0.31848 0.033058 
0.055582 0.10408 0.16738 0.039141 -0.0064016 -0.18923 0.27475 0.028454 
0.010204 0.11872 0.28658 0.053938 0.031414 -0.22129 0.086657 0.0093821 
0.024344 0.073339 0.30187 0.063474 0.028454 -0.40905 -0.095843 -0.013307 
0.039634 -0.075127 0.23068 0.10211 0.014972 -0.46462 -0.065262 -0.0034422 
0.057555 -0.25598 0.14091 0.080902 0.035195 -0.31386 0.063803 -0.0088678 
0.058049 -0.37518 0.11263 0.04506 0.0082312 -0.19548 0.0070803 0.0046141 
0.089945 -0.30366 0.16212 0.034373 -0.014293 -0.056548 -0.091897 -0.024323 
0.14371 -0.25565 0.12891 0.017932 -0.051122 0.0037921 -0.01676 -0.037805 
0.15916 -0.1062 0.00033937 -0.0073881 -0.061151 0.097179 0.08156 -0.027118 
0.15818 0.084848 -0.038298 -0.018404 -0.045696 0.20931 -0.028926 0.019411 
0.069558 0.1641 -0.019061 0.021878 -0.01939 0.078436 -0.35348 -0.012649 
-0.0032777 0.15637 0.022042 -0.0026201 0.0051074 0.056569 -0.40922 -0.0075525 
-0.026296 0.19451 -0.026953 0.0087245 0.023851 0.087314 -0.20501 -0.0014692 
-0.024487 0.30434 0.011848 0.059857 0.026974 -0.094692 -0.063618 0.065776 
-0.024323 0.38375 -0.04619 0.12414 0.01563 -0.42483 -0.13958 0.077285 
-0.04619 0.21375 -0.17986 0.095699 0.033551 -0.7045 -0.17295 0.10392 
-0.087129 0.020727 -0.23313 0.11921 0.077943 -0.77586 -0.16276 0.095206 
-0.054739 -0.06 -0.19564 0.1179 0.064625 -0.62049 -0.25976 0.050157 
0.023522 -0.0042642 -0.015938 0.028454 -0.027282 -0.31632 -0.19778 -0.073482 
0.15176 0.049664 0.27179 -0.094199 -0.12379 0.04654 0.0054362 -0.18857 
0.25765 -0.11837 0.69055 -0.17098 -0.19778 0.43801 0.18136 -0.25434 
0.20273 -0.13777 0.66934 -0.11475 -0.15931 0.94901 0.76602 -0.061809 
-0.0026201 0.061995 0.29431 0.0090533 0.038483 1.6555 1.5633 0.26505 
-0.19268 0.11395 0.048841 0.10376 0.20175 2.0401 1.9304 0.43932 
-0.17624 -0.045532 -0.11491 0.12513 0.1756 1.5276 1.584 0.38918 
-0.12511 0.024344 -0.1136 0.086821 0.11905 0.60933 0.84247 0.25304 
-0.075455 0.064132 -0.0026201 0.077449 0.13894 -0.060329 0.11231 0.13795 
-0.067235 -0.031064 -0.02235 0.074654 0.13615 -0.48879 -0.5881 0.033222 
-0.033037 -0.070194 -0.028104 0.074161 0.062817 -0.59221 -0.81745 -0.028269 
0.036675 -0.031064 0.005765 0.017767 0.0042853 -0.51247 -0.6999 -0.048656 
0.077943 0.0092177 0.11543 -0.019719 -0.024158 -0.60141 -0.57412 -0.066906 
0.089452 0.086657 0.12447 -0.019226 -0.029091 -0.70943 -0.39508 -0.054739 
0.11165 0.13861 0.076792 -0.051287 -0.046519 -0.58563 -0.32882 -0.039284 
0.085506 0.14815 0.018754 -0.068386 -0.077264 -0.35414 -0.29462 -0.043888 
0.067091 0.088136 -0.01528 -0.073318 -0.098309 -0.16276 -0.34723 -0.078908 
0.065447 0.11296 0.0098754 -0.031392 -0.082361 0.032893 -0.41431 -0.068879 
0.02122 0.20553 0.012506 -0.013965 -0.039778 0.32128 -0.1473 -0.013965 
-0.038627 0.21441 -0.044052 0.0092177 0.0085601 0.52071 0.29596 0.057227 
-0.020706 0.1493 -0.0098543 0.023028 0.030592 0.50082 0.4533 0.078272 
0.0067515 0.065612 0.075641 0.011684 -0.02794 -0.1552 0.09274 0.060515 
0.0037921 0.11165 0.098166 -0.0059084 -0.00064712 -0.70549 0.23611 0.084026 
0.0039565 0.10737 0.11165 0.0031344 0.066927 -0.4883 0.58072 0.094713 
0.017767 0.059857 0.12168 0.033222 0.027961 -0.23247 0.43587 0.036182 
-0.0070593 -0.0088678 0.12431 0.018589 0.019905 0.14502 0.26948 0.046704 
-0.036489 -0.087129 0.075641 0.041936 0.079587 0.90741 0.44508 0.12513 
-0.0059084 -0.19038 0.053774 0.085506 0.12562 1.7806 0.83704 0.17199 
0.01415 -0.25615 0.023357 0.054596 0.13647 2.0144 0.95887 0.15555 
0.031578 -0.14171 0.011684 -0.0004827 0.091753 1.4827 0.75632 0.080409 
0.034537 0.33098 -0.063453 -0.039778 0.07597 0.69614 0.51611 0.01563 
-0.011827 0.70387 -0.12955 0.028125 0.077943 -0.15733 -0.11097 -0.021692 
-0.0064016 0.61591 -0.22113 0.084026 0.040128 -0.68773 -0.37617 -0.019061 
0.09126 0.39263 -0.17525 -0.029748 -0.013143 -0.6246 -0.19827 -0.02087 
0.15292 0.12102 -0.038462 -0.10176 -0.059014 -0.20107 -0.22918 -0.046025 
0.147 -0.16194 0.13286 -0.066577 -0.10735 -0.099624 -0.34394 -0.051944 
0.050321 -0.23132 0.10573 -0.036818 -0.075784 0.13088 0.14913 0.066598 
-0.084169 -0.084663 -0.047834 0.055747 0.036839 0.41581 1.0552 0.12398 
-0.18874 0.049992 -0.16605 0.14946 0.11378 0.19353 1.1547 0.12644 
-0.21471 0.11329 -0.22836 0.13845 0.10211 -0.15322 0.42338 0.068242 
-0.097487 0.14026 -0.16506 0.1026 0.08715 -0.2762 -0.267 0.013492 
0.039141 0.23496 -0.094856 0.034702 0.045718 -0.43782 -0.65748 0.024179 
0.078765 0.17199 0.049828 0.040785 -0.0027845 -0.59698 -0.90394 0.1322 
0.098823 0.093069 0.21687 -0.0072237 -0.031557 -0.44736 -0.86513 0.11083 
0.10935 -0.14681 0.33344 -0.021363 -0.030735 -0.15289 -0.55637 -0.03912 
0.14765 -0.31353 0.28017 -0.0075525 -0.028104 -0.10571 -0.27111 -0.25845 
0.12661 -0.3132 0.11987 -0.010676 -0.026624 -0.11771 -0.083018 -0.29856 
0.094384 -0.17953 -0.020706 0.013986 -0.024158 -0.109 0.054103 -0.12905 
0.15851 0.12858 -0.3178 0.018918 -0.038133 -0.071509 0.0011614 0.033222 
0.22805 0.42403 -0.39277 0.064132 -0.023336 -0.13547 -0.06444 0.063803 
0.047526 0.46875 -0.39869 0.039141 -0.013471 -0.22589 0.085999 0.081889 
-0.14336 0.18958 -0.2887 0.047362 0.010369 -0.25286 0.2754 0.055747 
-0.16046 -0.088115 -0.0021268 0.035524 0.040621 -0.17608 0.26603 0.00297 
-0.072989 -0.12938 0.22049 0.057884 0.051965 -0.091404 -0.10538 -0.092554 
0.0080668 0.11346 0.28313 0.07038 0.069229 0.018754 -0.3737 -0.098473 
0.05624 0.33081 0.079751 0.1105 0.088958 0.013164 -0.45295 -0.039942 
0.057227 0.15308 -0.068057 0.16426 0.053938 -0.17854 -0.57396 0.069393 
0.052459 -0.42467 0.053281 0.12464 -0.010841 -0.38981 -0.65304 0.07038 
0.032236 -0.6412 0.16541 0.042594 -0.054082 -0.47153 -0.60816 0.027632 
0.012835 -0.26075 0.26274 -0.045203 -0.076935 -0.44785 -0.3811 -0.022021 
0.10458 0.024673 0.36534 -0.069536 -0.098473 -0.35249 -0.17904 -0.094527 
0.22016 0.18892 0.46678 -0.040435 -0.043724 -0.22935 -0.53565 -0.12905 
0.23973 0.13023 0.45938 0.047526 0.014479 -0.12018 -0.80134 -0.062631 
0.21983 -0.17147 0.2611 0.092904 0.025166 -0.15355 -0.21948 0.02681 
0.12447 -0.22359 0.1202 0.046868 -0.0036066 -0.30251 0.42453 0.094548 
0.070708 -0.17772 0.10754 -0.021528 -0.03616 -0.17542 0.47566 1.0539e-005 
0.024508 -0.13349 0.11658 -0.076771 -0.08269 0.054267 0.47796 -0.098309 
-0.027118 -0.08269 -0.025802 -0.040435 -0.075455 0.2514 0.78016 0.039141 
-0.16884 0.036182 -0.26075 0.03092 0.061501 0.8326 1.3433 0.3535 
-0.25187 0.15111 -0.30613 0.10359 0.22033 1.8421 1.9501 0.48832 
-0.20732 0.2246 -0.26322 0.099645 0.33574 2.2349 1.7403 0.44837 
-0.10817 0.22016 -0.109 0.13615 0.2731 1.1545 0.51282 0.21375 
0.026646 0.098823 0.18678 0.062652 0.11477 -0.52957 -1.1295 -0.046025 
0.23693 -0.080223 0.31371 -0.0004827 -0.030077 -1.6094 -2.2541 -0.22754 
0.23545 -0.14319 0.097837 0.0047785 -0.10308 -1.8215 -2.4308 -0.28837 
0.10852 -0.10439 -0.14237 -0.023007 -0.10143 -1.5047 -1.9276 -0.24809 
0.04095 -0.19515 -0.16144 0.038812 -0.086307 -1.0105 -1.1767 -0.16407 
0.048841 -0.26091 -0.020212 0.011684 -0.085649 -0.61736 -0.60898 -0.1182 
0.10524 -0.25763 0.093398 -0.03764 -0.12248 -0.40017 -0.35364 -0.11524 
0.16064 -0.28278 0.21408 -0.049642 -0.10193 -0.057863 0.12546 -0.028926 
0.15999 0.025001 0.32144 -0.039449 -0.027611 0.39296 0.73626 0.076792 
0.11411 0.26899 0.35103 1.0539e-005 0.017438 0.67657 1.0562 0.19155 
0.050321 0.11592 0.33048 -0.0011404 0.040621 0.54915 1.0587 0.24449 
0.00033937 -0.1672 0.31486 0.049828 0.076299 0.37619 0.83343 0.27425 
-0.024323 -0.29215 0.42568 0.075312 0.10688 0.29316 0.52055 0.21309 
-0.04882 -0.25763 0.54471 0.079422 0.081067 0.28593 0.27409 0.15637 
-0.066906 -0.046025 0.33278 0.033058 0.073997 0.42042 0.171 0.11855 
-0.027282 0.1419 -0.19318 -0.02646 0.056569 0.42551 0.15357 0.093726 
-0.0021268 0.19895 -0.59402 -0.027447 0.03388 0.35366 0.15587 0.07038 
0.022042 0.34446 -0.64729 -0.013143 0.029112 0.39181 0.20125 0.071859 
0.011026 0.5503 -0.5414 0.019247 0.063803 0.60456 0.32407 0.073504 
-0.027282 0.65487 -0.32224 0.058542 0.12414 0.62215 0.24269 0.069722 
-0.0031133 0.52038 -0.050464 0.048019 0.081889 -0.12462 -0.038791 -0.0049219 
0.049992 0.14009 0.14289 -0.0098543 -0.0044286 -0.99683 -0.30169 -0.02794 
0.10589 -0.27999 0.21391 -0.061645 -0.069701 -1.5322 -0.53022 -0.06707 
0.11674 -0.51855 0.11214 -0.070194 -0.083347 -1.3192 -0.52348 -0.071016 
0.026152 -0.41974 0.077614 -0.084169 -0.046683 -0.38965 -0.22359 -0.0068948 
-0.09798 -0.10176 0.15522 -0.050136 -0.0024557 0.64353 0.29119 0.20668 
-0.10505 0.23479 0.2754 -0.023172 0.015794 1.4207 0.54406 0.25025 
-0.071509 0.35942 0.31092 0.031249 0.040128 1.8485 0.74283 0.18991 
-0.098309 0.34873 0.15012 0.064954 0.095371 1.8714 0.95476 0.13812 
-0.097322 0.31601 -0.07825 0.072024 0.044567 0.99768 0.90281 0.058542 
-0.022021 0.28642 -0.24645 0.090438 -0.0044286 -0.30317 0.56954 0.029441 
0.066763 0.26916 -0.16753 0.072517 0.028619 -1.0443 0.18695 -0.024323 
0.10507 0.2223 0.082711 0.0082312 0.068571 -0.78671 -0.12527 -0.18463 
0.12908 0.0039565 0.11724 -0.015773 0.079916 -0.36269 -0.3012 -0.11475 
0.11691 -0.38274 -0.1039 0.055089 0.061172 -0.48928 -0.73147 0.044402 
0.1613 -0.62575 -0.21866 0.019411 0.0060938 -0.58892 -0.91479 0.15324 
0.26291 -0.38866 -0.2157 -0.019226 -0.037147 -0.36499 -0.8265 0.18136 
0.21901 0.21309 -0.18791 0.01267 -0.034681 -0.051451 -0.76731 -0.0039354 
-0.05178 0.60834 -0.071181 0.055418 -0.020706 0.28182 -0.12955 -0.10275 
-0.21554 0.49934 0.16146 -0.017253 -0.064604 0.39641 0.57447 -0.060658 
-0.11837 0.12957 0.34133 -0.049314 -0.088773 0.45823 1.0973 -0.07562 
-0.085156 -0.23609 0.33689 0.014315 -0.0067304 0.21638 1.0514 -0.060658 
-0.12659 -0.028433 0.055254 0.039963 0.07597 0.17084 0.76585 -0.023501 
-0.22557 0.53616 -0.22211 0.15193 0.18317 0.46201 0.60933 0.049335 
-0.13547 0.57645 -0.25861 0.18843 0.16212 0.10885 0.25567 0.045718 
0.043087 0.35975 -0.11607 0.15653 0.072681 -0.45854 -0.28081 0.027139 
0.14453 0.17906 0.017274 0.063968 -0.0096899 -0.61786 -0.77421 0.12447 
0.2029 0.071859 0.038155 0.025166 -0.036489 -0.23444 -0.96378 0.17906 
0.21737 -0.027775 0.038812 0.047691 -0.042079 0.099481 -0.91133 0.038977 
0.0786 0.0082312 0.010533 -0.010841 -0.057699 0.066763 -0.8385 -0.010348 
-0.046519 0.11592 -0.068386 -0.031557 -0.05178 0.23578 -0.45657 0.015137 
-0.085156 0.11033 -0.095678 -0.0029489 -0.0060728 0.53584 0.074819 -0.0052507 
-0.0049219 -0.027775 -0.1039 0.038155 0.0072447 0.58319 0.54636 -0.011992 
0.037497 -0.23675 -0.057205 0.049828 0.027468 0.59207 1.1782 -0.11935 
0.084684 -0.13004 0.028947 0.055582 0.063803 0.72705 1.7576 -0.22918 
0.17939 -0.010183 0.10573 0.077121 0.059364 0.45593 1.5299 -0.23214 
0.2006 0.14486 0.09833 0.084355 0.08978 0.1978 1.1313 0.021878 
0.14387 0.31667 0.10277 0.084519 0.10721 0.00083261 0.6238 0.2269 
0.064954 0.29744 0.1248 0.076792 0.055418 -0.21126 -0.14023 0.18169 
-0.030735 0.25321 -0.05589 0.1151 0.04095 -0.24875 -0.64877 0.069229 
-0.10341 0.33805 -0.30679 0.11362 0.065447 -0.14648 -0.90361 -0.0090322 
-0.082525 0.23578 -0.31303 0.11921 0.051965 -0.066577 -0.88388 -0.028433 
-0.094692 -0.0039354 -0.10538 0.10704 0.043745 -0.088773 -0.45953 0.024179 
-0.077428 -0.19712 0.2463 0.063639 0.011191 -0.23181 -0.14681 -0.010676 
0.037826 -0.3132 0.49292 -0.023665 -0.045039 -0.31616 -0.1085 -0.07414 
0.17215 -0.71831 0.39362 -0.040271 -0.074469 -0.16588 -0.16194 -0.12396 
0.11066 -0.62377 0.086328 0.060844 -0.025309 0.19599 -0.11771 0.019083 
-0.21965 -0.1062 -0.038791 0.11658 0.061995 0.49095 -0.023829 0.17971 
-0.36384 0.091918 -0.0040998 0.13746 0.08156 0.50723 0.029112 0.26488 
-0.15931 0.2611 -0.025309 0.14782 0.082382 0.2948 -0.03912 0.17445 
0.3313 0.61525 -0.13547 0.1179 0.063803 -0.19202 -0.10637 0.034209 
0.53995 0.91629 -0.27029 0.078929 0.023851 -0.94849 -0.17591 -0.084498 
0.32621 0.90248 -0.29774 0.04095 -0.066084 -1.6474 -0.47893 -0.19285 
0.11247 0.70058 -0.064768 -0.0032777 -0.14254 -2.0229 -0.56985 -0.30777 
0.11181 0.33574 0.20635 -0.052437 -0.096007 -1.9595 -0.029748 -0.26881 
0.15209 -0.31879 0.32128 -0.022843 0.019247 -1.1251 0.60094 -0.097487 
0.17084 -0.80151 0.35169 0.019247 0.057884 0.10195 0.63448 0.13171 
0.023851 -0.88815 0.076134 0.11411 0.068571 1.1914 0.42272 0.26505 
-0.11919 -0.75744 -0.11557 0.13943 0.08863 1.6895 -0.17969 0.22197 
-0.055726 -0.85149 0.13088 0.062488 0.044731 2.2171 -0.58284 0.089123 
0.063968 -1.1044 0.59256 -0.018239 0.00083261 2.192 -0.58941 -0.070359 
0.24581 -0.85445 0.73905 -0.10291 -0.050136 1.522 -0.6246 -0.11475 
0.1858 0.39691 0.22575 -0.067892 -0.0029489 0.43784 -0.52266 -0.062302 
0.034866 1.1749 -0.31172 0.033058 0.080902 -0.35611 0.33541 0.081395 
-0.13481 0.88308 -0.31797 0.11083 0.14568 -0.24332 1.6081 0.25288 
-0.21998 0.50969 -0.10061 0.09833 0.1687 -0.1815 2.0414 0.31947 
-0.1815 0.37027 0.023522 0.068407 0.13302 -0.63578 1.4248 0.28165 
-0.059672 0.16821 0.037168 0.077778 0.06183 -1.0295 0.40085 0.15357 
0.090931 -0.11064 0.12217 0.015301 -0.031557 -1.2959 -0.63742 0.037497 
0.19385 -0.41102 0.1756 -0.040106 -0.099624 -1.1747 -1.3955 1.0539e-005 
0.17922 -0.27111 0.089452 -0.034023 -0.10505 -0.73492 -1.716 0.039634 
0.072846 -0.07003 -0.01939 0.026974 -0.063782 -0.082525 -1.6362 0.047197 
0.06035 -0.030406 -0.0013048 0.01152 -0.047669 0.35975 -1.3099 -0.029913 
0.18678 -0.14155 0.13483 -0.026624 -0.057699 0.39197 -0.583 -0.1912 
0.24532 -0.17756 0.17067 -0.010019 -0.053095 0.39954 0.27096 -0.27571 
0.22197 -0.11015 0.16031 -0.036654 -0.040271 0.5508 0.90166 -0.20584 
0.10162 0.049499 0.1225 -0.047012 -0.011992 0.82257 1.4679 0.024179 
-0.089924 0.089452 0.089452 -0.018733 0.037661 0.63679 1.3198 0.25551 
-0.22902 0.098659 0.068242 0.061666 0.070051 -0.053424 0.71554 0.36945 
-0.28163 0.13664 0.026646 0.1174 0.12858 -0.68346 0.26735 0.28116 
-0.1381 0.26176 0.12184 0.14026 0.12497 -1.0129 -0.19564 0.0095465 
0.044402 0.15407 0.089616 0.1026 0.075641 -0.93008 -0.58218 -0.23527 
0.10606 -0.11163 0.026317 0.023357 -0.01939 -0.5049 -0.93254 -0.1815 
0.14256 -0.19877 0.11987 -0.062302 -0.056548 0.2736 -0.76616 0.053116 
0.1641 -0.50277 0.23249 -0.13908 -0.070194 1.1154 -0.29051 0.098166 
0.2052 -0.50737 0.26521 -0.16276 -0.022021 2.1032 0.47073 0.075312 
0.1853 0.014643 0.16706 -0.16884 0.010533 2.4699 1.7323 0.11494 
0.05624 0.45494 -0.065097 -0.095021 0.04358 1.8757 2.4605 0.3216 
-0.20123 0.69121 -0.35693 0.031414 0.10408 0.68808 2.0836 0.53468 
-0.33457 0.76322 -0.57297 0.16081 0.17676 -0.14665 1.0643 0.5725 
-0.25565 0.69861 -0.45361 0.17807 0.1567 -0.66521 -0.29659 0.34051 
-0.13415 0.5143 -0.24118 0.13203 0.094877 -0.87072 -1.2765 0.17133 
-0.10867 0.39444 -0.1667 0.091753 0.017767 -0.89193 -1.4725 0.038319 
0.030263 0.21128 -0.015773 -0.012649 -0.083018 -0.83702 -1.1417 -0.099789 
0.12102 -0.10604 0.14798 -0.065755 -0.14402 -0.79016 -0.74149 -0.22557 
0.15555 -0.33704 0.34396 -0.13284 -0.17213 -0.66143 -0.43256 -0.29265 
0.20076 -0.27308 0.40759 -0.13267 -0.14961 -0.45887 -0.17345 -0.41842 
0.078765 -0.44341 0.29431 -0.08532 -0.052437 -0.17131 0.026481 -0.34444 
-0.15536 -0.33737 0.1008 0.042429 0.043745 0.0324 0.12727 -0.11607 
-0.17953 0.11642 0.042758 0.12776 0.065776 0.1179 0.12266 0.10441 
-0.01939 0.46103 0.10441 0.03947 0.05065 0.10984 0.062159 0.041936 
0.15127 0.47615 0.0072447 0.032729 0.052952 0.097344 -0.041422 -0.1039 
0.19583 0.28987 -0.12626 0.051472 0.051965 -0.052273 -0.18578 -0.13793 
0.043909 0.25699 -0.21767 0.080573 0.049992 -0.16802 -0.3349 -0.062631 
-0.097158 0.30862 -0.1644 0.074161 0.048513 -0.42845 -0.28886 0.082711 
-0.13958 0.29892 -0.073482 0.024344 -0.0027845 -0.85724 -0.20649 0.29004 
-0.13793 0.22937 -0.049642 -0.0047575 -0.041586 -1.3508 -0.058192 0.43669 
-0.17525 0.039634 0.031578 -0.0077169 -0.048985 -1.3761 0.061666 0.40513 
-0.10061 -0.23132 0.20454 -0.049478 -0.080059 -1.0736 -0.27555 0.095042 
0.065447 -0.26239 0.17462 -0.069865 -0.071016 -0.29626 -0.67704 -0.13662 
0.099316 0.0039565 -0.047341 0.024179 -0.018239 0.81929 -0.35134 -0.21521 
0.093562 0.027796 -0.10949 0.017932 -0.0072237 1.6262 0.2292 -0.13777 
0.033715 -0.15306 0.094548 -0.0083746 0.022864 2.1573 0.31503 0.028125 
0.028947 -0.28245 0.2269 0.0227 0.056569 1.7943 -0.076606 0.18037 
0.15883 -0.21438 -0.0078813 0.067585 0.11444 1.0051 0.11017 0.40118 
0.25189 0.25387 -0.21981 0.085506 0.12102 0.0021479 0.42206 0.47796 
0.28165 0.67164 -0.25286 0.066763 0.057555 -0.80233 0.30533 0.17232 
0.17429 0.65191 -0.26667 0.079258 0.03651 -0.95441 0.35021 -0.34707 
0.014808 0.51578 -0.19219 0.027961 -0.017582 -0.90032 0.52367 -0.77438 
-0.0075525 0.52449 0.11346 0.010204 -0.028597 -0.52282 0.81764 -0.82683 
0.049664 0.031249 0.3826 0.0060938 0.043745 0.11954 1.1545 -0.37831 
0.004943 -0.583 0.41976 0.041607 0.080738 0.28478 0.69729 0.23956 
-0.054082 -0.8533 0.39214 0.0090533 0.0036276 -0.25204 -0.79476 0.46547 
0.055254 -1.1619 0.41532 -0.024652 -0.074962 -0.68642 -1.8631 0.37898 
0.10589 -0.91758 0.19501 0.047033 -0.00031829 -0.29002 -1.3508 0.34495 
0.00017495 -0.017746 -0.18167 0.088136 0.085835 0.55491 -0.12231 0.29957 
-0.084169 0.59979 -0.31928 0.12858 0.14256 0.86877 0.66457 0.2292 
-0.065591 0.68134 -0.23148 0.11987 0.11132 0.29826 0.49868 0.059693 
-0.061316 0.44935 -0.18561 0.11395 0.082546 -0.26486 -0.20847 -0.083512 
-0.012156 0.23381 -0.065919 0.062323 0.0079024 -0.35874 -0.68165 -0.27489 
0.10902 0.035688 0.17051 0.0095465 -0.018404 -0.21241 -0.72933 -0.37469 
0.18646 -0.17065 0.21687 0.01711 -0.031886 -0.040928 -0.37929 -0.28689 
0.2463 0.065776 0.065447 0.0080668 0.0069159 0.28987 0.31092 -0.08828 
0.27886 0.36682 -0.12741 0.032236 0.024673 0.65339 0.78344 0.01563 
0.21276 -0.045039 -0.18956 0.080902 0.0060938 0.27672 0.60292 0.045224 
0.15193 -0.34592 -0.13859 0.10244 -0.010841 -0.10719 0.23381 0.0085601 
0.079258 -0.33917 -0.12675 0.069558 0.053609 0.10885 0.24762 0.039963 
0.073997 -0.17657 -0.038627 0.020233 0.074819 0.69466 0.3928 0.13582 
0.047855 0.097837 0.0060938 -0.0771 0.090109 0.97795 0.56839 0.24762 
0.0095465 0.33722 -0.015116 -0.017746 0.052294 0.72393 0.80317 0.28313 
-0.13744 0.46612 -0.20616 0.10277 0.098823 0.35662 1.0927 0.39033 
-0.15766 0.36221 -0.20452 0.071695 0.15818 0.49309 1.1445 0.31832 
-0.077593 -0.054904 0.044731 0.0592 0.17314 0.59585 0.75566 0.10589 
0.033058 -0.35101 0.052459 0.0016547 0.11576 0.21243 0.063145 -0.36745 
0.060022 -0.22721 0.062159 0.022535 0.017438 -0.49701 -0.51017 -0.49257 
0.024179 -0.28295 0.29201 0.036675 -0.06148 -1.2691 -1.042 -0.16177 
0.050157 -0.21998 0.48487 0.06479 -0.087951 -1.7987 -1.4375 0.28757 
0.018425 0.22756 0.45725 0.10244 -0.046025 -2.0818 -1.5149 0.34725 
-0.017911 0.58401 0.29431 0.073504 -0.066084 -1.7691 -1.607 0.0085601 
0.12825 0.42009 0.2708 0.033222 -0.10028 -0.60437 -1.2854 -0.28854 
0.27721 0.036182 0.18317 -0.059836 -0.081045 1.2436 -0.18545 -0.3104 
0.31437 -0.27604 0.11576 -0.087458 0.0039565 2.8661 1.3528 -0.54387 
0.24762 -0.5054 0.083533 -0.069701 0.071531 3.0361 2.6866 -0.57544 
-0.021199 -0.34361 -0.16473 0.040621 0.16853 2.2763 3.2117 0.024673 
-0.26026 0.13023 -0.43536 0.12529 0.27787 1.6254 2.6556 0.58516 
-0.30004 0.44409 -0.48337 0.15407 0.21539 0.51397 1.0654 0.75171 
-0.25302 0.32703 -0.36893 0.16327 0.087972 -0.5927 -0.33194 0.77095 
-0.14385 0.1202 -0.23313 0.097344 0.0036276 -1.4337 -1.1367 0.55754 
-0.047998 0.043251 -0.14287 0.036346 -0.056548 -1.9601 -1.4582 0.0075736 
0.038648 0.1641 -0.091568 -0.071345 -0.12215 -2.0525 -1.497 -0.45887 
0.15735 0.35087 -0.071838 -0.11722 -0.18068 -1.934 -1.5106 -0.59878 
0.20076 0.3729 0.013328 -0.11574 -0.1843 -1.6287 -1.571 -0.55308 
0.19533 0.25337 0.16952 -0.058356 -0.12363 -1.0343 -1.1335 -0.3109 
0.16656 0.23644 0.14585 0.034209 0.039305 -0.025638 -0.522 -0.046519 
0.17659 0.11165 0.06035 0.029605 0.12036 1.2012 0.2948 0.087808 
0.12168 -0.27916 0.2754 -0.0098543 0.14321 1.8586 0.9523 0.16541 
-0.073976 -0.74232 0.51989 -0.0096899 0.1368 2.0323 1.3351 0.27458 
-0.29429 -0.64498 0.37718 0.031578 0.10852 1.8142 1.4533 0.30237 
-0.30366 -0.15289 0.30812 0.0080668 0.045553 0.84905 0.98222 0.26225 
-0.12626 0.28231 0.56823 -0.013636 -0.023172 -0.35315 0.1248 0.20142 
0.036675 0.34446 0.6455 -0.024323 -0.027611 -1.0675 -0.35808 0.051801 
0.20142 0.05624 0.4505 -0.012485 -0.040435 -1.1007 -0.43453 -0.11952 
0.27606 -0.22869 0.062981 0.0090533 -0.022021 -0.77043 -0.38603 -0.18068 
0.14535 -0.15306 -0.24069 0.056898 0.00297 -0.51066 -0.38587 -0.12774 
-0.0004827 0.14519 -0.30629 0.098001 0.036675 -0.49981 -0.63939 -0.07266 
-0.16802 0.46678 -0.35134 0.0421 0.054432 -0.22113 -0.92482 0.044731 
-0.16276 0.48191 -0.34098 0.0042853 0.068736 0.18119 -0.8191 0.051472 
0.092411 -0.34131 0.076792 -0.072003 -0.0021268 0.35925 -0.50688 0.0083956 
0.329 -1.0455 0.40743 -0.11212 -0.035338 0.39954 -0.27703 -0.096994 
0.24959 -0.60289 0.10129 -0.077264 -0.0052507 0.55968 0.10639 -0.080223 
-0.15437 0.21523 -0.26601 -0.02087 0.0067515 0.6039 0.61344 0.066434 
-0.43897 0.54471 -0.16407 0.12151 0.018754 0.14798 1.1383 0.16821 
-0.35019 0.74201 -0.07414 0.030427 0.070544 -0.03501 1.2907 0.097344 
0.072846 0.62413 0.10902 0.00297 0.083862 -0.072825 0.71159 -0.0087034 
0.41466 0.32029 0.24828 -0.013636 0.031414 0.1179 0.31519 -0.03205 
0.41368 -0.089595 0.24433 -0.013307 0.076134 0.31223 0.32802 0.10474 
0.23298 -0.42056 0.29069 0.021713 0.1391 0.45659 0.45577 0.14502 
0.022864 -0.40215 0.22526 0.064954 0.13319 0.19287 0.42091 0.15292 
-0.29478 -0.066741 0.030098 0.13154 0.053774 -0.36006 0.0069159 0.10047 
-0.45328 0.29563 -0.17608 0.074819 0.01152 -0.73097 -0.70582 0.082875 
-0.27209 0.32506 -0.23724 0.04358 -0.025638 -0.80775 -1.1866 0.073997 
-0.0080457 0.15883 -0.14648 0.023522 -0.008539 -0.71289 -1.205 0.12398 
0.17741 -0.029091 -0.062631 0.044896 -0.0049219 -0.62706 -0.88717 0.10425 
0.23726 -0.10406 0.0324 0.036839 0.016781 -0.16358 -0.45311 0.031742 
0.17248 -0.12757 0.12497 0.031085 0.0056006 0.1054 -0.094527 0.12891 
0.072517 -0.26174 0.21474 -0.0062372 -0.039449 0.10524 0.18415 0.33525 
0.059693 -0.38669 0.20109 -0.067564 -0.10028 0.091753 0.03947 0.41335 
0.0085601 -0.15832 0.01152 -0.03616 -0.049149 0.38293 0.06035 0.35087 
-0.029913 0.14798 -0.091404 0.024179 0.06183 0.91777 0.76963 0.0037921 
0.070708 0.4681 0.040785 0.050157 0.092247 0.80071 1.3161 -0.44654 
0.24976 0.57727 0.15949 0.0080668 0.081067 0.20586 0.95082 -0.50425 
0.08156 0.30977 -0.040435 0.03947 0.055911 -0.49915 0.10014 -0.12314 
-0.40724 0.018096 -0.31073 0.16426 0.070873 -0.59254 -0.46627 0.36912 
-0.55867 -0.28443 -0.18216 0.19813 0.13647 -0.33654 -0.25911 0.47878 
-0.12462 -0.2305 -0.052109 0.16278 0.13187 -0.85921 -0.027447 0.082711 
0.24811 0.30598 -0.20156 0.10376 0.043416 -1.6737 -0.23395 -0.40691 
0.36452 1.2326 -0.65534 0.087643 -0.032215 -1.8473 -0.74791 -0.66734 
0.34857 1.6292 -0.9235 0.0095465 -0.079895 -1.2254 -1.252 -0.71486 
0.26488 1.2775 -0.87516 -0.060165 -0.095349 0.085341 -1.0268 -0.36351 
0.10902 0.34216 -0.44604 -0.089759 -0.12116 1.6208 0.036182 0.26094 
0.082546 -0.23346 0.15209 -0.064768 0.0042853 2.7291 1.2711 0.74234 
0.13779 -0.079895 0.42584 -0.013307 0.10606 2.542 1.9381 0.85085 
0.20619 0.21062 0.66737 0.020891 0.10704 1.3007 1.6742 0.70189 
0.1151 -0.38702 1.0916 0.095206 0.099974 0.26718 0.93947 0.31963 
-0.19614 -1.3712 0.96709 0.17544 0.19106 -0.18939 0.18761 0.011355 
-0.36006 -1.815 0.81863 0.22213 0.17511 -0.71897 -0.82304 -0.10225 
-0.17575 -1.7941 0.72935 0.16755 0.12299 -0.77586 -1.5246 -0.087786 
0.051636 -0.93764 0.31667 0.060022 0.017603 -0.42878 -1.36 -0.11376 
0.21802 0.12085 -0.011827 -0.10916 -0.083183 -0.089102 -0.50852 -0.16391 
0.37849 0.51594 -0.16539 -0.17345 -0.13382 0.17988 0.54948 -0.20501 
0.46777 0.62577 -0.34033 -0.098144 -0.10045 0.26998 0.99899 -0.23938 
0.15078 1.2385 -0.58021 -0.0032777 0.016945 0.10277 0.78575 0.070051 
-0.2402 1.4873 -0.72324 0.13203 0.062981 0.23973 0.34906 0.256 
-0.36285 1.1256 -0.58234 0.17314 0.13417 0.23282 0.037826 0.12316 
-0.21586 0.51052 -0.31879 0.13927 0.11707 -0.0021268 0.097837 -0.0088678 
0.01974 -0.067892 -0.11146 0.057884 0.066927 -0.17493 0.37487 -0.047176 
0.13516 -0.25352 0.04095 0.053938 0.058706 -0.011334 0.4653 -0.001798 
0.18021 -0.22261 0.16426 0.081724 0.052623 0.23315 0.28905 0.004943 
0.16755 -0.20945 0.2736 0.059857 0.01711 0.26587 0.12825 0.015794 
0.07301 -0.20616 0.3022 0.030756 0.040621 0.19106 -0.133 -0.047998 
-0.058028 -0.16161 0.32276 0.013164 0.010204 0.025166 -0.5442 -0.060823 
-0.052109 -0.17789 0.30812 0.012177 -0.030242 -0.12445 -0.8237 -0.14204 
0.086163 -0.27094 0.30007 -0.010183 -0.074633 -0.13136 -1.0249 -0.24382 
0.21441 -0.26272 0.28264 -0.033037 -0.02235 0.2417 -0.53828 -0.094199 
0.30039 -0.23675 0.24844 0.017932 0.020727 0.57414 0.43258 0.11395 
0.45314 -0.20616 0.23545 0.04358 0.089452 0.65569 1.0567 0.27212 
0.37323 -0.16424 0.18777 0.063639 0.11954 0.74925 1.1728 0.48092 
-0.076277 -0.121 0.17708 0.06331 0.13269 0.60111 0.82734 0.4972 
-0.40905 -0.080881 0.14469 0.094877 0.069886 0.11937 0.071366 0.20109 
-0.37337 0.019576 0.064954 0.031085 0.0088889 -0.28114 -0.55965 -0.25927 
-0.24628 0.20931 -0.0088678 -0.0078813 -0.019719 -0.35134 -0.53285 -0.51608 
-0.14944 0.26981 -0.041422 0.0034632 -0.0057439 -0.22622 -0.07414 -0.33358 
0.010697 0.22887 -0.045203 0.030263 0.012177 -0.42401 0.16327 -0.049971 
0.20832 0.018918 -0.072989 0.062652 0.029276 -0.69875 0.099152 0.18876 
0.27688 -0.13843 -0.067728 0.073997 0.073339 -0.40132 -0.077593 0.28395 
0.22624 -0.33737 -0.012156 0.062981 0.061995 -0.00064712 -0.3497 0.091918 
0.089123 -0.29297 -0.05178 0.0095465 0.02681 0.27968 -0.58777 -0.071509 
-0.052109 -0.018568 -0.042079 -0.042901 -0.023665 0.63859 -0.39475 -0.10505 
-0.12297 0.20372 -0.066084 -0.021528 -0.022679 0.75204 0.25551 0.039963 
-0.12363 0.23545 -0.075455 0.025988 -0.015938 -0.095349 0.67904 0.15703 
-0.057534 0.24088 -0.051287 0.065447 0.03388 -0.86234 0.58549 0.1202 
-0.025638 0.24548 -0.086964 0.076627 0.055254 -0.79707 0.27787 0.033058 
-0.0091966 0.23381 -0.084005 0.068242 0.031249 -0.51641 0.2075 0.027961 
0.01152 0.1955 -0.059014 0.019083 -0.0031133 -0.34904 0.048841 0.045882 
0.004943 0.15653 -0.036325 0.018589 -0.01232 -0.26585 -0.39162 0.010369 
-0.0050863 0.13976 -0.0068948 0.019411 0.009711 -0.18857 -0.81219 0.0088889 
-0.0067304 0.12694 -0.08828 0.054432 -0.023829 -0.56853 -0.98598 -0.00064712 
-0.0022913 0.16426 -0.1205 0.075805 -0.051615 -1.4019 -1.1137 0.14124 
1.0539e-005 0.1031 -0.089102 0.08156 -0.068057 -2.0321 -1.1614 0.27014 
0.034537 0.015301 -0.0080457 0.0324 -0.089266 -1.6686 -0.99716 0.13039 
0.10096 -0.109 0.045389 -0.053095 -0.082525 -0.45772 -0.6435 -0.07562 
0.2098 -0.16424 0.075805 -0.13267 -0.038791 1.172 0.056898 -0.42631 
0.27425 -0.088608 0.077449 -0.14911 0.028454 1.9837 0.59897 -0.77273 
0.13039 0.036839 -0.039778 -0.016102 0.20027 2.4713 1.9253 -0.29495 
-0.14977 0.0052718 0.033387 0.066927 0.24647 2.0536 2.8891 0.43258 
-0.28443 -0.12396 -0.057863 0.15308 0.21457 0.76799 2.0182 0.77917 
-0.30251 -0.035503 -0.20304 0.21671 0.11444 -0.63134 0.21309 0.5822 
-0.19696 0.36928 -0.27341 0.18383 0.090931 -1.0264 -1.2576 0.14667 
0.031742 0.74596 -0.19942 0.085012 0.03651 -0.559 -2.0769 -0.41727 
0.25452 0.71916 -0.03057 -0.03353 -0.041093 -0.28492 -1.8876 -0.65222 
0.34183 0.39691 0.092411 -0.066248 -0.094856 -0.5225 -0.99782 -0.45344 
0.16442 0.025659 0.11477 -0.096665 -0.069536 -0.28327 0.44343 0.046211 
-0.059507 -0.15783 0.081889 -0.023829 0.01711 0.24269 1.4159 0.33426 
-0.16654 -0.17427 0.085999 0.067091 0.047526 0.17429 1.2233 0.30845 
-0.09946 -0.18348 0.14272 0.068571 -0.0062372 -0.44128 0.17363 0.082875 
0.039963 -0.20781 0.19188 0.017274 -0.05589 -0.88618 -0.69743 -0.096665 
0.1322 -0.18035 0.1955 -0.023172 -0.034188 -0.5493 -0.8311 -0.14813 
0.11559 -0.1113 0.13088 0.01711 0.03799 0.62396 -0.19071 -0.0087034 
0.044238 -0.016266 0.11378 0.0085601 0.11822 1.482 0.3923 0.14354 
0.0047785 0.047855 0.16179 -0.0004827 0.095699 1.3362 0.40989 0.26192 
-0.0029489 0.020233 0.085177 0.0052718 0.076299 0.79282 0.27968 0.26833 
0.0018191 -0.016102 -0.033201 0.0052718 0.062488 0.46662 0.38622 0.14321 
0.033387 0.032893 -0.082525 -0.0087034 0.061337 0.22033 0.76602 0.10211 
0.011355 0.14009 -0.046683 0.0069159 0.084684 0.17314 1.1498 0.19846 
0.048348 0.23644 0.19796 0.03388 0.10129 0.21309 1.0408 0.22953 
0.10326 0.18777 0.2925 0.0052718 0.029769 0.025166 0.35449 0.20043 
0.033058 0.232 0.14502 0.0041209 -0.01676 -0.22737 -0.41727 0.13828 
-0.091404 0.29332 0.022371 0.041443 -0.02942 -0.36729 -0.84277 0.023686 
-0.13267 0.086821 0.011026 0.047526 -0.0062372 -0.2032 -0.67178 0.053116 
-0.078415 -0.060165 0.073668 0.010369 0.024179 0.15653 0.17149 0.22624 
0.0026412 0.004943 0.032729 0.029605 0.05624 0.39888 0.72573 0.10606 
0.2754 -0.0022913 -0.057534 0.051472 0.052294 0.46316 0.60686 -0.5585 
0.49128 -0.19235 -0.14813 0.048019 0.078765 0.37142 0.051801 -1.0728 
0.20783 -0.16851 -0.26124 0.042758 0.1276 0.49572 -0.23921 -0.66866 
-0.10275 0.23726 -0.21225 0.041772 0.11576 0.52794 -0.17657 0.13812 
-0.24414 0.42042 0.072353 0.038319 0.054596 0.25781 -0.085485 0.45988 
-0.1455 -0.10998 0.47467 -0.049314 -0.014787 -0.023501 -0.157 0.34216 
0.17199 -0.26749 0.61804 -0.094199 -0.0771 -0.11163 -0.157 0.61311 
0.34561 0.090767 0.29415 -0.012978 -0.11804 -0.38242 -0.0047575 0.86582 
0.21572 0.46366 -0.0029489 0.0095465 -0.069372 -0.63101 0.14371 0.66161 
-0.13793 0.68644 -0.029091 0.028783 -0.0098543 -0.49882 0.31042 0.25469 
-0.032215 0.48569 0.051143 0.030098 0.0090533 -0.10094 0.44048 -0.27522 
-0.042737 0.21901 0.050979 0.058871 0.058213 0.062981 0.23019 -0.51148 
-0.33441 -0.11097 -0.031228 0.076134 0.1276 -0.062631 -0.17509 -0.29626 
-0.46413 -0.59846 -0.047341 0.092576 0.13828 -0.34657 -0.48139 0.0067515 
-0.19597 -0.80627 -0.11985 0.01152 0.037826 -0.64433 -0.77898 -0.10423 
0.2024 -0.47482 -0.35183 -0.0039354 -0.039778 -0.51526 -0.60503 -0.35266 
0.66178 -0.27061 -0.22639 -0.033859 -0.11064 -0.12429 -0.40658 -0.48172 
0.79873 0.15637 0.067256 -0.055726 -0.1376 0.47434 -0.21143 -0.40675 
0.30977 0.73034 0.3027 -0.016102 -0.019719 0.67049 0.39066 -0.19663 
-0.36614 0.76421 0.45593 0.060186 0.099481 0.47188 0.92007 -0.083676 
-0.56491 -0.089102 0.44442 0.11132 0.17889 0.36337 1.0452 -0.028104 
-0.36532 -0.62525 0.18761 0.13582 0.14091 -0.14073 0.36682 0.36057 
-0.028433 -0.54107 0.056733 0.10622 0.028947 -0.96082 -0.74676 0.58138 
0.18185 -0.2642 0.10935 0.013492 -0.027611 -1.1307 -1.4478 0.46612 
0.29628 -0.066906 0.25058 -0.035832 -0.074304 -0.76221 -1.531 0.14223 
0.30237 0.1105 0.45445 -0.03353 -0.10209 -0.39557 -1.0009 -0.17789 
0.17495 0.098823 0.34199 -0.010841 -0.04471 0.18383 0.15538 -0.23428 
0.037004 -0.071016 0.0093821 0.032729 0.076299 0.95131 1.3712 -0.051122 
-0.040764 0.028947 -0.30629 0.093891 0.11642 0.8571 1.8454 0.1202 
-0.065426 0.29826 -0.4855 0.14239 0.098166 0.056733 1.5716 0.19862 
-0.016102 0.27902 -0.37584 0.10178 0.047197 -0.42763 0.50871 0.034209 
0.030263 0.070051 -0.15174 0.054925 -0.00015387 -0.67293 -1.1073 -0.2476 
0.085506 -0.021034 0.0019835 0.03536 -0.048985 -0.89193 -2.1134 -0.36038 
0.10984 -0.041915 0.065776 -0.0054151 -0.069701 -0.79 -1.8322 -0.21932 
0.09274 0.027139 0.06183 -0.016102 -0.040271 -0.31599 -0.80397 -0.016595 
0.058049 0.031742 0.055747 0.01974 0.061172 0.36485 0.18678 0.10343 
0.026481 -0.052273 0.14519 0.074654 0.1391 0.96759 1.1039 0.13647 
-0.026953 -0.12741 0.22592 0.10096 0.15028 1.0237 1.8237 0.14617 
-0.15322 -0.0771 0.26192 0.095371 0.10277 0.4219 1.6696 0.14733 
-0.26272 -0.076277 0.2366 0.086657 0.0070803 -0.63101 0.68529 0.088465 
-0.2471 -0.085813 0.18547 0.059528 -0.050793 -1.1895 -0.44095 -0.013143 
-0.045696 -0.12856 0.15292 0.016945 -0.045861 -0.91939 -1.0692 -0.16325 
0.34364 -0.22754 0.11592 -0.026624 -0.028433 -0.38028 -1.1154 -0.36104 
0.78936 -0.43585 0.086328 0.0016547 -0.0032777 0.015794 -0.72999 -0.35299 
0.65569 -0.3571 -0.061151 0.015794 0.048513 0.41664 -0.024652 0.099481 
-0.076442 0.12513 -0.16901 0.070215 0.11066 0.64665 0.66342 0.68216 
-0.55916 0.8035 -0.19597 0.11477 0.087972 0.41877 0.84789 0.92599 
-0.44769 1.3977 -0.088115 0.10507 0.090767 0.65421 0.11674 0.58976 
0.020398 0.87831 -0.022021 0.019905 0.11247 1.3786 -0.75909 -0.087458 
0.27771 -0.033201 0.062159 -0.063124 0.023357 1.5626 -0.90196 -0.53516 
0.26801 -0.51493 0.12875 -0.012814 -0.0024557 1.074 -0.24102 -0.49767 
0.29563 -0.74955 0.12349 -0.030077 -0.026953 0.12579 0.475 -0.12725 
0.16327 -0.56508 0.055418 0.019905 0.028783 -0.55242 1.2272 0.40644 
-0.20633 -0.18216 -0.096665 0.086821 0.098494 -0.4569 1.9225 0.74596 
-0.3155 0.085835 -0.12577 0.09274 0.14091 -0.16588 1.7482 0.60982 
-0.15684 0.24844 -0.1381 -0.013636 0.069393 -0.21143 0.57612 0.066763 
-0.11787 0.75253 -0.2762 -0.019884 -0.00081153 -0.25976 -0.4957 -0.30021 
-0.2744 0.91432 -0.20962 0.043745 -0.024158 -0.094692 -0.61194 -0.18463 
-0.34361 0.72327 -0.12642 0.060022 0.038483 0.19698 -0.13941 0.159 
-0.21981 0.53436 -0.051944 0.08715 0.088301 0.49999 0.29628 0.32917 
0.10129 0.070708 0.013657 0.057555 0.078272 0.43341 0.27771 0.23003 
0.63136 -0.36154 0.20701 0.036182 -0.029748 -0.10932 -0.20123 -0.055726 
0.78936 -0.67573 0.26768 0.032071 -0.082525 -0.65485 -0.91068 -0.056055 
0.38704 -0.30465 0.039963 0.067913 -0.013965 -0.59023 -1.324 0.02681 
-0.023665 0.28954 -0.29363 0.0786 0.037004 -0.24694 -1.166 0.090274 
-0.15174 0.60127 -0.30827 0.037168 0.041607 -0.046354 -0.6976 0.016945 
-0.11442 0.53567 -0.12511 -0.033859 0.016452 0.42749 -0.16243 -0.084827 
-0.021034 0.11674 0.0083956 -0.073976 0.03799 1.2841 0.58763 -0.12511 
0.060844 -0.4056 0.1031 -0.038956 0.066269 1.4508 1.5083 0.018754 
-0.023172 -0.26963 0.099316 -0.0055795 0.094713 0.65553 1.9242 0.12644 
-0.098473 0.092576 -0.050958 0.080409 0.08978 -0.040106 1.5529 0.18925 
-0.11245 0.20273 -0.11623 0.10162 0.069393 -0.30432 0.50937 0.014808 
-0.047998 0.10556 -0.023501 0.072188 0.034702 -0.50145 -0.48287 -0.14878 
0.018918 0.08567 -0.047998 0.0082312 0.0082312 -0.55965 -0.93616 -0.14517 
0.056733 0.14486 -0.14188 -0.011498 0.0056006 -0.45936 -0.89539 -0.0078813 
0.045718 0.21062 -0.16736 0.041443 0.036017 -0.22409 -0.65649 0.10376 
-0.0067304 0.2953 -0.21143 0.013657 0.043251 -0.026624 -0.71354 0.18777 
-0.071016 0.45264 -0.24825 -0.02942 0.03799 0.33739 -0.78539 0.10408 
-0.023994 0.36041 -0.20518 -0.057205 -0.038791 0.32391 -0.53483 -0.041915 
0.024673 -0.040435 -0.10291 -0.078415 -0.09091 -0.063946 0.029605 -0.13251 
0.035688 -0.23839 0.053938 -0.03501 -0.055397 -0.12083 0.79282 -0.05589 
0.086163 -0.19909 0.44097 -0.032543 0.0054362 -0.013471 1.1591 -0.0054151 
0.2828 -0.33276 0.87256 -0.042737 0.044073 0.11954 1.1192 -0.058028 
0.28182 -0.090088 0.74481 -0.018733 0.036839 -0.044217 0.70502 -0.13547 
0.064461 0.11691 0.33229 0.076463 0.031414 -0.42862 0.072681 -0.17197 
-0.16029 -0.22113 0.011848 0.15768 0.066105 -0.51247 -0.40658 -0.080223 
-0.15865 -0.47284 -0.16605 0.14206 0.076299 -0.28821 -0.67672 0.034373 
0.049006 -0.43059 -0.17657 0.035853 0.0075736 -0.13333 -0.74626 0.17347 
0.11083 -0.11903 -0.12231 -0.0050863 -0.023172 0.14091 -0.41365 0.40628 
0.0059294 -0.019061 -0.066577 -0.001798 -0.018075 0.19879 -0.05737 0.37027 
-0.11935 -0.22409 0.0069159 -0.037476 -0.0064016 0.023522 0.3415 0.20536 
-0.16177 0.0080668 -0.078415 -0.013471 0.022864 -0.23494 0.45527 -0.063618 
-0.17756 0.45922 -0.19811 0.033715 0.042758 -0.39129 0.1641 -0.48501 
-0.078415 0.83852 -0.36351 0.064625 0.036017 -0.5146 -0.33506 -0.51674 
0.047855 1.021 -0.47054 0.038977 0.048348 -0.49701 -0.61703 -0.26634 
0.090931 0.91481 -0.46117 0.07597 0.022864 -0.2647 -0.53631 -0.081703 
0.059528 0.94589 -0.26601 0.062817 0.019247 -0.28311 -0.50474 -0.011992 
0.050321 0.40266 0.08156 0.03092 0.013657 -1.0667 -0.6879 0.0056006 
0.11033 -0.64498 0.38951 0.0098754 0.036346 -1.652 -0.61013 -0.049149 
0.11247 -0.83488 0.2999 0.061172 0.03092 -1.4955 -0.14961 -0.020048 
0.097837 -0.52546 0.51019 0.086492 -0.026131 -0.80825 -0.10949 -0.059343 
0.16393 -0.34 1.1473 -0.017088 -0.081539 0.34347 -0.31353 -0.072167 
0.25502 -0.47728 1.5887 -0.12248 -0.085649 1.2479 -0.079401 -0.044381 
0.21852 -0.88223 1.3883 -0.063946 -0.013965 1.3961 0.072353 -0.063946 
0.053116 -0.91035 0.78575 0.015465 0.043745 1.141 -0.18397 -0.10373 
0.074654 -0.80808 0.20882 -0.0031133 0.033551 0.60111 -0.70532 -0.079566 
0.077121 -0.47186 -0.39376 -0.027775 0.085999 0.28708 -0.1108 0.11642 
-0.08384 -0.10521 -0.69727 0.071366 0.19747 0.84165 1.2573 0.46053 
-0.14813 -0.025967 -0.58037 0.046868 0.19928 1.9761 2.0471 0.59453 
-0.18972 0.17889 -0.4684 0.04506 0.14634 2.4187 1.3903 0.28823 
-0.27916 0.74152 -0.43947 0.09685 0.088465 1.0569 0.30582 -0.012649 
-0.20879 1.2512 -0.15372 0.10293 0.023851 -0.9018 -0.062467 0.03799 
-0.058521 1.3967 0.011191 0.039799 0.0085601 -1.5986 0.52597 0.21243 
0.0044497 1.058 -0.0021268 -0.017911 -0.014129 -1.4814 0.7915 0.35761 
0.095535 0.39658 0.051636 0.011684 -0.032543 -1.0013 0.23183 0.12069 
0.11773 -0.27061 0.171 0.078929 0.064132 -0.17016 0.023686 -0.12314 
0.074654 -0.61358 0.23035 0.1197 0.086492 0.25551 -0.22491 -0.22885 
0.23249 -0.71601 0.33657 0.065612 0.023686 0.24943 -0.75777 -0.38126 
0.37389 -0.64416 0.44015 0.0054362 0.0085601 0.33541 -0.8602 -0.50178 
0.2902 -0.055726 0.29974 0.011684 0.066763 0.51167 -0.52167 -0.38603 
0.13779 0.19764 0.15851 0.055418 0.12365 0.54274 -0.094363 -0.11048 
0.059693 0.11609 0.10211 0.10918 0.11115 0.44903 0.24614 0.21885 
0.017603 -0.049478 0.017438 0.079587 0.048184 0.26916 0.23216 0.44245 
-0.01232 -0.1427 0.019247 0.013328 -0.022679 0.095042 0.06594 0.44212 
-0.026131 -0.056877 0.060515 -0.022843 -0.047176 0.046375 0.12612 0.33032 
0.00099702 0.15127 0.083204 -0.020541 -0.040271 0.071366 0.24828 0.20849 
0.0093821 0.3096 0.06331 -0.035667 -0.025967 -0.090417 0.23282 0.066763 
0.070051 0.35153 0.026646 -0.028762 -0.001798 -0.28738 0.02681 -0.18643 
-0.033365 0.14026 0.034209 -0.010348 0.020562 -0.21126 -0.045696 -0.18249 
-0.19696 -0.042244 -0.11031 0.0093821 0.066269 0.085506 0.066105 0.14108 
-0.060823 -0.16194 -0.24529 0.030427 0.045882 0.6626 0.077449 0.35712 
0.17725 -0.074633 -0.24908 0.0037921 0.055582 1.2096 0.12151 0.37701 
0.1927 -0.048985 -0.11426 0.064132 0.11148 1.4589 0.7772 0.25189 
0.1391 0.0079024 -0.036983 0.055418 0.077778 1.0605 1.3665 -0.098473 
0.1179 0.037332 -0.0503 0.060022 0.047526 0.28642 1.1351 -0.47958 
-0.025309 0.049499 -0.2374 0.084848 0.036675 -0.22852 0.81534 -0.26667 
-0.14615 0.072846 -0.33178 0.10047 0.064296 -0.41809 0.46711 0.24088 
-0.16638 0.13499 -0.29692 0.073339 0.022535 -0.50622 -0.10308 0.43127 
-0.033859 0.2343 -0.10637 0.010533 -0.022679 -0.59582 -0.48846 0.31404 
0.19418 0.53748 0.2121 -0.032543 -0.073318 -0.63874 -0.60618 0.1465 
0.25107 0.67197 0.28395 -0.041093 -0.063782 -0.63528 -0.58875 0.097179 
0.11543 0.35843 0.05213 0.044238 0.0056006 -0.4929 -0.53039 0.035853 
-0.054575 -0.19038 -0.22343 0.091918 0.043087 -0.31254 -0.42023 0.03388 
-0.088444 -0.38702 -0.30169 0.12661 0.045718 -0.28031 -0.413 -0.04882 
0.081889 -0.05178 -0.3229 0.073339 0.017274 -0.34888 -0.51247 -0.16654 
0.22082 0.22411 -0.27259 0.025001 0.00099702 -0.27571 -0.5955 -0.16835 
0.16969 0.19122 -0.22293 0.026974 -0.032215 -0.24283 -0.43947 -0.031228 
0.058871 0.13647 -0.20222 -0.0062372 -0.10702 -0.45492 -0.0060728 0.0324 
-0.14648 0.11346 -0.12133 -0.043395 -0.12067 -0.62131 0.23167 0.043251 
-0.34049 0.12151 0.014972 -0.018404 -0.044874 -0.498 0.24778 0.018754 
-0.37156 0.30253 0.15949 0.056569 0.06183 -0.25598 0.31618 -0.012649 
-0.27045 0.46136 0.13795 0.077285 0.13532 -0.26289 0.36846 -0.023336 
-0.12429 0.30631 -0.16227 0.085999 0.14009 -0.21603 0.020562 0.05624 
0.22657 0.096028 -0.31747 0.06479 0.056569 -0.056055 -0.3811 -0.0771 
0.58302 -0.26305 -0.19844 0.032893 -0.02794 0.15324 -0.24069 0.058213 
0.41236 -0.43306 0.01415 0.031085 -0.0091966 0.47056 0.012177 0.35712 
-0.145 -0.18035 0.082217 0.054596 0.055089 0.51298 -0.26404 0.5023 
-0.28607 0.082217 0.077121 0.069229 0.097672 0.022864 -0.51395 0.32571 
0.0016547 0.025495 0.19912 0.017767 -0.0075525 -1.0938 -0.87566 -0.12774 
0.27524 -0.13349 0.4505 -0.01676 -0.04323 -1.5073 -1.3605 -0.77208 
0.19402 -0.012649 0.76667 -0.012814 -0.011334 -0.74889 -1.4192 -0.82633 
0.032564 0.12464 0.73593 -0.029913 -0.012156 0.21654 -1.1065 -0.42714 
0.067913 -0.016266 0.24351 -0.057534 -0.033859 1.3485 -0.18035 -0.20518 
0.13417 -0.35003 -0.19482 -0.084169 -0.056877 1.6108 1.1295 -0.094363 
0.026974 -0.47843 -0.44571 -0.015609 -0.0070593 1.117 2.1838 0.18563 
-0.11524 -0.10883 -0.4786 -0.010183 0.088958 0.68003 2.7443 0.45248 
-0.1552 0.18136 -0.33671 0.015959 0.15111 0.12776 2.3975 0.51512 
-0.10752 0.19024 -0.051287 0.048677 0.1179 -0.34575 0.77226 0.29842 
0.080244 0.0034632 0.19336 0.056076 0.089452 -0.61588 -0.87648 0.066269 
0.072353 0.19632 0.17478 0.0042853 0.054267 -0.54223 -1.3737 -0.051451 
-0.091075 0.62577 0.057062 0.024673 0.06035 -0.39409 -1.1257 -0.0070593 
-0.18759 0.66211 -0.099789 0.084355 0.011848 -0.31057 -0.76205 0.11806 
-0.080552 0.16574 -0.0036066 0.062981 -0.014458 -0.52611 -0.72242 0.20306 
0.14469 -0.56607 0.45445 0.022042 -0.0406 -0.62394 -0.5345 0.11642 
0.27886 -0.82502 0.72376 0.0041209 0.016288 -0.64893 -0.21866 -0.03764 
0.28412 -0.38801 0.44919 0.079587 0.060186 -0.69973 -0.26963 -0.42812 
0.22065 0.1807 0.0024767 0.087314 0.031742 -0.63791 -0.39935 -0.82091 
0.024837 0.41614 -0.19482 0.089945 0.079916 0.34298 -0.0011404 -0.52661 
-0.1524 0.24745 -0.093376 0.082217 0.1636 2.1353 0.76815 0.14897 
-0.24431 0.034866 0.084026 -0.049971 0.1368 3.0333 1.1637 0.51676 
-0.21208 -0.01117 0.25387 -0.11311 0.039305 2.6372 1.2612 0.45083 
-0.085978 0.021878 0.14305 -0.070194 0.053938 1.6747 1.1149 0.42173 
0.081889 -0.1358 0.11806 -0.020377 0.11148 0.5018 0.84214 0.35531 
0.14026 -0.40412 0.10556 -0.0057439 0.089452 -0.63923 0.15522 0.096686 
0.10326 -0.45065 0.069558 0.01415 0.0074092 -1.152 -0.6514 -0.17197 
0.15801 -0.55127 0.18021 0.065447 -0.040764 -1.0596 -0.64581 -0.077264 
0.31026 -0.22606 0.15374 0.042923 -0.047834 -0.72703 -0.1547 0.064625 
0.27672 0.70995 0.012999 0.042429 -0.021363 -0.30958 0.14881 0.087972 
0.094548 1.0194 0.13088 0.0037921 -0.054904 -0.109 -0.053917 -0.19761 
-0.055068 0.55573 0.3198 0.0052718 -0.069372 -0.29791 -0.65337 -0.42319 
-0.11031 0.14749 0.42107 -0.031557 -0.062302 -0.016102 -0.88684 -0.25697 
-0.052931 0.010204 0.23874 -0.0044286 0.0011614 0.4505 -0.3811 0.00083261 
-0.029748 0.09274 -0.18627 0.079258 0.013821 0.37833 0.2708 0.22756 
-0.10094 0.056733 -0.50014 0.11313 0.094713 0.37619 1.1637 0.58927 
-0.071674 -0.16983 -0.46101 0.1391 0.16673 0.70748 2.2338 0.59601 
0.10408 -0.18923 -0.27768 0.13335 0.21769 0.73642 2.1797 0.171 
0.21638 -0.12198 -0.19153 0.11017 0.093562 0.23479 1.0113 -0.24201 
0.19599 0.072846 -0.059178 0.0062583 -0.043559 -0.51888 -0.078908 -0.21175 
0.027632 0.35728 0.022371 -0.052437 -0.097816 -0.94964 -0.7507 -0.023336 
-0.1912 0.46053 0.10376 -0.0027845 -0.096007 -1.0335 -1.0133 0.11346 
-0.23855 0.37948 0.22608 0.065283 -0.037805 -0.87237 -1.1221 0.077778 
-0.058028 0.15768 0.46399 0.067091 -0.027118 -0.63742 -1.2357 0.0689 
0.1419 -0.05589 0.58417 0.061501 -0.023829 -0.50523 -1.1136 0.079258 
0.2195 -0.13925 0.32506 0.076134 0.0021479 -0.21833 -0.93748 0.017603 
0.2195 -0.11491 -0.021528 0.032071 0.030263 0.061008 -0.71535 -0.16062 
0.19583 -0.088773 -0.17114 -0.0091966 -0.022021 0.44557 -0.37321 -0.25828 
-0.020212 -0.02794 -0.20386 -0.010676 -0.049314 0.88571 0.43998 -0.028269 
-0.24562 0.083204 -0.16851 0.043909 0.062652 1.6654 1.2839 0.34807 
-0.2014 0.12612 -0.14352 0.025824 0.26044 2.2403 1.7773 0.39921 
-0.11179 0.14437 -0.12577 0.06594 0.23693 1.8699 1.8198 0.16936 
0.021713 0.12924 -0.12478 0.12398 0.22739 0.88735 1.5116 0.0037921 
0.071037 0.13319 -0.076771 0.12529 0.13088 -0.33391 0.82093 -0.049971 
0.086821 0.12612 -0.054082 0.10392 0.045882 -1.2106 -0.18495 -0.066577 
0.10047 0.10211 -0.00015387 0.075641 -0.033694 -1.6956 -1.0226 -0.057863 
0.069722 0.072517 0.05476 0.053281 -0.087293 -2.1023 -1.3954 -0.046683 
0.049828 0.047362 0.091425 0.022206 -0.075455 -1.8878 -1.1405 0.04917 
0.0093821 0.040785 0.085999 -0.0080457 -0.095185 -1.1908 -0.8311 0.026974 
0.016452 0.087972 0.048019 0.012506 -0.083018 -0.30235 -0.49422 -0.012156 
0.077121 0.14026 -0.01528 0.0037921 -0.06 0.38786 -0.26174 -0.068386 
0.11313 0.13384 -0.065262 -0.00064712 -0.0026201 0.70502 -0.109 -0.098638 
0.012177 0.049335 -0.065755 0.042758 0.086985 0.6968 0.12957 0.20388 
-0.056055 -0.10669 -0.013143 0.08304 0.11165 0.14552 0.10984 0.38162 
-0.060658 -0.21932 0.064296 -0.010183 0.012506 -0.48337 -0.32421 0.20339 
-0.082361 -0.091732 0.11313 -0.064111 -0.028433 -0.41102 -0.39688 -0.16654 
-0.0503 -0.095185 0.17939 -0.009361 -0.0075525 0.25913 0.25978 -0.36696 
0.088301 -0.12626 0.14782 0.0039565 0.055254 0.88801 0.94276 -0.51477 
0.1322 0.019905 0.055911 0.027632 0.043416 1.1909 0.82323 -0.46495 
0.092082 0.24104 -0.038462 0.077943 0.086163 1.0388 0.25091 -0.12445 
0.15735 0.2754 -0.13695 0.1271 0.16804 0.76996 -0.096665 0.15933 
0.1225 0.19895 -0.15717 0.096686 0.17824 0.24729 -0.24891 0.42371 
-0.11015 -0.027447 -0.096829 0.040456 0.088794 -0.30432 -0.16309 0.68808 
-0.25286 -0.32734 0.042758 0.0018191 -0.019555 -0.73936 0.00297 0.70502 
-0.25302 -0.32931 0.065776 -0.014293 -0.04619 -0.59599 0.4316 0.42387 
-0.11146 -0.084169 0.029112 -0.0083746 0.036182 -0.10472 0.73445 0.091425 
0.14338 0.073668 0.051965 0.023193 0.064132 0.044896 0.43225 0.11083 
0.28642 0.18218 -0.00015387 0.033551 0.010204 -0.1769 -0.13464 0.14667 
0.31503 0.10704 0.010369 -0.00097594 -0.028269 -0.37041 -0.57609 -0.013636 
0.20865 -0.15602 0.048513 -0.02087 0.0095465 -0.34674 -0.67606 -0.24924 
0.026481 -0.2106 0.021056 0.021549 0.057555 -0.063782 -0.60585 -0.56968 
-0.15109 -0.024487 -0.037147 0.045389 0.051472 0.11132 -0.54469 -0.8191 
-0.19811 0.26209 -0.099295 0.026152 0.029605 0.018754 -0.46479 -0.63808 
-0.16654 0.30335 -0.088608 0.00066819 -0.023336 -0.15224 -0.36071 -0.25911 
-0.080717 0.11378 -0.044381 0.0082312 -0.043395 -0.1279 -0.18693 0.13023 
0.1026 -0.04323 0.077121 -0.033201 -0.025638 0.046868 0.11378 0.33426 
0.47122 0.075805 0.17939 -0.021856 0.050814 0.084848 0.2343 0.30039 
0.45478 0.10787 0.06035 0.032236 0.035688 -0.30202 0.085999 0.29924 
0.13878 0.20388 -0.0044286 0.062323 0.0034632 -0.60306 -0.22869 0.35317 
-0.10127 0.30434 -0.11755 0.037004 -0.052931 -0.42023 -0.41645 0.32358 
-0.1039 0.11296 -0.21669 0.030098 0.021056 0.0031344 -0.37074 0.27869 
-0.044052 -0.2277 -0.066577 0.045718 0.01152 0.32687 -0.32454 0.15456 
-0.12412 -0.28377 0.21441 -0.0022913 0.044567 0.40085 -0.16111 0.10754 
-0.29873 -0.072332 0.15587 -0.0044286 0.016288 0.12497 0.49572 0.11921 
-0.31599 -0.038791 -0.019555 0.041443 -0.035338 -0.66159 0.74744 0.019576 
-0.039778 -0.12346 0.072846 0.048841 -0.045696 -0.87878 0.13828 -0.31797 
0.41647 0.074983 0.40233 -0.037969 0.015959 0.086492 -0.14484 -0.65419 
0.75467 0.25748 0.59322 -0.090253 0.046046 1.0708 0.12381 -0.61457 
0.40217 0.0031344 0.53436 -0.00097594 0.079258 1.9769 0.6848 0.083697 
-0.13497 -0.52135 0.35942 0.052787 0.1396 2.4075 1.4482 0.76519 
-0.32799 -0.68839 0.075476 0.073339 0.11905 0.92862 1.6103 0.8303 
-0.1917 -0.074633 -0.37156 0.10195 0.048348 -1.1492 0.69186 0.37323 
-0.10949 0.78723 -0.73278 0.13565 0.036182 -1.7502 -0.53664 -0.036325 
-0.17032 1.348 -0.70894 0.051965 0.030756 -1.3576 -1.3015 -0.14418 
-0.068879 1.0212 -0.22589 -0.025474 -0.024158 -0.79049 -1.3127 -0.21652 
0.18547 0.30237 0.38803 -0.090417 -0.075291 -0.25532 -1.0198 -0.31616 
0.3392 -0.15947 0.77703 -0.133 -0.0965 0.20783 -0.54732 -0.29741 
0.28691 -0.24266 0.57628 -0.030406 -0.035832 0.49177 0.36928 -0.10998 
0.12184 0.1151 -0.048163 0.12266 0.072846 0.54751 0.99225 0.083204 
-0.067235 -0.076113 -0.255 0.21276 0.13943 0.47089 0.85809 0.18235 
-0.099953 -0.9993 0.25814 0.14469 0.072681 0.14502 0.35646 0.12809 
0.052952 -1.5218 0.74711 -0.0029489 -0.0024557 -0.16325 -0.074962 -0.024158 
0.16278 -0.9064 0.43357 -0.039449 -0.060165 -0.26256 -0.30136 -0.05178 
0.038648 0.29102 -0.25039 0.060679 -0.037147 -0.34608 -0.18216 0.095371 
-0.081868 0.706 -0.47202 0.10573 0.0098754 -0.34953 0.23858 0.21112 
-0.079072 0.83227 -0.41513 0.065612 0.064132 -0.059343 0.26159 0.16886 
-0.076771 1.2443 -0.4319 0.046046 0.11017 0.42782 -0.12708 0.01563 
-0.1136 1.1866 -0.26913 0.014479 0.12118 0.43028 -0.076771 -0.073482 
-0.14846 0.65734 0.025659 -0.0083746 0.019247 0.16985 0.53666 -0.0072237 
-0.099295 -0.015444 0.38392 -0.042244 -0.055397 0.0592 0.98682 0.095206 
0.029934 -0.58497 0.6307 -0.034352 -0.058521 0.019247 0.83063 0.085012 
0.096357 -0.88305 0.55491 -0.0070593 0.014643 -0.29774 0.53173 0.041936 
0.1516 -0.66225 0.32785 0.036182 0.063145 -0.69677 0.040292 -0.068221 
0.16442 -0.22951 0.12776 0.092576 0.032564 -0.87714 -0.52496 -0.091239 
0.11757 0.025988 -0.023007 0.061337 0.016288 -0.18561 -1.0537 -0.062467 
0.057884 0.058213 -0.10275 0.03388 0.050486 1.1639 -0.84639 0.047033 
-0.046519 -0.063453 -0.15339 -0.0014692 0.10507 2.3197 0.16706 0.17248 
-0.13004 -0.16999 -0.15536 0.029441 0.083697 2.2259 1.0207 0.22049 
-0.071181 0.20471 -0.021528 -0.0031133 0.072024 1.0079 0.79084 0.1567 
0.038812 0.72952 0.22065 -0.017746 0.038812 -0.74593 0.17741 0.14634 
0.10869 0.79298 0.19122 0.056076 0.085012 -1.6629 -0.05737 0.060515 
0.18152 0.50542 -0.10275 0.10277 -0.01939 -1.6228 -0.49701 -0.3474 
0.27524 -0.055068 -0.20699 0.10376 0.0024767 -0.92745 -0.72588 -0.69645 
0.15341 -0.29626 -0.11837 0.067091 0.077121 0.040292 -0.070687 -0.27275 
-0.11968 -0.26223 -0.030077 0.067749 0.1664 1.4679 1.365 0.50246 
-0.20616 -0.18331 -0.065755 0.048513 0.22871 2.0703 1.8921 0.64682 
-0.083018 -0.088937 -0.13596 0.03947 0.11017 1.0708 0.95246 0.28889 
0.040292 0.004943 -0.15059 0.025001 0.023357 -0.5031 -0.25088 -0.026296 
0.02533 0.11247 -0.080223 0.032564 -0.027611 -1.5198 -0.95441 -0.17509 
-0.12034 0.21737 -0.038627 0.042594 -0.016266 -1.8018 -1.0854 -0.047998 
-0.12281 0.25946 -0.02794 0.048184 -0.029748 -1.5539 -1.0697 -0.01939 
0.021549 0.20602 -0.050464 0.032564 -0.06 -1.0414 -1.1039 -0.1621 
0.23512 0.23249 0.036182 -0.058356 -0.098638 -0.056219 -1.0636 -0.30481 
0.31881 0.21342 0.15061 -0.11278 -0.084663 1.1437 -0.60602 -0.23132 
0.21112 -0.12856 0.12891 -0.024487 0.026481 2.0195 0.33213 -0.011498 
0.13351 -0.62805 0.13976 0.084355 0.16097 2.0353 1.0819 0.17084 
0.081231 -0.6925 0.076627 0.13943 0.24153 1.1082 1.0008 0.23216 
-0.043559 -0.0014692 -0.1381 0.14519 0.20832 0.075805 0.47615 0.18711 
-0.14467 0.69006 -0.12971 0.10967 0.071202 -0.65814 -0.0047575 0.12381 
-0.13991 0.37833 0.05476 0.01711 0.018918 -0.84656 -0.035667 0.14321 
-0.061645 -0.36729 0.14963 0.0021479 0.014643 -0.56179 0.24564 0.17034 
0.033222 -0.61128 0.086163 0.020398 0.031578 -0.022021 0.24203 0.07301 
0.069886 -0.34888 0.039634 0.032729 -0.00081153 0.1516 -0.021034 -0.056548 
0.023851 0.35942 -0.10949 0.016288 -0.027118 -0.03912 -0.25993 -0.14155 
-0.031064 0.7675 -0.18315 0.01974 -0.011827 -0.54371 -0.71157 -0.054904 
0.00083261 0.50114 -0.078744 0.03388 0.010204 -1.0876 -1.1155 0.060022 
0.098166 0.11428 -0.00097594 -0.0064016 -0.013471 -1.0519 -1.1323 0.020069 
0.21441 -0.012814 0.019247 -0.011827 0.016452 -0.23625 -0.74856 -0.16687 
0.25206 0.084026 0.036839 0.0064227 0.043745 0.54406 0.02533 -0.20879 
0.16229 0.19057 0.097344 0.036675 0.049992 0.84066 0.6575 0.0032988 
0.017767 0.085012 0.078436 0.0098754 0.080244 1.5837 1.2344 0.23808 
0.0019835 -0.096994 -0.067399 0.044073 0.12825 2.0129 1.7956 0.27951 
-0.051287 -0.057699 -0.25713 0.074819 0.083204 0.70041 1.2545 0.0018191 
-0.20008 0.1271 -0.40313 0.036182 -0.0049219 -0.25417 0.11395 0.011684 
-0.26075 0.15045 -0.29034 0.016288 -0.02087 -0.38784 -0.534 0.30944 
-0.14254 -0.0088678 0.11937 -0.019555 -0.061645 -0.48879 -0.66586 0.37076 
0.053281 -0.14796 0.65619 -0.039284 -0.049149 -0.58119 -0.44769 0.13171 
0.21885 -0.10061 0.64665 -0.051122 -0.0034422 -0.55291 -0.19498 -0.23379 
0.28067 -0.0047575 0.24992 0.024673 0.063474 -0.43371 -0.080552 -0.33474 
0.11691 0.16689 -0.13333 0.091918 0.042594 -0.37683 -0.12757 -0.26552 
-0.10258 0.33443 -0.29182 0.13384 0.043745 -0.31698 -0.17821 -0.022514 
-0.10784 0.24203 -0.19383 0.059364 -0.0054151 -0.30202 -0.21603 0.13927 
-0.021856 -0.083018 0.39 -0.057863 -0.022185 -0.25253 -0.14895 0.26587 
-0.05737 -0.4615 0.62774 -0.085156 -0.098309 -0.17936 -0.0138 0.29119 
-0.029584 -0.69036 0.41959 -0.072003 -0.096172 -0.017088 0.073339 0.16673 
-0.12429 -0.16309 -0.12626 0.050157 -0.0087034 0.13647 0.047033 0.0013258 
-0.20666 0.50246 -0.56886 0.15259 0.072517 0.23907 0.021056 0.034373 
-0.014293 0.48585 -0.41497 0.1345 0.073175 0.16245 -0.023665 -0.020377 
0.44985 0.38869 -0.13991 0.038977 0.030263 0.0023123 -0.03912 -0.078908 
0.50542 0.15555 0.087808 -0.032872 -0.033694 -0.10587 0.011191 -0.063289 
0.38326 -0.063946 0.29645 -0.045203 -0.061151 -0.20567 0.093398 -0.15174 
0.22937 -0.14632 0.27409 -0.065426 -0.056712 -0.24875 0.011355 -0.33704 
-0.056877 -0.15635 0.10458 0.017438 0.0044497 -0.10423 -0.022843 -0.1404 
-0.15668 -0.035174 0.0028056 0.082053 0.069722 0.029276 0.15423 0.40776 
-0.16572 0.31996 -0.14813 0.13023 0.11395 0.00033937 0.30927 0.69795 
-0.076606 0.50312 -0.32175 0.11428 0.047855 -0.31353 0.065776 0.49999 
-0.023501 0.19944 -0.29824 0.054925 -0.10571 -0.77668 -0.57823 -0.19022 
-0.22458 -0.13777 -0.013307 -0.0014692 -0.19597 -1.7013 -1.4074 -0.92251 
-0.40067 0.094713 0.40677 -0.05326 -0.16999 -2.5525 -1.4639 -0.8482 
-0.12445 0.089616 1.0636 -0.04619 -0.0062372 -2.0841 -0.29988 -0.21356 
0.15259 -0.19071 1.1261 0.010204 0.093233 -0.27292 0.91876 0.35613 
0.18942 -0.062467 0.40381 0.062323 0.14634 2.0343 1.2795 0.57283 
0.2024 0.097179 -0.29445 0.028783 0.10392 3.436 0.536 0.47402 
0.27655 -0.12823 -0.38735 0.00083261 0.1465 3.8298 0.59766 0.3632 
0.58269 -0.24234 -0.16703 0.079258 0.29398 3.8234 1.6904 0.17067 
0.7014 0.071695 -0.19054 0.10491 0.3415 1.8847 2.0314 -0.18216 
0.007738 0.39954 -0.27867 0.07449 0.18826 -0.42352 1.0623 -0.079895 
-0.59928 0.47385 -0.1478 0.065612 0.01415 -1.8322 -0.0095255 0.51808 
-0.55472 0.31157 -0.013636 0.052459 -0.057041 -2.2319 -0.62361 0.68036 
-0.25713 -0.08384 0.046704 0.017274 -0.072496 -2.0979 -1.0485 0.23545 
0.055418 -0.37748 -0.031064 0.020069 -0.051944 -1.7487 -1.3232 -0.48008 
0.41548 -0.44177 0.023522 0.012177 -0.055068 -1.0318 -1.3791 -1.011 
0.49473 -0.41694 0.07449 -0.057534 -0.086142 -0.30662 -1.2614 -0.96625 
0.10507 -0.53351 0.025824 -0.06 -0.08532 0.62857 -0.42056 -0.17361 
-0.23527 -0.36597 0.032564 0.021549 0.03947 1.4561 0.8913 0.53156 
-0.20222 0.14437 0.14141 0.072188 0.10869 1.4475 1.3765 0.71307 
-0.13251 0.9158 0.18251 -0.0096899 0.1345 1.0722 1.0361 0.48898 
-0.04471 1.2535 0.24022 -0.033037 0.069558 0.55836 0.34923 0.11872 
0.16114 0.038812 0.43373 -0.031721 0.024508 0.0023123 -0.20288 -0.20255 
0.21638 -1.0101 0.39987 0.007738 0.043416 -0.22918 -0.18084 -0.2476 
0.14141 -0.97414 0.061501 0.089616 0.095699 -0.36992 0.092576 -0.14287 
0.18432 -0.30991 -0.29149 0.10491 0.087808 -0.56048 0.014972 -0.17164 
0.082217 0.25732 -0.2596 0.06183 0.024837 -0.66471 -0.22935 -0.24957 
-0.077757 0.61623 -0.2203 -0.024323 0.0036276 -0.27308 -0.12675 -0.15635 
-0.060165 0.71094 -0.30974 0.004943 0.0037921 0.30796 0.13795 0.049335 
-0.066084 0.56707 -0.42944 -0.0054151 0.017274 0.92583 0.33476 0.23348 
-0.096994 0.40513 -0.1889 0.050979 0.070873 1.716 0.77933 0.34232 
-0.050958 0.26011 0.18744 0.042758 0.1659 1.7255 0.93487 0.32851 
0.075476 0.11592 0.22476 0.053445 0.1419 0.72738 0.30664 0.15045 
0.083862 0.12562 -0.031557 0.10852 0.086328 -0.20288 -0.25154 0.020727 
0.054432 0.06479 -0.18232 0.086328 0.078436 -0.46791 -0.4051 0.038319 
0.1197 -0.48583 -0.10143 0.045224 0.079916 -0.33819 -0.32997 0.0018191 
0.32802 -1.2995 0.25978 -0.056712 0.0024767 -0.2014 0.00083261 -0.14237 
0.40381 -1.4943 0.45314 -0.11311 -0.064933 -0.084169 0.46514 -0.11179 
0.26932 -0.69579 0.52811 -0.10291 -0.04882 0.057555 0.7282 -0.10308 
0.13269 0.48405 0.47665 0.024837 0.032893 0.13631 0.37257 -0.12609 
0.090603 1.1345 0.34775 0.16771 0.095535 -0.25532 -0.51954 -0.19729 
-0.024323 0.88686 0.22575 0.16294 0.038977 -0.81696 -1.1519 -0.056712 
-0.38833 0.49572 -0.085978 0.047526 -0.095349 -1.0297 -1.0396 0.12332 
-0.74182 0.27179 -0.41267 -0.052273 -0.17197 -0.85215 -0.58119 0.24137 
-0.70795 -0.017253 -0.51773 -0.084169 -0.19926 -0.46824 -0.40297 0.29612 
-0.26453 -0.18611 -0.32208 -0.095514 -0.11031 0.29892 0.10392 0.2879 
0.1516 -0.10554 -0.13201 -0.035832 0.074161 1.1276 1.1004 0.1659 
0.36402 0.055911 0.0011614 0.050979 0.1807 1.1345 1.5008 0.061666 
0.34084 0.17906 0.041443 0.050814 0.17084 0.49309 1.0901 0.0064227 
0.26126 0.22575 0.056898 0.021056 0.052952 -0.64416 0.15489 -0.051944 
0.10852 0.2662 -0.016102 0.046868 -0.034845 -1.5351 -0.69612 -0.12116 
0.00297 0.32522 -0.074633 0.10425 -0.026296 -1.5246 -1.1588 -0.11639 
-0.023336 0.37208 -0.11113 0.075805 -0.032379 -1.1915 -1.4685 -0.10045 
0.046046 0.48289 -0.21586 0.049992 -0.036325 -0.72555 -1.2522 -0.032708 
0.098988 0.54932 -0.20419 0.0092177 -0.052931 -0.069701 -1.1185 -0.023007 
0.10754 0.039305 0.25798 -0.077593 -0.086142 0.33426 -0.46758 0.075805 
0.011355 -0.55587 0.59749 -0.11228 -0.086471 0.12644 0.67066 0.31996 
-0.032872 -0.58349 0.63876 -0.031886 0.044567 0.16853 1.3092 0.4875 
0.014315 -0.35792 0.26028 0.12053 0.22986 0.89344 1.1067 0.36534 
-0.045696 -0.23543 -0.50671 0.21013 0.20355 1.3204 0.52186 0.16969 
-0.17098 -0.53532 -0.76435 0.20421 0.088301 1.2089 0.20471 0.045718 
-0.22129 -0.66866 -0.37206 0.12349 0.016288 0.89853 0.23035 -0.061809 
-0.16095 -0.27111 0.27343 0.014479 -0.013965 0.29431 0.33196 -0.17854 
-0.046519 0.30483 0.63596 -0.080059 -0.04471 -0.43996 0.26472 -0.30547 
-0.02087 1.0182 0.32243 -0.088937 -0.021692 -0.95507 -0.084663 -0.016431 
0.31338 0.84658 0.1807 0.040785 -0.022185 -0.99683 -0.39688 0.37307 
0.67773 0.2708 0.24696 0.053774 -0.011663 -0.79444 -0.53466 0.2491 
0.55935 0.23529 0.24564 0.018096 -0.019719 -0.51148 -0.56064 -0.18002 
0.12168 0.34939 -0.013471 0.037168 0.020562 -0.3012 -0.4393 -0.15651 
-0.32421 0.44426 -0.3012 0.11625 0.053774 -0.13612 -0.23214 0.22641 
-0.67704 0.46021 -0.29429 0.098001 0.080738 0.047197 -0.027282 0.45429 
-0.60635 0.037332 -0.1011 0.051472 0.082053 0.21013 0.13532 0.37093 
-0.24299 -0.43075 0.015301 0.01826 0.053445 0.35827 0.25732 0.1733 
0.015137 -0.36515 -0.1113 -0.0083746 0.041607 0.29398 0.33328 -0.025638 
0.037497 0.010862 -0.31599 -0.017746 0.046046 0.2514 0.36797 0.0074092 
0.0031344 0.12513 -0.36893 0.0092177 0.10836 0.27047 0.2343 0.091753 
0.10343 -0.28278 -0.11015 0.039634 0.072846 0.25255 0.13713 0.024837 
0.31963 -0.38899 0.19501 -0.021692 0.011848 0.18728 0.15686 -0.23411 
0.49835 -0.2134 0.12579 -0.037147 -0.025967 0.17133 0.14749 -0.55423 
0.43521 0.32407 -0.061645 -0.0091966 -0.017417 0.1761 0.046375 -0.51362 
0.26653 0.86072 0.019083 -0.01528 -0.015938 0.061501 -0.14221 0.058377 
0.090931 0.57694 0.20569 0.030263 -0.0082102 -0.013965 -0.18676 0.50969 
-0.051615 -0.17887 0.24828 0.13351 0.096686 0.071202 0.012013 0.48964 
-0.071838 -0.55505 0.19681 0.20191 0.1835 0.25189 0.12464 -0.057534 
0.047362 -0.51197 0.26537 0.17807 0.17774 0.317 0.04917 -0.41349 
-0.0013048 -0.36038 0.36764 0.090767 0.087643 0.22312 -0.011992 -0.26223 
-0.093212 -0.06444 0.33525 -0.008539 -0.051451 -0.021528 -0.014622 0.076792 
-0.14895 0.45675 0.10113 -0.057205 -0.089924 -0.35742 -0.10193 0.12316 
-0.23773 0.65767 -0.1741 -0.02942 0.0013258 -0.68773 -0.38126 -0.081703 
-0.2305 0.61886 -0.27933 0.050321 0.027468 -1.1119 -0.95211 -0.27308 
0.030592 0.29234 -0.2693 0.098494 -0.053424 -1.1875 -1.337 -0.29462 
0.60653 -0.34444 0.027303 0.012506 -0.12166 -0.80841 -1.0984 -0.4222 
1.0038 -0.68839 0.28034 -0.026953 -0.030735 0.4482 -0.43832 -0.48402 
0.57825 -0.44851 0.037332 -0.064933 0.064296 1.8875 0.096028 -0.22228 
-0.14993 -0.11541 -0.20764 -0.029584 0.087808 2.2004 0.81896 0.24137 
-0.49192 0.1562 -0.21702 0.00017495 0.14305 2.0072 2.3424 0.67411 
-0.48764 0.43324 -0.19663 0.025495 0.17593 1.0592 3.5211 0.7943 
-0.3275 0.46892 -0.13727 0.13384 0.18399 0.020727 3.1757 0.61508 
-0.12198 0.17117 -0.0070593 0.16492 0.1516 -0.52299 1.265 0.26011 
0.087479 -0.060494 0.1516 0.14502 0.088794 -0.6777 -0.81236 -0.092226 
0.2879 -0.13645 0.25469 0.074654 0.0021479 -0.93139 -1.9417 -0.32586 
0.35103 -0.16786 0.31634 0.035853 -0.10965 -1.1376 -2.0731 -0.35479 
0.22098 -0.11919 0.44113 -0.018075 -0.13875 -1.3697 -1.6763 -0.25039 
0.051472 -0.05441 0.54882 -0.035174 -0.12527 -1.266 -0.95803 -0.13908 
0.023686 -0.0039354 0.43045 -0.0098543 -0.03764 -0.77405 -0.31205 -0.19992 
0.066269 0.0013258 0.056733 -0.025638 -0.028269 -0.11837 -0.10834 -0.25861 
0.15472 0.12151 -0.1159 -0.025145 -0.0031133 0.58138 -0.071181 -0.15043 
0.085012 0.093398 -0.13744 -0.046025 0.054432 1.2759 0.28708 0.060515 
-0.0080457 0.087972 -0.16144 0.054432 0.11461 1.851 0.70683 0.27129 
-0.03764 0.056076 -0.18545 0.11494 0.13335 1.3729 0.78459 0.46596 
-0.03205 -0.0034422 -0.16983 0.1008 0.093726 0.30911 0.50739 0.3558 
-0.01528 0.00033937 -0.10373 0.10195 0.059364 -0.28919 0.28346 0.13762 
0.017274 0.044073 -0.064768 0.078272 0.047033 -0.35907 0.22838 -0.11376 
0.068571 -0.011663 0.040621 0.017767 0.04506 -0.2014 0.24318 -0.20074 
0.10392 -0.009361 0.20388 0.013657 0.0075736 -0.13612 0.15949 -0.16654 
0.014972 0.030756 0.32012 0.037497 -0.004593 -0.27768 0.040128 0.010369 
-0.053588 0.063474 0.31634 0.0039565 0.013986 -0.40658 0.12595 0.13993 
-0.027118 0.18498 0.12579 0.018918 0.057062 -0.45246 0.27425 0.29546 
0.025824 0.17988 -0.080881 0.046375 0.056404 -0.23181 0.28313 0.44935 
0.21424 -0.23313 0.020727 0.051801 0.0056006 0.053609 -0.051451 0.37816 
0.18119 -0.5973 0.081395 0.031578 -0.049971 -0.29215 -0.78654 0.23529 
-0.16983 -0.30465 -0.17098 0.066763 -0.020048 -0.67951 -1.5225 0.25156 
-0.19383 0.14881 -0.42483 0.11099 0.012999 -0.67704 -1.616 0.14963 
-0.038627 0.35695 -0.28903 0.0013258 0.028125 -0.35381 -1.0355 -0.068221 
0.052294 0.58302 0.19928 -0.11212 0.010533 0.24515 0.040785 -0.46281 
0.017438 0.41959 0.58483 -0.14188 0.013164 1.3255 1.5011 -0.37321 
-0.065426 0.10524 0.28297 0.015465 0.13713 2.6027 2.9731 0.033222 
-0.22557 0.063803 -0.31945 0.19402 0.28412 2.5754 3.3113 0.33772 
-0.31566 0.085012 -0.65732 0.22904 0.23874 1.35 1.9233 0.14042 
-0.17016 0.027961 -0.55061 0.14897 0.10935 0.08304 -0.21159 -0.47712 
0.096193 -0.34592 -0.091897 -0.0026201 -0.051122 -0.90854 -1.6228 -0.6657 
0.29957 -0.53828 0.39345 -0.090417 -0.12725 -1.2589 -1.6509 -0.15257 
0.33969 -0.32701 0.78887 -0.14681 -0.11015 -1.1996 -0.99568 0.4094 
0.24121 0.21424 0.8742 -0.13826 -0.071345 -1.2795 -0.56985 0.47566 
0.064954 0.43719 0.30335 -0.032215 -0.033201 -1.3446 -0.54321 0.29744 
-0.092061 0.38869 -0.16851 0.14058 -0.010512 -0.95211 -0.50441 0.20553 
-0.10275 0.10063 0.041607 0.17922 0.052787 -0.012156 -0.50523 0.20273 
-0.05737 0.25156 0.11362 0.13746 0.10277 0.97712 -0.61177 0.22542 
-0.00081153 0.47747 -0.12346 0.10869 0.13434 1.4526 -0.5368 0.15242 
0.13467 0.053609 -0.21734 0.061008 0.083204 1.2678 -0.21389 -0.10521 
0.41335 -0.57198 -0.19005 0.015137 -0.036983 0.37175 -0.2716 -0.41596 
0.36452 -0.644 -0.15487 -0.073811 -0.10719 -0.54979 -0.34164 -0.11919 
-0.12593 -0.15355 -0.23675 -0.075291 -0.045039 -0.7142 0.27195 0.48996 
-0.45574 0.16903 -0.22326 -0.0036066 0.028783 -0.24891 1.3693 0.60801 
-0.30317 0.018918 -0.083018 -0.020048 0.046375 0.018096 1.9271 -0.022679 
0.070873 0.10458 -0.013636 -0.066413 0.0087245 0.1442 1.422 -0.61983 
0.11214 0.70436 0.0052718 -0.040928 0.023686 0.19632 0.6261 -0.48452 
0.025824 0.80663 0.020562 0.012177 0.071859 0.13056 0.09833 -0.088773 
0.0324 0.26488 0.24038 0.0042853 0.020727 0.023193 -0.22326 0.1567 
0.13828 -0.070523 0.29826 0.055911 0.030592 -0.035996 -0.51296 0.10704 
0.097672 -0.063289 0.15144 0.083862 0.036839 -0.11278 -0.65781 -0.19778 
-0.12757 0.19254 -0.061809 0.11378 0.047197 -0.23806 -0.57757 -0.012485 
-0.32898 0.30549 -0.14171 0.1026 0.019247 -0.1912 -0.35447 0.48141 
-0.26585 0.1761 -0.022021 0.033222 0.016452 -0.068057 -0.24036 0.44968 
-0.017253 -0.13136 0.073668 0.034866 -0.011663 0.0088889 -0.23921 -0.0013048 
0.18991 -0.4638 0.13023 -0.038627 0.0052718 0.094548 -0.22359 -0.29807 
0.27294 -0.3446 0.0019835 -0.037476 0.035031 0.23266 -0.10423 -0.3788 
0.24926 0.062159 -0.18446 -0.0406 0.051965 0.13023 -0.084334 -0.34937 
0.18251 0.40644 -0.28393 0.019247 0.015301 -0.3201 -0.050136 -0.1307 
0.147 0.5092 -0.13859 0.058871 0.0032988 -0.729 0.060844 0.18185 
0.13762 0.36698 0.029605 0.083533 -0.0138 -0.74445 0.087314 0.31897 
0.15867 -0.011498 0.16015 0.090767 -0.033694 -0.47547 -0.033859 0.10918 
0.11411 -0.45706 0.24482 0.019083 -0.032708 -0.066577 -0.16851 -0.12494 
0.095042 -0.57429 0.40381 -0.025309 -0.074962 0.47023 0.069558 -0.12675 
0.041278 -0.35759 0.38819 -0.024323 0.0046141 0.55178 0.53222 0.06594 
-0.050464 -0.10719 0.25699 0.020562 0.098659 0.027468 0.46201 0.25041 
-0.14369 0.16081 0.04358 0.034209 0.072024 -0.57445 -0.1889 0.26537 
-0.255 0.71965 -0.33835 0.070051 -0.01676 -1.3349 -1.2107 -0.030406 
-0.32668 0.98206 -0.54519 0.059857 -0.030077 -1.4131 -1.1456 -0.029255 
-0.24168 0.50114 -0.486 0.015959 0.029934 -0.21373 0.38359 0.3581 
0.17955 -0.096829 -0.091897 -0.074962 0.0028056 0.62939 1.1406 0.33229 
0.77144 -0.38751 0.7065 -0.087622 -0.035338 1.0874 0.80432 -0.17114 
0.59963 -0.48304 0.92484 -0.0050863 0.085506 1.9184 0.97416 -0.62509 
-0.030899 -0.055232 0.50624 -0.016924 0.088136 2.0317 1.2037 -0.85806 
-0.40478 0.46481 -0.040928 0.069229 0.052294 1.0523 0.93125 -0.50293 
-0.3178 0.38688 -0.36121 0.183 0.079751 -0.0016336 0.17166 0.49917 
-0.08269 -0.19992 -0.3229 0.22197 0.1368 -0.76649 -0.86349 1.2519 
0.17232 -0.70434 -0.13284 0.1562 0.059528 -1.4166 -1.7007 0.95049 
0.48931 -0.66027 -0.08384 0.075641 -0.013636 -1.9873 -2.4284 0.13582 
0.58368 -0.2402 -0.17312 0.043416 -0.034023 -1.9244 -2.2192 -0.47021 
0.2394 0.40628 -0.20616 -0.027775 0.021878 -0.89358 -0.98696 -0.58185 
-0.17953 0.88505 -0.033201 -0.081539 -0.010348 0.2833 0.33377 -0.59533 
-0.23905 0.69515 0.26817 -0.10637 -0.07414 1.1225 1.3344 -0.45607 
-0.17065 0.028947 0.5018 -0.020048 -0.025309 1.6448 2.0955 -0.080059 
-0.075455 -0.49668 0.36879 0.051143 0.10458 1.5666 2.0314 0.24121 
0.036346 -0.4809 0.092576 0.10293 0.13927 0.98321 1.3515 0.33015 
0.025001 -0.14369 -0.17756 0.1299 0.16738 0.24236 0.84559 0.28675 
-0.14763 0.317 -0.32092 0.098659 0.12792 -0.57544 0.22411 0.35876 
-0.18052 0.81468 -0.17805 0.042265 0.043251 -0.84721 -0.43306 0.42354 
-0.088115 0.9204 -0.09798 0.039305 0.067091 -0.48073 -0.70302 0.34594 
-0.0077169 0.25913 -0.069372 0.11872 0.034866 0.069229 -0.71223 0.041936 
0.14272 -0.91758 0.41927 0.071202 0.031249 0.59453 -0.51658 -0.31221 
0.58516 -1.9179 0.99669 -0.026789 -0.020048 0.76963 -0.46923 -0.55028 
0.60111 -1.1913 0.67329 -0.0027845 0.0064227 0.59798 -0.40889 -0.40034 
0.10721 0.17462 0.076956 0.030592 0.016616 0.45856 -0.40017 -0.080881 
-0.20616 0.73609 -0.097651 -0.0011404 -0.028433 0.42321 -0.30563 0.10754 
-0.073976 0.61196 -0.042408 -0.013143 -0.035996 0.57003 0.34002 0.17626 
0.16952 0.39707 -0.093541 0.04917 0.058377 0.19221 1.0625 0.34331 
0.21227 0.5919 -0.31665 0.1151 0.1659 -0.020377 1.4712 0.46053 
-0.010183 0.79364 -0.36006 0.094548 0.12858 -0.21965 1.3847 0.44261 
-0.19153 0.27442 -0.19597 0.044073 0.012506 -0.40247 0.58549 0.25107 
-0.049478 -0.45525 0.077285 -0.050136 -0.043559 -0.028926 -0.21998 0.16146 
0.067913 -0.97546 0.39723 -0.039778 -0.027447 0.41236 -0.47399 0.13697 
0.032236 -0.79082 0.31338 0.0060938 0.012506 0.48931 -0.30843 0.10918 
-0.13925 -0.044052 -0.094199 0.079422 0.077285 0.28889 -0.0406 0.042429 
-0.35644 0.548 -0.38242 0.093233 0.12085 -0.013636 0.29415 0.039634 
-0.35167 0.49572 -0.30251 0.082546 0.10951 -0.24414 0.5508 0.053281 
-0.17871 0.24104 -0.041257 0.059857 0.047362 -0.66208 0.15735 0.036182 
0.0093821 0.25847 0.089452 0.024837 0.0018191 -0.99321 -0.64367 -0.11968 
0.21128 0.23397 0.19829 -0.045532 -0.025474 -0.86283 -1.0312 -0.2665 
0.29004 -0.053917 0.29809 -0.0406 -0.038627 -0.48665 -1.0069 -0.36022 
0.26439 -0.2573 0.2024 0.00083261 -0.088773 0.035688 -0.76681 -0.31698 
0.20997 -0.30498 0.045718 0.0062583 -0.036325 0.73363 -0.55028 -0.16177 
0.09981 -0.13793 -0.10735 0.034373 0.07449 1.1249 0.23364 0.16179 
-0.031886 0.082875 -0.20271 0.045389 0.13236 0.99439 1.2287 0.43423 
-0.11952 0.1978 -0.19564 0.082053 0.092082 0.50082 1.632 0.51561 
-0.13432 0.3147 -0.14533 0.057062 0.0786 0.14437 1.2257 0.36912 
-0.10291 0.39214 0.089123 0.05476 0.055911 -0.015444 0.31338 0.14075 
-0.054082 0.17528 0.36748 0.049992 -0.033365 -0.27538 -0.39639 -0.056219 
0.03092 -0.096172 0.37274 -0.025802 -0.10127 -0.47169 -0.73656 -0.1279 
0.056569 -0.27588 0.039963 -0.026131 -0.080223 -0.59599 -0.84244 -0.15125 
0.04095 -0.47761 -0.23395 0.0064227 -0.073154 -0.70598 -0.75876 0.014479 
0.054596 -0.62032 -0.10078 0.020398 -0.035667 -0.72374 -0.64778 0.22723 
0.098988 -0.40954 0.029112 -0.0052507 -0.0096899 -0.5128 -0.33523 0.2269 
0.058213 0.57349 -0.085813 -0.013143 0.043087 -0.16095 0.12924 0.093398 
-0.097651 1.6164 -0.21915 0.05213 0.036182 -0.065426 0.21145 -0.11278 
-0.15174 1.5929 -0.31895 0.049664 -0.0098543 -0.055397 0.058377 -0.30531 
-0.15536 0.43308 -0.21274 0.023028 0.023851 -0.040764 0.0092177 -0.10834 
-0.11508 -0.8459 0.12825 -0.042573 -0.043395 -0.050793 -0.085978 0.060515 
0.018918 -1.0346 0.41006 -0.050629 -0.07973 -0.15043 -0.3155 -0.069043 
0.15259 -0.54962 0.39378 -0.035338 -0.058192 -0.26108 -0.47432 -0.2836 
0.34725 -0.010183 0.35531 0.029112 -0.0016336 -0.36071 -0.43996 -0.39179 
0.3803 0.47056 0.21753 0.10721 -0.0068948 -0.46495 -0.50277 -0.2402 
0.43275 0.68923 -0.095349 0.094384 -0.00031829 -0.34345 -0.54765 -0.1575 
0.21474 0.20865 -0.23658 0.051636 0.0039565 0.037004 -0.47942 -0.12922 
-0.21718 -0.5151 -0.076606 0.022864 0.051143 0.44393 -0.14254 0.15226 
-0.39672 -0.62673 0.12349 0.032564 0.11198 0.60193 0.52383 0.68003 
-0.38801 -0.044546 0.13532 0.035853 0.17988 0.53847 1.3155 0.88752 
-0.28525 0.45823 0.080409 0.040456 0.13845 0.2394 1.3961 0.53962 
-0.17871 0.4122 0.055911 0.01004 0.049499 -0.28295 0.60933 -0.082361 
0.0037921 0.12431 0.079751 0.010533 0.0018191 -0.69579 -0.31583 -0.60043 
0.26948 -0.10406 0.042923 -0.0080457 -0.041586 -0.6925 -0.95918 -0.87155 
0.45577 -0.060658 -0.05326 -0.023336 -0.035174 -0.0054151 -0.87944 -0.59895 
0.37504 0.0013258 -0.056219 0.053281 -0.01528 0.67477 -0.037805 0.032564 
0.16114 0.0324 -0.0075525 0.090109 0.11329 1.0796 0.9518 0.4824 
-0.085813 0.16163 -0.097158 0.1179 0.14864 1.1325 1.2806 0.38819 
-0.22655 0.24811 -0.19975 0.12381 0.14979 0.90643 0.69417 0.042265 
-0.20764 0.18547 -0.16588 0.067256 0.075641 0.059857 -0.46249 -0.20271 
-0.0095255 -0.090417 0.18958 -0.042244 -0.013307 -0.99847 -0.96904 -0.23757 
0.18646 -0.18939 0.5314 -0.071181 -0.068221 -1.3153 -0.61457 -0.18907 
0.21391 0.31371 0.20783 -0.039613 -0.013965 -0.50046 -0.13859 -0.18019 
0.1248 0.62429 -0.33605 -0.013307 0.073504 0.5406 0.2708 0.010204 
-0.041751 0.29316 -0.37189 0.072846 0.064132 0.6672 0.2537 0.39082 
-0.037147 -0.22326 0.10392 0.080573 -0.0011404 0.57053 0.012342 0.43489 
0.20717 -0.47186 0.39164 0.031907 -0.041422 0.42732 0.055254 0.16492 
0.34199 -0.24957 0.55869 -0.071838 -0.028926 -0.0011404 0.25814 -0.41678 
0.21983 0.3198 0.39822 -0.046354 0.016288 -0.28377 0.54307 -0.71881 
-0.083183 1.0161 -0.3127 0.11757 0.13286 -0.22441 0.59305 -0.26897 
-0.30218 0.87469 -0.48337 0.22065 0.18432 -0.092719 0.27688 0.31108 
-0.27242 0.023522 -0.049478 0.14042 0.12529 -0.046354 0.10967 0.53518 
-0.12231 -0.52562 0.171 0.0031344 0.056733 0.042429 0.066269 0.41762 
-0.038956 -0.75531 0.1761 -0.068714 -0.025802 0.011848 -0.24809 0.36024 
-0.052437 -0.9503 0.11395 -0.073976 -0.041586 0.019576 -0.39014 0.41302 
-0.18479 -0.83537 -0.072989 0.01267 0.046704 0.032564 -0.43536 0.20142 
-0.17082 -0.51987 -0.36071 0.10145 0.13861 -0.37683 -0.90361 -0.34674 
0.26685 -0.32931 -0.18528 0.017932 0.038812 -0.96839 -1.4682 -1.0802 
0.7213 -0.22326 0.36567 -0.1113 -0.15092 -1.0167 -1.3217 -1.1238 
0.92648 0.65619 0.61443 -0.14122 -0.16555 -0.38209 -0.28459 -0.57494 
0.53485 1.4062 0.414 -0.0080457 -0.021034 0.98123 1.5412 0.4339 
-0.13925 1.1723 0.060844 0.10392 0.10639 2.4345 3.2752 1.1756 
-0.50441 0.46251 -0.30054 0.14848 0.15867 2.9029 3.8326 1.0945 
-0.46117 -0.21734 -0.25434 0.13302 0.16294 2.2352 2.4871 0.58779 
-0.28738 -0.27933 -0.18775 0.092904 0.17593 0.87305 0.19747 0.18974 
-0.26831 0.0079024 -0.20255 0.076463 0.20076 -0.015609 -0.92827 0.26192 
-0.22557 0.28001 -0.15059 0.08715 0.095535 -0.61588 -1.0945 0.28132 
0.022535 0.33805 -0.047341 0.070544 -0.0067304 -1.0412 -1.0971 -0.051122 
0.36156 0.1978 -0.019555 0.0047785 -0.047834 -1.1767 -1.1912 -0.50112 
0.38408 -0.023665 -0.20748 -0.011663 -0.048327 -1.0027 -1.0325 -0.48928 
0.25617 -0.19022 -0.22409 -0.0059084 -0.063618 -0.68428 -0.632 -0.17673 
-0.018404 -0.015444 -0.054082 -0.028762 -0.075291 -0.4102 -0.31238 0.20684 
-0.093048 0.25699 0.31125 -0.088773 -0.094692 -0.20008 -0.18002 0.45741 
0.10951 -0.11163 0.75566 -0.10752 -0.068057 0.00033937 -0.022185 0.4048 
0.33903 -0.57166 0.68874 -0.012156 0.012999 0.24269 0.26801 0.12579 
0.28921 -0.92843 0.25913 0.082875 0.06035 0.33492 0.42551 -0.15865 
-0.016102 -0.8967 -0.1187 0.14831 0.11937 0.17971 0.27771 -0.425 
-0.19202 -0.3862 -0.27029 0.14469 0.10113 -0.14352 0.1031 -0.25006 
-0.13497 0.098659 -0.31879 0.09274 0.042758 -0.54206 0.12217 0.1978 
-0.026296 0.33394 -0.32356 0.0062583 -0.028597 -0.65288 0.16607 0.38441 
0.045553 0.39197 -0.38176 -0.023829 -0.023994 -0.36367 -0.11475 0.20503 
0.14568 0.37109 -0.30498 -0.028762 -0.03205 0.053445 -0.33095 -0.0096899 
0.18202 0.43341 -0.041915 -0.050629 -0.0032777 0.72195 0.053281 -0.01232 
0.088465 0.54636 0.26225 -0.0087034 0.072681 0.95 0.20832 0.11905 
0.02829 0.49194 0.47615 0.009711 0.12036 0.66211 0.085341 0.21128 
0.078272 0.44656 0.32999 0.041114 0.041114 0.16163 0.032071 0.30434 
-0.023994 0.35597 0.016616 0.038648 0.027961 0.019576 0.1641 0.28954 
-0.10932 0.0592 -0.0080457 0.095206 0.0031344 -0.10965 0.2514 0.13993 
-0.018568 -0.1108 0.09422 0.1225 -0.016431 -0.51707 0.022864 -0.1986 
0.062981 -0.03205 0.29826 0.13368 0.029769 -0.95589 -0.40428 -0.2739 
0.049828 0.059364 0.52285 0.062323 0.039141 -1.0121 -0.92827 -0.18035 
-0.017253 0.15999 0.30072 0.0075736 0.04095 -0.48041 -1.1866 -0.22639 
-0.096007 0.12398 -0.16062 -0.024816 -0.016924 0.32308 -0.62098 -0.41924 
0.024837 -0.39672 -0.25779 -0.098473 -0.067728 0.94473 0.27721 -0.41267 
0.14206 -0.68625 -0.19778 -0.087458 0.0054362 1.239 0.88522 -0.109 
0.098988 -0.24924 -0.20222 -0.032872 0.084519 1.1351 1.159 0.40743 
-0.027611 0.22049 -0.24398 -0.001798 0.054596 0.22986 0.80728 0.89508 
-0.10012 0.27277 -0.11015 -0.010019 0.092082 -0.94471 -0.16013 0.83112 
-0.056877 -0.026131 0.025824 0.076792 0.071037 -1.1515 -0.78276 0.25896 
0.086163 -0.28459 0.068571 0.14272 0.058213 -0.75054 -0.62772 -0.48238 
0.085506 -0.25417 0.16492 0.10984 0.0041209 -0.37781 0.17412 -0.73574 
-0.0088678 0.02533 0.28576 0.098494 -0.019226 0.016945 0.88604 -0.45591 
0.040621 0.14864 0.32835 0.047197 0.048513 0.3198 0.84493 -0.095514 
0.18909 0.19303 0.28165 0.037168 0.092411 0.12381 0.34544 0.1151 
0.21342 0.30204 0.12414 0.062981 0.08715 -0.46396 -0.50589 0.11494 
0.00099702 0.37553 -0.003771 0.093233 0.068242 -0.81597 -1.3442 -0.060658 
-0.19844 0.54866 -0.12018 0.070544 0.019411 -0.70154 -1.6806 -0.28969 
-0.26535 0.62298 -0.025145 -0.071016 -0.081539 -0.60947 -1.4128 -0.2374 
-0.18084 0.049992 0.031249 -0.15799 -0.20978 -0.50819 -0.86415 0.056733 
-0.044874 -0.8482 0.093891 -0.070687 -0.16457 0.12283 0.16442 0.38786 
0.066927 -1.0851 0.11477 0.05772 0.010204 0.84296 1.2662 0.44755 
0.22148 -0.2106 -0.034188 0.10721 0.17659 1.1085 1.96 0.35712 
0.21802 0.88456 -0.31616 0.13351 0.19649 0.80186 1.7507 0.31536 
-0.11015 1.3992 -0.39442 0.13976 0.14667 0.66375 0.89327 0.3563 
-0.57725 0.9689 0.0036276 0.084026 0.10145 0.8571 0.15999 0.317 
-0.75284 -0.2596 0.50937 0.024508 0.0024767 0.58878 -0.46166 -0.006566 
-0.27538 -1.31 0.65931 -0.069043 -0.079566 0.094877 -0.66504 -0.41037 
0.41516 -1.4398 0.47204 -0.11196 -0.093212 -0.094527 -0.20123 -0.64367 
0.60703 -0.62016 0.20914 -0.060823 0.059035 0.10573 0.34117 -0.47153 
0.71883 0.67526 0.049499 0.011026 0.10063 0.21539 0.49259 -0.029091 
0.60177 1.3268 -0.027118 0.10162 0.085177 -0.071181 0.21243 0.15604 
0.055254 0.99077 -0.24546 0.11099 0.043909 -0.51888 -0.27555 0.027961 
-0.37551 0.19237 -0.31007 0.11674 0.054432 -0.8796 -0.78753 -0.35808 
-0.4324 -0.19893 -0.35036 0.1031 0.086985 -0.87566 -0.93057 -0.56426 
-0.42483 -0.10357 -0.37058 0.074819 0.08156 -0.58004 -0.80693 -0.060987 
-0.25779 -0.022514 -0.31912 -0.01232 0.023193 -0.051287 -0.32569 0.94457 
0.060186 -0.35299 -0.055397 -0.048492 -0.03057 0.44853 0.24417 1.5698 
0.20388 -0.51362 0.43275 -0.09946 -0.097816 0.76684 0.67625 1.2632 
0.44393 -0.37436 0.59322 -0.18545 -0.16391 0.38457 1.0942 0.28149 
1.0013 0.13762 0.18087 -0.17295 -0.16687 -0.63578 1.1471 -0.85198 
0.60834 0.51364 -0.13366 -0.020541 -0.039449 -0.9452 0.73724 -1.1114 
-0.64433 0.20964 -0.2106 0.20767 0.1373 -0.33967 0.18202 -0.24414 
-1.2872 0.10326 -0.10078 0.30023 0.23233 0.82882 -0.018897 0.44508 
-0.74232 0.22953 0.20388 0.20092 0.16738 1.5468 -0.10637 0.37356 
0.13203 0.11346 0.46563 0.062159 0.056898 1.4804 -0.39343 0.0080668 
0.46201 -0.054575 0.24811 0.0060938 0.076299 0.96446 -0.66208 -0.30284 
0.4145 -0.42582 -0.032379 -0.011992 0.067749 0.32062 -0.67113 -0.45459 
0.293 -0.5031 -0.2471 -0.020541 0.022535 -0.31205 -0.52398 -0.4569 
0.29678 -0.03616 -0.35858 -0.034188 -0.049642 -0.75646 -0.1256 -0.34082 
0.32341 0.27771 -0.33786 -0.1159 -0.11919 -0.94274 0.4944 -0.17542 
0.29859 0.44935 -0.11607 -0.098473 -0.098309 -0.89095 0.65635 -0.0059084 
0.25485 0.62248 -0.014129 0.021713 -0.026624 -0.64301 0.1128 0.066105 
0.093069 0.22871 0.04095 0.13417 0.05213 -0.34345 -0.26486 0.18021 
0.069886 -0.75728 0.45149 0.095042 0.0786 -0.22063 -0.56952 0.17708 
0.19599 -0.98269 0.49769 0.057391 0.08863 0.20717 -0.67737 -0.022679 
0.13795 -0.25713 0.12694 0.076792 0.10096 0.47993 -0.47169 -0.033201 
-0.07825 0.71587 -0.14846 0.047197 0.050321 0.20076 -0.063124 0.32588 
-0.24809 1.2384 -0.23444 -0.013143 -0.01528 0.03536 0.7624 0.64369 
-0.38373 0.94375 -0.24464 -0.03205 -0.024487 0.25913 1.451 0.74448 
-0.13678 0.12349 -0.04619 -0.056055 -0.059836 0.39559 0.97137 -0.01528 
0.18136 -0.42007 0.1031 -0.072003 -0.047505 0.52383 -0.1307 -0.76435 
0.18465 -0.30991 0.088958 -0.0072237 0.061337 0.76651 -0.24628 -0.63331 
0.15456 -0.066577 0.048019 0.12381 0.17067 0.32062 0.03651 -0.071345 
0.017767 -0.031721 0.081231 0.1179 0.18695 -0.5197 -0.28525 0.40792 
-0.10489 -0.15174 0.10935 0.069229 0.094384 -1.0889 -0.90821 0.48224 
0.01415 -0.12396 -0.10768 0.043745 -0.020377 -0.94455 -1.165 0.18859 
0.18695 -0.15339 -0.27472 0.056898 -0.055232 -0.17789 -0.61391 -0.41185 
0.20142 -0.071674 -0.20995 0.066598 0.054267 0.96545 0.61032 -0.67491 
0.11115 0.023522 0.13878 0.053445 0.18876 2.0129 1.7339 -0.49981 
0.13499 0.077943 0.4191 0.044731 0.099152 1.5444 1.6142 -0.21471 
0.10359 0.15226 0.29415 0.016452 0.015959 0.022042 0.51068 0.03092 
0.059693 0.34955 -0.083347 0.0028056 -0.01939 -1.0572 -0.38702 0.25847 
-0.029913 0.23858 -0.29084 0.031578 0.0021479 -1.3995 -0.70565 0.31651 
-0.13185 0.028454 -0.22178 0.066269 -0.0019624 -1.2609 -0.68444 0.26373 
-0.13711 -0.082854 -0.15421 0.032729 -0.023665 -1.0646 -0.83866 0.12053 
-0.068879 0.079422 -0.24102 -0.0019624 -0.024158 -0.44259 -0.74824 -0.044546 
-0.048327 0.41483 -0.21373 -0.0022913 -0.00081153 0.3193 -0.1769 -0.050793 
-0.091075 0.71965 0.0013258 -0.017911 -0.0011404 0.73231 0.47961 0.14502 
-0.078908 0.64254 0.18596 -0.0014692 0.042758 0.94227 0.67197 0.33541 
-0.19005 -0.027611 0.25156 0.046868 0.14617 1.2453 0.9523 0.53304 
-0.18315 -0.47926 0.28921 0.11346 0.16623 1.0794 1.2683 0.56165 
0.20717 -0.19794 0.39592 0.06331 0.1202 0.36665 1.1915 0.040292 
0.4801 0.16558 0.35021 0.045553 0.052294 -0.48271 0.50937 -0.5146 
0.32243 -0.090253 0.17429 0.04917 0.0059294 -1.0702 -0.4513 -0.60536 
0.11 -0.57198 0.33788 0.034702 -0.0011404 -0.84162 -0.84212 -0.17328 
-0.12083 -0.80282 0.55852 -0.0004827 0.024837 -0.17904 -0.67507 0.52219 
-0.26519 -0.38488 0.33328 -0.0014692 0.007738 0.28856 -0.43634 0.47698 
-0.13349 0.78279 -0.24612 0.020891 -0.06444 0.5041 -0.47038 -0.12001 
0.11773 0.97005 -0.52891 -0.0055795 0.0095465 0.75516 -0.23609 -0.39869 
0.075148 0.19698 -0.44424 0.08156 0.12135 0.30566 0.12875 -0.17887 
-0.043559 -0.14829 -0.36565 0.14519 0.08978 -0.39392 0.16146 0.072188 
0.04095 -0.18627 -0.29889 0.14437 0.061337 -0.5876 0.027632 0.24186 
0.15292 -0.047834 -0.17723 0.045389 0.0070803 -0.066741 0.058377 0.31289 
0.047362 0.33854 0.0069159 -0.084005 -0.052931 0.41548 0.21671 0.3466 
-0.31369 0.32588 0.18547 -0.068221 -0.10143 0.42223 0.57858 0.35186 
-0.51214 0.090603 0.16442 -0.032379 -0.039778 0.35399 0.78755 0.30911 
-0.30284 -0.27999 0.22164 0.00050378 -0.00097594 0.064625 0.35646 0.061172 
-0.011827 -0.51839 0.3193 -0.0072237 -0.0087034 -0.32388 -0.28821 -0.16555 
0.14502 -0.03353 0.43176 0.062981 0.047197 -0.35052 -0.42138 -0.26223 
0.22904 0.64994 0.30385 0.082546 0.083533 -0.15043 -0.24579 -0.27193 
0.17643 0.52762 0.18843 0.04654 0.06479 -0.16605 -0.27916 -0.12807 
0.15374 -0.16523 0.18267 -0.0057439 -0.022021 -0.29873 -0.31879 0.12135 
0.27392 -0.59747 0.20471 -0.023829 -0.01117 -0.27933 -0.3201 0.31996 
0.44639 -0.60487 0.17166 0.03536 0.028454 -0.17558 -0.49109 0.046046 
0.73001 -0.7974 0.24614 0.07038 0.036017 -0.25631 -0.80825 -0.38899 
0.61886 -0.8357 0.33163 0.10129 0.0016547 -0.35331 -0.74807 -0.1478 
-0.20551 -0.37107 0.18152 0.022864 -0.034188 -0.30185 -0.36038 0.52663 
-0.9378 0.45297 -0.15092 0.009711 -0.055397 -0.097816 0.17018 0.87765 
-0.96115 1.0587 -0.31172 0.029112 -0.028926 0.11033 0.5023 0.5406 
-0.44045 1.0608 -0.30498 0.0080668 -0.023501 0.11691 0.41088 -0.09946 
1.0539e-005 0.93882 -0.38965 -0.039942 0.036839 0.39115 0.37701 -0.33556 
0.18876 1.1113 -0.55883 0.030756 0.13154 0.78509 0.65783 -0.13843 
0.12858 0.89311 -0.43634 0.12792 0.20388 0.83359 0.81698 0.072024 
0.27442 0.03651 0.18777 0.075476 0.093726 0.32818 0.30434 -0.034845 
0.57382 -0.72045 0.99406 -0.081374 -0.064111 -0.48304 -0.54535 -0.53187 
0.5577 -1.2676 1.134 -0.091075 -0.10127 -0.91281 -0.79674 -0.70532 
0.25337 -1.1415 0.15193 0.046211 -0.064933 -1.1848 -0.6948 -0.26272 
-0.07003 -0.69727 -0.69908 0.16952 0.061501 -0.97546 -0.29445 0.16196 
-0.24201 -0.21636 -0.74643 0.2343 0.11395 -0.39228 0.13894 0.31667 
-0.36548 0.25058 -0.41053 0.17084 0.10441 0.11757 0.27195 0.24203 
-0.47794 0.61623 -0.121 -0.00081153 -0.0096899 0.50131 0.25551 0.18563 
-0.30563 0.87716 0.077614 -0.10719 -0.085813 0.85579 0.035195 0.098659 
0.10228 0.81304 0.3563 -0.1524 -0.098473 1.3508 -0.060165 0.17988 
0.5531 0.11313 0.59716 -0.14402 -0.051122 1.3429 0.33574 0.25814 
0.6067 -0.85165 0.47434 -0.048327 0.062652 0.70551 0.84099 0.19846 
0.40989 -0.92449 0.49259 0.096686 0.19221 -0.024158 0.96545 -0.05178 
0.15999 -0.31533 0.53452 0.18152 0.21934 -0.67228 0.45856 0.082875 
0.00297 0.34396 0.15028 0.15966 0.16097 -1.069 -0.33441 0.39888 
-0.37929 0.73494 -0.4051 0.12233 0.066434 -1.2627 -0.95326 0.58023 
-0.86464 0.81024 -0.65863 0.016945 -0.037805 -1.1262 -1.1124 0.62495 
-0.9554 0.58697 -0.58284 -0.054739 -0.12889 -0.67145 -0.59089 0.2172 
-0.64498 0.21079 -0.34575 -0.10554 -0.16128 -0.28475 -0.07973 -0.63775 
-0.074962 0.027139 -0.18791 -0.065097 -0.084498 0.87996 0.56313 -1.1578 
0.59124 -0.059014 -0.15914 0.038319 0.069229 1.8273 1.3209 -1.0282 
1.1751 -0.091075 -0.12034 0.055254 0.22263 1.5953 1.5578 -0.25861 
1.318 -0.1136 -0.041257 0.058706 0.26094 0.76322 1.0919 0.16656 
0.74201 -0.26733 -0.019555 0.067585 0.22444 0.10441 0.29267 0.12891 
-0.066741 0.16574 0.13171 0.12497 0.12497 -0.25795 -0.29939 -0.011663 
-0.55012 0.54817 0.27162 0.10902 0.038648 -0.46166 -0.73936 -0.046354 
-0.85149 0.69219 0.13516 0.075805 -0.034681 -0.62016 -1.0037 -0.022679 
-0.87434 0.1174 0.17906 0.0052718 -0.069208 -0.57396 -0.83242 0.0041209 
-0.33474 -0.89687 0.3854 -0.077922 -0.14977 -0.46347 -0.35414 0.050979 
0.3683 -0.43996 0.027303 -0.087786 -0.15832 -0.29791 -0.082032 0.10014 
1.1412 0.55606 -0.52052 -0.061316 -0.082854 0.10392 0.24005 0.35169 
1.1966 0.40743 -0.55653 0.024673 0.040456 0.7305 0.82159 0.73955 
0.36369 -0.2374 -0.23592 0.0689 0.1373 1.179 1.233 0.56642 
-0.3178 -0.6879 0.12743 0.11099 0.16064 1.0874 1.141 -0.13464 
-0.42796 -0.61703 0.50164 0.054596 0.071695 0.94704 0.71028 -0.66619 
-0.30317 -0.21389 0.67904 -0.019226 0.0080668 0.68447 0.3415 -0.59122 
-0.26437 0.15045 0.42946 0.0051074 0.040621 0.15982 -0.074304 -0.30054 
0.048019 0.55902 0.047691 0.055911 0.09833 -0.32438 -0.5613 -0.078086 
0.40085 0.60456 -0.23576 0.10556 0.10524 -0.67014 -0.7678 0.076627 
0.43373 -0.0503 0.09126 0.034866 0.036017 -0.8819 -0.863 0.17593 
0.14897 -0.48402 0.34248 0.032071 0.022206 -0.93419 -0.89391 0.027139 
-0.21521 -0.26716 0.11165 0.085835 0.046375 -0.68362 -0.81104 -0.26798 
-0.32536 0.28017 -0.16999 0.12168 0.070873 -0.18002 -0.43519 -0.31484 
-0.22524 0.48355 -0.19022 0.034537 0.015959 0.10754 -0.071674 -0.092883 
-0.024816 0.15982 -0.055068 -0.043724 -0.069536 0.24482 -0.088115 0.12151 
0.18892 -0.13103 0.06742 -0.072989 -0.16802 0.6894 0.1932 0.1687 
0.25123 -0.16342 0.030098 -0.11968 -0.084005 1.215 1.0398 0.046375 
0.29563 -0.018568 -0.090088 -0.030077 0.071202 1.1981 1.67 -0.10883 
0.44919 0.13023 -0.18972 0.09126 0.20142 0.54652 1.3303 0.18251 
0.17182 0.23364 -0.19877 0.12497 0.14798 -0.7073 0.29776 0.59848 
-0.21998 0.26472 -0.24891 0.063803 0.046211 -1.5086 -0.72801 0.62972 
-0.18791 0.27606 -0.1575 0.01415 -0.020377 -1.2632 -1.3582 0.14387 
0.11198 0.034209 0.053445 0.012999 -0.031392 -0.32964 -1.3755 -0.33178 
0.37356 -0.2813 0.293 0.004943 -0.013143 0.75056 -0.83669 -0.51707 
0.3877 -0.55242 0.57562 0.020562 0.042923 1.5315 0.2708 -0.30383 
0.12349 -0.54962 0.46366 0.004943 0.086657 1.3043 0.92517 -0.0082102 
-0.14056 -0.28706 0.020398 0.040456 0.021056 0.29382 0.69433 0.30056 
-0.2665 0.053609 -0.17032 0.040621 0.033551 -0.39458 0.12365 0.58401 
-0.19301 0.4755 -0.010676 0.03651 0.019905 -0.51559 -0.24497 0.51068 
0.012013 0.7259 0.15867 0.056076 0.0019835 -0.53565 -0.39327 -0.18676 
0.1276 0.65931 0.029934 0.047691 0.014972 -0.54453 -0.44522 -0.49192 
0.21293 0.25551 -0.13119 0.042594 -0.012156 -0.53302 -0.37436 -0.54995 
0.16212 -0.24645 -0.11097 0.011848 -0.037969 -0.54617 -0.12198 -0.31418 
-0.10587 -0.35019 -0.086471 0.017274 -0.042901 -0.70401 -0.0027845 0.20865 
-0.46577 -0.067728 0.05772 -0.028762 -0.018897 -0.59188 -0.12445 0.60111 
-0.52989 0.1664 0.22049 -0.05178 0.004943 -0.16802 -0.02235 0.64879 
-0.28804 0.12431 0.19139 1.0539e-005 0.0018191 0.17528 0.25551 0.40019 
-0.054904 -0.004593 0.082382 0.020727 0.015137 0.37405 0.34051 0.082875 
0.075476 -0.076442 -0.009361 0.041114 0.06331 0.59848 0.099152 -0.024487 
0.12546 0.014808 0.0014903 0.058213 0.074326 0.72573 -0.063124 0.025001 
0.05772 0.17347 0.03388 0.058706 0.041278 0.48947 0.0032988 0.061337 
0.0044497 0.22296 0.17445 -0.0080457 -0.0080457 0.025988 0.13943 0.075476 
-0.076277 0.16722 0.19649 -0.033201 -0.065426 -0.38094 0.31421 0.23298 
-0.18841 0.17117 0.0227 0.031249 -0.037476 -0.63364 0.27442 0.32045 
-0.17657 0.070544 -0.21373 0.11576 0.016452 -0.84392 0.01711 0.1687 
-0.033037 0.0067515 -0.42105 0.095699 0.037497 -0.96559 -0.27522 -0.28854 
0.1858 -0.073154 -0.4102 0.026152 0.037332 -0.73508 -0.39014 -0.62345 
0.27787 -0.218 -0.059178 -0.038791 0.014315 -0.23132 -0.19877 -0.67589 
0.12233 -0.088773 0.33114 -0.033201 0.032564 0.28889 0.25271 -0.18117 
-0.054904 0.2292 0.34709 0.049499 0.11428 0.72458 0.68447 0.43965 
-0.098309 0.38786 0.17462 0.11921 0.1927 0.45067 0.32588 0.53156 
-0.10373 0.23479 0.10162 0.052952 0.081231 -0.63907 -0.80299 0.44968 
-0.04471 -0.28755 -0.095349 -0.023665 -0.11393 -1.5257 -1.4333 0.52581 
0.11148 -0.75087 -0.17558 -0.10817 -0.27144 -1.0683 -1.7403 0.30352 
0.20158 -0.35496 -0.24431 -0.091239 -0.21669 0.21556 -1.5396 -0.12215 
-0.045861 0.51578 -0.34904 0.012177 -0.0080457 1.5884 0.19977 -0.1917 
-0.42697 1.0462 -0.26585 0.16821 0.24334 2.401 2.6961 -0.096336 
-0.57231 0.69795 0.048184 0.22279 0.38589 2.6195 3.8363 0.341 
-0.3492 0.21276 0.31684 0.14667 0.30056 1.5975 3.1464 0.32588 
0.050321 -0.12231 0.59667 -0.060658 0.038648 -0.1986 0.39263 -0.09387 
0.64928 -0.61276 1.0452 -0.19515 -0.12675 -1.1741 -1.3761 -0.40576 
0.79841 -0.79772 1.1096 -0.14451 -0.091404 -0.77356 -0.97151 -0.23658 
0.30467 -0.31945 0.28971 0.012013 0.037661 -0.25171 0.037497 0.064461 
-0.061645 0.41631 -0.60602 0.15653 0.15209 -0.059836 0.31815 0.14601 
-0.016924 0.58746 -0.91396 0.2292 0.14881 -0.14319 -0.19104 0.0087245 
0.022042 0.27096 -0.62821 0.17922 0.08156 -0.25861 -0.66734 -0.061316 
-0.011498 0.035524 -0.06855 0.064461 -0.047012 -0.31977 -0.72407 -0.12314 
-0.19285 -0.096172 0.33837 -0.054082 -0.12955 -0.34888 -0.55571 -0.031557 
-0.29561 0.0087245 0.28297 -0.048163 -0.11804 -0.2568 -0.28919 0.21276 
-0.026131 0.23956 -0.053424 -0.026131 -0.01676 -0.042737 -0.06 0.3706 
0.23578 0.11411 -0.11064 0.026152 0.036675 0.14864 0.085177 0.30993 
0.28297 -0.1621 -0.0047575 0.028947 0.047197 0.30549 0.093562 0.097672 
0.12562 -0.29544 -0.028433 -0.0021268 0.040128 0.35761 0.089452 -0.31468 
-0.057863 -0.21291 -0.0011404 -0.048492 0.0093821 0.35925 0.23594 -0.27045 
-0.10817 0.023193 0.0088889 0.0046141 -0.0075525 0.3951 0.41187 0.010533 
-0.018404 0.58335 0.088958 0.095535 0.070708 0.47615 0.4773 0.075805 
0.11773 0.95657 0.037661 0.14206 0.16492 0.4242 0.43538 -0.075127 
0.28198 0.45462 0.14289 0.16656 0.21276 0.26373 0.34413 -0.22672 
0.36139 -0.42253 0.34298 0.13927 0.13582 0.087972 0.00083261 -0.3155 
0.36698 -0.82387 0.36534 0.11378 0.08156 -0.082032 -0.44193 -0.29791 
0.23298 -0.49537 0.076299 0.012177 0.020398 -0.5539 -0.56935 -0.17443 
0.11411 0.035524 -0.2568 -0.012485 -0.035667 -1.0453 -0.52677 -0.011334 
0.08567 0.18317 -0.23724 -0.028433 -0.08269 -1.2592 -0.55916 0.055418 
0.08419 0.057062 0.26801 -0.082361 -0.11426 -0.89604 -0.26765 0.09833 
0.067256 -0.04471 0.52909 -0.14336 -0.11524 0.28576 0.2902 0.13483 
-0.004593 -0.013471 0.37504 -0.14533 -0.079895 1.5363 0.56921 0.18432 
-0.082525 0.24236 0.077121 0.032071 0.0052718 2.323 0.90478 0.2583 
-0.10094 0.36649 -0.084498 0.15012 0.10589 2.3109 1.3288 0.31305 
-0.0014692 0.076134 -0.10028 0.18152 0.25074 1.8428 1.1154 0.24104 
0.072517 0.13269 -0.34493 0.15555 0.25189 0.65767 0.31864 0.044567 
0.14535 0.0034632 -0.38143 0.095042 0.10869 -0.93896 -0.38209 -0.09946 
0.11905 -0.18676 -0.19564 0.021384 -0.03764 -1.9406 -0.77306 -0.030899 
-0.012814 -0.019061 -0.11228 0.0026412 -0.070359 -1.4307 -0.77898 -0.11639 
-0.0087034 0.30434 0.0085601 0.0083956 -0.058192 -0.66586 -0.4763 -0.27407 
0.097837 0.40036 0.10047 -0.016266 -0.098144 -0.91528 -0.55045 -0.49718 
0.020562 0.2588 0.13203 0.029112 -0.10883 -1.5165 -0.91709 -0.36269 
-0.22918 -0.096007 0.19533 0.049335 -0.035667 -1.5733 -0.99239 0.20142 
-0.24645 -0.34674 0.2856 0.048348 0.0088889 -1.0605 -0.86382 0.3946 
0.15571 -0.045532 0.32423 0.0031344 0.025824 -0.121 -0.37781 0.15209 
0.49292 0.22328 0.14502 0.00099702 0.018589 1.1994 0.45511 -0.094527 
0.67049 0.11937 -0.26765 0.079422 0.075641 1.9702 1.183 -0.16457 
0.36517 0.041443 -0.66882 0.077285 0.13236 1.9197 1.373 0.014479 
-0.19416 -0.20238 -0.73344 0.053281 0.11494 1.3087 0.8913 0.33328 
-0.60783 -0.22754 -0.37008 0.11625 0.09422 0.25814 0.12546 0.56148 
-0.42582 -0.26733 0.016288 0.073339 0.039141 -0.53318 -0.3395 0.22065 
-0.13185 -0.20879 0.20865 0.0056006 -0.050464 -0.87566 -0.52628 -0.1279 
0.0067515 -0.099295 0.32391 -0.054739 -0.067235 -0.86776 -0.54831 0.19977 
0.058871 0.014972 0.22394 -0.006566 -0.023172 -0.67458 -0.47268 0.71768 
0.067256 0.042429 0.13993 -0.013307 -0.0059084 -0.42763 -0.48731 0.52778 
0.19895 0.16525 0.43768 -0.034516 -0.047012 -0.33457 -0.39919 -0.29067 
0.35219 -0.010348 0.46908 -0.036489 -0.092226 -0.35118 -0.47251 -0.88618 
0.36139 -0.3252 0.26274 0.028125 -0.12626 -0.39869 -0.64827 -0.72308 
0.17544 -0.32323 0.19895 0.024508 -0.10538 -0.28886 -0.42089 -0.060987 
-0.13596 -0.010841 0.041443 0.049828 -0.025638 -0.16259 0.14617 0.28412 
-0.5322 0.089945 -0.20781 0.17988 0.083862 -0.16983 0.40809 0.29431 
-0.56179 0.020069 -0.34115 0.22493 0.27096 0.01267 0.45922 0.096521 
-0.13612 0.43637 -0.45739 0.19205 0.25551 0.34742 0.24614 -0.065262 
0.38326 1.1203 -0.44621 0.049335 0.11658 0.28905 -0.52332 -0.32931 
0.34068 1.0056 -0.22359 -0.052109 -0.034023 0.099645 -0.69908 -0.22211 
-0.026296 0.31914 0.1294 -0.068879 0.022864 0.54307 0.45001 0.25025 
-0.4204 -0.30021 0.53584 -0.046354 0.057884 1.3944 1.7408 0.57562 
-0.58415 -0.68099 0.65487 -0.068714 0.028454 1.3615 1.9579 0.52104 
-0.30054 -0.43388 0.40414 -0.059343 0.06331 0.71028 1.3617 0.35169 
0.14897 0.14453 0.11576 -0.028762 0.038977 0.05772 0.68299 0.22723 
0.20388 0.61196 0.064461 0.053445 -0.0040998 -0.35907 0.16804 0.11181 
0.36073 0.44228 -0.13251 0.13236 -0.010348 -0.41234 -0.28541 -0.24184 
0.67838 -0.096007 -0.36203 0.11247 0.064461 -0.1085 -0.67737 -0.60832 
0.52367 -0.26913 -0.49537 0.10573 0.14009 0.1858 -0.91758 -0.44818 
-0.14089 0.010862 -0.69266 0.1077 0.16262 0.31305 -0.57248 0.48289 
-0.58218 0.45494 -0.55061 0.028454 0.040456 0.030592 -0.030735 1.3114 
-0.46824 0.42042 0.027139 -0.061645 -0.0406 -0.49208 0.27705 1.1491 
-0.083183 -0.23773 0.7818 -0.11311 -0.056712 -0.69793 0.10967 0.13253 
0.59141 -0.58974 1.4335 -0.13859 -0.13662 -0.83899 -0.52299 -0.84442 
0.85233 -0.35414 1.2211 -0.12166 -0.15487 -0.68181 -0.86382 -1.3932 
0.11987 0.16426 0.26998 0.091425 -0.023336 -0.30054 -0.52874 -0.8117 
-0.48008 -0.0082102 -0.1695 0.21934 0.078107 0.045224 -0.16325 0.16656 
-0.40626 -0.28097 -0.11278 0.17018 0.085341 0.28099 0.017932 0.38901 
