0.018754 0.24384 0.1271 0.14108 0.038977 0.038977 0.026974 0.044731 
0.091918 0.19994 0.087479 0.22624 0.07301 0.04095 0.029441 0.02122 
0.16919 0.10589 0.028619 0.25666 0.10359 0.048348 0.026481 -0.016595 
0.1391 0.097344 -0.086636 0.20273 0.13598 -0.00064712 0.024508 -0.015116 
-0.015938 0.17166 -0.00081153 0.026317 0.034209 0.032893 0.032564 0.01826 
-0.13349 0.24647 0.058542 -0.03353 0.02829 -0.0036066 0.055747 0.055582 
-0.12807 0.20224 0.068571 -0.11722 0.036017 0.010697 0.046046 0.055254 
-0.065755 0.020727 0.13088 -0.10472 0.026481 0.034209 0.048019 0.07597 
0.022864 -0.12609 0.097179 0.021878 0.063639 0.019576 0.074326 0.087972 
0.077285 -0.11787 0.009711 0.10293 0.035031 0.040621 0.06742 0.069393 
0.061008 0.03092 -0.06707 0.10704 0.012835 0.0088889 0.014643 0.05476 
0.02122 0.183 -0.12281 0.074819 -0.045368 -0.036654 0.0054362 0.066434 
-0.011827 0.10047 -0.0088678 -0.01117 -0.090088 -0.047669 0.0028056 0.024837 
0.085999 -0.1187 0.17034 -0.14878 -0.087458 -0.074798 0.0016547 0.02122 
0.18037 -0.3594 0.26061 -0.16835 -0.030242 -0.031064 0.019411 -0.021856 
0.30434 -0.36466 0.1835 -0.092554 0.057062 0.023028 0.031907 -0.023829 
0.27573 -0.18084 0.10672 -0.011663 0.081724 0.063474 0.048513 -0.017088 
0.12644 0.15686 0.14913 0.067091 0.1248 0.086985 0.065447 0.010369 
0.00083261 0.34232 0.18498 0.065118 0.084684 0.09685 0.081724 0.021384 
-0.025638 0.29908 0.14913 -0.0014692 0.076463 0.058871 0.092247 0.017767 
-0.015609 0.078436 0.14239 -0.012485 0.027632 0.044896 0.037004 0.0024767 
0.0072447 -0.056219 0.094548 0.039305 0.00017495 0.017438 0.028783 0.0059294 
-0.008539 -0.038956 0.055747 0.08567 -0.011005 0.0075736 0.014315 0.010697 
0.011848 0.051472 -0.013636 0.089452 0.021878 0.027961 0.031578 0.020891 
0.0085601 0.14075 -0.064933 0.059364 0.034209 0.060186 0.044731 0.019083 
-0.0024557 0.2098 -0.042408 0.074161 0.03651 0.04917 0.030098 0.035853 
-0.03764 0.19616 -0.031064 0.068242 0.036346 0.027632 0.059364 0.073504 
-0.084005 0.12809 -0.026131 0.035195 0.022864 0.029769 0.043251 0.085177 
-0.072167 0.079422 0.0085601 0.0074092 -0.0055795 -0.0091966 0.046704 0.066763 
-0.023172 0.08304 0.018589 -0.02087 -0.024652 0.0036276 0.034702 0.045389 
0.035688 0.096686 0.0098754 -0.027775 -0.035996 0.00099702 0.024837 0.023851 
0.052459 0.12546 -0.0088678 0.035031 0.0059294 0.022864 0.013492 0.018096 
0.029441 0.19616 -0.067399 0.1008 0.044731 0.053774 0.037332 0.022371 
0.016945 0.19649 -0.058192 0.078436 0.077121 0.068242 0.062981 0.043745 
-0.0055795 0.14371 0.0037921 0.058377 0.071531 0.088794 0.05772 0.041114 
0.0026412 0.0079024 0.11362 0.0031344 0.038319 0.059035 0.033715 0.013328 
0.025166 -0.11738 0.22871 -0.048327 0.01267 0.023686 0.010533 0.007738 
0.058706 -0.21504 0.26406 -0.059178 0.011684 -0.0011404 -0.013965 -0.0026201 
0.069558 -0.27308 0.20586 -0.017746 0.0018191 0.0069159 0.020233 -0.0029489 
0.025988 -0.13251 0.10211 0.060022 0.023357 0.031085 0.02533 0.00083261 
-0.0057439 0.049664 0.031085 0.046375 0.041278 0.047855 0.01267 0.029112 
-0.03205 0.13664 -0.043559 0.058377 0.049992 0.03799 0.01415 0.035688 
-0.071509 0.19221 -0.13415 0.090767 0.025824 0.024673 0.034044 0.071859 
-0.109 0.20076 -0.13678 0.073504 0.012835 0.024508 0.068242 0.083697 
-0.067235 0.20471 -0.087129 -0.0050863 0.062817 0.024673 0.06479 0.10244 
0.019576 0.16821 -0.012485 0.017767 0.033551 0.03947 0.022535 0.0087245 
0.10014 0.15538 0.036182 0.06742 0.08156 0.01152 0.012177 0.023686 
0.036182 0.17478 0.0075736 0.070544 0.029934 0.038155 0.027961 0.0047785 
-0.009361 0.16114 0.050486 0.052294 0.044731 0.0064227 0.030427 0.032071 
-0.03205 0.091425 0.0421 0.11642 0.046046 0.041278 0.013328 0.022864 
-0.028597 0.033387 0.00066819 0.14848 0.034702 0.026974 0.0098754 0.0082312 
-0.028762 -0.011005 -0.040764 0.18596 -0.0064016 -0.015773 -0.024323 0.023522 
-0.064604 0.0324 -0.039613 0.15193 -0.0067304 -0.001798 -0.024652 0.036182 
-0.061645 0.10524 -0.0080457 0.03092 0.0064227 0.027139 0.019411 0.040456 
0.0036276 0.10721 0.060515 -0.10209 0.049828 0.042758 0.025001 0.016945 
0.1026 0.034866 0.055582 -0.085649 0.043251 0.039799 0.029441 0.0065871 
0.17906 -0.069208 0.062488 0.039799 0.071037 0.048184 0.024179 0.010862 
0.18202 -0.14139 0.07449 0.053609 0.05476 0.033222 0.020727 0.015465 
0.071037 -0.087458 0.032729 0.034702 0.0324 0.025001 0.029441 0.02829 
-0.022843 0.096028 -0.008539 0.065776 0.022864 0.034044 0.034537 0.018425 
-0.065591 0.18991 -0.067399 0.069229 0.02533 0.025659 0.01974 0.04506 
-0.061151 0.18481 -0.061645 0.10474 0.038319 0.01974 0.011848 0.039799 
-0.015938 0.18843 -0.055232 0.13039 0.043909 0.020398 0.0039565 0.04654 
-0.018733 0.2292 -0.083512 0.17922 0.06331 0.04506 0.041772 0.05213 
-0.017253 0.20158 -0.049807 0.082382 0.030756 0.047691 0.042265 0.053938 
0.010533 0.18284 -0.065919 -0.011498 -0.010348 0.018096 0.015465 0.050814 
0.032236 0.14223 -0.02794 -0.01939 -0.021034 -0.012156 0.0072447 0.026152 
0.049992 -0.010183 0.088958 -0.109 -0.033694 -0.041915 0.00017495 0.016452 
0.063639 -0.17871 0.21145 -0.18989 -0.048327 -0.038791 0.0087245 -0.0068948 
0.03799 -0.23625 0.2149 -0.18002 -0.042573 -0.0062372 0.0080668 0.023028 
0.054925 -0.16572 0.16492 -0.073482 0.013492 0.016123 0.0037921 0.035524 
0.092082 -0.096829 0.10491 0.026152 0.072188 0.016288 0.012342 0.033058 
0.12283 -0.048985 0.057884 0.12431 0.11773 0.040785 0.026646 0.027796 
0.093726 0.027139 -0.00097594 0.17347 0.064132 0.0421 0.061501 0.034373 
0.11198 0.037168 -0.029584 0.13368 0.054432 0.039305 0.033058 0.027139 
0.094877 0.051472 -0.057699 0.20553 0.052787 1.0539e-005 0.035688 0.025166 
0.040621 0.10787 -0.06 0.25239 0.094055 0.030427 0.028783 0.039634 
-0.028104 0.077778 0.01563 0.21243 0.073339 0.042265 0.049499 0.071531 
-0.03205 0.025824 0.0324 0.052952 0.042429 0.031414 0.036182 0.028947 
0.16492 0.0786 0.014479 -0.056383 0.022371 0.027468 0.0088889 -0.02235 
0.31223 0.12957 -0.010183 -0.052273 0.029276 0.012835 0.010862 -0.031557 
0.18054 0.10869 -0.0004827 -0.10587 0.020562 0.00297 0.014315 0.032071 
0.0088889 0.066269 0.034044 -0.11623 -0.016102 -0.026131 0.0051074 0.027468 
-0.048985 0.010204 0.041607 -0.089924 -0.0049219 -0.016595 0.038483 0.0592 
-0.071509 -0.098967 0.11247 -0.059507 -0.0040998 0.0056006 0.012999 0.032071 
-0.0064016 -0.12708 0.10063 -0.03912 0.021549 0.017274 -0.004593 0.031742 
0.02533 -0.063289 0.10951 -0.095185 -0.014129 0.0024767 0.0051074 -0.0072237 
0.014479 0.0095465 0.14881 -0.090581 -0.0060728 0.0016547 0.028947 0.04917 
0.077778 0.089287 0.096521 -0.071838 0.021384 0.019411 0.057227 0.05772 
0.078272 0.080244 0.038483 0.025495 0.04358 0.05213 0.055418 0.079094 
0.054596 0.088794 0.0065871 0.14897 0.079422 0.051636 0.046704 0.052787 
0.069064 0.067749 0.019247 0.1179 0.055911 0.020727 0.030427 0.034866 
0.13401 -0.04619 0.077614 0.063474 0.030756 -0.012156 0.0013258 -0.011663 
0.12891 -0.10341 0.047362 0.068736 0.021713 -0.015116 -0.0047575 0.01004 
0.085012 -0.02087 -0.023172 0.15604 0.012506 -0.019061 -0.0055795 0.013328 
-0.0082102 0.11099 -0.088115 0.20832 -0.021856 -0.022679 0.0087245 0.045718 
-0.055726 0.3073 -0.068386 0.20224 0.040456 0.011684 0.0090533 0.059364 
-0.09239 0.40348 0.045718 0.11724 0.096357 0.072517 0.053116 0.075312 
-0.096007 0.20536 0.11362 -0.0067304 0.10408 0.083862 0.091918 0.042758 
0.031578 -0.18232 0.14864 -0.11261 0.09422 0.084848 0.084355 0.038648 
0.12727 -0.51066 0.17971 -0.15059 0.052459 0.038648 0.053609 0.00099702 
0.13746 -0.51707 0.12135 -0.029584 0.020727 0.011684 0.014643 0.014808 
0.1128 -0.30876 0.055254 0.058542 0.012835 -0.0055795 0.0092177 0.0016547 
0.073668 -0.099789 0.0062583 0.085012 -0.0080457 -0.019061 -0.0014692 -0.0054151 
0.037004 0.10195 -0.07973 0.094055 -0.0054151 -0.0095255 -0.0077169 -0.0083746 
-0.023172 0.24137 -0.10505 0.031907 -0.036654 -0.031886 -0.0070593 0.014972 
-0.052109 0.24943 -0.053424 -0.048327 -0.078744 -0.065591 -0.012814 0.025988 
-0.076606 0.16097 0.060022 -0.12609 -0.09387 -0.067235 0.0046141 0.052787 
-0.006566 0.035031 0.18284 -0.20008 -0.073482 -0.031721 0.01826 0.02122 
0.059693 -0.02498 0.20175 -0.15059 0.033715 0.040456 0.032071 0.0032988 
0.066105 -0.018568 0.1493 -0.028433 0.1003 0.093069 0.068078 0.024344 
0.029769 0.063639 0.062488 0.047033 0.11411 0.098823 0.078107 0.05065 
-0.017417 0.13253 0.034044 0.044567 0.072517 0.077614 0.068078 0.038648 
-0.014951 0.12349 0.064132 0.067585 0.031249 0.059857 0.039141 0.028947 
0.013164 0.0227 0.053938 0.099645 0.0067515 0.019576 0.014808 0.016123 
0.035688 -0.018897 0.019905 0.036346 -0.004593 -0.0088678 0.0075736 -0.018075 
0.0421 0.03651 -0.015444 -0.0075525 0.0016547 -0.015444 0.0054362 0.011026 
0.0093821 0.074161 -0.0088678 -0.0052507 -0.011334 -0.0095255 0.021549 0.023686 
-0.01117 0.14683 -0.0042642 0.050814 -0.0013048 0.019905 0.021384 0.041607 
-0.030242 0.11296 -0.011005 0.076463 0.051636 0.034866 0.02681 0.039963 
0.017932 0.026481 0.039799 0.090109 0.063639 0.05772 0.015137 0.042594 
0.046211 -0.078086 0.071366 0.065118 0.034044 0.037168 0.033222 0.01711 
0.042429 -0.039284 0.071695 -0.015444 0.020398 0.031249 0.069722 0.042265 
0.00050378 -0.008539 0.061501 -0.066741 -0.0027845 0.040785 0.056076 0.042594 
-0.011992 0.022206 0.056898 -0.057534 -0.011334 0.015794 0.037004 0.049499 
-0.0095255 0.041114 0.0016547 0.044073 0.01826 0.016452 0.0034632 0.056733 
0.009711 0.0023123 -0.03912 0.058213 0.035524 0.028454 0.027468 0.039141 
0.0079024 -0.018075 -0.022679 0.020233 0.049664 0.032729 0.062323 0.03536 
0.0031344 -0.039449 0.024015 -0.043724 0.038648 0.040128 0.060844 0.043251 
-0.0091966 -0.049807 0.0592 -0.11837 0.024673 0.044731 0.064132 0.051965 
0.023851 -0.041586 0.066434 -0.1552 -0.0082102 0.015465 0.03651 0.026317 
0.061666 -0.011827 0.061501 -0.084663 0.0013258 0.00050378 0.01004 -0.0052507 
0.10474 0.058871 0.022864 -0.013307 0.019247 0.011026 0.019247 -0.004593 
0.12875 0.18678 0.022206 0.040621 0.042923 0.043087 0.035853 0.0034632 
0.07038 0.24976 0.071695 0.073339 0.017603 0.05772 0.063968 0.045882 
-0.010841 0.2103 0.032564 0.070215 0.031249 0.048348 0.057391 0.032893 
-0.047341 0.15851 0.017438 0.099152 0.044238 0.009711 0.054432 0.044238 
-0.048327 0.15456 -0.025638 0.11592 0.042923 0.031085 0.066269 0.029441 
-0.017746 0.20224 -0.042901 0.17281 0.056569 0.059035 0.052294 0.041114 
0.017603 0.22345 -0.037476 0.10622 0.038319 0.041114 0.049006 0.037168 
0.081724 0.15292 -0.080388 0.077778 0.049499 0.041278 0.04506 0.032564 
0.12085 0.03651 -0.089266 0.043251 0.062817 0.041772 0.050486 0.02122 
0.10293 -0.098309 -0.049642 0.042429 0.066434 0.034044 0.060844 0.027961 
0.037004 0.0064227 0.01415 -0.018568 0.013821 0.031414 0.055089 0.038319 
0.0065871 0.24992 0.045882 -0.0062372 0.00099702 0.031249 0.057884 0.060679 
-0.010348 0.32851 0.046046 0.042923 0.020069 0.030098 0.055254 0.058213 
-0.0027845 0.050157 0.0689 0.050321 0.033387 0.01826 0.053938 0.051472 
0.024508 -0.079237 0.052623 0.1179 0.054925 0.023193 0.059693 0.052294 
0.071037 0.014972 0.036182 0.14174 0.057062 0.047855 0.058049 0.036675 
0.097179 0.068078 0.070051 0.071531 0.048677 0.032071 0.048677 0.033551 
0.065776 -0.023994 0.10524 0.0037921 0.028783 0.018425 0.013328 0.045553 
0.013986 -0.062467 0.034044 0.037826 0.030263 0.022371 0.025166 0.045718 
-0.024816 0.072024 -0.085485 0.11937 0.022206 0.047526 0.042758 0.051143 
-0.044217 0.2371 -0.084334 0.099974 0.03799 0.051801 0.029112 0.03799 
-0.0095255 0.26537 -0.033859 0.032071 0.019905 0.013328 0.02122 0.0070803 
0.058706 0.16821 -0.00015387 0.033222 0.010204 -0.0026201 0.019083 0.0034632 
0.13319 -0.003771 0.10129 -0.00097594 -0.034845 -0.021363 0.012177 0.00297 
0.14502 -0.10357 0.16821 0.028454 -0.015116 0.011191 0.037004 0.0083956 
0.083533 -0.090746 0.16393 0.083697 0.027468 0.050486 0.03388 0.024179 
0.037497 -0.10061 0.13845 0.083368 0.041443 0.036346 0.013821 0.054432 
0.034702 -0.081374 0.091918 -0.0055795 0.023357 0.015465 -0.0016336 0.030756 
0.034702 0.01563 0.01711 -0.092554 0.0042853 -0.0098543 0.013986 0.020069 
0.048513 0.13434 -0.043066 0.00033937 0.015301 -0.0022913 0.017767 0.012342 
0.054925 0.14157 -0.052273 0.1003 0.097672 0.050486 0.072681 0.044238 
0.04917 0.13203 -0.047176 0.11198 0.057391 0.019411 0.025988 0.0072447 
0.070708 0.21704 -0.0095255 0.10885 0.050486 0.034866 0.016616 0.058049 
-0.0019624 0.11658 -0.0080457 0.091425 0.041772 0.019083 0.0090533 0.020398 
0.038483 0.11329 -0.0098543 0.087808 0.049335 0.043251 0.024015 0.032236 
0.013492 0.045718 0.01974 0.10244 0.048841 0.047033 -0.015773 0.032236 
0.0031344 -0.023172 0.057555 0.13384 0.033715 0.033551 0.0079024 0.055911 
0.0024767 -0.058192 0.14667 0.039799 0.0052718 -0.012978 0.012835 0.0087245 
0.013986 -0.087951 0.18251 -0.025309 -0.015116 -0.0027845 0.01004 0.038812 
0.0024767 -0.01117 0.14946 -0.02235 -0.0011404 0.022371 0.029441 0.04095 
-0.012814 0.073504 0.077285 -0.020377 0.029769 0.038977 0.024508 0.040785 
-0.0082102 0.073668 0.036346 -0.023994 0.029276 0.021549 -0.012814 0.034044 
0.06331 -0.010841 0.053938 -0.00064712 0.026317 0.0075736 -0.0096899 0.0087245 
0.19747 -0.074633 0.015465 0.039634 0.02122 1.0539e-005 -0.010348 -0.023665 
0.19484 -0.10637 0.032071 0.04506 0.023522 0.020069 -0.031228 0.00033937 
0.079422 -0.086964 0.026646 0.066927 0.016781 0.026974 -0.023172 0.0014903 
0.0037921 -0.014129 -0.0022913 0.094384 0.00099702 0.020069 -0.023007 0.0051074 
-0.039284 0.041443 0.056898 0.018918 0.016288 0.00297 -0.023665 0.0083956 
-0.058028 0.11247 0.044731 -0.0040998 0.01152 0.00099702 0.0052718 0.041114 
-0.031557 0.12135 0.0092177 0.0095465 0.029112 0.010697 0.0098754 0.038648 
-0.034681 0.15292 -0.010183 0.037497 0.032236 0.042594 -0.0062372 0.05476 
-0.037969 0.15275 -0.017746 0.027796 0.024344 0.02829 -0.023336 0.043251 
-0.03912 0.19451 -0.028104 0.0036276 0.035688 0.023522 -0.0052507 0.050814 
-0.021528 0.14239 -0.073811 -0.0036066 0.055418 0.028783 0.005765 0.048348 
0.039799 0.070215 -0.05589 -0.055726 0.01826 0.019083 -0.0014692 0.023357 
0.077285 -0.0014692 0.037332 -0.069043 -0.00097594 0.013492 -0.024816 -0.016266 
0.10655 -0.075291 0.087972 -0.057699 0.0083956 0.0021479 -0.023501 -0.030077 
0.12266 -0.11903 0.1003 -0.026953 0.035688 0.0016547 -0.0098543 -0.010019 
0.050486 -0.051122 0.082875 -0.040764 0.021549 0.023851 0.00066819 0.0065871 
0.0062583 0.073668 0.047362 0.0095465 0.030756 0.032236 0.0018191 0.041936 
-0.014951 0.24104 0.013657 0.10902 0.038483 0.037004 0.0059294 0.047033 
0.0013258 0.27524 0.018096 0.13351 0.044567 0.012835 -0.0060728 0.05213 
0.0227 0.1003 0.050814 0.11625 0.036839 -0.014129 -0.0088678 0.029112 
0.01826 -0.098309 0.079422 0.057227 0.040785 0.0087245 0.034537 0.047033 
-0.038956 -0.15816 0.047197 -0.014458 0.052294 0.033222 0.045553 0.046868 
-0.051287 -0.14813 0.01826 0.00066819 0.051965 0.061172 0.034537 0.076627 
0.00083261 -0.19581 -0.0098543 0.051801 0.027303 0.02681 0.026646 0.048019 
0.027632 -0.15635 0.062488 0.093069 -0.0078813 0.0064227 0.01152 0.040456 
0.034044 0.016452 0.076792 0.065283 0.012177 0.0072447 0.024344 -0.0004827 
0.004943 0.20849 -0.0077169 0.05213 0.016616 0.027632 0.014643 0.044896 
-0.040271 0.3854 -0.044217 0.056569 0.061337 0.066269 0.047526 0.06742 
-0.011663 0.33772 0.015301 -0.0096899 0.080409 0.060679 0.045389 0.077121 
0.094384 0.0095465 0.11822 -0.056219 0.052294 0.044567 0.047362 0.024179 
0.19073 -0.2254 0.068078 -0.038462 0.024179 0.023686 0.025495 -0.01117 
0.14798 -0.24234 0.013328 0.011191 0.020891 0.019247 0.026974 -0.020212 
0.064296 -0.063289 -0.059507 0.00017495 0.041772 0.011026 0.034209 0.049499 
0.038483 0.088301 -0.056548 -0.033694 0.012999 0.019247 0.024837 0.022042 
0.077449 0.19928 -0.0050863 -0.0068948 0.02122 0.010862 0.035688 0.0088889 
0.081889 0.17774 0.048677 -0.012978 0.044238 0.03092 0.058377 0.029441 
0.059693 0.14601 0.0079024 0.057391 0.083368 0.061666 0.061337 0.054267 
0.078765 0.13812 -0.059014 0.10803 0.060679 0.059857 0.045882 0.032564 
0.028454 0.11658 -0.063946 0.11674 0.039799 0.027303 0.039963 0.029934 
-0.030406 0.02122 -0.036325 0.052459 0.013492 0.0069159 0.044731 0.036675 
-0.046025 -0.060165 0.036675 -0.019061 0.0083956 -0.0004827 0.085835 0.027632 
-0.047834 -0.065262 0.056569 0.025988 0.026481 0.0065871 0.065118 0.027796 
-0.038133 0.019576 0.029441 0.055747 0.044238 0.027961 0.057062 0.019576 
-0.033365 0.059857 0.027468 0.089123 0.045389 0.029276 0.046868 0.035031 
0.019083 -0.020377 0.13286 0.036839 0.012835 0.0092177 0.061501 0.037168 
0.089287 -0.089759 0.23742 -0.043066 0.0046141 -0.00064712 0.076627 0.029605 
0.15423 -0.058192 0.21441 -0.033859 -0.022679 -0.011334 0.071531 0.042265 
0.1031 0.028619 0.11806 -0.008539 -0.014622 0.025824 0.062323 0.060022 
0.016616 0.09422 0.079751 0.044073 0.0082312 0.025166 0.069722 0.03388 
-0.01232 0.14141 0.054432 0.11263 0.036017 0.0016547 0.052623 0.04358 
0.026974 0.12299 0.016452 0.21474 0.047855 0.020562 0.058871 0.0072447 
0.056569 0.13417 -0.0406 0.20487 0.031249 0.023522 0.051143 0.022864 
0.033222 0.12332 -0.086307 0.094548 0.020398 0.036182 0.076627 0.028619 
0.01711 0.18021 -0.12527 0.041607 0.072846 0.049499 0.069558 0.051636 
-0.039449 0.26998 -0.15503 0.05065 0.097508 0.06035 0.082382 0.055582 
-0.042573 0.30533 -0.12692 0.08304 0.03799 0.038483 0.097508 0.056733 
-0.020048 0.12891 -0.056712 0.08419 -0.019061 0.026646 0.061501 0.042265 
0.05772 -0.17361 0.045389 0.03092 -0.043066 0.017438 0.040621 0.037826 
0.13154 -0.36417 0.18432 -0.073154 -0.020212 -0.010019 0.043745 -0.011005 
0.22641 -0.32306 0.24417 -0.14648 -0.015938 -0.023007 0.042429 -0.0088678 
0.19698 -0.13021 0.23167 -0.11705 0.0056006 -0.0016336 0.054596 0.0046141 
0.092904 0.070873 0.14256 -0.020048 0.059528 0.0592 0.06479 0.061501 
0.057555 0.25715 0.0074092 0.027796 0.11411 0.10129 0.065612 0.046704 
0.039634 0.3221 -0.075127 0.070708 0.11346 0.094877 0.057391 0.05065 
0.00297 0.22164 -0.10472 0.10803 0.07301 0.052952 0.0421 0.013986 
-0.023172 0.041278 -0.02794 0.088301 0.016452 -0.0055795 0.03947 0.01415 
-0.033694 -0.048163 0.072846 -0.012978 -0.017417 -0.028597 0.013986 -0.025802 
-0.049642 -0.042573 0.043745 -0.054739 -0.03205 -0.02087 -0.0062372 -0.0042642 
-0.10061 0.06479 0.014479 -0.029584 -0.039613 -0.0004827 -0.016595 -0.02087 
-0.025145 0.14683 0.0023123 -0.004593 -0.0138 -0.015444 0.011191 0.044567 
0.032893 0.15538 0.014808 0.059693 -0.0031133 0.0039565 0.021384 0.033387 
0.016452 0.1299 0.064296 0.15407 0.057555 0.059528 0.022535 0.045389 
0.038812 0.13187 0.049664 0.21868 0.056898 0.066434 0.024508 0.037168 
0.03947 0.036017 0.050814 0.15094 0.032893 0.050157 -0.0073881 0.06594 
0.017932 -0.03501 0.072353 0.048348 0.029605 0.026481 0.022535 0.038648 
-0.006566 -0.036983 0.052623 0.0064227 0.04654 0.028947 0.0088889 0.055911 
0.04654 0.026481 0.04506 -0.03353 0.04654 0.037004 0.013821 0.047362 
0.1225 0.058871 0.051965 -0.038791 0.044238 0.028454 0.027632 0.035524 
0.13138 0.089123 0.020398 -0.0077169 0.037497 0.041114 0.0051074 0.0041209 
0.073668 0.092904 0.039141 -0.0070593 0.039634 0.033551 0.025495 0.017274 
-0.0013048 0.11346 -0.012978 -0.049807 0.03651 0.015137 -0.010019 0.005765 
-0.047176 0.085177 -0.022021 -0.091075 -0.0004827 0.017603 -0.02794 0.029934 
-0.065097 0.0064227 0.039141 -0.075949 0.00297 -0.0026201 -0.020541 0.032071 
-0.037147 -0.058685 0.050486 -0.073647 -0.011827 -0.00064712 -0.017746 0.033222 
-0.050464 -0.06148 0.013657 0.01826 0.033058 0.026317 0.013657 0.05065 
-0.070523 -0.013471 -0.036818 0.086821 0.052459 0.023028 0.031249 0.053445 
-0.049807 -0.046847 0.0083956 0.049335 0.035031 0.037004 -0.00097594 0.025988 
0.0024767 -0.072825 0.085177 0.039305 0.037168 0.042758 -0.017911 -0.0036066 
-0.0011404 -0.041751 0.10195 0.049499 0.043745 0.041443 -0.024816 0.013328 
0.0032988 0.057555 0.17577 0.078929 0.047033 0.027632 0.0016547 -0.0011404 
0.064132 0.095206 0.20043 0.13434 0.03947 0.037332 0.00050378 0.015137 
0.11773 0.12924 0.13499 0.19665 0.067256 0.051143 0.0016547 0.009711 
0.17774 0.1202 -0.014293 0.23282 0.080244 0.055254 0.018096 0.040456 
0.18399 0.12168 -0.2254 0.15522 0.062323 0.034373 0.007738 0.059528 
0.080902 0.1202 -0.27867 0.085835 0.0074092 0.01152 0.020398 0.056404 
-0.051122 0.17643 -0.22688 0.025659 0.01415 0.007738 0.010533 0.030263 
-0.13612 0.1853 -0.04323 -0.080552 0.030592 0.048677 0.018589 0.042923 
-0.12725 0.15768 0.18202 -0.23822 0.04095 0.030263 0.022206 0.036017 
-0.045696 0.012177 0.21227 -0.25927 1.0539e-005 0.010369 -0.00031829 0.041772 
0.025001 -0.058192 0.13631 -0.12264 -0.023665 -0.0057439 0.01826 0.023357 
0.098823 -0.15881 0.079751 -0.067399 -0.021856 -0.018239 0.020233 0.0087245 
0.092576 -0.17624 0.082875 -0.010019 0.011355 0.011191 0.0065871 -0.0054151 
0.06594 -0.11212 0.10737 0.024508 0.0079024 0.00017495 0.017767 0.016781 
0.048677 -0.032872 0.088465 0.030427 -0.010348 -0.018897 -0.0082102 0.00050378 
0.046704 0.015301 0.081395 0.090767 0.0059294 -0.019061 -0.0060728 0.014643 
0.030427 0.032236 0.02122 0.13351 0.015794 0.0056006 -0.014951 0.029934 
-0.00081153 0.02533 0.0060938 0.15111 0.038319 0.024837 -0.024816 0.04917 
-0.026131 -0.030735 0.035031 0.073997 0.035853 0.014479 0.0082312 0.029769 
-0.011005 0.090109 0.01415 0.038155 0.026481 0.024837 0.026974 0.053281 
0.00066819 0.25436 -0.0062372 0.041278 0.023028 0.012999 0.050979 0.0067515 
0.02829 0.25304 -0.03616 0.038977 0.020727 0.013164 0.046211 0.020891 
0.033551 0.13943 -0.046683 0.051801 0.035195 0.007738 0.040785 0.036675 
0.046868 0.11198 -0.0083746 0.05213 0.016123 0.0082312 0.021713 0.019083 
0.057884 0.19024 0.0095465 0.044402 0.034209 -0.010019 0.020398 -0.00064712 
0.087643 0.14831 0.03651 0.0067515 0.02122 0.0044497 0.037826 0.0064227 
0.10803 -0.026296 0.09126 -0.024487 0.04358 0.0098754 0.015137 -0.024487 
0.1054 -0.14139 0.077943 0.012013 0.038319 0.018589 0.0095465 -0.015444 
0.053938 -0.14434 0.067585 0.0064227 0.028454 0.010862 0.010533 -0.0011404 
-0.0068948 -0.10373 0.053774 0.01826 0.026974 0.0051074 0.028125 0.040785 
-0.0049219 -0.060658 0.037332 0.01415 0.042594 0.027961 0.052294 0.0421 
0.044896 -0.031228 0.022206 0.036675 0.021384 0.038319 0.058213 0.048841 
0.083368 0.01004 0.009711 0.014479 0.026974 0.03651 0.048513 0.027303 
0.06331 0.061172 0.020233 0.034702 0.027468 0.029769 0.046375 0.031907 
-0.0004827 0.10491 0.0059294 0.077285 0.020891 0.019411 0.042265 0.03651 
-0.029255 0.09126 -0.049807 0.10819 0.010862 0.0031344 0.065612 0.032729 
-0.033694 0.1054 -0.04471 0.10425 -0.0055795 -0.0050863 0.036017 0.052952 
-0.023665 0.15061 0.014808 0.040785 -0.0032777 0.018918 0.026646 0.06183 
-0.033365 0.17281 0.076956 -0.081868 -0.0013048 -0.0073881 0.036017 0.054925 
0.017603 0.059857 0.1276 -0.17739 0.0051074 -0.0027845 0.033387 0.043745 
0.085835 -0.1062 0.14141 -0.16687 0.022206 0.02829 0.055254 0.041114 
0.11099 -0.17016 0.10195 -0.021528 0.064625 0.065118 0.051801 0.025166 
0.081889 -0.048163 -0.01939 0.087808 0.06479 0.070544 0.040621 0.027632 
0.08008 0.03536 -0.086307 0.10902 0.057391 0.031085 0.00297 -0.0068948 
0.089287 0.077285 -0.060329 0.067913 0.028125 -0.011334 -0.0021268 -0.013143 
0.080738 0.1248 0.0088889 -0.017582 -0.037476 -0.031064 0.0064227 -0.0075525 
0.049499 0.21704 0.077285 -0.1279 -0.052766 -0.035338 -0.0029489 0.0044497 
0.016781 0.21885 0.082382 -0.13908 -0.015609 0.0098754 0.030263 0.021056 
0.020233 0.13269 0.032729 -0.045696 0.058049 0.026646 0.032729 0.038812 
0.024179 -0.036818 0.030427 0.03092 0.069886 0.04654 0.047855 0.011191 
-0.0080457 -0.076113 0.030592 0.065283 0.080409 0.051308 0.070215 0.062652 
-0.055726 -0.039449 0.022535 0.14552 0.061337 0.042429 0.061337 0.041936 
-0.082854 0.075312 0.020562 0.16985 0.082217 0.063803 0.058542 0.077449 
-0.083347 0.11395 -0.021528 0.15637 0.072353 0.057884 0.051472 0.082382 
-0.025474 0.078107 -0.011663 0.079751 0.045718 0.035524 0.062488 0.075148 
0.037004 0.016945 -0.004593 0.045882 0.029441 0.015794 0.065612 0.041772 
0.087314 -0.030077 -0.052273 0.014315 0.0098754 0.018754 0.055582 0.048841 
0.062817 0.015301 -0.069208 0.018918 0.04095 0.034866 0.03947 0.033551 
0.087972 0.075805 0.01415 0.057391 -0.001798 0.049335 0.0324 0.015301 
0.072024 0.1493 0.040456 -0.029748 -0.01117 -0.001798 0.024508 0.024344 
0.10984 0.11017 0.070873 -0.027775 0.020233 -0.02235 0.097344 0.059035 
0.11592 0.071202 0.094384 -0.056877 0.036346 0.0016547 0.04654 0.029112 
0.15916 -0.0047575 0.13861 -0.055561 0.013164 0.037332 0.030098 0.027632 
0.10935 0.045224 0.11066 0.0069159 0.040785 0.039305 0.050321 0.024508 
0.018754 0.14174 0.034044 0.10639 0.070215 0.03388 0.050486 0.026317 
-0.037969 0.19796 -0.0055795 0.1784 0.084684 0.025166 0.041278 0.032071 
-0.0059084 0.19879 -0.03616 0.13615 0.054925 0.041936 0.036839 0.028454 
0.021713 0.043087 -0.0082102 0.10228 0.019576 0.036017 -0.00031829 0.0098754 
0.043251 -0.23362 0.013164 0.097508 0.011848 0.021713 0.016781 0.016452 
0.0069159 -0.31501 0.032893 0.058706 0.0028056 0.0060938 0.034373 -0.0088678 
-0.060658 -0.22359 0.058049 0.021713 0.029441 0.0083956 0.044402 0.023193 
-0.099624 -0.025802 0.010533 0.072846 0.058871 0.028947 0.038648 0.029605 
-0.11376 0.1345 -0.0062372 0.18218 0.06183 0.066598 0.034373 0.041607 
-0.074469 0.27507 0.036017 0.12497 0.054925 0.050486 0.042758 0.037332 
0.018589 0.23594 0.14387 0.016288 0.023028 0.020069 0.03651 0.032564 
0.15818 0.028454 0.2657 -0.065919 -0.0072237 -0.0075525 0.028125 -0.0050863 
0.22197 -0.218 0.30434 -0.15964 -0.054575 -0.0087034 0.016452 -0.009361 
0.20487 -0.29232 0.21095 -0.14566 0.0059294 0.021384 0.022535 -0.0011404 
0.12612 -0.15783 0.047197 -0.019061 0.056569 0.052787 0.049664 0.031085 
0.045553 0.019905 -0.1016 0.065283 0.072681 0.052952 0.063968 0.049006 
-0.0014692 0.19139 -0.16144 0.12398 0.026646 0.020398 0.055911 0.037004 
-0.019226 0.17577 -0.17476 0.21095 0.015794 0.012835 0.02681 0.057884 
-0.017088 0.10441 -0.11689 0.25929 0.044073 0.022535 0.0082312 0.026974 
-0.027118 0.041278 -0.017253 0.2269 0.049335 0.0095465 -0.0022913 0.055089 
-0.06 0.064625 0.068407 0.18267 0.0046141 -0.020212 0.015137 0.0227 
-0.024816 0.075148 0.14486 0.15012 -0.0040998 -0.012814 0.01711 0.021384 
0.071859 0.060844 0.13516 0.06594 -0.010348 0.026317 0.017767 -0.035174 
0.16722 0.018096 0.13549 -0.0054151 0.04095 0.038812 0.0227 -0.014787 
0.12299 0.030263 0.10277 -0.010183 0.038155 0.046375 0.053116 0.0042853 
0.047197 0.022042 0.099645 -0.0031133 0.048019 0.048184 0.065283 0.051965 
0.0028056 -0.0138 0.080244 -0.039284 0.041772 0.041936 0.046375 0.024837 
0.0092177 -0.00097594 0.030756 0.00050378 0.041772 0.044731 0.030756 0.027303 
0.010533 0.045718 -0.03205 0.034209 0.045389 0.074983 0.014808 0.0023123 
0.036839 0.065118 -0.016595 0.01826 0.015465 0.042265 0.019576 0.01974 
0.031085 0.017274 0.0036276 0.011191 0.0067515 0.026481 0.02533 -0.0004827 
0.04095 0.019411 0.02533 0.010697 0.004943 0.018589 0.016945 0.027961 
0.071202 0.058871 0.099316 -0.014293 0.0072447 0.020891 -0.01528 0.015301 
0.084684 0.1276 0.13598 -0.042079 -0.0014692 0.0056006 -0.0019624 0.018918 
0.081395 0.17396 0.12644 -0.027775 -0.004593 -0.00015387 0.014643 0.0227 
0.047033 0.12201 0.030263 0.028947 0.0041209 0.00033937 0.052459 0.029276 
-0.0042642 0.10244 -0.034681 0.027961 0.013986 -0.0014692 0.010369 0.020069 
-0.041915 0.24795 -0.10045 0.065776 0.049335 0.0070803 0.0023123 0.046868 
-0.10784 0.36139 -0.12988 0.10524 0.039963 0.048677 0.031414 0.048841 
-0.11607 0.31585 -0.018897 0.053774 0.049335 0.045718 0.056898 0.071695 
-0.046025 0.083533 0.057062 -0.010348 0.017932 0.024179 0.039141 0.027303 
0.033058 -0.34493 0.14502 -0.093212 -0.00015387 0.0039565 0.00099702 0.027961 
0.01267 -0.60273 0.21391 -0.12725 -0.028104 0.0069159 -0.00081153 0.013164 
-0.063782 -0.33474 0.064461 -0.062467 -0.0021268 0.039141 0.0051074 0.058706 
-0.080881 0.036346 -0.091568 0.072681 0.054925 0.064132 0.027796 0.070215 
-0.043888 0.21572 -0.1552 0.15851 0.085999 0.048513 0.062488 0.064461 
0.018425 0.21934 -0.090581 0.055582 0.037497 0.0031344 0.048019 0.041278 
0.1179 0.22575 0.033058 -0.010019 0.021549 0.024837 0.016616 0.026646 
0.23742 0.17478 0.13894 -0.035338 0.039799 0.033058 -0.0075525 0.0087245 
0.28116 0.091425 0.16738 -0.032379 0.012999 0.026152 0.0011614 -0.020212 
0.22213 0.0324 0.097344 -0.010676 -0.0016336 -0.0138 1.0539e-005 -0.0080457 
0.11954 0.0689 0.039963 -0.0062372 -0.056548 -0.045696 -0.020706 -0.0059084 
0.10819 0.070873 0.069886 -0.001798 -0.047834 -0.030899 -0.019719 0.019411 
0.067913 -0.0096899 0.089945 -0.038298 -0.011005 0.0093821 0.016781 0.070215 
0.027303 -0.090746 0.050979 -0.028433 0.063474 0.028783 0.030756 0.053116 
0.0052718 -0.10784 -0.03616 0.060679 0.077449 0.036017 0.072353 0.051965 
-0.077757 0.021713 -0.09387 0.080573 0.065776 0.038155 0.045718 0.083862 
-0.11952 0.2001 -0.061151 0.053445 0.060679 0.069886 0.034044 0.089452 
-0.13432 0.26373 -0.029255 -0.02235 0.047526 0.044238 0.0098754 0.084026 
-0.082196 0.1853 -0.041586 -0.062796 0.026317 0.016123 0.0092177 0.050321 
-0.017911 0.15538 -0.043395 -0.096336 0.012342 0.010862 0.026481 0.044567 
0.021056 0.14141 -0.043724 -0.065919 0.025495 0.0098754 0.028783 0.0324 
0.029605 0.082546 -0.010676 0.010862 0.01826 0.06035 0.0067515 0.059364 
0.039305 -0.0031133 0.044073 0.037826 0.031578 0.025166 0.0080668 0.022535 
0.027961 -0.034681 0.054596 0.048348 0.020562 0.0044497 0.0056006 0.066105 
0.03947 -0.040271 0.049499 0.019576 -0.0040998 -0.0078813 0.037332 0.022042 
0.040621 0.0011614 0.053938 0.034702 -0.0026201 0.0041209 0.016288 0.04358 
0.095699 -0.070359 0.12299 0.022864 0.00083261 0.0044497 -0.0016336 0.013328 
0.15292 -0.17723 0.19418 0.066434 -0.030406 -0.012814 -0.017088 -0.0098543 
0.15538 -0.1353 0.084848 0.16097 -0.010676 -0.026624 -0.0064016 -0.013636 
0.094548 0.049828 -0.053917 0.11658 0.039634 -0.0027845 0.041114 0.030756 
0.00099702 0.19912 -0.11343 -0.024652 0.088136 0.034209 0.061172 0.054596 
0.013657 0.147 -0.08384 -0.091732 0.10935 0.072517 0.061172 0.073504 
0.13532 -0.047998 -0.047669 -0.03353 0.049992 0.036182 0.01711 0.025001 
0.16097 -0.10998 -0.069536 -0.0034422 0.029769 0.018918 0.027632 0.017438 
0.095206 0.0056006 -0.061316 0.040128 0.024508 0.03947 -0.04471 -0.0083746 
0.004943 0.17988 -0.12034 0.1294 0.045718 0.015959 0.01711 0.041443 
-0.1182 0.33114 -0.053588 0.068407 0.044073 0.052294 0.027796 0.082546 
-0.11196 0.39625 0.14338 -0.023336 0.058049 0.040456 0.020727 0.043909 
-0.065262 0.38786 0.19616 -0.087129 0.051965 0.042594 0.047526 0.033715 
0.011684 0.10376 0.22345 -0.11327 0.060844 0.071202 0.069886 0.013986 
0.11625 -0.27111 0.24104 -0.0771 0.038155 0.011191 0.020398 -0.028433 
0.16393 -0.31106 0.11411 0.071531 0.027632 0.0044497 0.020069 -0.0026201 
0.098001 -0.098802 0.027961 0.22296 0.030098 -0.0072237 0.01974 0.015137 
0.060515 1.0539e-005 0.072353 0.17166 0.030427 0.010369 0.0227 0.050979 
0.064296 0.014808 0.084355 0.1202 0.031249 0.012013 0.049992 0.035688 
0.063145 0.042758 0.032564 0.11592 0.0088889 0.022042 0.040128 0.048348 
0.0023123 0.081724 -0.071838 0.045718 0.032071 0.047197 0.034702 0.037661 
-0.10242 0.12546 -0.10702 -0.0090322 0.051965 0.048348 0.051143 0.066434 
-0.13711 0.16196 -0.12396 -0.0050863 0.063474 0.038977 0.062159 0.086328 
-0.1062 0.086328 -0.088444 0.013821 0.045224 0.035195 0.059693 0.037497 
-0.0091966 0.0026412 -0.0062372 -0.049807 0.013821 0.030592 0.023357 0.0044497 
0.014479 0.053938 -0.0096899 -0.026953 0.012835 0.019411 0.01711 -0.014622 
-0.0024557 0.19254 0.050814 0.091425 0.043087 0.030592 0.025166 0.0044497 
-0.049642 0.27524 0.11609 0.051308 0.068571 0.03799 0.034044 0.043745 
0.0082312 0.244 0.15966 -0.060165 -0.015116 0.043416 0.0592 0.014972 
0.1276 0.036839 0.22789 -0.13941 -0.02646 -0.0072237 0.021384 -0.0080457 
0.21358 -0.21586 0.22756 -0.0064016 0.0019835 0.0074092 0.0041209 -0.010183 
0.16623 -0.32191 0.16311 0.17117 0.05624 0.023357 0.012013 0.0082312 
0.11214 -0.24497 0.10228 0.20832 0.043416 0.018589 0.034209 0.039141 
0.033058 -0.070523 0.026646 0.18218 0.018425 0.022042 0.05065 0.045224 
-0.01117 0.086985 -0.038298 0.073668 0.004943 0.027303 0.036839 0.054432 
-0.0503 0.22065 -0.056548 -0.0070593 0.04917 0.064625 0.037332 0.042429 
-0.065097 0.25452 -0.030406 -0.0503 0.077778 0.054432 0.032564 0.053281 
0.041114 0.071366 0.074819 -0.075949 0.047691 0.049335 0.038319 0.00083261 
0.20273 -0.20468 0.10359 -0.080223 0.034044 0.027796 0.063803 -0.0098543 
0.18152 -0.2282 0.08715 -0.0098543 0.05476 0.051801 0.060022 0.0037921 
0.059364 -0.11886 0.081395 0.027139 0.03799 0.063639 0.056569 0.031742 
-0.0138 0.0070803 0.12497 -0.044052 -0.0070593 0.010862 0.01267 0.010533 
-0.054246 0.065776 0.17511 -0.043395 -0.036489 -0.0024557 0.0083956 0.026646 
-0.058192 0.085835 0.11132 0.077778 -0.0098543 -0.010183 0.027796 0.022864 
-0.040764 0.079916 0.027961 0.21128 0.022206 0.021713 0.013492 0.03388 
-0.045696 0.10984 -0.024158 0.2588 0.04654 0.030427 0.029605 0.034209 
-0.013636 0.14141 -0.029255 0.19172 0.033551 0.021056 0.02533 0.05476 
-0.018075 0.13105 0.011026 0.087479 0.01826 0.029769 0.032893 0.046046 
0.0042853 0.098988 0.021056 -0.021856 0.055911 0.024508 0.043745 0.059035 
0.045718 0.06331 0.014808 -0.0024557 0.030756 -0.0064016 0.0037921 0.028783 
0.10293 0.058871 -0.023007 0.0786 0.0011614 0.035688 0.022371 0.022535 
0.11937 0.057227 -0.071181 0.070051 0.019576 0.035524 0.030592 0.033222 
0.077778 0.10655 -0.071016 0.065447 0.01415 0.020727 0.037332 0.031578 
0.044731 0.11411 -0.052766 0.027468 0.013164 0.02122 0.027961 0.033058 
0.0227 0.089123 -0.073976 0.0082312 0.0047785 0.014808 0.0087245 0.012342 
0.02122 0.092247 -0.055397 -0.010512 -0.016266 0.02829 -0.017088 -0.0024557 
0.0046141 0.084848 -0.03912 0.0060938 -0.025802 -0.009361 -0.0138 0.021056 
0.02533 -0.017088 0.034373 0.038483 -0.03057 -0.01939 0.0024767 0.021549 
0.037004 -0.15059 0.051636 0.025824 -0.00015387 -0.010019 0.019905 0.0028056 
0.049335 -0.14747 0.055089 0.05213 -0.0042642 0.010533 0.0028056 -0.00064712 
0.025495 -0.023994 0.15028 0.043416 0.019576 0.045553 0.016452 -0.0044286 
-0.04471 0.17593 0.15604 0.0016547 0.07597 0.064132 0.042594 0.033222 
-0.039613 0.24729 0.19385 -0.0055795 0.075312 0.070873 0.040621 0.029441 
0.10211 0.0028056 0.17199 0.012999 0.051801 0.027961 0.044402 -0.011334 
0.25403 -0.1307 0.10721 0.090931 0.033715 0.044567 0.025824 -0.036489 
0.26537 -0.098473 0.030592 0.12694 0.023686 0.0088889 -0.0019624 -0.0083746 
0.13845 0.062488 -0.040435 0.1197 0.020562 0.0014903 0.026317 0.02533 
-0.014129 0.16278 -0.083347 0.13795 0.01826 0.013657 0.078765 0.098988 
-0.14434 0.23151 -0.077922 0.058706 0.036182 0.03388 0.074983 0.12562 
-0.18726 0.21506 -0.1478 0.038648 0.019576 0.044402 0.062981 0.12842 
-0.14171 0.18317 -0.10784 0.03799 0.0034632 0.010862 0.033387 0.061008 
-0.07825 0.16015 -0.034516 0.032236 -0.006566 -0.008539 -0.0073881 0.025824 
-0.041422 0.14124 0.010697 0.0013258 -0.018733 -0.022021 0.0080668 -0.0013048 
-0.050464 0.18974 0.018754 0.016452 -0.0042642 -0.011005 0.017603 0.017274 
-0.016102 0.19632 -0.0055795 0.0059294 0.011848 0.017438 0.017274 0.0092177 
0.044402 0.10211 0.055254 -0.036983 0.051801 0.042758 0.0037921 0.010369 
0.088301 -0.019884 0.063968 -0.051451 0.066763 0.033058 -0.0098543 -0.001798 
0.12792 -0.03057 -0.003771 0.067913 0.058377 0.055089 0.039305 0.015137 
0.12233 -0.020048 -0.013636 0.10573 0.054432 0.047033 0.025659 -0.011827 
0.1276 -0.048985 -0.0091966 0.036346 0.058213 0.049499 0.028783 0.016452 
0.10951 -0.1159 0.03536 -0.024816 0.038812 0.028783 0.011684 0.010862 
0.083533 -0.11327 0.068242 -0.017253 0.018425 0.0028056 0.029934 0.033222 
0.04358 -0.052602 0.082053 -0.038791 0.01563 0.0016547 0.053445 0.04917 
0.016945 0.034866 0.078436 -0.014787 0.030427 0.016781 0.029112 0.036017 
0.024344 0.053774 0.076627 0.023522 0.064625 0.050486 0.021713 0.024344 
0.018425 0.076956 0.081724 0.0013258 0.04917 0.040785 0.028783 0.036675 
-0.038791 0.072517 0.10819 0.0023123 0.026646 0.037332 0.04654 0.060844 
-0.070852 0.062159 0.089287 0.0088889 0.037826 0.081724 0.06035 0.017932 
-0.061645 0.050814 0.041443 0.03388 0.042594 0.0065871 0.034373 0.049664 
-0.051615 0.11461 0.014808 0.0080668 0.020233 0.047526 0.016123 0.010697 
0.060022 0.011191 0.014972 -0.0024557 0.01267 0.014479 0.0014903 0.0019835 
0.044896 0.0592 0.033058 0.013821 0.017438 0.028125 0.013328 0.022371 
0.032071 0.070544 0.023522 0.0090533 0.039963 0.016123 0.03947 0.0088889 
0.028783 0.074161 0.024179 0.011191 0.055089 0.02681 0.040456 0.024837 
0.058377 0.075805 0.029769 -0.021856 0.039799 0.0075736 0.033551 -0.0032777 
0.11937 0.064296 0.029112 -0.013471 0.033222 0.022042 0.0047785 -0.019555 
0.14881 0.047855 0.040785 0.0070803 0.024179 0.010697 0.021056 0.023193 
0.084684 -0.009361 0.038648 0.026317 0.04654 0.019411 0.050814 0.055254 
0.041772 0.009711 0.0421 0.04358 0.024673 0.027632 0.034209 0.076463 
-0.016102 0.03388 0.072846 0.0021479 0.014315 0.031085 0.032893 0.062159 
-0.080881 0.12825 0.0013258 -0.025474 0.04095 0.046375 0.02681 0.059364 
-0.097322 0.16903 -0.065097 0.020398 0.047855 0.030427 0.041278 0.052294 
-0.058521 0.18958 -0.078579 0.039634 0.03799 0.019576 0.057227 0.057884 
-0.042737 0.13286 -0.059178 0.005765 0.0421 0.0037921 0.052294 0.074983 
-0.0032777 0.064461 0.026481 -0.0095255 0.04506 0.036182 0.040621 0.064625 
0.017274 0.022864 0.028783 -0.0068948 0.037661 -0.00015387 0.020727 0.028454 
0.069064 0.053116 0.018754 -0.0096899 0.032893 0.0072447 0.0024767 0.017274 
0.099152 0.086163 -0.043888 0.064461 0.030592 0.012506 0.014972 0.0074092 
0.12299 0.12036 -0.056712 0.15522 0.049335 0.021056 0.0074092 0.036182 
0.098659 0.17478 -0.015116 0.19879 0.070708 0.029769 0.016781 0.038977 
0.0069159 0.084848 0.049335 0.19649 0.063803 0.026317 0.015465 0.059364 
-0.053424 -0.063124 0.11559 0.17001 0.026646 0.0024767 0.01152 0.046868 
-0.0050863 -0.15766 0.20536 0.055582 -0.047012 -0.016102 0.018918 0.021713 
0.014315 -0.18759 0.22805 -0.10604 -0.063782 -0.03616 0.011848 -0.0024557 
0.042923 -0.25072 0.25946 -0.18939 -0.027118 -0.0052507 0.027139 0.025824 
0.10145 -0.24595 0.22065 -0.1769 0.020398 0.023357 0.019905 0.0062583 
0.13532 -0.15257 0.12036 -0.12034 0.026481 0.030427 0.0074092 0.0060938 
0.11773 -0.12149 -0.012649 -0.0004827 0.055254 0.01711 0.037332 -0.0011404 
0.066598 -0.10045 -0.109 0.072517 0.058706 0.0092177 0.041443 0.030756 
0.01152 0.08567 -0.12231 0.1128 0.057555 0.034866 0.038319 0.01415 
-0.0073881 0.26307 -0.096007 0.11033 0.049992 0.031907 0.022864 0.053938 
0.0088889 0.35087 -0.050958 0.058213 0.043416 0.026646 0.031907 0.024508 
0.01415 0.31799 0.064954 0.049828 0.028783 0.013164 0.041772 0.0592 
0.032893 0.18103 0.16048 -0.011827 0.052294 -0.0040998 0.037661 0.032564 
0.02122 0.098001 0.15193 0.0018191 0.020069 0.01974 0.025495 0.04095 
0.022535 0.067749 0.090109 0.046375 0.018754 0.012506 0.010862 0.034209 
0.031742 -0.039942 0.015301 0.033222 0.010533 0.017603 0.0095465 0.023357 
0.073504 -0.1256 -0.0024557 0.030756 0.01415 0.01152 0.031907 -0.0050863 
0.096521 -0.13596 0.03092 0.044567 0.032729 0.023522 0.0095465 -0.0042642 
0.12677 -0.11212 0.041772 0.073668 0.00050378 0.026481 0.00033937 -0.0060728 
0.11181 -0.13086 0.074161 0.027796 0.030756 0.025988 0.0062583 -0.0024557 
0.027468 -0.12149 0.013328 0.033387 0.014808 0.0032988 0.033715 0.016781 
-0.029584 -0.00064712 0.016781 0.041772 0.031907 0.025659 0.057884 0.056076 
-0.04619 0.14009 0.0324 0.0689 0.024179 0.033715 0.030756 0.038812 
-0.029584 0.19583 0.054432 0.096521 -0.018239 0.020398 0.030098 0.038977 
-0.0057439 0.1904 0.049006 0.10951 -0.0004827 -0.0029489 0.0062583 0.027303 
0.035524 0.13286 0.06035 0.11559 -0.0059084 -0.013143 0.0056006 0.0090533 
0.1008 0.030427 0.11263 0.0046141 -0.024323 -0.024323 0.011026 1.0539e-005 
0.12447 -0.03912 0.14568 -0.094527 -0.0052507 0.0083956 0.016452 -0.0088678 
0.11724 -0.066741 0.10359 -0.088937 0.047855 0.054596 0.046375 0.005765 
0.084026 -0.074962 0.047855 -0.020706 0.085999 0.065283 0.052952 0.045389 
0.03388 -0.025967 -0.055726 0.055254 0.10606 0.090603 0.080573 0.092904 
0.054267 0.018589 -0.13234 0.12431 0.097672 0.095371 0.08978 0.064132 
0.063474 -0.0029489 -0.14073 0.097015 0.051801 0.077943 0.04654 0.052787 
0.0083956 -0.081539 -0.061316 0.029934 0.010204 0.037661 -0.00015387 0.019905 
-0.023336 0.017932 0.034044 -0.064933 -0.0082102 0.0039565 -0.020212 0.030756 
0.0065871 0.20964 0.062488 -0.10998 -0.0024557 0.0062583 -0.013636 -0.011005 
0.086492 0.25946 0.089616 -0.11771 0.0036276 0.012506 0.029769 -0.0075525 
0.066269 0.18777 0.088136 -0.07003 -0.017088 0.025001 0.025495 -0.013471 
0.025495 0.1299 0.047033 0.059364 0.022864 0.046868 0.03388 0.032893 
-0.0138 0.12085 0.068407 0.1322 0.062817 0.050486 0.047197 0.031578 
-0.056712 0.1128 0.062652 0.1271 0.070215 0.062488 0.046211 0.037004 
-0.07414 0.14634 0.065612 0.08156 0.055911 0.063968 0.029276 0.023851 
-0.039942 0.18448 0.029934 0.029276 0.034537 0.038155 0.014808 0.036839 
0.0026412 0.19435 0.035524 -0.040435 0.023686 0.0324 0.016945 0.02829 
0.047691 0.15785 0.030427 -0.0083746 0.0023123 0.025001 0.031742 0.046375 
0.047033 0.078272 -0.0059084 0.086821 0.0032988 0.021384 0.03947 0.035031 
0.041936 0.063803 -0.094692 0.13236 0.030098 0.015794 0.036675 0.048019 
0.040456 0.022864 -0.11491 0.10688 0.053281 0.033387 0.036839 0.01826 
0.038648 0.081067 -0.092719 0.045553 0.046046 0.042429 0.019411 0.01004 
0.065612 0.12908 -0.045203 -0.018404 -0.0016336 0.0023123 0.021384 0.00066819 
0.072024 0.13795 0.015794 -0.035832 -0.040764 -0.0067304 0.028619 0.016288 
0.063968 0.11411 0.033715 0.026974 -0.012156 -0.0057439 0.009711 0.012835 
0.057391 0.095042 0.036182 0.18761 0.033222 0.013328 0.00050378 0.013821 
0.046211 0.034373 -0.011827 0.23562 0.043087 0.016945 0.017438 0.014315 
0.011684 0.072517 -0.041422 0.2006 0.056569 0.032729 0.015465 0.041114 
-0.054246 0.18876 -0.0044286 0.10014 0.049664 0.053116 0.037497 0.051472 
-0.084169 0.2759 0.060515 -0.038627 0.048841 0.056076 0.051965 0.064954 
-0.066413 0.14798 0.13993 -0.18528 0.01152 0.072188 0.056569 0.056569 
0.0031344 -0.032708 0.14174 -0.21981 -0.0019624 0.070708 0.056569 0.028454 
0.095206 -0.26913 0.093726 -0.11755 0.018589 0.053938 0.06742 0.021056 
0.10869 -0.2813 0.062323 -0.027611 0.040292 0.004943 0.040456 0.025659 
0.039305 -0.15931 -0.046519 0.089945 0.035853 0.0028056 0.028783 0.045718 
-0.039449 0.12053 -0.10735 0.18991 0.014972 0.02829 -0.02235 0.031907 
-0.088444 0.51742 -0.094034 0.10967 0.0051074 -0.0036066 -0.023336 0.013164 
-0.064933 0.64928 -0.0073881 0.0093821 -0.0026201 -0.0062372 0.0083956 -0.012485 
0.15374 0.2463 0.093891 -0.014622 0.051636 0.037168 0.047691 -0.03616 
0.26636 -0.29199 0.17873 -0.060658 0.084026 0.041772 0.032729 -0.049971 
0.22838 -0.46627 0.28379 -0.093212 0.053774 0.049499 0.033058 -0.0095255 
0.068078 -0.3446 0.26537 -0.10061 0.050486 0.037497 0.024508 0.051801 
-0.051944 -0.17476 0.18284 -0.037969 0.042265 0.032236 0.049828 0.077778 
-0.089924 -0.042737 0.12677 -0.0082102 -0.00015387 0.010697 0.049006 0.068242 
-0.10637 0.082711 0.050814 0.030756 -0.036983 -0.0013048 0.018918 0.08978 
-0.1136 0.20799 -0.0022913 0.061666 -0.025967 0.0069159 0.0095465 0.066105 
-0.075127 0.26455 -0.05441 0.072353 -0.030077 -0.0047575 0.0069159 0.081889 
0.0065871 0.21474 -0.06296 0.052623 -0.0011404 -0.001798 0.0044497 0.014808 
0.08304 0.04917 -0.022679 0.029769 0.0052718 -0.0067304 0.021384 0.017932 
0.14338 -0.14698 0.042429 0.029112 0.015794 0.01267 0.019247 -0.020212 
0.14387 -0.17262 0.059364 -0.006566 0.014315 0.01826 0.012013 0.0046141 
0.11494 -0.11278 0.041114 -0.043888 0.016288 0.01563 0.0095465 -0.0027845 
0.060022 -0.067399 0.012342 -0.022679 0.012999 0.017438 0.033551 0.044238 
-0.0088678 0.0024767 -0.02498 0.011848 0.030592 0.0098754 0.079916 0.041278 
-0.0029489 0.032893 -0.026789 0.016288 0.047691 0.042265 0.066434 0.057062 
0.037168 0.033715 0.0093821 -0.023172 0.0689 0.041278 0.041772 0.066927 
0.037826 0.024015 0.055582 -0.0039354 0.041443 0.037004 0.035195 0.049664 
0.03947 0.048677 0.069064 -0.029255 0.032893 0.009711 0.029441 0.036017 
0.043745 -0.0044286 0.098659 -0.041257 0.019576 0.014643 0.037168 0.03947 
0.04506 0.014315 0.13269 -0.0072237 0.028454 -0.013471 0.018425 0.01267 
0.053938 0.0069159 0.072188 0.088794 0.056733 0.039305 0.013492 0.020398 
0.052294 0.0021479 0.048348 0.28987 0.072353 0.042594 0.023193 0.0092177 
0.035853 0.0037921 0.025659 0.37685 0.0786 0.047855 0.03092 0.043745 
0.0227 0.010862 0.01004 0.27655 0.060515 0.028619 0.033058 0.023686 
0.009711 0.054596 0.042923 0.077943 0.035688 0.017274 0.022371 0.03947 
0.00083261 0.11494 0.048677 -0.083018 -0.012156 0.024344 0.022206 0.030427 
-0.0072237 0.14108 0.073339 -0.18578 -0.012814 0.022042 0.041443 0.055747 
0.018589 0.089287 0.053774 -0.22474 0.029934 0.024179 0.047855 0.05065 
0.035524 -0.012485 0.028783 -0.18216 0.045718 0.019083 0.066598 0.062817 
0.05065 -0.085813 0.026317 -0.021199 0.062817 0.026974 0.060515 0.050321 
-0.019555 -0.027611 -0.05737 0.12151 0.0689 0.05065 0.033222 0.077121 
-0.0965 0.11921 -0.10127 0.12743 0.053938 0.052623 0.034209 0.067091 
-0.097816 0.23644 -0.11935 0.083204 0.023522 0.011191 0.033715 0.053938 
-0.091239 0.2583 -0.023007 0.050486 0.019247 0.0031344 0.08156 0.012177 
-0.040928 0.31684 0.036182 0.025495 -0.039778 -0.011827 0.018425 0.02829 
0.028454 0.35942 0.055911 0.029934 -0.014293 0.010697 0.0013258 0.018918 
0.11378 0.28198 0.055254 -0.031228 0.01415 0.023357 0.0052718 0.0013258 
0.19024 0.1202 0.086985 -0.098967 0.025495 0.028125 0.031742 -0.026789 
0.21589 -0.30695 0.11872 -0.042573 0.042594 0.017767 0.027303 -0.011334 
0.1881 -0.77438 0.14387 0.047855 0.056733 0.020398 0.010204 -0.018075 
0.11707 -0.71963 0.081724 0.09981 0.052294 0.020069 0.0016547 -0.018897 
0.045389 -0.35562 -0.015938 0.094384 0.04506 0.018589 0.018754 -0.0026201 
-0.0039354 0.033058 -0.10834 0.16574 0.08978 0.023357 0.037004 0.038155 
-0.061645 0.26866 -0.19071 0.27639 0.091096 0.047362 0.071202 0.089287 
-0.068714 0.30944 -0.15306 0.26061 0.071531 0.043251 0.063639 0.091096 
-0.059507 0.27146 -0.01232 0.18366 0.045389 0.039963 0.038648 0.066105 
-0.021692 0.25978 0.095535 0.10639 0.017274 -0.0039354 0.036839 0.034866 
-0.037476 0.20109 0.13664 0.069722 -0.0036066 0.0056006 0.029605 0.043251 
-0.020048 0.14305 0.15555 -0.013307 -0.0044286 0.0037921 0.035853 0.026974 
0.012506 0.11083 0.11263 -0.073482 0.0014903 -0.0044286 0.01152 0.026646 
0.031578 0.16442 0.085341 -0.031886 0.0079024 0.004943 0.0047785 0.020233 
0.040785 0.19599 0.023193 -0.045861 0.0026412 -0.0019624 -0.021528 0.0013258 
0.063968 0.20158 0.013821 -0.025309 0.0092177 0.0021479 0.011848 -0.0075525 
0.058706 0.15226 -0.02235 -0.00064712 0.030592 0.011684 0.033551 0.010533 
0.061995 -0.003771 -0.038133 -0.03205 0.039141 0.004943 0.02533 0.00066819 
0.065776 -0.077264 -0.05737 -0.0095255 0.039963 0.029934 0.025001 0.02533 
0.049992 -0.079072 -0.1108 0.027468 0.012342 0.010862 0.024508 0.024673 
0.052459 -0.0050863 -0.085156 0.076956 0.025824 0.02533 0.033387 0.048513 
0.041607 0.092904 -0.020706 0.036017 0.037168 0.042429 0.046375 0.041772 
0.041607 0.24121 0.019247 0.037004 0.06594 0.054596 0.038648 0.051308 
0.050321 0.29365 0.10754 0.097344 0.047362 0.071531 0.01974 0.051801 
0.071859 0.1271 0.15045 0.054432 0.033551 0.051472 0.020233 0.035688 
0.13927 -0.25269 0.23858 -0.071509 -0.017582 0.0018191 0.030098 0.0039565 
0.15785 -0.44078 0.24532 -0.14204 -0.029091 -0.020212 0.014972 -0.0138 
0.10458 -0.35381 0.21358 -0.11787 -0.012156 -0.011992 0.0085601 -0.043888 
0.037826 -0.2203 0.1396 -0.039613 0.023357 0.034209 0.021878 -0.006566 
-0.046683 -0.15552 -0.0073881 0.08567 0.057555 0.049992 0.018754 0.021549 
-0.074469 -0.0078813 -0.080552 0.16738 0.049992 0.038648 0.042923 0.036017 
-0.044381 0.1904 -0.067399 0.1003 0.041443 0.0098754 0.031578 0.036017 
-0.0011404 0.3341 -0.0014692 0.056569 -0.022185 0.01004 0.020891 0.052459 
0.10458 0.28165 0.025824 0.004943 -0.039778 -0.01676 -0.006566 -0.0036066 
0.19517 0.25518 -0.0072237 -0.010183 -0.027282 -0.014129 -0.023007 1.0539e-005 
0.10474 0.2657 -0.0055795 -0.049642 0.0079024 0.0014903 0.023686 -0.0039354 
0.049992 0.26669 -0.045203 -0.022021 0.029605 0.016123 0.031249 0.048513 
-0.05885 0.27327 -0.0503 0.045224 0.014643 0.031742 0.040785 0.060515 
-0.09239 0.19188 -0.045203 0.053609 0.023028 0.065447 0.045718 0.071695 
-0.025145 -0.037969 0.0056006 0.0060938 0.0028056 0.045389 0.048513 0.03092 
0.075805 -0.33194 0.13582 -0.051451 0.022864 0.018918 0.030756 0.013821 
0.061995 -0.2739 0.14469 -0.028762 0.010862 -0.004593 0.023522 0.026974 
-0.0077169 -0.079072 0.055254 0.036675 0.040785 0.027632 0.03388 0.05065 
-0.069536 0.068078 0.0088889 0.1031 0.066269 0.077121 0.032893 0.028947 
-0.078415 0.14141 -0.026624 0.13746 0.065776 0.047855 0.034537 0.024508 
-0.091568 0.232 -0.019226 0.099645 0.052294 0.025659 0.051472 0.038483 
-0.12774 0.27261 -0.02498 0.057062 0.021713 0.016781 0.061337 0.044073 
-0.099624 0.21474 0.026317 0.024508 -0.008539 0.012342 0.047526 0.070873 
-0.019226 0.086821 0.097508 -0.051287 -0.048492 -0.010512 0.021549 0.023357 
0.06479 0.015465 0.069229 -0.017417 -0.011827 -0.028762 0.004943 0.02681 
0.10803 0.01004 -0.042901 0.09274 -0.0031133 -0.012814 0.012013 0.01004 
0.15982 0.061172 -0.041751 0.09274 -0.0032777 -0.017088 0.011848 0.027796 
0.15752 0.076792 0.10655 -0.086142 -0.029255 -0.015938 0.0032988 0.0052718 
0.089616 0.024015 0.18662 -0.16753 0.0090533 0.01152 -0.010512 0.012013 
0.055582 -0.084663 0.13483 -0.053424 0.084684 0.039141 0.011848 -0.0049219 
0.037826 -0.10752 0.0011614 0.016616 0.094055 0.0421 0.03651 0.017932 
-0.0087034 -0.02794 -0.01939 0.0018191 0.080902 0.049499 0.047033 0.039963 
-0.00031829 0.042758 -0.03764 -0.015938 0.096028 0.067585 0.04917 0.057555 
0.05624 0.019576 -0.023007 0.030263 0.069558 0.065447 0.044073 0.038648 
0.054267 -0.0044286 0.0034632 0.060515 0.019576 0.016452 0.0070803 0.028619 
0.033058 -0.0059084 -0.0014692 0.051472 -0.03057 -0.023665 0.027961 0.028947 
-0.00081153 0.038483 0.042923 0.033387 -0.0027845 0.0056006 0.031249 0.073997 
0.021056 0.064954 0.070051 0.029934 0.064296 0.046046 0.036839 0.041607 
0.021713 0.030592 0.079916 0.041936 0.055582 0.052787 0.033222 0.044896 
0.019083 0.00297 0.11625 0.11411 0.050814 0.06183 0.0227 0.013657 
-0.0090322 0.014972 0.071859 0.17824 0.050157 0.034702 0.039634 0.029112 
-0.016595 0.084026 0.017932 0.20191 0.062323 0.028454 0.044238 0.036346 
-0.041586 0.11954 -0.058192 0.1562 0.047691 0.021549 0.032564 0.049992 
-0.010512 0.098494 -0.02942 0.10507 0.04095 0.023028 0.037826 0.039963 
0.045224 0.085177 0.048184 -0.016595 0.018918 0.0047785 0.019905 0.030098 
0.13861 0.090274 0.052787 -0.038298 0.025001 0.018096 0.04917 0.025824 
0.15538 0.086163 0.050486 -0.03501 0.011026 0.010697 0.037826 0.021384 
0.12233 0.1835 0.059364 -0.0060728 -0.00081153 -0.018568 0.0227 0.016288 
0.10984 0.076463 0.041114 -0.004593 0.0021479 0.024673 0.014479 0.026481 
0.077943 0.042594 0.056733 0.013986 0.036182 0.025495 0.012177 0.019411 
-0.0070593 0.0095465 0.045389 0.020727 0.013821 0.0065871 0.079094 0.0037921 
-0.042408 -0.02235 0.023357 -0.018897 0.013164 0.020398 0.041114 0.033387 
-0.049314 -0.032215 0.0016547 0.0088889 0.00050378 -0.01528 0.045718 0.047362 
-0.026131 -0.023501 0.0037921 0.10606 0.027303 0.035853 0.028125 0.019576 
0.038812 0.034373 0.028619 0.11247 0.031578 0.0085601 0.027632 0.024837 
0.074654 0.048841 0.095864 0.066763 0.034044 0.017767 0.020398 0.010204 
0.072846 0.0689 0.099316 0.011191 0.02681 0.024344 0.03651 -0.0034422 
0.067749 0.094713 0.12497 -0.034352 0.038812 0.031578 0.03651 -0.0055795 
0.055911 0.094548 0.11362 -0.033365 0.047033 0.036182 0.027961 -0.0068948 
0.013328 0.06183 0.052623 0.015137 0.037826 0.032564 0.042923 0.015794 
-0.013143 0.049499 0.010533 0.11017 0.029769 0.023851 0.054267 0.014643 
-0.0055795 0.072846 -0.049642 0.091918 0.012342 0.032236 0.044402 0.031907 
0.016945 0.13434 -0.039449 0.068078 0.01711 0.029605 0.023522 0.024508 
0.043909 0.16311 -0.013965 0.066763 0.030098 0.010862 -0.016266 0.033222 
0.067749 0.15571 -0.010512 0.12562 0.025988 0.022371 0.012177 0.033058 
0.071859 0.08419 0.0032988 0.1687 0.02533 0.026646 0.030592 0.048348 
0.046046 -0.025967 0.00050378 0.13187 0.024344 0.011848 0.04095 0.047197 
-0.024158 -0.065755 0.023522 0.049335 0.0014903 0.0032988 0.017932 0.05476 
-0.061645 -0.014458 0.048348 -0.023501 0.023028 0.022042 0.015959 0.045224 
-0.034352 0.031578 0.052459 -0.013965 0.043909 0.031414 0.010862 0.035853 
0.051472 -0.035174 0.11428 -0.010019 0.032071 0.0032988 0.021056 -0.0029489 
0.088958 -0.086471 0.069393 -0.040435 0.0098754 -0.0019624 0.015465 -0.015773 
0.10047 -0.034845 0.012835 0.01563 0.013164 -0.0075525 0.021713 0.0075736 
0.059528 0.098823 -0.011827 0.033222 0.014315 0.028619 0.018096 0.048019 
0.054596 0.24301 0.022371 0.024179 0.057555 0.038155 0.034537 0.047526 
0.098494 0.32851 -0.00015387 0.021713 0.087643 0.041443 0.041772 0.044731 
0.071366 0.26784 -0.073976 0.019411 0.088136 0.036346 0.027303 0.024015 
0.015959 0.11428 -0.10817 0.026317 0.044402 0.019905 0.01563 0.018425 
-0.017582 0.064132 -0.10275 -0.020212 -0.0031133 0.012999 0.0044497 0.0087245 
-0.00031829 0.043909 -0.042573 -0.038462 -0.02498 -0.00081153 0.0013258 0.027796 
0.0227 0.033058 0.040128 -0.075784 -0.0075525 0.0042853 0.031578 0.010533 
0.019411 0.050979 0.08978 -0.080881 -0.021363 -0.0090322 0.021056 0.030756 
0.046046 -0.045368 0.097837 -0.010183 -0.0138 0.00017495 0.0074092 0.01711 
0.079587 -0.24497 0.074326 0.058377 0.011684 0.021713 -0.0027845 0.0085601 
0.10277 -0.3423 0.052952 0.077449 0.041607 0.03799 0.019247 -0.013143 
0.064461 -0.19383 0.09981 0.020562 0.061008 0.027961 0.043251 0.053281 
-0.022514 0.023193 0.080244 0.056076 0.042923 0.030098 0.038483 0.051636 
-0.08269 0.053609 0.036346 0.15357 0.058049 0.030592 0.034866 0.08008 
-0.073318 -0.011005 -0.0039354 0.20405 0.098659 0.11346 0.03536 0.059857 
-0.047176 0.00033937 -0.045203 0.18958 0.11592 0.057062 0.039799 0.03799 
0.0079024 0.062817 -0.016266 0.14831 0.08008 0.049499 0.047526 0.025659 
0.064132 0.044731 0.053281 0.018096 0.019411 0.012835 0.025659 0.01563 
0.11559 0.016945 0.068078 -0.092883 0.00017495 0.022206 0.010862 0.021056 
0.12414 -0.0078813 0.11543 -0.043395 -0.016266 0.010862 0.011026 0.026481 
0.13582 0.03651 0.079422 0.04095 0.010369 0.011355 0.017438 0.026974 
0.15456 0.071366 0.030427 0.013657 0.02533 0.012506 0.02681 0.026974 
0.093562 0.093726 0.033715 -0.0047575 0.026974 0.017767 0.013821 0.0227 
0.052787 -0.0049219 0.076627 -0.0096899 0.029112 0.036675 0.023357 0.018589 
0.03388 -0.075949 0.14124 -0.040106 0.030263 0.016781 0.015137 0.019411 
0.024015 -0.052602 0.11346 -0.064111 0.004943 0.0036276 -0.0024557 0.034044 
0.0065871 0.052459 0.051636 -0.042901 0.016616 0.010697 0.025824 0.044238 
-0.026624 0.10195 0.038155 0.011191 0.048841 0.02681 0.037332 0.046211 
-0.039284 0.093233 0.01267 0.020562 0.072188 0.048841 0.049006 0.044073 
-0.026131 0.059693 0.020727 0.050814 0.050979 0.053774 0.035853 0.047526 
0.026152 0.044073 0.037004 0.070544 0.030263 0.03388 0.038977 0.052294 
0.027632 -0.054082 0.074983 0.058213 0.028947 0.020727 0.043087 0.028454 
0.019905 -0.089102 0.13434 0.050157 0.037826 -0.0036066 0.043251 0.039963 
0.0031344 -0.076606 0.061501 0.055418 0.026317 0.031085 0.020891 0.040456 
-0.015609 -0.026953 0.048677 0.073832 0.004943 0.023851 0.011191 0.053281 
0.016616 0.029276 0.034866 0.056076 0.019905 0.021056 0.031085 0.044402 
0.0041209 0.058871 -0.0014692 0.058542 0.031742 0.029769 0.04358 0.049499 
-0.0088678 0.096357 -0.021528 0.066269 0.0421 0.044238 0.044073 0.043087 
-0.0039354 0.11214 -0.029255 0.027139 0.023851 0.037826 0.018096 0.044073 
-0.035338 0.085341 0.033222 -0.028597 0.012999 0.018425 0.0031344 0.027468 
0.012177 0.067256 0.043087 -0.0098543 0.00066819 0.0046141 0.021056 0.035524 
0.023357 0.067913 0.12003 0.007738 0.005765 -0.0064016 0.018918 0.026646 
0.034373 0.089945 0.18876 -0.034188 0.0065871 0.00066819 0.030098 0.021384 
0.0042853 0.10228 0.13023 -0.0021268 -0.015773 0.029605 0.031742 0.012835 
0.033058 0.072846 0.046046 0.058542 0.019905 0.047691 0.033222 0.032236 
0.043909 0.044896 -0.043888 0.080738 0.047362 0.042758 0.03092 0.030427 
0.011684 0.053609 -0.10045 0.11 0.066927 0.041114 0.038483 0.040621 
-0.028926 0.19172 -0.15733 0.11526 0.05772 0.039141 0.032071 0.03799 
-0.07414 0.32358 -0.2203 0.13039 0.068736 0.048184 0.026974 0.059528 
-0.1039 0.33985 -0.20797 0.08978 0.030427 0.01974 0.0092177 0.033222 
-0.02498 0.22723 0.0028056 -0.072332 -0.020377 -0.0075525 0.00083261 0.014479 
0.068736 0.062817 0.18728 -0.20584 -0.076935 -0.049971 -0.013307 -0.043888 
0.11937 -0.049642 0.26291 -0.27308 -0.097322 -0.054575 -0.03353 -0.046847 
0.11231 -0.083512 0.30286 -0.19909 -0.10061 -0.049314 -0.04323 -0.045696 
0.090438 -0.092883 0.32473 -0.14188 -0.083512 -0.05178 -0.019719 -0.010348 
0.1054 -0.11574 0.33755 -0.14878 -0.046847 0.013821 0.0069159 -0.0004827 
0.13894 -0.23017 0.24943 -0.16325 0.084355 0.061008 0.062488 -0.0090322 
0.12529 -0.094856 0.050486 -0.027118 0.1271 0.1345 0.067091 0.017932 
-0.0098543 0.1738 -0.17608 0.13812 0.16738 0.1294 0.078765 0.064132 
-0.093541 0.35827 -0.38192 0.22444 0.18744 0.14272 0.06742 0.10343 
-0.096007 0.47911 -0.3668 0.28017 0.091918 0.077778 0.075476 0.096686 
-0.095185 0.47056 -0.28147 0.30187 0.029112 0.0032988 0.054103 0.085341 
-0.060494 0.29661 -0.11574 0.21605 -0.0080457 -0.016924 0.00083261 0.060844 
-0.03057 0.10836 0.063803 0.038483 -0.02646 -0.017088 -0.0054151 0.047526 
0.025495 0.012342 0.070873 -0.087458 -0.011827 0.00083261 -0.023665 0.0069159 
0.13598 -0.092883 -0.039613 -0.031557 0.035524 0.027632 0.027303 -0.0078813 
0.25633 -0.24628 -0.070194 -0.027447 0.049335 0.0227 0.028947 -0.037147 
0.22624 -0.41908 0.12168 -0.058356 0.00017495 -0.00015387 -0.00031829 -0.046354 
0.17692 -0.51444 0.32851 -0.060494 -0.011663 0.0019835 -0.033859 -0.054739 
0.13121 -0.31533 0.22213 -0.037311 -0.021363 -0.017911 -0.03205 -0.023665 
0.059035 0.090931 0.015301 0.040785 0.0026412 0.00033937 0.0079024 0.004943 
-0.04323 0.36682 -0.13481 0.11346 0.032893 0.02533 0.061666 0.060679 
-0.11837 0.46037 -0.12445 0.11937 0.06479 0.03651 0.065612 0.065612 
-0.091075 0.35136 0.014643 0.029441 0.071531 0.046046 0.065447 0.0592 
0.0051074 0.18761 0.072517 -0.010512 0.044402 0.035524 0.021713 0.02122 
0.069722 0.11296 0.060022 0.03388 0.02533 0.022864 0.03799 0.023357 
0.10408 0.086163 0.062652 0.00297 0.04095 0.015794 0.024179 0.020233 
0.09833 0.028125 0.069558 0.0021479 0.020562 -0.00064712 0.018096 0.063803 
0.094548 -0.06 0.096028 0.047691 0.018918 0.026481 0.024344 0.023193 
0.096357 -0.13415 0.07449 0.081067 0.05772 0.026152 0.022206 0.041278 
0.058049 -0.16868 0.033715 0.081395 0.045224 0.058542 0.057391 0.041936 
0.058049 -0.13678 0.0082312 0.066763 0.050979 0.051801 0.059857 0.059857 
0.063639 -0.10916 -0.060329 0.080573 0.023193 0.025495 0.04917 0.042923 
0.098001 -0.068714 -0.086471 0.047855 0.0092177 0.039305 0.022535 0.044402 
0.11083 -0.039284 -0.07973 0.0080668 0.01415 0.02829 0.038483 0.024673 
0.065447 0.013328 -0.054739 -0.013307 0.03092 0.020233 0.033387 0.032729 
0.0047785 0.047526 -0.0059084 0.013492 0.020891 0.013492 0.012342 0.027632 
-0.03205 0.099316 0.015959 0.058871 0.040456 0.025659 0.02533 0.047197 
-0.046025 0.13828 0.08863 0.11757 0.058049 0.058871 0.011026 0.043251 
-0.006566 0.17232 0.14058 0.12431 0.053445 0.027796 0.02829 0.041278 
0.036675 0.088465 0.15028 0.1271 0.04917 0.0093821 0.037332 0.0054362 
0.04358 0.047033 0.10688 0.1881 0.038648 0.021384 0.023851 -0.013471 
0.013821 0.10622 0.0088889 0.22739 0.058542 0.021056 0.018096 -0.00081153 
-0.085649 0.16837 -0.078415 0.12776 0.060186 0.054596 0.034044 0.036839 
-0.082361 0.18695 0.033551 0.016288 0.047362 0.029605 0.044896 0.042758 
-0.096994 0.15078 -0.0075525 -0.085156 -0.06444 0.089945 0.067913 0.052623 
-0.062796 0.076463 0.0016547 -0.018404 0.0021479 0.011848 0.037661 0.047526 
0.010204 0.052787 0.022864 -0.065262 -0.02087 -0.014458 0.037497 0.041278 
0.029276 -0.0088678 0.03651 -0.087786 0.0021479 0.024015 0.0065871 0.038812 
0.064132 0.056404 0.049828 -0.013471 0.0039565 0.020727 0.0095465 0.039963 
0.080573 0.0037921 0.018589 0.020398 -0.013965 0.0074092 0.027468 0.025001 
0.16952 -0.19054 0.0056006 0.054432 0.015465 0.016123 0.017603 0.028947 
0.16689 -0.24365 0.00017495 0.10047 0.033715 0.024179 0.012506 0.018096 
0.13647 -0.040928 0.040128 0.02122 0.023851 0.010862 0.014808 0.017274 
0.11625 0.17133 0.12924 -0.066413 -0.027282 -0.0060728 -0.001798 0.015301 
0.07597 0.21753 0.12299 -0.093705 -0.016595 -0.021692 0.01415 -0.004593 
0.0039565 0.13154 0.08304 0.0062583 0.03947 0.019083 0.040785 0.042429 
-0.1011 0.095206 0.020727 0.023522 0.076792 0.07038 0.062817 0.072188 
-0.11853 0.088794 0.03651 0.0062583 0.072024 0.064461 0.045882 0.094877 
-0.084827 -0.0004827 0.12332 -0.0050863 0.039305 0.01152 0.029934 0.040785 
0.004943 -0.077757 0.13779 -0.01676 0.015465 0.0042853 0.013328 0.043251 
0.036346 -0.068221 0.083533 0.035195 0.033387 0.0014903 0.0095465 0.028125 
-0.014622 0.012177 0.034209 0.059857 0.023686 0.0087245 0.012835 0.049992 
-0.048656 0.073339 0.0018191 0.099974 0.0079024 0.01004 0.041772 0.054432 
-0.030077 0.092411 -0.0075525 0.10803 0.029934 0.025166 0.03799 0.054103 
0.024015 0.062817 0.010204 0.13697 0.044567 0.01563 0.042758 0.023028 
0.1008 0.05772 -0.0014692 0.19106 0.076627 0.02122 0.035688 0.013164 
0.13894 0.076134 0.039963 0.1373 0.058871 0.038155 0.026481 -0.011005 
0.089945 0.095371 0.087643 0.097837 0.05624 0.059035 0.047362 0.013821 
0.038155 0.093891 0.053116 0.050814 0.027468 0.042429 0.033551 0.024015 
-0.0040998 0.087314 0.024179 0.021384 0.031414 0.029605 0.048513 0.050979 
-0.036818 0.068571 -0.010841 -0.07414 0.025495 0.032729 0.034209 0.055089 
-0.0091966 0.025166 0.042594 -0.14089 0.010369 0.021713 0.014972 0.046704 
0.033551 0.0023123 0.031907 -0.089595 -0.0040998 0.009711 0.0026412 0.019083 
0.077943 -0.032543 -0.0047575 -0.019884 0.0039565 0.014643 -0.0027845 0.013492 
0.08863 -0.048163 -0.034681 0.032236 0.028947 0.0042853 0.020069 -0.02087 
0.066269 -0.041422 -0.032379 0.076463 0.027796 0.025495 0.01711 -0.023336 
0.056076 0.026317 0.066763 0.075476 0.026974 0.03651 0.029276 -0.023501 
0.018096 0.078272 0.1659 0.012506 0.044238 0.041114 0.036182 0.0044497 
0.03799 0.041936 0.22049 -0.022185 0.046704 0.040621 0.025495 0.035524 
0.065776 -0.095185 0.22493 0.020233 0.032236 0.02533 0.04506 0.040128 
0.085506 -0.1113 0.09126 0.038155 0.015794 0.026152 0.039799 0.010697 
0.074654 -0.056712 -0.0042642 0.07301 -0.0040998 -0.014458 0.015465 0.025659 
-0.02087 0.10425 -0.10094 0.11428 0.047362 -0.0073881 0.026481 0.015301 
-0.063782 0.20832 -0.17838 0.13039 -0.00097594 0.02533 0.027961 0.055089 
-0.13152 0.24417 -0.11064 0.0324 0.024508 0.039799 0.058871 0.048348 
-0.070687 0.12233 -0.010348 -0.11146 0.0034632 0.048841 0.056404 0.07301 
0.054267 -0.10012 0.08567 -0.15733 0.010533 0.031085 0.029769 0.027303 
0.12069 -0.22918 0.12233 -0.095514 0.049992 0.021549 0.0036276 0.012177 
0.12628 -0.15339 0.11444 -0.045368 0.0324 0.024837 0.022206 0.013164 
0.038319 0.014643 0.10556 0.037826 0.053609 0.019411 0.034044 0.028619 
-0.0016336 0.13976 0.047033 0.021056 0.0227 0.013492 0.030756 0.023028 
0.032071 0.19106 0.04095 0.028947 0.021056 0.012177 0.020069 0.010369 
0.039963 0.18366 0.036017 0.13861 0.044896 0.029605 0.0324 0.015465 
0.020727 0.16196 0.029934 0.23183 0.06035 0.042758 0.060679 0.026974 
0.041772 0.057227 0.004943 0.24022 0.076956 0.053774 0.084026 0.038155 
0.11921 -0.0072237 -0.026131 0.16788 0.091918 0.039305 0.041936 0.020562 
0.12365 0.02681 -0.057863 0.076463 0.089287 0.033058 0.038319 0.043251 
0.066434 0.11461 -0.068879 -0.042573 0.022371 0.034537 0.027796 0.020398 
-0.0040998 0.16229 -0.065591 -0.078086 0.014315 0.026317 0.044567 0.038483 
-0.021856 0.19764 -0.008539 -0.072332 0.0023123 0.021549 0.041443 0.032893 
-0.050958 0.20931 0.049499 -0.093048 0.021549 0.01267 0.030098 0.048513 
-0.049478 0.20092 0.031414 -0.076606 0.011848 0.0046141 0.019576 0.025495 
-0.027611 0.14469 0.056733 -0.049149 0.013986 0.016616 0.017932 0.056076 
0.023686 -0.0075525 0.094548 0.00083261 0.018754 0.011191 0.030263 0.025166 
0.098001 -0.2596 0.16377 -0.0013048 0.02122 0.0052718 0.016616 0.0088889 
0.10852 -0.30728 0.19665 -0.012485 0.013821 0.0041209 -0.010512 -0.0050863 
0.085177 -0.1935 0.10869 0.038483 -0.0027845 -0.0073881 -0.0070593 -0.0052507 
0.035688 -0.049642 0.041278 0.011684 0.023357 0.023193 0.019576 -0.0067304 
0.0062583 0.035195 -0.016924 0.048019 0.05772 0.035524 0.039305 0.027303 
0.0052718 0.10984 -0.020706 0.073832 0.069064 0.03651 0.065776 0.029934 
0.027303 0.17396 -0.011663 0.049006 0.032729 0.025166 0.053609 0.044238 
0.083697 0.22739 -0.039284 0.0079024 0.026481 0.01563 0.034209 0.041772 
0.11642 0.20783 0.0019835 0.012177 0.01415 0.036675 -0.0034422 0.03947 
0.10326 0.17774 0.0024767 0.053281 0.01974 0.023357 0.023357 0.017274 
0.013164 0.16821 -0.022514 0.063803 0.03947 0.018754 0.035195 0.045553 
-0.0077169 0.10721 0.029934 0.026646 0.032071 0.027468 0.026974 0.038155 
0.022864 -0.003771 0.058871 0.00050378 0.044073 0.033058 0.041607 0.045389 
0.043745 -0.069372 0.08008 0.0028056 0.0592 0.051308 0.027961 0.030098 
0.041443 -0.054246 0.07449 0.01711 0.074983 0.051801 0.04095 0.028947 
0.0060938 -0.0040998 0.067913 0.025988 0.044402 0.033222 0.037332 0.029605 
-0.026789 0.05624 0.051636 0.055089 0.028454 0.010204 0.029276 0.056404 
-0.030735 0.11658 0.0042853 0.043909 -0.015116 0.01415 0.020562 0.041443 
-0.0067304 0.1391 -0.072003 0.086328 0.020891 -0.001798 0.0075736 0.034702 
0.02681 0.064954 -0.073811 0.11921 0.053774 0.01826 -0.036983 0.020069 
0.014479 0.051472 -0.06 0.08156 -0.0059084 0.012342 0.018096 0.038319 
-0.018733 0.045389 0.0037921 0.015465 0.011848 0.030427 0.024015 0.058377 
0.0019835 0.12135 0.019576 -0.066413 0.018096 0.0093821 0.022535 0.049499 
0.0069159 0.11066 0.11099 -0.080552 0.021549 0.036839 -0.0052507 0.033715 
0.045224 0.031907 0.1008 -0.0042642 0.019247 0.024673 0.023357 0.031414 
0.046046 -0.0095255 0.027961 0.080409 0.036182 0.014479 0.015301 0.027303 
0.043087 -0.020377 0.026481 0.11263 0.056898 -0.0060728 -0.0022913 0.029769 
0.03388 0.010862 0.08978 0.020727 0.025001 -0.010183 0.0014903 0.012835 
0.023851 -0.0036066 0.081067 -0.024323 -0.0016336 -0.0072237 -0.0083746 -0.022185 
0.03388 -0.0087034 0.059857 0.0074092 -0.033037 -0.0095255 0.015137 0.014315 
0.025166 0.062159 -0.031886 0.079751 0.0072447 -0.016924 0.014643 -0.0044286 
0.04095 0.18383 -0.071345 0.10655 0.032729 0.019083 0.0041209 0.027632 
0.037168 0.23627 -0.065755 0.08008 0.036675 0.044073 0.030427 0.025166 
0.013657 0.18826 -0.078415 0.085835 0.057391 0.077121 0.036182 0.054925 
-0.011992 0.14141 -0.062138 0.071037 0.05476 0.050321 0.046046 0.037332 
-0.016924 0.17051 -0.067564 0.11559 0.059857 0.015137 0.034866 0.063803 
-0.016266 0.16212 -0.0077169 0.13762 0.06742 0.023522 0.022371 0.052623 
0.0016547 0.097015 0.10688 0.047033 0.03536 0.033387 -0.0032777 0.064132 
0.071859 -0.12462 0.18794 -0.0965 0.044238 0.046704 0.023522 0.046868 
0.14996 -0.29676 0.19057 -0.14073 0.053445 0.048348 0.049664 0.049992 
0.1881 -0.38472 0.16393 -0.074304 0.04917 0.023357 0.038812 0.009711 
0.14831 -0.29182 0.11428 0.0067515 -0.021034 -0.018568 0.0052718 0.013492 
0.072681 0.011191 0.041443 0.072846 -0.028926 -0.038956 -0.015609 0.0093821 
-0.032379 0.41088 -0.076277 0.13006 -0.018239 0.0062583 -0.0022913 0.032893 
-0.11343 0.56839 -0.09946 0.10589 0.014808 0.00050378 0.024015 0.046211 
-0.121 0.45823 -0.0091966 0.091589 0.033222 0.052459 0.029276 0.039634 
-0.023336 0.19533 0.087643 0.039305 0.040621 0.039141 0.0046141 0.025659 
0.034866 1.0539e-005 0.11921 -0.035667 0.025495 0.013492 0.013164 0.0024767 
0.06742 -0.10965 0.056898 -0.048163 0.031578 0.035195 0.023028 0.016616 
0.071202 -0.25319 0.055747 -0.021363 0.041278 0.026152 0.036017 0.028947 
0.073832 -0.42549 0.10178 0.056898 0.024508 0.01415 0.014972 0.02829 
0.027303 -0.32224 0.098823 0.05772 0.030756 0.0098754 0.025495 0.0421 
-0.040928 -0.060329 0.052952 0.060679 0.046704 0.029605 0.033551 0.050979 
-0.069701 0.079916 -0.027282 0.080573 0.0592 0.056898 0.025988 0.049992 
-0.066084 0.05476 -0.06148 0.1077 0.034373 0.032071 0.045224 0.03388 
-0.025474 -0.031886 -0.044052 0.10672 0.025166 0.030263 0.023193 0.026317 
0.017932 -0.045203 -0.041915 0.077614 0.016288 0.0098754 0.013986 0.012342 
0.022206 -0.035832 0.00297 0.0087245 0.020727 0.0087245 0.01826 0.0095465 
-0.0057439 0.0082312 0.065612 -0.083512 0.021384 0.024344 0.036346 0.011684 
0.056076 0.084848 0.098494 -0.092719 0.040128 -0.0057439 0.02681 0.020398 
0.14305 0.085177 0.091753 -0.02498 0.014315 0.0026412 0.023193 -0.02794 
0.25518 0.054103 0.11346 -0.025145 0.016452 0.017932 0.0041209 -0.009361 
0.29069 0.033551 0.18218 -0.041915 0.0098754 -0.0064016 -0.0138 -0.026789 
0.20767 -0.001798 0.2537 0.0036276 0.015465 0.012999 0.0095465 -0.012485 
0.10852 -0.011663 0.17889 0.00297 0.051143 0.041607 0.027632 0.024015 
0.02122 0.0093821 0.035195 -0.011005 0.01711 0.024837 0.036182 0.03947 
-0.085649 0.077614 -0.096665 -0.03057 0.01711 0.047855 0.027303 0.058213 
-0.21208 0.19024 -0.17114 0.020562 0.0070803 0.030427 0.054432 0.084026 
-0.21603 0.2103 -0.19054 0.086985 0.043745 0.031414 0.048677 0.099152 
-0.10176 0.17659 -0.22704 0.12973 0.028125 0.031414 0.060515 0.047855 
-0.040928 0.13006 -0.12823 0.06479 0.015959 0.01152 0.042923 0.041114 
0.0062583 -0.033365 0.091918 -0.11853 -0.018733 0.01004 0.029441 0.021056 
0.099974 -0.29182 0.38359 -0.22902 -0.050793 -0.008539 -0.0004827 0.0018191 
0.19106 -0.44835 0.55392 -0.17673 -0.023665 0.010697 -0.0024557 -0.012814 
0.1784 -0.37272 0.42469 0.10507 0.072846 0.025166 0.041114 -0.008539 
0.14223 -0.18364 0.25863 0.30845 0.13878 0.045882 0.05476 -0.0078813 
0.059857 0.024344 0.025988 0.34265 0.10787 0.050979 0.039799 0.049006 
0.0079024 0.25239 -0.21143 0.30763 0.06742 0.055254 0.051472 0.052952 
-0.018733 0.29957 -0.24447 0.22033 0.059035 0.070215 0.044402 0.06742 
0.0087245 0.30664 -0.23395 0.11872 0.04358 0.035195 0.049664 0.017767 
0.057062 0.31223 -0.19087 0.041114 0.011026 0.0031344 0.024344 0.0051074 
0.051636 0.37126 -0.15536 -0.032543 -0.021034 -0.015444 0.031249 0.0054362 
0.053116 0.30944 -0.063782 -0.084498 -0.030406 -0.0055795 0.031249 0.0090533 
0.076299 0.11609 0.1026 -0.098473 -0.027447 0.0037921 0.019576 0.0095465 
0.059857 -0.097487 0.19879 -0.068386 -0.01117 0.01004 0.048348 0.038812 
0.032893 -0.072167 0.16985 -0.086964 -0.014787 0.00066819 0.037332 0.032729 
-0.013965 0.035853 0.10178 -0.069208 -0.0032777 0.0098754 0.036346 0.044073 
-0.0042642 0.082382 0.031578 -0.026131 0.035853 0.038812 0.032236 0.032071 
0.0019835 -0.034681 0.030427 0.02533 0.060022 0.039305 0.033222 0.041607 
0.0039565 -0.13941 0.033222 0.06331 0.041443 0.034702 0.040621 0.039799 
0.0079024 0.0019835 -0.018075 0.089123 0.05772 0.036346 0.03799 0.040621 
0.033058 0.19057 -0.026624 0.12217 0.054432 0.004943 0.030427 0.027303 
0.034044 0.26768 -0.047834 0.10244 0.052294 0.03947 0.014972 0.020727 
0.020727 0.27507 -0.013143 0.12858 0.053116 0.03092 0.025988 0.00099702 
0.012835 0.2389 0.0085601 0.13401 0.038483 0.024837 0.031907 0.02533 
-0.0039354 0.16229 0.01004 0.089123 0.031578 0.017438 0.029112 0.02533 
-0.0042642 0.088794 0.032564 0.039799 0.045882 0.02829 0.03092 0.0421 
0.033715 0.070051 0.040292 0.037826 0.046375 0.053116 0.01267 0.030592 
0.07301 0.15275 0.034209 0.10524 0.053609 0.039141 0.027303 0.037826 
0.094877 0.21671 -0.040106 0.032729 0.053774 0.043416 0.055911 0.047033 
0.041607 0.17347 -0.020377 0.057555 0.039634 -0.00031829 0.015301 0.028947 
0.04095 0.065612 0.01415 0.029934 0.0065871 -0.034845 -0.015938 0.0047785 
0.016616 0.077943 0.041278 0.012342 -0.019719 -0.027118 0.007738 0.0059294 
0.00017495 0.017932 0.044402 -0.029913 -0.0052507 -0.00015387 0.023193 0.031742 
-0.069043 -0.026624 -0.0016336 -0.0062372 0.01974 0.044238 0.044567 0.040292 
-0.10735 -0.034845 -0.09946 0.076134 0.063639 0.059693 0.043087 0.075148 
-0.13201 0.074983 -0.098638 0.046211 0.095206 0.052294 0.055582 0.076956 
-0.11475 0.085012 -0.022843 -0.020541 0.065447 0.0592 0.059857 0.098494 
-0.035832 -0.030735 0.13335 -0.013143 0.070544 0.06183 0.080244 0.06594 
0.050486 -0.22293 0.23381 -0.026953 0.055089 0.031907 0.057062 0.045224 
0.17248 -0.1718 0.14174 -0.0070593 0.022535 -0.023994 -0.0068948 -0.0014692 
0.20586 0.053609 0.05213 0.010204 -0.026131 -0.04619 -0.053753 -0.0039354 
0.17856 0.13138 -0.028597 0.030263 -0.029584 -0.032872 -0.061809 -0.03057 
0.10803 -0.0042642 -0.041915 0.030756 -0.028104 -0.029091 -0.034516 -0.0080457 
0.066598 -0.11097 -0.041751 0.0028056 -0.024816 -0.013965 0.013164 -0.022021 
0.07301 -0.17361 -0.012156 -0.089102 0.0067515 -0.0011404 0.024673 0.042594 
0.038155 -0.14533 0.083533 -0.17805 0.015301 0.028947 0.059857 0.051636 
-0.046354 0.10392 0.084519 -0.14336 0.045553 0.053281 0.042758 0.10951 
-0.18528 0.30648 0.08978 -0.026131 0.051636 0.046046 0.067749 0.11806 
-0.15306 0.3216 0.055089 0.04654 0.055254 0.037826 0.041443 0.086492 
-0.019884 0.19369 -0.078086 0.055747 -0.0021268 0.028125 0.025166 0.0080668 
0.10787 0.03799 -0.15783 0.045553 -0.0088678 -0.0026201 0.016452 -0.03057 
0.14617 -0.032379 -0.18397 0.050814 0.045553 0.036182 0.0075736 -0.045861 
0.13056 -0.033037 -0.11689 0.033387 0.077121 0.052294 0.025495 -0.035667 
0.10441 -0.045861 0.017932 0.017932 0.071366 0.031578 0.028454 -0.016595 
0.068242 -0.05737 0.14634 0.0037921 0.031578 0.019411 0.031578 0.021549 
0.01152 -0.073318 0.21589 -0.033365 0.021549 0.0083956 0.016781 0.027632 
-0.0034422 -0.042079 0.22756 -0.043888 0.0093821 0.035031 0.0016547 0.055747 
-0.010512 -0.033365 0.17643 0.0021479 0.036346 0.042758 0.032893 0.034209 
-0.003771 0.012013 0.10507 0.030592 0.035031 0.013328 0.054267 0.03651 
0.0034632 0.026481 0.074983 0.0054362 0.01974 0.017438 0.027796 0.043745 
0.025659 0.025988 0.015959 0.01267 0.010697 0.013164 0.0098754 0.044567 
0.043416 0.020727 0.042265 0.018589 0.0083956 0.022042 0.012177 0.031249 
0.067913 -0.0088678 0.049828 -0.0082102 0.0031344 0.0016547 0.045389 0.029605 
0.088794 -0.025638 0.095206 0.011355 0.01563 0.018096 0.034537 0.01974 
0.10277 -0.028926 0.098659 0.063803 0.0019835 0.0052718 0.01826 0.005765 
0.087643 -0.011498 0.055582 0.055089 0.031249 0.034209 0.011026 -0.015444 
0.060679 -0.031886 0.028783 0.047855 0.048184 0.050321 0.0080668 -0.01117 
0.053116 -0.044874 0.031742 0.10343 0.0088889 0.086985 0.03947 0.0026412 
0.0021479 -0.025802 0.018589 0.10655 0.046211 0.01267 0.040292 0.02681 
-0.054575 0.15883 -0.011663 0.077449 0.035688 0.01267 0.035853 0.040621 
-0.0032777 0.21276 0.018918 0.042265 0.033058 0.024344 0.023357 0.04358 
0.043251 0.097837 0.065118 0.056404 0.0060938 0.04095 0.021549 0.023193 
0.059528 0.038483 0.099645 0.032729 0.027303 0.0046141 0.060844 0.034702 
0.055747 0.074819 0.086657 0.033222 0.0067515 0.024508 0.028619 0.025001 
0.038483 0.1271 0.029769 0.066434 0.027961 0.048184 0.026317 0.030263 
0.042594 0.19895 -0.047669 0.081067 0.033058 0.030098 0.033058 0.0421 
0.055582 0.21375 -0.060494 0.052623 0.020562 0.049664 0.030756 0.020069 
0.00066819 0.24038 -0.062467 0.082875 0.019083 0.040128 0.032893 0.03799 
-0.055397 0.18974 -0.049314 0.12727 0.027796 0.027796 0.029769 0.0227 
-0.069208 0.058871 0.010533 0.072517 0.01152 0.010369 0.024673 0.0042853 
-0.048327 -0.032215 0.040128 0.059693 0.0023123 0.0088889 0.0098754 0.012506 
-0.032872 -0.00031829 0.08567 0.042265 0.012013 0.055582 0.0093821 0.048019 
-0.023172 -0.089431 0.1664 -0.0060728 0.023851 0.031414 0.045224 0.016452 
0.0092177 -0.099953 0.13894 0.024508 0.030756 0.031578 0.038648 0.044402 
0.02681 0.016123 0.06331 0.042265 0.040128 0.034537 0.04358 0.016616 
0.088136 0.041278 0.050321 0.09274 0.050486 0.022864 0.047197 0.016781 
0.15587 0.054596 -0.00097594 0.0592 0.037004 0.05065 0.027139 -0.0021268 
0.21835 0.059528 -0.01528 0.11543 0.053938 0.030756 0.039634 0.0070803 
0.21079 0.012999 0.01563 0.11099 0.054103 0.024344 0.047691 0.043251 
0.13943 -0.065591 0.10359 0.034044 0.01974 0.029934 0.061008 0.070873 
0.079258 -0.0771 0.1927 -0.0087034 -0.015609 0.0075736 0.051801 0.069393 
0.014479 0.0047785 0.14667 0.020233 -0.0034422 0.016781 0.027961 0.088465 
-0.028104 0.12595 0.071037 0.016945 0.011026 0.0227 0.049664 0.057555 
-0.075291 0.2029 0.047362 -0.0029489 0.00083261 0.01711 0.036182 0.051965 
-0.097322 0.1927 0.047691 0.033387 0.019905 0.031085 0.019247 0.054925 
-0.072825 0.070544 0.028454 0.078272 0.030592 0.01152 0.010369 0.0069159 
0.013492 0.0075736 -0.070523 0.039305 0.033715 0.02681 0.0065871 -0.031392 
0.045553 0.070544 -0.091732 0.038812 0.024015 0.013986 0.027796 -0.00097594 
0.03536 0.15028 -0.069372 0.042429 0.029112 0.01563 0.031578 0.016781 
-0.012814 0.18218 -0.031721 0.031085 0.012999 0.021056 0.03799 0.057884 
-0.014787 0.15801 0.018425 0.063145 0.05772 0.039963 0.042429 0.065283 
0.015137 0.072353 0.016616 0.10408 0.054103 0.059528 0.034044 0.054925 
0.039305 -0.016595 0.080902 0.097508 0.048348 0.037497 0.046046 0.043745 
0.032729 -0.11639 0.12299 0.0090533 0.018754 0.024015 0.02681 0.038648 
0.062323 -0.30859 0.14601 -0.092719 0.012013 0.017438 0.01563 0.013492 
0.073339 -0.3982 0.16114 -0.12396 0.0064227 0.0016547 -0.0049219 -0.0024557 
0.08863 -0.20567 0.062159 -0.087951 -0.017417 0.0047785 -0.0060728 -0.001798 
0.10606 0.11724 -0.047012 0.0079024 0.0080668 0.009711 0.025166 0.0085601 
0.039141 0.18925 -0.091404 0.09981 0.056733 0.024508 0.037004 0.0013258 
0.055418 0.16788 -0.097651 0.12612 0.067913 0.036182 0.034702 0.048841 
0.045389 0.061995 -0.038133 0.026481 0.027468 0.042429 0.036182 0.05213 
0.046704 0.058871 -0.021528 -0.034845 0.014972 0.029934 0.026481 0.039141 
0.024673 0.060515 0.022371 -0.030242 0.044402 0.038812 0.036839 0.022042 
0.01415 0.048677 0.041278 -0.0040998 0.064461 0.028783 0.01826 0.032893 
0.032071 -0.0064016 0.069558 -0.0029489 0.060844 0.022042 0.021713 0.05065 
0.020891 0.033551 0.076134 -0.0024557 0.074326 0.055911 0.03388 0.043087 
0.0067515 0.0093821 0.069229 0.03651 0.066434 0.06035 0.043745 0.071037 
0.023028 -0.028433 0.083204 -0.00031829 0.044073 0.036346 0.056569 0.053938 
0.0075736 0.019247 0.043087 0.06479 0.039305 0.014972 0.021878 0.056733 
0.0028056 0.1077 0.055582 0.17018 0.012835 0.026974 0.00099702 0.052459 
-0.038133 0.2121 0.084026 0.16771 0.0324 0.028783 0.024344 0.057884 
-0.043559 0.31881 0.043251 0.14354 0.045718 0.05213 0.040456 0.046704 
-0.072167 0.38934 -0.042244 0.076463 0.0689 0.069229 0.046046 0.061501 
-0.011005 0.27458 0.020398 -0.14993 0.037004 0.038155 0.037661 0.035853 
0.05476 0.039141 0.09274 -0.27653 0.016288 -0.0057439 0.011355 0.03536 
0.11477 -0.19745 0.049992 -0.14122 -0.0054151 -0.00031829 -0.003771 -0.0013048 
0.15292 -0.32257 -0.010348 0.05476 0.030592 -0.010019 0.012342 -0.015938 
0.15768 -0.29824 -0.059672 0.087643 0.037168 -0.0032777 -0.010348 -0.031886 
0.095371 -0.14681 -0.01232 0.05213 0.011191 -0.017582 -0.018568 0.0036276 
0.017274 -0.040435 -0.0004827 0.013328 -0.0021268 -0.0021268 -0.0039354 0.031249 
-0.0055795 0.087808 0.01563 -0.027775 -0.0059084 0.0047785 -0.013143 0.036675 
-0.0042642 0.1442 0.029112 -0.029748 0.039634 0.031578 0.027961 0.025166 
-0.0004827 0.14963 -0.017417 0.027139 0.0324 0.040785 0.042594 0.039141 
-0.00015387 0.11674 -0.038791 0.092411 0.047691 0.080244 0.024344 0.037497 
0.0069159 0.080573 -0.012814 0.076792 0.029276 0.03388 0.029934 0.035195 
0.029769 0.071037 0.013986 0.096193 0.032893 0.041607 0.015465 0.030263 
0.0019835 0.13565 -0.016266 0.15111 0.018096 0.024015 0.045389 0.035524 
-0.014129 0.17429 -0.089595 0.11231 0.052459 0.019905 0.050979 0.041443 
0.0092177 0.13779 -0.0059084 0.063968 0.051472 0.029112 0.043087 0.041278 
0.010369 0.09422 0.13845 0.028783 0.066269 0.046704 0.035031 0.024837 
0.011026 0.078272 0.18432 -0.030735 0.063474 0.06183 0.025166 0.039963 
0.031907 0.097015 0.147 -0.063453 0.032564 0.039141 0.032729 0.021056 
0.041443 0.097837 0.051801 -0.047341 0.010697 0.018754 0.015465 0.028454 
0.050979 0.09274 0.042758 0.016452 0.018096 -0.010676 0.025166 0.028619 
0.035853 0.093398 0.0054362 0.04358 0.029934 0.0014903 0.021878 0.035031 
0.05624 0.12233 -0.0040998 0.082546 0.02533 0.028619 0.015301 0.028125 
0.051143 0.17659 -0.010512 0.10474 0.019905 0.030263 0.03651 0.0023123 
0.041936 0.17528 -0.041257 0.044567 0.037168 0.0054362 0.020562 0.0059294 
0.05065 0.15752 0.027139 0.015465 0.023357 -0.020048 0.016123 -0.0070593 
0.035195 -0.0072237 -0.045039 0.029441 0.0013258 -0.055561 -0.0088678 0.0032988 
0.012177 -0.13481 -0.035174 0.10507 0.029112 0.029276 0.01826 0.012506 
0.0047785 -0.19548 -0.048492 0.10754 0.043909 0.052459 0.064132 0.050157 
-0.034845 -0.11475 -0.065262 0.09833 0.026974 0.028125 0.045224 0.05213 
-0.02498 -0.044381 -0.07973 0.052623 0.021056 -0.016431 0.026481 0.074161 
0.018754 -0.14566 0.031249 -0.062467 -0.038956 -0.016102 0.014315 0.044731 
0.082217 -0.19449 0.090438 -0.10341 -0.055232 -0.0039354 0.015959 0.048677 
0.08304 -0.10784 0.079587 -0.055726 -0.0087034 0.021713 0.033222 0.02829 
0.064132 0.11296 0.088301 -0.049807 0.018096 0.022371 0.030756 0.029769 
-0.016924 0.21243 0.096028 -0.12708 0.015465 -0.0013048 0.023686 0.039305 
-0.027611 0.23693 0.12464 -0.11278 -0.020212 -0.022843 0.0013258 0.047362 
-0.0057439 0.16196 0.1294 0.023028 -0.026624 -0.00081153 0.0072447 0.020727 
0.017438 0.15407 0.1248 0.060022 0.019411 0.031907 0.032564 0.03799 
0.11724 0.21868 0.10967 -0.0032777 0.011684 0.01711 0.011026 -0.015609 
0.15357 0.42436 -0.065919 0.01711 0.034537 0.014479 0.0023123 -0.015609 
0.1248 0.43768 -0.096172 0.070051 0.087643 0.063639 0.035524 0.0031344 
0.15127 -0.024158 0.048841 0.1179 0.086163 0.061172 0.039799 0.024179 
0.22065 -0.50803 0.22986 0.13319 0.076134 0.030756 0.045718 -0.011005 
0.171 -0.57544 0.26768 0.082053 0.041607 0.017932 0.041607 0.01415 
0.055089 -0.32043 0.1927 0.023028 0.038812 0.041772 0.058542 0.045718 
-0.044052 -0.05178 0.074819 0.1008 0.035195 0.050814 0.049828 0.079094 
-0.094034 0.15292 0.028454 0.14371 0.043745 0.037497 0.037826 0.05213 
-0.12116 0.2417 0.093726 0.0689 0.020891 -0.0014692 0.02829 0.062981 
-0.061809 0.25814 0.16081 0.053938 -0.0042642 -0.0036066 0.017932 0.030098 
0.0036276 0.16607 0.19369 0.055582 0.00017495 -0.00015387 0.00017495 0.021549 
0.023028 0.11033 0.13368 0.034702 0.022206 0.0079024 0.0088889 0.028619 
0.025659 0.0421 0.03651 -0.030077 0.046704 0.029605 0.026646 0.031414 
0.077449 -0.059672 -0.035174 -0.065262 0.010204 0.021878 0.047526 0.020562 
0.095371 -0.12774 -0.015116 -0.094692 0.00033937 0.021056 0.027139 0.034702 
0.054103 -0.076113 -0.052109 -0.096994 -0.0062372 0.022864 -0.014293 0.0069159 
0.023193 -0.012156 -0.078908 -0.0052507 0.021549 0.025001 0.0090533 0.020069 
0.0047785 0.056898 -0.11787 0.076134 0.049335 0.045389 0.030427 0.025988 
-0.016431 0.18859 -0.18495 0.15587 0.040456 0.04095 0.049992 0.026317 
-0.0082102 0.22361 -0.07825 0.13417 0.039799 0.034209 0.035031 0.025495 
0.018096 0.16163 0.0090533 0.054432 0.046375 0.035853 0.034537 0.034373 
0.049006 0.13351 0.048841 0.02829 0.038977 0.026646 0.023193 0.023522 
0.080244 0.05772 0.032564 -0.010019 0.0069159 0.024344 0.012342 0.017274 
0.11198 -0.017746 0.041772 -0.0060728 0.00099702 0.0014903 0.033222 0.0088889 
0.14502 -0.067235 0.033551 0.034044 0.06479 0.012835 0.012999 -0.010183 
0.12135 -0.11755 0.007738 0.064461 0.038648 0.016288 0.018425 0.033387 
0.037661 -0.084334 -0.01117 0.080409 1.0539e-005 -0.0059084 0.060844 0.083862 
-0.042244 -0.058521 0.065776 0.083368 0.0067515 0.010697 0.0085601 0.04654 
-0.044052 -0.028597 0.12332 0.082711 0.0087245 -0.0088678 0.0093821 0.03651 
0.0069159 0.13072 0.10556 0.039141 0.02533 -0.017253 -0.00031829 0.032564 
0.0028056 0.30122 0.073504 0.014972 0.053609 -0.010183 0.017767 0.0013258 
-0.045861 0.34643 -0.026789 0.034044 0.049992 0.025659 0.02681 0.032893 
-0.047341 0.25041 -0.072989 0.024179 0.059364 0.04917 0.042265 0.018754 
0.032893 0.079094 -0.071674 0.015794 0.059364 0.053281 0.047526 0.0059294 
0.085012 -0.076277 -0.066577 -0.0055795 0.077943 0.050486 0.029112 0.0087245 
0.047197 -0.19745 -0.082525 -0.0067304 0.04506 0.031742 0.020562 -0.0026201 
0.054925 -0.21882 -0.049478 -0.0047575 0.028125 0.044238 0.0227 -0.015938 
0.020233 -0.093541 -0.026789 0.022371 0.025166 0.066105 0.017438 0.020069 
0.014808 0.11313 -0.012814 0.10606 0.049828 0.055582 0.053938 0.022864 
0.042594 0.1927 -0.0039354 0.085177 0.042923 0.079587 0.052623 0.082546 
0.019905 0.19007 0.020891 0.0592 0.012999 0.041278 0.04917 0.065612 
-0.019061 0.23496 -0.036325 0.0085601 -0.0082102 0.035524 0.039963 0.05065 
-0.031392 0.22526 -0.11064 -0.023665 0.0013258 0.022535 -0.0036066 0.042265 
-0.038298 0.14272 -0.15783 -0.047341 0.010533 0.01415 0.032564 0.040621 
-0.045368 0.046375 -0.12231 -0.056219 0.0092177 0.0090533 0.010204 0.03651 
-0.043559 0.031742 -0.037311 0.026152 0.026974 0.00099702 0.0072447 0.03388 
-0.020048 0.021384 -0.02646 0.056733 0.029605 -0.016595 0.0087245 0.016781 
0.010369 0.043416 0.0013258 0.065118 0.027139 0.0036276 0.0087245 0.016945 
0.016452 0.081067 0.044238 0.068736 0.012506 -0.025145 0.013821 -0.00097594 
0.031742 0.16969 0.14683 0.012506 -0.0026201 -0.020541 0.018425 0.025988 
0.13697 0.1687 0.20142 -0.080059 -0.0062372 -0.019719 0.021549 0.0080668 
0.18777 -0.026131 0.17873 -0.11837 0.023522 0.014479 -0.0011404 -0.0080457 
0.12694 -0.28706 0.15374 -0.053917 0.06183 0.043087 0.050814 0.0080668 
0.01267 -0.30333 0.11461 -0.0011404 0.056404 0.057884 0.056404 0.035853 
-0.062631 -0.21504 0.098988 0.021384 0.044402 0.056076 0.032236 0.018754 
-0.028926 -0.12034 0.13417 0.029441 0.029934 0.048019 0.018589 0.012342 
0.0065871 -0.018239 0.085999 0.036675 0.035688 0.049499 0.0088889 0.00066819 
0.016452 0.086985 0.032729 0.036017 0.03947 0.056733 0.029605 0.025988 
-0.0054151 0.1248 0.035524 0.0065871 0.042265 0.034209 0.051472 0.026152 
-0.031886 0.16212 0.060515 0.009711 0.030098 0.034209 0.047526 0.030756 
-0.019719 0.23101 0.066763 0.078436 0.05476 0.055582 0.041278 0.027303 
0.0090533 0.31256 0.060844 0.11165 0.046046 0.04095 0.020233 0.035524 
0.022535 0.27869 0.04095 0.11313 0.053116 0.038977 0.041936 0.026317 
0.053774 0.16278 0.096686 0.01974 0.031742 0.026481 0.041278 0.020398 
0.078929 0.016288 0.1636 -0.044381 0.014479 0.00033937 0.038648 -0.063782 
0.035853 -0.10341 0.17807 -0.014293 0.026974 -0.0072237 -0.0036066 0.014315 
0.043745 -0.11935 0.2149 0.0052718 -0.048163 0.019083 0.0087245 0.022864 
0.033058 -0.11311 0.21654 0.05213 0.0090533 0.033222 0.047197 0.036675 
0.064625 -0.10094 0.19484 0.070544 0.033222 0.042923 0.071037 0.061008 
0.12217 -0.23691 0.17297 0.060679 0.0689 0.035031 0.063639 0.041607 
0.14157 -0.34888 0.20306 0.020233 0.043416 0.027796 0.013328 0.0421 
0.097179 -0.25779 0.20799 0.0051074 0.0592 0.027796 -0.019719 0.010862 
-0.017253 0.056898 0.057227 0.0062583 0.032893 0.032893 0.029112 0.082546 
-0.10061 0.28987 -0.0091966 -0.0083746 0.053281 0.012506 0.051801 0.090603 
-0.10225 0.36485 -0.071838 -0.0013048 0.054925 0.026152 0.047855 0.10704 
-0.091075 0.33657 -0.091897 0.023851 0.063803 0.039634 0.047033 0.093726 
-0.041915 0.25206 -0.052109 0.079422 0.047855 0.048348 0.033222 0.087643 
0.013164 0.17478 -0.045203 0.053281 0.030427 0.01563 0.03799 0.03092 
0.057227 0.075476 0.0064227 0.066269 -0.023994 -0.037147 -0.0095255 0.0023123 
0.13565 -0.00064712 0.037168 0.097179 -0.045696 -0.04882 -0.030735 -0.039778 
0.17281 -0.086307 0.052952 0.12003 -0.036654 -0.046683 -0.039613 -0.064275 
0.19813 -0.23822 0.078929 0.12579 0.012013 0.0023123 -0.0096899 -0.047669 
0.171 -0.23642 0.031085 0.14305 0.066763 0.027632 0.013986 -0.018897 
0.076134 0.01711 -0.016102 0.15818 0.032893 0.037661 0.037497 0.02533 
-0.076606 0.30023 0.0051074 0.071366 0.0098754 0.027632 0.058049 0.077285 
-0.17953 0.41466 0.056733 -0.070194 0.012999 0.023851 0.074983 0.10737 
-0.10867 0.23627 0.17807 -0.1644 0.068571 0.054596 0.05624 0.10425 
0.013657 -0.013965 0.13845 -0.097322 0.095042 0.074819 0.066927 0.08156 
0.13598 -0.2134 0.072024 0.074326 0.11411 0.074983 0.049499 0.03947 
0.16459 -0.22672 0.05065 0.12497 0.050979 0.038812 0.016781 0.013328 
0.14091 -0.12856 0.0036276 0.074161 0.0052718 -0.0004827 0.0021479 0.0028056 
0.11609 0.10606 -0.052437 0.030592 0.0070803 -0.0082102 -0.019884 -0.014951 
0.061337 0.2366 -0.13629 0.018918 -0.0059084 1.0539e-005 0.0093821 0.018096 
0.019247 0.15209 -0.17821 0.064296 -0.0022913 -0.010019 0.023686 0.038483 
-0.023665 0.00033937 -0.1598 0.089616 -0.00097594 0.00099702 0.015301 0.064296 
-0.039613 0.090274 -0.14632 0.13236 0.025659 0.013492 0.011355 0.071859 
-0.086964 0.30697 -0.12971 0.12085 0.00083261 0.041607 0.027139 0.071366 
-0.098473 0.37553 -0.078744 0.054432 -0.014951 0.016616 0.041936 0.062652 
-0.029913 0.20109 0.00297 -0.034352 -0.019555 -0.018568 0.032729 0.023522 
0.0689 -0.091897 0.17149 -0.13004 0.0047785 -0.013636 0.025001 -0.0088678 
0.18481 -0.33128 0.25551 -0.14303 0.038648 0.02122 0.025166 -0.021856 
0.21178 -0.32175 0.19402 -0.062138 0.03651 0.051143 0.014479 -0.018075 
0.19977 -0.19679 0.077121 0.039141 0.038483 0.022864 0.029769 -0.006566 
0.14519 -0.060494 -0.038627 0.09422 0.01974 0.011026 0.023686 0.00017495 
0.070873 0.073339 -0.044217 0.02829 0.009711 0.01004 0.0227 0.0090533 
-0.020541 0.18383 -0.0098543 -0.02646 0.023357 0.0016547 0.014643 0.049664 
-0.045861 0.22345 -0.037311 -0.012978 -0.004593 0.019083 0.0021479 0.030756 
-0.10653 0.20092 -0.05737 0.038319 0.020891 0.07597 0.044896 0.04654 
-0.047834 0.12414 -0.1011 0.06742 0.075476 0.046375 0.05624 0.050814 
-0.017253 0.043087 -0.080881 0.055747 0.066269 0.046704 0.054925 0.078765 
0.018754 -0.023501 -0.0029489 0.053281 0.0095465 0.018425 0.010204 0.032893 
0.011684 -0.088444 0.073668 -0.016102 0.0019835 1.0539e-005 0.013657 0.017767 
0.025001 -0.030735 0.12332 -0.082361 -0.0016336 -0.0013048 0.023357 0.0069159 
0.0067515 0.096357 0.10754 -0.058521 0.012506 0.0056006 0.03388 0.033222 
0.035853 0.21375 0.047855 -0.026953 0.014315 0.00297 0.034209 0.0092177 
0.073339 0.25222 0.01826 0.025824 0.025495 0.024344 0.026152 -0.0082102 
0.064625 0.2246 -0.025802 0.078107 0.037168 0.053445 0.038155 -0.027447 
0.030592 0.15834 -0.036489 0.1003 0.058706 0.037497 0.041607 0.010533 
-0.023501 0.13516 -0.068386 0.071695 0.047526 0.04358 0.037826 0.027303 
-0.018404 0.11444 -0.09239 0.11592 0.044731 0.033551 0.041278 0.064296 
0.0042853 0.043909 -0.099789 0.17939 0.049335 0.013821 0.039634 0.047033 
0.031907 -0.15273 -0.066084 0.16706 0.061337 0.039963 0.025988 0.046211 
0.025659 -0.3954 0.038319 0.12529 0.044238 0.035853 0.04358 0.029441 
0.0026412 -0.30613 0.061995 0.046046 0.018754 0.028947 0.03651 0.049664 
-0.060165 -0.065426 0.0592 -0.087622 0.0039565 0.017767 0.038319 0.044073 
-0.066577 0.1248 0.061501 -0.20649 0.012177 0.019247 0.044731 0.035688 
-0.068057 0.20125 0.089945 -0.25204 0.028947 0.029276 0.021878 0.012506 
-0.024652 0.23693 0.096028 -0.1501 0.018425 0.0042853 0.026152 -0.017253 
-0.0022913 0.27721 0.10474 -0.085156 -0.0095255 -0.0095255 -0.014293 -0.018404 
0.063803 0.23496 0.058871 -0.026789 0.0052718 -0.036818 -0.02087 -0.014951 
0.12036 0.088136 0.054925 0.025824 0.041443 0.011355 0.0046141 -0.027282 
0.10014 -0.038956 0.019083 0.080244 0.055582 0.061666 0.034537 0.014643 
0.071531 -0.026296 -0.0021268 0.10359 0.065612 0.058706 0.1003 0.036839 
0.09422 0.1493 -0.014787 0.14963 0.076134 0.049006 0.079094 0.037168 
0.10556 0.24696 -0.018404 0.2218 0.076134 0.060844 0.047362 0.04654 
0.05476 0.072188 0.0056006 0.23052 0.085341 0.040292 0.024837 0.061008 
0.01267 -0.30432 0.042923 0.20947 0.03799 0.02681 0.0054362 0.061995 
-0.012485 -0.40494 0.096686 0.12595 0.014808 -0.003771 0.014808 0.039305 
-0.031721 -0.1233 0.10178 0.0083956 -0.025638 -0.015116 -0.0050863 0.00033937 
-0.0098543 0.15834 0.044402 -0.090253 -0.025309 -0.01528 0.0011614 0.0042853 
-0.059836 0.26242 0.0324 -0.092719 -0.0055795 0.037332 0.020233 0.059528 
-0.090417 0.22164 0.015794 -0.027611 0.041936 0.066763 0.056076 0.082875 
-0.094199 0.15538 0.0088889 -0.010676 0.068242 0.061337 0.086163 0.10211 
-0.092226 0.20849 0.011684 -0.011334 0.069393 0.04506 0.062817 0.074326 
-0.047505 0.28527 -0.010019 0.045389 0.04506 0.031578 0.016452 0.064461 
0.012013 0.18629 -0.0088678 0.13121 0.048348 0.060515 -0.013307 0.004943 
0.082217 0.083697 0.0046141 0.19764 0.062817 0.037168 0.0026412 0.011355 
0.11987 -0.0016336 -0.014622 0.1761 0.043087 0.025001 0.032564 -0.0049219 
0.11559 -0.011334 0.05213 0.12513 0.044896 0.00033937 -0.008539 -0.0072237 
0.11921 0.0039565 0.085999 0.0087245 0.012013 0.0032988 0.0044497 0.022535 
0.10655 0.062488 0.14749 -0.084169 0.00017495 0.015794 0.036182 0.036346 
0.089123 0.017767 0.1493 -0.03353 0.0054362 0.018589 0.015959 0.030756 
0.10852 -0.092226 0.13351 -0.066741 0.020398 -0.0062372 0.038155 0.042758 
0.11346 -0.1473 0.13088 -0.096007 -0.0075525 0.0072447 0.019247 0.0047785 
0.10178 -0.072989 0.12316 -0.093541 -0.02646 -0.0019624 0.0098754 0.028947 
0.0689 -0.026953 0.051472 -0.042408 -0.015116 0.0023123 0.010862 0.027303 
0.064132 -0.0082102 -0.0075525 0.011026 -0.018897 0.0016547 0.010204 0.026317 
0.069229 -0.072332 0.039799 -0.03912 -0.02087 -0.016595 0.017932 0.01004 
0.13006 -0.10423 0.13138 -0.13103 -0.019061 0.0026412 0.01004 0.01826 
0.083368 -0.10949 0.042265 -0.1113 0.049499 0.01974 0.027139 0.00083261 
0.055911 -0.083018 -0.066413 0.088958 0.11066 0.083368 0.047526 0.042594 
-0.0082102 0.04506 -0.08269 0.26636 0.12003 0.069886 0.044238 0.06183 
-0.02646 0.17133 -0.01939 0.30763 0.082711 0.05065 0.062488 0.074161 
-0.034352 0.22559 0.096686 0.29596 0.10145 0.047033 0.048348 0.066598 
-0.030735 0.20619 0.14469 0.19205 0.063803 0.042265 0.043416 0.050321 
-0.0039354 0.1955 0.18892 0.053445 0.04358 0.029112 0.020398 0.025824 
0.050321 0.24236 0.20931 -0.019061 -0.011827 0.0098754 0.013328 0.027632 
0.10688 0.18892 0.17643 0.061501 -0.025309 0.0041209 0.02681 -0.001798 
0.12727 0.047197 0.067256 0.11115 0.018096 -0.0021268 0.0054362 0.022371 
0.075476 -0.032872 -0.039449 0.034537 0.030592 0.0079024 0.00083261 0.010697 
0.04095 -0.054082 -0.077757 -0.049149 0.033222 0.0062583 0.00297 0.021878 
0.00083261 0.020891 -0.083183 -0.10883 -0.0011404 0.007738 0.033715 0.021384 
0.017274 0.038648 -0.13448 -0.14303 -0.0036066 0.018425 0.053445 0.058213 
0.045224 0.013821 -0.15635 -0.16687 -0.012978 0.020398 0.045389 0.033387 
0.06183 -0.073647 -0.090253 -0.12905 0.024015 0.030263 0.041278 0.024508 
0.032071 -0.1598 -0.092719 -0.0029489 0.015137 0.048019 0.042923 0.05624 
0.0032988 -0.17608 -0.06 0.032893 0.0092177 0.019247 0.025988 0.014643 
-0.0138 -0.0077169 0.016288 0.070544 0.031414 0.014972 0.024837 0.03799 
-0.013965 0.22444 0.099645 0.11674 0.054103 0.0093821 0.023028 0.022535 
-0.037969 0.37833 0.10688 0.13023 0.048841 0.027468 0.042265 0.047855 
-0.054246 0.40694 0.048348 0.12858 0.057884 0.049664 0.041114 0.037332 
-0.020706 0.2731 0.058377 0.14223 0.066927 0.043745 0.041607 0.033551 
0.016945 0.06742 0.026317 0.1567 0.071859 0.033387 0.030756 0.018096 
0.043745 -0.04323 0.013492 0.071859 0.062817 0.009711 0.016781 0.015959 
0.10688 -0.047998 0.049992 -0.0022913 -0.010676 -0.012978 0.041443 0.020398 
0.18596 -0.182 0.078436 -0.041257 -0.0062372 0.015465 -0.0050863 -0.01117 
0.13565 -0.26387 0.26833 -0.14007 -0.012485 0.028783 0.0037921 -0.01676 
0.024344 -0.3155 0.31947 -0.064604 -0.013471 0.010204 0.033387 0.015959 
-0.071345 -0.28426 0.16492 -0.0503 -0.019226 0.012506 0.057062 0.065447 
-0.12675 -0.12067 -0.097322 -0.0095255 0.01415 0.011191 0.041936 0.062488 
-0.13316 0.070873 -0.21899 0.0087245 0.013986 0.044567 0.043416 0.051143 
-0.11491 0.19533 -0.15947 0.053938 0.045882 0.038977 0.05772 0.049664 
-0.041586 0.20799 -0.02942 0.19435 0.097015 0.058377 0.073832 0.040785 
0.042429 0.14634 0.0056006 0.17281 0.09422 0.063145 0.031249 0.014315 
0.13434 0.098166 0.053116 0.040128 0.049664 0.023357 0.020891 -0.0055795 
0.17018 0.053116 0.097015 -0.027447 0.024837 0.021713 0.022206 0.0075736 
0.17412 0.050979 0.053445 0.036675 0.041443 0.01004 0.010697 0.015465 
0.068736 0.081395 -0.0049219 0.098823 0.019411 0.019905 0.032564 0.0421 
0.0037921 0.12776 -0.030735 0.11263 0.031907 0.021713 0.037826 0.048348 
-0.0095255 -0.050958 0.042429 0.065776 0.017438 0.026152 0.0093821 0.03536 
0.012835 -0.15947 0.12349 -0.089266 0.0067515 0.016945 0.010862 0.012342 
0.0088889 -0.12856 0.059364 -0.15059 -0.013143 0.0090533 0.026481 0.042594 
-0.0032777 -0.059014 0.032236 -0.11475 0.0075736 -0.0055795 0.052623 0.047691 
0.0031344 0.0064227 0.018754 -0.060329 0.01826 0.032071 0.037332 0.055254 
0.014972 0.089616 0.046375 -0.021199 0.031414 0.01711 0.053445 0.052294 
0.015959 0.16607 0.075641 -0.03205 0.027961 0.016945 0.013328 0.033058 
0.023193 0.14239 0.073175 -0.021363 -0.028269 0.011026 0.00017495 0.0041209 
0.0072447 0.14009 0.11872 -0.045203 -0.013143 -0.0078813 0.017603 0.021056 
0.037168 0.1003 0.14749 0.012342 -0.013307 0.0016547 0.01267 0.017274 
0.052787 0.029769 0.11937 0.072517 0.020727 0.0080668 -0.0022913 0.0098754 
0.052787 -0.054575 -0.039942 0.086492 0.018754 0.040128 -0.0029489 0.0067515 
0.04358 -0.043888 -0.2203 0.10326 0.029934 0.040128 0.024673 0.030098 
0.041936 -0.02498 -0.2185 0.082546 0.031578 0.037168 0.028783 0.016616 
0.033387 -0.0011404 -0.086636 0.047033 0.038812 0.027632 0.024015 -0.0024557 
0.028783 -0.094363 0.087479 -0.036818 0.017767 0.018918 0.014479 0.02829 
0.033222 -0.20205 0.29859 -0.072332 -0.0013048 0.022371 0.018096 0.024015 
0.061666 -0.042244 0.36419 -0.059178 0.0059294 0.014972 0.030756 0.01974 
0.073339 0.12217 0.27984 -0.035174 0.020398 0.010533 0.036839 0.05065 
0.048513 0.18202 0.10984 0.0052718 0.029441 0.019905 0.047197 0.06742 
0.025988 0.18876 -0.043395 0.031249 0.022371 0.016945 0.041936 0.060515 
0.018589 0.19205 -0.077428 0.0092177 0.018754 0.039799 0.024837 0.058377 
0.005765 0.32654 -0.10258 -0.01117 0.017767 0.030427 0.043087 0.051636 
-0.0026201 0.45149 -0.11245 -0.0044286 0.026974 0.02533 0.032893 0.058542 
0.0083956 0.41959 -0.064768 0.040785 0.029112 0.027139 0.02681 0.03799 
0.024015 0.30286 -0.0078813 0.036346 -0.001798 0.035524 -0.029584 0.06331 
-0.026953 0.15456 0.03092 0.051965 0.020891 0.03799 0.018096 0.0056006 
-0.13514 -0.0059084 0.018589 0.077121 0.030427 0.045224 0.036675 0.061666 
-0.048656 -0.12823 0.037661 -0.014129 0.03651 0.015465 0.030098 0.020069 
0.057391 -0.30103 0.051965 -0.057699 0.01267 0.014972 0.015301 0.02533 
0.14321 -0.44571 0.063639 -0.010183 -0.039613 0.0090533 -0.010841 -0.046683 
0.16311 -0.3104 0.0065871 0.066434 -0.0067304 -0.0016336 -0.023336 0.0060938 
0.052623 0.13023 -0.084991 0.085012 0.012342 0.013986 0.022206 0.030592 
-0.0042642 0.48224 -0.13267 0.084848 0.030098 0.026481 0.030263 0.064461 
-0.0082102 0.61344 -0.079072 0.094877 0.045718 0.031907 0.050486 0.034702 
0.077121 0.52877 0.082217 0.009711 0.050979 0.03947 0.031578 0.0088889 
0.1539 0.24071 0.20635 -0.004593 0.067749 0.051965 0.020069 -0.031886 
0.14617 0.099645 0.1562 0.08567 0.082546 0.056733 0.051801 0.0072447 
0.078272 0.19221 -0.0040998 0.16804 0.063968 0.045718 0.057391 0.057555 
0.034209 0.27392 -0.13021 0.19599 0.049335 0.049992 0.081889 0.083204 
-0.0072237 0.2417 -0.18676 0.17692 0.040785 0.035031 0.039634 0.10556 
-0.084334 0.082053 -0.10127 0.061666 0.0092177 0.023357 0.032893 0.12875 
-0.13777 -0.0019624 0.053281 -0.12083 -0.056219 -0.030899 0.021713 0.07449 
-0.1182 -0.0868 0.1544 -0.14846 -0.020541 -0.0011404 0.01826 0.049335 
-0.057863 -0.29182 0.19468 -0.10176 0.085341 0.052952 0.039634 0.030592 
-0.019555 -0.44522 0.16706 -0.055726 0.12628 0.081889 0.032564 0.032729 
0.089945 -0.3543 0.061172 -0.0031133 0.10178 0.060515 0.013657 -0.0016336 
0.14486 -0.098802 0.028125 0.020891 0.047855 0.031907 0.029112 -0.024487 
0.20931 0.027303 0.010204 0.082382 0.043745 0.015137 0.010369 -0.067564 
0.19254 0.044238 0.051801 0.041607 0.01267 -0.0032777 -0.010512 -0.02794 
0.10507 0.066105 0.071695 0.043087 0.0023123 -0.0062372 -0.034845 -0.0032777 
0.026317 0.070051 0.056404 0.13302 0.0088889 0.017603 0.015959 0.0227 
-0.059014 0.077449 0.0026412 0.20602 0.059528 0.039141 0.056733 0.060186 
-0.12494 0.054596 -0.01939 0.22246 0.068078 0.057884 0.051143 0.064461 
-0.11179 0.040128 -0.021692 0.12842 0.061337 0.05065 0.023686 0.02533 
-0.054246 0.02681 0.019411 0.046375 0.049006 0.056404 0.016781 0.020233 
0.024344 0.040292 0.045553 -0.023172 0.037661 0.057555 0.035688 0.033715 
0.10951 0.00297 0.064625 -0.051287 0.018425 0.029769 0.044896 0.036017 
0.15028 -0.0078813 0.066927 -0.0060728 0.025001 0.022206 0.016123 0.034209 
0.088465 0.057884 0.029276 -0.0090322 -0.0039354 0.0060938 -0.0067304 0.0054362 
0.049335 0.10474 0.02122 0.014315 0.0088889 0.012013 0.005765 0.043745 
0.018918 -0.014129 0.014808 0.031907 0.031414 0.035853 0.041772 0.067091 
0.02681 -0.088115 0.009711 0.075805 0.041936 0.039305 0.052459 0.055254 
0.073832 -0.065919 0.00050378 0.058871 0.052459 0.03536 0.038812 0.0075736 
0.1026 0.026152 0.012835 0.0085601 0.03799 0.030098 0.017274 0.025495 
0.098001 0.0044497 0.062981 0.0036276 0.046375 0.040128 0.012835 0.0093821 
0.057227 -0.034023 0.036017 -0.021034 0.090767 -0.008539 0.0069159 0.032564 
-0.030899 -0.041257 0.0037921 0.062159 0.030756 0.0098754 0.034866 0.028783 
-0.057041 -0.041422 -0.018897 0.07597 0.010862 0.025001 0.078436 0.040292 
-0.087458 -0.016924 -0.086307 0.075148 -0.012814 -0.0067304 0.0082312 0.027796 
-0.11952 -0.025967 -0.032708 0.012999 0.038155 0.05065 0.034866 0.068571 
-0.058192 -0.087458 0.1271 -0.044381 0.060679 0.049335 0.034373 0.024015 
0.020069 -0.24776 0.22263 -0.071181 0.05476 0.025659 0.021384 -0.0044286 
0.15735 -0.31912 0.24301 -0.1108 0.0075736 0.005765 0.0041209 -0.049971 
0.16541 -0.34394 0.13762 -0.083347 0.015959 0.0023123 0.0028056 -0.02087 
0.094713 -0.18808 0.072681 0.019576 0.042594 0.031907 0.024508 0.015137 
0.015959 0.03799 -0.019884 0.0689 0.062652 0.044402 0.038155 0.048348 
-0.050629 0.27064 -0.050629 0.066927 0.03651 0.027632 0.031414 0.056076 
-0.1062 0.35366 -0.0034422 0.051308 0.0041209 0.026152 0.031742 0.052787 
-0.078415 0.26307 -0.0138 0.046868 0.025659 0.013821 0.024837 0.049828 
0.0018191 0.16196 -0.010676 0.043251 0.037332 0.033058 0.037332 0.02829 
0.071859 0.21819 -0.055397 0.042923 0.044731 0.032071 0.052952 0.0067515 
0.039305 0.27853 -0.060329 0.0689 0.034702 0.033551 0.048348 0.015301 
0.0052718 0.22213 -0.028762 0.053609 0.018425 0.018918 0.022371 0.01563 
-0.00097594 0.13286 0.026317 0.041772 0.009711 0.013328 0.026646 0.042265 
-0.0090322 -0.011663 -0.015938 0.033551 0.025166 0.0072447 0.01152 0.03799 
0.0021479 -0.047998 -0.037805 0.036017 0.0032988 0.0019835 0.017274 0.036346 
-0.025802 0.0019835 -0.028597 0.021384 0.00099702 0.0095465 0.037497 0.043251 
-0.028104 0.098001 0.012177 0.019083 0.00050378 0.00033937 0.024344 0.036017 
0.051965 0.1613 0.076463 0.034702 0.013492 -0.010019 0.013328 -0.0057439 
0.11625 0.16212 0.083204 -0.020048 -0.00031829 0.0031344 0.0016547 -0.017088 
0.13302 -0.0022913 0.11148 -0.020541 0.0018191 -0.006566 0.031085 -0.020048 
0.089123 -0.058521 0.083368 0.01563 -0.009361 0.013986 0.041772 0.036675 
-0.0068948 0.063639 0.01826 0.060022 0.025001 -0.014293 0.059528 0.044402 
-0.10028 0.20257 -0.040271 0.11198 0.052459 0.022864 0.038648 0.060515 
-0.1085 0.28132 -0.10834 0.16706 0.0786 0.048184 0.054103 0.073997 
-0.093705 0.2736 -0.057699 0.14091 0.050979 0.034866 0.041772 0.039305 
-0.036818 0.12414 0.10918 -0.00097594 0.005765 0.012342 0.041443 0.027468 
0.034866 -0.029584 0.23742 -0.14467 -0.0059084 -0.019226 0.022371 -0.0014692 
0.10359 -0.13399 0.28856 -0.19022 -0.038627 -0.02498 0.0064227 -0.0021268 
0.15505 -0.041257 0.18152 -0.17443 -0.028597 0.0072447 0.0052718 -0.015609 
0.16673 0.08419 0.053116 -0.091732 0.00017495 0.013328 0.029769 0.0024767 
0.14206 0.14026 -0.033859 0.011191 0.038319 0.038977 0.039963 0.0011614 
0.08304 0.21145 -0.065426 0.09981 0.056733 0.040128 0.03651 0.041936 
0.031578 0.27491 -0.023007 0.14108 0.04095 0.023357 0.027961 0.040128 
0.049828 0.25502 -0.014293 0.16623 0.022864 0.015137 0.021549 0.052459 
0.070051 0.13762 -0.024158 0.17856 0.015794 0.01152 0.019576 0.016616 
0.16771 -0.083676 -0.025967 0.15883 0.05065 0.013821 0.027961 0.023193 
0.11346 -0.24562 -0.016102 0.18629 0.083697 0.048677 0.056076 0.045224 
0.03092 -0.23346 0.013492 0.17034 0.075805 0.062652 0.059528 0.078436 
0.024508 -0.16786 0.13056 0.023686 0.032893 0.043087 0.033715 0.03536 
0.1271 -0.18594 0.28839 -0.13201 0.014315 -0.01117 0.012013 -0.012978 
0.11313 -0.059672 0.21293 -0.13875 -0.024158 -0.027282 0.0054362 -0.016924 
-0.018733 0.13105 -0.012649 -0.017746 0.033058 0.01974 0.050157 0.069229 
-0.12922 0.18021 -0.12034 0.021713 0.021384 0.020891 0.061172 0.097508 
-0.079237 0.20339 -0.18035 0.04358 0.010697 0.037826 0.03651 0.061008 
0.034044 0.15933 -0.14665 0.070708 0.0039565 0.020562 0.02681 0.022206 
0.08715 0.12233 -0.049642 0.05772 0.0028056 0.0013258 0.019905 0.011191 
0.062323 0.09833 0.089287 0.0786 0.025495 0.00297 0.023357 0.024015 
0.013821 0.072024 0.21079 0.14486 0.044238 0.012177 0.025001 0.033551 
0.031085 0.024179 0.20027 0.15111 0.061501 0.044896 0.024673 0.03388 
0.076299 0.017603 0.095206 0.052623 0.04095 0.035853 0.04506 0.020727 
0.12743 -0.0078813 0.011355 -0.077757 0.061337 0.01563 0.035195 0.014479 
0.15703 -0.045861 -0.016266 -0.071345 0.018918 0.018425 0.0067515 1.0539e-005 
0.16245 -0.097158 0.10408 -0.07825 0.0072447 0.017932 0.0070803 0.021549 
0.090109 -0.079401 0.1853 0.0021479 0.024015 0.033222 0.00297 0.019083 
0.014972 -0.050629 0.10819 0.049664 0.03799 0.024673 0.056733 0.035853 
-0.027447 0.023028 -0.020541 0.098166 0.042594 0.02122 0.042594 0.050814 
-0.063453 0.098001 -0.055561 0.065283 0.03947 0.02829 0.044238 0.033058 
-0.028597 0.16015 -0.025145 0.016452 0.035853 0.040785 0.017438 0.038812 
-0.0014692 0.19237 -0.0032777 0.083204 0.020562 0.045389 0.013492 0.025824 
0.020233 0.12464 -0.073811 0.10885 0.023193 0.016123 0.036839 0.020891 
-0.023665 0.10195 -0.038298 0.061666 0.0046141 0.0059294 0.028125 0.023028 
-0.034352 0.02122 0.033058 0.018918 0.01152 -0.010019 0.0092177 0.011191 
0.048677 -0.047012 0.10359 0.0051074 -0.0075525 -0.0078813 -0.0077169 0.0092177 
0.13582 -0.030406 0.15703 -0.033694 0.012013 0.018425 0.0044497 0.025659 
0.12036 0.019411 0.14946 -0.10439 0.02681 0.024837 0.032236 0.028125 
0.045718 -0.07414 0.15686 -0.087129 0.0324 0.01974 0.03388 0.042758 
-0.011663 -0.20008 0.11494 -0.043559 0.026974 0.013821 0.01711 0.054925 
-0.020212 -0.12741 0.0056006 0.05624 0.015137 0.026317 0.02681 0.044896 
-0.025474 -0.029913 -0.080223 0.19912 0.013657 0.01974 0.012342 0.06479 
-0.020212 -0.036654 -0.13448 0.19501 0.033387 0.032236 0.031742 0.026481 
-0.012649 0.0031344 -0.13547 0.092411 0.085012 0.039963 0.024015 0.041278 
-0.034188 0.10359 -0.12083 -0.010183 0.093891 0.077121 0.048841 0.048841 
-0.037969 0.15982 -0.067892 -0.069043 0.099316 0.079587 0.057555 0.069393 
-0.030242 0.093398 -0.0016336 -0.10423 0.065776 0.047362 0.080573 0.065118 
-0.004593 0.024344 0.051636 -0.034516 0.055418 0.0051074 0.053938 0.044073 
0.03947 -0.036983 0.094548 0.069064 0.022864 0.011684 0.031742 0.037661 
0.088136 -0.024487 0.032729 0.092082 -0.019719 -0.0054151 -0.012649 -0.0073881 
0.02829 0.11905 -0.059672 0.11839 -0.025802 -0.010841 -0.017911 -0.0059084 
-0.048327 0.2052 -0.049149 0.1904 0.031249 0.013821 -0.0095255 0.046704 
-0.035338 0.19205 0.041607 0.19468 0.061995 0.032729 0.057391 0.048348 
-0.0062372 0.13993 0.147 0.075148 0.020398 0.021549 0.01711 0.040128 
0.012013 0.13335 0.18152 -0.10784 0.0056006 0.011026 0.024179 0.036839 
0.011191 0.096686 0.14354 -0.12955 0.018425 0.034373 0.026974 0.061995 
0.032071 0.034373 0.13631 -0.18578 0.025495 0.031085 0.0324 0.028125 
0.011355 -0.012156 0.072188 -0.15684 -0.014622 -0.00015387 0.034373 0.027468 
0.043416 -0.012649 -0.065426 -0.08532 -0.010183 0.010697 0.028454 0.00083261 
0.04506 -0.037311 -0.13826 -0.031064 0.01711 0.025824 0.019083 0.016123 
0.074983 -0.034681 -0.13136 -0.012485 0.052459 0.044402 0.033715 0.0032988 
0.16853 -0.025802 -0.018075 -0.015444 0.0324 0.039799 0.02829 0.0024767 
0.17774 0.01004 0.10425 0.039141 0.039634 0.035688 0.025166 -0.0039354 
0.060515 0.035688 0.20355 0.055418 0.048348 0.049006 0.022864 0.036839 
-0.038791 0.030427 0.23825 0.091753 0.029112 0.0083956 0.0098754 0.022535 
-0.10883 0.11083 0.10326 0.13236 0.017932 0.020727 -0.0024557 0.06479 
-0.15289 0.30187 -0.090581 0.097837 0.0051074 0.023028 0.018754 0.063474 
-0.097816 0.37323 -0.14418 0.028619 0.027796 0.040128 0.049335 0.04917 
-0.019061 0.22822 -0.12116 -0.058521 0.040456 0.02681 0.042923 0.037332 
0.095206 -0.011334 -0.017746 -0.089102 0.03388 0.021056 0.024837 0.0019835 
0.17856 -0.16309 0.083368 -0.11607 0.029934 0.024344 0.0044497 -0.0090322 
0.21753 -0.22852 0.11806 -0.072167 0.020233 0.023028 0.018918 -0.020706 
0.18514 -0.21258 0.096193 -0.0072237 0.0024767 0.014643 0.037332 -0.0073881 
0.09274 -0.084663 -0.0095255 0.032071 0.03651 0.036017 0.012177 0.0021479 
0.00297 0.095042 -0.014787 0.079094 0.052459 0.016123 0.023193 0.055582 
-0.032215 0.22789 0.039634 0.12102 0.043251 0.03388 0.034209 0.068736 
-0.017088 0.21062 0.039305 0.14091 0.034537 0.056404 0.042758 0.065283 
0.010697 0.21704 0.016781 0.11921 0.042265 0.044731 0.036182 0.046046 
0.0080668 0.23397 -0.0042642 0.08156 0.04917 0.017274 0.027303 0.037661 
0.036675 0.15653 0.041772 0.0041209 0.0016547 0.0028056 0.0024767 0.0093821 
0.051472 -0.031064 0.13943 -0.13251 -0.014458 -0.0011404 -0.0090322 0.0011614 
0.056733 -0.079237 0.15916 -0.13481 -0.0055795 0.0044497 0.0021479 -0.022679 
0.018918 0.043909 0.084848 -0.046519 0.014479 0.012342 0.016288 0.0036276 
-0.026624 0.1978 -0.022514 0.0037921 0.0044497 0.023357 0.039141 0.026317 
-0.047505 0.19435 -0.065919 0.0023123 0.0028056 0.032071 0.044731 0.059693 
-0.0075525 0.077943 -0.040928 0.029605 0.015794 0.030098 0.021384 0.031907 
0.080902 -0.024487 -0.065097 0.13351 0.044567 0.011026 0.068736 0.021878 
0.16393 -0.088608 -0.053424 0.15604 0.066105 0.034044 0.04506 -0.006566 
0.171 -0.14632 0.045718 0.10655 0.054267 0.017274 0.031742 -0.0022913 
0.19977 -0.083347 0.086985 0.080244 0.029934 0.031249 0.021549 0.032729 
0.13253 0.097672 0.10704 0.014643 0.020727 0.03799 0.031578 0.075312 
0.084684 0.15851 0.072353 -0.0091966 0.012342 0.029441 0.037004 0.046704 
0.046868 0.23151 0.061008 0.0062583 -0.021528 -0.0050863 0.025001 0.0786 
-0.071016 0.37356 -0.042408 0.07597 -0.019884 -0.030242 -0.0026201 0.093398 
-0.17739 0.45429 -0.07562 0.093891 -0.013471 -0.0073881 -0.015116 0.076134 
-0.16901 0.26439 -0.01676 0.037332 0.025988 0.051308 0.0083956 0.044402 
0.017932 -0.13366 0.13499 -0.11919 0.020398 0.036182 0.025824 -0.01117 
0.20471 -0.48008 0.25403 -0.18726 0.0018191 -0.02942 0.015465 -0.066248 
0.20191 -0.51773 0.19944 -0.052437 0.043087 0.0037921 0.028454 -0.021692 
0.096193 -0.33539 0.035031 0.12316 0.094877 0.044238 0.054103 0.03092 
-0.015773 -0.038627 -0.045039 0.19813 0.073175 0.063968 0.053938 0.063145 
-0.05737 0.19698 -0.053424 0.14946 0.0087245 0.038319 0.048513 0.066269 
-0.032379 0.35794 -0.015773 0.10655 0.0098754 0.01974 0.042265 0.041443 
-0.018075 0.33311 0.015959 0.099481 0.035853 0.033387 0.040292 0.044073 
0.021384 0.21358 0.025166 0.052623 0.056733 0.038977 0.027961 0.015301 
0.036182 0.047526 0.029276 0.0421 0.021056 0.030427 0.022371 -0.001798 
0.040456 -0.025967 -0.0016336 0.080902 0.025001 0.0227 0.021878 0.0023123 
-0.0095255 0.068078 -0.024323 0.092904 0.017274 0.0062583 0.015137 0.016781 
-0.0011404 0.14256 -0.0068948 0.058377 0.032893 0.016945 0.02122 0.027468 
0.0090533 0.019083 0.030263 0.03536 0.0023123 0.0064227 0.0047785 0.040128 
0.026646 -0.1011 0.066763 0.069229 -0.004593 -0.00097594 -0.0044286 0.034044 
0.011355 -0.1455 0.059528 0.044567 0.0090533 0.012999 0.028619 0.061666 
0.076134 -0.20748 0.081231 -0.074469 0.0079024 0.030427 0.043087 0.04917 
0.11411 -0.30761 0.18004 -0.17936 0.032893 0.039305 0.033058 0.038648 
0.094548 -0.31731 0.16278 -0.14862 0.059035 0.055089 0.038483 0.041607 
0.043416 0.040128 0.053774 -0.045696 0.083533 0.09274 0.065447 0.072353 
-0.020706 0.29744 -0.010019 0.053281 0.071037 0.077121 0.076792 0.050979 
-0.040271 0.21391 -0.0004827 0.10063 0.053281 0.044402 0.062817 0.0689 
-0.019719 0.043087 0.050321 0.10918 0.012835 0.031414 0.018096 0.016452 
0.00083261 -0.0044286 0.050157 0.11872 1.0539e-005 -0.0075525 -0.0036066 -0.012485 
-0.015938 0.039799 0.016452 0.15735 0.0079024 0.0090533 0.0042853 -0.022843 
-0.041915 0.21046 0.0056006 0.19649 0.044402 0.028947 0.039634 0.019083 
-0.040928 0.25962 0.021713 0.14272 0.056569 0.021056 0.044073 0.019247 
-0.0036066 0.18909 0.064132 0.0065871 0.031249 0.017438 0.027468 0.026646 
0.061337 0.1276 0.0592 -0.096994 0.026152 0.020562 0.028783 -0.0026201 
0.13664 0.076627 0.022535 -0.12889 0.02122 0.04506 0.0088889 -0.0077169 
0.13105 -0.00064712 0.016945 -0.11228 0.024837 0.035853 0.030592 0.011684 
0.094384 -0.10801 -0.017088 -0.094527 -0.022679 0.012013 0.019083 0.039799 
0.074326 -0.23444 -0.012156 -0.034188 0.018918 0.028947 0.023193 0.052294 
0.063474 -0.29347 -0.033365 -0.0031133 0.037497 0.021384 0.024015 0.038483 
-0.0052507 -0.11228 -0.060658 0.079751 0.069722 0.067585 0.030756 0.037332 
-0.015609 0.094877 -0.05737 0.09126 0.06742 0.045224 0.059035 0.044731 
-0.059343 0.21062 -0.026296 0.10885 0.020398 0.043251 0.044402 0.027961 
-0.051451 0.22279 0.025495 0.04917 0.026152 0.040128 0.00083261 0.0093821 
-0.018075 0.16459 0.095699 0.037332 0.028125 0.0036276 0.014479 -0.0049219 
0.0034632 0.12628 0.1128 -0.0021268 0.035031 0.0046141 0.02122 0.032564 
0.021384 0.086985 0.11543 -0.057699 -0.00097594 -0.0022913 0.029605 0.0041209 
0.047691 0.051143 0.091753 -0.0406 0.014643 0.012506 0.021549 -0.0044286 
0.0786 0.0227 0.041114 -0.042573 0.018589 0.027139 0.019247 -0.024487 
0.056733 -0.0034422 0.025659 0.029934 0.060022 0.037332 0.032071 0.026317 
0.034866 -0.016595 -0.024487 0.087808 0.068407 0.066269 0.040456 0.040456 
0.029276 -0.0090322 -0.034845 0.12497 0.053938 0.038483 0.045389 0.037661 
0.05624 0.070544 -0.064933 0.1128 0.041772 0.016945 0.035688 0.031742 
0.064296 0.076299 -0.054082 0.10244 0.022206 0.018918 0.0088889 0.0421 
0.060022 0.055911 0.059364 0.1054 0.036346 0.0056006 0.0041209 0.016123 
0.054925 0.10967 0.16015 0.044073 0.047362 0.05213 -0.0016336 0.013492 
0.038483 0.19994 0.1128 0.033387 0.037004 0.034866 0.041607 0.023851 
0.020727 0.23134 -0.00031829 0.0062583 0.034702 0.01563 0.022535 0.010862 
0.0069159 0.17511 -0.044381 -0.056055 0.01415 0.0067515 0.018589 0.028125 
0.0016547 0.16344 -0.031721 -0.048163 -0.019719 -0.00015387 0.042429 0.028619 
-0.064111 0.20405 -0.055068 -0.039449 -0.0049219 0.018425 0.038483 0.036017 
-0.069701 0.13598 -0.05885 -0.0091966 -0.017582 -0.014622 0.037004 0.01415 
-0.032543 0.043745 -0.025145 0.034373 -0.0013048 -0.018733 0.0093821 0.018096 
0.024179 0.069229 -0.0073881 0.10803 0.02829 0.0072447 -0.00064712 0.024508 
0.066105 -0.045368 0.090274 0.12858 0.040128 0.0095465 0.022535 0.018918 
0.13549 -0.23888 0.16426 0.044896 0.024837 0.050321 0.022206 0.034209 
0.15966 -0.19038 0.12809 -0.012156 0.035688 0.020562 0.058213 0.058871 
0.085835 0.037168 0.053445 -0.0011404 0.03947 0.024344 0.044567 0.060022 
-0.019555 0.20865 -0.0021268 0.015794 0.024508 -0.001798 0.035853 0.079258 
0.0059294 0.22213 0.027303 0.017274 0.010369 0.01563 0.017767 0.033058 
0.080738 0.010204 0.057884 0.0042853 0.016781 0.020727 0.034209 0.028783 
0.16919 -0.26305 0.05772 0.031249 0.02829 -0.0036066 0.037661 -0.019061 
0.19879 -0.42911 0.11724 0.0083956 0.024344 -0.014951 0.024673 -0.01528 
0.11822 -0.27308 0.11987 -0.0044286 0.0046141 -0.013143 0.02122 -0.011827 
-0.023501 0.077121 0.0088889 0.06479 0.021384 0.013986 0.027961 0.088136 
-0.054739 0.18448 0.00066819 0.079587 0.026152 0.030098 0.023851 0.072024 
0.060844 0.15719 0.0021479 0.055911 0.007738 0.0056006 0.014643 0.01974 
0.14026 0.16245 0.053281 -0.034188 -0.05885 0.01415 -0.011498 -0.010676 
0.065612 0.3119 0.020891 -0.006566 0.0041209 0.026152 -0.0062372 0.032893 
-0.034023 0.4117 -0.025967 -0.044217 0.0011614 0.039634 0.0072447 0.011848 
-0.040764 0.37142 0.0046141 -0.045368 0.020891 0.017274 0.030263 0.015137 
-0.024158 0.27294 -0.0088678 -0.0016336 0.015137 0.017274 0.034044 0.0046141 
-0.024816 0.18202 -0.010348 0.056733 0.027632 0.016123 0.0092177 0.024837 
-0.051944 0.026974 0.00066819 0.070708 0.040621 0.031578 0.018096 0.03388 
-0.049971 -0.2374 0.084519 -0.01232 0.045882 0.043416 0.041443 0.037826 
-0.025145 -0.36104 0.16064 -0.044874 0.071695 0.055747 0.065776 0.06183 
0.00099702 -0.23247 0.093398 -0.034352 0.069886 0.054432 0.070544 0.055747 
0.055582 -0.12429 -0.00064712 0.025001 0.059528 0.039141 0.03536 0.034702 
0.069886 -0.099789 -0.030899 0.094384 0.039963 0.033387 0.037004 0.041114 
0.037497 -0.071674 0.037497 0.043251 0.012835 -0.0096899 0.0098754 0.023193 
0.040456 -0.041586 0.085999 0.024179 -0.036983 -0.023994 0.0062583 0.02681 
0.066105 -0.037311 0.074654 0.0088889 -0.036654 -0.029748 -0.022021 0.0019835 
0.11033 -0.010348 0.11674 -0.003771 -0.0083746 -0.018239 -0.027118 -0.021856 
0.11954 0.090767 0.1105 0.017274 0.046375 0.023522 0.014479 0.0014903 
0.1174 0.20832 -0.018733 0.044731 0.071202 0.047526 0.053116 0.041278 
0.15144 0.11954 -0.010676 0.10228 0.048513 0.066927 0.072353 0.010533 
0.19303 -0.036325 0.076463 0.030756 0.053116 0.061501 0.047033 0.021056 
0.23019 -0.088444 0.077121 0.0013258 0.046868 0.03536 0.021549 0.020233 
0.15111 -0.016266 0.01267 0.038319 0.041278 0.02533 0.020562 0.021878 
-0.025802 0.092411 -0.073811 0.044402 0.039305 0.038977 0.014643 0.056733 
-0.14451 0.1299 -0.077757 0.0085601 0.037332 0.044238 0.036017 0.030592 
-0.15059 0.10655 -0.012485 -0.021856 0.01415 0.025001 0.027632 0.04506 
-0.10834 0.065447 0.065283 -0.0042642 0.0031344 -0.0098543 0.03536 0.022371 
-0.078744 0.0075736 0.10474 -0.029091 -0.010019 -0.0096899 0.0067515 0.045224 
-0.039284 0.022371 0.1516 -0.032215 -0.010348 0.012506 0.026974 0.034209 
-0.030242 0.066927 0.13861 -0.0087034 0.0014903 0.02681 0.042594 0.042429 
0.01563 0.10622 0.086657 -0.025474 0.032564 0.039799 0.03651 0.030756 
0.051308 0.098659 -0.00097594 0.029769 0.053281 0.033551 0.037661 0.040621 
0.054267 0.055254 -0.063453 0.11181 0.055418 0.021549 0.029605 0.031085 
0.053445 0.057062 -0.091568 0.18432 0.051965 0.015794 0.036017 0.043416 
0.047033 0.083862 -0.082361 0.15834 0.053445 0.032893 0.048348 0.022535 
0.04917 0.14239 -0.025145 0.090109 0.042923 0.031578 0.019411 0.018918 
0.041278 0.10228 0.00099702 0.06035 0.029934 0.020398 0.012506 0.00297 
0.049664 0.075476 0.015465 0.10474 0.035853 0.022042 0.01152 0.028454 
0.029276 0.075476 0.0052718 0.2121 0.0689 0.046046 0.031907 0.024837 
