0.031907 0.16327 -0.044546 0.057062 0.012835 0.0051074 0.018096 0.047197 
-0.0078813 0.24778 -0.25697 0.12694 0.026152 0.0080668 0.0051074 0.079587 
-0.042737 0.33394 -0.45295 0.17199 0.055747 0.030592 -0.014129 0.05772 
-0.053424 0.38655 -0.38225 0.092082 0.069886 0.053281 0.0064227 0.033715 
-0.033365 0.22822 -0.086142 -0.073482 0.059528 0.051472 0.017274 -0.011663 
0.078272 -0.11541 0.16196 -0.1187 0.022206 0.0079024 0.014643 0.011355 
0.1442 -0.36482 0.17528 -0.025967 0.024508 -0.0098543 0.038812 0.034209 
0.13516 -0.30827 0.11954 0.045882 0.026974 0.023028 0.048348 0.082546 
0.10129 -0.064275 0.11148 0.053938 0.015794 0.021878 0.037004 0.058213 
0.051801 0.11921 0.17429 0.027796 -0.0060728 0.023357 0.00099702 -0.033365 
0.047855 0.13812 0.28889 -0.10883 -0.02646 -0.0055795 0.038812 -0.094363 
0.079258 0.0080668 0.18942 -0.16161 -0.032215 -0.01939 -0.01117 -0.10538 
0.12316 -0.050136 -0.033694 -0.10406 -0.0087034 0.018425 0.01004 -0.055397 
0.08008 -0.032708 -0.084498 0.018589 0.04654 0.026152 0.031742 0.03536 
0.016781 0.064625 -0.012156 0.055254 0.073504 0.034866 0.051965 0.081395 
-0.023336 0.1516 0.077121 0.054596 0.058706 0.034702 0.057062 0.082382 
-0.028926 0.19468 0.051801 0.09126 0.060022 0.039141 0.073175 0.094384 
-0.0078813 0.13056 -0.050793 0.035195 0.02829 0.03799 0.045224 0.076792 
0.023851 0.049006 -0.089431 -0.0062372 0.0083956 0.016288 0.022535 0.070051 
0.033551 0.0013258 -0.043395 -0.034516 0.015959 0.017932 -0.017911 0.044567 
0.029112 0.0044497 0.068242 -0.041751 0.020398 0.017932 0.015959 0.029934 
0.02533 0.0037921 0.16311 -0.034352 0.028783 0.016781 0.039963 0.034373 
0.022864 -0.02794 0.22871 -0.015773 0.026974 0.032071 0.039963 0.06331 
0.020727 -0.025474 0.24778 0.040292 0.038812 0.024015 0.026646 0.063968 
0.013164 -0.015773 0.14552 0.0041209 0.047033 0.01711 0.018918 0.084684 
-0.0054151 0.096028 0.022371 -0.022021 0.034209 0.030263 0.020891 0.063639 
-0.0098543 0.1927 -0.17821 0.0079024 0.022371 0.045553 0.048677 0.071037 
-0.025802 0.22263 -0.33835 0.042923 0.021878 0.033387 0.044567 0.04506 
-0.036325 0.17955 -0.27637 0.096521 0.04358 0.011026 0.030756 0.011191 
0.019083 0.055418 -0.11804 0.048841 0.05213 0.015137 0.01826 -0.093541 
0.084026 -0.12018 -0.023172 -0.0014692 -0.0004827 -0.009361 0.00033937 -0.12774 
0.12957 -0.15931 0.12332 -0.12873 -0.022679 -0.015609 0.0021479 -0.10324 
0.11494 -0.13645 0.32045 -0.21636 -0.036983 -0.018075 -0.0024557 -0.0138 
0.092247 -0.19038 0.38605 -0.18676 -0.02235 -0.030735 -0.0026201 0.044567 
0.10228 -0.20847 0.25091 -0.11919 -0.023172 -0.00097594 0.01004 0.10737 
0.060679 -0.08121 0.069722 -0.020212 0.026481 0.025824 0.019247 0.11083 
-0.023994 0.14897 -0.031886 0.09274 0.061666 0.070873 0.060679 0.11674 
-0.095843 0.2736 -0.11886 0.15735 0.082875 0.097672 0.06183 0.093726 
-0.099295 0.27162 -0.17197 0.1105 0.06183 0.068407 0.061008 0.058213 
-0.029091 0.089616 -0.086471 0.036346 0.021878 0.015959 0.022535 -0.0027845 
0.066763 -0.071016 -0.0047575 -0.012649 -0.0039354 -0.010183 -0.022021 -0.0965 
0.10721 -0.16786 0.11313 -0.063289 -0.0080457 -0.014787 -0.031557 -0.14319 
0.098659 -0.15322 0.40348 -0.068879 -0.016431 -0.0019624 -0.021199 -0.041257 
0.069393 -0.14106 0.55852 -0.033859 -0.020706 -0.0011404 0.015794 0.099152 
0.040128 -0.021856 0.46596 0.016123 0.01974 0.01563 0.05213 0.13697 
0.0069159 0.1174 0.065776 0.056569 0.057391 0.046868 0.081231 0.1516 
-0.034188 0.22592 -0.26042 0.092247 0.068571 0.072024 0.12694 0.19024 
-0.043395 0.23134 -0.41004 0.13417 0.027796 0.05772 0.12299 0.17462 
-0.014787 0.16837 -0.42007 0.10754 0.018754 0.020891 0.10491 0.11329 
0.020233 0.10244 -0.38685 0.070708 0.031249 -0.001798 0.016945 -0.012649 
0.047197 0.072846 -0.28755 0.052952 0.014643 -0.0039354 -0.013636 -0.076277 
0.077285 0.048348 0.011684 -0.029913 -0.023994 -0.015116 -0.0052507 -0.082525 
0.075312 -0.096172 0.27327 0.01563 -0.0032777 0.0042853 -0.015938 -0.05178 
0.06594 -0.20386 0.21506 0.054267 -0.013965 -0.011663 0.0085601 -0.017417 
0.050979 -0.17197 0.091425 0.10672 0.0075736 0.013328 0.026317 0.032729 
0.058377 -0.08269 0.10836 0.071202 0.013164 0.030756 0.0083956 0.061995 
0.034866 0.044402 0.26833 -0.011663 -0.015773 0.035524 0.046211 0.026152 
0.018918 0.14141 0.44935 0.0044497 -0.02646 0.011355 0.034866 0.02681 
-0.0070593 0.22164 0.38556 0.02829 -0.011827 0.011684 0.020398 0.03388 
-0.021199 0.25567 0.16459 0.078765 0.00066819 0.0052718 0.016616 0.069393 
-0.018239 0.18744 -0.026296 0.12168 -0.021692 0.010862 0.026317 0.066598 
-0.010348 0.13187 -0.13267 0.14223 0.016452 0.023686 0.036017 0.047691 
0.0085601 0.1368 -0.25187 0.14223 0.045224 0.068407 0.048513 0.028454 
0.0092177 0.22361 -0.44177 0.12644 0.11559 0.085999 0.047691 0.05624 
0.025659 0.23644 -0.39179 0.095699 0.10967 0.10967 0.051472 0.05213 
0.076792 -0.0060728 -0.17936 0.050814 0.091096 0.10162 0.063639 0.063474 
0.11674 -0.2887 0.070051 0.022535 0.046211 0.06594 0.063145 0.024344 
0.11642 -0.26502 0.23134 0.019083 -0.0013048 0.021878 0.027303 0.035524 
0.066927 -0.11212 0.22953 0.087479 -0.011992 -0.0014692 0.016452 0.016123 
0.036017 0.01826 0.22887 0.052459 -0.024816 -0.0039354 -0.023994 0.056898 
0.034702 0.051636 0.2565 0.059035 -0.0011404 -0.011827 -0.011334 0.05476 
0.047362 0.05213 0.19501 0.075805 -0.00031829 0.0064227 0.0083956 0.058377 
0.046704 0.037332 0.097015 0.041443 0.01563 0.004943 -0.0087034 0.055418 
0.047855 0.037497 0.11247 0.060679 0.032071 0.009711 0.010697 0.052952 
0.0093821 0.03536 0.24992 0.080244 0.023851 0.031907 0.044402 0.055254 
-0.020377 0.085506 0.32292 0.064132 0.021878 0.031907 0.088958 0.11526 
-0.034845 0.16294 0.33936 0.046704 0.0324 0.064132 0.10869 0.12135 
-0.034352 0.12529 0.27507 0.06742 0.041936 0.056898 0.088794 0.11658 
-0.017911 0.03092 0.11083 0.099974 0.03092 0.030098 0.050321 0.085341 
0.017438 -0.0083746 0.081889 0.095864 0.043087 0.031085 0.025659 0.028619 
0.05476 -0.043724 0.092411 0.05624 0.039634 -0.0004827 0.027303 -0.015444 
0.060679 -0.008539 -0.065755 0.070708 0.052787 0.031907 0.027303 -0.03764 
0.052294 0.12135 -0.32783 0.080244 0.061172 0.019247 0.011026 -0.034681 
0.03388 0.22739 -0.51362 0.13598 0.068736 0.030098 0.0067515 -0.016924 
0.017603 0.32045 -0.49027 0.18909 0.076134 0.044896 0.035688 0.011191 
-0.008539 0.30763 -0.29528 0.18646 0.070544 0.056076 0.0592 0.036182 
0.013821 0.17988 -0.047176 0.034044 0.039141 0.047855 0.047033 0.020891 
0.063145 -0.060823 0.14486 -0.093376 -0.0044286 0.018754 0.019083 0.0044497 
0.1299 -0.17887 0.20372 -0.098802 -0.030735 -0.035832 0.0047785 -0.010841 
0.14552 -0.17953 0.19698 -0.079072 -0.021199 -0.069701 -0.027775 -0.011827 
0.091425 -0.079237 0.38293 -0.030406 0.016288 -0.02235 0.015137 -0.020541 
0.059364 0.027303 0.40036 -0.025802 0.033222 0.032236 -0.0047575 -0.020706 
0.03536 0.11033 0.17824 0.081889 0.041278 0.019083 0.014643 -0.0072237 
0.038977 0.034044 -0.03057 0.083533 0.052623 0.0059294 0.0074092 -0.0022913 
0.041936 0.018754 -0.11722 0.035031 0.049992 0.0036276 0.034702 0.022371 
0.028619 0.095699 -0.13481 0.011684 0.037661 -0.0004827 0.03536 0.017767 
0.037497 0.15587 -0.10505 -0.018075 0.018425 0.015794 0.028125 -0.013965 
0.03388 0.15374 -0.03353 -0.0095255 0.061008 0.031907 0.021549 0.033058 
0.0074092 0.10869 0.0062583 0.028947 0.074326 0.044073 0.050321 0.055089 
0.0054362 0.059364 -0.10916 0.030756 0.077121 0.065776 0.040621 0.056076 
-0.011827 0.1026 -0.1912 0.022535 0.093562 0.067749 0.051143 0.051143 
-0.0096899 0.10754 -0.26963 0.070051 0.10491 0.060515 0.044731 0.031907 
0.038977 -0.026296 -0.28031 0.10918 0.063968 0.02533 0.016781 0.024673 
0.062981 -0.14007 -0.2203 0.078436 0.041114 -0.0022913 -0.014458 0.0062583 
0.042429 -0.06855 -0.18726 0.071202 0.045389 0.0059294 0.016945 0.029769 
-0.0082102 0.095371 -0.11048 0.067913 0.051143 0.021384 0.039305 0.010369 
-0.018075 0.15883 0.014643 0.004943 0.027139 0.024015 0.029112 0.045718 
-0.010019 0.12579 0.17774 -0.098967 -0.020706 -0.015938 0.0090533 0.00033937 
0.020727 0.027961 0.29513 -0.15026 -0.030899 -0.024323 -0.0049219 0.00297 
0.053938 -0.053917 0.31897 -0.14155 -0.01117 -0.024323 -0.021692 -0.0054151 
0.066434 -0.12757 0.48388 -0.18676 -0.017253 -0.01117 0.0036276 -0.0064016 
0.067256 -0.037805 0.46037 -0.20764 -0.045532 -0.026296 -0.014129 -0.048327 
0.069722 0.084684 0.305 -0.11097 -0.046025 -0.0406 -0.036489 -0.03501 
0.049664 0.16755 0.067585 -0.012485 -0.01117 -0.017746 -0.021528 -0.03353 
-0.032872 0.2218 -0.28755 0.04654 0.026646 -0.004593 -0.0057439 0.01563 
0.011191 0.17774 -0.32586 0.00297 0.036346 0.028125 0.051308 0.037004 
-0.00015387 0.1026 -0.19071 0.057227 0.055418 0.075148 0.083862 0.093726 
-0.01939 0.0088889 -0.084334 0.082382 0.064461 0.064625 0.074326 0.12349 
0.011355 -0.039284 -0.0503 0.048513 0.059528 0.06035 0.073832 0.10211 
0.0036276 -0.019719 -0.011827 0.044731 0.037661 0.031907 0.03947 0.08715 
-0.027775 0.11461 0.053445 0.036839 0.039634 0.030592 0.035688 0.07449 
-0.07003 0.28527 0.020398 0.032236 0.032071 0.026152 0.0074092 0.038648 
-0.058192 0.305 0.019083 -0.018733 0.021878 0.016945 0.016452 0.046375 
-0.0029489 0.12776 0.066598 -0.058028 -0.0082102 0.00083261 -0.0072237 -0.0032777 
0.048677 -0.093048 0.11921 -0.09239 -0.029091 -0.02235 0.0019835 0.0024767 
0.063803 -0.18907 0.07597 -0.074633 -0.0098543 -0.0029489 0.024344 0.01415 
0.081724 -0.18249 0.12529 -0.0406 0.024344 0.0421 0.00297 -0.019555 
0.12069 -0.18084 0.20405 -0.11886 0.049992 0.059528 -0.026624 -0.12494 
0.14469 -0.1501 0.10951 -0.13251 0.071695 0.045882 -0.04619 -0.15092 
0.095042 -0.065097 -0.035667 -0.012649 0.059364 0.050979 1.0539e-005 -0.06296 
0.049828 0.080738 0.017438 0.032236 0.037497 0.06479 0.055089 0.063474 
-0.0087034 0.15587 -0.043395 0.083697 0.031085 0.060679 0.079094 0.13927 
0.0056006 0.10244 -0.07003 0.038483 0.00297 0.028125 0.061172 0.14141 
0.019083 0.015301 -0.020706 0.02681 -0.029913 -0.022185 0.021713 0.13746 
0.031414 0.044731 -0.029748 -0.011992 -0.021363 -0.010676 -0.004593 0.11247 
-0.014293 0.15259 -0.06855 0.032893 0.0069159 0.033387 0.019576 0.08978 
-0.042244 0.21737 0.14239 0.082711 0.024015 0.032564 0.0080668 0.069558 
-0.057699 0.20125 0.27064 0.086985 0.037497 0.036675 0.024344 0.075148 
-0.0057439 0.0016547 0.20372 0.080573 -0.010512 0.0036276 0.0011614 0.051308 
0.062159 -0.19137 0.10672 0.066927 -0.040271 -0.017253 -0.00064712 0.031578 
0.082546 -0.20337 0.0047785 0.049992 -0.017253 0.010533 0.016123 0.027468 
0.077285 -0.038791 -0.034845 -0.069208 0.027139 0.02681 0.016616 0.044238 
0.05476 0.076627 -0.024652 -0.14599 0.054925 0.036346 0.025659 0.0067515 
0.046046 0.1567 -0.13958 -0.087129 0.071531 0.049828 0.01267 -0.0078813 
0.040621 0.090438 -0.25615 0.021549 0.09126 0.079258 0.064132 -0.03616 
0.018589 0.038319 -0.26634 0.16146 0.1003 0.096028 0.074161 -0.012156 
0.031907 0.035524 -0.20584 0.18481 0.085177 0.067749 0.043416 -0.045861 
0.037826 0.031907 -0.16407 0.21934 0.045224 0.056569 0.028125 -0.052109 
0.026974 -0.0044286 -0.056548 0.21128 0.039634 0.042429 0.034373 -0.051122 
0.030592 -0.030406 0.03536 0.20767 0.0227 0.025824 0.035524 0.0047785 
0.0046141 -0.016431 -0.043559 0.19369 -0.016924 0.019247 0.024508 0.005765 
0.033058 0.062323 0.25321 0.090931 -0.038956 -0.02087 0.0047785 0.062652 
0.036839 0.04654 0.85069 -0.07562 -0.040271 0.0031344 0.053116 0.1756 
0.051965 -0.010019 1.1266 -0.22918 -0.024323 -0.0044286 0.07449 0.2491 
0.12464 -0.14352 0.82784 -0.25911 -0.0059084 -0.0044286 0.056898 0.2098 
0.12579 -0.16901 0.14371 -0.1718 0.031578 0.014643 0.041443 0.18695 
0.065612 -0.046025 -0.24661 -0.03764 0.054432 0.051472 0.014808 0.099152 
0.009711 0.11395 -0.4416 0.061337 0.071037 0.072681 0.026481 0.072517 
-0.025967 0.25173 -0.74248 0.10178 0.063803 0.076956 0.03651 0.058049 
-0.019719 0.25354 -0.77816 0.13351 0.05213 0.040456 0.027796 -0.033365 
-0.00081153 0.19155 -0.59122 0.21753 0.045389 0.021056 -0.015938 -0.19383 
0.0064227 0.13187 -0.2984 0.20651 0.020398 -0.0087034 -0.055397 -0.23609 
0.024508 0.13828 -0.058192 0.16196 0.011026 -0.0029489 -0.05326 -0.19416 
0.026481 0.11477 0.22674 0.1077 0.066269 0.0085601 -0.060658 -0.10324 
0.056898 -0.01939 0.4847 0.10047 0.062652 0.032893 -0.033859 -0.01939 
0.017274 -0.15454 0.51052 0.044073 0.057227 0.071366 0.0083956 0.13171 
-0.031064 -0.16391 0.42075 0.0024767 0.084355 0.079751 0.084684 0.25354 
-0.028269 -0.095349 0.38967 -0.028104 0.077614 0.076627 0.13565 0.26061 
0.035524 -0.05737 0.53649 -0.12955 0.038812 0.047855 0.079751 0.14617 
0.10178 -0.048327 0.59174 -0.15273 0.007738 -0.0024557 0.062652 0.040785 
0.088301 0.027796 0.19172 -0.074633 0.038812 0.020398 0.015959 -0.022843 
0.065612 0.13319 -0.13448 -0.013471 0.0083956 -0.0042642 -0.0072237 -0.070194 
0.041936 0.2297 -0.20419 0.014315 0.009711 -0.0057439 -0.017911 -0.069865 
0.020069 0.18876 -0.14106 0.062323 0.012835 -0.03057 -0.0034422 -0.017088 
-0.01117 0.15061 0.0026412 0.10935 0.030756 -0.0095255 0.036017 0.034373 
-0.02794 0.1373 0.18037 0.075148 0.038483 0.044567 0.048841 0.035688 
-0.018239 0.17117 0.12825 0.052952 0.058049 0.035195 0.06035 0.075641 
0.027303 0.13154 -0.1741 0.086821 0.057391 0.017274 0.053116 0.046868 
0.025495 0.06331 -0.45048 0.090767 0.021713 -0.00097594 0.033715 0.054925 
0.036017 0.097672 -0.48041 0.054925 0.0075736 -0.00064712 0.046375 0.031907 
0.036017 0.090603 0.086163 -0.066741 0.0032988 0.0023123 0.005765 0.0021479 
0.093891 -0.09091 0.82373 -0.16983 -0.017746 -0.042901 -0.014293 -0.03764 
0.12464 -0.25352 1.0051 -0.23707 -0.031721 -0.031721 -0.0082102 -0.031721 
0.10902 -0.28656 0.49818 -0.10373 0.037004 0.017932 0.017274 -0.029584 
0.078107 -0.17739 -0.084498 0.042265 0.065283 0.028783 0.085999 0.012013 
0.0075736 0.08715 -0.42845 0.12513 0.06035 0.061995 0.060679 0.070215 
-0.033201 0.24482 -0.52085 0.1368 0.037332 0.065447 0.061501 0.13943 
-0.06444 0.27129 -0.42894 0.1927 0.038483 0.035195 0.042923 0.092904 
-0.043724 0.27935 -0.36318 0.26998 0.038319 0.007738 0.0098754 0.047033 
-0.064933 0.29431 -0.32652 0.23512 0.021878 -0.0013048 0.013821 -0.0059084 
-0.022679 0.24515 -0.20041 0.086657 0.035524 0.014643 0.005765 -0.00064712 
0.0034632 0.11165 -0.11228 0.00066819 0.037004 0.023522 0.038648 -0.024652 
0.035853 -0.018897 -0.03501 0.044402 0.088136 0.053774 0.061995 -0.046354 
0.075641 -0.045039 0.019247 0.13631 0.07449 0.085506 0.083204 -0.11557 
0.094055 -0.072989 0.17758 0.028619 0.051801 0.044731 0.050814 -0.16161 
0.088136 -0.031886 0.43587 -0.024487 -0.041751 0.013492 0.038977 -0.13793 
0.076792 -0.047176 0.51348 -0.078086 -0.045532 -0.0073881 0.047526 -0.0042642 
0.080244 -0.086142 0.40266 -0.074633 -0.052931 -0.025967 0.057391 0.072517 
0.071531 -0.071016 0.37816 -0.0091966 -0.035667 -0.041915 0.060515 0.14749 
0.073668 -0.014129 0.3387 -0.025967 -0.028104 -0.030735 0.06479 0.16525 
0.050486 0.09422 0.18942 0.023522 -0.019061 0.0036276 0.043087 0.11231 
0.034702 0.19303 -0.19087 0.1151 0.01974 0.019411 0.023357 0.053774 
0.018589 0.18514 -0.47367 0.2121 0.051308 0.015959 0.019411 0.025659 
0.0088889 0.12283 -0.44292 0.19944 0.060515 0.027796 0.054432 0.030263 
0.018754 0.04917 -0.24529 0.15538 0.066269 0.031907 0.085835 0.044731 
0.0069159 -0.028926 -0.1039 0.15867 0.066927 0.063968 0.076463 0.079751 
0.00033937 0.025659 -0.17197 0.17396 0.08978 0.07301 0.088465 0.10145 
-0.025638 0.12842 -0.36252 0.1858 0.082875 0.057555 0.080409 0.056569 
-0.020212 0.2195 -0.37025 0.19336 0.073997 0.04506 0.057555 0.023851 
-0.0042642 0.24663 -0.26782 0.18415 0.053774 0.044731 0.064625 0.019576 
0.020891 0.17248 0.005765 0.12135 0.054267 0.056569 0.05476 0.06742 
0.020891 0.020233 0.10113 0.085999 0.023357 0.034044 0.090603 0.12825 
-0.01117 0.018754 0.022371 0.11132 -0.010348 0.0013258 0.027139 0.098823 
-0.001798 0.12036 -0.051615 0.050157 -0.024158 0.06183 0.055747 0.096521 
0.037168 0.056076 -0.017253 0.018425 0.014972 0.0227 0.03388 0.025495 
0.12381 -0.056548 0.21326 -0.051287 0.00033937 -0.0049219 0.019083 0.007738 
0.13647 -0.090253 0.46908 -0.10308 -0.010676 -0.026953 -0.012649 -0.03616 
0.14552 -0.12001 0.71554 -0.15125 -0.039778 -0.039449 -0.028104 -0.021528 
0.13615 -0.12478 0.68874 -0.16309 -0.044052 -0.037476 -0.020048 -0.034681 
0.091753 -0.038298 0.12069 -0.024652 0.0036276 -0.00031829 0.010862 0.011191 
-0.025309 0.15226 -0.48024 0.13023 0.09422 0.10819 0.040621 0.077285 
-0.10094 0.29283 -0.56952 0.19994 0.13943 0.11 0.068242 0.12118 
-0.10867 0.36961 -0.38981 0.20619 0.11346 0.089616 0.058377 0.089616 
-0.067892 0.29809 -0.17476 0.15604 0.067749 0.056733 0.076792 0.10408 
0.044731 0.056076 0.15604 0.1322 0.086657 0.072353 0.065118 0.067256 
0.15768 -0.28475 0.53205 -0.012485 0.057062 0.06035 0.031742 0.028947 
0.15374 -0.37222 0.6261 -0.094856 0.0098754 0.01974 0.0069159 0.011684 
0.084355 -0.13185 0.41598 -0.11508 -0.0068948 -0.00031829 -0.012649 0.03388 
0.0037921 0.11132 0.3244 -0.097158 -0.020048 -0.020048 -0.0049219 0.031907 
-0.027775 0.19517 0.16771 -0.051287 -0.030735 -0.021528 -0.019884 0.037826 
-0.036325 0.21523 -0.15783 -0.083018 -0.0096899 0.0051074 -0.016266 0.026152 
-0.052437 0.22361 -0.37732 -0.018568 0.011191 0.014479 0.027139 0.065447 
-0.054739 0.20191 -0.39656 0.019905 0.022042 0.011355 0.016288 0.082711 
-0.013965 0.075805 -0.37929 0.10918 0.025988 0.011355 -0.031557 0.07038 
0.04095 -0.031721 -0.31205 0.16985 0.0070803 -0.014129 -0.062631 0.0021479 
0.092576 -0.052437 -0.17936 0.11 -0.04471 -0.011827 -0.078415 -0.025309 
0.09422 -0.0771 -0.14665 0.036182 -0.029091 -0.015938 -0.066084 -0.06 
0.087479 -0.089924 -0.20057 -0.013307 0.028783 0.026481 -0.010676 -0.032872 
0.085177 -0.066084 -0.14878 0.0054362 0.044073 0.027139 0.013492 0.01826 
0.067749 -0.080223 0.041936 -0.053424 0.016288 0.047691 0.031907 0.050486 
0.053938 -0.049642 0.26258 -0.12494 0.027961 0.055089 0.023522 0.057227 
0.043909 -0.011663 0.42453 -0.18808 0.074983 0.059035 0.030592 0.056569 
0.08419 -0.016266 0.52614 -0.18528 0.056898 0.046375 0.019247 -0.0031133 
0.085012 -0.096007 0.52005 -0.060658 0.02681 0.028454 0.036182 0.0065871 
0.064954 -0.11409 0.38852 0.0074092 0.024015 0.025166 0.046211 0.023193 
0.022206 -0.11048 0.26011 0.03651 0.012342 0.020562 0.044073 0.041278 
0.021549 -0.054246 0.21079 0.027961 0.016452 0.0067515 0.032729 0.043416 
0.019905 0.038812 0.11395 -0.011005 0.018589 -0.0022913 0.00033937 0.013821 
0.03799 0.11494 0.18333 -0.048985 0.01974 0.013657 0.016945 -0.0014692 
0.059693 0.1932 0.20717 -0.066906 0.033058 0.020233 0.053281 0.012177 
0.030263 0.25107 0.11872 -0.065426 0.025001 0.016123 -0.025967 -0.0088678 
0.027796 0.18119 0.02533 0.011684 0.053774 0.075312 0.0026412 0.00066819 
0.048184 0.12973 -0.17098 0.037497 0.040785 0.021384 -0.0034422 0.022371 
0.064132 0.0070803 -0.364 0.16771 0.052952 0.041443 0.034866 0.041607 
0.031742 -0.072332 -0.39688 0.16179 0.038977 0.029276 0.029276 0.061666 
-0.029584 0.05772 -0.33622 0.1174 0.043251 0.0324 0.030263 0.048677 
-0.051944 0.18777 -0.085813 0.025166 0.024344 0.040621 0.015959 0.036182 
-0.0054151 0.13746 0.041772 0.0014903 0.014808 0.0051074 0.01152 -0.023501 
0.084848 -0.052931 -0.16391 0.051636 -0.0098543 -0.0021268 0.0227 -0.012485 
0.083368 -0.14582 -0.27851 0.12118 -0.0021268 0.015137 0.0041209 -0.014951 
0.00083261 -0.025474 -0.11245 0.12825 0.0026412 0.030098 0.014972 0.00050378 
-0.024323 0.16969 0.16936 -0.038956 -0.013965 0.0069159 0.01152 -0.0016336 
-0.006566 0.21441 0.3466 -0.15454 -0.0050863 0.0069159 0.045553 0.039634 
0.03536 0.11707 0.24038 -0.19811 0.0227 0.023851 0.087314 0.064296 
0.048841 0.033058 0.10754 -0.13448 0.076134 0.058377 0.068242 0.12151 
0.063639 -0.070687 0.016452 0.0019835 0.10836 0.083533 0.054596 0.084519 
0.042923 -0.10669 -0.015938 0.090109 0.0786 0.050486 0.041607 0.073832 
0.015959 -0.089102 -0.018568 0.14305 0.030098 -0.00081153 0.037826 0.038812 
-0.015444 -0.081703 -0.00081153 0.08715 0.026974 -0.0044286 0.026646 0.047855 
-0.018733 -0.015773 0.13779 0.022864 0.01974 0.035031 0.025166 0.022864 
-0.036818 0.059693 0.42403 -0.042737 0.024508 0.045882 0.039141 0.028454 
-0.035832 0.097344 0.74185 -0.14073 0.017932 0.020233 0.037661 -0.021528 
-0.0049219 0.072353 0.90856 -0.15914 0.01563 0.0026412 0.038812 -0.052931 
-0.010512 0.12595 0.6871 -0.03912 0.042923 0.013986 0.045553 -0.045203 
-0.016924 0.19583 0.10211 0.10228 0.056898 0.048513 0.047362 0.0013258 
-0.046025 0.2662 -0.61884 0.18366 0.08567 0.072353 0.053445 0.024673 
-0.012156 0.25781 -0.98877 0.23792 0.091753 0.066269 0.053609 0.055747 
0.020398 0.15209 -0.71963 0.24614 0.063968 0.042923 0.061008 0.083533 
0.061008 -0.01232 -0.28081 0.16525 0.0093821 -0.0070593 0.05213 0.081724 
0.096521 -0.098967 -0.14188 0.11724 -0.013307 0.014808 0.021384 0.031742 
0.091918 -0.038133 -0.15536 0.070708 -0.017417 -0.0021268 0.0034632 0.048677 
0.077614 0.023028 -0.20879 0.011684 -0.041093 -0.021363 0.010204 0.04506 
0.11083 0.093726 -0.10094 -0.15289 -0.070194 -0.066248 0.018096 0.030098 
0.13286 0.14782 0.1756 -0.23658 -0.094363 -0.070852 0.016616 -0.025802 
0.13697 0.078436 0.48553 -0.17394 -0.045696 -0.045532 -0.010019 -0.074633 
0.084355 0.038812 0.34923 -0.049149 0.016123 0.0067515 0.013821 -0.084827 
0.01826 0.10524 -0.009361 0.061337 0.063968 0.041443 0.055418 -0.047998 
-0.023994 0.095864 -0.27061 0.10573 0.067091 0.048677 0.086328 0.0051074 
-0.018404 0.052952 -0.30876 0.13861 0.057227 0.036017 0.069393 0.014643 
0.0042853 -0.012485 -0.15289 0.15604 0.033715 0.013164 0.0016547 -0.041093 
0.00297 -0.0042642 0.22674 0.11855 0.0080668 -0.055232 -0.072332 -0.1136 
0.013986 -0.011992 0.55688 0.11543 -0.03912 -0.055232 -0.11064 -0.041422 
-0.023336 0.049335 0.4505 0.072188 -0.072496 -0.043395 -0.078415 0.059693 
-0.022679 0.21556 0.26916 0.0062583 0.023028 0.021878 -0.038791 0.12168 
-0.023172 0.31585 0.11822 0.035853 0.14585 0.11658 0.054432 0.1733 
-0.07003 0.25683 0.048513 0.0019835 0.18087 0.16985 0.13664 0.19731 
-0.029091 0.068407 0.097508 -0.079895 0.15324 0.12973 0.14535 0.17412 
0.039799 -0.1427 0.10787 -0.07414 0.080244 0.065118 0.12644 0.12579 
0.13713 -0.28969 0.01974 0.031742 0.037004 0.01711 0.069886 -0.0073881 
0.18646 -0.33605 -0.14566 0.034866 -0.022514 -0.0080457 0.016288 -0.074633 
0.15489 -0.17394 -0.24266 0.049828 -0.027611 -0.025967 -0.018733 -0.078086 
0.069558 0.08715 -0.182 0.05772 0.00066819 0.0023123 0.025824 0.030756 
0.029769 0.20438 0.11115 0.0092177 0.023686 0.02681 0.051965 0.069229 
0.048677 0.089287 0.32539 0.03388 0.040456 0.038648 0.054267 0.10573 
0.042594 -0.009361 0.026152 0.08863 0.027303 0.034044 0.038483 0.073175 
0.0092177 0.029605 -0.2647 0.08978 0.02681 0.033715 0.028783 0.086985 
-0.02087 0.086492 -0.041422 0.019083 0.045882 0.042758 0.037168 0.071695 
-0.045039 0.072681 0.43834 -0.0077169 0.0689 0.049499 0.051636 0.095864 
0.0075736 -0.020706 0.83441 0.038648 0.069558 0.038648 0.04358 0.043251 
0.062488 -0.13349 0.71357 0.042265 0.052294 0.040292 0.0016547 -0.063782 
0.050814 -0.1039 0.10819 0.089287 0.047033 0.028125 -0.00064712 -0.17016 
0.054103 -0.026624 -0.38126 0.12661 0.019905 0.009711 -0.003771 -0.063124 
0.037826 0.02829 -0.46133 0.13516 0.012177 -0.00097594 0.016452 0.050979 
0.020233 0.13368 -0.267 0.097508 0.012835 -0.009361 0.00050378 0.11609 
0.021384 0.19665 -0.35496 0.063145 -0.017746 0.0041209 -0.0098543 0.10113 
0.014808 0.27639 -0.97118 0.1391 -0.011663 -0.0013048 -0.0014692 0.14157 
-0.0064016 0.23479 -1.2199 0.14272 0.024015 0.013986 0.015794 0.15489 
-0.015116 0.13861 -0.67458 0.10885 0.058049 0.037332 0.043251 0.15834 
0.00099702 0.079916 0.22 0.022535 0.052294 0.054925 0.071202 0.10047 
0.032564 0.017767 0.92764 -0.10669 0.039799 0.057227 0.048184 0.044896 
0.087643 -0.10916 0.99439 -0.17427 0.029934 0.046868 0.034209 -0.061809 
0.11181 -0.25253 0.76634 -0.14517 0.049006 0.033222 0.0088889 -0.1524 
0.10162 -0.1935 0.44393 -0.065919 0.03799 0.026152 0.0065871 -0.15372 
0.065776 -0.042408 0.25913 -0.034023 0.066598 0.027796 0.011191 -0.079401 
0.035031 0.035524 0.23874 0.048348 0.049006 0.033058 -0.017253 -0.024816 
-0.019555 0.12727 0.23479 0.087643 0.043745 0.030427 0.0031344 0.034209 
-0.02498 0.21802 0.055747 0.053281 0.018096 -0.008539 0.0074092 0.055747 
0.014643 0.17676 -0.38735 0.06479 0.0019835 -0.012485 0.035524 0.076299 
0.052623 0.10754 -0.69151 0.074161 0.0060938 -0.024487 0.029934 0.039141 
0.031578 0.13582 -0.58727 0.1031 0.020069 0.02829 0.047362 0.040621 
0.020562 0.15045 -0.34082 0.11231 0.050814 0.056733 0.06479 0.055254 
0.027632 0.0093821 0.027796 0.096028 0.036675 0.036017 0.052952 0.041443 
0.057555 -0.045039 0.036182 0.076627 0.034866 0.055254 0.026317 0.0421 
0.033058 -0.00064712 -0.056548 -0.053588 -0.014129 -0.0062372 0.03651 0.035688 
0.023686 -0.015444 0.0062583 -0.11672 -0.033694 -0.0022913 0.016781 0.033715 
0.041607 -0.090581 0.14404 -0.084827 -0.052931 -0.016431 0.0062583 0.0095465 
0.040621 -0.038133 0.31864 0.0051074 -0.0052507 -0.0044286 -0.01232 -0.0031133 
0.0021479 0.029605 0.35383 0.070544 0.021713 0.013821 -0.0021268 -0.0078813 
0.013328 0.051472 0.22559 0.12677 0.064625 0.055747 0.019247 -0.02498 
0.037826 0.016781 0.11839 0.11872 0.031578 0.080902 0.064625 -0.029748 
0.040785 0.093398 0.086985 -0.037147 -0.009361 0.023028 0.063145 0.016781 
0.039799 0.15061 -0.00081153 -0.10225 -0.037476 -0.025145 0.068571 0.011684 
0.0421 0.089452 -0.16424 -0.11376 -0.04471 -0.042573 0.04358 0.024837 
0.044073 -0.013471 -0.2522 -0.034845 -0.042408 -0.03353 0.017603 0.012342 
0.040785 0.072681 -0.039778 -0.00015387 -0.025474 0.0083956 -0.0027845 0.031249 
0.032071 0.16607 0.44985 -0.011663 0.00033937 0.0087245 -0.0059084 -0.011005 
0.046046 0.16048 0.65915 -0.03764 0.019247 0.0014903 -0.036983 -0.0070593 
0.072024 0.06331 0.3461 -0.048327 0.034866 0.014315 0.004943 -0.03353 
0.03947 0.05772 -0.065919 0.033715 0.025001 0.035195 0.037497 0.037004 
-0.0072237 0.18317 -0.38439 0.12398 0.040128 0.049664 0.044731 0.09685 
-0.041586 0.40578 -0.64729 0.21819 0.071037 0.055418 0.058706 0.15259 
-0.073976 0.52646 -0.75596 0.27524 0.092082 0.058213 0.058049 0.13105 
-0.11508 0.47319 -0.62131 0.22608 0.086657 0.063474 0.078436 0.1493 
-0.10784 0.34068 -0.1843 0.13072 0.028947 0.04095 0.084519 0.16492 
-0.043395 0.071859 0.35219 -0.069043 0.020069 0.037332 0.063474 0.15176 
0.043087 -0.22162 0.60949 -0.12149 0.027139 0.031085 0.077449 0.094384 
0.085341 -0.50063 0.56033 -0.023829 0.054596 0.033222 0.079422 0.082053 
0.14897 -0.61786 0.54027 -0.018239 0.040456 0.023522 0.085506 -0.0059084 
0.17445 -0.61292 0.73576 -0.084498 0.007738 0.01563 0.041772 -0.051451 
0.15637 -0.47268 1.0731 -0.13645 0.00297 0.024344 0.023522 -0.067235 
0.097344 -0.27703 1.1452 -0.15191 -0.018897 0.0023123 -0.0031133 -0.13251 
0.088465 0.07038 0.98074 -0.18528 -0.038298 -0.025638 -0.021528 -0.1815 
0.061501 0.43439 0.11707 -0.11935 0.012999 -0.0057439 -0.03353 -0.16934 
0.01826 0.53205 -0.75826 0.062488 0.088794 0.039799 0.030592 -0.028433 
0.0042853 0.30566 -0.95178 0.1544 0.12365 0.095699 0.093398 0.11691 
0.016945 0.064625 -0.73492 0.19451 0.10672 0.089452 0.099316 0.16952 
0.00066819 0.014479 -0.63495 0.20306 0.046868 0.038483 0.085835 0.19418 
-0.056055 0.10819 -0.6172 0.20635 -0.023172 -0.023336 0.039963 0.18251 
-0.02235 0.11494 -0.46643 0.1807 -0.031228 -0.029913 0.0098754 0.14272 
0.012999 0.07301 -0.39097 0.17889 -0.012978 -0.014622 -0.017417 0.057062 
0.01267 0.13417 -0.24464 0.24548 0.0023123 -0.0054151 -0.021363 0.0079024 
-0.0088678 0.10178 0.18695 0.27261 0.0421 0.017438 0.035031 0.023522 
-0.0057439 -0.031886 0.68052 0.13351 0.074819 0.051308 0.059693 0.012177 
0.032893 -0.17427 1.0388 -0.10686 0.089945 0.081724 0.060022 0.013657 
0.071366 -0.21258 0.90725 -0.24053 0.066105 0.078272 0.043251 -0.019226 
0.056898 -0.21981 0.76207 -0.1552 0.049664 0.036182 0.016616 -0.038462 
0.079916 -0.11787 0.14354 -0.065426 0.044567 0.019905 0.0324 -0.036818 
0.074326 0.051472 -0.3132 -0.036654 0.049992 0.034702 0.034537 1.0539e-005 
0.056569 0.12908 -0.43207 -0.053424 0.038319 0.029605 0.019247 -0.0062372 
0.025824 0.11066 -0.44719 0.013986 0.024015 0.028454 0.0034632 0.034209 
-0.0031133 0.12069 -0.37222 0.10688 0.022371 0.021713 0.031249 0.034209 
0.010369 0.11921 -0.16259 0.11888 0.035688 0.014808 0.0041209 0.025988 
0.0026412 0.14124 0.058706 0.11444 0.0032988 0.0083956 -0.032543 -0.019061 
-0.0050863 0.20553 0.062488 0.10819 -0.0034422 -0.00097594 -0.04471 -0.016595 
-0.023665 0.25946 -0.018733 0.083697 0.021384 0.017603 -0.012156 0.025988 
0.031578 0.062488 -0.010676 0.010697 0.048184 0.029605 0.016452 0.048348 
0.11362 -0.18775 0.11477 -0.080717 0.027139 0.0075736 0.038648 0.025659 
0.13269 -0.24595 0.12694 -0.019061 0.024837 -0.012485 0.029769 0.022864 
0.081067 -0.13629 -0.21817 0.10293 0.035195 0.020069 0.03947 0.0093821 
0.02681 -0.015116 -0.54765 0.21901 0.048019 0.027796 0.048677 0.04506 
-0.023336 0.13993 -0.36269 0.17626 0.066434 0.031414 0.046868 0.072024 
-0.074962 0.27721 -0.091897 0.06594 0.041772 0.04506 0.05213 0.12513 
-0.071181 0.34824 -0.037311 -0.048492 0.01974 0.024508 0.055089 0.040785 
-0.010019 0.3073 -0.21011 -0.016595 0.062159 0.066763 0.045224 -0.031064 
0.074654 0.19764 -0.37962 0.071859 0.11148 0.071695 0.056569 -0.051287 
0.13056 0.1276 -0.25171 0.065776 0.091589 0.064461 0.054267 -0.0062372 
0.074819 0.072353 0.0060938 0.066763 0.085835 0.04654 0.040456 0.036017 
0.027303 0.075476 0.13434 0.050979 0.059857 0.041772 0.032893 0.074819 
-0.041257 0.077943 -0.0016336 0.051965 0.036017 0.068407 0.056898 0.078436 
-0.047998 0.10491 -0.049971 0.079422 0.027961 0.025988 0.063474 0.097015 
-0.02087 -0.00097594 0.18004 0.098166 -0.040764 -0.022679 0.047526 0.16031 
-0.008539 -0.011663 0.38507 0.12546 -0.056383 -0.054246 0.052623 0.2588 
0.00017495 0.057884 0.58072 -0.04619 -0.039613 -0.044217 0.052787 0.26505 
0.04095 -0.021363 0.78657 -0.20732 -0.015938 0.00297 0.031249 0.17824 
0.094384 -0.15668 0.65734 -0.21603 0.022042 0.024015 0.028783 0.097344 
0.10047 -0.10801 0.48372 -0.21866 0.023193 0.01415 0.039305 0.064132 
0.095042 0.034373 0.28987 -0.18068 0.0065871 0.0013258 0.042923 0.021056 
0.084355 0.19353 -0.18413 -0.094363 -0.0047575 -0.017746 -0.0027845 -0.02235 
0.11296 0.17758 -0.5488 0.0082312 0.012506 -0.0080457 -0.072167 -0.074798 
0.16163 -0.070523 -0.27292 -0.026131 -0.090581 -0.03616 -0.17756 -0.30514 
0.14782 -0.11787 -0.024323 0.030592 -0.023829 -0.060494 -0.24036 -0.52003 
0.047526 0.056404 -0.14254 0.19747 0.024344 -0.00064712 -0.15618 -0.29626 
-0.071838 0.23479 -0.23411 0.244 0.056733 0.050321 -0.011663 0.15604 
-0.11426 0.293 -0.096007 0.17676 0.073175 0.0689 0.05772 0.28346 
-0.087622 0.21556 0.072846 0.072353 0.066598 0.079751 0.069722 0.23019 
-0.043724 0.15686 0.12562 0.071695 0.094713 0.068736 0.062652 0.055747 
0.0093821 0.22838 -0.11097 0.11757 0.098823 0.075805 0.028454 -0.18578 
-0.010512 0.39559 -0.49619 0.15374 0.11559 0.078107 0.029769 -0.25615 
-0.057863 0.49901 -0.47613 0.15752 0.065776 0.075476 0.046046 -0.06855 
-0.0965 0.43472 -0.145 0.080244 0.051636 0.045718 0.087808 0.15209 
-0.045696 0.1396 0.44853 -0.13941 0.0070803 0.020069 0.11872 0.26948 
0.082711 -0.34378 1.0373 -0.36795 -0.045039 -0.0138 0.097015 0.21819 
0.19977 -0.69579 1.111 -0.37683 -0.051122 -0.0095255 0.058049 0.15144 
0.2463 -0.86069 0.78953 -0.24217 -0.013143 0.012506 0.013657 0.044402 
0.22394 -0.76616 0.30796 -0.065097 0.0016547 -0.0040998 -0.035503 -0.029748 
0.13236 -0.4929 -0.20912 0.045389 -0.052109 -0.037805 -0.088773 -0.08269 
0.093891 -0.23921 -0.39869 0.1077 -0.066084 -0.060987 -0.054739 -0.1016 
0.049335 -0.095349 -0.084827 0.14585 -0.083183 -0.067399 -0.085485 -0.090253 
-0.023665 0.10688 0.20388 0.1271 -0.058192 -0.018568 -0.060494 -0.059178 
-0.050958 0.2754 0.35876 0.03947 -0.022021 -0.015444 -0.051287 -0.04619 
-0.011827 0.29546 0.45198 -0.049807 0.0072447 -0.014293 -0.041751 -0.046025 
0.0034632 0.23759 0.28954 -0.053095 0.022535 0.005765 0.0011614 -0.047505 
0.010697 0.18514 -0.078744 0.037497 0.053281 0.029769 0.0052718 -0.01939 
0.021384 0.16722 -0.30218 0.035853 0.077121 0.0592 0.0082312 -0.032872 
0.034702 0.18744 -0.3959 0.077121 0.093069 0.063145 0.012506 -0.0082102 
0.015301 0.18876 -0.36597 0.095042 0.08419 0.063803 0.027303 -0.014787 
0.022042 0.17314 0.0041209 0.035195 0.049335 0.049828 0.06331 0.00099702 
-0.016924 0.12398 0.30056 -0.018075 0.052294 0.034537 0.0421 0.020233 
-0.033365 0.11428 0.11198 0.017767 0.065118 0.052787 0.038155 0.072188 
-0.035338 0.078436 -0.1085 0.11231 0.070051 0.047691 0.053938 0.051636 
-0.0138 -0.023501 -0.18495 0.14453 0.042429 0.034044 0.054103 0.050321 
0.01826 -0.042573 -0.066084 0.18465 0.018589 0.018425 0.06035 0.066105 
0.030098 -0.039449 0.20355 0.20553 0.012835 0.0013258 0.040456 0.065118 
0.015465 -0.0062372 0.16525 0.15061 0.02533 0.042758 0.025824 0.092411 
0.022535 -0.057205 -0.20271 0.098823 0.027796 0.04358 0.048677 0.084026 
0.053116 -0.13086 -0.32175 -0.0073881 0.016288 0.017932 0.066434 0.075476 
0.1294 -0.19877 0.1659 -0.10127 -0.01232 -0.023665 0.066598 0.039963 
0.13286 -0.15405 0.40546 -0.10505 0.0046141 -0.019884 0.059364 0.040128 
0.081724 -0.014293 0.097015 0.0021479 0.060186 0.056569 0.080573 0.079587 
-0.045368 0.29793 -0.27045 0.10425 0.12135 0.11773 0.14535 0.11658 
-0.1205 0.53732 -0.24743 -0.02235 0.10606 0.10376 0.16706 0.18876 
-0.042408 0.40809 0.051801 -0.24727 0.02681 0.023028 0.12579 0.11033 
0.11921 -0.052931 0.15242 -0.23642 -0.0052507 -0.015938 0.07038 0.033387 
0.19188 -0.29577 -0.14615 0.032893 0.01415 0.016123 0.064625 0.06183 
0.14305 -0.16325 -0.62608 0.24811 0.045224 0.021056 0.066763 0.076463 
0.0065871 0.12792 -0.74774 0.3267 0.08156 0.048348 0.079258 0.12085 
-0.072825 0.30533 -0.53614 0.32719 0.1151 0.075476 0.10704 0.12792 
-0.094363 0.26324 0.1054 0.24844 0.093891 0.06183 0.1026 0.15078 
-0.042079 0.096193 0.87338 0.083533 0.067749 0.061666 0.10376 0.13203 
-0.0098543 -0.050793 0.83556 -0.015773 0.047033 0.033387 0.077778 0.12957 
0.017767 -0.091897 0.00033937 -0.0096899 0.047362 0.027303 0.08008 0.090767 
0.010862 0.08863 -0.64005 0.034373 0.031742 0.0421 0.11099 0.099645 
-0.01939 0.43275 -0.39919 -0.024323 0.030427 0.037497 0.085341 0.062159 
-0.026789 0.65273 -0.13086 -0.070194 0.012835 0.036182 0.075641 0.067913 
-0.019555 0.67986 -0.39557 -0.08384 0.0082312 0.025659 0.048841 0.027796 
0.014643 0.56116 -0.75744 0.062488 -0.023501 0.0024767 0.038812 0.0059294 
0.0227 0.4242 -0.6218 0.16706 -0.0503 -0.039613 0.0074092 -0.024323 
0.013328 0.14765 0.56083 0.19616 -0.046519 -0.029748 -0.018239 -0.010841 
-0.0057439 -0.1621 1.0258 0.22033 0.0059294 -0.0024557 0.015137 0.031414 
0.013164 -0.47778 0.17889 0.25962 0.05476 0.028619 -0.0049219 0.067913 
0.10836 -0.7729 -0.16523 0.14354 0.022535 0.030427 -0.041751 0.013657 
0.21375 -0.79296 0.22937 -0.20814 -0.086307 -0.049149 -0.052273 -0.035996 
0.27129 -0.54354 0.78147 -0.54338 -0.13678 -0.099789 -0.06707 -0.13037 
0.2343 -0.24168 1.0557 -0.56787 -0.11064 -0.075784 -0.045532 -0.10916 
0.20799 -0.082032 0.69203 -0.36532 -0.029748 -0.034352 0.0075736 -0.071345 
0.13976 0.034866 -0.098473 -0.001798 0.04095 0.023357 0.053774 0.005765 
0.03536 0.16508 -0.80134 0.33278 0.10737 0.064625 0.10984 0.099316 
-0.10209 0.39691 -0.94093 0.42946 0.12924 0.11609 0.14437 0.17314 
-0.21208 0.66063 -0.70582 0.33821 0.12579 0.12102 0.1345 0.22657 
-0.20929 0.67394 -0.17443 0.15735 0.099974 0.098823 0.079094 0.15719 
-0.077264 0.35334 0.55096 -0.075291 0.041936 0.055582 0.027796 0.042265 
0.053774 -0.066413 0.83096 -0.22277 0.024344 0.027632 -0.011663 -0.038791 
0.13894 -0.3326 0.67542 -0.1672 0.029605 0.018754 -0.03912 -0.082032 
0.15324 -0.40593 0.37783 -0.047176 0.012013 0.0028056 -0.059014 -0.079566 
0.12792 -0.32405 -0.11376 0.035195 0.00066819 -0.0055795 -0.050958 -0.05589 
0.070873 -0.12938 -0.32816 0.084026 -0.013636 -0.015609 -0.023007 -0.0055795 
0.011355 0.059035 -0.11212 0.092411 -0.027282 -0.042573 -0.0083746 0.030756 
-0.037311 0.25469 0.067091 0.12809 -0.023829 0.0011614 -0.024487 0.021056 
-0.062467 0.3193 -0.034023 0.11658 -0.026131 0.028125 -0.0138 0.023686 
-0.014787 0.17445 -0.18528 0.049992 -0.00031829 0.007738 -0.0011404 -0.015938 
0.11362 -0.13859 -0.066248 -0.035338 -0.011334 -0.0034422 -0.012978 -0.084334 
0.23956 -0.47251 0.39033 -0.14171 0.00050378 -0.035338 -0.040928 -0.11968 
0.25436 -0.5368 0.80761 -0.074962 0.068078 -0.0029489 -0.031392 -0.016266 
0.14782 -0.36795 0.84082 0.0098754 0.059035 0.057555 0.034209 0.09833 
0.011191 -0.052437 0.44179 0.097344 0.057391 0.046375 0.055089 0.17906 
-0.066413 0.21441 -0.054246 0.074161 0.043251 0.058706 0.053774 0.13023 
-0.095021 0.32095 -0.30087 0.050814 0.03947 0.046375 0.047033 0.12283 
-0.091404 0.27688 -0.31402 0.070708 0.037004 0.056569 0.042594 0.06331 
-0.014951 0.14141 -0.070194 -0.017253 0.032893 0.041772 0.0024767 0.060515 
0.033715 0.030592 0.15571 -0.047341 0.042265 0.027139 0.0062583 0.076299 
0.016452 0.054925 0.069064 -0.034681 0.060844 0.033551 0.022042 0.069393 
0.028454 0.10639 -0.13448 0.043909 0.085506 0.048841 0.024179 -0.09798 
0.030263 0.14897 -0.23313 0.10343 0.10622 0.07038 -0.0082102 -0.28064 
-0.0055795 0.17577 -0.23707 0.10491 0.10392 0.052459 -0.037476 -0.35874 
-0.0070593 0.16327 -0.089595 0.069393 0.080902 0.037497 0.0087245 -0.17821 
-0.018404 0.078436 0.1345 0.029769 0.041278 0.025495 0.052623 0.027632 
0.0062583 -0.044874 0.062159 0.039305 0.018096 0.009711 0.025166 0.11362 
0.028619 -0.15059 -0.2208 0.070544 -0.0083746 0.0087245 -0.0049219 0.099152 
0.030756 -0.071674 -0.00015387 0.038648 -0.063289 -0.019555 -0.023665 0.1151 
0.041443 -0.0059084 0.78755 -0.064604 -0.04882 -0.011498 -0.00097594 0.073339 
0.06331 -0.0077169 1.47 -0.15783 -0.024323 0.00066819 0.029441 0.04095 
0.069393 0.12184 0.87913 -0.11722 0.03799 0.0074092 0.013986 0.0092177 
0.034866 0.26587 -0.36515 -0.034516 0.07301 0.038648 0.016288 0.023357 
0.018096 0.25173 -0.8847 0.093726 0.098001 0.08419 0.044731 0.0060938 
-0.0098543 0.24351 -0.74873 0.18744 0.12316 0.08715 0.094055 0.057062 
-0.041586 0.29875 -0.46265 0.17791 0.1345 0.08567 0.10672 0.032564 
-0.044381 0.31618 -0.25845 0.15587 0.11214 0.07449 0.054925 0.026974 
-0.081045 0.25485 -0.31122 0.15637 0.13861 0.097672 0.035853 -0.020048 
-0.047012 0.14453 -0.3492 0.13023 0.10951 0.076299 0.016945 -0.0062372 
-0.027282 0.069558 -0.35118 0.11477 0.065447 0.031907 0.0042853 0.0042853 
0.0023123 0.030756 -0.30218 0.12365 0.01826 -0.0011404 0.0070803 0.005765 
0.034702 -0.071838 -0.0073881 0.10852 -0.018733 -0.026131 -0.0031133 -0.0070593 
0.064132 -0.15059 0.10392 0.0023123 -0.08121 -0.021856 -0.0064016 0.02122 
0.05624 -0.037311 -0.039778 -0.066741 -0.071181 -0.03353 0.0014903 0.042758 
0.022535 0.083204 0.0044497 -0.10801 -0.027447 0.0072447 0.035853 0.062652 
0.012999 0.13795 0.35268 -0.16966 -0.014787 0.011684 0.041772 0.052787 
0.054103 0.066105 0.74744 -0.16917 0.017438 0.0088889 0.010204 0.021384 
0.085999 -0.010348 0.901 -0.047834 0.038155 0.044238 0.050486 0.025495 
0.046375 0.044402 0.61311 0.088136 0.061008 0.067091 0.11839 0.062981 
0.0098754 0.11954 0.011848 0.0786 0.049006 0.049828 0.13631 0.03388 
-0.014293 0.16821 -0.56886 0.097179 0.034702 0.038319 0.12694 -0.0138 
0.012506 0.1807 -0.7267 0.11757 0.027632 0.0052718 0.044238 -0.076606 
0.057062 0.13598 -0.32487 0.049992 -0.020048 -0.018239 -0.015444 -0.16851 
0.096193 0.1003 0.15028 -0.060165 -0.033694 -0.047505 -0.035174 -0.16917 
0.083533 0.12201 0.13795 -0.0138 -0.016924 -0.013636 -0.070852 -0.093212 
0.053116 -0.0052507 -0.15848 0.11494 -0.0067304 0.0024767 -0.052273 0.066105 
0.05476 -0.17377 -0.21192 0.095535 0.0070803 0.021056 -0.020706 0.19205 
0.086492 -0.31024 -0.059178 0.033058 0.014808 0.043251 0.040621 0.29694 
0.090109 -0.20584 0.29957 -0.00081153 0.039305 0.015794 0.021056 0.25962 
0.030098 0.0592 0.29924 -0.025802 0.039141 0.005765 -0.010019 0.21161 
0.0074092 0.32571 -0.0034422 -0.027775 0.016945 0.026646 -0.03616 0.078765 
-0.0004827 0.43538 -0.29955 0.046375 0.044896 0.024837 -0.043888 0.0011614 
-0.021034 0.43505 -0.49668 0.14683 0.056898 0.060186 0.0046141 -0.026624 
-0.025638 0.27162 -0.37206 0.16886 0.054103 0.062981 0.049335 0.073832 
-0.021034 0.12825 -0.09239 0.16294 0.06594 0.064132 0.11181 0.1368 
-0.032215 0.082546 -0.12182 0.20865 0.062652 0.061995 0.13713 0.21621 
-0.01676 -0.029255 -0.36022 0.15735 0.063145 0.044896 0.10145 0.147 
0.04506 -0.27357 -0.14402 0.054103 0.028619 0.022371 0.066105 0.079587 
0.10491 -0.52858 0.72672 -0.089102 -0.00081153 -0.0091966 0.035195 0.0062583 
0.088136 -0.60964 1.4424 -0.18413 -0.010183 -0.01232 0.039963 0.0019835 
0.037168 -0.42155 1.3027 -0.22261 -0.022185 -0.020706 0.011684 -0.073811 
0.030427 -0.15372 0.5577 -0.18134 -0.018404 -0.037147 -0.063946 -0.21175 
0.061008 -0.03205 -0.17739 -0.1039 -0.050464 -0.061151 -0.11541 -0.32536 
0.10606 -0.012156 -0.3104 -0.064933 -0.060823 -0.064604 -0.079237 -0.22573 
0.10376 -0.073647 -0.067892 0.040456 -0.041915 -0.035996 0.00033937 0.01004 
0.052294 -0.053424 0.023028 0.080573 0.0023123 0.0042853 0.093726 0.20503 
0.01826 0.012999 0.028783 0.013657 0.027139 0.060679 0.13401 0.24285 
0.09685 0.099152 -0.15717 0.036675 0.06742 0.10244 0.13088 0.21391 
0.14749 0.23677 -0.60964 0.13056 0.073832 0.10458 0.093398 0.16327 
0.1151 0.31634 -0.58316 0.2389 0.08978 0.082382 0.078929 0.16114 
0.036017 0.25419 -0.054246 0.11263 0.096193 0.068242 0.075805 0.11395 
-0.049149 0.1904 0.26833 0.036675 0.099152 0.068571 0.015137 0.055418 
-0.091897 0.068078 0.21917 0.050979 0.077285 0.065118 0.0064227 0.0023123 
-0.042737 -0.056712 -0.24809 0.14469 0.076627 0.030427 -0.016924 -0.042901 
0.0024767 -0.18463 -0.48254 0.16656 0.030592 0.0023123 -0.020212 -0.054082 
0.051965 -0.27736 0.013492 0.03536 -0.034352 -0.036325 -0.029255 -0.043888 
0.093069 -0.31764 0.90856 -0.080223 -0.073318 -0.056877 -0.028269 -0.036325 
0.12562 -0.22063 1.0985 -0.070359 -0.029584 -0.012978 -0.0052507 -0.027775 
0.1174 -0.0771 0.34429 -0.013636 -0.0098543 0.0051074 -0.0055795 -0.03057 
0.06479 0.0065871 -0.035174 -0.00081153 -0.0068948 0.066105 0.057555 -0.094034 
0.070873 0.062323 0.069064 -0.076771 0.023686 0.028619 0.069064 0.013986 
0.0075736 0.13499 -0.15503 -0.13201 0.00017495 0.022206 0.06594 0.032729 
0.011026 0.12135 -0.17756 -0.12823 0.024673 0.029112 0.063145 0.033058 
0.0074092 0.055254 -0.11245 0.044567 0.032236 0.041607 0.069722 0.038319 
-0.017746 0.061995 -0.071016 0.055089 0.047362 0.041772 0.084684 0.064296 
-0.061809 0.20701 -0.067892 0.048348 0.055911 0.058377 0.098988 0.065612 
-0.041586 0.27392 -0.12922 0.10425 0.063145 0.08156 0.080738 0.10441 
-0.027775 0.27228 -0.20781 0.1396 0.049006 0.065118 0.092082 0.052952 
0.023522 0.29086 -0.27374 0.16919 0.017274 0.030098 0.065776 0.038977 
0.065612 0.31667 -0.31155 0.16377 -0.028269 -0.021034 0.036675 -0.011992 
0.0592 0.31519 -0.24266 0.10819 -0.029255 -0.03353 -0.004593 -0.0087034 
0.043909 0.27902 -0.10916 0.029112 0.00066819 -0.0040998 0.024179 -0.008539 
0.01415 0.18054 0.24482 0.031742 0.067585 0.030756 0.048677 0.042429 
-0.0014692 -0.012485 0.41318 0.06742 0.13302 0.074819 0.064461 0.054596 
-0.0044286 -0.12494 0.20914 0.0016547 0.11954 0.09126 0.10343 0.099152 
0.0070803 -0.26075 0.11247 -0.10949 0.081724 0.077778 0.084026 0.067091 
0.071531 -0.40708 0.28034 -0.08121 0.027139 0.036346 0.044731 0.02533 
0.12069 -0.37403 0.21572 -0.0096899 0.0067515 -0.0049219 -0.003771 -0.044381 
0.1294 -0.21948 0.26735 0.016945 -0.009361 -0.031721 -0.02942 -0.038627 
0.086492 -0.022021 0.51265 -0.047669 -0.020706 -0.016595 -0.00097594 0.019411 
0.067256 0.16179 0.52235 -0.10061 -0.011663 -0.021199 0.013492 0.046868 
0.047691 0.28872 0.16886 -0.087951 0.023028 0.031907 0.03536 0.051801 
-0.0014692 0.35761 -0.34181 0.090767 0.062159 0.066434 0.053281 0.075641 
-0.04471 0.44755 -0.71585 0.17593 0.079258 0.057884 0.065447 0.072681 
-0.054575 0.48026 -0.7262 0.16196 0.075148 0.060022 0.070708 0.071202 
-0.0503 0.46991 -0.26141 0.07038 0.066598 0.03092 0.033715 0.061172 
-0.024487 0.42798 0.14157 -0.0031133 0.054596 0.025824 0.014479 0.039305 
0.0075736 0.35038 0.17971 -0.043888 0.012177 -0.0013048 0.0024767 0.00297 
0.029112 0.26669 0.13138 -0.18627 -0.011498 -0.0067304 0.00033937 0.015301 
0.027139 0.10343 0.20651 -0.27522 -0.028433 -0.024323 0.020069 0.026646 
0.044567 -0.05589 0.16985 -0.13119 0.037004 0.012999 0.022535 0.042758 
0.021384 -0.11113 -0.0016336 0.066598 0.10359 0.067091 0.034702 0.04506 
-0.0052507 -0.096336 -0.20238 0.23627 0.13647 0.096028 0.038977 0.061008 
-0.043559 -0.076606 -0.1307 0.24515 0.092904 0.074654 0.023357 0.088301 
-0.018733 -0.11163 0.32654 0.12168 0.047033 0.020233 0.04095 0.048019 
-0.0080457 -0.052437 0.39773 0.041114 0.016781 0.0060938 0.012177 0.0421 
0.012835 0.0021479 -0.15635 0.077778 0.012177 0.013657 -0.0024557 0.025988 
0.070708 -0.042244 -0.56393 0.11132 0.0041209 0.03388 -0.0034422 0.010697 
0.13779 -0.12034 -0.31977 0.007738 -0.0087034 0.0039565 -0.014787 -0.025309 
0.088301 -0.048327 0.13565 -0.094856 -0.039942 -0.032708 0.012177 -0.03501 
0.075805 0.023686 0.70009 -0.10439 -0.0138 -0.0049219 -0.0047575 -0.00097594 
0.012835 0.030098 0.66342 -0.017746 0.041936 0.040292 0.01826 0.035031 
0.0064227 -0.0060728 0.22246 0.028947 0.086492 0.081724 0.03947 0.031742 
0.033387 0.00083261 0.20043 0.029441 0.061995 0.054267 0.026481 0.034537 
0.047197 -0.050136 0.06742 0.096357 0.039963 0.028454 0.028454 0.027468 
0.03536 -0.18052 0.056076 0.037332 0.034702 0.044073 0.021384 0.034866 
-0.013965 -0.067728 0.020398 -0.043395 0.013821 0.036182 0.011026 0.031907 
-0.033859 0.15966 -0.15832 -0.054904 0.0092177 0.0037921 -0.0042642 0.038812 
-0.0064016 0.19714 -0.20008 -0.052437 -0.0062372 -0.021034 -0.026789 0.020727 
0.065776 0.056076 -0.03353 -0.057534 -0.038791 -0.052437 -0.014787 -0.023665 
0.080409 0.009711 0.23726 -0.018733 -0.049149 -0.043395 -0.033694 -0.013143 
0.038155 0.13253 0.19336 0.10672 -0.027282 -0.0060728 -0.027447 0.011191 
0.00033937 0.25321 0.023686 0.16196 -0.0039354 0.016452 0.019083 0.045224 
-0.020706 0.31256 -0.16457 0.16821 0.044402 0.029934 0.034044 0.049992 
-0.04471 0.29727 -0.27522 0.1151 0.063474 0.058871 0.025001 0.025001 
-0.028104 0.15604 -0.47284 0.11115 0.085341 0.063474 0.03536 0.051308 
0.024344 -0.089759 -0.62723 0.12644 0.075148 0.064954 0.025001 0.014972 
0.096028 -0.40461 -0.52266 0.077121 0.044402 0.047691 0.0034632 -0.0049219 
0.15111 -0.50375 -0.028104 0.042758 -0.0022913 0.01004 -0.024323 -0.014293 
0.13138 -0.37781 0.56231 -0.013143 -0.034023 -0.019226 -0.0026201 -0.023336 
0.076463 -0.10373 0.66375 0.010862 -0.034023 -0.015444 0.0098754 -0.02794 
0.017767 0.16278 0.30089 0.10852 -0.01232 0.019411 0.035031 0.022864 
-0.0067304 0.37389 -0.10094 0.032236 -0.00015387 0.031742 0.042758 -0.019884 
0.0044497 0.43817 -0.052602 -0.03912 0.037332 0.027796 0.028619 -0.061645 
-0.0091966 0.46316 0.048348 -0.0080457 0.060844 0.016288 0.0592 0.0047785 
-0.021528 0.3466 -0.088937 0.11609 0.065447 0.039141 0.096521 0.098166 
0.00297 0.10425 -0.30876 0.17659 0.076956 0.085012 0.11642 0.12184 
0.059857 -0.1256 -0.32306 0.14387 0.093069 0.094548 0.095535 0.062817 
0.10244 -0.26502 -0.23921 0.13779 0.080573 0.07301 0.049335 0.029112 
0.15111 -0.36236 0.15176 0.059693 0.052294 0.020233 0.017603 0.004943 
0.15144 -0.38291 0.73955 -0.03501 0.0062583 -0.0075525 -0.0072237 0.01004 
0.13154 -0.24628 1.2431 -0.13481 -0.043066 -0.040106 -0.053588 0.016452 
0.060022 -0.084991 1.3183 -0.13497 -0.050136 -0.047505 -0.082032 -0.033201 
-0.040435 0.18761 0.54619 -0.056712 -0.024158 -0.025802 -0.064933 -0.0024557 
-0.098144 0.42338 -0.3742 0.060515 0.029605 -0.0036066 0.020562 0.095042 
-0.12577 0.52811 -0.91314 0.17347 0.061172 0.041772 0.025988 0.14733 
-0.1182 0.47171 -1.0871 0.21671 0.055418 0.073504 0.0083956 0.1299 
-0.096994 0.38753 -0.96148 0.21112 0.047362 0.062488 0.027796 0.14141 
-0.039449 0.20553 -0.68559 0.20997 0.028619 0.047197 0.048841 0.11231 
0.07449 -0.13727 -0.43651 0.17626 -0.014293 -0.0031133 0.032564 0.023357 
0.18333 -0.46429 -0.25187 0.026646 -0.024652 0.02829 0.0054362 -0.046025 
0.19172 -0.49027 -0.038956 -0.058356 -0.029748 0.012013 0.018589 -0.11607 
0.1761 -0.36713 0.52597 -0.099624 -0.03205 -0.020706 0.054925 -0.11541 
0.16558 -0.14665 1.2667 -0.21636 0.023686 0.010369 0.072517 -0.090253 
0.10688 -0.067399 1.6657 -0.22129 0.066927 0.034537 0.073832 -0.029255 
0.077943 0.0069159 0.94276 -0.11459 0.08156 0.033715 0.079587 0.025988 
-0.014622 0.1761 -0.11212 0.023686 0.071859 0.057555 0.082711 0.12628 
-0.10801 0.29119 -0.59418 0.16738 0.063474 0.032729 0.088301 0.14996 
-0.12231 0.38441 -0.63052 0.25041 0.048841 0.019905 0.063639 0.13236 
-0.14319 0.46004 -0.39951 0.19632 0.036346 0.009711 0.025824 0.082382 
-0.09091 0.34857 -0.091897 -0.018075 0.048841 0.027796 0.040621 0.098001 
0.043087 -0.065262 0.31749 -0.22836 0.06479 0.06331 0.036182 0.056898 
0.13368 -0.4033 0.46925 -0.16473 0.081231 0.064954 0.053445 0.050814 
0.16853 -0.46709 0.26505 -0.026624 0.089123 0.066763 0.070544 0.06331 
0.12184 -0.31895 0.072681 0.087972 0.067091 0.03651 0.070051 0.17314 
0.048184 -0.15996 0.069558 0.10326 0.033715 0.010204 0.063803 0.22279 
-0.0021268 0.057555 -0.065591 0.070051 0.013328 0.041114 0.047526 0.22986 
-0.040435 0.27179 -0.29709 -0.023665 0.03947 0.043416 0.011848 0.10392 
-0.067728 0.42782 -0.30383 -0.017253 0.068407 0.060515 0.01563 -0.022843 
-0.065755 0.38457 -0.13168 0.049499 0.093726 0.049499 0.01152 -0.080552 
-0.048656 0.22246 -0.038298 0.034537 0.072024 0.041772 0.010697 -0.045368 
0.00099702 -0.031886 -0.24908 0.11083 0.040128 0.042429 0.018589 -0.036325 
0.046046 -0.21438 -0.70154 0.21819 0.0092177 0.0069159 -0.0080457 -0.098802 
0.11609 -0.32882 -0.68543 0.17906 -0.09387 -0.035503 -0.021199 -0.14993 
0.17462 -0.36663 0.43028 -0.055561 -0.15158 -0.10193 -0.053588 -0.15306 
0.2394 -0.24645 1.6077 -0.29561 -0.20879 -0.15832 -0.0771 -0.13448 
0.20076 0.047855 1.5286 -0.36088 -0.17936 -0.11508 -0.06707 -0.097816 
0.099152 0.27573 0.58713 -0.31945 -0.082854 -0.056877 -0.04323 -0.0059084 
-0.013471 0.43078 -0.34033 -0.13908 0.05772 0.021384 0.042265 0.10556 
-0.11639 0.49671 -0.90032 0.1202 0.1539 0.092411 0.10491 0.17182 
-0.133 0.45675 -0.87763 0.24712 0.16114 0.11757 0.12233 0.17084 
-0.12675 0.36928 -0.46775 0.28724 0.16031 0.12332 0.10162 0.14305 
-0.11031 0.26258 -0.065097 0.23348 0.12414 0.088958 0.081067 0.098166 
-0.069372 0.11494 0.19961 0.077449 0.073832 0.058871 0.07597 0.053281 
0.047362 -0.24201 0.28527 -0.20814 0.0044497 0.023522 0.032236 -0.021363 
0.17741 -0.57511 0.24663 -0.21438 0.023357 0.013657 -0.038956 -0.098967 
0.19254 -0.55341 -0.0047575 0.077121 0.1077 0.064132 -0.044546 -0.10702 
0.12266 -0.21027 -0.09387 0.16508 0.076956 0.048348 -0.026131 -0.073318 
0.06742 0.099316 0.10211 0.010369 -0.02942 -0.015116 -0.0096899 -0.031886 
0.044896 0.29727 -0.0070593 -0.10028 -0.071674 -0.043066 -0.024652 -0.066248 
0.020727 0.293 -0.2185 -0.061151 -0.033201 -0.006566 -0.015444 -0.065426 
0.042923 0.19073 -0.24727 0.020398 0.012999 0.043416 0.076134 0.098988 
0.066927 0.013821 0.029112 0.046868 0.032729 0.03651 0.095042 0.21983 
0.067585 -0.046025 0.27688 0.048513 0.0059294 0.028454 0.096686 0.18646 
0.061172 -0.025802 0.22855 0.032071 -0.010019 -0.0016336 0.034373 0.077778 
0.029276 0.062981 0.049992 0.069229 0.024673 0.031085 0.017767 0.040621 
-0.038956 0.17133 0.01415 0.084026 0.054267 0.063803 0.057555 0.047197 
-0.07003 0.25896 0.15489 0.075805 0.027468 0.051801 0.072353 0.053116 
-0.062467 0.2736 0.39674 0.04506 0.0042853 0.0031344 0.053281 -0.063618 
-0.05326 0.2953 0.27195 0.11888 0.0056006 -0.015609 -0.015609 -0.28936 
-0.033201 0.29332 -0.026789 0.20043 0.067256 0.023357 -0.035503 -0.37946 
-0.043395 0.25387 -0.20863 0.14437 0.10573 0.092411 0.032236 -0.055232 
-0.0022913 0.10951 -0.38981 0.075312 0.095864 0.08419 0.06594 0.2126 
0.070215 -0.076771 -0.63413 0.10935 0.065776 0.039963 0.022206 0.19731 
0.097672 -0.1478 -0.81071 0.079587 0.020233 -0.010676 -0.00031829 0.20273 
0.12135 -0.21258 -0.41744 -0.022185 -0.029913 -0.039942 0.0039565 0.23496 
0.12151 -0.15536 0.28099 -0.1353 -0.036818 -0.01528 0.0013258 0.22427 
0.12513 -0.10554 0.63333 -0.17016 0.0079024 0.010204 0.063639 0.23414 
0.094877 -0.036325 0.41746 -0.23559 -0.0083746 0.031742 0.099481 0.16212 
0.069393 0.0023123 0.22361 -0.20797 -0.02235 -0.0080457 0.0088889 0.037497 
0.012999 0.099316 0.42946 -0.041586 0.01004 0.022535 -0.011663 -0.047998 
-0.018897 0.16903 0.54225 0.06183 0.048019 0.047362 -0.034681 -0.11738 
0.0042853 0.21227 0.41729 0.09422 0.011848 0.031085 -0.028269 -0.19679 
0.042923 0.14765 0.694 0.087972 0.019411 0.022864 0.0021479 -0.20732 
0.030263 0.061172 0.58993 0.12414 0.058871 0.048348 0.042265 -0.084663 
0.004943 0.1026 0.017603 0.084848 0.096193 0.074161 0.075312 0.057884 
0.0067515 0.20421 -0.35627 0.010697 0.091425 0.078436 0.086163 -0.01676 
0.0095465 0.27096 -0.31862 0.049006 0.092904 0.071202 0.079751 -0.11919 
0.01563 0.15127 -0.30613 0.07597 0.10589 0.060679 0.10951 -0.041915 
0.029605 -0.1233 -0.25615 0.11921 0.076956 0.049664 0.062817 0.11921 
0.037332 -0.28492 -0.23346 0.10277 0.062652 0.041114 0.0016547 0.20125 
0.030592 -0.23296 -0.32208 0.13335 0.053609 0.032564 0.01415 0.19303 
0.0039565 -0.12577 -0.32421 0.15423 0.053609 0.031085 0.026974 0.18925 
-0.015938 -0.036654 -0.16802 0.10672 0.012013 0.014479 0.053774 0.16327 
-0.033201 0.037826 0.159 0.013657 -0.001798 0.0093821 0.034209 0.13187 
-0.05885 0.16393 0.38885 -0.11196 -0.017746 0.0041209 0.040292 0.12628 
-0.081539 0.24729 0.49095 -0.17164 -0.035996 -0.0050863 0.049828 0.10145 
-0.029913 0.18826 0.45905 -0.12774 -0.035832 0.0024767 0.030427 0.065776 
0.06183 -0.025638 0.19402 -0.014622 -0.012814 -0.018075 0.027468 0.0060938 
0.13631 -0.13563 -0.13021 0.039634 0.016452 -0.011992 -0.0091966 -0.052602 
0.13467 -0.082196 0.03092 0.012999 0.046704 0.019247 0.0016547 -0.023501 
0.055747 0.085341 0.3101 0.0324 0.079094 0.0421 -0.016595 0.022864 
0.0021479 0.13779 0.15999 0.09126 0.10178 0.07597 0.076134 0.075148 
-0.024652 0.072681 0.014315 0.1202 0.10145 0.05476 0.11378 0.060844 
0.023193 -0.13333 0.12825 0.14338 0.02533 0.016945 0.028619 0.0054362 
0.075805 -0.18413 0.18383 0.09274 -0.019719 -0.02087 -0.016595 -0.062302 
0.079094 -0.098144 0.076792 0.057062 -0.064768 -0.023172 -0.058356 -0.072496 
0.013986 0.12003 -0.10193 0.037332 -0.034845 -0.022843 -0.061316 -0.069701 
-0.047176 0.29267 0.14765 -0.0031133 -0.032543 -0.012814 -0.044546 -0.06707 
-0.0050863 0.22937 0.53025 -0.17624 -0.05589 -0.034681 -0.017911 -0.074304 
0.053116 0.050814 0.45757 -0.20781 -0.068879 -0.066084 0.0069159 -0.028926 
0.062817 -0.01117 0.004943 -0.061645 -0.035667 -0.011827 0.018918 0.0090533 
0.026646 -0.033037 -0.4712 0.10326 0.011191 0.010369 0.055911 0.044567 
0.010204 0.01415 -0.63857 0.19385 0.039141 0.01711 0.057884 -0.0067304 
0.019247 0.055747 -0.55669 0.24614 0.042429 0.015137 0.025988 -0.029748 
0.081231 -0.035832 -0.32125 0.20388 0.027632 0.011355 0.0014903 -0.042737 
0.091918 -0.16786 0.23216 0.12447 0.079587 0.074326 0.053938 0.062652 
0.053609 -0.16802 0.63514 0.086492 0.11477 0.10803 0.11148 0.13927 
0.013328 -0.062467 0.40858 0.055747 0.11642 0.056898 0.079422 0.16903 
-0.0091966 0.05476 -0.025967 0.043416 0.092411 0.01004 0.020562 0.13154 
0.012342 0.099974 -0.30827 0.093069 0.049828 0.01152 -0.026953 0.095535 
0.0087245 0.10606 -0.33161 0.12891 0.025495 0.029112 0.013657 0.073339 
-0.013636 0.16492 -0.24118 0.091096 0.007738 0.0093821 0.060515 0.058213 
-0.025967 0.22213 -0.15487 0.051965 0.013164 0.0051074 0.083204 0.057391 
-0.012156 0.21917 -0.070194 -0.011005 0.029934 -0.016102 0.052952 0.055582 
0.01415 0.17347 0.0092177 0.017603 0.031249 0.00017495 0.039799 0.0065871 
0.059857 0.12529 0.0046141 -0.0090322 0.022864 0.030756 0.03536 0.0041209 
0.07301 0.020891 0.02533 -0.02646 -0.0091966 0.024673 0.039963 -0.012156 
0.094055 -0.056877 -0.037147 0.031742 -0.0068948 0.017767 0.039799 -0.001798 
0.09422 -0.083018 -0.10817 0.05065 0.016945 0.02533 0.0092177 -0.0049219 
0.097179 -0.036489 -0.12264 0.035195 0.018096 -0.0072237 -0.045861 -0.042901 
0.095206 -0.0004827 -0.033859 0.058871 0.032729 0.010697 -0.068879 -0.095349 
0.079258 0.062323 0.087643 0.10787 0.039141 0.022206 -0.032872 -0.080388 
0.015137 0.18383 0.11855 0.078107 0.072846 0.03536 0.00017495 0.03536 
-0.0078813 0.24828 -0.022514 0.044402 0.10277 0.047526 0.010369 0.12776 
-0.025638 0.31157 -0.22672 0.11263 0.10852 0.047691 -0.013471 0.15851 
-0.019884 0.28362 -0.50277 0.13483 0.10524 0.078765 -0.020706 0.13056 
0.016452 0.11658 -0.49734 0.071366 0.087479 0.074983 0.049335 0.11428 
0.058049 -0.13793 -0.38439 -0.038133 0.041607 0.04917 0.094055 0.10672 
0.094548 -0.29676 -0.4324 -0.076935 -0.023665 0.021384 0.10129 0.10556 
0.13467 -0.38784 -0.22178 -0.11837 -0.043395 -0.028433 0.071531 0.021056 
0.13154 -0.23855 0.16952 -0.14073 -0.079072 -0.031886 0.056569 0.0042853 
0.068736 0.069229 0.86746 -0.1187 -0.039778 -0.046354 0.015465 -0.02087 
-0.0019624 0.27409 1.4615 -0.059507 -0.020706 -0.012814 0.034044 0.0059294 
-0.039942 0.35712 1.3176 -0.038791 0.041772 0.024673 0.014315 0.037826 
-0.049807 0.34232 0.42223 0.029769 0.10589 0.063803 0.0074092 0.0421 
-0.019719 0.20882 -0.52332 0.11773 0.12201 0.099645 -0.00064712 0.019905 
0.076299 0.054267 -0.89752 0.094713 0.091753 0.074161 0.013657 -0.0027845 
0.11115 -0.056055 -0.80858 0.044731 0.064954 0.044896 0.0069159 -0.010676 
0.077449 0.0026412 -0.40116 0.039799 0.038812 0.018096 0.016288 0.044567 
-0.011827 0.13631 -0.02087 -0.019555 0.0070803 0.04095 0.050979 0.083368 
-0.065262 0.19435 0.20487 -0.028433 0.00017495 0.054267 0.061666 0.10688 
-0.040764 0.10967 0.18284 -0.051451 -0.0044286 0.017438 0.050979 0.070873 
0.051472 -0.070359 0.051308 -0.058028 0.021384 0.017603 0.032071 0.012342 
0.098166 -0.24825 0.040128 0.017932 0.052623 0.032729 0.0019835 -0.029091 
0.11362 -0.24447 0.20849 0.040292 0.070873 0.040292 -0.0039354 0.012177 
0.058706 -0.087129 0.29382 0.04917 0.040785 0.029769 0.011848 0.11543 
0.00017495 0.037332 0.33015 -0.0059084 0.011355 0.023522 0.059364 0.20454 
-0.0014692 0.08715 0.47007 -0.046683 -0.0072237 -0.008539 0.046704 0.1761 
-0.016595 0.17971 0.43587 -0.047341 0.0070803 0.012999 0.046375 0.14897 
-0.05737 0.36682 0.21112 -0.025145 0.031249 0.02681 0.046704 0.1008 
-0.099131 0.43916 0.061337 -0.0042642 0.0421 0.069064 0.039305 0.027961 
-0.068221 0.36534 -0.017417 0.007738 0.071366 0.055418 0.038812 -0.043559 
0.025001 0.12513 -0.020377 0.056733 0.038155 0.031249 0.018425 -0.10752 
0.11855 -0.12511 -0.14566 0.11707 0.045224 0.034373 0.01004 -0.17673 
0.13878 -0.29051 -0.35364 0.14716 0.019576 0.016123 0.012177 -0.14961 
0.1202 -0.31353 -0.25746 0.1299 -0.0098543 -0.0098543 -0.010841 -0.068221 
0.097508 -0.44506 0.36468 -0.059014 -0.065426 -0.057534 -0.039284 -0.048163 
0.14453 -0.54913 0.86647 -0.23494 -0.098802 -0.093541 -0.075949 -0.055726 
0.13647 -0.31829 0.52235 -0.2887 -0.078415 -0.072332 -0.073976 -0.00031829 
0.075805 0.10754 -0.36778 -0.12281 -0.022514 -0.015444 0.0082312 0.05624 
0.00083261 0.39526 -0.86217 0.064954 0.057555 0.062323 0.060515 0.082053 
-0.083676 0.47878 -0.71716 0.23907 0.09422 0.084519 0.095042 0.08715 
-0.12856 0.48487 -0.48156 0.34248 0.089123 0.061666 0.11066 0.087808 
-0.14846 0.40134 -0.30366 0.25567 0.040785 0.032236 0.05624 0.070051 
-0.074633 0.083368 0.030592 0.068736 -0.013307 0.018096 0.037004 0.01415 
0.067091 -0.25023 0.84674 -0.11393 -0.024323 0.01563 0.016452 -0.043888 
0.17955 -0.31599 1.6836 -0.24595 -0.044874 -0.033859 -0.0083746 -0.1108 
0.20438 -0.15569 1.9284 -0.26601 -0.026789 -0.03057 -0.02498 -0.109 
0.17643 -0.0067304 1.3254 -0.17624 0.029769 0.024344 -0.012485 -0.10982 
0.089452 0.014972 0.087808 -0.018239 0.10162 0.048841 0.041607 -0.048492 
0.020069 0.053445 -0.76188 0.13039 0.13697 0.12365 0.089616 0.019411 
-0.0083746 -0.021034 -0.9771 0.22378 0.12875 0.10343 0.079258 0.069558 
0.016616 -0.068714 -0.81696 0.15489 0.0082312 0.027961 0.042923 0.044402 
0.046046 0.0075736 -0.6001 0.066927 -0.076935 -0.027447 -0.010019 0.0054362 
0.046211 0.076792 -0.35085 0.011026 -0.055068 -0.043724 -0.0503 -0.014458 
0.040292 0.086328 -0.2762 0.025495 -0.020541 -0.014293 -0.019719 0.0037921 
-0.023829 0.13828 -0.11228 0.09274 0.031249 0.0044497 0.038155 0.014808 
-0.063124 0.12677 0.11855 0.13746 0.063145 0.034866 0.044073 0.059035 
-0.05441 0.11411 0.082217 0.14272 0.052459 0.034209 0.057555 0.059364 
-0.031064 0.080573 -0.058356 0.14552 0.033058 0.023686 0.031085 0.025659 
-0.012978 0.076792 -0.059836 0.13138 0.033058 0.037497 0.01974 -0.019555 
0.030427 0.047526 0.057884 0.09833 0.038812 0.037004 0.023028 -0.0039354 
0.068078 -0.012649 0.17215 0.041772 0.032729 0.01563 0.0047785 -0.022843 
0.077285 0.018589 0.01711 0.00017495 -0.0072237 0.0075736 0.0065871 0.017274 
0.059035 0.08715 -0.11393 -0.052437 -0.02087 -0.0067304 0.012506 0.043416 
0.0064227 0.18333 -0.14155 -0.072003 0.0016547 0.018754 0.032071 0.1271 
-0.0090322 0.22937 -0.047176 -0.062138 0.035031 0.035688 0.047855 0.12792 
-0.017911 0.20158 0.23282 -0.050793 0.049006 0.046375 0.060844 0.10063 
0.0011614 0.11494 0.47632 0.007738 0.068736 0.058377 0.062981 0.036675 
0.038483 0.019083 0.58072 0.060844 0.059364 0.068407 0.073832 0.015959 
0.057062 0.029441 0.33295 0.080902 0.040292 0.039634 0.071037 0.0064227 
0.0013258 0.19221 -0.20995 0.10573 0.01267 0.018425 0.049335 0.041278 
-0.080717 0.31782 -0.62575 0.19007 0.037497 0.015301 0.029605 0.048184 
-0.081868 0.36567 -0.68494 0.22296 0.081889 0.044402 0.034702 0.089123 
0.044896 0.13664 -0.24727 0.094384 0.082711 0.039963 0.036182 0.029605 
0.15374 -0.17493 0.21934 0.020891 0.034702 0.027303 0.029605 0.033387 
0.15341 -0.23625 0.20536 0.011026 0.03388 0.026481 0.029934 0.046375 
0.074654 -0.14385 -0.064604 -0.017746 0.076792 0.045389 0.043416 0.064296 
0.068078 -0.1376 -0.16079 -0.061316 0.090603 0.059857 0.062488 0.041114 
0.046704 -0.070852 -0.033859 -0.074633 0.069722 0.039799 0.052459 0.070215 
0.01415 0.014972 0.28856 -0.012485 0.041936 0.057884 0.062488 0.063145 
-0.0042642 0.017767 0.77983 0.05213 0.040292 0.042758 0.020069 0.02681 
0.020727 -0.082196 0.84905 0.077943 0.0028056 0.0054362 -0.033201 -0.031557 
0.080902 -0.092883 0.28856 0.075148 -0.044217 -0.060494 -0.063289 -0.021528 
0.029605 0.024837 -0.3252 0.092082 -0.061973 -0.060987 -0.070359 0.073997 
-0.023829 0.2098 -0.52102 0.1539 -0.032543 -0.029584 -0.0055795 0.14765 
-0.071674 0.28593 -0.21554 0.099316 0.012177 0.0062583 0.011848 0.14733 
-0.06444 0.34479 0.17725 -0.055232 0.040456 0.036182 0.051965 0.14141 
-0.0064016 0.2828 0.45774 -0.24299 0.0786 0.067091 0.10672 0.12447 
0.044896 0.16821 0.37734 -0.20633 0.11231 0.098494 0.14042 0.086657 
0.10376 -0.091239 0.028783 0.020069 0.099152 0.10211 0.12957 0.033058 
0.096521 -0.16753 -0.32125 0.12069 0.051801 0.034702 0.075312 -0.0011404 
0.036017 -0.076277 -0.67935 0.1858 0.01826 0.0088889 0.063474 0.041278 
-0.00015387 0.0070803 -0.65419 0.20158 -0.032708 -0.020706 0.042265 0.036182 
0.0026412 0.10096 -0.3982 0.18563 -0.00097594 -0.017746 0.0054362 -0.010348 
0.040128 0.10688 -0.11508 0.084355 0.0087245 -0.0004827 -0.026953 -0.10604 
0.078107 0.070873 0.11 0.030427 0.054596 0.016616 -0.042079 -0.020048 
0.066763 -0.023007 0.18333 0.0026412 0.055911 0.027468 -0.0011404 0.066763 
0.065776 -0.07825 0.19402 -0.054904 0.026317 0.027796 0.040456 0.16985 
0.062323 -0.13053 0.18054 -0.052109 0.011848 0.025001 0.047691 0.18317 
0.071202 -0.12346 0.27738 -0.0072237 -0.00097594 0.013492 0.041114 0.17199 
0.051965 -0.082361 0.44656 0.01711 -0.016102 -0.0031133 0.034044 0.10425 
0.021549 -0.0027845 0.51545 0.015794 0.015465 0.019247 0.039141 0.076463 
1.0539e-005 0.17577 0.49539 -0.020212 0.069393 0.0689 0.031085 -0.065919 
0.0069159 0.32128 0.25091 0.013328 0.1026 0.081231 0.024673 -0.23658 
-0.003771 0.32917 -0.093705 0.041278 0.099316 0.073175 0.037497 -0.28706 
0.0062583 0.17314 -0.31994 0.10737 0.069722 0.04654 0.015959 -0.13744 
0.035853 0.021878 -0.36499 0.13138 0.037826 0.021384 0.019247 0.026317 
0.049499 -0.046683 -0.067399 0.034702 -0.0032777 -0.001798 0.0056006 0.12349 
0.049335 -0.13497 0.072188 -0.01528 -0.027447 -0.0068948 -0.038791 0.13779 
0.064461 -0.22557 -0.13267 0.01711 -0.037311 -0.01939 -0.066084 0.079751 
0.087314 -0.23066 -0.3252 0.033551 -0.043395 -0.044052 -0.084169 -0.024323 
0.1322 -0.25253 -0.15635 0.016452 -0.038627 -0.040764 -0.039942 -0.072003 
0.16344 -0.13908 -0.050464 -0.023665 -0.034681 -0.034352 -0.02942 -0.056712 
0.13467 0.040292 0.072846 -0.061973 -0.011498 -0.01528 -0.0060728 -0.022843 
0.084684 0.24943 0.28593 -0.12807 -0.011334 -0.0022913 0.024673 -0.0406 
0.038319 0.37931 0.48322 -0.10472 0.01267 0.018096 0.039799 -0.02087 
-0.025309 0.41253 0.23118 -0.0078813 0.052952 0.053609 0.066105 -0.001798 
-0.07266 0.3512 -0.26634 0.11313 0.092411 0.067749 0.087972 0.12677 
-0.11196 0.23266 -0.45311 0.1784 0.095042 0.08978 0.14289 0.16311 
-0.091897 0.12924 -0.34279 0.18761 0.094384 0.082546 0.1465 0.20882 
-0.093048 0.067913 -0.12379 0.1539 0.079258 0.090274 0.13713 0.19353 
-0.038462 -0.004593 0.088136 0.040292 0.057227 0.048841 0.10918 0.12135 
0.03799 -0.080388 0.10589 -0.0036066 0.025001 0.034866 0.062323 -0.0052507 
0.036182 -0.056712 0.00297 0.083368 0.039963 0.046211 0.021549 -0.079566 
0.012835 0.038319 -0.04471 0.15489 0.04654 0.043745 -0.0040998 -0.081868 
0.024837 0.091918 0.18004 0.11083 0.031414 0.034209 -0.043888 -0.063946 
0.066763 0.067913 0.32489 0.10145 0.028125 0.0060938 -0.041915 -0.041586 
0.023193 0.11411 -0.075949 0.12398 0.016123 -0.022514 -0.042408 -0.046354 
0.046046 0.16952 -0.14796 -0.014293 -0.051944 -0.029913 -0.0050863 -0.021692 
0.068736 0.18185 0.10211 -0.092226 -0.095021 -0.058356 -0.022679 -0.017253 
0.02681 0.16229 0.10228 -0.17624 -0.060494 -0.045368 -0.026131 0.097015 
-0.016266 0.13565 -0.27818 -0.12544 -0.0032777 -0.018897 0.0026412 0.15768 
-0.036654 0.063474 -0.38209 0.0059294 0.039141 0.015959 0.032893 0.17593 
-0.02087 -0.043724 -0.055232 -0.015116 0.048348 0.03536 0.048841 0.17741 
-0.011992 -0.12922 0.26307 -0.023007 0.04654 0.05065 0.069064 0.20701 
0.036017 -0.28886 0.54981 -0.073811 0.033387 0.042594 0.080244 0.17265 
0.097015 -0.47778 0.74086 -0.12544 -0.016595 0.053445 0.092082 0.18383 
0.1276 -0.43059 0.60555 -0.10489 -0.052273 0.00033937 0.076299 0.083862 
0.066598 -0.15964 0.27031 -0.079237 -0.0036066 0.034044 0.038319 -0.13645 
-0.0016336 0.15686 -0.13991 0.036182 0.080244 0.053774 -0.051615 -0.3931 
-0.06444 0.38277 -0.47416 0.17478 0.14321 0.079258 -0.049314 -0.42401 
-0.054246 0.439 -0.48189 0.28362 0.17741 0.11231 0.0067515 -0.17969 
-0.063124 0.35449 -0.38077 0.25074 0.15555 0.10836 0.091096 0.15357 
-0.054082 0.22904 -0.30679 0.14305 0.11231 0.11 0.15341 0.3193 
-0.031721 0.088465 -0.29906 0.05476 0.053609 0.056898 0.1276 0.35925 
0.045718 -0.048492 -0.133 -0.069208 0.0062583 0.0011614 0.099974 0.26801 
0.070544 -0.17936 0.5166 -0.1159 -0.0072237 -0.013307 0.056569 0.15999 
0.082546 -0.30021 1.1897 -0.045368 0.010862 -0.0088678 0.030427 0.061666 
0.10721 -0.2693 1.0986 -0.041422 -0.02942 -0.0095255 -0.0013048 -0.023665 
0.11214 -0.12379 0.43324 -0.01232 -0.067564 -0.03912 -0.038462 -0.079072 
0.10162 0.0689 -0.19071 0.021384 -0.064604 -0.048656 -0.051287 -0.13892 
0.092411 0.10819 -0.42483 0.064296 -0.038627 -0.033201 -0.042901 -0.23362 
0.095535 0.08304 -0.2402 -0.036818 -0.058192 -0.059178 -0.061645 -0.21619 
0.0592 0.067256 -0.0090322 -0.10012 -0.030406 -0.004593 0.0047785 -0.11574 
0.043909 0.098659 0.040621 -0.085813 -0.0029489 0.0092177 -0.0052507 -0.0049219 
0.026152 0.061666 -0.1986 -0.030735 0.035031 0.024015 -0.010512 0.065118 
0.022535 0.015959 -0.31468 0.065612 0.064461 0.047526 0.027139 0.12349 
-0.0004827 -0.1159 -0.16062 0.11296 0.079916 0.061666 0.067913 0.11674 
-0.010676 -0.1062 0.23841 0.10639 0.079916 0.06742 0.068242 0.072188 
-0.004593 -0.023994 0.74119 0.042758 0.084684 0.070708 0.048677 0.014643 
0.011848 0.061995 0.80548 -0.0050863 0.06035 0.052787 0.039305 0.01152 
0.038155 0.087643 0.4168 -0.004593 0.053445 0.04654 0.04506 -0.014787 
0.085012 0.093726 -0.065919 -0.026296 0.033387 0.038319 0.039963 -0.026953 
0.12168 0.11543 -0.39475 -0.00031829 0.007738 0.031907 0.010862 -0.057863 
0.072024 0.21408 -0.47909 0.079094 0.01415 0.010697 -0.015116 -0.042408 
-0.011334 0.25107 -0.27111 0.13861 0.027796 -0.0029489 -0.019226 -0.013307 
-0.036983 0.24318 0.0069159 0.09833 -0.0031133 -0.03057 -0.001798 -0.017746 
-0.056712 0.21605 0.14634 0.038483 0.00083261 -0.019061 0.070215 -0.047012 
-0.0016336 0.13483 0.1197 0.028125 -0.011334 -0.01232 1.0539e-005 -0.036489 
0.094548 0.091753 -0.0091966 -0.031064 0.0082312 -0.0095255 -0.0087034 -0.0087034 
0.041772 0.012506 0.025824 -0.094856 0.057227 0.025988 0.021384 -0.012485 
0.088136 -0.072332 0.13236 -0.097158 0.090109 0.068407 0.050157 0.031414 
0.1465 -0.23905 0.19484 -0.021199 0.076134 0.053116 0.046868 -0.024487 
0.15489 -0.21208 0.074161 0.047362 0.066269 0.065447 0.026974 -0.0024557 
0.095206 -0.017417 -0.0040998 0.10014 0.03651 0.050979 0.018589 -0.0067304 
0.018754 0.1858 -0.25549 0.1978 0.030427 0.02829 0.016616 0.015794 
0.016616 0.21539 -0.59582 0.2394 0.0028056 -0.00081153 -0.024323 0.00297 
0.0032988 0.20619 -0.47301 0.20109 -0.016924 -0.024158 0.0024767 0.05772 
-0.047834 0.37274 -0.079401 0.13664 -0.0082102 -0.0090322 0.024673 0.077614 
-0.1039 0.54373 0.20536 -0.0050863 0.0039565 0.0024767 0.027139 0.1539 
-0.065919 0.36994 0.43225 -0.084663 0.025495 0.023851 0.03651 0.12595 
0.045224 -0.01232 0.29875 -0.043395 0.049335 0.053445 0.01563 0.091425 
0.1271 -0.24924 0.097015 0.037004 0.061337 0.052787 0.042758 0.047362 
0.15144 -0.25417 0.26899 -0.017911 0.055254 0.041607 0.045718 0.044402 
0.11576 -0.15405 0.5018 -0.057863 0.022042 0.029934 0.040128 0.037661 
0.023851 -0.010841 0.43028 0.017603 0.057391 0.041936 0.023028 0.077285 
-0.02498 0.051472 0.27031 0.027796 0.063639 0.034702 0.035195 0.083368 
-0.024323 0.061008 0.03799 0.067091 0.056898 0.040292 0.041936 0.11395 
-0.012978 0.053938 -0.4689 0.13993 0.058871 0.03092 0.017274 0.048513 
0.019411 0.08008 -0.99814 0.22657 0.057555 0.03799 0.011355 0.00050378 
0.11839 0.032071 -1.1808 0.25239 0.012013 -0.0073881 0.011848 -0.065426 
0.19681 0.012177 -0.90328 0.19435 -0.024652 -0.050464 -0.011334 -0.062796 
0.16031 0.19057 -0.41415 0.11888 -0.063453 -0.030242 0.033058 0.0052718 
0.045553 0.38408 -0.18709 0.023357 -0.031064 -0.020212 0.06331 0.10178 
-0.038627 0.44705 -0.157 0.0018191 0.0028056 0.0047785 0.049006 0.14617 
-0.073976 0.38277 -0.014293 0.024179 0.072353 0.06331 0.087479 0.15127 
-0.091732 0.35087 0.19468 -0.010183 0.10836 0.090767 0.10014 0.14897 
-0.046354 0.17084 0.63284 -0.1159 0.078107 0.092411 0.11247 0.14848 
0.020233 -0.18265 1.275 -0.17739 0.019083 0.020891 0.058049 0.065612 
0.058213 -0.43733 1.3303 -0.13974 -0.0036066 -0.024158 0.031085 0.017932 
0.064954 -0.47745 0.63596 -0.006566 0.0067515 -0.014129 -0.0138 0.00050378 
0.077449 -0.45262 0.26389 0.14289 -0.01117 -0.024323 -0.0138 0.013657 
0.055254 -0.36548 0.32128 0.1493 -0.020377 -0.00015387 0.0080668 0.016452 
0.066763 -0.32997 0.25469 0.023851 0.013986 -0.0062372 0.0080668 0.0024767 
0.064461 -0.16276 -0.28344 -0.06855 0.041607 0.030592 0.019576 0.037661 
0.033058 0.012013 -0.62262 -0.15141 0.052459 0.047526 0.048184 0.051143 
0.032236 0.067749 -0.595 -0.072496 0.063145 0.029605 0.055418 0.030592 
0.040456 0.066269 -0.45821 0.089452 0.088465 0.062159 0.054925 0.0092177 
0.020233 0.14749 -0.25105 0.26735 0.031085 0.063968 0.029276 0.019247 
0.0080668 0.27179 -0.18808 0.24252 0.068078 0.050979 0.029769 0.022864 
-0.0027845 0.26044 -0.16292 0.12118 0.049664 0.0095465 0.033715 -0.02646 
0.016945 0.19369 -0.10423 -0.020212 -0.013471 -0.017582 0.00297 -0.030735 
0.041772 0.078929 0.39115 -0.093705 -0.035503 0.00099702 0.019247 -0.023829 
0.042923 0.088794 0.78624 -0.078086 -0.031557 -0.028269 -0.0073881 -0.033694 
-0.0024557 0.1105 0.45626 -0.073976 -0.015116 0.00033937 0.016288 0.038648 
-0.025967 0.062159 0.071859 0.0090533 0.0079024 0.010862 0.031742 0.07597 
-0.014129 -0.0013048 -0.076113 0.080409 0.0018191 0.0016547 0.046211 0.10211 
-0.024652 -0.016924 -0.09798 0.074983 0.020727 0.01267 0.031249 0.083533 
0.018589 -0.048163 0.0052718 0.012342 -0.017746 -0.0087034 0.027303 0.080409 
0.023357 -0.039942 0.039141 -0.025638 -0.0044286 -0.0138 0.029605 0.075312 
-0.020541 0.027303 0.14206 -0.011498 0.056733 0.020891 0.043251 0.081231 
-0.016102 0.0087245 0.29119 -0.047176 0.086492 0.05065 0.063145 0.047855 
-0.0034422 -0.051122 0.22904 -0.06707 0.058542 0.047855 0.077943 0.11231 
0.0074092 -0.03057 0.038812 0.011684 0.037497 0.03536 0.072353 0.17265 
1.0539e-005 0.050157 -0.12494 0.072681 0.057391 0.034209 0.11 0.22312 
-0.0019624 0.027796 0.052623 0.066927 0.041443 0.044731 0.091096 0.18432 
0.020069 -0.046847 0.090274 0.077449 0.028783 0.026974 0.08156 0.091753 
0.045882 -0.017417 -0.091404 0.044896 0.036839 0.048019 0.055747 -0.043724 
0.054432 0.052952 -0.049642 -0.011005 0.02829 0.024344 0.024015 -0.089924 
0.061337 -0.011827 0.063639 -0.023336 0.013492 0.0036276 -0.012814 -0.11557 
0.06479 -0.049314 0.14733 0.010204 0.020562 0.0026412 -0.047834 -0.15996 
0.072681 -0.088773 0.48043 -0.06296 0.0046141 -0.0011404 -0.023007 -0.26831 
0.083697 -0.017911 0.61393 -0.058192 -0.00097594 0.012506 -0.049478 -0.28196 
0.088136 0.26143 -0.024652 0.010533 0.0090533 -0.017088 -0.07003 -0.23099 
0.03092 0.51249 -0.57774 0.12003 0.057227 0.030592 -0.051944 -0.088608 
-0.062138 0.49687 -0.48057 0.12562 0.054103 0.02122 -0.0062372 0.06594 
-0.07825 0.34265 -0.18578 0.074654 0.039634 0.020727 0.028125 0.1733 
-0.056712 0.12233 -0.065262 0.078107 0.046868 0.049828 0.026974 0.19007 
-0.015938 -0.070359 0.13138 0.027632 0.057062 0.056733 0.012342 0.15324 
0.056569 -0.17805 0.15653 0.0098754 0.039305 0.038812 0.034702 0.095371 
0.043251 -0.13399 -0.075784 0.022864 0.036346 0.018096 0.03947 0.07597 
0.0056006 -0.01939 -0.20814 0.01974 0.037168 0.027303 0.076792 0.09685 
0.01004 0.075312 -0.16407 0.027303 0.025659 0.027468 0.051143 0.076627 
-0.022679 0.2514 -0.11574 0.055747 0.020398 0.0019835 0.047362 0.10721 
-0.04323 0.39477 -0.20468 0.11987 0.053609 0.038155 0.075312 0.12842 
0.029769 0.20553 -0.26174 0.10902 0.08863 0.067585 0.11658 0.089123 
0.13171 -0.18019 -0.02942 0.097344 0.07449 0.0786 0.12102 0.0054362 
0.12414 -0.27259 0.17232 0.1271 0.053445 0.062159 0.071859 -0.045696 
0.1003 -0.16703 0.34692 0.053445 0.07597 -0.02646 0.042594 -0.053917 
0.090274 -0.036654 0.43127 -0.0026201 0.0024767 0.0028056 -0.0042642 -0.048163 
0.048184 0.10162 0.21802 -0.024158 0.019411 0.0047785 0.0044497 -0.018404 
0.044896 0.31651 -0.095514 -0.048163 0.019411 0.045389 0.020233 0.038155 
-0.0057439 0.35366 -0.42566 -0.058028 0.04654 0.04506 0.044073 0.046046 
0.0044497 0.32358 -0.59763 -0.017911 0.038977 0.019576 0.014808 0.011684 
0.01152 0.24088 -0.44966 0.061008 0.043416 0.024344 0.0031344 -0.052602 
0.019905 0.14058 -0.12757 0.059035 0.0592 0.047526 0.0060938 -0.0406 
0.031249 -0.066248 0.19533 0.10063 0.050321 0.045718 0.011355 -0.046847 
0.073175 -0.25861 0.22674 0.17117 0.040456 0.033715 -0.019226 -0.04323 
0.10935 -0.31829 0.11066 0.18547 0.0069159 -0.006566 -0.051451 -0.032872 
0.13384 -0.27061 0.44656 0.10228 -0.028762 -0.035503 -0.024652 0.040292 
0.11872 -0.21915 0.96183 -0.045039 -0.067235 -0.046847 0.0059294 0.08419 
0.11214 -0.11212 1.1047 -0.11541 -0.0868 -0.062796 0.02122 0.10524 
0.069722 0.11757 0.39592 -0.17098 -0.075291 -0.064933 0.013657 0.098823 
-0.0014692 0.38885 -0.58958 -0.085485 -0.035667 -0.019555 0.017767 0.082053 
-0.03616 0.4408 -0.95425 0.042758 0.025001 0.013492 0.029112 0.0062583 
-0.066084 0.42683 -0.54847 0.094713 0.040292 0.029769 0.0013258 -0.034681 
-0.034516 0.31108 0.20898 0.061337 0.064296 0.065283 0.051472 -0.044217 
0.070215 0.021549 0.4214 -0.03764 0.074654 0.080409 0.080573 -0.040271 
0.15127 -0.22145 -0.01528 -0.024158 0.11576 0.077121 0.10655 -0.0042642 
0.13845 -0.23379 -0.36581 0.074326 0.15176 0.079422 0.10326 0.067585 
0.095042 -0.10604 -0.352 0.183 0.14897 0.080738 0.03947 0.06479 
0.056898 -0.030077 -0.084827 0.22328 0.096521 0.08156 0.020727 0.043087 
0.055254 -0.0072237 0.0082312 0.17199 0.04917 0.061995 -0.0095255 0.0023123 
0.058049 -0.04323 -0.34345 0.12431 0.0074092 0.02681 0.0079024 0.0098754 
0.064954 -0.094856 -0.48863 0.091096 -0.028597 0.0016547 0.010369 -0.003771 
0.050321 -0.02794 0.16607 -0.01676 -0.039778 0.0031344 0.050486 0.040128 
0.031742 0.036839 1.3594 -0.22836 -0.057041 -0.0091966 0.094548 0.16969 
0.018918 0.0034632 1.495 -0.3109 -0.07003 -0.021199 0.08008 0.25485 
0.0093821 0.059857 0.57875 -0.1889 -0.050958 -0.0039354 0.070544 0.19813 
-0.03057 0.10573 -0.013143 -0.052931 -0.05589 -0.030899 0.024015 0.12908 
-0.00064712 0.085177 0.10211 -0.0098543 -0.07414 -0.05885 -0.049478 0.026974 
0.081724 -0.049642 0.27425 -0.011992 -0.045368 -0.043724 -0.068386 -0.042901 
0.1008 -0.18298 0.17084 0.00017495 0.017603 0.012342 -0.0073881 -0.038627 
0.045224 -0.18446 -0.067399 0.030592 0.058871 0.040456 0.038812 -0.074962 
0.064461 -0.045039 -0.27292 0.11083 0.08008 0.03947 0.0026412 -0.36203 
0.028125 0.13302 -0.4227 0.18448 0.091096 0.057884 -0.034023 -0.45722 
-0.02942 0.20849 -0.4444 0.17824 0.088136 0.076792 0.04358 -0.085156 
-0.079895 0.21687 -0.3229 0.13171 0.061337 0.097015 0.041443 0.23364 
-0.046519 0.22509 -0.082525 0.056569 0.035853 0.051636 -0.048985 0.23397 
-0.02942 0.19418 0.11329 0.025824 0.034373 0.043416 -0.023665 0.14864 
-0.011498 0.12579 0.23611 -0.029748 0.034044 0.028454 0.033387 0.2024 
0.033715 0.046868 0.14749 -0.0060728 0.035031 0.032564 0.067749 0.26389 
0.041936 0.0093821 -0.043066 0.039634 0.032893 0.061337 0.077614 0.25748 
0.011684 0.11231 -0.10883 0.034702 0.034044 0.044402 0.066598 0.18333 
-0.0014692 0.066105 -0.0013048 0.051965 0.028125 0.022864 0.057555 0.12381 
-0.0040998 0.032729 0.2024 0.093726 0.040292 0.019083 0.052787 0.040128 
0.024508 -0.051122 0.25781 0.099974 0.057884 0.039634 -0.0080457 -0.01939 
0.04358 -0.098802 0.20865 0.042758 0.065283 0.045224 -0.012814 -0.0503 
0.062159 -0.12018 0.37471 -0.068386 0.071366 0.067256 0.010204 -0.03205 
0.077614 -0.09239 0.6455 -0.18397 0.043416 0.044402 0.014808 -0.13185 
0.073339 -0.04471 0.36945 -0.1598 0.013986 0.017932 -0.0040998 -0.25713 
0.032564 0.099974 -0.16835 -0.031392 -0.017582 0.0037921 -0.010676 -0.33967 
0.024015 0.18037 -0.55373 0.093891 -0.031557 -0.010183 -0.03764 -0.17262 
0.0044497 0.2024 -0.73031 0.062981 -0.034516 -0.023665 -0.01117 0.034866 
-0.02794 0.22641 -0.68707 0.11477 0.01267 0.020069 0.026974 0.19961 
-0.10702 0.36468 -0.62887 0.26044 0.062159 0.063474 0.064461 0.23167 
-0.10242 0.3729 -0.52085 0.30335 0.079751 0.083697 0.093069 0.23019 
-0.071181 0.23973 -0.29396 0.12957 0.10326 0.095864 0.095699 0.14223 
-0.004593 0.023193 -0.023829 0.044567 0.12973 0.098001 0.081067 0.097837 
0.045718 -0.12692 0.34002 0.058871 0.12628 0.076956 0.070544 0.063639 
0.062652 -0.19202 0.5799 -0.00015387 0.053445 0.027796 0.042265 0.023851 
0.085177 -0.16194 0.40167 -0.039613 -0.02646 -0.017417 -0.0080457 -0.011334 
0.075148 -0.16177 0.33213 -0.10571 -0.069536 -0.042244 -0.03353 0.010369 
0.057555 -0.14287 0.63744 -0.16325 -0.04323 -0.025474 -0.019061 0.030427 
0.072846 -0.12708 0.89015 -0.16029 -0.022514 -0.010019 -0.0055795 0.048513 
0.090274 -0.1113 0.8964 -0.15898 -0.037476 -0.014129 0.032893 0.066598 
0.09274 0.023686 0.42321 -0.086964 -0.059014 -0.02794 0.050157 0.14765 
0.044896 0.19188 -0.36499 0.014315 -0.052437 -0.02087 0.056404 0.17182 
-0.0036066 0.33673 -0.97677 0.16673 0.00033937 0.020398 0.040785 0.14617 
-0.050958 0.39329 -1.1867 0.30878 0.082382 0.053116 0.049335 0.060022 
-0.085813 0.35317 -0.88815 0.28806 0.1179 0.083204 0.080573 0.00017495 
-0.067728 0.2029 -0.18512 0.089452 0.075476 0.072024 0.062652 -0.047998 
-0.021856 0.058377 0.2246 -0.045532 0.050321 0.043416 0.027303 -0.083347 
0.021056 -0.088115 0.21441 -0.0070593 0.043745 0.016123 -0.0016336 -0.21915 
0.11937 -0.15076 0.018589 0.027632 0.053445 0.014972 -0.05326 -0.35134 
0.15851 -0.14319 -0.23231 0.086821 0.058871 0.018425 -0.047998 -0.29051 
0.099152 -0.039449 -0.36992 0.13171 0.086657 0.054432 -0.038462 -0.020541 
0.018754 0.0092177 -0.35167 0.11296 0.12003 0.065283 -0.0049219 0.16952 
0.010697 0.081889 -0.31386 0.071366 0.10803 0.060022 -0.014129 0.19533 
0.045224 0.12497 -0.26519 0.054925 0.074326 0.047197 0.0087245 0.16903 
0.050157 -0.069701 -0.071181 -0.0055795 0.013492 0.039634 0.063803 0.09833 
0.081889 -0.16062 0.24663 -0.089266 -0.040928 -0.0082102 0.043745 0.092904 
0.10573 -0.15092 0.69186 -0.16144 -0.093541 -0.051122 0.0088889 0.01152 
0.038483 -0.03353 1.3337 -0.18611 -0.1062 -0.069701 0.016123 -0.04323 
0.015465 0.11247 1.68 -0.21488 -0.087951 -0.028926 0.055582 -0.058028 
0.055089 0.14009 1.3286 -0.17871 -0.050958 -0.024158 0.072846 -0.034188 
0.077778 0.028619 0.38507 -0.036983 -0.037311 -0.015609 0.032729 -0.034023 
0.086985 -0.052109 -0.8089 0.13795 -0.0013048 -0.025638 0.0074092 -0.014129 
0.081067 -0.066577 -1.2295 0.18629 0.02829 -0.018568 0.0037921 0.0079024 
0.059364 -0.10587 -0.47416 0.14058 0.043909 0.0080668 0.015959 0.071531 
0.014972 -0.076442 0.65158 0.088301 0.038648 0.017932 0.029934 0.090931 
-0.012814 0.081889 0.90001 -0.034188 0.029605 0.02122 0.011355 0.11609 
0.012835 0.15111 0.15999 -0.022843 0.0227 0.01415 0.0039565 0.096193 
0.039799 0.076627 -0.46544 0.020727 0.047362 0.035688 -0.012814 0.092082 
0.081724 -0.11327 -0.50145 0.03651 0.064132 0.031249 -0.017417 0.04917 
0.072517 -0.17657 -0.31862 0.062488 0.057227 0.062323 0.0032988 0.023686 
0.024179 0.0090533 -0.29659 0.087314 0.055747 0.049335 -0.004593 0.0019835 
0.0028056 0.20734 -0.20945 0.079751 0.039141 0.031907 -0.02498 0.01711 
0.014972 0.20487 0.037497 -0.0095255 0.030592 0.029276 -0.047998 0.021549 
0.030263 0.10918 0.2514 -0.071838 0.028454 0.018589 -0.026131 0.069722 
0.017932 0.084519 0.16097 -0.091568 0.055254 0.05213 0.045389 0.073339 
0.0013258 0.12825 -0.031886 -0.035667 0.074326 0.064296 0.078929 0.024508 
0.0026412 0.15275 -0.14829 0.08567 0.10392 0.071366 0.088465 -0.019226 
0.027796 0.18448 -0.33194 0.1756 0.099645 0.061008 0.076299 -0.024652 
0.01415 0.20076 -0.33046 0.2075 0.060186 0.02681 0.083533 0.0014903 
-0.0057439 0.17758 0.064954 0.12085 0.023686 0.025988 0.077943 0.058213 
-0.045696 0.14239 0.48207 0.039141 -0.0090322 0.0051074 0.048184 0.086492 
0.027303 -0.044546 0.98041 -0.037147 -0.017253 -0.0096899 0.062488 0.071695 
0.092411 -0.24382 1.1665 -0.089759 -0.011498 -0.013307 0.01152 0.048348 
0.09685 -0.2328 0.66835 -0.044052 0.031085 0.02681 0.0093821 -0.011498 
0.062159 -0.036983 0.22263 -0.03616 0.060844 0.042265 0.0041209 -0.070194 
0.033715 0.13795 0.0036276 0.024344 0.042594 0.027468 -0.019719 -0.060494 
0.025001 0.26242 -0.40741 0.068242 0.040128 0.031249 0.013164 -0.0090322 
-0.010183 0.30368 -0.76665 0.16722 0.034209 0.038483 0.067256 0.098494 
-0.022843 0.22592 -0.68 0.18646 0.010697 0.026152 0.078929 0.13384 
0.059693 0.064954 -0.35052 0.044567 -0.044381 -0.0083746 0.049664 0.1003 
0.10622 -0.095021 -0.080717 -0.02942 -0.056055 -0.040106 0.022864 0.068242 
0.084519 -0.18742 0.16146 -0.024158 -0.021528 -0.027775 0.016781 0.063968 
0.048019 -0.17871 0.25387 0.026974 0.0090533 -0.031721 0.0034632 0.026646 
-0.01939 -0.036489 0.19731 0.0093821 0.034209 0.016288 0.042265 0.023357 
-0.06296 0.23611 -0.08269 0.048348 0.089123 0.072353 0.038483 0.03388 
-0.086471 0.37553 -0.41119 0.18465 0.1077 0.09274 0.0592 0.011848 
-0.074798 0.42502 -0.46939 0.1373 0.10721 0.1031 0.040785 0.035031 
-0.032872 0.33311 -0.35677 0.097179 0.074654 0.052787 0.020727 0.049992 
-0.014129 0.19796 -0.26026 0.08863 0.070051 0.038812 0.026317 0.057062 
0.023357 0.10063 -0.21751 0.11642 0.09274 0.066434 0.01267 0.021056 
0.017274 0.0072447 -0.1986 0.19747 0.098001 0.069064 0.045718 0.043251 
0.014643 -0.057534 0.088958 0.15867 0.072681 0.072681 0.057884 0.0019835 
0.064132 -0.1478 0.86187 -0.021199 0.027796 0.025001 0.040621 -0.023172 
0.12332 -0.16506 1.0888 -0.21767 -0.038791 -0.03057 0.047855 -0.086964 
0.14058 -0.05441 0.36715 -0.25861 -0.09091 -0.047998 0.0018191 -0.098144 
0.10178 0.010369 -0.26634 -0.086471 -0.069865 -0.048985 0.0041209 -0.085978 
0.057555 0.019247 -0.42385 0.084848 -0.0026201 -0.02087 -0.017911 -0.03764 
-0.015444 0.096193 -0.43338 0.1613 0.019411 0.0034632 -0.011005 -0.0057439 
-0.047998 0.19665 -0.52891 0.11658 0.0019835 0.019905 0.05213 0.026317 
-0.059836 0.26307 -0.42664 0.10491 0.013821 0.044238 0.041772 0.05772 
-0.059836 0.20832 -0.1667 0.048348 0.044073 0.056569 0.062817 0.099645 
-0.021199 0.14683 0.22427 0.032071 0.092082 0.066269 0.085999 0.10803 
0.012835 0.038977 0.53863 0.039963 0.10721 0.087314 0.077285 0.12201 
0.022535 -0.050793 0.41812 -0.025309 0.10063 0.088465 0.12118 0.10852 
0.046046 -0.19679 0.2634 -0.074962 0.047197 0.063803 0.11559 0.11033 
0.073832 -0.33063 0.2491 -0.082196 -0.0036066 0.01267 0.076299 0.07597 
0.085835 -0.2744 0.20586 -0.076606 -0.012156 -0.017911 0.034044 0.069886 
0.062323 -0.04323 0.077449 -0.056383 -0.0138 -0.025802 0.053938 0.064954 
-0.0021268 0.17626 -0.19252 0.037826 0.023851 0.010697 0.069722 0.056569 
-0.024816 0.22953 -0.25779 0.13088 0.031742 0.029769 0.032564 0.026152 
0.0079024 0.11296 -0.12971 0.14552 0.025659 0.01267 -0.0029489 -0.017746 
0.035688 -0.047505 -0.052602 0.13236 0.012177 0.022042 -0.0138 -0.031064 
0.027632 -0.11639 -0.1672 0.14157 0.0087245 0.011355 0.013328 0.034537 
0.061501 -0.10406 -0.34542 0.071037 -0.0052507 0.010204 0.039963 -0.0055795 
0.1174 -0.073976 -0.10784 -0.028104 -0.0031133 0.0082312 0.044238 -0.040928 
0.12316 0.10113 0.38211 -0.11426 -0.017582 -0.011498 0.034373 -0.052273 
0.073339 0.33262 0.81057 -0.15273 -0.02942 -0.026296 -0.017253 -0.054246 
0.0042853 0.43554 0.50164 -0.17706 -0.035832 -0.048163 -0.03353 -0.041751 
-0.031721 0.32769 -0.1284 -0.14911 -0.021856 -0.031228 -0.0057439 0.038812 
-0.0070593 0.022371 -0.13349 -0.072003 0.021384 0.010533 0.043745 0.12151 
0.033058 -0.18084 0.13171 -0.010019 0.034702 0.031414 0.095535 0.15571 
0.069229 -0.27456 0.29579 -0.021363 0.048513 0.037497 0.091753 0.14897 
0.12069 -0.15783 0.24104 0.03799 0.052787 0.044073 0.035688 0.09685 
-0.0019624 0.072353 -0.075291 0.1562 0.060515 0.057391 0.10737 0.083862 
-0.06296 0.32752 -0.26552 0.16048 0.041936 0.051636 0.087808 0.075476 
-0.030735 0.30451 -0.21998 0.090931 0.041772 0.0079024 0.089123 0.096357 
0.0065871 0.12316 0.033715 0.0021479 0.035688 0.018589 0.045882 0.089616 
0.058871 -0.03501 0.084519 -0.0036066 0.058706 0.056898 0.044238 0.091425 
0.11576 -0.16079 0.042594 0.011355 0.060186 0.034209 0.055254 0.031907 
0.14453 -0.25417 -0.02235 0.004943 0.050979 0.012835 0.015794 -0.043066 
0.11773 -0.28854 -0.14517 0.064625 0.026152 -0.0068948 0.0062583 -0.085156 
0.089616 -0.36334 -0.049478 0.069064 -0.021034 -0.018897 -0.0062372 -0.043066 
0.098823 -0.35479 0.10096 0.032729 -0.071345 -0.052109 -0.025309 -0.065426 
0.097508 -0.12462 0.22838 0.00083261 -0.06 -0.037147 -0.027282 -0.06444 
0.038977 0.10573 0.56724 -0.045861 -0.016266 0.005765 -0.039284 -0.069536 
0.020562 0.20586 0.92714 -0.042901 0.042265 0.039141 0.0044497 0.0023123 
-0.0057439 0.21112 0.68151 -0.0032777 0.063474 0.049499 0.023522 -0.00081153 
0.0023123 0.27064 0.14223 0.062159 0.065118 0.047855 0.022371 0.0092177 
-0.025802 0.29563 -0.36532 0.092576 0.089945 0.068736 0.044238 0.01974 
-0.041751 0.34742 -0.6246 0.14042 0.089616 0.066763 0.031742 0.073339 
-0.031392 0.35054 -0.53055 0.14256 0.054432 0.034373 0.012342 0.090438 
-0.0032777 0.25173 -0.29544 0.074326 0.01974 0.018096 -0.0050863 0.048841 
0.065447 0.016616 -0.047341 0.06594 0.019411 0.013657 -0.0064016 0.0031344 
0.12694 -0.21751 -0.0073881 0.091589 0.0021479 0.024179 -0.0080457 -0.011334 
0.14716 -0.25269 0.036182 0.00083261 -0.011992 -0.01676 -0.037147 -0.037311 
0.10376 -0.11311 0.12644 -0.038791 -0.018568 -0.023665 -0.0095255 0.0067515 
0.022864 0.027139 0.15341 -0.0021268 0.025824 0.0028056 0.020727 0.027961 
-0.0039354 0.06479 0.36452 0.043087 0.047033 0.031578 0.036839 0.027796 
-0.0073881 0.04917 0.60999 0.063145 0.071859 0.055254 0.041443 0.014643 
0.0013258 0.10063 0.55244 0.096521 0.089287 0.065612 0.016288 -0.011498 
0.01826 0.10474 0.18662 0.11411 0.06035 0.063639 0.010204 -0.055397 
0.018754 0.064296 -0.36647 0.094384 0.021878 0.017603 0.0019835 -0.048492 
0.034537 0.084355 -0.74149 -0.01528 -0.03353 -0.058028 -0.017911 -0.024323 
0.035524 0.15374 -0.71683 -0.0095255 -0.024158 0.0031344 -0.0055795 -0.00064712 
0.012013 0.12414 -0.60388 0.085835 0.031907 0.034702 0.0034632 0.075641 
0.0037921 0.070051 -0.69464 0.18267 0.072681 0.0689 -0.0044286 0.10803 
0.021878 0.0082312 -0.67129 0.21375 0.076792 0.075641 -0.018075 0.064296 
0.059035 -0.12462 0.13417 0.12069 0.041278 0.01974 -0.036818 -0.013471 
0.083368 -0.17493 1.3661 -0.093705 0.013821 0.0023123 -0.047505 -0.057699 
0.088136 -0.16111 2.0363 -0.25713 0.0056006 -0.0040998 -0.029748 -0.029255 
0.053938 -0.064111 1.6022 -0.18348 0.032893 0.0064227 0.0090533 0.033222 
-0.032215 0.0064227 0.45314 0.0074092 0.072024 0.0592 0.030263 0.092411 
-0.060494 0.082053 -0.42072 0.10293 0.083368 0.062981 0.074161 0.14108 
-0.013471 0.0044497 -0.78523 0.16525 0.06594 0.074983 0.073504 0.13203 
0.022371 0.1197 -0.94191 0.20684 0.058213 0.044731 0.037497 0.11346 
0.0075736 0.26784 -1.0943 0.10869 0.017932 0.019083 -0.02087 0.096521 
0.019247 0.38967 -0.984 0.033715 -0.028762 -0.025474 -0.0075525 0.08419 
0.027796 0.3147 -0.42023 0.0023123 -0.055068 -0.022514 -0.016924 0.091096 
-0.013636 0.27557 0.13483 -0.036325 -0.047505 -0.014293 -0.0054151 0.089287 
-0.06296 0.29892 0.26422 -0.041257 -0.018568 0.0016547 0.017274 0.091425 
-0.070359 0.25206 0.51052 -0.016595 0.0019835 0.022206 0.017274 0.12332 
-0.042079 0.089123 0.85233 -0.028762 0.02122 0.031578 0.051965 0.10063 
-0.008539 0.0037921 0.76848 -0.047505 0.059528 0.090931 0.048841 0.020398 
0.0083956 0.055747 0.30862 0.060186 0.12908 0.11214 0.025988 -0.17558 
0.011355 0.08715 -0.33835 0.16475 0.13253 0.10655 0.02829 -0.24447 
0.08715 -0.071509 -0.81203 0.16623 0.088958 0.058706 0.046375 -0.087458 
0.15933 -0.38636 -0.66603 0.030592 -0.0052507 -0.024323 0.091425 0.22246 
0.1853 -0.5271 0.40184 -0.20567 -0.086142 -0.037476 0.097344 0.36221 
0.13154 -0.37321 1.2935 -0.32109 -0.0771 -0.03057 0.076956 0.36682 
0.024344 -0.057699 0.99192 -0.2568 -0.017417 0.01415 0.099481 0.32226 
-0.033037 0.16114 0.22509 -0.052766 0.036839 0.020398 0.068242 0.22263 
-0.049149 0.25271 -0.26124 0.13417 0.039799 0.015794 0.044567 0.026317 
-0.010676 0.27294 -0.44654 0.15604 0.022535 0.020069 -0.025145 -0.24184 
0.023851 0.23973 -0.425 0.12053 -0.0016336 0.0016547 -0.10982 -0.52562 
0.055254 0.14552 -0.47202 0.11132 0.0098754 -0.011827 -0.14961 -0.69053 
0.041278 0.044073 -0.62361 0.16508 0.023686 -0.0034422 -0.089595 -0.44719 
0.034866 -0.017746 -0.4176 0.1299 0.028947 0.0085601 0.0041209 0.086492 
0.017603 -0.072332 0.1465 0.023686 0.0060938 0.01563 0.027961 0.35251 
-0.0067304 -0.055232 0.34742 0.020398 0.016781 0.046046 0.028947 0.33459 
-0.012485 -0.025638 0.28889 -0.010512 0.06479 0.070873 0.084684 0.26472 
-0.010019 -0.044874 0.11231 0.015959 0.054925 0.098494 0.13121 0.24482 
-0.027118 0.026152 -0.059672 0.0324 0.058049 0.068078 0.13713 0.16212 
0.0018191 0.085177 0.10277 0.01563 0.042594 0.038155 0.099152 0.013986 
0.059528 0.05624 0.24334 -0.018239 0.019083 0.027468 0.035195 -0.15289 
0.096521 0.042923 -0.15437 0.030263 0.0016547 -0.010183 -0.0029489 -0.19663 
0.088465 -0.010348 -0.35742 0.11855 0.0080668 -0.023994 -0.027447 -0.15996 
0.095535 -0.14073 0.28954 0.065283 0.016123 -0.025145 -0.037969 -0.10439 
0.076299 -0.17887 0.91382 -0.039778 0.020069 0.00099702 0.0044497 -0.050958 
0.054103 -0.042408 0.9375 -0.093705 0.015301 0.013657 0.01004 0.010697 
0.060022 0.10902 0.5799 -0.15816 -0.012485 -0.0026201 0.026481 0.01267 
0.042594 0.21786 0.012342 -0.12675 -0.0027845 0.0052718 0.0421 0.03092 
-0.045039 0.24597 -0.39787 -0.035996 0.033551 0.049828 0.083204 0.077943 
-0.09946 0.34413 -0.5608 0.17889 0.083697 0.059528 0.11198 0.10918 
-0.14385 0.39987 -0.65468 0.30023 0.1368 0.13088 0.087643 0.10622 
-0.13168 0.34396 -0.57642 0.25567 0.11378 0.085012 0.050321 0.044073 
-0.018239 0.10951 -0.3811 0.19336 0.093726 0.05624 0.011684 -0.012156 
0.11905 -0.2425 -0.19696 0.16146 0.094877 0.030427 -0.01117 -0.081868 
0.21523 -0.58284 -0.047341 0.14848 0.044073 -0.0073881 -0.034352 -0.088444 
0.27392 -0.74511 0.15653 0.051143 -0.020212 -0.037311 -0.05885 -0.15799 
0.27623 -0.66356 0.65027 -0.097816 -0.030077 -0.030242 -0.043888 -0.099131 
0.16015 -0.35003 0.86466 -0.16868 -0.010676 -0.0082102 0.01267 -0.090746 
0.08978 0.038648 0.55014 -0.23198 -0.040271 -0.020541 0.031578 -0.07266 
0.067913 0.35219 -0.12659 -0.20633 -0.07003 -0.046354 -0.010512 -0.091897 
0.01415 0.52679 -0.56031 -0.11343 -0.049314 -0.027118 0.0018191 -0.025474 
-0.023336 0.52712 -0.48468 0.010369 -0.0039354 0.0047785 0.054103 0.07038 
-0.035832 0.39296 -0.22359 0.081231 0.045224 0.037004 0.11214 0.19665 
-0.03205 0.31042 -0.027611 0.10606 0.065447 0.048677 0.13253 0.21737 
-0.033694 0.26044 0.025988 0.12809 0.099645 0.066105 0.11362 0.21293 
-0.023994 0.17133 -0.048327 0.13335 0.11148 0.087479 0.084848 0.15735 
-0.019226 0.034209 -0.033694 0.2001 0.1151 0.088136 0.0421 0.12036 
-0.01117 -0.061151 0.049664 0.13713 0.066434 0.041772 0.032564 0.11346 
0.030756 -0.12692 0.01974 0.0592 0.023522 -0.0014692 0.027796 0.12973 
0.039799 -0.1746 -0.11179 0.049335 -0.001798 -0.023665 0.043416 0.14321 
0.03799 -0.17361 -0.19219 0.021384 -0.0073881 -0.00031829 0.04654 0.18826 
0.052294 -0.087458 0.20684 -0.032708 -0.013307 -0.0073881 0.029276 0.1807 
0.049664 0.086657 0.71686 -0.075127 -0.0039354 -0.024323 0.014643 0.13171 
0.05213 0.20109 0.67197 -0.0032777 0.018754 -0.016102 0.011191 0.031907 
0.034044 0.21539 0.23085 0.029605 0.027139 0.0060938 0.0083956 -0.057041 
0.062652 0.10096 0.10754 -0.068714 0.020233 0.024179 -0.02942 -0.1113 
0.12118 -0.013636 0.099974 -0.11409 -0.0013048 -0.0059084 -0.010512 -0.09387 
0.13368 -0.092061 -0.10653 -0.087129 0.00083261 -0.0082102 0.016781 -0.046025 
0.061666 -0.009361 -0.54091 0.030427 0.035195 0.030098 0.085835 0.057227 
-0.023994 0.1881 -0.65682 0.088794 0.061995 0.062159 0.11033 0.09422 
-0.037805 0.38063 -0.38274 0.058049 0.06331 0.068736 0.083204 0.10343 
-0.062796 0.5235 0.044238 -0.028926 0.033387 0.039963 0.074326 0.11083 
-0.076606 0.524 0.46958 0.011026 0.031742 0.024508 0.07449 0.14075 
-0.069536 0.38277 0.26537 0.096357 0.035031 0.017932 0.069558 0.17182 
-0.039778 0.23298 -0.40247 0.15423 0.061995 0.0324 0.071531 0.17495 
-0.020706 0.077614 -0.9623 0.18777 0.052787 0.052787 0.050814 0.13236 
0.0070803 0.0016547 -1.0877 0.27343 0.033058 0.046375 0.040785 0.095535 
0.0067515 -0.05885 -0.47071 0.25288 0.034209 0.044402 0.034044 0.065118 
0.098659 -0.32619 0.56214 0.029934 0.018754 0.0034632 0.026481 0.022371 
0.20175 -0.57281 1.1402 -0.19548 0.019411 -0.0087034 0.041443 -0.021692 
0.20816 -0.69283 1.2374 -0.25039 -0.067892 -0.033365 0.014972 -0.036983 
0.11642 -0.60733 1.1598 -0.27308 -0.090746 -0.032215 0.0090533 0.00297 
0.025166 -0.28854 1.1627 -0.23444 -0.059507 -0.029748 -0.011827 -0.038462 
0.01711 -0.080881 1.0319 -0.11097 -0.0055795 0.016616 -0.003771 -0.071674 
0.059035 0.0056006 0.56642 0.019411 0.055582 0.037168 -0.030899 -0.13662 
0.070873 0.09833 0.00297 0.071531 0.069558 0.066434 -0.010019 -0.1187 
-0.0059084 0.28346 -0.61868 0.13697 0.07597 0.061666 -0.00081153 -0.097487 
-0.060494 0.43176 -0.9355 0.22822 0.085012 0.070051 -0.016595 0.0024767 
-0.051122 0.39954 -0.91577 0.25699 0.08156 0.046211 0.0090533 0.08419 
-0.047998 0.32851 -0.69135 0.24104 0.073504 0.033222 -0.013307 0.18547 
-0.012485 0.28362 -0.21554 0.17117 0.052294 0.046868 -0.029255 0.20635 
-0.021363 0.28905 -0.009361 0.074983 0.050979 0.048184 -0.055068 0.15324 
-0.0095255 0.27557 -0.010512 0.005765 0.058706 0.054596 -0.014622 0.065776 
-0.0072237 0.1738 -0.056548 -0.050464 0.027468 0.038812 0.093069 0.058706 
0.011848 0.040292 -0.044546 -0.036983 0.016288 0.039305 0.1026 0.041936 
0.020891 -0.078415 0.08156 -0.02498 0.03651 0.05772 0.10836 0.025988 
0.050486 -0.1649 0.37405 0.034866 0.022206 0.030427 0.078272 -0.066084 
0.10458 -0.28327 0.68743 0.04654 -0.018239 -0.019226 -0.012814 -0.14484 
0.15489 -0.25993 0.56264 0.0036276 -0.020706 -0.015116 -0.034352 -0.194 
0.12661 -0.15109 0.21769 -0.01232 0.00017495 -0.0022913 -0.020048 -0.11689 
0.04506 0.050814 -0.041751 -0.0090322 0.050321 0.065612 0.030592 -0.012978 
-0.011334 0.089287 -0.16983 0.033058 0.0786 0.059857 0.049006 0.05213 
0.01974 -0.017746 -0.13645 0.030592 0.085835 0.048513 0.040292 0.025495 
0.074161 -0.12396 0.011026 0.051801 0.041443 0.0026412 0.0014903 -0.024816 
0.096028 -0.15076 -0.046354 0.091425 0.0092177 -0.040271 -0.051287 -0.045696 
0.075148 -0.096007 -0.16753 0.071037 -0.0032777 0.013164 -0.052931 -0.039613 
0.025001 -0.040271 -0.11524 0.042594 -0.0059084 0.016781 -0.02646 0.00083261 
0.024015 0.0095465 0.21621 -0.049314 0.010204 0.019905 0.022371 0.061501 
0.0019835 0.086985 0.60604 -0.16753 -0.017582 0.0046141 0.057884 0.068407 
-0.0049219 0.11395 0.89656 -0.13481 0.011026 0.02122 0.032236 0.064296 
-0.036818 0.17856 0.51759 0.038648 0.053116 0.062652 0.037004 0.049499 
-0.054739 0.25123 -0.20945 0.19895 0.073175 0.06742 0.049664 0.058213 
-0.0059084 0.20487 -0.46808 0.14091 0.073832 0.058377 0.06479 0.080902 
0.04654 0.072846 -0.32536 0.050157 0.052623 0.028454 0.082546 0.081395 
0.060515 0.011191 -0.22787 0.009711 0.033551 0.019247 0.069558 0.068078 
0.087808 0.017767 -0.24135 -0.029913 -0.00064712 0.012177 0.05476 0.076134 
0.067913 0.040128 -0.1598 -0.06148 -0.022021 -0.012978 0.027796 0.1345 
0.047033 0.12053 -0.12741 -0.086964 -0.020048 -0.026296 0.053938 0.16969 
-0.0021268 0.18563 -0.18956 -0.010348 -0.0044286 -0.0083746 0.083533 0.16311 
0.004943 0.20224 -0.13103 0.037826 0.0041209 0.011191 0.11724 0.037661 
0.030756 0.13647 -0.12281 0.12595 0.044073 0.047691 0.012342 -0.021199 
0.057062 0.16245 -0.22326 0.18004 0.083862 0.054925 0.01267 -0.10061 
-0.0078813 0.11724 -0.27851 0.15538 0.090109 0.030592 -0.001798 -0.060329 
0.00099702 0.036675 -0.11755 0.11937 0.049664 0.021878 0.014808 -0.064111 
0.00050378 0.031414 0.061172 0.040128 -0.00015387 0.0065871 -0.056055 -0.14418 
0.023851 0.14437 0.30911 0.00083261 0.013164 0.022042 -0.03912 -0.20057 
0.061995 0.12069 0.36106 -0.00064712 0.024837 0.022042 0.021384 -0.082361 
0.055254 0.10441 -0.019555 0.054596 0.0052718 -0.0059084 0.07038 0.067256 
0.05624 0.12414 -0.41448 0.086492 0.0013258 -0.014622 0.11198 0.1636 
0.0069159 0.14305 -0.34526 0.0093821 0.014479 0.026317 0.11707 0.18202 
-0.025474 0.08567 0.12858 -0.093541 0.025988 0.058049 0.10688 0.19879 
0.046704 -0.087622 0.55852 -0.11837 0.034209 0.053281 0.05065 0.13795 
0.15505 -0.22557 0.57727 -0.14665 0.016123 0.0056006 0.011026 0.048184 
0.16492 -0.18627 0.3757 -0.070687 0.033222 -0.0082102 -0.0096899 -0.018897 
0.081231 -0.08532 0.069558 0.031249 0.065776 0.025495 0.011026 0.022042 
-0.0019624 -0.022843 -0.24957 0.12628 0.060844 0.05772 0.030098 0.023522 
-0.0026201 0.0689 -0.37452 0.12365 0.034044 0.017438 0.012835 0.019905 
-0.0040998 0.085835 -0.24497 0.1151 0.014808 0.0021479 0.018096 0.012013 
0.0069159 0.095864 -0.061973 0.1128 0.005765 -0.0088678 0.034866 0.066269 
-0.008539 0.095864 0.078436 0.10935 -0.0042642 0.00017495 0.034373 0.062817 
-0.026953 0.19649 0.004943 0.05476 -0.00097594 0.0060938 0.0018191 0.058213 
-0.05589 0.27919 -0.10982 0.094055 0.00050378 -0.0073881 0.016123 0.019576 
-0.027447 0.24005 0.20438 0.086985 0.019083 0.0064227 0.024837 0.00050378 
0.032071 0.044238 0.58401 -0.04471 0.041607 0.0092177 0.014972 -0.050958 
0.080738 -0.071016 0.42831 -0.090581 0.044073 0.0095465 0.0092177 -0.034352 
0.06742 -0.021034 0.036346 -0.036325 0.046868 0.040456 0.025824 -0.012649 
0.061008 0.10491 -0.35759 0.042429 0.051143 0.048841 0.036346 -0.017746 
0.014479 0.21605 -0.62147 0.1202 0.04358 0.027796 0.050157 -0.044874 
-0.0098543 0.2366 -0.6223 0.18054 0.045718 0.030098 0.027139 0.00297 
-0.036489 0.10326 -0.45706 0.20898 0.027468 0.026646 0.004943 0.056733 
-0.018568 -0.02646 -0.3252 0.16442 0.01563 0.042429 -0.0047575 0.06183 
0.00297 -0.1404 -0.012649 0.048184 0.01152 0.014479 0.010697 0.085012 
0.066269 -0.24628 0.48569 -0.074304 -0.0055795 -0.0075525 0.026152 0.035853 
0.18498 -0.41563 1.1276 -0.19597 -0.0138 -0.038462 -0.032872 -0.16424 
0.25123 -0.55291 1.5154 -0.21669 -0.034681 -0.036654 -0.092554 -0.33441 
0.21013 -0.5516 1.0608 -0.14829 -0.029255 -0.03057 -0.087786 -0.25976 
0.10244 -0.33342 0.30714 -0.048656 -0.0080457 -0.02794 -0.043724 -0.031721 
0.029441 -0.03205 -0.35348 0.010204 0.017932 -0.018239 0.0093821 0.11691 
-0.032708 0.22115 -0.71322 0.064132 0.043087 0.0019835 0.048513 0.15144 
-0.037805 0.31404 -0.49783 0.11296 0.068407 0.062159 0.06594 0.1636 
-0.046354 0.31766 -0.1062 0.045553 0.08863 0.061172 0.11132 0.20964 
-0.063782 0.29842 -0.068386 0.065612 0.074161 0.058871 0.073175 0.12677 
-0.058685 0.24745 -0.28475 0.12727 0.093562 0.072517 0.028454 0.10178 
-0.038462 0.16722 -0.32882 0.19188 0.070544 0.052952 0.027303 0.06331 
-0.0004827 0.095042 -0.194 0.17676 0.080902 0.052459 -0.0055795 -0.0040998 
0.019083 0.083862 -0.15355 0.098988 0.053281 0.02829 -0.0024557 -0.019061 
0.02122 0.14338 -0.075949 0.073668 0.022206 -0.0004827 -0.025145 -0.047012 
0.023028 0.18317 0.30894 0.045553 0.024673 0.024508 0.036017 0.0042853 
-0.016431 0.19977 0.39378 0.060186 0.059035 0.043416 0.044073 0.017767 
-0.0036066 0.08863 0.45725 -0.023172 0.042265 0.047526 0.050157 0.044402 
0.09126 -0.18397 0.79413 -0.20008 -0.021692 0.0044497 0.025824 0.020727 
0.19057 -0.38603 0.83819 -0.28985 -0.036489 -0.030735 0.024837 0.038155 
0.20553 -0.44193 0.46037 -0.21093 -0.014787 -0.023829 0.026481 0.015301 
0.15916 -0.27555 -0.020212 -0.073647 0.011191 0.0082312 0.025166 0.044896 
0.040128 -0.0406 -0.27472 0.043416 0.056404 0.063639 0.037826 0.082217 
-0.033201 0.13056 -0.22244 0.14108 0.073339 0.083862 0.059528 0.11905 
-0.047998 0.20619 -0.054739 0.17922 0.053116 0.045224 0.054103 0.093398 
-0.035667 0.19961 -0.0062372 0.16673 -0.015773 -0.02942 0.023028 0.059693 
-0.013143 0.17856 -0.1108 0.10507 -0.046025 -0.072003 -0.014129 0.023686 
0.0085601 0.18991 -0.3303 0.0087245 -0.018239 0.0098754 -0.0067304 0.02829 
-0.0034422 0.17988 -0.4176 0.015137 0.049335 0.079751 0.059035 0.078107 
0.025001 0.16919 -0.48008 -0.0067304 0.10293 0.087479 0.082217 0.079751 
0.061995 0.097344 -0.43503 -0.00097594 0.083204 0.056076 0.070544 0.041278 
0.085177 0.0421 -0.17032 0.046868 0.061337 0.049664 0.070544 0.044567 
0.054432 0.043909 0.037661 0.090931 0.053281 0.073504 0.078765 0.051308 
0.024015 0.049992 0.17593 0.11411 0.059693 0.074654 0.094713 0.063474 
0.0034632 0.075312 0.25798 0.093891 0.046046 0.066927 0.079916 0.04095 
1.0539e-005 0.093726 0.54307 -0.013636 0.019576 0.019905 0.097837 0.061995 
0.011848 0.078272 0.59519 -0.091568 -0.00031829 0.011191 0.099152 0.11773 
0.0042853 0.15275 0.29645 -0.085485 0.00297 0.0088889 0.090274 0.12891 
-0.022021 0.31897 -0.017582 -0.015444 0.022206 0.007738 0.035853 0.030098 
-0.0098543 0.43883 -0.026296 -0.066906 0.033058 0.01415 -0.017417 -0.054246 
-0.02087 0.45494 0.037661 -0.017088 0.042594 0.034209 -0.014622 -0.079895 
-0.04882 0.42387 -0.20682 0.12973 0.065118 0.050321 0.024673 0.032729 
-0.078744 0.3119 -0.46561 0.19237 0.058377 0.059693 0.050486 0.14831 
0.026646 0.0060938 -0.35381 0.12644 0.0082312 0.028454 0.035524 0.18876 
0.14469 -0.35249 -0.1815 0.040128 -0.066084 -0.03205 -0.0016336 0.14272 
0.16969 -0.48567 -0.19745 0.0014903 -0.086964 -0.056877 -0.0024557 0.1077 
0.12217 -0.40198 -0.11574 -0.03057 -0.079566 -0.066413 -0.00015387 0.077778 
0.12069 -0.30268 0.25946 -0.024816 -0.0055795 -0.0091966 -0.030406 -0.011992 
0.11214 -0.26272 0.71044 0.034702 0.036017 0.031907 -0.047998 -0.0095255 
0.029934 -0.022021 0.58089 0.0421 0.085012 0.05624 -0.044217 -0.048656 
-0.01528 0.23693 0.052952 0.10211 0.12809 0.088794 0.010697 -0.039449 
-0.0011404 0.28856 -0.18512 0.051965 0.093069 0.073997 0.066927 -0.01117 
0.017274 0.24926 -0.16325 -0.032543 0.03388 0.041443 0.066434 0.016288 
0.038812 0.26866 -0.16013 -0.0868 -0.022843 0.0016547 0.073504 0.026974 
0.029605 0.3193 -0.49964 -0.024158 -0.0013048 0.016452 0.071202 0.041772 
0.010533 0.35005 -0.80808 0.10573 0.018918 0.022042 0.06742 0.031907 
0.02829 0.1784 -0.59961 0.11707 0.013657 -0.011334 0.014315 -0.0059084 
0.059528 -0.01232 0.16327 0.016945 -0.0077169 -0.016924 -0.024158 -0.040106 
0.086328 -0.23346 1.0151 -0.10735 -0.047669 -0.041915 -0.046847 -0.013307 
0.061008 -0.27851 1.1304 -0.17016 -0.045039 -0.029913 -0.029913 0.00297 
0.00099702 -0.19318 0.44097 -0.12149 -0.021034 -0.008539 0.016781 0.041772 
0.005765 -0.014458 -0.17673 0.023028 0.027139 0.020891 0.042758 0.063145 
0.0047785 0.020069 -0.28854 0.1659 0.06742 0.060679 0.027632 0.051636 
0.0051074 0.031907 -0.067564 0.16985 0.067256 0.049006 0.0024767 0.036182 
-0.02498 0.058377 -0.059836 0.16229 0.066763 0.052787 0.0042853 0.042594 
-0.012978 0.079094 -0.28459 0.21276 0.048348 0.042265 -0.00064712 0.027632 
0.022535 -0.003771 -0.11853 0.12118 0.012342 0.0060938 -0.032379 0.015137 
0.074654 -0.078415 0.46596 -0.10094 -0.013307 0.0054362 -0.023336 -0.021363 
0.064625 0.058871 0.63892 -0.14204 0.011848 0.00083261 -0.017088 0.0067515 
-0.0014692 0.32341 0.29102 -0.059507 0.043745 0.033058 0.0042853 -0.028433 
-0.0014692 0.38096 -0.08121 -0.027611 0.02122 0.015959 0.026646 -0.050464 
0.030756 0.21671 -0.20912 -0.062467 -0.0054151 -0.0055795 -0.0014692 -0.071674 
0.039634 0.09981 -0.16588 -0.038298 -0.013307 0.0013258 0.021713 -0.034023 
0.04654 0.044731 -0.035667 -0.03205 0.0051074 -0.004593 0.036182 -0.044381 
0.032564 0.0054362 0.034866 0.025988 0.037497 0.020069 0.051965 -0.042573 
0.076463 -0.25187 0.12365 0.037826 0.049828 0.032236 0.048184 -0.052602 
0.13023 -0.6241 0.39345 0.019905 0.033551 0.0062583 0.012835 -0.073154 
0.17215 -0.75448 0.4875 -0.010019 0.032236 0.013492 0.00099702 -0.037311 
0.1368 -0.45295 0.32456 -0.029913 0.015465 -0.0083746 -0.033694 0.03388 
0.040292 0.061172 -0.038627 -0.016924 -0.00064712 -0.014129 -0.01676 0.10063 
-0.05737 0.4607 -0.52841 0.067091 0.038812 0.010862 0.026646 0.16821 
-0.1187 0.55803 -0.58004 0.15226 0.077121 0.049992 0.0689 0.19435 
-0.10752 0.43571 -0.40231 0.15407 0.093891 0.078765 0.075476 0.13072 
-0.065919 0.15423 -0.55521 0.17001 0.080409 0.083533 0.072024 0.089123 
0.016452 -0.13464 -0.71618 0.1419 0.055089 0.056898 0.11214 0.048184 
0.045718 -0.24793 -0.27867 0.097179 0.045553 0.04917 0.12644 0.061666 
0.059528 -0.16227 0.51841 0.078436 0.037004 0.049664 0.10869 0.025659 
0.055911 -0.02942 1.6136 -0.050958 0.039141 0.0227 0.095042 -0.00081153 
0.017438 0.16722 1.9682 -0.11903 -0.015773 -0.013307 0.042265 0.034044 
0.005765 0.33344 0.98041 -0.05737 -0.0052507 0.012342 -0.0011404 0.07038 
-0.056055 0.36073 -0.046354 -0.019555 0.061501 0.026974 0.075805 0.089123 
-0.05441 0.30089 -0.58514 -0.023994 0.11214 0.081889 0.079587 0.064296 
0.0095465 0.1978 -0.82419 0.015137 0.11773 0.086328 0.072024 0.00083261 
0.047033 0.045224 -0.67129 0.086821 0.10244 0.055254 0.051143 -0.015116 
0.070708 -0.13168 -0.34542 0.13631 0.08304 0.066434 0.059857 -0.0072237 
0.072517 -0.18413 -0.096336 0.15061 0.074326 0.034209 0.053938 0.027961 
0.078929 -0.086636 -0.13826 0.12957 0.047526 0.064625 0.032893 0.026974 
0.061008 0.018096 -0.22688 0.029276 0.023357 0.041936 0.028125 0.0014903 
0.05065 0.01826 -0.11212 -0.042079 0.0070803 0.004943 0.028783 -0.02498 
0.061008 -0.014293 0.1613 -0.055397 -0.0068948 -0.010841 0.025166 -0.018075 
0.075805 -0.054246 0.51939 0.019083 -0.00031829 0.0087245 0.024015 -0.021363 
0.045718 -0.0073881 0.53551 0.05213 -0.0088678 -0.001798 0.011355 0.045882 
-0.0019624 0.15587 0.088136 0.13253 0.01415 0.01152 0.012342 0.083533 
-0.090581 0.30007 -0.32356 0.1932 0.017932 0.028783 0.0083956 0.1179 
-0.081703 0.24532 -0.29067 0.072517 0.0047785 0.014972 0.012835 0.10096 
-0.0095255 0.022535 -0.10768 -0.00097594 -0.021856 -0.0042642 0.035031 0.14157 
0.098659 -0.17821 0.015465 -0.01117 -0.0067304 0.011191 0.044567 0.16262 
0.12118 -0.18594 0.038319 0.01826 0.02533 0.029441 0.024015 0.16903 
0.083862 -0.055561 -0.004593 0.064461 0.10129 0.073504 0.052952 0.11115 
0.025988 0.065776 -0.034023 0.14502 0.12908 0.083368 0.10195 0.10803 
0.0018191 0.1516 -0.05589 0.16327 0.086985 0.072188 0.087808 0.058049 
-0.0042642 0.14848 -0.05737 0.082217 0.029934 0.053609 0.070051 0.013164 
-0.012156 0.19731 -0.032215 0.023522 0.020069 0.03092 0.027139 -0.16309 
-0.0088678 0.18087 -0.0060728 0.061501 0.027796 0.016781 -0.0014692 -0.2762 
-0.014622 0.19188 0.20931 0.079258 0.024508 0.0070803 -0.016102 -0.38011 
-0.017911 0.2052 0.23529 0.066763 0.019411 0.01267 0.020727 -0.20962 
-0.0095255 0.14683 -0.16769 0.042923 0.023357 0.012835 0.050979 -0.00097594 
0.022206 0.035853 -0.3788 0.023028 0.016288 0.0059294 0.03947 0.12316 
0.035853 0.032236 -0.25812 -0.025638 -0.033201 -0.017253 0.028619 0.13762 
0.041772 0.088301 -0.058521 -0.035667 -0.010676 0.0016547 0.021549 0.092904 
0.057555 0.15111 -0.0021268 0.071202 0.047362 0.041607 0.025001 0.044896 
0.076463 0.092411 0.22937 0.050979 0.065447 0.062817 0.032071 0.013164 
0.058213 0.018096 0.67756 -0.059507 0.050979 0.060186 0.01415 0.018754 
0.043909 -0.050958 0.6016 -0.08384 0.023851 0.0024767 0.030098 0.11937 
0.084848 -0.10669 0.042429 -0.01117 -0.040928 -0.022843 0.051801 0.14897 
0.11428 -0.080388 -0.26502 -0.015444 -0.08121 -0.019555 0.071202 0.1197 
0.12628 -0.019884 -0.15125 -0.071674 -0.088608 -0.035174 0.06035 0.096193 
0.11477 0.019411 0.079258 -0.06855 -0.051944 -0.045532 0.015301 0.03947 
0.10228 0.034373 -0.069372 0.06035 -0.044546 -0.050629 -0.023501 -0.030735 
0.12858 0.029605 -0.58267 0.13006 -0.038791 -0.057699 -0.013307 -0.10686 
0.065612 0.06035 -0.78786 0.12332 -0.028597 -0.051615 -0.068057 -0.22622 
0.033715 0.040292 -0.17262 0.097508 -0.006566 -0.001798 -0.053095 -0.41316 
0.010369 -0.1113 0.94243 -0.076606 0.023686 0.0046141 -0.026789 -0.27045 
0.0034632 -0.19761 1.3096 -0.15289 0.058377 0.027303 0.044238 0.054432 
-0.015116 -0.10982 0.75582 -0.017911 0.09833 0.072353 0.034209 0.18596 
-0.020048 0.082382 0.16262 0.078272 0.11247 0.090931 0.03388 0.11313 
0.0018191 0.23134 -0.31402 0.10162 0.11066 0.11674 0.058542 0.13105 
0.0324 0.20668 -0.48534 0.089123 0.075312 0.054925 0.051143 0.14469 
0.081889 0.1128 -0.45229 -0.0082102 0.034044 0.012013 0.033387 0.15111 
0.078765 0.086163 -0.34526 -0.081703 0.0062583 -0.019226 -0.028269 0.10622 
0.050157 0.077121 -0.18084 -0.053917 -0.0047575 -0.017746 -0.048492 0.063968 
0.025001 0.069064 -0.023994 -0.00031829 -0.0057439 0.0023123 -0.045368 -0.022843 
0.071037 -0.0060728 0.064625 -0.011827 -0.0044286 0.0098754 -0.017582 -0.034681 
0.068736 -0.010348 0.099974 0.0023123 0.0088889 0.0052718 0.027632 -0.021199 
0.035688 0.0070803 0.12875 0.051472 0.020398 0.0013258 0.044073 0.032236 
0.0067515 0.037332 0.22065 0.058542 0.02829 0.015301 0.037661 0.045882 
-0.0013048 0.01563 0.21621 0.012506 0.023193 0.024015 0.020233 0.057227 
0.0031344 -0.017253 0.1955 0.0082312 0.029441 0.017603 0.0093821 0.033715 
0.015465 -0.035996 0.23315 0.016452 0.044567 0.015959 0.01004 0.046375 
0.058049 -0.028597 0.2486 -0.0040998 0.031414 -0.0044286 -0.0014692 0.026152 
0.081889 -0.022185 0.21408 0.0021479 0.020233 -0.014622 -0.023336 0.039963 
0.072846 -0.010183 0.13516 1.0539e-005 0.0082312 0.0013258 -0.018897 0.031578 
0.037826 -0.0032777 0.07301 -0.0016336 0.01004 -0.012814 -0.0072237 0.073668 
0.028454 0.0051074 0.10425 0.01415 0.018096 0.018918 0.0092177 0.08156 
0.028454 0.058049 0.11066 0.01004 0.016452 0.024344 0.0062583 0.097179 
0.012506 0.059528 0.064625 -0.0083746 0.017767 0.01711 0.00017495 0.072188 
0.0098754 0.07301 -0.021692 -0.03912 0.031578 0.034537 0.0092177 0.06479 
0.015465 0.051636 -0.079072 -0.041422 0.035853 0.041443 0.044896 0.07597 
0.01974 0.037004 -0.12889 0.00033937 0.049828 0.037004 0.057391 0.061172 
0.030263 -0.0068948 -0.12445 0.050979 0.072846 0.041936 0.041607 0.045553 
0.0067515 0.0093821 -0.13103 0.082546 0.087643 0.063639 0.012506 0.039799 
-0.0029489 0.12497 -0.10406 0.13121 0.098823 0.077121 0.0041209 0.027961 
-0.024652 0.20208 -0.018075 0.096686 0.076134 0.053445 -0.0014692 0.037497 
-0.011663 0.14881 0.047362 0.025001 0.053938 0.032893 0.014808 0.040785 
0.0075736 0.12513 -0.049478 0.0087245 0.02533 0.0092177 0.012835 0.035524 
0.019247 0.13417 -0.12429 0.048841 0.041443 0.015465 0.014315 0.11461 
0.026481 0.15653 -0.11722 -0.0138 0.027139 0.020069 0.01415 0.20832 
0.024837 0.19369 -0.14582 0.0013258 0.055582 0.033387 0.024344 0.23562 
-0.012814 0.18087 0.066598 0.06479 0.054103 -0.0026201 0.0018191 0.12825 
-0.048163 0.22723 0.21934 0.073832 0.077285 0.044402 0.014315 0.012999 
-0.027775 0.18152 0.25798 0.13631 0.069229 0.068242 0.0065871 -0.0050863 
-0.028104 0.087808 0.15357 0.18235 0.034702 0.060844 0.021878 0.037826 
-0.0057439 -0.068879 -0.21751 0.2218 -0.0019624 0.018425 0.032893 0.062159 
0.030263 -0.16292 -0.55258 0.14437 -0.010512 0.007738 0.043416 0.0592 
0.058213 -0.12396 -0.22113 -0.022679 -0.0032777 0.0079024 0.038155 -0.13119 
0.16919 -0.11607 0.37076 -0.22573 -0.039449 -0.0047575 -0.0096899 -0.31994 
0.20701 -0.087293 0.57875 -0.2351 -0.025309 -0.018568 -0.0022913 -0.29676 
0.12118 0.043416 0.10096 -0.070852 0.032071 0.016945 0.062488 -0.048492 
0.032564 0.14881 -0.18249 0.044731 0.050814 0.044567 0.10343 0.12644 
-0.021692 0.22427 0.1174 0.048841 0.055911 0.062159 0.075641 0.1909 
-0.037311 0.17495 0.4265 0.021713 0.049664 0.066763 0.077285 0.17462 
-0.046519 0.1641 0.40036 0.099316 0.060022 0.068571 0.1128 0.18284 
-0.020706 0.092411 0.039305 0.15407 0.069886 0.053116 0.093069 0.13598 
-0.017911 0.0082312 -0.17147 0.15144 0.058377 0.03651 0.08419 0.083697 
-0.011827 -0.10982 -0.15733 0.11378 0.01974 0.033715 0.041443 0.0026412 
-0.0054151 -0.2767 0.13762 0.13335 0.025988 0.032564 -0.003771 -0.07266 
0.024179 -0.39639 0.13647 0.15719 0.0087245 0.025166 -0.056383 -0.1376 
0.054432 -0.28837 -0.12511 0.13401 -0.018075 -0.0059084 -0.066906 -0.12511 
0.053938 -0.12248 -0.15174 0.061995 -0.033365 -0.010019 -0.0022913 -0.052273 
0.10178 -0.039613 0.19912 -0.09239 -0.042901 -0.0138 0.016945 -0.012978 
0.14716 0.094548 0.61492 -0.2693 -0.0077169 0.018754 0.051801 -0.0067304 
0.12957 0.21309 0.6774 -0.22293 0.032893 0.029112 0.050814 0.0039565 
0.080573 0.2731 0.24499 -0.065097 0.052294 0.024673 0.066269 0.02533 
0.037661 0.21572 -0.23165 0.07597 0.036346 -0.003771 0.089616 0.041936 
0.011355 0.099316 -0.38636 0.085999 0.0083956 0.013492 0.034702 -0.0059084 
-0.0022913 0.0054362 -0.36745 0.11231 0.016781 0.04095 0.025001 -0.023172 
0.0042853 0.047362 -0.28327 0.12529 0.027632 0.029605 0.027796 0.0072447 
0.0098754 -0.0095255 -0.056877 0.076956 0.015959 -0.009361 0.015465 0.03651 
0.039963 -0.16457 0.1738 0.048019 -0.026953 -0.017417 -0.0014692 -0.024816 
0.072353 -0.14566 0.20438 0.060844 -0.039449 -0.048656 0.00297 -0.022514 
0.017438 0.020233 0.070708 0.096357 -0.017253 -0.011005 -0.0029489 0.03799 
-0.010512 0.13582 -0.0060728 0.13762 0.027961 0.023522 0.01152 0.077943 
-0.018733 0.18448 0.063474 0.11428 0.06594 0.047855 0.039141 0.035195 
-0.027282 0.20503 0.031907 0.13088 0.047197 0.047033 0.052459 -0.0096899 
0.026317 0.13647 0.096686 0.067749 0.020727 0.011191 0.035853 -0.02087 
0.045718 -0.009361 0.11691 -0.018733 0.00297 0.025166 0.03388 0.0092177 
0.078436 -0.15832 0.26209 -0.13267 -0.0067304 0.0067515 0.031414 0.056076 
0.11559 -0.30366 0.41302 -0.24809 0.045718 0.037497 0.03536 0.019247 
0.15341 -0.34296 0.08978 -0.09239 0.10211 0.03388 0.059364 -0.025802 
0.18859 -0.17969 -0.43092 0.018918 0.082053 0.032564 0.037497 -0.056877 
0.10869 0.079422 -0.84261 0.16294 0.077943 0.059857 0.06183 0.00066819 
0.00297 0.3267 -0.6634 0.19484 0.073832 0.051636 0.070051 0.068571 
-0.064768 0.4505 -0.11705 0.18054 0.036346 0.012013 0.056404 0.14206 
-0.091075 0.40578 0.24071 0.16245 0.0024767 -0.017253 0.044238 0.1322 
-0.049642 0.23134 0.071037 0.034537 0.0039565 -0.0036066 0.036017 0.11083 
0.022371 0.091918 0.00017495 -0.068057 0.0060938 0.027468 0.028125 0.052623 
0.062323 0.0011614 0.44607 -0.14418 0.0324 0.025495 0.030098 0.030263 
0.064954 -0.065097 0.91169 -0.14993 0.04095 0.026974 0.049499 0.051801 
0.058706 -0.18594 1.0186 -0.20781 0.03947 0.029112 0.081889 0.10178 
0.049828 -0.15668 0.84625 -0.22721 0.023851 0.017274 0.059857 0.10721 
0.02122 -0.0068948 0.40611 -0.1039 0.03799 0.065776 0.033222 0.10425 
-0.061316 0.24614 -0.25138 0.050321 0.074161 0.062652 0.055911 0.077614 
-0.090253 0.41779 -0.66899 0.19435 0.091425 0.050486 0.031085 0.077121 
-0.020706 0.3729 -0.8893 0.28839 0.063145 0.037004 0.064954 0.037661 
0.048019 0.1276 -0.9309 0.26126 0.021549 0.0023123 0.012342 -0.034188 
0.12381 0.0047785 -0.81384 0.18152 -0.022021 -0.023665 -0.034023 -0.13826 
0.10967 0.099316 -0.5465 0.11609 -0.033037 -0.045039 -0.055397 -0.09387 
0.056404 0.17034 -0.16424 0.07449 -0.017088 -0.034845 -0.04471 0.03092 
-0.0014692 0.15505 -0.019719 0.038155 0.004943 -0.0078813 0.0067515 0.10178 
-0.028104 0.084026 0.069393 -0.011005 0.033551 -0.0070593 0.009711 0.13401 
0.0098754 0.022535 0.26669 -0.0090322 0.058871 0.060679 0.049335 0.16344 
0.0072447 -0.019061 0.30335 0.004943 0.098166 0.078929 0.1054 0.17084 
-0.00064712 0.0018191 0.31437 -0.010183 0.12497 0.089452 0.10589 0.16722 
-0.0062372 -0.0026201 0.32719 -0.024323 0.082875 0.069558 0.090931 0.10639 
0.012835 -0.063946 0.29892 -0.058356 0.028783 0.023193 0.034044 0.041443 
0.011191 -0.052273 0.21342 -0.09239 -0.017746 0.0087245 0.0054362 -0.013471 
0.019083 0.093891 0.021056 -0.11919 -0.031064 -0.012485 -0.01117 -0.066741 
0.027632 0.25436 -0.12577 -0.039778 -0.0073881 0.0051074 -0.0052507 -0.077264 
0.016616 0.28658 -0.090581 0.01826 0.012835 0.0051074 0.021056 -0.052602 
-0.0014692 0.16327 0.033387 0.061337 0.036346 0.016288 0.027303 -0.0032777 
-0.0083746 0.07301 0.11198 0.070215 0.059364 0.053116 0.032893 0.017274 
0.013164 0.00050378 0.21457 0.10935 0.088136 0.0592 0.026481 0.0065871 
0.061501 -0.0090322 0.34265 0.055254 0.054432 0.030263 0.010369 0.029276 
0.073504 0.032564 0.25978 0.024673 0.024508 0.022864 0.020562 0.058706 
0.043251 0.085999 0.0046141 0.062981 0.01415 0.024179 0.037497 0.086492 
0.043251 0.019905 -0.090746 0.027961 -0.018733 0.029112 0.022535 0.070873 
0.078107 -0.18068 -0.20945 0.022371 -0.035667 0.0021479 -0.0016336 0.0052718 
0.147 -0.37189 -0.36121 0.0060938 -0.059178 -0.019226 -0.032708 -0.053095 
0.13598 -0.3668 -0.25943 0.033387 -0.046683 -0.046683 -0.040435 -0.069372 
0.072353 -0.15635 0.1853 0.038977 -0.025802 -0.021528 -0.061151 -0.092883 
0.02681 0.04095 0.85365 0.023686 -0.0039354 0.0072447 -0.079401 -0.21159 
0.00033937 0.15489 0.78361 0.10129 0.025988 0.01152 -0.052602 -0.16818 
