-0.10078 0.10803 -0.065591 0.05065 -0.028104 0.060844 0.0026412 0.072353 
-0.090088 0.1368 -0.10817 0.071202 0.0062583 0.0062583 0.03536 0.075148 
-0.039942 0.17067 1.0539e-005 0.020727 -0.032708 0.02122 0.005765 0.06035 
-0.036983 0.14979 0.072024 0.004943 -0.047176 0.047691 0.067585 0.033551 
-0.00081153 0.069722 0.10195 0.00050378 -0.050464 0.047526 0.037004 0.016781 
0.088301 -0.089102 0.051308 -0.048492 -0.097158 0.042594 0.0079024 -0.042901 
0.17429 -0.22326 -0.12231 -0.12166 -0.14714 0.021549 0.017438 -0.055397 
0.25173 -0.14451 -0.19252 -0.13366 -0.17246 0.048019 0.013657 -0.071509 
0.20487 0.060679 -0.10883 -0.030735 -0.11031 0.015301 0.029934 0.0051074 
0.020891 0.17495 0.034209 -0.013471 -0.095843 0.0069159 0.036017 0.056733 
-0.10242 0.19616 0.1179 -0.042573 -0.10242 0.012013 0.044073 0.08978 
-0.060987 0.17528 0.097344 -0.0022913 -0.084005 0.010697 0.031578 0.0592 
0.010533 0.15555 0.070051 0.042758 -0.056055 -0.0138 0.041607 0.021549 
0.069393 0.093233 0.10392 0.051143 -0.029091 0.0019835 0.027632 -0.0090322 
0.087972 0.085012 0.13943 0.053445 -0.013307 0.0037921 0.033058 0.01415 
0.072353 -0.01528 0.19007 0.10556 0.018754 0.01711 0.060515 0.03947 
0.097179 -0.23888 0.16804 0.058542 -0.00097594 0.01267 0.044238 0.056404 
0.14568 -0.42993 0.19599 -0.006566 -0.042737 -0.025967 0.02122 0.0042853 
0.10688 -0.31583 0.16985 0.0044497 -0.028597 0.00050378 0.013164 -0.001798 
0.016616 0.020562 0.2634 -0.0042642 -0.057863 0.028947 0.032236 0.037497 
-0.047341 0.34594 0.51923 -0.10834 -0.11639 0.037168 0.048348 0.049992 
-0.089595 0.44968 0.6746 -0.14155 -0.16161 0.050321 0.060515 0.051472 
-0.050136 0.34364 0.36205 -0.027118 -0.11672 0.055089 0.084355 0.046704 
0.011355 0.0689 -0.21669 0.038483 -0.062302 0.056898 0.076299 0.024673 
0.05772 -0.17789 -0.56903 0.043745 -0.0406 0.022206 0.054432 0.031742 
0.067585 -0.25615 -0.51625 0.067256 0.011355 0.023522 0.049335 0.041936 
0.055747 -0.16276 -0.24891 0.11559 0.035195 0.038483 0.064132 0.036675 
0.031742 -0.046683 0.04095 0.12529 0.045718 0.049828 0.077614 0.0095465 
0.016452 0.04506 0.13713 0.1248 0.047526 0.038483 0.051801 0.0088889 
-0.003771 0.12217 0.18169 0.15604 0.053938 0.0072447 0.036017 0.017274 
0.017438 0.12612 0.29875 0.11231 0.040456 -0.017911 0.0082312 0.0075736 
0.070215 0.11559 0.40266 0.062159 0.00297 -0.024487 0.020562 0.02533 
0.041443 0.08419 0.41894 0.025988 -0.023994 -0.029913 0.059364 -0.0054151 
-0.01676 0.10343 0.27672 0.060515 -0.015609 0.013328 0.062981 0.084026 
-0.030242 0.081231 0.070708 0.11214 0.02829 0.039799 0.059528 0.073997 
0.040292 0.078107 -0.0062372 0.17215 0.082053 0.042923 0.0421 0.067091 
0.12562 0.09274 0.00033937 0.17347 0.087314 0.053281 0.03799 0.0090533 
0.1179 0.16574 -0.0057439 0.06479 0.029769 0.050486 0.085012 0.035031 
0.051636 0.16656 -0.061973 -0.039284 -0.054739 0.024837 0.056898 0.041936 
0.032893 0.10951 0.005765 -0.042901 -0.058521 0.00083261 0.034209 0.06742 
0.0064227 0.06183 0.13286 0.039141 -0.039449 0.0085601 0.024179 0.077121 
0.013821 0.036346 0.24482 0.068571 -0.0068948 0.0227 0.0042853 0.081231 
0.034044 -0.010512 0.28214 0.050814 0.005765 0.031414 0.056404 0.020069 
0.082053 -0.15339 0.22937 0.079258 -0.014458 0.023522 0.048677 0.011026 
0.15111 -0.3007 0.19468 0.056898 -0.011663 0.020069 0.035031 -0.023172 
0.14091 -0.31566 0.095371 0.022864 -0.025967 0.029769 0.06035 -0.0013048 
0.089616 -0.17805 0.0083956 0.0083956 -0.055726 0.028125 0.03651 -0.018239 
-0.0073881 -0.0055795 -0.041422 -0.038627 -0.08384 0.041607 0.052787 0.0093821 
-0.051615 0.1562 -0.060658 -0.035996 -0.092061 0.02829 0.046704 0.03536 
-0.075949 0.29628 -0.11442 -0.003771 -0.066248 0.018425 0.029934 0.047691 
-0.095678 0.39575 -0.16457 0.015465 -0.072332 0.036017 0.038483 0.037497 
-0.054904 0.39049 -0.11771 0.036675 -0.040106 0.025166 0.051636 0.068078 
0.014479 0.28099 -0.08269 0.070051 -0.0083746 0.019905 0.039634 0.051636 
0.0227 0.18777 -0.022679 0.099481 0.00099702 0.016781 0.024673 0.04095 
0.016123 0.1031 -0.0095255 0.11148 0.027961 -0.009361 0.028947 -0.0077169 
0.026646 0.031578 0.0016547 0.16294 0.066927 0.0042853 0.00050378 0.012999 
0.067091 0.013657 -0.041586 0.19007 0.098988 0.0044497 -0.023665 0.011848 
0.077614 0.0095465 -0.086471 0.18662 0.095699 0.016452 0.021878 0.0080668 
0.079587 0.06479 -0.11771 0.16788 0.087808 0.0083956 0.02533 0.00099702 
0.068407 0.045224 -0.1284 0.14206 0.091425 -0.0047575 0.0324 -0.012485 
0.05065 0.081724 -0.081374 0.2052 0.10721 0.0032988 0.0093821 0.028125 
0.0056006 0.10408 -0.12544 0.27836 0.16245 0.021056 0.020891 0.039963 
-0.031886 0.099481 -0.25532 0.25946 0.16541 0.06331 0.043416 0.039963 
-0.020706 0.05772 -0.34707 0.082711 0.053445 0.06331 0.037497 0.035031 
0.052623 0.061995 -0.30547 -0.15421 -0.11278 0.033058 0.021549 0.025988 
0.095206 0.042758 -0.19844 -0.26206 -0.2328 0.0085601 -0.0036066 0.0011614 
0.070051 0.059857 -0.067399 -0.20633 -0.22063 0.0013258 -0.0029489 0.020891 
-0.0072237 0.093233 0.00066819 -0.070359 -0.17262 0.024508 0.0034632 0.029769 
-0.095843 0.14437 0.055747 0.0069159 -0.10801 0.014479 -0.004593 0.052623 
-0.10538 0.17725 0.095042 0.079916 -0.031228 0.016945 -0.00081153 0.042923 
-0.068057 0.2006 0.086163 0.15407 0.036675 0.019905 0.0095465 0.054432 
-0.0503 0.2394 -0.031721 0.12661 0.048184 0.013492 0.019411 0.040785 
-0.038791 0.2024 -0.074798 0.10819 0.035195 0.024344 0.00033937 0.042923 
0.049664 0.041936 0.020562 0.0082312 -0.010512 0.0016547 -0.014951 -0.01528 
0.22871 -0.071509 0.12644 -0.080388 -0.092554 0.0013258 -0.014951 -0.038791 
0.39937 -0.07825 0.058377 -0.12609 -0.15174 -0.033365 -0.034681 -0.070852 
0.29859 -0.012814 -0.12133 0.0059294 -0.094199 -0.057699 -0.02235 -0.017088 
0.064296 0.1955 -0.3081 0.21654 0.042594 -0.020048 -0.024323 0.021056 
-0.11245 0.39987 -0.25779 0.13697 0.057884 0.031085 -0.0029489 0.10474 
-0.13415 0.23249 0.099645 -0.15717 -0.1016 0.0786 0.028619 0.089616 
0.0072447 -0.30991 0.30533 -0.29676 -0.24431 0.082711 0.048019 0.044402 
0.11592 -0.70615 0.28593 -0.27801 -0.24464 0.07597 0.066598 -0.014787 
0.088794 -0.67211 0.16015 -0.14467 -0.20025 0.081231 0.045718 -0.010841 
0.035195 -0.40609 -0.010512 -0.017088 -0.10028 0.056076 0.028454 0.0080668 
0.021056 -0.041257 -0.10867 0.054432 -0.06148 0.025166 0.020562 0.033058 
0.004943 0.18728 -0.10176 0.049006 -0.038627 0.0023123 0.0047785 0.032729 
-0.012156 0.25173 -0.059507 0.025988 -0.04323 -0.028269 -0.0040998 0.038155 
0.058049 0.22098 0.052294 -0.020048 -0.075291 0.0013258 -0.003771 0.032236 
0.05065 0.15538 0.10935 -0.091568 -0.12478 0.0074092 -0.0022913 0.038648 
-0.042079 0.093562 0.13993 -0.096665 -0.14303 0.0083956 0.0064227 0.029441 
-0.087293 0.026317 0.17659 -0.10127 -0.14139 0.0092177 -0.023501 0.025001 
-0.072003 -0.040435 0.19501 -0.085649 -0.14763 0.0032988 0.013657 0.0011614 
-0.02498 -0.068221 0.15324 -0.088608 -0.14188 0.016452 0.012342 0.011191 
0.05065 -0.052109 0.09274 -0.085156 -0.14056 0.023028 0.0067515 0.0079024 
0.10458 -0.021856 0.077614 -0.022514 -0.11541 0.01826 0.020398 0.016123 
0.12414 -0.029913 0.11477 -0.038956 -0.097158 0.0079024 0.038648 0.025659 
0.15966 -0.15388 0.16064 -0.060165 -0.10028 0.042594 0.055911 0.029769 
0.10852 -0.2106 0.2195 -0.063453 -0.10308 0.0786 0.065776 0.024015 
0.08156 -0.15552 0.19796 -0.063124 -0.11804 0.041114 0.050979 0.032071 
0.037826 -0.047341 0.090931 -0.03616 -0.10045 0.041114 0.052787 0.033222 
-0.0062372 0.050814 -0.019061 -0.017253 -0.072167 0.036839 0.056898 0.060679 
-0.013143 0.014808 -0.087951 0.038977 -0.047669 0.022864 0.05624 0.062817 
-0.026953 0.019576 -0.091568 0.031249 -0.042079 0.021878 0.02681 0.051308 
-0.039449 0.079258 -0.095514 0.022371 -0.055397 -0.040435 0.0016547 0.047197 
-0.069372 0.13993 -0.057041 -0.0090322 -0.087951 -0.078908 -0.014787 0.011026 
-0.030242 0.10195 0.13845 -0.17312 -0.18578 -0.062302 -0.014622 0.036182 
0.049992 -0.084663 0.36534 -0.31501 -0.28163 0.021384 0.036839 0.0080668 
0.17182 -0.38406 0.51364 -0.33506 -0.27456 0.089287 0.046211 -0.0059084 
0.22509 -0.56459 0.40792 -0.1547 -0.18759 0.11921 0.065118 -0.021034 
0.15637 -0.36548 0.14091 0.076792 -0.032215 0.12201 0.078765 0.0037921 
0.034702 -0.05441 -0.038627 0.22822 0.10178 0.10244 0.066105 0.023357 
-0.056383 0.17971 -0.095185 0.32637 0.16508 0.08419 0.056898 0.067256 
-0.087293 0.30944 -0.039778 0.26685 0.13154 0.050814 0.037497 0.068407 
-0.077593 0.29842 0.067913 0.10852 0.032893 0.0059294 0.01415 0.073997 
-0.032708 0.20454 0.1225 0.013986 -0.021034 -0.0036066 0.0092177 0.053938 
-0.0090322 0.092904 0.09274 0.013492 -0.056548 0.0047785 0.0036276 0.042594 
-0.0027845 0.041772 0.057884 0.0092177 -0.06444 0.01974 0.013164 0.032236 
0.020069 0.068242 0.0028056 0.030427 -0.050793 0.009711 0.0047785 0.02829 
-0.00015387 0.097672 -0.014458 0.055418 -0.046025 0.0087245 0.025824 0.011684 
0.014479 0.1202 -0.0032777 0.0023123 -0.072989 -0.013965 0.0095465 0.013821 
0.029769 0.099974 0.012835 -0.024158 -0.093376 0.0052718 0.01563 0.0064227 
0.034044 0.14601 0.027303 0.015301 -0.062467 0.045389 0.041114 0.030098 
0.035524 0.171 0.016452 0.053609 -0.052931 0.020562 0.020727 0.034866 
0.019576 0.18695 0.00033937 0.079422 -0.023007 0.021878 0.0047785 0.0227 
-0.015444 0.20684 -0.077593 0.13335 0.034209 0.018096 -0.021034 -0.021363 
-0.0077169 0.21375 -0.10258 0.22674 0.080409 0.030756 0.0092177 0.045389 
-0.0049219 0.19402 0.00033937 0.19369 0.079094 0.058542 0.014972 0.040785 
0.014808 0.18366 0.11378 0.12529 0.048513 0.048513 0.0074092 0.048184 
-0.0054151 0.18974 0.16492 0.090931 0.014808 0.058213 -0.017088 0.040621 
-0.011992 0.23134 0.1373 0.0044497 -0.049314 0.04358 -0.026624 0.047033 
0.0013258 0.19336 0.14272 -0.010019 -0.067892 0.027961 -0.018239 0.044073 
0.030098 0.07038 0.1784 0.092904 0.0088889 0.038648 0.0072447 0.030098 
0.099974 -0.022514 0.065447 0.19879 0.059857 0.007738 -0.034352 0.019083 
0.092247 -0.051944 -0.17377 0.24943 0.096686 -0.03057 -0.041586 0.0072447 
0.024837 0.099645 -0.33671 0.21983 0.088794 -0.013471 -0.039449 0.04095 
0.0074092 0.20339 -0.27801 0.14486 0.024344 0.023851 -0.042408 0.035031 
0.022371 0.29069 -0.20748 0.053938 -0.018897 0.037497 -0.014787 0.034044 
0.060186 0.26883 -0.13234 0.087808 -0.0031133 0.028619 0.0044497 0.03536 
0.06331 0.23792 0.11806 0.16475 0.078436 0.071037 0.05065 0.0592 
0.10326 0.064132 0.55113 0.16344 0.071202 0.077285 0.044731 0.020727 
0.12875 -0.12264 0.61673 0.12168 0.04506 0.052952 0.024508 -0.0083746 
0.12743 -0.057205 0.36189 -0.00015387 -0.038133 0.033715 0.021713 -0.022679 
0.083204 0.15653 -0.010019 -0.059672 -0.10209 0.016452 -0.010019 -0.012814 
0.031742 0.3387 -0.28015 -0.086636 -0.12774 0.010533 -0.019555 -0.00064712 
0.028619 0.34479 -0.34296 -0.059343 -0.1136 0.0095465 -0.0050863 0.032071 
0.072353 0.20816 -0.24513 -0.044052 -0.1113 -0.026953 -0.0019624 -0.00081153 
0.11115 0.10935 0.024179 -0.09387 -0.14484 -0.023665 0.0016547 -0.0004827 
0.10129 -0.0032777 0.35284 -0.11689 -0.16391 -0.025967 -0.010676 -0.015938 
0.10343 -0.13727 0.45001 -0.07414 -0.11409 -0.020048 -0.0057439 0.0046141 
0.072024 -0.14944 0.1442 0.063968 -0.039778 0.0060938 0.019247 0.034373 
-0.0027845 0.043251 -0.24332 0.24976 0.095699 0.058542 0.071366 0.082217 
-0.05885 0.25748 -0.34444 0.42157 0.22476 0.065447 0.09833 0.077614 
-0.088773 0.35153 -0.26059 0.59256 0.34643 0.055418 0.099481 0.10918 
-0.081539 0.24548 -0.15783 0.65257 0.40496 0.06183 0.099316 0.066434 
-0.048163 0.056569 -0.052602 0.57727 0.3757 0.070215 0.078929 0.08156 
-0.03912 -0.044546 0.034702 0.30714 0.23249 0.061008 0.085341 0.086492 
-0.041751 -0.061316 0.13171 0.010862 -0.0032777 0.044731 0.072024 0.096686 
0.019576 -0.052437 0.22756 -0.21307 -0.17805 0.0018191 0.053116 0.041278 
0.047362 -0.025309 0.26324 -0.22376 -0.23165 -0.043724 0.034044 -0.0088678 
0.090603 0.00033937 0.20536 -0.15585 -0.23411 -0.042737 0.037826 -0.010019 
0.078765 -0.059507 0.077778 -0.22409 -0.24332 -0.037476 0.071202 -0.0077169 
0.076134 -0.10489 0.11757 -0.21932 -0.24677 -0.015609 0.055582 -0.0064016 
0.084848 -0.14319 0.17758 -0.098309 -0.18348 -0.0004827 0.082546 0.014808 
0.05624 -0.0965 0.17971 -0.05326 -0.13645 -0.0029489 0.077943 0.024015 
0.038812 -0.10817 0.055582 0.011191 -0.082196 -0.013143 0.082546 0.019905 
0.047033 -0.071181 -0.16736 0.019905 -0.04619 0.01974 0.10836 0.023522 
0.016288 0.027796 -0.25582 0.039634 -0.054575 0.020727 0.086821 0.023193 
-0.0034422 0.12595 -0.24151 0.0031344 -0.069208 0.014972 0.086657 0.010862 
-0.0047575 0.12036 -0.16539 0.0047785 -0.066577 0.0039565 0.090931 0.033058 
0.087808 0.018754 -0.085156 0.039963 -0.036983 0.0069159 0.10359 -0.00064712 
0.13713 -0.0031133 -0.07562 0.05624 -0.03057 0.0074092 0.12924 -0.001798 
0.10655 0.029112 -0.078415 0.14272 0.027303 0.03092 0.11921 0.026974 
0.046211 0.022864 -0.021528 0.20503 0.098166 0.049828 0.13894 0.054432 
-0.0078813 0.0056006 0.076463 0.21062 0.091589 0.052952 0.13417 0.06479 
-0.056548 -0.0032777 0.13483 0.21457 0.094713 0.044238 0.11099 0.057884 
-0.064768 -0.017253 0.058377 0.24351 0.11395 0.048513 0.12233 0.041936 
-0.1113 0.024508 -0.087951 0.2126 0.079094 0.048513 0.10754 0.048677 
-0.045696 0.039634 -0.13136 0.074326 0.0098754 0.062981 0.11543 0.06479 
0.0041209 -0.051287 -0.0406 -0.055397 -0.081868 0.039634 0.10639 0.055254 
0.0039565 -0.19909 0.050814 -0.061809 -0.089759 0.012342 0.076463 0.044073 
0.033222 -0.17739 -0.039284 0.031907 -0.056055 0.0227 0.077943 0.014808 
-0.028597 0.11674 -0.17789 0.097837 -0.024323 -0.020212 0.053609 0.013657 
-0.16621 0.51676 -0.12725 -0.032872 -0.1085 -0.084827 0.004943 0.035195 
-0.15273 0.4995 0.25288 -0.39179 -0.35299 -0.11557 -0.00097594 0.052623 
0.12365 -0.21537 0.7139 -0.78753 -0.60372 -0.087951 0.0026412 -0.047176 
0.39789 -1.0006 0.64073 -0.55127 -0.46824 0.005765 0.030263 -0.095843 
0.3951 -1.0721 0.13401 -0.038298 -0.10932 0.12168 0.066105 -0.095185 
0.20027 -0.51197 -0.22902 0.19385 0.06742 0.16771 0.10721 0.013164 
0.026481 0.11625 -0.32652 0.15834 0.079422 0.1373 0.10129 0.055254 
-0.055726 0.38211 -0.25417 0.080573 0.035524 0.088794 0.056076 0.090438 
-0.069043 0.40299 -0.17509 0.046704 -0.032872 0.039963 0.059693 0.063803 
-0.074469 0.36632 -0.15668 0.010204 -0.060329 0.024673 0.028125 0.058706 
-0.059507 0.27869 -0.092226 0.023193 -0.061809 0.0062583 0.0019835 0.044731 
-0.012814 0.18909 -0.039778 0.066105 -0.048327 -0.010841 -0.010183 0.024673 
0.061337 0.082053 0.038648 0.0227 -0.06444 -0.016266 -0.0052507 0.0067515 
0.055582 0.046211 0.11 0.014479 -0.066906 -0.00097594 -0.024323 0.023686 
0.076463 0.0067515 0.090603 0.0019835 -0.047341 0.0060938 -0.024323 0.0039565 
0.11198 -0.038462 0.10639 -0.057699 -0.1062 0.0083956 -0.031228 0.022371 
0.11148 -0.09946 0.10408 -0.13678 -0.16161 0.023851 -0.042408 -0.023007 
0.10721 -0.12248 0.049664 -0.11409 -0.15503 -0.0032777 -0.021528 -0.0031133 
0.10524 -0.09091 -0.029913 -0.024158 -0.11475 0.030756 -0.0083746 0.010862 
0.0042853 0.0065871 -0.12412 0.021878 -0.05885 0.033387 0.0014903 0.064954 
-0.020541 0.059364 -0.18364 0.041772 -0.026296 0.062488 -0.012649 0.032893 
-0.0060728 0.045718 -0.071181 0.018754 -0.044217 0.035031 -0.028269 0.029769 
-0.0016336 0.031578 0.2685 -0.058685 -0.09946 0.040785 -0.047012 0.010204 
0.0013258 0.068407 0.46826 -0.093212 -0.12445 0.053609 -0.021034 0.023357 
-0.023336 0.077449 0.40661 -0.076606 -0.11097 0.043251 -0.045203 0.033058 
-0.041093 0.027139 0.21178 0.037332 -0.064604 0.050486 -0.032872 0.042594 
-0.026131 0.0036276 0.059528 0.097508 -0.0039354 0.039799 -0.036818 0.046375 
0.031578 0.037661 0.004943 0.1151 0.015465 0.034866 -0.032872 0.040785 
0.10951 0.071859 0.015137 0.045224 -0.029584 0.018918 -0.058028 -0.0049219 
0.14042 0.078765 0.0324 -0.061151 -0.11146 -0.015116 -0.074304 -0.00031829 
0.10803 0.043745 0.02681 -0.10489 -0.14221 -0.0073881 -0.084005 0.013328 
0.03536 0.024673 0.021056 -0.037805 -0.071674 0.02681 -0.066741 0.013492 
-0.034352 0.073339 -0.038133 0.068078 -0.013471 0.068078 -0.024158 0.019247 
-0.12133 0.16294 -0.034023 0.12332 0.02533 0.068078 -0.020377 0.071366 
-0.15174 0.23792 0.012835 0.10704 0.017603 0.017603 -0.023336 0.11872 
-0.11919 0.16821 0.11674 -0.009361 -0.073154 -0.024323 -0.040435 0.10458 
-0.027447 0.038319 0.21934 -0.18874 -0.18824 -0.028269 -0.040271 0.072846 
0.11773 -0.12083 0.22575 -0.20682 -0.21767 -0.0027845 -0.047834 0.0026412 
0.25765 -0.082361 0.14765 -0.065097 -0.11919 0.022042 -0.040928 -0.0075525 
0.23562 0.08863 0.076299 0.048677 -0.054739 0.060844 -0.016431 0.033387 
0.12085 0.21457 -0.054246 0.12233 0.016452 0.073997 -0.0052507 0.067749 
-0.0059084 0.19977 -0.098309 0.11839 0.034866 0.04917 -0.015116 0.04917 
-0.05885 0.21391 -0.11048 0.098659 0.0052718 0.0042853 -0.047669 0.021713 
0.024015 0.20635 -0.025145 0.007738 -0.04882 0.0093821 -0.055068 -0.026624 
0.18728 0.20931 0.032564 0.018425 -0.047834 0.0021479 -0.051944 -0.044052 
0.22657 0.171 0.040128 0.054267 -0.017417 0.023522 -0.030077 -0.026131 
0.045882 0.13861 0.065283 0.035853 -0.039613 0.032071 -0.014293 0.080244 
-0.13464 0.12661 0.060022 0.042594 -0.033365 0.032071 0.037004 0.093069 
-0.21126 0.12825 0.060515 0.059857 0.0036276 0.044238 0.041278 0.10836 
-0.16375 0.099645 0.094548 0.044238 -0.028104 0.013657 0.0092177 0.080244 
-0.033859 0.015794 0.11165 -0.015609 -0.07266 -0.022185 -0.029584 0.035688 
0.19336 0.012835 0.09833 0.0088889 -0.070852 -0.028597 -0.038462 0.0036276 
0.19632 0.073832 0.036675 0.09126 -0.022679 -0.010841 0.022864 0.082546 
0.011355 0.14617 -0.03616 0.11855 0.019411 0.019083 0.051308 0.10425 
-0.12231 0.19221 -0.14467 0.20734 0.083697 0.0067515 0.044731 0.14058 
-0.14993 0.24992 -0.25187 0.27672 0.13878 0.0019835 0.017274 0.10359 
-0.14434 0.3803 -0.22968 0.2463 0.10458 0.0087245 0.0016547 0.072024 
-0.10505 0.47023 0.04506 -0.029584 -0.073976 0.033387 0.032893 0.046211 
-0.034188 0.21112 0.34166 -0.45772 -0.34115 -0.0034422 0.03947 0.035688 
0.14979 -0.31583 0.58401 -0.47514 -0.41727 0.0052718 0.039305 -0.0049219 
0.2491 -0.67836 0.39312 -0.16999 -0.20419 0.040292 0.027139 -0.055397 
0.17593 -0.58826 0.089945 0.25946 0.097508 0.072024 0.024344 -0.03205 
0.1322 -0.23 -0.13711 0.42338 0.24943 0.073832 0.038155 -0.018075 
0.096521 0.099316 -0.15405 0.24203 0.16393 0.052623 0.034373 -0.017253 
0.14206 0.22049 0.012506 -0.046519 -0.044052 0.0036276 0.019905 -0.0087034 
0.14437 0.16804 0.081067 -0.10373 -0.12445 -0.010841 0.018918 -0.0057439 
0.15111 -0.015938 0.0082312 -0.022185 -0.097651 0.01711 0.060022 0.015301 
0.12381 -0.078579 -0.053424 0.014315 -0.065919 0.03651 0.085835 0.060679 
0.07038 0.0092177 -0.098638 0.03388 -0.045368 0.057391 0.07038 0.065283 
0.0013258 0.12842 -0.066413 0.067749 -0.018075 0.026481 0.036182 0.063145 
0.0082312 0.18448 -0.02646 0.067913 -0.030242 0.010533 0.028947 0.063639 
0.065118 0.17034 -0.025145 0.03092 -0.043724 0.004943 0.026974 0.067749 
0.02829 0.13697 0.029112 0.00050378 -0.040435 -0.0016336 0.059035 0.05624 
-0.042079 0.074819 0.040456 -0.0080457 -0.085649 0.013328 0.055089 0.034702 
-0.076935 0.019411 0.06183 0.022042 -0.060823 0.0028056 0.019576 0.024673 
-0.060823 -0.053588 0.10293 0.025659 -0.052109 -0.017746 0.028619 0.019576 
-0.07003 -0.072496 0.067913 0.083368 -0.01676 0.015301 0.045882 0.01415 
-0.011005 -0.023829 -0.0060728 0.11658 0.0227 0.054103 0.079587 0.043251 
0.052952 0.071202 -0.10406 0.16344 0.056076 0.044402 0.085341 0.025659 
0.065776 0.10458 -0.15388 0.19846 0.097508 0.035031 0.079258 0.016288 
0.0031344 0.15111 -0.10998 0.17741 0.078272 -0.0032777 0.055582 -0.0078813 
-0.018733 0.19928 -0.0082102 0.055418 0.015794 0.0039565 0.05624 -0.0024557 
-0.052931 0.14437 0.1493 -0.091897 -0.088115 0.029934 0.098659 0.0013258 
-0.008539 -0.1182 0.28675 -0.21192 -0.19515 0.075641 0.11115 0.0082312 
0.086821 -0.37255 0.2662 -0.22836 -0.23148 0.090931 0.12332 -0.024487 
0.12316 -0.41168 0.14437 -0.11903 -0.17805 0.065118 0.12414 -0.0075525 
0.072517 -0.23116 -0.020048 0.066598 -0.047176 0.032729 0.14469 -0.004593 
0.013492 -0.0082102 -0.1284 0.16771 0.028783 0.058542 0.14223 0.027303 
-0.024652 0.13154 -0.14171 0.13253 0.040785 0.033715 0.1174 -0.0014692 
0.037168 0.16146 -0.10143 0.066269 0.028783 0.0041209 0.10737 0.0046141 
0.15982 0.17511 -0.034188 0.061337 -0.0090322 -0.013307 0.068078 -0.025474 
0.23151 0.12168 0.01711 0.093562 -0.0022913 -0.0024557 0.053774 -0.0072237 
0.1659 0.035524 0.048513 0.14667 0.039141 0.025988 0.076627 -0.013965 
0.02533 0.0019835 0.033387 0.22345 0.10228 0.028125 0.087972 0.032071 
-0.056383 0.03536 -0.0047575 0.24005 0.1345 0.039634 0.082711 0.01826 
-0.066577 0.085835 0.012342 0.18054 0.10556 0.035853 0.086821 0.051472 
-0.054904 0.082875 0.14042 0.11214 0.06594 0.028125 0.092247 0.0324 
-0.034352 0.066105 0.23463 -0.013307 -0.033201 0.048677 0.051965 0.068407 
-0.014293 0.013164 0.15489 -0.14878 -0.14517 0.029934 0.079751 0.026646 
-0.027447 -0.020541 -0.068221 -0.19679 -0.20567 0.020398 0.084355 0.023028 
-0.022185 -0.025145 -0.17838 -0.15865 -0.21471 0.010369 0.12135 0.0044497 
-0.001798 0.018918 -0.21192 -0.1746 -0.21389 0.019576 0.091753 0.01267 
0.024673 0.12102 -0.11574 -0.076771 -0.15043 0.031907 0.1026 -0.0019624 
0.075805 0.20487 0.080738 0.0039565 -0.076606 0.02533 0.080573 0.009711 
0.11165 0.13483 0.30944 0.041772 -0.054246 -0.0047575 0.090767 0.0023123 
0.11888 0.037661 0.5457 0.046375 -0.030242 0.016781 0.089123 -0.0072237 
0.096357 -0.059178 0.57036 0.1345 0.041443 0.013164 0.096028 -0.0026201 
0.11198 0.040456 0.22953 0.34396 0.1687 0.046704 0.11543 0.0069159 
0.14765 0.22509 -0.20255 0.54669 0.33278 0.029276 0.075476 0.01974 
0.037826 0.3683 -0.46166 0.58006 0.39444 -0.020212 0.051308 0.048184 
-0.12215 0.4071 -0.41316 0.36485 0.29119 0.029769 0.065447 0.066763 
-0.13497 0.32654 -0.092061 -0.066084 0.012835 0.037826 0.08156 0.040292 
-0.047341 0.026481 0.16294 -0.37041 -0.25171 0.023686 0.081724 0.0052718 
0.048348 -0.34296 0.20355 -0.28837 -0.25763 0.037168 0.077285 -0.012649 
0.095042 -0.39425 0.14387 -0.058521 -0.16243 0.057227 0.060022 0.017767 
0.11411 -0.24332 0.097015 0.040785 -0.071181 0.015794 0.013657 0.014315 
0.062652 -0.05737 0.11494 0.058542 -0.038956 -0.0138 -0.011498 0.0083956 
0.12612 -0.030899 0.14453 0.049006 -0.040928 -0.0095255 -0.01939 0.01415 
0.17971 -0.017911 0.085999 0.029934 -0.034188 0.009711 -0.012156 0.060022 
0.16377 0.061008 -0.00064712 0.015465 -0.03501 0.031907 0.015301 0.045553 
0.12431 0.11576 -0.023007 0.055911 0.0039565 0.029769 0.031907 0.089123 
0.050157 0.18317 -0.043066 0.043909 -0.023829 0.023357 0.055582 0.10326 
-0.077428 0.24384 -0.011498 -0.036654 -0.070523 0.039141 0.032729 0.14371 
-0.12116 0.19879 0.11642 -0.013471 -0.065919 0.024508 0.01974 0.11822 
-0.082854 0.080244 0.17791 0.053445 -0.039449 0.025824 -0.017253 0.078272 
-0.10406 -0.076771 0.14963 0.081231 -0.0088678 0.026317 -0.0050863 0.029934 
-0.10357 -0.14813 0.077449 0.12924 0.02681 0.020398 0.0026412 0.020891 
-0.089595 -0.079895 -0.036654 0.14026 0.052623 -0.010348 -0.016595 -0.016266 
-0.064604 -0.0055795 -0.090581 0.13434 0.05065 -0.0052507 -0.046519 0.00297 
-0.031886 0.066598 -0.12774 0.078436 0.022371 0.0075736 -0.073318 -0.0013048 
0.0016547 0.094877 -0.10061 0.024837 0.0026412 0.010697 -0.067564 0.0021479 
0.048513 0.12743 -0.060823 0.010862 -0.045532 0.024673 -0.047998 0.0070803 
0.046868 0.16097 -0.063618 -0.024487 -0.068879 0.029934 -0.076771 0.042594 
0.038155 0.15703 -0.033365 -0.017253 -0.07414 0.024673 -0.10225 0.06479 
0.099645 0.11987 0.070708 -0.0088678 -0.07973 0.011191 -0.10784 0.10458 
0.15308 0.076956 0.19205 -0.047834 -0.097816 0.0087245 -0.11755 0.07597 
0.14453 0.038977 0.22345 -0.023665 -0.088444 0.044896 -0.080552 0.10014 
0.066105 0.00050378 0.12973 0.027796 -0.035667 0.052623 -0.098967 0.052952 
-0.013307 -0.025309 -0.078086 0.12398 0.0067515 0.024344 -0.12116 0.14585 
-0.035667 0.010697 -0.1912 0.1179 0.025824 0.016452 -0.099789 0.038648 
-0.017253 0.080738 -0.15766 0.063474 0.0051074 0.00297 -0.11146 0.024508 
-0.049314 0.13351 -0.091897 0.01152 -0.041751 0.0046141 -0.090088 0.01267 
-0.04471 0.11231 0.01004 -0.025145 -0.058028 0.01415 -0.084334 0.019905 
-0.02794 0.058049 -0.052273 -0.024816 -0.074633 0.013164 -0.080223 0.030098 
0.023851 -0.10275 -0.093048 -0.021199 -0.079401 -0.00031829 -0.07562 0.053938 
0.035688 -0.3201 -0.13826 -0.022679 -0.087458 0.00083261 -0.07003 0.057555 
0.0085601 -0.38011 -0.052437 -0.057863 -0.10193 0.03799 -0.048492 0.087808 
-0.012649 -0.2568 0.27096 -0.15536 -0.15766 0.022535 -0.071674 0.06183 
0.010369 -0.064768 0.35597 -0.093376 -0.16062 0.019083 -0.071016 0.030756 
-0.03353 0.1271 0.17133 -0.047669 -0.12034 0.047362 -0.068221 0.020069 
-0.11491 0.16755 -0.052273 0.048677 -0.051287 0.043251 -0.046683 0.028947 
-0.1815 0.18843 -0.14829 0.07597 -0.0090322 0.045389 -0.032872 0.027303 
-0.14418 0.19879 -0.091897 0.027303 -0.047341 0.0082312 -0.049642 0.025001 
-0.13497 0.2297 -0.061809 -0.0096899 -0.065426 0.0019835 -0.06148 0.016123 
-0.089102 0.29135 -0.03205 -0.021856 -0.04471 -0.0055795 -0.08828 0.020233 
-0.020706 0.23792 -0.072825 0.07038 -0.026131 0.00083261 -0.057699 0.0087245 
0.092411 0.11888 -0.042573 0.073997 -0.016102 0.028947 -0.024323 0.02122 
0.2514 0.037004 0.069229 0.01974 -0.036489 0.022206 -0.040928 0.022206 
0.35186 0.016945 0.11494 -0.02942 -0.079237 -0.010348 -0.056712 -0.0016336 
0.30056 0.035524 0.076627 -0.051122 -0.10373 -0.013965 -0.055726 0.025659 
0.18448 0.039634 0.0074092 -0.014951 -0.084334 -0.029584 -0.022185 0.029605 
0.10754 -0.024323 0.02533 0.030592 -0.035832 0.0028056 -0.0088678 0.0421 
0.053116 0.011191 0.11083 0.012342 -0.057205 0.0090533 0.0054362 0.03947 
0.053445 -0.026789 0.18695 -0.076606 -0.10028 0.0014903 0.033222 0.051472 
0.15324 -0.12412 0.16475 -0.11886 -0.13497 0.023357 0.032564 0.016781 
0.11313 -0.12659 0.10491 -0.039942 -0.10291 0.046868 0.064461 0.044238 
-0.16999 -0.038956 0.068078 -0.020048 -0.08269 0.068242 0.070051 0.030592 
-0.17838 -0.0040998 0.054103 0.044238 -0.03912 0.047197 0.052787 -0.00097594 
0.0028056 0.051636 0.021384 0.077943 -0.003771 0.03799 0.04917 -0.012156 
-0.0021268 0.10392 -0.014293 0.069558 -0.024652 0.026974 0.069722 0.041772 
-0.0087034 0.18004 -0.028597 0.052952 -0.023007 0.033715 0.099152 0.038812 
0.044402 0.22707 -0.031557 0.041114 -0.01939 0.077449 0.11017 0.065447 
0.1174 0.23463 -0.051615 0.057391 -0.021528 0.065776 0.099645 0.032729 
0.18826 0.1756 -0.017088 0.068078 -0.015444 0.025824 0.087808 0.017767 
0.23085 0.067913 0.055911 0.014972 -0.045203 0.0098754 0.088465 -0.011827 
0.19977 -0.086636 0.20503 -0.053095 -0.11064 -0.019226 0.079751 -0.0098543 
0.16492 -0.20501 0.2297 -0.094034 -0.14846 -0.010841 0.073832 -0.017911 
0.15193 -0.20879 0.16969 -0.053917 -0.11557 0.0028056 0.077121 -0.022843 
0.18629 -0.12905 0.15259 0.031085 -0.043395 0.018096 0.10162 -0.0091966 
0.15966 -0.018075 0.13434 0.076299 -0.03057 0.038483 0.09833 0.010204 
0.053609 0.089945 0.18103 -0.0049219 -0.069208 0.038483 0.15735 0.024837 
-0.069865 0.29497 0.12579 -0.03057 -0.09091 0.037661 0.17692 0.049006 
-0.10423 0.41548 0.014315 0.034044 -0.056877 0.040621 0.13286 0.044896 
-0.0068948 0.36928 -0.038462 0.076956 -0.0138 -0.0080457 0.10441 0.030263 
0.080738 0.17445 -0.0868 0.10047 -0.014293 0.005765 0.11674 -0.012485 
0.1299 -0.031228 0.0046141 0.051472 -0.028926 0.01563 0.13006 -0.010019 
0.11888 -0.16342 0.065447 0.012013 -0.070194 0.029934 0.11444 0.016781 
0.12579 -0.1866 0.069558 -0.021692 -0.069043 0.064296 0.15045 0.034537 
0.11362 -0.1575 0.11083 -0.031064 -0.06296 0.066763 0.15604 0.034702 
0.090603 -0.071016 0.09422 -0.04323 -0.079237 0.060186 0.14354 0.03651 
0.066598 0.037168 -0.0055795 0.020233 -0.034516 0.089287 0.14354 0.064132 
0.028947 0.17824 -0.11557 0.15357 0.036346 0.086492 0.13894 0.074983 
0.037168 0.25173 -0.10143 0.19435 0.056076 0.044402 0.1008 0.067913 
-0.0039354 0.33229 0.028454 0.088794 -0.02235 0.0056006 0.06742 0.031249 
-0.0072237 0.32341 0.080902 -0.0095255 -0.08384 -0.0039354 0.054267 0.054925 
0.0059294 0.22789 0.088465 -0.085978 -0.11311 -0.0075525 0.092904 0.047855 
0.077778 -0.017088 0.093069 -0.11574 -0.16358 -0.00031829 0.074654 0.028454 
0.11822 -0.26289 0.14535 -0.17871 -0.17756 0.0059294 0.075148 -0.0062372 
0.089287 -0.32832 0.16327 -0.093048 -0.10817 0.040456 0.065283 -0.010019 
-0.0096899 -0.20682 0.092576 0.10113 0.02533 0.040456 0.098659 0.021549 
-0.12396 0.0037921 -0.019226 0.19468 0.081724 0.072024 0.11559 0.058706 
-0.16013 0.089616 -0.05178 0.16344 0.043251 0.048677 0.08978 0.064954 
-0.069701 0.11543 -0.051615 0.062159 -0.024487 -0.0032777 0.04358 0.053116 
0.005765 0.10935 0.018918 0.039963 -0.080059 -0.030077 0.024508 0.025824 
0.023686 0.17363 0.056404 0.048019 -0.059178 -0.012156 0.031578 0.026317 
-0.0067304 0.18366 0.0019835 0.098823 -0.01676 0.029605 0.069064 0.027632 
-0.015773 0.17166 -0.011334 0.096357 -0.023172 0.033222 0.054925 0.055911 
-0.038627 0.10063 -0.021363 0.014315 -0.051615 0.030427 0.051636 0.059035 
-0.054082 0.025166 0.00083261 -0.056877 -0.090746 0.055747 0.032071 0.070708 
-0.034681 0.00033937 0.01974 -0.071509 -0.090253 0.019247 0.015959 0.025988 
-0.042408 0.0059294 -0.070194 -0.094856 -0.11163 0.041443 0.027139 0.013821 
-0.025967 0.037168 -0.070852 -0.038133 -0.067399 0.027468 0.015794 0.011848 
-0.035338 0.093891 -0.059178 0.082382 0.020727 0.031907 0.016616 0.04358 
-0.070852 0.092082 -0.009361 0.18103 0.049992 0.044238 0.029112 0.049828 
-0.11261 0.10984 0.075312 0.12332 0.021549 0.044402 0.027139 0.073339 
-0.1353 0.13384 0.083368 0.054432 -0.032379 0.038977 0.014643 0.060515 
-0.11442 0.15916 0.097837 0.062817 -0.046683 -0.00081153 -0.016924 0.033387 
-0.030077 0.14157 0.098001 0.12036 -0.044217 -0.0062372 -0.045039 -0.0057439 
0.016616 0.14223 0.045718 0.18054 -0.0059084 -0.036983 -0.05885 -0.013471 
0.0024767 0.074161 -0.0087034 0.23923 0.032893 -0.042901 -0.073318 0.025001 
0.0034632 0.023028 -0.11426 0.12497 -0.0029489 0.030427 -0.0021268 0.035853 
0.067256 -0.22869 -0.066741 -0.071838 -0.054904 0.021713 0.027468 -0.026789 
0.1493 -0.39853 -0.065262 -0.039449 -0.02794 0.041114 0.011684 -0.0082102 
0.12973 -0.29511 -0.066906 0.10819 0.030756 0.042429 -0.0098543 0.015959 
0.065283 -0.035667 0.029276 0.13417 0.029605 0.03536 -0.04619 0.057062 
-0.021363 0.2491 0.21178 0.03388 -0.021363 0.032564 -0.030242 0.046704 
-0.0064016 0.25863 0.3775 -0.09798 -0.065755 0.012013 -0.018733 0.038319 
0.069393 0.11411 0.30812 -0.13514 -0.070194 0.0014903 -0.039284 -0.0027845 
0.10704 0.021713 0.08419 -0.12198 -0.047669 -0.0070593 -0.02235 0.009711 
0.097015 0.051801 -0.10801 -0.046519 -0.015938 0.013986 -0.011498 0.044238 
0.081724 0.16262 -0.16786 0.08567 0.024837 0.064296 -0.0060728 0.04095 
-0.030406 0.24367 -0.16276 0.085999 -0.0054151 0.021384 -0.017746 0.034537 
-0.11196 0.22986 -0.1205 0.099152 -0.014129 -0.012485 -0.035832 0.01826 
-0.11689 0.17708 -0.072496 0.13795 -0.014951 -0.023829 -0.057863 -0.0064016 
-0.054575 0.11477 -0.032543 0.084355 -0.019061 0.0056006 -0.032708 -0.0013048 
-0.0083746 0.064625 0.034866 -0.0077169 -0.0090322 0.05065 -0.020541 0.014315 
0.05624 0.023522 0.059857 0.015465 0.019247 0.032893 -0.01528 -0.01939 
0.060186 -0.00097594 0.068407 0.12694 0.023028 0.0014903 -0.027118 -0.0032777 
0.063968 -0.024323 0.092082 0.12069 0.016616 -0.0088678 -0.032215 -0.012649 
0.096357 -0.15421 0.11543 0.11247 0.02829 0.024179 -0.018733 -0.0019624 
0.13532 -0.34723 0.10195 0.14634 0.036839 0.034044 -0.013143 -0.016266 
0.11461 -0.40724 0.0070803 0.2024 0.051143 0.024508 -0.014129 0.012506 
0.045553 -0.1279 -0.066248 0.29217 0.083368 0.013328 0.0098754 0.049006 
0.026152 0.16673 -0.093541 0.26817 0.098823 0.023522 0.0060938 0.053774 
0.083533 0.28395 -0.038298 0.19139 0.070051 0.058706 0.024344 0.033058 
0.11395 0.2976 0.067749 0.08419 0.032071 0.06742 0.024837 0.023028 
0.15061 0.31404 0.1465 -0.061809 -0.0029489 0.053281 0.039963 0.011848 
0.1368 0.17807 0.23792 -0.20896 -0.043395 0.048677 0.052952 0.061337 
0.11921 0.02829 0.26389 -0.26683 -0.075127 0.033058 0.03799 0.052787 
0.068571 -0.059672 0.17988 -0.22622 -0.070687 0.0067515 0.014315 0.069393 
0.01415 -0.052931 0.068407 -0.1284 -0.062302 -0.0083746 -0.011005 0.037168 
-0.0057439 -0.11557 -0.087129 -0.028597 -0.050464 -0.012156 -0.028433 0.03536 
-0.0073881 -0.11146 -0.21192 0.062652 -0.0067304 -0.0040998 -0.0034422 0.015465 
0.049006 -0.064604 -0.25532 0.10688 0.019905 0.012506 0.016452 0.0021479 
0.13993 -0.015609 -0.16177 0.12924 0.029441 0.03536 0.027303 0.0059294 
0.13647 -0.0057439 -0.026296 0.069393 0.030263 0.067585 0.048019 0.026317 
0.081889 0.015465 0.075148 0.045224 0.04358 0.05476 0.04095 0.03947 
0.05476 -0.028597 0.16426 0.020891 0.018918 0.069393 0.039305 0.046375 
0.018096 -0.066577 0.24005 -0.01117 -0.0062372 0.0052718 0.029441 0.034866 
0.00099702 -0.11163 0.32752 -0.054082 -0.016431 0.01267 0.041114 0.043251 
0.047526 -0.11787 0.26669 -0.0032777 0.0041209 0.017274 0.0080668 0.023522 
0.082711 -0.045368 0.10606 0.057062 0.0062583 0.00297 0.0034632 0.013328 
0.070051 0.03092 0.029441 0.058049 0.012506 -0.0070593 -0.010841 -0.011992 
0.068571 0.084519 -0.035667 0.02533 0.0028056 0.011848 0.017603 0.01152 
0.040456 0.10589 -0.089595 0.02681 0.00297 0.034702 0.0689 0.03092 
0.024673 0.12924 -0.057205 -0.010676 0.0013258 0.037826 0.058871 0.048184 
0.0062583 0.15785 -0.044052 -0.034516 -0.0072237 0.035524 0.07301 0.053938 
-0.0060728 0.21589 -0.079401 -0.0032777 0.0080668 0.024508 0.042594 0.063968 
0.015794 0.19944 -0.064768 0.010862 0.00066819 0.016781 0.031249 0.057227 
0.00099702 0.13812 -0.059672 0.052787 0.0037921 0.014972 0.037168 0.053609 
-0.0011404 0.069393 -0.10505 0.069558 0.021056 0.0227 0.042594 0.049828 
0.021878 0.034537 -0.085485 0.078929 0.036017 0.043745 0.078765 0.036675 
0.039799 -0.031064 -0.025802 0.0080668 0.04095 0.046704 0.073339 0.082382 
0.054596 -0.010841 0.025001 -0.0098543 0.032729 0.046046 0.046211 0.057062 
0.024344 0.03947 0.10129 0.0069159 0.025495 0.053281 0.049335 0.043251 
0.02122 0.068078 0.16722 -0.014129 -0.011498 0.023028 0.036182 0.018918 
0.032729 -0.00097594 0.20717 -0.072167 -0.042079 -0.01232 0.024837 0.033387 
0.047526 -0.032872 0.21753 -0.098309 -0.043066 -0.014129 0.023028 0.029112 
0.024508 -0.025802 0.23677 -0.086964 -0.041257 -0.0095255 0.048513 0.062981 
0.037661 -0.031064 0.19451 -0.085978 -0.010676 0.034702 0.076134 0.048841 
0.032729 -0.040928 0.067585 -0.033694 0.0074092 0.01711 0.057391 0.043416 
0.046211 -0.011663 0.014315 -0.01939 -0.003771 0.0072447 0.027961 0.00297 
0.038977 0.072188 0.044731 -0.043559 -0.030242 0.0087245 0.01711 0.015301 
-0.024487 0.14881 0.065447 -0.035338 -0.026131 -0.017417 0.014479 0.012013 
-0.053424 0.21506 0.027139 -0.0021268 0.012177 0.031742 0.039305 0.021384 
-0.047505 0.20487 0.022371 0.029605 0.0059294 -0.0024557 0.019247 0.016123 
-0.027775 0.14864 0.015465 1.0539e-005 0.00083261 -0.0019624 0.0059294 0.030756 
-0.015938 0.14979 -0.086307 0.05476 0.022042 0.0093821 0.026974 0.038483 
0.021056 0.25485 -0.16786 0.18136 0.058706 0.049006 0.058542 0.050979 
0.054103 0.31914 -0.17312 0.15883 0.058871 0.076956 0.10014 0.049335 
0.066434 0.26061 -0.12314 0.082711 0.031085 0.052952 0.069722 0.047362 
0.10672 0.007738 -0.033859 -0.023172 -0.022021 0.016781 0.02681 -0.010841 
0.14634 -0.2448 0.016945 -0.13004 -0.07825 -0.032872 0.007738 -0.021692 
0.11954 -0.29067 0.027303 -0.14171 -0.076935 -0.031557 0.0051074 -0.012978 
0.05065 -0.15947 -0.013307 -0.028597 -0.0032777 0.017603 0.033058 0.012999 
-0.0057439 0.048677 -0.020048 0.098001 0.065612 0.048184 0.036839 0.025495 
-0.02794 0.22 0.069886 0.13006 0.096357 0.066598 0.059693 0.065118 
-0.07266 0.21243 0.24926 0.091589 0.068571 0.042758 0.051472 0.062981 
-0.11968 0.16262 0.3119 0.060515 0.037826 0.028454 0.090931 0.061501 
-0.092719 0.12135 0.24433 -0.023172 0.0054362 0.028783 0.031085 0.013986 
-0.081045 0.080738 0.092247 -0.0055795 -0.0031133 0.026974 0.028947 0.021384 
-0.010019 0.036675 -0.021034 0.096357 0.016288 0.027796 0.0098754 0.00033937 
0.017603 -0.0067304 -0.085649 0.23825 0.029276 -0.008539 0.0041209 0.0059294 
0.04654 -0.014622 -0.1404 0.244 0.014479 0.0031344 0.0032988 0.025166 
0.01974 -0.0057439 -0.096172 0.14075 -0.006566 0.017767 0.024673 0.04358 
0.01711 -0.047998 -0.00015387 -0.021363 -0.023336 0.0080668 0.037497 0.033058 
0.023686 -0.052437 0.042758 -0.12133 -0.032379 0.012177 0.019576 0.023851 
0.0046141 0.065118 -0.024158 -0.07003 -0.011498 0.035524 0.010533 0.023851 
0.030427 0.10244 -0.10982 0.0095465 0.038155 0.052623 0.052294 0.048348 
0.054596 0.11428 -0.11163 0.063968 0.059528 0.067256 0.06035 0.039799 
0.1345 -0.025802 0.032729 0.066763 0.062488 0.052623 0.029276 -0.0040998 
0.17445 -0.16555 0.18251 0.045224 0.035524 0.018918 0.00066819 -0.024652 
0.15604 -0.086142 0.29941 0.0090533 -0.00064712 0.005765 0.0037921 -0.018239 
0.086328 0.043745 0.21194 -0.0032777 -0.003771 0.026974 0.028619 -0.0039354 
0.036182 0.027796 0.075312 0.01826 -0.014787 0.038319 0.0074092 -0.0032777 
0.01267 0.0080668 -0.018239 0.079751 -0.025145 0.012342 -0.0059084 0.014808 
0.095042 0.012342 -0.12626 0.19024 1.0539e-005 0.00017495 0.011355 -0.019226 
0.10573 0.12118 -0.16802 0.31371 0.039963 0.011191 0.019905 0.060515 
-0.084663 0.24367 -0.21044 0.34331 0.075476 0.032729 0.072188 0.10589 
-0.21915 0.25551 -0.08828 0.25518 0.08008 0.087808 0.068078 0.1396 
-0.13021 0.041772 0.17018 -0.0098543 0.04358 0.085506 0.046375 0.084355 
0.086328 -0.34345 0.31108 -0.23806 -0.0070593 0.048677 0.025988 0.027468 
0.22887 -0.59023 0.3101 -0.26042 -0.04471 0.00297 0.019247 -0.033859 
0.15883 -0.49126 0.10589 -0.14155 -0.029091 0.0072447 0.032236 0.00066819 
0.026974 -0.19137 -0.0090322 0.011848 0.015137 0.024179 0.020727 0.011355 
-0.085978 0.052459 -0.079237 0.094713 0.0324 0.028619 0.0093821 0.066598 
-0.12346 0.19616 -0.06 0.11148 0.022371 0.031085 0.026481 0.075805 
-0.069865 0.28675 -0.029584 0.086163 0.011684 0.046046 0.043087 0.066105 
-0.0039354 0.31634 -0.053917 0.071037 0.0095465 0.034209 0.042758 0.044402 
0.060844 0.30039 -0.058356 0.05476 -0.011992 0.025001 0.017767 0.01711 
0.074654 0.26126 0.0051074 -0.023665 -0.039449 0.0056006 0.013986 0.018425 
0.045882 0.12135 0.11411 -0.040106 -0.047505 -0.010019 0.004943 0.033058 
0.060186 -0.072167 0.19402 -0.0039354 -0.041751 -0.047998 0.0011614 -0.0091966 
0.093562 -0.18545 0.17774 -0.009361 -0.037311 -0.0060728 0.0046141 -0.0080457 
0.095371 -0.16243 0.11773 -0.021856 -0.026296 -0.0014692 -0.0050863 -0.025309 
0.041772 -0.070523 0.096686 0.0044497 -0.0019624 0.0098754 0.0083956 -0.0019624 
0.023357 0.0092177 0.085999 0.038812 -0.0044286 0.016945 0.014315 -0.017582 
0.037661 0.075641 0.095699 0.032729 0.0065871 -0.00031829 -0.0013048 0.01415 
0.060515 0.17199 0.08156 0.04506 -0.00015387 0.041278 0.045224 0.014643 
0.077614 0.22986 0.020069 0.043416 0.00297 0.014808 -0.0036066 0.0018191 
0.086821 0.24482 -0.016266 0.0047785 -0.016102 -0.0016336 0.0021479 0.025166 
0.07449 0.16245 -0.045696 0.016781 -0.019719 -0.0087034 0.013492 0.032071 
0.036182 0.1294 -0.053424 0.038155 -0.004593 0.012177 0.023028 0.03651 
-0.00064712 0.12414 -0.011992 0.028619 0.0052718 0.031414 0.042758 0.036346 
0.043745 0.074654 -0.031228 -0.047341 -0.013471 0.028783 0.023686 0.021549 
0.060515 0.013164 -0.026789 -0.087786 -0.024323 0.0042853 0.015465 0.031414 
0.054596 -0.019226 -0.031557 -0.043559 -0.00081153 0.024673 0.032236 0.034373 
-0.010183 0.11822 -0.067564 -0.011334 0.020727 0.05213 0.04917 0.051308 
-0.025145 0.24844 -0.035996 0.039141 0.012013 0.046211 0.05624 0.055254 
0.0037921 0.26537 0.033387 0.034702 -0.0073881 0.0018191 0.028454 0.025659 
0.013328 0.14979 0.11362 0.051801 -0.026789 -0.029584 0.024673 0.012342 
-0.0050863 0.058871 0.10392 0.012177 -0.0059084 -0.019226 0.032564 0.041114 
0.0034632 -0.050629 0.16574 -0.057534 -0.022514 -0.0021268 0.056733 0.083204 
0.0037921 -0.06 0.20799 0.0047785 0.0074092 0.047691 0.063968 0.08156 
-0.044381 0.044567 0.12858 0.029605 0.01152 0.049992 0.05065 0.086163 
-0.034681 0.12562 0.094055 0.016452 0.0023123 0.020727 -0.0027845 0.019083 
0.0031344 0.11165 0.053116 0.0064227 -0.019226 -0.0034422 0.0059294 0.010369 
0.016123 0.1544 -0.0031133 -0.016431 -0.021363 0.0013258 0.0046141 -0.012485 
0.023028 0.24203 -0.026789 -0.023336 -0.0029489 0.02533 0.018096 -0.015116 
0.055747 0.28839 -0.070687 -0.0096899 0.022371 0.011355 0.026974 -0.030406 
0.069558 0.29678 -0.062796 0.020233 0.009711 0.015794 0.011026 0.01563 
0.10277 0.24877 -0.024816 0.01826 0.013492 -0.0055795 0.026317 -0.0090322 
0.15045 -0.0082102 0.039141 0.042429 0.0037921 0.0028056 0.016945 0.0016547 
0.21358 -0.35068 0.092082 0.092904 0.0056006 0.01415 0.0079024 -0.0060728 
0.18662 -0.40313 0.072517 0.049992 0.0013258 0.013657 0.012999 0.023686 
0.058706 -0.16144 0.038319 0.0082312 0.014479 0.029934 0.015794 0.023522 
-0.086964 0.071531 -0.0082102 0.067091 0.038483 0.014808 0.030098 0.047197 
-0.15947 0.17577 -0.044217 0.15916 0.059364 0.035853 0.061172 0.062652 
-0.145 0.18892 -0.076935 0.22213 0.090274 0.084519 0.066269 0.069064 
-0.12494 0.11411 -0.10324 0.18744 0.092082 0.05476 0.051636 0.072353 
-0.084991 0.018918 -0.077757 0.093726 0.060844 0.032729 0.045553 0.063803 
-0.037311 0.030427 -0.023501 -0.014787 0.024344 0.037826 0.036182 0.037826 
-0.018075 0.13368 0.012999 -0.050958 0.017932 0.040128 0.028783 0.026646 
0.012342 0.1294 0.047691 0.015137 0.03799 0.051143 0.031578 0.01415 
0.082546 0.011684 0.026646 0.091753 0.02681 0.025495 0.015465 0.0036276 
0.087808 -0.038462 -0.053588 0.11378 -0.0044286 -0.012156 -0.0077169 0.016616 
0.026317 0.088136 -0.068714 0.11066 -0.016102 -0.014293 0.0067515 0.038812 
0.019083 0.13779 0.025166 0.10343 0.01711 0.010204 0.043416 0.034373 
0.042923 0.12003 0.17824 0.021549 0.074983 0.083862 0.066105 0.046375 
0.12135 -0.026131 0.20191 -0.058685 0.082053 0.075805 0.049006 0.012013 
0.19205 -0.20288 0.1733 -0.1085 0.052787 0.051143 0.037826 0.00083261 
0.22312 -0.38965 0.17215 -0.11228 0.035195 0.055582 0.029441 0.0014903 
0.27294 -0.45377 0.13549 -0.011663 0.055582 0.046046 0.039141 0.0028056 
0.22098 -0.28295 0.063639 0.12743 0.079422 0.041278 0.044896 0.030427 
1.0539e-005 0.00066819 -0.079072 0.18942 0.046704 0.029441 0.036675 0.057555 
-0.13596 0.20388 -0.12807 0.097344 0.013164 -0.010512 0.022042 0.047526 
-0.13366 0.21621 -0.02794 -0.059507 -0.018075 -0.0078813 0.030263 0.033058 
-0.077922 0.093069 0.045882 -0.086964 -0.011498 0.0044497 0.034044 0.032893 
0.004943 -0.062138 -0.038956 0.0041209 0.024837 0.036675 0.0056006 0.019083 
0.042594 -0.10965 -0.133 0.080409 0.036839 0.021878 -0.0096899 0.0088889 
0.048513 -0.10012 -0.15766 0.068242 0.027303 -0.012156 0.017603 0.042923 
0.032729 -0.028926 -0.043724 0.041607 -0.0004827 -0.0016336 0.018425 0.031414 
0.026974 0.056733 0.11707 -0.012156 -0.016102 0.018425 0.04654 0.047197 
0.022371 0.11625 0.31569 -0.036489 0.0042853 0.022535 0.035195 0.064625 
0.0098754 0.11428 0.48832 0.004943 0.016123 0.02533 0.029276 0.070215 
0.0044497 0.098988 0.41121 0.0054362 0.0023123 0.020562 0.030098 0.077614 
0.017274 0.072188 0.19649 0.10425 0.02122 0.012177 0.048019 0.063639 
0.014315 0.077614 -0.016595 0.21638 0.025659 0.019083 0.068242 0.049335 
-0.013471 0.076463 -0.11228 0.18185 0.014972 0.025166 0.041772 -0.0032777 
-0.023994 0.096193 -0.15257 0.15489 0.037168 0.048348 0.025988 0.017767 
0.016616 0.13795 -0.17295 0.17396 0.076299 0.041607 0.015137 0.019247 
0.10359 0.13615 -0.13859 0.15818 0.058706 0.01267 0.00033937 0.0083956 
0.076627 0.024508 -0.046847 -0.034352 0.013328 0.036675 0.042429 0.00017495 
0.10655 -0.10702 0.078436 -0.25549 -0.02087 0.024837 0.047691 -0.001798 
0.17659 -0.11853 0.096357 -0.2208 -0.042737 -0.001798 0.020398 -0.027611 
0.17856 0.054267 0.042594 -0.077922 -0.027447 -0.012485 -0.0060728 -0.0095255 
0.13779 0.19418 -0.030735 -0.01676 -0.021692 -0.01232 0.0087245 0.0042853 
0.024179 0.17412 0.07301 -0.076277 -0.016102 0.010862 0.032071 0.0087245 
-0.024323 0.009711 0.17297 -0.11409 -0.0027845 0.014972 0.024673 0.013657 
-0.012978 -0.14895 0.24203 -0.040928 0.044567 0.036675 0.029934 0.0324 
-0.003771 -0.11574 0.21852 0.053609 0.054925 0.041278 0.025988 0.023686 
-0.01117 0.06742 0.098494 0.12233 0.027632 0.022371 0.016945 0.047033 
-0.0052507 0.22263 0.036839 0.090931 -0.020377 -0.0004827 0.026152 0.037661 
-0.012978 0.29349 0.026974 0.038155 -0.03057 -0.003771 0.024344 0.059693 
-0.013965 0.34692 0.013821 0.0028056 0.0041209 0.052952 0.038812 0.067749 
0.0072447 0.22131 0.017438 -0.069536 0.022206 0.053938 0.050321 0.072188 
0.041936 0.088465 -0.025309 -0.10817 0.033058 0.042758 0.047855 0.036839 
0.084684 -0.033037 -0.060494 -0.10028 0.018425 0.049664 0.055089 -0.0014692 
0.095206 -0.14698 -0.1307 -0.06 0.0032988 0.044073 0.030592 0.0016547 
0.061995 -0.0057439 -0.16917 -0.050136 -0.004593 -0.012814 0.010204 0.0024767 
0.024673 0.0051074 -0.042737 -0.043888 -0.037476 -0.037311 -0.013471 0.029112 
-0.044381 0.040456 0.032893 0.0019835 -0.044052 -0.041586 -0.0073881 0.027468 
-0.10061 0.0227 0.051472 0.077449 -0.019226 -0.011498 -0.01117 0.026317 
-0.060823 -0.0014692 0.028783 0.14897 -0.0049219 -0.0055795 -0.011498 0.012835 
-0.063289 0.062817 0.019247 0.21983 0.036346 0.013328 -0.0096899 0.023686 
-0.058685 0.25008 0.016616 0.28083 0.055418 0.032564 0.025659 0.055254 
-0.0042642 0.29053 -0.0021268 0.30631 0.062981 0.028454 0.041114 0.068736 
0.15028 0.23512 -0.05737 0.34068 0.075641 0.069558 0.063145 0.032729 
0.24449 0.17692 -0.098967 0.34561 0.10096 0.077614 0.062981 0.026152 
0.1807 0.15851 -0.026624 0.11954 0.10392 0.097672 0.073832 0.049499 
0.050486 0.14535 0.07038 -0.17838 0.049828 0.072353 0.046704 0.059035 
-0.03764 0.10392 0.07449 -0.3201 -0.0095255 0.040621 0.037661 0.0324 
-0.027447 -0.013307 -0.0042642 -0.21291 -0.011992 0.040785 0.032236 0.0324 
0.00297 -0.14451 -0.036983 -0.13974 -0.010841 0.017438 -0.0022913 0.0227 
0.022864 -0.23395 -0.084005 -0.13136 0.0069159 0.01004 -0.0040998 0.013328 
0.01152 -0.21274 -0.14155 -0.0406 0.01711 -0.0077169 -0.0034422 0.044567 
-0.053424 -0.081868 -0.17542 0.044402 -0.0013048 -0.012814 0.027796 0.073339 
-0.088773 0.10852 -0.10538 0.055418 -0.008539 0.0083956 0.024508 0.058377 
-0.063946 0.21967 0.03947 0.027961 0.0028056 0.0227 0.012506 0.048184 
-0.004593 0.24137 0.20964 0.021878 0.011191 0.020891 0.0051074 0.030756 
0.086985 0.19665 0.1904 0.066763 0.0047785 -0.0073881 -0.013471 0.042594 
0.07301 0.24729 0.044402 0.18284 -0.01528 -0.027775 0.0085601 0.031249 
0.014479 0.33147 0.036346 0.18777 -0.0077169 -0.0082102 0.034209 0.053609 
0.00066819 0.23611 0.18235 0.038812 0.0026412 0.0069159 0.024508 0.037826 
0.039963 -0.059014 0.2657 -0.043395 0.018754 0.0047785 0.00083261 0.029112 
0.099481 -0.25384 0.23989 -0.050464 0.070873 0.030592 0.0062583 -0.0022913 
0.093398 -0.30613 0.10556 -0.023336 0.13056 0.084355 0.058706 0.012835 
0.058542 -0.28262 -0.11787 0.056076 0.15259 0.12398 0.082711 0.01826 
0.057227 -0.27801 -0.14566 0.083533 0.10474 0.078272 0.052459 0.022206 
0.064132 -0.17887 -0.0503 0.076299 0.028783 0.007738 0.020727 0.00033937 
0.0592 0.019083 0.011355 0.078272 0.013657 0.00050378 -0.00081153 0.018918 
0.065776 0.13236 0.021878 0.10655 0.0069159 0.0064227 0.016123 0.0065871 
0.092082 0.12908 -0.013307 0.12102 0.0080668 0.019905 0.0041209 0.018425 
0.078436 0.1202 -0.00081153 0.082711 0.019576 0.024837 0.027961 0.064132 
-0.0022913 0.17084 0.042265 0.051308 0.016123 0.026974 0.046046 0.1008 
-0.050629 0.25107 0.058049 0.04917 -0.0024557 0.0082312 0.039799 0.084026 
-0.079401 0.36337 0.055418 0.028783 -0.025474 0.0018191 0.030592 0.063639 
-0.05326 0.31815 0.075476 -0.065591 -0.028926 0.017274 0.016781 0.0054362 
0.021713 0.071695 0.14091 -0.1307 -0.026953 -0.044052 0.061995 0.07597 
0.10359 -0.19614 0.22378 -0.099789 0.052787 0.035853 0.04095 0.013821 
0.23479 -0.29034 0.22427 -0.020048 0.089452 0.042594 0.0075736 -0.008539 
0.27261 -0.24908 0.19599 0.00066819 0.098001 0.062652 0.027468 -0.045203 
0.15703 -0.17246 0.16607 0.053609 0.041936 0.09981 0.022864 -0.0054151 
-0.0042642 -0.065097 0.11017 0.015137 -0.010512 0.0079024 0.0054362 0.023028 
-0.092061 0.07038 0.049992 0.022535 -0.027118 -0.03057 0.0023123 0.016781 
-0.13875 0.1174 -0.05737 0.030756 -0.014951 -0.020048 -0.013471 -0.0070593 
-0.064768 0.077449 -0.025638 0.025988 0.023193 0.027303 0.020562 -0.0024557 
0.090603 -0.023829 0.048184 -0.031886 0.024179 0.042594 0.02829 0.010697 
0.15916 -0.035832 0.031578 -0.014622 0.033387 0.0324 0.042429 0.026152 
0.11905 0.083862 0.0098754 0.031742 0.03799 0.03536 0.04917 0.051308 
0.079422 0.10556 0.062817 0.0032988 0.042265 0.028783 0.039634 0.044731 
0.047526 0.05476 0.14305 0.021384 0.050814 0.050321 0.08715 0.063639 
0.0037921 0.037826 0.14453 0.059035 0.053281 0.051143 0.068571 0.038648 
-0.028269 0.07038 -0.054904 0.064625 0.054267 0.04358 0.042594 0.065612 
-0.045039 0.078929 -0.24184 -0.0022913 0.037497 0.024015 0.028454 0.068242 
-0.065919 0.14568 -0.35233 -0.024816 0.02122 0.020069 0.034209 0.068571 
-0.075127 0.18728 -0.33013 0.0018191 0.018589 0.038648 0.048513 0.052459 
-0.076935 0.183 -0.26782 0.042923 0.013657 0.034702 0.0227 0.0421 
-0.049314 0.11576 -0.17986 0.11346 0.026646 0.013821 0.016616 0.044896 
0.016945 0.071531 0.13434 0.096028 0.0028056 -0.0090322 -0.0082102 0.023357 
0.1202 0.0047785 0.56181 -0.036818 -0.001798 -0.01939 -0.0052507 -0.027611 
0.17166 0.017767 0.71324 -0.10932 0.0083956 0.023522 0.024673 -0.02646 
0.14765 0.029769 0.45988 -0.10373 0.040785 0.04506 0.027632 -0.033859 
0.1054 0.021549 0.048348 -0.033365 0.056569 0.047691 0.025166 -0.027775 
0.14848 -0.068879 -0.23231 -0.025638 0.023686 0.0024767 0.01152 -0.080223 
0.2121 -0.17953 -0.25105 -0.020212 -0.032708 -0.037311 -0.006566 -0.076935 
0.16722 -0.19893 -0.0070593 -0.0088678 -0.0059084 0.0054362 0.007738 -0.027282 
0.061172 -0.076442 0.28198 0.0051074 0.02829 0.019411 0.012506 0.065447 
-0.0055795 0.10852 0.38293 0.021056 0.059693 0.043909 0.042758 0.094877 
-0.043066 0.23019 0.35909 0.059364 0.061008 0.05476 0.05624 0.11757 
-0.06707 0.25946 0.2685 0.10063 0.061501 0.039305 0.063639 0.082875 
-0.079566 0.12283 0.079094 0.084026 0.050486 0.055254 0.08419 0.071366 
-0.066741 -0.056712 -0.10669 0.06479 0.031578 0.030756 0.034044 0.059364 
-0.072496 -0.060329 -0.3229 0.12842 0.026974 0.02681 0.022535 0.051308 
-0.066248 0.069393 -0.38653 0.16278 0.031742 0.015301 0.035524 0.079587 
-0.057205 0.17347 -0.33391 0.15686 0.025659 0.0031344 0.019083 0.045224 
-0.069208 0.19566 -0.19498 0.11872 0.037004 0.018425 0.0093821 0.012999 
-0.057041 0.16788 -0.078415 0.063968 0.015465 0.0051074 -0.00015387 0.0042853 
-0.088773 0.14716 -0.043888 -0.0090322 0.040128 0.014972 0.0075736 0.013164 
-0.018075 0.071366 0.050486 -0.024816 0.031414 0.01563 0.01563 0.026152 
0.052952 0.053116 0.056898 0.076627 0.025001 0.00297 0.01826 0.028454 
0.096521 0.016616 0.076134 0.099645 0.029769 0.039963 0.026481 0.036182 
0.15407 -0.037805 0.16788 0.05476 0.017767 0.034044 0.022371 0.020891 
0.14946 -0.091239 0.22509 0.028619 0.028947 0.031907 0.032071 0.00050378 
0.14864 -0.11705 0.1733 0.044238 0.058706 0.029605 0.016452 0.023193 
0.13401 -0.087293 0.094384 0.084684 0.083204 0.033058 0.026317 0.026317 
0.098494 -0.0080457 0.11395 -0.0040998 0.041443 0.038812 0.03536 0.028619 
0.075312 0.014643 0.15292 -0.10604 -0.0024557 0.0016547 0.017274 0.0051074 
0.049006 0.026152 0.11017 -0.1085 -0.021199 -0.0090322 0.015137 0.044567 
0.013328 0.089452 0.0044497 -0.039284 -0.020541 -0.01117 0.017932 0.029605 
-0.020377 0.16442 -0.040271 0.0060938 -0.0406 -0.027282 0.013492 0.052459 
-0.014458 0.18925 -0.041751 -0.01528 -0.070852 -0.031886 0.0072447 0.03388 
-0.0034422 0.1733 -0.0062372 -0.011005 -0.018404 0.00033937 0.014643 0.063803 
-0.015773 0.15653 -0.039778 0.029276 0.079258 0.070544 0.049499 0.042758 
-0.050136 0.1807 -0.18627 0.1465 0.12661 0.057062 0.038155 0.071037 
-0.044546 0.1664 -0.22573 0.15719 0.09274 0.044896 0.061172 0.05476 
-0.01232 0.097508 -0.14714 0.071202 0.075476 0.067913 0.062817 0.036839 
0.00017495 0.019247 -0.0090322 0.0065871 0.059857 0.040785 0.047033 0.037004 
-0.0098543 -0.0034422 0.027468 -0.0098543 0.060186 0.038155 0.041936 0.069886 
-0.0090322 0.029605 -0.033365 0.061337 0.0421 0.053774 0.032236 0.034537 
0.016123 0.020069 -0.053588 0.18333 0.041114 0.034866 0.037332 0.038648 
0.044402 0.014808 -0.006566 0.26784 0.040785 0.051636 0.054925 0.020398 
0.023686 -0.085978 0.082382 0.21474 0.048513 0.022864 0.011191 0.022371 
-0.0036066 -0.16621 0.18794 0.15851 0.045224 0.017932 -0.0039354 0.033715 
0.020069 -0.16243 0.10441 0.17248 0.036839 0.029112 0.020891 0.041607 
0.078272 -0.08532 -0.00064712 0.13697 0.021384 0.025001 0.043251 0.040621 
0.092411 0.010862 -0.074962 0.059693 0.019083 0.033058 0.032564 0.032564 
0.055582 0.099974 -0.11113 -0.022514 0.024508 0.034866 0.029276 0.03388 
-0.0087034 0.15949 -0.07414 -0.12182 -0.0091966 0.021384 0.054596 0.061008 
-0.029255 0.15571 -0.04619 -0.18068 -0.023336 0.012013 0.040621 0.072188 
0.058542 0.12003 -0.020212 -0.16325 -0.012814 0.0019835 0.042923 0.033058 
0.14354 0.1835 -0.062467 -0.029584 0.03947 0.032236 0.026152 -0.010348 
0.17297 0.22739 -0.082032 0.04654 0.051472 0.036839 0.029934 0.00297 
0.078929 0.21457 -0.067728 0.082546 0.051636 0.029441 0.010862 -0.0029489 
0.013328 0.14502 -0.021363 0.10408 0.036675 0.038648 -0.0080457 -0.0036066 
-0.034352 0.082382 0.032564 0.029769 0.028619 0.026152 0.017274 0.0037921 
0.029769 0.085177 0.056076 -0.026624 0.036182 0.035031 0.035688 0.004943 
0.15357 0.057884 0.0592 -0.025638 0.044238 0.044731 0.066927 -0.035667 
0.086821 -0.0011404 0.079916 0.028783 0.032071 0.035195 0.069558 0.0689 
-0.014787 -0.051122 0.068407 0.01974 0.033387 0.004943 0.016123 0.032564 
-0.034681 -0.030242 0.040456 0.046211 0.020727 0.019905 0.034537 0.014479 
-0.008539 0.00083261 0.068242 0.049006 0.05065 0.071695 0.049828 -0.013471 
-0.033859 0.069722 0.11132 0.06742 0.032236 0.029605 0.035688 0.0034632 
-0.035338 0.14174 0.22361 0.087808 0.030756 0.043416 0.057391 0.018918 
-0.016431 0.18004 0.27754 0.13401 0.020891 0.020069 0.032564 0.051472 
0.055911 0.11231 0.22559 0.11214 -0.033201 -0.031064 0.0032988 0.046211 
0.10441 0.04654 0.12053 0.067256 -0.063782 -0.042737 -0.024323 0.01826 
0.086985 0.0079024 0.044731 0.0042853 -0.049149 -0.020541 -0.030242 0.063639 
0.017603 -0.012978 0.095371 -0.10061 0.013328 0.027796 0.0064227 0.072024 
0.032236 -0.15273 0.11921 -0.145 0.080902 0.041443 0.030098 0.049992 
0.077943 -0.33326 0.082711 -0.14796 0.061172 0.055747 0.0592 0.00083261 
0.1345 -0.39244 0.062981 -0.087293 0.07301 0.059857 0.058706 -0.0031133 
0.11411 -0.25171 -0.018733 -0.017911 0.066269 0.066927 0.051636 -0.0004827 
0.059693 -0.011498 -0.036818 0.00017495 0.051965 0.03092 0.02829 0.032893 
0.069064 0.27672 -0.021034 -0.0083746 0.0083956 0.0083956 0.015301 -0.0068948 
0.060022 0.42469 -0.024487 -0.0014692 -0.073482 0.018425 -0.0024557 -0.0027845 
0.067256 0.3415 0.026317 -0.062467 -0.031392 -0.0096899 -0.0013048 -0.048656 
0.1197 0.15933 0.086328 -0.12034 -0.018568 -0.028926 -0.0055795 -0.042901 
0.15587 0.018096 0.087314 -0.035832 -0.0052507 -0.025145 0.00033937 -0.021856 
0.076956 -0.00064712 0.061172 0.068407 -0.0049219 0.015959 0.022206 0.071037 
-0.022679 0.0069159 0.033551 0.12365 0.02829 0.034209 0.055582 0.10556 
-0.032872 -0.0067304 0.085012 0.12332 0.028125 0.030263 0.044073 0.10787 
-0.013636 -0.13168 0.16821 0.049499 0.034702 0.014808 0.033387 0.079422 
-0.021692 -0.25401 0.22115 -0.014293 0.027468 0.013492 0.016616 0.069722 
-0.045861 -0.11755 0.20175 -0.045861 0.012342 0.035853 0.041607 0.034373 
-0.085978 0.18383 0.10244 -0.016431 0.034044 0.03536 0.051801 0.043745 
-0.10965 0.25058 0.020891 0.01415 0.045553 0.030756 0.05213 0.021878 
-0.11508 0.22937 -0.06855 0.12085 0.061666 0.039305 0.038977 0.048019 
-0.1284 0.15275 -0.16605 0.1881 0.059528 0.032893 0.019083 0.024015 
-0.016102 0.10721 -0.11623 0.046211 0.011684 0.0062583 -0.0088678 -0.010183 
0.12612 -0.033037 -0.034516 -0.10834 -0.0050863 0.0014903 -0.013965 -0.031392 
0.13499 -0.16144 0.062323 -0.1552 -0.0083746 -0.011498 -0.021692 -0.05441 
0.093562 -0.18693 0.22476 -0.11097 -0.035832 -0.027282 -0.031721 -0.0503 
0.10639 -0.052766 0.29563 -0.072167 -0.016924 -0.022843 -0.031064 -0.014458 
0.12003 0.10408 0.1784 0.004943 0.019576 0.01267 0.019247 0.036346 
0.11346 0.14239 0.0032988 0.10228 0.073504 0.055911 0.054925 0.050321 
0.059693 0.18613 -0.12264 0.14634 0.08304 0.064461 0.049992 0.064954 
-0.013143 0.20701 -0.1256 0.092082 0.010697 0.047197 0.079751 0.059693 
-0.012649 0.18744 0.094055 -0.070523 -0.001798 -0.011992 0.012342 0.058049 
0.052294 -0.056548 0.19714 -0.092061 -0.020377 -0.001798 -0.014951 0.009711 
0.096521 -0.14747 0.095699 -0.02498 0.031085 0.036675 0.020891 -0.0059084 
0.025659 -0.029584 -0.12297 0.13845 0.048348 0.022371 0.013821 0.03536 
-0.079401 0.22065 -0.15733 0.23973 0.049006 0.043745 0.027303 0.06183 
-0.11343 0.23545 -0.036325 0.11658 0.071037 0.055911 0.0421 0.064132 
-0.025145 -0.00015387 0.030756 0.0056006 0.082217 0.026974 0.077121 0.044567 
0.1128 -0.25631 0.092576 -0.021034 0.044731 0.033222 0.037497 -0.021363 
0.19632 -0.38768 0.06479 -0.001798 0.024508 0.037661 0.017932 -0.032379 
0.17182 -0.32947 0.078765 -0.0083746 0.037004 0.026152 0.0036276 -0.022679 
0.076956 -0.068221 0.094384 -0.040435 0.048348 0.0227 0.012999 0.0051074 
0.0082312 0.12299 0.057555 -0.0077169 0.005765 -0.026131 -0.006566 -0.0011404 
-0.0052507 0.17133 0.058049 -0.019555 -0.0039354 -0.00015387 -0.0013048 0.015301 
0.00050378 0.11905 0.042923 -0.017582 0.02533 0.01267 -0.00015387 0.0054362 
-0.027775 0.12365 1.0539e-005 0.12875 0.10787 0.064954 0.035688 0.04917 
-0.044217 0.19764 -0.096172 0.22476 0.14338 0.072188 0.078929 0.056898 
-0.013636 0.22887 -0.10669 0.21901 0.11165 0.10392 0.097344 0.069064 
-0.0090322 0.20947 -0.0060728 0.13499 0.07301 0.082382 0.076627 0.030263 
0.010862 0.13894 -0.0052507 0.05772 0.04654 0.054432 0.047691 0.062323 
0.012177 0.097015 -0.010019 0.013986 0.042923 0.029112 0.021549 0.071366 
0.01974 0.083862 -0.048985 0.0037921 0.017603 0.00297 0.03799 0.086657 
0.033222 0.040456 -0.034352 0.0324 0.010533 0.0018191 0.043416 0.057884 
0.044073 -0.062302 0.06594 -0.038627 -0.025967 -0.0087034 0.0095465 0.021878 
0.057884 -0.091568 0.083204 -0.091568 -0.025474 -0.036489 -0.01528 -0.013636 
0.054596 -0.061316 0.096521 -0.10291 -0.041586 -0.046519 -0.013965 -0.017417 
0.015794 0.10228 0.068078 -0.045861 -0.014951 -0.025309 0.0047785 -0.023829 
0.051636 0.12003 0.083697 0.0046141 0.015465 0.029276 0.041443 0.0026412 
0.10458 0.07597 0.13302 0.023522 0.039799 0.056569 0.039141 0.016781 
0.065776 0.020891 0.07038 0.082382 0.043416 0.049828 0.048513 0.029112 
0.028947 0.043416 -0.044381 0.059035 0.030263 0.01563 0.032564 -0.0067304 
0.017767 0.085835 -0.12889 0.05624 0.013492 0.020727 0.030098 -0.00081153 
0.078436 0.10787 -0.13645 0.09833 0.012177 0.029276 0.043416 0.0042853 
0.12365 0.12595 -0.090581 0.15686 0.048513 0.034373 0.03799 0.036675 
0.10113 0.19928 -0.16588 0.22542 0.077943 0.042265 0.027796 0.035195 
-0.044874 0.31503 -0.29215 0.27984 0.083204 0.049992 0.038483 0.078436 
-0.15503 0.37405 -0.15684 0.20964 0.081724 0.043087 0.061172 0.091425 
-0.1986 0.23594 0.077943 -0.027282 0.055418 0.04506 0.072353 0.1151 
-0.13349 0.030098 0.21769 -0.22688 0.0072447 0.029934 0.05772 0.062981 
-0.0055795 -0.20403 0.24712 -0.25746 -0.010512 0.016288 0.053116 0.023028 
0.13631 -0.45213 0.19221 -0.18923 0.0034632 -0.0060728 0.034373 -0.012156 
0.22164 -0.51576 0.095535 -0.058685 0.021713 0.010862 0.052787 -0.023665 
0.18629 -0.28393 0.082217 0.046704 0.031742 0.018589 0.036346 0.010697 
0.12168 0.024673 -0.019884 0.10228 0.022864 0.02533 0.0024767 0.0026412 
0.036675 0.171 -0.14056 0.12628 -0.013471 0.0044497 0.013164 0.014808 
-0.032215 0.15522 -0.30383 0.11395 -0.014951 -0.0011404 0.011355 0.034209 
-0.060658 0.18202 -0.25861 0.12677 -0.004593 0.014315 0.017932 0.051143 
-0.052931 0.26209 0.031742 0.068571 0.013986 0.017274 0.048184 0.041443 
-0.053424 0.30352 0.40069 0.05213 -0.0047575 0.0069159 0.019411 0.022371 
-0.026624 0.2833 0.59798 0.046211 -0.013143 -0.013471 0.0083956 0.0075736 
0.019083 0.18333 0.47122 0.079422 0.013657 0.0064227 0.048677 0.047362 
0.051636 0.058542 0.15834 0.10474 0.039634 0.014972 0.046046 0.057555 
0.034209 0.034702 -0.17789 0.12201 0.026317 0.051636 0.0592 0.074654 
0.013657 0.11329 -0.3326 0.10672 0.01152 0.036839 0.046375 0.058213 
0.059035 0.0041209 -0.22014 -0.036983 -0.0026201 -0.014129 0.036839 0.018918 
0.10967 -0.28771 0.0080668 -0.12478 -0.021363 -0.024816 0.011191 -0.036325 
0.10655 -0.47054 0.1687 -0.070359 0.0039565 -0.019061 0.00066819 -0.027447 
0.030098 -0.3663 0.092904 0.05065 0.049664 0.027796 0.04917 0.00017495 
-0.014458 -0.10308 -0.041915 0.12661 0.087643 0.062159 0.048513 0.045553 
-0.01117 0.14782 -0.1667 0.10819 0.083368 0.045718 0.037004 0.037332 
0.012342 0.26685 -0.19975 0.09126 0.047526 0.040128 0.012999 0.053609 
0.0080668 0.25288 -0.16786 0.0075736 0.01004 0.0087245 0.010369 0.038977 
0.022371 0.15818 -0.023172 -0.053753 -0.029091 0.014643 0.033222 0.044073 
-0.0075525 0.056898 0.23825 -0.042573 -0.042737 0.0093821 0.042429 0.040456 
-0.0062372 -0.020377 0.4436 -0.075291 -0.014951 -0.023501 0.011684 0.065776 
0.0016547 -0.098802 0.40184 -0.077922 0.014808 -0.019061 1.0539e-005 0.034209 
0.026974 -0.096007 0.25798 -0.013143 0.0019835 -0.011663 0.011684 0.030592 
0.088136 -0.067235 0.20125 0.077778 0.013492 0.031578 0.011848 -0.0039354 
0.12875 0.0054362 0.1174 0.19813 0.053445 0.04095 -0.0042642 -0.017253 
0.12743 0.0070803 0.0018191 0.22855 0.064132 0.024344 -0.00031829 -0.023007 
0.054432 0.041443 -0.02235 0.19007 0.032729 0.031907 -0.00064712 -0.0031133 
-0.030077 0.082875 -0.028433 0.050321 0.041278 0.046046 0.030756 0.024344 
-0.05885 0.12891 -0.006566 -0.040435 0.068407 0.086492 0.0592 0.05476 
-0.047012 0.14913 -0.004593 -0.089595 0.062981 0.068407 0.053609 0.063968 
-0.020706 0.057884 0.01267 -0.08384 0.019576 0.058377 0.051965 0.053938 
-0.022843 -0.0022913 0.026317 -0.042901 0.021713 0.023193 0.024179 0.043087 
-0.056712 -0.015444 -0.02942 0.0013258 0.0065871 0.0047785 0.018425 0.07038 
-0.029913 -0.02235 -0.066084 0.054925 0.013657 0.018589 0.03947 0.066105 
0.069229 -0.0062372 -0.093212 0.043909 0.01711 0.019247 0.041114 0.043087 
0.11773 0.0074092 -0.090417 0.047526 -0.00064712 0.019411 0.04358 0.014315 
0.14683 0.036346 -0.021692 0.051801 0.020233 0.018425 0.023028 0.013821 
0.12299 0.054596 0.025495 0.004943 0.029934 0.0083956 0.058706 -0.034352 
0.16212 0.084026 0.022371 -0.022021 0.043416 0.031249 0.023028 0.019411 
0.13795 0.11494 0.0026412 -0.023501 0.013492 0.010697 -0.014129 0.00066819 
0.082217 0.14009 0.021056 0.021056 -0.0047575 -0.0098543 -0.023665 -0.040435 
0.026646 0.23792 0.067749 0.01826 -0.0024557 -0.0138 -0.020541 -0.021363 
-0.0055795 0.28165 0.10458 0.0051074 0.041278 -0.0083746 0.03092 -0.0014692 
-0.02646 0.24828 0.05772 0.022206 0.051965 0.069393 0.048841 0.038483 
-0.019719 0.20865 0.035195 -0.006566 0.058706 0.078107 0.0786 0.064954 
0.032564 0.071531 0.075312 -0.014951 0.06331 0.047197 0.052952 0.052952 
0.1368 -0.041915 0.14864 0.018096 0.070708 0.040456 0.046868 0.018096 
0.14026 -0.0083746 0.08304 0.018096 0.087643 0.043416 0.053445 0.042265 
0.061337 0.11214 -0.040764 -0.035503 0.069229 0.06183 0.063474 0.036839 
-0.019884 0.16508 -0.11376 -0.029584 0.038319 0.039634 0.053445 0.061008 
-0.036489 0.15522 -0.12215 0.055747 0.045224 0.02829 0.042758 0.045224 
-0.013143 0.15407 -0.054904 0.082053 0.057391 0.0080668 0.040128 0.059035 
0.0023123 0.19353 -0.039942 0.10293 0.034373 0.016781 0.041772 0.017767 
0.04917 0.20783 0.014972 0.06742 0.021056 0.037332 0.025166 0.014643 
0.055911 0.13121 0.12677 -0.01117 0.019247 0.02122 0.017603 0.0085601 
0.071695 0.036675 0.1391 -0.027118 0.040621 0.025659 0.026317 0.033387 
0.055747 -0.067235 0.073339 0.0034632 0.061501 0.033387 0.01563 0.02533 
0.041772 -0.12757 0.023028 0.022864 0.033058 0.021056 0.036346 0.028947 
0.020562 -0.020212 -0.045368 0.0069159 0.01004 0.0039565 0.024344 0.019247 
0.027468 0.040621 -0.05737 0.035688 0.022206 0.0024767 0.023686 0.022042 
0.041443 -0.02794 1.0539e-005 0.08008 0.039141 -0.011992 0.020398 0.01152 
0.039305 -0.092883 0.045224 0.033058 0.019576 0.00083261 0.021056 0.029769 
0.024837 -0.0014692 0.064461 0.041936 0.0080668 0.01152 0.048677 0.023193 
0.0019835 0.084519 0.087808 -0.021692 -0.0054151 -0.0026201 0.030427 0.022535 
0.035853 0.10096 0.17265 -0.06707 -0.043395 -0.059178 0.00050378 0.01267 
0.083533 0.01152 0.2417 -0.12462 -0.03353 -0.056055 -0.016924 0.00297 
0.12102 -0.034681 0.19501 -0.041093 0.016452 0.0062583 0.00033937 0.004943 
0.086492 -0.015773 0.084684 0.086492 0.10129 0.080573 0.052787 0.018754 
0.060679 0.036839 -0.090253 0.13828 0.15242 0.10984 0.069886 0.034537 
0.031414 0.063639 -0.20995 0.17922 0.12875 0.083368 0.061172 0.053609 
0.020727 0.14157 -0.2185 0.11625 0.010369 0.020233 0.032564 0.028619 
-0.027282 0.17149 -0.10275 0.019247 -0.026131 -0.025309 0.0024767 0.025988 
-0.031064 0.15752 0.071859 -0.09239 -0.020212 -0.015609 0.026152 0.030098 
-0.0054151 0.014479 0.22789 -0.20255 0.039305 0.024508 0.033551 0.030592 
-0.019884 -0.13908 0.29563 -0.17542 0.06742 0.056733 0.030263 0.029276 
-0.064933 -0.20551 0.1881 -0.059014 0.096686 0.0592 0.032729 0.03651 
-0.063289 -0.20518 0.099481 0.040621 0.056569 0.044402 0.040785 0.027468 
-0.0057439 -0.1644 0.078107 0.11592 0.021056 0.0090533 0.034373 0.018425 
0.011684 -0.11771 -0.010183 0.10852 -0.014293 -0.04323 0.010369 -0.0091966 
0.0041209 -0.013965 -0.047669 0.11083 -0.024323 -0.027775 -0.0034422 0.005765 
-0.00064712 0.027961 -0.055726 0.14289 0.0037921 -0.033201 -0.0022913 0.024015 
-0.010348 0.017767 0.016288 0.17084 0.033387 0.0064227 0.013657 0.045389 
0.034373 0.028783 0.1904 0.11773 0.060186 0.037661 0.045389 0.069064 
0.064132 0.14174 0.24466 0.10507 0.04506 0.035524 0.034373 0.036839 
0.072846 0.15555 0.099152 0.12546 0.049664 0.016616 0.040456 0.04358 
0.088301 0.10096 -0.025145 0.057062 0.048841 0.015959 0.0060938 0.01415 
0.11642 0.083697 -0.10258 -0.015444 0.031085 0.0013258 0.011026 0.025001 
0.16821 0.11346 -0.12807 0.0092177 -0.018239 0.015465 0.032236 0.027303 
0.17758 0.089287 -0.14796 0.051472 -0.041093 0.0018191 0.01004 0.039305 
0.045882 0.055911 -0.10209 0.044073 -0.013143 0.007738 0.015137 0.043416 
-0.14467 -0.023665 -0.012814 0.031414 0.039634 0.044073 0.034537 0.056569 
-0.18726 -0.18907 0.01711 0.066434 0.085012 0.048184 0.040292 0.058049 
-0.021528 -0.30991 0.057062 0.046046 0.049006 0.058377 0.037661 0.020233 
0.10803 -0.31073 0.09274 -0.014951 0.010204 0.034373 0.011191 -0.027775 
0.059035 -0.19597 0.054267 -0.035832 -0.017088 0.00083261 -0.0049219 0.013986 
-0.0060728 -0.011992 0.042758 -0.036654 -0.010183 0.0062583 -0.0042642 0.020069 
-0.055561 0.19533 0.065283 -0.031064 -0.018897 0.011684 0.044567 0.047197 
-0.071016 0.31684 0.12332 -0.053424 0.0088889 0.040621 0.042923 0.068242 
-0.017746 0.25239 0.18695 -0.10258 0.0016547 0.051472 0.034702 0.064954 
0.076463 0.034866 0.13006 -0.073318 0.034044 0.049006 0.041607 0.024179 
0.17363 -0.12955 0.060186 0.01267 0.031907 0.040128 0.023851 0.011355 
0.19714 -0.15224 0.0021479 0.12349 0.03092 0.010369 0.0065871 -0.013965 
0.11592 0.0039565 -0.023665 0.12792 -0.01232 0.0047785 -0.001798 0.018096 
0.05772 0.1271 -0.014951 0.046868 -0.018404 -0.0021268 -0.0014692 0.031085 
0.0065871 0.23216 -0.045696 0.021056 0.028454 0.026317 0.0092177 0.055582 
-0.014787 0.24186 -0.070852 0.1322 0.057062 0.0421 0.040128 0.087314 
-0.001798 0.1927 -0.085156 0.18218 0.085012 0.052787 0.067256 0.074983 
0.047362 0.042429 -0.057041 0.16048 0.099152 0.074983 0.059528 0.062817 
0.082875 -0.03057 -0.032872 0.12201 0.11181 0.087972 0.045389 0.027468 
0.089123 -0.034023 -0.042244 0.035195 0.071202 0.079587 0.046375 0.015137 
0.056898 0.020233 -0.024158 -0.036983 0.011026 0.043745 0.025824 0.028125 
0.026152 0.11724 0.0046141 -0.068879 -0.016431 0.019576 0.031742 0.011355 
0.033387 0.20306 -0.010841 -0.022514 -0.018733 0.02681 0.013986 0.0088889 
0.051636 0.21523 -0.017088 0.0028056 -0.025802 -0.0032777 1.0539e-005 0.010204 
0.041114 0.21934 -0.058685 0.024837 -0.0052507 -0.010348 0.0051074 0.021713 
-0.033365 0.24219 0.012342 -0.0016336 -0.018075 -0.0138 -0.0022913 0.0095465 
-0.069701 0.18235 0.093562 -0.090417 -0.023336 -0.003771 -0.031064 -0.027447 
-0.047341 0.1465 0.14486 -0.11853 -0.020048 -0.003771 0.016781 -0.0031133 
-0.011663 0.077285 0.08863 -0.071674 -0.003771 0.011026 0.010697 0.023522 
0.019411 0.12135 -0.02942 0.021056 0.021713 0.030263 0.025659 0.033551 
0.056898 0.068078 -0.057863 0.014479 0.033551 0.034044 0.047691 0.048513 
0.13598 -0.25631 0.024837 0.0011614 0.042758 0.038155 0.067091 -0.01528 
0.18021 -0.55686 0.091589 0.025495 0.015137 0.031414 0.036017 -0.0077169 
0.17182 -0.4444 0.033387 0.031742 0.027632 0.02829 0.019905 0.010862 
0.10326 -0.071674 -0.025309 0.054267 0.025001 0.025495 0.0064227 0.013821 
0.061337 0.22904 0.077778 0.092411 0.050814 0.043909 0.04654 0.066598 
0.054103 0.2805 0.26028 0.048184 0.06035 0.03536 0.065283 0.060186 
0.037661 0.21062 0.31897 0.025659 0.044567 0.042265 0.067256 0.059528 
-0.015938 0.10326 0.34676 0.073997 0.057391 0.039141 0.053116 0.065283 
-0.054082 0.1368 0.24449 0.10836 0.058542 0.0054362 0.035853 0.067749 
-0.1011 0.20076 0.00083261 0.081889 0.03536 -0.012649 -0.015116 0.043416 
-0.12297 0.30648 -0.20879 0.02122 -0.015773 0.0088889 0.026974 0.070708 
-0.10998 0.26505 -0.22376 -0.015773 -0.053424 -0.0042642 0.025824 0.036182 
-0.084169 0.17445 -0.11656 -0.078579 -0.032708 -0.016266 0.0013258 0.04506 
-0.065591 0.12381 -0.055397 -0.063289 0.046046 0.026152 0.015301 0.023851 
-0.039449 0.11905 -0.14698 0.023686 0.090767 0.051801 0.033715 0.055254 
-0.028433 0.13138 -0.23987 0.15242 0.095371 0.083697 0.075476 0.054596 
-0.0011404 0.14585 -0.22787 0.21408 0.069393 0.052952 0.050157 0.05476 
0.0421 0.15571 -0.043395 0.19961 -0.0039354 -0.0060728 0.015137 0.0227 
0.043416 0.1031 0.28297 0.054596 -0.038791 -0.042244 -0.0029489 -0.017911 
0.081067 0.015959 0.49342 -0.24414 -0.052602 -0.045039 -0.018568 -0.039942 
0.18185 -0.19597 0.53189 -0.3691 0.0060938 0.02533 0.018589 -0.043888 
0.22838 -0.34361 0.33147 -0.22754 0.077449 0.054267 0.031085 -0.064933 
0.256 -0.39129 0.077449 -0.023665 0.11855 0.065776 0.047855 -0.038791 
0.20421 -0.28426 -0.020706 0.11115 0.064625 0.020727 0.037661 -0.0022913 
0.078107 -0.1182 -0.109 0.17643 0.024508 0.024344 0.051472 0.07038 
-0.041093 0.049828 -0.11755 0.18991 0.02122 0.036017 0.059035 0.090767 
-0.051944 0.14881 -0.024323 0.08978 0.028783 0.016123 0.027139 0.075312 
-0.044381 0.14535 0.04095 0.037497 0.042758 0.022371 0.014972 0.045224 
-0.063453 0.20208 0.039799 0.079094 0.026481 0.016945 0.018589 0.065447 
-0.10061 0.28905 0.01415 0.058542 0.034702 0.0082312 0.019411 0.10359 
-0.11343 0.24762 -0.013143 0.10063 0.055418 0.049006 0.058377 0.10737 
-0.073318 0.18087 -0.038956 0.1008 0.080902 0.02829 0.049664 0.084684 
-0.039778 0.11231 0.010369 0.087808 0.058213 0.035031 0.025001 0.058377 
0.0019835 0.089616 0.12168 0.030756 0.061501 0.032071 0.030263 0.018918 
0.0011614 -0.003771 0.16146 -0.03912 0.04506 0.018754 0.030592 0.0062583 
0.042429 -0.13892 0.095206 -0.024487 0.042429 0.035853 0.044238 -0.0067304 
0.036839 -0.088937 0.077285 -0.02794 0.035688 0.026481 0.042265 -0.024323 
0.045389 -0.045039 0.027961 -0.016266 0.016452 0.019411 0.029605 0.011848 
0.10655 -0.087458 -0.01528 -0.016431 0.0054362 -0.01117 0.016452 0.026152 
0.085835 -0.14813 -0.022679 -0.032872 0.019576 -0.012485 0.013328 -0.010183 
0.10852 -0.088937 -0.030077 -0.016595 0.05213 0.02122 0.012506 -0.0042642 
0.093562 0.030756 -0.074798 0.050814 0.027796 0.028125 0.018096 0.0042853 
0.12085 0.11642 -0.046354 0.16179 0.0072447 0.013328 0.013657 0.012342 
0.10803 0.26521 0.031578 0.17018 0.021713 0.00297 0.01004 -0.0067304 
0.088958 0.22279 0.083204 0.1664 0.05065 0.0056006 0.014479 -0.0016336 
0.071695 0.0046141 0.18826 0.061172 0.018754 0.016452 0.0044497 0.009711 
0.060022 -0.14023 0.28099 -0.10686 -0.010841 -0.0042642 -0.011992 -0.019555 
0.013986 -0.084334 0.16475 -0.12626 -0.0052507 -0.003771 0.015465 0.01152 
-0.049642 0.061172 0.0024767 -0.04471 0.024673 0.028125 0.033058 0.037004 
-0.063782 0.11444 -0.11064 0.074326 0.074654 0.067749 0.077614 0.080738 
-0.025967 0.18728 -0.14665 0.091096 0.071531 0.086985 0.089123 0.043416 
-0.043888 0.16738 -0.11048 0.044073 0.089287 0.068078 0.075312 0.049664 
-0.043724 0.11181 -0.11475 0.021384 0.066269 0.050814 0.055911 0.03092 
-0.0095255 0.0095465 -0.13448 -0.010019 0.07038 0.036675 0.038812 0.041114 
0.031907 -0.057534 -0.14023 -0.0054151 0.072681 0.037004 0.057227 0.0088889 
0.07597 -0.04471 -0.14106 0.059693 0.041278 0.02829 0.047855 0.056569 
0.067585 0.019576 -0.12922 0.089452 0.038155 0.025988 0.027796 0.033551 
0.012342 0.13697 -0.17575 0.098823 0.031578 0.018754 0.015794 0.027961 
-0.014622 0.19994 -0.073976 0.07301 -0.0013048 -0.021034 0.0072447 -0.0070593 
0.0014903 0.12299 0.30418 0.0074092 -0.038627 -0.018075 0.0014903 -0.0014692 
0.082382 -0.029584 0.49786 -0.017088 -0.013471 -0.0062372 -0.0004827 -0.030406 
0.24269 -0.067399 0.37175 0.060186 0.023851 0.019247 0.029605 0.016123 
0.27705 -0.15602 0.15801 0.1174 0.041936 0.024508 0.04654 0.035688 
0.22855 -0.33112 0.047526 0.035688 -0.011663 0.012999 0.0042853 0.031249 
0.16031 -0.44259 0.045389 -0.053588 -0.0044286 0.0044497 0.021549 -0.024158 
0.06183 -0.18874 -0.041093 -0.040435 0.0032988 0.0037921 -0.017417 -0.019226 
-0.014458 0.20405 -0.14813 0.022535 0.025001 0.007738 0.0036276 0.0034632 
-0.033037 0.43637 -0.19581 0.053774 0.013492 0.031249 0.028619 0.048513 
-0.039284 0.38096 -0.17476 0.051143 0.038155 0.038483 0.034044 0.070708 
-0.01232 0.22345 -0.046847 0.044238 0.016945 0.034702 0.063474 0.067749 
0.055747 0.094384 0.033222 -0.012649 0.010862 0.013164 0.041772 0.022864 
0.10852 0.088794 0.054267 -0.063124 0.014643 0.0019835 0.023357 0.0016547 
0.10491 0.098988 0.044896 -0.037969 0.068078 0.016123 1.0539e-005 -0.0024557 
0.082053 0.094055 0.084355 -0.026296 0.049006 0.032729 0.023028 0.0026412 
0.074161 0.10836 0.085012 -0.031557 0.050486 0.061666 0.041278 0.004943 
0.046704 0.13467 0.045718 -0.010019 0.067749 0.054925 0.052294 0.023686 
-0.023665 0.086985 0.009711 0.044567 0.025495 0.080573 0.057555 0.063968 
-0.055068 -0.041422 -0.006566 0.023686 0.026974 0.034209 0.029112 0.048513 
-0.11031 -0.18183 0.0079024 0.010862 0.012835 0.0026412 0.0069159 0.045389 
-0.051615 -0.30383 0.067585 0.049006 0.0080668 0.013164 0.03536 0.058213 
-0.012978 -0.12149 0.09833 0.043909 0.012013 0.021878 0.035031 0.057884 
0.0083956 0.090603 0.040621 0.087972 0.071859 0.034537 0.010533 0.044238 
0.048677 0.14585 -0.036654 0.12546 0.057062 0.048841 0.046375 0.065283 
0.073832 0.078436 0.010204 0.098823 0.037497 0.0072447 0.040621 0.041607 
0.10754 0.037497 0.16919 -0.041751 0.037168 0.027468 0.042265 0.027303 
0.085506 0.04917 0.21013 -0.056219 0.0024767 0.026481 0.022864 0.013657 
0.059857 0.10737 -0.016102 0.0024767 -0.0039354 0.016288 0.023193 0.015301 
0.08715 0.091753 -0.16161 0.072353 0.00083261 0.01826 0.0062583 -0.020377 
0.011848 0.1151 -0.19778 0.087972 -0.00064712 -0.012649 -0.0021268 0.036839 
0.010204 0.15489 -0.086964 0.017603 -0.038791 0.0016547 0.0039565 0.055418 
0.11757 0.15555 0.11559 -0.031886 -0.043395 0.019905 -0.03501 0.053445 
0.11165 0.063474 0.21474 -0.092883 -0.020212 -0.012649 -0.00081153 0.012835 
-0.023007 -0.00064712 0.23233 -0.012814 0.033551 -0.0040998 0.020233 0.023522 
-0.12873 -0.011334 0.18925 0.12299 0.058542 0.029112 0.021549 0.01711 
-0.17098 0.099316 0.16196 0.12842 0.051308 0.046375 0.06479 0.055254 
-0.1547 0.10885 0.2001 0.10606 0.077614 0.068242 0.059035 0.051472 
-0.046025 -0.1524 0.23677 0.0032988 0.092904 0.052623 0.06183 0.047362 
0.10639 -0.36647 0.18761 -0.03764 0.096193 0.051636 0.031578 0.0060938 
0.14996 -0.23954 0.013657 -0.0138 0.073504 0.047197 0.032071 0.012013 
0.11378 0.085999 -0.13201 0.051472 0.045553 0.062323 0.050321 0.0065871 
0.097179 0.34117 -0.11113 0.084519 0.018096 0.030756 0.03536 0.046868 
0.080409 0.38227 -0.075949 0.028619 -0.0050863 -0.019061 0.012013 0.061995 
0.056569 0.26077 -0.031228 0.013657 -0.038956 -0.027775 -0.011005 0.065283 
-0.023994 0.16229 0.0085601 0.031249 -0.021856 -0.008539 0.015137 0.056569 
-0.10127 0.23298 -0.016266 0.067091 0.0054362 0.033715 0.04095 0.07038 
-0.16736 0.30434 -0.006566 0.097508 0.050979 0.033387 0.049335 0.076134 
-0.15043 0.21194 -0.00031829 0.12168 0.054925 0.018918 0.023357 0.076299 
-0.095349 0.017274 0.025495 0.093891 0.014479 0.0044497 0.014972 0.055089 
-0.0011404 -0.17197 0.06479 0.032236 0.012506 0.00099702 0.020398 0.022042 
0.063803 -0.19285 0.08304 -0.0022913 0.016781 -0.0031133 0.0069159 -0.020541 
0.037826 -0.13563 0.069886 0.02681 0.023522 -0.00097594 -0.02087 -0.0138 
0.013492 -0.13201 0.093726 0.0227 -0.00015387 -0.0083746 -0.010183 -0.0075525 
0.0026412 -0.15996 0.08008 0.014479 0.0013258 -0.0088678 0.012835 0.026317 
0.027796 -0.025638 0.075641 0.013657 0.0085601 0.004943 0.031907 0.035524 
0.091096 0.093233 0.15357 0.038648 0.075312 0.062323 0.060844 0.059857 
0.15834 0.082546 0.22887 0.014808 0.11477 0.085506 0.047526 0.040785 
0.14946 -0.02498 0.2149 0.018096 0.12349 0.087808 0.038648 0.019411 
0.12266 -0.080223 0.028454 0.062159 0.056898 0.046211 -0.029255 -0.024323 
0.11625 -0.051287 -0.087293 0.009711 0.025659 0.014479 0.025988 -0.014458 
0.067091 0.096521 -0.13284 -0.0088678 -0.009361 -0.00015387 0.00083261 -0.023336 
-0.024816 0.26291 -0.098144 0.011848 -0.025638 -0.0021268 -0.0098543 -0.016924 
-0.10965 0.34265 -0.066906 0.026646 0.0054362 0.0092177 0.017767 0.012506 
-0.092061 0.1932 -0.077593 -0.0088678 0.011191 0.0042853 0.015137 0.023686 
-0.0072237 0.0065871 -0.033694 -0.015444 0.051308 0.022535 0.027961 0.050157 
0.055254 -0.043395 -0.026296 0.075148 0.054596 0.046375 0.053116 0.048513 
0.06035 0.010533 -0.043559 0.11329 0.059693 0.046375 0.030098 0.055911 
0.055418 0.083533 -0.0016336 0.08715 0.059364 0.014808 -0.014129 0.032071 
0.042429 0.062323 0.013821 0.03947 0.025659 0.0087245 0.011026 0.051472 
-0.010676 0.042429 0.066269 -0.036818 -0.019226 0.0019835 0.037332 0.038155 
-0.044217 0.07449 0.07038 -0.05441 -0.023172 0.015465 0.030756 0.062323 
-0.065262 0.094055 0.026974 0.0070803 0.005765 0.023851 0.029934 0.059364 
-0.04882 0.064461 -0.034516 0.042594 0.011355 0.017932 0.023522 0.063474 
-0.026624 0.0075736 -0.0965 0.00083261 0.033058 0.018096 0.018096 0.038483 
-0.0013048 -0.0091966 -0.1182 -0.024652 0.0039565 0.026481 0.028947 0.038812 
0.0034632 0.11494 -0.072332 0.025495 0.014808 0.026317 0.015301 0.012342 
0.0046141 0.22526 0.066763 0.015301 -0.00081153 0.0018191 0.022206 0.01826 
0.085999 0.1174 0.32012 0.01415 0.046375 0.0051074 0.0060938 -0.022679 
0.27129 -0.26848 0.5503 -0.04471 -0.0052507 -0.011005 0.014643 -0.058685 
0.38425 -0.48567 0.41877 -0.034516 0.0014903 0.0090533 0.025988 -0.084827 
0.28478 -0.39162 0.12792 -0.023994 0.017767 0.042265 0.018918 -0.026624 
0.085341 -0.15388 -0.098309 0.020069 0.041936 0.033058 0.040456 0.043745 
-0.054082 0.11198 -0.20863 0.10392 0.057227 0.024344 0.023522 0.11905 
-0.16802 0.33805 -0.24957 0.1105 0.029441 0.037497 0.051143 0.12464 
-0.18265 0.40414 -0.19597 0.046211 0.035195 0.050486 0.074819 0.12135 
-0.12692 0.33607 -0.065755 -0.059014 0.042594 0.058706 0.049992 0.074326 
-0.017417 0.19533 -0.02646 -0.10423 0.043416 0.025988 0.019247 0.040456 
0.052294 0.051143 -0.0078813 -0.093376 0.0087245 0.01004 -0.0055795 -0.024652 
0.11576 -0.039613 -0.019719 -0.0062372 -0.014129 -0.00064712 -0.0039354 -0.022679 
0.12118 -0.10225 -0.060165 0.082875 -0.00064712 0.021384 0.039634 -0.013471 
0.086492 -0.049478 -0.022021 0.10129 0.027468 0.012506 0.029112 0.0026412 
0.05772 0.027139 0.065612 0.10376 0.027632 0.0093821 0.029276 0.014315 
0.043251 0.1345 0.17215 0.066763 0.0044497 0.013164 0.034044 0.023522 
0.049828 0.16031 0.25765 -0.055561 0.0039565 0.013986 0.014643 0.030427 
0.085341 0.10343 0.20092 -0.10604 0.01004 0.019576 0.030098 0.025166 
0.13006 -0.08828 0.10622 -0.072825 0.0013258 -0.0019624 0.019576 0.00099702 
0.14174 -0.11755 -0.0082102 0.068736 0.0090533 0.035031 0.025988 0.0036276 
0.12266 -0.079566 -0.090253 0.18383 0.023851 -0.00081153 0.004943 0.010697 
0.13154 -0.029748 -0.025474 0.27162 0.07301 0.0090533 0.0032988 -0.0083746 
0.030098 0.039963 0.073339 0.20421 0.04095 0.03536 0.03536 0.03536 
0.031249 -0.0032777 0.28346 0.034537 -0.049478 0.039305 0.037168 0.028454 
0.033715 -0.0040998 0.33969 -0.05178 -0.085978 0.03536 0.03536 0.028125 
-0.00097594 0.032071 0.1881 -0.032872 -0.063618 0.042923 0.030427 0.032893 
-0.036325 0.12184 -0.028104 0.088465 -0.00081153 0.0227 0.045882 0.077778 
-0.041257 0.12727 -0.18134 0.14782 0.03536 0.039634 0.076792 0.053609 
0.015959 0.089287 -0.15865 0.10145 0.0062583 0.015794 0.054267 0.066434 
0.049335 0.0046141 0.02829 0.019247 -0.061151 0.013492 0.041936 0.016945 
0.0056006 0.036675 0.13845 -0.040271 -0.085978 0.010697 0.022535 0.053445 
-0.047012 0.16146 0.063968 0.01563 -0.057041 0.0031344 0.050157 0.054596 
-0.10719 0.24334 -0.086471 0.072353 -0.037311 -0.0059084 0.03799 0.060186 
-0.038462 0.1659 -0.12642 0.0079024 -0.10127 -0.029255 0.016288 0.036017 
0.025495 0.18267 -0.085978 -0.041093 -0.063453 -0.01676 0.012835 0.041278 
-0.030242 0.36731 -0.090088 0.036346 0.027468 0.033551 0.024508 0.049499 
-0.1672 0.72573 -0.20025 0.22674 0.10244 0.074819 0.073339 0.11 
-0.19268 0.69186 -0.13152 0.13417 0.10162 0.10573 0.095042 0.1008 
0.0036276 0.21654 0.13861 -0.14796 0.05065 0.065776 0.067256 0.034373 
0.25863 -0.35644 0.29398 -0.24151 0.064625 0.034209 0.020727 -0.059672 
0.42272 -0.67655 0.2902 -0.12478 0.084848 0.032236 0.0062583 -0.095678 
0.4482 -0.82699 0.20684 0.02122 0.072846 0.00017495 -0.0059084 -0.1113 
0.36008 -0.74561 0.094548 0.16706 0.037004 0.01152 0.0023123 -0.063782 
0.20602 -0.40872 -0.02942 0.24449 0.028783 -0.022679 -0.018075 -0.028762 
-0.014622 -0.1695 1.0539e-005 0.16673 -0.017253 -0.043066 -0.016595 0.024015 
-0.17427 -0.059672 0.065447 0.10408 -0.032543 -0.019719 0.01152 0.076792 
-0.21619 0.10885 0.11839 0.044238 -0.032872 0.00066819 0.038977 0.10589 
-0.17427 0.32111 0.053445 0.012013 -0.013471 0.063474 0.07597 0.093891 
-0.13744 0.42288 -0.13152 0.023357 0.068571 0.071366 0.077778 0.093726 
-0.11491 0.43932 -0.14171 0.007738 0.0592 0.067749 0.039963 0.064625 
-0.073647 0.35087 -0.091568 -0.025638 0.0083956 0.021713 0.026974 0.042429 
-0.0138 0.23973 -0.013965 -0.052602 -0.011005 -0.0004827 0.03651 -0.0075525 
0.03388 0.14848 0.027468 -0.047012 0.014479 0.031085 0.033222 0.014479 
0.049335 0.15686 -0.0044286 -0.013965 0.034537 0.034373 0.021056 0.01152 
0.0095465 0.13351 -0.0078813 0.0036276 0.013492 0.018096 0.024673 0.022864 
-0.030899 0.11822 -0.014622 0.029769 0.0059294 0.031742 0.031907 0.043087 
-0.015938 0.037497 -0.022843 0.051965 -0.0040998 0.046704 0.039799 0.044567 
0.03536 -0.091568 0.023522 0.0056006 -0.046847 0.0592 0.030263 0.027139 
0.10655 -0.22918 0.030427 -0.031557 -0.082854 0.033058 0.021878 0.0024767 
0.12036 -0.2111 0.013328 -0.012978 -0.05737 0.019083 0.0087245 -0.009361 
0.16327 -0.1039 0.013328 0.0032988 -0.081374 0.022535 0.0067515 -0.015116 
0.15982 0.042923 0.11362 -0.0052507 -0.074633 0.030263 0.037826 0.01152 
0.089452 0.11313 0.15111 -0.047341 -0.097651 0.018918 0.012506 0.047855 
0.05772 0.073504 0.14881 -0.037969 -0.099789 0.018425 0.0034632 0.016123 
0.037661 0.011684 0.14354 -0.050464 -0.097816 0.0024767 -0.010512 0.025824 
0.027303 -0.020377 0.10951 -0.014622 -0.07973 0.013986 0.0046141 0.035195 
-0.016266 -0.077593 0.0079024 -0.0077169 -0.046025 0.037332 0.050157 0.054103 
-0.024816 -0.19235 -0.065919 0.018425 -0.065426 0.042594 0.033222 0.057227 
-0.031064 -0.24201 -0.071345 -0.00031829 -0.07414 0.03388 0.018096 0.027303 
-0.056383 -0.19893 -0.040928 -0.019884 -0.082854 0.021549 0.0024767 0.040456 
-0.033365 -0.14122 -0.00015387 -0.010841 -0.078908 0.023357 0.0024767 0.023686 
-0.0019624 0.061172 -0.0083746 -0.019226 -0.067892 0.053116 0.043087 0.048841 
0.042265 0.36748 -0.044874 0.014479 -0.047012 0.029605 0.045389 0.033058 
0.046868 0.51643 -0.059178 0.072681 -0.033365 -0.0052507 0.01267 0.052294 
-0.0060728 0.43702 -0.044052 0.056733 -0.032872 -0.013965 -0.0054151 0.034373 
-0.038462 0.24614 0.093562 0.016616 -0.00031829 0.027961 0.019576 0.08008 
-0.0014692 0.088794 0.21013 -0.024158 0.024179 0.048019 0.04654 0.03651 
0.074654 0.031249 0.24811 0.029934 0.037168 0.037168 0.024015 0.033551 
0.10277 0.029112 0.20569 0.10293 0.053281 0.041114 0.016945 0.013657 
0.06331 -0.073482 0.15176 0.15193 0.052459 0.019247 0.0014903 0.022371 
-0.0032777 -0.082525 0.11099 0.14124 0.013821 -0.011827 -0.0036066 0.00066819 
-0.037476 0.079751 0.06331 0.11724 0.0024767 -0.009361 0.0070803 0.012013 
-0.064275 0.2269 -0.040764 0.097837 -0.0042642 0.0092177 -0.010676 0.0095465 
-0.10637 0.32128 -0.10735 0.040292 -0.0050863 -0.006566 -0.014787 0.036675 
-0.14056 0.37142 -0.21471 0.053774 -0.0031133 -0.0068948 -0.0059084 0.05624 
-0.10883 0.34627 -0.19137 0.040128 -0.0027845 -0.00064712 0.01152 0.087808 
0.034702 0.1271 -0.014129 -0.016924 0.021713 0.044238 0.051636 0.046704 
0.21753 -0.18545 0.16344 0.020398 0.019905 0.05065 0.05065 0.019411 
0.18267 -0.22228 0.19714 0.022535 0.016123 0.039305 0.028783 0.0018191 
0.029112 0.034209 0.12792 -0.018897 -0.0060728 0.011848 0.022042 0.013821 
-0.063946 0.21194 0.093891 -0.016102 0.021713 0.041278 0.038155 0.049828 
0.00083261 0.078436 0.10474 0.022864 0.054925 0.084519 0.062652 0.025988 
0.11329 -0.21143 0.081395 0.1179 0.087314 0.067091 0.052459 -0.0087034 
0.1294 -0.23806 0.017932 0.2149 0.076956 0.019905 0.027468 0.0042853 
0.079094 -0.062796 0.013492 0.20027 0.043745 -0.0042642 0.014315 0.017603 
0.070215 0.045882 0.10425 -0.014787 -0.012485 -0.01528 0.00297 0.025001 
0.071695 0.070051 0.14913 -0.11689 -0.036489 0.0036276 0.029769 0.012999 
0.078107 0.092576 0.12365 -0.076277 0.00099702 0.025824 0.0227 0.025166 
0.086163 0.13384 0.063968 0.0036276 0.041772 0.01974 0.020069 0.0227 
0.09685 0.15555 -0.029255 0.05213 0.047526 0.01974 0.037168 0.027139 
0.058542 0.19764 -0.11804 0.06479 0.055747 0.048841 0.041936 0.015959 
0.0021479 0.12825 -0.10883 0.12743 0.04506 0.05065 0.065118 0.046375 
-0.035174 0.095206 -0.039778 0.052952 0.044238 0.005765 0.067913 0.085341 
0.0088889 0.10474 -0.022843 0.0092177 0.024508 0.02122 0.037168 0.037826 
0.14667 0.0324 -0.050136 0.028947 0.024015 0.025166 0.022535 0.022371 
0.16525 -0.037969 -0.079072 0.036182 0.023357 0.01152 0.024344 0.015959 
0.08008 -0.067399 -0.033201 0.007738 0.020891 0.031907 0.043416 0.024508 
0.00083261 -0.0503 0.020398 -0.058028 0.0039565 0.025495 0.0092177 0.0067515 
-0.052602 -0.05885 0.12644 -0.085156 -0.0082102 0.0023123 0.0062583 0.010369 
-0.038956 -0.088608 0.27425 -0.074633 0.0032988 -0.01939 0.0021479 -0.026131 
-0.062631 -0.091404 0.25666 -0.051615 -0.0044286 -0.013636 0.023522 0.022206 
-0.068879 -0.084169 0.16541 0.047033 0.0075736 1.0539e-005 0.02122 0.02681 
-0.064275 0.0064227 0.047691 0.12776 0.03947 0.022206 0.038977 0.030263 
-0.056055 0.046375 0.0093821 0.24351 0.082053 0.0421 0.061172 0.029605 
0.062817 0.095371 -0.023501 0.2736 0.10935 0.051472 0.051636 0.042265 
0.16771 0.11674 -0.10028 0.18103 0.097015 0.061995 0.053774 0.013492 
0.23825 0.18366 -0.12511 0.11 0.053281 0.051636 0.041936 0.019411 
0.28461 0.095864 -0.12757 0.072681 -0.0029489 0.0093821 0.012506 0.00099702 
0.25107 -0.02235 -0.025967 0.012506 -0.027118 -0.017746 0.0075736 0.033058 
0.11658 -0.10867 0.081395 -0.12116 -0.009361 0.030098 0.03651 0.048348 
-0.01676 -0.11524 0.12349 -0.18446 0.020727 0.059693 0.080738 0.065776 
-0.10423 -0.12708 0.10343 -0.17082 0.040456 0.066763 0.077778 0.078272 
-0.086307 -0.074633 0.04654 -0.091404 0.037168 0.045553 0.051308 0.094713 
-0.050464 0.038648 0.019247 -0.033037 0.03651 0.021878 0.03092 0.0092177 
-0.025638 0.12513 -0.016431 0.019576 0.036182 0.024015 0.030427 0.037661 
-0.10801 0.20602 -0.083676 0.11576 0.03799 0.028454 0.044567 0.027961 
-0.13662 0.24137 -0.12215 0.12431 0.038483 0.039963 0.043087 0.037661 
-0.09946 0.19731 -0.096829 0.10556 0.00297 0.01267 0.021878 0.048348 
0.016945 0.012013 0.035853 0.022864 -0.03912 -0.0070593 0.0046141 0.019905 
0.15472 -0.14319 0.13105 -0.057205 -0.039942 -0.0083746 0.018918 -0.0098543 
0.19221 -0.1233 0.10606 -0.01117 -0.0042642 0.005765 -0.00064712 -0.020212 
0.171 -0.054575 0.049828 0.031742 0.013164 0.01974 -0.0087034 -0.0077169 
0.16426 0.092904 -0.051122 0.067749 0.0032988 -0.0044286 -0.010512 0.024344 
0.16969 0.23183 -0.098473 0.054596 -0.01939 -0.016431 -0.013143 0.01711 
0.12825 0.23003 -0.044546 0.0054362 -0.013307 -0.0026201 0.014643 0.013986 
0.0592 0.12003 0.095206 -0.028104 0.013492 0.012177 0.044238 0.016616 
-0.0016336 0.00033937 0.2417 -0.072003 0.04358 0.040292 0.043909 0.02122 
-0.044217 -0.025802 0.28543 -0.028104 0.074983 0.041114 0.03651 0.036017 
-0.052109 -0.021034 0.18646 0.050321 0.07301 0.057391 0.036675 0.024015 
-0.006566 -0.013965 0.045389 0.027632 0.058871 0.025988 0.029934 0.0018191 
0.017438 0.023851 -0.025802 -0.0036066 0.040456 0.063968 0.039963 0.02122 
-0.08269 0.041607 -0.04882 -0.009361 0.029605 0.05476 0.036017 0.063145 
-0.11459 0.047526 -0.047012 0.047526 0.03092 0.037332 0.020398 0.082711 
-0.10028 0.08567 -0.071674 0.056733 0.026974 0.050157 0.015137 0.069558 
-0.058028 0.097344 -0.046683 0.0052718 0.024179 0.022535 0.023522 0.060515 
-0.030899 0.10688 -0.023994 -0.024816 0.0051074 0.027139 0.054267 0.051965 
0.026481 0.094548 -0.021034 -0.062467 -0.010183 0.014972 0.024015 0.046868 
0.061172 0.046211 0.023522 -0.034516 -0.0024557 0.0023123 0.018096 0.048184 
0.077614 0.037826 0.03388 0.064625 0.014479 0.0034632 0.021056 0.038977 
0.065447 0.057227 0.062488 0.17067 0.042594 0.010369 0.01974 0.024179 
0.037004 0.090109 0.066105 0.15324 0.055911 0.0227 0.02122 -0.0014692 
0.026152 0.08978 0.034702 0.085835 0.052294 0.037661 0.017274 0.037332 
0.0036276 0.063803 0.046868 0.016452 0.024015 0.010862 0.0090533 0.028947 
0.035688 0.039963 0.055418 -0.042573 0.0026412 -0.013307 -0.0075525 0.015301 
0.044896 0.093398 0.032071 -0.0078813 -0.012814 -0.025638 -0.02794 -0.034681 
0.014972 0.093398 0.011026 0.069886 -0.0019624 0.0044497 -0.00081153 0.00297 
-0.0062372 0.1299 -0.021363 0.10195 0.0093821 0.01974 -0.011992 -0.0070593 
-0.016595 0.16919 0.017438 0.00066819 0.019576 0.033058 0.015137 0.020891 
-0.00064712 0.15933 0.10589 -0.10045 0.01563 0.029605 0.02829 0.015959 
0.06479 0.050321 0.16146 -0.098967 0.025824 0.021549 0.030263 0.014972 
0.12677 -0.023336 0.14963 -0.04471 0.064296 0.066105 0.040785 0.0087245 
0.10935 -0.11426 0.050814 0.025988 0.086985 0.07038 0.042758 0.048184 
0.015301 -0.089924 -0.019226 0.061666 0.051965 0.035031 0.025988 0.04654 
-0.059507 0.028947 -0.16227 0.090603 -0.014622 -0.01676 0.01711 0.041772 
-0.11985 0.2126 -0.25565 0.09126 -0.054246 -0.05441 0.0011614 0.039305 
-0.11886 0.28724 -0.10702 -0.003771 -0.046847 -0.013636 0.022206 0.070544 
-0.098473 0.21868 0.054925 -0.066248 -0.0040998 0.021056 0.044731 0.079258 
-0.042737 -0.044874 0.15785 -0.054082 0.031907 0.027139 0.052294 0.081067 
0.077121 -0.41513 0.21243 0.060186 0.058706 0.055254 -0.0014692 0.029441 
0.1271 -0.40099 0.14289 0.16525 0.093891 0.043416 0.025824 -0.001798 
0.10178 -0.11097 0.11247 0.15094 0.10228 0.078929 0.059693 -0.017088 
0.064132 0.15801 0.12743 0.11115 0.10063 0.091425 0.055747 0.016288 
0.043087 0.28149 0.062652 0.11231 0.063968 0.054596 0.051636 0.027632 
0.085999 0.2856 -0.098473 0.15982 0.036017 0.017438 0.01711 0.0052718 
0.18876 0.21852 -0.1284 0.13154 0.0054362 -0.0004827 0.01152 -0.016595 
0.28921 0.14946 0.12776 -0.0047575 -0.028104 -0.018897 0.0072447 -0.017911 
0.23759 0.054596 0.28954 -0.10883 -0.041586 -0.032872 0.012835 -0.024487 
0.059364 -0.034188 0.21885 -0.14418 -0.037147 -0.021856 0.030756 0.0036276 
-0.059836 -0.043559 0.25535 -0.097158 -0.0055795 0.0082312 0.03092 0.021056 
-0.096336 0.066269 0.21589 0.005765 0.025988 0.018589 0.051308 0.0421 
-0.082854 0.10343 0.058871 0.082217 0.03536 0.041936 0.041114 0.046704 
-0.06296 0.073339 -0.13004 0.075148 0.01415 0.087643 0.026646 0.063474 
-0.0075525 -0.028433 -0.27275 0.060844 0.041607 0.04506 0.050486 0.052952 
0.078436 -0.18956 -0.18611 0.032564 0.023686 0.043251 0.079422 0.038648 
0.10836 -0.36597 -0.10423 0.031085 0.028454 0.033551 0.043745 0.04654 
0.083368 -0.30021 -0.045039 0.045553 0.029441 0.040128 0.0421 0.01711 
0.036346 -0.079895 -0.034681 0.087479 0.01826 0.037497 0.046046 0.024179 
0.024179 0.089287 -0.039778 0.059035 0.020069 0.015137 0.024837 0.020562 
0.056404 0.13779 -0.011663 0.065612 0.019083 0.025988 0.031907 0.037168 
0.076134 0.18152 -0.0082102 0.033058 0.025824 0.031742 0.038483 0.013328 
0.12283 0.14881 0.062159 0.033058 0.030592 0.027961 0.03388 0.026646 
0.073997 0.11461 0.17297 0.0039565 0.010533 0.0014903 0.013328 0.0075736 
0.007738 0.099974 0.18383 0.011026 -0.0039354 0.0082312 0.015301 0.0093821 
-0.026296 0.11395 0.14798 0.0079024 0.0037921 0.0013258 0.0090533 -0.00097594 
-0.052602 0.17265 0.043745 0.00066819 0.020069 0.021878 0.041114 0.027303 
-0.024487 0.15801 0.058542 0.020069 0.036675 0.041772 0.033058 0.038155 
0.031414 0.027139 0.15555 -0.085156 0.031907 0.036017 0.03092 0.048184 
0.067585 -0.21554 0.22361 -0.14895 0.015301 0.038483 0.016288 -0.0064016 
0.098494 -0.32849 0.25535 -0.12314 0.01826 0.022371 0.020069 0.034702 
0.077614 -0.18907 0.22131 0.025495 0.050814 0.045718 0.069064 0.0324 
0.063145 -0.10719 0.074326 0.16081 0.057391 0.058213 0.064625 0.061995 
0.08978 -0.16243 -0.087951 0.13713 0.047855 0.0324 0.044238 0.033551 
0.082382 -0.095678 -0.2231 0.097508 0.017274 0.016781 0.015301 0.050486 
0.039141 0.15982 -0.33506 0.12957 0.0093821 0.010369 0.0039565 0.051636 
-0.040764 0.42091 -0.38242 0.14239 0.013821 -0.0044286 0.021713 0.090438 
-0.10932 0.40644 -0.34444 0.063968 0.0060938 0.024673 0.060186 0.076299 
-0.079566 0.38129 -0.16473 -0.079072 -0.0082102 0.0037921 0.015137 0.046046 
0.016123 0.20421 0.049499 -0.13168 -0.017253 0.0036276 0.009711 -0.0054151 
0.055582 0.076299 0.12414 -0.14287 0.0064227 0.013821 -0.0013048 -0.031557 
-0.011334 0.010697 0.10408 -0.047341 0.020562 0.030592 0.043416 -0.010512 
-0.051451 -0.083512 0.15127 0.064296 0.026974 0.027139 0.039963 0.023357 
-0.033694 -0.13711 0.2588 0.071202 0.02533 0.0095465 0.012506 0.010369 
0.052294 -0.10883 0.29119 0.03092 0.0034632 -0.011334 -0.022185 -0.017253 
0.12628 -0.06296 0.20882 0.038812 -0.011827 -0.0091966 -0.036818 -0.012485 
0.13582 0.037826 0.0021479 0.21605 0.037004 0.0080668 0.00017495 0.00099702 
0.057062 0.14058 -0.079895 0.2851 0.10589 0.040785 0.016945 0.011684 
-0.054904 0.16558 0.067091 0.23167 0.10145 0.04358 0.019247 0.028125 
-0.046354 0.16311 0.23019 0.13976 0.079258 0.048019 0.030427 0.019576 
-0.0067304 0.11477 0.10721 0.098659 0.064296 0.057227 0.03799 0.028125 
0.0059294 0.15933 -0.13563 0.13795 0.076134 0.080409 0.078765 0.065447 
-0.013471 0.096686 -0.26683 0.076299 0.038483 0.04917 0.063474 0.077449 
0.0093821 0.14733 -0.1723 -0.019719 0.00297 -0.0019624 0.057884 0.099974 
-0.03353 0.21901 -0.0080457 -0.10489 -0.011334 0.070544 0.029276 0.057227 
-0.074798 0.21062 0.087479 -0.11278 -0.0047575 0.019905 0.036675 0.09833 
-0.054904 0.11461 0.14091 -0.090088 -0.010512 0.027303 0.029769 0.061501 
0.045224 -0.006566 0.072846 -0.070523 0.014643 0.035195 0.026317 0.042265 
0.11477 -0.090417 0.014643 0.053774 0.039963 0.028125 0.028619 0.010533 
0.13467 -0.063124 -0.02087 0.16048 0.03092 -0.0091966 -0.0072237 -0.00081153 
0.11198 0.11494 -0.050958 0.23529 -0.003771 -0.047176 -0.03912 -0.023501 
0.031414 0.28017 -0.010841 0.2269 -0.0095255 -0.03616 -0.02646 -0.0021268 
0.012177 0.33673 0.13615 0.08978 -0.0073881 -0.024652 -0.0087034 -0.0029489 
0.063803 0.19122 0.28067 -0.11294 -0.021034 -0.010019 0.0065871 0.0034632 
0.10162 0.041772 0.31618 -0.23806 -0.026296 0.00050378 0.036675 0.0069159 
0.12332 -0.13382 0.18909 -0.15174 0.021713 0.033387 0.050814 0.050979 
0.10556 -0.22195 0.052623 0.042429 0.10063 0.084355 0.098001 0.053609 
0.051472 -0.28031 0.0082312 0.13516 0.1396 0.091753 0.082053 0.10787 
0.013328 -0.2402 0.035853 0.15242 0.13171 0.10343 0.085341 0.069558 
0.0069159 -0.13103 0.069229 0.15357 0.11115 0.076299 0.066105 0.073668 
0.021878 0.0080668 0.090603 0.12464 0.064461 0.035195 0.040785 0.036182 
0.01563 0.1442 0.082546 0.032071 0.0227 0.028947 0.029441 0.025166 
0.01152 0.18744 0.034373 -0.027118 0.018096 0.028947 0.0032988 -0.0138 
-0.0052507 0.18498 -0.0080457 0.020398 0.026974 0.027796 0.010697 0.0083956 
0.034702 0.29102 0.0013258 0.016945 0.033715 0.01563 0.016123 0.010369 
0.086657 0.24005 0.024508 -0.0067304 0.017274 0.00083261 0.0072447 -0.00097594 
0.079916 0.069722 0.0064227 -0.020048 0.0037921 0.024344 0.01974 -0.027282 
0.046046 -0.086142 0.0026412 0.011355 0.010697 0.0070803 0.016452 0.0036276 
0.028619 -0.046683 -0.02087 0.029605 0.023193 0.0011614 0.021549 0.037168 
0.040456 0.090767 -0.039449 0.057555 0.036346 0.015794 0.044073 0.075805 
0.10195 0.18991 -0.05178 0.10244 0.038812 0.021056 0.03947 0.044731 
0.077614 0.21309 -0.087622 0.030427 0.019411 0.030756 0.051472 0.043745 
0.017274 0.2052 -0.10357 0.00033937 0.014643 0.0227 0.047855 0.035524 
-0.04471 0.15703 -0.094692 0.0011614 0.0026412 0.0024767 0.037004 0.025166 
0.0060938 0.074654 -0.021692 -0.034845 -0.0042642 -0.011498 0.0070803 0.011026 
0.037332 -0.066577 0.08304 -0.049314 -0.011827 -0.017911 0.014643 0.014315 
0.052787 -0.19252 0.159 -0.036983 -0.01117 0.012506 0.0032988 0.014808 
0.041772 -0.25121 0.27031 -0.014458 0.00017495 0.0083956 -0.0057439 0.023193 
0.053609 -0.26667 0.32999 -0.069372 0.0039565 0.014972 -0.0059084 0.0042853 
0.080902 -0.17377 0.25765 -0.081539 0.011355 0.018096 0.011684 0.0067515 
0.078929 -0.0072237 0.10359 -0.0503 0.036839 0.030263 0.069064 0.041607 
-0.013471 0.16015 -0.12774 -0.00031829 0.057555 0.066105 0.074654 0.071037 
-0.0027845 0.25189 -0.25171 0.044073 0.048019 0.069229 0.061666 0.070051 
-0.057863 0.15242 -0.2619 0.029276 0.036839 0.044402 0.046211 0.049499 
0.010862 0.066598 -0.18808 0.050979 0.030263 0.0036276 0.044567 0.015794 
0.062323 0.11625 -0.12445 0.046046 0.013986 0.031907 0.032564 -0.0029489 
0.083862 0.13582 -0.051944 0.055254 0.0088889 0.040785 0.026974 0.0095465 
0.10524 0.041443 0.013328 0.012506 0.01267 0.0227 0.015137 -0.0098543 
0.074326 -0.10308 0.11346 -0.071345 0.021056 0.0072447 -0.0050863 -0.0031133 
0.057062 -0.14467 0.18218 -0.076935 0.027139 -0.011992 -0.0054151 -0.0029489 
0.03388 -0.073976 0.19665 -0.029913 0.025495 0.011191 0.012342 0.014972 
0.04506 0.025495 0.10869 0.019576 0.021056 0.035031 0.01711 0.0095465 
0.031578 0.068242 0.043416 0.037332 0.01711 0.0227 0.016781 0.028125 
0.031249 0.093398 -0.020377 0.076299 0.0080668 0.0093821 0.00033937 0.0075736 
0.046211 0.10293 0.040292 0.091096 -0.013636 -0.023829 0.00083261 0.016616 
0.032236 0.083368 0.15259 0.034044 -0.018239 0.00050378 0.016781 0.018096 
-0.0031133 0.091096 0.12447 0.024673 -0.0021268 0.016616 0.022371 0.057227 
-0.051944 0.10984 -0.024652 0.017767 0.033715 0.037661 0.025659 0.057227 
-0.0096899 0.18037 -0.12297 -0.0019624 0.028783 0.049335 0.032564 0.060515 
-0.03912 0.22608 -0.1746 -0.014129 0.026152 0.02122 0.024673 0.024837 
-0.046847 0.25222 -0.13382 -0.0054151 0.046375 0.030263 0.041114 0.04095 
-0.060494 0.19764 -0.055232 0.024673 0.029934 0.031742 0.033551 0.039305 
-0.063453 0.1248 -0.004593 0.015137 0.017438 0.015959 0.022535 0.057227 
-0.061809 0.052787 0.06035 0.030098 0.0046141 -0.0004827 0.013328 0.050486 
-0.037805 0.025659 0.10162 0.068571 0.00066819 -0.010676 0.0072447 0.04917 
0.023686 -0.048985 0.1853 0.014479 -0.0055795 0.0016547 0.017438 0.018918 
0.086163 -0.36104 0.26866 0.010533 0.0019835 0.0093821 -0.0052507 -0.0087034 
0.12661 -0.59796 0.21194 0.01711 0.013821 0.0095465 -0.0070593 -0.0050863 
0.085835 -0.44292 0.10178 0.10195 0.025824 0.0095465 0.00050378 0.0054362 
0.077778 -0.048985 -0.024487 0.12431 0.023193 0.015465 0.021384 0.016452 
0.1396 0.22213 0.028783 0.057555 0.021056 0.038812 0.033058 -0.0075525 
0.085341 0.25748 0.1927 -0.012978 0.037168 0.041772 0.015465 -0.03353 
0.0018191 0.11707 0.22805 -0.060165 0.043416 0.032729 0.0059294 -0.024323 
0.028619 -0.078579 0.20619 -0.018733 0.053774 0.014972 0.0026412 -0.040764 
0.070215 -0.15207 0.12151 0.02533 0.045882 0.0087245 0.00083261 -0.043395 
0.10425 -0.022514 -0.015773 0.05624 0.041114 0.032893 0.041114 -0.0088678 
0.094877 0.17117 -0.11524 0.04358 0.044238 0.043909 0.051801 0.052952 
0.0080668 0.29431 -0.19202 0.048019 0.040456 0.051143 0.074983 0.10507 
-0.11163 0.36435 -0.21159 0.093233 0.056404 0.05624 0.069558 0.14108 
-0.16095 0.44557 -0.18956 0.096028 0.065283 0.0421 0.054432 0.14108 
-0.070359 0.38112 -0.1358 0.10195 0.062652 0.055911 0.072681 0.096193 
-0.0027845 0.22378 -0.056383 0.089945 0.012999 0.031742 0.02533 0.027796 
0.061995 0.030756 0.039799 0.009711 -0.0096899 0.00099702 0.0014903 0.024508 
0.067091 -0.15405 0.12792 -0.037476 -0.021692 -0.019719 0.0032988 0.023686 
0.089616 -0.25763 0.14815 -0.029748 0.014972 -0.015444 0.015959 0.0075736 
0.13088 -0.36828 0.13138 0.024673 0.036182 0.049992 0.021056 0.017932 
0.11559 -0.43289 0.16558 -0.010348 0.022206 0.023686 0.0072447 -0.02646 
0.069064 -0.36959 0.086492 0.071366 0.057062 0.031907 0.015465 -0.010183 
-0.00064712 -0.067892 -0.063618 0.17248 0.066105 0.038319 0.032236 0.029441 
-0.063782 0.293 -0.15339 0.1904 0.055747 0.042429 0.052459 0.069064 
-0.079566 0.46349 -0.13053 0.1636 0.027632 0.031085 0.058706 0.073832 
-0.071674 0.4339 -0.028433 0.11346 0.032729 0.03092 0.042265 0.075476 
-0.041422 0.25321 0.039634 0.068736 0.047691 0.039141 0.047362 0.045882 
0.035853 0.025659 0.15341 -0.056219 0.068242 0.052459 0.070544 0.039141 
0.11576 -0.15783 0.34594 -0.1649 0.034702 0.052294 0.059528 -0.00097594 
0.18317 -0.23822 0.3923 -0.19071 0.0051074 0.022535 0.047855 -0.0039354 
0.18925 -0.1547 0.22197 -0.079895 0.016452 0.010204 0.025495 0.0069159 
0.12053 -0.067892 -0.061316 0.099645 0.055747 0.030756 0.0324 0.042429 
0.11231 0.038155 -0.26733 0.21621 0.058706 0.049992 0.064461 0.08567 
0.18596 0.14601 -0.26848 0.19057 0.061008 0.053774 0.060844 0.067256 
0.17528 0.15472 -0.091075 0.11378 0.04095 0.043251 0.05213 0.0421 
0.03651 0.030427 0.11674 -0.0034422 -0.0019624 0.0019835 0.026317 0.028783 
0.024179 -0.020377 0.15045 -0.047669 -0.020706 -0.010183 0.0011614 0.011026 
-0.028269 -0.00081153 0.014972 -0.074798 -0.049971 -0.006566 0.0054362 0.026152 
-0.061973 0.088465 -0.0138 -0.055232 0.0074092 0.009711 0.031742 0.036346 
-0.11689 0.12118 -0.097158 0.036675 0.037332 0.034044 0.056404 0.071366 
-0.13168 0.1294 -0.078579 0.045718 0.054596 0.044567 0.05476 0.079422 
-0.059672 0.11461 -0.00081153 0.045882 0.032893 0.038319 0.03388 0.053116 
-0.014129 0.15407 0.027303 0.031414 0.012342 0.023686 0.029605 0.01711 
0.031249 0.11806 0.17593 0.01711 0.011191 0.016288 0.0324 0.0021479 
0.086163 0.040456 0.31996 0.0060938 0.037004 0.031249 0.013328 -0.012156 
0.11707 -0.016266 0.32423 0.047362 0.057391 0.031578 0.022206 -0.0083746 
0.14535 0.024015 0.17051 0.087643 0.034044 0.025166 0.038483 -0.013471 
0.19829 0.039141 -0.023007 0.082382 0.033222 0.024179 0.015465 -0.01939 
0.19665 0.056733 -0.096665 0.055911 0.021056 0.014972 0.014808 -0.018404 
0.093233 0.11592 -0.15569 0.052459 0.023851 0.022371 0.030263 0.01974 
-0.021363 0.17495 -0.22113 0.026317 0.0082312 0.023522 0.049828 0.060679 
-0.060987 0.16919 -0.14434 -0.024158 0.017603 0.028783 0.042923 0.0786 
-0.037476 0.12464 -0.074798 -0.086307 0.02681 0.01563 0.033551 0.069886 
0.013492 0.061172 0.027139 -0.098144 0.0019835 0.005765 0.041278 0.042594 
0.025166 0.038812 0.13236 -0.11475 0.00099702 0.020562 0.011191 0.01267 
0.033387 0.12644 0.15259 -0.047834 0.0037921 0.0041209 0.0018191 0.0069159 
-0.021856 0.044073 0.098988 0.041443 0.034209 0.021878 -0.0011404 0.033715 
-0.017417 0.058049 0.053938 0.18317 0.10622 0.031578 0.061501 0.023193 
-0.028762 0.080244 0.021549 0.13812 0.054267 0.036346 0.048019 0.05213 
-0.049971 0.19139 -0.052437 0.15785 0.030098 0.032729 0.01711 0.052459 
-0.095349 0.29957 -0.1501 0.23298 0.0059294 0.0031344 -0.001798 0.059528 
-0.15043 0.42568 -0.23559 0.20651 -0.014787 0.0021479 -0.011827 0.041772 
-0.13612 0.47698 -0.21077 0.10935 0.0095465 -0.0072237 -0.0059084 0.077449 
0.0083956 0.16245 -0.044217 -0.012978 0.050814 0.037661 0.03799 0.0095465 
0.18843 -0.31731 0.29661 -0.14073 0.067256 0.033387 0.016616 -0.054575 
0.28083 -0.48846 0.60653 -0.21554 0.053774 0.032893 -0.011992 -0.079237 
0.23052 -0.45081 0.67937 -0.20797 0.023028 0.025166 0.01267 -0.043066 
0.1756 -0.34279 0.45001 -0.11163 0.013821 0.0087245 -0.004593 -0.057534 
0.13187 -0.22096 0.03651 0.017603 -0.011663 0.0072447 -0.00081153 -0.023665 
0.069722 -0.022021 -0.26042 0.14321 -0.021199 0.0051074 -0.0083746 0.013164 
0.019411 0.19336 -0.3908 0.23331 -0.0049219 0.015465 0.0064227 0.05065 
-0.0068948 0.27738 -0.34904 0.15587 0.01004 0.073997 0.0083956 0.057555 
-0.033694 0.27787 -0.19663 0.1031 0.036346 0.045224 0.044073 0.09422 
-0.085156 0.21095 -0.07414 0.049992 0.051308 0.027632 0.048513 0.078765 
-0.082525 0.1299 0.1271 -0.02646 0.019411 0.033058 0.034537 0.057884 
-0.004593 0.0072447 0.34775 -0.037311 0.028947 0.028783 0.026646 0.027961 
0.044073 -0.006566 0.50772 0.0227 0.036346 0.020233 -0.0067304 0.010204 
0.046046 0.00017495 0.55524 0.070051 0.0087245 -0.0054151 0.00033937 -0.0019624 
0.030098 -0.0073881 0.28806 0.083862 0.007738 0.0036276 0.0092177 0.0044497 
0.050814 0.020891 -0.025967 0.095206 0.01974 0.019083 0.0072447 0.010204 
0.027303 0.078765 -0.21652 0.0062583 0.0072447 0.014479 0.02681 0.030756 
0.0067515 0.076956 -0.30974 -0.061151 0.012835 0.021384 0.020069 0.034373 
-0.0042642 0.020727 -0.33178 -0.097322 0.010862 0.030263 0.0087245 0.035853 
0.012342 0.013492 -0.31895 -0.033694 0.030592 0.051965 0.055747 0.015465 
0.048841 0.034537 -0.19235 0.053116 0.042429 0.051308 0.034373 0.020727 
0.071531 0.022535 -0.069536 0.089616 0.029934 0.046211 0.041443 0.044073 
0.047197 -0.023994 0.10589 0.041936 0.023686 0.037168 0.035688 0.042265 
0.025495 -0.057534 0.34676 -0.032379 -0.0059084 0.00099702 0.02681 0.025495 
0.022371 -0.069372 0.40496 -0.082032 0.00099702 0.017932 0.035524 0.010862 
0.05213 -0.11393 0.32933 -0.026131 0.0034632 0.010204 0.017767 -0.0091966 
0.086492 -0.12494 0.1659 0.0689 0.025001 0.023357 0.018754 -0.008539 
0.086985 -0.037805 -0.03057 0.17149 0.061337 0.028619 0.054103 0.0421 
0.053281 0.08156 -0.13464 0.17445 0.056404 0.033715 0.055582 0.057391 
0.05065 0.21161 -0.12577 0.093726 0.015137 0.010533 0.034373 0.05213 
0.016452 0.25387 -0.019884 -0.059178 -0.032872 -0.021363 0.01267 0.028125 
-0.058521 0.20783 0.22575 -0.194 -0.035338 -0.025474 0.0075736 0.051801 
-0.06707 0.020727 0.34133 -0.1085 0.036182 0.005765 0.016288 0.043251 
-0.069536 -0.06 0.29661 0.16114 0.13565 0.058049 0.045389 0.074983 
-0.065755 -0.051944 0.082217 0.3193 0.23249 0.083368 0.075148 0.07597 
-0.072989 0.059857 -0.13086 0.23611 0.13401 0.093726 0.062981 0.097179 
-0.056548 0.11559 -0.11541 0.025824 0.052294 0.063474 0.04917 0.065118 
-0.015938 0.060844 -0.066248 -0.10637 -0.013471 0.021384 0.021713 0.039963 
0.043745 -0.11722 -0.099295 -0.12429 -0.038956 0.013328 0.020891 -0.019884 
0.091918 -0.1667 -0.18101 -0.024816 -0.027118 0.010369 0.0098754 -0.017911 
0.12316 -0.046354 -0.28278 0.06594 -0.0059084 0.0014903 0.0041209 -0.015444 
0.099974 0.24515 -0.22589 0.083862 0.024015 0.011026 0.010204 0.036675 
0.099316 0.3558 0.01826 0.050814 0.049992 0.016945 0.020398 0.039141 
0.16541 0.16294 0.23183 -0.068714 0.046375 0.025988 0.029112 0.040292 
0.18119 -0.044874 0.25271 -0.10982 0.019083 0.029605 0.030427 0.0041209 
0.06035 0.093233 0.039634 -0.10883 0.01152 0.0067515 0.026974 0.028619 
-0.06296 0.41318 -0.05885 -0.025638 0.0324 0.011684 0.018096 0.044073 
-0.11935 0.4487 -0.046519 0.10047 0.020727 0.01563 0.013492 0.070873 
-0.040271 -0.00031829 0.011191 0.12497 0.059693 0.027632 0.032071 0.035688 
0.0095465 -0.28163 0.022206 0.15571 0.085177 0.050979 0.048841 0.031742 
-0.027775 -0.14698 -0.014951 0.13878 0.081067 0.040621 0.038155 0.061666 
-0.069865 -0.028269 -0.029255 0.074326 0.055582 0.020233 0.044073 0.071695 
-0.068057 0.016781 -0.052931 0.038812 0.01152 -0.010183 0.013492 0.046704 
-0.05326 0.060022 -0.0080457 0.012177 0.0062583 0.0072447 0.019576 0.040621 
-0.012156 0.049335 0.059035 0.022371 0.0074092 0.004943 0.024015 0.033551 
0.028947 -0.01676 0.046704 -0.009361 0.019905 0.014972 0.016945 0.023851 
0.095699 0.030098 0.021878 -0.029748 0.018425 0.0070803 0.018589 -0.0044286 
0.15226 0.1077 0.0072447 -0.029091 0.0060938 -0.010676 -0.0062372 -0.025145 
0.23775 0.091589 0.037497 -0.01939 0.0028056 -0.021363 -0.0072237 -0.059507 
0.2514 -0.023336 0.072024 -0.015116 0.0074092 0.0011614 -0.011334 -0.04619 
0.13236 -0.049149 0.077778 -0.010841 0.025001 0.028619 0.02533 0.016945 
-0.034352 0.029769 0.072024 0.0098754 0.011191 0.020562 0.047855 0.023522 
-0.094692 0.17281 0.023686 0.0227 0.033551 0.039141 0.022535 0.043087 
-0.042901 0.21293 -0.00097594 0.060022 0.053609 0.028947 0.035853 0.045553 
0.0016547 0.1858 0.047033 0.10721 0.072353 0.045882 0.020398 0.051636 
0.0059294 0.09126 0.071202 0.093562 0.07038 0.044731 0.030098 0.066105 
0.06035 -0.076277 0.06479 0.02829 0.038319 0.024179 0.020069 0.041772 
0.13647 -0.12396 0.056733 -0.04323 -0.008539 0.0034632 -0.0016336 -0.011992 
0.19698 -0.039284 0.065776 -0.098967 -0.030077 -0.026953 0.0037921 -0.035174 
0.19681 -0.16605 0.10836 -0.10456 -0.0036066 -0.00097594 0.0042853 -0.036818 
0.11872 -0.40609 0.072024 -0.032708 0.022206 0.010533 0.038319 -0.0019624 
0.059528 -0.35447 -0.030242 0.061995 0.059857 0.030756 0.031578 0.023028 
-0.026131 -0.11442 -0.025638 0.048184 0.03799 -0.035996 0.055254 0.070051 
-0.083676 0.054267 0.12299 0.015794 0.011191 0.018918 0.073668 0.06183 
-0.064604 0.15505 0.21605 0.011684 -0.0067304 0.01563 0.029441 0.081395 
-0.060494 0.21638 0.16574 -0.0052507 -0.010676 -0.0027845 0.033058 0.047362 
-0.02498 0.22789 0.029605 0.044238 0.014643 -0.0032777 0.024344 0.057555 
0.045389 0.17051 -0.017746 0.11411 0.057227 0.012506 0.029769 0.013986 
0.075641 0.10573 -0.039613 0.19122 0.067256 0.048348 0.060844 0.031578 
0.043416 0.096028 -0.0055795 0.081395 0.057391 0.056076 0.10178 -0.0034422 
-0.00015387 0.092411 0.028454 0.017767 0.031742 0.037661 0.053445 0.051965 
-0.0064016 0.12825 -0.003771 0.0032988 0.019247 0.025001 0.039963 0.037332 
0.014479 0.1904 0.01152 -0.044217 0.0065871 0.0023123 0.033715 0.046046 
0.031249 0.1613 0.023851 -0.058028 0.0028056 -0.0032777 0.049664 0.0059294 
0.042758 0.052623 0.051965 -0.066248 -0.0088678 -0.0042642 0.029441 0.012177 
0.062817 -0.06296 0.09422 -0.048985 0.0087245 0.015301 0.041278 -0.011498 
0.063639 -0.069372 0.020398 -0.02942 0.016616 0.0095465 0.01563 -0.0054151 
0.0421 0.022864 -0.0503 0.028783 0.027632 0.011355 0.02681 -0.0057439 
0.037332 0.11444 -0.076113 0.099974 0.025659 0.032236 0.037826 0.014315 
0.036675 0.082382 -0.045039 0.076463 0.026646 0.036182 0.029605 -0.00097594 
0.089616 -0.12478 0.033551 0.042429 0.0052718 -0.00031829 0.024179 0.0041209 
0.094548 -0.24151 0.11165 -0.0059084 0.021384 0.01826 0.037826 0.019905 
0.083368 -0.09798 0.095042 0.026317 0.030592 0.013492 0.044567 0.048348 
0.019083 0.09833 0.0062583 0.087479 0.039141 0.036346 0.068571 0.065776 
-0.052273 0.23446 -0.05589 0.12151 0.053116 0.035524 0.055418 0.072681 
-0.11048 0.26307 -0.10242 0.18136 0.079258 0.054925 0.055911 0.098988 
-0.10291 0.22986 -0.060494 0.11395 0.08419 0.055747 0.057884 0.090767 
-0.048985 0.15193 0.00050378 0.058542 0.058049 0.047855 0.064461 0.071695 
-0.0075525 0.12842 0.058706 0.043087 0.055747 0.052787 0.05772 0.023522 
0.035853 0.12628 0.11214 0.028454 0.038977 0.055582 0.036839 0.011355 
0.049664 0.14617 0.16442 0.012506 0.024015 0.022371 0.017438 -0.0044286 
0.046704 0.12233 0.17265 0.018425 0.014808 0.013492 0.020069 0.012506 
0.034044 0.087808 0.12332 0.021384 0.0092177 0.012013 0.029934 0.0034632 
0.015137 0.051965 0.039799 -0.0091966 0.0088889 0.013821 0.034866 0.033387 
0.016945 0.054103 -0.10078 -0.010348 -0.0036066 0.01826 0.031249 0.030756 
0.0062583 0.05476 -0.17328 0.038648 0.004943 0.0227 0.027139 0.059528 
-0.014622 0.054432 -0.1376 0.041443 -0.0064016 0.012013 0.013328 0.064625 
-0.0013048 0.05213 -0.047176 -0.010512 0.0019835 0.020562 0.027961 0.079094 
0.016288 0.0011614 0.097015 -0.064933 -0.0070593 -0.013636 0.022864 0.042758 
0.049499 -0.022021 0.13795 -0.020541 0.0037921 -0.0075525 -0.010019 0.016781 
0.051472 0.0056006 0.11329 0.031414 0.034702 0.021878 0.0069159 0.016452 
0.052294 0.047197 0.11296 0.088136 0.065447 0.044567 0.0041209 0.028947 
0.079258 0.093562 0.031907 0.13203 0.025659 0.04506 0.027632 0.030098 
0.0689 0.10803 0.0032988 0.06479 -0.015773 0.016123 0.010204 0.032729 
0.031249 0.11905 -0.020541 0.029934 -0.044052 -0.0068948 -0.0013048 0.017767 
-0.006566 0.20931 -0.0049219 0.047033 -0.0013048 0.0013258 -0.0070593 0.064296 
0.011848 0.23858 0.0032988 0.094877 0.06183 0.039141 0.013986 0.0031344 
0.037497 0.25222 -0.06 0.20092 0.095535 0.036017 0.041114 0.050321 
-0.037969 0.19205 -0.13481 0.20783 0.10293 0.068571 0.04095 0.047362 
-0.057699 0.034866 0.011026 0.14141 0.066763 0.053281 0.016781 0.076792 
-0.0090322 -0.1108 0.2024 -0.073976 0.012999 0.022042 0.0090533 0.035195 
0.073504 -0.18791 0.34084 -0.18315 -0.026296 0.015959 0.00099702 0.0016547 
0.11181 -0.17493 0.2953 -0.12823 -0.00031829 0.00066819 0.020398 -0.0039354 
0.090767 -0.089924 0.2052 -0.028269 0.045389 0.038319 0.027468 0.027961 
0.10704 -0.0078813 0.080409 0.044567 0.034373 0.0032988 0.022042 0.037332 
0.06035 0.091753 -0.080552 0.10326 0.00297 -0.024158 0.0028056 0.020398 
0.069886 0.023028 -0.059507 0.090767 0.00033937 -0.012814 -0.006566 0.0044497 
0.081395 -0.13596 0.060022 -0.055397 0.017438 0.01826 0.039634 0.0041209 
0.04917 -0.23116 0.19106 -0.15257 0.063474 0.06331 0.054925 0.038319 
0.065283 -0.15569 0.19928 -0.081045 0.11132 0.086657 0.045224 0.034373 
0.076134 -0.063782 0.10902 0.02829 0.072517 0.05624 0.034537 0.013821 
0.031249 0.015465 0.058706 0.08304 0.017274 0.016781 0.019247 0.041278 
-0.0095255 0.11724 0.032071 0.093069 0.0082312 -0.0027845 0.038155 0.030756 
-0.015444 0.16377 0.0021479 0.066434 0.004943 0.016452 0.02122 0.036182 
0.0083956 0.14782 -0.0062372 0.036839 0.015465 0.0031344 0.00033937 0.02533 
0.03536 0.048677 -0.020048 0.042923 0.0070803 0.0041209 -0.0098543 0.032564 
0.030592 0.057555 -0.046025 0.056898 0.010204 0.0044497 -0.00064712 0.017438 
0.072024 0.087479 -0.050464 0.055089 0.00050378 -0.004593 0.01974 0.0021479 
0.18547 0.11872 -0.092061 0.037168 0.014972 0.024508 0.0059294 0.00050378 
0.20701 0.057555 -0.04619 0.094384 0.034209 0.025166 0.023851 0.0087245 
0.095864 0.0028056 -0.0095255 0.06742 0.029605 0.027139 0.03092 0.039141 
-0.019884 -0.06444 -0.0004827 0.040456 0.038812 0.044731 0.042594 0.065118 
-0.064275 -0.052602 -0.047834 0.012999 0.030427 0.050814 0.067091 0.091425 
-0.054739 -0.052437 -0.08121 0.020398 0.048841 0.040128 0.06035 0.072188 
-0.0031133 -0.078744 0.0016547 -0.031064 0.035688 0.0227 0.019576 0.048513 
0.060679 -0.074962 0.16114 -0.05885 0.034537 0.026974 0.019411 0.0034632 
0.081889 -0.034845 0.26866 -0.012814 0.053281 0.010369 0.026317 0.0034632 
0.079422 0.059693 0.25222 0.00050378 0.051965 0.028783 0.048019 0.0024767 
0.068078 0.13088 0.11888 0.037004 0.051965 0.041936 0.038483 0.026317 
0.064461 0.13713 -0.045368 0.059035 0.041443 0.017932 0.027139 0.016616 
0.073175 0.13384 -0.13826 0.065776 0.026481 0.0056006 0.0090533 0.018754 
0.029605 0.17462 -0.057534 0.07038 -0.0082102 0.010369 0.014808 -0.0054151 
0.035524 0.15966 -0.08121 0.012013 0.018589 0.039634 0.032236 0.02829 
0.007738 0.067749 -0.092554 -0.016431 -0.0057439 0.069558 -0.054904 -0.0049219 
0.078272 -0.1524 0.052787 -0.12774 -0.02235 0.0013258 0.020233 0.032893 
0.12447 -0.44539 0.31059 -0.18594 -0.0027845 -0.0064016 0.024179 0.00050378 
0.092247 -0.50819 0.41302 -0.06 0.0046141 -0.020541 0.010369 0.014315 
-0.011334 -0.24234 0.23315 0.1128 0.025824 0.023686 0.026317 0.023686 
-0.12494 0.090767 0.024179 0.17544 0.034537 0.030263 0.024673 0.064954 
-0.1746 0.31618 -0.043066 0.1294 0.050321 0.022042 0.032071 0.084848 
-0.13415 0.39263 -0.10094 0.12891 0.081231 0.058706 0.058049 0.089123 
-0.025802 0.33065 -0.15224 0.055911 0.073504 0.041278 0.058049 0.051965 
0.053609 0.26636 -0.12675 -0.0075525 0.049992 0.051636 0.060515 0.033058 
0.072681 0.21819 -0.10768 -0.024487 0.01004 0.027796 0.025988 0.025001 
0.033551 0.19139 -0.12626 -0.03616 0.012999 -0.0075525 0.0023123 0.049664 
0.031578 0.23085 -0.16391 0.01974 -0.0034422 -0.023007 -0.0027845 0.026974 
0.010204 0.1756 -0.19104 0.071859 -0.040271 -0.020377 0.0075736 0.035031 
-0.0050863 0.091096 -0.08269 0.063474 -0.019226 -0.01232 0.017932 0.031907 
-0.029091 0.0592 0.0046141 0.016123 0.0075736 0.0079024 0.010369 0.036675 
-0.013307 0.063145 0.058377 0.00033937 0.029276 0.01004 0.01004 0.020891 
0.020398 0.068078 0.070051 0.037661 0.023193 -0.0047575 0.012506 0.035031 
0.0062583 0.0013258 0.10113 0.069722 0.034209 0.0080668 0.03536 0.025824 
0.027961 -0.11064 0.15604 0.10178 0.035524 0.037826 0.033551 0.021878 
0.050979 -0.20452 0.17347 0.11477 0.025659 0.03388 0.036182 0.013492 
0.071695 -0.11919 0.15719 0.070051 -0.00081153 -0.001798 0.0028056 -0.0077169 
0.11263 0.012177 0.1955 0.00099702 -0.024158 -0.021692 1.0539e-005 -0.0091966 
0.086328 0.08304 0.17166 -0.025638 0.023193 0.0060938 0.019083 -0.0011404 
0.053281 0.066105 0.05213 0.031907 0.084684 0.045224 0.041936 -0.001798 
0.032893 0.016616 -0.056548 0.0069159 0.073997 0.041772 0.058049 0.022535 
0.036182 -0.0052507 -0.047669 0.009711 0.038483 0.032893 0.047855 0.0093821 
-0.0067304 0.056733 -0.038462 0.054925 0.030756 0.034702 0.052459 0.018589 
-0.076606 0.12875 0.0095465 -0.0083746 -0.0026201 0.017767 0.067091 0.027796 
-0.084334 0.15012 0.15242 -0.091075 -0.004593 0.022864 0.047033 0.01563 
-0.027611 0.090603 0.28626 -0.13464 -0.021692 0.011848 0.023686 0.029441 
0.037826 0.042758 0.24548 -0.088937 -0.0026201 -0.0022913 0.0092177 0.013328 
0.063145 0.053938 0.088465 -0.034845 0.015137 -0.0073881 0.015137 0.059035 
0.054596 0.06479 -0.12462 0.09126 0.0421 0.00033937 0.047197 0.054267 
-0.0072237 0.027139 -0.22129 0.22082 0.069722 0.032071 0.058871 0.063639 
-0.02794 0.082217 -0.18791 0.28593 0.077943 0.049499 0.061172 0.040292 
-0.047834 0.13762 -0.16013 0.29365 0.08715 0.054267 0.053281 0.052952 
-0.024487 0.16179 -0.074469 0.2075 0.10425 0.060679 0.051636 0.032564 
0.032236 0.12694 -0.03057 0.050486 0.18432 0.070544 0.069064 0.072846 
0.066269 0.0088889 0.021713 0.0046141 0.085012 0.063968 0.071859 0.044402 
