-0.052931 0.47023 0.33229 -0.028762 -0.11393 -0.62525 -0.21274 0.020562 
0.0054362 0.39625 0.60489 -0.001798 -0.041751 -0.32076 -0.28147 0.010533 
0.10869 -0.15158 0.90034 -0.035503 -0.031721 -0.041257 -0.22968 -0.0032777 
0.12825 -0.52628 1.0447 -0.055561 -0.046354 0.11 -0.11903 -0.024487 
0.076463 -0.29725 0.92369 -0.03616 -0.040271 0.15176 -0.0072237 -0.011498 
0.045389 -0.014458 0.3392 -0.020706 -0.028762 0.12891 -0.021199 -0.015116 
0.093398 -0.037969 -0.30892 0.0065871 -0.026624 0.13762 0.026481 -0.023994 
0.098001 -0.14993 -0.6246 0.067749 -0.07266 0.17166 0.20388 -0.014951 
0.037497 -0.15996 -0.66241 0.08567 -0.040928 0.25502 0.43061 0.018589 
0.00297 -0.077428 -0.40839 0.040128 0.0092177 0.28675 0.64123 0.072846 
-0.023172 0.022042 -0.074633 0.036017 0.03799 0.1636 0.658 0.10228 
-0.035174 0.33722 0.047197 0.088465 0.065118 -0.030899 0.45248 0.10376 
0.044731 0.56231 -0.030406 0.12299 0.063803 -0.18972 0.086328 0.06331 
0.097837 0.66539 -0.055397 0.093233 0.063639 -0.25368 -0.21981 0.027139 
0.066598 0.53847 0.042265 0.072024 0.061666 -0.21093 -0.36614 0.0051074 
0.020727 0.21621 0.085506 0.066927 0.0689 -0.10489 -0.38916 0.0011614 
0.0031344 -0.02498 0.10902 0.055089 0.058871 0.0039565 -0.29462 -0.0042642 
-0.0059084 -0.15043 0.10162 0.035688 0.034209 0.039963 -0.12494 0.027303 
-0.006566 -0.17016 0.15719 0.046046 0.031742 0.058542 0.038977 0.0060938 
-0.024158 -0.1524 0.22263 0.023686 0.035031 0.0018191 0.057884 0.051636 
-0.037805 -0.091897 0.17741 0.044567 0.012999 -0.04882 0.0082312 0.024673 
-0.042573 -0.014951 0.1271 0.033058 0.0044497 -0.10324 -0.020212 0.013657 
-0.018404 0.0421 0.097344 0.047362 0.0042853 -0.10637 -0.0068948 -0.009361 
-0.010841 0.04506 0.085999 0.022535 0.016288 -0.070852 0.01152 -0.0083746 
0.017603 0.043251 0.085012 0.00099702 0.017767 -0.13432 -0.056712 1.0539e-005 
0.047526 0.026481 0.058706 0.027139 0.0070803 -0.16687 -0.028762 0.023193 
0.035195 0.067091 0.036182 -0.021363 -0.036325 -0.15339 0.070544 0.061008 
0.02533 0.03092 0.034209 -0.036818 -0.077922 -0.1741 0.093069 0.067256 
0.035853 -0.13119 0.062652 -0.041751 -0.066577 -0.15339 0.041772 0.023193 
0.049006 -0.27226 0.11362 -0.061645 -0.10883 -0.24776 0.01267 -0.024652 
0.10474 -0.22178 0.076792 -0.12659 -0.19054 -0.11886 0.11083 -0.083347 
0.24548 -0.01939 -0.0088678 -0.10242 -0.14451 0.01711 0.04358 -0.13349 
0.29398 0.49161 -0.086636 -0.00031829 -0.0072237 0.2394 0.096521 -0.1182 
0.070051 0.69581 -0.19761 0.1442 0.25798 0.70041 0.36008 0.082382 
-0.16884 0.24564 -0.21817 0.26159 0.46629 0.86269 0.49128 0.25173 
-0.26272 -0.34016 -0.15257 0.31634 0.4145 0.57628 0.29415 0.26439 
-0.19252 -0.26059 -0.10752 0.24055 0.23742 0.12431 -0.020541 0.18711 
-0.077757 0.41565 -0.14451 0.14535 0.052952 -0.25812 -0.30004 0.020727 
0.057391 0.97943 -0.21373 0.06183 -0.085813 -0.42664 -0.41217 -0.049314 
0.1174 0.63284 -0.13514 0.0087245 -0.14895 -0.27999 -0.30991 -0.070194 
0.099152 -0.042408 -0.074633 -0.045861 -0.084169 0.028947 -0.1233 -0.0054151 
0.049335 -0.42237 -0.094856 -0.028104 0.018425 0.16689 -0.0062372 0.0088889 
0.0087245 -0.44851 -0.075784 -0.003771 0.030098 0.14404 -0.097322 0.051472 
0.00099702 -0.31418 0.0036276 0.025495 0.072846 0.16097 -0.18841 0.037661 
0.020233 -0.066248 0.11033 -0.015938 0.077614 -0.017746 -0.21323 0.0421 
0.069722 0.11263 0.1567 -0.042408 0.040621 -0.1718 -0.1404 0.010533 
0.12053 0.13286 0.1909 -0.053588 -0.013965 -0.18824 -0.14533 -0.036983 
0.11477 0.031907 0.13845 -0.072496 -0.010019 -0.10406 -0.16753 -0.073482 
0.062817 -0.15651 0.035031 -0.034845 0.00050378 0.0021479 -0.0049219 -0.066906 
0.016123 -0.27736 0.046704 0.019083 0.012342 0.075312 0.34676 -0.027611 
-0.066084 -0.21225 0.08304 0.044567 0.036182 0.1026 0.58878 0.057062 
-0.121 -0.37354 0.058706 -0.0098543 0.034373 0.10474 0.61804 0.13154 
-0.047505 -0.78342 -0.028597 -0.053753 0.053609 0.17462 0.52318 0.12447 
0.14765 -0.71749 -0.15832 0.022042 0.080409 0.24762 0.31585 0.084026 
0.14881 0.0046141 -0.22244 0.019083 0.097837 0.27195 -0.023501 0.038812 
0.040785 1.4985 -0.22852 0.042758 0.076299 0.25551 -0.24513 0.058049 
0.028454 2.1261 -0.14681 0.081395 0.069064 0.18777 -0.30202 0.04506 
0.030592 1.2029 -0.08121 0.062323 0.081395 0.13121 -0.20419 0.046211 
-0.0096899 0.22592 -0.055726 0.026974 0.1105 0.13187 -0.089759 0.053116 
-0.0042642 -0.28114 0.020727 0.017932 0.10819 0.098988 -0.02087 0.044238 
-0.0095255 -0.49553 0.092411 0.042594 0.072188 0.048513 -0.019719 0.034044 
0.047526 -0.53696 0.17067 -0.033201 0.028947 -0.097158 -0.070359 0.017438 
0.086492 -0.43108 0.27343 -0.0868 0.0072447 -0.21554 -0.089266 -0.026624 
0.083368 -0.29002 0.32867 -0.052766 -0.024816 -0.26453 -0.09091 -0.0057439 
0.051801 -0.12823 0.29135 -0.019884 -0.045368 -0.33704 -0.083512 0.009711 
0.052787 -0.042573 0.13105 -0.0083746 -0.035832 -0.36532 -0.14319 -0.018568 
0.086163 0.0013258 -0.046354 -0.022021 -0.032872 -0.23181 -0.1598 -0.072332 
0.072846 0.049006 -0.0098543 -0.0082102 -0.046847 0.064296 0.076299 -0.0059084 
0.02829 0.057062 0.11921 -0.020706 -0.017417 0.48914 0.35909 0.072353 
-0.010183 0.095864 0.1613 0.094877 0.15686 0.86779 0.42486 0.12151 
-0.023994 0.10589 0.14124 0.22279 0.2611 0.84806 0.35597 0.095864 
0.050321 0.15127 0.011026 0.16327 0.20865 0.61229 0.23134 0.022864 
0.069886 0.13121 -0.018075 0.076134 0.069064 0.2463 0.13171 -0.021363 
0.073832 0.11132 -0.063453 -0.009361 -0.011498 -0.12182 0.065118 0.0070803 
0.03388 0.097344 -0.015116 -0.031721 -0.10225 -0.35874 0.031085 0.013821 
0.052787 0.13499 0.023686 -0.10308 -0.12215 -0.38899 -0.029913 0.0092177 
0.050157 0.13516 0.037332 -0.11278 -0.079401 -0.27061 -0.083512 0.016288 
0.039141 0.12151 0.072188 -0.060987 -0.0078813 -0.20978 -0.16046 -0.026131 
0.047855 0.094548 0.061995 -0.02646 0.024015 -0.15881 -0.076113 -0.0068948 
0.035853 0.087314 0.039305 0.0042853 0.019411 -0.29018 0.090438 0.037332 
0.022371 0.077121 0.02122 0.012506 -0.010676 -0.50885 0.20553 0.097508 
0.018096 0.05624 -0.058192 0.0016547 -0.038462 -0.46232 0.26521 0.1054 
-0.0042642 0.040621 -0.047998 -0.035503 -0.030242 -0.13991 0.25732 0.12283 
-0.011827 0.046211 -0.023336 -0.01528 -0.0054151 0.27475 0.19451 0.090274 
0.022864 0.016781 0.10376 0.044073 0.041114 0.54915 0.01415 0.025495 
0.060679 -0.0044286 0.21095 0.067091 0.0026412 0.49572 -0.17377 -0.032872 
0.058706 0.013986 0.28839 0.075641 -0.0022913 0.36879 -0.19466 -0.03912 
0.060679 0.019905 0.36254 0.13088 0.055418 0.17182 -0.15224 -0.026296 
0.041936 0.012177 0.19895 0.19517 0.085177 -0.039284 -0.11557 0.00017495 
0.043909 -0.0057439 -0.017746 0.1641 0.085835 -0.11459 -0.084005 -0.0050863 
0.047691 0.024673 -0.13925 0.10672 0.026974 -0.15684 -0.072332 0.0085601 
0.050814 0.026152 -0.2277 0.0592 0.011684 -0.14122 -0.041915 -0.00081153 
0.047855 0.024015 -0.26338 0.017438 -0.012814 -0.063618 0.015301 0.026152 
0.075312 0.028454 -0.21669 -0.040928 -0.0013048 0.020562 0.07301 0.071202 
0.08567 0.036346 -0.1353 -0.084169 -0.015773 0.06183 0.090109 0.037004 
0.079587 0.055911 -0.089266 -0.062796 -0.02794 0.029934 0.093069 0.040621 
0.048348 0.042758 -0.12823 -0.060987 -0.021528 -0.012814 0.067091 0.037168 
0.029934 0.036182 -0.063946 0.014315 -0.013965 -0.092554 0.080573 0.034866 
0.038319 0.016288 0.13434 0.09833 -0.019226 -0.18364 0.03947 0.020398 
0.013821 -0.011827 0.38589 0.15078 0.034702 -0.31155 -0.0044286 0.038155 
0.021549 -0.066577 0.487 0.17117 0.061172 -0.3229 -0.052273 0.016452 
0.024837 -0.0771 0.54471 0.1613 0.056076 -0.27834 -0.12922 0.00297 
0.043251 -0.109 0.64813 0.12299 -0.02087 -0.25598 -0.19548 -0.047176 
0.056076 -0.11146 0.56 0.044567 -0.038791 -0.0073881 -0.099131 0.0044497 
0.030427 -0.12429 0.20882 0.063145 0.060022 0.37323 0.072517 0.054267 
0.014315 -0.047669 -0.20353 0.15341 0.070708 0.46991 0.15735 0.093891 
-0.023172 0.03388 -0.44884 0.1784 0.078436 0.40167 0.18942 0.10524 
-0.0052507 0.045882 -0.40922 0.11444 0.054596 0.24219 0.11872 0.057391 
0.075805 0.054267 -0.19564 -0.032708 -0.072332 -0.22326 -0.0072237 -0.027282 
0.093233 0.13401 -0.0004827 -0.13497 -0.20173 -0.74478 -0.14073 -0.075784 
0.015465 0.35416 0.091753 -0.07825 -0.08384 -0.70352 -0.19827 -0.049807 
-0.045203 0.25387 0.066763 -0.014458 0.078765 -0.25352 -0.12577 0.064461 
-0.033365 -0.15602 0.056898 0.020069 0.17922 0.12135 -0.0011404 0.10787 
0.014972 -0.28295 -0.04471 -0.034188 0.10902 0.12431 0.1248 0.12316 
0.039141 -0.095678 -0.11623 -0.035996 0.047197 0.13812 0.069558 0.053445 
0.056898 0.071531 -0.11376 -0.013143 0.13286 0.66178 0.0095465 -0.024487 
0.096686 0.12644 -0.086142 0.014479 0.12299 0.92977 0.14634 -0.0047575 
0.073504 0.11 0.0088889 0.031085 -0.010348 0.67378 0.36221 0.084848 
0.012177 0.12842 0.00017495 -0.0049219 -0.064768 0.51972 0.44442 0.11247 
-0.0057439 0.15061 -0.069372 0.025495 0.080244 0.63975 0.33032 0.051965 
0.027139 0.14519 -0.1016 0.038812 0.15555 0.48947 0.08156 -0.032379 
0.048019 0.08304 -0.10472 0.079751 0.14206 -0.023501 -0.16654 -0.063124 
0.027632 0.039963 0.064132 0.098494 0.048019 -0.50227 -0.28163 -0.018239 
-0.017582 -0.047176 0.29283 0.12792 -0.010841 -0.69283 -0.24875 0.014972 
-0.062796 -0.21751 0.35153 0.13467 0.0060938 -0.54962 -0.15832 0.066434 
-0.037311 -0.42533 0.28412 0.14963 0.058706 -0.3469 -0.029091 0.055418 
-0.021199 -0.51723 0.21621 0.13697 0.090767 -0.12182 0.047362 0.048019 
0.009711 -0.40083 0.22049 0.077614 0.051636 0.039141 0.067091 0.033222 
0.061501 0.20224 0.012835 0.023357 -0.011334 0.069064 0.0786 0.024837 
0.049335 0.69088 -0.26256 0.004943 -0.017582 0.021056 0.083697 0.0095465 
0.010697 1.0676 -0.40642 0.022535 0.030263 0.066763 0.094713 0.043251 
-0.012485 1.1484 -0.36532 0.031085 0.072517 0.20635 0.05213 0.028947 
0.041772 0.4704 -0.094692 0.035853 0.093891 0.32884 0.062488 0.035031 
0.08567 -0.2037 0.088958 0.036182 0.057555 0.36583 0.088465 0.03092 
0.09685 -0.45591 0.071037 -0.05885 0.05213 0.37685 0.11 0.049664 
0.08156 -0.35562 0.10918 -0.12527 0.026317 0.37389 0.1299 0.032564 
0.053281 -0.098802 0.32144 -0.12626 0.036017 0.32456 0.16985 0.038319 
0.092576 -0.019555 0.61443 -0.064768 0.035031 0.31059 0.18728 0.029112 
0.10244 -0.048985 0.48109 0.0062583 0.094548 0.27573 0.18728 0.039963 
0.057227 -0.023501 0.0421 0.089287 0.11707 0.13779 0.096028 0.04095 
-0.0049219 0.06594 -0.30711 0.14568 0.12036 -0.029091 -0.074633 0.011191 
-0.07003 0.13993 -0.53137 0.13401 0.077943 -0.077593 -0.14928 0.016781 
-0.039284 0.18218 -0.50145 0.089452 0.045389 -0.098473 -0.11491 0.014808 
0.0062583 0.16804 -0.34378 0.047855 0.012342 -0.080717 -0.046354 0.027139 
-0.02498 0.15818 -0.14352 0.054103 -0.0080457 -0.12297 0.048677 0.030263 
-0.035503 0.13236 0.014808 0.022206 -0.030406 -0.16161 0.12513 0.067585 
-0.018239 0.11642 0.062323 -0.0036066 -0.048656 -0.14303 0.16837 0.056733 
-0.0062372 0.11214 0.1419 -0.012485 -0.072825 -0.093048 0.18695 0.062652 
0.01974 0.10343 0.14996 -0.055726 -0.066413 -0.11261 0.18383 0.04358 
0.056898 0.12283 0.15867 -0.095678 -0.080552 -0.28837 0.15357 0.036182 
0.049006 0.027796 0.18958 -0.022843 -0.07414 -0.39902 0.082711 0.025824 
0.07449 0.048348 0.20471 -0.013636 -0.0052507 -0.35907 -0.022679 0.015959 
0.058377 0.16607 0.13828 0.047691 0.066105 -0.32191 -0.16851 0.0095465 
0.090274 0.12316 0.055418 0.1128 0.09126 -0.1917 -0.19712 0.021878 
0.051636 0.051636 0.047197 0.17725 0.08304 0.059035 -0.063782 0.042594 
0.030263 -0.033859 0.097344 0.10113 -0.014458 0.13779 0.039963 0.062323 
0.018918 -0.17114 0.10885 0.025001 -0.098802 0.0037921 0.037826 -0.0067304 
0.07597 -0.40708 0.12003 -0.059672 -0.1524 -0.16424 -0.10982 -0.08828 
0.18054 -0.45295 0.043909 -0.086142 -0.08828 -0.07825 -0.17591 -0.1478 
0.14716 -0.30037 0.035195 -0.06444 0.029276 0.025824 -0.1478 -0.039449 
-0.048985 0.1373 0.067913 0.0070803 0.1202 0.24729 -0.071345 0.070215 
-0.1307 0.65619 0.024179 0.075312 0.17659 0.38885 0.020398 0.15801 
-0.080059 0.88226 0.016288 0.087972 0.24548 0.46711 0.12217 0.14617 
-0.0055795 0.55047 0.070215 0.077778 0.1659 0.16377 0.10145 0.079422 
0.023357 -0.036325 0.17725 0.011684 -0.00031829 -0.37781 -0.019884 0.0062583 
0.085506 -0.35266 0.17182 -0.057699 -0.13053 -0.49471 0.012342 -0.033037 
0.094055 -0.32306 0.059693 -0.084169 -0.13086 -0.16243 0.16031 0.014808 
-0.0027845 -0.57166 -0.0036066 -0.057205 -0.072332 0.12875 0.3022 0.050157 
-0.098802 -0.90262 -0.004593 0.027139 0.0016547 0.16541 0.2805 0.08715 
-0.070359 -0.83669 -0.033694 0.057062 0.025166 -0.083018 0.11888 0.029605 
0.018754 0.066763 -0.092554 0.067256 0.029112 -0.43371 -0.064111 0.019083 
0.18218 1.9154 -0.23855 0.1179 0.031742 -0.55225 -0.194 -0.031228 
0.19369 2.182 -0.26206 0.074654 0.0069159 -0.42335 -0.29626 -0.02498 
-0.062631 0.78131 -0.16868 0.02533 -0.0027845 -0.15026 -0.22326 0.0090533 
-0.20616 -0.60503 -0.096336 -0.027775 -0.012156 0.0786 -0.078744 0.083697 
-0.14204 -1.0279 -0.06707 -0.021692 0.01563 0.16064 -0.0036066 0.056569 
-0.053424 -0.72029 -0.099789 -0.037311 0.023851 0.20191 0.004943 0.033551 
0.022535 -0.29626 -0.075784 -0.042573 0.044073 0.29053 0.0227 -0.00015387 
0.028454 -0.078744 0.071531 -0.0016336 0.072024 0.39707 0.051801 0.0019835 
0.043251 0.021384 0.19813 0.0016547 0.084355 0.51643 0.12908 0.012506 
0.068571 0.050157 0.2394 0.0088889 0.13812 0.68068 0.3484 0.066763 
0.1003 0.042923 0.16623 0.031578 0.091096 0.64534 0.43538 0.091425 
0.099316 0.020069 0.183 0.0011614 0.043745 0.32917 0.29168 0.078107 
0.070215 0.03092 0.24614 -0.028762 0.033222 0.079916 0.08978 0.031742 
0.025166 0.069558 0.31305 0.00297 0.075805 0.0093821 0.0092177 0.040785 
-0.00081153 0.094877 0.38277 0.061666 0.082053 -0.042079 -0.055726 0.050321 
-0.02087 0.10524 0.16952 0.060022 0.043909 -0.10538 -0.1187 0.024344 
-0.0014692 0.13105 -0.17723 0.051801 0.031249 -0.17904 -0.19597 0.0026412 
0.023357 0.14042 -0.37452 0.01826 0.031578 -0.16654 -0.17936 -0.047998 
0.071202 0.12842 -0.4541 -0.057863 0.019576 -0.096994 -0.1113 -0.035174 
0.038483 0.16952 -0.22474 -0.065262 0.0064227 -0.041751 -0.065262 -0.023172 
0.0051074 0.11099 0.022535 -0.04323 0.020233 0.072024 0.035031 0.035524 
0.01004 0.11477 0.19829 0.046211 0.039963 0.078107 0.083533 0.039799 
-0.015773 0.095864 0.15456 0.057062 -0.0062372 -0.12133 0.13368 0.1008 
-0.042079 0.0082312 0.060679 0.057555 -0.047834 -0.29741 0.17265 0.068407 
-0.035667 -0.14928 0.042758 0.052623 -0.1187 -0.29561 0.059528 0.046868 
0.0070803 -0.23231 0.0087245 0.025166 -0.1182 -0.19219 -0.12609 -0.035667 
0.026974 -0.1598 0.063474 -0.021363 -0.069865 0.088136 -0.17805 -0.057534 
0.028125 0.041607 0.10655 0.020727 0.014643 0.52729 0.042923 -0.039613 
0.14206 0.27458 0.098988 0.07038 0.12266 0.81074 0.3267 0.061666 
0.24071 0.34939 0.099152 0.081067 0.24351 0.85529 0.45774 0.091589 
0.18596 0.2833 0.049006 0.11231 0.28297 0.54159 0.27902 0.094548 
0.032236 0.20125 0.0044497 0.12381 0.18218 0.032564 0.004943 0.057227 
-0.08532 0.070544 0.016616 0.10672 0.075476 -0.29561 -0.16868 0.027796 
-0.07825 -0.37337 0.11017 0.036839 0.01004 -0.39097 -0.17525 0.0031344 
-0.048985 -0.52792 0.18761 -0.010676 -0.024158 -0.34213 -0.14977 0.0092177 
-0.017417 -0.16144 0.12727 0.018589 -0.027775 -0.22704 -0.14599 0.0013258 
0.051472 0.28412 0.061501 -0.0021268 -0.084498 -0.19942 -0.091568 0.010697 
0.092247 0.38457 0.036017 0.011026 -0.083347 -0.18578 -0.16868 0.016781 
0.10162 0.21145 -0.012814 0.036182 -0.044217 -0.12692 -0.37107 -0.010676 
0.090931 -0.012814 0.023522 0.02533 -0.025802 -0.12889 -0.42451 -0.035996 
0.093891 -0.16802 0.093398 -0.0090322 -0.059507 -0.14287 -0.40527 -0.05441 
0.098494 -0.24793 0.10902 0.012177 -0.030735 -0.10275 -0.24957 -0.038956 
0.061995 -0.16934 0.093233 0.053281 0.016945 0.024673 0.11362 -0.037805 
0.0083956 -0.072003 0.033715 0.036182 0.045553 0.14026 0.53304 0.044896 
-0.045368 0.022042 -0.0039354 0.058706 0.046046 0.21128 0.91333 0.1003 
-0.080059 0.090931 -0.10176 0.10408 0.077449 0.27442 0.95756 0.159 
-0.076442 0.098988 -0.17361 0.13368 0.12151 0.18465 0.66276 0.1544 
-0.038627 0.077285 -0.12478 0.12053 0.11987 -0.025474 0.2736 0.13286 
0.031414 0.016945 0.11674 0.089287 0.074161 -0.2716 -0.11491 0.057555 
0.06035 -0.020048 0.34035 0.12644 -0.011498 -0.56196 -0.40724 0.016945 
0.051472 -0.021199 0.29661 0.11872 -0.038133 -0.5733 -0.53844 -0.015938 
0.06742 -0.14599 0.066105 0.12743 0.013986 -0.32388 -0.5248 -0.034352 
0.12184 -0.13415 -0.1912 0.089123 0.051801 0.083533 -0.35792 -0.065591 
0.13878 -0.093048 -0.26946 -0.02498 0.030756 0.53288 -0.084169 -0.025638 
0.12743 0.06035 -0.19219 -0.10143 0.030098 0.75895 0.086492 0.0052718 
0.09833 0.30664 -0.089102 -0.029255 0.099481 0.72721 0.0786 0.031414 
0.094713 0.59848 0.072681 0.097015 0.17922 0.51479 0.095535 0.025824 
0.11346 0.53748 0.28182 0.09685 0.12036 0.088958 0.047362 0.0090533 
0.10408 0.021549 0.15637 0.0080668 0.031249 -0.21406 0.0023123 0.013328 
-0.0027845 -0.075291 -0.14944 -0.05178 0.00033937 -0.22885 0.020562 0.036017 
-0.050464 0.1197 -0.14352 -0.06 0.00066819 -0.24234 0.060515 0.02829 
-0.031228 0.16212 0.16262 0.010204 -0.026789 -0.33194 0.043416 -0.015773 
0.0092177 0.044073 0.29563 0.038319 -0.066413 -0.36959 0.10096 0.012999 
-0.025638 -0.0503 0.14338 0.11526 -0.010841 -0.22096 0.23414 0.072353 
-0.05885 -0.061645 -0.026953 0.093891 0.046375 0.033058 0.29661 0.1299 
-0.077593 -0.053753 -0.15158 0.046704 0.097179 0.16574 0.27919 0.093398 
-0.029584 -0.043395 -0.15602 0.095699 0.0064227 0.16623 0.21769 0.065612 
0.012999 -0.038791 -0.072496 0.081231 -0.022514 0.046211 0.11231 0.026152 
0.040621 0.0054362 0.030756 0.054267 0.021878 -0.026953 -0.02646 0.041607 
0.042758 0.061501 0.073339 0.068078 0.12513 0.061008 -0.039942 0.041443 
0.047691 0.078272 0.078436 0.029934 0.13467 0.13056 0.0056006 0.07597 
0.040785 0.11362 0.026317 -0.039449 0.046375 -0.21027 0.016123 0.081889 
0.024837 0.16377 0.016616 -0.069865 -0.07414 -0.50244 -0.024158 0.083697 
0.012177 0.23627 0.007738 -0.082196 -0.13316 -0.70467 -0.16111 0.054103 
0.038812 0.24597 0.030098 -0.13645 -0.22573 -0.82189 -0.34033 -0.032708 
0.1345 0.15752 0.05065 -0.16966 -0.26437 -0.60766 -0.46018 -0.14106 
0.16771 0.048513 0.046375 -0.12757 -0.15224 0.049828 -0.2841 -0.15931 
0.1105 0.02681 0.062488 -0.023007 0.065612 0.8428 0.12612 -0.030735 
0.004943 0.048513 0.053116 0.11313 0.31963 1.6246 0.62462 0.12184 
-0.017746 -0.021528 0.048841 0.1659 0.43209 1.8311 0.69186 0.14963 
0.030756 -0.18857 0.0592 0.12069 0.3119 1.4725 0.56872 0.090931 
0.018096 -0.22047 0.039305 0.045389 0.20092 0.83852 0.3928 0.072681 
-0.028597 -0.038298 0.024344 0.026317 0.11115 -0.062467 0.10376 0.10047 
-0.060329 0.18185 0.022864 0.00066819 0.055747 -0.5396 -0.042901 0.11214 
-0.04882 0.25962 0.029112 0.012835 0.0046141 -0.60816 -0.075291 0.057555 
-0.025802 0.23907 0.012177 -0.0087034 -0.077593 -0.61621 -0.10834 0.032564 
-0.013307 0.14519 -0.016595 0.01415 -0.081539 -0.5465 -0.21882 0.014808 
0.021384 0.088958 -0.009361 0.05624 -0.035996 -0.35183 -0.28689 0.0070803 
-0.00031829 0.029934 -0.023994 0.046375 -0.017253 -0.22869 -0.25516 -0.0047575 
-0.0026201 -0.043724 0.004943 0.009711 -0.06444 -0.18857 -0.17854 0.014315 
0.0082312 -0.086307 0.055418 0.01152 -0.082525 -0.13744 -0.10998 -0.016595 
0.03092 -0.025145 0.10014 -0.017088 -0.048492 0.020891 -0.031392 -0.004593 
0.068736 0.076299 0.070544 -0.008539 -0.0032777 0.17824 0.029441 -0.015609 
0.1493 0.13927 -0.014787 0.013164 0.04095 0.27228 0.050321 -0.01117 
0.20964 0.01711 -0.084663 0.09685 0.10228 0.29497 0.062323 -0.0067304 
0.17824 -0.06855 -0.1016 0.085999 0.15571 0.16179 0.0087245 0.01563 
0.097672 -0.070359 -0.12544 0.074819 0.10967 0.054596 -0.10916 0.03947 
0.0052718 -0.076935 -0.039449 0.042594 0.097179 0.04654 -0.19729 0.045553 
-0.024652 -0.28886 0.055089 -0.027447 0.038648 0.021056 -0.29051 0.0054362 
-0.023829 -0.57412 0.087808 -0.078579 0.029441 0.057391 -0.24941 -0.025309 
0.086328 -0.72785 0.19747 -0.032543 0.029441 0.11658 -0.1016 -0.025802 
0.080244 -0.63446 0.1807 0.061666 0.050486 0.12497 0.15538 0.019576 
-0.064604 0.19073 0.1128 0.072188 0.043251 0.1853 0.3341 0.072681 
-0.086636 1.3296 0.084684 0.088301 0.049335 0.20208 0.35071 0.076627 
0.029112 1.6867 0.060022 0.076627 0.046704 0.21358 0.40019 0.078272 
0.13368 1.0125 0.049499 0.053116 0.027632 0.22789 0.40776 0.066105 
0.081067 0.091753 0.057391 0.015301 0.040785 0.2491 0.47517 0.10524 
0.052294 -0.4028 0.046046 -0.0075525 0.017767 0.10293 0.35794 0.060022 
0.033715 -0.44489 -0.012649 0.019083 0.011684 -0.11459 0.21358 0.051308 
0.038155 -0.34246 -0.084498 -0.028926 -0.025474 -0.25779 0.048677 0.033715 
0.049828 -0.22145 -0.097816 -0.01528 -0.01939 -0.25943 -0.19515 0.015301 
0.041443 -0.15174 -0.10242 0.067913 0.019905 -0.20041 -0.39294 -0.004593 
0.038319 -0.17838 -0.018075 0.085341 0.055582 -0.14961 -0.42056 0.017603 
0.034702 -0.61884 0.084684 0.069558 0.0324 -0.14336 -0.29906 0.014479 
0.073339 -1.2272 0.24548 0.0042853 -0.01939 -0.16457 -0.21323 0.0051074 
0.11461 -1.0483 0.33837 0.019905 -0.025145 -0.20847 -0.12527 -0.010512 
0.037168 0.14716 0.15966 0.057555 0.0032988 -0.12725 0.0082312 0.013492 
0.051308 1.8493 -0.030899 0.10803 0.033222 0.051308 0.14321 -0.0075525 
0.18777 2.2022 -0.070194 0.14026 0.013821 0.13088 0.23414 0.007738 
0.25502 1.3655 -0.047176 0.094384 0.019411 0.18448 0.23216 0.0016547 
0.11642 0.57694 -0.079566 0.038648 0.04654 0.055582 0.19632 0.041772 
-0.10669 -0.020377 -0.10521 0.0082312 0.01826 -0.18907 0.19813 0.091425 
-0.24793 -0.54716 -0.021692 -0.021692 -0.05178 -0.29429 0.17117 0.10655 
-0.17312 -0.78095 0.083862 -0.09091 -0.049149 -0.26404 0.097015 0.088301 
-0.019719 -0.5853 0.10573 -0.13004 -0.062467 -0.25878 -0.066577 0.015137 
0.1003 -0.29314 0.13549 -0.10521 -0.12429 -0.46249 -0.19466 -0.06296 
0.12727 -0.14221 0.13088 -0.11179 -0.22557 -0.70105 -0.21981 -0.078415 
0.15242 -0.086964 0.17922 -0.10127 -0.27423 -0.65436 -0.12659 -0.041422 
0.10113 0.12464 0.14601 0.07597 -0.028762 -0.13793 0.021549 0.030427 
0.037497 0.30648 0.093398 0.2491 0.22953 0.54274 0.12694 0.11148 
0.016452 0.28856 0.10803 0.24499 0.2833 0.76602 0.11658 0.080573 
0.039799 0.17347 0.15982 0.1008 0.18826 0.53123 0.039634 0.045882 
0.016123 0.0016547 0.19599 0.03799 0.13286 0.26784 0.0074092 0.015794 
0.0046141 -0.054575 0.11362 -0.022185 0.10063 0.077614 0.053774 0.044238 
-0.0044286 0.060022 -0.050464 -0.034845 0.072681 0.0085601 0.19106 0.04917 
0.013821 0.15144 -0.1187 -0.032215 -0.0087034 -0.0406 0.32012 0.050157 
0.00083261 0.15292 -0.12182 0.0013258 -0.042737 0.12332 0.39904 0.08567 
-0.022185 0.15456 -0.075949 0.010697 -0.04323 0.35893 0.41844 0.14058 
-0.022843 0.1664 -0.018404 0.04506 -0.013143 0.35761 0.27228 0.094055 
-0.0044286 0.13615 0.020727 0.10129 0.035688 0.037661 0.046211 0.062981 
0.048841 0.097508 0.017932 0.1105 0.018096 -0.28163 -0.21093 -0.023665 
0.010697 0.063803 -0.00081153 0.13171 0.094055 -0.26009 -0.32158 -0.014458 
0.020398 -0.018404 0.010204 0.16492 0.16738 0.00297 -0.35003 -0.039449 
0.015794 -0.097816 0.030592 0.11921 0.14354 0.13319 -0.31188 -0.013965 
0.029276 -0.13744 0.067256 0.026317 0.049828 0.17544 -0.20534 -0.045861 
0.041443 -0.19104 0.10737 -0.042573 0.05065 0.19155 -0.04471 0.00033937 
0.017603 -0.16128 0.072681 -0.010183 0.015794 0.0079024 0.053445 0.013164 
-0.036325 -0.12166 0.022206 -0.015444 -0.025967 -0.33506 -0.036489 0.016945 
-0.043888 0.084355 -0.10489 -0.047176 -0.027775 -0.42138 -0.10735 0.025659 
-0.003771 0.1516 -0.29692 -0.084334 -0.010512 -0.19104 -0.12511 0.010369 
0.022535 -0.0044286 -0.35644 -0.047176 0.031578 0.11017 -0.084005 0.013986 
0.035853 -0.17887 -0.22359 0.024015 0.043251 0.29069 -0.020377 -0.009361 
0.0054362 -0.041093 -0.0013048 0.062981 0.04917 0.341 -0.086471 0.0092177 
-0.014293 0.13516 0.16673 0.093233 0.0046141 0.34577 -0.19679 -0.016595 
0.061995 0.29398 0.31864 0.018754 0.017438 0.39263 -0.19153 -0.0013048 
0.1054 0.43291 0.29168 0.032564 0.039141 0.44656 -0.023007 0.0014903 
0.1465 0.15308 0.037332 0.11378 0.092576 0.50969 0.24384 0.038977 
0.12497 -0.30827 -0.037805 0.12398 0.081889 0.42091 0.45577 0.045882 
0.065118 -0.41152 0.019576 0.067913 0.067256 0.13335 0.53468 0.074654 
-0.0060728 -0.22145 0.11872 0.029276 0.0689 -0.14763 0.5503 0.077121 
-0.050629 -0.02087 0.24597 0.06742 0.080244 -0.23543 0.39625 0.092247 
-0.067564 0.049664 0.20388 0.024344 0.060022 -0.14813 0.17117 0.075148 
-0.033037 0.065612 0.084026 0.01004 0.053116 0.029934 0.075805 0.084026 
-0.028597 0.038812 0.011355 -0.0503 0.061501 0.15834 0.021384 0.069064 
-0.040271 -0.030406 -0.014951 -0.066577 0.059528 0.11658 -0.083676 0.05476 
-0.01676 -0.2185 -0.096994 -0.049642 0.049828 -0.037311 -0.26338 0.01711 
-0.017253 -0.35512 -0.20732 -0.034188 0.0075736 -0.17854 -0.40527 -0.017582 
-0.0090322 -0.36121 -0.17821 -0.0070593 -0.0088678 -0.16983 -0.43486 -0.034516 
-0.012814 -0.15651 -0.083347 0.031414 -0.0138 -0.050793 -0.33589 -0.038298 
0.024179 0.32029 -0.061316 0.13516 0.032236 0.015137 -0.19219 -0.01117 
0.12677 0.80926 -0.054082 0.19221 -0.0004827 -0.01939 -0.048327 -0.027611 
0.19172 0.75237 0.016781 0.10819 -0.028433 -0.062796 0.004943 -0.034845 
0.15916 0.35613 0.23479 -0.05589 -0.06444 -0.1205 0.040128 -0.052602 
0.09274 -0.024652 0.36254 -0.11837 -0.02646 -0.029584 0.13187 -0.0026201 
0.10228 -0.23428 0.33443 -0.038627 -0.0004827 0.059364 0.21737 0.015465 
0.096357 -0.23675 0.1613 -0.0095255 0.0018191 0.082053 0.29185 0.081724 
0.061666 -0.11985 -0.079895 0.02122 0.012835 0.098166 0.34183 0.08715 
0.027632 -0.039284 -0.15585 0.052294 0.073997 0.13499 0.34084 0.12299 
-0.012156 -0.023007 -0.19383 0.01974 0.077121 0.12891 0.27244 0.11115 
-0.038462 0.061501 -0.14254 -0.010676 0.00050378 0.03092 0.21326 0.092082 
-0.012485 0.095206 -0.014787 -0.016595 -0.016266 -0.047669 0.11494 0.059528 
0.064625 0.11428 0.079258 0.013164 -0.018075 -0.14023 0.027961 0.0082312 
0.097672 0.11 0.10228 0.01711 0.027468 -0.24414 -0.043888 -0.0059084 
0.071531 0.089616 0.12414 0.045718 -0.02087 -0.30596 -0.097651 0.021549 
0.01974 0.12743 0.07038 0.055582 -0.026131 -0.3058 -0.11985 0.02533 
-0.017417 0.17856 0.043745 0.054267 -0.024487 -0.30662 -0.099789 0.010204 
-0.035174 0.18991 0.069229 0.032071 0.01267 -0.1307 -0.017253 0.033551 
-0.047176 0.14519 0.10441 0.034044 0.013821 0.13253 0.13401 0.070215 
-0.025802 0.10606 0.10129 0.012506 -0.035667 0.23216 0.15407 0.053116 
0.051472 0.014315 0.071531 -0.024816 -0.026953 0.22723 0.011026 -0.010841 
0.10655 -0.090746 -0.0011404 -0.0138 0.018918 0.16212 -0.10932 -0.073811 
0.068736 -0.091897 -0.11623 0.084026 0.098659 0.088465 -0.066413 -0.0087034 
0.0079024 -0.036489 -0.19285 0.12332 0.10902 -0.076442 0.049828 0.075148 
0.007738 0.020562 -0.11968 0.14535 0.089945 -0.1644 0.094548 0.088794 
0.0080668 0.054267 -0.0082102 0.14519 0.074654 -0.2014 0.049828 0.070544 
0.0088889 0.13171 0.046868 0.12036 0.045389 -0.23033 -0.044874 0.03536 
-0.004593 0.17067 0.076463 0.047197 -0.046847 -0.25812 -0.15799 0.030098 
-0.027282 0.17758 0.11872 -0.0027845 -0.064604 -0.22211 -0.30037 -0.019884 
-0.011992 0.12102 0.18991 -0.011498 0.011355 0.051308 -0.22688 0.014972 
0.0034632 0.073997 0.32818 0.025988 0.15686 0.45067 -0.068057 0.022371 
0.012999 0.013657 0.58911 0.078107 0.18136 0.61377 0.075312 0.063145 
0.007738 -0.003771 0.56839 0.082875 0.077943 0.52005 0.20536 0.08008 
0.011848 0.026974 0.12546 0.077449 -0.0072237 0.27491 0.2759 0.10113 
0.033715 0.14601 -0.44802 -0.021528 0.012013 0.04506 0.17084 0.053116 
0.04358 0.20175 -0.75563 -0.0087034 0.033551 -0.15865 0.10869 0.00083261 
0.029276 0.21605 -0.68675 0.01004 0.023686 -0.13349 0.23463 0.02533 
0.019905 0.14026 -0.40215 0.016123 0.011191 -0.068879 0.26406 0.054596 
0.058871 0.06035 -0.12577 0.025988 -0.022185 -0.061151 0.13434 -0.012485 
0.077121 -0.0098543 0.045553 0.044567 -0.042737 -0.11113 -0.092719 -0.03057 
0.054925 -0.016431 0.19632 0.061501 -0.040106 -0.11508 -0.22129 -0.064933 
0.036839 -0.026953 0.32884 0.0087245 0.040128 0.088958 -0.19022 -0.0060728 
-0.028269 -0.052273 0.33985 0.027796 0.159 0.33854 0.0024767 0.0689 
-0.068057 -0.20501 0.23677 0.11263 0.20471 0.38392 0.044073 0.082546 
-0.095514 -0.34559 0.11247 0.069886 0.13121 0.26209 -0.0090322 0.07301 
-0.087786 -0.28755 0.093891 -0.00097594 0.0079024 0.10688 -0.037805 0.040621 
-0.068714 0.056898 0.01415 -0.04882 -0.031392 -0.047834 -0.061809 0.040128 
-0.0091966 0.50427 -0.13086 -0.077922 -0.016924 -0.11475 -0.082032 0.0016547 
0.049664 0.69992 -0.17591 -0.060658 0.036346 -0.070359 -0.10554 0.0095465 
0.048348 0.4362 -0.060658 -0.01939 0.11543 0.031742 -0.093376 0.0032988 
0.0062583 0.13927 0.062817 0.047526 0.071202 0.058049 -0.046683 0.038483 
0.051801 -0.023501 0.066105 0.089945 0.072681 0.042923 0.044567 0.032893 
0.16475 -0.063782 0.0060938 0.11888 0.071859 0.061501 0.17067 0.033222 
0.19944 -0.145 0.023357 0.12381 0.045882 0.055089 0.22082 0.03947 
0.11 -0.18512 0.16064 0.14453 0.01152 0.037332 0.20027 0.050979 
-0.0072237 -0.18643 0.30286 0.099645 0.0075736 -0.0016336 0.16755 0.046211 
-0.032379 -0.13004 0.52466 0.050157 -0.0075525 -0.0073881 0.10244 0.051143 
-0.040764 -0.086964 0.64583 0.025659 -0.0067304 0.0227 0.015959 0.013821 
-0.020706 -0.023336 0.36534 0.012342 0.023193 0.078272 -0.088115 -0.0064016 
-0.004593 0.0072447 -0.046519 0.013986 0.037168 0.1784 -0.066248 -0.0024557 
0.026317 0.023193 -0.25697 -0.032215 0.01826 0.15571 -0.014951 0.029605 
0.073504 0.058706 -0.26749 -0.097816 -0.032215 0.093069 0.10524 0.0069159 
0.069064 0.17067 -0.26223 -0.11837 -0.047505 0.069886 0.18021 0.038977 
0.03536 0.35778 -0.2083 -0.080552 -0.044546 -0.030735 0.22542 0.026152 
0.055254 0.1835 -0.07825 -0.022514 -0.041751 -0.10209 0.32456 0.06331 
0.031249 -0.2739 0.043251 -0.009361 -0.02235 -0.31533 0.37734 0.081231 
0.035195 -0.50046 0.11017 0.022535 -0.039778 -0.571 0.25929 0.12085 
0.079587 -0.57248 0.12151 0.04095 -0.07973 -0.67787 -0.11163 0.0047785 
0.11198 -0.3788 0.10047 0.077285 -0.0034422 -0.42187 -0.40001 -0.095185 
0.067749 -0.059343 0.11296 0.15357 0.13286 0.20619 -0.40099 -0.0868 
-0.023829 0.64353 0.16179 0.22904 0.23726 0.73889 -0.30004 -0.017911 
0.0092177 1.4058 0.14667 0.24515 0.32506 1.0606 -0.031886 0.062981 
0.085999 1.2436 0.098823 0.15456 0.26603 1.0084 0.23496 0.096357 
0.088136 0.41795 0.048184 -0.0029489 0.077943 0.61656 0.26653 0.097508 
0.070051 -0.2693 -0.034023 -0.06855 -0.039942 -0.028762 0.12053 0.028454 
0.077121 -0.49586 -0.050136 -0.086471 -0.074469 -0.49603 -0.008539 -0.0019624 
0.047526 -0.43453 -0.026789 -0.045203 -0.079072 -0.76583 -0.037311 -0.020541 
0.0041209 -0.35479 -0.031721 -0.018733 -0.069701 -0.81515 -0.038462 0.032729 
-0.037805 -0.78095 0.1008 -0.00081153 -0.078908 -0.67852 -0.072825 0.0047785 
-0.0042642 -1.2633 0.30368 -0.038791 -0.11212 -0.38028 -0.15306 0.012013 
0.037497 -1.066 0.29037 -0.023172 -0.068879 -0.10932 -0.17969 0.01974 
0.0011614 0.042265 0.19747 0.039141 -0.016102 0.14765 -0.13612 0.046211 
-0.014293 1.6746 0.069064 0.081231 0.014479 0.33509 -0.0059084 0.040456 
0.071531 1.8114 -0.028926 0.11395 0.041114 0.48618 0.088301 0.037497 
0.10852 0.99061 -0.095678 0.081724 0.051636 0.58483 0.19583 0.015465 
0.11888 0.34676 -0.15207 0.10935 0.11099 0.54077 0.2828 0.019411 
0.081231 -0.12889 -0.21175 0.098494 0.12349 0.17824 0.23858 -0.011334 
-0.0072237 -0.3326 -0.26305 0.081067 0.10014 -0.20781 0.11083 0.02829 
-0.073976 -0.32915 -0.27851 0.073504 0.069393 -0.24628 0.076299 0.07597 
-0.067235 -0.18331 -0.23576 0.04095 0.079916 -0.10965 0.087972 0.076299 
0.0026412 -0.1159 -0.12215 -0.021528 0.025988 -0.041915 -0.033201 0.079751 
0.020891 -0.027282 -0.029091 -0.089924 -0.036654 -0.038627 -0.072332 0.019247 
0.042594 -0.0095255 -0.062796 -0.10373 -0.071345 -0.030735 -0.098638 0.043416 
0.057227 -0.032872 -0.10143 -0.06707 -0.012485 0.11559 -0.032379 0.036182 
0.039305 -0.092226 -0.01939 -0.0067304 0.033387 0.28921 0.082217 0.062159 
0.055254 -0.0064016 0.095371 0.022864 0.088958 0.27902 0.081724 0.038319 
0.055254 0.18547 0.26192 -0.021692 0.060515 0.16393 0.004943 0.049335 
0.082875 0.30237 0.46695 -0.062631 0.021056 0.053938 -0.043066 0.012835 
0.063474 0.28412 0.42584 -0.018733 0.03947 0.053609 0.064461 0.0088889 
0.056569 0.0227 0.32226 0.037004 0.076463 0.027961 0.11855 0.00050378 
0.13351 -0.24349 0.15801 0.014315 0.076134 -0.19383 0.019576 0.0047785 
0.22427 -0.0019624 -0.058028 0.0036276 -0.01117 -0.55571 -0.034352 0.0047785 
0.17495 0.35366 -0.25319 0.021713 -0.10423 -0.68642 -0.072989 0.037826 
-0.022514 0.31947 -0.36351 0.016945 -0.098473 -0.61983 -0.19301 0.0021479 
-0.16358 -0.049149 -0.31369 0.046868 -0.043724 -0.25713 -0.25368 -0.028104 
-0.050136 -0.33474 -0.13859 0.0786 -0.025638 0.35958 -0.050629 -0.0029489 
0.058871 -0.29034 0.044896 0.090438 -0.034352 0.81205 0.2708 0.068407 
0.036346 -0.11491 0.033058 0.057391 0.010204 0.89294 0.42716 0.11609 
-0.053917 0.17232 -0.099131 0.050486 0.16541 0.93388 0.38737 0.092082 
-0.062631 0.53403 -0.17361 0.056404 0.19385 0.57743 0.080902 0.021713 
-0.0095255 0.47944 -0.054082 -0.012814 0.14469 -0.011827 -0.12659 -0.02942 
0.0421 0.26932 0.098988 -0.011334 0.099645 -0.31172 -0.086636 0.0065871 
0.063639 0.15703 0.13779 0.067091 0.10425 -0.26996 0.081231 0.073997 
0.084355 0.089123 0.20191 0.082053 0.10277 -0.057205 0.17067 0.10195 
0.11674 -0.25878 0.26981 0.004943 0.00083261 0.023851 0.090438 0.070215 
0.09833 -0.46692 0.19024 -0.043066 -0.043066 -0.1233 -0.075291 0.01826 
0.079751 -0.26996 0.013657 -0.00081153 -0.082854 -0.31961 -0.22178 -0.027282 
0.058377 0.0039565 -0.023007 -0.012156 -0.078908 -0.46758 -0.23181 -0.038298 
0.039634 0.078436 0.016452 -0.0032777 -0.047834 -0.5391 -0.15618 -0.043724 
0.054432 0.055418 0.06479 0.049664 0.0011614 -0.5682 -0.0011404 0.0079024 
0.040128 -0.023829 0.13762 0.097179 0.020891 -0.41908 0.12414 0.025988 
0.0052718 -0.039284 0.23956 0.068571 0.011848 -0.18101 0.22197 0.073504 
-0.0067304 -0.070194 0.35695 0.070051 -0.013965 0.00033937 0.29415 0.075805 
0.0039565 -0.10965 0.35235 0.067913 0.0014903 0.15259 0.17643 0.066927 
0.03799 -0.13152 0.33755 0.030427 0.0227 0.23644 -0.080717 0.029112 
0.058213 -0.075127 0.28626 0.0019835 -0.0075525 0.36386 -0.27144 0.0065871 
0.066434 0.0016547 0.10819 0.0016547 -0.016266 0.44524 -0.31287 -0.0064016 
0.056404 0.069064 -0.14993 0.0083956 -0.011827 0.47122 -0.36203 0.00033937 
0.060515 0.089945 -0.31287 0.04917 0.099316 0.5822 -0.21652 0.030756 
0.074161 0.092904 -0.33737 0.04506 0.12957 0.51479 -0.0019624 0.014479 
0.067091 0.071531 -0.22491 0.0098754 0.13795 0.22493 0.059035 0.010862 
0.021056 -0.13497 -0.14813 -0.0042642 0.12381 0.010697 0.13828 0.038812 
0.018425 -0.20912 0.016123 -0.0031133 0.071202 -0.2402 0.14387 0.033387 
0.021056 -0.088773 0.14058 0.07449 0.00099702 -0.4176 0.18563 0.017438 
0.014315 0.20816 0.183 0.069064 -0.025309 -0.44407 0.36485 0.0041209 
0.045389 0.38819 0.2029 0.075805 0.025495 -0.32471 0.47139 0.062159 
0.053445 0.29053 0.26801 0.054103 0.025001 -0.15437 0.45297 0.10622 
0.047033 0.057062 0.28346 0.04358 0.015465 -0.10209 0.32456 0.081067 
-0.01528 -0.0068948 0.16146 0.046868 -0.0054151 -0.01117 0.19961 0.10836 
-0.072496 0.050486 0.026152 0.029769 0.039141 0.1373 0.11839 0.1054 
-0.068057 0.049006 -0.059672 0.077121 0.019083 0.16163 -0.032543 0.095371 
0.012177 -0.061973 -0.091404 0.026481 0.014972 0.0062583 -0.25664 0.0095465 
0.068407 -0.10291 -0.13136 -0.017253 0.00017495 -0.2471 -0.44144 -0.054575 
0.040128 -0.14385 -0.16786 -0.0024557 -0.0034422 -0.32882 -0.38505 -0.043888 
1.0539e-005 -0.23428 -0.10702 0.051308 -0.013471 -0.12675 -0.24924 0.0098754 
0.023522 -0.26881 0.0083956 0.049828 0.017603 0.059857 -0.1838 -0.049971 
0.042758 -0.10587 0.093398 0.074326 0.027961 0.30187 -0.11508 -0.051944 
0.067585 0.17051 0.084519 0.12792 0.15538 0.706 0.025824 -0.031392 
0.17067 0.4778 -0.05178 0.12217 0.256 0.84198 0.11625 -0.0011404 
0.20191 0.54258 -0.075291 0.08863 0.26159 0.73067 0.27409 0.044567 
0.10984 0.40595 0.00297 0.042265 0.13582 0.37504 0.40233 0.10655 
-0.0082102 0.17577 0.049499 -0.029913 -0.022679 -0.085485 0.32489 0.11198 
-0.054082 0.026481 0.17215 -0.073482 -0.1039 -0.35792 0.16738 0.081067 
-0.035174 -0.021363 0.20898 -0.079566 -0.08121 -0.36647 0.071037 0.026646 
-0.017911 -0.00015387 0.080244 -0.040106 -0.065591 -0.2476 0.0786 0.040128 
-0.0080457 -0.021692 -0.084498 -0.031557 -0.047834 -0.10061 0.13269 0.040292 
-0.0075525 -0.045039 -0.11574 0.0088889 -0.033694 -0.080059 0.099645 0.040456 
0.0026412 -0.051287 -0.081868 0.021056 0.00050378 -0.089266 0.05772 0.030427 
0.015137 -0.0047575 -0.10324 0.022371 -0.0042642 -0.047998 0.01563 0.022206 
0.052459 0.054267 -0.088115 0.032236 0.00017495 -0.020377 0.020398 0.01711 
0.11724 0.16689 -0.062467 0.065612 0.0037921 -0.015444 -0.012978 -0.0138 
0.15193 0.29809 -0.051615 0.13812 0.022042 -0.01676 -0.044381 -0.022843 
0.11609 0.40447 -0.063782 0.073504 0.037661 -0.0011404 -0.071345 -0.027282 
0.029605 0.47829 -0.10965 0.054925 0.053116 0.06479 -0.085156 0.023686 
-0.020212 0.14141 -0.063946 0.038319 0.075805 0.09126 -0.024158 0.019905 
-0.015116 -0.21192 0.033222 -0.021199 0.071859 0.10819 -0.017417 0.038648 
0.02122 -0.23428 0.098166 -0.10752 0.043745 0.094384 0.018096 0.021713 
0.041936 -0.071838 0.22444 -0.1256 0.019247 0.075476 0.021056 0.031085 
0.048677 0.021713 0.23331 -0.029255 0.037332 0.11724 0.05476 0.024344 
0.043416 0.03092 0.12053 0.033058 0.048019 0.10507 0.09126 0.09422 
0.02122 0.042594 0.025495 0.073175 0.079094 0.10672 0.029112 0.022206 
0.024837 0.021384 0.077449 0.079094 0.046375 0.08567 0.00099702 0.029441 
0.0024767 0.05772 0.091425 0.14042 0.084519 0.032071 0.014643 0.041936 
-0.025145 0.062488 0.098166 0.19007 0.1174 0.018918 0.016945 0.064954 
-0.064111 0.084026 0.083697 0.20586 0.072188 -0.0029489 -0.045039 0.030427 
-0.029748 0.28905 0.018918 0.11642 0.0064227 -0.036325 -0.059836 0.01152 
0.053938 0.27688 -0.11442 -0.013307 -0.026624 -0.043724 -0.069865 0.013492 
0.14798 0.11609 -0.13875 -0.048492 -0.027447 -0.067235 -0.072332 -0.0060728 
0.15719 0.029934 -0.090253 -0.0016336 -0.025638 -0.04471 -0.052602 0.0054362 
0.082875 -0.029091 0.055418 -0.0096899 -0.042244 -0.070194 -0.066577 0.005765 
-0.0036066 -0.07266 0.11559 -0.04619 -0.034023 -0.07003 -0.041915 0.017932 
-0.042901 -0.14599 0.15703 -0.055726 -0.018568 -0.046683 -0.0054151 0.04358 
-0.02794 -0.16769 0.2292 -0.032215 -0.022514 -0.10949 0.029441 0.051636 
0.01152 -0.058521 0.23298 -0.10604 -0.046847 -0.15503 -0.0044286 0.0090533 
0.029605 0.11494 0.14585 -0.10867 -0.027447 -0.21537 -0.067728 -0.00097594 
0.033551 0.23068 -0.017746 -0.01676 0.0092177 -0.20008 -0.097816 -0.0091966 
0.0080668 0.20323 -0.059507 0.046211 0.049499 -0.060823 -0.028762 0.042923 
-0.019226 0.087314 0.047526 0.077614 0.029276 0.056898 0.054596 0.049006 
0.0090533 -0.033037 0.11494 0.034044 -0.0098543 0.0074092 0.012342 0.013657 
0.049335 -0.11787 0.13894 0.068407 0.013986 -0.19449 -0.065591 -0.027775 
0.077449 -0.1085 0.065612 0.078929 0.060679 -0.30103 -0.06 -0.0049219 
0.069064 0.031578 0.00017495 0.069229 0.070051 -0.24579 -0.026953 0.020562 
0.03799 0.18448 -0.028433 0.043416 0.062488 -0.20107 0.045389 0.032729 
0.041772 0.14502 -0.0026201 -0.029584 0.03651 0.052952 0.16722 0.039141 
0.059364 0.0069159 0.053609 -0.073976 -0.016924 0.36156 0.26521 0.097179 
0.064954 -0.12494 0.12299 -0.077922 -0.079237 0.50953 0.20405 0.059035 
0.069886 -0.1986 0.14272 -0.017582 -0.1039 0.52383 0.097508 -0.0044286 
0.026974 -0.15651 0.11378 0.012342 0.020727 0.67707 0.096028 0.017274 
0.0080668 -0.034516 -0.043395 0.087314 0.22065 0.82948 0.10408 0.067585 
-0.0088678 -0.073976 -0.10094 0.13927 0.24943 0.19632 -0.11755 0.03947 
0.00083261 -0.35101 -0.057205 0.15341 0.13006 -0.59796 -0.27851 0.0067515 
-0.033859 -0.43914 0.030427 0.14568 0.013821 -0.92975 -0.25894 0.03536 
-0.077922 -0.36055 0.17445 0.098823 -0.094034 -0.85494 -0.1256 0.016945 
-0.11327 0.19122 0.20125 0.079587 -0.16325 -0.6172 0.035688 0.01974 
-0.030242 0.91876 0.12053 0.0689 -0.1039 -0.16917 0.14716 -0.025967 
0.094384 1.2354 -0.043559 0.12628 -0.018075 0.24762 0.23331 -0.0091966 
0.19122 0.77391 -0.16473 0.15735 0.086985 0.60407 0.3295 0.043087 
0.13434 -0.19827 -0.13053 0.054596 0.14897 0.76618 0.366 0.11395 
0.017438 -1.2101 -0.068879 -0.081539 0.18251 0.79249 0.34643 0.11921 
0.01415 -1.3964 -0.029584 -0.16013 0.19172 0.61689 0.35794 0.17708 
0.010533 -0.80627 -0.055726 -0.16177 0.14256 0.45807 0.26061 0.066269 
0.014315 0.75155 -0.16917 -0.098802 0.1493 0.16656 0.15867 0.046211 
0.10392 1.5162 -0.26996 0.017274 0.1026 -0.076277 0.012013 0.031085 
0.10885 0.61985 -0.16292 0.072024 0.016123 -0.23132 -0.13481 0.012835 
0.10343 -0.26437 0.14963 0.044402 -0.054739 -0.24743 -0.17706 -0.023665 
0.065283 -0.17164 0.3461 0.049006 -0.057534 -0.15898 -0.14961 0.0039565 
-0.033201 0.47402 0.2759 0.047362 -0.039942 -0.033037 -0.050958 0.033222 
-0.094856 0.80909 0.11526 0.086657 -0.013471 0.014808 0.00033937 0.038483 
-0.080717 0.46941 -0.082032 0.13779 0.023851 0.063803 0.035853 0.03536 
-0.024323 -0.0026201 -0.1672 0.11411 0.043909 0.10836 0.024344 0.0036276 
0.053281 -0.30284 0.012342 0.021878 0.054267 0.12743 0.055747 0.0044497 
0.068242 -0.36976 0.31503 -0.079401 0.051143 0.094713 0.069229 0.016288 
0.079094 -0.35381 0.49983 -0.042737 0.014643 0.12184 0.10425 0.042265 
0.063145 -0.30235 0.38293 0.026317 0.024508 0.21128 0.10474 0.040456 
0.092082 -0.19334 0.13697 -0.016102 0.037004 0.23101 0.11066 0.038155 
0.14387 0.2366 -0.15536 -0.073811 0.029934 0.11822 0.094713 0.02122 
0.091096 0.61163 -0.303 -0.01676 -0.0095255 -0.039449 0.046375 0.027961 
-0.11557 0.50394 -0.20584 0.060515 -0.015773 -0.10932 0.080573 0.052952 
-0.21751 -0.053917 -0.1062 0.09274 0.0324 -0.054739 0.15851 0.1225 
-0.10505 -0.31912 -0.062631 0.11674 0.063639 -0.02646 0.14979 0.10178 
0.026152 -0.15224 -0.053917 0.11231 0.066269 -0.066413 0.092904 0.037826 
0.086821 0.15834 -0.0062372 0.072353 0.043745 -0.043888 0.057062 -0.015938 
0.092411 0.27672 0.11083 0.068736 0.049828 -0.09239 -0.015773 -0.037969 
0.08419 0.26242 0.15587 0.071202 0.10984 -0.0013048 -0.13382 -0.059507 
0.058542 0.20553 0.13253 0.1396 0.18925 0.16969 -0.095349 -0.0013048 
0.0026412 0.22 0.084355 0.10787 0.15275 0.34216 0.076299 0.075148 
-0.031886 0.15982 0.068078 0.047362 0.051636 0.31585 0.19895 0.14798 
-0.044381 0.10047 0.083368 -0.040271 -0.0032777 0.14223 0.19517 0.13088 
-0.015773 0.057555 0.064132 -0.13481 -0.059836 -0.067728 0.082217 0.097015 
0.0069159 0.021878 0.085835 -0.13793 -0.13481 -0.30794 -0.064933 0.016288 
0.03388 -0.0060728 0.093891 -0.064111 -0.13826 -0.45739 -0.25697 -0.037311 
0.051308 -0.021856 0.092904 0.01004 -0.10554 -0.43865 -0.33342 -0.061645 
0.030098 -0.043395 0.063968 0.022371 -0.034023 -0.28377 -0.2328 -0.014129 
-0.011334 -0.040271 0.034702 0.042923 0.028125 -0.06444 -0.11903 0.038483 
0.018589 -0.056548 0.011191 0.047033 0.0088889 -0.035338 -0.089924 0.022042 
0.03651 -0.089759 0.009711 0.02122 -0.023007 -0.16144 -0.109 0.010533 
0.031249 -0.02087 -0.076277 0.020891 -0.037476 -0.26733 -0.072332 0.0018191 
-0.0098543 0.073339 -0.15437 0.020069 0.020069 -0.17098 0.04358 0.049335 
-0.036983 0.032729 -0.15766 0.06331 0.035853 -0.017582 0.1322 0.051636 
-0.0062372 -0.076771 -0.097487 0.026974 0.038155 0.082217 0.14881 0.043909 
0.027139 -0.17164 0.049992 -0.030735 0.055747 0.07301 0.09981 0.0098754 
0.051965 -0.18101 0.1003 0.021878 -0.0011404 0.0060938 0.083533 -0.00064712 
0.065447 -0.016431 0.11888 0.020398 0.0062583 0.012506 0.092904 -0.057534 
0.052459 0.12579 0.072353 0.088136 0.051143 0.033551 0.076299 0.021384 
0.052623 0.19155 0.053938 0.10672 0.06742 -0.052109 -0.075455 0.0026412 
0.04917 0.12661 0.24597 0.11905 0.057062 -0.11064 -0.25697 0.0016547 
0.048677 -0.1062 0.5508 0.051308 0.048677 -0.088608 -0.20699 -0.011334 
0.050486 -0.28377 0.55754 0.053116 0.058871 0.011848 -0.047998 0.055254 
0.015959 -0.22293 0.15489 0.076627 0.053281 0.00066819 0.02681 0.058706 
-0.037969 0.10178 -0.34246 0.049828 0.060679 -0.043395 0.047526 0.070051 
-0.05178 0.18909 -0.45739 0.019083 0.050814 -0.025967 0.054267 0.075476 
-0.026624 -0.096007 -0.27325 -0.018239 0.0039565 -0.04619 0.011848 0.029441 
0.041278 -0.26108 -0.11639 -0.010019 -0.021692 -0.075291 -0.029255 -0.021856 
0.082382 -0.16917 -0.15503 -0.038298 -0.040435 -0.16555 -0.0060728 -0.023994 
0.075805 0.029934 -0.15964 -0.057699 -0.036983 -0.2185 0.073175 -0.0042642 
0.048513 0.10129 0.12513 -0.073318 -0.027282 -0.071181 0.17166 0.056733 
0.036017 0.098001 0.37076 -0.086471 0.0421 0.23446 0.18218 0.060186 
0.057555 0.049006 0.33673 -0.03057 0.067256 0.27557 0.018096 -0.0064016 
0.065776 0.046211 0.1613 0.063968 0.034702 0.1299 -0.21077 -0.052273 
0.073339 0.04654 -0.031228 0.070215 -0.0019624 0.047197 -0.18923 -0.033859 
0.054596 0.030756 -0.065755 0.038977 0.013492 0.20092 -0.0029489 0.026974 
0.045389 0.074983 -0.085156 0.0039565 0.0060938 0.3022 0.1932 0.041114 
0.038812 0.16294 -0.14319 0.073832 0.044567 0.30451 0.32243 0.082546 
0.025988 0.14009 -0.18463 0.15637 0.10244 0.33015 0.40989 0.071531 
0.018918 0.08978 -0.17493 0.14946 0.089945 0.18876 0.37701 0.074983 
0.036017 0.059528 -0.1016 0.092904 0.06479 -0.03912 0.21095 0.038319 
0.040292 0.063145 0.017603 0.057555 0.047033 -0.2037 -0.00081153 0.030756 
0.032071 -0.033859 0.15127 0.022535 0.018096 -0.25763 -0.33342 0.012013 
0.017274 -0.18874 0.18415 -0.03616 0.012177 -0.2106 -0.54453 0.0060938 
-0.0072237 -0.31336 0.1659 -0.033694 0.0082312 -0.046025 -0.42138 -0.0067304 
-0.013636 -0.37485 0.18744 -0.049149 0.037826 0.2366 -0.12429 0.056076 
0.050157 -0.21718 0.26291 -0.036489 0.03651 0.42453 0.1465 0.045389 
0.16377 0.43669 0.32522 -0.027282 0.023357 0.31338 0.19632 0.017767 
0.20208 1.1139 0.22082 -0.0062372 0.0019835 0.15324 0.21852 -0.015116 
0.15703 1.0937 -0.0095255 0.025166 0.03092 0.045389 0.28379 -0.015444 
0.065776 0.48898 -0.10719 0.073832 0.041772 0.038812 0.32292 0.0227 
0.013492 -0.11261 -0.06707 0.10819 0.051965 0.098823 0.27491 0.049006 
0.0087245 -0.35299 0.0075736 0.04506 0.062817 0.1932 0.19665 0.049664 
0.0034632 -0.28508 0.025166 0.010204 0.057391 0.24532 0.1299 0.051472 
-0.023994 -0.16572 0.013492 0.012999 0.039141 0.14174 0.077285 0.057555 
-0.023172 -0.095185 -0.024323 -0.0096899 -0.017088 -0.066741 0.159 0.032564 
-0.015609 0.00066819 -0.056055 -0.021692 -0.037311 -0.11212 0.23545 0.060022 
0.024344 0.03799 -0.069208 -0.031064 -0.035503 -0.042079 0.27869 0.061008 
-0.0004827 0.054925 -0.046519 0.056569 0.007738 0.0067515 0.067091 0.058049 
-0.0087034 0.098988 -0.060823 0.099152 0.044073 0.069722 -0.17591 0.049335 
-0.024158 0.1271 -0.059836 0.13499 0.075476 0.081889 -0.23148 0.062817 
0.015465 0.14272 -0.023007 0.12957 0.045718 -0.018568 -0.28097 0.01974 
0.053938 0.12628 0.015465 0.06331 0.0054362 -0.1718 -0.26502 -0.0067304 
0.088465 0.080409 0.062817 -0.017746 -0.013307 -0.14928 -0.13316 -0.019061 
0.064132 0.099974 0.048019 -0.0016336 0.0065871 -0.22655 0.021384 -0.00064712 
0.055418 0.14321 -0.024816 0.03799 -0.010019 -0.32273 0.10195 0.013821 
0.064625 0.13088 -0.12511 0.021713 0.033551 -0.10439 0.26011 0.043745 
0.063968 0.09833 -0.10867 0.038319 0.029276 0.26702 0.37734 0.053609 
0.063803 0.059693 0.0016547 0.058542 0.01563 0.46251 0.43143 0.072353 
0.026974 0.071366 0.023357 0.087643 0.051472 0.47155 0.37224 0.10754 
0.0070803 0.081889 -0.0042642 0.089452 0.09274 0.27705 0.11378 0.077778 
0.025001 -0.067892 0.011355 0.047197 0.097344 0.19007 -0.1746 0.01974 
0.026152 -0.22655 0.064132 0.044896 0.12398 0.28067 -0.28804 -0.02794 
-0.02235 -0.11113 0.097015 0.064625 0.14502 0.2052 -0.20748 -0.0021268 
-0.03205 0.09981 0.050979 0.11329 0.0786 -0.080552 -0.043066 0.060844 
0.077121 0.27869 0.092576 0.1368 0.0079024 -0.068221 0.065612 0.055254 
0.17922 0.23611 0.22444 0.089452 -0.020048 0.049828 0.038319 -0.00015387 
0.1419 0.089452 0.25387 0.028783 -0.025638 -0.17295 -0.10867 -0.034516 
0.042923 0.19484 0.14815 0.017767 0.0227 -0.22589 -0.11919 -0.016431 
-0.023501 0.33854 0.038155 0.030592 0.051143 -0.15092 -0.052766 0.028619 
0.0080668 0.22263 -0.069208 0.00083261 0.059364 -0.059343 0.028783 0.040785 
0.039634 -0.008539 -0.23757 1.0539e-005 0.076299 -0.015773 0.099974 0.077121 
0.062817 -0.12462 -0.31583 0.0324 0.060022 -0.025638 0.066434 0.048841 
0.038319 -0.1427 -0.28985 0.028454 0.020727 -0.067892 0.047691 0.035853 
0.044238 -0.09239 -0.23066 0.0042853 -0.010183 -0.12741 0.038319 -0.00081153 
0.025001 -0.062467 -0.10258 0.015465 0.0037921 -0.15158 -0.027447 -0.014129 
0.030592 -0.022843 0.016452 0.0689 0.049335 -0.12971 -0.10291 -0.018404 
0.087643 -0.032708 0.11921 0.061666 0.047033 0.015301 -0.053753 -0.020212 
0.1031 -0.035996 0.17314 0.053938 0.073832 0.19517 0.091096 0.020069 
0.07301 -0.029091 0.12612 0.047855 0.055911 0.24104 0.13845 0.063968 
0.015137 0.015137 0.20438 -0.024158 0.035853 0.10967 0.01152 0.044896 
-0.010183 0.028619 0.36863 -0.015444 1.0539e-005 0.00017495 -0.098144 0.031249 
0.0044497 -0.0016336 0.65701 0.014972 -0.010676 -0.057205 -0.10505 0.033551 
0.02533 0.0019835 0.94852 0.07301 -0.0072237 -0.054904 -0.085156 0.033222 
0.0421 -0.016102 0.79577 0.033551 -0.0057439 -0.094527 -0.13053 0.021384 
0.057227 -0.042573 0.30993 -0.0078813 -0.024158 -0.12889 -0.14846 0.0060938 
0.11592 -0.038791 -0.25121 0.0042853 -0.026624 -0.093705 -0.099131 0.027961 
0.12266 0.021549 -0.63068 -0.064111 -0.033037 0.11526 -0.07003 -0.0080457 
0.12233 0.092082 -0.71206 -0.051287 -0.030406 0.095206 -0.036818 -0.032708 
0.095864 0.060844 -0.46775 0.032236 0.011684 0.090109 0.041114 -0.025145 
-0.0052507 0.061008 -0.1672 0.10704 0.10935 0.22115 0.14338 0.021549 
-0.012978 0.17084 0.082053 0.15407 0.1442 0.16245 0.11724 0.051472 
-0.023829 0.23594 0.19632 0.14174 0.12612 -0.022185 0.099152 0.071531 
-0.001798 0.20339 0.24137 0.11181 0.085506 -0.085485 0.08156 0.050321 
0.011191 0.12233 0.20651 -0.019719 0.022042 -0.047341 0.073504 0.069229 
0.031578 0.0054362 0.18695 -0.10357 -0.0868 -0.090581 0.079094 0.033387 
0.044731 -0.052437 0.1516 -0.14977 -0.12379 -0.048985 0.04654 0.040621 
0.057227 -0.089924 0.14108 -0.10061 -0.047669 0.11707 0.038483 0.013986 
0.038155 -0.10916 0.13401 -0.046519 0.029934 0.19172 -0.020706 0.01711 
0.025001 -0.15503 0.1271 -0.021199 -0.028597 -0.030406 -0.074798 0.01415 
0.047526 -0.17427 0.085835 0.0085601 -0.11623 -0.33819 -0.14961 -0.0083746 
0.040292 -0.12642 0.060679 -0.009361 -0.090417 -0.39721 -0.052109 0.018754 
0.017603 -0.10719 0.046375 0.026481 0.00083261 -0.17328 0.028619 0.04095 
0.0013258 -0.34509 0.075805 0.058542 0.041443 -0.071838 0.013164 0.01004 
0.05624 -0.43322 0.04654 0.025659 0.0092177 -0.20025 -0.046519 -0.031721 
0.042923 -0.20337 0.027139 0.036675 0.034209 -0.10521 -0.0026201 -0.025474 
-0.059014 0.34528 0.023193 0.083204 0.096028 0.21506 0.19468 0.057884 
-0.089924 0.89492 0.027961 0.15555 0.10606 0.29711 0.22624 0.10491 
-0.050136 0.93421 0.0090533 0.090274 0.12595 0.25156 0.15703 0.10622 
0.0019835 0.29135 -0.041751 0.038977 0.17922 0.30533 0.055418 0.091096 
-0.0004827 -0.14681 -0.040271 0.0054362 0.12233 0.2491 0.04095 0.069558 
0.0042853 -0.021034 -0.034188 -0.006566 0.004943 0.12036 0.098823 0.047855 
0.062981 0.44064 -0.088608 -0.030406 -0.096994 -0.068057 0.10425 0.023686 
0.10672 0.31437 -0.026953 -0.072332 -0.14911 -0.23773 0.089452 -0.0095255 
0.15028 -0.24382 0.014643 -0.080717 -0.10949 -0.24464 0.039634 -0.0044286 
0.10441 -0.54584 0.071531 -0.057041 -0.048163 -0.14402 0.039799 0.039963 
0.036839 -0.39656 0.023193 0.030756 -0.017746 -0.058028 0.040621 0.010862 
-0.040106 -0.084663 -0.19663 0.08567 0.025495 0.0014903 0.033715 0.033715 
-0.10472 0.44064 -0.39458 0.13171 0.049828 0.040128 0.04917 0.036839 
-0.081703 0.53633 -0.38981 0.17692 0.11296 0.086821 0.086328 0.082875 
-0.043066 0.069064 -0.13563 0.18136 0.12677 0.11313 0.11329 0.059364 
-0.0039354 -0.27949 0.068242 0.12875 0.12266 0.12102 0.090274 0.065283 
-0.0088678 -0.43799 0.11313 -0.0073881 0.097344 0.14486 0.068571 0.042923 
0.0044497 -0.98269 0.26028 -0.094692 0.073832 0.099645 0.017932 0.036182 
0.06479 -1.3842 0.46464 -0.12922 0.041772 -0.015609 -0.031721 -0.008539 
0.052952 -0.86859 0.38951 -0.10637 -0.053917 -0.088444 -0.06296 -0.0064016 
-0.011498 0.78871 0.011026 -0.11311 -0.024652 -0.059507 -0.036489 0.042429 
0.054103 2.8128 -0.17706 -0.091075 0.029605 -0.018897 -0.0068948 0.033715 
0.095864 2.6435 -0.013307 -0.097158 0.030592 0.047855 0.081231 0.068078 
0.074819 0.91728 0.024673 -0.064933 0.030592 0.046704 0.13647 0.051472 
0.077449 -0.35627 -0.011663 0.044073 0.071531 0.1396 0.16969 0.053609 
0.019411 -0.74002 -0.16243 0.12102 0.11263 0.17643 0.16212 0.056076 
-0.023994 -0.61227 -0.28508 0.13499 0.090603 0.18169 0.16278 0.084519 
-0.044381 -0.39195 -0.21225 0.1373 0.031578 0.1761 0.12201 0.040621 
-0.037805 -0.24447 -0.079895 0.068078 0.034702 0.23052 0.073668 0.04917 
0.016123 -0.13925 0.054103 0.074326 0.075805 0.23496 -0.006566 0.0070803 
0.040128 -0.069043 0.088465 0.047691 0.077285 0.05624 -0.075949 -0.0082102 
0.077943 0.00066819 0.098823 0.059693 0.082875 -0.055561 -0.09946 -0.0068948 
0.06594 0.03092 0.15324 0.084026 0.068078 -0.070852 -0.047505 0.011026 
0.077121 0.017932 0.14141 0.030427 0.035688 -0.074304 0.014972 0.0034632 
0.052459 0.053116 0.13351 -0.025967 -0.02646 -0.10324 0.012999 0.025659 
0.045224 0.1128 0.094877 -0.039449 -0.018239 -0.10308 0.048677 0.030756 
-0.0054151 0.13697 0.065776 -0.0083746 0.0011614 -0.067728 0.040456 0.062981 
-0.042573 0.17593 0.068407 0.0023123 -0.0082102 -0.022679 0.014972 0.044896 
-0.045532 0.1248 0.042923 -0.018404 -0.013965 -0.043724 -0.00081153 0.023357 
-0.01939 0.026481 0.072846 -0.025802 -0.012485 -0.016102 0.0026412 0.016452 
0.0032988 -0.19498 0.088465 -0.045532 -0.041751 0.050979 0.026152 0.015794 
0.06594 -0.30514 0.096028 -0.031392 -0.06707 0.078272 0.0090533 0.0041209 
0.17955 -0.032872 0.088136 -0.0022913 -0.01232 0.025495 -0.010676 -0.043395 
0.21983 0.64418 0.013821 0.045389 0.11461 -0.013965 -0.0034422 -0.072496 
0.14848 0.98288 -0.031557 0.069393 0.10228 -0.058356 -0.019061 -0.012156 
-0.12231 0.61393 0.0069159 0.1248 0.067091 -0.047341 0.027796 0.056569 
-0.20468 -0.15224 0.099481 0.16459 0.063803 0.044896 0.097344 0.083533 
-0.063453 -0.51477 0.14881 0.10096 0.07301 0.1442 0.11559 0.080244 
0.025659 -0.37617 0.080902 0.07449 0.053116 0.2218 0.033387 0.038812 
0.065447 -0.15158 0.032729 0.05624 -0.017746 0.19237 -0.047998 0.051801 
0.049992 -0.017911 0.018096 0.02681 -0.088115 0.056898 -0.087458 0.036182 
0.027468 0.037168 0.047033 -0.0088678 -0.075455 -0.001798 -0.070194 0.032236 
0.030427 -0.0029489 0.062652 0.012506 0.0069159 0.012177 -0.045532 0.0014903 
0.046211 -0.052602 0.045389 0.058706 0.039799 0.020891 0.074983 0.0014903 
0.061337 -0.11163 0.047033 0.03947 0.037332 -0.012978 0.22016 0.02681 
0.047197 -0.11968 0.05065 0.00050378 -0.032708 -0.13152 0.29004 0.066763 
0.013492 -0.077757 -0.015773 -0.014622 -0.055068 -0.15816 0.33755 0.063968 
-0.040271 0.15818 -0.13267 0.048019 0.067585 -0.004593 0.30746 0.094713 
-0.028762 0.32095 -0.19515 0.086328 0.147 0.08863 0.08419 0.046868 
0.01826 0.2486 -0.18117 0.07597 0.080573 0.014643 -0.1016 0.013328 
0.028125 0.13943 -0.15158 0.091096 0.047526 0.091753 -0.1866 -0.015938 
-0.065262 0.15374 -0.10028 0.10392 0.11181 0.39822 -0.0965 0.07301 
-0.070523 0.086492 -0.10982 0.15357 0.20109 0.52301 -0.09946 0.049992 
0.06331 -0.089595 -0.091897 0.17577 0.14239 0.24038 -0.23083 -0.015773 
0.18383 -0.29478 -0.038791 0.094877 0.035688 -0.10291 -0.30004 -0.068714 
0.14239 -0.23428 0.0592 0.045224 -0.014787 -0.33622 -0.18561 -0.059178 
0.05065 -0.12281 0.11329 -0.00064712 -0.05441 -0.56064 -0.10965 -0.0050863 
-0.012814 -0.026953 0.22657 0.044238 -0.060494 -0.55094 -0.14237 -0.0029489 
-0.047505 -0.060658 0.44623 -0.0057439 -0.045861 -0.29709 -0.10341 0.011026 
-0.022021 -0.10242 0.67526 -0.018404 -0.0073881 0.0034632 0.025495 0.028454 
-0.015609 -0.11985 0.61722 -0.008539 -0.0027845 0.22263 0.14667 0.058871 
-0.0057439 -0.12116 0.25091 -0.015444 -0.0044286 0.32078 0.2657 0.054103 
-0.041257 -0.17805 -0.052109 -0.012156 0.060022 0.41466 0.38014 0.090274 
-0.059507 -0.19104 -0.23461 0.0041209 0.090274 0.56691 0.35482 0.085012 
-0.047669 -0.053588 -0.28459 0.024837 0.10688 0.63958 0.26735 0.095864 
0.043909 0.26373 -0.26946 0.020562 0.081231 0.56806 0.22559 0.095699 
0.15374 0.54652 -0.31024 0.048019 0.05065 0.25469 0.15324 0.087479 
0.19796 0.56773 -0.30169 0.073668 0.019083 -0.25598 0.027632 0.06594 
0.11888 0.43308 -0.21044 0.064132 0.0034632 -0.61983 -0.15717 0.053445 
0.027468 0.15966 -0.068879 0.056404 -0.040106 -0.75251 -0.29429 0.030263 
-0.0083746 -0.093376 0.086328 0.051965 -0.029091 -0.55538 -0.22244 -0.013143 
0.029441 -0.24661 0.21852 0.04358 -0.0013048 -0.23855 -0.046025 -0.071509 
0.019905 -0.22902 0.37619 -0.010841 0.04506 0.012999 0.1664 -0.067892 
-0.01939 -0.1575 0.39099 -0.051615 0.060515 0.50591 0.39608 0.010697 
-0.04323 -0.064768 0.2297 -0.022514 0.018425 0.69548 0.52055 0.11477 
-0.054082 -0.0059084 0.081067 0.0069159 -0.038627 0.41466 0.4579 0.14617 
-0.022021 0.022042 0.016452 0.02829 -0.045696 -0.026789 0.19764 0.1054 
0.034537 0.04358 0.016452 0.03388 -0.041093 -0.37814 -0.13596 0.019411 
0.095371 0.034044 0.048841 0.02681 -0.13152 -0.56738 -0.39425 -0.073318 
0.14239 -0.003771 0.10474 0.017932 -0.10669 -0.5396 -0.47284 -0.12445 
0.12546 1.0539e-005 0.25107 0.055089 0.036346 -0.015116 -0.36976 -0.10932 
0.10408 0.058871 0.34676 0.14371 0.29859 0.56477 -0.21652 -0.018897 
0.061337 0.18366 0.2948 0.19895 0.51019 0.90429 -0.07825 0.067256 
0.021384 0.25913 0.10244 0.17495 0.48224 0.81386 0.018589 0.12464 
0.021878 0.21885 -0.022679 0.056569 0.27343 0.53863 0.15916 0.10984 
0.086492 0.11 -0.083183 -0.049642 0.02681 0.28905 0.2731 0.064461 
0.11313 0.026317 -0.13991 -0.12445 -0.12116 -0.011334 0.27162 0.01563 
0.080573 -0.12182 -0.16966 -0.15174 -0.17789 -0.23116 0.22164 0.01826 
0.037168 -0.23642 -0.13941 -0.1182 -0.1552 -0.29281 0.13319 -0.003771 
0.019247 -0.085978 -0.1718 -0.10439 -0.13464 -0.29297 -0.015609 0.044402 
-0.011005 0.14519 -0.12741 -0.068714 -0.080881 -0.2499 -0.026624 0.03536 
-0.036489 0.21391 0.034209 0.015959 -0.046683 -0.20025 -0.059507 0.017438 
-0.0078813 0.21013 0.23003 0.064461 -0.00081153 -0.1404 -0.047669 0.0046141 
0.04358 0.13499 0.32095 0.15045 0.028783 -0.10225 -0.027447 -0.0027845 
0.042429 0.11642 0.2828 0.13713 0.035195 -0.17871 -0.081703 -0.021692 
0.02681 0.037332 0.24597 0.084684 -0.0091966 -0.15421 -0.073647 0.0042853 
0.022535 0.10441 0.21901 -0.020212 -0.022843 -0.11376 -0.030735 0.0069159 
0.028947 0.21243 0.11 -0.010183 -0.0027845 -0.0064016 0.051636 0.033058 
0.0062583 0.19583 -0.067728 0.044402 0.069886 0.11822 0.097015 0.027468 
0.039141 0.033551 -0.28952 0.046211 0.073668 0.18843 0.053281 0.02681 
0.066434 -0.19548 -0.35003 0.031249 0.09422 0.23611 -0.014787 0.0059294 
0.083697 -0.33687 -0.24727 0.024015 0.066105 0.18514 -0.14221 -0.0004827 
0.071037 -0.21899 -0.06148 0.0070803 0.034702 0.10688 -0.19054 -0.0036066 
0.038319 0.090109 0.019905 -0.021034 0.053774 0.09422 -0.091732 0.0037921 
0.023193 0.51315 -0.020377 -0.010841 0.03651 0.023193 -0.028104 0.035853 
0.026646 0.7208 -0.02235 0.01415 0.058706 -0.085978 -0.026789 -0.0040998 
-0.0068948 0.52909 0.00083261 0.076463 0.05476 -0.11442 0.0028056 0.051965 
-0.023336 0.27343 0.073175 0.098001 0.10277 -0.085978 0.086657 0.0421 
-0.061151 -0.13119 0.13812 0.073668 0.015301 -0.094034 0.087972 0.0689 
-0.021363 -0.38044 0.13269 0.053774 -0.085485 -0.14418 0.011684 0.026974 
0.060844 -0.29774 0.088958 -0.04882 -0.16769 -0.33852 -0.15487 -0.040271 
0.12497 -0.13744 0.020233 -0.061316 -0.13727 -0.40757 -0.20814 -0.096007 
0.073339 -0.0052507 -0.0031133 -0.028597 -0.0042642 -0.016924 0.053609 -0.0080457 
0.0016547 0.087314 -0.035174 0.017603 0.092904 0.3632 0.22575 0.096686 
-0.023829 0.13582 -0.093212 0.02681 0.08863 0.36369 0.2098 0.12217 
0.010533 0.060186 -0.11327 0.044731 0.060186 0.19057 0.10902 0.078272 
0.035688 -0.012156 -0.11935 0.082711 0.041443 0.069229 -0.0036066 0.045718 
0.025166 0.0095465 -0.080881 0.073339 0.095699 0.0059294 -0.056383 0.039963 
-0.013636 0.090931 -0.025145 0.070873 0.070544 -0.0868 -0.083183 0.045718 
-0.023007 0.12135 0.0059294 0.029769 0.0085601 -0.1723 -0.078415 0.029769 
-0.022514 0.13976 0.06479 0.022535 -0.068714 -0.22228 -0.067564 0.022864 
-0.0072237 0.11066 0.058871 -0.011992 -0.076935 -0.2208 -0.012485 0.027796 
0.01267 0.1248 0.037661 -0.0052507 -0.067564 -0.20945 0.026481 0.040456 
0.0024767 0.099316 0.034866 0.051801 -0.037147 -0.1792 0.034373 0.04095 
0.005765 0.052952 0.044073 0.041278 -0.034023 -0.1381 0.04654 0.021056 
0.039634 -0.009361 0.095206 0.027303 -0.086636 -0.15848 0.015794 0.00099702 
0.097179 -0.032215 0.10343 -0.0096899 -0.11442 -0.25319 -0.097651 -0.05326 
0.12579 -0.094199 0.078436 0.0085601 -0.056055 -0.15059 -0.084005 -0.024323 
0.044896 -0.40099 0.067749 0.068242 0.10836 0.17117 0.13664 0.06742 
0.081067 -0.86776 0.068736 0.093233 0.18432 0.36304 0.23479 0.11987 
0.077778 -0.89111 0.15078 0.09422 0.11313 0.36221 0.21128 0.070873 
0.014643 -0.18545 0.1368 0.033058 0.042923 0.30253 0.16262 0.066598 
-0.083183 0.99258 0.043745 0.025166 0.058213 0.26324 0.12694 0.057062 
0.0044497 1.7829 -0.076442 0.10556 0.078765 0.27409 0.16377 0.064625 
0.074161 1.3543 -0.25056 0.077778 0.042594 0.17314 0.16212 0.054267 
0.091096 0.33147 -0.33079 0.030756 0.058871 0.067256 0.10737 0.041936 
0.044567 -0.40363 -0.3663 -0.0024557 0.046375 -0.089595 0.0051074 0.014643 
0.044567 -0.52348 -0.33556 -0.019884 0.01711 -0.21586 -0.081539 0.0056006 
0.05476 -0.28081 -0.1889 -0.052931 -0.013143 -0.19433 -0.068386 0.004943 
0.051143 -0.076113 -0.00081153 -0.023829 -0.027611 -0.13645 0.012342 0.016452 
0.04358 0.020069 0.20125 0.020069 -0.011827 -0.0031133 0.12184 0.021384 
0.0421 -0.081374 0.43735 0.040128 0.033387 0.15966 0.18646 0.046211 
0.08419 -0.24628 0.44196 0.094548 0.085177 0.25058 0.17462 0.046046 
0.086163 -0.22968 0.27294 0.10014 0.13072 0.32144 0.10458 0.066598 
0.051636 -0.10752 0.1659 0.10869 0.13236 0.35465 0.050979 0.0421 
0.03092 -0.035832 0.21441 0.057391 0.13582 0.2269 -0.040271 0.048184 
0.062652 -0.12692 0.35827 0.038812 0.084355 0.044238 -0.078579 0.025001 
0.098494 -0.17394 0.38951 0.017274 0.042265 -0.029091 -0.063618 0.010204 
0.089616 -0.072167 0.19385 -0.034352 -0.0068948 -0.017417 -0.017088 0.02122 
0.054103 0.069393 0.00083261 -0.071509 -0.012649 0.011848 0.028125 0.011026 
0.027139 0.30155 0.054432 -0.070359 0.0052718 0.040621 0.056898 0.0047785 
0.029769 0.56033 0.25025 -0.010841 0.015465 0.037332 0.051965 0.03388 
0.019576 0.52367 0.16459 0.034866 0.038155 0.038812 0.050814 0.032236 
0.047033 0.31273 -0.16638 0.083204 0.073339 0.040785 0.035524 0.02829 
0.065283 0.023851 -0.35315 0.14009 0.11263 0.11346 0.077121 0.066105 
0.065118 -0.22359 -0.23198 0.10507 0.091096 0.18267 0.090109 0.061501 
0.046868 -0.34937 -0.081703 0.048184 0.029276 0.091425 0.059693 0.05624 
0.0093821 -0.19285 -0.053095 0.02122 -0.022021 -0.11508 0.00033937 0.017932 
0.085506 0.22016 -0.0503 -0.0013048 -0.062467 -0.32043 -0.015938 0.0072447 
0.1151 0.49802 -0.023007 -0.013307 -0.02235 -0.33687 -0.06296 -0.037147 
0.11247 0.31437 0.097179 0.041443 0.024015 -0.21932 -0.15585 -0.020212 
0.080244 0.04654 0.19912 0.11099 0.12875 0.047691 -0.13349 -0.015609 
0.03388 -0.086307 0.21786 0.11658 0.1756 0.30664 -0.028926 0.022206 
0.020069 -0.091239 0.20109 0.043087 0.13236 0.51907 0.12069 0.053281 
0.020727 -0.069536 0.15785 -0.054904 0.051801 0.63958 0.26505 0.08715 
-0.024323 -0.028597 0.095699 -0.07003 0.016288 0.61064 0.3244 0.090109 
-0.058192 0.036017 0.06594 -0.024816 0.014808 0.37652 0.23331 0.092904 
-0.07003 0.077285 0.079751 -0.012156 -0.029584 -0.11787 0.044896 0.042758 
-0.028104 0.069229 0.16031 -0.02498 -0.064111 -0.53746 -0.17887 -0.029584 
0.016123 0.081067 0.12069 -0.072496 -0.13136 -0.49027 -0.25401 -0.084991 
0.061172 0.078436 0.10655 0.015301 0.038319 -0.091897 -0.091239 -0.058192 
0.12497 0.04654 0.0016547 0.11872 0.19188 0.26488 0.08008 0.048184 
0.15768 -0.046519 -0.012978 0.17281 0.29612 0.36928 0.1641 0.062159 
0.082546 -0.14763 0.017767 0.16492 0.20158 0.22937 0.097672 0.070215 
-0.0077169 -0.12544 0.053609 0.10688 0.071695 0.048348 0.045718 0.060679 
-0.052437 -0.013471 0.090438 0.043251 -0.031721 -0.047834 0.010369 0.071531 
-0.051451 -0.0004827 0.062981 0.015465 -0.029091 -0.15783 -0.045532 0.044402 
-0.056055 -0.018239 -0.075949 0.063803 -0.020706 -0.20781 -0.096336 0.03536 
-0.057699 -0.12198 -0.18101 0.10524 -0.0014692 -0.15914 -0.13481 0.013986 
-0.057534 0.016781 -0.23576 0.082053 -0.010676 -0.099295 -0.099789 0.032236 
-0.029255 0.30714 -0.19679 0.020233 -0.010183 -0.04323 -0.05885 0.01415 
0.044073 0.45593 -0.22557 -0.015609 -0.0083746 -0.023172 0.029441 0.023357 
0.11017 0.39477 -0.1473 -0.019061 -0.014458 0.026317 0.075148 0.0087245 
0.12464 0.17922 0.058706 -0.052766 -0.0032777 0.030592 0.083204 0.007738 
0.076627 -0.069043 0.082053 -0.044052 -0.0078813 0.020398 0.074161 -0.0060728 
0.022535 -0.17986 0.081889 0.053445 0.05476 0.058213 0.070708 0.024344 
0.0062583 -0.18726 0.16936 0.10721 0.049006 0.13105 0.036839 0.0324 
-0.00015387 -0.15421 0.48043 0.088136 0.069558 0.19681 -0.071345 0.038319 
0.014643 -0.12314 0.58697 0.046046 0.064625 0.18613 -0.13925 0.035524 
0.011848 -0.11787 0.25123 0.075312 0.066269 0.10951 -0.14911 -0.0019624 
0.086985 -0.22047 -0.067892 0.027139 0.032564 -0.015938 -0.14007 -0.046519 
0.23151 -0.24891 -0.24266 -0.026624 -0.015938 -0.1284 -0.0868 -0.084334 
0.27623 0.26094 -0.2984 -0.048985 -0.053588 -0.18282 0.029441 -0.086636 
0.11198 0.80876 -0.28689 -0.07003 -0.054739 -0.22145 0.2417 0.019411 
-0.16588 0.55524 -0.17986 -0.062631 -0.064604 -0.17049 0.58236 0.15933 
-0.33095 -0.18939 -0.086471 -0.02794 -0.087458 0.010533 0.88127 0.22427 
-0.21356 -0.5197 -0.1718 0.019247 0.015137 0.13532 0.75023 0.24976 
-0.0013048 -0.31484 -0.30498 0.011026 0.079422 0.14716 0.23118 0.092576 
0.13434 0.022371 -0.28031 0.0059294 0.096028 0.11576 -0.25812 0.036675 
0.13039 0.20799 -0.13103 0.043416 0.016123 0.012342 -0.46084 -0.034188 
0.069064 0.23808 0.046375 0.044402 -0.02646 -0.070359 -0.44719 -0.031392 
0.038977 0.1784 0.16903 0.027139 -0.024323 -0.1376 -0.34871 -0.05178 
0.078436 0.048184 0.24877 -0.031721 -0.040764 -0.29248 -0.36055 -0.11097 
0.12743 0.011026 0.27064 -0.052602 -0.042244 -0.22277 -0.22063 -0.13349 
0.066434 0.1105 0.21654 -0.036325 -0.015773 0.10392 0.033058 -0.027775 
0.0036276 0.16278 0.16853 0.004943 0.063968 0.25978 0.18169 0.051801 
0.0026412 0.12875 0.10556 0.042923 0.078765 0.12562 0.12398 0.063474 
0.047362 0.059528 0.059364 -0.0138 0.036182 -0.13991 0.047691 0.033058 
0.072188 0.02533 0.077121 -0.045861 -0.015938 -0.36844 0.069064 0.0064227 
0.072024 -0.047834 0.067749 -0.037969 -0.0098543 -0.31386 0.22213 0.068407 
0.049828 -0.16144 0.091425 -0.029091 0.0093821 -0.13251 0.3124 0.069064 
0.050979 -0.182 0.0087245 -0.023172 0.027468 0.025495 0.19879 0.053774 
0.029112 -0.070852 -0.04471 0.011684 -0.0095255 0.12085 0.065283 0.011355 
0.036017 0.020891 -0.027118 0.046868 -0.034681 0.17067 -0.015444 -0.045532 
0.021713 0.093562 -0.013965 0.029276 -0.035174 0.28872 0.031907 -0.0036066 
0.014315 0.11822 0.0324 0.0032988 -0.0024557 0.38178 0.15966 0.056733 
-0.014787 0.09833 0.04917 0.025001 0.04654 0.35366 0.17889 0.085341 
-0.026953 -0.0090322 0.02681 0.10326 0.12595 0.22805 0.080738 0.088136 
-0.0021268 -0.084827 0.025001 0.058542 0.10688 -0.091404 -0.16523 0.027632 
0.0034632 -0.053095 0.0047785 0.016288 0.058542 -0.3857 -0.38949 0.030263 
-0.055232 0.074983 0.032071 0.025824 0.017274 -0.48567 -0.42566 0.023028 
-0.066248 0.14617 0.055418 0.025001 -0.0040998 -0.35052 -0.35479 0.037332 
-0.037311 0.11247 0.027632 0.026646 0.00066819 -0.18528 -0.28278 -0.023994 
0.011026 0.13187 0.020069 0.035195 0.0034632 -0.040764 -0.20551 -0.02087 
0.038648 0.22657 -0.039942 0.047691 0.040292 0.11017 0.016123 -0.048656 
0.011191 0.2195 -0.00031829 0.021878 0.017932 0.31684 0.37076 -0.0075525 
0.025001 0.24548 -0.034681 0.049992 0.063968 0.48848 0.73971 0.020069 
0.099152 0.35695 -0.1256 0.14864 0.11559 0.4778 0.79035 0.086821 
0.13762 0.28264 -0.099789 0.12612 0.098001 0.1687 0.49079 0.056569 
0.10852 -0.087786 0.05065 0.05772 0.0028056 -0.047505 0.20273 0.033715 
0.029605 -0.41744 0.19501 0.014972 -0.03057 -0.065262 0.00099702 0.029441 
-0.025145 -0.44358 0.19977 0.02829 0.0013258 -0.093376 -0.20255 0.037826 
-0.10242 -0.065919 0.14815 0.044896 0.049499 -0.16605 -0.37272 0.077943 
-0.14878 0.41664 0.08304 0.086492 0.077614 -0.3132 -0.33408 0.11461 
-0.084498 0.49868 0.057884 0.095371 -0.0026201 -0.40395 -0.27768 0.084026 
0.012999 0.088136 0.080573 -0.048163 -0.080717 -0.3349 -0.28015 0.0034632 
0.09422 -0.18463 0.15472 -0.14385 -0.14369 0.0019835 -0.18413 -0.076277 
0.12381 -0.20781 0.19237 -0.12067 -0.14665 0.31585 0.013492 -0.091075 
0.072024 -0.089595 0.11198 0.013657 -0.020377 0.58976 0.24844 -0.014129 
-0.028926 0.054432 -0.036983 0.15012 0.23841 0.90906 0.41532 0.087972 
-0.077922 0.17199 -0.18315 0.27014 0.45725 0.86762 0.36337 0.13302 
-0.087786 0.24696 -0.30021 0.3438 0.46596 0.36501 0.23562 0.12003 
-0.043724 0.24153 -0.27078 0.2588 0.20454 -0.30218 0.012835 0.022042 
0.069393 0.11954 -0.11442 0.15423 -0.056712 -0.64334 -0.16227 -0.083018 
0.10984 0.069393 0.019411 0.11033 -0.043559 -0.40938 -0.15421 -0.052602 
0.063968 0.074326 0.14239 0.13631 0.099481 0.21835 -0.044381 -0.0014692 
0.0227 0.099316 0.26291 0.11954 0.11313 0.45757 0.058377 0.053281 
-0.003771 0.095042 0.40661 0.11181 0.068571 0.43275 0.17067 0.08419 
-0.047341 0.051308 0.39575 0.15505 0.088958 0.50279 0.23216 0.11346 
-0.0054151 0.013657 0.29004 0.05772 0.046375 0.48158 0.17215 0.08156 
0.059857 -0.075127 0.34018 -0.051944 -0.016102 0.23529 0.086821 0.026317 
0.10655 -0.1575 0.64106 -0.19646 -0.14303 -0.24497 0.044073 -0.0068948 
0.094384 -0.082361 0.55376 -0.26634 -0.14862 -0.45903 -0.009361 -0.0068948 
0.07449 0.062817 0.03799 -0.27801 -0.10719 -0.43569 -0.051451 0.022206 
0.034866 0.10655 -0.24332 -0.1843 -0.043066 -0.31862 -0.064604 0.028125 
0.0067515 -0.28689 -0.3303 -0.054246 -0.016266 -0.18874 -0.039778 0.028947 
0.04506 -0.95425 -0.34 0.033715 0.025824 -0.067728 -0.02235 -0.00015387 
0.10376 -1.0491 -0.22063 0.11411 0.063639 0.039799 0.092904 -0.0057439 
0.093398 -0.39557 -0.055561 0.14946 0.098659 0.11461 0.16196 0.0095465 
0.044896 1.2925 -0.052109 0.13516 0.10573 0.15078 0.15949 0.044073 
0.087479 2.2469 -0.068386 0.089945 0.060515 0.11855 0.077121 0.052459 
0.060186 1.4722 0.012342 0.085012 0.048841 0.096028 -0.006566 0.0421 
0.0016547 0.24778 0.072846 0.073668 0.048677 0.094713 -0.055232 0.029112 
-0.019719 -0.4781 0.038483 0.0014903 0.056733 0.091589 -0.074304 0.049664 
-0.01117 -0.65518 0.037004 -0.027775 0.029441 0.067749 -0.067235 0.04506 
-0.012649 -0.49175 0.064132 -0.029091 0.026152 0.013492 -0.053753 0.048513 
0.011684 -0.28344 0.13138 -0.013307 0.027796 -0.050629 -0.016431 0.018425 
0.046046 -0.12231 0.13187 0.020398 0.03947 -0.12462 -0.034352 0.029769 
0.04917 -0.057863 0.13056 0.043251 0.030592 -0.16786 -0.053095 0.0060938 
0.075476 -0.031886 0.14568 0.055911 0.024837 -0.15405 -0.096172 0.00083261 
0.091425 -0.08121 0.11921 0.029934 -0.0039354 -0.069208 -0.08384 -0.021199 
0.093233 -0.26387 0.13072 0.024508 -0.00015387 0.017274 -0.013307 0.0044497 
0.071695 -0.58892 0.11148 0.032893 0.036346 0.092082 0.01004 0.012342 
0.078272 -0.61638 0.081231 0.013657 0.01415 0.058213 -0.004593 0.022535 
0.028454 -0.27456 0.036017 -0.0054151 -0.011005 -0.090253 0.015301 0.04917 
-0.067892 0.39493 -0.010348 0.0092177 -0.031886 -0.2231 -0.0016336 0.082053 
-0.073811 1.108 -0.096994 0.026152 0.0090533 -0.27374 -0.070687 0.049992 
-0.0067304 1.3242 -0.24299 -0.011827 0.01004 -0.20912 -0.15914 0.023686 
0.048348 0.80104 -0.27144 -0.044874 -0.026131 0.016288 -0.17772 -0.009361 
0.016945 0.15111 -0.19449 -0.071838 -0.062302 0.14963 -0.10735 -0.029913 
-0.04323 -0.2864 -0.11656 -0.10078 -0.049149 0.18744 0.049828 0.016123 
-0.038462 -0.54535 -0.03205 -0.13152 -0.05178 0.1031 0.10293 0.027632 
0.033715 -0.47399 0.0042853 -0.10258 -0.027447 -0.15191 -0.015444 0.012835 
0.093891 -0.14878 0.004943 -0.032215 -0.02646 -0.27292 -0.023665 0.0052718 
0.093562 0.14091 -0.028926 0.064625 0.043909 -0.22211 0.095206 0.038812 
0.11707 0.31634 -0.13497 0.13894 0.097672 -0.13284 0.2195 0.034209 
0.13615 0.46514 -0.13382 0.1345 0.050157 -0.011334 0.19632 0.031742 
0.082382 0.35153 -0.081868 0.0786 0.049828 0.076792 0.12431 0.043087 
0.01004 0.11198 -0.096994 0.046375 0.054596 0.10491 0.036017 0.095535 
-0.038462 -0.13497 -0.25828 0.044402 0.029441 -0.037805 -0.039449 0.065447 
-0.021692 -0.1233 -0.2009 0.055089 -0.018733 -0.11491 -0.072989 0.03388 
-0.010841 -0.004593 -0.13662 0.04358 -0.023665 -0.084334 -0.080552 -0.017582 
-0.047834 0.27639 -0.14336 0.10606 -0.029584 -0.064768 -0.041422 0.038648 
-0.088444 0.2925 -0.070359 0.16541 0.023028 -0.021692 -0.00031829 0.049828 
-0.08269 -0.10554 0.042758 0.17593 0.057391 0.00297 0.042758 0.037826 
-0.028762 -0.43355 0.13943 0.12562 0.055254 0.056569 0.077778 0.01974 
0.0070803 -0.53253 0.1391 0.10408 0.051472 0.075641 0.083368 0.040128 
0.020233 -0.30942 0.13943 0.11247 0.062323 0.065612 0.080902 0.029934 
-0.0011404 0.14141 0.18958 0.07038 0.058049 0.11313 0.097672 0.029934 
0.0047785 0.6677 0.24548 0.0028056 0.038155 0.08304 0.10507 0.025659 
0.063474 0.78936 0.03651 -0.041257 0.036346 0.072517 0.095042 0.017274 
0.12809 0.47813 -0.22951 -0.12938 0.0019835 0.079422 0.081724 0.0042853 
0.13203 0.1271 -0.28262 -0.16128 0.027632 0.1003 0.079751 0.015301 
0.10228 -0.07825 -0.16243 -0.13448 0.0070803 0.10425 0.085835 0.032564 
0.08715 -0.2009 0.0021479 -0.056219 -0.0091966 0.08863 0.11461 0.03947 
0.063968 -0.194 0.1174 -0.031392 0.021878 0.049499 0.10343 0.076134 
0.055254 -0.11541 0.26603 0.037004 0.060022 0.027468 0.038155 0.014643 
0.050321 -0.058356 0.33985 0.090274 0.059693 -0.009361 -0.023007 0.013328 
0.031742 -0.018897 0.29957 0.11494 0.040621 -0.01939 0.007738 -0.00064712 
-0.050958 0.009711 0.14437 0.14502 0.1179 0.051636 0.098166 0.055911 
-0.019884 0.021713 -0.031721 0.1276 0.16837 0.17018 0.16574 0.087314 
0.00297 0.0051074 -0.0031133 0.060844 0.11263 0.13023 0.12908 0.069393 
0.0095465 -0.013307 0.12792 -0.029091 0.032071 0.012013 0.036182 0.0044497 
0.00033937 -0.088115 0.19139 -0.062796 0.038812 0.09422 0.018096 0.017603 
0.0093821 -0.16095 0.14206 0.025166 0.10211 0.23052 0.061995 0.035195 
0.01711 -0.18298 -0.009361 0.098001 0.098823 0.21539 0.065283 0.060844 
0.074326 -0.069372 -0.0091966 0.096521 0.033387 0.15719 0.023522 0.023357 
0.08863 0.035853 0.06479 0.049335 -0.045039 0.17955 0.071366 0.026974 
0.070873 0.1225 0.12891 0.013821 -0.098144 0.069393 0.097837 0.038977 
0.081067 0.083533 0.1835 -0.029584 -0.09946 -0.18561 0.013821 0.05772 
0.069558 0.07301 0.15686 -0.0077169 -0.070852 -0.29166 -0.058521 0.023522 
0.058871 0.069064 0.12858 0.013328 -0.057863 -0.33441 -0.086471 -0.016431 
0.057391 0.049992 0.046868 0.0028056 -0.020048 -0.33868 -0.10653 -0.041915 
0.066105 -0.029584 0.0056006 0.0046141 0.0093821 -0.12757 -0.081539 -0.012814 
0.078765 -0.096172 0.10556 0.03947 0.098494 0.32144 0.069229 0.019083 
0.064461 -0.12708 0.20372 0.072024 0.16311 0.70732 0.23644 0.061666 
0.059693 -0.056219 0.22312 0.023686 0.18037 0.76602 0.28658 0.083862 
0.052952 -0.0040998 0.16344 -0.019719 0.10228 0.45609 0.1345 0.028947 
0.0421 -0.0059084 0.13779 -0.0087034 0.07301 0.024673 -0.098638 0.0034632 
0.027468 -0.074962 0.13565 -0.0064016 0.047033 -0.20699 -0.17361 0.020233 
0.096521 -0.022514 0.10244 -0.019884 0.053938 -0.20436 -0.060165 0.067585 
0.18465 0.26439 0.038977 -0.049642 0.015137 -0.14566 0.033387 0.028783 
0.13845 0.48092 -0.048163 -0.077757 0.045389 -0.083018 0.041443 0.051636 
-0.074633 0.22361 -0.065919 -0.033201 0.016616 0.0056006 0.041772 0.075312 
-0.1667 -0.23855 0.066927 0.039634 -0.019226 -0.046847 0.04358 0.079258 
-0.077428 -0.43322 0.11937 0.071202 -0.019719 -0.099624 -0.012485 0.042594 
0.066927 -0.22589 0.055911 0.10145 -0.0083746 -0.091239 -0.091732 0.010862 
0.064625 0.039305 0.033551 0.16311 0.0059294 -0.047834 -0.057863 -0.024323 
0.067585 0.15703 -0.0073881 0.18251 0.012999 0.035853 0.0054362 -0.00081153 
0.079751 0.1008 0.0042853 0.13779 0.023193 0.11543 0.014643 -0.023665 
0.088301 -0.00031829 0.0044497 0.088794 0.032564 0.21621 0.01826 1.0539e-005 
0.043909 -0.040271 0.00297 0.086492 0.01415 0.21457 0.096357 0.02681 
0.025659 0.0324 0.0082312 0.1197 0.029769 0.23183 0.14634 0.05476 
-0.0096899 0.11642 -0.029584 0.076627 0.072517 0.2754 0.1391 0.069393 
-0.014129 0.147 -0.068879 0.038812 0.1345 0.089452 0.045553 0.055089 
-0.014458 0.1373 -0.055232 0.049006 0.089945 -0.22836 -0.064111 0.031085 
0.027139 0.085506 -0.024652 0.021384 -0.0019624 -0.38538 -0.031228 0.031249 
0.063803 -0.010676 -0.021363 -0.024487 -0.024487 -0.38143 -0.039449 0.0079024 
0.069558 -0.020212 -0.029091 -0.076442 -0.01232 -0.21619 -0.060494 -0.033037 
0.059528 0.018425 0.016452 -0.084005 -0.0059084 0.056733 -0.0057439 0.020727 
0.045718 0.044896 0.0023123 -0.077593 -0.065426 0.31141 0.15012 0.06594 
-0.023501 0.040292 -0.0064016 0.013328 -0.039942 0.52301 0.25091 0.1105 
-0.061316 0.15867 -0.0072237 0.10326 0.028619 0.66819 0.19862 0.067913 
-0.044052 0.2736 0.010369 0.077285 0.058377 0.33213 -0.033037 0.030098 
-0.023336 0.42962 0.020398 0.076299 0.05772 -0.051287 -0.14106 0.012342 
0.014479 0.64862 -0.068879 0.097344 0.042923 -0.21965 -0.076442 0.023522 
0.10819 0.47171 -0.078908 0.12349 0.023028 -0.37239 -0.10637 0.00017495 
0.15768 -0.086964 -0.050136 0.075148 -0.0026201 -0.46018 -0.16144 -0.014458 
0.13351 -0.35759 -0.10456 0.02829 -0.0073881 -0.37781 -0.07825 0.0031344 
0.043416 -0.29018 -0.093376 0.021384 -0.0049219 -0.19186 0.10425 0.030592 
-0.035174 -0.11574 -0.029748 0.0054362 0.0013258 -0.040106 0.2463 0.060022 
-0.077757 0.13615 0.043909 -0.02235 -0.0078813 -0.15454 0.12924 0.063639 
-0.069043 0.27244 0.041278 -0.055561 -0.047341 -0.33457 -0.053095 -0.0039354 
0.0090533 0.19665 0.053938 -0.066741 -0.1182 -0.26667 -0.035667 -0.015444 
0.052294 0.068736 0.070708 -0.073318 -0.1866 -0.30892 0.15851 -0.011498 
0.045389 0.049664 0.036346 -0.0072237 -0.087951 -0.045696 0.32078 0.039634 
0.044896 0.04654 0.038812 0.048513 0.11954 0.43554 0.18761 0.012506 
0.051143 -0.030077 0.055911 0.066598 0.25617 0.8012 0.0069159 -0.00097594 
0.02122 -0.23938 0.088301 0.045389 0.24005 0.83014 0.013164 0.053609 
-0.027118 -0.26009 0.058871 0.042594 0.18432 0.53008 0.05065 0.10622 
-0.042079 -0.10357 0.063803 0.044731 0.063803 0.22526 0.023851 0.11066 
0.049006 0.18974 0.049499 -0.041751 0.00099702 -0.019226 -0.05326 0.057884 
0.1738 0.59174 -0.081703 -0.047341 -0.0026201 -0.18282 -0.11048 0.0069159 
0.19451 0.66983 -0.20682 0.02533 -0.0055795 -0.22129 -0.22047 -0.013965 
0.072846 0.099481 -0.16144 0.023522 -0.012485 -0.25088 -0.31386 0.018754 
-0.018239 -0.62756 -0.10357 0.011355 -0.023501 -0.23806 -0.28508 -0.035996 
0.013657 -0.90542 -0.028597 -0.0068948 -0.055397 -0.16457 -0.15684 -0.00081153 
0.026481 -0.30481 -0.038627 0.035195 -0.046683 -0.078086 0.017932 0.013328 
0.063639 1.119 -0.081374 0.077943 0.042923 0.08304 0.2269 0.034373 
0.14848 1.2152 0.032564 0.020562 0.10787 0.063474 0.29201 -0.0055795 
0.16377 0.1345 0.19994 -0.050464 0.060844 -0.067235 0.30927 -0.026296 
0.016781 -0.42566 0.33936 -0.07003 1.0539e-005 -0.042408 0.43209 0.011026 
-0.11607 0.004943 0.47188 -0.022185 -0.00097594 0.093069 0.451 0.082053 
-0.088444 0.60061 0.56247 0.023193 0.046046 0.21178 0.35334 0.10688 
-0.012485 0.47977 0.40694 0.060022 0.11329 0.2195 0.16985 0.1151 
0.039963 -0.082854 0.048184 0.11181 0.13351 0.14157 -0.067892 0.0592 
0.090767 -0.37699 -0.20271 0.13499 0.08567 0.037497 -0.25088 0.028783 
0.069722 -0.25647 -0.32421 0.12283 0.039305 0.0042853 -0.27177 -0.0004827 
0.013986 0.04654 -0.35792 0.055254 0.048019 0.077285 -0.19285 0.019905 
-0.02942 -0.035667 -0.24036 -0.0075525 0.066105 0.13368 -0.15914 0.032071 
-0.023336 -0.28755 -0.11426 -0.030406 0.069722 0.11757 -0.1547 0.037497 
0.011355 -0.22655 -0.095678 0.024179 0.043087 -0.033694 -0.15141 0.0034632 
0.054103 -0.050464 -0.10834 0.028947 0.020727 -0.10719 -0.11245 -0.018733 
0.066763 0.083862 -0.034845 0.049828 0.0075736 -0.11015 -0.045861 -0.017911 
0.060186 0.14272 0.1179 0.055582 -0.017582 -0.098309 0.045882 -0.0138 
0.037332 0.13664 0.29382 -0.01232 -0.024158 -0.05885 0.12529 0.016288 
0.040456 -0.026296 0.52663 -0.012978 -0.019555 -0.031064 0.14009 0.010533 
0.03799 -0.20649 0.6723 -0.01232 0.019576 -0.041586 0.1613 0.052787 
-0.0068948 -0.17805 0.5189 0.0024767 0.023851 0.10852 0.17659 0.058871 
-0.075949 0.065612 0.25008 -0.0080457 0.012835 0.2389 0.16607 0.090109 
-0.044546 0.3267 0.038155 -0.068386 -0.067235 0.12891 0.075312 0.030427 
0.079916 0.50164 -0.010183 -0.028597 -0.11968 -0.12971 0.0023123 0.021878 
0.18613 0.42502 0.019905 -0.0080457 -0.12988 -0.30218 -0.018239 -0.0091966 
0.19813 0.31026 -0.043559 -0.0054151 -0.11491 -0.33638 -0.10834 -0.041915 
0.080409 0.18596 -0.15717 0.049499 0.046375 -0.13251 -0.099953 -0.019061 
0.01004 -0.13152 -0.2351 0.12381 0.22674 0.0075736 -0.1016 0.02681 
0.0090533 -0.39902 -0.19877 0.13417 0.27573 0.055747 -0.1741 -0.012649 
-0.006566 -0.43026 -0.060165 0.13203 0.25173 0.09685 -0.17723 0.01152 
-0.11508 -0.34855 0.29168 0.088301 0.2269 0.078436 -0.057863 0.036675 
-0.16309 -0.18726 0.40299 0.086492 0.11937 -0.17838 0.034702 0.066434 
-0.094856 0.092904 0.19336 0.079751 0.024179 -0.43667 0.066763 0.035031 
0.061666 0.33541 0.057884 0.080902 -0.067564 -0.45147 0.0227 -0.025145 
0.17462 -0.12264 0.038155 0.078765 -0.01939 -0.10045 -0.050629 -0.046683 
0.21013 -0.55801 0.047033 0.11526 0.09981 0.54027 0.020233 -0.042244 
0.083533 -0.17065 -0.066577 0.14256 0.12957 0.95756 0.23068 0.069558 
-0.1552 0.48684 -0.14895 0.096521 0.016452 0.79956 0.37142 0.13384 
-0.26059 0.52449 -0.045532 -0.033037 -0.10867 0.55589 0.36896 0.14091 
-0.13875 0.4048 0.13943 -0.13218 -0.074633 0.44722 0.23545 0.073339 
0.060844 0.21408 0.12579 -0.086636 -0.03912 0.019083 0.043087 0.03651 
0.18202 0.046704 -0.034681 -0.037311 -0.015444 -0.5077 -0.10686 -0.01939 
0.18498 -0.079072 -0.10094 -0.0077169 -0.022021 -0.71157 -0.22737 0.0023123 
0.1276 -0.11311 -0.096665 0.038812 -0.01676 -0.57462 -0.23132 -0.004593 
0.075312 -0.070852 -0.084169 0.097179 0.014315 -0.32849 -0.24086 0.023851 
-0.0022913 0.0079024 -0.1256 0.04358 0.039141 -0.16292 -0.21702 0.0034632 
-0.014951 -0.12725 -0.083676 -0.02646 0.013492 -0.087129 -0.16555 -0.0024557 
0.062817 -0.23905 -0.0095255 -0.070687 0.0028056 -0.011005 -0.041422 -0.037311 
0.20438 0.043745 -0.050793 -0.13349 0.017932 0.053281 0.023686 -0.055232 
0.16936 0.38869 -0.07414 -0.10061 0.032729 0.11329 0.082382 -0.059507 
-0.070194 0.24384 0.0421 0.034702 0.046046 0.15867 0.13762 0.022371 
-0.19515 -0.26585 0.25863 0.1807 0.038319 0.18037 0.23463 0.044896 
-0.10489 -0.5613 0.34627 0.15489 0.057555 0.24581 0.32522 0.074326 
-0.003771 -0.33901 0.2366 0.09274 0.0786 0.2782 0.30829 0.085506 
0.034209 0.055582 0.030592 0.077121 0.074983 0.30549 0.26077 0.10047 
0.012013 0.22674 -0.14106 -0.022185 0.054925 0.24647 0.19024 0.11263 
0.011026 0.2708 -0.20699 -0.047505 0.056076 0.14108 0.11642 0.11724 
0.005765 0.25946 -0.27275 -0.016266 0.099481 0.084848 0.04917 0.11329 
0.016288 0.23085 -0.33276 0.023193 0.098494 0.059528 -0.095514 0.082217 
0.038319 0.15522 -0.33424 1.0539e-005 0.058542 0.047526 -0.16046 0.056404 
0.054925 0.074983 -0.26601 0.024508 0.043745 0.038155 -0.14467 -0.0091966 
0.062817 -0.022679 -0.084827 0.055089 0.007738 0.077121 -0.051944 -0.0083746 
0.049664 -0.077593 0.069722 0.055582 0.01267 0.10014 0.042594 -0.02646 
0.01826 0.020233 0.08304 0.023686 0.020398 0.060515 0.085506 0.019905 
-0.037311 0.32193 0.058377 0.031249 -0.0083746 0.048677 0.069393 0.035688 
-0.032708 0.39888 0.036182 0.039141 -0.017911 -0.05589 0.061008 0.039141 
-0.0072237 0.25222 0.067749 0.0098754 -0.040271 -0.089266 0.092082 0.044896 
0.0095465 0.04654 0.089945 0.0227 -0.025802 -0.10028 0.12201 0.054432 
0.017932 -0.054904 0.075148 0.11247 -0.0075525 -0.1159 0.099974 0.041936 
0.027796 -0.095678 0.093233 0.077778 -0.004593 -0.099131 0.065447 0.04654 
0.044073 -0.1085 0.10655 0.016123 -0.021692 -0.15191 0.042265 0.0093821 
0.09126 -0.18775 0.098166 -0.078908 -0.013636 -0.19745 0.028619 -0.07562 
0.057227 -0.24875 0.048184 -0.086636 0.016781 -0.089431 -0.011663 0.026646 
-0.0064016 -0.19087 0.01004 -0.083512 0.13401 0.15078 0.050979 0.066598 
-0.07003 0.027303 0.013986 -0.025474 0.10277 0.15555 0.029276 0.063639 
-0.079237 0.29316 -0.040764 0.041936 0.061337 0.039963 0.073997 0.066105 
-0.03353 0.56198 -0.057041 0.033387 -0.072825 -0.079566 0.079422 0.052623 
0.067749 0.59815 -0.023007 -0.017417 -0.14434 -0.15848 0.047362 0.01004 
0.12151 0.16294 0.043416 -0.00081153 -0.10193 -0.17443 -0.043888 -0.029255 
0.080244 -0.2083 0.10606 0.027796 1.0539e-005 -0.05885 -0.064111 -0.008539 
-0.014622 -0.16868 0.086328 0.098988 0.11921 0.13993 0.025495 0.055254 
-0.050958 -0.028762 0.065283 0.18695 0.20438 0.21243 0.05476 0.086328 
-0.017417 0.041114 0.093069 0.20931 0.17297 0.14058 0.009711 0.083533 
0.010204 0.012506 0.1419 0.1419 0.074983 0.020398 -0.0064016 0.033387 
0.020727 0.0072447 0.19501 0.07597 0.023028 -0.050136 -0.0032777 0.027961 
0.017767 -0.046025 0.18317 0.045389 -0.014787 -0.10834 -0.0042642 0.0037921 
0.040456 -0.12445 0.13795 0.038977 -0.0138 -0.17394 -0.059343 0.015959 
0.023686 -0.25319 0.069064 0.09274 0.023522 -0.16934 -0.10669 0.0028056 
0.0034632 -0.34723 -0.0031133 0.096028 0.042923 -0.16605 -0.10587 0.030592 
-0.017088 -0.2014 -0.012814 0.12908 0.037497 -0.14993 -0.074962 0.04506 
0.0064227 0.12743 0.019576 0.093398 0.028619 -0.15832 -0.078086 0.027961 
0.13467 0.66096 0.0088889 0.080573 0.0056006 -0.19433 -0.12001 -0.022185 
0.15703 1.1414 0.038812 0.057884 -0.027447 -0.29791 -0.084005 -0.03205 
0.12447 0.77884 0.061995 0.016781 -0.049149 -0.33178 -0.017582 -0.0088678 
0.052623 -0.0077169 0.10359 0.016452 0.030263 0.038977 0.1955 0.045553 
0.055089 -0.50803 0.11609 0.052952 0.11198 0.36632 0.25058 0.034866 
0.10277 -0.55653 0.22657 0.032236 0.069229 0.4944 0.10556 -0.028926 
0.096686 -0.31188 0.38589 -0.012156 0.072024 0.75056 0.066927 -0.045532 
0.034866 -0.054575 0.31092 0.026152 0.16344 0.88834 0.18991 0.029605 
-0.017582 0.098001 0.041114 0.11 0.21819 0.84674 0.27064 0.10326 
-0.035832 0.14798 -0.20452 0.1105 0.17955 0.45363 0.21457 0.10425 
-0.012814 0.15226 -0.29281 0.086163 0.072024 -0.080388 0.016123 0.051636 
0.017603 0.12842 -0.16259 0.051308 -0.012156 -0.45065 -0.15372 0.0021479 
0.058049 0.088794 -0.050629 0.070873 -0.025638 -0.50145 -0.19531 -0.0036066 
0.068078 0.070708 -0.0098543 0.036182 -0.0016336 -0.3377 -0.14089 -0.014622 
0.079094 0.049664 -0.030406 0.017603 0.019083 -0.13645 -0.087458 0.011191 
0.062981 0.070873 0.016288 0.011848 0.018589 -0.0406 -0.010676 0.0044497 
0.060186 0.076792 0.17133 -0.014129 -0.018733 -0.032872 0.04506 0.030098 
0.055911 0.071037 0.2731 -0.048985 -0.0059084 0.043745 0.081067 0.026974 
0.035195 0.056733 0.22657 -0.056548 0.023851 0.070873 0.081395 0.037332 
0.041443 0.024179 0.1151 -0.028762 0.01711 0.010204 0.044731 0.04506 
-0.021199 -0.02794 0.085506 -0.04323 -0.01676 -0.034188 -0.004593 0.054103 
0.023851 -0.3492 0.16804 -0.096829 -0.057863 -0.013965 0.032893 0.05213 
-0.023007 -0.75218 0.14042 -0.12807 -0.099624 -0.012978 -0.0024557 0.03536 
-0.015938 -1.1244 0.19665 -0.19531 -0.1427 -0.082525 -0.11853 -0.033694 
0.062488 -0.86053 0.33163 -0.16621 -0.13744 -0.027611 -0.081374 -0.031557 
0.11526 0.23118 0.27754 -0.041586 -0.047176 0.17511 0.086657 -0.0088678 
0.21408 2.0718 -0.043066 0.14848 0.10129 0.24252 0.2195 0.050979 
0.21687 2.4455 -0.3617 0.1784 0.18695 0.23167 0.28149 0.065776 
0.13253 1.0837 -0.40938 0.1077 0.1248 0.23512 0.24367 0.03536 
0.017932 -0.18463 -0.2961 0.00083261 0.0095465 0.21638 0.13812 0.012013 
-0.062796 -0.64564 -0.1838 -0.04882 0.042923 0.31569 0.040456 0.013328 
-0.053588 -0.61079 -0.11311 -0.086636 0.14716 0.48273 0.020398 0.044567 
-0.024487 -0.44654 -0.14171 -0.080223 0.17577 0.36106 -0.013143 0.060186 
0.0011614 -0.29791 -0.10916 -0.0032777 0.11921 0.047691 -0.057534 0.071366 
0.0018191 -0.18052 -0.05737 0.05624 0.1151 -0.11524 -0.095349 0.056733 
-0.014622 -0.062302 0.058049 0.073997 0.09126 -0.16046 -0.046683 0.050486 
-0.0034422 0.0079024 0.19583 0.078272 0.007738 -0.16605 0.086657 0.062652 
0.005765 0.022535 0.35942 0.0067515 -0.063782 -0.15372 0.053281 0.052623 
0.039799 0.022206 0.58072 -0.048985 -0.080881 -0.11968 0.031578 0.038483 
0.03388 0.033222 0.65142 -0.044052 -0.089431 0.0028056 0.085341 0.050814 
0.019411 0.011191 0.42288 0.016452 -0.027118 0.17643 0.19829 0.051636 
0.026152 -0.28443 0.053938 0.027632 0.021056 0.31799 0.17708 0.045224 
0.061995 -0.46988 -0.23543 0.027961 0.0064227 0.24334 0.1345 0.019576 
0.069886 -0.24776 -0.31172 0.028125 0.0011614 -0.036818 0.024344 0.0098754 
0.0026412 0.29776 -0.34493 -0.031721 -0.0098543 -0.30235 -0.079401 0.010533 
-0.0064016 0.89607 -0.31764 -0.065426 0.018918 -0.35644 -0.11327 0.014643 
0.051143 1.1253 -0.22113 -0.030406 -0.015938 -0.27719 -0.15289 0.00297 
0.068736 0.66145 -0.10094 -0.020541 -0.018897 -0.15947 -0.16851 0.0041209 
0.062159 0.1026 0.058377 -0.043066 0.00066819 -0.038791 -0.11426 -0.016924 
0.071695 -0.25302 0.29283 -0.031886 0.05065 0.11444 0.064625 -0.0073881 
0.10984 -0.33786 0.32604 0.015465 0.091425 0.23331 0.20536 0.012013 
0.092082 -0.27538 0.077943 0.042923 0.070051 0.16475 0.088136 0.044238 
0.022371 -0.1205 -0.13448 0.065776 0.072681 -0.014622 -0.015773 0.067749 
-0.029913 -0.0057439 -0.083676 0.074161 0.054432 -0.34164 -0.018568 0.1003 
-0.05326 0.11017 0.03536 0.10819 0.0019835 -0.72999 -0.042079 0.10293 
-0.055561 0.17692 0.05476 0.11461 -0.035832 -0.86069 -0.070687 0.069722 
-0.013307 0.20421 0.0083956 0.077121 -0.013965 -0.64038 -0.11442 0.0088889 
0.04095 0.11214 -0.027611 0.055418 -0.034681 -0.11574 -0.013965 -0.069701 
0.08156 0.037826 -0.0406 -0.0049219 -0.048327 0.47763 0.25058 -0.052931 
0.066927 -0.034188 -0.039284 0.050321 -0.064275 0.78295 0.51907 0.027139 
0.039963 -0.18611 -0.019061 0.096357 0.084355 0.80926 0.63629 0.13631 
-0.067564 -0.31106 0.029441 0.16459 0.21802 0.64271 0.57135 0.15374 
-0.12314 -0.25598 -0.00064712 0.15522 0.26866 0.42255 0.26439 0.15324 
-0.013636 0.040456 -0.0088678 0.070873 0.094548 0.04654 -0.24595 0.058049 
0.16788 0.24696 0.037004 -0.014293 -0.026131 -0.13974 -0.70615 -0.12462 
0.22098 0.19106 0.053938 -0.0868 -0.016924 -0.15224 -0.81532 -0.19318 
0.16574 0.15308 0.080244 -0.03353 0.1105 0.10211 -0.48485 -0.11343 
0.0075736 0.26603 -0.0070593 0.063145 0.22148 0.34495 0.052623 0.033387 
-0.11935 0.34528 -0.089595 0.13171 0.13549 0.26883 0.37438 0.14601 
-0.076606 0.31157 -0.099789 0.11658 0.012177 1.0539e-005 0.42387 0.13434 
0.0064227 0.15653 -0.071838 0.078107 -0.057699 -0.13316 0.37093 0.12529 
0.070544 -0.023665 -0.069043 0.069064 -0.043724 -0.16292 0.30598 0.087972 
0.095371 -0.18084 -0.089595 0.018754 -0.091075 -0.26864 0.16706 0.049335 
0.11954 -0.44489 -0.065755 -0.013636 -0.11097 -0.35775 0.027632 -0.0087034 
0.1105 -0.67441 0.0034632 -0.0016336 -0.098309 -0.34559 -0.12133 -0.029091 
0.063968 -0.6149 0.088794 0.012013 -0.070852 -0.27851 -0.21258 -0.023665 
0.062488 -0.20057 0.21474 0.0087245 -0.045532 -0.15717 -0.18693 -0.0138 
0.12201 0.64764 0.26307 0.039799 -0.0019624 -0.006566 -0.13629 -0.022185 
0.11937 0.96709 0.22 0.098001 0.055418 0.12398 -0.038462 0.0051074 
-0.043724 0.37931 0.15144 0.082382 0.093069 0.16393 -0.050464 0.04506 
-0.15306 -0.11097 0.045718 0.075805 0.11543 0.1562 -0.09239 0.044402 
-0.10834 0.034537 -0.07825 0.069064 0.085999 0.15242 -0.080552 0.049664 
-0.034516 0.66655 -0.20173 0.068242 0.078765 0.16278 -0.01232 0.047526 
0.010862 0.68167 -0.098802 0.035688 0.085341 0.1807 0.025495 0.034044 
0.043087 -0.1889 0.060679 -0.010183 0.069229 0.15176 0.03947 0.019083 
0.053938 -0.65764 0.099974 -0.032872 0.03799 0.13384 0.070051 0.038648 
0.049499 -0.52118 0.079094 -0.082196 0.018425 0.12644 0.15374 -0.0068948 
0.049499 -0.21274 0.0046141 -0.072989 0.0079024 0.15078 0.19254 0.038155 
0.041443 0.015794 -0.04471 -0.060658 0.030427 0.22674 0.25962 0.052623 
0.031414 0.099974 -0.023665 -0.015609 0.064461 0.18152 0.21572 0.060022 
0.027796 0.1105 0.016945 0.052459 0.064625 0.024344 0.031249 0.0047785 
0.089452 0.035195 0.060022 0.11017 0.038977 -0.065591 -0.13119 0.019083 
0.12858 0.0051074 0.028454 0.14453 0.037004 -0.1108 -0.20304 -0.0052507 
0.098494 0.081067 0.0032988 0.15949 0.056898 -0.12198 -0.279 -0.0138 
0.044896 0.13434 0.053609 0.20224 0.05213 -0.14796 -0.18348 -0.0036066 
-0.0050863 0.15275 0.10737 0.19599 0.014643 -0.32997 0.045553 0.061337 
-0.021363 0.12233 0.15127 0.11214 -0.037311 -0.40626 0.19616 0.075641 
-0.0044286 0.10918 0.11083 0.030427 -0.062631 -0.35381 0.11757 0.073339 
0.05624 0.0087245 0.12858 -0.04882 -0.10472 -0.17953 -0.042737 -0.021528 
0.04095 -0.10225 0.14535 -0.061151 -0.11689 0.059528 -0.06444 -0.026953 
0.11937 -0.077922 0.16919 -0.094199 -0.054246 0.30812 -0.046847 -0.063946 
0.072024 0.015794 0.13697 0.009711 0.12217 0.58648 0.088958 0.040785 
-0.028433 0.11559 0.040785 0.1003 0.29168 0.68858 0.2223 0.12694 
-0.091732 0.13976 -0.038298 0.044238 0.26159 0.4311 0.15653 0.1179 
-0.076606 0.147 -0.047505 -0.028597 0.083204 -0.10012 -0.018733 0.087972 
-0.057534 0.18448 -0.098967 -0.053588 -0.071674 -0.52003 -0.14139 0.033222 
-0.00015387 0.17824 -0.12215 -0.020706 -0.10702 -0.54354 -0.14369 0.007738 
0.024179 0.084026 -0.076771 -0.038133 -0.10028 -0.33161 -0.075784 0.0093821 
0.022206 0.018754 0.047855 -0.025638 -0.045861 -0.021856 0.049828 0.051308 
0.031249 -0.010348 0.10819 0.040621 0.0051074 0.22526 0.14601 0.06183 
0.044402 -0.047669 0.079094 0.017438 0.034537 0.24088 0.159 0.053774 
0.051801 -0.057205 0.12497 -0.0070593 0.013821 0.17051 0.10984 0.030263 
0.053609 -0.055726 0.13039 0.026317 0.030098 -0.021034 -0.026131 0.024837 
0.057884 -0.080059 0.10819 0.034537 0.01974 -0.28015 -0.14517 -0.0019624 
0.043416 -0.097816 0.10622 0.0026412 0.0047785 -0.3469 -0.1575 0.0067515 
0.018589 -0.083018 0.15949 -0.016266 -0.036325 -0.25368 -0.1016 -0.027282 
0.032729 0.0087245 0.24022 0.027303 -0.039942 -0.14813 -0.059343 -0.0026201 
0.022206 0.16755 0.21276 0.073668 0.0065871 0.021713 0.086492 0.011848 
0.032071 0.12513 0.048019 0.10376 0.045718 0.2195 0.30582 0.034373 
0.047033 0.0324 -0.088115 0.099645 0.068407 0.2948 0.42009 0.026646 
0.066927 0.0023123 -0.10982 0.12003 0.068571 0.31108 0.39312 0.045389 
0.035195 0.039305 -0.045368 0.11247 0.10326 0.25239 0.23562 0.067256 
0.0036276 0.033551 -0.030735 0.12957 0.092411 0.14272 0.084355 0.063968 
-0.03764 0.029934 -0.10078 0.13368 0.087808 0.074654 -0.010183 0.090767 
-0.041422 0.0013258 -0.14665 0.01974 0.0013258 -0.0064016 -0.11212 0.068078 
0.01152 -0.035338 -0.20863 -0.083347 -0.036325 -0.10702 -0.17871 0.019083 
0.052952 -0.1136 -0.16046 -0.088608 -0.064275 -0.17953 -0.21636 -0.041586 
0.062488 -0.05885 -0.075455 -0.019884 -0.0029489 -0.042079 -0.1746 -0.019555 
0.040621 0.1174 -0.018897 0.0093821 0.045224 0.14683 -0.0771 0.013164 
0.0064227 0.29694 -0.024323 -0.03501 0.11313 0.2856 0.086985 0.061337 
0.028947 0.31799 -0.086636 -0.019555 0.1077 0.25321 0.10425 0.042923 
0.032236 0.26718 -0.045039 -0.059836 0.07301 0.16426 0.012342 0.015794 
0.060679 0.16558 0.10376 -0.041422 -0.045861 0.01004 -0.0057439 -0.013965 
0.091096 0.070544 0.37372 -0.058356 -0.14352 -0.074633 0.038648 0.013657 
0.075476 -0.00031829 0.77736 -0.099789 -0.14336 -0.15931 0.11905 0.022206 
0.055747 -0.055232 1.0911 -0.12708 -0.092719 -0.18594 0.12398 0.0227 
0.02829 -0.051451 0.7185 -0.071016 0.028619 -0.12462 0.012013 0.0070803 
0.015301 -0.022021 -0.10867 0.057555 0.12612 0.0036276 -0.042079 -0.0029489 
-0.0067304 -0.05885 -0.68083 0.11872 0.15818 0.21342 0.033715 0.032729 
-0.024158 -0.066577 -0.77388 0.16262 0.13779 0.36254 0.14404 0.072681 
-0.015609 0.023028 -0.60684 0.17692 0.15851 0.51643 0.23331 0.071366 
0.0093821 0.13203 -0.3012 0.097015 0.079916 0.43308 0.13417 0.046868 
0.058706 0.12283 -0.036489 0.005765 -0.045203 -0.028433 -0.058521 -0.050958 
0.090438 0.030263 0.07449 -0.013307 -0.0406 -0.20107 -0.11755 -0.056548 
0.082875 -0.0022913 0.12447 0.078107 0.027632 -0.16177 -0.11524 -0.035667 
0.068736 0.055582 0.11855 0.079258 0.076627 -0.12807 -0.065919 -0.0026201 
0.018096 0.18826 0.14157 0.10162 0.033715 -0.12067 -0.018897 0.050814 
-0.026296 0.23512 0.20536 0.073504 0.043909 -0.096336 0.028619 0.075312 
0.014972 0.14749 0.26685 0.026481 0.049664 -0.060658 0.10408 0.073832 
0.075641 -0.10521 0.32407 -0.028597 0.027961 -0.035338 0.13417 0.033715 
0.046375 -0.80923 0.35745 -0.087458 -0.023172 -0.021692 0.15423 0.039634 
-0.013143 -1.9417 0.23134 -0.079072 -0.020048 0.01152 0.13483 0.033387 
-0.011005 -2.0346 0.061337 -0.087129 -0.016431 0.031414 0.013164 0.033222 
-0.10242 -0.58892 -0.058685 -0.066906 0.011848 0.025166 -0.039613 0.030098 
-0.1062 2.3607 -0.17953 0.03799 0.0067515 -0.030077 -0.03912 0.025824 
0.13088 3.824 -0.30185 0.10704 0.029769 -0.056548 -0.03912 0.01004 
0.26932 2.925 -0.25088 0.12957 0.019411 -0.06296 -0.11968 -0.013965 
0.17659 0.53452 -0.084663 0.07449 0.025166 0.012999 -0.099131 -0.0082102 
0.032893 -1.009 0.017603 0.013986 0.026317 0.045224 -0.029091 0.0080668 
-0.059507 -1.4595 0.08419 -0.047012 -0.00031829 0.060679 0.093726 0.028619 
-0.11327 -1.1907 0.062488 -0.087458 0.0088889 0.017274 0.16081 0.068078 
-0.088937 -0.57396 0.10047 0.010533 -0.0027845 -0.082196 0.21276 0.066598 
-0.0036066 -0.056877 0.090109 0.0072447 0.023193 -0.034352 0.24417 0.04095 
0.086821 0.10014 0.06035 0.037332 0.021056 0.11954 0.23907 0.015794 
0.062817 0.039963 0.0227 0.078107 0.095371 0.20816 0.15144 0.03388 
-0.02235 -0.056383 0.0080668 0.15308 0.20553 0.34199 0.036182 0.073668 
-0.024158 -0.017911 0.027139 0.15949 0.29563 0.58236 -0.079401 0.079751 
0.035688 0.0067515 0.052459 0.15111 0.2491 0.47533 -0.084334 0.044731 
0.048348 0.026152 0.020562 0.15127 0.11132 0.1391 -0.023501 0.02829 
0.011684 0.065776 0.029605 0.099645 -0.018568 -0.17427 0.052952 0.030263 
-0.033365 0.17117 0.0064227 0.10819 -0.060658 -0.42204 -0.040435 0.013492 
-0.063453 0.20717 -0.012978 0.11099 -0.045861 -0.42533 -0.080388 0.051965 
-0.086964 0.26225 -0.023994 0.081724 -0.060987 -0.2767 -0.074304 0.0592 
-0.057534 0.18563 -0.081539 -0.015773 -0.08532 -0.17197 -0.063782 0.036839 
0.0074092 -0.034188 -0.059178 -0.070687 -0.13448 -0.18759 -0.09946 -0.030735 
0.10556 -0.31073 0.0056006 -0.0044286 -0.026296 -0.15914 -0.15964 -0.043066 
0.11083 -0.52924 0.11395 0.037661 0.15966 0.053938 -0.09946 -0.043395 
0.068736 -0.44308 0.30171 0.026317 0.20224 0.28412 -0.053588 0.0041209 
-0.052273 0.0085601 0.24203 -0.021034 0.068242 0.30533 0.013986 0.052952 
-0.14171 0.7453 -0.13925 -0.057041 -0.019719 0.1641 0.066598 0.10754 
-0.015773 1.7147 -0.49126 0.023686 -0.068057 -0.012485 0.1248 0.062159 
0.13039 1.5448 -0.4079 0.021878 0.0072447 -0.0026201 0.10458 0.055911 
0.16673 0.41466 -0.028104 0.035195 0.065612 0.096357 0.08567 0.016945 
0.10474 -0.37847 0.07301 0.071695 0.046046 0.2218 0.14749 0.026974 
0.015959 -0.48994 0.042923 0.11181 0.027139 0.20553 0.2121 0.01415 
-0.032215 -0.40478 0.060186 0.099481 0.021384 0.0032988 0.22887 0.021384 
-0.027611 -0.31155 0.12562 0.074161 0.0085601 -0.23231 0.095206 -0.017582 
0.00017495 -0.26502 0.12612 0.023028 -0.0062372 -0.33178 -0.14615 -0.0024557 
0.0047785 -0.21702 0.05065 -0.0049219 -0.0068948 -0.26075 -0.17805 0.026317 
-0.0049219 -0.15076 -0.021199 0.0092177 0.011684 -0.11903 -0.059014 0.081889 
-0.011827 -0.043559 -0.10324 0.011848 0.021713 -0.0027845 0.070544 0.1391 
-0.0090322 0.018918 -0.11212 -0.014951 0.01711 0.10524 0.031578 0.11658 
-0.0062372 0.048841 -0.058685 0.0052718 -0.0029489 0.23825 -0.068386 0.096686 
0.0056006 0.033715 -0.016266 0.0054362 -0.049971 0.30204 -0.06707 0.062323 
0.035524 0.076956 0.056898 -0.024652 -0.06296 0.21013 0.021384 0.032071 
0.076299 0.072353 0.059035 -0.065919 -0.13267 -0.18841 0.1174 -0.082525 
0.093726 0.064625 0.10162 -0.087786 -0.15306 -0.49635 0.1659 -0.12774 
0.073832 0.02829 0.13582 -0.035338 0.00017495 -0.12231 0.24367 -0.065591 
0.038483 0.0083956 0.094877 0.083533 0.16048 0.51561 0.31289 0.076956 
0.03799 -0.039778 0.13697 0.17807 0.25535 0.58105 0.33953 0.10589 
0.042265 -0.082361 0.23266 0.16229 0.20043 0.29398 0.39263 0.11214 
0.034866 -0.065919 0.26554 0.094877 0.13795 -0.044874 0.27327 0.095371 
0.0054362 -0.045203 0.1835 0.023193 0.071037 -0.17756 0.0065871 0.068407 
0.0324 -0.034845 0.0036276 -0.028762 -0.0013048 -0.1455 -0.21323 0.033222 
0.034702 -0.042244 -0.15405 -0.095678 -0.035996 0.035031 -0.24727 0.042923 
0.024508 -0.028926 -0.22507 -0.096336 -0.057699 0.19369 -0.1769 0.015465 
0.047526 -0.065591 -0.1695 -0.051615 -0.013143 0.34923 -0.11393 0.0093821 
0.13171 -0.13251 -0.13218 0.029605 0.084519 0.56642 -0.013636 -0.0098543 
0.21276 0.10277 -0.21225 0.10326 0.14354 0.50164 0.08863 -0.016924 
0.16738 0.42946 -0.23313 0.12349 0.11033 0.16377 0.17544 0.026152 
-0.056877 0.40118 -0.20912 0.062652 -0.0024557 -0.1524 0.15324 0.059693 
-0.21521 -0.037311 -0.19383 -0.065591 -0.098473 -0.30794 0.12644 0.093726 
-0.10439 -0.38143 -0.082196 -0.13382 -0.089431 -0.30251 0.066598 0.066269 
0.048677 -0.33457 0.12792 -0.061973 -0.058685 -0.25631 0.063803 0.022864 
0.12579 -0.18265 0.41022 -0.008539 -0.031557 -0.1935 0.065447 -0.0019624 
0.12825 -0.16111 0.69219 0.067585 -0.0088678 -0.093048 0.074983 0.01415 
0.1128 -0.20534 0.99241 0.072353 0.0019835 -0.017582 0.095699 0.016452 
0.089287 -0.19104 1.2246 0.037661 0.01152 0.054596 0.04506 0.020891 
0.051965 -0.081045 0.99998 -0.044381 -0.0049219 0.048019 -0.0090322 -0.009361 
0.037004 0.070215 0.31075 -0.057205 -0.017746 0.018589 -0.043559 0.024015 
0.061995 0.27343 -0.24957 0.01974 0.024673 -0.0039354 -0.099624 1.0539e-005 
0.047197 0.26998 -0.61884 -0.035996 0.040292 0.024673 -0.15947 0.0023123 
0.043909 0.23874 -0.6144 -0.052766 0.05476 0.067256 -0.10784 -0.0096899 
0.058706 0.13746 -0.56837 -0.066413 0.066763 0.093233 -0.044546 -0.012156 
0.053609 0.038648 -0.37288 0.062652 0.038812 0.076463 0.010862 -0.004593 
0.014479 -0.0082102 -0.18643 0.11494 0.071037 0.059693 0.051308 0.0065871 
0.015137 0.00033937 -0.060987 0.12381 0.066434 0.068736 0.089945 0.02122 
0.0070803 0.0088889 0.055911 0.1299 0.09126 0.056898 0.089452 0.058049 
0.012342 -0.0052507 0.15752 0.076627 0.052459 0.034209 0.055911 0.04917 
1.0539e-005 -0.0050863 0.20849 0.074983 0.038155 -0.0138 0.0421 0.073339 
-0.0021268 0.032729 0.20273 0.096686 0.088465 -0.017746 0.067749 0.084848 
0.018096 0.089287 0.19829 0.061995 0.058871 -0.062138 -0.035667 0.04654 
0.067256 0.048677 0.23151 -0.048985 -0.073482 -0.29215 -0.2374 -0.037147 
0.10113 -0.041915 0.19665 -0.06444 -0.13185 -0.45328 -0.3617 -0.078086 
0.059035 -0.059507 0.2172 0.035195 0.027139 -0.28097 -0.14862 0.026317 
0.011191 0.035853 0.18366 0.13072 0.20454 -0.16786 -0.035996 0.075805 
0.0083956 0.065283 0.19649 0.15111 0.19879 -0.28064 -0.16424 0.034209 
0.048841 0.22444 0.25321 0.072517 0.016616 -0.3206 -0.2984 -0.078908 
0.091589 0.29152 0.19681 -0.033037 -0.15536 -0.16736 -0.25352 -0.11261 
0.09274 0.1373 0.061501 -0.09387 -0.13974 0.31141 0.027632 -0.041257 
0.028454 -0.010676 -0.10324 0.0070803 0.090603 0.93553 0.28954 0.098823 
-0.012485 -0.080552 -0.14484 0.068571 0.13088 0.82159 0.17955 0.078765 
0.026317 -0.35447 -0.08828 -0.024487 0.0085601 0.1077 -0.065097 0.0070803 
0.09833 -0.5317 -0.069701 -0.035503 0.053281 -0.25335 -0.21751 -0.041915 
0.12398 -0.16753 -0.14089 0.076627 0.28034 -0.060987 -0.16079 0.017438 
0.02122 0.60357 -0.24842 0.15193 0.33985 0.02829 -0.025474 0.070215 
-0.12675 0.98485 -0.18907 0.13368 0.13713 -0.18446 0.030592 0.10425 
-0.20501 0.59601 -0.02646 0.06742 -0.096007 -0.3788 0.040292 0.10145 
-0.057041 -0.44243 0.02829 0.05065 -0.16736 -0.39721 0.022206 0.056076 
0.071366 -0.9919 0.067585 0.031085 -0.14961 -0.35792 -0.011992 0.020233 
0.060186 -0.21077 0.056733 0.06594 -0.16572 -0.27012 0.0032988 0.00099702 
0.097015 1.4253 0.0088889 0.092247 -0.094692 -0.17509 0.046375 0.0026412 
0.21128 1.3551 0.016288 0.13154 -0.012156 -0.026131 0.076134 0.0051074 
0.23315 0.066434 -0.030735 0.10408 0.068571 0.083697 0.073997 0.018425 
0.10869 -0.59073 -0.073976 0.064461 0.076956 0.16952 0.066434 0.037826 
-0.042573 -0.21932 -0.10982 0.044238 0.10458 0.23775 0.095206 0.047526 
-0.059507 0.52252 -0.051451 0.013986 0.1345 0.28938 0.15127 0.047033 
0.020727 0.82849 0.0034632 0.05772 0.13499 0.30483 0.15259 0.055582 
0.042265 0.44064 -0.060987 0.057227 0.11954 0.29102 0.13006 0.053445 
0.036675 -0.041093 -0.12215 0.033551 0.088465 0.18843 0.08419 0.064296 
0.018918 -0.26371 -0.11853 -0.018897 0.03799 0.10737 0.07301 0.033058 
0.03092 -0.25713 -0.07825 -0.01676 -0.0039354 0.025495 0.10343 0.041607 
0.040621 -0.16769 -0.090253 0.02533 0.0039565 -0.038462 0.10885 0.01974 
0.042429 -0.034023 -0.14566 0.070708 0.0067515 -0.059672 0.096193 0.025659 
0.025001 0.0087245 -0.054246 0.11658 0.028125 -0.10554 0.010697 0.04095 
0.026481 0.033387 0.067913 0.13927 0.026317 -0.14237 -0.013636 0.054267 
0.023357 0.011355 0.17939 0.085177 -0.0032777 0.046868 0.025001 0.056569 
0.053938 -0.031228 0.26768 -0.0090322 -0.096336 0.10836 0.083533 0.052294 
0.12036 -0.096172 0.20273 -0.10275 -0.11853 0.092082 0.081067 -0.0039354 
0.15094 -0.1279 0.0227 -0.16046 -0.071181 0.14338 0.068736 -0.02498 
0.088136 0.04917 -0.14484 -0.14928 0.079751 0.19402 -0.04619 -0.041915 
-0.041093 0.38951 -0.23724 -0.02794 0.17067 0.20602 -0.14204 -0.0027845 
-0.077922 0.74645 -0.16835 0.11543 0.17774 0.22049 -0.096007 0.011026 
-0.025309 0.65898 -0.006566 0.13006 0.087808 0.14272 0.010533 0.070215 
0.026481 0.14206 0.1271 0.051143 -0.016431 0.03388 0.15555 0.07597 
0.048677 -0.23263 0.13894 0.012342 -0.012156 0.14108 0.25946 0.040621 
0.033058 -0.32421 0.087314 0.042758 0.080738 0.32308 0.25748 0.061008 
-0.0032777 -0.16375 0.055089 0.046704 0.12414 0.32654 0.1761 0.053774 
0.070215 0.17412 0.014315 0.073832 0.083204 0.17593 0.16574 0.052952 
0.15587 0.44113 -0.011992 0.070051 0.03799 0.019083 0.21227 0.048184 
0.14552 0.38194 1.0539e-005 0.056404 -0.045203 -0.11574 0.25091 0.091918 
0.033551 0.093562 0.037497 0.00050378 -0.058028 -0.089431 0.20602 0.088136 
-0.044381 -0.21734 0.12644 -0.029091 -0.040435 -0.03764 0.04654 0.071695 
-0.035832 -0.36499 0.16492 -0.047998 -0.04323 -0.13399 -0.11607 0.0014903 
0.0016547 -0.28196 0.17265 -0.10028 -0.058685 -0.26683 -0.1838 -0.040764 
0.057884 -0.11919 0.1174 -0.11327 -0.063124 -0.31846 -0.16259 -0.055397 
0.061501 -0.026624 0.090109 -0.11393 -0.029091 -0.15257 -0.024487 -0.011498 
0.019083 -0.029913 0.11313 -0.10258 -0.024487 -0.014787 0.13993 0.019083 
-0.017253 -0.066906 0.11642 -0.10127 -0.020048 0.063968 0.35465 0.061008 
-0.0067304 -0.092719 0.047526 -0.067564 -0.043395 0.039963 0.51035 0.090438 
0.0034632 -0.19909 0.024344 0.020069 -0.036983 -0.056055 0.34199 0.05213 
0.0085601 -0.27884 -0.025802 0.060515 -0.062631 -0.30761 -0.11755 -0.030242 
0.020069 -0.14944 -0.078579 0.11411 -0.033365 -0.41102 -0.3834 -0.043888 
0.089287 0.045224 -0.098638 0.16689 0.033715 -0.10965 -0.27538 -0.0042642 
0.14453 0.15012 -0.037805 0.17692 0.11543 0.21917 -0.19975 0.031907 
0.12431 0.062981 0.055254 0.12792 0.20553 0.49917 -0.071838 0.056076 
0.043416 0.147 0.1174 0.16525 0.19172 0.50673 0.055254 0.064132 
-0.016431 0.36567 0.096521 0.16245 0.12201 0.39707 0.10556 0.042265 
0.00083261 0.33969 0.089287 0.074983 0.13302 0.5531 0.15818 -0.0014692 
0.058542 -0.14681 0.060022 0.01826 0.15505 0.7213 0.18613 0.00017495 
0.1299 -0.44341 0.21474 -0.042079 0.058049 0.43735 0.23989 -0.0016336 
0.088301 -0.31665 0.33098 -0.13843 -0.036489 -0.10834 0.25452 0.11346 
0.0070803 -0.063782 0.37553 -0.14944 -0.022679 -0.29659 0.12316 0.088136 
-0.058028 0.02122 0.25485 -0.13366 0.01826 -0.25812 0.045389 0.09274 
-0.095843 -0.029255 0.01826 -0.079072 0.0013258 -0.30284 -0.066248 0.066763 
-0.10308 -0.098473 -0.13004 -0.023829 -0.044052 -0.36236 -0.1404 0.039963 
-0.096994 -0.14237 -0.21323 -0.03764 -0.073976 -0.30777 -0.12445 -0.0042642 
-0.011005 -0.14023 -0.22425 -0.014458 -0.073976 -0.17016 -0.059672 0.012999 
0.045553 -0.011663 -0.15207 -0.0042642 -0.029091 -0.071345 -0.013636 -0.012814 
0.079258 0.16426 -0.012649 0.015794 0.0028056 0.035031 0.055254 0.0032988 
0.071366 0.25156 0.22427 0.084355 0.020233 0.12069 0.1419 -0.0067304 
0.02122 0.21572 0.26801 0.14305 0.074819 0.12003 0.17643 0.053609 
-0.014129 0.034702 0.11806 0.11428 0.076463 0.054267 0.068407 0.041936 
0.032564 -0.089595 -0.037311 0.061995 0.055747 -0.038462 -0.080717 0.031085 
0.036675 0.0067515 -0.11179 0.052787 0.042758 -0.094692 -0.17197 0.013657 
0.016288 0.17347 -0.10949 -0.02498 0.048348 -0.073154 -0.20205 0.0042853 
0.044731 0.15489 -0.065262 0.021713 0.053281 0.028454 -0.16029 -0.021034 
0.015465 -0.0070593 -0.034023 0.096028 0.066105 0.15028 -0.080881 0.017767 
0.068571 -0.22178 0.048348 0.12053 0.055418 0.17149 -0.023172 0.0026412 
0.14486 -0.26552 0.10211 0.058377 0.01711 0.076956 -0.003771 -0.012978 
0.16771 0.10211 0.14617 0.04095 0.037332 -0.079237 -0.016102 -0.027611 
0.0421 0.37948 0.099152 0.048677 0.020562 -0.28278 -0.069208 -0.021034 
-0.16736 0.17626 0.09981 -0.0026201 -0.025474 -0.41234 -0.10949 0.030098 
-0.26141 -0.032379 0.12809 -0.018568 -0.078415 -0.40478 -0.051122 0.069558 
-0.13185 0.14848 0.073832 -0.041751 -0.11656 -0.36466 -0.0080457 0.088136 
0.051636 0.3387 0.012177 -0.067399 -0.109 -0.35677 -0.017253 0.018754 
0.17939 0.27853 -0.030406 -0.073482 -0.062302 -0.13826 -0.074304 -0.041586 
0.21391 0.1128 -0.0075525 -0.030077 0.082875 0.25551 -0.16292 -0.098802 
0.12891 0.010369 0.0037921 0.066763 0.19583 0.53304 -0.22737 -0.05441 
0.020233 -0.023336 -0.040271 0.073832 0.27754 0.54915 -0.3109 -0.0034422 
-0.053753 0.018425 -0.011005 0.035688 0.23529 0.57234 -0.12889 0.091589 
-0.085813 0.08567 0.014808 0.069722 0.21276 0.69071 0.19681 0.14798 
-0.093048 0.14404 0.023686 0.099152 0.083862 0.38638 0.19944 0.13549 
-0.03057 0.1202 0.0019835 0.08008 -0.0868 -0.49274 -0.083512 0.010533 
0.0041209 0.0592 0.033222 0.063474 -0.12938 -0.79098 -0.24102 -0.042079 
0.03947 0.0036276 0.12957 0.055089 -0.032708 -0.41546 0.004943 -0.073154 
0.051472 -0.011663 0.14798 0.03536 0.017603 0.039963 0.40003 -0.014293 
0.067585 -0.04471 0.11017 0.045224 0.023851 0.33574 0.51035 0.038812 
0.063474 -0.10127 0.053609 0.12003 0.050157 0.5018 0.48306 0.087314 
0.047197 -0.064111 -0.03616 0.14601 0.10293 0.48174 0.36813 0.1003 
0.045553 0.042265 -0.065426 0.12266 0.065118 0.28954 0.15933 0.044402 
0.080738 0.13697 -0.13316 0.07597 0.055582 0.065118 -0.052602 0.030592 
0.040785 0.29448 -0.14155 0.085506 0.1294 0.019083 -0.076935 0.086985 
-0.056877 0.49934 -0.10324 0.1026 0.12891 -0.078908 -0.047669 0.10655 
-0.090746 0.44179 -0.028104 0.10622 0.025166 -0.2859 -0.088608 0.032236 
-0.059507 -0.045039 0.03799 0.063968 -0.048985 -0.30284 -0.10439 0.028783 
0.010369 -0.40905 0.078929 -0.047669 -0.054082 -0.19761 -0.11755 -0.0080457 
0.085012 -0.44456 0.1179 -0.10702 -0.068386 -0.071345 -0.064604 -0.011663 
0.091918 -0.21751 0.066269 -0.11442 -0.040271 0.010369 0.055582 -0.018568 
0.044896 0.10869 -0.16835 -0.096336 -0.015116 0.089123 0.22411 0.027632 
-0.009361 0.49621 -0.40165 -0.10225 0.038977 0.15785 0.31519 0.059857 
0.0028056 0.77983 -0.32997 -0.046683 0.071859 0.23545 0.29415 0.088301 
0.0018191 0.52926 0.068407 0.080409 0.1054 0.26422 0.23216 0.07449 
-0.017253 -0.12626 0.53814 0.10507 0.10935 0.25502 0.1733 0.066105 
-0.026296 -1.1534 0.6215 0.14667 0.099316 0.21342 0.094877 0.072681 
0.033058 -1.7717 0.42321 0.13023 0.087972 0.15308 0.025659 0.05624 
0.08978 -1.3584 0.25502 0.14568 0.047033 0.10606 -0.013307 0.023686 
0.092904 0.4944 0.10195 0.12513 0.044567 0.087314 0.0090533 0.022371 
0.10819 2.2171 -0.098144 0.16262 0.015794 0.077614 0.077778 0.042594 
0.056898 2.1654 -0.21274 0.14305 0.059693 0.092411 0.12447 0.070051 
-0.00031829 1.2861 -0.18183 0.038812 0.023357 0.024508 0.13056 0.05213 
0.058213 0.27228 -0.15733 -0.032379 -0.011992 -0.082854 0.048513 0.02533 
0.11559 -0.59089 -0.094692 -0.031392 -0.0091966 -0.092719 -0.0067304 -0.019884 
0.10441 -0.93896 -0.039613 -0.006566 0.020069 -0.040271 0.026646 0.010533 
0.0016547 -0.69069 -0.074633 -0.053588 -0.011498 0.0037921 0.073832 0.038977 
-0.10028 -0.14484 -0.11048 -0.068057 -0.05178 -0.0013048 0.095535 0.091425 
-0.12067 0.10967 -0.069701 -0.013965 -0.048163 -0.078908 0.12447 0.10277 
-0.065262 0.10441 0.038155 -0.015609 -0.046519 -0.11985 0.15094 0.066434 
0.0039565 -0.065591 0.14946 0.0028056 -0.05178 -0.10176 0.10474 0.046046 
0.020562 -0.11886 0.18728 0.028454 -0.018239 -0.049971 0.018754 0.0047785 
0.014643 -0.094856 0.22772 0.036017 0.064954 0.004943 -0.052437 0.021056 
0.030427 0.01563 0.28889 0.01563 0.046375 -0.12314 -0.16555 -0.028926 
0.067256 0.11872 0.2685 -0.0088678 -0.022185 -0.38192 -0.26272 -0.05178 
0.088301 0.21671 0.12858 0.026646 -0.042901 -0.51477 -0.20074 -0.07003 
0.063803 0.2126 -0.085978 0.01152 0.0026412 -0.28837 -0.063124 0.0324 
0.054432 0.19533 -0.16358 0.033387 0.018589 -0.033037 0.03651 0.077285 
0.010533 0.18333 -0.071674 0.035031 0.024015 0.29793 0.10556 0.10277 
0.01826 0.1539 0.029112 -0.0029489 0.021384 0.45346 0.088794 0.0689 
0.063968 0.12431 -0.0022913 -0.072167 -0.011992 0.12316 -0.047505 0.01152 
0.076627 0.06331 -0.13382 -0.094199 -0.084991 -0.30202 -0.21192 -0.060658 
0.073832 0.10392 -0.030899 -0.064604 -0.13136 -0.46199 -0.30152 -0.072003 
0.052459 0.1128 0.050157 -0.03353 -0.015116 -0.25713 -0.22935 -0.045532 
0.057227 0.1932 0.011191 -0.023665 0.14617 0.01711 -0.12083 0.013164 
0.011684 0.12365 0.099316 -0.015609 0.13993 -0.014293 -0.075291 0.028783 
0.03536 -0.020541 0.25091 -0.01528 -0.025802 -0.20107 -0.088115 0.0075736 
0.097837 -0.14089 0.25847 0.020727 -0.065262 -0.15141 -0.12725 -0.056548 
0.10721 -0.15191 0.031578 0.070544 0.024179 0.085177 -0.17476 -0.033694 
0.093562 -0.19268 -0.2032 0.11148 0.06331 0.17363 -0.22195 -0.062796 
0.03092 -0.34378 -0.21636 0.062652 0.0074092 0.14371 -0.16753 -0.034023 
0.023357 -0.55275 -0.13678 0.046375 0.028947 0.39115 -0.044052 0.011026 
0.12661 -0.10423 -0.050464 0.10474 0.14305 0.57332 0.00066819 0.020891 
0.12792 0.67674 0.034209 0.13762 0.15111 0.27606 -0.090417 0.029276 
-0.020377 0.87996 0.32835 0.10524 0.06479 -0.10505 -0.071838 0.019411 
-0.13168 0.40924 0.6866 0.035853 -0.049807 -0.22655 0.1544 0.090931 
-0.051944 0.10047 0.55737 -0.012814 -0.081868 -0.19104 0.36698 0.094877 
0.034373 0.025166 0.077121 -0.059014 -0.065426 -0.14303 0.34544 0.047526 
0.039963 -0.071838 -0.24842 -0.030735 0.024344 -0.064111 0.21046 -0.00031829 
0.023028 -0.19202 -0.14385 -0.00081153 0.071695 0.041936 0.05213 0.0047785 
0.010697 -0.24151 0.011848 -0.043559 0.078272 0.15735 -0.030735 0.018096 
-0.0047575 -0.23214 -0.021363 -0.07003 0.085177 0.26702 0.14239 0.083862 
-0.0080457 -0.17542 -0.14056 -0.050793 0.079258 0.34216 0.39773 0.11642 
0.0028056 -0.11524 -0.27588 0.016781 0.048019 0.26833 0.40858 0.096193 
0.020891 -0.0095255 -0.26601 0.05213 0.022042 0.15193 0.16048 0.035524 
0.038483 0.027961 -0.14106 0.073997 0.062323 0.10951 -0.13168 0.013657 
0.066598 0.056898 -0.025967 0.064132 0.070873 0.082217 -0.27144 -0.012649 
0.083368 -0.016924 0.088301 0.027303 0.076627 0.067256 -0.27259 -0.003771 
0.077614 -0.16276 0.13779 0.024673 0.037826 0.074326 -0.18052 -0.0072237 
0.10178 -0.28295 0.15078 0.08008 0.01826 0.048348 -0.1085 -0.010019 
0.095699 -0.14434 0.12579 0.14519 0.0026412 0.0083956 -0.021856 -0.024158 
0.020562 0.057062 0.030263 0.14009 0.019905 0.062488 0.12957 0.019411 
-0.0013048 0.16442 0.044238 0.1391 0.059035 0.14765 0.32917 0.087808 
-0.0068948 0.028125 0.11757 0.086328 0.071037 0.18383 0.3974 0.098659 
-0.015444 -0.046025 0.2121 -0.031886 0.015465 0.10639 0.30171 0.083533 
-0.015609 0.26948 0.19287 -0.06855 -0.00097594 0.0021479 0.15867 0.031249 
0.11872 0.81419 0.010862 -0.033694 -0.0077169 -0.097158 0.089945 0.0070803 
0.24219 0.74793 -0.11919 0.013164 0.032893 -0.09946 0.073339 -0.010183 
0.28379 0.16541 -0.13448 -0.0016336 0.088794 0.0036276 0.095042 0.012177 
0.19731 -0.03764 -0.099789 0.018589 0.12085 0.11346 0.1373 0.0024767 
0.0024767 -0.028926 -0.070687 0.088465 0.11263 0.14667 0.12217 0.050979 
-0.23839 -0.33753 0.013986 0.12924 0.089452 0.18826 0.12579 0.093398 
-0.25006 -0.66652 0.14371 0.078107 0.054103 0.15982 0.15505 0.1368 
-0.13481 -0.45328 0.16656 0.0064227 0.043909 0.10096 0.17971 0.10819 
-0.00081153 0.063968 0.064461 0.010204 0.0051074 0.062652 0.17906 0.11083 
0.058049 0.32045 -0.059836 -0.020541 -0.030242 -0.026296 0.14354 0.085012 
0.038483 0.27524 -0.091404 0.058542 -0.009361 -0.12511 0.045224 0.060186 
0.036675 0.21194 -0.059507 0.11329 -0.021363 -0.17838 -0.0049219 0.023193 
0.053281 0.2902 -0.049314 0.091753 -0.009361 -0.16802 -0.084663 0.00050378 
0.039305 0.31996 -0.022021 0.093891 0.0059294 -0.12198 -0.090253 -0.01117 
0.072353 -0.094527 0.076299 0.093891 0.0024767 -0.12873 -0.066741 -0.0024557 
0.10228 -0.39294 0.06479 0.10441 0.025659 -0.11113 -0.024487 -0.0077169 
0.070708 -0.20255 -0.01939 0.062488 0.065776 -0.098473 -0.056712 0.005765 
0.031249 0.13351 -0.061316 0.047033 0.085835 -0.05589 -0.061809 0.022042 
0.035853 0.23989 0.02533 0.044073 0.020398 -0.033201 -0.015444 0.023357 
0.047197 0.079094 0.14765 -0.00081153 -0.070687 -0.065097 0.057884 0.048513 
0.014808 0.063803 0.22131 -0.056219 -0.079895 -0.14287 0.048841 0.053938 
-0.026789 0.21835 0.073832 -0.068221 -0.062138 -0.31155 -0.12905 0.038812 
0.029112 0.27425 -0.14878 0.0042853 -0.040928 -0.32339 -0.33556 -0.016431 
0.080902 0.2953 -0.25779 0.041607 -0.029584 -0.12659 -0.30777 -0.0039354 
0.045553 0.24647 -0.22376 0.077121 0.0088889 -0.047998 -0.15437 0.0098754 
0.044402 0.072188 -0.1039 0.064625 0.048348 -0.13645 -0.058521 -0.0047575 
0.063474 -0.08828 0.0036276 -0.0055795 0.057062 -0.0406 -0.021034 -0.049478 
0.055418 -0.12609 -0.022514 0.0024767 0.10293 0.28856 -0.012156 -0.061973 
0.0085601 -0.031557 -0.065591 0.023028 0.18646 0.73922 0.18794 0.02829 
-0.032215 0.041278 0.059035 0.0023123 0.1881 0.94161 0.47582 0.13828 
-0.037147 0.035195 0.14469 -0.05178 0.13812 0.8058 0.57102 0.14815 
-0.010019 -0.027775 0.24647 -0.038462 0.048184 0.32703 0.40069 0.093069 
0.030592 -0.091075 0.34512 0.056404 -0.026131 -0.35052 -0.077264 -0.021363 
0.095042 -0.15487 0.35202 0.057391 -0.080388 -0.69743 -0.45213 -0.087293 
0.085835 -0.089595 0.25107 0.063474 -0.011498 -0.45311 -0.40017 -0.037147 
-0.016595 -0.0070593 0.073339 0.08419 0.073504 0.032071 -0.18035 0.053281 
-0.060494 -0.56656 0.04506 0.067749 0.11822 0.27146 -0.043724 0.047033 
0.056898 -1.1583 0.20586 0.047362 0.072517 0.063145 -0.025309 0.021713 
0.14321 -0.98433 0.36172 0.022371 -0.017417 -0.21175 -0.041093 0.0039565 
0.11395 0.49079 0.31601 0.053281 -0.063618 -0.34904 -0.12462 -0.025309 
