0.04358 -0.050629 0.14124 0.01415 -0.078908 0.033387 0.022042 0.013821 
0.15357 -0.048163 0.11757 -0.00015387 -0.079566 -0.062467 -0.018404 0.26094 
0.21523 0.033387 0.07301 0.00033937 -0.069865 -0.11541 -0.012649 0.32029 
0.10162 0.11181 0.0072447 0.017932 -0.031392 -0.12462 0.0032988 0.11198 
-0.12412 0.19764 -0.0091966 0.055418 -0.045861 -0.041422 0.067749 -0.056219 
-0.29478 0.19205 -0.03205 0.025495 -0.053095 0.064625 0.1276 -0.096007 
-0.28179 0.10162 -0.010348 0.00017495 -0.069701 0.12957 0.15768 -0.067235 
-0.087293 0.027961 0.045389 0.011026 -0.049478 0.15012 0.061008 -0.047669 
0.13598 -0.045039 0.092904 0.0093821 -0.076442 0.10096 -0.032708 -0.063946 
0.23068 -0.033037 0.096028 -0.006566 -0.1011 0.042758 -0.10341 -0.027775 
0.23775 -0.013965 0.084519 -0.016431 -0.11196 -0.011663 -0.12083 -0.047012 
0.19501 -0.00097594 0.055254 0.035195 -0.082361 -0.020212 -0.066248 -0.17986 
0.11411 0.01563 0.032236 0.040292 -0.071838 -0.021199 0.0065871 -0.12494 
0.055747 0.027796 0.038319 0.038977 -0.059343 0.00066819 0.071695 0.11411 
0.027139 0.047362 0.015465 0.03388 -0.056383 -0.010841 0.073504 0.21687 
0.024837 0.050814 0.025988 0.044567 -0.057863 -0.018733 0.063474 0.25518 
0.029605 0.057227 0.033058 0.026646 -0.057205 -0.023007 0.058049 0.24893 
0.038319 0.01711 0.08156 0.026152 -0.049971 0.061008 0.0088889 -0.0060728 
0.024508 0.014479 0.047855 0.034044 -0.02235 0.086657 0.03651 -0.15076 
0.028619 -0.020541 0.013164 0.021878 -0.030242 0.11444 0.00050378 -0.19038 
0.06183 0.014808 0.0083956 0.037826 -0.01939 0.0059294 -0.030406 -0.10686 
0.065612 0.039634 0.004943 0.069064 0.034702 0.013328 -0.066413 -0.016924 
0.11625 0.041772 0.041443 0.096357 0.051801 0.028619 -0.087458 0.013328 
0.14749 0.027468 -0.0034422 0.071037 0.01711 0.02122 -0.070194 -0.033694 
0.10836 0.06742 0.014479 0.021549 -0.029584 0.044896 -0.023994 -0.092719 
-0.0042642 0.12283 0.039799 -0.033201 -0.10045 0.038648 0.042429 0.043909 
-0.0771 0.10129 0.089945 -0.030077 -0.13284 0.030427 0.098494 0.23068 
-0.054246 -0.014787 0.090438 -0.034681 -0.17131 0.038319 0.13039 0.19764 
0.041278 -0.056383 0.071202 -0.028926 -0.17591 -0.020706 0.071695 -0.14961 
0.073504 0.040128 0.0087245 -0.01676 -0.16391 -0.089924 0.047526 -0.40658 
0.020233 0.19796 0.0041209 0.043745 -0.12478 -0.076277 0.057227 -0.41349 
-0.060658 0.19796 0.061172 0.037661 -0.10078 0.023357 0.08008 -0.1552 
-0.1667 0.14256 0.054103 0.050979 -0.069372 0.094384 0.14223 0.1687 
-0.18002 0.04917 0.031907 0.031414 -0.041422 0.17297 0.17445 0.66605 
-0.047998 -0.024652 0.046375 0.078272 -0.03616 0.19073 0.12546 1.0169 
0.12201 -0.043066 0.0689 0.056569 -0.018404 0.064954 0.00066819 0.75747 
0.2052 -0.027611 0.01004 0.058542 -0.0049219 -0.099789 -0.07825 0.2029 
0.21589 0.027961 -0.028104 0.055418 0.022371 -0.12593 -0.090581 -0.14599 
0.16558 0.043745 -0.023665 0.067749 0.005765 -0.04471 -0.056712 -0.23263 
0.1128 0.031085 0.00050378 0.021878 -0.020541 0.01415 -0.024816 -0.30136 
0.043909 0.03799 0.045224 -0.0013048 -0.043724 0.087808 -0.041093 -0.38225 
0.010369 0.037168 0.029934 0.010862 -0.051451 0.11017 -0.082361 -0.31994 
0.019247 0.038155 0.048019 -0.0073881 -0.082525 0.11921 -0.061151 -0.054739 
0.042923 0.030427 0.056404 -0.00015387 -0.07825 0.12118 0.0064227 0.13121 
0.038812 0.012013 0.085341 -0.0057439 -0.084005 0.067091 0.076627 0.066763 
0.036182 0.01267 0.048348 0.036346 -0.077428 -0.01939 0.12431 -0.0036066 
0.025824 0.024837 0.040785 0.018425 -0.073647 -0.074304 0.11773 0.018096 
0.01267 0.056404 0.021549 0.024179 -0.078579 -0.04471 0.077121 0.10014 
0.0098754 0.082546 0.022864 0.030756 -0.047012 -0.017746 0.052459 0.21523 
-0.018075 0.087972 0.0227 0.059693 -0.066084 0.046211 0.062981 0.32391 
-0.025309 0.075476 -0.011663 0.037168 -0.060494 0.057884 0.06594 0.23167 
-0.017911 0.063145 -0.0070593 0.038155 -0.054575 0.022042 0.048019 0.087479 
-0.0050863 0.038812 0.028947 0.047855 -0.022021 0.045389 0.020069 -0.022185 
0.020891 0.052952 0.058377 0.041607 -0.053424 0.038483 -0.0031133 -0.047998 
0.029276 0.043416 0.0064227 0.028454 -0.058356 0.00066819 -0.025802 -0.040928 
0.0065871 0.046704 0.01974 0.0016547 -0.074633 -0.020706 -0.0029489 -0.03912 
-0.031721 0.021878 0.038648 -0.0080457 -0.091404 -0.03912 0.0067515 -0.041751 
-0.0075525 0.06479 0.074654 -0.041586 -0.11672 -0.023665 0.0421 0.0065871 
-0.0095255 0.09274 0.058377 -0.003771 -0.0406 0.023193 0.047691 0.066927 
0.052623 0.10984 0.056076 0.027139 0.015137 0.027303 0.076299 0.063803 
0.1539 -0.010512 0.051472 0.041443 0.00297 0.047362 0.056569 0.090274 
0.1932 -0.040435 0.058706 0.020891 -0.027611 0.044402 0.040621 0.13023 
0.1419 -0.0042642 0.062652 0.044731 -0.033201 0.047855 0.0072447 0.21408 
0.061995 0.047197 0.0098754 0.055254 -0.025802 0.025824 0.012013 0.14831 
-0.014622 0.047526 0.012999 0.10655 -0.044381 0.030098 0.048184 0.092576 
0.017767 -0.010841 0.043416 0.062652 -0.052273 0.033715 0.01152 -0.077922 
0.080409 -0.0406 0.085506 0.034702 -0.058685 0.025166 -0.023829 -0.22721 
0.063145 0.010533 0.03651 0.039634 -0.041915 -0.0016336 -0.025638 -0.24529 
0.00083261 0.12217 -0.019884 0.062323 -0.053095 -0.0098543 -0.02087 -0.18019 
-0.079895 0.19353 -0.045039 0.059857 -0.056055 -0.0022913 -0.010676 0.017767 
-0.10045 0.19944 -0.055232 0.047197 -0.07414 0.039141 0.033058 0.30303 
-0.049807 0.13253 0.0023123 0.05213 -0.076606 0.033058 0.061501 0.23118 
-0.0014692 0.091096 0.0023123 0.0021479 -0.10982 -0.030899 0.050157 -0.15224 
-0.024487 0.045224 0.036182 -0.0054151 -0.088937 0.0060938 0.070215 -0.2647 
-0.034681 0.025166 0.059857 0.022864 -0.03057 0.089452 0.099481 -0.053424 
-0.058521 0.031085 0.048019 0.063968 0.013657 0.15916 0.17643 0.25567 
-0.047012 0.01415 0.04095 0.029441 0.023357 0.14996 0.21852 0.48487 
0.03092 -0.026953 0.056898 0.042265 0.020398 0.027139 0.14338 0.3415 
0.12891 -0.079401 0.081067 0.012999 -0.011334 -0.071016 -0.023007 -0.031228 
0.17971 -0.054739 0.077614 0.037168 -0.050958 -0.10719 -0.14944 -0.35512 
0.17939 0.013492 0.08008 0.018918 -0.065591 -0.085813 -0.13021 -0.30859 
0.092411 0.047526 0.033715 0.031414 -0.063289 0.0024767 -0.047341 -0.0016336 
0.0064227 0.069886 0.019247 0.019411 -0.060658 0.029769 0.024673 0.26307 
0.010533 0.044073 0.0227 0.060679 -0.07973 0.031085 0.039799 0.28231 
0.027632 0.046868 -0.0022913 0.067913 -0.065591 0.064132 0.032071 0.17495 
-0.012814 0.10836 -0.0029489 0.053938 -0.062138 0.11165 0.029441 -0.057699 
-0.045696 0.11395 -0.023829 0.06183 -0.049478 0.080738 0.046375 -0.32799 
-0.027447 0.045553 0.0067515 0.0421 -0.088115 0.022042 0.019411 -0.46018 
0.11115 -0.034845 0.061337 0.025824 -0.10489 0.0090533 -0.015773 -0.31386 
0.19254 -0.034681 0.10195 0.016123 -0.12018 0.055254 -0.016102 0.070215 
0.16459 0.060515 0.076299 0.0041209 -0.12346 0.079916 0.037004 0.56987 
0.082382 0.08008 0.072517 -0.027282 -0.13119 0.022864 0.096686 0.70913 
0.0036276 0.061666 0.065283 -0.025145 -0.11409 -0.029748 0.082382 0.42897 
-0.092719 0.075805 0.0085601 0.033058 -0.033037 -0.074304 0.04654 -0.046847 
-0.16062 0.13187 -0.018733 0.088465 -0.010841 -0.1011 0.062488 -0.3765 
-0.17246 0.19122 -0.079566 0.060679 -0.014787 -0.050136 0.070708 -0.40165 
-0.12462 0.15209 -0.03764 0.036839 -0.031886 -0.003771 0.056404 -0.29988 
-0.056055 0.027961 0.03651 0.041936 -0.032215 0.032893 0.039963 -0.15174 
0.056076 -0.068221 0.11642 -0.011827 -0.082196 0.075641 0.0421 0.055747 
0.087643 -0.07562 0.10014 -0.0052507 -0.037805 0.12727 0.067913 0.1881 
0.047526 0.059857 0.038319 -0.00064712 -0.03501 0.10178 0.025166 0.08156 
-0.0021268 0.15407 0.0065871 0.051965 -0.012978 0.074983 0.0067515 -0.0091966 
-0.059507 0.11559 -0.0059084 0.052787 -0.051451 0.090274 0.013657 0.012835 
-0.056055 0.063145 0.019411 0.014972 -0.073154 0.062323 0.063803 0.12908 
0.0024767 0.036346 0.0046141 0.0064227 -0.091075 0.10606 0.083368 0.34364 
0.10606 0.018425 0.037004 0.042923 -0.075784 0.094055 0.093069 0.37652 
0.16952 -0.0088678 0.043745 0.027303 -0.075949 -0.00031829 0.064625 0.16738 
0.19813 -0.047341 0.079916 0.047033 -0.06444 -0.069372 0.0011614 -0.049807 
0.20569 -0.10456 0.072681 0.0092177 -0.070687 -0.062302 -0.021199 -0.11771 
0.13253 -0.036489 0.06479 0.031085 -0.10867 -0.042079 -0.030735 -0.078086 
0.034373 0.061172 0.046868 0.004943 -0.11672 -0.00097594 -0.033859 -0.01939 
-0.025802 0.13976 0.044073 -0.006566 -0.11146 0.012506 -0.059672 -0.10324 
-0.035832 0.15078 0.055747 0.016123 -0.047669 -0.015938 -0.038627 -0.092719 
-0.035338 0.076299 0.021056 0.036839 -0.03501 0.018754 -0.01939 0.00083261 
0.0082312 -0.00081153 0.042429 0.03536 -0.0052507 0.021878 -0.0050863 0.090274 
0.01563 -0.036654 0.058706 0.031742 -0.006566 0.047855 0.018425 0.097508 
0.030098 0.010533 0.067091 0.03799 0.00066819 0.091096 0.048184 0.035688 
0.08863 0.04358 0.011026 0.021384 -0.020212 0.10869 0.022206 -0.063946 
0.14404 0.055418 -0.021199 0.035195 -0.015773 0.1419 0.060844 -0.06148 
0.13664 0.048841 0.013657 0.017603 -0.035667 0.11313 0.082875 0.021549 
0.041443 0.064132 0.0090533 0.06479 -0.034188 0.031414 0.077121 -0.021034 
-0.046683 0.073339 0.030592 0.054925 -0.056055 -0.028762 0.046704 -0.0021268 
-0.07825 0.073339 0.020562 -0.0026201 -0.089595 -0.03912 0.018918 0.039634 
-0.049807 0.047526 -0.0014692 0.021878 -0.063289 -0.051287 -0.013636 0.13483 
0.0070803 0.026317 0.012999 0.050321 -0.064768 1.0539e-005 0.0032988 0.39444 
0.026481 0.0039565 0.040292 0.011848 -0.068714 0.0036276 0.082053 0.42321 
0.077449 0.0065871 0.041772 -0.0026201 -0.062138 -0.017417 0.11839 0.059035 
0.090931 0.020562 0.038155 0.025495 -0.0096899 -0.042079 0.096193 -0.31879 
0.09833 0.031578 0.043909 0.026646 -0.03616 0.0324 0.024344 -0.3857 
0.10688 0.010533 0.060515 -0.0021268 -0.057863 0.068407 -0.037805 -0.33326 
0.059035 0.046375 0.039634 0.0059294 -0.054904 0.1026 -0.032379 -0.010841 
0.011026 0.11 -0.0057439 0.058706 -0.01528 0.14881 0.0064227 0.45166 
-0.021856 0.12184 0.0023123 0.033058 -0.051122 0.17593 -0.0055795 0.63005 
-0.0083746 0.073668 0.039634 0.01711 -0.076606 0.13762 0.0039565 0.3392 
0.0016547 0.017932 0.081067 0.020233 -0.073318 0.044238 0.015137 0.043745 
0.0062583 0.013164 0.050157 0.064132 -0.049971 -0.053424 0.012835 -0.17082 
0.056733 0.016945 0.023028 0.048677 -0.042901 -0.10028 0.0065871 -0.26519 
0.14108 -0.0059084 0.025495 0.017767 -0.086142 -0.1182 0.031249 -0.18232 
0.20191 -0.020706 0.061337 0.015794 -0.07562 -0.11212 -0.034516 -0.0868 
0.22115 -0.0077169 0.11822 0.044567 -0.1016 -0.093048 -0.068714 0.047855 
0.10754 0.062981 -0.0078813 0.016616 -0.10275 -0.069865 -0.02498 0.13861 
-0.0047575 0.1322 -0.021034 0.025166 -0.086636 -0.018404 0.066105 0.12184 
-0.11393 0.13335 -0.0055795 0.0024767 -0.072167 0.059035 0.12957 -0.04619 
-0.11179 0.11099 0.051143 0.040292 -0.072825 0.08567 0.088136 -0.26979 
-0.024323 0.018589 0.075805 0.026317 -0.073318 0.1008 -0.022185 -0.30531 
0.082711 -0.034352 0.081889 0.016616 -0.055397 0.041278 -0.069208 -0.045368 
0.056404 -0.0042642 0.077614 0.020562 -0.030735 0.038319 0.03388 0.15292 
0.007738 0.023193 0.047197 0.043251 -0.03616 0.077449 0.10984 0.26324 
-0.035667 0.06479 0.042758 0.041443 -0.036654 0.082875 0.13549 0.2417 
-0.013965 0.074983 0.0046141 0.029112 -0.051451 0.054267 0.090438 0.20964 
0.012013 0.041936 0.00083261 0.024344 -0.043395 0.013821 0.025001 0.18481 
0.055582 0.048348 -0.015116 0.042429 -0.04882 0.020069 -0.023007 0.13351 
0.077614 0.044238 1.0539e-005 0.035688 -0.062302 0.030098 -0.050629 0.042429 
0.095206 0.016452 0.051308 0.047691 -0.039778 -0.018075 -0.02942 -0.059178 
0.11346 -0.0004827 0.051965 0.046211 -0.07414 -0.059014 -0.040928 -0.092554 
0.13302 -0.046519 0.099316 0.015301 -0.076277 -0.051451 -0.039284 -0.12396 
0.099316 -0.030406 0.11921 -0.015609 -0.096336 0.009711 -0.021199 -0.034845 
0.048348 0.0032988 0.14535 -0.0050863 -0.076935 0.053116 0.031907 0.072846 
0.10096 -0.041915 0.080902 0.035195 -0.080223 0.076463 -0.00031829 0.01152 
0.19533 -0.044052 0.059035 0.009711 -0.093541 0.014643 -0.080881 -0.17295 
0.17462 0.03092 0.032236 -0.011992 -0.10768 -0.073482 -0.064604 -0.34033 
0.073668 0.15472 0.0080668 0.013328 -0.092226 -0.097487 -0.04882 -0.39803 
-0.071838 0.19007 -0.0078813 0.017932 -0.081045 -0.042079 0.053609 -0.13201 
-0.26683 0.18267 -0.024652 0.043416 -0.048163 0.037332 0.1687 0.21605 
-0.50014 0.24334 -0.034681 0.055254 -0.03057 0.10507 0.30714 0.5748 
-0.56179 0.29102 -0.068057 0.097672 -0.0047575 0.16262 0.36435 0.64451 
-0.32553 0.17577 -0.038462 0.068242 -0.0055795 0.21375 0.27623 0.37224 
0.0023123 -0.0060728 -0.012156 0.046704 -0.016266 0.19353 0.088958 0.074983 
0.20257 -0.094856 0.02533 0.021878 -0.028762 0.045224 -0.060165 -0.25943 
0.28149 -0.10982 0.081889 0.022042 -0.077922 -0.13218 -0.15273 -0.39425 
0.3198 -0.060494 0.093726 -0.00031829 -0.081539 -0.18907 -0.13185 -0.31024 
0.26324 -0.042737 0.093069 -0.0064016 -0.08121 -0.18791 -0.087622 -0.22984 
0.14864 -0.0096899 0.038812 0.01152 -0.051944 -0.10209 -0.03764 -0.218 
0.053774 -0.0011404 0.028947 0.042923 -0.05326 0.023028 0.048348 -0.068879 
0.005765 0.051801 0.029934 0.016288 -0.057205 0.15407 0.097015 0.21917 
0.031414 0.063639 0.041607 0.034209 -0.058192 0.22148 0.083204 0.44722 
0.052623 0.079422 0.004943 0.043251 -0.063946 0.15226 0.049992 0.39592 
0.057391 0.036346 0.028454 0.022042 -0.07562 0.043251 0.0070803 -0.040764 
-0.0087034 0.055254 0.0421 0.03092 -0.064933 -0.060987 -0.028433 -0.37239 
-0.078908 0.050979 0.017438 0.010369 -0.048492 -0.055561 0.052623 -0.38258 
-0.12314 0.1054 0.0070803 0.075641 -0.015116 0.023522 0.14141 -0.016266 
-0.11508 0.10589 -0.021856 0.058213 -0.010512 0.11609 0.22378 0.6529 
-0.066084 0.071695 -0.026296 0.053281 -0.011663 0.18547 0.16179 0.89771 
0.034373 0.035688 -0.0067304 0.048019 0.0034632 0.074326 0.011026 0.37126 
0.10524 0.035688 0.03947 0.065776 -0.03057 -0.0091966 -0.12609 -0.11393 
0.12102 0.040621 0.040785 0.01152 -0.061645 -0.036325 -0.19038 -0.45788 
0.099974 0.088958 0.057062 -0.014951 -0.074962 -0.047834 -0.13316 -0.58086 
0.005765 0.086985 0.024015 -0.0004827 -0.059178 -0.011992 0.021878 -0.42105 
-0.054904 0.03651 0.035031 0.02681 -0.068057 0.03799 0.15505 -0.17197 
-0.052273 -0.056383 0.042429 0.031414 -0.058685 0.1105 0.23775 0.28905 
0.072681 -0.15322 0.041443 0.040785 -0.04471 0.13072 0.17824 0.5776 
0.19353 -0.096665 0.054103 0.034866 -0.052273 0.099481 0.031414 0.38359 
0.17708 0.051965 0.056076 0.016616 -0.080223 0.05065 -0.055068 0.080738 
0.072188 0.20997 0.025824 -0.013471 -0.10456 0.011355 -0.035338 -0.10521 
-0.078086 0.26028 -0.040435 0.02533 -0.07562 0.031085 0.035031 -0.065919 
-0.14566 0.15472 -0.034023 0.081395 -0.043395 0.0087245 0.097344 0.10589 
-0.11475 0.033551 0.014479 0.069064 -0.021199 0.004943 0.092411 0.16344 
0.0074092 -0.050464 0.050979 0.083697 -0.0070593 0.025495 0.043909 0.21589 
0.13286 -0.074304 0.037332 0.070544 0.0026412 0.036346 -0.0083746 0.12135 
0.18383 -0.024816 0.0054362 0.082875 -0.030077 0.031249 -0.036325 -0.091404 
0.14157 0.091096 -0.0024557 0.027961 -0.054082 -0.037311 -0.024652 -0.24036 
0.071695 0.13631 0.038812 -0.025309 -0.095349 -0.08269 -0.01676 -0.26289 
0.0083956 0.11691 0.094384 -0.077593 -0.12971 -0.037805 -0.03353 -0.15174 
0.010533 0.021713 0.1179 -0.067235 -0.14139 0.051801 -0.039449 -0.022021 
0.020398 -0.00097594 0.085341 -0.040928 -0.10653 0.076627 -0.00081153 0.11132 
0.0324 0.0090533 0.027796 0.0044497 -0.074798 0.047691 0.058542 0.2514 
0.0037921 0.010204 0.013821 0.067585 -0.014129 0.039963 0.10787 0.31848 
0.019247 0.048019 0.032729 0.057391 -0.037311 0.080409 0.09422 0.29694 
0.030098 0.051308 0.044402 0.042429 -0.042737 0.12464 0.080902 0.25041 
0.03388 0.056569 0.04095 0.032729 -0.055068 0.08567 0.015301 0.11066 
0.055582 0.045389 0.040621 0.065612 -0.041586 0.043909 -0.014787 -0.014293 
0.10639 -0.0027845 0.058542 0.037004 -0.053917 0.0056006 -0.04471 -0.10012 
0.12201 0.023357 0.032893 0.014808 -0.059178 -0.0064016 -0.033365 -0.12281 
0.10244 0.028454 0.038648 0.022535 -0.028269 -0.022021 -0.021692 -0.14714 
0.069722 0.0088889 0.029112 0.04506 -0.05589 -0.068057 -0.021199 -0.16769 
0.030427 0.038319 0.053774 0.0090533 -0.079566 -0.10061 -0.0082102 -0.15125 
-0.0019624 0.053774 0.036017 0.0074092 -0.093376 -0.11278 -0.0040998 -0.16818 
-0.03912 0.035195 0.0064227 0.037826 -0.055068 -0.028762 0.011026 -0.022021 
-0.028597 0.089287 0.021384 0.027632 -0.081868 0.058049 0.046211 0.18958 
0.0037921 0.068736 0.016123 0.023028 -0.059178 0.11543 0.079258 0.27968 
-0.0016336 0.041114 0.046868 0.017767 -0.032708 0.10984 0.099645 0.17051 
0.03536 0.040456 0.0324 0.035853 -0.019719 0.081889 0.11362 0.086163 
0.053445 0.018425 0.05065 0.013492 -0.07973 0.034702 0.074819 0.048677 
0.064296 0.063968 0.041443 0.0098754 -0.095021 0.020069 0.019083 0.038155 
0.019576 0.093233 0.033715 0.029769 -0.089102 -0.01939 -0.014622 0.081724 
-0.0019624 0.078929 0.0014903 0.054432 -0.084169 -0.013143 -0.03501 0.063145 
0.029112 0.038812 -0.0068948 0.035853 -0.070687 0.018096 -0.03764 0.05065 
0.10589 0.014315 0.0074092 0.02122 -0.06707 0.055254 -0.0503 0.056569 
0.11872 0.044238 0.039963 -0.0098543 -0.058521 0.067585 -0.044217 -0.0036066 
0.028125 0.06594 0.074326 0.0324 -0.073318 0.015137 0.038155 -0.19005 
-0.077264 0.072024 0.044567 0.025988 -0.066741 -0.032543 0.080409 -0.26124 
-0.0406 0.036017 0.019411 0.041772 -0.059178 -0.045696 0.0786 -0.20929 
0.034209 0.021549 0.011848 0.071037 -0.034845 -0.030242 0.044238 -0.068879 
0.095206 -0.018897 0.029934 0.043745 -0.065426 -0.030406 0.044073 0.041278 
0.11526 0.027961 0.018096 0.00033937 -0.077922 -0.01528 0.05213 0.12957 
0.096193 0.025495 0.048184 -0.013965 -0.074469 -0.00081153 0.027468 0.1613 
0.094548 0.03092 0.067585 0.0083956 -0.047834 0.017274 0.015794 0.092576 
0.073832 0.00066819 0.090274 0.013986 -0.05441 0.0592 -0.0059084 0.0075736 
0.042758 0.0014903 0.13401 -0.0080457 -0.075127 0.066598 -0.044546 -0.080717 
-0.0014692 0.033715 0.08419 0.00017495 -0.075949 0.075312 -0.043066 -0.11738 
-0.048163 0.071531 0.0074092 0.055582 -0.071181 0.028619 -0.024487 -0.067235 
-0.041093 0.074326 -0.023829 0.060022 -0.050136 0.013328 0.023357 0.062817 
-0.00081153 0.058542 -0.012156 0.07301 -0.03353 0.01711 0.060679 0.13483 
-0.0021268 0.041114 -0.00081153 0.060844 -0.0039354 0.012013 0.096686 0.18629 
0.014808 0.070051 -0.0021268 0.061666 -0.04323 0.01563 0.08008 0.15604 
0.045882 0.036346 0.007738 0.045718 -0.041586 0.038319 0.034044 0.055089 
0.071695 0.018918 0.040292 0.033715 -0.048163 0.059528 -0.018897 -0.08269 
0.10145 -0.0004827 0.056076 0.038648 -0.042737 0.022206 -0.040764 -0.062796 
0.10819 0.024673 0.025988 0.037826 -0.060658 0.0080668 -0.043559 0.010533 
0.081231 0.053609 0.011355 0.020727 -0.067235 0.01415 0.061501 0.049992 
0.049664 0.03536 0.05065 0.0060938 -0.08121 0.016781 0.14519 0.012835 
0.038483 0.00017495 0.094877 0.028783 -0.076606 0.0087245 0.11921 -0.016266 
0.034044 0.007738 0.051965 0.036839 -0.070852 -0.0021268 0.049664 0.056569 
0.027796 0.031249 0.021713 0.049499 -0.062138 0.021384 -0.008539 0.06594 
0.010697 0.067913 0.0067515 0.031414 -0.057041 -0.001798 -0.010348 0.051801 
0.027468 0.11757 0.021549 0.0421 -0.056219 0.0051074 -0.037311 -0.051122 
0.047526 0.069558 0.038155 0.016123 -0.060987 0.013328 -0.022843 -0.10604 
0.051801 0.029934 0.035031 0.034866 -0.048656 0.013492 -0.011663 -0.15618 
0.025988 -0.0096899 0.040621 0.010533 -0.034352 0.012013 0.052952 -0.028762 
0.028125 -0.019226 0.10047 -0.0022913 -0.067728 0.038812 0.088136 0.11642 
0.07449 -0.030077 0.13746 -0.018075 -0.080223 0.080573 0.040292 0.18744 
0.13401 -0.058028 0.11526 -0.023829 -0.084498 0.0070803 0.0067515 0.015959 
0.08304 0.034044 0.045553 0.025988 -0.03501 -0.048492 0.0072447 -0.17361 
-0.082525 0.19649 -0.052273 0.072024 -0.02087 0.014972 0.099316 -0.099789 
-0.23938 0.25814 -0.086307 0.070544 -0.011498 0.086821 0.16623 0.17495 
-0.22688 0.22871 -0.040271 0.060022 -0.02498 0.13417 0.14815 0.56148 
-0.15158 0.17084 -0.023501 0.037826 -0.035667 0.10589 0.10869 0.61854 
-0.072332 0.05213 0.03947 0.017438 -0.062467 -0.0088678 0.063803 0.23808 
0.01974 -0.059507 0.097344 -0.0096899 -0.066248 -0.10637 -0.015444 -0.19827 
0.10967 -0.062467 0.12595 -0.022021 -0.069208 -0.043559 -0.094199 -0.19071 
0.13368 0.0098754 0.08978 0.023686 -0.065591 0.053609 -0.11196 -0.20173 
0.075476 0.10277 0.0059294 0.035524 -0.032872 0.027468 -0.058685 -0.27061 
-0.0004827 0.1368 -0.040106 0.045553 -0.026624 0.022864 -0.0067304 -0.22622 
-0.001798 0.10655 -0.020212 0.017603 -0.030406 0.0421 0.0098754 -0.025309 
0.025824 0.05624 0.0054362 0.055418 -0.050629 0.088794 0.025495 0.11905 
0.025166 0.037168 0.0092177 0.028947 -0.056219 0.084684 0.061008 0.1493 
0.020233 0.036346 0.026317 0.021549 -0.056548 0.053609 0.031578 0.096686 
0.0026412 0.037661 0.028619 0.029112 -0.046519 0.030592 0.012506 -0.055068 
-0.015444 0.032729 0.057555 0.044073 -0.051122 0.0023123 -0.022514 -0.16161 
0.045389 -0.022679 0.065612 0.011355 -0.071509 -0.010676 -0.040764 -0.15092 
0.10228 -0.029091 0.084355 0.0037921 -0.081045 -0.020212 -0.018239 -0.060823 
0.067091 0.046375 0.078272 0.029276 -0.062302 -0.0036066 0.04095 0.033222 
0.041114 0.10639 0.045553 0.030427 -0.070359 0.011684 0.097508 0.147 
0.04654 0.074326 0.035195 0.025659 -0.069372 0.051965 0.14354 0.38984 
0.071859 -0.0052507 0.032893 0.0083956 -0.087786 0.075476 0.20224 0.67789 
0.050157 0.01415 0.01974 0.055089 -0.061973 0.069229 0.15867 0.59667 
-0.029748 0.11444 -0.041915 0.091753 -0.01232 0.066269 0.073997 0.22887 
-0.048492 0.22526 -0.079895 0.10672 0.016123 0.035524 -0.00064712 -0.13695 
-0.048327 0.1835 -0.089431 0.090767 0.031742 0.02533 -0.028433 -0.31599 
-0.0078813 0.056898 -0.017253 0.031907 -0.048656 0.0054362 -0.01939 -0.27144 
0.056898 -0.044217 0.079258 -0.031886 -0.088444 0.004943 0.0060938 -0.10867 
0.093891 -0.096336 0.14848 -0.054739 -0.10883 0.03799 0.026974 0.074983 
0.12381 -0.055726 0.16886 -0.040435 -0.098638 0.043251 0.012177 0.050979 
0.092411 -0.018897 0.13746 -0.020377 -0.1062 0.014315 -0.0067304 -0.05326 
0.038483 0.030756 0.074819 -0.0024557 -0.089759 -0.056548 -0.0026201 -0.13793 
0.028783 0.0592 0.043416 0.030427 -0.069701 -0.070687 -0.049478 -0.070194 
0.01711 0.071366 0.049335 0.07449 -0.047012 0.018425 -0.012814 0.037826 
-0.036654 0.12973 -0.061645 0.057062 -0.054246 0.095042 0.037332 0.15209 
-0.0016336 0.048348 -0.02087 0.059364 -0.039449 0.13434 0.08863 0.15045 
0.032893 -0.024487 0.0023123 0.08419 -0.027611 0.10096 0.020069 0.18991 
0.13401 -0.052109 0.068571 0.041114 -0.075291 0.075476 0.0024767 0.18037 
0.18777 -0.025309 0.055418 0.019411 -0.071674 0.033387 -0.019884 0.062817 
0.21868 -0.012156 0.017438 0.020891 -0.058685 0.005765 -0.050793 -0.042408 
0.24614 0.0052718 0.010862 0.037661 -0.020212 -0.027775 -0.040764 -0.086471 
0.15933 -0.017088 0.023028 0.073175 -0.031228 -0.0406 -0.009361 -0.054082 
0.055089 0.020727 0.038483 0.078765 -0.01676 -0.024158 0.074654 -0.023665 
-0.031721 0.054596 -0.0072237 0.053281 -0.026131 -0.028597 0.095699 0.048019 
-0.086471 0.060844 -0.016431 0.061995 -0.016266 0.030756 0.089616 0.022042 
-0.096665 0.11296 0.025659 0.040292 -0.056383 0.03092 0.06183 -0.030242 
0.00017495 0.061995 0.041278 -0.013307 -0.10538 0.015959 0.016288 -0.017746 
0.077778 0.026974 0.10721 -0.055068 -0.14303 0.041936 0.017438 0.055582 
0.078436 0.055747 0.048019 -0.025967 -0.14484 0.038155 0.047526 0.16426 
-0.035996 0.12349 0.019411 -0.0050863 -0.12642 0.048677 0.10211 0.27721 
-0.07414 0.12694 0.031249 0.021056 -0.10456 0.039799 0.077285 0.2879 
0.035524 0.015137 0.091589 0.0046141 -0.097322 -0.048656 -0.003771 0.074983 
0.1202 -0.063782 0.061666 0.02533 -0.088773 -0.083347 -0.035832 -0.1011 
0.082875 -0.027118 0.039963 0.012013 -0.070194 -0.057534 -0.0082102 -0.1815 
0.00050378 0.037168 0.0082312 0.046868 -0.030899 -0.0059084 0.039141 -0.11837 
-0.030077 0.063474 0.033222 0.040456 0.00083261 0.030263 0.051965 -0.060823 
-0.029091 0.069393 0.062488 0.060844 -0.015116 0.064132 0.051143 -0.022185 
0.0032988 0.040456 0.033222 0.029934 -0.032708 0.045224 0.0059294 -0.048492 
-0.0062372 0.061172 0.0421 0.065612 -0.020541 0.047691 -0.013307 -0.057699 
0.015465 0.045882 0.0080668 0.059364 -0.019061 0.068736 -0.0019624 -0.020377 
0.00083261 0.045882 0.028454 0.051308 -0.034516 0.0023123 0.026152 0.022864 
-0.0013048 0.08008 0.0014903 0.045224 -0.035503 -0.029255 0.058542 0.027796 
0.0075736 0.084848 -0.0055795 0.028783 -0.053917 -0.032215 0.0227 -0.0019624 
0.059528 0.056076 -0.025145 0.049992 -0.066577 0.0075736 0.0013258 0.022535 
0.098494 0.026974 0.016945 0.022535 -0.079072 0.029112 0.0060938 0.081231 
0.071202 0.026317 0.052623 0.029441 -0.075127 0.034866 0.033058 0.1881 
-0.0016336 0.060844 0.024508 0.034373 -0.055068 0.05772 0.027139 0.098988 
-0.06 0.083533 0.037004 0.047197 -0.083183 0.028619 0.0016547 -0.016102 
-0.043559 0.075312 0.046868 0.015465 -0.090417 0.030592 -0.028926 -0.11722 
0.017438 0.043251 0.071531 -0.0019624 -0.095843 0.0088889 -0.033365 -0.19794 
0.069064 0.0067515 0.066763 -0.017417 -0.0771 -0.0049219 -0.019555 -0.23543 
0.065283 0.028619 0.058213 0.015465 -0.07973 -0.028433 -0.019555 -0.1667 
0.049828 0.049499 0.040128 -0.010676 -0.076771 -0.026131 -0.0067304 0.028947 
0.0036276 0.076134 0.02533 -0.0026201 -0.045696 -0.038627 0.022864 0.26965 
-0.03057 0.12283 0.020562 0.071366 0.0041209 -0.056548 0.038977 0.2269 
0.014479 0.096193 -0.0096899 0.060844 -0.0096899 -0.067728 0.082217 -0.095514 
0.065118 0.073668 0.00050378 0.026152 -0.034023 -0.0032777 0.14256 -0.17887 
0.076792 0.0036276 0.038155 0.030098 -0.038956 0.092904 0.18514 -0.045039 
0.071037 -0.003771 0.027961 0.055418 -0.029584 0.15587 0.16525 0.20158 
-0.0032777 0.056404 0.0024767 0.020891 -0.046354 0.12529 0.06331 0.41466 
-0.057863 0.095206 -0.0011404 0.031414 -0.039942 0.059693 -0.038791 0.37767 
-0.11672 0.10425 0.043909 0.058213 -0.028433 0.044731 -0.1113 0.091753 
-0.090417 0.076134 0.04506 0.051472 -0.084169 0.11083 -0.11607 -0.07825 
-0.023007 0.037826 0.050814 0.029605 -0.094527 0.098001 -0.051122 -0.20123 
0.048513 0.035853 -0.00031829 -0.00031829 -0.11623 0.00297 0.029112 -0.093048 
0.020562 0.060186 0.0024767 0.020069 -0.071838 -0.01528 0.12579 0.26061 
0.0087245 0.062159 0.033058 0.036675 -0.073976 -0.001798 0.12858 0.21802 
0.021549 0.025659 0.077943 0.019411 -0.07266 -0.0026201 0.09126 -0.11031 
0.028947 0.053609 0.053609 0.027632 -0.056219 -0.026131 0.026481 -0.39146 
0.044402 0.034702 0.037004 0.040456 -0.016266 0.00083261 -0.0027845 -0.31533 
0.1105 -0.0090322 0.044402 0.01563 -0.0075525 -0.0059084 0.011026 -0.11804 
0.14453 -0.011334 0.048019 0.0069159 -0.017417 -0.01676 -0.0011404 0.11674 
0.1636 0.0044497 0.05065 0.0075736 -0.059507 0.0062583 0.018754 0.4025 
0.15571 0.00297 0.029441 0.043745 -0.076277 0.075476 0.04917 0.40841 
0.14305 -0.023994 0.021056 0.0062583 -0.094034 0.15982 0.072024 0.19057 
0.096028 -0.0064016 0.028783 -0.0095255 -0.094034 0.15357 0.044073 -0.11491 
0.04917 0.030427 0.063639 -0.014129 -0.066248 0.065776 -0.030242 -0.27078 
0.015301 0.029934 0.035853 0.034373 -0.073482 -0.012814 -0.081045 -0.3303 
-0.0021268 0.074161 -0.0062372 0.047033 -0.059836 -0.071345 -0.073318 -0.2397 
-0.052602 0.10343 -0.011827 0.070544 -0.054246 -0.06855 0.01974 0.0039565 
-0.12001 0.11099 -0.014458 0.077449 -0.033694 0.013164 0.10721 0.29365 
-0.10538 0.098823 0.004943 0.059364 -0.065919 0.072024 0.14946 0.4755 
-0.055726 0.10902 0.017274 0.012342 -0.086964 0.14749 0.13746 0.50887 
0.034866 0.097344 0.0032988 -0.017582 -0.1113 0.15127 0.055089 0.32588 
0.044073 0.094548 0.030756 0.016781 -0.093541 0.091589 0.047691 0.11691 
-0.0062372 0.058213 0.074983 0.029276 -0.078744 -0.040271 0.04358 -0.074798 
-0.0072237 -0.017911 0.062817 0.017932 -0.0503 -0.054246 0.064954 -0.1159 
0.024344 -0.02087 0.0036276 0.010697 -0.020541 -0.012814 0.055418 -0.084663 
0.080244 -0.0070593 0.020562 0.051308 -0.0029489 0.0069159 0.011355 -0.12198 
0.11839 0.014808 0.042923 0.016452 -0.027282 0.0075736 -0.042737 -0.24743 
0.10935 0.031085 0.066434 0.0056006 -0.072332 -0.0078813 -0.07266 -0.30448 
0.098494 0.04654 0.021878 0.016781 -0.060987 -0.0091966 -0.062631 -0.2762 
0.089123 0.026317 0.0036276 0.053281 -0.082361 -0.031557 -0.0067304 -0.16358 
0.091096 -0.0031133 0.01974 0.042923 -0.074469 -0.02235 0.051965 0.049006 
0.068571 0.043416 0.01711 0.047526 -0.065755 -0.017911 0.041443 0.086492 
0.040292 0.052623 0.020727 0.055418 -0.049149 -0.0040998 0.04917 0.095371 
0.012999 0.0324 0.019411 0.088136 -0.067564 0.010697 0.06183 0.09274 
0.00066819 0.013986 0.03799 0.017767 -0.059343 0.081231 0.092247 0.053281 
0.015959 -0.012978 0.063968 0.011026 -0.059507 0.13861 0.0056006 0.14881 
0.059857 0.049006 0.065776 0.040621 -0.047505 0.10211 -0.077757 0.34939 
0.062323 0.080409 0.00066819 0.04358 -0.047669 0.04654 -0.063946 0.62002 
0.053609 0.060515 -0.017911 0.046704 -0.031392 -0.019555 0.016616 0.60308 
0.047197 0.028947 0.0324 0.044731 -0.032543 -0.10472 0.053774 0.15127 
0.039799 0.0051074 0.046868 0.04095 -0.052931 -0.16243 0.071695 -0.37189 
0.014479 0.090931 0.024344 0.014315 -0.051451 -0.1233 0.071531 -0.57905 
-0.041093 0.15768 -0.0004827 0.0044497 -0.038791 0.0044497 0.086657 -0.43881 
-0.024487 0.076792 0.023851 0.01711 0.0067515 0.056076 0.066927 -0.18413 
0.048841 -0.013636 0.082382 0.040292 -0.0078813 0.088301 0.0070803 0.13401 
0.065612 -0.0087034 0.090931 0.017767 -0.018075 0.1174 -0.035996 0.45511 
0.032729 0.018754 0.039141 0.011684 -0.023007 0.11855 -0.025967 0.36846 
0.014972 0.070215 0.016452 0.038648 -0.012156 0.085835 -0.0042642 -0.01232 
0.010204 0.060022 -0.0004827 0.057391 -0.033037 0.050486 0.047033 -0.17345 
0.022206 0.030756 0.047855 0.058213 -0.051615 0.028454 0.039799 -0.11327 
0.00050378 0.020069 0.046704 0.028947 -0.090746 -0.026789 0.019411 -0.042737 
0.029276 0.048513 0.035031 0.051636 -0.099295 -0.037311 0.01711 -0.051122 
0.024179 0.051308 0.044402 0.034209 -0.11212 -0.064111 0.030592 0.02681 
0.05624 0.029112 0.050321 0.034702 -0.09387 -0.026953 0.093891 0.25173 
0.11083 0.024344 0.059528 0.031742 -0.067728 0.0042853 0.11411 0.45445 
0.13845 0.051636 0.00297 0.097344 -0.034845 0.028619 0.074161 0.35399 
0.1345 0.066763 0.0085601 0.04358 -0.037969 0.058213 0.0072447 0.16442 
0.058377 0.073504 0.004943 0.046704 -0.02235 0.075805 0.030756 0.070873 
-0.020212 0.10228 0.030592 0.05213 0.013657 0.082382 0.071531 0.12398 
-0.044052 0.055582 0.015137 0.059528 -0.0039354 0.070215 0.052294 0.096521 
-0.022514 0.040456 -0.0054151 0.03092 -0.028926 0.0047785 0.0079024 -0.015773 
0.018096 0.027796 0.03536 0.017603 -0.027775 -0.065262 -0.001798 -0.11048 
0.035524 0.06479 0.038648 0.0075736 -0.017582 -0.11574 0.032564 -0.24135 
0.029605 0.11247 0.040621 0.021384 -0.021856 -0.087622 0.021713 -0.21537 
0.045882 0.06742 0.01711 -0.011334 -0.051122 0.0034632 -0.032543 -0.24398 
0.037004 -0.0083746 0.061337 -0.0039354 -0.076606 0.097015 -0.080717 -0.20008 
0.023193 -0.034023 0.079422 0.022042 -0.079566 0.16886 -0.0868 -0.11985 
0.035688 -0.01939 0.080738 0.025001 -0.094199 0.13927 -0.021363 0.088136 
0.071531 -0.0060728 0.04095 0.020398 -0.1062 0.11198 0.023193 0.29513 
0.093233 0.017932 0.023357 0.024015 -0.10456 0.06479 0.087808 0.34479 
0.021384 0.061501 0.01711 0.048019 -0.1011 0.046211 0.12743 0.23644 
-0.044546 0.14174 0.021549 0.031249 -0.097651 0.016781 0.10655 0.15275 
-0.084005 0.12184 0.051965 0.015137 -0.10472 0.0044497 0.077614 0.035031 
-0.060494 0.095699 0.035688 0.0044497 -0.066741 0.0046141 0.030756 -0.011827 
0.032564 0.061172 0.01004 0.034537 -0.097651 -0.024158 0.017438 -0.030077 
0.086163 0.026317 0.014479 0.0011614 -0.10275 -0.0077169 -0.0013048 -0.051287 
0.094055 0.023686 0.047691 -0.0013048 -0.098638 -0.013636 -0.01232 -0.049642 
0.058871 0.017932 0.028947 0.019411 -0.05737 0.0060938 -0.023172 -0.05885 
-0.022679 0.033387 0.011026 0.018754 -0.05589 0.022535 0.041607 -0.041093 
-0.071509 0.099316 0.024837 0.029769 -0.031557 0.048019 0.064625 -0.037311 
-0.035667 0.066434 0.024179 0.057062 -0.013307 0.025495 0.030098 -0.014951 
0.040292 0.026974 0.063474 0.044731 -0.037476 0.00099702 0.01267 -0.035832 
0.13499 0.012835 0.062159 0.0065871 -0.073154 -0.018404 -0.015444 0.028619 
0.19533 -0.029091 0.069064 -0.014458 -0.081868 0.018754 -0.00081153 0.013657 
0.18498 -0.027611 0.064461 -0.026953 -0.079237 0.058377 -0.015116 -0.02794 
0.11724 0.016452 0.074326 0.022864 -0.079072 0.047197 -0.017417 -0.074304 
-0.016102 0.031085 0.030098 0.025824 -0.062302 0.059528 0.020398 -0.061151 
-0.064275 0.051472 0.016945 0.035853 -0.051122 0.050321 0.031742 0.00033937 
-0.081045 0.079094 0.017603 0.051472 -0.026789 -0.0032777 0.061337 0.026152 
-0.088937 0.094548 0.040621 0.066269 -0.049971 -0.0016336 0.063803 0.022206 
-0.091404 0.098659 0.022371 0.036182 -0.069536 0.013986 0.063968 0.0037921 
-0.06 0.079587 -0.0096899 0.015301 -0.081703 0.043251 0.043416 0.0082312 
-0.0091966 0.072353 0.0013258 0.016288 -0.073647 0.025001 0.00066819 -0.035174 
0.061172 0.06183 0.013986 0.014972 -0.084498 -0.0138 -0.031228 -0.065262 
0.12201 0.022371 0.03536 0.010204 -0.085485 -0.038298 -0.055068 -0.077428 
0.1687 0.0044497 0.020891 0.0019835 -0.079237 -0.042244 -0.044874 -0.087129 
0.13746 -0.010183 0.062652 0.027961 -0.068879 -0.014129 0.015465 0.025824 
0.021056 0.0093821 0.080573 -0.0060728 -0.086636 0.026974 0.1299 0.16623 
-0.032543 0.014479 0.10606 0.0051074 -0.072003 0.078765 0.13927 0.21556 
-0.051615 0.033551 0.088958 0.0324 -0.030077 0.089123 0.058377 0.05213 
-0.054082 0.090767 0.0021479 0.0786 -0.017746 0.078272 -0.00081153 -0.0072237 
-0.035338 0.075312 -0.013636 0.044567 -0.034681 0.032236 0.00083261 -0.01528 
0.032236 0.032893 0.0021479 0.054267 -0.034023 0.012506 1.0539e-005 -0.027611 
0.083862 0.042594 0.015465 0.043909 -0.024487 0.011848 0.011191 -0.0088678 
0.11247 0.063968 0.0026412 0.061008 -0.040271 0.048513 0.01415 0.1026 
0.071037 0.051965 0.01974 0.039305 -0.041422 0.10787 0.031742 0.15818 
0.030592 0.044567 0.010533 0.030592 -0.048492 0.092576 0.047691 0.22542 
-0.006566 0.065776 0.024344 0.055582 -0.032215 0.067913 0.046211 0.19961 
-0.031228 0.081395 0.030756 0.04654 -0.050136 -0.0088678 0.045718 0.13615 
-0.022185 0.078272 0.035031 0.014315 -0.056219 -0.034681 0.0227 0.040621 
-0.010676 0.07038 0.014808 0.018918 -0.054575 -0.036654 0.030592 -0.019555 
-0.01232 0.042758 0.024673 0.048184 -0.040106 0.035031 0.041772 -0.021528 
0.017767 0.037332 0.03536 0.049006 -0.023994 0.02533 0.060515 -0.10193 
0.015301 0.00033937 0.013328 0.055911 0.00033937 0.063145 0.067749 -0.20616 
0.012177 0.045553 -0.0078813 0.061501 0.012013 -0.0075525 0.041772 -0.24266 
0.079916 0.034209 0.0044497 0.073832 -0.016431 0.0051074 0.040785 -0.057205 
0.082875 0.062323 0.029769 0.031742 -0.053424 0.069886 0.048513 0.22953 
0.03388 0.086985 0.053281 0.00099702 -0.096007 0.11461 0.089616 0.26044 
-0.011827 0.067913 0.071531 -0.01117 -0.096336 0.083533 0.091753 0.12217 
0.021056 0.00050378 0.074819 0.019247 -0.1062 0.079422 -0.008539 0.12283 
0.056733 0.0069159 0.059857 0.015794 -0.09239 0.071037 -0.074962 0.13746 
0.093233 0.075641 0.048841 0.03092 -0.076113 0.035688 -0.092554 0.047526 
0.081231 0.091918 -0.0036066 0.038155 -0.056219 -0.032708 -0.075291 -0.047998 
0.081231 0.013492 0.01711 0.048513 -0.057205 -0.074469 -0.017088 -0.05326 
0.053281 -0.037311 0.025824 0.038155 -0.060494 -0.063782 0.034373 0.058706 
0.045718 -0.03057 0.038319 0.045553 -0.048327 0.00017495 0.079916 0.10458 
0.0023123 0.0227 0.026646 0.07449 -0.03057 0.038812 0.070215 0.092904 
-0.0029489 0.10113 -0.032379 0.063639 -0.023172 0.061995 0.056076 0.05065 
-0.029748 0.1373 -0.038462 0.044896 -0.027611 0.053281 0.036839 0.044731 
-0.025802 0.11362 -0.00064712 0.055582 -0.0029489 0.042758 0.02122 0.03651 
-0.030242 0.11214 0.074983 0.029934 -0.03764 0.032564 0.041443 0.016452 
0.020233 0.018918 0.095206 -0.031886 -0.07973 0.017767 0.023686 -0.033037 
0.1202 -0.052931 0.11083 -0.048492 -0.10817 -0.012649 0.017767 0.0083956 
0.13762 -0.037147 0.085012 -0.031557 -0.087129 -0.015116 0.033058 0.17199 
0.04654 0.048019 0.042758 0.01267 -0.094856 0.024344 0.091425 0.44541 
-0.048985 0.1248 -0.013965 0.040456 -0.060329 0.054432 0.11444 0.5457 
-0.087129 0.13845 -0.028104 0.055089 -0.040764 0.0421 0.07301 0.070708 
-0.075127 0.10096 0.00033937 0.0689 -0.023172 -0.06148 0.057227 -0.43667 
-0.01939 0.050157 0.034044 0.041936 -0.061316 -0.14517 0.053116 -0.52496 
0.067256 -0.0072237 0.050979 0.021878 -0.068879 -0.082361 -0.020706 -0.28985 
0.12398 -0.03205 0.050157 0.023193 -0.069865 0.01826 -0.089431 -0.097651 
0.12414 -0.026789 0.04506 0.025824 -0.077264 0.069558 -0.089924 0.044896 
0.11609 -0.027282 0.049006 0.0064227 -0.090746 0.048348 -0.066413 0.0227 
0.11313 -0.03057 0.090767 0.0060938 -0.087622 0.03651 -0.027447 -0.034681 
0.086492 -0.03057 0.078272 0.0062583 -0.068879 0.061995 -0.009361 0.010862 
0.054267 0.012835 0.049499 0.015465 -0.07562 0.090438 -0.00031829 0.099974 
0.05476 0.055254 0.023028 0.0026412 -0.078086 0.08008 0.014972 0.21457 
0.10524 0.034866 -0.0026201 0.0092177 -0.068879 0.034373 0.036346 0.25814 
0.14946 0.034044 0.023851 0.027139 -0.033037 0.020562 0.018425 0.25633 
0.097672 0.029112 0.031085 0.052952 -0.04619 0.024837 0.04506 0.17988 
-0.076935 0.11148 0.052787 0.021713 -0.059343 -0.0014692 0.074983 0.060186 
-0.21652 0.1756 0.044731 0.0074092 -0.066413 -0.032543 0.12447 -0.065426 
-0.21882 0.13878 0.041278 0.03092 -0.044546 -0.038956 0.15653 -0.071674 
-0.097158 0.08715 0.049992 0.040621 -0.073318 -0.01676 0.089945 -0.082032 
0.068242 0.023851 0.051308 -0.0064016 -0.086964 -0.0052507 0.038483 -0.10554 
0.1493 -0.0044286 0.016288 0.022042 -0.067399 0.019905 0.0052718 -0.13399 
0.10293 -0.0067304 0.023686 0.063474 -0.043559 0.023522 0.0019835 -0.10489 
0.048184 -0.003771 0.044731 0.05065 -0.054246 0.013328 0.020398 -0.017088 
0.045389 0.028619 0.015301 0.024015 -0.070687 0.021713 0.0023123 0.050979 
0.081231 0.037168 0.026481 0.02122 -0.048327 0.047526 -0.014293 0.060186 
0.089616 0.010862 0.02829 0.051636 -0.04471 0.058377 -0.034023 -0.021034 
0.049992 0.031578 0.036182 0.027632 -0.038791 0.055911 -0.01528 -0.030406 
-0.022185 0.067256 0.029605 0.034044 -0.026296 0.048019 0.048019 0.036346 
-0.073482 0.074983 0.010697 0.024179 -0.01232 0.026646 0.092082 0.14996 
-0.054739 0.064625 0.058871 0.024508 -0.052437 0.048513 0.14206 0.30072 
0.016452 0.026646 0.08008 0.0011614 -0.045203 0.064296 0.076134 0.32703 
0.13565 -0.010512 0.086163 0.007738 -0.057205 0.0034632 0.013164 0.11839 
0.16656 -0.0057439 0.041936 0.041607 -0.049642 -0.011498 -0.0406 -0.0098543 
0.12118 0.039305 0.0067515 0.049664 -0.044052 -0.0077169 -0.033859 -0.056383 
0.0786 0.057391 0.0064227 0.041443 -0.018404 0.055582 -0.012156 -0.015444 
0.055911 0.073668 0.013986 0.050157 -0.015444 0.016288 -0.0067304 -0.10998 
0.036017 0.072024 0.028619 0.079751 -0.020048 -0.029584 0.013657 -0.31681 
-0.019226 0.062817 -0.008539 0.053445 -0.053095 -0.009361 0.067749 -0.2397 
-0.098967 0.10047 -0.014951 0.023522 -0.079401 0.078929 0.15028 0.20109 
-0.14303 0.11428 0.0065871 0.026646 -0.077428 0.16558 0.14075 0.56362 
-0.10308 0.1174 0.057227 0.068078 -0.080717 0.10096 0.023686 0.11839 
-0.016266 0.038648 0.023851 0.034702 -0.091732 0.057227 -0.09239 -0.42483 
0.073504 0.0060938 0.047197 0.005765 -0.11837 0.023686 -0.13349 -0.48583 
0.11132 -0.022185 0.065118 -0.0032777 -0.10587 -0.019555 -0.077264 -0.25368 
0.10737 0.012177 0.057227 0.012835 -0.1159 -0.049478 0.033058 0.060022 
0.08304 0.055911 0.033551 0.036346 -0.066084 0.05065 0.16886 0.58615 
0.04654 0.038648 0.010697 0.04358 -0.031557 0.088958 0.2223 0.90281 
0.022535 0.034866 -0.0062372 0.069064 0.011191 0.049499 0.16623 0.57234 
0.036839 0.025001 0.0046141 0.042758 -0.0077169 0.004943 0.044731 0.0028056 
0.1026 0.014972 0.055582 0.021549 -0.017417 0.027796 -0.042079 -0.30366 
0.14782 0.0083956 0.035853 -0.0059084 -0.039284 0.023522 -0.10028 -0.3936 
0.11822 0.034209 0.060515 0.029769 -0.035996 0.021713 -0.09239 -0.3862 
0.063639 0.043087 0.060844 0.024508 -0.061973 -0.0039354 -0.071345 -0.32882 
0.025166 0.059528 0.062817 0.023028 -0.07266 0.0060938 -0.053753 -0.18002 
0.0042853 0.05065 0.039799 -0.003771 -0.08384 -0.013965 -0.0082102 0.093562 
-0.012649 0.034044 0.024837 0.054925 -0.076606 -0.017253 0.071366 0.2343 
-0.0070593 0.030263 0.023686 0.016945 -0.08121 -0.031886 0.12085 0.27162 
0.0088889 0.024837 0.031578 0.032236 -0.07973 -0.020048 0.10885 0.22476 
-0.015116 0.069886 0.015137 0.035031 -0.068879 0.05213 0.077285 0.042758 
-0.017088 0.13598 -0.051287 0.057062 -0.066413 0.069886 0.11526 0.011191 
-0.052602 0.1664 -0.069043 0.036675 -0.06855 0.13697 0.095535 0.077778 
-0.054082 0.13286 -0.011663 0.0019835 -0.084169 0.12464 0.030263 0.08715 
-0.016102 0.054925 0.030756 0.0080668 -0.06296 0.089945 -0.036983 0.046704 
0.050157 -0.026953 0.09126 0.0023123 -0.058356 0.066434 -0.10702 0.1294 
0.12349 -0.075291 0.077285 -0.01528 -0.055232 0.050321 -0.13662 0.23792 
0.159 -0.088444 0.075312 -0.023829 -0.065919 -0.015773 -0.082196 0.16886 
0.12431 -0.013636 0.085999 0.026481 -0.058192 -0.037476 0.0018191 -0.025145 
0.094055 0.02829 0.079587 0.027303 -0.060823 -0.019555 0.028619 -0.19285 
0.061008 0.053281 0.047197 0.019576 -0.057041 -0.016266 0.044731 -0.32257 
0.042758 0.055089 0.013164 0.026974 -0.052273 -0.011498 0.067749 -0.32931 
1.0539e-005 0.058049 0.0052718 0.059528 -0.068386 -0.0078813 0.081231 -0.24398 
-0.060494 0.076463 0.0046141 0.061995 -0.057534 0.020069 0.084355 -0.049642 
-0.049807 0.082875 0.02681 0.033387 -0.073811 0.031249 0.073832 0.11609 
-0.020048 0.055911 0.0065871 0.025495 -0.065097 -0.014951 0.03536 -0.012814 
-0.016595 0.086985 0.011355 0.024344 -0.10472 -0.014458 -0.024816 -0.20337 
-0.032215 0.094384 0.021056 0.0083956 -0.11196 -0.009361 -0.011334 -0.17805 
-0.045203 0.10885 0.051965 0.0028056 -0.092719 0.035524 0.037826 0.12628 
-0.05178 0.13878 0.015301 0.042265 -0.018733 0.11017 0.095864 0.6141 
-0.0024557 0.078436 0.0056006 0.048019 -0.0060728 0.077121 0.082875 0.68726 
0.068736 -0.0021268 0.02122 0.036346 -0.01676 -0.072825 0.022371 0.1881 
0.12168 -0.022185 0.050321 0.011355 -0.044546 -0.14467 -0.041751 -0.21241 
0.087972 -0.018075 0.074654 0.039305 -0.047176 -0.086142 -0.020212 -0.24957 
0.02533 0.020727 0.046704 0.025495 -0.059507 0.014643 0.0064227 -0.10193 
0.055418 0.026152 0.062323 0.015959 -0.058521 0.10392 0.021549 0.0011614 
0.10885 0.015959 0.047526 0.0087245 -0.049478 0.093069 0.023851 0.11691 
0.12316 0.017603 0.061995 0.034044 -0.042244 0.069886 0.029769 0.17577 
0.069393 0.061008 0.0047785 0.022042 -0.046025 0.058706 0.048348 0.078107 
0.0067515 0.082382 -0.0044286 0.043251 -0.031064 -0.0049219 0.06594 -0.024158 
-0.034845 0.094877 -0.0036066 0.048841 -0.0013048 -0.041093 0.08715 -0.0064016 
-0.041751 0.038319 0.050979 0.04358 -0.060494 -0.025309 0.093398 0.15259 
-0.038462 -0.03353 0.11362 0.00050378 -0.094034 -0.0016336 0.12118 0.14239 
-0.037805 -0.027775 0.096193 0.0093821 -0.0965 0.044896 0.10737 -0.021199 
0.0044497 -0.019061 0.058871 0.030592 -0.07266 0.087972 0.039305 -0.10571 
0.046046 0.060515 0.0060938 0.043251 -0.073154 0.12513 -0.033037 -0.12198 
0.014643 0.11625 0.00099702 0.062488 -0.04471 0.07597 -0.05326 -0.12346 
-0.0090322 0.14535 -0.048327 0.062488 -0.041915 -0.0026201 -0.038627 -0.12248 
-0.011663 0.11263 -0.056219 0.08567 -0.03764 -0.035667 0.013986 0.0054362 
-0.010841 0.077449 -0.022679 0.054596 -0.054575 0.0075736 0.037826 0.17297 
-0.0095255 0.077943 0.039963 0.027139 -0.058192 0.033551 0.069393 0.26291 
0.0046141 0.06183 0.079916 -0.0057439 -0.067235 -0.02646 0.055418 0.22016 
0.045882 0.02122 0.059857 0.034866 -0.067235 -0.031392 0.047855 0.12085 
0.094713 -0.056877 0.070544 -0.0059084 -0.074469 -0.040271 0.0324 -0.0032777 
0.15045 -0.10817 0.087972 -0.0027845 -0.066413 -0.0067304 0.0059294 -0.071674 
0.15045 -0.074962 0.10244 -0.0022913 -0.03764 0.032729 0.0052718 -0.067892 
0.13335 -0.0080457 0.065447 0.043745 -0.041422 0.081231 -0.029748 0.028947 
0.070708 0.040292 0.030592 0.015465 -0.049807 0.14667 -0.030077 0.13828 
0.055747 0.062159 -0.023336 0.047691 -0.037311 0.14683 0.051472 0.21769 
0.093398 0.067256 -0.035503 0.05624 -0.027447 0.10951 0.073175 0.1756 
0.13434 0.074654 0.014315 0.039963 -0.053424 0.017932 1.0539e-005 0.065118 
0.11543 0.10507 0.043087 0.0016547 -0.079895 -0.041586 -0.083676 -0.1233 
-0.015609 0.074326 0.08567 -0.0055795 -0.094527 -0.038791 -0.064111 -0.2647 
-0.16802 0.07038 0.050157 0.014643 -0.08269 -0.016102 0.076956 -0.18923 
-0.25105 0.095699 0.039634 0.032071 -0.06855 0.0065871 0.19336 0.0095465 
-0.1741 0.087643 -0.0029489 0.037497 -0.059178 0.030427 0.22033 0.15851 
0.031742 0.058377 -0.026789 0.015137 -0.049478 0.024344 0.15028 0.099645 
0.1544 0.032729 0.0079024 0.059364 -0.051287 0.016452 0.03947 0.063639 
0.1733 0.019411 0.024673 0.016123 -0.05326 0.029441 -0.03764 0.13335 
0.13762 0.017603 0.045882 0.023028 -0.045696 0.07301 -0.072825 0.27968 
0.086328 0.057062 0.0069159 0.057391 -0.011498 0.10162 -0.086142 0.29859 
0.06742 0.0786 0.029934 0.046211 -0.014129 0.08567 -0.087458 0.08863 
0.038319 0.069064 0.064132 0.023851 -0.012485 0.050321 -0.01528 -0.14385 
-0.0026201 0.066434 0.080902 0.004943 -0.035503 0.058542 0.040785 -0.25647 
1.0539e-005 0.06331 0.04917 0.023028 -0.042901 0.064296 0.05624 -0.24118 
0.040785 0.041114 -0.0029489 0.03799 -0.072496 0.037826 0.00099702 -0.1963 
0.071202 0.067913 -0.0024557 0.027139 -0.077922 0.037168 -0.0082102 -0.088773 
0.06742 0.076792 -0.014293 0.055254 -0.06296 0.039141 -0.0013048 0.095042 
-0.025967 0.11494 0.0051074 0.080902 -0.055397 0.015465 0.053609 0.30352 
-0.095349 0.091425 -0.032543 0.055254 -0.059014 -0.012485 0.10639 0.2389 
-0.037476 0.013328 0.01974 0.035688 -0.070687 -0.077757 0.069886 -0.0034422 
0.062488 -0.023501 0.03799 0.01415 -0.047998 -0.065262 0.040456 -0.14221 
0.13335 -0.0077169 0.075148 0.037497 -0.053424 -0.01676 0.012999 -0.14237 
0.10556 0.011848 0.064461 0.0088889 -0.057534 0.035688 0.0046141 -0.091075 
0.045553 0.01563 0.035195 0.0013258 -0.078579 0.051965 -0.0060728 -0.076277 
0.035688 0.027139 0.039305 0.014808 -0.067235 0.04654 0.0032988 -0.0039354 
0.061008 -0.0013048 0.038812 0.030427 -0.070194 0.015137 0.0087245 0.064461 
0.046211 0.032236 0.048677 0.019905 -0.053095 0.023357 -0.00097594 0.11017 
-0.022843 0.099316 0.01267 0.055911 -0.011334 0.036675 0.015959 0.12398 
-0.058028 0.1151 0.01004 0.050486 -0.0088678 0.046868 0.05476 0.16163 
-0.053917 0.090931 0.013986 0.02681 -0.05589 0.11987 0.080409 0.17511 
-0.038791 0.058706 0.052623 0.037004 -0.060987 0.062488 0.069229 0.12085 
-0.035667 0.044731 0.026646 0.053609 -0.05441 0.0016547 0.046046 -0.07825 
0.026152 0.092576 -0.0090322 0.072681 -0.033365 -0.0036066 0.067256 -0.25582 
0.075312 0.10672 0.011026 0.036346 -0.030077 0.03947 0.073339 -0.2111 
0.061008 0.11132 0.037661 -0.0016336 -0.054904 0.063474 0.046211 0.026152 
0.035031 0.10474 0.060186 -0.0019624 -0.050793 0.054267 0.015959 0.32029 
0.0042853 0.057884 0.01152 0.013657 -0.084498 -0.0095255 -0.018897 0.41959 
0.0026412 0.019905 0.014315 0.013164 -0.067399 -0.053424 -0.024652 0.11346 
0.012177 -0.057863 0.018589 0.051965 -0.045039 -0.10028 -0.013143 -0.19367 
0.032564 -0.10637 0.083368 0.029441 -0.039942 -0.085978 0.023686 -0.23559 
0.083697 -0.10867 0.11872 0.028454 -0.077922 -0.041915 0.0028056 -0.09091 
0.13023 -0.034845 0.083368 0.0037921 -0.1016 0.033222 -0.02794 0.059035 
0.10754 0.055582 0.028125 -0.018897 -0.11787 0.067913 -0.024487 0.090109 
0.11822 0.1054 0.029276 0.04095 -0.084991 0.072517 -0.014129 0.11165 
0.092576 0.077778 0.016452 0.044567 -0.1039 0.081889 0.02829 0.13943 
0.071366 0.033058 0.01563 0.040456 -0.10193 0.016288 0.031907 0.071366 
0.072846 -0.015116 0.0324 0.0082312 -0.10587 -0.047834 0.054432 0.13121 
0.038483 -0.030406 0.059035 0.019905 -0.093212 -0.10817 0.052623 0.035853 
-0.060329 0.027796 0.073832 0.012177 -0.06 -0.039778 0.044731 -0.08532 
-0.080388 0.074983 0.013492 0.030263 -0.036489 0.039634 0.06594 -0.025967 
-0.059343 0.08419 -0.0044286 0.029605 -0.023172 0.098659 0.077285 0.10589 
-0.029584 0.067256 0.010204 0.057555 -0.050629 0.098659 0.039799 0.063639 
-0.01528 0.10195 -0.0077169 0.04506 -0.048327 0.061666 0.027632 0.029934 
-0.0087034 0.13812 -0.0029489 0.047691 -0.049478 0.015137 0.046375 -0.064604 
-0.0054151 0.080244 -0.020377 0.051308 -0.047012 -0.020048 0.040292 -0.18841 
0.04095 0.017932 0.0087245 0.028454 -0.08269 -0.060658 0.020233 -0.18643 
0.079587 -0.028269 0.057062 0.0042853 -0.081868 -0.021363 0.028619 0.012506 
0.10622 -0.014787 0.070215 -0.00097594 -0.065097 0.070215 -0.023172 0.28297 
0.12924 -0.0011404 0.056569 0.027139 -0.042079 0.086328 -0.053424 0.37093 
0.13286 0.031578 0.050157 -0.0098543 -0.064275 0.068078 -0.11196 0.21671 
0.088301 0.034702 0.058706 -0.02498 -0.085978 0.02533 -0.076771 -0.015773 
0.015794 0.020069 0.068242 -0.0042642 -0.080552 -0.01232 0.023028 -0.026953 
-0.041586 0.0037921 0.071037 0.054596 -0.063289 0.0093821 0.11543 0.028125 
-0.038791 0.035031 0.03799 0.033551 -0.066413 0.04654 0.14157 0.14223 
-0.037311 0.084519 0.010369 0.03536 -0.057699 0.096686 0.15867 0.18711 
-0.013965 0.0592 0.0042853 0.034702 -0.009361 0.065283 0.15423 0.051801 
0.061337 0.029934 0.03092 0.051636 -0.028104 -0.05737 0.077943 -0.14336 
0.08863 0.030592 0.059035 0.028947 -0.036489 -0.12067 0.010697 -0.19252 
0.11033 -0.035503 0.043909 0.027139 -0.054904 -0.12478 -0.050629 -0.19729 
0.11625 0.049664 0.03388 0.037826 -0.061316 -0.063782 -0.046683 -0.13777 
0.055089 0.089616 0.030592 0.039799 -0.078086 0.060022 -0.040435 -0.058192 
0.031578 0.06183 0.053609 0.0092177 -0.088444 0.15012 -0.0062372 0.13828 
-0.0050863 0.052459 0.041114 -0.016924 -0.1011 0.17856 0.032564 0.51183 
0.029276 0.028947 0.061501 -0.00097594 -0.090088 0.19221 0.048348 0.69302 
0.04654 0.041772 0.06594 0.015465 -0.081539 0.09981 0.041936 0.34594 
0.051472 0.056733 0.073175 0.029769 -0.061316 0.015137 0.00050378 -0.15881 
0.015959 0.043745 0.0019835 0.055911 -0.034352 0.037826 0.035688 -0.32947 
-0.057699 0.071037 -0.034023 0.087808 -0.0095255 0.026481 0.072188 -0.3497 
-0.076935 0.070215 -0.015444 0.051965 -0.0052507 -0.0016336 0.11148 -0.30202 
-0.081374 0.097015 0.025659 0.024015 -0.010348 -0.031886 0.097344 -0.22474 
-0.060494 0.13302 0.027303 0.022864 0.0047785 -0.012156 0.08156 -0.018075 
0.017603 0.079094 0.029605 0.052787 -0.01232 0.023357 0.027796 0.14996 
0.10441 -0.010183 0.078929 0.029441 -0.036654 0.027468 -0.016102 0.16163 
0.14946 -0.047834 0.072681 0.014972 -0.062138 0.025988 -0.062302 0.063803 
0.14206 -0.041751 0.092904 0.022206 -0.057205 0.030098 -0.034681 0.024673 
0.095206 0.015959 0.024837 0.025495 -0.087786 0.034702 -0.0047575 0.05624 
0.059035 0.054596 0.018589 0.018918 -0.082525 0.044896 0.0098754 0.084519 
0.034866 0.087972 0.013821 -0.010512 -0.097322 0.02533 0.049499 0.11247 
-0.0098543 0.095535 0.029934 0.044567 -0.062796 0.018096 0.078765 0.069722 
-0.016924 0.089945 0.029934 0.051143 -0.055068 0.0047785 0.080573 0.044896 
-0.021528 0.084848 0.015794 0.049992 -0.049642 0.013821 0.06035 0.012835 
0.029441 0.0689 0.035524 0.032893 -0.056055 0.0032988 0.061666 0.017767 
0.051308 0.025495 0.053445 0.04506 -0.044874 0.035853 0.054925 0.079751 
0.078272 -0.0014692 0.065283 0.021384 -0.039284 0.032236 0.034044 0.044402 
0.080244 -0.014622 0.018754 0.050321 -0.012156 0.049664 0.0080668 -0.017253 
0.10425 0.010533 0.013657 0.052623 0.016781 0.046375 -0.042573 -0.092226 
0.082053 0.036346 0.01826 0.056898 -0.018075 -0.0029489 -0.054246 -0.11426 
0.0041209 0.049006 0.038648 0.027139 -0.034516 -0.044052 0.014972 -0.056219 
-0.052766 0.04917 0.041114 0.028454 -0.042244 0.0047785 0.060022 0.1858 
-0.020541 0.054925 -0.014622 0.041936 -0.031721 0.018589 0.043745 0.20191 
-0.02794 0.11954 -0.02087 0.044238 -0.060165 0.06742 0.019247 0.10951 
-0.059836 0.13335 0.01152 0.0092177 -0.087458 0.10063 0.052623 -0.038462 
-0.092226 0.11773 0.054103 0.0054362 -0.091239 0.077285 0.051965 -0.10489 
-0.057205 0.099152 0.025166 0.046704 -0.070194 0.019411 0.026646 -0.17131 
0.0019835 0.043087 0.021713 0.019576 -0.091732 -0.020377 0.0064227 -0.19531 
0.072353 0.021549 0.054925 0.0065871 -0.095021 -0.038956 -0.0042642 -0.16111 
0.095371 0.02829 0.053774 0.0070803 -0.086471 -0.041586 0.015137 -0.16292 
0.052459 0.047033 0.036839 0.064296 -0.055397 -0.038956 0.029441 -0.20748 
-0.010183 0.076134 -0.03057 0.03799 -0.066084 -0.036818 0.06183 -0.15766 
-0.011827 0.087314 -0.034188 0.029441 -0.063124 -0.047669 0.092247 0.051636 
0.076627 0.036839 -0.006566 0.023686 -0.039284 -0.023172 0.1225 0.38523 
0.12168 0.024015 0.035524 0.043909 -0.056712 0.019576 0.14864 0.87173 
0.084684 0.0036276 0.020727 0.03536 -0.04471 0.13023 0.09274 0.90741 
0.023686 -0.011827 0.039141 0.020233 -0.037805 0.21753 -0.014129 0.5092 
0.020562 -0.0019624 0.051965 0.01711 -0.018239 0.17034 -0.10768 -0.12379 
0.037826 0.017932 0.064296 0.011026 -0.046025 0.032564 -0.074798 -0.49652 
0.031742 0.050979 0.046211 -0.0090322 -0.071509 -0.028104 -0.035338 -0.50967 
0.017274 0.085177 0.019576 0.015137 -0.073482 -0.032872 0.01152 -0.35825 
0.017274 0.065283 0.023522 0.054432 -0.066248 -0.014787 0.017274 -0.16966 
0.0026412 0.055582 0.024015 0.027796 -0.10028 -0.025309 0.012506 -0.00064712 
0.015465 0.074983 0.017274 0.00297 -0.11557 -0.068221 0.0037921 0.13549 
0.042429 0.084355 0.013164 -0.0067304 -0.10752 -0.059836 0.02681 0.18202 
0.023193 0.094713 0.045553 0.016616 -0.10242 -0.028269 0.050321 0.16492 
-0.025309 0.052459 0.03799 0.0013258 -0.07414 0.013657 0.072353 0.12562 
-0.035667 0.042923 0.034537 0.011355 -0.062138 0.039963 0.082382 0.10655 
0.0062583 0.020562 0.010697 0.025166 -0.0073881 0.051636 0.073339 0.067749 
0.069393 0.014808 0.028125 0.038977 -0.057205 0.051472 0.023357 0.076792 
0.085177 0.004943 0.056569 0.028454 -0.063946 0.047855 0.019247 0.048841 
0.064461 0.025495 0.050979 0.016945 -0.072825 0.049828 0.0039565 0.063639 
0.057391 0.027796 0.068078 0.020233 -0.057205 0.033551 0.036017 0.07597 
0.045224 0.029112 0.031907 0.028125 -0.063946 0.037004 0.039141 0.065776 
0.064461 0.037661 0.021384 0.046704 -0.037147 0.037332 0.03388 0.078272 
0.072188 0.044402 0.023686 0.03536 -0.034188 0.061995 0.026646 0.076627 
0.098166 0.049992 0.048513 0.046375 -0.034516 0.073668 0.011848 0.096686 
0.098494 -0.0072237 0.054925 0.027961 -0.063946 0.071366 -0.0014692 0.070215 
0.095042 -0.032872 0.037168 0.010697 -0.079072 0.024344 0.0082312 0.012342 
0.11526 -0.050793 0.048348 0.0028056 -0.080881 -0.03501 0.023851 -0.030077 
0.1008 -0.019555 0.066434 0.037168 -0.063453 -0.055726 0.0083956 -0.035667 
0.090274 0.041607 0.098494 0.007738 -0.065591 -0.054082 -0.023336 -0.045696 
0.049335 0.06331 0.034537 0.0069159 -0.05885 -0.023994 -0.016595 -0.017088 
-0.028104 0.11543 -0.0055795 0.032564 -0.021856 0.004943 -0.0016336 -0.05737 
-0.11228 0.1567 -0.026131 0.061172 -0.037805 0.041443 0.032893 -0.072003 
-0.1279 0.14026 0.023357 0.037826 -0.042573 0.09126 0.046375 -0.057863 
-0.078744 0.097179 0.041936 0.023028 -0.051451 0.096193 0.055747 0.02122 
-0.033201 0.053445 0.041936 0.031742 -0.045861 0.092576 0.041114 0.15259 
0.02681 0.032071 0.045389 0.019411 -0.094527 0.043909 0.050321 0.15193 
0.090931 0.022864 0.011026 0.017603 -0.093705 -0.01232 0.01267 0.072353 
0.13582 0.029276 0.011026 0.011848 -0.095843 -0.034188 -0.0070593 -0.014458 
0.11724 0.015959 -0.0090322 0.053281 -0.061645 -0.067399 0.0060938 0.0090533 
0.03388 0.0052718 0.033551 0.033222 -0.083676 -0.068057 0.048513 0.053281 
0.06479 0.0093821 0.034537 0.029112 -0.062631 -0.0072237 0.048184 -0.050464 
0.055089 0.04095 0.040785 -0.00081153 -0.06707 0.050321 0.026646 -0.16424 
0.057555 0.026152 0.062817 0.05624 -0.03501 0.090603 0.026317 -0.046847 
0.062488 0.023522 0.063474 0.014479 -0.042244 0.10096 0.01152 0.17215 
0.08978 0.016616 0.067091 0.014315 -0.035338 0.067913 -0.027611 0.41943 
0.041278 0.0060938 0.063145 0.022864 -0.010019 -0.017253 -0.01676 0.39049 
-0.025309 0.024508 0.055747 0.080902 -0.020048 -0.092061 0.037661 0.067913 
-0.05441 0.053774 0.0074092 0.053938 -0.025802 -0.098309 0.065118 -0.21471 
-0.048327 0.092904 -0.027611 0.033551 -0.043066 -0.010183 0.078436 -0.35611 
1.0539e-005 0.13762 -0.02087 0.041443 -0.044546 0.091425 0.033222 -0.3201 
0.035853 0.09422 0.028783 0.056733 -0.057205 0.15045 -0.023007 -0.26782 
0.051965 0.007738 0.074161 0.025988 -0.059507 0.1636 -0.012814 -0.10867 
0.082711 -0.058685 0.036346 0.042594 -0.046354 0.12743 -0.018404 0.058049 
0.13565 -0.049642 0.038812 0.050486 -0.053095 0.072846 -0.0039354 0.18498 
0.0592 0.078272 0.010204 0.030098 -0.078579 0.0092177 0.045718 0.21145 
-0.076771 0.19139 -0.0052507 0.054596 -0.071345 -0.058192 0.095535 0.12266 
-0.11376 0.14486 -0.031886 0.032564 -0.075455 -0.093541 0.091425 -0.052766 
-0.084827 0.034866 0.040292 0.029769 -0.090746 -0.14944 0.04506 -0.20797 
-0.014129 0.011684 0.067585 -0.0036066 -0.0868 -0.14336 0.040128 -0.1307 
0.020727 0.012835 0.077943 0.0021479 -0.062631 -0.054246 0.053774 0.11444 
0.059857 0.024508 0.071531 0.007738 -0.029255 0.053281 0.053938 0.38671 
0.09685 0.027632 0.059528 0.03947 -0.041915 0.14502 0.048019 0.41154 
0.050979 0.029276 0.013164 0.050814 -0.024816 0.13417 0.042758 0.03947 
-0.025967 0.084848 -0.015609 0.060022 -0.011663 0.10918 0.045553 -0.37798 
-0.060329 0.1026 0.0041209 0.0689 -0.0040998 0.038483 0.061337 -0.38883 
-0.058028 0.10162 0.0039565 0.060515 -0.045696 -0.042079 0.037004 -0.25187 
0.0024767 0.048184 0.0098754 0.0098754 -0.08532 -0.02942 0.022042 0.31766 
0.032893 -0.0014692 0.04358 0.0014903 -0.082361 0.097179 0.036839 0.84526 
0.059693 0.01563 0.041114 0.052787 -0.050793 0.09833 0.027139 0.47451 
0.04095 0.048184 0.048677 0.024344 -0.065262 0.026646 -0.0095255 -0.17887 
0.085506 0.032071 0.047197 -0.0019624 -0.083512 0.026646 -0.053588 -0.49652 
0.095371 0.013492 0.085341 -0.006566 -0.084663 0.018918 -0.091075 -0.44687 
0.094877 -0.00097594 0.086821 0.0042853 -0.10768 0.02122 -0.059507 -0.13629 
0.081231 0.010204 0.078436 -0.012814 -0.1062 -0.041257 0.0039565 0.18876 
0.097179 0.028619 0.03536 0.0093821 -0.088115 -0.057699 0.023522 0.32785 
0.12349 -0.0004827 0.028947 0.055911 -0.025967 -0.00081153 0.0014903 0.42436 
0.1225 0.027796 0.0227 0.047033 -0.056712 0.088958 0.039141 0.53025 
0.042758 0.017274 0.045389 0.053116 -0.043066 0.17232 0.13549 0.38277 
-0.063618 0.049499 0.06742 0.034537 -0.045039 0.16673 0.18004 -0.073482 
-0.2032 0.092247 0.012835 0.059693 -0.023336 0.1151 0.19912 -0.31205 
-0.1963 0.1105 -0.018733 0.049335 -0.041915 0.053116 0.16212 -0.22951 
-0.10965 0.12266 -0.0054151 0.052623 -0.029748 -0.045039 0.086163 -0.19268 
0.0028056 0.094055 0.0039565 0.037004 -0.036818 -0.10916 -0.036489 -0.20732 
0.089452 0.071366 0.017603 0.043416 -0.040271 -0.15569 -0.10308 -0.29265 
0.11395 0.029441 0.0227 0.016288 -0.063124 -0.098802 -0.070523 -0.2397 
0.10195 0.013328 0.032564 0.0067515 -0.064604 -0.038298 -0.03616 -0.011334 
0.083862 0.024673 0.053938 0.037826 -0.03501 0.090109 0.028783 0.40134 
0.074819 0.038483 0.082053 0.040292 -0.04323 0.16081 0.07449 0.6598 
0.077449 0.040621 0.054432 0.02122 -0.051287 0.11822 0.089287 0.50262 
0.073175 0.026646 0.042594 0.0062583 -0.064768 0.082875 0.071531 0.093562 
0.065283 0.017438 0.054432 -0.0022913 -0.046847 0.061501 0.018754 -0.090746 
0.10441 -0.0019624 0.059857 0.048841 -0.05441 0.085506 -0.029091 -0.16917 
0.1008 0.015137 0.03947 0.043251 -0.044052 0.036839 -0.084005 -0.19153 
0.13203 -0.0044286 0.019576 0.027303 -0.044052 -0.020212 -0.084991 -0.23576 
0.08304 0.01563 0.010204 0.029112 -0.038956 -0.039449 -0.035667 -0.12346 
0.058871 0.043416 0.010369 0.032236 -0.074633 -0.034188 0.014479 0.08567 
0.035524 0.068078 0.053445 0.024179 -0.078744 -0.036325 0.031907 0.14091 
-0.026953 0.11724 0.025001 0.01711 -0.087622 -0.026624 0.048184 0.076299 
-0.074798 0.091753 0.01826 0.039799 -0.090581 -0.017088 0.095535 0.053774 
-0.080881 0.046868 0.036839 0.027139 -0.10637 -0.00097594 0.12891 0.0065871 
-0.073811 0.042923 0.042923 0.029605 -0.080552 0.0052718 0.13845 -0.1011 
-0.02794 0.043087 0.012177 0.031085 -0.059178 0.041772 0.13401 -0.051451 
0.034866 0.051308 -0.022514 0.072846 -0.030077 0.093726 0.11822 0.076134 
0.09422 0.09685 -0.016924 0.06331 -0.012485 0.11115 0.073668 0.37109 
0.074326 0.10047 -0.00031829 0.034866 -0.027118 0.08567 0.0056006 0.53238 
0.066105 0.037332 0.066269 0.012342 -0.027611 0.072024 -0.045039 0.20503 
0.066763 -0.01939 0.04917 0.011026 -0.074469 0.032236 -0.067892 -0.21669 
0.045224 -0.019061 0.082053 -0.012814 -0.076442 0.012013 -0.056383 -0.42796 
0.031414 0.042594 0.047033 0.00050378 -0.07003 -0.0077169 -0.0039354 -0.35233 
-0.0088678 0.069393 0.038648 0.031414 -0.036818 -0.013143 0.026481 -0.17772 
0.03947 0.072846 0.021878 0.045224 -0.030899 -0.014129 0.046046 0.010862 
0.08863 0.041936 0.015794 0.016945 -0.038791 -0.024652 0.051143 0.054267 
0.098166 0.019411 0.031249 0.0088889 -0.057863 -0.001798 0.041114 0.034373 
0.084684 0.047691 0.046375 0.039634 -0.066741 -0.0031133 0.025001 -0.030899 
0.052459 0.039963 0.054103 0.028619 -0.089924 0.00017495 0.0082312 0.017603 
0.047855 0.010204 0.023851 0.0072447 -0.10341 -0.0055795 0.021878 0.057227 
0.10113 -0.048656 0.058871 -0.0073881 -0.11196 -0.0083746 -0.0057439 0.047526 
0.1391 -0.029255 0.08008 0.027468 -0.10406 0.00297 -0.034681 -0.00064712 
0.10145 0.073339 0.069229 0.0095465 -0.1062 0.0087245 -0.05441 0.049006 
-0.0057439 0.086492 0.031249 0.041607 -0.084005 -0.0014692 0.024015 0.10852 
-0.070687 0.092082 -0.0022913 0.033387 -0.054082 -0.035832 0.038648 0.03536 
-0.096336 0.058377 -0.047012 0.041278 -0.072496 -0.061645 0.069229 -0.010676 
-0.073976 0.064132 -0.021528 0.041607 -0.062796 -0.0027845 0.090931 0.026481 
-0.075784 0.075641 -0.0057439 0.040292 -0.05589 0.028947 0.12201 0.092411 
-0.077593 0.088794 -0.0096899 0.038155 -0.036818 0.0421 0.16163 0.062488 
-0.044381 0.052294 0.029769 0.03092 -0.049807 0.056404 0.17889 0.11313 
-0.012156 0.048348 0.030756 0.030592 -0.037969 0.10293 0.14091 0.16114 
0.0041209 0.085999 0.06183 0.017932 -0.029091 0.097508 0.061008 0.15538 
0.039963 0.096028 0.040456 0.045553 -0.013143 0.060022 -0.06148 0.037661 
0.049992 0.074326 0.038483 0.025001 -0.049478 0.035688 -0.08532 -0.076606 
0.075641 0.038648 0.050321 0.028947 -0.056055 0.0070803 -0.1039 -0.12873 
0.099645 0.015137 0.055747 0.023851 -0.064111 -0.0027845 -0.11672 -0.098473 
0.1026 0.010533 0.060679 0.055254 -0.066741 0.0018191 -0.061809 -0.039449 
0.065776 0.012506 0.018918 0.0085601 -0.085156 -0.01676 -0.0047575 0.018096 
0.060679 0.058871 0.0080668 0.0028056 -0.087622 -0.045532 0.044896 0.059857 
0.04917 0.063474 0.015137 0.019576 -0.054904 -0.022185 0.064461 0.071366 
0.055911 0.03651 0.050979 0.042429 -0.069701 0.030098 0.042429 0.10672 
0.089616 0.018918 0.051308 0.011026 -0.073811 0.024508 0.028454 0.072681 
0.11691 -0.017746 0.052294 0.012506 -0.070687 0.037168 -0.0049219 0.086328 
0.10343 0.00083261 0.062488 0.01826 -0.052109 0.066269 0.037332 0.1276 
0.020233 0.035524 0.053609 0.039634 -0.044381 0.059035 0.081889 0.1636 
-0.094527 0.09422 0.055254 0.044238 -0.031228 0.033551 0.11987 0.13138 
-0.1501 0.14502 -0.021363 0.046868 -0.028269 0.0421 0.12612 0.058871 
-0.12231 0.14585 -0.019061 0.07038 -0.025967 0.055254 0.11115 0.034209 
-0.057534 0.084355 0.01004 0.05065 -0.044217 0.055747 0.052952 0.010369 
0.031578 0.051636 0.054596 0.03092 -0.049642 0.06183 -0.020541 -0.025967 
0.10063 0.016945 0.051143 0.039634 -0.049149 0.026974 -0.073811 -0.028269 
0.13088 0.033058 -0.0055795 0.046375 -0.055232 0.016781 -0.091239 -0.02498 
0.11987 0.01711 0.012999 0.034044 -0.057863 -0.0087034 -0.051122 -0.038298 
0.083533 0.023522 0.048019 0.013164 -0.073482 -0.039778 -0.00097594 -0.028269 
0.0093821 0.036017 0.071202 0.021878 -0.03764 -0.01528 0.067913 -0.050958 
-0.021528 0.049499 0.031907 0.044402 -0.047998 0.061666 0.09126 0.041114 
-0.029584 0.063803 0.0074092 0.045882 -0.042244 0.13302 0.090109 0.20257 
0.0074092 0.045389 0.020562 0.02681 -0.052602 0.11855 0.080573 0.29957 
0.037497 0.01563 0.043909 0.045389 -0.037805 0.081067 0.057227 0.13647 
0.070215 -0.022679 0.026974 0.034209 -0.056055 0.010204 0.047526 -0.062796 
0.087643 -0.011334 0.039799 0.029112 -0.040271 -0.036983 -0.010841 -0.097487 
0.064625 0.030263 0.031085 0.032893 -0.032215 0.036017 -0.028926 -0.015444 
0.028783 0.053116 0.041114 0.042923 -0.012485 0.03388 -0.032215 0.022371 
0.020233 0.021384 0.076463 0.019576 -0.053424 0.034044 -0.027118 -0.052766 
0.0037921 0.048841 0.010533 0.038483 -0.021363 0.0032988 0.024344 0.0011614 
-0.0049219 0.078765 0.0093821 0.058542 -0.0013048 0.014315 0.048348 0.079094 
0.0090533 0.071695 0.018425 0.066927 -0.013636 0.072353 0.053116 0.15423 
-0.0052507 0.06331 0.03536 0.031907 -0.037147 0.079422 0.053281 0.10754 
0.045224 0.01004 0.023851 0.015794 -0.079566 0.074819 0.047691 0.016945 
0.11954 0.00083261 0.042923 0.011191 -0.078744 0.0034632 0.0095465 -0.057863 
0.14338 0.01004 0.05213 0.030592 -0.11015 -0.038462 -0.019719 -0.10456 
0.080244 0.044731 0.061666 0.026974 -0.098309 -0.04323 0.021549 -0.038791 
0.026974 0.047526 0.041114 0.020398 -0.10078 -0.014458 0.063145 0.0034632 
0.012835 0.0028056 0.019576 0.036839 -0.077428 0.023028 0.060515 0.072024 
0.042594 -0.0091966 0.040621 0.020562 -0.087951 0.021713 0.023028 0.12217 
0.065776 -0.006566 0.054596 0.026646 -0.074962 0.059693 0.037004 0.17166 
0.050157 0.037004 0.045553 0.023851 -0.052273 0.082546 0.011684 0.15505 
0.057391 0.048348 0.030098 0.043251 -0.036818 0.088794 -0.0055795 -0.028926 
0.090603 0.023028 0.0421 0.014479 -0.046025 -0.0011404 -0.062138 -0.29166 
0.078765 0.037332 0.027303 -0.00097594 -0.043559 -0.069043 -0.088608 -0.25911 
0.037661 0.056404 0.035853 -0.0091966 -0.037476 -0.055232 -0.022021 -0.12116 
0.0083956 0.0689 0.034702 0.038812 -0.022514 -0.029091 0.046704 0.06479 
-0.013471 0.054103 0.031907 0.028619 -0.026296 0.016288 0.11165 0.16969 
-0.056055 0.037661 0.037168 0.029276 -0.044546 0.081889 0.12628 0.024673 
-0.089431 0.046211 0.024508 0.022206 -0.039942 0.15703 0.13171 0.021384 
-0.090088 0.074654 0.027796 0.037661 -0.078579 0.17676 0.083368 0.21967 
-0.060165 0.10441 -0.019226 0.026974 -0.08269 0.086985 0.062323 0.28806 
-0.014293 0.074983 0.013328 0.023851 -0.093048 -0.071509 0.0046141 0.0227 
0.056733 0.028125 0.02681 0.029934 -0.072332 -0.1376 -0.0024557 -0.21274 
0.056569 0.043909 0.032564 0.051472 -0.076771 -0.078744 0.014479 -0.1182 
0.047526 0.053938 0.022042 0.044238 -0.080223 -0.0024557 0.030263 0.14913 
0.10803 0.034537 0.019247 0.00066819 -0.099624 0.033058 -0.026789 0.056404 
0.1391 0.011684 0.046868 0.010369 -0.094856 0.0028056 -0.08532 -0.19334 
0.12151 -0.013307 0.075148 -0.017088 -0.11196 -0.0016336 -0.096172 -0.21521 
0.07301 0.013492 0.086163 -0.009361 -0.087786 0.020891 -0.018897 -0.11261 
0.039963 0.0592 0.035524 0.019411 -0.058685 0.019905 0.07301 0.10573 
0.015137 0.077614 0.0088889 0.058542 -0.036818 0.049828 0.14601 0.32423 
0.0018191 0.11329 0.00099702 0.030263 -0.046847 0.0054362 0.12118 0.34232 
0.025988 0.069558 0.04095 0.020727 -0.052109 -0.031557 0.072024 0.2657 
0.05772 0.038319 0.037332 0.041114 -0.021692 -0.034188 0.05065 0.24795 
0.058377 -0.0016336 0.018754 0.063474 -0.033694 0.020727 0.025824 0.039963 
-0.018733 -0.0072237 0.023851 0.016616 -0.05589 0.12332 0.02681 -0.16934 
-0.071509 0.06035 0.024837 0.00050378 -0.081539 0.073175 0.052787 -0.3423 
-0.03353 0.067585 0.029112 -0.029748 -0.075127 0.024508 0.023851 -0.26552 
0.018096 0.099152 0.030592 0.024673 -0.076771 0.004943 -0.0022913 -0.13645 
0.045882 0.083533 0.045224 0.031085 -0.062138 0.03799 1.0539e-005 0.042923 
0.057555 0.04358 0.046046 0.024673 -0.048656 0.059528 -0.0014692 0.15012 
0.035195 0.057884 0.070873 0.032729 -0.038956 0.01563 0.024508 0.12694 
-0.0031133 0.096028 0.022535 0.033387 -0.052931 -0.01528 0.013328 0.07449 
-0.052437 0.13779 -0.0083746 0.044896 -0.040435 -0.010348 0.026974 0.078929 
-0.071509 0.1322 -0.052273 0.033715 -0.053424 0.032236 0.063803 0.091589 
-0.056877 0.099316 -0.00015387 0.068242 -0.049149 0.023193 0.062817 0.083368 
-0.052109 0.048513 0.041443 0.013164 -0.087786 0.0031344 0.053609 0.14157 
-0.0021268 0.012835 0.048677 -0.0080457 -0.10604 0.0034632 0.05065 0.12168 
0.059528 -0.01528 0.076463 -0.012978 -0.080223 -0.017088 0.0052718 0.082711 
0.10556 -0.022514 0.058706 0.032236 -0.04323 0.034209 -0.0029489 -0.043066 
0.13746 -0.023994 0.066105 0.049499 1.0539e-005 0.027303 -0.0013048 -0.13415 
0.16097 -0.051451 0.044402 0.038977 -0.014622 0.033058 0.011191 -0.19597 
0.17084 0.0060938 0.030427 0.031249 -0.016595 0.017767 -0.001798 -0.10801 
0.10819 0.083697 0.022535 0.044073 -0.056219 0.01711 0.017767 0.083368 
0.016945 0.11231 0.025166 0.020233 -0.069208 0.032236 0.029276 0.27902 
-0.057699 0.10474 0.043087 0.0090533 -0.087458 0.026152 0.046211 0.3946 
-0.075949 0.06479 0.029276 0.045224 -0.072496 0.024837 0.062652 0.3318 
-0.049971 0.090274 0.0041209 0.048513 -0.078579 0.022371 0.089123 0.20536 
-0.038462 0.062488 -0.0027845 0.055582 -0.062631 0.029276 0.076299 0.0227 
0.0028056 0.029441 0.030592 0.05065 -0.058028 0.034866 0.065612 -0.10916 
0.040456 -0.0022913 0.053609 0.057062 -0.059014 0.044896 0.061995 -0.21307 
0.035688 0.013657 0.026646 0.040292 -0.063946 0.042923 0.048184 -0.20616 
0.035853 0.078436 0.012177 0.02122 -0.071016 0.023028 0.012177 -0.20074 
0.025824 0.10869 0.018918 0.014808 -0.044217 0.00033937 -0.0070593 -0.25269 
0.0021479 0.066763 0.049828 0.042923 -0.052109 -0.011827 -0.034681 -0.30942 
0.029441 0.020891 0.038483 0.01826 -0.033859 -0.011992 -0.037476 -0.31073 
0.068078 -0.024652 0.058542 -0.011334 -0.047341 -0.0083746 -0.057699 -0.133 
0.11362 -0.051122 0.065118 0.0018191 -0.025309 -0.0011404 -0.032543 0.093398 
0.098494 -0.021363 0.10277 0.036675 -0.051615 0.019411 0.017767 0.36517 
0.10293 -0.010019 0.066105 0.024015 -0.061645 0.052623 0.037332 0.59568 
0.077614 0.0093821 0.034702 0.03388 -0.058356 0.067913 0.057555 0.47089 
0.027796 0.057555 -0.00064712 0.076792 -0.033694 0.05476 0.085835 0.14026 
-0.03057 0.11444 -0.014129 0.065283 -0.050464 0.027796 0.073832 -0.10571 
-0.081045 0.14075 -0.0019624 0.058213 -0.047341 0.019905 0.066598 -0.20847 
-0.076277 0.12118 -0.032708 0.063145 -0.04471 1.0539e-005 0.044896 -0.14221 
-0.041915 0.092082 -0.0054151 0.075641 -0.050793 0.024179 0.053116 0.033715 
-0.023172 0.052459 0.015794 0.030592 -0.058685 0.073668 0.044731 0.341 
0.0087245 -0.01232 0.042429 0.031085 -0.045039 0.094384 0.049664 0.38704 
0.068078 -0.0060728 0.045882 0.0080668 -0.041751 0.033387 0.039634 0.016452 
0.11115 0.0098754 0.014972 0.04095 -0.073482 -0.010019 -0.018568 -0.3765 
0.12085 0.017438 0.013164 0.0087245 -0.068057 -0.023007 -0.0138 -0.41152 
0.07449 0.016781 0.016945 0.028454 -0.030735 0.033058 -0.015116 -0.19318 
0.065776 0.018589 0.068407 0.019247 0.0034632 0.021549 -0.028104 -0.015444 
0.080244 -0.0004827 0.0421 0.034209 -0.029584 0.0051074 -0.040271 0.042594 
0.059035 0.0080668 0.064461 0.007738 -0.050793 0.016288 -0.012814 0.04506 
0.036182 0.0039565 0.049335 0.013657 -0.066084 0.042594 0.048019 0.14946 
0.032071 0.01152 0.037004 0.058049 -0.065919 0.034866 0.06035 0.12036 
0.073339 0.035853 0.036182 0.041114 -0.094692 0.029441 -0.00064712 0.025495 
0.089945 0.016616 0.016945 0.030427 -0.10225 0.017767 -0.032543 -0.040271 
0.11428 -0.0090322 0.021878 0.041443 -0.095843 0.031085 -0.021528 -0.031721 
0.094055 0.0016547 0.046046 0.074654 -0.074962 0.071695 0.00017495 0.078929 
0.035853 0.091589 0.016123 0.03947 -0.089102 0.08419 0.06035 0.1784 
-0.034516 0.12908 -0.038298 0.022206 -0.082196 0.077449 0.13203 0.15571 
-0.061809 0.076956 -0.003771 0.0031344 -0.068879 -0.0019624 0.13203 0.094384 
-0.0034422 -0.026296 0.076956 0.00017495 -0.098309 -0.034516 0.082053 0.096686 
0.014643 -0.00097594 0.096357 0.011355 -0.062631 -0.039613 0.012177 0.049992 
0.025988 0.067585 0.076463 0.013164 -0.025474 0.0014903 -0.018568 -0.039613 
0.03651 0.081067 0.0051074 0.036017 0.034373 0.033715 -0.042573 -0.082032 
0.032236 0.070708 0.030427 0.036182 0.012835 0.016123 -0.027775 -0.023501 
0.036017 0.070873 0.018754 0.042758 0.0087245 0.010369 0.0052718 0.086985 
-0.0083746 0.098659 0.020727 0.038319 -0.014129 0.053116 0.029769 0.23348 
-0.067728 0.084355 -0.01676 0.051965 -0.025309 0.09126 0.10129 0.17166 
-0.10324 0.076792 0.018754 0.020233 -0.075949 0.064296 0.11888 0.016288 
-0.070687 0.077778 0.012999 0.018425 -0.094527 0.024837 0.097672 0.021713 
0.0026412 0.074983 0.012835 0.027632 -0.091732 -0.021363 0.034044 0.0013258 
0.063145 0.092411 0.0088889 0.068571 -0.053424 0.010862 -0.016431 -0.022679 
0.091589 0.06331 0.013986 0.065447 -0.047176 0.071531 -0.039778 -0.031557 
0.097837 0.0092177 0.0070803 0.051472 -0.05589 0.045224 -0.023172 0.023028 
0.088958 -0.0022913 0.038155 0.040785 -0.048985 0.019083 0.035688 0.10277 
0.082053 0.004943 0.071037 0.03651 -0.09091 -0.015609 0.052623 0.15933 
0.065283 0.041936 0.054596 -0.010512 -0.10505 0.012506 0.070544 0.13878 
0.023686 0.059857 0.061172 -0.021856 -0.11015 0.051801 0.053609 0.071531 
0.023357 0.021056 0.057555 -0.001798 -0.066084 0.07597 0.062323 0.067585 
0.022864 0.0065871 0.069229 0.01826 -0.065426 0.079094 0.02829 0.12283 
0.00050378 -0.00015387 0.076299 0.0093821 -0.068879 0.037168 0.016781 0.085999 
0.0023123 0.020398 0.030592 -0.016595 -0.089924 -0.018897 -0.0039354 -0.12494 
0.0019835 0.060515 0.048677 0.012506 -0.081703 -0.082525 -0.0095255 -0.18693 
0.017767 0.048019 0.046375 0.03799 -0.1113 -0.068057 0.00017495 -0.05589 
0.027303 0.041443 0.058542 0.0044497 -0.10686 -0.021856 0.046211 0.077778 
0.016616 0.042265 0.027139 0.032071 -0.077264 0.033058 0.065612 0.11017 
0.012177 0.066105 0.013986 0.056569 -0.06 0.0421 0.05772 0.073339 
-0.0062372 0.11181 0.016123 0.025988 -0.060658 0.035031 0.025659 -0.062467 
-0.008539 0.10819 0.0083956 0.029441 -0.033694 0.028783 0.00017495 -0.26963 
0.0046141 0.062652 0.022864 0.025659 -0.0052507 0.036182 -0.05885 -0.41908 
0.046868 0.034044 0.009711 0.062488 -0.0034422 0.032729 -0.099131 -0.32964 
0.061501 0.041443 -0.0057439 0.037332 -0.030735 0.080902 -0.061645 0.029769 
0.036182 0.046704 -0.015444 0.045882 -0.024323 0.12003 0.051308 0.62117 
0.052294 0.072846 0.01974 0.060515 0.00083261 0.077285 0.12233 0.77128 
0.029934 0.070708 0.030263 0.042923 -0.042079 -0.038133 0.12875 0.39691 
0.028125 0.024015 0.049335 0.0069159 -0.066906 -0.10817 0.10145 0.021878 
0.0044497 0.017767 0.061172 0.00297 -0.077922 -0.084991 0.067091 -0.060823 
-0.024323 0.055747 0.056404 0.033715 -0.05326 -0.019719 0.033058 0.034537 
0.0014903 0.087808 0.052294 0.020727 -0.069536 -0.0034422 -0.026296 -0.053588 
0.016288 0.063639 0.024837 0.021384 -0.067892 -0.019061 -0.024323 -0.13103 
0.031085 0.033222 0.041278 0.021713 -0.068879 -0.02794 -0.013636 -0.13612 
0.051308 -0.01676 0.041936 0.053116 -0.055561 -0.032215 -0.0031133 -0.088444 
0.068571 0.0047785 0.044731 0.029112 -0.056548 0.035853 0.059528 -0.013965 
0.0421 0.06594 -0.01232 0.022206 -0.051615 0.16738 0.11937 0.2366 
0.010697 0.067256 -0.015773 0.029934 -0.023665 0.25206 0.17051 0.47336 
0.0056006 0.037004 0.013164 0.038977 -0.040435 0.2001 0.11905 0.25025 
0.025659 0.020562 0.021384 0.013164 -0.062138 0.051143 0.0031344 -0.21225 
0.061008 0.024344 0.048348 -0.0077169 -0.078086 -0.026953 -0.12248 -0.54173 
0.073668 0.032564 0.020727 0.0093821 -0.042079 -0.016595 -0.20748 -0.56426 
0.10096 0.026317 0.046704 0.020562 -0.067399 -0.0078813 -0.21389 -0.41086 
0.10606 0.0014903 0.055254 0.0093821 -0.077428 -0.041093 -0.16292 -0.25368 
0.077778 0.009711 0.066269 0.027139 -0.067235 -0.10373 -0.057041 -0.13958 
0.045389 0.013657 0.044402 0.065283 -0.0406 -0.099624 0.10672 0.1733 
0.052787 -0.0014692 0.034702 0.03799 -0.052437 -0.062302 0.2052 0.41269 
0.047362 0.061501 0.021878 0.047033 -0.026624 0.048348 0.24153 0.57086 
0.01974 0.089945 0.013657 0.050979 -0.0062372 0.19468 0.19944 0.77588 
-0.028597 0.082053 0.024837 0.084848 0.026317 0.18596 0.17643 0.64977 
-0.082196 0.077614 0.0044497 0.051801 0.012999 0.061666 0.086492 0.052952 
-0.085813 0.054267 0.0016547 0.037332 -0.00064712 -0.042079 -0.024487 -0.46216 
0.0031344 0.042923 0.029934 0.033058 -0.020212 -0.0021268 -0.11015 -0.43799 
0.08567 0.0074092 0.071695 0.039305 -0.080388 0.08978 -0.094034 -0.11919 
0.12299 -0.014787 0.071202 0.0016547 -0.1113 0.11839 -0.033694 0.19435 
0.093233 0.013657 0.049006 0.0070803 -0.10686 0.083204 0.013492 0.1031 
0.037004 0.045882 0.0052718 0.037004 -0.076113 0.04506 0.043909 -0.069701 
0.027139 0.082875 0.036839 0.058049 -0.086471 -0.011005 0.024015 -0.12116 
0.043251 0.065283 0.069064 0.017767 -0.10094 -0.025967 0.0092177 -0.10784 
0.057062 0.0011614 0.054596 0.018918 -0.098638 -0.0011404 0.014479 -0.091404 
0.044073 0.0052718 0.045882 0.0079024 -0.096994 -0.0029489 0.034537 -0.089595 
0.019083 0.025495 0.027961 0.025166 -0.10258 0.0227 0.036182 -0.027282 
0.036017 0.010862 0.0421 0.0041209 -0.091897 0.028125 0.012013 0.06183 
0.061172 0.046375 0.019247 0.0087245 -0.067892 0.045553 -0.013143 0.14979 
0.03388 0.03947 0.0098754 0.050979 -0.038956 0.032236 0.0011614 0.069558 
0.021713 0.065776 0.020069 0.02533 -0.02646 -0.00031829 0.041114 -0.012485 
-0.010019 0.095699 0.014808 0.031414 -0.010841 -0.018404 0.073668 -0.036983 
-0.014951 0.043909 0.026152 0.041114 0.013328 0.01711 0.094055 0.13056 
0.013492 0.040621 0.020562 0.053938 -0.02498 0.047526 0.069722 0.36501 
0.063639 0.019247 0.042758 0.023686 -0.0503 0.083204 0.046211 0.28247 
0.11033 0.016781 0.039799 0.007738 -0.07973 0.032729 -0.019719 -0.15618 
0.15867 -0.0036066 0.086657 0.0082312 -0.081539 -0.018897 -0.079566 -0.39606 
0.12447 0.011355 0.071859 0.020562 -0.097816 -0.050629 -0.067564 -0.30399 
0.023028 0.055911 0.043909 0.018754 -0.081045 -0.028597 0.019905 -0.086142 
-0.10505 0.093398 0.024508 0.059693 -0.04619 0.0062583 0.1294 0.26061 
-0.13612 0.13598 -0.011334 0.073175 -0.031064 0.078272 0.16541 0.38227 
-0.10817 0.14486 -0.038956 0.063968 -0.038298 0.15999 0.1516 0.27984 
-0.068057 0.095699 -0.02498 0.035524 -0.059507 0.14486 0.12891 0.086985 
-0.006566 0.038648 0.014479 0.011684 -0.082854 0.058871 0.081889 -0.038956 
0.034209 0.011026 0.042594 0.016781 -0.096007 -0.063618 0.017603 -0.1718 
0.072681 0.010369 0.051636 -0.0022913 -0.10669 -0.089431 -0.021528 -0.19268 
0.085835 0.014643 0.038483 -0.020048 -0.11179 -0.090088 -0.045368 -0.14237 
0.091096 0.022371 0.040621 0.0070803 -0.064768 -0.046519 -0.028762 0.0060938 
0.077121 0.028454 0.039634 0.043251 -0.065426 0.016452 0.016288 0.11115 
0.074819 0.056076 0.040785 0.0227 -0.06148 0.051472 0.016123 0.12875 
0.071531 0.053609 0.045718 0.017438 -0.065591 0.056569 0.018425 0.10343 
0.06331 0.05213 0.010204 0.033222 -0.041257 0.021056 0.027139 0.052294 
0.026646 0.051801 0.012506 0.041443 -0.064768 -0.011663 0.06594 0.039634 
0.011026 0.049664 0.029769 0.016781 -0.068057 -0.036818 0.060679 0.0227 
0.014315 0.057391 0.053774 0.022371 -0.056877 -0.024323 0.053774 0.061501 
0.016123 0.049006 0.025495 0.041114 -0.038956 -0.013143 0.05065 0.090438 
0.014643 0.044896 0.0060938 0.04358 -0.038298 -0.0004827 0.055418 0.11066 
0.0075736 0.055254 -0.0032777 0.041936 -0.03205 0.013492 0.048184 0.038648 
0.0031344 0.044731 0.004943 0.025495 -0.038627 0.0324 0.048677 0.034866 
0.012835 0.096686 0.0060938 0.073175 -0.028433 0.0069159 0.068242 -0.01528 
0.029112 0.058542 0.015959 0.021056 -0.046683 0.03947 0.05065 -0.10143 
0.063474 0.02681 -0.00031829 0.025001 -0.047341 0.0062583 0.020562 -0.14122 
0.033551 0.034044 0.011355 0.030427 -0.023994 0.00099702 -0.014129 -0.13596 
0.069393 0.020891 0.018589 0.042594 -0.047505 -0.029748 -0.056055 -0.052109 
0.038812 0.041607 0.009711 0.021713 -0.060658 1.0539e-005 -0.019719 0.086985 
-0.014951 0.09981 0.034702 0.011026 -0.074798 -0.0029489 0.042429 0.1858 
-0.096829 0.10852 0.044073 0.01415 -0.059507 0.0074092 0.1003 0.19155 
-0.094199 0.098988 0.0592 0.013492 -0.087622 0.011684 0.082217 0.21424 
-0.0098543 0.060679 0.053445 0.017274 -0.073811 0.0059294 0.050157 0.21194 
0.055582 0.029605 0.023193 0.023522 -0.050793 0.023522 0.0032988 0.14058 
0.081889 0.029934 0.014808 0.054103 -0.010676 0.017603 0.0056006 0.01974 
0.12414 -0.032379 0.026481 0.039305 -0.018897 0.026481 0.012177 -0.087293 
0.18021 -0.066413 0.057555 0.041114 -0.017088 0.024179 0.016781 -0.15717 
0.18399 -0.085813 0.051801 0.049992 -0.025309 0.06331 0.061501 -0.11294 
0.13631 -0.014622 0.03651 0.061995 -0.038462 0.081724 0.059035 -0.033859 
0.07038 0.10014 0.0088889 0.015137 -0.084005 0.075805 0.021549 -0.091239 
0.0072447 0.13499 0.013821 -0.0064016 -0.099131 0.053609 -0.023501 -0.20929 
-0.021528 0.098494 0.04654 -0.011827 -0.084005 0.015465 -0.038791 -0.19844 
-0.060329 0.064132 0.051636 0.025001 -0.084663 -0.0011404 -0.020377 0.01563 
-0.068879 0.024344 0.05065 0.010697 -0.074469 0.027961 0.04506 0.36846 
-0.029748 0.013657 0.075641 0.009711 -0.071674 0.023522 0.072024 0.51397 
0.021549 0.053774 0.1003 0.029441 -0.051287 -0.025309 0.0421 0.24318 
0.0786 0.065283 0.038648 0.020562 -0.076442 -0.040764 0.015794 -0.022021 
0.074161 0.053774 0.020891 0.023522 -0.072989 0.01563 0.0083956 -0.14418 
0.05772 0.027796 0.0056006 0.0088889 -0.083676 0.011355 -0.0060728 -0.145 
0.069886 -0.031721 0.043087 0.029441 -0.068714 -0.0064016 -0.0060728 -0.14221 
0.060022 -0.016431 0.054267 0.034702 -0.052931 0.0034632 0.033058 -0.18282 
0.051472 -0.015444 0.04506 0.029605 -0.025967 0.044567 0.10047 -0.01232 
0.017603 0.029276 0.013492 0.029276 -0.01676 0.084684 0.13467 0.22427 
0.0051074 0.074654 0.005765 0.082053 -0.00081153 0.11395 0.030098 0.24367 
0.022864 0.10688 0.0085601 0.080244 -0.0073881 0.083697 -0.076113 0.21062 
-0.00015387 0.090109 -0.0090322 0.037168 -0.045696 0.087479 -0.086471 0.19155 
0.007738 0.087479 0.0080668 0.025166 -0.047834 0.068078 0.00297 0.12217 
0.041114 0.028783 0.038977 0.038977 -0.075455 0.031578 0.071859 0.04917 
0.040621 0.018754 0.048184 0.0044497 -0.093212 0.00083261 0.10507 -0.05326 
0.061008 -0.0087034 0.068242 0.013164 -0.097322 -0.004593 0.046046 -0.055232 
0.049664 0.0019835 0.050321 0.01267 -0.069372 0.0051074 0.0019835 -0.068879 
0.03947 0.032236 0.046704 0.024179 -0.1011 -0.013471 -0.014129 -0.096172 
0.013164 0.041607 0.042265 0.014808 -0.1062 -0.014129 -0.018404 -0.07414 
0.0092177 0.04506 0.041936 0.019411 -0.10505 -0.0042642 0.028125 -0.026131 
0.00066819 0.058377 0.012835 0.051965 -0.059836 0.023357 0.03651 0.039799 
0.01152 0.012506 0.012506 0.037168 -0.064111 0.056898 0.033222 0.082875 
0.02533 0.048348 0.027139 0.020727 -0.056877 0.083697 0.034044 0.086821 
0.053609 0.038483 0.047855 -0.0057439 -0.059836 0.067091 0.032071 0.11642 
0.061995 0.048019 0.041936 0.052787 -0.029255 0.0075736 0.029934 0.10803 
0.075148 0.049992 0.0041209 0.032729 -0.039778 0.00083261 0.012177 0.087808 
0.047033 0.063639 0.016945 0.030098 -0.044052 0.0065871 0.019411 0.08008 
0.069393 0.034702 0.044402 -0.0022913 -0.048163 0.047033 0.032564 0.042923 
0.084026 0.020069 0.055747 0.059035 -0.047012 0.053445 0.014315 0.0037921 
0.039799 0.012506 0.0039565 0.042265 -0.03912 0.039305 0.0324 -0.0029489 
-0.042901 0.044896 -0.017253 0.03947 -0.035832 0.05476 0.045882 0.04358 
-0.076113 0.083204 -0.010019 0.044896 -0.012649 0.038155 0.0421 0.087643 
-0.07562 0.050157 0.014315 0.068571 -0.037311 0.0056006 0.029605 0.083368 
-0.069372 0.10885 -0.0044286 0.03947 -0.04619 -0.014293 0.016452 0.062817 
-0.024158 0.087314 0.01152 0.030098 -0.060987 -0.023665 0.0079024 -0.003771 
0.0324 0.036017 0.025988 0.042758 -0.05589 0.0032988 0.02122 -0.0034422 
0.088958 0.0014903 0.055418 0.0051074 -0.08532 0.069229 0.062981 -0.047505 
0.070544 -0.034352 0.088301 0.017438 -0.077757 0.081889 0.083204 -0.1016 
0.097672 -0.0049219 0.060022 0.010533 -0.076113 0.093069 0.055089 -0.1381 
0.12612 0.0034632 0.01974 0.047362 -0.058685 0.051636 0.028783 -0.023994 
0.17248 -0.019555 0.026646 0.02533 -0.044381 -0.0019624 -0.050464 0.16163 
0.15834 0.038483 0.050814 0.022535 -0.026953 -0.051944 -0.059178 0.17248 
-0.027611 0.15407 -0.0013048 0.031907 -0.0057439 -0.070687 0.035853 0.16492 
-0.19646 0.24334 -0.05589 0.062981 -0.031721 -0.039613 0.11559 0.12299 
-0.19087 0.14913 -0.024816 0.025001 -0.045039 0.014479 0.079422 0.04095 
-0.066577 0.036346 0.030592 -0.014787 -0.076606 0.066763 0.01974 -0.055068 
0.056569 -0.026296 0.087314 0.01004 -0.038462 0.084519 -0.040271 -0.067892 
0.10244 -0.032379 0.079916 0.016616 -0.062138 0.077449 -0.0082102 -0.059836 
0.05213 -0.011992 0.05624 0.02122 -0.069536 0.058871 0.046046 -0.019555 
0.027961 0.053774 0.03651 0.012342 -0.083183 0.036839 0.055911 0.032071 
0.049992 0.05624 0.025988 0.046211 -0.06707 0.06331 0.053445 0.092411 
0.093233 0.069886 -0.02087 0.062323 -0.079072 0.053445 0.037168 0.027468 
0.076627 0.058377 -0.01117 0.049499 -0.084005 0.0082312 0.051472 -0.049478 
0.039963 0.061337 0.011191 0.024179 -0.086471 -0.0088678 0.077449 -0.08828 
0.018589 0.080244 0.043251 0.042594 -0.05178 0.015301 0.065776 -0.13152 
-0.0019624 0.051308 0.054103 0.0098754 -0.036983 0.05624 0.050321 -0.23329 
0.011684 0.028947 0.036346 0.0065871 -0.020048 0.038155 -0.039613 -0.20814 
0.029112 0.022371 0.033551 0.016452 -0.010676 -0.00097594 -0.085813 0.069393 
0.017274 0.073997 0.031085 0.044238 -0.034681 -0.025638 -0.095185 0.24647 
0.012835 0.054267 0.055418 0.016452 -0.05589 -0.044052 0.012013 0.29809 
0.027139 0.059035 0.053609 -0.0032777 -0.085813 -0.027282 0.023028 0.1784 
0.055747 0.020069 0.074161 0.023522 -0.077593 -0.031721 0.089616 0.058049 
0.080738 0.0064227 0.050814 0.033222 -0.083347 0.0056006 0.11411 0.0095465 
0.082875 0.013986 0.063968 0.027796 -0.077922 0.042429 0.13072 0.10967 
0.069886 0.037332 0.043745 0.038977 -0.071674 0.076956 0.13434 0.20964 
0.041443 0.085506 -0.0004827 0.049006 -0.059014 0.025001 0.084684 0.11428 
0.01152 0.088958 -0.011498 0.040292 -0.074633 -0.013965 0.029441 -0.12659 
-0.026131 0.086492 -0.0052507 0.018918 -0.075784 -0.033365 0.012506 -0.27785 
-0.033037 0.053281 0.025824 0.019905 -0.05441 -0.0049219 -0.0080457 -0.27604 
-0.017417 0.034537 0.03536 0.046375 -0.01676 0.072681 -0.00015387 -0.11442 
1.0539e-005 0.049828 0.058871 0.022042 -0.030899 0.11066 0.021056 0.095206 
0.0093821 0.034866 0.030592 0.025001 -0.026296 0.098166 0.041772 0.21967 
0.051308 0.035853 0.049335 0.021549 -0.016431 0.030098 0.062323 0.25798 
0.069064 0.030592 0.078272 0.048841 -0.055397 0.019083 0.030592 0.14897 
0.094055 -0.012649 0.041772 0.024015 -0.080552 0.023686 0.01563 0.063145 
0.1294 -0.0011404 0.025166 0.019576 -0.094199 -0.0062372 -0.0080457 -0.014293 
0.15407 0.015465 0.041443 0.040621 -0.050464 -0.02794 -0.025967 -0.02235 
0.12332 0.055582 0.069393 0.041607 -0.080881 -0.02646 -0.015609 0.035195 
0.023686 0.035853 0.05065 0.018754 -0.085978 0.0016547 0.022042 0.12217 
-0.0138 0.017274 0.05065 0.020891 -0.095349 -0.013471 0.028619 0.06331 
0.013492 -0.0026201 0.041772 0.047691 -0.092883 -0.046025 0.031742 -0.070687 
0.0054362 0.057227 0.026152 0.035688 -0.10883 -0.0406 0.01711 -0.11212 
0.004943 0.079422 0.034866 0.024344 -0.11261 -0.027447 0.049992 0.024344 
0.023686 0.080573 -0.017746 -0.016102 -0.13053 0.031414 0.048348 0.24926 
0.034209 0.04506 0.032729 0.030427 -0.08384 0.070215 1.0539e-005 0.29217 
0.053938 0.031249 0.041772 0.028454 -0.044052 0.074819 -0.01232 0.19073 
0.044402 0.062488 0.056076 0.055582 -0.0054151 0.10441 0.019576 0.053116 
0.037661 0.026974 0.04358 0.031578 -0.00081153 0.045224 0.073339 -0.14615 
0.031249 0.0051074 0.032564 0.039305 -0.034188 -0.01528 0.060186 -0.34164 
0.016616 0.024015 0.027632 0.0085601 -0.059672 -0.057041 0.05624 -0.29297 
0.018754 0.037332 0.02533 -0.0011404 -0.072989 0.0036276 0.021713 -0.030242 
0.03388 0.048513 0.074161 0.012506 -0.03501 0.086985 0.0024767 0.36517 
0.05065 0.057884 0.035524 0.040785 -0.043888 0.14946 0.017767 0.56658 
0.048348 0.09274 0.013986 0.029605 -0.035338 0.1248 0.040785 0.34183 
0.026152 0.13631 -0.031064 0.039634 -0.029913 -0.0077169 0.06035 -0.032215 
-0.023994 0.11559 -0.025309 0.053938 -0.012814 -0.10341 0.055418 -0.22639 
-0.037476 0.059035 0.010533 0.027303 -0.048656 -0.090746 0.033058 -0.23691 
-0.014293 0.030098 0.042265 -0.011992 -0.072825 -0.0036066 0.023357 -0.09239 
0.029276 -0.019719 0.067585 -0.022843 -0.082196 0.034537 -0.011498 0.050321 
0.049664 -0.01528 0.053116 0.03388 -0.04471 0.017932 0.0026412 -0.043559 
0.077614 0.0031344 0.051636 0.046046 -0.053917 0.046046 -0.023665 -0.10669 
0.052787 0.035031 -0.025309 0.03947 -0.057205 0.059364 -0.029255 -0.11311 
0.050814 0.093562 0.014643 0.027303 -0.06855 0.10145 0.03092 0.11148 
0.069722 0.084519 0.0021479 0.056076 -0.072825 0.072846 0.057062 0.33229 
0.080738 0.023357 0.064954 0.021056 -0.086471 0.05476 0.05476 0.23512 
0.068736 0.0083956 0.055254 0.016945 -0.086307 0.045718 -0.01117 -0.035667 
0.051801 0.032729 0.029769 0.011355 -0.066906 -0.01528 -0.035832 -0.23691 
0.0037921 0.080902 0.011355 0.038812 -0.092554 -0.06707 0.0046141 -0.1889 
-0.063782 0.095206 -0.004593 0.026974 -0.072825 -0.041422 0.047362 0.034044 
-0.06296 0.072681 0.027303 0.044567 -0.039449 -0.035996 0.088465 0.18284 
-0.021692 0.025988 0.007738 0.068571 0.0044497 -0.035832 0.10408 0.044896 
0.010697 -0.0091966 0.026152 0.037004 -0.0072237 0.0013258 0.078436 0.0023123 
0.058213 0.004943 0.043909 0.011355 -0.0082102 0.065283 0.08863 -0.032543 
0.10162 0.045882 0.048019 0.01267 -0.017582 0.097015 0.043745 -0.0067304 
0.095699 0.046704 0.029441 0.012999 -0.042737 0.093562 -0.0044286 0.01152 
0.13088 0.03536 0.03092 0.0031344 -0.068879 0.060515 -0.10587 -0.080059 
0.10014 0.050321 0.019083 0.0072447 -0.064275 0.029276 -0.1358 -0.2009 
0.0421 0.056404 0.032893 0.027796 -0.035667 0.015794 -0.089924 -0.19597 
-0.0057439 0.046211 0.069722 0.060186 -0.020212 0.0074092 0.00017495 -0.075949 
-0.018075 0.014479 0.038155 0.022042 -0.032379 -0.0040998 0.070873 0.053116 
-0.012156 -0.00031829 0.038155 0.011026 -0.045861 0.0044497 0.10852 0.17445 
0.061008 0.0052718 0.08008 -0.008539 -0.04471 0.025659 0.07038 0.17396 
0.082875 0.029605 0.064625 0.026152 -0.068221 0.045553 0.046211 0.22838 
0.014315 0.11526 0.024837 0.030263 -0.064275 0.026974 0.042758 0.20619 
-0.11261 0.16886 -0.0088678 0.048841 -0.060658 0.026317 0.091753 0.078765 
-0.13168 0.13203 -0.035503 0.082382 -0.03764 0.020069 0.083697 -0.054739 
-0.065755 0.085999 -0.018568 0.0786 -0.04471 0.012506 0.071366 -0.078744 
0.0056006 0.061172 0.037826 0.052459 -0.050136 0.0075736 0.065283 -0.032543 
0.056404 0.025166 0.024344 0.02829 -0.066248 0.012342 0.017932 -0.01528 
0.10918 0.0019835 0.062323 0.042758 -0.05737 -0.01528 -0.028762 -0.0088678 
0.07301 0.0074092 0.069886 0.0046141 -0.071838 0.020727 0.010369 -0.015116 
0.020233 0.035031 0.064132 0.0031344 -0.073811 -0.0082102 0.024508 -0.081539 
0.0016547 0.04358 0.04506 -0.003771 -0.074469 -0.042408 0.0034632 -0.15602 
0.012342 0.047526 0.004943 0.048677 -0.068714 -0.029584 -0.020377 -0.091404 
0.058377 0.027468 0.039141 0.025001 -0.062631 -0.010841 -0.046354 -0.15125 
0.06479 -0.00081153 0.03947 0.03388 -0.053095 -0.016924 -0.029584 -0.021199 
0.026646 0.023686 0.051308 0.039141 -0.0077169 0.054596 0.0421 0.25929 
0.02533 0.023028 0.026152 0.052952 -0.02646 0.20076 0.11576 0.56198 
-0.010183 0.068078 0.045882 0.037661 -0.038133 0.32177 0.16278 0.93092 
0.0062583 0.066105 0.028454 0.037332 -0.035338 0.20635 0.147 0.81912 
0.024344 0.052787 0.041278 0.045224 -0.03912 -0.044874 0.094713 -0.036654 
0.038319 0.019083 0.070873 0.053281 -0.056383 -0.24234 0.06742 -0.78654 
0.041114 0.021384 0.03536 0.016616 -0.089759 -0.20468 0.087314 -0.72357 
0.059857 0.025988 0.027468 0.0070803 -0.10867 -0.065591 0.019083 -0.31846 
0.053774 0.044567 0.041936 0.014643 -0.10998 0.090274 -0.079566 -0.070852 
0.053938 0.071037 0.079587 0.024179 -0.11409 0.14289 -0.19581 -0.033201 
0.036182 0.071531 0.019083 0.014972 -0.077428 0.1396 -0.18249 0.14486 
0.018589 0.08863 0.0013258 0.0227 -0.041586 0.12053 -0.098638 0.31437 
-0.036325 0.088958 -0.0090322 0.053609 -0.041751 0.042758 0.031249 0.28708 
-0.076277 0.080244 0.0052718 0.05065 -0.041093 0.038319 0.14321 0.18399 
-0.060165 0.091753 0.035195 0.024015 -0.05737 0.028947 0.14815 0.14026 
-0.0078813 0.066434 0.031578 0.018754 -0.045696 -0.017582 0.16475 0.11674 
0.014972 0.048348 0.052623 0.059035 -0.080388 -0.040764 0.090767 0.024508 
0.05213 0.018918 0.020562 0.02533 -0.084169 -0.037311 0.031414 -0.084334 
0.089616 0.033715 0.015794 0.0039565 -0.087458 0.0047785 -0.027775 -0.10505 
0.094384 0.03947 0.010697 0.031742 -0.059014 0.033058 -0.015609 -0.072989 
0.050321 0.079422 0.019083 0.047855 -0.080059 0.023193 0.026317 -0.011663 
-0.0082102 0.091918 0.019247 0.028125 -0.086636 0.012506 0.066763 0.062817 
-0.0077169 0.06594 0.039963 0.032236 -0.071016 0.027961 0.10951 0.099974 
0.031414 0.016123 0.072353 0.046868 -0.066084 0.053938 0.11296 0.25403 
0.062817 0.0054362 0.041607 0.034209 -0.077757 0.02829 0.094384 0.31223 
0.099974 0.012177 0.029605 0.012999 -0.080881 -0.048656 0.028947 0.17676 
0.12891 -0.0057439 0.051143 0.0052718 -0.081539 -0.057205 -0.066413 -0.0055795 
0.12644 -0.0064016 0.067913 0.031907 -0.071509 -0.0075525 -0.088115 -0.10982 
0.10425 -0.018404 0.02829 0.0093821 -0.059507 0.037004 -0.054575 -0.11261 
0.099481 -0.025967 0.047197 -0.011498 -0.065755 0.08008 -0.025474 -0.079237 
0.10869 0.0026412 0.053281 0.0060938 -0.034845 0.085177 -0.024323 -0.032543 
0.088465 0.016616 0.068078 0.030756 -0.047998 0.079094 -0.04882 -0.038627 
0.067256 0.025659 0.080573 0.014643 -0.063124 0.06742 -0.060165 -0.026624 
0.075805 0.03536 0.020233 0.021056 -0.067728 0.022535 -0.030735 -0.003771 
0.049828 0.087808 -0.016595 0.044402 -0.040928 -0.047012 0.037826 0.035031 
0.025166 0.13615 -0.035174 0.065118 -0.053424 -0.051615 0.07301 -0.0077169 
-0.021692 0.099316 0.0092177 0.049664 -0.05326 -0.022185 0.10639 -0.098473 
-0.045861 0.04654 0.032893 0.020727 -0.067399 0.036346 0.13335 -0.076113 
-0.080881 0.05624 0.052787 0.041607 -0.056877 0.069064 0.1544 0.14124 
-0.059836 0.048348 0.038319 0.01974 -0.058521 0.059528 0.091753 0.17939 
-0.038627 0.086657 0.04358 0.016123 -0.051287 0.031742 -0.0073881 0.047526 
1.0539e-005 0.089616 0.039634 0.019905 -0.0503 -0.0088678 -0.036654 -0.058356 
0.037826 0.029276 0.050814 0.046868 -0.066577 -0.02087 -0.0073881 -0.065755 
0.091096 -0.03057 0.048513 0.01267 -0.063289 -0.0014692 -0.0019624 0.00033937 
0.11165 -0.039942 0.060022 0.0098754 -0.071016 0.017603 0.009711 0.072681 
0.11872 -0.017911 0.071366 0.019247 -0.033694 0.027961 0.054596 0.15999 
0.090767 0.03388 0.03536 0.043087 -0.042079 0.085506 0.020398 0.16771 
0.023193 0.046704 -0.0049219 0.037661 -0.033201 0.074326 0.026152 0.1544 
0.03536 0.050486 -0.0013048 0.037168 -0.034188 0.055418 0.027468 0.12365 
0.044567 0.049664 0.020891 0.024015 -0.023007 0.019247 0.033715 0.082053 
0.0087245 0.041443 0.043251 0.023851 -0.059836 0.0047785 0.022535 0.020233 
-0.0004827 0.084684 0.039141 -0.0091966 -0.074469 0.023193 0.0039565 0.042429 
0.027961 0.060186 0.033387 -0.010512 -0.07825 -0.021034 0.0095465 0.009711 
0.016288 0.06742 0.045553 0.017767 -0.068221 -0.086142 0.019905 -0.18759 
-0.0077169 0.06479 0.066269 0.026152 -0.071674 -0.11574 0.031742 -0.30054 
-0.02646 0.079094 0.028619 0.016616 -0.062796 -0.05178 0.054103 -0.25861 
-0.021034 0.084355 0.036675 0.05065 -0.039284 0.066927 0.061337 -0.080388 
-0.0014692 0.058213 0.018096 0.069886 -0.035667 0.084355 0.063639 0.1396 
-0.0077169 0.031249 0.053938 0.052623 -0.029091 0.097672 0.025659 0.22772 
0.011355 0.027632 0.029934 0.039141 -0.037311 0.097837 0.022371 0.087972 
-0.0021268 0.047526 0.01563 0.059528 -0.0011404 0.11609 0.018425 -0.015609 
-0.0029489 0.057391 0.01004 0.042265 -0.043724 0.061666 0.017767 -0.04882 
0.01267 0.064132 0.034866 0.0046141 -0.058521 0.012177 0.0059294 -0.02942 
0.049499 0.029441 0.061172 -0.004593 -0.064768 0.0062583 0.014479 0.019083 
0.10606 0.007738 0.031907 0.01415 -0.02235 -0.0016336 -0.0078813 0.029605 
0.12792 0.0046141 0.040128 0.034537 -0.033201 0.028947 -0.034023 0.052952 
0.09274 0.048513 0.038483 0.025166 -0.031392 0.052623 -0.0011404 0.13401 
-0.009361 0.10918 0.033222 0.047197 -0.022679 0.071695 0.034866 0.14617 
-0.09798 0.12743 0.032236 0.056076 -0.029584 0.051965 0.094384 0.061172 
-0.10538 0.097179 0.0072447 0.048677 -0.042079 0.031085 0.057227 0.04917 
-0.021363 0.048184 -0.0042642 0.031578 -0.055397 0.0079024 0.056569 0.016123 
0.059364 0.021549 0.037826 0.031907 -0.072989 -0.0068948 0.030263 0.0056006 
0.11773 0.010862 0.063803 0.045553 -0.082361 0.0060938 0.007738 -0.065097 
0.11773 -0.01117 0.043416 0.035853 -0.065919 0.038648 0.0044497 -0.034516 
0.088794 -0.034845 0.036675 0.035031 -0.068057 0.063474 -0.0026201 -0.00064712 
0.0689 -0.0027845 0.025001 0.034537 -0.055232 0.037826 0.0011614 0.011355 
0.053938 0.10639 0.029441 0.042429 -0.10357 -0.013471 0.0085601 0.0087245 
0.025988 0.14733 0.015794 -0.012978 -0.096665 -0.022021 0.0051074 -0.010348 
-0.044217 0.15127 0.013657 -0.01939 -0.082361 -0.0044286 0.029441 0.0046141 
-0.053588 0.077449 0.031578 -0.0098543 -0.0503 0.0016547 0.057062 0.023028 
-0.027282 0.018425 0.065776 0.033715 -0.044052 0.027139 0.079094 0.054432 
-0.036983 0.0098754 0.077778 0.02829 -0.041422 0.022535 0.068407 0.054432 
-0.060658 0.015465 0.048841 0.010204 -0.047012 0.0227 0.073339 0.055582 
-0.0050863 0.062323 0.013492 0.052787 -0.023007 0.018754 0.047691 -0.0032777 
0.062323 0.055418 -0.016924 0.026974 -0.051287 0.0098754 0.005765 -0.07414 
0.088301 0.041278 0.035195 0.018589 -0.065591 -0.036325 -0.030735 -0.10209 
0.1003 0.029276 0.02829 0.028947 -0.073318 -0.031392 -0.029913 -0.050629 
0.092082 0.031085 -0.0036066 0.044402 -0.085649 0.039634 0.017932 0.081724 
0.065776 0.017767 0.023522 0.030427 -0.094363 0.064461 0.027632 0.20947 
0.018589 0.030263 0.036182 0.022535 -0.088444 0.032236 0.035688 0.22049 
0.027303 0.031085 0.044731 0.014315 -0.059014 0.0227 0.068242 0.15933 
0.010533 0.031907 0.027139 0.074983 -0.035338 0.090603 0.054103 0.15111 
0.047197 0.031085 0.024673 0.033058 -0.039284 0.12776 0.01267 0.094548 
0.077943 0.032729 0.022206 0.046704 -0.05326 0.099481 -0.025474 -0.011827 
0.078107 0.030756 0.06035 0.034044 -0.069372 0.0014903 -0.039778 -0.12577 
0.10573 0.015301 0.064954 0.03799 -0.12182 -0.064111 -0.032708 -0.070194 
0.072188 0.039305 0.01004 0.016288 -0.12396 -0.073482 -0.012485 0.02681 
0.014972 0.072024 0.011191 0.013657 -0.10078 -0.034352 0.053609 0.074161 
-0.058192 0.10145 -0.0004827 0.036017 -0.058028 0.013657 0.10376 0.082217 
-0.081045 0.15752 1.0539e-005 0.050814 -0.050629 0.028783 0.13779 0.064296 
-0.057205 0.096521 0.0044497 0.043416 -0.046354 0.016452 0.10343 -0.066084 
0.037497 0.0083956 0.073339 0.0051074 -0.076442 -0.038627 0.025824 -0.18117 
0.094384 -0.028597 0.10441 0.013164 -0.068386 -0.049314 -0.023665 -0.16259 
0.10228 -0.03205 0.079258 0.0047785 -0.073811 -0.011827 -0.0138 -0.047341 
0.044073 0.05772 0.031249 0.033715 -0.054575 0.028454 0.033551 0.20816 
-0.029255 0.090109 -0.0031133 0.037168 -0.038627 0.064296 0.10622 0.40052 
-0.048327 0.076956 -0.0067304 0.0592 -0.033859 0.075476 0.1077 0.43702 
-0.0014692 0.044896 0.037497 0.043745 -0.018075 0.09685 0.070544 0.30401 
0.033551 0.0067515 0.065447 0.020069 -0.041257 0.12036 0.048841 0.075312 
0.066598 0.019905 0.028947 0.020233 -0.039284 0.085012 -0.019226 -0.17706 
0.070873 0.057062 0.01826 0.029934 -0.07414 0.012506 -0.05441 -0.23477 
0.064625 0.081231 0.017274 0.041607 -0.065097 -0.012156 -0.053424 -0.20255 
0.067585 0.04506 0.05772 0.024179 -0.061809 -0.023829 -0.028269 -0.039449 
0.060679 0.0031344 0.051801 0.034044 -0.029255 0.013492 -0.0016336 0.21095 
0.049992 -0.0034422 0.031085 0.03651 -0.053424 0.014808 0.025166 0.20339 
0.093562 0.0028056 0.038648 0.012835 -0.065755 -0.0004827 0.027303 0.05624 
0.099974 -0.0026201 0.058706 -0.011334 -0.084663 -0.025638 0.015137 -0.045368 
0.085506 0.01415 0.083533 0.028783 -0.069043 0.0075736 0.00017495 -0.068221 
0.045718 0.019905 0.039799 0.017438 -0.064275 0.024508 0.0090533 -0.071016 
0.0018191 0.018589 0.045553 0.017438 -0.052931 0.030427 0.034044 -0.019884 
-0.015773 0.091753 0.025001 0.030427 -0.027447 0.066927 0.052787 0.015794 
-0.003771 0.068571 0.031907 0.063145 -0.03501 0.076627 0.071202 0.063145 
0.00083261 0.06479 -0.0014692 0.027139 -0.050136 0.11526 0.089945 -0.0080457 
0.02122 0.04654 0.0016547 0.027796 -0.060987 0.038812 0.048019 -0.070194 
0.032893 0.060515 0.048841 0.038977 -0.044217 -0.034845 0.033715 -0.11311 
0.016452 0.062159 0.061501 0.028947 -0.079895 -0.020706 0.058706 0.020398 
-0.037311 0.10639 0.054432 0.015794 -0.056548 0.034537 0.10704 0.38589 
-0.051944 0.11214 -0.0088678 0.00099702 -0.04471 0.057391 0.1003 0.64287 
-0.014787 0.071366 -0.0029489 0.054103 -0.003771 0.089123 0.080902 0.55441 
0.056569 0.051801 0.015465 0.063474 -0.0013048 0.02829 0.053116 0.12168 
0.016288 0.035524 0.045553 0.017438 0.0075736 -0.034516 0.027632 -0.20534 
0.0067515 0.042758 0.043416 0.032729 0.029112 -0.02087 -0.0055795 -0.45344 
0.036675 0.036017 0.044567 0.045718 0.0052718 0.019083 -0.038298 -0.49274 
0.069558 0.032893 0.063803 0.022535 -0.041257 0.049664 -0.1358 -0.44917 
0.12003 0.024837 0.057555 0.017438 -0.076442 0.015137 -0.20699 -0.37913 
0.12973 0.018754 0.055418 0.014643 -0.084169 -0.021034 -0.14073 -0.18907 
0.11066 0.045224 0.029276 0.018754 -0.12198 0.015794 -0.0031133 0.074161 
0.068078 0.047362 0.029112 0.014479 -0.10324 0.043416 0.11066 0.32193 
0.025495 0.054596 -0.0016336 0.034537 -0.075949 0.085835 0.19303 0.44261 
0.012342 0.05065 0.029769 0.054432 -0.026296 0.067091 0.16426 0.36402 
0.073997 0.035688 0.036675 0.055582 -0.050464 0.020233 0.087808 0.13976 
0.080244 0.045553 0.026481 0.0087245 -0.087129 -0.036489 0.023522 -0.10275 
0.032564 0.058871 0.033551 0.016452 -0.091075 -0.0868 0.034537 -0.21323 
-0.029748 0.059857 0.027468 0.029276 -0.074798 -0.080717 0.040456 -0.14007 
-0.050464 0.077449 0.029934 0.032564 -0.082032 -0.037476 0.048184 -0.054904 
-0.028597 0.070873 0.019411 0.016781 -0.045203 0.067585 0.057391 0.11411 
0.013986 0.046046 0.048513 0.020233 0.0060938 0.1442 0.028125 0.23923 
0.035195 0.037004 0.049335 0.076792 0.053609 0.10244 0.033551 0.23068 
0.019905 0.058377 0.059693 0.045718 0.026152 0.050321 0.027796 0.17067 
0.0080668 0.06742 0.017274 0.048677 0.013986 0.0421 -0.030242 0.050979 
0.020891 0.052623 -0.0072237 0.046375 0.0062583 0.021056 -0.080717 -0.23576 
0.050979 0.028454 0.0039565 0.042923 -0.080223 -0.070359 -0.076606 -0.47202 
0.070873 0.049006 0.012013 0.012506 -0.12971 -0.11459 0.040621 -0.35956 
0.090931 0.024673 0.052952 0.0059294 -0.13958 -0.091732 0.14667 0.098988 
0.091589 -0.0091966 0.036346 0.011026 -0.10094 0.010862 0.17412 0.62511 
0.091425 -0.025638 0.038319 0.045718 -0.089924 0.15851 0.079587 0.73741 
0.053609 0.025988 0.030098 0.024837 -0.091897 0.18481 -0.0047575 0.35975 
0.025166 0.067749 0.055747 0.0075736 -0.12708 0.06035 -0.052602 -0.27472 
-0.030242 0.097508 0.060679 0.026317 -0.14254 0.0036276 -0.022021 -0.52825 
-0.058356 0.060022 0.037826 0.0067515 -0.14221 -0.025967 0.061995 -0.35874 
0.015137 -0.011992 0.014479 -0.0040998 -0.11689 -0.05737 0.030427 -0.1256 
0.12513 -0.027447 0.043251 -0.0050863 -0.096994 -0.070523 -0.030242 -0.017746 
0.21901 0.0060938 0.062323 0.041443 -0.05885 -0.0049219 -0.096829 0.049499 
0.17955 0.039799 0.032893 0.015959 -0.036818 0.027796 -0.047341 0.19501 
0.081231 0.10293 0.051308 0.051965 -0.014787 0.032893 -0.001798 0.17774 
-0.084334 0.14289 0.019083 0.047855 0.011355 0.038648 0.052459 0.052787 
-0.096829 0.10622 0.069558 0.045882 -0.027611 0.05213 0.10228 0.010204 
-0.032872 0.044567 0.089287 0.0052718 -0.06296 0.10754 0.086985 0.073668 
-0.0087034 0.038648 0.047855 0.012013 -0.075291 0.053116 0.0689 0.080244 
0.013986 0.025988 -0.0049219 0.023522 -0.040435 0.05213 0.062323 0.096193 
-0.023172 0.020233 0.0026412 0.048513 -0.045368 0.04506 0.052623 0.052952 
-0.065262 0.032564 0.044073 0.041772 -0.03912 0.057391 0.077285 0.073832 
-0.071181 0.050321 1.0539e-005 0.047855 -0.044217 0.065283 0.084848 0.055747 
-0.0039354 0.038483 -0.0068948 0.045224 -0.051615 0.077121 0.069393 0.066598 
0.059693 0.048019 0.005765 0.035853 -0.084005 0.054103 0.027632 0.10507 
0.090274 0.027303 0.047033 0.036675 -0.084663 0.022371 -0.0039354 0.10507 
0.11609 0.0026412 0.065447 0.020727 -0.089759 -0.00031829 0.0059294 0.048513 
0.12825 -0.0073881 0.057391 0.033222 -0.083512 0.00066819 -0.01117 0.085999 
0.13023 -0.0070593 0.049499 -0.01232 -0.099624 -0.0082102 -0.023336 0.083697 
0.085341 0.037661 0.061995 -0.0039354 -0.083018 -0.04471 -0.033037 -0.0054151 
0.024344 0.042758 0.059857 0.012013 -0.038791 -0.039613 0.016781 0.00297 
-0.0077169 0.050979 0.028125 0.0324 -0.053424 -0.0080457 0.066763 0.013164 
-0.021363 0.048184 0.0021479 0.046375 -0.024487 0.025001 0.067749 0.051965 
-0.024816 0.042594 0.005765 0.043251 -0.019226 0.046868 0.064954 0.063803 
-0.046354 0.10145 0.018754 0.064296 0.023193 0.033551 0.036839 0.038483 
-0.085813 0.1544 0.00066819 0.065776 -0.0042642 0.012177 0.066598 0.026974 
-0.082196 0.13401 -0.031721 0.043251 -0.021034 0.034373 0.076463 0.019411 
-0.0019624 0.02533 0.013492 -0.010348 -0.060987 0.017438 0.048184 0.033222 
0.079587 -0.012814 0.055582 0.035195 -0.047834 0.086821 0.0065871 -0.093048 
0.11115 0.005765 0.073668 0.012177 -0.071838 0.090438 -0.028104 -0.27292 
0.10392 0.03092 0.028125 0.0060938 -0.070523 0.099152 -0.075784 -0.30744 
0.018425 0.057884 0.01711 0.0042853 -0.064111 0.091918 -0.095185 -0.1455 
0.0054362 0.061666 0.0082312 0.052294 -0.033365 0.060022 -0.025802 0.040292 
0.0026412 0.062323 0.024673 0.035524 -0.035503 0.0014903 0.0421 0.23167 
0.012177 0.027139 0.03092 0.045389 -0.031228 -0.030899 0.098988 0.2902 
0.0085601 0.031578 0.037826 0.033715 -0.011827 -0.053588 0.10507 0.3147 
0.013328 0.027796 0.024837 0.043087 -0.010183 -0.063946 0.097837 0.25008 
0.027468 0.03092 0.036346 0.00017495 -0.014787 -0.043724 0.062159 0.09685 
0.038812 0.062323 0.033551 0.011684 -0.02646 -0.014129 0.055582 -0.035174 
0.019576 0.062488 0.0070803 0.029441 -0.029091 -0.010676 0.016616 -0.08532 
0.0093821 0.059528 -0.0072237 0.061666 -0.049642 0.021878 0.01826 -0.028433 
0.025495 -0.0040998 0.0054362 0.05624 -0.064111 0.045389 0.027796 0.12118 
0.082053 -0.045039 0.033222 0.027796 -0.095021 0.062652 0.0083956 0.22805 
0.14371 -0.0138 0.045224 0.052787 -0.10784 0.033058 -0.0503 0.044402 
0.12447 0.071695 0.02122 0.06594 -0.1427 -0.041422 -0.069701 -0.17904 
0.07038 0.10918 -0.018568 0.0093821 -0.1427 -0.079072 -0.053424 -0.27555 
0.020069 0.12003 0.0095465 -0.0050863 -0.13037 -0.027611 0.0054362 -0.23559 
-0.043066 0.099316 0.071531 -0.018239 -0.11985 0.066105 0.08008 -0.26453 
-0.082196 0.054432 0.05772 -0.015938 -0.10308 0.068736 0.13039 -0.12198 
-0.084005 0.033715 0.033058 0.0079024 -0.080881 0.035195 0.16081 0.13056 
-0.042901 0.03092 0.034044 0.0085601 -0.034845 -0.018733 0.12283 0.27294 
0.05624 0.048677 0.051636 0.029112 -0.028269 -0.041093 0.062159 0.43324 
0.1077 0.023193 0.049828 0.024015 -0.0022913 0.0090533 -0.017253 0.33903 
0.11609 0.027303 0.027796 0.038812 0.021056 0.13056 -0.051451 0.1276 
0.11987 0.0036276 0.025824 0.041607 0.023028 0.16212 -0.023336 -0.048492 
0.1105 -0.0059084 0.053609 0.042429 -0.024323 0.078765 -0.035996 -0.1621 
0.092904 0.026974 0.056569 0.019247 -0.06296 -0.016924 -0.055232 -0.28031 
0.047855 0.044402 0.0079024 0.020069 -0.078744 -0.078415 -0.041586 -0.19071 
0.049828 0.068571 -0.054904 0.05772 -0.060987 -0.051287 0.0079024 -0.042408 
-0.0050863 0.077449 0.00297 0.04654 -0.088937 -0.014458 0.039799 0.055254 
-0.020706 0.085341 0.031085 0.0047785 -0.11228 0.0087245 0.090274 0.14765 
-0.034352 0.082875 0.045882 0.035195 -0.096665 0.027468 0.1151 0.18777 
-0.0096899 0.065447 0.013492 0.059035 -0.083347 0.034702 0.099316 0.17906 
0.049499 0.022042 0.035031 0.015137 -0.10373 0.0069159 0.057391 0.16574 
0.073175 -0.023007 0.076956 -0.011334 -0.12412 -0.023007 0.032236 0.10293 
0.089616 -0.0072237 0.09274 -0.0091966 -0.10686 -0.019719 -0.010676 -0.027775 
0.08008 0.041772 0.04506 0.017603 -0.11376 -0.018239 -0.038462 -0.10456 
0.0421 0.07449 1.0539e-005 -0.0088678 -0.10817 0.0021479 -0.017253 -0.10061 
0.023357 0.064296 0.015465 0.019411 -0.071016 0.064296 0.017274 0.018096 
0.022206 0.043251 0.039141 0.046046 -0.013965 0.092411 0.033715 0.065283 
0.071531 0.0080668 0.085012 0.059035 -0.012978 0.15061 0.035853 0.094713 
0.09833 0.014315 0.072681 0.0060938 -0.039778 0.11263 0.027139 0.069064 
0.062981 0.055254 0.063145 -0.010841 -0.056219 0.028619 0.014643 0.042265 
-0.02794 0.11099 0.017438 0.012013 -0.057041 -0.00015387 0.0227 -0.0068948 
-0.047998 0.086821 0.011026 0.032236 -0.048327 -0.026296 0.073339 -0.079566 
0.0093821 0.021056 -0.0047575 0.021384 -0.05326 -0.023665 0.061172 -0.11903 
0.044238 0.02681 0.012013 0.021056 -0.058028 -0.030242 0.042758 -0.10308 
0.050814 0.046704 0.026317 0.045389 -0.042901 0.0074092 0.03536 0.00033937 
0.01974 0.067585 0.039634 0.024179 -0.017417 0.061995 0.032564 0.11625 
-0.0050863 0.065447 0.050814 0.039305 0.0072447 0.1179 0.02829 0.28182 
-0.014622 0.057555 0.015301 0.029441 0.01415 0.13056 0.064132 0.36994 
-0.0029489 0.019905 0.043416 0.035688 -0.056877 0.065612 0.076792 0.3022 
0.018589 0.024015 0.041278 0.024179 -0.079566 0.01152 0.11263 0.099645 
0.061008 0.042265 0.052459 0.0074092 -0.10949 0.020069 0.028783 -0.080881 
0.091096 0.025824 -0.003771 -0.0055795 -0.087458 -0.00015387 -0.022679 -0.17624 
0.1031 0.022864 0.030263 0.027961 -0.076113 0.0042853 -0.063946 -0.2037 
0.10721 0.03947 0.024344 0.024837 -0.052273 -0.019226 -0.093376 -0.16523 
0.07038 0.0036276 0.051308 0.023522 -0.047505 0.020727 -0.07003 -0.0503 
0.031085 0.020891 0.080573 0.055254 -0.029255 0.020398 0.007738 0.0324 
-0.047998 0.051143 0.049335 0.04095 -0.058356 0.061995 0.076299 0.069064 
-0.066741 0.10425 0.0087245 0.033715 -0.046025 0.10376 0.10359 0.17462 
-0.093705 0.10195 -0.022843 0.053281 -0.02498 0.14848 0.09833 0.21704 
-0.028104 0.09274 0.0042853 0.090767 0.0067515 0.11888 0.10014 0.20273 
0.025988 0.070051 0.0028056 0.045389 -0.0019624 0.057227 0.042265 0.050157 
0.078436 0.015137 0.027468 0.015465 -0.021528 -0.015773 0.032729 -0.1039 
0.09126 -0.02498 0.034209 0.019905 0.00083261 -0.051451 0.030263 -0.14385 
0.057227 -0.012485 0.042923 0.045718 -0.031228 -0.041751 0.034044 -0.10521 
-0.0014692 0.049335 0.052787 0.036182 -0.033859 -0.010841 0.031578 0.019576 
-0.048163 0.088136 0.0014903 0.027468 -0.049807 0.031249 0.0092177 0.053116 
0.00099702 0.087972 0.01826 0.028947 -0.047669 0.05476 -0.0054151 0.12316 
0.030427 0.049006 0.026646 0.023686 -0.077264 0.0592 -0.041093 0.16492 
0.043909 0.03947 0.064296 -0.0029489 -0.10373 0.052787 -0.012156 0.11576 
0.049828 0.037497 0.054103 0.0018191 -0.10932 0.02681 0.02533 -0.061645 
0.06742 0.013821 0.048841 0.032071 -0.096007 -0.022679 -0.004593 -0.15717 
0.11494 0.021384 0.045882 0.01563 -0.10883 -0.019555 -0.03353 -0.10702 
0.085012 -0.0013048 0.037661 0.026317 -0.07562 0.03092 -0.0054151 0.25913 
0.032564 0.035195 0.043416 0.03947 -0.054904 0.076463 0.059528 0.43472 
0.0026412 0.08419 0.0021479 0.047197 -0.057041 0.035688 0.045718 0.067749 
0.0037921 0.086328 0.010697 0.032071 -0.054246 -0.021856 0.039141 -0.33474 
-0.018075 0.091589 0.022206 0.021713 -0.061809 -0.050958 0.062323 -0.36236 
-0.068221 0.12217 0.032071 0.019247 -0.044546 -0.041093 0.073175 -0.14895 
-0.082525 0.077778 0.012177 0.051308 -0.065919 -0.026953 0.08008 0.18185 
-0.042408 0.052952 0.0079024 0.0085601 -0.088937 -0.017746 0.11346 0.36402 
-0.013636 0.014808 0.024179 0.020891 -0.081868 -0.017417 0.086328 0.21737 
-0.0032777 0.016945 0.031578 0.032893 -0.045039 -0.035503 0.062323 0.014315 
0.04654 -0.0039354 0.054925 0.041278 -0.042573 0.00083261 0.0021479 -0.14878 
0.12332 -0.019061 0.036182 0.019576 -0.04471 0.056733 -0.072825 -0.16062 
0.18169 -0.025309 0.056733 0.0088889 -0.048163 0.077285 -0.13086 -0.20764 
0.18267 0.0018191 0.071202 0.029934 -0.043066 0.058377 -0.11574 -0.13547 
0.1465 0.037661 0.053281 0.024344 -0.053753 0.030756 -0.042408 -0.027282 
0.085177 0.066598 0.013328 0.013164 -0.023172 0.052952 0.030098 0.12924 
0.032893 0.073997 -0.0029489 0.018425 -0.00064712 0.049828 0.084519 0.19944 
-0.039449 0.068242 0.015465 0.051308 -0.0075525 0.017767 0.1687 0.20684 
-0.099624 0.083862 0.025824 0.026974 -0.0503 0.021713 0.14716 0.15308 
-0.091897 0.11362 0.054925 0.028619 -0.09387 0.026646 0.09833 0.070708 
-0.022514 0.10392 0.010533 0.029112 -0.087129 -0.022843 0.03092 0.014643 
0.052294 0.059364 0.013657 0.05213 -0.11097 -0.037476 -0.035996 -0.044874 
0.10014 0.031742 0.010204 0.027961 -0.11705 -0.038956 -0.08121 -0.047341 
0.053445 0.0421 0.023357 0.023522 -0.10653 -0.037476 0.011848 -0.019884 
0.013986 0.041772 0.024344 0.055089 -0.072989 -0.023007 0.11115 0.041278 
0.00083261 0.042758 0.028619 0.017932 -0.10341 -0.010183 0.10639 0.074983 
0.0047785 0.036675 0.053445 0.0011614 -0.11672 0.025659 0.063968 0.031085 
0.032564 0.050157 0.046211 0.018425 -0.091075 0.021384 0.026152 -0.084498 
0.085835 0.013986 0.04917 0.053609 -0.049314 -0.0088678 -0.019555 -0.19992 
0.13483 -0.053753 0.037168 0.032071 -0.052437 -0.0039354 -0.051451 -0.17394 
0.15045 -0.066906 0.063145 0.0047785 -0.034188 -0.0062372 -0.063782 -0.10357 
0.072681 0.01974 0.047033 0.038648 0.0044497 0.0227 -0.029748 -0.038791 
-0.040435 0.12299 0.026646 0.095864 0.027468 0.036675 0.048841 0.19188 
-0.075949 0.15341 -0.058028 0.020398 -0.013965 0.053938 0.12266 0.34265 
-0.047012 0.11477 -0.028269 0.034044 -0.029091 0.051801 0.12957 0.24153 
0.00017495 0.059035 0.0087245 -0.0032777 -0.042737 0.088301 0.1493 0.35054 
0.004943 0.033058 0.056404 0.022371 -0.084334 0.13434 0.10556 0.34775 
0.070708 -0.018075 0.11313 -0.01939 -0.11426 0.12858 -0.030735 0.048677 
0.089123 -0.026296 0.073339 -0.006566 -0.10604 0.047033 -0.089102 -0.2402 
0.093726 0.0093821 0.051143 0.041443 -0.073811 -0.011992 -0.073647 -0.2642 
0.087314 0.03388 0.018754 0.045389 -0.079072 -0.017088 -0.008539 -0.16276 
0.074161 0.06742 0.050157 0.030756 -0.076113 0.0093821 0.044238 -0.050136 
0.038977 0.074161 0.034866 0.010204 -0.082032 0.017274 0.096028 0.086821 
-0.017746 0.074161 0.040128 0.049006 -0.061151 0.0054362 0.061501 0.12118 
-0.03764 0.051308 0.037004 0.046046 -0.062302 -0.0072237 0.050321 0.077121 
-0.006566 0.038812 0.02681 0.036839 -0.061973 -0.0034422 0.02122 0.01415 
0.04358 0.072353 0.02829 0.035031 -0.057534 1.0539e-005 0.0064227 0.023686 
0.038648 0.087972 -0.0070593 0.059528 -0.052273 0.0093821 -0.001798 0.052787 
-0.02087 0.091096 -0.0087034 0.032564 -0.0503 0.027632 0.027632 0.086328 
-0.056383 0.074326 0.0047785 0.01563 -0.057205 0.055911 0.067913 0.067091 
-0.021199 0.048348 0.054103 0.024508 -0.017088 0.079258 0.090109 0.045718 
-0.0052507 0.011355 0.033715 0.03799 -0.033201 0.074983 0.097344 0.051472 
0.03651 0.023686 0.044567 0.026152 -0.035996 0.064132 0.085999 0.074161 
0.077614 0.019247 0.052787 0.024508 -0.051287 0.063803 0.046704 0.074161 
0.095371 0.012177 0.04506 0.016452 -0.050958 0.019411 -0.0080457 0.049992 
0.1373 0.0013258 0.074326 0.0031344 -0.078086 0.021713 -0.03501 0.0036276 
0.11461 -0.019226 0.061172 -0.0096899 -0.08384 0.014643 -0.051287 -0.026624 
0.087643 -0.014622 0.080409 0.01267 -0.062138 0.0056006 -0.043724 -0.020377 
0.053116 -0.0024557 0.066927 0.038812 -0.055068 0.0039565 -0.023501 0.0095465 
0.025988 0.007738 0.038812 0.029112 -0.05885 0.034373 0.0075736 0.028947 
-0.008539 0.058049 0.012342 0.02829 -0.046683 0.036017 0.038155 0.024837 
0.011684 0.060515 -0.019719 0.022864 -0.02942 0.017603 0.022371 -0.018568 
-0.010512 0.097015 -0.001798 0.051965 -0.036818 0.022042 0.044073 -0.061645 
-0.012156 0.10293 0.030427 0.016945 -0.04882 0.014808 0.058542 -0.02087 
-0.0055795 0.068407 0.067749 0.025988 -0.04619 0.0421 0.11691 0.14946 
0.0095465 0.026974 0.03092 0.026646 -0.025145 0.10754 0.11115 0.38408 
0.034537 0.027303 0.03799 0.03947 -0.02498 0.09274 0.09833 0.36501 
0.038319 0.0079024 0.040785 0.024508 -0.025802 0.026481 0.048348 0.043745 
0.08156 0.016288 0.054596 1.0539e-005 -0.05885 0.0074092 -0.035667 -0.17345 
0.097179 0.015959 0.033222 0.054267 -0.042408 0.0085601 -0.087622 -0.26009 
0.090931 0.0037921 0.024837 0.036839 -0.073976 -0.018897 -0.056877 -0.24431 
0.071202 0.015465 0.046868 0.019576 -0.084827 -0.066084 -0.024323 -0.182 
0.05213 0.028783 0.074654 0.0098754 -0.093541 -0.094856 0.032729 -0.062302 
0.02533 0.11247 0.045389 0.056569 -0.081868 -0.043395 0.094055 0.15308 
-0.047176 0.12283 -0.0072237 0.024837 -0.071016 0.083204 0.12562 0.39477 
-0.096665 0.10721 -0.010348 0.0046141 -0.05885 0.13253 0.11674 0.21802 
-0.079895 0.079094 0.019411 0.029769 -0.024323 0.11477 0.049006 -0.04619 
-0.00064712 0.020562 0.051801 0.049992 -0.049971 0.065447 -0.012649 -0.1695 
0.054925 0.026152 0.01415 0.025824 -0.075291 0.024673 -0.0138 -0.18167 
0.11017 0.0075736 0.013986 0.015465 -0.088773 -0.025309 -0.03057 -0.14484 
0.11609 0.021056 0.027961 0.01004 -0.058028 -0.039449 -0.072167 -0.13974 
0.07597 0.047197 0.043251 0.040785 -0.041093 -0.019884 -0.07562 -0.092883 
0.041443 0.02681 0.044896 0.0075736 -0.029913 -0.03764 -0.011663 -0.032379 
0.032564 0.0028056 0.042429 -0.00031829 -0.041915 -0.050464 0.03536 0.088136 
0.021878 0.031249 0.041772 0.023851 -0.046847 -0.049971 0.084848 0.14437 
0.039305 0.018589 0.038812 0.025495 -0.075291 -0.011005 0.094055 0.21243 
0.06035 -0.0026201 0.05624 0.046375 -0.063618 0.037661 0.095864 0.22855 
0.075476 0.0013258 0.030098 0.04095 -0.075291 0.053938 0.073668 0.1636 
0.09685 0.023851 0.0085601 0.073997 -0.066084 0.043416 0.043745 -0.01117 
0.080573 0.10754 0.026974 0.017932 -0.097487 0.020891 0.0062583 -0.08828 
0.058213 0.12118 0.048677 0.0067515 -0.099624 0.038483 0.0093821 -0.085978 
-0.044381 0.11839 0.040785 0.011684 -0.060823 0.036017 0.023028 -0.009361 
-0.11409 0.080409 0.030098 0.058542 -0.0503 0.055747 0.062817 0.1368 
-0.13185 0.027961 0.02533 0.02829 -0.048327 0.043745 0.093233 0.15768 
-0.095514 0.049992 0.047197 0.036182 -0.047834 0.049006 0.1299 0.25567 
-0.046519 0.072681 0.028454 0.036346 -0.031228 0.067091 0.11017 0.29579 
0.054596 0.086328 -0.024487 0.035195 -0.057534 0.025166 0.061008 0.12135 
0.082711 0.08567 -0.00097594 0.025495 -0.063618 -0.003771 -0.029091 -0.2009 
0.11477 0.038483 0.0098754 0.014808 -0.069372 0.009711 -0.12544 -0.47284 
0.14272 0.029605 0.091589 0.013492 -0.073154 0.00017495 -0.18348 -0.52266 
0.081724 0.03947 0.040621 0.0085601 -0.087786 0.034866 -0.095185 -0.26996 
0.016123 0.043745 0.0034632 0.013328 -0.066084 0.017274 -0.01232 -0.034516 
-0.02646 0.044567 0.011191 0.035195 -0.02498 -0.0034422 0.087479 0.10556 
-0.010019 0.045224 0.0095465 0.058542 -0.0059084 -0.039284 0.1003 0.23973 
0.020727 0.030098 0.031742 0.037661 -0.02087 -0.02794 0.12266 0.26998 
0.023851 0.059364 0.017932 0.013657 -0.05178 0.0060938 0.10918 0.30483 
0.028947 0.03947 0.028454 0.016781 -0.054082 0.050979 0.10162 0.37159 
0.037004 0.017603 0.02829 0.050979 -0.072003 0.025495 0.11099 0.2948 
