0.041278 0.055747 0.0031344 0.037661 -0.031392 0.026646 0.026646 0.037661 
0.01826 0.04506 -0.016431 0.062159 -0.029748 0.048019 0.01563 0.035853 
0.018096 0.048841 -0.0072237 0.030427 -0.036654 0.051636 0.033551 0.052952 
0.029276 0.059857 -0.0059084 -0.0027845 -0.059836 0.055911 0.024179 0.032071 
0.021384 0.069722 0.011684 0.044567 -0.045861 0.027961 0.019905 0.029769 
0.01415 0.045882 0.020398 0.027632 -0.071016 0.015465 0.017274 0.026317 
1.0539e-005 0.075476 -0.0082102 0.031414 -0.063124 -0.03205 0.025988 0.007738 
0.016288 0.092082 -0.0016336 0.052459 -0.048985 -0.038791 0.033387 0.00083261 
0.038483 0.077449 0.025824 0.082053 -0.047176 -0.040928 0.033058 0.0064227 
0.054925 0.069558 0.0087245 0.041772 -0.051615 -0.014129 0.053938 0.0051074 
0.052787 0.051636 -0.0091966 0.081889 -0.021199 0.0023123 0.031414 0.02829 
0.035195 0.058049 -0.0014692 0.079258 -0.024652 0.013328 0.026646 0.042265 
0.026481 0.060022 0.019247 0.079258 -0.083347 0.0013258 -0.006566 0.010204 
0.054267 0.04506 0.05476 0.0087245 -0.11639 0.0054362 -0.0039354 0.0324 
0.073832 0.019411 0.0031344 0.0036276 -0.088444 0.034209 0.022535 0.06183 
0.033222 0.028947 0.029605 -0.0029489 -0.012485 0.12266 0.060515 0.11362 
0.032729 0.018425 0.021713 -0.02235 0.00099702 0.13894 0.062817 0.087643 
0.039963 0.049335 0.05772 -0.054904 -0.025967 0.096193 0.045553 0.053116 
0.027961 0.048348 0.078436 -0.05326 -0.070687 0.074654 0.029769 0.01004 
0.011026 0.030098 0.065776 -0.0095255 -0.08121 0.11428 0.030098 0.020233 
0.01826 0.025824 0.066269 -0.00031829 -0.070359 0.097015 -0.009361 0.0041209 
0.0324 0.02681 0.046704 0.035688 -0.067399 0.0059294 0.0070803 0.0036276 
0.051308 0.049992 0.047526 0.080244 -0.069043 -0.084827 0.028619 -0.0004827 
0.05213 0.063474 -0.0039354 0.11987 -0.078908 -0.091568 0.019576 0.0036276 
0.049992 0.053938 0.0093821 0.09981 -0.041586 -0.049149 0.019411 0.020727 
0.022371 0.039634 0.025988 0.099152 -0.0054151 0.015137 0.015137 0.04917 
0.0093821 0.03947 0.063803 0.06183 0.0047785 0.042923 0.025659 0.041443 
0.018754 -0.0031133 0.079751 0.030756 -0.038627 0.028783 0.0227 0.018754 
0.032893 0.028454 0.079587 0.019083 -0.046354 0.027961 0.024015 0.0092177 
0.047362 0.020233 0.060679 0.027796 -0.045368 0.030098 0.024344 0.025001 
0.031742 0.0080668 0.064132 0.077614 -0.0036066 0.049664 0.028619 0.035524 
0.027961 0.0072447 0.07449 0.066105 0.0034632 0.052294 0.037004 0.037332 
0.051965 -0.0050863 0.045224 0.042429 -0.0078813 0.038812 0.035853 0.057227 
0.056898 0.025166 0.037004 0.040292 -0.020706 0.047526 0.030098 0.046046 
0.070873 0.036017 0.033715 0.048513 -0.025145 0.01267 0.019905 0.055089 
0.069558 0.025988 0.021878 0.035688 -0.0138 0.02533 0.034866 0.026152 
0.059364 0.046046 0.056569 0.023686 -0.04882 0.022042 0.020727 0.026152 
0.014808 0.043745 0.0098754 0.038319 -0.036654 0.031578 0.047526 0.027796 
0.013821 0.092247 0.010533 0.02681 -0.07266 0.058871 0.035853 0.0090533 
-0.0090322 0.074654 0.027961 0.027468 -0.055726 0.029934 0.029112 0.058706 
-0.0014692 0.064625 0.075805 0.021713 -0.046683 0.057062 0.026152 0.04654 
0.024837 0.035195 0.061666 0.028619 -0.029584 0.062159 0.022206 0.029112 
0.047691 0.037004 0.057062 0.014972 -0.07562 0.024837 0.030263 -0.0059084 
0.072681 0.051472 0.029934 0.014808 -0.092719 0.0016547 0.017438 -0.031228 
0.183 0.036675 0.065776 0.0013258 -0.10505 -0.018239 -0.0054151 -0.022679 
0.19221 0.025659 0.062652 0.027961 -0.10653 -0.021034 -0.017582 0.0019835 
0.041114 0.035524 0.016616 0.019247 -0.10571 -0.016595 0.012342 0.01415 
-0.089595 0.039141 1.0539e-005 0.026152 -0.094363 0.055089 0.037826 0.048513 
-0.10225 0.055747 -0.0032777 0.048513 -0.041257 0.057555 0.0421 0.04358 
-0.040928 0.070873 0.036346 0.04506 -0.02235 0.027303 0.062652 0.024015 
0.0037921 0.033715 0.03388 -0.01117 -0.06296 0.028783 0.01826 0.024344 
0.054267 1.0539e-005 0.035524 0.0016547 -0.065426 0.063968 0.026152 0.064461 
0.079587 0.00066819 0.024344 0.042758 -0.033694 0.13434 0.048677 0.10376 
0.093398 0.0087245 0.036346 0.052787 -0.080552 0.07038 0.034373 0.073339 
0.049664 0.04917 0.053281 -0.028269 -0.15783 -0.025474 0.043087 0.041278 
-0.065755 0.055747 0.026646 -0.016102 -0.13875 -0.059178 0.03388 0.0088889 
-0.070852 0.072846 0.0044497 -0.0062372 -0.065097 -0.034681 0.0324 0.0062583 
-0.023007 0.059528 0.0080668 -0.014787 -0.021034 0.014479 0.021056 0.009711 
0.0023123 0.073997 0.036182 -0.025802 -0.0032777 0.051143 0.0090533 0.032564 
0.05065 0.090438 0.0093821 -0.013471 -0.045368 0.034373 0.025659 0.0098754 
0.19714 0.073175 0.024179 0.041278 -0.086636 -0.00031829 -0.0004827 0.0032988 
0.34002 0.044238 0.039305 0.049006 -0.095514 -0.0072237 -0.0054151 -0.014293 
0.25962 0.033058 0.086163 0.062817 -0.067399 0.058213 0.025166 0.02533 
0.05772 0.020891 0.14864 0.038483 -0.048327 0.14601 0.036346 0.040456 
-0.10061 0.055254 0.10606 0.06183 -0.071181 0.09685 0.036675 0.034209 
-0.12642 0.081395 0.078107 0.029605 -0.086307 -0.016102 0.055747 0.03651 
-0.17756 0.086163 0.057391 0.0090533 -0.094692 -0.084663 0.049828 0.029769 
-0.2476 0.090274 0.041936 -0.0029489 -0.074633 -0.073647 0.016781 0.023028 
-0.26239 0.059693 0.0095465 0.0014903 -0.084005 -0.023172 0.033387 0.042923 
-0.13547 0.071531 -0.036818 0.0054362 -0.079566 0.035195 0.053609 0.048677 
0.074654 0.053281 -0.044217 -0.024323 -0.10686 0.049335 0.027468 0.041772 
0.256 0.018096 -0.047998 0.005765 -0.093376 0.066434 0.00099702 0.033551 
0.27491 0.0095465 -0.047669 0.031414 -0.051615 0.10277 0.007738 0.009711 
0.18415 0.031414 -0.10998 0.047033 -0.0072237 0.077285 0.0024767 0.025824 
0.092904 0.025824 -0.10834 0.053609 0.01415 0.0421 0.013328 -0.017746 
0.053116 0.055747 -0.060987 0.0786 0.0080668 -0.0082102 0.029112 0.018754 
0.0028056 0.05065 0.010697 0.040456 -0.011992 -0.040271 0.061666 0.014643 
-0.0004827 0.052459 0.029769 0.044402 -0.025309 -0.019226 0.03651 0.047855 
0.0039565 0.033058 0.049828 0.055747 0.0062583 -0.043559 0.023028 0.042265 
-0.02646 0.066105 0.024015 0.062817 -0.029584 -0.014622 0.017932 0.019905 
-0.025967 0.096193 0.01415 0.079587 -0.023336 0.024179 0.03092 0.051143 
-0.033365 0.10622 0.03947 0.052294 -0.062467 0.11609 0.042594 0.073997 
-0.041751 0.10063 0.01563 0.062652 -0.070852 0.12184 0.095535 0.090274 
-0.036818 0.097015 0.026646 0.042429 -0.10982 0.099481 0.067091 0.11395 
-0.031886 0.06742 0.060844 -0.0011404 -0.15733 0.11329 0.064954 0.12973 
0.04506 0.037332 0.14617 -0.12757 -0.28492 0.08567 0.012835 0.0421 
0.072517 0.01415 0.14585 -0.12182 -0.30728 -0.033365 -0.015938 -0.029913 
0.058213 0.0080668 0.082053 -0.052766 -0.17575 -0.067235 -0.017253 -0.076606 
-0.0049219 0.016288 0.038648 -0.0059084 -0.031721 -0.077922 -0.012978 -0.047012 
-0.00015387 -0.00097594 0.065118 -0.0036066 0.0064227 -0.12363 -0.0029489 -0.048163 
0.031578 0.025824 0.083533 0.011026 -0.0078813 -0.1011 -0.004593 -0.016102 
0.014972 0.038483 0.014972 0.057062 0.012999 -0.046847 0.0011614 -0.01117 
0.0060938 0.044402 -0.031228 0.086821 0.016945 -0.0052507 1.0539e-005 0.044402 
0.050157 0.047362 -0.045696 0.12299 0.051965 0.073175 0.0227 0.060679 
0.18942 0.049992 -0.03501 0.11378 0.0072447 0.038977 0.012835 0.062488 
0.3364 0.036346 -0.01528 0.066598 -0.024652 0.034866 0.021384 0.01711 
0.21589 0.06594 -0.0011404 0.057227 -0.024816 0.058213 0.04506 0.027139 
0.039634 0.044567 -0.01117 0.077285 0.0034632 0.088136 0.061337 0.041278 
-0.079566 0.032893 0.029276 0.048841 -0.017582 0.065612 0.058049 0.058706 
-0.1062 0.053938 0.041114 0.056404 -0.027775 0.070873 0.035031 0.054267 
-0.073647 0.027303 0.016452 0.046868 -0.051615 0.029934 0.039141 0.034044 
-0.046354 0.059857 0.025659 0.069886 -0.047834 -0.0070593 0.025166 0.02681 
-0.023336 0.048019 0.055911 0.027632 -0.05589 -0.048656 0.037497 0.013821 
0.013821 0.040621 0.082546 -0.017088 -0.084005 -0.085156 0.02829 0.012342 
0.024837 0.030592 0.088794 0.014808 -0.074798 -0.086964 0.023028 -0.0036066 
0.045389 0.025988 0.051472 0.014808 -0.10127 -0.086964 -0.004593 0.014315 
0.083204 0.052294 0.042758 0.00017495 -0.080881 0.0032988 0.013492 0.020069 
0.078765 0.056569 0.04358 0.030263 -0.039449 0.084355 0.015301 0.024179 
0.070051 0.034044 0.054267 0.038483 -0.031886 0.097015 0.025166 0.026152 
0.062817 0.014315 0.039634 0.042429 -0.077922 0.090603 0.050979 0.048513 
0.029934 0.03651 0.029112 0.045389 -0.061809 0.031414 0.054432 0.055747 
0.0070803 0.054596 0.024344 0.025495 -0.064111 -0.037969 0.056569 0.04095 
0.027796 0.033551 0.058049 0.04358 -0.024323 -0.014458 0.018096 0.043087 
0.046046 0.0075736 0.10589 0.0092177 -0.0078813 0.057555 0.0042853 0.0070803 
0.07301 -0.029255 0.093069 -0.022185 -0.0031133 0.061337 0.0019835 -0.0083746 
0.068078 -0.014129 0.082217 -0.013636 -0.039778 0.052623 0.0065871 -0.01528 
0.041443 0.016452 0.070873 0.03947 -0.057534 0.022864 0.035195 -0.0082102 
0.046375 0.040292 0.082382 0.0054362 -0.10012 -0.0034422 0.041772 0.01974 
0.031414 0.025166 0.047033 0.052952 -0.066248 0.026317 0.052952 0.035195 
0.032893 0.036017 0.033551 0.025824 -0.051122 0.027303 0.036839 0.044896 
0.041607 0.035195 0.031742 0.0227 -0.079895 -0.004593 0.028454 0.048841 
0.0056006 0.052787 0.032893 0.01152 -0.087458 -0.060823 0.031085 0.022206 
0.016452 0.088794 0.036182 0.042758 -0.054904 -0.043724 0.04095 0.029605 
0.035031 0.088958 -0.015444 0.085177 -0.0031133 -0.016102 0.023522 -0.0026201 
0.054596 0.066434 0.026974 0.070051 0.0087245 -0.0054151 -0.0039354 0.010533 
0.029769 0.034866 0.041936 0.057227 0.016452 0.046868 -0.017253 0.011191 
0.019576 0.0070803 0.056569 0.050979 0.018425 0.12595 0.014479 0.026152 
0.0036276 0.043745 0.024344 0.060679 0.012177 0.13647 0.017932 0.046704 
-0.023994 0.044402 0.023686 0.053281 -0.008539 0.11033 0.037497 0.024344 
-0.028926 0.059528 0.027961 0.043416 -0.038133 0.053445 0.051143 0.027303 
-0.0022913 0.036675 0.028125 0.031085 -0.062631 0.066927 0.042265 0.031578 
0.0014903 0.041114 0.038155 0.089945 -0.071345 0.085012 0.042758 0.06183 
0.0074092 0.080738 -0.011992 0.072681 -0.081868 0.092904 0.071202 0.07301 
0.020069 0.073175 0.0059294 0.01974 -0.11212 0.06035 0.046704 0.071366 
0.045389 0.032893 0.066598 -0.051451 -0.12445 -0.0036066 0.031907 0.05213 
0.05213 0.013986 0.10425 -0.049314 -0.11426 -0.039942 0.025495 0.058706 
0.035195 0.033222 0.067749 -0.018404 -0.035503 -0.046354 0.034373 0.02829 
0.0087245 0.04917 0.040128 0.010697 0.00050378 -0.038133 0.025824 0.023357 
0.017767 0.06479 0.010204 0.018754 -0.016431 0.011848 0.026152 0.024179 
0.022042 0.047526 0.044402 0.0088889 -0.084498 0.025166 0.012506 0.022864 
0.022371 0.047691 0.060679 0.03651 -0.081703 0.029605 0.012506 0.0090533 
0.0088889 0.02681 0.045224 0.019905 -0.091404 0.00033937 -0.0044286 0.0013258 
0.011355 0.018096 0.066598 0.041443 -0.11228 0.0067515 0.0095465 0.00017495 
0.013328 0.026974 0.042758 0.027961 -0.12856 0.0087245 0.014643 0.024673 
0.022371 0.034537 0.018425 0.020562 -0.10373 0.041114 0.019083 0.029276 
0.013328 0.035853 -0.017253 0.0044497 -0.062302 0.062817 0.027961 0.047526 
0.044073 0.031578 -0.039613 0.057227 -0.043559 0.087972 0.017438 0.045882 
0.06183 0.020562 -0.030406 0.034537 -0.048163 0.10211 0.02122 0.025659 
0.063639 0.06331 0.0031344 0.032893 -0.046847 0.08008 0.030756 0.046704 
0.057062 0.10458 0.037168 0.036017 -0.017088 0.052952 0.068078 0.041443 
0.027796 0.078436 0.005765 0.041607 -0.047669 0.015465 0.05772 0.03388 
0.0082312 0.0421 0.017274 0.022206 -0.059178 -0.0016336 0.04358 0.011684 
0.0070803 0.02829 0.017603 0.025988 -0.05589 -0.0024557 0.011026 0.030098 
0.036346 0.050814 0.030098 0.049006 -0.038627 -0.010512 0.0018191 0.01563 
0.049992 0.099645 0.027632 0.041443 -0.043066 -0.031228 0.009711 0.022042 
0.0067515 0.13516 -0.040271 0.069558 -0.021034 -0.026789 0.019905 -0.012814 
-0.029091 0.14124 -0.07973 0.086985 -0.020541 0.0092177 0.0592 0.0064227 
-0.011005 0.10819 -0.047669 0.13401 -0.0022913 0.052294 0.045718 0.066269 
-0.0088678 0.0786 -0.016595 0.10113 -0.026624 0.073668 0.046375 0.064625 
0.026152 0.044402 0.034537 -0.011005 -0.099953 0.071859 0.051636 0.11231 
0.041278 0.013986 0.067091 -0.038462 -0.13185 0.081231 0.048184 0.091753 
0.044731 -0.00097594 0.047197 -0.024816 -0.15421 0.11543 0.038319 0.094384 
-0.0054151 -0.011992 0.06183 -0.068057 -0.16654 0.078272 0.035031 0.048019 
-0.071345 -0.010348 0.074983 -0.11376 -0.19104 -0.015938 0.01415 -0.00015387 
-0.089266 0.018754 0.06479 -0.11064 -0.18232 -0.074304 -0.012485 -0.058192 
-0.046519 0.03388 0.058542 -0.032215 -0.15964 -0.093541 -0.011992 -0.038462 
-0.034188 0.022535 0.057227 0.038319 -0.095349 -0.065097 -0.019555 -0.035174 
-0.02087 0.013492 0.0592 0.078436 -0.047176 -0.021856 0.016945 0.025166 
0.13927 0.040456 0.023028 0.11494 0.011684 0.015465 0.030427 0.017274 
0.40677 0.089452 -0.017088 0.076463 0.043745 0.037497 0.075805 0.041114 
0.46629 0.09685 -0.043559 0.071695 0.090767 0.073504 0.055418 0.028619 
0.29513 0.076299 -0.03353 0.072846 0.11872 0.061666 0.035031 0.020069 
0.05624 0.054925 -0.015444 0.080738 0.027303 0.035195 0.0090533 0.02533 
-0.096829 0.049006 -0.040435 0.054103 -0.056712 0.0046141 -0.00097594 0.01826 
-0.15207 0.061172 -0.058356 0.074326 -0.063946 0.014315 0.0075736 0.018754 
-0.109 0.054432 -0.044052 0.030592 -0.05441 0.010533 0.019576 0.0421 
-0.019226 0.015959 0.0079024 0.030756 -0.07973 -0.018075 0.041443 0.054267 
0.039963 0.035195 0.011191 0.016616 -0.048492 -0.0060728 0.049664 0.044073 
0.046375 0.072681 -0.018733 0.061995 0.0092177 0.048513 0.041772 0.058871 
-0.0011404 0.08304 -0.012814 0.033551 -0.041586 0.069064 0.047033 0.055089 
-0.042737 0.091425 0.062159 -0.033037 -0.145 0.082546 0.025495 0.042594 
-0.04619 0.05476 0.11362 -0.073647 -0.17098 0.064132 0.023357 0.030427 
0.032729 0.027796 0.093069 -0.051944 -0.12412 0.023028 0.031085 0.035524 
0.070873 -0.00015387 0.098494 -0.0072237 -0.07266 -0.025309 0.027796 -0.0042642 
0.1077 0.014315 0.073339 0.00033937 -0.059507 -0.034352 0.022371 -0.011827 
0.10458 0.055911 0.066763 0.026317 -0.043066 -0.017417 1.0539e-005 -0.0039354 
0.082711 0.051143 0.0028056 0.050486 -0.026953 0.023686 0.020069 0.024508 
0.05772 0.025659 -0.0044286 0.072681 -0.065919 0.086492 0.033222 0.056404 
0.044238 -0.014129 0.039799 0.0037921 -0.089595 0.072024 0.011684 0.061172 
-0.031886 -0.0055795 0.056404 0.0046141 -0.089102 0.050321 0.029605 0.063145 
-0.121 0.027303 0.069558 0.037332 -0.074962 -0.017088 0.051801 0.038648 
-0.14484 0.055254 0.0031344 0.069393 -0.062302 -0.074633 0.052294 0.021056 
-0.011498 0.058377 -0.0138 0.054596 -0.0078813 -0.055397 0.040621 -0.0068948 
0.14617 0.045389 0.019083 0.046375 0.045224 -0.015116 0.017767 0.015794 
0.20997 0.020233 0.070708 0.062488 0.076792 0.028125 -0.006566 -0.013307 
0.16706 0.046375 0.070544 0.0082312 0.01267 0.012013 -0.003771 -0.0090322 
0.085012 0.080244 0.051472 0.031742 -0.043395 -0.013307 0.019905 0.0039565 
0.014972 0.062817 0.067256 0.01004 -0.11146 0.004943 0.022864 0.03092 
-0.022021 0.058706 0.078272 0.058542 -0.070194 0.033058 0.041278 0.041772 
-0.024323 0.052952 0.08715 0.055911 -0.030735 0.062652 0.040785 0.075148 
-0.04471 0.059035 0.033551 0.028619 -0.070687 0.0082312 0.041607 0.063474 
-0.02794 0.047033 0.048184 0.029769 -0.05589 0.028783 0.051472 0.047033 
-0.0073881 0.0051074 0.066105 0.020562 -0.096829 0.053774 0.045718 0.04095 
0.027961 -0.024652 0.10063 0.024015 -0.071838 0.1003 0.030756 0.023357 
0.054925 -0.023994 0.088958 0.026646 -0.066906 0.05772 0.005765 0.031578 
0.049664 -0.004593 0.035524 0.057062 -0.045696 0.041607 0.027139 0.02533 
-0.0072237 0.060844 0.051308 0.031249 -0.077264 -0.013636 0.012342 0.020398 
-0.020377 0.046704 0.064954 0.01415 -0.08121 0.007738 0.025001 0.0037921 
-0.035174 0.041443 0.086163 0.0026412 -0.082032 -0.0019624 0.011684 0.011026 
-0.050793 0.034044 0.066763 0.045224 -0.035667 -0.045861 0.036675 -0.014293 
-0.015609 0.042594 0.050321 0.059528 -0.013636 -0.056548 0.052952 0.03092 
0.017438 0.060679 0.077121 0.082053 0.013164 0.023357 0.046046 0.045224 
0.054596 0.040456 0.11707 0.098988 0.024837 0.061337 0.051965 0.045553 
0.058213 0.01974 0.1516 0.086657 -0.0090322 0.08715 0.018918 0.042429 
0.036839 0.039634 0.11033 0.044567 -0.046847 0.035195 0.015465 0.025824 
0.016123 0.027632 0.090109 0.054596 -0.069043 0.0098754 -0.0054151 0.0056006 
-0.0044286 0.071531 0.069229 0.041936 -0.065919 0.0062583 0.025988 0.0085601 
-0.0044286 0.065612 0.047526 0.078272 -0.087951 -0.0042642 0.038648 0.032729 
0.013328 0.063474 -0.0032777 0.060679 -0.06 -0.023501 0.03388 0.016452 
0.017603 0.047362 -0.016266 0.043909 -0.054575 -0.052273 0.018589 0.027139 
0.053445 0.021878 -0.017253 0.033551 -0.037147 -0.032379 0.013821 0.030592 
0.090438 0.027303 0.0044497 -0.014129 -0.057863 0.024344 0.017274 0.055254 
0.071366 0.068571 0.031085 -0.070194 -0.080717 0.055747 0.031414 0.041443 
0.025659 0.054925 0.013164 -0.099953 -0.11097 0.060844 0.02533 0.03388 
-0.0070593 0.028947 0.024344 -0.057041 -0.1159 0.035853 0.020069 0.00083261 
-0.00064712 0.022206 0.01004 -0.029748 -0.14303 0.058706 0.0026412 0.022042 
0.00017495 0.025001 -0.00097594 0.020069 -0.12445 0.08008 0.0065871 0.0087245 
0.0065871 0.076463 -0.056383 0.050486 -0.089431 0.047033 0.0069159 0.012013 
0.035524 0.08419 -0.045696 0.096357 -0.066906 -0.010676 0.01563 0.013821 
0.072024 0.068736 -0.020048 0.084848 -0.021034 0.012177 0.046868 0.024673 
0.073175 0.089123 0.00066819 0.10359 0.016781 0.044238 0.040785 0.050814 
0.068736 0.075148 0.048184 0.10589 0.044402 0.036346 0.016781 0.033715 
0.077449 0.083368 0.03388 0.087314 -0.009361 -0.014458 0.019247 0.012177 
0.082382 0.058213 0.033715 0.027632 -0.032379 0.0074092 0.014315 0.018096 
0.090274 0.030592 0.033715 0.03092 -0.0080457 0.042758 0.00083261 0.052459 
0.067585 0.025166 0.036839 0.039305 0.0072447 0.065612 0.035031 0.046375 
0.052459 0.064132 0.023028 -0.015609 -0.04882 0.090438 0.041114 0.072681 
0.021384 0.048348 0.010862 -0.022185 -0.12938 0.09274 0.059693 0.038483 
-0.039613 0.072846 -0.0095255 -0.038462 -0.15487 0.12201 0.070708 0.06742 
-0.10669 0.055747 -0.011334 -0.0024557 -0.13267 0.067091 0.061172 0.045553 
-0.039778 0.035853 0.0046141 -0.023994 -0.12083 -0.02794 0.046046 0.03388 
0.015137 0.0092177 0.01152 -0.018075 -0.12774 -0.083183 0.058871 0.024344 
0.055254 0.016616 0.016123 -0.049642 -0.15536 -0.061151 0.041278 0.026974 
0.14289 0.058377 -0.00031829 -0.043888 -0.1575 -0.011992 0.03092 0.041772 
0.28313 0.047197 -0.014622 0.0014903 -0.073154 0.038812 0.018918 0.022371 
0.27919 0.04095 -0.047998 0.032729 0.01267 0.069229 0.01152 0.0021479 
0.19237 0.028125 -0.038791 0.036182 0.030263 0.070215 -0.01117 0.0093821 
-0.0059084 0.020069 -0.054246 0.0689 -0.00064712 0.089616 -0.0019624 0.013328 
-0.091568 0.083368 -0.025145 0.052294 -0.0082102 0.1562 0.025495 0.024837 
-0.09239 0.094713 0.014479 0.076134 -0.0083746 0.14733 0.055418 0.035524 
-0.067235 0.086328 -0.015444 0.095699 -0.0062372 0.078929 0.035853 0.035195 
-0.03057 0.075476 -0.006566 0.053116 -0.041093 0.026317 0.033387 0.040785 
-0.020541 0.061337 0.010697 0.052623 -0.045696 -0.028762 0.039305 0.0031344 
0.0014903 0.074161 0.013492 0.039799 -0.048327 -0.043888 0.03536 0.031907 
0.028454 0.076627 0.018425 0.049664 -0.032872 -0.026789 0.022371 0.017767 
0.0421 0.054267 0.01152 0.013657 -0.025309 -0.039942 0.033387 0.051308 
0.037661 0.034702 0.020562 -0.0059084 -0.046025 -0.055232 0.036182 0.017767 
0.042265 0.0227 0.049992 -0.01528 -0.057041 -0.080388 0.025166 0.018096 
0.045224 0.051965 0.091096 0.020398 -0.085485 -0.037476 0.026974 0.029605 
0.021549 0.044731 0.052294 0.012177 -0.087951 0.010533 0.020233 0.018918 
0.033715 0.025001 0.049335 0.032236 -0.071509 0.099316 0.018754 0.03651 
0.036182 0.019247 0.054925 0.029276 -0.066906 0.13828 0.0324 0.0044497 
0.04654 0.013821 0.078436 0.03536 -0.087458 0.10507 0.014315 0.031578 
0.060022 0.020891 0.091918 0.030427 -0.086142 0.031249 0.019905 0.016781 
0.042594 0.039963 0.078107 0.024837 -0.061316 -0.027447 0.0047785 0.039141 
0.029605 0.037168 0.064132 0.041114 -0.01232 -0.013965 0.029276 0.022864 
0.028619 0.038483 0.057062 0.03651 0.013492 -0.010841 0.042923 0.039963 
0.012999 0.042923 0.061501 0.049664 0.018918 -0.010183 0.038648 0.038483 
0.027796 0.022864 0.055911 0.010369 -0.0075525 0.0072447 0.034373 0.051965 
0.020727 0.051801 0.066105 0.007738 -0.047998 0.028125 0.047691 0.026317 
0.016945 0.020233 0.054596 -0.016595 -0.085813 0.029112 0.03536 0.045718 
0.02829 0.012013 0.0689 -0.0050863 -0.12215 0.040456 0.020891 0.03947 
0.021384 0.019247 0.096193 -0.030735 -0.15437 0.052787 0.01415 0.0098754 
0.030592 0.015465 0.071202 0.018425 -0.18002 0.013821 0.0082312 -0.0052507 
0.025659 0.053445 0.074819 -0.0024557 -0.15783 -0.028926 -0.00015387 -0.039942 
0.0018191 0.082546 0.074326 0.013657 -0.093048 -0.056877 0.012342 -0.014787 
-0.017417 0.070873 0.063968 0.046375 -0.014293 -0.064604 0.038648 -0.037805 
0.0031344 0.065612 0.010204 0.091589 0.010533 -0.05737 0.014972 0.011191 
0.011684 1.0539e-005 0.021056 0.052459 -0.0098543 -0.06296 0.020069 -0.001798 
0.025166 0.050814 0.013986 0.068078 0.01267 0.024673 0.033387 0.03799 
0.032071 0.054432 0.041607 0.10326 0.015959 0.0085601 0.01826 0.0065871 
0.031249 0.024179 0.042758 0.068242 0.020727 -0.034681 0.0069159 0.01563 
0.034537 0.041443 -0.0087034 0.070873 0.029276 -0.02942 0.020562 0.0072447 
0.00099702 0.041936 -0.028597 0.071859 0.038483 0.054103 0.028947 0.034866 
-0.0042642 0.069722 -0.021034 0.092247 -0.015116 0.15423 0.055747 0.052952 
-0.024158 0.054432 0.04095 0.044073 -0.033694 0.18613 0.046868 0.081231 
0.0019835 0.044567 0.040292 0.038155 -0.026131 0.16229 0.034537 0.048019 
0.03388 0.028783 0.065283 -0.015116 -0.056877 0.10606 0.0065871 0.032893 
0.045882 0.0023123 0.090767 -0.02235 -0.090253 0.043909 0.0032988 0.021384 
0.028125 0.034537 0.084848 -0.033859 -0.060987 0.067913 0.055582 0.056076 
0.026646 0.075312 0.064954 -0.0034422 -0.032215 0.13417 0.032729 0.091918 
0.03092 0.074983 0.01826 -0.00064712 -0.078744 0.20076 0.032236 0.093398 
0.034209 0.082217 0.0014903 -0.010676 -0.17986 0.1391 0.031742 0.052623 
0.014643 0.071859 0.0072447 -0.0031133 -0.20386 -0.1062 0.036346 0.015137 
0.029441 0.072517 0.032071 0.046375 -0.15733 -0.33441 0.01826 -0.01232 
0.050814 0.074819 0.019576 0.10326 -0.089266 -0.33753 0.016781 -0.068386 
0.058377 0.05065 0.0069159 0.057062 -0.053095 -0.19071 0.027303 -0.053424 
0.038812 0.031085 0.0079024 0.040456 -0.0503 -0.050958 0.0065871 -0.017417 
0.0011614 0.031742 0.027632 0.016452 -0.032872 0.081231 0.014808 0.022864 
0.015465 0.024508 0.056898 0.03388 -0.049971 0.14881 0.031414 0.044896 
0.016452 0.050157 0.017603 0.0046141 -0.053917 0.20158 0.03388 0.076463 
0.0052718 0.063639 0.02681 0.011848 -0.06 0.20388 0.056733 0.078107 
0.012835 0.037497 0.038155 0.011684 -0.060494 0.18859 0.05213 0.072024 
0.011355 0.038812 0.062323 0.028783 -0.071838 0.13203 0.039963 0.044731 
0.033387 0.03536 0.050157 0.014972 -0.072825 0.083533 0.019083 0.023686 
0.016452 0.025659 0.020727 0.013492 -0.082032 0.03388 0.0056006 0.025001 
0.027632 0.0592 0.023851 0.022535 -0.076277 0.013164 0.020398 0.03092 
0.047033 0.056404 0.014315 0.019083 -0.053588 0.03947 0.01711 0.020398 
0.055747 0.038155 0.03536 0.02681 -0.0096899 0.054103 0.031578 0.034044 
0.051472 0.052459 0.0072447 0.042265 0.018589 0.027303 0.051636 0.040621 
0.045224 0.034044 -0.01528 0.075476 -0.010348 0.0024767 0.045224 0.0324 
0.041607 0.057227 0.0072447 0.03388 -0.053753 -0.030899 0.019905 0.040292 
0.044402 0.038812 0.029769 0.01004 -0.081045 -0.056712 0.0090533 0.035195 
0.041607 0.025659 0.038483 0.014315 -0.041915 -0.063124 -0.0039354 0.021878 
0.037826 0.05065 0.00066819 0.048513 -0.044217 -0.081868 -0.0068948 -0.0032777 
0.027796 0.036839 -0.0019624 0.028783 -0.04882 -0.13497 0.026152 0.0037921 
0.014479 0.071202 0.010862 0.058706 -0.034188 -0.097158 0.062323 -0.0088678 
0.012999 0.061501 0.042265 0.06479 -0.04471 -0.0042642 0.038155 0.023851 
0.027139 0.026317 0.043416 0.035031 -0.089266 0.064625 0.032564 0.05772 
0.0085601 0.021384 0.061501 0.013492 -0.11787 0.09685 0.057062 0.047526 
0.022864 0.019247 0.082053 -0.035338 -0.14632 0.15555 0.047362 0.068407 
0.055747 0.051308 0.076956 0.018096 -0.14303 0.14683 -0.00097594 0.092904 
0.066763 0.060022 0.08567 -0.0032777 -0.17082 0.10228 0.04095 0.050486 
0.083368 0.048841 0.070051 0.0075736 -0.12955 0.0085601 0.048513 0.0065871 
0.050486 0.012835 0.056404 0.0042853 -0.019226 -0.035338 0.024344 0.014479 
0.020891 0.00017495 0.084684 0.0065871 0.0052718 -0.011334 0.025001 0.024179 
-0.00097594 0.020562 0.11987 -0.017253 -0.024487 0.030427 0.013328 0.022371 
0.03092 0.016123 0.081067 -0.0019624 -0.056383 0.025659 0.026481 0.017767 
0.089452 0.013986 0.036182 0.0082312 -0.046847 0.0067515 0.025824 0.024344 
0.087808 0.031249 0.024673 0.036017 -0.059836 0.021878 0.026646 0.010697 
0.078436 0.033387 0.0065871 0.041114 -0.031721 0.029276 0.034044 0.026317 
0.077121 0.043909 0.0034632 0.067749 -0.010348 0.036839 0.025988 0.020233 
0.067091 0.074654 -0.0004827 0.070051 -0.0054151 -0.040764 0.014315 0.00050378 
0.058871 0.042758 -0.03205 0.068571 -0.023665 -0.055561 0.011355 0.016945 
0.052952 0.020891 -0.0080457 0.040785 -0.0503 -0.068386 0.028783 0.0075736 
0.043087 0.051636 -0.010676 0.05624 -0.053424 -0.042737 0.030427 0.026317 
0.013164 0.054432 -0.028926 0.083533 -0.033365 0.027303 0.054596 0.048841 
0.0069159 0.081067 -0.028762 0.068571 -0.023994 0.047033 0.058213 0.050157 
-0.058192 0.071037 0.0016547 0.07301 -0.025967 0.046704 0.060022 0.043251 
-0.13481 0.062323 0.02829 0.056076 -0.0050863 0.032729 0.046211 0.043416 
-0.15421 0.071531 0.080902 0.065447 -0.028104 0.049335 0.029605 0.035853 
-0.15569 0.049992 0.048677 0.012506 -0.025474 0.10047 0.0021479 0.058542 
-0.16753 0.066763 0.041772 -0.0049219 -0.031064 0.095371 0.041443 0.032893 
-0.039284 0.066763 0.040292 -0.031557 -0.052437 0.058542 0.03092 0.038977 
0.14404 0.058871 0.066105 -0.030406 -0.093376 0.0689 0.032893 0.033222 
0.22953 0.032893 0.048184 -0.045861 -0.12659 0.099974 0.0065871 0.046211 
0.22082 0.0026412 0.051308 -0.060658 -0.17312 0.08715 0.0019835 0.044238 
0.16755 0.024344 0.059364 -0.036325 -0.16111 0.058871 0.01152 0.030427 
0.094055 0.058213 0.022042 0.0059294 -0.12593 0.0044497 0.0070803 0.025824 
0.038648 0.049499 0.00099702 0.042594 -0.07562 -0.025638 0.041607 0.016123 
0.017932 0.037168 -0.029913 0.083368 -0.015938 -0.020541 0.020562 0.020891 
0.012835 0.029441 -0.012485 0.10162 0.025659 0.018918 0.019411 0.023357 
0.018918 0.023522 0.011026 0.074654 0.029605 0.031742 0.0054362 0.03799 
0.0075736 0.058542 0.039799 0.052952 0.0088889 0.018589 0.0065871 0.0044497 
0.010697 0.049335 0.051965 0.039634 0.0087245 -0.0075525 0.014972 0.012835 
0.029605 0.048513 0.037497 0.041114 -0.027118 -0.018897 0.02681 0.010369 
0.076627 0.067256 0.040292 0.019905 -0.039613 -0.034023 0.02533 0.054267 
0.042429 0.047855 0.040785 0.026481 -0.047012 -0.05737 0.05065 0.01152 
-0.019226 0.051472 0.092904 0.03651 -0.017746 -0.067564 0.020562 0.036839 
-0.036325 0.064625 -0.012978 0.073504 -0.024323 0.0021479 0.010533 0.0088889 
-0.024816 0.050814 -0.006566 0.039799 -0.035174 0.044731 0.015465 0.012835 
0.010862 0.050979 0.026152 0.0072447 -0.044381 0.10951 0.0072447 0.054103 
0.014972 0.041936 0.04506 0.053445 -0.0070593 0.18662 0.053445 0.087972 
0.00297 0.061501 0.054267 0.051636 0.00083261 0.16623 0.048348 0.089287 
-0.074469 0.064132 0.020233 0.022864 -0.034516 0.10129 0.035524 0.068078 
-0.096336 0.030098 0.018589 -0.038627 -0.08384 0.05065 -0.00097594 0.020891 
-0.020048 0.01711 0.05624 -0.040764 -0.13908 -0.0029489 0.0034632 -0.0039354 
0.014808 0.040292 0.09126 -0.067564 -0.17328 -0.006566 0.0095465 0.016781 
0.0051074 0.041278 0.066269 -0.041586 -0.1723 -0.036489 0.0079024 0.017274 
0.0047785 0.060022 0.03536 0.033058 -0.098802 -0.063453 0.0421 0.0062583 
0.18152 0.060679 0.009711 0.11132 -0.049478 -0.10949 0.010533 -0.019555 
0.414 0.044073 0.010204 0.084026 -0.016595 -0.021856 0.02122 0.0036276 
0.4048 0.036017 0.0067515 0.021056 -0.036654 0.052623 0.046211 0.018754 
0.14552 0.07301 0.0018191 0.03388 -0.043724 0.096028 0.084026 0.063639 
-0.065919 0.11066 0.0070803 0.014315 -0.082361 0.065118 0.077614 0.034866 
-0.14451 0.064296 0.02829 -0.015773 -0.11228 0.030098 0.037826 0.02829 
-0.12889 0.025824 0.077778 -0.043724 -0.12198 0.0013258 0.036839 0.010369 
-0.099624 0.035853 0.046046 0.009711 -0.087458 0.021056 0.0083956 0.026152 
-0.049478 0.025495 0.03092 0.017603 -0.073647 0.03388 -0.0090322 0.029605 
-0.0087034 0.033387 0.050157 0.023193 -0.073647 0.023522 -0.013636 0.018754 
0.026481 0.013328 0.074983 0.01826 -0.057205 -0.011005 -0.0052507 0.027961 
0.075312 0.0093821 0.12414 0.0324 -0.083676 -0.023501 0.0092177 0.022535 
0.15472 -0.0052507 0.097837 0.0079024 -0.084005 -0.034845 0.025659 0.024179 
0.2075 -0.013471 0.090274 0.025659 -0.076113 0.010697 0.041607 0.0042853 
0.16212 0.025166 0.063639 0.07597 -0.0082102 0.015465 0.024508 0.028947 
0.10211 0.050486 0.040621 0.082053 0.0075736 0.023028 0.014643 0.019247 
0.034866 0.034373 0.020233 0.044731 0.00066819 0.039634 0.025001 0.039305 
0.016945 0.027796 -0.004593 0.033058 0.0092177 0.078765 0.045882 0.029441 
0.028125 0.0042853 0.0067515 0.0227 0.0036276 0.076299 0.043909 0.060022 
0.049499 0.019083 0.01152 0.0047785 -0.039778 0.047526 0.054103 0.058049 
0.054432 0.030427 0.032071 -0.016595 -0.10637 0.047197 0.03947 0.045224 
0.056898 0.022371 0.050814 -0.0049219 -0.14451 0.053774 0.018754 0.051472 
0.042265 0.01563 0.075312 0.04095 -0.14796 0.03092 0.011355 0.054432 
0.019905 0.04095 0.11296 0.0056006 -0.1404 0.0032988 0.017932 0.022042 
0.0082312 0.067913 0.1345 0.017767 -0.10028 -0.006566 0.036182 -0.0027845 
0.016945 0.072024 0.1077 0.026481 -0.055068 0.032071 0.017438 0.0013258 
0.0031344 0.057555 0.06594 0.086163 -0.051615 0.023851 0.07038 0.0014903 
-0.0067304 0.045882 0.042923 0.041772 -0.042737 0.0023123 0.023851 0.0070803 
-0.022185 0.083862 0.067749 0.0093821 -0.046519 -0.070852 0.032564 -0.017911 
-0.037147 0.051801 0.045718 0.059035 -0.0027845 -0.088115 0.04358 0.040456 
-0.030242 0.10113 -0.0080457 0.056733 -0.01939 -0.041915 0.061172 0.038483 
-0.0014692 0.06594 -0.042573 0.045718 -0.0080457 0.016288 0.044896 0.049828 
0.033551 0.06035 -0.034352 0.036346 -0.011498 0.062981 0.04917 0.051308 
0.079258 0.019247 0.034537 0.032071 -0.028926 0.075148 0.015301 0.011355 
0.098659 -0.0060728 0.040128 -0.011663 -0.080717 0.06183 -0.010676 -0.0072237 
0.10014 0.0031344 -0.027447 -0.014951 -0.11837 0.069886 0.019247 0.014643 
0.048019 0.015959 -0.018075 0.0041209 -0.11343 0.066269 0.030756 0.043087 
0.0324 0.0051074 -0.0138 0.04506 -0.081703 0.072353 0.027468 0.065447 
0.0042853 0.0019835 0.023357 0.040621 -0.056219 0.056569 0.050979 0.064296 
0.012835 0.039799 0.013164 0.0036276 -0.073482 0.027632 0.041443 0.042594 
0.013821 0.052623 0.010204 0.0082312 -0.048163 0.00033937 0.017767 0.032729 
0.017438 0.082711 -0.0013048 0.047362 -0.033201 0.01711 0.0093821 0.0069159 
-0.0073881 0.09833 0.004943 0.064296 -0.0036066 -0.0088678 0.019247 -0.00015387 
-0.062138 0.1128 -0.01676 0.0786 -0.015444 -0.060494 0.019576 -0.02646 
-0.11393 0.10672 -0.054082 0.11461 0.01974 -0.03057 0.0088889 0.025001 
-0.068057 0.084355 -0.031721 0.088465 0.010533 -0.0016336 0.025988 0.021384 
-0.0055795 0.083204 0.00033937 0.039963 -0.010841 0.056898 0.043909 0.046211 
0.038155 0.055911 0.044731 0.0013258 -0.041257 0.041607 0.016452 0.01711 
0.069886 0.056076 0.021384 0.034702 -0.047669 0.039141 0.01826 0.037332 
0.041278 0.068407 -0.012649 0.037168 -0.084663 0.0324 0.027796 0.051636 
0.023522 0.085506 -0.02498 0.041114 -0.10686 0.025824 0.035853 0.041278 
-0.0095255 0.076299 -0.0036066 0.043909 -0.076442 0.033551 0.071531 0.072353 
-0.015444 0.055418 0.034044 0.06183 -0.066413 0.040128 0.058542 0.059364 
0.018096 0.038648 0.047855 0.0051074 -0.069372 0.030098 0.046375 0.051143 
0.054267 -0.0049219 0.03651 -0.017088 -0.089266 -0.019226 0.023851 0.0019835 
0.085835 -0.03057 0.059364 -0.041257 -0.10225 -0.015444 0.01711 -0.017417 
0.044402 0.021549 0.077614 -0.025802 -0.10834 0.009711 0.0042853 0.0014903 
-0.0087034 0.06594 0.038812 -0.01117 -0.06296 0.039141 0.00083261 0.057555 
-0.019884 0.08715 -0.0138 0.0065871 -0.052931 0.050321 1.0539e-005 0.035524 
-0.0072237 0.12233 -0.011498 0.058213 -0.030899 0.031578 0.04358 0.041278 
0.0013258 0.12908 -0.026624 0.069722 -0.043888 0.021713 0.057227 0.021549 
0.030098 0.11378 -0.00064712 0.069886 -0.032708 -0.0057439 0.042923 0.033715 
0.053938 0.071366 -0.034845 0.076134 -0.032215 -0.0138 0.025001 0.013821 
0.047855 0.028125 -0.0067304 0.04917 -0.060987 0.012999 0.010204 0.035688 
0.040621 0.0083956 0.015137 0.014972 -0.078908 0.012999 0.0037921 0.025824 
0.032564 0.010862 0.045389 0.016452 -0.0771 0.032893 0.014808 0.017438 
0.041443 0.036017 0.035688 0.016123 -0.052273 -0.0014692 0.08978 0.06183 
0.037826 0.046211 0.012999 0.049828 -0.060494 0.022864 0.03799 0.025495 
0.031085 0.074654 0.048184 0.029112 -0.069536 0.030756 0.035031 0.030098 
0.031742 0.037004 0.046211 0.018589 -0.068386 0.0044497 0.030427 0.011191 
0.039799 0.04095 0.092576 0.026646 -0.045696 0.004943 0.024673 0.019411 
0.042594 0.044073 0.059364 0.034537 -0.064111 -0.01528 -0.0098543 0.024673 
0.041772 0.057391 0.068571 0.023522 -0.063289 -0.014622 0.029769 0.033058 
0.052459 0.039963 0.051636 0.024673 -0.065426 0.0032988 0.044731 -0.0032777 
0.043416 0.027961 0.091753 0.047691 -0.032215 0.048513 0.031249 0.031085 
0.032893 0.004943 0.090274 0.052459 -0.035338 0.10047 0.028783 0.045718 
0.0227 0.048019 0.085999 0.036839 -0.050958 0.098494 0.034209 0.047033 
0.028125 0.060022 0.067256 0.010204 -0.071345 0.055911 0.014643 0.031249 
0.064296 0.030592 0.11609 0.026317 -0.076277 0.0011614 0.0093821 0.027303 
0.092576 -0.012485 0.17922 0.0042853 -0.074798 0.0085601 0.01004 0.026317 
0.093069 -0.025309 0.10803 0.0039565 -0.074633 0.022535 0.0023123 0.033715 
0.078436 -0.028762 0.08863 0.015959 -0.034845 0.044073 0.020891 0.034044 
0.038483 0.01974 0.070544 0.033551 -0.041422 0.043909 0.045882 0.0064227 
0.042594 0.030756 0.072517 0.01563 -0.038133 0.050979 0.022042 0.020727 
0.023851 0.032071 0.057555 0.041607 -0.014951 0.0036276 0.00099702 0.004943 
0.033222 0.038155 0.0041209 0.071859 0.0016547 -0.060165 0.021056 0.0054362 
0.032729 0.031578 0.026152 0.086492 -0.021034 -0.10176 0.03947 0.00066819 
0.028619 0.03388 0.028619 0.05624 -0.023007 -0.069701 0.050157 0.038155 
0.012342 0.056898 0.058706 0.061337 0.014972 0.059857 0.057227 0.095371 
0.0031344 0.0421 0.063145 0.066105 0.044073 0.13417 0.064461 0.13697 
0.026481 0.038483 0.071037 0.0080668 -0.0098543 0.087314 0.044402 0.085506 
0.044567 0.016452 0.089616 -0.041422 -0.09239 0.035853 0.03799 0.027796 
0.062488 0.0079024 0.10688 -0.066413 -0.14796 -0.01676 0.0046141 -0.023665 
0.063968 0.042758 0.092082 -0.029584 -0.19564 0.014808 -0.013965 -0.024816 
0.060186 0.035688 0.069229 -0.032872 -0.17525 0.020233 -0.015116 -0.008539 
0.04654 0.025988 0.043251 0.0047785 -0.10735 0.030427 0.0046141 -0.013307 
0.037332 0.033387 0.029276 0.052623 -0.021363 0.054103 0.014808 0.034702 
0.031249 0.03799 0.02533 0.10458 -0.011827 0.049992 0.023357 0.041607 
0.024673 0.048513 -0.010676 0.059857 -0.0047575 0.021713 0.015794 0.041607 
0.03388 0.044402 -0.02235 0.063474 -0.0075525 -0.0057439 0.029934 0.019247 
0.027632 0.032893 -0.020212 0.07449 -0.0052507 -0.006566 0.05213 0.03092 
0.029605 0.029276 -0.0062372 0.070544 -0.026953 0.040456 0.035853 0.03947 
0.055089 0.023851 0.04506 0.015794 -0.058521 0.095206 0.022535 0.061501 
0.049335 0.047855 0.018096 0.017603 -0.055726 0.17133 0.017438 0.056733 
0.030756 0.062817 0.013164 0.028454 -0.059507 0.17939 0.034373 0.065118 
0.0092177 0.063474 0.0037921 0.00297 -0.095185 0.075148 0.041278 0.038648 
-0.0019624 0.077778 0.03092 0.0018191 -0.078579 -0.018075 0.039141 0.016288 
0.06742 0.043416 0.013492 -0.0029489 -0.032872 -0.036489 0.012506 0.0062583 
0.078929 0.073339 -0.0088678 0.038977 -0.019884 0.023193 0.02122 0.0018191 
0.041443 0.071202 -0.0019624 0.016781 -0.0077169 0.020562 0.023851 0.0227 
0.016616 0.074161 0.0054362 0.031907 -0.0090322 0.04358 0.036182 0.031907 
-0.0024557 0.051636 0.020398 0.050321 -0.015773 0.060515 0.042758 0.046868 
0.005765 0.057227 -0.003771 0.046375 -0.084169 0.055582 0.040621 0.035031 
0.023686 0.047362 0.004943 -0.021692 -0.13908 0.0080668 0.036839 0.048184 
0.035524 0.056569 0.021878 -0.016924 -0.13021 -0.10456 0.021549 0.018918 
0.042923 0.034373 0.059528 -0.0080457 -0.133 -0.20107 0.021384 0.011191 
0.027139 0.037004 0.034373 -0.011663 -0.14813 -0.25878 0.026317 -0.00031829 
-0.0075525 0.033551 0.014315 0.0023123 -0.12659 -0.17377 0.0013258 0.0072447 
-0.0096899 0.04917 0.0034632 0.01974 -0.10472 -0.039284 0.028619 0.017767 
-0.010676 0.068242 0.011684 0.043416 -0.091568 0.096357 0.037497 0.035195 
-0.067728 0.050814 0.037004 0.0013258 -0.096007 0.17791 0.028454 0.01415 
-0.13234 0.051801 -0.0027845 0.0051074 -0.060494 0.20323 0.0421 0.048348 
-0.11376 0.031578 -0.064604 0.02533 -0.0022913 0.23364 0.032236 0.053116 
0.0052718 0.067091 -0.017746 0.066763 -0.024487 0.15933 0.027139 0.05624 
0.15587 0.075148 -0.0004827 0.058871 -0.042901 0.027796 0.018754 0.016781 
0.1909 0.067913 -0.0014692 0.04654 -0.053588 -0.020212 0.0095465 -0.0098543 
0.147 0.062652 -0.014293 0.075312 -0.014129 -0.0095255 0.022864 -0.0054151 
0.10951 0.057062 -0.0073881 0.057391 -0.022514 0.038155 0.015137 0.011684 
0.078436 0.032729 0.027632 0.037661 -0.023336 0.027303 0.020398 0.027632 
0.063968 0.056404 0.036346 0.012342 -0.056712 -0.019719 0.016123 0.032236 
0.032729 0.071037 0.0074092 0.049499 -0.078086 -0.051451 0.020398 0.033551 
0.0075736 0.069064 0.013986 0.036017 -0.11804 -0.050793 0.020562 -0.001798 
-0.058356 0.086163 0.025824 -0.0011404 -0.12067 -0.073154 0.037168 0.030427 
-0.10045 0.098659 0.050486 0.0016547 -0.051122 -0.049149 0.062159 0.028454 
-0.095514 0.082217 0.055582 0.050979 -0.0072237 0.054432 0.053281 0.066763 
-0.035174 0.052623 0.048348 0.0041209 -0.016431 0.15489 0.045718 0.063803 
0.047855 0.0044497 0.053609 -0.0032777 -0.048163 0.16492 0.028454 0.0592 
0.067091 -0.0044286 0.051472 -0.003771 -0.044217 0.10984 0.022371 0.045718 
0.050979 0.0044497 0.052459 0.043251 -0.055397 0.018096 0.017767 0.011026 
0.038648 0.0064227 0.0056006 0.041278 -0.064111 -0.070523 0.031414 -0.0049219 
0.037661 0.04095 0.01415 0.035853 -0.080059 -0.084827 0.023193 -0.02646 
0.037004 0.050321 0.036346 0.055418 -0.095843 -0.067728 0.019905 -0.017253 
0.041114 0.05772 0.062981 0.047691 -0.11705 -0.03616 0.015959 -0.042079 
0.037497 0.05772 0.046868 0.026152 -0.097816 -0.030242 0.021713 0.018096 
0.049664 0.072188 0.024673 0.0227 -0.060494 0.0039565 0.012013 0.023522 
0.09422 0.058542 0.059693 0.0592 -0.019226 0.059035 0.004943 0.038483 
0.083533 0.054103 0.053938 0.04095 0.010697 0.050486 0.049992 0.059528 
0.035524 0.037661 0.066434 0.068736 0.032071 0.057227 0.038812 0.051965 
-0.047176 0.044402 -0.030077 0.085835 0.042758 0.031414 0.035853 0.047855 
-0.019226 0.07038 -0.039778 0.12151 0.037168 0.031742 0.05065 0.058706 
-0.0036066 0.069722 -0.024323 0.082053 0.00033937 0.039634 0.048019 0.041772 
0.018425 0.06594 -0.0011404 0.076134 -0.014951 0.038319 0.021549 0.03947 
0.040128 0.046704 0.037332 0.048677 -0.017582 0.054267 0.060679 0.06331 
0.038319 0.046868 0.0026412 -0.0091966 -0.067399 0.084355 0.051965 0.078436 
0.050814 0.027139 0.066434 -0.10341 -0.13547 0.076627 0.042429 0.048019 
0.055911 0.01267 0.097672 -0.14813 -0.16851 0.041278 0.011848 0.015137 
0.075476 0.032729 0.11214 -0.037805 -0.10094 0.067913 0.0019835 0.025166 
0.072353 0.018754 0.08156 -0.024487 -0.11228 0.086492 -0.0068948 0.0028056 
0.084519 0.010204 0.064461 -0.026624 -0.14796 -0.0019624 -0.0082102 -0.018404 
0.082053 0.039799 0.05065 -0.018239 -0.15158 -0.092883 -0.00064712 -0.060823 
0.065776 0.038977 0.051636 0.085835 -0.065262 -0.10637 -0.0078813 -0.042408 
0.040292 0.043251 0.065118 0.10885 0.011684 -0.05326 -0.010183 -0.0068948 
0.020727 0.024673 0.021878 0.098988 0.031414 -0.0021268 -0.00097594 0.032564 
0.0052718 0.02829 0.058377 0.066927 0.042594 0.028454 0.012999 0.019576 
-0.0047575 0.041772 0.063968 0.044238 -0.010348 0.1271 0.01826 0.036675 
-0.014622 0.054925 0.066434 0.033222 -0.01939 0.16114 0.034373 0.060515 
-0.02235 0.063474 0.041772 0.040785 -0.03205 0.16212 0.056404 0.085341 
0.014643 0.062981 0.022535 0.049335 -0.035174 0.18826 0.060022 0.098988 
0.08419 0.055089 0.015959 0.019905 -0.071509 0.12184 0.03651 0.061337 
0.10573 0.03388 0.044567 0.019083 -0.056877 0.03092 0.029769 0.030427 
0.10425 0.0069159 0.076792 0.022042 -0.053095 -0.066741 0.055582 -0.0031133 
0.1248 -0.0068948 0.05213 0.036675 -0.051615 -0.15421 0.0083956 0.012013 
0.10622 -0.0004827 0.044238 0.041443 -0.054739 -0.073647 0.052459 0.014808 
0.03388 0.0072447 0.0421 0.042594 -0.056877 -0.019884 0.064461 0.040456 
-0.049478 0.06183 0.034537 0.03388 -0.047669 -0.031228 0.046704 0.043416 
-0.12823 0.11576 0.025001 0.038319 -0.075784 -0.062302 0.035853 0.068571 
-0.16457 0.099645 0.031085 -0.012485 -0.088608 -0.060658 0.026646 0.033058 
-0.087293 0.079587 0.040292 -0.02942 -0.10752 -0.047012 -0.0091966 0.012013 
0.017932 0.023357 0.05213 -0.012649 -0.10752 -0.042408 -0.023007 -0.023829 
0.097672 0.0085601 0.067256 0.018425 -0.12346 -0.06855 0.0056006 -0.03057 
0.10408 0.0072447 0.0024767 0.01267 -0.10916 -0.042408 0.018425 -0.0088678 
0.087972 0.029112 -0.015938 0.033058 -0.064604 0.093562 0.024673 0.065612 
0.07038 0.064296 -0.0096899 0.04506 -0.048656 0.20816 0.03947 0.10622 
0.046046 0.072353 0.0080668 0.048513 -0.069043 0.24153 0.026646 0.083862 
0.035195 0.052459 0.019576 0.01415 -0.08121 0.12858 0.0085601 0.045224 
0.025659 0.048513 -0.0077169 0.011848 -0.062467 0.023851 0.033058 -0.0004827 
0.028125 0.032071 -0.0004827 0.020398 -0.039449 -0.02646 0.066434 -0.0039354 
0.043087 0.042265 0.023357 0.019905 -0.0022913 -0.040106 0.03092 -0.019719 
0.067256 0.055089 0.023357 0.068078 0.039963 -0.036818 0.017274 0.0044497 
0.024015 0.058377 0.00297 0.083368 0.054925 -0.041915 0.042758 0.026646 
0.027796 0.056733 0.016452 0.10195 0.0062583 -0.016595 0.033551 0.041443 
-0.00064712 0.043251 0.034373 0.052952 -0.034845 0.0088889 0.03799 0.03536 
0.0037921 0.055582 0.071037 0.031907 -0.057041 0.043087 0.048019 0.061172 
-0.01117 0.058213 0.065612 0.048677 -0.041422 0.056569 0.042923 0.0592 
0.0046141 0.046211 0.027961 0.0014903 -0.1108 0.032236 0.025824 0.036346 
0.0083956 0.026481 -0.0011404 -0.038627 -0.17361 0.0021479 0.023522 -0.0019624 
0.0069159 0.055254 -0.022021 -0.00081153 -0.15026 0.062323 0.013986 0.041114 
0.0080668 0.078272 0.0082312 0.056569 -0.084663 0.10589 0.028454 0.063639 
-0.022185 0.092082 -0.020377 0.076956 -0.05326 0.039963 0.025659 0.029934 
-0.097651 0.075148 -0.0027845 0.067091 -0.047834 0.011026 0.06035 0.056898 
-0.11722 0.041278 -0.026624 0.039141 -0.045203 0.020069 0.049499 0.060679 
-0.033694 0.030592 -0.0024557 0.0592 -0.047834 -0.013965 0.028783 0.030098 
0.067585 0.048677 0.020727 0.023522 -0.068879 0.025001 -0.0039354 0.0060938 
0.066434 0.062323 -0.014787 0.012177 -0.08121 0.013657 0.015959 0.013164 
0.10721 0.068571 -0.0096899 0.016452 -0.05737 -0.0032777 0.020233 -0.0016336 
0.28921 0.03799 0.040292 0.023851 -0.079237 -0.013307 0.013657 0.018918 
0.30582 -0.014129 0.097672 0.0083956 -0.061316 0.0011614 0.020562 -0.006566 
0.1909 -0.016431 0.10655 0.0031344 -0.042901 0.01826 0.0069159 0.019083 
0.050157 0.032729 0.084355 0.011191 -0.03353 0.051636 0.0056006 0.026152 
-0.024816 0.059035 0.081724 -0.0098543 -0.079072 0.022042 0.031742 0.030427 
-0.049807 0.069229 0.078272 0.00066819 -0.083018 0.0023123 0.023686 0.024508 
-0.054082 0.06479 0.046211 0.021549 -0.073976 0.0046141 0.023028 0.0075736 
-0.06444 0.051472 -0.0095255 0.083204 -0.010841 0.020398 0.033715 0.027632 
-0.052109 0.070051 -0.029584 0.076299 -0.0052507 0.02533 0.047033 0.041936 
-0.024652 0.086985 -0.032543 0.068078 -0.0029489 0.054103 0.030263 0.047197 
0.010697 0.037004 -0.014622 0.037661 -0.010676 0.0592 0.01826 0.031907 
0.0227 0.0047785 0.046046 0.029441 -0.065097 0.061008 0.012506 0.022371 
0.050157 -0.014458 0.089945 -0.041751 -0.11196 0.053938 0.0090533 0.02829 
0.050157 -0.023829 0.12562 -0.03764 -0.11196 0.093562 0.012506 0.032071 
0.052952 -0.00064712 0.10967 0.0059294 -0.054082 0.10787 0.037497 0.033387 
0.043087 0.025988 0.096686 0.045553 -0.063618 0.089616 0.033222 0.03799 
0.027468 0.034537 0.045553 0.0227 -0.071674 0.035524 0.023193 0.019905 
0.02829 0.033058 0.019576 0.013821 -0.066741 -0.028762 0.0037921 0.024344 
0.03651 0.036675 0.0070803 0.03947 -0.051944 -0.049314 0.0042853 0.0039565 
0.047526 0.084355 -0.013965 0.047033 -0.048163 -0.055068 0.026317 0.023357 
0.054596 0.094713 -0.026789 0.045389 -0.052602 -0.021034 0.026974 0.031249 
0.068242 0.052952 0.030592 0.063474 -0.035503 0.0092177 0.0072447 0.042923 
0.085506 0.027632 0.071695 0.075805 -0.014293 -0.06296 0.029276 0.024673 
0.10556 0.0072447 0.10852 0.045389 0.022042 -0.060987 0.027468 0.027632 
0.12973 -0.006566 0.13697 -0.011992 -0.00031829 0.038812 0.018589 0.047855 
0.17166 0.0047785 0.096193 -0.035503 -0.012156 0.086985 0.029605 0.033551 
0.13483 -0.0004827 0.057391 -0.032708 -0.078744 0.049828 0.023193 0.031907 
0.073504 0.0041209 0.035031 -0.03764 -0.094034 -0.0022913 0.035524 0.0011614 
0.013164 -0.00064712 -0.011498 0.025495 -0.049642 -0.018568 0.043087 -0.0052507 
0.023686 0.043251 -0.028269 0.053609 -0.01676 -0.0036066 0.029276 0.025001 
-0.0011404 0.058213 -0.049314 0.041772 -0.050958 0.039963 0.016123 0.029934 
0.022371 0.05624 -0.0406 0.034373 -0.060329 0.027961 -0.026953 0.017438 
0.029934 0.067091 -0.012649 0.05213 -0.062467 0.077614 0.0085601 0.028619 
0.017603 0.076463 -0.0057439 0.063639 -0.084334 0.10195 0.025166 0.034209 
-0.010676 0.093069 -0.041751 0.026974 -0.11672 0.11642 0.06035 0.062981 
-0.020048 0.1396 -0.036983 0.01974 -0.096336 0.095699 0.050157 0.02681 
-0.057699 0.1197 -0.016595 0.019576 -0.073647 0.02829 0.043416 0.07038 
-0.097816 0.10343 0.030263 0.039799 -0.064604 -0.018897 0.041278 0.058706 
-0.1108 0.073339 0.033058 0.0072447 -0.063124 -0.041257 0.044896 0.024015 
-0.15437 0.063145 -0.0072237 -0.00097594 -0.065426 -0.031392 0.044402 -0.019061 
-0.21422 0.073832 0.029441 0.021713 -0.035503 -0.026789 0.061172 -0.029748 
-0.077264 0.074654 0.055089 0.048019 -0.042408 0.00017495 0.061995 0.0036276 
0.17166 0.035195 0.11247 0.021713 -0.043066 0.010369 0.034044 0.0074092 
0.28379 -0.016924 0.098494 0.0024767 -0.051615 -0.0055795 0.017274 0.045882 
0.25419 -0.029584 0.086657 0.029769 -0.037476 0.0098754 0.013328 0.0079024 
0.15801 0.0047785 0.050157 0.046211 -0.052602 0.012177 0.017603 0.025001 
0.069229 0.034537 0.043087 0.06183 -0.013143 0.050321 0.042594 0.035688 
0.019576 0.043745 0.069886 0.046046 0.0092177 0.071531 0.035195 0.055747 
-0.0011404 0.063145 0.035688 0.096357 0.028454 0.049992 0.036675 0.047197 
-0.010019 0.052952 0.035524 0.061666 -0.012156 -0.015609 0.032564 0.048348 
-0.012649 0.050486 0.012506 0.032729 -0.068879 -0.070852 0.025166 0.01415 
-0.023829 0.073668 0.030098 -0.0042642 -0.11508 -0.039942 0.011848 0.0067515 
-0.019884 0.071859 -0.0096899 0.037826 -0.12314 -0.0026201 0.040128 0.026317 
-0.026789 0.072188 -0.020377 0.023193 -0.10686 0.051308 0.022864 0.019411 
-0.044874 0.055911 -0.00081153 0.017932 -0.09387 0.093069 0.036346 0.022371 
-0.089595 0.052787 0.019905 0.03799 -0.057205 0.10737 0.041114 0.011355 
-0.16786 0.074161 0.036346 0.055911 -0.062467 0.094713 0.034373 0.022864 
-0.1838 0.05213 -0.014129 0.055747 -0.031886 0.11 0.036346 0.014643 
-0.11212 0.035853 0.014479 0.038648 -0.045861 0.098988 0.043087 0.062981 
-0.042737 0.028454 0.032236 0.032893 -0.049478 0.013821 0.035195 0.051965 
0.053445 0.017932 0.039799 0.0026412 -0.071016 -0.040106 0.041443 0.075805 
0.24203 0.074983 0.04358 0.034044 -0.050958 -0.076771 0.045718 0.034702 
0.41762 0.022206 0.038483 0.033058 -0.074633 -0.025638 0.0227 0.038812 
0.39444 -0.0039354 0.064461 0.048019 -0.1233 -0.017911 0.028454 -0.010512 
0.2486 0.019247 0.077121 0.029441 -0.12067 -0.033694 0.020233 0.009711 
0.0064227 0.034537 0.11691 0.014479 -0.13218 -0.0088678 0.018754 0.0095465 
-0.145 0.051143 0.093233 0.0075736 -0.09091 -0.017253 0.018589 0.00050378 
-0.14106 0.051143 0.088301 0.040785 -0.045203 0.074819 0.030427 0.016781 
-0.12757 0.048677 0.084848 0.032564 0.00083261 0.08978 0.036017 0.035031 
-0.058028 0.051965 0.068571 0.049992 0.020398 0.066105 0.024179 0.024344 
-0.013143 0.053281 0.056076 0.071695 0.061337 0.036839 0.020891 0.031907 
0.028783 0.020727 0.037168 0.060844 0.04358 0.016781 0.0032988 0.01415 
0.058377 0.023193 0.046046 0.063639 0.01826 0.01563 -0.0004827 0.01563 
0.055911 0.018425 0.028947 0.040128 -0.047998 0.0018191 0.033222 0.028454 
0.072024 0.021878 0.071037 0.076627 -0.073976 -0.015609 0.074161 0.034537 
0.067256 0.048677 -0.012649 0.076792 -0.068386 -0.018568 0.086163 0.085999 
0.053609 0.052623 -0.01939 0.07301 -0.048656 0.034537 0.05624 0.071531 
0.048841 0.067256 0.0041209 0.035195 -0.07562 0.017438 0.038648 0.049664 
0.091753 0.043416 0.048019 0.029441 -0.1353 -0.050629 -0.0070593 0.0083956 
0.11066 0.0024767 0.05772 0.017274 -0.099789 -0.081868 -0.0052507 -0.0096899 
0.088301 0.010204 0.016945 0.056898 -0.022679 -0.083676 0.0072447 0.010533 
0.057884 0.0031344 0.01415 0.068078 0.030592 -0.023665 0.06479 0.042594 
0.044238 0.044731 0.022371 0.05624 0.0036276 0.082217 0.046046 0.061666 
0.069886 0.049664 0.060844 0.028125 0.016288 0.21128 0.027468 0.074819 
0.059857 0.034044 0.033387 -0.018733 -0.041422 0.23512 0.032893 0.082546 
0.072188 0.013986 0.03947 -0.029255 -0.10784 0.21375 0.022042 0.069393 
0.097015 0.00083261 0.034209 -0.068386 -0.18956 0.13023 0.031414 0.064296 
0.11954 0.043251 0.048841 -0.085485 -0.23658 -0.0077169 0.038648 0.0016547 
0.11477 0.034373 0.065118 -0.087622 -0.20633 -0.083183 0.035688 -0.018239 
0.072353 0.049006 0.017603 -0.025309 -0.13267 -0.093705 0.022535 -0.034188 
0.010204 0.055582 0.01004 -0.010841 -0.075455 -0.098144 0.031249 0.00297 
-0.064768 0.062817 0.01152 0.031249 -0.013143 -0.039942 0.013164 0.0041209 
-0.051944 0.055089 0.030756 0.063145 0.053116 -0.00064712 0.0054362 0.046704 
0.023851 0.06035 0.0087245 0.10474 0.042758 -0.012156 0.017274 0.033715 
0.064954 0.03536 0.0065871 0.071695 0.01152 -0.0088678 0.028125 0.022535 
0.063803 0.039634 0.0074092 0.060515 -0.0068948 -0.010676 0.0014903 0.019905 
0.045389 0.033715 0.016781 0.055911 -0.021692 0.037004 0.011684 0.034702 
0.040292 0.059693 0.027139 0.03536 -0.072003 0.069722 0.020069 0.026646 
0.0082312 0.071859 0.023686 0.0095465 -0.081703 0.10408 0.025001 0.039634 
-0.021692 0.075148 0.029605 0.013657 -0.076277 0.099645 0.036675 0.065118 
-0.03057 0.075805 0.037497 0.032071 -0.058521 0.089287 0.033715 0.035853 
-0.0022913 0.096686 0.073832 -0.0013048 -0.066248 0.12398 0.026317 0.041936 
0.010862 0.057227 0.040128 0.02122 -0.062467 0.03388 0.026646 0.024344 
-0.0031133 0.048019 0.031414 -0.0027845 -0.066741 -0.0087034 0.0037921 0.015959 
0.00017495 0.01563 0.034866 0.051965 -0.053095 -0.010019 0.0065871 -0.0034422 
-0.017911 -0.0024557 0.076299 0.021384 -0.062302 0.016288 0.011026 0.022535 
-0.028269 -0.0060728 0.095535 -0.0091966 -0.09091 0.007738 0.035853 -0.00031829 
-0.0088678 -0.0031133 0.062488 -0.0077169 -0.070687 0.045882 0.066927 0.064954 
0.00017495 0.028947 0.048677 0.024508 -0.090581 0.040292 0.071859 0.055418 
-0.016924 0.043251 0.033387 0.0088889 -0.090581 0.037661 0.075312 0.05624 
-0.0064016 0.05213 0.062981 0.0070803 -0.081045 0.038155 0.052459 0.044073 
-0.023007 0.050486 0.046211 -0.0098543 -0.067728 -0.004593 0.012506 -0.0067304 
-0.010512 0.023851 0.038648 -0.0060728 -0.060658 -0.03616 -0.013471 -0.028762 
0.019905 0.051965 0.019576 0.011026 -0.025145 -0.012978 -0.012814 -0.019555 
0.042923 0.063803 0.043909 0.025988 -0.014458 0.028619 0.0072447 0.011191 
0.093562 0.045389 0.038483 0.077778 -0.02794 0.046046 0.016452 0.023851 
0.066763 0.040785 -0.016266 0.06183 -0.06296 0.019576 0.02681 0.05624 
-0.036983 0.05065 -0.027775 0.052294 -0.071016 0.0052718 0.026481 0.053938 
-0.062631 0.020562 0.016781 0.038648 -0.036325 0.0013258 0.017274 0.034866 
-0.057041 0.033715 0.061666 0.058377 -0.027611 0.041114 0.015137 0.0072447 
-0.06855 0.029769 0.084026 -0.0077169 -0.044217 0.093233 0.014315 0.027139 
-0.069701 0.042429 0.049499 0.011191 -0.031557 0.14321 0.06594 0.022535 
-0.034352 0.069558 0.013821 0.031249 0.0052718 0.09422 0.062488 0.030098 
0.053609 0.099645 -0.0073881 0.072024 -0.015938 -0.0047575 0.058871 0.028619 
0.17363 0.14354 -0.0022913 0.055089 -0.040764 -0.028104 0.047526 0.012342 
0.17133 0.10967 -0.020541 0.050486 -0.049971 -0.065755 0.033058 0.018589 
0.1248 0.045718 -0.018733 0.064132 -0.054246 -0.10176 -0.025802 0.013492 
0.043251 0.015465 0.01974 0.036182 -0.095514 -0.064933 0.0065871 0.0082312 
-0.026624 0.028783 0.038648 0.051143 -0.067892 -0.01528 0.015794 0.013492 
-0.048327 0.037004 0.032729 0.035688 -0.054904 0.01004 0.01974 0.02533 
-0.028762 0.034209 0.016288 0.050814 -0.050629 0.014643 0.026646 0.013821 
-0.025967 0.029605 0.012999 0.031578 -0.05326 0.036839 0.029276 0.03092 
-0.02087 0.031578 0.018754 0.015137 -0.056055 0.044402 0.036839 0.033551 
-0.0016336 0.031085 0.038977 0.011191 -0.036983 0.0421 0.040292 0.05065 
0.036017 0.048677 0.013821 0.063474 -0.032215 0.051472 0.071695 0.04654 
0.05624 0.048019 0.0016547 0.023357 -0.051944 0.041607 0.066763 0.050157 
0.061666 0.042265 -0.00081153 0.0083956 -0.076771 0.017438 0.031414 0.043251 
0.074983 0.04358 0.015465 0.013821 -0.073976 0.028783 0.018589 0.047362 
0.067091 0.050321 0.0069159 0.037004 -0.061316 0.053281 0.0059294 0.03388 
0.078765 0.053281 -0.02794 0.039141 -0.045861 0.049992 -0.0060728 0.011191 
0.094055 0.086985 -0.026624 0.033058 -0.06 0.023028 0.025824 0.0036276 
0.073504 0.068736 -0.0138 0.085999 -0.041093 0.0072447 0.058377 -0.001798 
0.095206 0.064132 0.013328 0.053774 -0.032543 0.015959 0.0056006 -0.00097594 
0.079751 0.012835 0.0016547 0.031742 -0.017088 0.019083 0.026646 0.00099702 
0.12875 0.028619 0.033222 0.022206 -0.022185 0.027468 0.0093821 0.023686 
0.10655 0.071366 0.030427 0.057884 -0.015609 0.033222 0.032729 0.03388 
0.053116 0.065612 0.032729 0.040621 -0.024158 0.056569 0.079422 0.056733 
0.019247 0.0592 0.062159 0.042594 -0.053588 0.051143 0.075476 0.05624 
0.0014903 0.037004 0.053938 0.037168 -0.066413 0.059857 0.047197 0.075805 
0.015959 0.0098754 0.065118 -0.0050863 -0.14944 0.0047785 0.020398 0.033715 
0.031414 0.020398 0.065776 -0.018897 -0.16703 -0.044546 0.022535 0.035195 
0.049992 0.025988 0.061666 0.0051074 -0.15174 -0.046025 0.014479 0.030592 
0.037004 0.033387 0.033387 0.033387 -0.089266 0.0018191 0.013164 0.040292 
0.043087 0.039634 0.025824 0.018589 -0.082854 0.059857 0.013821 0.029769 
0.044567 0.013492 0.02681 -0.0049219 -0.061316 0.096521 0.025495 0.013821 
0.042265 0.010533 0.059857 -0.0044286 -0.050629 0.068078 -0.0022913 0.0090533 
0.015465 0.042758 0.076463 0.043251 -0.019555 0.016452 -0.00015387 0.0072447 
-0.09239 0.033387 0.050486 0.056569 -0.017746 0.0041209 0.025988 0.01563 
-0.17772 0.094713 0.01267 0.041114 -0.023172 0.03092 0.050814 0.042923 
-0.18298 0.10195 0.013492 0.056076 -0.030406 0.051636 0.032893 0.063639 
-0.037311 0.12135 0.043745 0.051308 -0.085485 -0.017582 0.018754 0.045718 
0.12661 0.088958 0.04358 0.025001 -0.10439 -0.075291 0.024837 0.040785 
0.17544 0.0056006 0.024508 0.037661 -0.077757 -0.051944 0.016616 0.014315 
0.19139 -0.037805 0.012999 0.027303 -0.032543 -0.001798 0.005765 0.029112 
0.14864 -0.042737 0.029769 0.04654 -0.040435 0.048841 0.016781 0.040621 
0.097837 -0.020541 0.061337 0.016288 -0.049478 0.074654 0.030427 0.053609 
0.056404 0.027139 0.025001 0.025495 -0.048985 0.065118 0.043416 0.026974 
0.019905 0.038977 0.021878 0.03092 -0.050629 0.055582 0.046704 0.021878 
-0.0022913 0.051143 0.034702 0.035853 -0.06707 0.010533 0.031578 0.017438 
0.011684 0.042265 0.053609 0.014972 -0.075291 -0.019061 0.037497 0.0047785 
0.025659 0.045882 0.0592 0.029934 -0.041751 -0.0078813 0.036839 0.015301 
0.039634 0.064954 0.053445 0.041114 -0.017911 -0.0083746 0.024673 0.015301 
0.031907 0.075641 0.042594 0.040456 -0.019061 0.021384 0.031742 0.034702 
-0.024487 0.067256 0.056733 0.034537 -0.030899 0.049335 0.032071 0.03536 
-0.063946 0.022535 0.078272 0.020069 -0.044052 0.065776 0.050321 0.049499 
-0.05737 0.035195 0.050979 0.017603 -0.07973 0.070215 0.046868 0.051965 
-0.019719 0.031578 0.068407 -0.020048 -0.088115 0.08567 0.03651 0.048348 
-0.0067304 0.031249 0.051472 -0.0067304 -0.09239 0.052952 0.01415 0.015301 
0.0016547 0.027961 0.060844 0.040621 -0.05737 0.038648 0.031578 0.069886 
-0.00031829 0.041607 0.023193 0.086492 -0.045532 0.023686 0.046704 0.058049 
0.0021479 0.040292 -0.00015387 0.042429 -0.065426 -0.031064 0.038319 0.031085 
0.016452 0.054432 0.032236 0.024508 -0.091568 -0.063782 0.061995 -0.01528 
0.050814 0.061501 0.045718 0.0039565 -0.1108 -0.066741 0.015959 -0.023336 
0.03388 0.10721 0.060186 -0.0044286 -0.094692 -0.050793 0.012342 -0.017253 
0.05624 0.05213 0.034044 0.01152 -0.072003 0.00050378 0.012999 0.0044497 
0.042265 0.045718 0.021056 0.028947 -0.045532 0.0067515 0.028947 0.032564 
0.038319 0.065776 0.024508 0.057062 -0.023336 0.038648 0.043745 0.031578 
0.050157 0.066105 0.0324 0.04917 -0.011498 0.057391 0.043251 0.038977 
0.075312 0.03947 0.096028 0.015794 -0.056219 0.048348 0.020891 0.029112 
0.077121 0.0018191 0.10589 -0.026789 -0.083018 0.057227 0.012506 0.031578 
0.089452 -0.0059084 0.14108 0.0088889 -0.086142 0.077614 0.0072447 0.041114 
0.070215 -0.019884 0.15456 0.021549 -0.041915 0.088301 0.022371 0.037168 
0.055582 0.049006 0.11214 0.061995 -0.00081153 0.043909 0.037168 0.020727 
0.045718 0.045553 0.067091 0.076627 0.014315 0.0039565 0.038812 0.036017 
0.052623 0.031085 0.037004 0.058542 -0.034352 -0.0067304 0.039634 0.023686 
0.051636 0.031907 0.019411 0.025001 -0.043888 -0.0049219 0.026481 0.015137 
0.049335 0.036839 -0.012814 0.0092177 -0.032708 0.028947 0.02122 0.02533 
0.066763 0.029112 -0.02235 0.018589 -0.025309 0.014972 0.029934 0.032729 
0.055911 0.060186 -0.08532 0.0011614 -0.078579 -0.011005 0.023028 0.039141 
0.036346 0.040456 -0.1016 -0.0090322 -0.12346 -0.037805 0.030756 0.0056006 
0.021878 0.02829 -0.088444 -0.013636 -0.1136 0.033551 0.024015 0.032236 
0.044238 0.037826 -0.042901 0.048184 -0.074304 0.12628 0.033387 0.033222 
0.038812 0.038483 -0.032379 0.010533 -0.046683 0.20405 0.0324 0.044402 
0.032729 0.057884 -0.011827 0.033551 -0.037476 0.19369 0.025001 0.029605 
0.030098 0.056569 0.028125 0.020562 -0.050136 0.077449 0.0088889 0.01711 
0.040128 0.061501 0.041607 0.062159 -0.078579 -0.056712 0.0041209 -0.0021268 
0.038648 0.053445 0.062488 0.048677 -0.058192 -0.07414 0.013492 0.018918 
0.024673 0.078929 0.037168 0.039963 -0.038791 -0.040928 0.04095 0.00297 
0.01415 0.13351 0.038155 0.049335 -0.03616 -0.013965 0.052787 0.038977 
0.024015 0.11362 0.033715 0.049664 -0.031557 0.023686 0.032729 0.044402 
0.031578 0.078272 0.052952 0.029769 -0.019226 0.049828 0.012342 0.05065 
0.045882 0.077778 0.055418 0.027468 -0.0060728 0.054432 0.0082312 0.023522 
0.042594 0.042265 0.039799 0.066763 -0.011334 0.028125 0.027303 0.015959 
0.021549 0.051472 0.030098 0.03536 -0.032543 0.012506 0.012506 0.020727 
-0.0075525 0.027796 0.046704 0.020562 -0.025967 0.018425 0.044402 0.019411 
-0.0044286 0.0026412 0.062981 0.014315 -0.030077 0.040128 0.037004 0.046046 
0.0042853 -0.028104 0.035031 0.031578 -0.12478 0.0079024 0.028619 0.03388 
-0.00064712 0.00297 0.033387 0.0026412 -0.1621 -0.015609 0.036675 0.047691 
0.0085601 0.034866 0.0026412 0.012506 -0.12988 -0.015444 0.044402 0.059693 
0.0093821 0.066927 -0.0039354 0.029276 -0.057863 -0.001798 0.035688 0.053774 
0.021549 0.055418 -0.015116 0.025495 -0.057699 -0.059343 0.031578 0.015137 
0.052952 0.050157 -0.0039354 0.013986 -0.047998 -0.14451 0.082382 -0.0073881 
0.042758 0.027303 -0.0024557 0.013164 -0.050464 -0.064111 0.0069159 -0.017582 
0.11083 0.040621 0.0082312 0.021384 -0.062631 0.038483 -0.0031133 0.012999 
0.10441 0.047197 0.034209 0.0011614 -0.051615 0.15949 0.015794 0.017603 
0.084848 0.051308 0.01267 0.028947 -0.018404 0.14683 0.031249 0.042923 
0.017438 0.082217 0.027468 0.066434 -0.008539 0.063968 0.037497 0.030427 
-0.031392 0.068242 0.0065871 0.071202 -0.038133 0.033058 0.051965 0.040128 
-0.030406 0.072188 0.030263 0.05476 -0.036654 0.048841 0.063803 0.046046 
-0.039778 0.08304 0.034209 0.047526 -0.022021 0.09126 0.047362 0.061995 
-0.033201 0.085835 0.021549 0.051472 0.015465 0.14453 0.053116 0.080244 
-0.011334 0.085506 0.041607 0.05065 -0.054575 0.10343 0.042758 0.078929 
0.020069 0.066927 0.081067 0.0085601 -0.10719 -0.041751 0.026152 0.037004 
0.038155 0.018589 0.10063 -0.0083746 -0.12116 -0.15207 0.0092177 -0.020541 
0.021056 0.046868 0.03947 0.033058 -0.076606 -0.18676 0.017603 -0.036818 
0.026317 0.028783 0.022864 0.040621 -0.096665 -0.13497 0.005765 -0.045203 
0.032236 0.023522 0.026317 0.011355 -0.11212 -0.12166 0.011684 -0.014129 
0.042429 0.051965 0.030756 0.00033937 -0.10143 -0.048656 0.018918 -0.0011404 
0.034044 0.036839 0.026152 0.07449 -0.033201 0.032236 0.030427 0.053938 
0.015137 0.082217 -0.03764 0.057227 0.012835 0.11395 0.042594 0.055089 
-0.021363 0.10754 -0.017746 0.0689 0.036182 0.12349 0.055747 0.078107 
-0.0031133 0.076627 -0.0096899 0.059528 0.046046 0.12743 0.062817 0.058377 
0.010204 0.061008 0.051801 0.053938 -0.023336 0.08304 0.044073 0.037497 
0.041936 0.031249 0.053774 0.0082312 -0.057041 0.045718 0.020562 0.025988 
0.079422 0.0041209 0.079587 -0.022185 -0.11196 -0.012485 -0.00015387 0.00033937 
0.091589 -0.0029489 0.10754 -0.044381 -0.1524 -0.025145 -0.0073881 0.0013258 
0.089452 -0.010183 0.12562 -0.064933 -0.20271 -0.024158 0.028783 0.0019835 
0.057062 0.0067515 0.10606 -0.0096899 -0.14303 0.034702 0.033222 0.03947 
-0.013636 0.020562 0.0421 0.0028056 -0.11015 0.078436 0.046211 0.052294 
-0.051944 0.028783 0.043087 0.029112 -0.091897 0.095535 0.024837 0.048677 
0.0052718 0.043745 0.02681 0.031414 -0.070194 0.10655 0.021384 0.0067515 
0.036182 0.043745 0.047855 0.055254 -0.025145 0.061008 0.040785 0.03651 
0.058871 0.019083 0.034044 0.061337 0.016452 0.026481 0.032893 -0.00097594 
0.060515 0.01563 0.014972 0.08863 0.028947 -0.0034422 0.01415 0.0072447 
0.063474 0.0227 0.0046141 0.057391 0.013328 -0.02942 0.024179 0.015137 
0.047526 0.058542 0.025001 0.037661 -0.022514 -0.0050863 0.0042853 0.014643 
0.020562 0.061501 0.056898 0.037826 -0.0138 -0.018404 0.036346 0.055582 
-0.0027845 0.057555 0.018096 0.040456 -0.023994 0.019083 0.029276 0.080244 
0.022535 0.042594 0.039634 0.018589 -0.029584 0.031742 0.029441 0.077449 
0.048677 0.030263 0.061501 -0.017582 -0.11064 -0.0054151 0.016123 0.058377 
0.052459 0.036346 0.09981 -0.022679 -0.1843 -0.067399 0.011026 0.0085601 
0.050979 0.051308 0.066434 -0.0091966 -0.16966 -0.11903 0.0093821 -0.059014 
0.043087 0.030263 0.023686 0.0069159 -0.11409 -0.078415 0.022535 -0.014787 
0.027139 0.016945 0.0016547 0.034044 -0.0406 0.05065 0.040621 -0.006566 
0.046211 0.033058 0.01152 0.044238 -0.013307 0.19533 0.012013 0.030263 
0.049992 0.049664 0.023522 0.031578 -0.023501 0.22986 0.020727 0.0421 
0.040292 0.071037 0.018589 0.06035 -0.015609 0.1539 0.053609 0.065447 
-0.00031829 0.064461 -0.013143 0.04917 -0.0047575 0.061172 0.066434 0.053445 
-0.037311 0.0786 0.01267 0.074326 -0.027447 0.047526 0.062652 0.052787 
-0.0040998 0.051965 0.033715 0.037497 -0.063289 0.021384 0.038977 0.043087 
0.042923 0.028947 0.057227 0.0014903 -0.10423 0.011848 0.018918 0.040785 
0.031578 0.035688 0.039799 0.025988 -0.062467 -0.0011404 0.0052718 0.02122 
0.030263 0.031578 0.041772 0.054267 -0.062138 -0.010676 0.018754 0.018589 
0.026317 0.021878 0.062817 0.014479 -0.057205 0.00050378 0.011684 0.010862 
0.038812 0.014808 0.076299 0.0042853 -0.051122 0.022864 0.021878 0.017438 
-0.0029489 0.010862 0.059528 0.0324 -0.043888 0.040456 0.049664 0.048513 
-0.040435 0.042429 0.040785 0.030427 -0.06 0.019905 0.021056 0.022206 
-0.033201 0.039799 0.029769 0.030427 -0.057699 -0.0013048 0.041278 0.037826 
0.02681 0.040128 0.052459 0.030592 -0.043724 -0.031557 0.01974 0.025495 
0.045718 0.037661 0.071202 0.069064 -0.023501 -0.019719 0.022206 0.035195 
0.086985 0.044731 0.032236 0.037497 -0.038627 0.0064227 0.020562 0.018754 
0.24236 0.064625 0.030427 0.015465 -0.066741 0.0026412 0.023357 0.030756 
0.34413 0.024344 0.051965 -0.004593 -0.055726 0.013821 0.0095465 0.022042 
0.24614 -0.011498 0.083533 0.028125 -0.066741 0.091918 -0.0011404 0.044896 
0.069393 0.0082312 0.038648 0.0092177 -0.070852 0.17347 0.010204 0.032236 
-0.076113 0.035195 0.033222 0.019247 -0.07003 0.13927 0.026317 0.028619 
-0.11212 0.087314 0.007738 0.038319 -0.037476 0.052623 0.016945 0.023851 
-0.093705 0.098494 0.017767 0.054267 -0.03057 -0.028926 0.027139 0.0039565 
-0.07414 0.07301 0.01826 0.037332 -0.022514 -0.058192 0.031414 0.0042853 
-0.042737 0.038319 -0.012814 0.049006 -0.016431 -0.018404 0.013821 0.0052718 
-0.040928 0.0227 0.0014903 0.069229 -0.020377 0.0042853 0.010697 0.044073 
-0.072167 0.038319 -0.0021268 0.045389 -0.040271 0.049828 0.048513 0.066927 
-0.062631 0.070544 0.030592 0.043909 -0.049971 0.071037 0.066927 0.098494 
-0.049149 0.053774 -0.0034422 0.022042 -0.078415 0.021384 0.073504 0.049992 
-0.043066 0.053281 0.011026 0.01826 -0.13316 -0.046683 0.056404 0.0044497 
-0.072496 0.067091 0.017932 -0.024652 -0.14369 -0.074798 0.03092 -0.045203 
-0.12889 0.093562 0.03536 -0.024158 -0.12462 -0.036818 0.013821 0.010204 
-0.040106 0.087972 0.053281 -0.013471 -0.088937 0.013986 0.015465 0.027796 
0.14157 0.064461 0.011355 0.025166 -0.071674 0.059857 0.027139 0.039141 
0.24548 0.021056 -0.0075525 0.014479 -0.043559 0.071531 0.020562 0.043087 
0.22065 0.0065871 0.025166 0.0044497 -0.030735 0.0689 0.021713 0.031249 
0.15851 0.014315 0.088794 0.046704 -0.029255 0.081067 -0.0026201 0.064296 
0.12283 0.04917 0.032564 0.020727 -0.069043 0.053445 0.016945 0.017438 
0.092904 0.12036 0.023357 0.031742 -0.051287 0.04358 0.032236 0.037332 
0.066763 0.053116 0.025824 0.030263 -0.041257 0.025988 0.021056 0.031907 
0.039634 0.051143 0.041936 0.064625 -0.022843 -0.020541 0.0072447 0.020727 
0.0018191 0.034537 0.044073 0.053774 -0.026296 -0.052602 0.0036276 -0.020541 
-0.029091 0.059857 -0.0064016 0.043416 -0.036983 -0.034023 0.026974 0.033715 
-0.049971 0.063803 -0.01117 0.025824 -0.015444 0.049335 0.048348 0.049335 
-0.038791 0.064132 0.0052718 0.064625 -0.034516 0.067091 0.049499 0.06594 
-0.014129 0.034702 0.035031 0.04358 -0.045696 0.040621 0.037168 0.035031 
0.019905 0.049006 0.03388 0.01152 -0.081045 0.0054362 0.027632 0.027303 
0.0067515 0.041278 0.03536 0.014479 -0.094692 -0.031886 0.031085 0.0065871 
-0.023007 0.063145 0.019905 0.01711 -0.10587 -0.015609 0.018425 0.0098754 
-0.013965 0.052294 0.030427 0.0047785 -0.085649 -0.0032777 0.035688 0.016781 
0.0090533 0.042923 0.042758 0.007738 -0.06855 0.021056 0.043251 0.010697 
0.010697 0.045553 0.0044497 0.038155 -0.057205 0.058542 0.036675 0.066269 
0.040292 0.032236 -0.0059084 0.06331 -0.045861 0.098166 0.042429 0.049828 
0.055911 0.062652 0.0042853 0.019411 -0.070194 0.06479 0.017932 0.048677 
0.078436 0.065118 0.039799 -0.009361 -0.077264 0.025495 0.022042 0.039634 
0.073668 0.023193 0.043416 0.013164 -0.094527 0.0072447 0.0082312 0.030098 
0.067749 0.018096 0.029605 -0.013143 -0.091075 -0.010348 0.028619 0.00050378 
0.045224 0.013164 0.033058 0.009711 -0.063618 -0.013143 0.024015 0.01563 
0.048841 0.024344 0.044567 0.038319 -0.010676 0.010204 0.026481 0.0075736 
0.037497 0.038319 0.046046 0.050486 -0.025967 0.0018191 0.019247 0.033387 
0.045553 0.042265 0.00083261 0.043416 -0.028104 -0.0031133 0.022864 0.022042 
0.044896 0.037497 -0.0039354 0.016288 -0.054575 -0.004593 1.0539e-005 -0.0014692 
0.0689 0.03536 -0.0036066 0.069064 -0.036654 -0.0031133 0.036017 0.018425 
0.083697 0.026974 0.024344 0.060186 -0.05589 0.040785 0.038977 0.031742 
0.057062 0.071859 0.030592 0.034373 -0.061316 0.046704 0.02533 0.042923 
0.036182 0.0786 0.029934 0.034209 -0.046519 0.058542 0.035688 0.054432 
0.0082312 0.049992 0.059035 0.06183 -0.036489 0.060022 0.044073 0.058542 
0.024837 0.046046 0.079916 0.021549 -0.068057 0.022371 0.030592 0.048348 
0.026481 0.027632 0.10672 -0.024158 -0.10308 0.025988 -0.0050863 0.022371 
0.035853 0.055747 0.07449 -0.025474 -0.070687 -0.0052507 -0.0075525 -0.0064016 
0.012999 0.055747 0.051965 0.022864 -0.053917 -0.028269 0.028947 -0.0090322 
0.016288 0.040785 0.034373 0.032564 -0.016595 -0.026789 0.015794 -0.0011404 
0.0056006 0.026974 0.036675 0.058213 0.00050378 0.0072447 0.040621 0.038155 
0.051308 0.021713 0.0011614 0.08156 0.00099702 0.023357 0.040292 0.028125 
0.076463 0.047691 -0.032543 0.073668 -0.043724 0.01563 0.036182 0.043909 
0.086163 0.023193 -0.0050863 0.033058 -0.054575 0.040128 0.038812 0.041114 
0.069064 0.028619 0.034373 0.012835 -0.054739 0.064954 0.090931 0.035688 
0.053445 0.0046141 0.068736 -0.0075525 -0.073154 0.031742 0.04654 0.030756 
0.02533 -0.018897 0.065447 -0.021692 -0.088444 0.039141 0.033715 0.028454 
0.051143 0.015465 0.023522 0.024015 -0.05589 0.067256 0.032564 0.037004 
0.031578 0.046375 0.012013 0.046868 -0.052766 0.090767 0.01267 0.032564 
0.047362 0.048184 0.01826 0.079587 -0.047341 0.076299 0.01152 0.045553 
0.040128 0.051965 0.026974 0.045389 -0.052931 0.048841 0.022864 0.0079024 
0.013164 0.043745 0.014808 0.044567 -0.047998 0.012342 0.03536 0.022371 
-0.0096899 0.088794 0.015465 0.036839 -0.032379 0.01267 0.025659 0.0052718 
0.0047785 0.081067 0.045553 0.069064 -0.05326 0.015137 0.0079024 0.01974 
0.014315 0.073832 0.058706 0.042758 -0.037969 0.01415 0.016945 0.02533 
0.029934 0.072517 0.021056 0.037332 -0.020048 0.041607 0.015301 0.031414 
-0.0095255 0.051143 0.012506 0.034866 -0.00081153 0.028619 0.021384 0.033551 
-0.012485 0.028947 0.023851 0.024344 -0.060165 -0.021034 0.036017 0.019576 
-0.03501 0.083204 0.054103 0.020398 -0.062631 -0.03501 0.044073 0.015959 
-0.031228 0.067913 0.055089 0.033715 -0.050958 -0.0083746 0.051143 0.045224 
0.0056006 0.053938 0.01974 0.038319 -0.020048 0.063474 0.04358 0.039963 
0.0075736 0.035524 0.024837 0.034866 -0.036325 0.018096 0.015465 0.030756 
0.022864 -0.0052507 0.048184 0.021056 -0.051451 -0.042408 0.01563 0.015465 
0.036182 0.023193 0.071859 -0.0013048 -0.084005 -0.045039 0.019576 0.0021479 
0.034044 0.033551 0.044402 0.016452 -0.1113 -0.0032777 0.037168 0.027139 
0.026646 0.024015 0.034866 -0.0050863 -0.13267 0.082546 0.039963 0.04095 
0.018754 0.02681 0.05213 0.024179 -0.11771 0.095206 0.038319 0.057555 
0.045553 0.035853 0.073175 0.0070803 -0.09798 0.041936 0.028454 0.020233 
0.088958 0.038155 0.085506 0.023028 -0.11722 -0.011498 0.031742 0.0019835 
0.085835 0.03536 0.052459 -0.00081153 -0.10094 -0.017253 0.01711 0.00017495 
0.048348 0.034044 0.044567 -0.004593 -0.067235 0.034373 0.036346 0.039305 
0.010204 0.036017 0.032893 0.052787 -0.0016336 0.082875 0.042923 0.045718 
0.0019835 0.058871 0.043251 0.068736 0.0042853 0.084848 0.043416 0.060515 
0.026317 0.042923 0.01563 0.063968 0.0018191 0.083533 0.041114 0.030098 
0.040785 0.057227 0.011684 0.050321 -0.02087 0.0044497 0.016781 0.029769 
0.0046141 0.036017 0.0083956 0.086821 -0.017746 -0.021692 0.010862 0.013657 
-0.001798 0.017932 0.0065871 0.037168 -0.045203 -0.036325 0.012835 0.012342 
0.0082312 0.013657 0.033222 0.029605 -0.041422 -0.019555 0.034209 0.016945 
0.0039565 0.025495 0.00083261 0.036346 -0.023172 -0.017417 0.016945 0.021384 
0.0021479 0.059364 0.022206 0.056898 -0.053917 0.031742 0.023193 0.032729 
-0.011005 0.056076 0.046046 0.0092177 -0.086471 0.094877 0.02533 0.03799 
0.015465 0.032729 0.10441 0.014643 -0.10193 0.077943 0.017767 0.048019 
0.025166 0.026646 0.096521 -0.010183 -0.10258 0.013492 0.015301 0.035524 
0.023522 0.031249 0.073339 0.013657 -0.12133 -0.054575 0.022864 0.035195 
0.035195 0.081067 0.048348 0.0074092 -0.10176 -0.022021 0.0016547 0.019247 
0.031085 0.07038 0.050486 0.015465 -0.082032 -0.043559 0.031907 0.016452 
0.047526 0.060022 0.047691 0.0095465 -0.054739 -0.044052 0.026974 0.018096 
0.036675 0.041114 0.0067515 0.029934 -0.033037 -0.010841 0.026152 0.024837 
0.049828 0.026317 0.0087245 0.024344 -0.042901 0.016945 0.014479 0.018096 
0.048019 0.051308 0.0031344 0.027961 -0.055561 0.095864 0.02681 0.027139 
0.049335 0.045553 0.020562 0.065447 -0.033694 0.11083 0.03388 0.032564 
0.050814 0.037004 0.018918 0.04917 -0.040435 0.069558 0.043745 0.040621 
0.040785 0.058542 -0.01528 0.056898 -0.042079 0.047362 0.040785 0.038977 
0.033715 0.038977 0.00297 0.046704 -0.021528 0.035195 0.038319 0.025001 
0.034702 0.03388 0.0421 0.030098 -0.060658 0.053609 0.024508 0.031578 
0.032071 0.047855 0.086492 -0.0096899 -0.065591 0.067913 0.0075736 0.027468 
0.041443 0.023193 0.048677 -0.0075525 -0.060165 0.049664 0.0087245 0.052294 
0.034537 0.018096 0.031742 0.019411 -0.035338 0.044073 0.02829 0.034044 
0.041278 0.037661 0.053116 0.018918 -0.07266 0.016123 0.024179 0.01152 
0.035688 0.04506 0.063474 0.015465 -0.07414 0.022864 0.026974 0.013657 
0.040785 0.061172 0.0039565 0.011355 -0.075291 0.0088889 0.029605 0.02681 
0.038319 0.065283 0.023686 0.049664 -0.049807 0.00297 0.017767 0.01004 
0.017932 0.051472 0.01711 0.026152 -0.081374 -0.0036066 0.0227 0.031414 
0.046868 0.058049 0.023193 0.0047785 -0.085156 -0.012156 0.034537 0.013328 
0.031249 0.023851 0.050321 0.013657 -0.06444 0.013821 0.036017 0.014479 
0.052294 0.065612 0.020398 0.059693 -0.037969 0.010862 0.036346 0.027632 
0.023028 0.056569 -0.0062372 0.03799 -0.028104 0.033058 0.021384 0.038648 
0.021384 0.043909 -0.0098543 0.025001 -0.047505 0.047033 0.026974 0.057227 
0.038483 0.037661 0.0080668 0.031414 -0.044052 0.026152 0.036017 0.036182 
0.021384 0.046868 -0.02498 0.053774 -0.062138 0.047197 0.01563 0.026974 
0.017767 0.076299 -0.031064 0.022864 -0.078908 0.016288 0.0324 0.011191 
0.019905 0.064954 -0.042408 0.024508 -0.070194 0.027139 0.027139 0.018096 
0.037168 0.046211 0.00297 0.030756 -0.057205 0.048841 0.0227 0.012013 
0.040785 0.02122 0.045553 0.064132 -0.056877 0.034702 0.0092177 0.033387 
0.042758 0.032564 0.037168 0.031085 -0.054904 0.03651 0.013492 0.016452 
0.052787 0.0083956 0.044073 0.01415 -0.041751 0.037004 0.017932 0.027632 
0.047526 0.041278 0.055254 0.046704 -0.011334 0.037168 0.017438 0.045224 
0.038812 0.044731 0.072517 0.041772 -0.0026201 0.05213 0.047033 0.050979 
0.034044 0.045718 0.053116 0.043416 -0.0098543 0.047855 0.044731 0.058377 
0.029441 0.045389 0.036839 0.020233 -0.026624 0.070051 0.036017 0.047855 
0.046868 0.071695 0.041114 0.04358 -0.059343 0.048841 0.017767 0.026317 
0.027796 0.06035 0.046375 0.011848 -0.064604 0.049006 0.013328 0.0062583 
0.030592 0.056569 0.075148 0.0034632 -0.095843 0.028454 0.017438 0.016452 
0.044402 0.02829 0.033222 0.01974 -0.080881 -0.001798 0.011684 -0.0014692 
0.049828 0.019411 0.012013 0.034373 -0.073647 0.0085601 0.038319 0.015959 
0.035853 0.021549 0.017438 0.023357 -0.05178 -0.036489 0.033715 0.01152 
0.024344 0.081889 0.0093821 0.034537 -0.0073881 -0.065919 0.031249 0.0324 
0.02681 0.035688 0.032071 0.071366 0.014315 -0.062631 0.033387 0.04506 
0.026152 0.031249 0.0065871 0.053445 -0.022843 0.0059294 0.035688 0.052294 
0.065776 0.033222 0.029112 0.029112 -0.048985 0.059857 0.027796 0.035688 
0.06594 0.025659 0.036839 0.0079024 -0.089595 0.018754 0.026152 0.026974 
0.057391 0.058706 0.077614 0.019411 -0.10587 -0.05178 0.02681 -0.00081153 
0.075148 0.044731 0.036182 0.010369 -0.12922 -0.040435 0.032729 0.0082312 
0.077778 0.024015 0.013164 0.047362 -0.08384 0.021878 0.022206 0.023028 
0.084519 0.037497 0.015794 0.05213 -0.030242 0.071366 0.033058 0.0227 
0.060679 0.046375 0.034866 0.059528 -0.050958 0.059528 0.017603 0.028783 
0.032729 0.055254 0.03947 0.033715 -0.04619 0.066269 0.032729 0.036839 
0.01826 0.0786 0.029441 0.047033 -0.040271 0.065283 0.049335 0.05476 
0.06594 0.040785 0.022206 0.054925 -0.019061 0.058377 0.037332 0.058377 
0.0592 0.012835 0.046868 0.03092 -0.05178 0.029112 0.016452 0.036675 
-0.0014692 -0.022843 0.11855 -0.036325 -0.093212 0.0024767 0.010862 0.020727 
-0.03501 -0.0036066 0.06742 -0.062467 -0.13053 -0.015116 0.0067515 0.022864 
-0.082854 0.037826 0.06035 -0.023336 -0.13826 -0.03205 0.012342 0.017274 
-0.16391 0.058706 0.030263 0.0083956 -0.10883 -0.058685 0.032071 0.022371 
-0.13415 0.068736 0.025495 0.031907 -0.055232 -0.090417 0.063968 0.0072447 
-0.089431 0.076627 0.015959 0.059364 -0.0091966 -0.05326 0.053116 0.022864 
-0.11557 0.055254 -0.015938 0.071037 0.00297 -0.0026201 0.040128 0.029441 
-0.12988 0.075476 0.016781 0.027796 -0.025474 0.032564 0.047691 0.038812 
0.043745 0.082546 0.031414 0.018754 -0.050629 0.049499 0.041607 0.034373 
0.32506 0.064461 0.031907 0.02681 -0.031721 0.052294 0.018754 0.015301 
0.36172 0.03651 0.016452 0.05624 -0.046847 0.027303 0.0070803 0.022206 
0.24252 0.022864 0.035031 0.023851 -0.070523 0.00083261 0.01415 0.026317 
0.077614 0.062817 0.029605 0.017767 -0.077593 0.027303 0.031414 0.035195 
-0.037476 0.059035 0.059857 0.02681 -0.055726 0.031085 0.03651 0.019247 
-0.064275 0.022206 0.051636 0.035853 -0.045696 0.023028 0.028125 0.038155 
-0.031557 -0.011663 0.032236 0.021878 -0.041751 0.029769 0.023522 0.050157 
-0.02498 -0.00081153 0.023686 -0.0060728 -0.060494 0.01004 0.032564 0.046704 
-0.022185 0.028619 0.023522 0.026152 -0.063289 -0.012649 0.047691 0.025824 
-0.023336 0.06331 0.044402 0.010697 -0.091075 0.014479 0.042265 0.015137 
0.017767 0.05772 0.025001 0.018589 -0.087951 -0.0087034 0.026152 0.016945 
-0.012485 0.047362 0.017274 0.00033937 -0.092719 -0.0095255 -0.0031133 0.021056 
-0.016924 0.039634 0.027796 0.035195 -0.10768 -0.011334 -0.0095255 0.014808 
-0.0011404 0.016288 0.036017 0.0046141 -0.10357 0.004943 0.0023123 0.066763 
0.0082312 0.06331 0.054103 0.007738 -0.079237 0.037661 0.038483 0.048513 
0.025001 0.055911 0.038319 0.0021479 -0.03764 0.084684 0.041936 -0.0057439 
0.027139 0.064461 0.017932 0.038319 -0.042737 0.091753 0.022371 0.019247 
0.057227 0.023028 0.010697 0.020398 -0.026296 0.094384 0.0034632 0.0067515 
0.095206 0.02533 0.052952 0.033222 -0.017417 0.054103 0.0075736 0.01152 
0.078107 0.054267 0.026152 0.073504 0.0051074 0.036839 0.016123 0.01415 
0.02533 0.041443 -0.001798 0.062488 -0.0091966 -0.0070593 0.040292 0.029605 
-0.0004827 0.054267 0.015465 0.044567 -0.018404 -0.0004827 0.031578 0.018096 
0.0036276 0.048184 0.023028 0.039963 -0.015444 -0.0044286 0.026974 0.024344 
0.012999 0.054267 0.034866 0.060515 -0.025145 0.042758 0.034537 0.033715 
-0.00097594 0.071366 0.007738 0.056404 -0.04323 0.093562 0.037168 0.082382 
0.023028 0.07038 0.015959 0.035031 -0.073318 0.14239 0.050157 0.086163 
0.02829 0.059364 0.014643 0.044731 -0.023007 0.23298 0.03947 0.090931 
0.0031344 0.04506 0.033551 0.072681 -0.0042642 0.22115 0.040456 0.069229 
0.04506 0.063968 0.0059294 0.034702 -0.014293 0.042758 0.041278 0.015959 
0.091918 0.058871 0.0039565 0.0021479 -0.06707 -0.1501 -0.00015387 -0.020377 
0.12842 0.044238 0.04506 -0.016595 -0.065426 -0.13908 -0.00081153 -0.03353 
0.1225 0.020562 0.082875 0.0054362 -0.08121 -0.017911 -0.01528 0.028619 
0.12118 -0.0090322 0.067256 0.0041209 -0.069208 0.072846 -0.0021268 0.047362 
0.10573 -0.0049219 0.064296 0.0044497 -0.079895 0.10113 0.015794 0.05213 
0.14058 -0.0077169 0.044731 0.018918 -0.076935 0.10162 0.012177 0.039799 
0.0689 0.034209 0.028619 0.027796 -0.08384 0.089616 0.042923 0.057884 
0.015794 0.039963 0.055418 0.034866 -0.10357 -0.023007 0.031578 0.005765 
-0.0047575 0.044402 0.013164 0.042265 -0.11886 -0.10702 0.024673 0.020562 
0.00066819 0.032893 0.020727 0.050979 -0.10719 -0.071016 0.038155 0.018096 
0.0023123 0.043909 0.020891 0.031742 -0.076442 -0.025802 0.038812 0.02681 
-0.0088678 0.093726 0.073175 0.036346 -0.051451 -0.018568 0.023686 0.0016547 
0.0044497 0.085506 0.048348 0.028125 -0.037476 -0.023829 0.026317 0.020727 
0.023357 0.055747 0.015794 0.047855 -0.05178 0.027796 0.016288 -0.0062372 
0.025824 0.036017 0.017274 0.016288 -0.042408 0.084519 0.015959 0.021878 
0.031249 0.021713 0.030427 0.021384 -0.020541 0.11757 0.020398 0.035853 
-0.0067304 0.054925 0.057062 0.04095 0.0227 0.11033 0.0421 0.033222 
0.0021479 0.078436 0.034866 0.066598 0.0087245 0.08978 0.048348 0.047526 
0.01826 0.049499 0.0092177 0.041278 -0.015116 0.044731 0.020891 0.032893 
0.053609 0.043251 0.036182 0.031085 -0.049807 0.010204 0.025659 0.029934 
0.076627 0.020398 0.057227 0.050157 -0.059507 -0.030899 0.046046 -0.0098543 
0.076299 0.026317 0.070708 0.02122 -0.090581 -0.020377 0.022371 0.033387 
0.058706 0.052294 0.021713 0.019083 -0.0771 0.01974 0.038812 0.048513 
0.045882 0.039799 0.033551 0.035853 -0.062467 0.043745 0.01711 0.051636 
0.044731 0.012999 0.038977 0.021878 -0.089595 0.039634 0.016288 0.058377 
0.05772 0.010697 0.06183 -0.021034 -0.12692 1.0539e-005 0.0041209 0.031414 
0.060022 0.0324 0.029769 0.0064227 -0.10702 -0.03205 0.077121 -0.0059084 
0.023028 0.05624 0.035031 0.011684 -0.067728 -0.03057 0.034209 0.020398 
-0.0036066 0.07038 0.0074092 0.069722 -0.067235 -0.02087 0.037332 0.014808 
0.0074092 0.067585 0.051472 0.0024767 -0.090253 -0.040928 0.035853 0.037497 
0.0088889 0.04654 0.060186 -0.0078813 -0.098802 -0.035832 0.017603 0.013164 
-0.024323 0.023686 0.0034632 0.023193 -0.056877 -0.050958 0.030263 0.0098754 
-0.0096899 0.086328 -0.0059084 0.041114 -0.052766 -0.001798 0.023851 0.018754 
-0.0019624 0.054925 0.0019835 0.052787 -0.027282 0.0047785 0.023193 0.0085601 
0.020398 0.051636 0.034044 0.056569 -0.019884 -0.010841 0.0082312 0.0092177 
0.034537 0.035031 -0.00015387 0.078436 -0.0060728 -0.021692 0.0036276 -0.017746 
0.03388 0.028783 0.0079024 0.066105 -0.0080457 -0.034352 0.013492 -0.0036066 
0.009711 0.063145 -0.01232 0.066105 0.015301 0.01711 0.015794 0.013657 
-0.0052507 0.062817 0.00297 0.072024 0.034537 0.041936 0.027303 0.051308 
-0.02646 0.059364 0.013492 0.098494 0.017767 0.058542 0.043416 0.057391 
-0.012978 0.056076 -0.017417 0.027632 -0.023007 0.03799 0.047197 0.073668 
-0.010183 0.036346 0.011191 -0.0016336 -0.070194 0.06594 0.042594 0.073175 
0.02122 0.050979 0.013657 -0.020541 -0.094034 0.11066 0.03388 0.11411 
0.039799 0.05213 0.054925 -0.01528 -0.14977 0.10277 0.028125 0.07301 
0.041936 0.036839 0.030263 -0.028762 -0.16046 0.062323 0.022042 0.028619 
0.040785 0.054925 0.010862 -0.041422 -0.16358 0.012013 0.029605 0.015959 
0.026481 0.056898 0.014808 0.00017495 -0.10094 -0.024816 0.038648 -0.01528 
0.022535 0.044731 0.040292 0.029769 -0.052602 -0.039284 0.03651 -0.011334 
0.019905 0.072353 0.037004 0.029769 -0.030077 -0.036983 0.018096 -0.00081153 
0.032071 0.063474 0.011848 0.055747 -0.0088678 -0.04323 0.0065871 0.02829 
0.049335 0.068242 -0.0021268 0.10326 0.0082312 0.0032988 0.0024767 0.007738 
0.028125 0.09981 0.019411 0.090767 0.0016547 0.0421 -0.0042642 0.043909 
0.045389 0.064625 0.042429 0.069064 -0.0027845 0.063639 0.016123 0.024837 
0.041114 0.067749 0.029769 0.052952 -0.0036066 0.058871 0.040292 0.040785 
0.041772 0.014808 0.038155 0.054267 -0.035832 0.037332 0.031414 0.027303 
0.025166 -0.011663 0.048348 0.034537 -0.03764 0.049664 0.032564 0.06331 
0.031249 -0.012978 0.057062 0.017767 -0.049642 0.063639 0.03092 0.050486 
0.005765 0.0088889 0.057884 -0.013143 -0.064768 0.085012 0.041278 0.040621 
0.018754 0.053116 0.01711 0.012177 -0.080223 0.042758 0.025166 0.024344 
-0.0016336 0.061995 0.01826 0.015137 -0.074469 0.024837 0.032071 0.026317 
0.013328 0.062159 -0.0013048 0.029112 -0.057534 0.040128 0.044073 0.040456 
0.012835 0.057391 0.036675 0.04358 -0.042244 0.039963 0.042923 0.029934 
0.03947 0.055582 0.0026412 0.033222 -0.051122 0.026974 0.036675 0.053774 
0.052459 0.044402 0.0092177 0.00066819 -0.08269 0.0092177 0.01711 0.023357 
0.038812 0.076463 0.010697 -0.0050863 -0.0965 -0.0059084 0.012177 0.025166 
0.027468 0.048019 0.033387 0.018425 -0.092061 0.013657 0.020891 0.024015 
0.041607 0.061008 0.017438 0.028125 -0.063124 0.014315 0.065612 0.059035 
0.032729 0.029934 0.012835 0.019905 -0.064111 0.046211 0.028783 0.026481 
0.0021479 0.073339 0.0095465 0.0090533 -0.033201 0.042429 0.026152 0.036017 
0.029605 0.06183 0.038977 0.023522 -0.049807 0.01711 0.069722 0.032729 
0.022864 0.043251 0.084519 0.0031344 -0.053917 0.040621 0.028783 0.049006 
0.027632 0.031742 0.058706 0.0036276 -0.06444 0.041278 0.03651 0.021713 
0.0021479 0.00099702 0.055911 0.018425 -0.042901 0.024344 0.028947 0.028619 
-0.011005 -0.02498 0.068407 0.045389 -0.052273 0.025988 0.057555 0.036017 
0.0046141 0.028619 0.083204 0.023193 -0.045861 0.017274 0.025824 0.018589 
0.016781 0.02829 0.071531 0.035031 -0.051122 0.012342 0.025001 0.022206 
0.030592 0.026152 0.049006 0.05213 -0.057863 0.0014903 0.024015 0.0023123 
0.049335 0.036839 0.045718 0.056569 -0.060987 -0.014951 -0.0080457 0.0090533 
0.11888 0.037004 0.039963 0.043745 -0.048985 -0.021528 0.013986 -0.016924 
0.22296 0.063968 0.054596 0.054925 -0.027775 -0.041915 0.042429 0.010533 
0.20454 0.058871 0.016616 0.087479 -0.014951 0.035853 0.06331 0.030098 
0.090438 0.044731 0.014315 0.059857 -0.029091 0.045553 0.056076 0.072024 
0.012177 0.00099702 0.0689 0.0083956 -0.069701 0.076463 0.041772 0.056404 
-0.017417 0.016945 0.085999 -0.016102 -0.080223 0.072846 0.026152 0.073997 
0.013164 0.032729 0.11263 -0.010512 -0.12511 0.08567 0.010533 0.061666 
0.0069159 0.038977 0.1003 -0.03353 -0.1307 0.11461 0.019411 0.052952 
0.012999 0.051143 0.088465 -0.018404 -0.12609 0.097015 0.041936 0.043251 
0.026974 0.03536 0.087479 0.022206 -0.0965 -0.00097594 0.036839 0.011848 
0.024837 0.029934 0.095206 0.01563 -0.10127 -0.086964 0.024344 -0.012649 
0.031578 0.021384 0.062652 -0.014129 -0.096665 -0.0771 0.025824 -0.025474 
0.036839 0.04095 0.072681 0.0088889 -0.074962 -0.049478 0.019083 -0.013143 
0.042758 0.027796 0.098988 0.057884 -0.044381 -0.023172 0.034044 -0.017253 
-0.0072237 0.023193 0.10359 0.06183 -0.021856 -0.0059084 0.036017 0.017274 
-0.10357 0.024508 0.047033 0.042429 -0.0091966 0.019247 0.065776 0.015959 
-0.26157 0.065283 0.0042853 0.058049 0.02533 0.061501 0.051965 0.049335 
-0.26765 0.10885 -0.015116 0.06594 -0.0022913 0.066927 0.050157 0.0324 
-0.090581 0.092411 0.01267 0.043909 -0.026624 0.068242 0.027303 0.06035 
0.13532 0.061337 0.040621 0.034702 -0.039449 0.06331 0.014808 0.032893 
0.24121 0.0026412 0.018589 0.020891 -0.047505 0.032071 0.018096 0.047526 
0.24647 -0.029913 0.0032988 0.034866 -0.065591 0.035688 0.023028 0.040128 
0.18761 0.014479 -0.022843 0.01826 -0.060823 -0.0022913 0.028619 0.022535 
0.14009 0.038977 -0.017582 0.033058 -0.06444 -0.011992 0.029441 0.01711 
0.096028 0.059857 -0.017911 0.055911 -0.06148 -0.018075 0.016123 0.021878 
0.071202 0.064132 -0.040764 0.025824 -0.078579 -0.0096899 0.019411 0.026481 
0.049006 0.057062 -0.015938 0.013328 -0.090746 0.014972 0.0095465 0.015301 
0.017274 0.082053 0.0088889 -0.0078813 -0.10604 0.0037921 0.013164 0.02681 
-0.0062372 0.11132 -0.0016336 0.016616 -0.095514 0.004943 0.021878 0.045553 
-0.046025 0.13351 0.0011614 0.016288 -0.085813 0.016945 0.031742 0.035853 
-0.017582 0.1008 0.0083956 -0.013965 -0.082032 0.024673 0.012342 0.037497 
-0.021363 0.067749 0.0070803 0.022042 -0.026953 0.028454 0.02681 0.068407 
-0.041257 0.062323 0.023686 0.054596 -0.03501 -0.0039354 0.037332 0.02533 
-0.072003 0.084026 0.036675 0.057391 -0.010512 0.012835 0.031249 0.023686 
-0.043066 0.04917 0.016616 0.042758 -0.018404 0.025659 0.050486 0.00050378 
-0.0088678 0.024837 0.030592 0.0019835 -0.025638 0.042594 0.053774 0.020562 
0.033715 0.018754 0.017274 0.030592 -0.068221 0.040128 0.035853 0.027468 
0.050157 0.050979 -0.0064016 0.053938 -0.044381 0.058542 0.041936 0.06594 
0.035195 0.091589 -0.052766 0.06183 -0.012978 0.056076 0.034209 0.034702 
-0.018239 0.064461 -0.03616 0.072846 0.011684 0.072681 0.010862 0.042594 
-0.060987 0.056733 -0.021692 0.043087 0.0019835 0.081395 0.015794 0.042923 
-0.049314 0.03651 0.024673 0.036017 -0.0091966 0.048841 0.032071 0.027303 
-0.0019624 0.028125 0.039799 0.029934 -0.052437 -0.003771 0.039305 0.04506 
0.035195 0.035853 0.010204 0.068571 -0.076113 -0.014787 0.019411 0.047033 
0.1031 0.061337 -0.004593 0.042594 -0.085156 -0.0052507 0.018918 0.053116 
0.2685 0.051143 0.00050378 0.00050378 -0.12067 -0.0077169 0.026152 0.027468 
0.32144 0.026974 0.034702 -0.023007 -0.12675 -0.083676 -0.023501 -0.022514 
0.21309 0.0018191 0.0062583 -0.011827 -0.13119 -0.093048 -0.019061 -0.053917 
0.040292 0.033387 -0.0019624 0.017767 -0.094527 -0.0014692 0.013164 -0.00031829 
-0.068221 0.067256 -0.0026201 0.025495 -0.076113 0.095371 0.039963 0.043416 
-0.060658 0.071037 0.018589 0.036346 -0.040435 0.17018 0.047362 0.08715 
-0.04323 0.056898 -0.0068948 0.063968 -0.038791 0.14437 0.028783 0.099316 
-0.0075525 0.049664 -0.014458 0.04917 -0.028926 0.078929 0.022206 0.053609 
0.036675 0.032893 0.034044 0.046211 -0.0057439 -0.018568 0.005765 0.013986 
0.064461 0.038812 0.09981 0.052787 0.013986 -0.015444 0.019905 1.0539e-005 
0.056404 0.014808 0.17955 0.028783 -0.0004827 -0.028433 0.032236 0.0085601 
0.034209 0.017932 0.1294 0.019411 -0.015444 0.01415 0.034866 0.029605 
0.024837 0.05213 0.083533 0.054267 0.0059294 0.050321 0.020727 0.052787 
0.038483 0.054925 0.057227 0.07038 -0.023829 0.045389 0.026152 0.024508 
0.045553 0.065283 0.046868 0.048348 -0.032215 0.034373 0.011684 0.032236 
0.046211 0.033551 0.031907 0.037826 -0.059178 -0.015116 0.0011614 0.0095465 
0.069558 0.015137 0.0037921 0.013164 -0.07003 -0.028433 0.015465 0.035688 
0.10951 0.0054362 -0.0082102 0.0088889 -0.11228 -0.03205 0.029934 0.025824 
0.11346 1.0539e-005 0.019905 -0.015609 -0.13086 0.012342 0.04917 0.045389 
0.078272 0.010369 0.061666 -0.0029489 -0.12659 0.027796 0.051636 0.026974 
0.056898 0.013328 0.029605 0.011355 -0.085485 0.018096 0.023686 0.038483 
0.043087 0.010697 0.041443 0.0026412 -0.0771 0.026152 0.012342 0.03388 
0.025824 -0.00097594 0.073504 0.0042853 -0.05737 0.047033 0.01152 0.037332 
0.028783 0.014315 0.062981 -0.0004827 -0.061645 0.055747 0.031907 0.027632 
0.01415 0.01563 0.0786 0.04917 -0.060165 0.059528 0.038319 0.044402 
0.018918 0.074983 0.075805 0.03799 -0.061645 0.040456 0.031907 0.035031 
0.030756 0.030263 0.091096 0.0042853 -0.07266 0.00017495 0.01563 0.026152 
0.045718 0.032564 0.085177 0.0080668 -0.044546 -0.012649 0.013986 0.02681 
0.0021479 0.072517 0.080244 0.050814 -0.064111 -0.0027845 0.012177 -0.009361 
0.01826 0.073832 0.020069 0.027303 -0.070687 -0.017417 0.030592 0.013328 
0.027303 0.07449 0.039141 0.027961 -0.056548 0.0060938 0.027139 0.022535 
0.028947 0.052294 0.071037 0.044402 -0.012649 0.014643 0.037004 0.044073 
0.031414 0.017274 0.10244 0.079916 -0.0091966 0.022535 0.019083 0.026152 
0.027961 0.012506 0.090603 0.030263 -0.012485 0.048513 0.018589 0.031578 
0.015465 0.0054362 0.060679 0.025659 -0.010348 0.064625 0.016616 0.023193 
0.016945 0.034373 0.05213 0.021056 -0.047505 0.082053 0.029276 0.042758 
0.014479 0.022535 0.053938 1.0539e-005 -0.098473 0.082711 0.040128 0.039963 
0.010369 0.031085 0.083533 0.042594 -0.076113 0.064296 0.047855 0.037661 
0.012835 0.022206 0.021878 0.020562 -0.095678 0.063474 0.033551 0.03799 
0.0044497 0.040292 -0.0021268 0.04654 -0.11376 0.026481 0.013657 0.034209 
-0.0029489 0.070708 -0.022679 0.022206 -0.10406 0.016945 0.024015 0.033715 
-0.0083746 0.074326 -0.031557 0.028454 -0.092226 -0.022679 0.018918 -0.0039354 
-0.0082102 0.071202 -0.022843 0.050157 -0.039449 -0.035503 0.023851 0.015465 
-0.0064016 0.056733 -0.044052 0.064132 -0.036489 -0.051287 0.025988 -0.0022913 
0.00083261 0.058213 -0.027775 0.032893 -0.034845 -0.053917 0.040292 0.0088889 
0.02122 0.075641 -0.0042642 0.024179 -0.035996 -0.044381 0.027468 0.0090533 
0.012177 0.072353 0.016288 0.030263 -0.019719 0.01267 0.038483 0.050814 
0.018425 0.062159 -0.0021268 0.029605 -0.040106 0.056569 0.027468 0.043087 
0.026152 0.06742 0.055418 0.0047785 -0.040928 0.077285 0.015465 0.065776 
0.032893 0.062817 0.056076 -0.0052507 -0.057863 0.028619 0.026974 0.023028 
0.028125 0.066598 0.055582 0.02829 -0.050958 -0.014458 0.035031 0.041443 
0.010862 0.098001 0.055089 0.037168 -0.055232 -0.0068948 0.032236 0.0044497 
-0.0091966 0.081067 0.010369 0.033551 -0.062467 0.051308 0.027961 0.012506 
0.034702 0.04654 0.031085 0.020727 -0.065097 0.066927 0.023522 0.025166 
0.045718 0.03799 0.056569 0.041607 -0.076935 0.037004 0.024015 0.035031 
0.0079024 0.018425 0.051308 0.030756 -0.057534 0.064461 0.029276 0.042923 
-0.0098543 0.043416 0.013164 0.023193 -0.056219 0.08419 0.054103 0.033222 
0.010862 0.038812 0.0054362 0.030592 -0.043888 0.064954 0.055747 0.044567 
0.022371 0.035031 0.020069 0.050979 -0.050958 0.064625 0.039634 0.028125 
0.058871 0.020069 0.035688 0.023522 -0.047176 0.078929 0.019576 0.058871 
0.066434 0.010204 0.047691 0.022864 -0.055232 0.13795 0.011684 0.066927 
0.067749 0.049335 0.035195 0.03651 -0.062631 0.15094 0.0037921 0.076792 
0.062488 0.051636 0.034702 0.013328 -0.087293 0.027632 1.0539e-005 0.024015 
0.061501 0.02533 0.024179 0.007738 -0.076442 -0.077757 0.020069 0.019411 
0.024179 0.049335 0.035195 0.020727 -0.057863 -0.11426 0.027303 -0.017253 
-0.0019624 0.056733 0.0046141 0.066434 -0.034352 -0.084991 0.025824 0.011848 
-0.0087034 0.077449 -0.0040998 0.035524 -0.04471 -0.020212 0.016288 0.048348 
-0.011498 0.082546 -0.00015387 0.03651 -0.041093 0.0093821 0.017438 0.034866 
-0.032872 0.089123 0.0018191 0.022535 -0.031721 -0.034681 0.01974 0.042594 
-0.051944 0.045882 0.060679 0.038648 -0.068386 -0.058685 0.023028 0.013492 
-0.026789 0.017603 0.036839 0.016123 -0.047505 -0.049807 0.046704 0.037168 
-0.013636 0.048841 0.024508 0.045718 -0.034188 0.0054362 0.053938 0.028125 
0.025988 0.061337 0.017767 0.039141 -0.043395 0.0023123 0.047691 0.046046 
0.082382 0.031085 0.050486 0.04917 -0.085813 0.00017495 0.026974 0.033551 
0.10704 0.017932 0.0421 0.0095465 -0.080223 0.071037 0.0056006 0.040456 
0.10359 0.022864 0.043909 0.0065871 -0.066248 0.11707 -0.011005 0.019905 
0.098988 0.023522 0.026152 0.035195 -0.034845 0.10819 0.03799 0.042923 
0.07038 0.061337 0.03388 0.016616 -0.059507 0.072024 0.027961 0.019905 
0.069722 0.05476 0.063474 -0.0034422 -0.084005 0.017932 0.026646 0.012342 
0.044567 0.030263 0.037826 0.024673 -0.073318 0.031578 0.020727 -0.0029489 
0.0098754 0.034373 0.01415 0.051143 -0.05326 0.075476 0.019411 0.034866 
-0.0024557 0.027139 -0.0021268 0.048019 -0.03912 0.062981 0.024344 0.046046 
-0.004593 0.047033 0.028783 0.046375 -0.034681 0.031414 0.023686 0.038319 
-0.0067304 0.046046 0.024508 0.054925 0.0092177 0.0095465 0.06183 0.0421 
0.012835 0.040128 0.021878 0.048019 -0.02087 0.015465 0.051472 0.037004 
0.010204 0.031085 0.01974 0.01563 -0.032379 0.0421 0.037004 0.027303 
0.025001 0.037332 0.038319 0.017767 -0.045368 0.042594 0.0056006 -0.0024557 
0.029112 0.059364 0.063803 0.021713 -0.05589 0.051143 0.0090533 0.025495 
0.037497 0.080902 0.0047785 0.041772 -0.062467 0.046375 0.033715 0.019905 
0.03947 0.085506 0.0042853 0.021549 -0.066906 0.059693 0.029605 0.026646 
0.046211 0.086821 0.028125 -0.0040998 -0.092554 0.047362 0.031085 0.029276 
0.076463 0.061337 0.05065 0.03092 -0.09946 -0.01232 0.034373 0.02533 
0.10836 0.049828 0.04095 0.0088889 -0.11623 -0.055068 0.028125 0.018096 
0.13861 0.061666 0.018589 0.037332 -0.069372 -0.04471 0.010533 0.041278 
0.11806 0.045389 0.032893 0.046375 -0.037805 -0.018239 -0.0042642 0.038648 
0.045224 0.018589 0.041114 0.074819 -0.028104 -0.045532 0.0088889 0.034044 
-0.017253 0.034044 0.061008 0.047197 -0.039778 -0.097322 0.025166 0.031578 
-0.053095 0.024508 0.02681 0.028125 -0.059507 -0.13037 0.042265 0.0092177 
-0.035503 0.061501 0.013986 0.011355 -0.040106 -0.071345 0.037661 -0.0040998 
-0.010841 0.042758 0.00297 0.020562 -0.074304 0.012177 0.025166 0.0065871 
-0.0138 0.024673 0.032893 0.0026412 -0.072332 0.0324 0.014315 0.009711 
-0.022514 0.020398 0.040292 0.0083956 -0.054082 0.089616 0.016945 0.016945 
-0.020706 0.03799 0.0095465 0.020891 -0.019555 0.15851 0.031742 0.055582 
0.034702 0.071859 0.037497 0.024344 -0.045039 0.16788 0.043416 0.065612 
-0.0060728 0.05772 0.025495 0.022042 -0.036325 0.11674 0.06594 0.036346 
-0.066084 0.040292 0.048677 0.02829 -0.053095 -0.0027845 0.048184 0.0080668 
-0.05589 0.050321 0.018425 0.052459 -0.068221 -0.0013048 0.023851 0.043745 
0.099645 0.050321 0.012835 0.051472 -0.060823 -0.0064016 0.022535 0.037332 
0.2001 0.033222 0.024344 0.048348 -0.061645 0.039963 0.014479 0.049828 
0.2343 0.0021479 0.066763 0.011848 -0.094527 0.038977 0.010533 0.031249 
0.17215 -0.0049219 0.063968 0.043909 -0.092719 0.030592 0.038155 0.016288 
0.086985 0.044731 0.014808 0.054267 -0.069208 -0.014787 0.045718 0.016945 
0.044073 0.075805 -0.020212 0.074654 -0.023336 -0.028269 0.039963 0.020069 
0.0042853 0.080409 0.020727 0.052623 0.034537 0.031742 0.028619 0.0421 
-0.006566 0.056898 0.063145 0.076792 0.043909 0.086657 0.03799 0.074326 
-0.0011404 0.011848 0.044567 0.0080668 0.01974 0.090274 0.028619 0.083697 
-0.012814 -0.0016336 0.034702 0.025166 -0.0016336 0.040785 0.044238 0.061995 
-0.013965 -0.0064016 0.059693 0.059857 -0.0044286 0.05772 0.061995 0.063803 
-0.0031133 0.022042 0.046704 0.014479 -0.089266 0.041936 0.040456 0.039634 
0.0069159 0.049992 0.10376 -0.059014 -0.17065 -0.008539 -0.00031829 0.02533 
0.034537 0.026317 0.096357 -0.10752 -0.24957 -0.079895 -0.024487 -0.032379 
0.041936 0.023522 0.08419 -0.081374 -0.28229 -0.12774 -0.011005 -0.054082 
0.012342 0.040456 0.059528 -0.035503 -0.23954 -0.086471 1.0539e-005 -0.01939 
-0.0027845 0.083697 0.035195 0.037826 -0.11853 -0.010841 0.056076 0.018754 
0.011191 0.09981 0.010369 0.071531 -0.0057439 0.03388 0.06742 0.030427 
0.02533 0.10113 -0.0067304 0.11855 0.054432 0.069229 0.044896 0.047855 
0.032236 0.078436 0.0052718 0.087314 0.06479 0.058542 0.037004 0.051801 
0.061172 0.044567 0.026317 0.060186 0.042429 0.093069 0.0227 0.04654 
0.085999 0.011848 0.057062 0.049006 0.044238 0.067913 0.018589 0.047197 
0.047691 0.015301 0.0324 0.076792 0.0028056 0.06035 0.012999 0.023193 
0.037661 0.043251 0.027632 0.038812 -0.031392 0.048841 0.041278 0.038977 
0.023686 0.029605 0.031085 0.031742 -0.050136 0.030263 0.042923 0.03092 
-0.0075525 0.023193 0.059364 0.0421 -0.051451 0.044073 0.040621 0.039963 
0.015137 0.031578 0.039799 0.020069 -0.073154 0.035031 0.036675 0.026646 
0.047197 0.031414 0.043745 -0.00031829 -0.078744 0.038648 0.0067515 0.037826 
0.037826 0.055254 0.036675 -0.008539 -0.083183 0.049664 0.017603 0.02829 
0.041443 0.031249 0.04917 0.022042 -0.081374 0.058213 0.020398 0.04358 
0.046375 0.030098 0.062488 0.004943 -0.089759 0.055254 0.028125 0.033551 
0.056569 0.026974 0.025824 0.0019835 -0.094363 0.061666 0.017932 0.03947 
0.041278 0.034537 0.030263 0.0037921 -0.079237 0.054596 0.01974 0.030427 
0.043251 0.049992 0.031742 0.020727 -0.10258 0.013492 0.015959 0.026974 
0.049006 0.041607 0.064296 -0.00015387 -0.097158 -0.0026201 0.0324 0.023686 
0.055582 0.047362 0.063145 0.0046141 -0.082196 -0.012485 0.018425 0.019576 
0.066269 0.059035 0.040621 -0.018075 -0.063946 -0.013636 0.066434 0.016781 
0.071366 0.05213 0.016288 0.054267 -0.049807 -0.011005 0.05213 0.027632 
0.071202 0.047033 0.0056006 0.046046 -0.051287 -0.0011404 0.032236 0.016616 
0.071366 0.063968 0.047526 0.036182 -0.051615 0.031907 0.013986 0.020069 
0.048019 0.057062 0.022864 0.037004 -0.048163 0.022206 0.019905 0.028783 
-0.0032777 0.075312 0.038977 0.026974 -0.083512 -0.011334 0.016123 0.012835 
-0.082854 0.060679 0.0067515 -0.0060728 -0.088608 0.029276 0.018425 0.03651 
-0.091897 0.085177 0.0079024 0.038812 -0.046354 0.038155 0.045389 0.030098 
-0.028433 0.071859 -0.00015387 0.073997 -0.017253 0.071366 0.03092 0.049499 
0.034209 0.055254 -0.027447 0.058706 -0.0050863 0.066927 0.01267 0.0421 
0.044567 0.044073 -0.019719 0.030592 -0.018075 0.029112 0.0039565 0.023028 
0.063803 0.038977 0.039963 0.012013 -0.015609 0.005765 -0.0031133 0.0046141 
0.055911 0.0592 0.064132 0.03947 -0.04471 0.0070803 0.020398 0.013328 
0.032071 0.073832 0.031414 0.0324 -0.03912 0.035853 0.046704 0.033551 
0.027303 0.048348 0.020398 0.018425 -0.048327 0.066763 0.065612 0.067749 
0.051636 0.034866 0.023522 0.030592 -0.047998 0.047362 0.035853 0.038155 
0.059693 0.024673 0.038812 0.005765 -0.099624 0.00083261 0.016945 0.017767 
0.038648 0.031414 0.041772 0.0095465 -0.10045 -0.0077169 0.0083956 0.0026412 
0.007738 0.057555 0.022206 0.034866 -0.073647 -0.019061 0.020727 -0.0047575 
0.020562 0.041114 0.010204 0.072188 -0.039778 -0.018075 0.023522 0.030263 
0.0011614 0.039141 0.017932 0.071859 -0.021199 -0.00031829 0.039963 0.035031 
0.0062583 0.037332 0.034373 0.062323 -0.018239 0.0072447 0.053774 0.048348 
0.0065871 0.032729 -0.018404 0.042594 -0.018404 0.037168 0.049992 0.037168 
0.0072447 0.074819 -0.017911 0.052787 -0.043066 0.027796 0.03388 0.0421 
0.01826 0.06742 -0.013965 0.025495 -0.046847 0.024673 0.0098754 0.032564 
0.025988 0.077614 1.0539e-005 0.016945 -0.058192 0.030427 0.013328 0.048841 
0.030592 0.056076 0.024179 0.019411 -0.048985 0.020727 0.0227 0.030592 
0.032236 0.047526 0.029276 0.0592 -0.061316 0.017274 0.052787 0.029769 
0.03092 0.047197 0.038648 0.047526 -0.042901 -0.014293 0.034044 0.024508 
0.029769 0.040456 0.046046 0.033222 -0.038956 -0.022514 0.028619 -0.00064712 
0.026152 0.03092 0.069229 0.036346 -0.038791 -0.0032777 0.034044 0.029769 
0.032564 0.010204 0.045882 0.024508 -0.055726 0.037332 0.020562 0.027139 
0.020562 0.016616 0.035853 0.00033937 -0.06855 0.043087 0.01826 0.037826 
0.024673 0.031907 0.039799 -0.003771 -0.077428 0.025166 0.018589 0.017603 
0.025824 0.057391 0.037826 0.012342 -0.068386 0.01267 0.048841 0.031414 
0.033222 0.039799 0.041772 0.047033 -0.044874 0.047197 0.048677 0.035031 
0.03799 0.046704 -0.0064016 0.040128 -0.031392 0.10096 0.034866 0.062488 
0.029934 0.021056 0.012506 0.029112 -0.025309 0.096193 0.033387 0.056404 
0.014808 0.022864 0.024344 0.051965 -0.062138 0.051636 0.028619 0.048019 
0.0036276 0.048677 0.048677 0.0082312 -0.10653 -0.003771 0.041607 0.017274 
0.020562 0.047526 0.031249 -0.017417 -0.12889 -0.020212 0.039799 -0.0013048 
0.044073 0.031907 0.03536 -0.00015387 -0.090417 -0.035338 0.034537 -0.0070593 
0.076792 0.011848 0.047033 0.034702 -0.074304 -0.029584 0.0087245 -0.004593 
0.028454 0.034209 0.047033 0.029769 -0.064275 0.0064227 0.019411 0.017767 
0.020727 0.057884 0.066927 0.0592 -0.02794 0.0060938 0.015137 0.036017 
0.0088889 0.051636 0.057391 0.10852 0.0093821 0.018918 0.024179 0.048184 
0.023357 0.05624 0.058213 0.024015 -0.049807 0.031907 0.018425 0.028783 
0.030592 0.025001 0.053774 0.00297 -0.063782 0.01711 0.034373 0.041772 
0.027139 0.044567 0.087314 -0.019226 -0.086636 0.022206 0.038812 0.0227 
0.018589 0.070873 0.074326 0.035524 -0.062796 0.01974 0.040785 0.027796 
0.024344 0.062323 0.050979 0.026646 -0.057534 0.045224 0.028619 0.027632 
0.049499 0.041443 0.044073 0.041607 -0.045039 0.036675 0.027961 0.041443 
0.080738 0.009711 0.040128 0.040785 -0.015773 0.019247 0.01152 0.02681 
0.096193 0.013492 0.0592 0.068078 -0.018075 0.013657 0.011355 0.029112 
0.064132 0.019083 0.027632 0.04654 -0.012814 -0.01939 0.040785 0.0036276 
0.028619 0.045718 0.023357 0.051472 -0.028762 0.0088889 0.038155 0.037661 
0.0080668 0.036017 0.031907 0.057227 -0.047341 0.01004 0.047197 0.047362 
-0.0027845 0.026317 0.07038 0.034373 -0.075949 0.010369 0.030427 0.05065 
-0.001798 0.01415 0.053609 0.013328 -0.070852 0.011684 0.036182 0.045882 
0.0090533 0.019247 0.011026 0.0092177 -0.062467 0.057884 0.026481 0.021713 
0.020727 0.064461 0.00033937 0.01563 -0.11048 0.06479 0.029934 0.030592 
-0.012156 0.055418 0.035524 -0.028597 -0.17772 0.09422 0.036675 0.0592 
-0.053588 0.052623 0.077121 -0.052273 -0.17542 0.092247 0.03651 0.073339 
-0.028926 0.045389 0.059035 -0.026953 -0.10867 0.06594 0.016123 0.025988 
-0.0024557 0.034866 0.062817 0.028783 -0.062138 0.0014903 0.013492 0.026317 
0.032564 0.055418 0.053609 0.00099702 -0.06707 -0.054739 -0.00031829 -0.016924 
0.030592 0.054925 0.062488 0.0056006 -0.072003 -0.065426 0.0083956 -0.0054151 
0.12842 0.055418 0.046868 0.033715 -0.051122 -0.065097 0.005765 -0.015773 
0.27212 0.073668 -0.0067304 0.057884 -0.063946 -0.05178 0.0087245 0.01267 
0.24795 0.074326 0.0051074 0.050157 -0.035996 0.017603 0.012177 0.027468 
0.10935 0.052952 0.01267 0.023357 -0.03353 0.049499 0.02829 0.041772 
-0.0406 0.042594 0.038812 0.040785 -0.0075525 0.048841 0.045224 0.048841 
-0.087622 0.026317 -0.004593 0.048348 -0.0073881 0.049992 0.038483 0.037826 
-0.072496 0.0227 0.0054362 0.034866 -0.009361 0.04506 0.039305 0.030756 
-0.040928 0.034373 0.0052718 0.030756 -0.025802 0.033715 0.061172 0.019247 
-0.039449 0.02829 0.018096 0.059857 -0.035996 0.01826 0.043251 0.031249 
-0.020541 0.072188 0.017274 0.041936 -0.060823 0.024344 0.01711 0.035688 
0.044238 0.051308 -0.015773 0.04654 -0.062138 0.038812 0.013986 0.041114 
0.086492 0.023686 0.0044497 0.031578 -0.063124 0.053938 -0.0026201 0.01711 
0.1128 0.018425 0.013164 0.077121 -0.056383 0.071202 -0.01528 0.043416 
0.12151 -0.012156 0.014643 0.044731 -0.07562 0.05065 0.0079024 0.026152 
0.1026 0.051143 0.013328 -0.010348 -0.10489 0.01415 0.025495 0.035688 
0.091589 0.046046 -0.017911 -0.014458 -0.080552 -0.018897 0.032236 0.0064227 
0.095535 0.040292 0.022042 0.014808 -0.07266 0.015301 0.026152 0.030263 
0.067749 0.046868 0.050814 0.013492 -0.05178 0.057062 0.019247 0.033058 
0.035853 0.039305 0.086821 0.016123 -0.051615 0.037168 0.030263 0.033387 
0.01004 0.074161 0.086657 0.074983 -0.0090322 -0.010348 0.024015 0.010204 
0.0036276 0.043087 0.044402 0.067256 -0.029255 -0.041586 0.0324 -0.00015387 
-0.010019 0.036346 0.043087 0.052952 -0.02942 0.019247 0.048513 0.015137 
-0.016595 0.027139 0.050157 0.063639 -0.023829 0.047033 0.045553 0.037826 
-0.065591 0.023357 -0.0016336 0.047033 -0.036983 0.05476 0.041772 0.074819 
-0.092061 0.049828 -0.021363 -0.011992 -0.074633 0.057227 0.043251 0.049828 
-0.1575 0.044402 -0.010348 -0.018075 -0.080388 0.052623 0.026317 0.033387 
-0.17558 0.040292 1.0539e-005 -0.0026201 -0.061316 0.048184 0.013328 -0.0083746 
-0.065919 0.042265 0.010697 0.035688 -0.069536 0.012506 0.013492 0.0031344 
0.12908 0.038812 -0.028104 0.039305 -0.034188 -0.0044286 0.018096 0.01152 
0.23118 0.039305 -0.018404 0.070708 -0.023501 0.014972 0.022371 0.040621 
0.2103 0.042923 0.034537 0.065612 -0.012814 0.030098 0.030592 0.047526 
0.16146 0.0227 0.098494 0.088301 -0.02646 0.030263 0.031414 0.070215 
0.10178 0.029276 0.1008 0.029112 -0.056712 0.063145 0.028947 0.059693 
0.0324 0.0087245 0.10376 -0.030077 -0.10193 0.08156 0.012506 0.020398 
0.044073 0.024508 0.090438 -0.031557 -0.10784 0.057391 0.01152 0.0083956 
0.023193 0.065118 0.051965 0.024673 -0.08269 -0.0021268 0.010369 -0.011663 
-0.0027845 0.069064 0.023357 0.062652 -0.047176 -0.088115 0.023851 -0.047176 
-0.031886 0.073832 -0.030077 0.090767 -0.012978 -0.10883 0.013821 -0.028926 
-0.065426 0.071202 -0.025802 0.10935 -0.0096899 -0.04471 0.026646 0.0092177 
-0.032379 0.062981 -0.0087034 0.054432 -0.02794 0.016288 0.018096 0.035853 
-0.030406 0.070051 0.020069 0.019083 -0.054739 0.083533 0.034702 0.07038 
-0.023336 0.048841 0.021878 0.0067515 -0.056877 0.078929 0.054432 0.05772 
-0.00064712 0.016781 0.027632 0.028125 -0.081703 0.081889 0.058377 0.053609 
-0.012485 0.026481 0.026646 0.00033937 -0.081539 0.10063 0.035195 0.038977 
0.0023123 0.028947 0.046868 -0.0013048 -0.067728 0.066434 0.040785 0.046375 
-0.01528 0.045882 0.083204 -0.012814 -0.05737 -0.035174 0.0087245 0.018096 
-0.013307 0.059528 0.053281 -0.01117 -0.070852 -0.072332 0.012013 0.01415 
0.0032988 0.055582 0.028783 -0.017088 -0.065755 -0.047341 0.042265 0.029769 
0.025001 0.06331 0.043745 0.0042853 -0.059343 -0.013143 0.041936 0.033222 
0.03388 0.051143 0.071695 0.034537 -0.039778 0.037168 0.040621 0.035853 
0.049335 0.066105 0.05065 0.041443 -0.044874 0.087314 0.034209 0.03651 
0.068078 0.072846 0.028947 0.03388 -0.043395 0.11477 0.022535 0.0592 
0.071859 0.042758 0.03388 0.020562 -0.068879 0.063968 0.0021479 0.027796 
0.098988 0.034209 0.048513 0.046211 -0.076277 -0.0080457 -0.0072237 0.053609 
0.091753 0.013164 0.093891 0.0074092 -0.10143 -0.044052 0.016945 0.0031344 
0.062323 0.0034632 0.094713 -0.0080457 -0.10505 -0.016924 0.014808 0.015959 
0.059364 0.021384 0.063474 0.0065871 -0.068714 -0.0087034 0.0060938 0.012506 
0.062817 0.027139 0.043416 0.045718 -0.077593 -0.0068948 0.02122 0.016288 
0.039141 0.046046 0.023193 0.0011614 -0.086964 -0.018404 0.034866 0.013986 
0.047362 0.044731 0.0014903 0.022371 -0.06148 0.025001 0.037826 0.02681 
0.013492 0.065118 -0.030899 0.032564 -0.040764 0.034866 0.066763 0.03651 
0.0026412 0.064954 -0.02646 0.025824 -0.059343 0.067913 0.06035 0.058049 
-0.0031133 0.076956 0.0026412 0.024508 -0.049149 0.084519 0.044567 0.055418 
-0.0052507 0.068407 0.031907 0.01415 -0.053917 0.06035 0.028454 0.052623 
-0.022021 0.088794 0.011848 0.037332 -0.052602 0.04654 -0.001798 0.049335 
0.0074092 0.070708 0.030098 0.0079024 -0.098638 -0.0052507 0.020891 0.018754 
0.023686 0.06742 0.030756 0.023686 -0.075291 -0.022514 0.028619 0.019576 
0.054432 0.035195 0.038483 0.063145 -0.021363 0.004943 0.021878 -0.02235 
0.069886 0.023357 0.053774 0.0592 -0.02942 -0.0034422 0.019411 0.0014903 
0.073668 0.011355 0.049828 0.028454 -0.046847 0.016288 0.020562 -0.0059084 
0.094713 0.012177 0.047691 0.014972 -0.05441 0.028947 0.0088889 0.025001 
0.089123 0.045224 0.044567 0.043745 -0.016431 0.052294 0.017767 0.043087 
0.067585 0.060844 0.050486 0.059693 -0.043066 0.058213 0.024179 0.073175 
0.039305 0.046868 0.031742 0.039963 -0.056548 0.07301 0.050814 0.053774 
0.038648 0.069229 0.016288 0.031907 -0.06148 0.071695 0.03388 0.049664 
0.030592 0.072846 0.013328 0.043909 -0.047669 0.014972 0.025988 0.027303 
0.027961 0.053774 0.050979 0.0421 -0.066906 -0.057534 0.016781 0.033715 
0.0324 0.055089 0.069064 0.039799 -0.042244 -0.014787 0.022206 0.027961 
0.0018191 0.029605 0.036346 0.034866 -0.030242 0.072846 -0.008539 0.03536 
0.019247 0.027468 0.036346 0.050979 -0.027118 0.037497 0.011026 0.028125 
0.0056006 0.024508 0.049006 0.019905 -0.022843 -0.015116 0.037497 -0.0057439 
0.0034632 0.0032988 0.062159 0.022206 -0.0096899 0.048841 0.049499 0.042594 
-0.0067304 0.038648 0.044402 0.026317 0.0036276 0.16311 0.055418 0.032071 
0.0092177 0.03947 0.043251 0.048513 -0.040271 0.19501 0.046704 0.047691 
0.025495 0.028125 0.048348 0.024179 -0.080717 0.070544 0.015465 0.0095465 
0.098001 0.030756 0.04506 0.0051074 -0.10883 -0.041915 0.025001 0.0087245 
0.11247 0.02829 0.055582 0.022371 -0.075127 -0.032215 0.033715 0.0026412 
0.098166 0.044896 0.031742 0.061666 -0.059836 0.012835 0.053609 0.038155 
0.089452 0.048513 0.010204 0.063145 -0.027118 -0.024158 0.0324 0.038155 
0.046704 0.048348 0.0054362 0.071037 -0.010348 -0.069372 0.048184 0.041772 
-0.017911 0.054432 0.037826 0.071695 -0.014129 -0.066577 0.020233 0.033222 
-0.046847 0.06035 0.031578 0.05772 -0.03501 -0.052437 0.018425 0.029276 
-0.062631 0.059693 0.0093821 0.047691 -0.031721 0.02533 0.020069 0.033058 
-0.12346 0.048348 0.032893 0.0421 -0.032379 0.045553 0.01267 0.044567 
-0.11179 0.048019 0.036182 0.044896 -0.041422 0.063639 0.038483 0.053281 
-0.024158 0.028619 0.044073 0.039799 -0.070194 0.03651 0.027468 0.033551 
0.0072447 0.025988 0.018918 0.020233 -0.09798 0.0067515 0.015794 0.0227 
0.029605 0.026152 0.023522 -0.0070593 -0.084005 0.035853 0.035031 0.022864 
0.13056 0.063639 -0.0050863 0.0090533 -0.080881 0.071202 0.031414 0.03092 
0.24976 0.037661 0.053445 -0.022843 -0.084169 0.059364 0.01004 0.020562 
0.24104 0.010533 0.039799 -0.0032777 -0.060165 0.042429 0.0031344 0.022042 
0.086821 0.01267 0.021056 0.0042853 -0.045203 0.0227 0.0070803 0.016945 
-0.078415 0.046046 0.020891 0.0018191 -0.066906 0.012342 0.020233 0.030098 
-0.12231 0.089123 0.022535 0.02122 -0.056548 0.033551 0.040128 0.018754 
-0.052766 0.08008 0.035688 0.035031 -0.046847 0.033222 0.055089 0.035524 
0.078765 0.052294 -0.0034422 0.053774 -0.040271 0.0059294 0.048841 0.024179 
0.19402 0.03799 -0.018075 0.051308 -0.043559 0.013657 0.032236 0.011684 
0.16886 0.0051074 0.0056006 0.0324 -0.05441 0.013492 0.051801 0.016123 
0.092082 0.023357 0.036182 0.038812 -0.048985 0.0092177 0.012506 0.01826 
0.043745 0.013821 0.064461 0.037497 -0.071838 0.0079024 0.007738 0.027961 
-0.030735 0.027796 0.012342 0.018918 -0.076606 0.0067515 0.015465 0.036017 
-0.037311 0.038155 0.022864 0.014643 -0.089759 0.022042 0.025988 0.032729 
-0.036983 0.044896 0.025001 0.016945 -0.063289 -0.0054151 0.027468 0.028125 
0.0051074 0.049006 0.067749 0.034044 -0.076113 -0.048492 0.020562 0.026152 
0.019905 0.03799 0.013821 0.016452 -0.065097 -0.061973 0.048841 0.0026412 
0.031742 0.020398 0.024344 -0.00097594 -0.075949 -0.05441 0.045553 0.0079024 
0.052459 0.030427 0.01415 0.029605 -0.066906 -0.013307 0.042923 -0.023336 
0.046868 0.031578 0.032564 0.020069 -0.067235 0.00083261 0.034209 0.036675 
0.08304 0.047033 0.035524 -0.0027845 -0.060494 0.013492 0.0069159 0.037826 
0.09685 0.072846 0.0011614 0.023028 -0.062796 0.041772 0.018096 0.029441 
0.076792 0.071366 0.022371 0.037661 -0.098144 0.032729 0.037661 0.016616 
-0.0059084 0.064954 0.041278 -0.001798 -0.11804 0.037168 0.030427 0.010533 
-0.045203 0.062817 0.07449 0.019083 -0.080223 0.063145 0.020562 0.024673 
0.027468 0.022371 0.066269 0.018754 -0.041093 0.077285 0.019411 0.020069 
0.082382 0.038812 0.062323 0.053938 -0.03764 0.068078 0.015794 0.045224 
0.086985 0.031249 0.065612 0.041772 -0.021528 0.066105 0.0051074 0.0324 
0.073175 0.035031 0.067091 0.046211 -0.0060728 0.041278 0.014643 0.042923 
0.030592 0.081231 0.050979 0.048184 0.012342 0.041443 0.0324 0.023851 
-0.006566 0.072681 0.005765 0.061337 0.0079024 0.022206 0.041607 0.027632 
-0.01528 0.092247 0.016781 0.030756 -0.024487 0.02122 0.037004 0.026481 
-0.021856 0.075641 0.0059294 0.024015 -0.050958 0.045882 0.04506 0.063474 
-0.012485 0.061501 0.034537 0.037661 -0.056548 0.032071 0.038155 0.038155 
-0.0096899 0.018918 -0.018733 0.025495 -0.068386 -0.015444 0.025495 0.025001 
0.0013258 0.016616 -0.047176 0.022042 -0.10045 0.01267 0.024673 0.00297 
0.0324 0.042923 -0.030899 0.0054362 -0.13053 0.035688 0.03536 0.037168 
0.037497 0.064461 -0.0004827 0.027961 -0.13596 0.030427 0.013492 0.025166 
0.051965 0.044731 0.0062583 0.016945 -0.13366 0.0047785 0.0064227 -0.022185 
0.028619 0.045389 -0.0039354 -0.0062372 -0.12675 0.0013258 0.022371 0.029276 
0.0069159 0.068407 0.01152 -0.015116 -0.097816 0.050814 -0.010019 1.0539e-005 
0.078107 0.050321 0.044567 0.020233 -0.096829 0.075805 0.0082312 0.034373 
0.099645 0.0592 0.097015 0.041936 -0.050958 0.076956 0.034373 0.043416 
0.078765 0.044073 0.067256 0.054267 -0.021528 0.039141 0.039963 0.042265 
0.059528 0.039305 0.072517 0.10063 0.029441 0.041114 0.016288 0.033387 
0.030592 0.025166 0.078272 0.065118 0.015137 0.030263 0.019905 0.027468 
0.027468 0.034866 0.086328 0.034866 0.0041209 0.050979 0.030592 0.025166 
0.0074092 0.063145 0.086163 0.024015 -0.0052507 0.051965 0.029276 0.03536 
-0.011498 0.064461 0.049335 0.035853 -0.027447 0.035031 0.03799 0.024344 
-0.043559 0.06742 0.014479 -0.0011404 -0.078908 -0.0029489 0.059528 0.034044 
-0.066084 0.024673 0.048513 -0.010348 -0.097816 0.0065871 0.023686 0.02122 
-0.082854 0.0056006 0.076463 0.0013258 -0.078415 0.035195 0.022206 0.03388 
-0.047505 0.030756 0.049335 0.040621 -0.07003 0.030263 0.028454 0.034044 
-0.024652 0.039963 0.0079024 0.04358 -0.048985 -0.015444 0.041936 0.041607 
-0.069043 0.058706 -0.019061 0.037497 -0.052766 -0.0077169 0.037004 0.036346 
-0.13547 0.06479 -0.0088678 0.036675 -0.037311 -0.003771 0.049992 0.020398 
-0.06855 0.061995 0.016945 0.06035 -0.059343 0.020398 0.047362 0.032236 
0.12529 0.069393 -0.0054151 0.029769 -0.062796 0.029276 0.041114 0.023522 
0.23414 0.050979 0.034537 0.027303 -0.061645 0.04654 0.019905 0.050157 
0.22 0.012835 0.03947 0.021713 -0.06 0.071037 0.010697 0.017603 
0.15028 -0.029584 0.041278 0.018754 -0.060823 0.092576 0.0052718 0.044238 
0.07038 0.025824 0.011848 0.030263 -0.045368 0.1128 0.02122 0.052294 
0.0421 0.047691 -0.0011404 0.043745 -0.035832 0.083862 0.017603 0.060022 
0.0062583 0.076627 -0.021856 0.062488 -0.06148 0.010862 0.038648 0.03092 
-0.0022913 0.058542 0.007738 0.03536 -0.10045 -0.052602 0.036346 0.035195 
0.0080668 0.059528 0.055582 0.016452 -0.077757 -0.055561 0.035524 0.02122 
0.035688 0.050486 0.027139 0.028783 -0.018239 -0.036489 0.025495 0.0074092 
0.03799 0.024344 0.048841 0.039141 -0.046025 -0.0062372 0.0083956 0.025166 
0.032729 0.037661 0.055254 0.018589 -0.056877 0.011355 0.013492 0.028125 
0.038155 0.012835 0.044731 -0.0032777 -0.088608 -0.0067304 0.04654 0.012835 
0.037826 0.014972 0.066927 0.0013258 -0.069701 -0.0068948 0.024344 -0.009361 
0.048513 0.030592 0.044567 0.031907 -0.063782 -0.036489 -0.0044286 -0.0059084 
0.0028056 0.050157 0.014643 0.043087 -0.039942 -0.033037 0.021056 0.0011614 
0.013492 0.077614 0.031907 0.060186 -0.021528 0.0047785 0.028454 0.058213 
0.032071 0.054432 0.05065 0.0592 0.0046141 0.044731 0.029441 0.047691 
0.062159 0.037661 0.043745 0.018589 -0.016595 0.11033 0.056733 0.088136 
0.041936 0.014479 0.05624 0.012999 -0.032543 0.043909 0.05624 0.026481 
0.0088889 0.017932 0.034373 0.017767 -0.045368 0.032236 0.049335 0.027961 
0.0026412 0.064625 0.042594 0.071531 -0.041257 0.047033 0.018754 0.015959 
-0.033859 0.11905 0.040128 0.019083 -0.078086 0.078436 0.022206 0.027139 
-0.050793 0.10787 0.021056 0.012177 -0.095678 0.063474 0.0080668 0.028947 
0.018096 0.04358 0.046375 0.011355 -0.062467 0.01004 -0.012978 0.020562 
0.10589 -0.010841 0.062159 0.036182 -0.081868 -0.02087 0.01563 0.023357 
0.11099 0.01826 0.070544 0.028125 -0.069043 -0.0088678 0.039634 0.0064227 
0.051801 0.054267 0.031907 0.041772 -0.047505 0.018918 0.029441 0.03092 
0.01974 0.032236 0.016616 0.067585 -0.013965 0.0042853 0.036017 0.021056 
0.049335 0.01711 0.027796 0.05772 -0.012485 0.005765 0.024837 0.02829 
0.045882 -0.0027845 0.038155 0.039963 -0.02498 0.0011614 0.010369 0.041114 
0.079258 0.014643 0.045389 0.038483 -0.015444 0.0227 0.024015 0.035195 
0.089123 0.03651 0.036675 0.069558 -0.0067304 0.045224 0.02681 0.010697 
0.077778 0.036182 0.031249 0.031578 -0.015773 0.031085 0.028619 0.0227 
0.062159 0.028947 0.035853 0.0074092 -0.033201 0.032236 0.017603 0.021878 
0.062817 0.0227 0.044238 0.023851 -0.022021 0.037004 0.0079024 0.040785 
0.032564 0.047526 0.035031 0.053774 -0.05589 0.039305 -0.00031829 0.032893 
0.014315 0.077121 0.039963 0.018589 -0.074304 0.028783 0.017603 0.027961 
0.019576 0.063474 0.031249 0.034537 -0.071181 0.030098 -0.0064016 0.03536 
0.028619 0.057062 0.051472 0.029605 -0.074633 0.0324 0.023357 0.025988 
0.02122 0.044073 0.061995 0.016616 -0.12297 0.031414 0.028619 0.024837 
0.00033937 0.037661 0.032564 -0.0013048 -0.11196 0.045882 0.043416 0.030098 
-0.0064016 0.045224 0.027961 -0.0024557 -0.083018 0.061501 0.058049 0.060186 
-0.023336 0.025988 0.047691 0.034044 -0.044381 0.078272 0.034373 0.09126 
-0.010019 0.023851 0.081395 0.016781 -0.065262 0.066105 0.022535 0.078272 
