0.1003 -0.050629 0.052623 0.035195 -0.052109 0.025988 -0.010841 0.019905 
0.049828 0.04358 -0.0016336 0.070873 -0.0068948 0.041278 0.035853 0.020891 
0.00033937 0.11247 -0.077264 0.059693 -0.041093 0.046704 0.079094 0.042265 
0.046868 0.14354 -0.073976 0.042265 -0.041422 0.034866 0.067913 0.042758 
0.097344 0.1276 -0.0090322 0.018918 -0.060987 0.020398 0.039963 0.024508 
0.074654 0.092247 0.08715 0.034866 -0.065426 -0.0075525 1.0539e-005 0.0032988 
0.016616 0.016452 0.073997 0.01415 -0.089431 0.016781 -0.0047575 0.028947 
-0.035503 -0.11985 0.050486 -0.0054151 -0.088773 0.01563 0.035853 0.02122 
-0.062467 -0.1524 0.057062 -0.0059084 -0.080552 0.0023123 0.071859 0.029934 
0.0082312 -0.097158 0.066763 0.032564 -0.065262 0.012013 0.047362 0.014808 
0.0047785 -0.018568 0.068407 0.041936 -0.045861 0.017603 0.036346 0.04917 
-0.0062372 0.077614 0.011026 0.048677 -0.038627 0.036017 0.029441 0.028619 
-0.016266 0.09685 0.045224 0.031742 -0.024323 0.025495 0.025166 0.036182 
0.018096 0.015137 0.088465 0.032893 -0.063453 0.046211 0.017438 0.0037921 
0.063803 -0.01117 0.10573 0.0024767 -0.074962 0.012013 0.0074092 0.0028056 
0.095042 0.070708 0.04917 -0.014951 -0.082032 0.029934 0.020398 0.042594 
0.051472 0.067913 0.0080668 0.050814 -0.031721 0.029441 0.031907 0.016288 
0.07597 0.091753 -0.022843 0.029934 -0.058028 0.034209 0.051965 0.032893 
0.030756 0.064132 0.0041209 0.037661 -0.047998 0.00066819 0.029934 0.030592 
0.056898 0.069722 0.044073 0.014808 -0.057534 0.0026412 0.03092 0.038483 
0.012342 0.048677 0.022535 0.044731 -0.040271 0.0324 0.050486 0.024837 
-0.077593 0.079258 0.023193 0.04506 -0.048492 0.025166 0.058706 0.047362 
-0.054739 0.10589 0.036346 0.0070803 -0.067728 0.009711 0.0421 0.022535 
0.012506 0.098823 0.065612 0.0042853 -0.071345 0.017603 0.020069 0.04095 
0.093069 0.071037 0.025988 0.041114 -0.063618 0.012177 0.0034632 0.0026412 
0.099152 0.034373 0.03388 0.014972 -0.064768 0.034044 -0.018897 0.018754 
0.099974 -0.0077169 0.034702 0.007738 -0.065919 0.014808 -0.019884 0.0074092 
0.15094 -0.037311 0.068078 0.013986 -0.043066 0.0021479 -0.031721 0.01152 
0.16114 -0.054246 0.090274 0.055418 -0.061151 0.0065871 -0.0087034 0.012013 
0.1276 -0.026789 0.027961 0.0052718 -0.080388 0.0059294 0.021878 0.0069159 
0.12825 -0.014787 0.047033 -0.018568 -0.089266 0.010533 0.012342 0.023522 
0.016781 0.097837 0.031742 0.0031344 -0.068057 0.009711 0.037004 0.019411 
-0.18084 0.244 -0.016102 0.057227 -0.043559 0.023193 0.11609 0.041443 
-0.30284 0.29431 -0.07414 0.068571 -0.030899 0.013164 0.1761 0.045718 
-0.28081 0.14354 -0.042573 0.049992 -0.032215 0.051143 0.18662 0.080738 
-0.15141 0.033715 0.01152 0.077778 -0.028762 0.081395 0.13713 0.061337 
-0.0029489 -0.012814 0.049006 0.031742 -0.055232 0.039141 0.050486 0.062159 
0.083368 0.045389 0.054596 0.0093821 -0.064275 0.021549 -0.033694 0.030098 
0.11855 0.054432 0.031742 0.016781 -0.056877 0.0070803 -0.059343 0.026481 
0.15538 0.031578 0.023193 0.052787 -0.049478 0.020727 -0.053588 0.013164 
0.17199 0.020069 0.056898 0.01152 -0.069536 0.011355 -0.041422 -0.00097594 
0.14946 0.032071 0.086821 0.0067515 -0.068879 0.0046141 -0.0138 0.016123 
0.11263 0.061337 0.066763 0.01711 -0.042573 0.012999 -0.011663 0.027303 
0.099645 0.081067 0.060679 0.038648 -0.059343 0.01152 -0.0055795 0.027796 
0.073832 0.062323 0.051308 0.013657 -0.061151 0.01563 -0.0082102 0.026481 
0.03651 0.05772 0.066269 0.016123 -0.065426 0.012177 0.016452 0.033222 
-0.00031829 0.029934 0.073997 0.026317 -0.058356 0.027139 0.037168 0.034044 
-0.010512 0.043745 0.033058 0.039634 -0.056877 0.014972 0.043745 0.039799 
-0.023994 0.1031 0.00099702 0.04095 -0.049971 0.030427 0.076299 0.0042853 
-0.027118 0.091589 -0.010841 0.040785 -0.046847 0.0324 0.061337 0.043909 
-0.025145 0.058871 0.049992 0.03092 -0.054082 0.030098 0.037826 0.034209 
-0.0073881 0.051143 0.029769 0.013986 -0.072167 0.011355 0.03092 0.032564 
-0.021199 0.067749 0.020233 0.00050378 -0.074304 0.016288 0.013328 0.018589 
-0.030242 0.081231 0.026974 0.0090533 -0.060823 0.042758 0.024344 0.029112 
0.01267 0.065447 0.040292 0.046211 -0.052931 0.020727 0.028783 0.024179 
0.10556 -0.0088678 0.068242 0.014808 -0.06 0.038483 0.026317 0.019411 
0.10556 -0.008539 0.032564 0.015137 -0.060658 0.012177 -0.0050863 0.024015 
0.090767 -0.03764 0.027303 -0.0039354 -0.04323 0.015301 0.0059294 0.01826 
0.043251 0.0036276 0.03536 0.034209 -0.057205 0.049499 0.024673 0.039305 
0.044731 0.051472 0.041936 0.052623 -0.034352 0.01415 0.048019 0.038319 
0.027961 0.075312 0.0069159 0.020562 -0.058521 0.034373 0.045553 0.04095 
0.012506 0.090109 -0.0072237 0.057555 -0.030242 0.036346 0.035688 0.013328 
0.058542 0.088301 0.029112 0.051472 -0.043559 0.022864 0.0227 0.026317 
0.081231 0.06479 0.053281 0.02829 -0.054575 0.025988 0.011848 0.011684 
0.099316 0.051801 0.063803 0.025001 -0.057205 0.025001 0.0051074 0.026974 
0.077614 0.034702 0.031742 0.052952 -0.044874 0.027961 0.0074092 0.042265 
0.06479 0.004943 0.019083 0.015301 -0.068221 0.0065871 0.013986 0.056898 
0.063803 -0.012814 0.043251 -0.0088678 -0.078415 0.023686 -0.0019624 0.025495 
0.0092177 -0.0098543 0.081724 -0.0077169 -0.077264 0.031907 0.042923 0.01974 
0.01826 0.020727 0.02829 0.030427 -0.065755 0.014315 0.030427 0.017603 
0.0227 0.037004 -0.0021268 0.0011614 -0.075784 0.032564 0.010204 0.048513 
0.038319 0.054267 -0.0026201 0.022864 -0.062302 0.019411 0.00297 0.037826 
-0.012978 0.10573 -0.0027845 0.035688 -0.023829 0.048348 0.018425 0.03092 
-0.0068948 0.13105 0.019083 0.058542 -0.048656 0.004943 0.022864 0.058213 
1.0539e-005 0.1516 0.033715 0.015794 -0.065919 0.025166 0.01415 0.020233 
0.0079024 0.13828 0.035195 0.041607 -0.047012 0.029605 0.028783 0.016945 
0.018589 0.0592 0.021384 0.029276 -0.039613 0.032893 0.049006 0.023028 
0.030098 -0.017746 0.019576 0.04917 -0.039942 0.025824 0.044567 0.042758 
0.02533 -0.050464 -0.0024557 0.032236 -0.05178 0.021384 0.020562 0.022371 
0.055747 -0.01117 0.015301 0.022371 -0.060987 0.021549 0.018425 0.040128 
0.055254 0.062323 0.0092177 0.052294 -0.045203 0.026317 0.017932 0.037497 
0.086657 0.026974 0.040785 0.046046 -0.053753 0.05624 0.019411 0.0324 
0.090438 -0.004593 0.045882 0.031249 -0.052109 0.032564 0.01826 0.029934 
0.079422 0.024837 0.0037921 0.033058 -0.044874 0.017438 0.019905 0.022206 
0.078929 0.043087 0.026646 0.066927 -0.050793 -0.017088 0.011026 0.030756 
0.029441 0.054267 0.040621 0.012013 -0.068714 0.020398 0.025001 0.017274 
0.0092177 0.049992 0.095371 -0.0077169 -0.083676 0.027961 0.025001 0.028947 
-0.021528 0.02681 0.0786 -0.0049219 -0.062796 0.012506 0.018918 0.00297 
-0.013965 0.014643 0.064296 0.021878 -0.07562 0.01563 0.04917 0.028619 
-0.022679 0.043416 0.019247 0.009711 -0.068879 0.015794 0.061995 0.029934 
0.00297 0.084848 0.018425 0.034209 -0.051615 0.030427 0.052459 0.047362 
0.026317 0.073668 0.0044497 0.036346 -0.039284 0.04506 0.044567 0.026974 
0.051308 0.05624 0.0028056 0.040785 -0.052109 0.027961 0.026646 0.041114 
0.058542 0.024344 0.011026 0.039305 -0.043888 0.0087245 0.0324 0.0324 
0.072353 -0.004593 0.022864 0.043745 -0.041915 0.017274 0.016781 0.029605 
0.070873 -0.031392 -0.014458 0.046868 -0.046683 0.038155 0.021384 0.013986 
0.051965 0.028783 0.016123 0.040456 -0.05441 0.044238 0.044567 0.034537 
0.034537 0.030098 0.015959 0.025659 -0.054082 0.042923 0.033222 0.037826 
-0.0091966 0.022371 0.038319 0.01826 -0.060494 0.010697 0.036675 0.026317 
-0.02087 0.012013 0.04654 0.051143 -0.060987 0.0083956 0.035853 0.030427 
-0.0014692 0.029112 0.044073 0.0082312 -0.071345 0.026317 0.023851 0.02681 
0.011684 0.045389 -0.0044286 0.0227 -0.057041 0.015465 0.023357 0.033222 
0.026646 0.068736 0.011355 0.0227 -0.037147 0.021713 0.03651 0.022371 
0.023686 0.02533 0.032236 0.06183 -0.044874 0.01415 0.027632 0.035195 
0.021878 0.0059294 0.04917 0.043416 -0.045368 0.023357 -0.0024557 0.033387 
0.0054362 -0.0072237 0.060844 0.029934 -0.053424 0.030756 0.01152 0.029112 
-0.010183 0.01711 0.033551 0.030263 -0.045203 0.012506 0.017438 0.042758 
-0.014622 0.065118 0.024179 0.034044 -0.060823 0.021549 0.038977 0.02533 
-0.0091966 0.048677 0.04917 0.030592 -0.057699 0.013986 0.066434 0.046375 
-0.018733 0.050979 0.039799 0.028454 -0.05178 0.031578 0.08567 0.029934 
-0.012649 0.061337 -0.034023 0.057227 -0.047012 0.041443 0.093233 0.050486 
0.0054362 0.051308 -0.0090322 0.040128 -0.056712 0.025166 0.066434 0.027139 
0.056076 0.045224 0.032564 0.029276 -0.05885 0.01826 0.021549 0.018589 
0.093233 -0.0052507 0.073997 0.0036276 -0.073318 0.016288 0.0024767 0.018096 
0.10622 -0.026953 0.061172 0.050486 -0.060494 0.024837 -0.008539 0.014479 
0.13565 -0.02087 0.024015 0.013821 -0.067235 0.01004 -0.017746 0.013328 
0.14091 -0.064275 0.064954 0.022206 -0.061645 0.020562 -0.021856 0.03799 
0.17018 -0.035174 0.096028 0.010533 -0.050629 0.028125 -0.037311 0.0069159 
0.14667 1.0539e-005 0.09685 0.014479 -0.081539 0.011355 -0.05441 0.025495 
0.055254 0.092904 0.024344 0.0044497 -0.076442 0.0075736 -0.023501 0.031742 
-0.080388 0.19912 -0.041586 0.016452 -0.059836 0.026974 0.058706 0.039963 
-0.16753 0.17281 -0.066413 0.055089 -0.023007 0.033222 0.11247 0.049499 
-0.18693 0.073832 0.0064227 0.053938 -0.04619 0.019905 0.13697 0.042923 
-0.15322 -0.042901 0.053774 0.022864 -0.056877 0.027961 0.11494 0.03651 
-0.023501 -0.049642 0.074819 0.0070803 -0.065755 0.021878 0.065612 0.018589 
0.056569 0.0032988 0.058377 0.03947 -0.053753 0.0060938 0.0019835 0.024344 
0.10063 0.03947 0.058377 0.016616 -0.076771 -0.01528 -0.068221 -0.0004827 
0.079094 0.094877 0.044402 0.024015 -0.063946 0.0013258 -0.025474 0.01152 
0.049664 0.15587 0.044238 0.0421 -0.047505 0.030427 0.01974 0.0067515 
-0.00031829 0.18251 0.013657 0.063639 -0.041915 0.050321 0.065118 0.036182 
0.041278 0.16262 0.022535 0.02681 -0.056877 0.041772 0.049335 0.024179 
0.071531 0.096686 0.055582 0.025001 -0.056712 0.017767 0.027303 0.033715 
0.08008 0.11165 0.010204 0.033387 -0.038627 0.0051074 0.0018191 0.023028 
0.079094 0.16426 0.0052718 0.047691 -0.04882 0.023686 -0.017746 0.023357 
0.067585 0.17215 -0.0019624 0.012342 -0.065097 0.022042 -0.016431 0.013657 
0.079094 0.074983 0.027632 0.038155 -0.047341 0.037004 0.0088889 -0.0042642 
0.014315 -0.011005 0.0093821 0.024344 -0.041093 0.012013 0.026481 0.022206 
0.023851 -0.073811 0.020562 0.017274 -0.070687 0.01826 0.01152 0.0069159 
0.047526 -0.021034 0.024508 0.026152 -0.057534 0.02829 0.055089 0.021056 
-0.0011404 -0.029255 0.032236 0.031907 -0.048163 0.013657 0.058049 0.024344 
-0.041422 -0.010676 0.048513 0.051965 -0.041751 0.023357 0.031578 0.030592 
-0.025474 0.0011614 0.033058 0.034866 -0.055232 0.021056 0.050486 0.014808 
0.016452 0.040785 0.020233 0.03092 -0.050464 0.024673 0.051801 0.044731 
0.065776 0.078929 0.029276 0.023193 -0.051615 0.037497 0.063639 0.038977 
0.059035 0.070051 0.049992 0.048348 -0.059343 0.026317 0.068571 0.070051 
0.030263 0.050486 0.032236 0.021549 -0.056055 0.020069 0.037168 0.057391 
0.013164 0.052294 -0.01676 0.025659 -0.056712 0.01415 0.0059294 0.076134 
0.028619 0.068736 -0.019884 0.022206 -0.034845 0.037004 -0.012485 0.034044 
0.024673 0.11066 0.025495 0.036675 -0.063289 0.028125 -0.024652 0.021878 
0.046211 0.10096 0.071531 0.015301 -0.064275 0.014643 -0.004593 0.0032988 
0.046375 0.084026 0.07449 0.0085601 -0.062796 0.023851 -0.0050863 -0.016431 
0.015301 0.08156 0.057227 0.040456 -0.038133 0.020069 0.022371 0.013657 
-0.011992 0.11165 0.026152 0.051308 -0.05178 0.043745 0.056076 0.030756 
0.004943 0.055747 0.031907 0.02681 -0.058685 0.038155 0.06035 0.0592 
0.029769 -0.0034422 0.030263 0.019576 -0.061151 0.016781 0.02122 0.035195 
0.044073 -0.048163 0.02122 0.06479 -0.050793 0.009711 -0.0014692 0.045718 
0.055582 -0.028762 0.028947 0.016452 -0.068386 0.022042 0.025001 0.026974 
0.034866 -0.016595 0.058542 0.027632 -0.058521 0.032236 0.044567 0.049335 
0.03947 0.016781 0.062817 0.025824 -0.034681 0.02122 0.043251 0.028947 
0.056898 0.080409 0.023193 0.067091 -0.029255 0.025001 0.020069 0.035853 
0.10573 0.070544 0.019083 0.043909 -0.041586 0.027961 0.0083956 0.023193 
0.12595 0.07301 0.027796 0.026481 -0.051615 0.031085 -0.018568 0.034373 
0.15653 0.074326 0.045553 0.013164 -0.042573 0.035853 0.010697 0.017932 
0.15259 0.062159 0.023357 0.012506 -0.076771 0.016452 0.019411 0.018096 
0.090109 0.049006 0.01711 -0.0060728 -0.077922 0.02829 0.0065871 0.0067515 
0.051965 0.004943 0.026481 0.0070803 -0.069043 0.012342 0.0014903 0.007738 
0.052459 -0.033694 0.023028 0.03799 -0.0406 0.029605 -0.01117 0.0039565 
0.035031 -0.033201 0.058871 0.027961 -0.071674 0.023028 -0.011663 0.011684 
1.0539e-005 -0.0091966 0.043087 0.011355 -0.068057 0.018589 0.027632 0.047362 
-0.09239 0.062817 0.024673 0.010862 -0.06707 0.0070803 0.077778 0.029441 
-0.15914 0.13417 -0.0083746 0.049664 -0.047669 0.017274 0.10918 0.061995 
-0.14993 0.077285 0.01415 0.038812 -0.052602 0.044731 0.08715 0.044238 
-0.062467 -0.027775 0.021384 0.021384 -0.05589 0.042594 0.060515 0.053774 
0.06035 -0.089431 0.02681 0.023193 -0.047176 0.028125 0.024673 0.029276 
0.1562 -0.090253 0.044731 0.037332 -0.068057 0.01415 -0.018239 0.041936 
0.2565 -0.0077169 0.057391 0.00066819 -0.074469 -0.006566 -0.045039 0.020069 
0.16393 0.01152 0.09981 0.012506 -0.064275 0.01826 -0.015444 0.01415 
0.10359 -0.0040998 0.043745 0.028783 -0.049314 0.018589 0.0088889 0.031085 
0.10228 0.010697 0.030592 0.046211 -0.056055 0.020069 -0.0067304 0.030427 
0.060844 0.0039565 0.023193 0.023193 -0.059507 -0.0072237 0.0032988 0.038977 
0.041443 0.022206 0.020727 0.026974 -0.051451 0.033551 -0.006566 0.032893 
0.0056006 0.082546 0.028125 0.063639 -0.038627 0.03651 -0.0082102 0.036017 
-0.041422 0.086163 0.0074092 0.034866 -0.063782 -0.0055795 0.035688 -0.0040998 
0.011355 0.04917 0.061337 -0.0040998 -0.077264 -0.0060728 0.045224 0.0054362 
0.082382 0.019411 0.08978 -0.012814 -0.084827 -0.013636 0.037332 0.010697 
0.14617 0.036346 0.10721 0.018425 -0.071345 0.040621 0.018754 0.031578 
0.12628 0.06742 0.037168 0.010697 -0.072825 0.01415 0.01711 0.023686 
0.055254 0.13039 -0.028926 0.033387 -0.057041 0.012999 0.028454 0.033387 
-0.0019624 0.15703 -0.02794 0.052294 -0.019555 0.019247 0.040128 0.024508 
-0.080552 0.18777 -0.012649 0.077449 -0.03353 0.03947 0.085012 0.034702 
-0.13103 0.18909 0.034209 0.048677 -0.03764 0.036182 0.090438 0.030263 
-0.10669 0.18267 0.011355 0.020727 -0.052766 0.023686 0.076627 0.03388 
-0.0055795 0.10293 0.045553 0.015959 -0.048492 -0.0029489 0.01004 0.014972 
0.10211 -0.00015387 0.10787 0.0051074 -0.079237 -0.0039354 -0.06 -0.014129 
0.12151 -0.050464 0.13335 -0.029255 -0.099953 0.013657 -0.065591 -0.013471 
0.012177 -0.055397 0.04095 -0.015773 -0.096172 0.0044497 -0.023994 0.0021479 
-0.10604 -0.063124 -0.008539 0.035853 -0.051451 0.024673 0.084026 0.040785 
-0.21586 -0.0091966 -0.037476 0.057227 -0.037311 0.026974 0.14289 0.05065 
-0.22655 0.086328 0.0032988 0.041443 -0.037805 0.0079024 0.13516 0.060679 
-0.14402 0.1202 0.044402 0.028125 -0.044052 0.024179 0.06742 0.04358 
-0.038133 0.1026 0.039305 0.054596 -0.041422 0.047033 0.0592 0.042758 
0.093233 0.082546 0.024508 0.050157 -0.036489 0.037332 0.035524 0.058377 
0.2292 0.044402 0.023522 0.038319 -0.049971 0.050321 -0.0054151 0.053774 
0.27409 0.0088889 0.054596 0.0324 -0.030899 0.040621 0.014315 0.042265 
0.25156 0.020727 0.026481 0.051636 -0.049149 0.025495 0.0056006 0.039141 
0.15916 0.047855 0.02681 0.017767 -0.064111 0.029276 -0.0004827 0.043251 
0.06594 0.061172 0.04917 0.0039565 -0.071509 0.021878 0.016288 0.039799 
-0.045368 0.11263 0.041772 0.023357 -0.049478 -0.0011404 0.0090533 0.04917 
-0.089431 0.099316 0.052294 0.024179 -0.066906 0.015794 0.0023123 0.033058 
-0.078086 0.074983 0.030263 0.0087245 -0.069536 0.038319 0.024673 0.023357 
-0.0082102 0.044402 0.033387 0.0074092 -0.066248 0.023851 0.030098 0.015465 
0.030263 0.030263 0.024508 0.050321 -0.047834 0.016452 0.02533 0.019411 
0.0085601 0.039305 0.021549 0.034044 -0.050793 -0.0075525 0.026152 0.019247 
0.018589 -0.0047575 0.0026412 0.034702 -0.050136 0.027961 0.03092 0.034702 
-0.0055795 -0.013471 -0.0031133 0.027632 -0.057534 0.025988 0.043087 0.026317 
-0.060823 0.035524 -0.0082102 0.031249 -0.057863 0.031907 0.058706 0.030592 
-0.065919 0.086657 0.027139 0.0088889 -0.071509 0.01415 0.088301 0.041443 
-0.035667 0.14256 0.036017 0.00066819 -0.071016 0.060515 0.054103 0.015137 
-0.0087034 0.12003 0.02533 0.026974 -0.032379 0.034702 0.049828 0.036182 
0.04506 0.11362 0.04095 0.045718 -0.037147 0.037661 0.039141 0.056404 
0.039141 0.14174 0.012013 0.025001 -0.056712 0.018096 0.01267 0.041114 
0.040292 0.097837 0.027303 -0.0027845 -0.070687 0.019247 0.032893 0.053445 
0.076627 0.025659 0.021878 0.052787 -0.026624 0.020562 -0.0031133 0.048184 
0.094548 -0.042079 -0.0032777 0.054925 -0.048327 0.036182 0.022535 0.025166 
0.088301 -0.05441 0.026481 0.036017 -0.050136 0.028125 0.030592 0.041607 
0.10343 -0.059014 0.029112 0.035031 -0.049314 0.025001 0.0023123 0.024837 
0.071037 -0.049314 0.034209 0.075312 -0.033694 0.022042 0.0044497 0.029441 
0.10162 -0.032543 0.0072447 0.059364 -0.039449 0.032071 -0.022185 0.02681 
0.086492 0.0044497 0.013986 0.069558 -0.025967 0.031578 -0.021692 0.027632 
0.0689 0.02122 0.014315 0.031578 -0.044052 0.030427 0.020069 0.020233 
0.047691 0.017767 0.065283 0.01974 -0.068386 0.0098754 0.020891 0.00017495 
0.10458 0.030756 0.0592 -0.01676 -0.091404 -0.0019624 0.004943 0.011355 
0.1368 0.03388 0.050486 0.010369 -0.072825 0.040292 0.0028056 0.018589 
0.09685 0.05213 0.062488 -0.0052507 -0.058356 0.0052718 0.025166 0.013164 
0.072188 0.041278 0.053281 0.03651 -0.064604 0.013821 0.037168 0.0026412 
0.03799 -0.01939 0.068571 0.020727 -0.060987 0.037661 0.070544 0.017932 
0.024837 -0.049478 0.030098 0.046046 -0.038462 0.025824 0.041607 0.021713 
-0.004593 0.0032988 0.0092177 0.044402 -0.018075 0.029769 0.053609 0.032729 
-0.037476 0.069558 -0.0042642 0.060679 -0.03501 0.036839 0.065612 0.047362 
-0.044217 0.068242 0.024673 0.03947 -0.03912 0.037168 0.038648 0.04917 
0.027303 0.086163 0.026974 0.027632 -0.051944 0.026481 0.016123 0.0324 
0.092247 0.072517 0.0021479 0.061008 -0.037311 0.044896 -0.020377 0.038648 
0.11855 0.016781 0.02829 0.024508 -0.066577 0.019576 -0.031557 0.019247 
0.13894 0.035688 0.039799 0.02533 -0.059672 0.0093821 -0.025474 0.015137 
0.10014 0.077943 0.058213 0.00083261 -0.066577 -0.00097594 -0.018404 0.027303 
0.055747 0.071366 0.030263 0.028947 -0.065755 0.011684 0.013986 0.019905 
0.031414 0.055911 0.04358 -0.0004827 -0.077264 0.018754 0.044567 0.039799 
0.00099702 0.071037 0.038155 0.012999 -0.064604 0.030427 0.054596 0.040785 
-0.025638 0.10162 0.030263 0.047526 -0.016595 0.034373 0.045389 0.046704 
-0.015609 0.098001 0.032236 0.042758 -0.051451 0.031742 0.042594 0.018096 
0.0083956 0.046046 0.015959 0.023686 -0.055726 0.0021479 0.051965 0.038977 
0.012013 0.0056006 0.037661 0.015959 -0.063453 0.016452 0.031249 -0.0011404 
0.030263 -0.013636 0.059693 0.038977 -0.048985 0.012999 0.011684 0.0037921 
0.030427 -0.0088678 0.064954 0.021878 -0.07266 0.0059294 0.005765 0.0067515 
0.029112 0.019411 0.0227 0.020562 -0.065097 -0.0080457 0.00033937 0.04095 
0.031907 0.031742 0.0037921 0.027632 -0.053424 0.02533 0.00297 0.029276 
0.012835 0.019083 0.027961 0.048841 -0.047998 0.03651 0.026481 0.046704 
-0.0080457 -0.012485 0.034702 0.015794 -0.05178 0.030592 0.038648 0.023193 
0.037661 0.012506 0.06183 0.017932 -0.067399 0.018425 0.045389 0.023193 
0.032564 0.042265 0.034866 0.0056006 -0.055397 0.013492 0.041607 0.024179 
0.0093821 0.066763 0.053445 0.037661 -0.065097 0.033222 0.031085 0.025166 
0.0056006 0.062981 0.041772 0.0028056 -0.067564 0.015137 0.035688 0.036182 
0.027139 0.042265 0.038648 0.01974 -0.055561 0.024179 0.028454 0.041772 
0.06479 0.0016547 0.00066819 0.035853 -0.038298 0.027961 0.026481 0.047526 
0.079916 0.022371 0.016945 0.026152 -0.060987 0.019576 0.043251 0.030098 
0.04917 0.01415 0.035688 0.023851 -0.057863 0.049335 0.019247 0.025988 
0.0092177 0.025988 0.01711 0.029441 -0.056877 0.034044 0.033551 0.037497 
-0.027447 0.043909 0.040456 0.048184 -0.044381 0.022864 0.049335 0.042594 
-0.027447 0.014808 0.011848 0.038812 -0.056877 0.030263 0.049992 0.034044 
-0.032543 0.018425 0.012999 0.016288 -0.069536 0.026974 0.052294 0.043745 
0.0085601 0.060186 0.039799 0.014479 -0.070359 0.037332 0.047855 0.024508 
0.031085 0.079094 0.066105 0.025001 -0.072332 0.0064227 0.029112 0.0019835 
0.040456 0.08863 0.047526 -0.003771 -0.083183 0.016123 0.020891 0.024508 
-0.009361 0.12875 0.018589 0.020069 -0.060329 0.0074092 0.031249 0.015794 
-0.038791 0.15505 -0.011663 0.029769 -0.030242 0.041114 0.041772 0.02829 
-0.012485 0.18678 0.005765 0.07449 -0.02235 0.02533 0.032564 0.030592 
0.02829 0.17971 0.014479 0.049006 -0.037476 0.032893 0.042265 0.047691 
0.047362 0.15883 -0.024487 0.072024 -0.022185 0.037497 0.041936 0.047033 
0.043087 0.12875 -0.03353 0.057391 -0.016924 0.028783 0.025495 0.043416 
0.052623 0.027632 -0.0032777 0.062159 -0.044217 0.028454 0.020398 0.023193 
0.04917 -0.04323 0.039634 0.028619 -0.057863 0.037332 0.0039565 0.038319 
0.046704 -0.093541 0.030263 0.014315 -0.062302 0.025166 -0.0075525 0.010697 
0.051636 -0.10949 0.040292 0.030098 -0.053095 0.01826 0.0083956 0.034866 
0.053445 -0.024816 0.047855 0.030427 -0.066413 0.016781 0.017767 0.02122 
0.046375 0.050321 0.040292 -0.00015387 -0.074304 0.02829 0.026646 0.013328 
0.036675 0.069722 0.054103 0.005765 -0.068714 0.028783 0.027468 0.031578 
0.076134 0.063474 -0.013307 0.044073 -0.043559 0.0051074 0.0028056 0.027961 
0.039634 0.022042 0.041114 0.023522 -0.062631 0.010369 0.016288 0.02829 
0.058049 0.036675 0.055254 0.018918 -0.064111 0.031578 0.022042 0.019411 
-0.009361 0.061501 0.083862 0.011848 -0.045532 0.012506 0.041772 0.02681 
-0.065097 0.10392 0.021056 0.058377 -0.040435 0.023686 0.08008 0.042923 
-0.078415 0.14469 -0.023007 0.034866 -0.042901 0.028947 0.091589 0.052787 
-0.029913 0.12217 -0.031557 0.028947 -0.049971 0.035524 0.048348 0.044402 
0.030592 0.081724 0.017932 0.019411 -0.049642 0.050486 0.025988 0.038319 
0.056569 0.060679 0.066105 0.029605 -0.067235 0.026481 -0.0075525 0.018754 
0.080902 0.058542 0.03799 -0.0004827 -0.071345 0.0088889 -0.015609 0.029769 
0.052294 0.084355 0.029112 0.025659 -0.055068 0.0072447 0.010697 0.026317 
0.046046 0.065776 0.034537 0.034209 -0.056055 0.013328 0.032071 0.052787 
0.025495 0.057555 0.049499 0.026974 -0.060494 0.034209 0.04506 0.031249 
0.063145 0.024179 0.039634 0.024344 -0.063124 0.044896 0.012177 0.032893 
0.066927 0.061008 0.0227 0.024508 -0.05885 0.019905 -0.0024557 0.021549 
0.016452 0.10326 0.010697 0.04506 -0.0503 0.01711 0.0083956 0.013164 
-0.00081153 0.066763 0.033222 0.024837 -0.059014 0.029769 0.022864 0.021878 
-0.016431 0.025166 0.031907 0.026974 -0.052273 0.032729 0.020891 0.020891 
0.0042853 0.010862 0.0067515 0.027796 -0.027611 0.035688 0.06331 0.040292 
-0.0026201 0.02829 0.0064227 0.060186 -0.043724 0.027303 0.061337 0.025166 
-0.00031829 0.051636 0.034866 0.022206 -0.057534 0.022042 0.042594 0.048348 
0.042429 0.050486 0.079258 0.017767 -0.060987 0.021713 0.0070803 0.030427 
0.056076 0.026152 0.082546 -0.0072237 -0.061645 -0.0031133 -0.0077169 0.025659 
0.062817 0.021056 0.048513 0.016616 -0.072989 0.009711 0.009711 0.012342 
0.095206 0.00033937 0.055418 -0.021034 -0.091075 0.015959 -0.01939 0.02681 
0.091753 -0.0011404 0.043251 0.0026412 -0.071674 0.015794 0.026481 0.009711 
0.047691 -0.00031829 0.070215 0.05624 -0.036325 0.039141 0.041114 0.024179 
0.018754 -0.0036066 0.032236 0.020069 -0.066248 0.023686 0.031085 0.021056 
-0.028269 -0.0011404 0.032893 0.020891 -0.059836 0.023193 0.040128 0.026481 
-0.03501 0.018754 0.013657 0.02829 -0.045368 0.0016547 0.027632 0.029441 
0.0014903 0.038648 0.017274 0.073339 -0.036654 0.02681 0.03651 0.033715 
0.052294 0.059364 -0.0082102 0.0324 -0.048656 0.033715 0.023028 0.051965 
0.058871 0.011848 0.024179 0.026646 -0.05589 0.020069 0.036017 0.028454 
0.0034632 -0.024158 0.062323 0.026646 -0.033694 0.0069159 0.034373 0.055254 
0.0039565 -0.068221 0.069393 0.028125 -0.063946 0.01711 0.028947 0.03947 
0.035031 -0.064768 0.085506 0.0062583 -0.070194 0.031249 0.033387 0.05476 
0.02122 -0.0088678 0.03651 0.012506 -0.063289 0.035853 0.035688 0.032564 
0.03651 0.044073 0.023851 0.029769 -0.0503 0.024179 0.026646 0.036675 
0.08304 0.035688 0.057062 0.02829 -0.069865 0.0056006 0.025659 0.025659 
0.11313 0.017274 0.10556 0.020727 -0.069536 -0.0034422 0.027796 0.019247 
0.11855 0.038483 0.081889 0.027632 -0.062796 0.034702 -0.0011404 0.018096 
0.071202 0.061172 0.039305 0.055911 -0.047834 0.026974 -0.003771 0.027303 
0.02829 0.091425 0.030263 0.038812 -0.050958 0.020398 0.014972 0.029441 
-0.020541 0.077614 0.031907 0.040785 -0.045861 0.023193 0.022042 0.037332 
-0.029255 0.057227 0.03651 0.058213 -0.029091 0.026974 0.034044 0.05065 
0.022535 0.039634 0.019411 0.047691 -0.049642 0.0324 0.036182 0.030263 
0.058706 -0.014951 0.0047785 0.023357 -0.059507 0.012013 0.036017 0.038483 
0.071366 0.028454 0.024673 0.029276 -0.052931 0.01711 0.012999 0.03536 
0.052459 0.037004 0.040785 0.018096 -0.036489 0.012506 0.0051074 0.049006 
-0.017088 0.038483 0.014315 0.042429 -0.055068 0.065118 0.012342 0.06035 
-0.044217 0.031578 0.013821 0.023522 -0.058192 0.024015 0.022864 0.036839 
0.0062583 0.011848 -0.0004827 0.0047785 -0.06444 -0.0034422 0.0018191 0.0087245 
0.055254 0.016781 0.016123 0.03651 -0.036983 0.016781 0.0421 0.026646 
0.096686 0.05065 0.04358 0.039305 -0.074962 -0.0039354 0.024179 0.04654 
0.050321 0.039141 0.031742 0.014643 -0.06444 0.031085 0.040785 0.032564 
0.0072447 0.092247 -0.004593 0.0013258 -0.067399 0.03947 0.050486 0.026974 
-0.0096899 0.10178 0.010533 0.056898 -0.043395 0.030098 0.048348 0.035853 
0.039305 0.076627 0.044238 0.05065 -0.053917 0.012177 0.052787 0.041936 
0.11757 0.069886 0.037661 0.015794 -0.066248 0.0051074 0.034209 0.024179 
0.16327 0.033387 0.035031 0.0018191 -0.06148 0.018754 0.0028056 0.024344 
0.092247 0.034044 0.0060938 0.03536 -0.072332 0.0080668 0.0088889 -0.0078813 
0.0042853 0.051636 0.015137 0.010369 -0.064768 0.011848 0.033551 0.038648 
-0.026789 0.076134 0.042429 0.029276 -0.04471 0.004943 0.022864 0.017274 
0.028125 0.096028 0.011026 0.041278 -0.020706 0.032729 0.012999 0.052623 
0.08567 0.096028 0.031742 0.041607 -0.059343 0.034044 0.0067515 0.032729 
0.041607 0.10392 0.01004 0.024673 -0.065262 0.026974 0.0227 0.031742 
0.0019835 0.10047 0.01152 0.01711 -0.068879 0.038812 0.021549 0.039799 
-0.0073881 0.047033 0.013821 0.034373 -0.047669 0.020233 0.028454 0.018425 
0.0083956 0.044073 0.02533 0.03947 -0.055232 0.038812 0.011848 0.034044 
-0.0050863 0.040621 0.039141 0.04358 -0.047669 0.020233 0.029276 -0.0064016 
0.016945 0.050814 0.03536 0.030756 -0.055068 0.01267 0.012177 0.027139 
0.05476 0.074654 0.041114 0.054267 -0.067892 0.0052718 0.0047785 0.014808 
0.055254 0.082053 -0.019719 0.0064227 -0.07266 0.027139 0.051801 0.033387 
0.034373 0.051965 0.0014903 0.005765 -0.0771 0.025988 0.039963 0.01415 
0.052294 0.00297 0.051472 0.010697 -0.050629 0.026152 0.026152 0.028454 
0.058377 -0.021034 0.09833 0.025495 -0.07266 0.0023123 0.026317 0.023028 
0.053774 0.024673 0.072846 -0.011334 -0.085813 -0.00015387 0.024673 0.016945 
0.036675 0.086328 0.033715 -0.0067304 -0.081539 0.027961 0.011684 0.013986 
0.046211 0.11461 -0.001798 0.035195 -0.040928 0.038648 0.016288 0.031414 
0.085341 0.089452 0.012342 0.051801 -0.046354 0.031414 0.029605 0.034702 
0.098988 0.070215 0.026481 0.01415 -0.062631 0.016781 0.037497 0.020891 
0.05213 0.093398 0.0069159 0.030427 -0.052766 0.010862 0.039799 0.032564 
-0.016431 0.10935 0.0013258 0.045389 -0.048163 0.019247 0.048348 0.023028 
-0.042573 0.12299 0.0056006 0.035195 -0.056548 0.051472 0.054267 0.034866 
-0.034845 0.11198 0.017767 0.041936 -0.047341 0.042265 0.056898 0.038483 
-0.0070593 0.065612 0.0085601 0.029934 -0.055561 0.031249 0.04095 0.030592 
0.0090533 0.035853 0.02829 0.051472 -0.054904 0.016288 0.042265 0.0064227 
0.015137 -0.0044286 0.036182 0.013986 -0.065755 0.023193 0.01826 0.029112 
0.02829 -0.045039 0.069229 0.01415 -0.066741 0.027796 0.0083956 0.021549 
0.029276 -0.014458 0.071859 0.013492 -0.046519 0.02681 -0.0052507 0.017438 
0.036017 -0.015938 0.040785 0.033551 -0.071674 -0.00097594 0.014972 0.025495 
0.012835 -0.012156 0.04095 0.01415 -0.063453 0.019905 0.029934 0.016616 
0.034209 0.023193 0.027468 0.023193 -0.055726 0.03536 0.032236 0.014808 
0.049499 0.01563 0.045224 0.023686 -0.046354 0.026152 0.026317 -0.00081153 
0.054267 0.045882 0.015137 0.034209 -0.059672 0.016616 0.031249 0.027139 
0.053445 0.0042853 0.052952 0.035688 -0.053917 0.024837 0.027961 0.032236 
0.043416 -0.073482 0.063803 0.023851 -0.059014 0.017274 0.010204 0.029441 
0.031742 -0.078744 0.056404 0.064625 -0.034188 0.032236 0.024344 0.044402 
-0.010348 -0.047834 0.038319 0.047033 -0.051944 0.035195 0.073339 0.049499 
-0.016102 0.024344 0.014315 0.020727 -0.055068 0.035524 0.096193 0.035195 
0.009711 0.060022 0.0039565 0.022535 -0.044546 0.035688 0.060186 0.040456 
0.060022 0.048019 0.016452 0.039305 -0.052109 0.025824 0.018918 0.015465 
0.072517 0.049828 0.054925 0.01974 -0.06148 0.026646 -0.014787 0.040621 
0.073339 0.038319 0.02829 0.02122 -0.061809 0.020069 -0.0031133 0.026152 
0.041443 0.014479 0.038483 0.017438 -0.0503 0.0046141 -0.00064712 0.041607 
0.021384 0.06035 0.048841 0.033551 -0.063782 0.015137 0.014808 0.017438 
0.0093821 0.14897 0.050979 0.031085 -0.048163 0.019083 0.03799 0.039799 
-0.031721 0.20536 0.065776 0.025659 -0.051122 0.039963 0.028619 0.029441 
-0.053917 0.26258 0.023193 0.04358 -0.03616 0.034373 0.033551 0.048019 
-0.035832 0.2736 0.01004 0.04095 -0.052109 0.0054362 0.016616 0.036839 
0.023851 0.18678 0.011191 0.03092 -0.050629 0.015137 0.011026 0.032893 
0.085835 -0.0096899 0.0421 0.013492 -0.062631 0.036182 -0.015773 0.032729 
0.069558 -0.18578 0.031414 0.022042 -0.069865 0.015137 -0.0088678 0.0037921 
-0.015444 -0.19285 0.0052718 0.0087245 -0.073976 -0.0022913 0.024673 0.025659 
-0.07266 -0.09387 0.013986 0.023028 -0.060987 0.0059294 0.026974 0.012835 
-0.01117 0.045224 0.035031 0.036182 -0.036489 0.011848 0.044896 0.028454 
0.049006 0.085177 0.060186 0.059035 -0.049314 0.04095 0.055747 0.026974 
0.053938 0.080409 0.034209 0.054103 -0.037476 0.032564 0.050321 0.05772 
0.038483 0.046211 0.025988 0.029112 -0.051451 0.022042 0.063639 0.027139 
0.067749 0.020891 0.037497 0.032893 -0.02498 0.020069 0.069886 0.04095 
0.10376 0.016288 0.035853 0.057062 -0.04619 -0.0059084 0.060515 0.032893 
0.078107 0.060022 0.0013258 0.039305 -0.047176 0.029441 0.037826 0.038319 
0.018589 0.081395 0.007738 0.01267 -0.06444 0.032071 0.038812 0.044073 
0.021056 0.072517 0.025824 0.042429 -0.049478 0.018096 0.037826 0.038155 
0.071366 0.064461 0.065776 0.012835 -0.074304 0.028947 -0.0027845 0.030592 
0.082053 0.043251 0.066269 0.0059294 -0.072167 0.029605 -0.018239 0.014972 
0.03947 0.075312 0.014972 0.02829 -0.052766 0.031742 0.02681 0.037497 
-0.0050863 0.047526 0.010533 0.050157 -0.049314 0.015959 0.039963 0.034702 
-0.024652 0.037168 0.020233 0.037168 -0.054575 0.022535 0.034702 0.04917 
1.0539e-005 0.0042853 0.040785 0.018096 -0.059836 0.0056006 0.01267 0.033222 
0.030756 -0.0011404 0.042594 0.024837 -0.037476 0.033387 -0.0031133 0.035195 
0.046868 0.061337 0.024837 0.025001 -0.058356 0.02122 0.028947 0.039963 
0.05624 0.035853 0.02829 -0.0031133 -0.072825 0.011355 0.016123 0.032071 
0.034373 0.0088889 0.033551 0.0021479 -0.069043 -0.010841 0.051143 0.035853 
0.044731 0.014315 0.051801 0.015301 -0.048327 0.013492 0.031907 0.027303 
0.06035 0.022371 0.009711 0.034044 -0.052602 0.038155 -0.0091966 0.039799 
0.051801 0.05772 0.044402 0.014315 -0.064933 0.027139 -0.0047575 0.016123 
0.022371 0.10836 0.028947 0.0082312 -0.066577 0.017767 0.015959 0.021878 
-0.035174 0.15916 0.029276 0.052952 -0.045532 0.019411 0.052459 0.026974 
-0.046354 0.20224 -0.015444 0.04095 -0.056219 0.011355 0.071202 0.036182 
0.00099702 0.19517 -0.0062372 0.017438 -0.061151 0.033715 0.043745 0.0054362 
0.042923 0.12562 0.012342 0.0031344 -0.071181 0.021713 0.026974 0.036182 
0.083862 0.00099702 0.052623 0.04095 -0.065426 0.012506 0.024508 0.016781 
0.1345 -0.09946 0.06035 0.0085601 -0.072825 0.012835 -0.018568 0.0018191 
0.15703 -0.094363 0.05065 -0.003771 -0.080059 0.019411 -0.022021 0.0026412 
0.080244 -0.01528 0.030592 0.014972 -0.04471 0.019247 0.018096 0.018589 
-0.048492 0.06183 0.012013 0.07301 -0.035996 0.02533 0.10211 0.046375 
-0.059672 0.085835 0.049335 0.017274 -0.05441 0.034537 0.089616 0.057062 
-0.026296 0.036839 0.023522 0.0087245 -0.065919 0.023686 0.051636 0.047362 
0.0079024 0.00017495 0.024508 0.016288 -0.047176 0.030592 0.012835 0.0041209 
0.011355 -0.0095255 0.033715 0.037168 -0.062467 -0.011827 0.012013 0.013986 
0.035524 -0.0078813 0.070051 0.023522 -0.061645 0.0067515 0.023522 0.0092177 
0.015465 0.027961 0.049828 0.018589 -0.060329 0.016288 0.03651 0.035195 
0.021549 0.035195 0.020398 0.047691 -0.038627 0.031907 0.050486 0.031414 
0.0421 0.013328 0.012835 0.037332 -0.05441 0.063639 0.031578 0.051308 
0.068571 -0.012649 0.040292 0.0090533 -0.062467 0.032236 0.0083956 0.035853 
0.076299 0.0051074 0.057884 0.021713 -0.058028 0.025495 -0.0004827 0.028125 
0.064461 0.043909 0.0042853 0.049499 -0.053095 0.041772 0.00017495 0.018918 
0.064625 0.041936 0.027468 0.026152 -0.05885 0.028947 -0.0042642 0.034537 
0.071037 0.024179 0.053445 0.02122 -0.06296 0.028125 0.0092177 0.020398 
0.056076 0.013821 0.075805 0.03947 -0.0406 0.01152 0.035853 0.024344 
0.048019 0.024837 0.061666 0.043416 -0.058356 0.01826 0.033222 0.021878 
0.038483 0.034537 0.0028056 0.040128 -0.045696 -0.0019624 0.033387 0.034866 
0.0088889 0.082382 -0.0047575 0.041278 -0.040928 0.034537 0.026974 0.037826 
0.060515 0.097344 -0.020706 0.053938 -0.020706 0.036017 0.029276 0.034537 
0.060186 0.10737 0.026974 0.043909 -0.055068 0.01267 0.0067515 0.019083 
0.03388 0.12184 0.025495 0.0087245 -0.078908 0.027303 0.044238 0.0054362 
-0.031886 0.10819 0.023193 0.016452 -0.066084 0.019905 0.069558 0.028125 
-0.076113 0.14765 0.020069 0.062652 -0.039449 0.045224 0.089616 0.037826 
-0.064933 0.12201 0.036017 0.048348 -0.046025 0.04506 0.061172 0.069064 
-0.013636 0.068571 0.02533 0.011026 -0.066741 0.034044 0.033222 0.035688 
0.032071 0.029605 0.0087245 0.027961 -0.059343 0.0095465 0.021384 0.028619 
0.066434 0.03947 0.015137 0.028947 -0.074962 0.012177 0.012506 0.03651 
0.014808 0.0421 0.031085 0.011848 -0.083018 0.015959 0.014315 0.038319 
0.026974 0.10343 0.08419 0.013164 -0.067235 0.013657 0.0041209 0.010862 
0.031249 0.053281 0.073175 0.012342 -0.045696 0.0056006 0.0032988 0.017767 
0.030592 -0.040106 0.062981 0.028783 -0.069701 0.011848 0.0083956 0.021384 
0.054432 -0.070523 0.039799 0.021056 -0.060494 0.026152 0.029276 0.017932 
0.041278 -0.048492 0.039305 0.027139 -0.056219 0.032893 0.019247 0.025824 
0.031578 -0.0039354 0.030098 0.046704 -0.037805 0.017438 0.027303 0.027139 
0.0079024 -0.0098543 0.0037921 0.058706 -0.046683 0.011684 0.039305 0.040128 
0.04917 0.0034632 0.004943 0.033222 -0.053424 0.015794 0.02829 0.03388 
0.064954 0.0044497 0.024015 0.025659 -0.047176 0.017767 0.039799 0.048184 
0.14058 0.021056 0.053445 0.044073 -0.040928 0.017767 0.017767 0.029276 
0.12513 0.080738 0.010204 0.048348 -0.04323 0.035195 0.025988 0.039141 
0.091918 0.076463 0.037004 0.024673 -0.057534 0.011191 0.02829 0.031742 
0.055089 0.070215 0.029441 0.023028 -0.049478 0.016945 0.024015 0.039141 
0.055089 0.076299 0.042758 0.040785 -0.055232 0.028125 0.034866 0.031742 
0.058706 0.073175 0.058871 0.023851 -0.055561 0.026152 0.021384 0.028947 
0.024837 0.096028 0.037168 0.018425 -0.060823 0.0039565 0.028619 0.046375 
0.022535 0.057884 0.04506 0.020398 -0.041915 0.0065871 0.011026 0.017438 
0.0037921 -0.0062372 0.069558 0.025495 -0.064111 0.01415 0.0034632 0.020398 
0.0098754 -0.024816 0.074161 0.0065871 -0.070194 0.026317 -0.0098543 0.011191 
-0.044217 0.023522 0.005765 0.018425 -0.06148 0.025988 0.013657 0.012835 
-0.14122 0.095864 0.012013 0.037661 -0.047834 0.0036276 0.020398 0.020069 
-0.20501 0.13499 0.028783 0.029605 -0.06444 0.0024767 0.051636 0.033387 
-0.14846 0.11888 0.046704 0.023851 -0.053588 0.031578 0.091918 0.032071 
-0.03057 0.10474 0.035031 0.040621 -0.041751 0.044731 0.11115 0.053609 
0.047197 0.084355 -0.00097594 0.069558 -0.035338 0.029769 0.096357 0.040292 
0.092247 0.056733 0.0079024 0.041114 -0.049971 0.01711 0.064296 0.057555 
0.14042 0.034537 0.032236 0.014643 -0.06 -0.0073881 0.044402 0.01826 
0.20043 0.019411 0.05772 0.017932 -0.036489 0.024179 0.0014903 0.023851 
0.2149 0.024837 0.024344 0.023522 -0.068057 0.020233 -0.033859 0.0092177 
0.22296 -0.0055795 0.029112 0.011355 -0.069043 0.012999 -0.042408 0.0021479 
0.16689 -0.028104 0.049006 -0.0072237 -0.080059 0.011848 -0.036818 0.01267 
0.087808 -0.018075 0.058871 0.01415 -0.051615 0.0037921 -0.017417 0.015301 
0.0060938 -0.01676 0.044567 0.048019 -0.062796 0.026646 -0.001798 0.018096 
-0.027118 0.020069 0.0075736 0.033222 -0.055397 0.024673 0.026974 0.023357 
-0.070852 0.065612 0.012506 0.023357 -0.056219 0.027796 0.029934 0.046211 
-0.076771 0.076134 0.010862 0.04506 -0.038462 0.021384 0.034044 0.036675 
-0.08121 0.076792 0.024015 0.04654 -0.045861 0.034537 0.05772 0.049992 
-0.043888 0.034209 -0.016595 0.055911 -0.041915 0.032071 0.056898 0.056733 
-0.0031133 0.004943 -0.013965 0.029769 -0.049971 0.033715 0.035688 0.047362 
0.038483 0.033222 0.0046141 0.045553 -0.031392 -0.003771 0.035031 0.019083 
0.049828 0.035853 0.031907 0.023522 -0.058521 0.0088889 0.040785 0.023522 
0.035524 0.045553 0.066598 0.043251 -0.0503 0.029934 0.022206 0.041607 
0.0095465 0.082053 0.038648 0.014479 -0.044546 0.025659 0.039634 0.029934 
0.039305 0.082053 0.045718 0.041936 -0.060987 0.026317 0.024015 0.016945 
0.0056006 0.094548 0.027961 0.0074092 -0.072332 0.005765 0.02122 0.01563 
0.020069 0.057062 0.049006 0.014643 -0.068714 0.01974 0.014643 0.017438 
0.047033 0.046868 0.024179 0.032893 -0.03501 0.047855 0.01415 0.03536 
0.07449 0.078929 0.020398 0.039799 -0.053588 0.038155 0.035195 0.034537 
0.033222 0.083204 0.0062583 0.031414 -0.050464 0.031907 0.040292 -0.0024557 
-0.042573 0.038483 0.022371 0.035688 -0.051122 0.020398 0.028947 0.039799 
-0.10275 -0.0055795 0.057062 0.023028 -0.052931 0.027468 0.034373 0.028454 
-0.056877 0.013657 0.024344 0.027796 -0.065755 0.035524 0.0087245 0.043416 
0.040128 0.030756 0.018589 0.019247 -0.062302 0.027468 -0.0054151 0.029276 
0.11609 0.030263 -0.0019624 0.051308 -0.044874 0.025988 0.0085601 0.032236 
0.2006 0.03799 0.025001 0.048019 -0.047834 0.0098754 -0.026624 0.011684 
0.23545 0.0067515 0.026152 0.025824 -0.060823 0.013986 -0.0042642 -0.0098543 
0.19796 -0.0039354 0.040292 0.023193 -0.057699 0.017274 0.05624 0.012342 
0.1151 0.049664 0.034044 0.022042 -0.036489 0.024508 0.066269 0.0039565 
-0.035174 0.081231 0.032729 0.034537 -0.062302 0.0085601 0.066269 0.02829 
-0.10423 0.10277 0.046046 0.011026 -0.065097 0.026481 0.054267 0.020233 
-0.10308 0.086328 0.013657 0.0036276 -0.070852 0.048513 0.05065 0.050486 
-0.038462 0.060186 0.0032988 0.021713 -0.03057 0.053774 0.022864 0.046046 
0.010533 0.030427 0.016123 0.043909 -0.056712 0.026646 0.025001 0.035524 
0.060022 0.026152 0.053609 0.0098754 -0.070359 0.024508 0.011191 0.016123 
0.060515 0.0039565 0.064954 0.0024767 -0.073811 0.0031344 -0.0059084 0.014315 
0.058706 0.032893 0.053116 0.029441 -0.055561 0.03092 -0.017088 0.014315 
0.073832 0.024508 0.051801 0.029112 -0.065919 0.015794 -0.023829 0.017932 
0.056076 0.056076 0.051308 0.015959 -0.063124 0.009711 0.017932 0.018589 
0.011191 0.079916 0.051472 0.041114 -0.045532 0.025001 0.014315 0.012342 
-0.0057439 0.055911 0.022206 0.067749 -0.038298 0.027632 0.03092 0.021384 
0.029605 0.050979 0.012506 0.034702 -0.043066 0.057555 0.033058 0.02533 
0.023686 0.036182 0.026152 0.0227 -0.056877 0.021713 0.020727 0.026152 
0.038483 0.046211 0.066927 0.0087245 -0.046519 0.016123 0.013821 0.015959 
0.027632 0.082217 0.026317 0.035853 -0.062796 0.0041209 0.030427 0.030592 
0.00017495 0.085012 0.041772 0.0072447 -0.071345 0.0021479 0.052459 0.016123 
-0.0054151 0.083204 0.045224 -0.012978 -0.08269 0.028783 0.034044 0.029441 
0.022371 0.055089 0.049006 0.018096 -0.049314 0.014643 0.028619 0.021056 
0.0689 0.0037921 0.038319 0.032071 -0.062796 -0.0016336 0.023028 0.028454 
0.10343 0.00033937 0.02681 0.02122 -0.056383 0.019576 0.01711 0.017767 
0.087972 -0.027611 -0.0016336 0.010369 -0.073811 0.058049 0.010697 0.028619 
0.061337 -0.033859 0.00099702 0.030427 -0.052437 0.026481 0.030756 0.016123 
0.056076 -0.043066 0.05772 0.0592 -0.05178 0.025824 0.041443 0.0065871 
0.035853 -0.0082102 0.04095 0.039634 -0.042408 0.014315 0.043909 0.034702 
0.01563 0.036017 0.038319 0.044238 -0.031721 0.040128 0.047033 0.048019 
0.01415 0.097179 0.031907 0.069064 -0.0406 0.036839 0.031414 0.045553 
-0.00015387 0.098001 0.056733 0.036346 -0.052766 0.023522 0.032729 0.03947 
-0.02087 0.10343 0.084026 0.0093821 -0.066741 0.020891 0.041114 0.036182 
-0.027118 0.083862 0.046046 0.00050378 -0.047012 0.017603 0.046868 0.010697 
-0.037805 0.087479 0.018589 0.033058 -0.066906 0.02829 0.042923 0.019905 
-0.017746 0.1271 -0.0057439 0.0014903 -0.073976 0.02122 0.010862 0.021878 
0.047362 0.082711 0.021878 0.010697 -0.072496 0.016945 -0.013965 0.027468 
0.096193 0.038155 0.03388 0.016123 -0.057041 0.0090533 -0.051615 0.028783 
0.12562 0.038648 0.048019 0.031249 -0.06444 0.013492 -0.07562 0.01563 
0.080738 0.083697 0.066927 -0.010348 -0.084005 0.023357 -0.0032777 0.02122 
0.020727 0.10951 0.075476 -0.00081153 -0.072989 0.030756 0.082382 0.038812 
-0.033365 0.044402 0.07301 0.039305 -0.052437 0.024673 0.12283 0.033715 
-0.012156 -0.013965 -0.0055795 0.043087 -0.051451 0.021878 0.14437 0.043416 
0.037332 -0.080552 0.028454 0.057227 -0.037147 0.028125 0.14075 0.048677 
0.066598 -0.084827 0.032893 0.029112 -0.051615 0.033387 0.071037 0.025659 
0.078272 -0.034188 0.081724 0.066434 -0.037969 0.021549 0.0014903 0.017274 
0.069229 -0.023007 0.080902 0.0080668 -0.068879 0.011355 -0.032379 0.015959 
0.044402 -0.014458 0.072024 0.01826 -0.061645 0.020233 -0.041586 0.030263 
0.024015 -0.009361 0.0421 0.015959 -0.039613 0.01711 -0.018568 0.019576 
0.0079024 0.022864 0.035195 0.041772 -0.05737 0.026481 0.0046141 0.038648 
-0.062631 0.099645 0.019411 0.020069 -0.057863 0.027139 0.04095 0.034702 
-0.11903 0.18366 -0.0052507 0.038319 -0.043888 0.034537 0.08156 0.050321 
-0.065262 0.18678 -0.016266 0.043251 -0.024323 0.043416 0.065612 0.047362 
0.046375 0.21621 0.0047785 0.053116 -0.04619 0.045553 0.03799 0.042265 
0.13746 0.2583 0.0011614 0.033551 -0.05737 0.036675 0.0079024 0.048513 
0.13845 0.23775 0.0019835 0.021878 -0.059672 0.025659 -0.0083746 0.027139 
0.10178 0.11378 -0.0004827 0.041772 -0.044874 0.023357 0.0047785 0.041936 
0.064625 -0.070359 0.032729 0.02681 -0.070852 0.01711 -0.0026201 0.021713 
0.010369 -0.12248 0.072517 0.012506 -0.068057 0.031578 0.024837 0.0026412 
-0.018075 -0.038627 0.077614 0.02829 -0.055397 0.029441 0.054925 0.020562 
-0.059672 0.047526 0.028125 0.055911 -0.03764 0.036346 0.08304 0.020891 
-0.0503 0.11017 0.0092177 0.046046 -0.044217 0.030098 0.067913 0.028619 
0.017274 0.030592 0.032893 0.034044 -0.052931 0.01974 0.037004 0.037826 
0.047033 -0.051451 0.047033 -0.00081153 -0.047176 0.017438 0.03799 0.04654 
0.066927 -0.082361 0.053281 0.040128 -0.061316 0.034866 0.020562 0.038155 
0.082217 -0.085485 0.0054362 0.011355 -0.062467 0.026317 -0.004593 0.010697 
0.080902 -0.02794 0.051801 0.01004 -0.069208 0.0075736 0.017603 0.036839 
0.069393 0.03799 0.058213 0.023522 -0.050629 0.02122 0.033222 0.0059294 
0.053609 0.12891 0.041443 0.054596 -0.047834 0.034702 0.017603 0.026152 
0.054267 0.14009 0.029441 0.022042 -0.05441 0.025988 0.013328 0.042265 
0.058706 0.080244 0.037332 0.013657 -0.061151 0.01711 -0.0080457 0.014808 
0.051636 0.036017 0.051636 0.064954 -0.033201 -0.00015387 -0.00015387 0.021713 
0.047855 0.041772 0.032893 0.050486 -0.048327 0.03388 0.018425 0.01826 
0.018096 0.044238 0.050157 0.044402 -0.045861 0.026481 0.036182 0.029441 
0.012999 0.0324 0.016123 0.022535 -0.053588 0.019411 0.049664 0.029276 
0.042758 -0.004593 0.02681 0.054432 -0.047669 0.024344 0.014808 0.030756 
0.075312 0.022042 0.032236 0.0037921 -0.063289 0.024344 -0.0090322 0.027796 
0.067749 0.084355 0.047362 -0.0029489 -0.077264 0.026974 -0.015773 0.030098 
0.0031344 0.10902 0.018754 0.00083261 -0.045696 0.014479 -0.015609 -0.0029489 
-0.043395 0.092904 -0.025802 0.066269 -0.038133 0.024344 0.048841 0.044896 
-0.043395 0.0072447 0.00083261 0.057884 -0.031392 0.04358 0.11 0.047691 
0.00083261 -0.015609 0.041936 0.03536 -0.040271 0.041443 0.086328 0.04654 
0.025824 0.010862 0.076792 0.027632 -0.043888 0.045224 0.033387 0.026974 
0.054267 0.026481 0.047362 -0.0070593 -0.090581 0.033222 -0.00015387 0.0093821 
0.059857 0.0032988 0.053609 -0.015116 -0.084169 -0.0073881 -0.0050863 0.0070803 
0.036675 -0.033859 0.037826 -0.022021 -0.087951 -0.017582 -0.013307 0.0072447 
0.013328 0.01826 0.075805 0.031742 -0.063946 0.013164 0.024179 0.030592 
-0.00081153 0.090603 0.034044 0.041114 -0.061645 0.01152 0.041278 0.00033937 
-0.0138 0.13121 -0.006566 0.041936 -0.052109 0.0052718 0.024344 0.021878 
0.018425 0.090767 0.0011614 0.039634 -0.045696 0.0088889 0.026152 0.018918 
0.057391 0.011684 0.035524 0.055089 -0.044217 0.016452 -0.0072237 0.02829 
0.087972 0.023851 0.085835 0.032236 -0.046683 0.028947 0.00050378 0.023028 
0.041772 0.018589 0.016616 0.016288 -0.056383 0.024015 0.019576 0.048348 
0.042265 0.017438 0.014972 0.017767 -0.037147 0.026481 0.057227 0.026317 
0.080244 -0.021856 0.043251 0.053938 -0.056548 0.0070803 0.035524 0.035524 
0.1077 -0.0052507 0.082053 0.0095465 -0.069701 0.009711 0.017767 0.034373 
0.098823 0.0083956 0.06479 0.0072447 -0.07562 0.021384 0.0075736 0.033715 
0.01563 0.058213 0.0421 0.017932 -0.055397 0.018425 0.012342 0.029276 
-0.051944 0.093891 0.026481 0.02533 -0.066741 0.01563 0.053116 0.0079024 
-0.065755 0.040621 0.040456 0.031414 -0.058028 0.014643 0.033058 0.036182 
-0.011992 -0.0049219 0.0592 0.013492 -0.066248 0.010697 0.044073 0.025001 
0.021549 -0.017582 0.016452 0.041443 -0.037311 0.02829 0.0324 0.038155 
0.051636 -0.024487 0.0074092 0.035524 -0.052273 0.0088889 0.031414 0.027139 
0.044402 0.012999 0.005765 0.029605 -0.055561 0.0019835 0.016616 0.018096 
0.023193 0.02533 0.027796 0.033222 -0.038133 0.0051074 0.017603 0.026317 
-0.020212 0.051636 0.023851 0.049499 -0.058521 0.071366 0.007738 0.061337 
-0.008539 0.10885 0.034373 0.0090533 -0.067399 0.035524 0.023028 0.025001 
0.014643 0.1442 0.053609 0.023357 -0.059507 0.011191 0.028125 0.052623 
0.033551 0.12217 0.055582 0.0092177 -0.051615 0.0021479 0.039799 0.017438 
0.041278 0.10836 0.048019 0.041772 -0.052931 0.0026412 0.055747 0.031085 
0.027961 0.090931 0.01826 0.022535 -0.058028 0.033715 0.048677 0.044567 
0.013657 0.056569 0.019905 0.02829 -0.050793 0.023522 0.035853 0.029112 
0.047855 0.027796 0.022042 0.049664 -0.037311 0.009711 0.016288 0.02122 
0.054925 0.01415 0.045224 0.038812 -0.059343 0.0069159 0.01415 0.015137 
0.050321 0.044073 0.059693 0.013164 -0.067892 0.0014903 0.017438 0.020069 
0.046375 0.025659 0.023851 0.010204 -0.070523 0.033715 0.022042 0.017603 
0.040785 -0.0062372 0.023357 0.031907 -0.064275 0.023028 0.026974 0.019905 
0.045389 0.0028056 0.035195 0.017767 -0.063289 0.0090533 0.03536 0.030427 
0.038155 0.014808 0.030098 0.03536 -0.049971 0.005765 0.030263 0.061995 
0.050321 0.051308 -0.0019624 0.034702 -0.033859 0.020398 0.03092 0.045882 
0.03536 0.059693 -0.0027845 0.057062 -0.046683 0.044402 0.038977 0.047033 
0.014972 0.060679 -0.0022913 0.034209 -0.048327 0.035524 0.057391 0.058377 
0.0062583 0.07597 0.033222 0.053281 -0.03501 0.030756 0.065612 0.054103 
0.024344 0.083368 0.040785 0.041114 -0.032379 0.031414 0.066105 0.040621 
0.022371 0.12069 0.018096 0.033551 -0.058192 0.047362 0.044073 0.01974 
0.032236 0.1345 0.034209 -0.016595 -0.088115 0.03947 0.010862 0.022206 
0.047526 0.082382 0.023357 0.0075736 -0.069208 0.018425 -0.0096899 0.00033937 
0.032071 0.027468 0.042265 0.044731 -0.034023 0.016123 0.0098754 0.035195 
0.042265 -0.017746 -0.0039354 0.053938 -0.046847 0.02533 0.025988 0.028619 
0.034866 -0.065426 -0.006566 0.053445 -0.039284 0.044567 0.043745 0.030592 
0.030756 -0.063946 0.012506 0.029605 -0.051122 0.025988 0.031578 0.018918 
0.0421 -0.057699 0.059364 0.053938 -0.044052 0.012999 0.017438 0.029934 
0.065447 0.021549 0.064625 0.027961 -0.062302 0.022042 0.00033937 0.018754 
0.076627 0.054103 0.05476 0.0056006 -0.074633 0.0098754 0.0072447 0.0324 
0.054267 0.0786 0.065283 -0.016431 -0.058356 0.036839 0.036182 0.032236 
0.015794 0.13023 0.055418 0.02533 -0.064768 0.038977 0.035853 0.033387 
-0.0077169 0.11757 0.060022 0.009711 -0.06148 0.030263 0.058871 0.035524 
-0.001798 0.049828 0.033551 0.019083 -0.06 0.021384 0.043416 0.03092 
0.016452 0.013986 0.036346 0.027796 -0.03616 0.036182 0.022371 0.025659 
-0.0047575 0.066434 0.012506 0.041936 -0.052109 0.028783 0.021713 0.01826 
-0.031064 0.13795 0.012999 0.021384 -0.050464 0.032071 0.037168 0.043416 
-0.021363 0.11066 0.00033937 0.025001 -0.058028 0.026974 0.050814 0.027961 
0.016616 0.064132 0.007738 0.066598 -0.040928 0.033058 0.031085 0.033222 
0.039799 0.039634 0.01152 0.031742 -0.056877 0.035195 0.024344 -0.0027845 
0.062159 0.035031 0.013986 0.02533 -0.059507 0.041772 0.012342 0.041443 
0.055254 0.023686 0.068571 0.0075736 -0.072332 0.0098754 -0.024158 0.037826 
0.074654 0.093891 0.0087245 0.031249 -0.069372 0.011191 -0.0073881 0.031742 
0.060186 0.10507 0.043416 0.015137 -0.0771 0.007738 0.012835 0.018589 
0.022042 0.048348 0.030756 0.0085601 -0.066906 0.046211 0.06035 0.035853 
-0.017911 0.013657 0.0093821 0.049664 -0.016595 0.037661 0.065118 0.048019 
0.025166 -0.013143 0.012177 0.065118 -0.035996 0.032071 0.047197 0.041278 
0.020069 -0.016431 -0.047669 0.043745 -0.042737 0.030756 0.038483 0.040128 
-0.0026201 -0.0095255 -0.0049219 0.032564 -0.051287 0.0324 0.034044 0.030427 
-0.010512 0.016781 0.024344 0.02681 -0.041751 0.040292 0.036346 0.025988 
-0.01232 0.038812 0.086657 0.035031 -0.073976 0.032236 0.024015 0.013164 
0.012013 0.036182 0.066927 0.0011614 -0.079072 0.009711 0.018096 0.014808 
0.052952 0.071859 0.058049 0.016452 -0.071509 0.025659 0.01152 -0.00081153 
0.068242 0.082217 0.066269 0.029769 -0.063289 0.011684 0.010369 0.012506 
0.081067 0.058213 0.087314 0.029276 -0.069536 0.022206 0.036839 -0.0059084 
0.029441 0.022042 0.052952 0.020069 -0.063946 0.016616 0.01974 0.014479 
0.064625 0.0026412 0.019905 0.026317 -0.070194 -0.00081153 0.021549 -0.0052507 
0.079422 0.047033 0.024508 0.044731 -0.055726 -0.01528 0.013328 0.024344 
0.02122 0.079916 0.028125 -0.00097594 -0.071838 0.023522 0.012999 0.024673 
-0.071674 0.10129 0.041772 0.032071 -0.047998 0.023522 0.053938 0.018425 
-0.12281 0.12151 0.0021479 0.030427 -0.02794 0.041443 0.064461 0.048677 
-0.10521 0.1225 0.027468 0.058049 -0.03764 0.061501 0.06331 0.057555 
-0.02646 0.082875 0.031742 0.018589 -0.057041 0.034044 0.037826 0.048019 
0.074326 0.045224 0.047526 0.013492 -0.063453 0.0421 0.047855 0.031742 
0.11017 0.01267 0.038319 0.02533 -0.044052 0.029769 0.021878 0.025166 
0.11757 0.030427 -0.0042642 0.023851 -0.071016 -0.00031829 0.0069159 0.014972 
0.11 0.023686 0.016452 0.023522 -0.063618 0.00033937 0.0059294 0.028783 
0.12036 -0.023336 0.05476 0.022864 -0.061809 0.0075736 -0.0019624 0.0067515 
0.14913 -0.045532 0.095699 0.032893 -0.058028 0.013821 -0.013471 0.027468 
0.15127 -0.018075 0.045882 0.0324 -0.061645 0.01563 0.0031344 0.015465 
0.075312 0.041772 0.030427 0.030592 -0.060823 -0.014458 0.057227 0.024344 
-0.012978 0.059528 0.020069 0.032564 -0.049149 0.013986 0.061666 0.028947 
-0.05441 0.025495 0.027303 0.03947 -0.052602 0.03651 0.056898 0.049499 
-0.041586 0.071202 0.033551 0.025824 -0.057041 0.037497 0.049664 0.037826 
-0.020706 0.082382 -0.00097594 0.014643 -0.062302 0.0088889 0.029934 0.03799 
0.024673 0.11806 -0.0014692 0.016945 -0.039778 0.010533 0.01415 0.030756 
0.086163 0.15653 0.033222 0.03651 -0.059507 0.0074092 -0.0070593 0.018589 
0.072681 0.12414 0.048348 0.016616 -0.053424 0.026481 0.023357 0.014972 
0.051965 0.024344 0.03092 0.022535 -0.059836 0.031578 0.017274 0.01415 
0.067585 -0.10653 0.047855 0.024015 -0.029584 0.023193 0.051143 0.030592 
0.10244 -0.15799 0.052623 0.038155 -0.060165 0.0018191 0.0062583 0.019576 
0.051965 -0.15931 0.069558 -0.00097594 -0.078415 0.03388 -0.0077169 0.053774 
0.011355 -0.088608 0.044731 0.017603 -0.066413 0.035195 0.035853 0.022042 
0.0032988 -0.033201 0.014808 0.037332 -0.052109 0.025659 0.039963 0.044896 
0.0087245 -0.0014692 0.019411 0.03536 -0.050136 0.015794 0.034044 0.036675 
-0.008539 0.05213 0.032071 0.041772 -0.041257 0.021713 0.032893 0.04095 
0.0060938 0.099481 0.052952 0.020727 -0.057699 0.026481 0.007738 0.043745 
0.010204 0.17347 0.016616 0.038977 -0.050793 0.038977 -0.017253 0.020727 
-0.055232 0.19698 0.023851 0.028783 -0.05885 0.013657 0.0039565 0.034209 
-0.12642 0.24367 0.026481 0.027303 -0.058192 0.01563 0.013821 0.024015 
-0.085978 0.25189 0.030427 0.068736 -0.012649 0.041936 0.03947 0.033222 
0.049992 0.17462 0.020727 0.060186 -0.047998 0.033551 0.068571 0.019576 
0.16771 0.030592 0.0060938 0.028125 -0.052437 0.035853 0.040292 0.037661 
0.17347 -0.061809 0.005765 0.020233 -0.060987 0.018096 0.0052718 0.025166 
0.16771 -0.058028 0.035195 0.01974 -0.052437 0.01267 0.0044497 0.025001 
0.15538 -0.093705 0.075148 0.034537 -0.065426 -0.00031829 0.0060938 0.024673 
0.10589 -0.090253 0.060186 0.0041209 -0.06707 0.022535 0.01267 0.063145 
0.073339 -0.05885 0.040785 0.020891 -0.055068 0.024179 0.029934 0.036182 
0.047691 0.016781 0.01711 0.041936 -0.043888 0.032564 0.024179 0.036675 
0.005765 0.078929 0.032236 0.031085 -0.063782 0.0018191 0.020727 -0.0064016 
-0.056712 0.13269 0.014315 0.018918 -0.063618 -0.00081153 0.044896 0.018589 
-0.065919 0.098494 0.0047785 0.029441 -0.048163 0.018754 0.043745 0.031085 
-0.078086 0.054596 0.044731 0.035688 -0.052273 0.036017 0.059364 0.023686 
-0.063618 0.020727 0.071202 0.0085601 -0.062302 0.029441 0.06742 0.040128 
-0.020541 0.03651 0.077121 0.033715 -0.046683 0.033551 0.061337 0.041772 
0.026152 0.041443 0.017767 0.0088889 -0.03353 0.035524 0.038977 0.056404 
0.033715 0.058377 -0.0044286 0.045882 -0.051287 0.043909 0.014643 0.046046 
0.038977 0.095699 0.01004 0.016452 -0.065097 0.01004 0.0080668 0.055254 
0.044567 0.076299 0.048019 0.01267 -0.070359 0.0056006 0.016123 0.025988 
0.038155 0.073175 0.051636 0.0087245 -0.058356 -0.0073881 0.02829 0.035853 
0.033715 0.08304 0.038155 0.021878 -0.070687 0.036675 0.037332 0.020891 
0.041278 0.040128 0.035031 0.0095465 -0.072496 0.030592 0.050486 0.026646 
0.030592 0.0082312 0.030098 0.030592 -0.055068 0.022535 0.039963 0.01826 
0.022535 0.0046141 0.042265 0.041936 -0.049807 0.012342 0.024673 0.023851 
0.011191 0.005765 -0.0060728 0.026974 -0.060165 0.034866 0.0092177 0.031742 
0.026481 0.059035 0.01826 0.013821 -0.064933 0.040456 0.0023123 0.016452 
0.038155 0.070873 0.025166 0.010204 -0.064111 0.024015 0.021549 0.010862 
0.028125 0.054925 0.048019 0.052294 -0.049971 0.013821 0.021713 0.0075736 
0.044073 0.050814 0.062323 0.034537 -0.057699 0.012342 0.020233 0.023028 
0.044238 0.037332 0.045224 0.020891 -0.064111 0.022864 0.027303 0.011848 
0.040128 0.042429 0.031085 0.031907 -0.031886 0.038483 0.022371 0.021713 
0.042265 0.033715 0.024344 0.052952 -0.049807 0.021549 0.0092177 0.01152 
0.055089 -0.01117 0.07597 0.021713 -0.06296 0.020562 0.015465 0.031907 
0.084026 -0.0072237 0.043251 0.028454 -0.05737 0.027961 0.0227 0.034702 
0.065612 0.0085601 0.035195 0.036017 -0.036325 0.019905 0.032729 0.040456 
0.074161 0.039141 0.023686 0.036182 -0.060823 0.03388 0.011684 0.036017 
0.037826 0.082217 0.053445 0.028454 -0.057534 0.028454 0.023686 0.033387 
-0.017253 0.11214 0.04506 0.017932 -0.060658 0.017274 0.044402 0.040292 
-0.0039354 0.11362 0.011191 0.041114 -0.049807 0.011848 0.033387 0.033058 
0.045224 0.057391 0.016123 0.025001 -0.067564 0.017767 0.014808 0.020891 
0.061995 0.041772 0.031249 0.02681 -0.05589 0.017767 0.021549 0.0088889 
0.06331 0.051636 0.043909 0.016123 -0.064604 0.011355 0.030427 0.025824 
0.042923 0.052623 0.012835 0.03388 -0.062631 0.00066819 0.015137 0.034044 
0.048019 0.049664 0.0079024 0.018425 -0.062138 0.018096 0.013328 0.03388 
0.028947 0.040456 0.028454 0.021056 -0.052931 0.05476 0.027632 0.041278 
0.013821 0.057884 0.048841 0.023522 -0.034023 0.026646 0.024508 0.036182 
0.041278 0.058542 0.020398 0.052294 -0.05441 0.009711 0.014972 0.01152 
0.034373 0.0046141 0.0083956 0.029934 -0.052766 0.019576 0.039799 0.035195 
-0.0036066 -0.0059084 0.01415 0.011848 -0.060329 0.029769 0.071366 0.033387 
-0.032543 0.0069159 0.01152 0.05213 -0.022679 0.057227 0.073175 0.042758 
-0.011334 0.015465 0.042758 0.049664 -0.051944 0.033715 0.044567 0.049664 
0.0074092 0.019083 0.03947 0.024837 -0.06707 0.026152 -0.01676 0.030427 
0.06035 0.053938 0.048348 0.013986 -0.067235 0.0067515 -0.0064016 0.026646 
0.05476 0.05213 0.061666 0.037168 -0.053588 0.016616 0.004943 0.013328 
0.050814 0.057391 0.055911 0.012013 -0.070852 0.031578 0.01826 0.030263 
0.049499 0.048348 0.057884 0.036017 -0.050629 0.024015 0.031742 0.011026 
0.063639 0.059035 0.019905 0.025988 -0.055232 0.021878 0.020233 0.031742 
0.05476 0.038483 0.023522 0.048348 -0.047834 0.031907 0.01974 0.020398 
0.048677 -0.023172 0.025988 0.019247 -0.061973 0.044073 0.0072447 0.03092 
0.053609 -0.044874 0.048184 0.0085601 -0.065426 0.041607 0.015465 0.01826 
0.037168 -0.061809 0.023357 0.020233 -0.038956 0.024344 0.033222 0.041772 
0.037004 -0.039778 0.017767 0.052952 -0.047998 0.0042853 0.047033 0.024508 
0.018918 -0.0022913 0.021549 0.021878 -0.05737 0.0039565 0.051472 0.016781 
-0.02087 0.059364 0.010862 0.04917 -0.035503 0.022535 0.066434 0.027139 
-0.041422 0.10228 -0.0059084 0.055254 -0.019884 0.027139 0.056569 0.035031 
0.0026412 0.14617 0.034044 0.018096 -0.067564 0.024837 0.011355 0.022206 
0.0227 0.20602 0.062652 -0.0024557 -0.077264 0.016616 0.0065871 0.032893 
-0.029913 0.27376 0.026317 0.015959 -0.066413 0.022535 0.0227 0.023686 
-0.012485 0.24482 0.019576 0.046375 -0.046519 0.034044 0.03651 0.013492 
-0.03912 0.19106 0.0065871 0.046046 -0.05326 0.020891 0.052787 0.0067515 
-0.066906 0.13269 0.0092177 0.043909 -0.041586 0.019905 0.073504 0.031085 
-0.088115 0.0079024 0.012013 0.039634 -0.049478 0.011848 0.086985 0.064461 
-0.031392 -0.10061 0.074161 0.049006 -0.049971 0.042265 0.055582 0.038319 
0.040128 -0.12478 0.067091 0.0056006 -0.065591 0.047197 0.0046141 0.050157 
0.089945 -0.14698 0.052294 0.0032988 -0.074798 0.01415 0.010533 0.016616 
0.10852 -0.093048 0.05213 -0.013143 -0.063946 0.016945 0.00033937 0.036675 
0.10524 -0.023665 0.048348 0.025824 -0.067235 0.0087245 -0.008539 0.017603 
0.087314 0.081395 0.068078 0.038648 -0.050136 0.026646 -0.0004827 0.015959 
0.08863 0.12957 -0.0042642 0.02829 -0.05178 0.024344 0.011684 0.027303 
0.068736 0.13582 -0.024158 0.053281 -0.031064 0.027796 0.022371 0.030098 
0.049499 0.11905 -0.020541 0.054267 -0.04471 0.043745 0.031578 0.051801 
0.02681 0.094548 0.0054362 0.033387 -0.051451 0.029276 0.032893 0.028947 
0.014479 0.069064 0.0087245 0.018918 -0.063946 0.031085 0.039305 0.03388 
0.009711 0.045553 0.013492 0.04654 -0.056877 0.023686 0.024673 0.024673 
0.0042853 -0.0087034 0.031249 0.01563 -0.079566 0.016123 0.0019835 0.029441 
0.0052718 -0.045203 0.03651 0.016945 -0.069372 0.017274 0.013821 0.016288 
0.0080668 -0.07266 0.043745 0.015794 -0.049807 0.021713 0.029441 0.024344 
0.016123 -0.053753 0.017438 0.043087 -0.055232 0.024179 0.025166 0.017932 
0.048841 0.022371 0.0083956 0.013328 -0.064111 0.016123 0.034537 0.037497 
0.038483 0.098001 0.038977 0.020562 -0.06148 -0.0047575 0.022864 0.040785 
0.02829 0.12776 0.072846 0.021713 -0.038133 0.016123 0.029605 0.031085 
0.012506 0.14667 0.076627 0.021713 -0.06296 0.047855 0.021878 0.038155 
0.03536 0.10885 0.060186 0.015301 -0.06444 0.024179 0.025659 0.016288 
0.0075736 0.073504 0.069393 0.0085601 -0.069536 0.024837 0.027632 0.013821 
-0.037147 0.08715 0.061666 0.030756 -0.05737 0.014643 0.032236 0.014315 
-0.0078813 0.058706 0.062159 0.017932 -0.067564 0.0036276 0.025166 0.021384 
0.078436 0.030756 0.013821 0.023357 -0.05885 0.029934 0.029934 0.024508 
0.16459 0.015301 0.0093821 0.029276 -0.05589 0.020562 -0.0027845 0.048841 
0.18711 0.0042853 0.0083956 0.069064 -0.033365 0.017767 -0.006566 0.026152 
0.16475 0.026152 0.031249 0.042594 -0.050958 0.024015 -0.0088678 0.052787 
0.10672 0.044073 0.0085601 0.0070803 -0.059178 0.041443 -0.027282 0.039963 
0.0786 0.033387 -0.0011404 -0.0004827 -0.058356 0.024508 0.0093821 0.035031 
0.063968 -0.0098543 0.028947 0.035031 -0.071181 0.014643 0.0095465 0.012999 
0.020398 -0.011334 0.058213 0.0036276 -0.078744 -0.0047575 0.037826 0.0088889 
-0.035667 0.041443 0.059364 0.005765 -0.073482 0.012177 0.067749 0.012342 
-0.048492 0.034537 -0.00031829 0.025824 -0.034681 0.025001 0.070051 0.03651 
-0.016595 0.024015 0.0011614 0.03536 -0.061316 0.059693 0.060515 0.05624 
0.048348 -0.010019 0.00083261 0.026646 -0.06 0.029276 0.027139 0.048019 
0.094548 -0.01676 0.056898 0.032236 -0.050958 0.026152 0.014315 0.031907 
0.056733 -0.0098543 0.079422 0.034537 -0.047669 -0.00081153 -0.0034422 0.014808 
-0.0013048 0.024344 0.067091 0.0056006 -0.077428 0.020891 0.020398 0.023522 
-0.069536 0.036675 0.049006 0.0090533 -0.075949 -0.00064712 0.01974 0.017274 
-0.068714 0.038648 0.038648 0.010533 -0.068057 0.0016547 0.036017 0.038155 
-0.034188 0.042594 0.073668 0.051308 -0.05589 0.030592 0.058542 0.03092 
0.0014903 0.04506 0.052294 0.01267 -0.069208 0.014643 0.038483 0.034866 
0.04917 0.081724 0.03799 0.0083956 -0.068221 0.04654 0.056404 0.03947 
0.053609 0.057884 0.03651 0.018589 -0.039449 0.029112 0.034702 0.035688 
0.088301 0.062323 0.089287 0.034209 -0.056877 0.01711 0.026317 0.042758 
0.072024 0.038319 0.054267 0.019905 -0.063124 0.023028 0.016781 0.031907 
0.053774 0.044402 0.027632 0.018096 -0.062302 0.025988 0.013328 0.026481 
0.03947 0.076956 0.026317 0.042923 -0.037805 0.012342 0.012999 0.015794 
0.024179 0.075805 0.039305 0.049006 -0.048985 0.026317 0.02533 0.031578 
0.018918 0.072353 0.055747 0.027632 -0.047176 0.035688 0.040128 0.018589 
0.0041209 0.030263 0.03651 0.032236 -0.05178 0.0092177 0.035688 0.033387 
0.0072447 -0.010512 0.048513 0.049664 -0.045203 0.027303 0.048184 0.028454 
0.052787 0.0024767 0.053609 0.017274 -0.067564 0.025824 0.011848 0.023851 
0.085999 1.0539e-005 0.071859 0.021056 -0.058192 0.021056 -0.0014692 0.00017495 
0.062981 0.005765 0.052787 0.030756 -0.048492 0.0087245 0.012342 0.021549 
-0.017088 0.016452 0.019576 0.060022 -0.039449 0.023851 0.064132 0.018918 
-0.053753 0.038319 0.014972 0.029769 -0.056055 0.040128 0.07301 0.024673 
-0.059836 0.086492 0.031414 0.023522 -0.05885 0.032729 0.066598 0.030756 
-0.039284 0.10655 0.038648 0.01415 -0.035174 0.022042 0.051472 0.035031 
-0.0087034 0.13368 0.023522 0.051472 -0.052437 0.020398 0.01711 0.029112 
0.034209 0.1391 0.00050378 0.0082312 -0.067399 0.0062583 0.015137 0.022371 
0.068078 0.17429 0.015301 0.016123 -0.064933 0.024179 0.011355 0.020562 
0.051308 0.23693 0.01152 0.036346 -0.040764 0.016945 0.034209 0.019411 
0.041114 0.30845 0.0047785 0.045553 -0.053095 0.014643 0.027468 0.020727 
0.045224 0.19139 0.0083956 0.033387 -0.047505 0.028619 0.03092 0.040621 
0.035195 -0.027118 0.01267 0.025824 -0.051451 0.038648 0.01415 0.041114 
0.047197 -0.16884 0.034373 0.062817 -0.03205 0.04095 0.012999 0.026481 
0.011191 -0.19087 0.040785 0.044731 -0.050793 0.034044 0.042758 0.055747 
-0.009361 -0.10045 -0.015773 0.040292 -0.04471 0.012013 0.037661 0.027303 
-0.026296 -0.030242 -0.01232 0.053116 -0.026296 0.030263 0.05624 0.031578 
-0.036325 0.0075736 0.0064227 0.051965 -0.047669 0.039141 0.045224 0.01974 
0.009711 0.041443 0.028783 -0.0031133 -0.070852 0.036346 0.025495 0.012835 
0.058706 0.047855 0.066434 -0.0073881 -0.079072 0.01563 0.017932 0.018918 
0.09126 0.073997 0.056898 0.013821 -0.043888 0.0092177 0.0079024 0.013986 
0.087808 0.08863 0.047033 0.051308 -0.060987 0.012177 -0.0027845 0.021384 
0.033222 0.082053 0.026481 0.030098 -0.059507 0.037661 0.017274 0.01711 
0.00033937 0.1008 0.029441 0.033387 -0.047505 0.031414 0.046868 0.025001 
-0.035503 0.11378 0.013657 0.055747 -0.025638 0.021384 0.063968 0.029276 
-0.016266 0.082711 -0.0096899 0.020069 -0.066413 0.045389 0.065776 0.050979 
0.037332 0.086985 0.020398 0.011684 -0.068057 0.025166 0.012835 0.022371 
0.083862 0.063639 0.017603 -0.017088 -0.080552 0.03947 -0.014951 0.047197 
0.094713 0.043909 0.03651 0.049499 -0.047176 0.022864 -0.006566 0.018425 
0.094877 0.022042 -0.0031133 0.023028 -0.046683 0.019411 -0.0031133 0.041607 
0.092576 0.0062583 -0.0067304 0.0421 -0.047669 0.010862 0.0080668 0.029276 
0.095042 0.026317 0.007738 0.037661 -0.037476 0.047033 0.0054362 0.021549 
0.070051 0.019905 0.034702 0.04358 -0.05885 0.037168 0.01974 0.025988 
0.034044 0.027961 0.020891 0.0042853 -0.070523 0.023686 0.017274 0.029769 
-0.010019 0.031085 0.025659 0.0037921 -0.070194 0.013821 0.035853 0.024508 
-0.033694 0.016288 0.021384 0.0075736 -0.052766 0.016452 0.033715 0.030592 
-0.017417 0.015301 0.026152 0.044896 -0.060494 0.058213 0.044402 0.033551 
0.014643 0.0059294 0.040621 0.012999 -0.063453 0.036182 0.041772 0.027632 
0.045718 0.027632 0.022042 0.010204 -0.063289 0.022864 0.045224 0.031907 
0.0227 0.029769 0.010204 0.04654 -0.031886 0.033058 0.043087 0.030263 
0.0026412 0.071531 -0.0067304 0.058213 -0.059507 0.018425 0.071695 0.027303 
0.015137 0.080738 0.02829 0.029769 -0.056055 0.042265 0.050486 0.036839 
0.067091 0.020891 0.044238 0.0056006 -0.068057 0.023028 0.032729 0.049006 
0.1054 -0.0064016 0.0592 0.032893 -0.059343 0.019083 0.023522 0.018589 
0.12579 -0.016102 0.070051 0.016452 -0.07003 0.0046141 0.012835 0.032564 
0.11987 -0.016924 0.06594 0.021549 -0.066577 0.010204 -0.015116 0.0227 
0.12694 -0.024652 0.084848 -0.0021268 -0.062302 0.020233 0.00083261 0.027303 
0.086985 0.023686 0.037661 0.047197 -0.060165 0.012177 0.01974 0.01974 
0.049828 0.019247 0.030098 0.0095465 -0.074304 0.0054362 0.0093821 0.024673 
0.0024767 0.030756 0.016945 0.0227 -0.057041 0.01711 0.018918 0.029276 
-0.013471 0.041772 0.016616 0.038483 -0.026131 0.030263 0.029769 0.033715 
-0.022021 0.0014903 0.051965 0.056898 -0.05326 0.022371 0.03388 0.047197 
-0.044874 0.045553 0.053445 0.019411 -0.066741 0.0087245 0.022371 0.023357 
-0.028433 0.028619 0.053281 0.00017495 -0.077428 0.0031344 0.031742 0.026974 
-0.03764 0.036017 0.032729 0.037497 -0.048163 0.019576 0.051143 0.015794 
-0.0070593 0.020233 0.048184 0.030756 -0.058685 0.041443 0.0689 0.029769 
0.040292 -0.0021268 0.0324 0.0075736 -0.063453 0.029441 0.066105 0.0039565 
0.088958 0.023028 0.041772 0.016288 -0.063618 0.021056 0.044238 0.019083 
0.092576 0.028125 0.024344 0.03799 -0.056877 -0.0004827 0.0070803 0.02122 
0.080244 0.042429 0.042429 0.0227 -0.065097 0.0075736 -0.0040998 0.027796 
0.068078 0.061501 0.05772 0.026974 -0.056548 0.015137 -0.020541 0.042429 
0.026481 0.05772 0.018754 0.022371 -0.048327 0.01415 0.015794 0.047691 
0.030263 0.084519 0.014479 0.05624 -0.055068 0.019411 -0.0032777 0.033551 
0.037004 0.047033 0.048513 0.024344 -0.063618 0.0095465 0.027796 -0.0029489 
0.056733 0.039963 0.07449 0.011848 -0.067235 0.0088889 0.026481 0.013328 
0.017603 0.066763 0.004943 0.016616 -0.049314 0.0087245 0.040785 0.0079024 
-0.0047575 0.092082 0.021713 0.019247 -0.077593 0.0074092 0.030756 0.032729 
-0.027282 0.10277 0.028619 0.012177 -0.071509 0.019411 0.044073 0.049006 
0.031907 0.080738 0.028125 0.02681 -0.054246 0.019083 0.032071 0.056076 
0.038812 0.058706 0.04654 0.076627 -0.028762 0.039799 0.046046 0.042923 
0.049664 0.033222 0.019411 0.049006 -0.042901 0.019576 0.04095 0.037004 
0.05624 0.014972 0.02681 0.045224 -0.043395 0.012013 0.025166 0.030098 
-0.0016336 0.027961 0.016123 0.024673 -0.06 0.01152 0.028125 0.044238 
-0.0138 0.046046 0.033222 0.054267 -0.045368 0.0421 0.031742 0.05065 
-0.0073881 0.051801 -0.012814 0.039634 -0.051615 0.072024 0.018589 0.021549 
0.021384 0.0227 -0.0014692 0.0227 -0.057205 0.048677 0.0019835 0.018425 
0.014479 0.0060938 0.03799 0.0016547 -0.06 0.018425 0.017767 -0.023665 
0.034537 -0.006566 0.058049 0.050321 -0.058521 0.01267 0.022371 -0.0014692 
0.023851 0.050486 0.061501 0.031085 -0.059836 0.019576 0.015301 0.016123 
0.035853 0.07449 0.026481 0.025659 -0.053588 0.041114 0.021713 0.04506 
0.049664 0.077943 0.025001 0.026646 -0.040764 0.00083261 0.012177 0.016288 
0.071366 0.048513 0.039963 0.036839 -0.059178 -0.0021268 0.0083956 0.020562 
0.048513 0.042265 0.052459 0.016781 -0.066577 -0.0073881 0.0080668 0.01152 
0.011355 0.087808 0.013164 0.031742 -0.0503 0.0227 0.047197 0.034373 
-0.0011404 0.11033 -0.010348 0.049828 -0.026624 0.044567 0.051965 0.028947 
0.024837 0.075476 0.0059294 0.048513 -0.051122 0.040456 0.017767 0.035031 
0.022371 0.059693 0.046211 0.010862 -0.065591 0.015301 0.011191 0.026974 
-0.017253 0.10162 0.047691 -0.010841 -0.083183 -0.018733 0.017274 0.02533 
-0.051944 0.13894 0.030592 0.028125 -0.063618 0.028947 0.046704 0.032071 
-0.056712 0.1567 0.02533 0.022206 -0.059343 0.036839 0.058542 0.020069 
-0.015773 0.098823 0.026152 0.022206 -0.055726 0.026974 0.064461 0.030592 
0.0092177 0.055747 0.064296 0.017274 -0.043724 0.025824 0.050979 0.03092 
0.056569 -0.028269 0.025659 0.044238 -0.0503 0.027632 0.056404 0.047362 
0.12036 -0.077593 1.0539e-005 0.036675 -0.041751 0.047362 0.029441 0.038155 
0.18563 -0.075949 -0.0034422 0.044073 -0.043888 0.034373 -0.0050863 0.022864 
0.15045 -0.029584 0.0085601 0.031907 -0.033037 0.019083 -0.013965 0.016123 
0.05065 0.059528 0.030263 0.025001 -0.058521 -0.001798 -0.0091966 0.015301 
-0.016924 0.088794 0.0023123 0.019411 -0.057699 0.024508 0.026152 0.016288 
-0.077593 0.069558 0.020069 0.041114 -0.044217 0.038977 0.07301 0.037168 
-0.09091 0.077943 0.045882 0.047362 -0.026789 0.027468 0.083697 0.03388 
-0.082361 0.062488 0.085999 0.024015 -0.070359 0.023357 0.079751 0.0227 
-0.038791 0.013164 0.073175 0.019083 -0.062796 0.01826 0.053774 0.049828 
0.014808 -0.00081153 0.025166 0.03651 -0.048656 0.029605 0.018918 0.040128 
0.052459 -0.026953 0.023028 0.043251 -0.053917 0.024015 0.023686 0.02681 
0.089452 0.0082312 0.027468 0.024179 -0.069043 0.016288 0.011848 0.018918 
0.083862 0.074161 0.072188 0.030098 -0.068057 0.0037921 0.022042 0.013164 
0.067913 0.090274 0.032236 0.005765 -0.06707 0.013657 0.013492 0.021713 
0.070873 0.096521 0.04095 0.021549 -0.069701 0.025988 0.021056 0.023851 
0.063145 0.11329 0.064461 1.0539e-005 -0.076442 0.009711 0.011848 0.011848 
0.041114 0.11494 0.07038 0.01152 -0.070687 0.010204 0.0013258 0.034537 
0.01415 0.14913 0.036182 0.022864 -0.038627 0.018589 0.039963 0.025001 
0.025001 0.091918 -0.0013048 0.03947 -0.059014 0.034537 0.051636 0.051965 
0.027303 0.056569 0.0087245 0.037661 -0.050958 0.047855 0.024344 0.03536 
0.012835 0.054267 0.0052718 0.033222 -0.049314 0.034209 0.028947 0.041607 
0.013328 0.039141 0.020562 0.046046 -0.037147 -0.012814 0.012999 0.032729 
0.030263 0.033058 -0.0054151 0.046868 -0.05326 0.025659 0.02829 0.021056 
0.026974 -0.013307 0.023522 0.033058 -0.056712 0.02533 0.04358 0.031907 
0.031578 -0.03353 0.046375 0.0227 -0.06296 0.03799 0.046704 0.013164 
0.00017495 0.014808 0.090438 0.025495 -0.072989 0.011848 0.059857 0.025659 
-0.00081153 0.04917 0.0689 0.0060938 -0.083347 0.0026412 0.03651 0.021713 
0.020069 0.051143 0.035853 0.011355 -0.068386 0.0016547 0.026317 0.027468 
0.052623 0.044402 0.038812 0.022371 -0.055232 0.027303 0.012177 0.025166 
0.073832 0.018096 0.044073 0.06594 -0.043395 0.037826 0.0036276 0.039305 
0.055089 0.039305 0.055582 0.029276 -0.052602 0.023193 0.021384 0.042429 
0.039799 0.047197 0.0080668 0.028783 -0.059014 0.011026 0.026481 0.035524 
0.049828 0.054432 0.010697 0.016616 -0.050136 0.017438 0.040292 0.014972 
0.071202 0.084026 0.0016547 0.054596 -0.05178 0.022864 0.016288 0.027961 
0.1419 0.028619 0.038812 0.020727 -0.059672 0.012342 0.00083261 0.031578 
0.17133 -0.024487 0.069229 0.01974 -0.063453 0.0092177 -0.023007 0.017603 
0.13812 -0.031721 0.067749 0.024673 -0.05178 0.0021479 -0.0096899 0.031414 
0.027632 -0.016102 0.055254 0.028947 -0.065262 0.0046141 0.042758 0.015465 
-0.085649 0.0082312 0.048348 0.043087 -0.047669 0.0592 0.075641 0.041936 
-0.12462 0.051636 0.030098 0.039963 -0.046025 0.033715 0.073832 0.04654 
-0.080552 0.049664 -0.0078813 0.057555 -0.038791 0.019083 0.057391 0.055089 
-0.012156 0.016123 0.01974 0.028619 -0.062138 0.022535 0.014972 0.033222 
0.055254 0.024837 0.043745 0.0093821 -0.07003 0.0087245 -0.0042642 0.017603 
0.06035 0.060844 0.06594 0.0016547 -0.070852 0.020398 -0.026624 0.016616 
0.040292 0.078765 0.068571 0.060186 -0.051122 0.0041209 -0.0050863 0.030756 
-0.028104 0.10507 0.026152 0.020891 -0.063453 0.016781 0.031249 0.022864 
-0.10012 0.11855 0.022864 0.019083 -0.057041 0.029276 0.03536 0.044402 
-0.10637 0.17445 0.024508 0.030592 -0.028762 0.044731 0.048677 0.049006 
0.041278 0.23348 0.024837 0.075476 -0.02235 0.027139 0.029276 0.035688 
0.18613 0.20355 0.00066819 0.011848 -0.06444 0.017603 0.024837 0.023851 
0.17281 0.044402 0.0062583 0.037168 -0.049478 0.020233 0.019411 0.018589 
0.089452 -0.066577 0.044896 0.030263 -0.048656 0.024508 0.070215 0.017274 
0.033222 -0.14451 0.10178 0.02533 -0.054904 0.032564 0.066598 0.025659 
0.01563 -0.17443 0.091096 -0.00031829 -0.073647 0.026152 0.049992 0.032564 
0.016452 -0.17805 0.056404 0.00066819 -0.065097 0.026481 0.044402 0.036017 
-0.038298 -0.13004 0.025659 0.0421 -0.049314 0.019247 0.021384 0.048513 
-0.022185 -0.037805 0.029934 0.036017 -0.051615 0.020562 0.0082312 0.03947 
0.064461 0.033387 0.026317 0.034866 -0.051287 0.031085 -0.024323 0.029441 
0.15209 0.070708 0.0052718 0.04506 -0.034023 0.031414 -0.017911 0.01267 
0.11855 0.1368 0.014972 0.044567 -0.061316 0.016781 -0.016924 0.034044 
0.083368 0.14798 0.029276 0.0056006 -0.074633 0.010862 0.0019835 0.015301 
0.051143 0.1151 0.065447 0.0031344 -0.073976 0.029441 0.019905 0.043251 
0.010204 0.10885 0.074654 0.018589 -0.038791 0.026646 0.04917 0.031578 
-0.051944 0.14469 0.009711 0.042923 -0.056219 0.020891 0.070544 0.044238 
-0.083183 0.19961 -0.0022913 0.031742 -0.050464 0.033551 0.075641 0.041443 
-0.077922 0.22476 0.0054362 0.03388 -0.05326 0.02681 0.062981 0.035688 
-0.064768 0.20767 0.02829 0.03947 -0.043559 0.033715 0.05213 0.020069 
-0.038133 0.15028 -0.0060728 0.040128 -0.048327 0.028125 0.028783 0.013164 
-0.026789 -0.020377 -0.033859 0.049499 -0.037969 0.035195 0.052459 0.053774 
0.034537 -0.1478 -0.028433 0.029276 -0.045203 0.025988 0.047526 0.055911 
0.088794 -0.16539 0.0046141 0.057555 -0.042244 0.037497 0.027961 0.05624 
0.13039 -0.15733 0.066927 0.023193 -0.065097 0.042265 0.025824 0.020233 
0.11905 -0.085978 0.086985 -0.0016336 -0.076771 0.015465 0.024837 0.039141 
0.09981 -0.034352 0.062981 0.0065871 -0.05326 0.012013 0.018918 0.013492 
0.077449 0.0046141 0.07038 0.04095 -0.057041 0.0074092 0.012835 0.029769 
0.05772 0.058871 0.075805 0.0062583 -0.069865 0.019247 -0.0026201 0.0093821 
0.043416 0.094055 0.034044 0.026317 -0.060823 0.018918 0.0054362 0.010862 
0.017438 0.1128 0.011026 0.020891 -0.043395 0.027961 0.015465 0.024015 
0.026481 0.13121 0.018425 0.053281 -0.052602 0.029276 0.029112 0.020562 
0.053609 0.096357 0.035031 0.034209 -0.056383 0.023522 0.0088889 0.022042 
0.060515 0.10688 0.062981 0.020891 -0.060165 0.038648 -0.0004827 0.01711 
0.058871 0.087314 0.034702 0.023193 -0.055726 0.016288 0.0059294 0.041607 
0.033387 0.066763 0.022535 0.025988 -0.070194 0.0075736 0.011026 0.017932 
0.0085601 0.030098 0.0079024 0.037332 -0.0503 0.024837 0.038155 0.03799 
0.022371 0.005765 0.02122 0.053281 -0.035174 0.019083 0.056404 0.04095 
0.064954 -0.0078813 0.012506 0.074326 -0.031228 0.045718 0.04654 0.038977 
0.095699 -0.004593 0.026974 0.029934 -0.053753 0.02122 0.016945 0.029276 
0.052294 0.050321 -0.0022913 0.026481 -0.05326 0.025166 0.020727 0.037004 
-0.020541 0.11543 -0.011005 0.014808 -0.045368 0.023028 0.041278 0.022371 
-0.031392 0.13056 0.042758 0.028947 -0.073318 -0.02235 0.044731 0.011026 
-0.024323 0.063803 0.05772 -0.011663 -0.087458 0.026317 0.046868 0.00050378 
0.012506 0.026974 0.074654 -0.018733 -0.09239 0.015137 0.04506 0.018918 
0.012999 -0.0016336 0.074326 -0.0059084 -0.05885 0.010204 0.044731 0.016123 
-0.017417 0.054432 0.077121 0.02533 -0.076277 -0.0019624 0.049828 0.030427 
-0.037969 0.075805 0.023686 0.016945 -0.066084 0.017603 0.056076 0.038319 
0.0042853 0.058377 0.025495 0.028454 -0.05589 0.029605 0.031578 0.028947 
0.052952 0.025495 0.025166 0.055418 -0.039942 0.027632 0.021878 0.031249 
0.11033 -0.0098543 0.03799 0.044402 -0.049149 0.024015 -0.00081153 0.027632 
0.10359 -0.033694 0.062488 0.020398 -0.055561 0.037497 0.019905 0.047362 
0.091096 -0.024487 0.024179 0.029112 -0.050136 0.046046 0.0090533 0.030098 
0.070215 -0.0054151 0.022371 0.053774 -0.048656 0.023357 0.0079024 0.030756 
0.031742 0.028454 0.032729 0.018754 -0.058356 0.018918 0.0087245 0.0083956 
0.03799 0.013164 0.059857 0.014972 -0.061645 0.01711 0.021713 0.010533 
0.050979 -0.043888 0.04506 -0.011498 -0.04323 0.025166 0.011355 0.028783 
0.049335 -0.049807 0.042594 0.040128 -0.05885 0.02829 0.023686 0.015794 
-0.01528 -0.0050863 0.057227 0.015465 -0.064604 0.031249 0.035853 0.032564 
-0.03616 0.072353 0.051965 0.023193 -0.058356 0.019083 0.047033 0.024508 
-0.019884 0.12053 0.041607 0.051308 -0.04471 0.0060938 0.02681 0.033058 
-0.014951 0.089452 -0.00015387 0.038319 -0.05885 0.029441 0.024344 0.018754 
0.021713 0.043251 0.011026 0.025988 -0.051122 0.0090533 0.02122 0.031249 
0.03651 0.040128 0.020891 0.023028 -0.056548 0.014479 0.027632 0.033222 
0.06479 0.049828 0.049006 0.046704 -0.045039 0.01415 0.036346 0.027139 
0.068736 0.0786 0.038648 0.037332 -0.056877 -0.0083746 0.0421 0.037168 
0.032893 0.10885 0.044731 0.01004 -0.069536 0.023686 0.027961 0.031742 
-0.034681 0.15078 0.037004 0.015301 -0.071674 0.012999 0.024837 0.0227 
-0.035174 0.11872 0.041772 0.046211 -0.05178 0.019083 0.031578 0.034537 
-0.027118 0.072188 0.03651 0.040785 -0.047834 0.02829 0.025495 0.03651 
0.0047785 0.016452 -0.0036066 0.035524 -0.048163 0.025659 0.0074092 0.037168 
0.041936 -0.031886 0.010533 0.049006 -0.025309 0.043745 0.022371 0.036839 
0.047526 -0.080059 0.02533 0.051801 -0.051122 0.027139 0.03947 0.036182 
0.049992 -0.019884 0.046211 0.022535 -0.053588 0.025495 0.046046 0.032564 
0.029605 0.036346 0.03092 0.01563 -0.057534 0.015794 0.02122 0.037497 
-0.0078813 0.12776 0.01974 0.02829 -0.037805 0.025988 0.043745 0.029441 
-0.0052507 0.14157 0.026974 0.049006 -0.052273 0.038319 0.024673 0.020727 
0.013986 0.11083 0.0324 0.01826 -0.059178 0.047691 0.015137 0.05065 
0.036675 0.066269 0.033715 0.0074092 -0.058685 0.032564 0.025988 0.030098 
0.04654 0.03799 0.020398 0.045389 -0.043559 0.0042853 0.029276 0.022042 
0.072353 0.037004 0.017932 0.026317 -0.073482 0.023193 0.0034632 -0.001798 
0.063803 0.035195 0.038977 0.020562 -0.057863 0.011684 0.010204 0.0014903 
0.061666 0.037332 0.051965 0.047033 -0.042737 0.016288 0.016288 0.00099702 
0.034866 0.040785 0.01004 0.043909 -0.056383 0.017438 0.036346 0.013657 
0.030427 0.057555 -0.0024557 0.016288 -0.064933 0.0067515 0.031085 0.031249 
0.059364 0.046211 -0.0029489 0.038812 -0.056055 0.066434 0.042758 0.0041209 
0.062817 0.072353 0.03799 0.016452 -0.040106 0.026317 1.0539e-005 0.037497 
0.043909 0.042265 0.046704 0.050157 -0.060329 0.01826 0.018918 0.0093821 
0.04095 0.023193 0.0095465 0.022371 -0.059014 0.024344 0.0093821 0.044567 
0.046046 0.039634 0.0087245 0.02533 -0.056712 0.023028 0.0014903 0.031578 
0.048513 0.076463 0.014972 0.042265 -0.031721 0.038319 0.0085601 0.048184 
0.036017 0.12184 0.040128 0.035524 -0.045532 0.027139 0.030592 0.025988 
-0.0090322 0.10918 0.015301 0.032893 -0.049971 0.007738 0.054596 0.041772 
-0.082525 0.066269 0.026152 0.018425 -0.058192 0.018918 0.064132 0.021549 
-0.1062 0.026974 0.027632 0.044567 -0.052766 0.031742 0.042594 0.00297 
-0.10127 0.035524 0.040785 0.038812 -0.059178 0.038812 0.0421 0.034044 
-0.093048 0.071695 0.053116 0.035031 -0.054246 0.040128 0.019576 0.046868 
-0.05326 0.0592 0.03947 0.019905 -0.060494 0.024673 0.018589 0.029112 
0.016452 0.066434 0.045553 0.056076 -0.048656 0.033715 0.02122 0.032236 
0.11231 0.082711 0.051801 0.012835 -0.064768 0.031414 0.02533 0.041278 
0.19188 0.11378 0.067091 0.02681 -0.058192 0.027796 0.02681 0.0023123 
0.22131 0.11296 0.03651 0.015794 -0.042901 0.024015 0.02533 0.024673 
0.21753 0.085012 0.058049 0.019083 -0.084663 -0.010183 -0.003771 0.016616 
0.17643 0.030592 0.061501 0.004943 -0.075127 0.004943 0.0079024 0.036675 
0.13467 0.010204 0.061008 0.024837 -0.060165 0.044402 0.010369 0.032893 
0.080738 0.022371 0.062652 0.049992 -0.032215 0.028454 0.030756 0.047033 
0.039141 0.015465 0.007738 0.047526 -0.053588 0.020069 0.048677 0.035031 
-0.0022913 0.027796 0.0072447 0.045718 -0.039778 0.013821 0.036346 0.035524 
-0.036325 0.0016547 -0.00031829 0.034044 -0.046683 0.040128 0.057227 0.037661 
-0.059507 0.039799 -0.00081153 0.056898 -0.037147 0.052294 0.055747 0.039634 
-0.075784 0.061337 0.0075736 0.028619 -0.06148 0.017274 0.019083 0.012835 
-0.057041 0.067749 0.046704 0.031742 -0.056548 0.0047785 0.0095465 0.016288 
-0.025309 0.074326 0.055747 0.024179 -0.054739 0.014808 0.024015 0.0026412 
-0.018404 0.036346 0.075641 0.041607 -0.064933 0.021878 0.022864 -0.0054151 
0.056569 0.019411 0.080409 0.012013 -0.067399 0.020562 0.00083261 0.0062583 
0.11247 0.0011614 0.033058 0.0034632 -0.067728 0.011684 0.00050378 -0.00097594 
0.13253 -0.01528 0.045389 -0.0098543 -0.049642 0.017932 -0.0091966 0.028619 
0.079916 0.061337 0.023028 0.049664 -0.052109 0.017767 -0.0004827 0.033387 
-0.01676 0.12168 0.026317 0.025166 -0.059672 0.039305 0.050157 0.061995 
-0.055232 0.083368 0.0054362 0.029934 -0.053588 0.030592 0.062159 0.05065 
0.01267 -0.0080457 0.036182 0.040456 -0.027118 0.024673 0.051143 0.059528 
0.077614 -0.041422 0.070708 0.051308 -0.051615 0.020398 0.015301 0.043909 
0.09126 0.017438 0.085506 0.010204 -0.073482 0.01004 0.0059294 0.028454 
0.083533 0.081231 0.072024 -0.0026201 -0.078744 0.01826 0.020727 0.0085601 
0.039305 0.083533 0.018589 0.037661 -0.050464 0.020562 0.029769 0.018918 
0.028619 0.042594 -0.0083746 0.036346 -0.05737 0.0074092 0.045224 0.020069 
0.017767 0.011848 -0.0091966 0.046868 -0.040435 0.023193 0.068242 0.041772 
-0.0070593 0.026317 0.022042 0.043251 -0.044546 0.032893 0.065283 0.032893 
-0.022843 0.037826 0.021384 0.062159 -0.047669 0.034537 0.047855 0.0227 
0.0028056 0.0074092 0.021384 0.023028 -0.053917 0.005765 0.01711 0.03388 
0.057391 0.0067515 0.026317 0.029605 -0.061645 0.020398 0.00083261 0.013164 
0.090274 -0.006566 0.050321 0.005765 -0.040928 0.011848 -0.008539 0.022535 
0.086821 -0.015444 0.054103 0.039963 -0.05589 0.017767 -0.0024557 0.0067515 
0.053445 -0.026624 0.038483 0.01711 -0.059507 0.016945 0.0023123 0.022042 
0.028783 -0.0087034 0.029934 0.013821 -0.061809 0.017438 0.023686 0.014315 
-0.00097594 -0.0072237 0.031085 0.041114 -0.035338 0.011026 0.02681 0.035195 
-0.0013048 -0.0088678 0.036839 0.028783 -0.064111 0.024508 0.059857 0.027796 
0.00083261 0.01004 0.0074092 0.0324 -0.052437 0.037497 0.033715 0.033715 
0.012013 0.02533 -0.004593 0.026974 -0.052602 0.029934 0.024015 0.032564 
0.05772 0.040292 0.016616 0.044896 -0.047505 0.02533 0.016452 0.025659 
0.09833 0.05624 0.069064 0.011191 -0.08828 0.0032988 -0.0034422 0.041278 
0.094877 0.062817 0.07449 -0.010841 -0.08532 0.01563 -0.016266 0.020562 
0.079258 0.13384 0.051801 0.0046141 -0.069208 0.011848 0.013821 0.029276 
-0.020212 0.21983 0.0042853 0.047855 -0.058192 0.030098 0.049499 0.022206 
-0.12149 0.30039 -0.032543 0.034373 -0.044217 0.031578 0.11214 0.057227 
-0.14336 0.24104 -0.0083746 0.044238 -0.043395 0.069393 0.11987 0.049664 
-0.074469 0.06594 -0.0064016 0.035688 -0.023007 0.048348 0.077121 0.057884 
0.01004 -0.072332 0.0070803 0.055747 -0.045368 0.047033 0.046046 0.025988 
0.031085 -0.13152 0.041936 0.01563 -0.069372 0.0046141 0.024179 0.030098 
0.044896 -0.06444 0.075312 0.013492 -0.064604 -0.0082102 0.0052718 0.017932 
0.050486 -0.0091966 0.049499 0.038483 -0.043395 -0.0022913 0.016781 0.012835 
0.063968 0.030263 0.007738 0.035853 -0.067892 0.028454 0.012013 0.019247 
0.087808 0.031907 0.047526 0.02533 -0.055397 0.044402 0.022535 0.032893 
0.079094 0.041278 0.06742 0.0019835 -0.074469 0.038155 0.0047785 0.040621 
0.052459 0.047362 0.094713 0.0064227 -0.080388 0.019083 -0.017088 0.024673 
0.020727 0.064954 0.038648 0.0011614 -0.07973 0.0042853 0.0042853 0.034044 
0.011026 0.08715 0.004943 0.018096 -0.061645 0.035688 0.025824 0.032893 
0.033387 0.090603 0.013164 0.028454 -0.03501 0.039634 0.045389 0.046375 
-0.01676 0.090274 0.039963 0.057555 -0.032543 0.029112 0.045553 0.018425 
-0.045368 0.083862 0.017932 0.033387 -0.043888 0.027796 0.063968 0.052787 
0.011684 0.072846 0.017603 0.034702 -0.044217 0.043087 0.039634 0.037004 
0.057062 0.04095 0.0064227 0.048019 -0.025474 0.025988 0.0069159 0.045553 
0.075148 0.058377 0.0036276 0.094055 -0.040435 0.020727 0.020727 0.037168 
0.073339 0.018754 0.034209 0.02533 -0.060329 0.01974 0.0054362 0.0421 
0.064461 0.0042853 0.035524 -0.0013048 -0.070359 0.010862 0.0074092 0.02681 
0.045553 0.03799 0.057227 0.018096 -0.039613 -0.016102 0.017932 0.042923 
0.030756 0.025495 0.069558 0.0026412 -0.081703 0.0067515 0.024673 0.018918 
0.026317 0.053281 0.062652 0.013821 -0.067892 0.007738 0.036182 0.014972 
-0.0016336 0.081395 0.04095 0.016781 -0.065262 0.0041209 0.052952 0.038812 
-0.020048 0.095699 -0.02087 0.0786 -0.030077 0.013821 0.054103 0.03799 
0.0052718 0.093069 -0.021199 0.049335 -0.0503 0.027632 0.030263 0.041607 
0.025824 0.048513 0.031578 0.05624 -0.036325 0.019576 0.0070803 0.033058 
0.033551 0.02681 0.075641 0.02122 -0.038791 0.027961 0.041278 0.03799 
0.028619 0.037332 0.034702 0.038319 -0.06148 0.016781 0.04358 0.024344 
0.041443 0.021056 0.027961 0.015794 -0.062631 0.023686 0.025988 0.029112 
0.053116 0.020069 0.036675 0.020069 -0.06296 0.027303 0.01267 0.016452 
0.078272 0.0011614 0.048513 -0.0036066 -0.045203 0.018754 0.0042853 0.031578 
0.056569 0.005765 0.026974 0.037004 -0.062467 0.027632 0.011026 0.025824 
0.051801 0.025001 0.0062583 0.019905 -0.063124 0.00083261 0.0069159 0.018425 
0.056569 -0.00031829 0.026974 0.022371 -0.057699 0.034044 0.022371 0.026152 
0.086821 -0.009361 0.048348 0.043251 -0.046025 0.050486 -0.0034422 0.0052718 
0.084519 -0.0052507 0.074983 0.024673 -0.065097 0.026152 0.00099702 0.019083 
0.049664 0.03092 0.052787 0.011848 -0.061151 0.0067515 0.039963 0.023522 
-0.0059084 0.084684 -0.0062372 0.022206 -0.05737 0.012835 0.044896 0.038155 
-0.013143 0.12135 -0.036325 0.060679 -0.039778 0.027468 0.042265 0.035195 
0.023522 0.068242 0.0082312 0.039799 -0.052109 0.042758 0.030427 0.035688 
0.068078 0.061337 0.053116 0.013821 -0.066741 0.010533 0.023686 0.014479 
0.067091 0.072517 0.057555 0.011684 -0.043724 -0.011334 0.012342 0.01711 
0.0075736 0.12694 0.038155 0.043087 -0.057205 0.013821 0.032893 0.024344 
-0.010841 0.088958 0.031249 0.021878 -0.05737 0.034373 0.048184 0.036182 
0.0016547 -0.02235 0.053938 0.015465 -0.063782 0.015301 0.032236 0.01563 
0.055418 -0.075784 0.024344 -0.0047575 -0.05589 0.0044497 0.01826 0.016288 
0.095371 -0.097322 0.027961 0.03536 -0.063453 0.007738 0.0031344 0.015137 
0.12431 -0.080717 0.036675 0.025824 -0.061809 0.015137 0.017767 0.0051074 
0.11428 -0.014458 0.056733 0.022535 -0.058356 0.021713 -0.0040998 0.017274 
0.066105 0.08863 0.033058 0.044731 -0.042737 0.011684 0.012342 0.021384 
-0.014293 0.11658 0.02122 0.038977 -0.055726 0.011848 0.038812 0.034373 
-0.076771 0.16656 0.024508 0.032564 -0.054739 0.025166 0.056076 0.027796 
-0.080881 0.13154 0.037004 0.038977 -0.050958 0.033058 0.077121 0.054596 
-0.014458 0.10376 0.074161 0.046046 -0.049971 0.029605 0.0592 0.011848 
0.051472 0.063145 0.049335 -0.0019624 -0.069372 0.01974 0.043416 0.027796 
0.061172 0.029934 0.053445 0.010369 -0.072825 0.013328 0.024837 0.013328 
0.036017 0.027632 0.018589 0.027961 -0.037311 0.043909 0.0090533 0.025495 
0.017932 0.055254 0.03799 0.040456 -0.060987 0.026481 0.0067515 0.010862 
0.0039565 0.060186 0.04095 0.034537 -0.047834 0.019576 0.017767 0.014972 
0.022206 0.057062 -0.0016336 0.026974 -0.057863 0.01267 0.021713 0.036675 
0.027632 0.012342 -0.014129 0.040292 -0.020541 0.025166 0.040785 0.025001 
0.0051074 -0.031392 0.007738 0.056733 -0.042408 0.019411 0.033715 0.027303 
0.05772 -0.019061 0.026974 0.02681 -0.054082 0.035853 0.011684 0.0082312 
0.036017 0.011191 0.021056 0.025166 -0.056219 0.032564 0.020233 0.025824 
0.019411 -0.00097594 0.048348 0.027303 -0.054246 0.009711 0.035524 0.0070803 
0.057227 -0.0062372 0.065447 0.030756 -0.063782 -0.0004827 0.030427 0.022864 
0.06479 0.048841 0.056733 0.034373 -0.052273 0.027961 0.035031 0.024015 
0.096357 0.11806 0.041936 0.034373 -0.050958 0.043416 0.05624 0.048019 
0.072681 0.15012 0.017767 0.047691 -0.048327 0.027632 0.032236 0.034537 
0.049335 0.13812 0.028619 0.034044 -0.056383 0.02122 0.016781 0.031907 
0.026974 0.12266 0.046704 0.020891 -0.066084 0.048513 0.012835 0.011848 
0.00083261 0.15078 0.073504 0.027632 -0.040271 0.034702 0.025824 0.03388 
-0.041257 0.17429 0.044402 0.04358 -0.052931 0.050321 0.034373 0.037497 
-0.064275 0.16048 0.024837 0.01415 -0.066084 0.027796 0.033551 0.035195 
-0.043559 0.082546 0.039799 -0.0019624 -0.075291 -0.010676 0.036182 0.022042 
-0.022843 -0.006566 0.028125 0.017438 -0.051122 0.023193 0.03651 0.034044 
-0.0073881 -0.030406 0.009711 0.048184 -0.05178 0.034866 0.045224 0.043087 
-0.0036066 -0.032215 -0.033694 0.042758 -0.045039 0.021713 0.040456 0.035853 
0.01826 -0.041422 -0.020706 0.021384 -0.054739 0.02533 0.037004 0.044567 
0.081067 -0.025145 0.054267 0.021384 -0.050958 0.01152 -0.004593 0.020891 
0.11609 0.00066819 0.10096 0.017603 -0.067235 0.032729 0.027303 0.030756 
0.08863 0.023193 0.032071 0.014315 -0.064275 0.049335 0.035031 0.026152 
0.072188 0.071037 0.024508 0.019905 -0.05885 0.020233 0.027632 0.036182 
0.059528 0.059364 0.016945 0.065612 -0.046683 0.021713 0.023522 0.020233 
0.060022 0.024673 0.050814 0.018425 -0.065919 0.024179 0.0028056 0.039141 
0.084355 -0.012814 0.069229 0.0092177 -0.072496 0.012013 -0.0091966 0.028125 
0.088958 -0.0060728 0.044402 0.016616 -0.042408 0.015465 -0.022679 0.018754 
0.06479 0.050814 0.055089 0.026152 -0.066413 0.021384 0.0092177 0.027468 
0.019083 0.073668 0.033222 0.014972 -0.061809 0.024015 0.03536 0.018425 
-0.025474 0.085341 0.040292 0.025824 -0.057205 0.015137 0.062488 0.034209 
-0.056712 0.083697 -0.0068948 0.036839 -0.038627 0.057391 0.074983 0.061337 
-0.010676 0.059528 -0.006566 0.060515 -0.044546 0.040128 0.047362 0.049499 
0.028783 0.025988 -0.0014692 0.027796 -0.058521 0.013657 0.016945 0.045224 
0.032071 0.01974 0.055418 0.019083 -0.060823 0.023028 0.035524 0.036675 
-0.0036066 0.037497 0.071859 0.022535 -0.062631 0.039634 0.065447 0.015137 
-0.02087 0.05772 0.044402 -0.00064712 -0.083512 0.029769 0.066269 0.033058 
0.026646 0.082546 0.029605 0.019411 -0.064768 0.012999 0.019905 0.019247 
0.018589 0.097179 0.015465 0.012506 -0.063946 0.013164 0.018096 0.024508 
0.014808 0.13894 0.036839 0.056569 -0.048492 0.0075736 0.013821 0.020398 
0.046211 0.076792 0.028454 0.029112 -0.051451 0.016616 -0.01232 0.033715 
0.067913 0.029934 0.041278 0.026481 -0.05737 0.027468 -0.020541 0.01563 
0.097672 0.031414 0.050321 0.023357 -0.056383 -0.0019624 -0.033859 0.022371 
0.078107 0.057062 0.034702 0.036675 -0.072496 0.0023123 -0.015609 0.012342 
0.026481 0.086985 0.017932 0.033222 -0.063124 0.027303 0.0092177 0.012835 
-0.065262 0.037332 -0.025638 0.039141 -0.047176 0.03536 0.072353 0.034866 
-0.075127 -0.02087 -0.027118 0.049664 -0.021856 0.041443 0.098823 0.038977 
-0.030242 -0.073482 0.0056006 0.045553 -0.04323 0.031578 0.098494 0.06183 
0.010204 -0.079072 0.06742 0.022864 -0.053917 0.017932 0.069558 0.04095 
0.055911 -0.084334 0.075476 0.02122 -0.059507 0.020398 0.026152 0.034044 
0.068078 -0.053095 0.077778 0.030263 -0.054739 0.029441 0.012835 0.014808 
0.12513 -0.025802 0.07597 0.037168 -0.064275 0.033387 0.025659 0.027303 
0.14387 0.00099702 0.052623 0.021384 -0.061316 0.016781 -0.010676 0.022206 
0.091589 0.01152 0.044238 0.018425 -0.063124 -0.015609 0.0054362 0.0013258 
0.049335 0.088136 -0.0024557 0.046704 -0.052766 0.024344 0.0092177 0.034209 
0.032071 0.099974 -0.0021268 0.037168 -0.045368 0.0421 0.045882 0.025988 
0.028619 0.090931 0.0028056 0.024837 -0.05885 0.021713 0.0421 0.030427 
0.033387 0.088136 0.031907 0.01974 -0.032215 0.027961 0.021056 0.021713 
0.0026412 0.10113 0.03947 0.044238 -0.053095 0.011191 0.021384 0.029605 
-0.019555 0.095535 0.019247 0.012999 -0.06 0.022206 0.015301 0.012013 
-0.011498 0.077943 0.035524 0.0014903 -0.072167 0.01267 0.0079024 0.025001 
-0.0078813 0.0079024 0.062323 0.011026 -0.055561 0.012506 0.024344 0.0064227 
-0.045861 -0.038462 0.072681 0.012999 -0.070687 0.0095465 0.041443 0.017438 
-0.12198 -0.021528 0.030098 0.018096 -0.060658 0.02829 0.063474 0.022371 
-0.20271 0.032893 0.019247 0.022535 -0.056055 0.04095 0.059857 0.036017 
-0.17427 0.066927 0.0044497 0.058542 -0.029091 0.039634 0.055254 0.039141 
0.0080668 0.069558 0.023028 0.043251 -0.044052 0.020562 0.027303 0.034702 
0.19813 0.048184 0.014972 0.035853 -0.048985 0.018918 -0.014787 0.030098 
0.28642 0.037004 -0.0031133 0.0075736 -0.065097 0.024673 -0.02087 0.022535 
0.26488 -0.0014692 0.027961 0.064296 -0.05178 0.01711 -0.0072237 0.0092177 
0.18925 0.03092 0.043087 0.029276 -0.058028 0.01563 -0.0013048 0.0080668 
0.10441 0.14502 0.034537 0.046868 -0.043395 0.010697 0.022042 0.029934 
0.036017 0.19928 -0.029748 0.037332 -0.018733 0.015301 0.039634 0.023357 
-0.024487 0.16969 -0.045861 0.075805 -0.029913 0.04654 0.062323 0.040785 
-0.047834 0.044073 -0.032708 0.054925 -0.033859 0.043909 0.055582 0.031414 
-0.014293 -0.083183 0.025001 0.0039565 -0.069043 0.036182 0.052787 0.047691 
0.0019835 -0.045696 0.050814 0.015465 -0.047176 -0.0029489 0.044896 0.041772 
-0.060658 0.0070803 0.058542 0.014643 -0.084334 -0.023665 0.044402 0.073997 
-0.040928 0.03388 0.049499 1.0539e-005 -0.084991 0.024837 0.038155 0.036839 
-0.03205 0.078107 0.038812 0.020727 -0.066741 0.025166 0.038977 0.044073 
-0.018075 0.069064 0.085835 0.044402 -0.050958 0.018096 0.045718 0.053938 
0.013164 0.078272 0.053445 0.031907 -0.056877 0.035524 0.012342 0.021549 
0.076627 0.061172 0.055911 0.019411 -0.068714 0.026317 0.0018191 0.029934 
0.11609 0.016288 0.013328 0.031249 -0.05178 0.044073 -0.016431 0.020562 
0.13549 0.028454 0.02829 0.044567 -0.047176 0.042594 -0.016595 0.032236 
0.050979 0.061172 0.023522 0.047362 -0.039778 0.01826 0.019247 0.016781 
0.011684 0.10162 -0.026131 0.04654 -0.038627 0.014972 0.029605 0.018918 
0.021878 0.098494 0.017932 0.022535 -0.034516 0.02533 0.018096 0.0090533 
0.030592 0.056569 0.037004 0.016616 -0.069536 0.025001 0.024015 0.026317 
0.053609 0.0324 0.073504 1.0539e-005 -0.073318 0.013986 0.026317 0.022206 
0.066598 0.025824 0.049992 -0.012649 -0.082196 0.019247 0.038319 0.048019 
0.060679 0.033551 0.078272 0.0085601 -0.048492 0.017603 0.034209 0.032893 
0.043416 0.10244 0.037497 0.016123 -0.073318 0.026974 0.030592 0.036675 
0.035688 0.12546 0.018096 -0.00031829 -0.079237 0.048019 0.034866 0.026317 
-0.014129 0.12628 0.017932 0.030592 -0.050136 0.03388 0.038648 0.028947 
0.016616 0.054596 0.033715 0.04654 -0.046519 0.028125 0.036017 0.032236 
0.066269 0.016123 0.062323 0.026646 -0.062302 0.015959 0.029934 0.025001 
0.080902 0.057555 0.070051 0.00033937 -0.071345 0.028619 0.011026 0.019905 
0.10096 0.041607 0.051308 0.024837 -0.053753 0.018425 0.0064227 0.013986 
0.076134 0.036839 0.005765 0.045718 -0.051944 0.0080668 0.017603 0.018589 
0.014643 0.053445 0.0095465 0.018425 -0.059343 0.031414 0.039634 0.037826 
-0.018239 0.047855 0.026317 0.011848 -0.06444 0.026974 0.06742 0.018918 
-0.029255 0.044567 0.042429 0.027796 -0.034681 0.034702 0.08419 0.015137 
0.0079024 0.026646 0.063803 0.047197 -0.055068 0.03536 0.068736 0.035031 
0.045882 0.021713 0.044731 0.0072447 -0.069536 0.037497 0.031249 0.023522 
0.057062 0.011848 0.046375 0.0083956 -0.06855 0.010533 0.011191 0.040785 
0.064461 0.0019835 0.044073 0.048019 -0.039942 0.037332 -0.0073881 0.031085 
0.031578 0.059035 0.052623 0.029441 -0.065919 0.028454 -0.010348 0.027632 
0.034373 0.055418 0.026152 0.00050378 -0.074962 0.01974 0.0060938 0.023193 
0.034866 0.028619 0.045389 0.0098754 -0.068221 0.010533 0.0036276 0.01267 
0.031578 0.007738 0.030098 0.053609 -0.047998 0.01563 0.017603 0.02829 
0.034537 0.011684 0.033387 0.054103 -0.053753 0.036182 0.033058 0.023028 
0.029605 0.032564 0.038648 0.029441 -0.052602 0.040621 0.043087 0.045224 
0.040128 0.022864 0.029441 0.027796 -0.051122 0.026481 0.027796 0.047197 
0.084848 -0.014622 0.040292 0.048841 -0.059014 0.012342 0.010862 0.042758 
0.098659 -0.023829 0.06742 0.027961 -0.059178 0.013164 0.028619 0.021878 
0.079916 -0.0087034 0.086492 -0.0013048 -0.078086 0.04358 0.023193 0.028125 
0.05624 -0.0087034 0.059857 0.03799 -0.044217 0.044073 0.031742 -0.012649 
0.013986 0.047362 0.026152 0.044896 -0.052931 0.014643 0.020069 0.021878 
-0.038956 0.073832 0.017932 0.018096 -0.059836 0.021056 0.040456 0.027796 
0.013492 0.10918 0.0092177 0.033387 -0.047505 0.048019 0.059693 0.0064227 
-0.00064712 0.10984 0.031907 0.031414 -0.045532 0.03536 0.040621 0.0227 
-0.00064712 0.068242 0.026317 -0.0072237 -0.093048 0.021549 0.04358 0.04506 
1.0539e-005 0.061337 0.05772 0.0056006 -0.075949 0.018918 0.022535 0.019083 
0.0786 0.032893 0.068407 -0.024323 -0.093376 0.018096 0.0014903 0.0054362 
0.037661 0.057227 0.075312 0.02829 -0.069043 0.020562 0.016452 0.018096 
-0.075455 0.093562 0.021384 0.026481 -0.062302 0.028454 0.042594 0.029934 
-0.13892 0.096521 -0.012814 0.029441 -0.05885 0.02533 0.076792 0.042594 
-0.12511 0.081724 -0.027611 0.046375 -0.032872 0.040128 0.073997 0.054103 
-0.084663 0.034373 -0.022679 0.067749 -0.034845 0.022371 0.079916 0.066105 
0.010862 0.015137 -0.0077169 0.038319 -0.045696 0.038648 0.057884 0.046868 
0.086985 0.016616 -0.024323 0.04654 -0.043724 0.021056 -0.00015387 0.059035 
0.058706 0.032893 -0.016924 0.04506 -0.025638 0.029112 -0.0026201 0.033551 
0.014315 0.079751 -0.0044286 0.056898 -0.050136 0.024673 -0.011498 0.035524 
0.078765 0.077943 0.074161 0.028783 -0.05589 0.024015 -0.048163 0.021384 
0.147 0.022042 0.075148 0.0083956 -0.06855 0.042758 -0.045861 0.021056 
0.096028 -0.036818 0.057884 0.018425 -0.056219 0.037661 0.02829 0.015301 
0.050321 -0.031721 0.058706 0.026481 -0.067399 0.0095465 0.046046 0.036346 
0.060022 -0.028762 0.044567 0.017767 -0.058521 0.027139 0.025001 0.047855 
0.06035 0.015794 0.044073 0.03092 -0.045368 0.0421 0.020727 0.041278 
0.013657 0.046046 0.0019835 0.058706 -0.041751 0.013986 0.030263 0.035524 
-0.0011404 0.071695 -0.0040998 0.032729 -0.056055 -0.006566 0.042923 0.015301 
0.0092177 0.055418 0.031414 -0.00031829 -0.07003 -0.033201 0.037497 0.013492 
0.04095 0.062488 0.051801 0.03651 -0.040435 -0.0016336 0.047526 0.0082312 
-0.014622 0.097672 0.024673 0.040456 -0.058521 0.049499 0.029934 0.038812 
-0.055561 0.13549 -0.0026201 0.022206 -0.059343 0.053938 0.052294 0.047526 
-0.046847 0.12151 0.015301 0.019905 -0.055561 0.057227 0.05772 0.070873 
0.005765 0.081395 0.031907 0.025495 -0.036489 0.01826 0.013657 0.052294 
0.044073 0.059693 0.067913 0.023193 -0.051451 0.0051074 -0.031064 0.052294 
0.052952 0.052952 0.034702 0.020891 -0.060658 0.039799 0.00017495 0.037168 
0.075641 0.047197 0.029112 0.02533 -0.058521 0.018918 0.025001 0.032564 
0.088794 0.015794 0.044402 0.047691 -0.045368 0.011355 0.027468 0.019247 
0.076299 0.0031344 0.054596 0.031742 -0.061809 0.015301 0.026317 0.021056 
0.061337 0.025824 0.02829 0.014808 -0.064604 0.042265 0.031249 0.037661 
0.047033 0.059528 0.0059294 0.021549 -0.058521 0.024837 0.037826 0.013986 
0.04506 0.066763 0.033551 0.06183 -0.041422 0.016123 0.016945 0.044731 
0.024673 0.065118 0.037168 0.020069 -0.061316 0.0088889 0.024837 0.00297 
-0.0014692 0.055582 0.052952 0.016288 -0.064933 -0.02646 0.0070803 -0.0004827 
-0.026789 0.031249 0.024179 0.041278 -0.033859 0.018589 0.03536 0.011191 
0.0054362 -0.046847 0.025659 0.020562 -0.059507 0.014315 0.01826 0.015959 
0.0227 -0.022514 0.033387 0.0052718 -0.062631 0.018918 0.0018191 -0.004593 
0.03536 0.0031344 0.053774 -0.00064712 -0.073482 0.0092177 0.0067515 0.0032988 
0.033387 0.00066819 0.013986 0.0054362 -0.03501 -0.0068948 0.050814 0.028619 
0.017932 0.011355 0.031414 0.040128 -0.059836 0.032729 0.043087 0.018754 
0.031085 0.0042853 0.044402 0.014972 -0.063946 0.010533 0.035524 0.029441 
0.10343 0.029769 0.069393 0.0051074 -0.072825 0.028454 0.033715 0.034044 
0.13351 0.046046 0.08304 0.01974 -0.05885 0.0032988 0.012342 0.035524 
0.14305 0.041443 0.024179 0.029769 -0.061645 0.028783 0.0082312 0.028125 
0.14321 0.044238 0.021878 0.037332 -0.050793 0.043745 -0.010841 0.033387 
0.11987 0.032071 0.031578 0.037497 -0.050629 0.017767 0.0042853 0.028947 
0.08008 0.063968 0.061666 0.058213 -0.038462 0.020233 0.030427 0.046375 
0.08008 0.096521 0.026974 0.032236 -0.047176 0.015465 0.029769 0.044238 
0.062817 0.074161 0.042429 0.0054362 -0.071838 0.031085 0.01004 0.021878 
0.0072447 0.07449 0.042923 0.0098754 -0.060494 0.029112 0.010862 0.01004 
-0.055726 0.082711 0.015794 0.032893 -0.060494 0.017438 0.038155 0.023193 
-0.086471 0.07597 0.011684 0.015137 -0.059343 0.01415 0.030098 0.042265 
-0.062796 0.06331 -0.017253 0.034044 -0.050464 0.029112 0.063968 0.041936 
-0.033037 0.026481 -0.0055795 0.034044 -0.031228 0.03536 0.051472 0.047197 
0.033715 -0.016102 0.058706 0.028783 -0.064933 0.014479 0.026481 0.0092177 
0.027468 0.0054362 0.08156 0.019905 -0.063782 0.013328 0.012506 0.017274 
0.011848 0.020398 0.041443 0.020891 -0.061151 0.01004 0.023686 0.0052718 
0.007738 0.056404 0.019905 0.04358 -0.038627 0.0227 0.053281 0.03092 
0.0090533 0.051965 0.045882 0.04506 -0.053424 0.041607 0.038648 0.031578 
0.0093821 0.022864 0.051143 0.021549 -0.061645 0.023522 0.039963 0.040292 
-0.0021268 -0.011334 0.050979 0.025824 -0.054904 0.015301 0.034866 0.026317 
0.03947 0.010697 0.011355 0.051308 -0.044052 0.016123 0.01974 0.043745 
0.056569 0.01826 0.020562 0.03536 -0.055726 0.043909 0.0098754 0.021878 
0.046046 0.067091 0.025166 0.027303 -0.057205 0.035688 0.014643 0.037168 
0.065612 0.08567 0.073668 0.01004 -0.058192 0.031907 0.0088889 0.023851 
0.025988 0.10425 0.026317 0.048677 -0.052437 0.027468 0.016452 0.029441 
0.012013 0.081889 0.018918 0.018096 -0.060329 0.023193 0.049664 0.045389 
-0.0013048 0.071202 0.01563 0.033058 -0.049971 0.025824 0.051143 0.031085 
-0.0059084 0.083368 0.033551 0.02533 -0.033694 0.025495 0.027303 0.027961 
-0.015938 0.0421 0.021878 0.045389 -0.056219 0.03092 0.02681 0.030263 
0.027468 -0.0040998 0.026481 0.016616 -0.061316 0.017603 0.019247 0.040292 
0.044402 -0.033201 0.019411 0.030098 -0.053753 0.022535 0.020233 0.028783 
0.048841 -0.06296 0.051143 0.019083 -0.046354 0.028619 0.033715 0.03651 
0.057062 0.0042853 0.06479 0.041772 -0.056055 0.0082312 -0.0054151 0.040621 
0.017603 0.026152 0.043909 0.01267 -0.066084 0.012506 0.030263 0.031578 
-0.021199 0.051636 0.059528 0.032071 -0.053753 0.0013258 0.019411 0.021713 
-0.0049219 0.035688 0.034702 0.050321 -0.044874 0.035195 0.01974 0.043251 
-0.020048 0.0069159 0.046046 0.035688 -0.058028 0.039634 0.02681 0.034044 
-0.011334 0.057884 0.025166 0.03947 -0.05178 0.026481 0.026481 0.037661 
0.0088889 0.092576 -0.0059084 0.038977 -0.030735 0.025988 0.041278 0.032893 
-0.015938 0.13171 -0.012978 0.076134 -0.034845 0.053445 0.040621 0.0421 
0.018754 0.098166 -0.0096899 0.055089 -0.032543 0.048184 0.038483 0.04917 
0.051472 0.13615 0.010862 0.051636 -0.034516 0.028619 0.010204 0.0324 
0.063474 0.19599 -0.029255 0.045882 -0.029255 0.022042 0.010697 0.026317 
0.05772 0.21737 -0.019226 0.050979 -0.058685 -0.00081153 0.0026412 0.013657 
0.054596 0.10721 0.028947 0.0036276 -0.075127 -0.0049219 -0.0070593 0.033387 
0.054432 0.014972 0.07449 0.013657 -0.065097 0.027139 0.029441 0.017274 
0.033715 -0.017253 0.11165 0.022371 -0.051944 0.01152 0.038812 0.033551 
0.00297 0.024179 0.094548 0.014808 -0.076935 0.012835 0.034209 0.0067515 
-0.0083746 0.097508 0.044238 -0.006566 -0.078086 0.033058 0.047362 0.050979 
-0.028762 0.071366 0.02533 0.019905 -0.05737 0.038977 0.049664 0.040621 
-0.045861 0.011848 0.029276 0.060186 -0.037969 0.072517 0.035853 0.028125 
-0.0062372 -0.040106 -0.008539 0.046375 -0.044546 0.047197 0.050814 0.035195 
0.046868 -0.098144 -0.013636 0.043087 -0.043888 0.0095465 0.051143 0.023357 
0.082546 -0.068386 0.0083956 0.029276 -0.033694 0.022535 0.026317 0.029112 
0.081889 -0.020541 0.037661 0.051308 -0.049971 0.021713 0.014315 0.018425 
0.088465 -0.0096899 0.049499 0.015301 -0.068221 0.030756 -0.0039354 0.021713 
0.06183 0.026481 0.049828 -0.0026201 -0.079237 0.011848 -0.0016336 0.0037921 
0.022535 0.049992 0.032564 0.015137 -0.050958 0.00050378 0.027796 0.012013 
0.00017495 0.12497 0.049499 0.016945 -0.073318 0.016452 0.036675 0.0037921 
-0.037311 0.16064 0.046375 0.020727 -0.069043 0.0092177 0.052787 0.031085 
-0.02942 0.17347 -0.0087034 0.01974 -0.061151 0.021056 0.043087 0.034044 
0.01415 0.13795 -0.013636 0.048513 -0.049478 0.022206 0.0092177 0.034044 
0.05476 0.079094 0.0032988 0.047691 -0.057534 0.01563 0.016288 0.029934 
0.060186 0.048019 0.035195 0.031742 -0.058521 0.024673 0.022206 0.022535 
0.033222 0.057884 0.040128 0.010369 -0.064275 0.040621 0.014479 0.030427 
0.039799 0.055747 0.032729 0.047197 -0.045861 0.015794 0.034702 0.018425 
0.041114 0.036182 0.031414 0.026481 -0.065591 0.01152 0.0092177 0.0026412 
0.089452 0.0072447 0.056569 0.0069159 -0.069865 0.013492 0.0087245 0.0067515 
0.087479 0.018589 0.063639 0.014972 -0.047341 0.013657 0.0039565 0.02533 
0.063145 0.05065 0.029441 0.049006 -0.059507 0.016781 0.02533 0.028947 
0.07449 0.038155 0.012999 0.01152 -0.077757 -0.010019 0.027468 0.037004 
0.063803 0.020233 0.031085 0.017932 -0.064768 0.0016547 0.01415 0.022864 
0.040128 0.025988 0.052294 0.023686 -0.022679 0.028783 0.072188 0.012835 
0.023851 0.012013 0.020562 0.057062 -0.046519 0.046868 0.053938 0.034866 
0.023193 0.065283 -0.018897 0.013986 -0.065591 0.03388 0.033715 0.054267 
0.020891 0.093726 0.0062583 0.016945 -0.065262 0.025659 0.019083 0.021878 
0.021878 0.055254 0.053116 0.026152 -0.062138 0.0075736 0.013328 0.023357 
0.025659 0.022864 0.070051 0.00297 -0.08121 0.01974 0.0026412 0.013328 
0.024673 -0.0052507 0.036675 0.014315 -0.067892 0.02533 0.023357 0.021056 
0.015794 0.00017495 -0.016102 0.014972 -0.059343 0.017438 0.062323 0.0592 
0.021878 -0.011498 0.0051074 0.06331 -0.038791 0.018589 0.06183 0.03799 
0.036017 -0.044052 0.052952 0.044402 -0.049149 0.029934 0.040621 0.034866 
0.04654 -0.057534 0.055582 0.010697 -0.064604 0.022864 0.018754 0.023028 
0.027303 -0.055561 0.025988 -0.0036066 -0.053917 0.031085 0.029276 0.055254 
-0.0077169 -0.018239 0.034373 0.028125 -0.069865 0.020069 0.053938 0.024837 
0.0069159 0.024673 0.04654 0.028947 -0.056383 0.013492 0.046868 0.030756 
0.047197 0.024015 0.073832 0.019576 -0.057534 0.011026 0.059857 0.020398 
0.083862 0.0082312 0.047526 0.020727 -0.042901 0.041278 0.014479 0.04506 
0.086821 0.018096 0.031907 0.038155 -0.057699 0.020398 -0.021034 0.0039565 
0.086657 0.067749 0.049828 0.0069159 -0.073318 0.016945 -0.018075 0.031907 
0.062488 0.12809 0.068078 0.012177 -0.065591 0.027632 0.014315 0.028947 
0.017438 0.1659 0.017274 0.048513 -0.045203 0.010862 0.026317 0.018589 
-0.014787 0.15094 -0.0091966 0.041443 -0.05441 0.04358 0.048019 0.0023123 
0.01415 0.088301 0.01563 0.024344 -0.055726 0.028947 0.027468 0.01974 
0.044896 0.031085 0.045389 0.031249 -0.043559 0.015959 0.014808 0.043909 
0.079094 0.03536 0.060679 0.063474 -0.041257 0.020398 0.013492 0.036675 
0.078436 0.042429 0.00297 0.015959 -0.059836 0.014479 0.021713 0.045553 
0.053938 0.035853 -0.001798 0.05065 -0.044874 0.026317 0.027303 0.005765 
0.035031 -0.0014692 -0.0044286 0.018425 -0.039942 0.016123 0.0080668 0.037332 
0.037332 -0.026789 0.019247 0.036839 -0.054575 0.0021479 0.03799 0.031907 
0.020891 -0.0054151 0.0092177 0.0324 -0.052273 0.021713 0.039141 0.038648 
-0.035174 -0.011334 0.012342 0.055254 -0.034188 0.03092 0.056733 0.040128 
-0.034023 0.0023123 0.039141 0.03536 -0.030077 0.043251 0.063968 0.054103 
-0.012978 0.026646 0.061501 0.054267 -0.042079 0.03388 0.066434 0.049992 
0.024508 0.046704 0.071695 0.027468 -0.055232 0.019905 0.036675 0.047197 
0.082875 0.040621 0.029441 0.016288 -0.064604 0.011684 0.0014903 0.029605 
0.066763 0.079587 0.064954 0.02829 -0.056877 0.028619 0.044238 0.011848 
0.048513 0.065776 0.059528 0.025495 -0.066577 0.023686 0.027468 0.022206 
0.067913 0.061501 0.06035 0.015794 -0.06 0.026152 0.0069159 0.01152 
0.057884 0.058049 0.027796 0.023357 -0.060658 0.0085601 0.0018191 0.03651 
0.041607 0.081067 -0.0027845 0.048841 -0.053917 -0.0027845 0.0051074 0.025824 
0.015301 0.12513 -0.020377 0.031742 -0.050629 0.037826 0.0052718 0.024673 
0.018589 0.093891 0.0060938 0.018918 -0.05737 0.033551 0.026481 0.0088889 
0.0092177 0.060515 0.038319 0.020891 -0.037147 0.017438 0.033058 0.034373 
0.016945 0.064954 -0.0138 0.01563 -0.059178 0.025166 0.034209 0.039963 
-0.010348 0.055089 0.0028056 0.030098 -0.052766 0.028125 0.038977 0.047526 
-0.020706 0.089616 -0.014622 0.042265 -0.045039 0.042758 0.039634 0.039799 
-0.0095255 0.11477 -0.0073881 0.059528 -0.018733 0.031085 0.061995 0.029605 
0.011848 0.069558 0.027796 0.057227 -0.0406 0.018589 0.040456 0.034537 
0.017274 -0.045532 0.030263 0.030263 -0.054246 0.0042853 0.063639 0.047855 
0.035524 -0.05885 0.05213 0.024673 -0.056712 0.02681 0.034044 0.032729 
0.062488 -0.026131 0.078765 0.043251 -0.056548 0.013821 0.015959 0.0080668 
0.071366 0.025495 0.073997 0.021713 -0.070523 0.011191 0.010862 0.027139 
0.0786 0.061995 0.044073 0.018918 -0.060823 0.00066819 -0.00081153 0.03092 
0.032564 0.061995 0.034373 0.0082312 -0.070687 0.0087245 0.010533 0.021549 
-0.0011404 0.065118 0.030592 0.035853 -0.059014 0.030098 0.020562 0.019905 
-0.015609 0.053938 0.053938 0.027796 -0.057534 0.022371 0.052787 0.024179 
-0.0090322 0.062981 0.03947 0.025988 -0.056548 0.019576 0.049992 0.014808 
0.014972 0.063968 0.0064227 0.027468 -0.029748 0.01563 0.033222 0.012835 
0.039305 0.035853 0.024015 0.043745 -0.057205 0.023851 0.025824 0.0065871 
0.061501 0.041443 0.018754 0.010533 -0.063782 0.026646 0.018918 0.018918 
0.059364 0.044073 0.044073 0.027796 -0.052766 0.020398 0.012013 0.016288 
0.054925 0.059528 0.019247 0.029769 -0.035503 0.012506 0.0090533 0.035524 
0.054596 0.064954 0.026646 0.037826 -0.055068 0.0014903 0.0227 0.027632 
0.031907 0.092411 0.015301 0.029441 -0.051122 0.012999 0.018754 0.023851 
0.015794 0.085012 0.041114 0.039141 -0.047176 0.030098 0.020398 0.05065 
0.027961 0.10096 0.014972 0.071202 -0.032379 0.036839 0.048019 0.040128 
0.068736 0.08419 0.0079024 0.042429 -0.056712 0.027632 0.067749 0.03536 
0.077285 0.047033 0.018096 0.0067515 -0.070852 0.021384 0.022535 0.02122 
0.057062 -0.00064712 0.063639 -0.0049219 -0.073482 0.032564 0.043745 0.022864 
0.04506 0.0054362 0.096193 0.033222 -0.066741 0.012999 0.015137 0.0088889 
0.03092 -0.0080457 0.055747 0.017767 -0.064768 0.018096 0.014972 0.044238 
0.050979 0.0039565 0.031085 0.0052718 -0.067399 0.025824 0.0088889 0.026974 
0.062981 -0.019061 0.037826 0.010862 -0.041751 0.025001 0.015959 0.010697 
0.05213 -0.017746 0.080409 0.032236 -0.063782 0.023522 0.0095465 0.007738 
-0.038298 0.015794 0.062981 0.016781 -0.06296 0.010204 0.023028 0.0062583 
-0.10176 0.086985 0.034702 0.013821 -0.069865 0.011848 0.055582 0.0079024 
-0.11968 0.12644 0.019083 0.033551 -0.040106 0.020562 0.055418 0.0054362 
-0.13448 0.11592 0.026152 0.017932 -0.059178 0.031578 0.048841 0.02681 
-0.13727 0.09422 0.045389 0.025659 -0.054575 0.03536 0.044731 0.0092177 
-0.019226 0.054432 0.0074092 0.034537 -0.0503 0.018589 0.036346 0.022535 
0.12299 0.03388 0.027632 0.048348 -0.039942 0.0227 0.010862 0.038483 
0.10951 0.032236 0.01415 0.041114 -0.055726 0.040785 0.066434 0.08008 
0.036839 0.071366 0.017932 0.01826 -0.056712 0.042429 0.070215 0.065447 
-0.032708 0.064461 0.016781 -0.0054151 -0.066906 0.021878 0.055911 0.097837 
-0.0044286 0.071859 0.014479 0.05065 -0.051122 0.048184 0.034537 0.041278 
0.092247 0.030427 0.02829 0.020069 -0.061809 0.030098 0.0044497 0.029112 
0.17856 -0.0073881 0.053281 0.0098754 -0.07414 0.017274 -0.037476 -0.0052507 
0.17199 -0.00064712 0.072353 0.01152 -0.036489 0.043416 0.00066819 -0.0004827 
0.11543 0.013492 0.020233 0.035688 -0.061316 0.03799 0.016288 0.0026412 
0.010862 0.041114 0.02533 0.0026412 -0.072989 0.028619 0.0324 0.0074092 
-0.066084 0.059857 0.047033 0.016288 -0.060658 0.019083 0.035031 0.011848 
-0.1113 0.017767 0.053609 0.032236 -0.049149 0.0051074 0.057227 0.0054362 
-0.061645 -0.025145 0.093891 0.046375 -0.055068 0.0021479 0.062817 0.013821 
0.0028056 -0.027447 0.036346 0.020727 -0.061973 -0.0013048 0.029769 0.00017495 
0.042429 -0.02498 0.014479 0.034209 -0.057205 0.0080668 0.015794 0.037332 
0.010862 0.0026412 0.0098754 0.06035 -0.047505 0.04095 0.044731 0.028454 
-0.010348 0.030592 0.027468 0.036017 -0.049642 0.067091 0.062488 0.077121 
0.0092177 0.074161 -0.01528 0.040621 -0.039284 0.058377 0.048019 0.049499 
0.059857 0.10195 -0.0047575 0.0227 -0.042408 0.031578 0.018096 0.044896 
0.082875 0.12842 0.0028056 0.031578 -0.068221 0.0016547 -0.014129 0.016616 
0.046704 0.17149 0.031578 0.0051074 -0.072989 0.0074092 -0.031228 0.0059294 
-0.022185 0.17297 0.059528 0.013328 -0.064604 0.017932 0.012999 0.026317 
-0.066741 0.20323 0.019083 0.016452 -0.041422 0.025824 0.085506 0.033222 
-0.053917 0.21112 0.021713 0.041114 -0.046025 0.038155 0.080902 0.048513 
0.0098754 0.086163 0.022535 0.046211 -0.045861 0.03651 0.034866 0.037004 
0.099316 -0.092061 0.064296 0.031249 -0.052109 0.025001 0.0028056 0.040456 
0.17314 -0.17608 0.054925 0.031742 -0.053917 0.037332 -0.014622 -0.01528 
0.19287 -0.18578 0.025824 0.025166 -0.070359 0.011026 0.041278 0.016123 
0.12283 -0.13201 0.034702 0.040456 -0.057534 0.010533 0.060515 0.020891 
0.029276 -0.053588 0.045718 0.014315 -0.065097 0.015301 0.062652 0.047526 
-0.027118 0.037168 0.050814 0.031742 -0.049478 0.049499 0.06742 0.055911 
-0.022843 0.10063 0.0079024 0.036675 -0.056712 0.041278 0.040128 0.066269 
0.031578 0.13697 0.01267 0.020233 -0.059014 0.025166 0.009711 0.04095 
0.09274 0.12036 0.029441 0.018754 -0.056877 0.0093821 -0.022843 0.036839 
0.1276 0.10704 0.075476 0.043251 -0.057534 0.018425 -0.025638 0.025988 
0.069886 0.08978 0.026481 0.020398 -0.058192 0.055418 0.019083 0.027139 
-0.0034422 0.095535 -0.0064016 0.036675 -0.047834 0.048841 0.054267 0.035853 
-0.035832 0.10902 -0.0091966 0.049499 -0.014787 0.02122 0.044238 0.026481 
-0.0004827 0.044073 0.0046141 0.051636 -0.053095 0.0036276 0.014643 0.01152 
0.067256 0.0092177 0.029276 0.015465 -0.06296 0.016123 0.0044497 0.010697 
0.10359 -0.049149 0.0085601 0.0092177 -0.070687 0.026152 -0.0096899 0.0065871 
0.12003 -0.053917 0.012342 0.0041209 -0.051615 -0.0062372 0.0087245 -0.0031133 
0.076956 -0.049807 0.044896 0.013492 -0.075784 -0.0083746 0.017603 0.013986 
0.098001 0.012506 0.06594 -0.018733 -0.086964 0.012177 0.067913 0.025001 
0.083533 0.051308 0.053774 0.023193 -0.059178 0.018918 0.054596 0.035853 
0.11576 0.073175 0.023028 0.062159 -0.034516 0.035524 0.031742 0.0324 
0.12217 0.074161 0.047855 0.020069 -0.06148 0.044896 0.030756 0.049992 
0.12299 0.07449 0.054267 0.0069159 -0.067564 0.013821 0.0026412 0.031742 
0.045718 0.066105 0.080244 -0.0062372 -0.060987 0.01563 0.013821 0.047033 
0.0013258 0.083204 0.031414 0.036675 -0.058356 0.028619 0.034702 0.042594 
0.012999 0.069722 0.026974 0.0047785 -0.078744 0.0085601 0.027303 0.03536 
0.047526 0.043251 0.014479 0.03651 -0.048492 0.0037921 0.020398 0.039634 
0.078107 0.038483 0.0054362 0.04358 -0.028433 0.031249 0.0067515 0.045224 
0.073832 0.034866 0.0085601 0.054925 -0.047341 0.024344 0.0079024 0.044731 
0.039799 0.05624 0.00050378 0.018425 -0.065591 0.038812 0.0092177 0.023851 
-0.020706 0.059693 0.021713 0.019576 -0.060165 0.017603 0.011191 0.016945 
-0.047505 0.030098 0.027632 0.048019 -0.044381 0.0098754 0.042594 0.0098754 
-0.05326 0.030756 0.034209 0.029934 -0.066084 0.03799 0.03092 0.019576 
-0.015773 0.021549 0.014808 0.017274 -0.061973 0.01711 0.03388 0.0085601 
-0.001798 -0.0088678 0.0051074 -0.0059084 -0.073482 0.010862 0.027139 0.030592 
0.022042 -0.069372 0.029441 0.037004 -0.061645 0.010697 0.019411 0.014479 
0.046211 -0.10423 0.061666 0.014643 -0.07562 -0.00031829 -0.019555 0.044238 
0.059693 -0.066906 0.071695 0.0083956 -0.071674 0.0051074 0.018754 0.025988 
0.066927 -0.008539 0.052623 0.0032988 -0.052273 0.023851 0.037497 0.031249 
0.064625 0.046375 0.025659 0.050157 -0.057205 0.018425 0.026646 0.030098 
0.064296 0.10359 0.0074092 0.033387 -0.049478 0.025495 0.025824 0.025659 
0.054432 0.13631 0.016288 0.035688 -0.03912 0.020233 0.052459 0.03092 
0.0075736 0.092247 0.019083 0.03388 -0.028433 0.019083 0.046211 0.036182 
-0.025638 0.10376 0.037497 0.036182 -0.060823 0.043745 0.057227 0.040785 
-0.039284 0.13565 0.042265 0.022371 -0.062631 0.030756 0.06183 0.027303 
-0.04471 0.16245 0.059857 0.0074092 -0.069372 0.017274 0.041772 0.039305 
0.012342 0.15555 0.088136 0.016288 -0.062467 0.021878 0.018425 0.027139 
0.063474 0.1105 0.064625 0.01826 -0.070359 0.0059294 -0.0004827 0.030756 
-0.0044286 0.096686 0.019905 0.021384 -0.060329 0.03651 0.0079024 0.024179 
-0.049314 0.081395 -0.019061 0.031578 -0.048656 0.032071 0.0421 0.039963 
-0.09798 0.024344 0.0092177 0.051801 -0.047669 0.01563 0.044402 0.026152 
-0.061316 -0.014293 0.014643 0.029112 -0.052602 0.019576 0.072517 0.018425 
-0.0068948 -0.053917 0.0023123 0.018425 -0.060165 0.019576 0.041607 0.032893 
0.054267 -0.06 0.048677 0.01711 -0.045368 0.026646 0.0056006 0.022371 
0.089452 -0.065262 0.074326 0.047033 -0.060658 0.026317 -0.0032777 0.031742 
0.082875 -0.036489 0.086821 0.015959 -0.06707 0.014479 0.00297 0.01974 
0.058706 0.035195 0.016781 0.01004 -0.067892 0.0016547 0.015137 0.036017 
-0.014622 0.11444 0.047691 0.028125 -0.039613 0.027139 0.023357 0.012835 
-0.05589 0.1368 0.047526 0.039305 -0.051122 0.063803 0.051308 0.030098 
-0.061151 0.11609 0.022371 0.037826 -0.045039 0.028619 0.062159 0.034866 
-0.030242 0.091425 0.01004 0.046046 -0.039284 0.031414 0.051472 0.0592 
-0.01528 0.12842 -0.021856 0.04095 -0.029584 0.040128 0.077285 0.037497 
-0.011005 0.14272 -0.0075525 0.037826 -0.056877 0.035524 0.056898 0.048019 
-0.025802 0.097179 0.034702 0.025659 -0.059672 0.0083956 0.046046 0.045882 
0.0023123 0.064132 0.06479 0.026481 -0.057041 0.021384 0.045553 0.017932 
0.030592 0.06479 0.046211 0.026317 -0.060823 0.017603 0.033551 0.020727 
0.045718 0.08156 0.046868 0.035688 -0.062631 0.012835 0.028454 0.022535 
0.047197 0.081889 0.052787 0.033058 -0.053588 0.027961 0.0075736 0.029769 
