0.064132 0.088301 0.064132 0.036182 -0.034845 0.052294 0.04654 0.029441 
0.017274 0.10392 0.055254 0.046375 -0.022021 0.038155 0.05624 0.073832 
0.0021479 0.1613 0.077121 0.06479 0.023193 0.058871 0.073668 0.089287 
0.0041209 0.16969 0.022864 0.086985 0.011355 0.038319 0.049499 0.076956 
-0.083347 0.14963 -0.05737 0.0026412 -0.029748 0.0034632 0.043416 0.063145 
-0.077593 0.073997 -0.1473 0.010862 -0.036818 -0.0014692 0.015959 0.08304 
0.0090533 -0.19844 -0.19597 0.012835 -0.041751 -0.0055795 0.038155 0.05065 
0.065283 -0.38702 -0.18315 0.04358 -0.020377 0.00099702 0.0019835 0.0042853 
0.042594 -0.39738 -0.11393 0.019411 -0.041257 0.013164 -0.010348 -0.019884 
0.0046141 -0.33638 0.0074092 -0.020212 -0.062796 -0.0075525 -0.018897 -0.022843 
0.010862 -0.12511 0.10293 0.012342 -0.050464 -0.029255 -0.010348 -0.031228 
0.024837 0.21276 0.18826 0.017274 -0.041586 -0.044052 -0.021199 0.0088889 
0.061337 0.40628 0.22608 0.041607 -0.025309 -0.051615 -0.015444 0.004943 
0.076956 0.42469 0.24466 0.059035 -0.014458 -0.053095 0.034537 0.046211 
0.062981 0.36172 0.23627 0.04917 -0.010841 -0.004593 0.042594 0.053774 
0.060679 0.26883 0.19632 0.050979 -0.0027845 0.037661 0.043087 0.027303 
0.050321 0.17001 0.093726 0.030592 -0.017746 0.046704 0.060844 0.057884 
0.048841 0.086328 -0.021034 0.052623 -0.0078813 0.099974 0.073668 0.086985 
0.03799 0.018589 -0.035503 0.051308 -0.017911 0.14437 0.062817 0.046211 
0.032564 0.00297 -0.036983 0.014808 -0.029913 0.14338 0.082711 0.037168 
0.012999 0.01974 -0.021363 0.0019835 -0.022679 0.12069 0.060515 0.017603 
0.0056006 0.0026412 -0.017253 0.029441 -0.04323 0.10343 0.033058 0.021056 
0.020891 0.03092 0.0072447 0.019576 -0.038462 0.054432 0.018918 0.018754 
0.025001 0.12792 0.091425 0.059364 -0.022843 0.0039565 0.027796 0.018589 
0.037168 0.12447 0.10984 0.036346 -0.025474 -0.03912 0.0036276 0.025659 
-0.02646 -0.0060728 0.046375 0.020398 -0.033037 -0.11738 -0.0042642 0.023193 
-0.024323 -0.040106 -0.038133 0.011684 -0.049478 -0.13349 0.029769 0.029769 
0.01563 0.058706 -0.03205 -0.011005 -0.066084 -0.08532 0.023193 0.053609 
0.073339 0.092247 0.023522 0.024015 -0.038627 -0.025145 0.030592 0.056404 
0.077285 0.11987 0.0072447 0.0085601 -0.043559 0.016616 0.069886 0.061172 
0.066927 0.077943 0.014808 1.0539e-005 -0.052437 0.053281 0.0069159 0.0088889 
0.055418 -0.038133 -0.0042642 0.0090533 -0.062467 0.031085 -0.047176 -0.03057 
0.039305 -0.1935 -0.025638 0.0044497 -0.059178 0.011026 -0.032543 -0.035996 
0.026481 -0.31287 -0.073976 0.024179 -0.040764 0.02122 0.0041209 -0.023829 
0.049664 -0.39935 -0.090417 0.02829 -0.039613 0.0034632 -0.0095255 -0.017582 
0.049006 -0.36581 -0.11672 0.017603 -0.035174 -0.010348 -0.010676 0.0023123 
-0.086307 -0.19005 -0.022514 0.051965 -0.026296 0.058706 0.03947 0.03388 
-0.16177 0.020562 0.031085 0.024015 -0.037476 0.037826 0.057884 0.10178 
-0.025802 0.25271 0.13384 0.0098754 -0.02498 -0.091897 0.028947 0.075641 
0.071037 0.36123 0.18481 0.0016547 -0.053588 -0.15848 0.038155 0.023028 
-0.052766 0.32374 0.21901 0.014808 -0.04323 -0.10784 0.017603 0.016781 
-0.1455 0.31256 0.2371 0.045718 -0.013636 -0.049971 0.059035 0.036346 
-0.012156 0.26176 0.19813 0.017767 -0.028104 0.0021479 0.051472 0.044567 
0.15834 0.17643 0.11987 0.0051074 -0.040271 0.0786 0.054267 0.041936 
0.22953 0.15982 0.053281 0.022206 -0.047834 0.096357 0.032071 0.028125 
0.28313 0.27557 0.048184 0.018096 -0.03912 0.15094 0.055089 0.097179 
0.17363 0.24712 0.08715 0.064296 0.010862 0.19237 0.097344 0.10359 
0.0056006 0.1174 0.069886 0.06742 0.0095465 0.1664 0.06183 0.051636 
-0.028926 0.013328 0.022535 0.03536 -0.012485 0.082546 0.014643 -0.0032777 
-0.034516 -0.05441 0.0080668 0.082546 0.004943 0.0090533 -0.0095255 -0.076771 
-0.05178 -0.092719 0.0065871 0.061666 0.0034632 0.00083261 -0.023172 -0.045532 
-0.052602 -0.091404 -0.0070593 0.065447 0.023357 -0.035174 -0.022843 -0.014458 
-0.048163 -0.14928 -0.015609 0.024673 -0.021034 -0.045368 -0.003771 -0.015938 
-0.014293 -0.12067 0.0013258 0.01974 -0.027775 0.007738 0.023686 0.031414 
0.12118 -0.011498 0.031742 0.043909 -0.021528 0.056404 0.04506 0.076627 
0.20997 0.082382 0.049828 0.022371 -0.029748 0.078929 0.083862 0.077943 
0.14617 0.093069 0.019905 0.0080668 -0.026296 0.10836 0.078929 0.069064 
0.052294 0.058377 -0.031886 -0.0040998 -0.051122 0.13549 0.067749 0.044402 
-0.0027845 0.031414 -0.066413 -0.018733 -0.066084 0.1179 0.08156 0.053609 
-0.026953 -0.014293 -0.075455 0.0023123 -0.055068 0.094055 0.10491 0.045553 
0.005765 -0.079566 -0.065262 -0.014787 -0.06707 0.085012 0.077449 0.02681 
0.043416 -0.12198 -0.089759 -0.006566 -0.061809 0.11346 0.045389 0.0062583 
0.015465 -0.15405 -0.062467 0.00017495 -0.069208 0.13795 0.028454 -0.015444 
-0.036489 -0.042079 -0.0039354 -0.014622 -0.070687 0.089945 0.044238 -0.0047575 
-0.048492 0.085835 0.052459 0.026646 -0.030242 0.023686 0.01826 0.027796 
-0.043395 0.17478 0.095371 0.058871 -0.018404 -0.014951 0.0034632 0.029276 
-0.039284 0.2611 0.13664 0.081395 0.0082312 -0.048492 0.01267 0.059857 
-0.012485 0.29826 0.16015 0.12151 0.030098 -0.016102 -0.011005 0.070544 
0.024179 0.27655 0.17478 0.070708 0.020398 0.011191 0.034373 0.05624 
0.036346 0.22772 0.1174 0.057227 0.014972 -0.011663 0.070708 0.079422 
0.061666 0.20767 0.091589 0.023851 -0.025474 -0.026131 0.04358 0.060022 
0.083204 0.061172 0.088301 -0.0090322 -0.048656 0.00099702 0.018918 0.01711 
0.13171 -0.020212 0.063968 0.037168 -0.036654 0.03388 0.049828 0.01974 
0.13993 0.015137 0.050486 0.024344 -0.030899 0.056404 0.047197 0.0067515 
0.076956 0.097508 0.039141 0.014479 -0.040106 0.017438 -0.0034422 -0.0077169 
0.066105 0.22213 0.060515 0.046704 -0.029913 -0.023501 0.013657 0.0037921 
0.049828 0.2828 0.089287 0.048019 -0.016102 -0.029255 0.01267 0.0072447 
0.037168 0.21983 0.093891 0.085506 0.018589 0.0082312 0.019576 0.021384 
0.024837 0.1179 0.05213 0.065612 0.013164 0.050321 0.034209 0.018425 
0.030098 0.0592 0.0054362 0.066105 0.014808 0.10096 0.057391 0.027468 
0.036182 0.00297 0.020233 0.06479 0.0019835 0.16377 0.045882 0.050321 
0.046375 -0.051122 0.068571 0.014643 -0.02942 0.17626 0.043251 0.039799 
0.038483 -0.13662 0.017274 0.014643 -0.020377 0.084355 0.049499 0.01415 
0.021549 -0.37518 -0.10538 -0.0057439 -0.063618 -0.0014692 0.0090533 0.0085601 
-0.038791 -0.45607 -0.19548 -0.027611 -0.079401 -0.047341 -0.016266 -0.0067304 
-0.039778 -0.21027 -0.13152 -0.0011404 -0.076771 -0.031392 0.00099702 0.0085601 
-0.024652 0.053774 0.0047785 -0.010019 -0.066413 0.01267 0.022535 0.01563 
-0.0073881 0.15719 0.070051 0.00066819 -0.032215 -0.016431 0.00066819 0.005765 
-0.052602 0.084355 0.069393 0.0044497 -0.055726 -0.13201 -0.019555 0.01563 
-0.049149 0.0041209 0.020727 -0.004593 -0.061645 -0.1866 -0.0034422 -0.003771 
0.033058 0.0093821 -0.040271 0.014808 -0.052766 -0.18643 -0.019884 0.0090533 
0.14568 0.12743 -0.038133 0.0067515 -0.04882 -0.12577 0.0031344 0.03651 
0.17544 0.19517 0.014315 0.022206 -0.036489 -0.082525 0.015465 0.037168 
0.16114 0.12102 0.040621 0.039305 -0.030242 -0.012978 -0.0026201 0.043745 
-0.01117 0.09685 0.009711 0.026481 -0.027611 0.058049 0.01563 0.036017 
-0.11755 0.10902 -0.015773 0.059528 0.0026412 0.12792 0.036017 0.067749 
-0.042737 0.052787 -0.052437 0.058049 0.0026412 0.089616 0.043909 0.1031 
0.032564 -0.15026 -0.097322 0.047362 -0.0072237 0.055254 0.035195 0.041772 
0.011355 -0.30909 -0.11524 0.049664 -0.024323 -0.012649 0.0031344 -0.0059084 
-0.061973 -0.21915 -0.023994 0.013328 -0.039613 -0.039449 0.024673 -0.025145 
-0.098144 -0.025967 0.055911 0.0067515 -0.022679 -0.0055795 0.013821 -0.0019624 
-0.06296 0.10014 0.081395 0.01004 -0.04323 -0.032543 -0.0062372 -0.01117 
-0.021692 0.096686 0.085835 0.031249 -0.03205 -0.04619 0.013492 0.0093821 
0.040128 0.10425 0.11576 0.054432 -0.019555 -0.036325 0.0060938 0.048841 
0.10556 0.10573 0.08008 0.018918 -0.036983 -0.063453 0.0059294 0.062159 
0.064461 0.016781 -0.0013048 0.0092177 -0.03353 -0.0868 -0.010348 0.023357 
-0.0039354 -0.07825 -0.068714 0.01152 -0.053095 -0.089266 -0.023829 -0.008539 
0.042429 -0.016595 -0.047176 0.0026412 -0.05441 -0.096007 -0.04471 -0.019884 
0.25403 0.098166 -0.046683 0.063474 -0.0027845 -0.068386 -0.020212 0.022864 
0.4413 0.22148 -0.034188 0.054267 0.0052718 0.042594 0.067585 0.091753 
0.3632 0.25551 -0.035503 0.035853 -0.010841 0.049335 0.073668 0.082382 
0.071859 0.097837 0.010862 0.053609 -0.021528 0.080244 0.058049 0.038648 
-0.13103 -0.065591 0.028619 0.012177 -0.035667 0.16245 0.079094 0.068407 
-0.19515 -0.089102 0.048348 0.017603 -0.016595 0.22033 0.083862 0.032893 
-0.21356 -0.081045 0.066927 -0.0059084 -0.047998 0.23512 0.067913 0.030592 
-0.18528 -0.054904 0.088465 -0.0044286 -0.05441 0.23479 0.077285 0.021878 
-0.077428 0.034537 0.13171 0.024508 -0.058685 0.21917 0.073668 0.038648 
0.015794 0.14716 0.16706 -0.0036066 -0.064275 0.14289 0.063803 0.039305 
0.088465 0.21539 0.17478 -0.0044286 -0.047834 0.070873 0.056898 0.023851 
0.13138 0.17478 0.16278 0.034209 -0.043395 0.0056006 0.027139 0.034044 
0.13812 0.095371 0.16311 0.061666 -0.014951 -0.07266 0.022371 0.044731 
0.10507 -0.044052 0.11313 0.10408 0.019083 -0.13333 -0.0029489 0.0095465 
0.066269 -0.063618 0.038155 0.050814 -0.0029489 -0.1552 -0.0062372 -0.012485 
0.093891 0.090274 0.033387 0.041114 -0.004593 -0.11113 -0.016102 -0.0034422 
0.1396 0.33311 0.079258 0.050979 -0.014129 -0.037476 0.035853 0.016452 
0.10869 0.38523 0.088465 0.028454 -0.01939 0.016616 0.042594 0.070708 
0.0011614 0.21523 -0.0083746 0.037332 -0.017582 0.033387 0.029276 0.045553 
-0.077922 -0.034681 -0.11393 0.0021479 -0.041751 0.007738 0.030427 0.051472 
-0.06707 -0.15503 -0.20797 -0.023007 -0.069865 -0.024323 0.020069 0.039141 
-0.017911 -0.25253 -0.24727 -0.02498 -0.085649 -0.020048 0.018096 0.01415 
0.035031 -0.22524 -0.16523 -0.039613 -0.090746 0.053116 0.035195 0.031249 
0.063968 -0.085978 0.0095465 0.0041209 -0.047669 0.12349 0.048348 0.0075736 
0.038155 0.030098 0.10195 0.041114 -0.031228 0.12332 0.06183 0.0060938 
0.032236 0.062817 0.11757 0.015959 -0.036489 0.1054 0.017767 0.01711 
0.027961 0.059364 0.17708 0.058706 -0.018733 0.083533 0.028125 0.00066819 
0.064296 0.12792 0.23677 0.0689 0.00050378 0.13894 0.056404 0.020727 
0.16212 0.34413 0.28494 0.062159 0.03092 0.13565 0.079422 0.071531 
0.22164 0.46958 0.27688 0.085835 0.018589 0.12562 0.084684 0.11214 
0.1368 0.34758 0.22378 0.041443 -0.0055795 0.056733 0.066434 0.091918 
0.040785 0.14749 0.17856 0.053609 -0.01676 0.00050378 0.034044 0.0090533 
-0.030735 0.03947 0.13269 0.030098 -0.022514 0.013657 0.033058 -0.0034422 
-0.036983 0.010533 0.073668 0.022371 -0.024652 0.056076 0.055254 0.026481 
-0.080059 0.013986 0.03799 0.059693 -0.014787 0.038812 0.095535 0.064296 
-0.12478 0.01826 0.040128 0.034702 -0.019884 0.019247 0.051308 0.046375 
-0.072003 0.034209 0.0041209 0.041607 -0.013471 0.041278 -0.0027845 -0.0021268 
-0.016102 -0.0004827 -0.01676 -0.0059084 -0.045368 0.01152 0.018425 0.011684 
0.045882 0.0082312 -0.023994 0.0051074 -0.047012 -0.035174 0.032564 0.043745 
0.089452 0.007738 -0.021528 0.031414 -0.049149 -0.033365 0.034866 0.040456 
0.091753 -0.084827 -0.084663 0.010862 -0.045368 -0.014787 0.015465 -0.0016336 
0.047197 -0.2231 -0.12166 -0.00031829 -0.041093 -0.0098543 -0.028269 -0.018239 
0.0065871 -0.15109 -0.096336 0.00297 -0.050958 -0.028433 -0.073811 -0.093212 
0.053281 -0.068386 -0.053588 -0.016102 -0.065591 -0.068879 -0.074633 -0.050958 
0.094548 0.024508 0.052952 0.032564 -0.044217 0.0039565 -0.019061 0.0065871 
0.098988 0.13072 0.11428 0.047526 -0.016431 0.12003 0.045718 0.062323 
0.096521 0.15193 0.15094 0.064296 0.0074092 0.11165 0.065118 0.10228 
0.056733 0.15604 0.13516 0.040621 -0.021692 -0.0064016 0.077121 0.052787 
-0.057205 0.21934 0.12579 0.024015 -0.028104 -0.082854 0.061666 0.045553 
-0.16753 0.20701 0.12414 0.055747 -0.017582 -0.071509 0.033715 0.081231 
-0.15257 0.15752 0.10852 0.038977 -0.018075 -0.086964 0.024179 0.029769 
-0.056219 0.086985 0.048841 0.023686 -0.025967 -0.064275 -0.029584 -0.0029489 
0.029112 0.02681 0.027796 0.027961 -0.035832 -0.0073881 -0.022679 -0.036489 
0.075148 0.01563 -0.010676 0.026317 -0.03057 0.034209 -0.0090322 -0.026131 
0.10573 -0.035832 -0.10324 0.053938 -0.011992 0.082875 0.025001 0.030756 
0.11872 -0.10998 -0.17328 0.035853 -0.01528 0.1567 0.057391 0.065612 
0.10441 -0.11672 -0.26502 0.0088889 -0.037311 0.16755 0.084026 0.062159 
0.08156 -0.17871 -0.26667 0.0011614 -0.058685 0.17166 0.081889 0.051801 
0.062323 -0.19745 -0.15832 -0.031721 -0.078086 0.17001 0.067913 0.049335 
0.031907 -0.1011 -0.019719 -0.0011404 -0.048656 0.083697 0.046375 0.015959 
0.022042 0.031578 0.083368 0.020069 -0.056219 0.058706 0.059035 0.00297 
-0.0027845 0.10228 0.19747 0.0083956 -0.049971 0.040128 0.036839 0.026317 
-0.010841 0.15637 0.25633 0.051308 -0.031557 -0.0054151 0.038483 0.069722 
-0.0077169 0.23397 0.22805 0.029934 -0.031392 -0.056877 0.020727 0.037004 
-0.049314 0.34035 0.16262 0.027961 -0.0070593 -0.06855 0.00017495 0.045553 
-0.090417 0.21868 0.10688 0.03092 -0.025638 -0.092719 -0.011498 0.040785 
-0.045039 0.06594 0.097837 0.0059294 -0.040764 -0.083676 -0.0060728 0.036017 
0.047362 0.0039565 0.029769 0.056076 -0.019061 -0.10193 0.0037921 0.049828 
0.12201 -0.065919 -0.0095255 0.048019 -0.012649 -0.12133 -0.037147 0.021384 
0.13384 -0.096665 -0.076935 0.024837 -0.025638 -0.1723 -0.039778 0.019905 
0.099481 -0.093212 -0.084005 0.011355 -0.041915 -0.11755 -0.032543 -0.0032777 
0.032729 -0.096829 -0.059507 -0.0075525 -0.054575 -0.082361 -0.035174 -0.029748 
-0.0138 -0.037147 -0.0011404 0.045389 -0.018404 -0.072003 -0.022514 -0.02498 
0.012013 0.040128 0.013164 0.03651 -0.018075 -0.058192 -0.023829 -0.051944 
0.042923 0.044567 -0.024158 0.015465 -0.029091 -0.018897 -0.046683 -0.062138 
0.019905 0.098659 -0.036983 0.046868 -0.024652 0.078107 -0.020541 0.0075736 
-0.0068948 0.15242 -0.021856 0.037497 -0.014787 0.22772 0.072681 0.10047 
-0.067399 -0.017088 -0.031721 0.027303 0.0014903 0.33443 0.073339 0.049006 
-0.13037 -0.20616 -0.068221 -0.017088 -0.053753 0.38392 0.051308 -0.001798 
-0.079566 -0.18989 -0.039613 -0.025802 -0.069372 0.41499 0.11773 0.025988 
0.0023123 -0.058521 -0.040435 0.038483 -0.041751 0.37948 0.23052 0.11263 
0.15472 0.13269 0.026646 0.043909 -0.029748 0.21276 0.21819 0.15949 
0.32884 0.31503 0.076627 0.053938 -0.003771 0.06742 0.16475 0.16475 
0.25551 0.2833 0.11773 0.038319 -0.027118 -0.016102 0.10606 0.15341 
0.14124 0.13549 0.11461 0.0047785 -0.044052 -0.06707 -0.011334 0.024179 
0.0047785 0.0060938 0.072024 0.033715 -0.037805 -0.16227 -0.087458 -0.045532 
-0.017253 -0.065262 0.038483 0.0052718 -0.047341 -0.20847 -0.089266 -0.059507 
-0.023829 -0.073976 -0.035503 0.016288 -0.0406 -0.17657 -0.082032 -0.08121 
-0.049642 -0.094692 -0.088115 0.024673 -0.044546 -0.1598 -0.072167 -0.0503 
-0.023172 -0.061316 -0.093705 0.011191 -0.046683 -0.16276 -0.031392 -0.028597 
0.005765 0.05476 -0.060658 0.026974 -0.028269 -0.17032 -0.016924 0.0088889 
-0.0068948 0.12266 0.012835 -0.0013048 -0.044052 -0.13119 -0.014293 0.015137 
-0.051944 0.23216 0.15472 0.034537 -0.022843 -0.0014692 0.035688 0.039305 
-0.032379 0.36337 0.27902 0.10639 0.015465 0.099152 0.11937 0.11526 
0.062159 0.33476 0.28806 0.093726 0.030263 0.14256 0.096686 0.1225 
0.017438 0.10129 0.15867 0.071531 0.035031 0.13532 0.066434 0.024673 
-0.054246 -0.1113 0.011355 0.028619 -0.014129 0.15818 0.045389 -0.010512 
0.0042853 -0.051122 -0.044217 0.010533 -0.033201 0.17034 0.080409 0.033551 
0.24696 0.19912 -0.038298 0.038319 -0.033694 0.17774 0.11017 0.094055 
0.39 0.23759 -0.056055 -0.0049219 -0.053424 0.18678 0.10787 0.11378 
0.26718 0.11017 -0.078908 -0.0091966 -0.042408 0.14124 0.11543 0.074326 
0.049499 -0.039942 -0.077264 0.023522 -0.045861 0.084026 0.096686 0.060186 
-0.06855 -0.096665 -0.03353 -0.014787 -0.062467 0.038812 0.069722 0.04506 
-0.10176 -0.019226 0.076134 0.036017 -0.034845 -0.047012 0.036675 -0.014458 
-0.070359 0.060844 0.17051 0.012999 -0.043888 -0.13514 -0.043066 -0.045368 
-0.036489 0.063803 0.18942 0.041607 -0.026953 -0.14698 -0.095349 -0.04619 
0.042923 0.19994 0.20553 0.055582 -0.016924 -0.1011 -0.050629 -0.030735 
0.11428 0.45133 0.24959 0.034373 -0.014129 -0.029748 0.01826 0.057391 
0.15423 0.48191 0.28593 0.079916 0.020562 0.012177 0.064461 0.10244 
0.14519 0.3729 0.23545 0.090274 0.025988 0.01152 0.027139 0.060679 
0.11165 0.22213 0.17478 0.076627 0.021713 -0.028433 -0.00031829 0.019576 
0.059857 0.11707 0.10951 0.10672 0.029605 -0.038956 -0.02498 -0.0029489 
0.037497 0.015794 0.046868 0.082217 0.025166 0.020398 0.00297 -0.0029489 
0.036675 -0.072167 -0.026953 0.066105 0.048019 0.074983 0.069886 0.01974 
0.02681 -0.27029 -0.13136 0.017438 -0.012649 0.077285 0.077778 0.060186 
0.018918 -0.50819 -0.27588 -0.029913 -0.060329 0.069229 0.071202 0.0689 
-0.042408 -0.66422 -0.3954 -0.035174 -0.091732 -0.01117 0.04917 0.044073 
-0.12149 -0.55538 -0.40346 -0.10489 -0.13711 -0.036489 0.012342 0.012342 
-0.14418 -0.2619 -0.28015 -0.039449 -0.09387 0.012506 -0.0072237 -0.0067304 
-0.023665 0.0031344 -0.099624 0.058542 -0.061809 -0.016924 0.016123 0.055911 
0.11428 0.22723 0.1419 0.028454 -0.0406 -0.057699 -0.016266 -0.0072237 
0.19649 0.48339 0.2782 0.027303 -0.039778 -0.08121 -0.023007 -0.031064 
0.17692 0.59305 0.3193 0.010204 -0.04323 -0.05885 -0.0406 -0.022021 
0.088958 0.49112 0.28839 0.044731 -0.025967 -0.051122 -0.023994 -0.023994 
-0.090417 0.20569 0.17725 0.080902 -0.0024557 -0.046025 -0.0040998 0.012177 
-0.13037 -0.083018 0.11378 0.061666 0.0036276 -0.040271 0.0032988 0.012506 
-0.11311 -0.21866 0.092904 0.080738 0.031578 -0.047012 0.037497 0.016945 
-0.048985 -0.13382 0.12168 0.08156 0.026481 -0.030077 0.044238 0.029769 
0.034702 0.058213 0.15176 0.083533 0.02829 0.029605 0.055089 0.092576 
0.1197 0.20027 0.10113 0.08715 0.015465 -0.018239 0.054267 0.12825 
0.09981 0.01711 -0.084991 0.019083 -0.023665 -0.045696 -0.0062372 0.055911 
0.042923 -0.26223 -0.28114 -0.050136 -0.038627 -0.045039 -0.07414 -0.0013048 
0.010533 -0.44062 -0.30136 -0.038133 -0.081045 0.0062583 -0.04882 -0.056219 
-0.022185 -0.37617 -0.12182 -0.030899 -0.080059 0.097179 0.018754 -0.031392 
-0.050136 -0.12708 -0.025309 0.018425 -0.056877 0.16114 0.02829 0.017438 
-0.025145 0.10096 -0.0044286 0.012999 -0.047012 0.15801 0.038977 0.042265 
0.0021479 0.096357 -0.021363 -0.012485 -0.058028 0.16969 0.063803 0.024837 
0.04095 0.037497 0.040128 0.0082312 -0.058521 0.17396 0.059528 0.01415 
0.063803 0.048513 0.13631 -0.0064016 -0.063618 0.094055 0.054267 0.019411 
0.08156 0.0069159 0.15555 0.0021479 -0.052109 0.00066819 0.064625 0.01415 
0.059364 -0.040928 0.037661 -0.021528 -0.072332 -0.065097 0.021384 0.0082312 
0.027961 -0.050136 -0.05737 -0.046025 -0.092719 -0.17986 -0.0083746 0.020562 
0.027961 -0.012485 -0.11031 0.032729 -0.061151 -0.24201 -0.028597 0.033551 
0.038483 0.085341 -0.089595 0.070708 -0.016102 -0.20584 -0.0095255 0.033551 
-0.017746 0.15472 -0.047834 0.096028 0.046046 -0.12741 -0.037969 0.025001 
-0.080388 0.036182 0.065283 0.089287 0.035031 0.016288 0.00099702 0.0098754 
-0.16868 -0.15454 0.11921 0.067256 0.024015 0.14733 0.048348 0.013986 
-0.20518 -0.18331 0.086821 0.067585 0.0093821 0.19385 0.046046 0.026646 
-0.070359 -0.1011 0.020727 0.0034632 -0.035503 0.15078 0.03651 -0.013143 
0.14568 0.11592 0.043087 -0.027282 -0.052273 0.12431 -0.00064712 -0.0052507 
0.18629 0.25863 0.11872 0.019247 -0.052437 0.098988 0.017603 0.031907 
0.0032988 0.23627 0.13894 0.02533 -0.042408 0.12102 0.046211 0.093726 
-0.11409 0.11378 0.10376 0.042923 -0.024816 0.17741 0.062652 0.1008 
-0.046025 0.01004 0.023357 0.0070803 -0.036818 0.28626 0.11609 0.08715 
0.055254 0.03799 -0.017417 0.01974 -0.034352 0.2731 0.13582 0.077943 
0.12085 0.11263 -0.051287 0.029769 -0.038627 0.17922 0.11411 0.082546 
0.12316 0.082546 -0.027118 -0.021856 -0.069208 0.066598 0.086657 0.034044 
0.086821 0.11839 0.043416 -0.00031829 -0.052273 -0.033859 0.025495 0.020069 
0.088794 0.1909 0.10145 -0.0059084 -0.061151 -0.087293 -0.0060728 0.00297 
0.096521 0.27179 0.13121 -0.0049219 -0.064111 -0.060987 0.060186 0.054103 
0.20224 0.26176 0.14897 0.039634 -0.044381 -0.084991 0.051472 0.077778 
0.17001 0.22345 0.16196 0.029934 -0.035667 -0.081045 0.020069 0.086328 
0.067585 0.21358 0.12299 0.00297 -0.018568 -0.028433 0.01267 0.025166 
0.016123 0.038483 0.020233 0.048184 -0.048492 0.0042853 0.024015 0.0047785 
-0.031392 -0.019061 0.0026412 -0.040764 -0.07562 0.01004 0.030427 -0.016595 
-0.020048 0.15768 0.042594 -0.0072237 -0.074469 0.00083261 0.038155 0.010862 
0.030756 0.31914 0.094877 0.022371 -0.049971 0.01711 0.065612 0.052787 
0.037004 0.23644 0.14157 0.050814 -0.017088 0.030427 0.059528 0.052952 
-0.084663 0.12349 0.16853 0.11214 0.022371 0.080738 0.035524 0.057062 
-0.18775 0.040621 0.11987 0.10589 0.038319 0.17314 0.092247 0.062159 
-0.13251 -0.084005 0.045224 0.11148 0.052623 0.20273 0.083862 0.046868 
0.083368 -0.072332 0.018096 0.059528 0.019905 0.16015 0.041607 0.04654 
0.13549 0.084519 0.037168 0.06183 0.0085601 0.13253 0.037661 0.033058 
0.13483 0.17462 0.034702 0.09274 0.010369 0.076956 0.036839 0.0421 
0.14798 0.091918 -0.0087034 0.03536 -0.011334 0.083204 0.015465 0.051472 
0.14831 0.0032988 -0.073154 0.027632 -0.010019 0.1419 0.030427 0.06742 
0.10343 -0.07003 -0.080552 -0.034352 -0.068879 0.052459 0.08715 0.06331 
0.060515 -0.024323 -0.040764 -0.057205 -0.10324 -0.133 0.047691 0.032893 
0.038648 0.071037 0.018918 -0.059672 -0.11935 -0.23231 -0.011498 -0.023994 
0.0083956 -0.088444 0.093069 -0.031064 -0.10308 -0.20205 -0.024323 -0.024652 
-0.0031133 -0.30777 0.060515 0.017932 -0.035338 -0.077593 -0.017746 -0.01939 
0.043251 -0.095514 0.12217 0.076134 -0.0021268 0.055911 0.018589 0.021384 
0.038483 0.26685 0.22065 0.053116 -0.0026201 0.073668 0.029605 0.0085601 
0.050321 0.51101 0.2759 0.074161 0.0044497 0.036017 -0.013307 0.0034632 
0.064954 0.49769 0.20635 0.061172 0.0032988 0.059857 -0.011827 0.010697 
0.097179 0.30779 0.11822 0.066927 0.0080668 0.09833 0.036017 0.040785 
0.10556 0.11576 0.042429 0.081067 0.0060938 0.171 0.089123 0.072024 
0.087314 0.0044497 -0.054904 0.033551 -0.010512 0.1858 0.078107 0.054596 
0.012835 -0.1815 -0.24529 0.01267 -0.028104 0.10737 0.050321 0.011684 
-0.03764 -0.2961 -0.29495 -0.0047575 -0.05178 -0.030077 0.018096 0.021878 
-0.047341 -0.21143 -0.15964 0.026974 -0.0406 -0.17509 -0.026953 0.02829 
-0.02087 -0.056219 -0.023172 0.060186 -0.030735 -0.34953 -0.049642 0.028783 
0.04095 0.042758 0.022371 0.055911 -0.016102 -0.51066 -0.043888 0.080738 
0.10935 0.10639 -0.040271 0.033551 -0.0024557 -0.534 -0.064933 0.077614 
0.10376 0.047033 -0.090088 0.011026 -0.032215 -0.39129 -0.064604 0.03651 
0.03536 -0.0042642 -0.015938 0.0037921 -0.039613 -0.22836 -0.089595 -0.0078813 
0.01152 0.0085601 0.11428 0.018096 -0.045203 -0.0057439 -0.087458 -0.089759 
0.0024767 0.057884 0.21802 0.0059294 -0.03912 0.232 -0.037969 -0.090746 
0.012835 0.050486 0.18678 0.020562 -0.006566 0.26488 -0.0096899 -0.091568 
0.051472 0.04654 0.11576 0.067749 -0.0034422 0.29349 0.037497 -0.03205 
0.081395 -0.028433 -0.010841 0.085835 0.021713 0.39329 0.088958 0.013164 
0.080409 -0.13037 -0.0503 0.10787 0.036346 0.49539 0.13171 0.050979 
0.046704 -0.11738 -0.0096899 0.056733 0.013328 0.45741 0.21227 0.059528 
0.022371 -0.11903 -0.033365 0.010862 -0.025474 0.3826 0.18432 0.12217 
0.0080668 -0.29149 -0.11804 0.0052718 -0.06148 0.26472 0.1641 0.10408 
-0.033859 -0.33194 -0.19614 -0.036325 -0.084663 0.1807 0.16196 0.1003 
-0.059672 -0.048163 -0.16375 -0.014129 -0.079401 0.084848 0.10737 0.089287 
-0.023665 0.21638 -0.062302 -0.022843 -0.085978 -0.20567 -0.014951 0.018425 
-0.00064712 0.19698 -0.059672 -0.0138 -0.077593 -0.46035 -0.13547 -0.035832 
0.04506 0.10704 -0.067892 0.010862 -0.072003 -0.46265 -0.12922 -0.066906 
0.092576 0.061337 0.025988 -0.03205 -0.076606 -0.29199 -0.1039 -0.02794 
0.068242 0.1391 0.099316 0.026646 -0.017746 -0.10883 -0.044052 0.0090533 
0.08567 0.22361 0.077943 0.043087 -0.014293 0.027632 0.055418 0.060186 
0.10113 0.19402 0.039963 0.047033 -0.0083746 0.11066 0.099481 0.11231 
0.068571 0.1664 0.068571 0.08156 0.013164 0.14157 0.11 0.085506 
0.016123 0.18415 0.1761 0.055911 0.0031344 0.14782 0.098659 0.043745 
-0.0075525 0.14765 0.24384 0.064132 0.011684 0.13384 0.0059294 -0.025967 
-0.015609 0.092411 0.23693 0.068736 0.0018191 0.15851 -0.039284 -0.066248 
-0.0031133 0.1225 0.20273 0.060515 0.0080668 0.24515 0.020727 -0.018568 
0.048019 0.15456 0.15341 0.064296 0.0064227 0.23414 0.099481 0.070544 
0.063145 0.18547 0.086492 0.013164 -0.028269 0.10967 0.082053 0.1128 
0.0051074 0.12266 0.025166 0.016452 -0.036818 0.078765 0.09274 0.087643 
-0.047012 -0.068221 -0.063289 -0.00081153 -0.060658 0.11707 0.11625 0.052623 
-0.045532 -0.20238 -0.090746 -0.024158 -0.076771 0.077121 0.070544 0.055418 
-0.074469 -0.18495 -0.13267 -0.053424 -0.085649 -0.030899 0.0024767 0.034537 
-0.095843 -0.23444 -0.15865 -0.061645 -0.11015 -0.062796 -0.021199 -0.055726 
-0.080717 -0.30596 -0.18791 -0.033859 -0.095021 -0.043395 -0.051451 -0.075784 
-0.022021 -0.17246 -0.20353 0.038155 -0.053424 1.0539e-005 -0.014458 -0.026296 
0.019247 -0.072989 -0.17476 0.033387 -0.034845 0.037826 0.058871 0.031907 
0.00083261 -0.090253 -0.15207 0.0018191 -0.024323 0.07597 0.054596 0.044896 
0.053281 -0.034023 -0.053917 -0.0070593 -0.056383 0.037497 0.069558 0.085012 
0.26455 0.20306 0.095535 0.0065871 -0.051451 0.029934 0.11691 0.12151 
0.24597 0.34166 0.26998 0.069722 -0.016595 0.022864 0.10951 0.12233 
0.072846 0.36452 0.41713 0.074654 0.0042853 0.031414 0.073339 0.047033 
-0.06148 0.33032 0.4801 0.088465 0.019905 -0.018075 0.039799 0.045224 
-0.14961 0.24614 0.41039 0.048019 -0.013471 -0.1113 -0.0055795 -0.0057439 
-0.13925 0.21062 0.26866 -0.012814 -0.047998 -0.16588 -0.027118 -0.029584 
0.039634 0.21062 0.13236 0.056404 -0.011827 -0.12757 -0.014787 0.058542 
0.31421 0.13039 0.030592 0.08419 0.014643 -0.098967 -0.0047575 0.1026 
0.3438 -0.061151 -0.089595 0.04358 -0.0036066 -0.085813 -0.057534 0.032564 
0.16048 -0.20699 -0.1575 -0.0067304 -0.031392 0.023686 -0.043066 0.015301 
-0.022185 -0.27949 -0.18561 -0.028762 -0.060494 0.25946 0.01563 -0.032543 
-0.14122 -0.32438 -0.25154 -0.03912 -0.082854 0.27672 0.021056 -0.071181 
-0.157 -0.32701 -0.31205 -0.019884 -0.09091 0.13138 0.021713 -0.043395 
-0.14221 -0.23165 -0.19334 0.01563 -0.061973 0.023686 0.022864 0.012177 
-0.11015 0.056569 0.090603 0.066434 -0.027775 -0.092061 0.03947 0.082875 
-0.05441 0.41022 0.30187 0.062652 -0.018568 -0.19614 0.031249 0.055089 
-0.025802 0.56264 0.32325 0.044896 0.00033937 -0.2739 -0.012814 0.073339 
0.053609 0.4949 0.28198 0.058049 -0.015773 -0.30317 -0.024323 0.090438 
0.13845 0.33278 0.19632 0.01974 -0.027282 -0.25253 -0.02794 0.045224 
0.17692 0.11378 0.14963 0.012999 -0.028104 -0.12757 -0.011498 0.053116 
0.099316 -0.02942 0.09685 -0.0080457 -0.049971 -0.036983 0.036675 0.055911 
-0.00031829 -0.032543 0.074819 -0.028762 -0.066084 0.050321 0.058049 0.026974 
0.038155 0.012835 0.055089 0.033387 -0.0406 0.15851 0.034044 -0.0004827 
0.15028 0.081889 0.047197 0.062159 -0.0029489 0.26406 0.033058 -0.0090322 
0.20273 0.024508 -0.059507 0.085177 0.031249 0.18037 0.0227 -0.0082102 
0.15292 -0.23116 -0.14846 0.093398 0.031578 0.1368 0.023686 0.005765 
-0.023007 -0.43618 -0.16868 0.073997 0.019576 0.11839 0.035853 -0.012649 
-0.12429 -0.33753 -0.1085 0.080244 0.0092177 -0.035667 0.036182 0.020562 
-0.10686 -0.12741 -0.097158 0.048513 -0.0083746 -0.22688 -0.082854 -0.026624 
-0.053753 0.1202 -0.085485 0.031249 -0.0070593 -0.29117 -0.12971 -0.020706 
0.037661 0.3438 -0.0055795 0.025001 -0.030406 -0.32076 -0.052109 0.037497 
0.095371 0.4385 0.13187 -0.009361 -0.042901 -0.23954 0.013328 0.062488 
0.10244 0.41055 0.20191 0.010369 -0.042244 -0.08384 0.029769 0.075476 
0.073832 0.26389 0.18843 -0.012485 -0.054082 0.064954 0.077449 0.084355 
0.036675 0.053938 0.12957 -0.0090322 -0.053424 0.15423 0.10737 0.063968 
-0.026624 -0.033201 0.10524 0.024344 -0.048985 0.20767 0.071202 0.031249 
-0.05178 -0.082854 0.11543 0.023686 -0.037311 0.19073 0.046868 0.0036276 
-0.065262 -0.021856 0.13565 0.055254 -0.011663 0.17412 0.038648 -0.0011404 
-0.0406 0.13532 0.1197 0.024344 -0.021856 0.1955 0.020562 0.0031344 
-0.015938 0.11132 0.062159 -0.0021268 -0.045039 0.15916 0.00017495 -0.024816 
0.016616 -0.045696 -0.070852 0.030427 -0.046354 0.11017 0.023522 0.026152 
0.16969 -0.10932 -0.15076 0.027796 -0.035667 0.1738 0.082053 0.092411 
0.34676 -0.027611 -0.21225 0.047362 0.0028056 0.17462 0.095699 0.11329 
0.31453 -0.045532 -0.25631 0.038483 -0.015609 0.045389 0.064296 0.075476 
0.10524 -0.18167 -0.25631 -0.00015387 -0.047012 -0.038298 0.025659 -0.019719 
-0.030899 -0.26009 -0.11607 0.018754 -0.045861 -0.0077169 0.018096 -0.039942 
-0.054739 -0.14303 0.044073 0.011848 -0.043888 0.01826 0.036346 -0.0032777 
-0.12133 0.11395 0.24482 0.041443 0.004943 0.097015 0.081067 0.020562 
-0.17821 0.27442 0.35334 0.064954 -0.019884 0.10787 0.066269 0.02681 
-0.1011 0.37931 0.35071 0.0044497 -0.033201 0.076299 0.072681 0.020727 
-0.10505 0.42107 0.34199 0.049006 -0.020706 0.13105 0.064461 -0.0088678 
-0.096829 0.4875 0.28362 0.035195 -0.013636 0.09126 0.061501 0.049828 
0.0056006 0.43752 0.18613 0.064296 -0.0036066 0.013657 0.043909 0.089123 
0.14338 0.26669 0.039305 0.096686 0.019247 -0.032543 0.032893 0.074983 
0.10967 0.1276 -0.043888 0.0689 0.012342 0.0013258 0.039799 0.072188 
0.084848 0.093398 -0.085156 0.073339 0.020233 -0.042901 0.038977 0.078929 
0.10655 -0.059836 -0.082854 0.048348 -0.00081153 -0.082854 0.00297 0.037497 
0.1197 -0.26453 -0.21718 -0.013307 -0.04619 -0.10193 -0.019555 -0.02235 
0.080573 -0.53664 -0.4301 -0.037147 -0.084991 -0.061151 -0.026296 -0.050464 
0.016945 -0.76994 -0.53565 -0.070194 -0.11097 0.016288 0.031414 0.011355 
-0.0077169 -0.71601 -0.46594 -0.058028 -0.087951 -0.015773 0.051472 0.052952 
0.012013 -0.50392 -0.20189 -0.020541 -0.088608 -0.026624 0.022864 0.040785 
0.019576 -0.14352 0.043087 -0.01939 -0.077757 0.01152 -0.014787 -0.0075525 
0.040292 0.10869 0.1345 0.00083261 -0.068221 0.10754 0.012999 -0.032215 
0.031414 0.28412 0.15275 -0.039613 -0.083676 0.15735 0.0227 -0.015609 
0.0060938 0.41269 0.24038 0.01563 -0.047834 0.17445 0.044896 0.01974 
-0.037805 0.57168 0.37027 0.096028 0.0014903 0.17807 0.048513 0.023851 
0.035031 0.68233 0.40776 0.10754 0.030263 0.15982 0.091753 0.07038 
0.12168 0.512 0.21769 0.11247 0.04358 0.09422 0.097344 0.095699 
0.10441 0.16607 -0.014787 0.052623 0.011026 0.095206 0.091096 0.08863 
0.0087245 -0.062138 -0.0406 0.034866 -0.0090322 0.15538 0.1077 0.08978 
0.0054362 -0.1769 -0.014129 0.032071 -0.025638 0.16426 0.082382 0.055254 
0.013986 -0.255 -0.047176 0.01152 -0.040435 0.067585 0.076134 0.057227 
-0.0055795 -0.33835 -0.048985 0.016781 -0.027775 -0.068879 0.029769 0.032564 
-0.010183 -0.41004 -0.046847 0.024508 -0.043559 -0.26371 -0.052273 0.011026 
0.042594 -0.31846 -0.034845 0.022042 -0.037969 -0.32964 -0.094199 -0.014622 
0.042429 -0.047998 0.11017 0.041278 -0.016102 -0.18249 -0.054904 -0.019226 
0.025495 0.20257 0.23496 0.071202 0.005765 -0.096665 -0.0062372 0.01152 
0.0028056 0.34528 0.24532 0.078272 0.041772 -0.11048 -0.025474 0.0088889 
0.026481 0.42354 0.22082 0.049335 -0.0011404 -0.12215 -0.064933 -0.018733 
0.041936 0.46596 0.19287 -0.011498 -0.041257 -0.043559 -0.016102 -0.0026201 
0.023028 0.45346 0.1761 -0.011992 -0.058028 0.10491 0.020069 0.011026 
0.050486 0.47089 0.17149 -0.021528 -0.067399 0.2754 0.071531 0.021878 
0.1202 0.43834 0.18399 0.011684 -0.047341 0.41729 0.15851 0.11526 
0.10441 0.16821 0.098166 0.038977 -0.039613 0.34265 0.17412 0.1179 
0.0689 -0.10373 -0.011005 0.029441 -0.040764 0.14239 0.13154 0.11592 
0.029605 -0.21554 -0.194 0.019247 -0.035503 -0.009361 0.054925 0.054925 
0.012506 -0.30498 -0.35808 -0.022185 -0.06855 -0.092719 -0.023665 -0.035503 
-0.035503 -0.37929 -0.42303 -0.069372 -0.11393 -0.17723 -0.094363 -0.11196 
-0.021528 -0.43026 -0.37272 0.0032988 -0.08269 -0.21455 -0.13727 -0.088115 
-0.03057 -0.52874 -0.29462 0.029605 -0.047176 -0.2009 -0.092554 -0.074469 
0.012506 -0.52381 -0.15109 0.085012 0.021549 -0.13349 -0.094692 -0.018404 
0.044073 -0.3178 0.014315 0.14617 0.035853 -0.078579 -0.033859 -0.0031133 
0.06035 -0.17377 0.14585 0.097179 0.039634 -0.078086 -0.001798 0.026646 
0.038648 -0.038133 0.22608 0.080738 0.019247 -0.052437 0.028947 0.073997 
0.0034632 0.24005 0.34988 0.016616 -0.018075 -0.023501 0.044073 0.065447 
0.012177 0.51627 0.49144 0.031414 -0.003771 0.11773 0.12135 0.073997 
0.10524 0.7698 0.56839 0.044731 -0.01232 0.30007 0.16607 0.10655 
0.1881 1.0603 0.5577 0.024508 -0.014951 0.42732 0.16788 0.11724 
0.038977 0.92944 0.42009 0.039141 -0.013965 0.39132 0.1248 0.1003 
-0.075455 0.45198 0.23085 -0.028597 -0.064933 0.20914 0.078436 0.036346 
-0.0021268 0.027468 -0.0049219 -0.031228 -0.086636 0.039634 0.015794 -0.017746 
0.026974 -0.20748 -0.14681 0.0054362 -0.077264 -0.069372 -0.028926 -0.047669 
-0.0072237 -0.31583 -0.10587 -0.0072237 -0.071509 -0.11607 -0.051615 -0.053424 
-0.014129 -0.27357 -0.12346 0.018589 -0.03501 -0.0771 -0.009361 0.0090533 
0.00017495 -0.26157 -0.22244 0.0069159 -0.047012 0.0093821 0.064954 0.071531 
-0.064275 -0.41102 -0.40264 0.01415 -0.04471 0.014479 0.08978 0.063639 
-0.14878 -0.44588 -0.54124 0.019576 -0.053095 -0.015116 0.052623 0.022371 
0.046211 -0.11705 -0.44621 0.0080668 -0.049149 -0.031392 0.017274 0.025166 
0.30204 0.17363 -0.1935 0.0016547 -0.03057 -0.042737 0.034209 0.098001 
0.28017 0.37422 0.096357 0.0037921 -0.042408 -0.046519 0.044073 0.10293 
0.13088 0.40578 0.21589 0.013986 -0.041915 -0.038791 0.00050378 0.051801 
0.0079024 0.25091 0.1853 0.049992 -0.027611 -0.0088678 0.00033937 0.013657 
-0.019226 0.16706 0.1807 0.027961 -0.027282 0.062652 0.048677 0.015465 
0.0026412 0.09126 0.16327 0.025495 -0.026789 0.12316 0.046211 0.00066819 
-0.01939 0.01415 0.13697 0.048184 -0.026624 0.083204 0.042758 -0.0073881 
-0.020377 0.05624 0.1442 0.064461 -0.0060728 0.061337 0.024673 0.0021479 
-0.014458 0.11378 0.11855 0.10803 0.032729 0.070544 0.017603 0.004943 
-0.022185 0.017603 0.072681 0.063968 0.0060938 0.10787 0.0088889 0.017274 
-0.037805 -0.13941 0.056898 0.042758 -0.0044286 0.11806 0.054103 0.053774 
0.019576 -0.06296 0.052294 0.067913 -0.0055795 0.047362 0.07449 0.11181 
0.12875 0.13121 0.065283 0.034866 -0.02087 -0.07414 0.031414 0.11165 
0.11642 0.18761 0.048513 -0.0095255 -0.028926 -0.18183 -0.018733 0.052294 
0.043416 0.087479 0.030592 -0.010348 -0.059507 -0.20551 -0.020048 0.032893 
-0.02235 -0.080881 0.017438 -0.012156 -0.061809 -0.099789 -0.003771 0.026152 
-0.034681 -0.14484 -0.0406 -0.011334 -0.07414 -0.02646 0.014808 -0.0070593 
-0.045203 0.012999 -0.076277 -0.068386 -0.10554 0.015465 0.04095 -0.013307 
-0.030406 0.06742 -0.072989 -0.061316 -0.093705 0.057227 0.022042 -0.021856 
-0.011663 0.13006 -0.023994 0.0083956 -0.067564 -0.0034422 -0.030406 0.063474 
0.058213 0.1664 -0.034023 0.064461 -0.016266 0.034702 -0.015116 0.00033937 
0.093726 0.044896 -0.13152 0.070873 0.012013 0.082875 0.029441 0.071695 
0.10984 -0.083512 -0.16703 0.029276 -0.0067304 0.17593 0.078272 0.11066 
0.098659 -0.080388 -0.15799 0.019411 -0.020541 0.28445 0.10359 0.049335 
0.085341 -0.096665 -0.12412 0.042429 -0.026953 0.19796 0.090438 0.023357 
0.0786 0.0042853 -0.02942 0.055089 -0.019719 0.036346 0.01974 -0.022514 
0.06742 0.085506 0.082875 0.092247 0.015794 -0.077757 -0.023829 -0.024487 
0.07301 0.059528 0.17725 0.08156 0.021878 -0.21323 -0.021363 0.0080668 
0.051965 1.0539e-005 0.16919 0.049828 -0.00015387 -0.28722 -0.060329 -0.006566 
-0.01528 0.094877 0.19928 0.056733 -0.0095255 -0.22474 -0.040928 0.0026412 
-0.10176 0.23035 0.20865 0.037661 -0.01232 -0.10653 0.043909 0.056404 
-0.17147 0.26965 0.21835 0.053609 0.012013 -0.045532 0.034537 0.023522 
-0.11508 0.24943 0.23118 0.056076 -0.001798 -0.03353 0.016945 0.042429 
0.097015 0.25995 0.30204 0.075641 0.0095465 -0.074469 0.015137 0.093233 
0.25156 0.33805 0.31815 0.089616 0.01415 -0.079237 0.060022 0.1248 
0.24088 0.34972 0.30878 0.039305 -0.008539 -0.060987 0.017932 0.084026 
0.12513 0.26981 0.22756 0.02681 -0.0029489 -0.017911 -0.00031829 0.013657 
0.16722 0.22805 0.23118 0.03799 -0.011827 0.0324 0.013821 -0.0039354 
0.24186 0.25091 0.32095 0.042429 -0.015773 0.0026412 -0.025145 -0.0011404 
0.12398 0.12118 0.27179 0.05213 -0.028926 -0.049478 -0.079072 -0.047998 
-0.02942 -0.15076 0.052787 -0.0060728 -0.048327 0.021713 -0.059178 -0.079566 
-0.1769 -0.31451 -0.14615 -0.021528 -0.060658 0.1641 0.0032988 -0.052766 
-0.22754 -0.43865 -0.22047 0.0069159 -0.063453 0.27392 0.032236 -0.038791 
-0.19729 -0.64367 -0.32635 0.0092177 -0.0503 0.39756 0.086163 0.0069159 
-0.17377 -0.75974 -0.44802 -0.0070593 -0.0503 0.37619 0.097508 0.0018191 
-0.17591 -0.81532 -0.52661 -0.038791 -0.079237 0.28346 0.072681 -0.017582 
-0.18907 -0.71091 -0.55784 -0.063289 -0.10308 0.33476 0.10211 0.025001 
-0.067564 -0.25828 -0.33556 -0.01117 -0.086471 0.43949 0.23298 0.10819 
0.10951 0.31092 0.0075736 0.0018191 -0.070359 0.32473 0.27228 0.20142 
0.17758 0.50542 0.10474 -0.018404 -0.054739 0.0090533 0.1419 0.13598 
0.17166 0.43127 -0.040435 -0.046847 -0.10998 -0.29988 -0.042901 -0.038462 
0.18596 0.38589 -0.11574 -0.047012 -0.11048 -0.45262 -0.12692 -0.030899 
0.26768 0.43258 0.039634 0.078929 -0.033037 -0.40708 -0.085813 0.065283 
0.18629 0.41384 0.29694 0.11395 0.027468 -0.31566 -0.073811 0.064954 
0.072846 0.31223 0.44311 0.13598 0.077285 -0.17312 -0.059836 0.01826 
0.025495 0.16048 0.4556 0.13598 0.075476 0.05065 0.0065871 0.016781 
-0.030077 0.12891 0.38162 0.076627 0.043251 0.14272 0.063968 0.034044 
-0.16391 0.12628 0.22641 0.053281 0.0082312 0.11132 0.078929 0.051965 
-0.20912 0.047033 0.071531 0.0014903 -0.032215 0.14798 0.051636 0.022864 
-0.040106 -0.028433 0.010862 -0.023665 -0.058521 0.2565 0.072353 0.03799 
0.1299 -0.048656 -0.038462 -0.0406 -0.07825 0.33476 0.14502 0.089287 
0.14897 -0.023007 -0.041751 -0.049149 -0.095678 0.30746 0.14239 0.076299 
0.090274 0.022206 -0.04471 -0.021034 -0.076113 0.15587 0.083862 0.051965 
0.089452 0.038319 -0.017088 0.0014903 -0.06855 -0.0060728 -0.019555 -0.026624 
0.098659 0.028947 0.01974 0.015301 -0.046025 0.0074092 0.0065871 -0.039284 
0.039799 0.017932 0.0069159 0.072517 -0.015609 0.12875 0.020233 0.0092177 
-0.015116 0.029441 -0.047176 0.01004 -0.045532 0.081724 0.055089 0.031578 
-0.035996 0.0044497 -0.12478 -0.032708 -0.052602 -0.040435 0.076299 0.098659 
-0.053753 -0.049807 -0.19449 -0.042408 -0.09239 -0.17525 0.055582 0.10014 
-0.11064 -0.25845 -0.22852 -0.052931 -0.10571 -0.28114 -0.020541 0.01711 
-0.26174 -0.51362 -0.2573 -0.041915 -0.1085 -0.26141 -0.056219 -0.036818 
-0.22902 -0.42796 -0.19235 0.0080668 -0.064768 -0.10291 -0.058521 -0.032708 
-0.020048 -0.078908 -0.092883 0.06183 -0.0083746 0.069886 -0.021856 -0.016266 
0.14815 0.24712 -0.021363 0.075148 1.0539e-005 0.18958 0.011684 -0.011005 
0.21441 0.42831 0.038977 0.049335 -0.010676 0.24252 -0.011334 -0.031064 
0.22033 0.45889 0.099974 0.036675 -0.012978 0.28658 0.072188 0.070708 
0.22197 0.29513 0.14289 0.048677 -0.0044286 0.36271 0.20191 0.18646 
0.17643 0.053774 0.20257 0.036675 -0.012156 0.42025 0.25962 0.17363 
0.094384 -0.02794 0.23118 0.032893 -0.023336 0.32884 0.15555 0.10096 
0.071531 -0.012978 0.17445 0.035031 -0.029255 0.079587 0.055747 0.027303 
0.080902 0.08715 0.14848 0.020398 -0.019061 -0.16934 -0.001798 0.0067515 
0.078107 0.26587 0.15883 0.028454 -0.032543 -0.29725 -0.072003 -0.020377 
0.016781 0.32193 0.15028 0.031578 -0.029913 -0.38373 -0.12001 -0.062138 
-0.045039 0.13302 0.14782 0.11592 0.016616 -0.39573 -0.14796 -0.088444 
-0.094692 0.13368 0.14881 0.12973 0.054925 -0.26535 -0.10291 -0.05178 
-0.10176 0.23463 0.12513 0.11198 0.083533 -0.12494 -0.02794 0.011026 
-0.075127 0.16344 0.14782 0.10491 0.050486 -0.096994 -0.013636 0.023522 
0.0042853 0.12414 0.16163 0.035195 0.0047785 -0.12281 -0.0054151 0.043745 
0.15259 0.28362 0.20257 0.048019 -0.013143 -0.10373 -0.0098543 0.068736 
0.20832 0.29908 0.21375 -0.0080457 -0.045861 -0.085649 -0.0088678 0.066598 
0.13697 0.13598 0.11592 -0.012649 -0.055561 0.011026 0.028619 0.014808 
0.091589 -0.09387 0.015465 0.0087245 -0.056548 0.089616 0.029605 0.0032988 
0.021056 -0.25105 -0.05441 -0.010348 -0.059672 0.11921 0.032893 -0.0022913 
-0.024158 -0.41744 -0.15487 0.0051074 -0.04471 0.17297 0.058213 -0.039942 
-0.037147 -0.43897 -0.19811 0.0021479 -0.046025 0.26143 0.027961 -0.014622 
-0.037311 -0.29133 -0.17772 0.028619 -0.034023 0.28921 0.013657 -0.032543 
-0.00064712 0.063968 -0.039942 0.090931 -0.0083746 0.14486 0.053938 0.06183 
0.097015 0.42634 0.12529 0.08304 0.0088889 -0.0059084 0.083204 0.13812 
0.096193 0.49046 0.15966 0.041278 0.017932 -0.10965 0.058049 0.11921 
0.043251 0.37044 0.15587 0.039799 -0.016595 -0.17953 0.0013258 0.049335 
0.02122 0.31864 0.20076 0.014972 -0.02942 -0.16884 -0.049478 -0.017088 
0.031742 0.19007 0.17478 0.077121 -0.0044286 -0.089102 -0.0068948 0.01152 
0.017767 -0.016431 0.026646 0.058706 0.0074092 -0.017911 0.040785 0.054925 
0.019083 -0.20649 -0.12198 0.012999 -0.0078813 -0.044052 0.010204 0.005765 
0.037497 -0.34592 -0.22014 0.0039565 -0.047834 -0.091732 -0.043066 -0.040764 
0.0013258 -0.45903 -0.23066 -0.025474 -0.069372 -0.085813 -0.080552 -0.073647 
-0.062796 -0.47613 -0.20551 0.0041209 -0.054246 -0.0055795 -0.023501 -0.0771 
-0.066577 -0.42138 -0.062631 0.00099702 -0.053917 0.00297 -0.003771 -0.028762 
-0.024487 -0.1011 0.12957 0.032564 -0.03353 -0.025967 -0.010183 -0.0034422 
0.031085 0.31864 0.33821 0.11609 0.016288 -0.04471 0.0067515 0.061008 
0.1368 0.63465 0.49555 0.15735 0.070215 0.015465 0.11198 0.14733 
0.23397 0.63103 0.46316 0.18218 0.12497 0.15982 0.16952 0.20092 
0.28494 0.32226 0.27409 0.087314 0.060515 0.21687 0.15571 0.16969 
0.16936 0.066105 -0.030077 -0.043724 -0.049149 0.10737 0.095864 0.052787 
-0.029255 0.034537 -0.12757 -0.080717 -0.11968 0.0098754 0.034537 -0.0073881 
-0.17641 0.13434 -0.083183 -0.081539 -0.12922 -0.014129 0.029112 0.016452 
-0.12757 0.1197 -0.05885 -0.049642 -0.077757 0.059364 0.066763 0.028125 
-0.062631 -0.13021 -0.23329 -0.02794 -0.089595 0.1151 0.039141 0.015137 
-0.034516 -0.28574 -0.43404 -0.069372 -0.11146 0.18169 0.031578 -0.0095255 
-0.0050863 -0.22211 -0.46199 -0.035174 -0.10489 0.21852 0.067091 0.0075736 
0.056898 -0.11574 -0.35118 -0.0049219 -0.079401 0.13286 0.10047 0.058213 
0.064461 0.024015 -0.17624 0.034537 -0.042079 0.0013258 0.017767 0.02829 
0.038483 0.012835 -0.14106 0.066927 -0.028762 -0.18052 -0.071509 -0.041257 
0.055747 -0.0013048 -0.08269 0.05624 -0.014622 -0.29429 -0.086142 -0.040764 
0.070544 0.033715 0.13976 0.11132 0.040292 -0.15125 -0.055397 0.0227 
0.060515 0.22263 0.37159 0.11411 0.05624 0.060844 0.016945 0.054925 
0.043087 0.42124 0.52581 0.088465 0.046704 0.071859 0.067585 0.098494 
0.056404 0.44755 0.53238 0.08567 0.015959 -0.044052 0.034537 0.057555 
0.079916 0.29185 0.33854 0.023522 -0.011663 0.060022 0.082875 0.082875 
0.064461 0.0014903 0.10178 0.0085601 -0.008539 0.15834 0.13302 0.10293 
0.041443 -0.2134 -0.053753 -0.023501 -0.063946 0.13943 0.09126 0.053938 
-0.016266 -0.40034 -0.21734 -0.091897 -0.11985 0.044731 0.0079024 -0.010676 
-0.021363 -0.37584 -0.25697 -0.050793 -0.12396 -0.0044286 -0.042737 -0.060165 
0.030263 -0.22787 -0.27916 -0.030899 -0.10176 0.0021479 -0.02646 -0.048492 
0.099974 -0.13119 -0.32964 -0.011498 -0.057534 0.0028056 -0.04471 -0.003771 
0.11477 -0.087129 -0.2961 0.01711 -0.058028 -0.015773 -0.0026201 0.009711 
0.075641 0.049006 -0.18463 0.022864 -0.039778 0.0047785 0.081395 0.058542 
0.082875 0.22805 -0.025309 0.047691 -0.023336 -0.0060728 0.13434 0.11937 
0.1008 0.27623 0.097015 -0.0060728 -0.056055 -0.12971 0.1077 0.10918 
0.031249 0.24055 0.10293 -0.032708 -0.08121 -0.25023 0.032071 0.074983 
-0.11146 0.33098 0.1299 -0.013965 -0.069043 -0.19909 -0.038791 0.055747 
-0.20123 0.45429 0.13878 -0.035996 -0.079237 -0.075784 -0.036818 0.0083956 
-0.13349 0.40134 0.22723 -0.021528 -0.063453 0.036182 -0.017911 -0.013307 
-0.0060728 0.13828 0.21638 0.031085 -0.03353 0.14206 0.019411 -0.018733 
0.098001 -0.042244 0.20257 0.070873 -0.00097594 0.24712 0.027961 -0.022514 
0.11724 -0.10653 0.19813 0.13697 0.041114 0.2486 0.016123 -0.063946 
0.14108 -0.056548 0.18235 0.10376 0.039305 0.2366 0.06479 -0.12314 
0.1151 -0.0021268 0.13615 0.1373 0.090109 0.26768 0.046211 -0.02646 
0.064461 -0.050629 0.095535 0.18218 0.10063 0.35695 0.092411 0.058706 
-0.066906 -0.25253 -0.039284 0.091753 0.061172 0.42239 0.12365 0.056404 
-0.15569 -0.4079 -0.21981 0.021549 -0.0070593 0.31305 0.072024 0.067256 
-0.099295 -0.31977 -0.2864 -0.11426 -0.12215 0.06183 0.069558 0.13582 
0.046868 -0.021034 -0.18956 -0.11952 -0.15454 -0.10768 0.063145 0.21983 
0.1544 0.15587 -0.096172 -0.050629 -0.13497 -0.24793 0.025824 0.17133 
0.18185 0.10967 -0.0096899 0.019247 -0.070359 -0.32915 -0.069372 0.020727 
0.093233 0.094384 0.07301 0.072846 -0.01676 -0.30596 -0.11015 -0.07003 
0.021549 0.21769 0.19106 0.071859 0.0046141 -0.18052 -0.078908 -0.096172 
-0.003771 0.25321 0.26768 0.038483 -0.0091966 -0.097322 -0.052437 -0.07003 
-0.018733 0.16459 0.23035 0.071695 -0.0014692 0.015301 0.019247 0.015465 
-0.047834 0.096193 0.13335 0.038319 -0.0082102 0.063145 0.10408 0.078929 
-0.073154 0.026974 0.10737 0.043416 0.0079024 0.12595 0.12036 0.080738 
-0.064604 -0.0019624 0.15637 0.038319 -0.01528 0.056898 0.023522 0.015137 
-0.037147 0.13631 0.22378 0.037661 -0.018897 0.0047785 -0.073154 -0.0868 
0.074819 0.32884 0.37603 0.092411 0.0052718 0.041772 -0.11327 -0.087129 
0.19155 0.40365 0.44623 0.12398 0.046868 0.096686 -0.032543 0.0047785 
0.17314 0.32128 0.31223 0.1738 0.12003 0.12694 0.061337 0.084848 
0.076299 0.094548 0.15308 0.17018 0.10441 0.025495 0.092082 0.091753 
0.0026412 -0.084498 -0.076442 0.098988 0.057391 -0.11738 0.078765 0.079094 
-0.011827 -0.19778 -0.28443 0.031249 -0.0088678 -0.23855 0.022042 0.072188 
-0.030899 -0.36499 -0.36795 -0.059343 -0.075784 -0.16128 0.031578 0.07038 
-0.059014 -0.47367 -0.39392 -0.078086 -0.10423 0.022535 0.01563 0.028619 
-0.024652 -0.25352 -0.35101 -0.031557 -0.097158 0.23677 0.0060938 0.0041209 
0.058049 -0.040435 -0.20468 -0.022185 -0.080223 0.34199 0.035195 -0.0098543 
0.074654 0.022864 -0.11196 -0.00064712 -0.057863 0.41729 0.0592 -0.0039354 
0.068242 0.15193 -0.037805 -0.025802 -0.068386 0.54389 0.10869 0.027303 
0.058377 0.33788 0.18514 -0.031721 -0.07414 0.65125 0.1687 0.031907 
0.077285 0.45462 0.40776 0.023357 -0.056383 0.64583 0.21342 0.066434 
0.079258 0.49506 0.50657 0.027796 -0.047012 0.47073 0.22361 0.13499 
0.025988 0.37274 0.43949 0.042265 -0.016595 0.11526 0.17215 0.12201 
-0.10637 0.13598 0.29102 0.06479 -0.016924 -0.23083 0.11099 0.12431 
-0.10735 -0.021692 0.14946 0.060022 -0.013636 -0.43914 0.013164 0.091096 
0.011191 -0.21373 -0.079895 0.046704 -0.022185 -0.53581 -0.046354 0.053938 
0.090931 -0.40609 -0.28262 -0.0042642 -0.04471 -0.40675 -0.06707 0.017274 
0.079258 -0.46988 -0.37814 -0.014787 -0.044546 -0.28673 -0.081374 -0.060823 
0.034373 -0.34493 -0.30235 0.0024767 -0.054246 -0.16523 -0.12149 -0.10127 
0.009711 -0.15618 -0.17871 -0.0087034 -0.057534 -0.087786 -0.10817 -0.10686 
0.0026412 0.14667 -0.046683 0.05772 -0.013471 -0.029748 -0.035503 -0.034023 
0.013164 0.36123 0.086985 0.057227 0.007738 0.069722 0.029112 0.03947 
0.024673 0.33213 0.171 0.030592 -0.010676 0.16722 0.069229 0.049828 
-0.0406 0.098494 0.16278 0.033222 -0.036325 0.15226 0.094384 0.034866 
0.0056006 0.05476 0.15308 0.0082312 -0.045532 0.085012 0.07597 0.067913 
0.23068 0.1978 0.25041 0.031742 -0.031392 0.068736 0.049006 0.081395 
0.32966 0.31207 0.26291 0.013821 -0.042244 0.021878 0.071531 0.086657 
0.15999 0.27507 0.17971 -0.025638 -0.063453 -0.02646 -0.0011404 0.047033 
-0.044546 0.10967 -0.016431 -0.03501 -0.090088 -0.030406 -0.0088678 0.036182 
0.0046141 -0.032543 -0.13991 -0.061645 -0.11146 -0.025967 0.043251 0.091753 
0.14157 -0.04471 -0.16523 -0.040106 -0.075291 0.0046141 0.079587 0.10639 
0.12283 -0.059672 -0.10998 -0.023501 -0.085485 0.0070803 0.010369 0.012013 
-0.014129 -0.11837 -0.058356 0.0036276 -0.065591 -0.021528 -0.048163 -0.040271 
-0.10143 -0.18282 -0.052109 0.068407 -0.02498 -0.045861 -0.046519 -0.085978 
-0.07414 -0.10456 -0.10423 0.071202 -0.00081153 -0.0027845 -0.033365 -0.036489 
-0.038791 -0.023501 -0.13021 0.037168 -0.0090322 0.049992 0.016945 -0.0057439 
0.03092 -0.062138 -0.037969 0.040456 -0.023336 0.038319 0.062159 0.015959 
0.019905 0.031907 0.16031 0.044073 -0.017911 0.01826 0.083862 0.083533 
-0.021363 0.17824 0.34018 0.0088889 -0.033037 -0.025474 0.072846 0.090109 
-0.0095255 0.13532 0.3318 -0.068714 -0.094527 -0.095349 0.065283 0.13072 
0.016616 0.10359 0.26932 -0.073647 -0.1159 -0.063124 0.08978 0.12464 
0.098166 0.28313 0.22476 -0.014787 -0.083183 0.0046141 0.087808 0.10754 
0.099645 0.36698 0.17297 0.020398 -0.053917 -0.019719 0.018589 0.031907 
0.037332 0.24877 0.13203 0.075805 0.017767 -0.084827 -0.051615 -0.053753 
0.037497 0.13286 0.072681 0.086328 0.015137 -0.10012 -0.1233 -0.11015 
0.10162 0.035688 -0.052931 0.1026 0.035031 -0.10768 -0.11524 -0.085156 
0.12036 -0.070359 -0.21044 0.11888 0.048841 -0.022679 -0.049149 -0.027775 
0.062817 -0.091732 -0.29199 0.095699 0.03947 0.017603 0.020398 0.058542 
-0.00081153 -0.087786 -0.23757 0.062981 0.03536 -0.033859 0.033715 0.08156 
-0.021692 -0.17673 -0.14122 0.038977 -0.024158 -0.15668 0.0042853 0.048513 
-0.06855 -0.19646 0.015959 -0.00031829 -0.045532 -0.21291 -0.024487 0.020727 
-0.044381 -0.14862 0.1465 0.0023123 -0.051944 -0.20304 -0.023007 0.019905 
0.034866 -0.057041 0.14453 -0.024487 -0.067892 -0.20501 -0.022185 0.036017 
0.13516 0.10343 0.16196 0.00050378 -0.058028 -0.20386 -0.0034422 0.024673 
0.14996 0.26554 0.244 0.072846 -0.020377 -0.15783 -0.043888 -0.0021268 
0.11477 0.35449 0.29267 0.046375 -0.013143 -0.061973 -0.060823 -0.052273 
0.067091 0.42469 0.27968 0.092411 0.027961 -0.0055795 -0.0073881 -0.036818 
0.069886 0.39954 0.25436 0.12842 0.037661 0.089945 0.020562 0.0075736 
-0.045368 0.27803 0.15028 0.097508 0.045224 0.293 0.075312 0.046704 
-0.091075 0.18974 0.1003 0.079916 0.015959 0.30352 0.086821 0.031085 
-0.047341 0.11757 0.065612 0.020233 -0.024816 0.14634 0.025824 0.00033937 
0.0092177 -0.034516 -0.10406 0.015301 -0.0034422 0.11658 0.036346 0.030098 
-0.015938 -0.34131 -0.33079 -0.0138 -0.053753 0.20027 0.076956 0.01267 
-0.045039 -0.53762 -0.54749 -0.086964 -0.10735 0.27014 0.12908 0.0026412 
-0.053917 -0.46133 -0.51033 -0.063289 -0.12445 0.17117 0.10951 0.077614 
0.014808 -0.28492 -0.28492 -0.052602 -0.12149 0.055418 0.10228 0.10343 
0.077121 -0.070687 -0.11113 -0.012978 -0.067564 -0.0503 0.12053 0.11954 
0.11921 0.21786 0.043251 0.04506 -0.037311 -0.15816 0.05772 0.11198 
0.11099 0.27507 0.13187 0.064296 -0.0090322 -0.24776 -0.011827 0.071695 
0.086821 0.27475 0.16903 0.11905 0.032729 -0.3007 -0.046683 0.0324 
0.034209 0.21079 0.15472 0.094055 0.036017 -0.27242 -0.12248 -0.060165 
0.0074092 0.10639 0.17824 0.11362 0.051636 -0.047505 -0.11837 -0.089924 
-0.067399 0.017767 0.16623 0.10869 0.047691 0.21753 -0.047012 -0.092226 
-0.11738 0.016123 0.1225 0.066269 0.02533 0.28083 0.024344 -0.047998 
-0.058028 0.0421 0.084519 0.022371 -0.0054151 0.23512 0.036346 0.012506 
0.040785 0.080573 0.1174 0.024344 -0.021034 0.29349 0.14091 0.11115 
0.096028 0.046704 0.12365 -0.0072237 -0.043888 0.41335 0.24992 0.19221 
0.1077 -0.060987 0.037826 -0.010512 -0.061809 0.44837 0.31157 0.25896 
0.05772 -0.16375 -0.11705 -0.040106 -0.086636 0.39691 0.26932 0.17232 
-0.0095255 -0.13284 -0.27061 -0.063453 -0.085813 0.33706 0.18563 0.082217 
-0.051615 -0.16111 -0.34033 -0.040764 -0.10735 0.15538 0.049992 0.00066819 
-0.071674 -0.28525 -0.27966 -0.00064712 -0.079237 -0.0073881 -0.072003 -0.13991 
-0.10571 -0.35923 -0.21751 0.070051 -0.03353 -0.096994 -0.18265 -0.21027 
-0.071181 -0.26371 -0.1205 0.079094 -0.0054151 -0.15733 -0.16786 -0.17131 
-0.014951 -0.024487 0.10869 0.079422 0.023522 -0.28097 -0.1016 -0.056383 
0.064461 0.27557 0.40003 0.11181 0.024673 -0.28475 -0.029748 0.019247 
0.096521 0.44343 0.49901 0.079751 0.027139 -0.19022 0.031742 0.044402 
0.12283 0.51298 0.43653 0.08978 0.033551 -0.065919 0.069229 0.09981 
0.24433 0.70847 0.39296 0.071531 0.027303 0.1026 0.15423 0.24597 
0.38129 0.74398 0.31141 0.069064 0.025824 0.19764 0.20175 0.30056 
0.2708 0.27507 0.11724 0.061666 0.0011614 0.22493 0.13171 0.14667 
0.066763 -0.34131 -0.19071 -0.025967 -0.059178 0.20717 0.034209 -0.039942 
-0.099295 -0.78934 -0.53368 -0.069865 -0.088937 0.22 0.0092177 -0.10719 
-0.19038 -0.90377 -0.54765 -0.094527 -0.13103 0.23068 0.033222 -0.071674 
-0.17295 -0.52677 -0.24069 -0.070194 -0.12725 0.22411 0.07301 -0.0087034 
-0.10768 0.12201 0.14338 0.029112 -0.078086 0.19714 0.11395 0.037497 
-0.031721 0.5776 0.27688 0.049828 -0.037969 0.11855 0.088465 0.1008 
-0.0029489 0.61689 0.26669 0.037497 0.0072447 -0.038627 0.042758 0.094713 
0.015465 0.36961 0.1853 0.068736 -0.0049219 -0.18495 -0.0060728 0.055254 
-0.033201 0.11625 0.10787 0.03092 -0.028269 -0.21751 -0.0029489 0.037497 
-0.034352 -0.075455 0.033715 0.029276 -0.037311 -0.18134 -0.02794 -0.0068948 
0.0039565 -0.12083 0.024508 -0.012649 -0.054739 -0.11113 -0.057041 -0.032543 
0.035688 -0.053095 0.045553 0.00297 -0.048327 -0.038298 -0.030735 -0.041257 
0.034044 0.060844 0.082382 0.026974 -0.041257 0.049335 -0.0096899 -0.0019624 
0.058049 0.17725 0.079258 0.019247 -0.038298 0.11066 0.013657 0.015959 
0.15752 0.21704 0.13467 0.058871 0.0026412 0.15226 0.048019 0.025659 
0.19369 0.13812 0.15949 0.070051 0.0062583 0.1345 0.021549 0.019083 
0.18383 0.061666 0.10869 0.03799 -0.010348 0.10211 0.021713 0.01267 
0.14634 -0.0059084 0.011026 0.025001 -0.036489 0.065776 0.075476 0.069393 
0.10606 -0.0078813 -0.075949 0.02122 -0.036489 0.051801 0.13746 0.13878 
0.043745 -0.014951 -0.11245 0.012506 -0.024487 0.029276 0.12644 0.11576 
-0.11064 0.032729 -0.1159 0.010204 -0.047176 -0.049314 0.061172 0.10293 
-0.21241 0.093891 -0.092719 0.016616 -0.046683 -0.19597 -0.0044286 0.021056 
-0.1404 0.13812 -0.048327 0.060679 -0.025638 -0.22803 -0.10702 -0.074304 
-0.017088 0.06331 0.011684 0.044896 -0.018404 -0.19383 -0.13086 -0.073154 
0.055418 0.045718 0.13401 0.022042 -0.0036066 -0.14599 -0.084991 -0.059178 
0.071695 0.18087 0.32736 0.037826 -0.016431 -0.080388 -0.051122 -0.010841 
0.083697 0.33903 0.4436 0.036675 -0.016102 0.0041209 0.0014903 0.041936 
0.1562 0.39378 0.39592 0.086163 0.010533 0.032893 0.01152 0.025988 
0.078272 0.27951 0.21589 0.072353 0.014315 0.081231 0.024673 0.043745 
-0.035174 -0.031886 0.034044 0.028947 -0.01117 0.16738 0.033715 0.065447 
-0.094527 -0.37518 -0.11311 0.05065 -0.020541 0.097344 0.027632 0.0070803 
-0.023172 -0.35233 -0.16605 -0.020048 -0.05737 -0.022514 0.059035 0.040456 
0.15604 -0.18939 -0.1279 0.019083 -0.039778 -0.051122 0.060022 0.059364 
0.23907 0.0034632 -0.11557 -0.016266 -0.063782 -0.099624 0.060186 0.082382 
0.19665 0.20323 -0.13958 -0.065426 -0.10012 -0.1113 0.028947 0.062323 
0.16262 0.28428 -0.2009 -0.023336 -0.10045 -0.033201 0.0044497 0.055582 
0.14913 0.25173 -0.11853 -0.010348 -0.0771 0.0042853 0.018754 0.029769 
0.089123 0.24959 0.0031344 0.029112 -0.023172 -0.0034422 0.020233 0.036017 
-0.096829 0.2731 0.17758 0.071037 -0.0052507 0.0042853 0.042758 0.0085601 
-0.26157 0.20799 0.24252 0.06479 0.004943 0.03947 0.038319 0.0095465 
-0.18643 0.044238 0.15686 0.07301 -0.00064712 0.026646 -0.0062372 -0.029913 
-0.070852 -0.18364 0.021878 0.016616 -0.030077 -0.056712 -0.022021 -0.059014 
0.016616 -0.11146 0.056076 0.026646 -0.011827 -0.14122 -0.049807 0.0065871 
0.11198 0.049992 0.093891 0.072188 -0.0075525 -0.19926 -0.0095255 0.035524 
0.050814 0.02829 0.10277 0.014808 -0.028269 -0.20995 -0.0070593 0.039634 
-0.0096899 -0.19712 0.049992 0.025988 -0.036654 -0.2374 -0.0503 0.050157 
0.15949 -0.28048 0.044567 0.040785 -0.022021 -0.24069 -0.079895 -0.034352 
0.32226 -0.26141 0.04358 0.10984 0.028947 -0.15421 -0.032379 -0.011005 
0.21786 -0.22622 0.01004 0.086821 0.02122 0.010697 -0.049807 -0.029091 
0.013821 -0.17262 -0.066577 0.030263 -0.012978 0.18185 0.037004 -0.010512 
-0.090088 0.053116 -0.13974 0.015137 -0.014293 0.25617 0.088301 0.044402 
-0.087622 0.22707 -0.14418 -0.003771 -0.042901 0.28905 0.15653 0.074819 
-0.039449 0.19155 -0.072825 0.010204 -0.043888 0.31174 0.17412 0.094055 
-0.023501 0.072024 -0.024487 0.054596 -0.038791 0.24943 0.14174 0.096521 
0.041607 -0.0060728 0.031085 0.0018191 -0.047176 0.26324 0.12266 0.056898 
0.061666 0.0093821 0.10277 -0.047834 -0.057205 0.25584 0.038812 0.024015 
0.050321 0.073832 0.12398 -0.029913 -0.092719 0.011355 -0.029584 -0.011992 
0.028125 0.14469 0.13483 -0.042244 -0.10291 -0.18035 -0.035338 -0.0011404 
0.075148 0.25469 0.16278 0.0088889 -0.0771 -0.18561 -0.010841 0.069722 
0.077614 0.19583 0.050814 0.014479 -0.053753 -0.0965 0.026317 0.071037 
0.068078 0.00033937 -0.046847 0.022042 -0.029748 -0.063289 0.047855 0.075641 
0.024179 -0.11771 -0.068714 0.01563 -0.039284 -0.076277 0.06594 0.066598 
0.0083956 -0.10341 -0.060329 -0.0082102 -0.057205 -0.11245 0.0047785 0.01267 
0.0082312 -0.034516 -0.059343 0.019083 -0.043395 -0.1404 -0.072496 -0.021034 
-0.0004827 0.0037921 -0.047176 0.0051074 -0.045203 -0.027118 -0.049971 -0.066084 
0.00050378 0.021713 -0.022843 0.019083 -0.028104 0.23068 0.014808 -0.035996 
0.022371 0.016288 0.0039565 0.047526 -0.018239 0.44064 0.12381 0.049499 
0.049006 0.058542 0.0324 0.061501 0.0014903 0.53534 0.2343 0.11724 
0.056404 0.13056 0.028454 0.071366 0.026646 0.42962 0.2389 0.1419 
0.036346 0.15752 0.029441 0.07038 0.0079024 0.18678 0.1465 0.12184 
0.00297 0.089452 0.049335 0.020891 -0.025474 0.016123 0.037332 0.039141 
-0.055726 0.044896 0.081889 0.05476 -0.018239 -0.018568 0.02122 0.0067515 
-0.061316 0.026646 0.12924 0.035688 -0.01939 0.0054362 -0.018075 -0.025638 
-0.045368 -0.030242 0.19122 0.078107 0.028125 0.0067515 -0.042244 -0.027118 
-0.044381 -0.09239 0.19254 0.10606 0.032236 -0.049149 -0.03501 -0.043559 
0.00050378 -0.035832 0.15555 0.060679 0.013986 -0.056383 -0.03764 -0.012814 
0.17626 0.19829 0.14453 0.074326 0.0065871 -0.046354 -0.013143 0.05624 
0.2731 0.28872 0.041443 0.01004 -0.027775 -0.029748 0.081724 0.13105 
0.1391 0.25008 -0.057863 -0.033201 -0.066248 -0.081703 0.088794 0.10524 
-0.032872 0.17314 -0.10604 0.00083261 -0.064933 -0.10341 0.043087 0.055747 
-0.11968 0.16229 -0.052931 0.0039565 -0.053095 -0.039942 -0.0047575 -0.018075 
-0.11919 0.18925 0.029276 0.022371 -0.035832 0.052623 -0.040435 -0.093541 
-0.093376 0.15966 0.072846 1.0539e-005 -0.045368 0.13664 -0.052602 -0.093376 
0.04654 0.083862 0.046375 0.11444 0.022371 0.24499 0.04917 0.022371 
0.21391 -0.081374 0.028783 0.081724 0.015137 0.44031 0.17824 0.14272 
0.20421 -0.25335 -0.096172 -0.016924 -0.040764 0.49292 0.232 0.15883 
0.054432 -0.41563 -0.27522 -0.034681 -0.058192 0.3974 0.17955 0.13976 
-0.00097594 -0.39672 -0.3007 -0.069701 -0.11738 0.26521 0.18448 0.095535 
-0.009361 -0.074304 -0.12675 -0.067728 -0.12215 0.14371 0.12546 0.090109 
0.017274 0.1031 0.009711 0.0098754 -0.081045 0.037168 0.081067 0.067585 
0.029441 0.15637 -0.074798 0.031578 -0.051451 -0.10867 0.030592 0.059857 
0.057227 0.14469 -0.11015 0.044731 -0.010676 -0.21093 -0.061809 -0.025638 
0.07449 0.21408 0.058542 0.076792 0.00083261 -0.23938 -0.085978 -0.05178 
0.098166 0.30434 0.27475 0.090109 0.0227 -0.24431 -0.092061 -0.050793 
-0.023336 0.3757 0.39247 0.14535 0.06742 -0.21998 -0.10784 -0.07562 
-0.18874 0.46678 0.40874 0.17429 0.10655 -0.12544 -0.10406 -0.045861 
-0.22113 0.28116 0.24712 0.15522 0.10211 -0.07003 -0.078908 -0.023994 
-0.056877 -0.10242 0.081231 0.15094 0.077943 -0.070523 -0.014458 0.012999 
0.11987 -0.24727 -0.040764 0.043087 0.019083 -0.046683 0.025659 0.071531 
0.1881 -0.15733 -0.10094 0.017932 -0.020212 -0.038298 0.092904 0.11411 
0.12743 -0.2379 -0.21373 -0.023501 -0.061809 -0.069536 0.088958 0.08863 
0.046868 -0.28525 -0.25302 -0.054904 -0.087293 0.01004 0.047033 0.040292 
0.028783 -0.074469 -0.093212 -0.057699 -0.10801 0.089616 0.03799 0.013657 
0.030756 0.036346 0.020233 -0.053095 -0.10932 0.055582 0.031907 0.0421 
0.055089 -0.067892 0.049992 -0.028433 -0.069536 0.011684 0.013328 0.0085601 
0.027632 -0.20419 -0.042408 -0.012814 -0.078086 -0.042573 -0.020706 -0.009361 
0.0060938 -0.16309 -0.10308 -0.02498 -0.080223 -0.030899 -0.029584 -0.004593 
0.0085601 0.00050378 -0.076606 0.021384 -0.056548 0.033715 0.014808 0.044402 
0.0072447 0.13351 -0.051122 0.0085601 -0.053753 0.025988 0.030427 0.064625 
0.021549 0.15111 -0.052931 -0.011827 -0.053095 -0.029584 0.039963 0.06479 
-0.0016336 0.10902 -0.0055795 -0.0042642 -0.068714 -0.035338 0.017438 0.0093821 
-0.008539 0.1179 0.072353 -0.014129 -0.066906 0.041443 0.024179 0.023522 
-0.01232 0.16738 0.074983 0.038319 -0.03616 0.067585 0.053116 0.03536 
-0.0039354 0.069886 0.014808 0.029934 -0.028433 0.019576 0.064132 0.072846 
0.0059294 -0.068879 0.010204 0.037168 -0.02646 -0.07003 0.038648 0.065612 
-0.0062372 -0.094363 0.061337 0.062652 -0.022021 -0.15964 -0.023829 -0.0059084 
-0.016924 -0.070687 0.10754 0.028947 -0.027282 -0.17756 -0.063946 -0.062138 
0.0018191 0.066763 0.21243 0.04654 0.0047785 -0.12363 -0.041257 -0.056877 
0.030756 0.24795 0.32999 0.069229 0.0080668 -0.10916 -0.056055 -0.038133 
0.092904 0.29382 0.40332 0.076299 0.012506 -0.090088 -0.021692 0.014972 
0.080244 0.25699 0.32555 0.053938 -0.011005 -0.09387 -0.014458 0.030098 
0.06479 0.19862 0.14469 0.00083261 -0.043066 -0.14221 -0.014787 0.02829 
0.036675 0.063968 -0.003771 -0.010676 -0.035832 -0.15816 -0.014951 0.027632 
-0.0019624 0.020891 -0.03057 -0.0026201 -0.05441 -0.10489 -0.040435 -0.038298 
0.013328 0.12085 0.046704 -0.022185 -0.063946 -0.015773 -0.033365 -0.037147 
0.050321 0.10704 0.087972 0.038977 -0.033859 0.12332 0.0019835 -0.0022913 
0.092082 0.093726 0.032564 0.057227 -0.0050863 0.28708 0.11609 0.072353 
0.11559 0.069886 -0.079895 0.043909 -0.009361 0.31388 0.18251 0.14289 
0.092247 -0.077428 -0.1136 0.043416 -0.02942 0.23973 0.12102 0.079094 
0.060186 -0.1205 -0.022679 0.040456 -0.022514 0.22098 0.098001 0.059528 
0.019247 -0.0004827 0.086492 0.067749 0.0054362 0.1664 0.09981 0.024344 
-0.023336 0.068407 0.10589 0.037168 -0.014951 0.058871 0.057062 0.022206 
-0.011498 0.10622 0.030263 -0.0026201 -0.045203 0.0098754 0.024344 0.046868 
0.0037921 0.10458 -0.028926 -0.0022913 -0.071838 -0.14007 0.014479 0.057391 
-0.019555 0.14174 0.037004 -0.037311 -0.090253 -0.29199 -0.018404 0.066598 
0.0098754 0.27803 0.21901 0.00297 -0.036818 -0.31353 -0.087951 -0.013307 
0.085012 0.38836 0.31601 0.054103 -0.029584 -0.109 -0.082361 -0.058521 
0.1031 0.42075 0.34512 0.069558 0.0037921 0.049992 -0.040271 -0.060658 
0.06479 0.27458 0.30549 0.094548 0.020562 0.089945 -0.045696 -0.065591 
0.032236 0.088301 0.20092 0.092576 0.026317 0.066763 -0.06296 -0.06855 
0.053774 -0.0095255 0.10984 0.13516 0.088301 0.12201 0.035195 0.012999 
0.099481 0.076627 0.10491 0.13171 0.074819 0.25913 0.16212 0.13647 
0.091096 0.13121 -0.038462 0.076792 0.04506 0.27919 0.2371 0.19501 
0.084684 -0.034845 -0.1279 0.049006 0.00099702 0.073339 0.17791 0.17462 
0.040128 -0.30827 -0.19844 -0.03764 -0.06855 -0.18479 0.025166 0.078436 
0.02681 -0.45196 -0.22392 -0.087951 -0.11853 -0.2476 -0.066248 -0.0062372 
0.016945 -0.36104 -0.18989 -0.049149 -0.11919 -0.10719 -0.047998 -0.040435 
0.05624 -0.16966 -0.15207 -0.017417 -0.082854 0.047855 0.013657 -0.025802 
0.098001 0.061666 -0.094363 0.045224 -0.021034 0.15341 0.058542 0.046868 
0.13072 0.29365 0.056404 0.040128 -0.014458 0.27327 0.12497 0.075312 
0.065447 0.2953 0.1858 0.050979 -0.0095255 0.34413 0.17873 0.12085 
-0.045861 0.23825 0.23151 0.033222 -0.030242 0.34051 0.16475 0.10852 
-0.066906 0.28198 0.28658 0.012506 -0.038298 0.28921 0.14272 0.093562 
0.0065871 0.33163 0.32999 0.04654 0.005765 0.20125 0.14256 0.076134 
0.01267 0.1174 0.256 0.041443 -0.018897 0.086985 0.072353 0.034866 
-0.0098543 -0.12445 0.09981 0.019083 -0.035667 -0.073154 -0.019226 -0.029748 
-0.0503 -0.23296 -0.096336 0.011684 -0.054575 -0.10932 -0.060823 -0.0406 
-0.033859 -0.25516 -0.34 -0.003771 -0.05737 -0.025309 -0.086964 -0.09091 
0.0028056 -0.3104 -0.4883 0.019083 -0.030406 0.014808 -0.12905 -0.1108 
0.10491 -0.33424 -0.5049 0.048677 -0.020377 0.027632 -0.1039 -0.078744 
0.1391 -0.2014 -0.3571 0.070051 -0.0019624 0.052952 0.00099702 0.031249 
0.041443 -0.048656 -0.19466 0.1031 0.034209 0.075476 0.097837 0.1179 
0.029769 0.043745 -0.078908 0.096686 0.032893 0.019083 0.09685 0.15111 
0.081724 0.14502 0.024508 0.075805 0.023357 -0.069208 0.079916 0.10754 
0.013821 0.2514 0.15637 0.030098 -0.02087 -0.10373 0.015959 0.08567 
-0.05589 0.13762 0.15587 -0.010512 -0.049314 -0.084991 0.033222 0.070544 
-0.013307 -0.13136 0.11017 0.012506 -0.026624 -0.060329 0.049828 0.060679 
0.061501 -0.18282 0.12201 0.024508 -0.031392 -0.028104 0.030756 0.014315 
0.056404 -0.12873 0.12299 0.046211 -0.014293 0.034702 0.015137 -0.025309 
0.00099702 0.029934 0.093398 0.050321 -0.016266 0.12908 0.017767 -0.039778 
-0.065426 0.10918 0.056733 -0.0021268 -0.048163 0.19829 0.052294 -0.025145 
-0.039449 0.066927 0.1345 -0.0067304 -0.028762 0.25666 0.055418 -0.034352 
0.056076 0.25008 0.24219 -0.011005 -0.051122 0.31552 0.093891 0.051636 
0.10869 0.46004 0.23808 -0.0011404 -0.055232 0.29908 0.16064 0.089945 
0.12908 0.46218 0.084519 0.029605 -0.051944 0.14289 0.077285 0.08304 
0.01004 0.26998 -0.010512 0.028125 -0.042244 -0.023172 0.020069 0.082382 
-0.060494 0.057391 -0.11689 -0.014293 -0.061645 -0.13103 0.013164 0.081395 
-0.086307 -0.27045 -0.29182 -0.047669 -0.10341 -0.21488 -0.061316 0.014315 
-0.035503 -0.5973 -0.40609 -0.071674 -0.11261 -0.18084 -0.070359 0.0021479 
0.0021479 -0.52233 -0.37091 -0.012978 -0.075291 -0.12642 -0.046847 0.0016547 
-0.13168 -0.28492 -0.16802 0.05065 -0.026624 -0.017417 0.033715 0.071037 
-0.18923 -0.20764 0.041278 0.090438 0.015465 0.01152 0.029276 0.047362 
-0.046519 0.01152 0.22033 0.11099 0.026152 -0.18052 -0.034352 -0.014458 
0.088136 0.37422 0.30566 0.046375 -0.0072237 -0.39606 -0.1039 -0.049314 
0.10606 0.42354 0.21885 0.025659 0.0074092 -0.44785 -0.13974 -0.057699 
0.097015 0.21917 0.063474 0.023522 -0.023501 -0.36055 -0.14517 -0.061973 
0.092411 0.15522 0.065118 0.045389 -0.010676 -0.17706 -0.066084 -0.010676 
0.089452 0.23282 0.17084 0.063145 -0.00015387 0.025659 0.02533 0.034373 
0.05624 0.24499 0.13779 0.0064227 -0.032379 0.18958 0.070708 0.057227 
0.025988 0.1054 -0.081374 -0.020048 -0.041751 0.25173 0.055747 0.033387 
-0.0067304 -0.10702 -0.27472 -0.059178 -0.090253 0.3193 0.052787 0.016123 
-0.017911 -0.13168 -0.30152 -0.059836 -0.1011 0.43357 0.090767 0.047691 
0.0070803 0.034209 -0.14862 -0.031721 -0.084334 0.57332 0.19468 0.10688 
0.043416 0.16706 0.0021479 -0.022843 -0.07973 0.57118 0.2736 0.14765 
0.050321 0.1738 0.069722 0.010697 -0.063782 0.43094 0.24943 0.14289 
0.05476 0.085835 0.03947 0.03651 -0.051944 0.13088 0.1105 0.059528 
0.033222 -0.028926 0.075476 0.047691 -0.032215 -0.15536 0.011355 0.0034632 
0.031085 0.039799 0.18728 0.08008 0.010533 -0.255 -0.047998 0.0016547 
0.036017 0.20388 0.28412 0.076299 0.014643 -0.26848 -0.017417 0.051801 
0.032729 0.22756 0.31322 0.032729 -0.0083746 -0.24398 0.028454 0.090109 
0.0051074 0.19418 0.33394 0.015301 -0.040271 -0.13596 0.0046141 0.035688 
-0.086307 0.13351 0.24811 0.0016547 -0.049149 -0.056712 -0.030899 -0.0406 
-0.11376 -0.012485 0.11757 0.030592 -0.0083746 -0.037476 -0.031392 -0.072496 
-0.10604 -0.18841 0.0080668 0.025824 -0.027118 -0.054246 -0.035503 -0.090746 
-0.051451 -0.18709 0.0019835 0.010369 -0.038133 -0.083018 -0.039613 -0.012156 
0.10787 0.067749 0.039305 0.038812 -0.040106 -0.077264 -0.0013048 0.043909 
0.39115 0.36978 0.06183 0.016781 -0.040271 -0.014622 0.058871 0.10129 
0.50427 0.3415 0.030427 -0.024158 -0.05178 0.00033937 0.05624 0.13467 
0.30368 0.1271 -0.08269 -0.023007 -0.08121 -0.040435 0.027961 0.08304 
-0.0062372 -0.037969 -0.090746 -0.035996 -0.088937 -0.059507 0.019411 0.02122 
-0.1182 -0.109 -0.087129 0.0051074 -0.067564 -0.023829 -0.0026201 0.0014903 
-0.069865 -0.09387 -0.10456 0.022864 -0.042408 0.050157 0.0024767 -0.0036066 
-0.003771 0.097508 -0.045203 0.0013258 -0.045861 0.1641 0.025988 0.0041209 
0.017603 0.26011 0.076956 0.025988 -0.047669 0.22279 0.081231 -0.0064016 
0.10178 0.36896 0.12447 0.029276 -0.033859 0.1738 0.079422 0.027632 
0.14749 0.31864 0.1008 0.056569 0.0051074 0.14354 0.066434 0.064296 
0.11921 0.20092 0.070544 0.075805 0.0065871 0.093562 0.047362 0.046375 
0.088465 0.095864 0.10228 0.062323 0.0062583 0.07597 0.025824 0.051801 
0.03799 -0.15174 0.094055 0.095535 0.014479 0.094384 0.03388 0.034044 
0.03536 -0.24628 0.096028 0.059528 0.005765 0.12661 0.05476 0.0069159 
0.053774 -0.27209 0.01974 0.048677 0.017438 0.030592 0.046375 0.0082312 
0.033715 -0.32076 -0.028762 -0.0062372 -0.046847 -0.068221 0.046868 0.00083261 
0.022535 -0.096336 0.043087 -0.0021268 -0.052109 -0.0047575 0.1003 0.021713 
0.031085 0.043745 0.054925 0.057227 -0.018239 0.081395 0.099974 0.059035 
-0.039778 -0.14369 -0.023172 0.01415 -0.039778 -0.021692 -0.0082102 -0.069043 
-0.10998 -0.34855 -0.092226 -0.027118 -0.07003 -0.14747 -0.097322 -0.076771 
-0.11163 -0.28196 -0.043559 0.028454 -0.05178 -0.12018 -0.075127 -0.0019624 
-0.082525 0.064132 0.10145 0.053281 -0.01676 -0.087129 -0.018075 0.090109 
0.027796 0.45478 0.2075 0.11822 0.043087 0.022206 0.038483 0.12891 
0.17034 0.55951 0.24614 0.14716 0.071859 0.045389 0.063145 0.15094 
0.26587 0.36287 0.19747 0.11691 0.05772 -0.07266 0.010369 0.074654 
0.18185 0.1738 0.090931 0.04506 0.00099702 -0.15585 -0.062796 0.0098754 
0.084519 0.14552 -0.016431 -0.017746 -0.047505 -0.070687 0.0056006 0.007738 
0.045224 0.062817 -0.067399 -0.020377 -0.03501 0.020069 0.091096 0.046704 
0.016945 -0.084498 -0.036818 0.030427 -0.03205 0.08008 0.040785 0.027796 
0.0088889 -0.10472 0.051636 0.0324 -0.026131 0.035031 -0.044217 -0.046025 
0.05772 -0.029255 0.15637 0.077778 -0.0090322 -0.076771 -0.054904 -0.0098543 
0.062817 -0.001798 0.11198 0.016945 -0.033037 -0.10998 -0.020706 0.01974 
0.03947 0.041936 -0.0036066 -0.001798 -0.031557 -0.11968 -0.015938 0.036346 
0.014972 0.065118 -0.078415 -0.017088 -0.069701 -0.17312 0.0070803 0.04917 
0.012835 -0.10308 -0.11672 0.01004 -0.05178 -0.13218 -0.025145 -0.0072237 
-0.11278 -0.30498 -0.1478 0.060515 -0.015444 -0.030406 -0.055068 -0.035667 
-0.19761 -0.26519 -0.06444 0.048184 -0.0077169 0.070708 -0.0026201 -0.013965 
-0.10258 -0.0406 0.040128 0.040456 -0.0054151 0.16689 0.027632 0.013328 
-0.015609 0.097015 0.062652 0.1151 0.027961 0.23233 0.066598 0.064461 
0.063803 0.16294 0.080902 0.10228 0.03388 0.21227 0.065118 0.032071 
0.037497 0.057555 -0.017088 0.068736 0.030263 0.20471 0.091918 0.048677 
-0.041915 -0.074304 -0.041586 -0.0024557 -0.045532 0.080409 0.052787 0.044731 
-0.087786 -0.11228 -0.018733 -0.040764 -0.081539 -0.012156 0.047855 0.048348 
-0.063289 -0.26059 -0.12182 0.0021479 -0.073647 -0.022843 0.0786 0.045553 
-0.014951 -0.35496 -0.19877 -0.015444 -0.077757 -0.069043 0.056569 0.082217 
-0.010019 -0.054082 -0.061645 -0.028104 -0.059178 -0.10883 0.01974 0.048677 
0.039799 0.3484 0.17971 -0.024158 -0.081539 -0.17509 0.022042 0.051143 
0.084519 0.5235 0.40809 0.004943 -0.060329 -0.20682 -0.04323 0.00099702 
0.060186 0.49046 0.45018 0.062323 -0.026624 -0.17624 -0.10143 -0.072496 
0.0047785 0.30631 0.27228 0.046704 -0.013636 -0.079566 -0.12445 -0.13695 
-0.024487 0.15111 0.062159 0.074819 0.026974 0.10458 -0.079895 -0.11853 
0.036346 0.15242 -0.035174 0.11609 0.045718 0.26077 0.021878 -0.00015387 
0.093726 0.16558 -0.010183 0.11592 0.056404 0.29842 0.12053 0.12973 
0.089616 0.15703 -0.03057 0.099974 0.040292 0.35235 0.19796 0.16706 
0.038319 0.11674 -0.10373 0.01267 -0.012649 0.38836 0.18909 0.16327 
0.02829 0.012999 -0.15931 -0.020541 -0.057863 0.22394 0.15686 0.11231 
0.026974 -0.052109 -0.14369 -0.012485 -0.085156 -0.043888 0.11115 0.091096 
0.045718 -0.053753 -0.074962 -0.0036066 -0.072332 -0.1963 0.0064227 0.069722 
0.034866 0.0013258 0.0592 0.0031344 -0.049149 -0.24316 -0.06296 -0.0057439 
0.018589 0.0052718 0.13828 -0.0091966 -0.060165 -0.1552 -0.047998 -0.014787 
0.021549 -0.054082 0.061995 -0.01232 -0.06 -0.05326 -0.041257 -0.013307 
0.03651 -0.10324 0.0324 0.072517 -0.017253 0.055747 -0.020048 -0.0090322 
0.011848 0.040456 0.044567 0.055089 -0.0091966 0.14716 0.025001 0.020562 
-0.047341 0.22838 0.055747 0.051801 0.016123 0.21917 0.072353 -0.022185 
-0.14402 0.29349 0.068736 0.048184 -0.0080457 0.24745 0.06479 -0.010183 
-0.12034 0.32621 0.079916 0.045553 -0.010841 0.16853 0.10589 0.047197 
0.0051074 0.22756 0.071695 0.069558 -0.0042642 0.19172 0.13368 0.071531 
0.055418 0.027796 0.019576 -0.0070593 -0.0406 0.2588 0.11526 0.067585 
0.14174 0.010533 0.062652 -0.042901 -0.069372 0.16245 0.052623 0.049335 
0.37126 0.20372 0.12365 0.005765 -0.066413 0.05213 0.0592 0.085177 
0.43028 0.12562 0.07449 0.014479 -0.051615 -0.0067304 0.073504 0.13565 
0.24647 -0.072332 0.035853 0.036182 -0.033201 -0.004593 0.063474 0.088301 
0.022371 -0.20485 0.0019835 -0.013143 -0.05589 0.018425 0.026481 0.0028056 
-0.15026 -0.32586 -0.1011 -0.039284 -0.081868 0.040456 -0.0077169 -0.056877 
-0.19729 -0.33243 -0.16325 -0.010183 -0.083347 -0.028762 -0.074633 -0.11113 
-0.078086 -0.069865 -0.094363 -0.004593 -0.073154 -0.10193 -0.085485 -0.087129 
0.0059294 0.24893 0.061172 0.044731 -0.019061 -0.090581 -0.022679 -0.034352 
0.048513 0.49112 0.23578 0.074654 -0.0057439 -0.096007 0.0085601 0.057062 
0.029276 0.5628 0.34314 0.088465 0.020398 -0.043888 0.048677 0.096193 
0.15374 0.41943 0.31338 0.11724 0.022042 0.031414 0.0039565 0.019083 
0.18876 0.16656 0.232 0.037826 -0.0060728 -0.0091966 0.020233 0.02533 
0.17906 0.11 0.13532 0.027796 -0.00015387 -0.020541 0.047855 0.065776 
0.1322 -0.0080457 -0.018239 0.035853 -0.019226 0.019576 0.063968 0.075641 
0.041114 -0.34394 -0.22557 0.016945 -0.030899 0.031907 0.088465 0.060515 
-0.02646 -0.57462 -0.35249 0.043745 -0.025967 0.075148 0.058049 0.045882 
-0.17443 -0.38126 -0.27061 0.01826 -0.036489 0.16212 0.088465 0.018425 
-0.24793 -0.066084 -0.24595 -0.043066 -0.067892 0.18843 0.11674 0.068407 
-0.1358 0.038812 -0.29002 -0.053424 -0.099953 0.10244 0.1054 0.088958 
0.041278 -0.01676 -0.23822 -0.061809 -0.11409 0.049992 0.073175 0.061008 
0.18251 -0.0080457 -0.031886 -0.022021 -0.090581 0.05772 0.021878 0.012342 
0.24811 0.071531 0.17774 0.02829 -0.050136 0.064296 -0.0011404 -0.045532 
0.22493 0.1835 0.29546 0.025659 -0.037476 0.1008 0.035524 -0.0016336 
0.15818 0.15653 0.31536 0.070708 -0.019884 -0.031886 -0.014458 0.012999 
0.11132 0.068407 0.21178 0.016288 -0.043888 -0.24579 -0.058685 0.0037921 
0.054432 -0.022679 0.14848 0.011684 -0.019061 -0.27933 -0.073811 -0.0060728 
-0.017253 -0.072989 0.14354 0.044073 -0.017746 -0.18627 -0.011005 0.033222 
-0.12429 -0.020212 0.16969 0.049992 -0.010348 -0.16605 0.031414 0.053774 
-0.1769 0.12825 0.15686 0.068242 -0.0013048 -0.12675 0.0227 0.058049 
-0.057205 0.22559 0.17462 0.01711 -0.02646 -0.087129 0.012835 0.060022 
0.049006 0.24515 0.15242 0.026646 -0.0073881 -0.1136 0.043745 0.085835 
0.067256 0.21391 0.13154 0.051143 -0.01676 -0.17016 -0.014458 0.028619 
0.12464 0.13319 0.11148 0.05476 -0.0013048 -0.11179 -0.034352 -0.040764 
0.18054 0.074983 0.017767 0.089452 0.019247 -0.0027845 0.023357 0.022042 
0.15818 0.071202 -0.057041 0.038812 -0.00031829 0.17758 0.080902 0.04654 
0.087314 -0.027447 -0.15996 -0.018568 -0.043066 0.28609 0.0786 0.043745 
-0.003771 -0.018075 -0.23559 -0.020212 -0.066906 0.36797 0.073668 0.025495 
-0.13004 0.070544 -0.24184 -0.043724 -0.087458 0.414 0.10606 0.027139 
-0.29002 0.067091 -0.22343 0.0090533 -0.05885 0.36928 0.089616 0.026317 
-0.24941 0.15982 -0.096829 0.063803 -0.020377 0.24071 0.020562 -0.041915 
-0.042737 0.25469 0.027796 0.11428 0.026152 0.10704 -0.0022913 -0.056055 
0.11839 0.13795 -0.021199 0.12513 0.034209 -0.037969 0.036346 0.047691 
0.13664 -0.27851 -0.24513 -0.003771 -0.033859 -0.1649 0.040785 0.082217 
0.056076 -0.71354 -0.40806 -0.11245 -0.10505 -0.34822 0.014315 0.060186 
-0.0083746 -0.99683 -0.33276 -0.13053 -0.16506 -0.36976 -0.028433 0.047526 
-0.013143 -0.82847 -0.0004827 -0.08384 -0.14122 -0.22836 -0.029091 0.0042853 
0.013821 -0.26289 0.32884 0.039799 -0.05737 -0.17147 -0.042244 0.0019835 
0.040785 0.18103 0.39345 0.088958 -0.004593 -0.2203 -0.061151 -0.022679 
0.047197 0.43932 0.37635 0.1105 0.048348 -0.29199 -0.11804 -0.047998 
0.059857 0.58993 0.33525 0.11559 0.044567 -0.35266 -0.16029 -0.078086 
0.10047 0.536 0.29711 0.06742 0.024179 -0.24628 -0.12215 -0.07003 
0.11642 0.41253 0.21375 0.11395 0.049992 0.0032988 -0.039284 0.021713 
0.11444 0.31092 0.1248 0.060844 0.029112 0.19106 0.062652 0.076627 
0.00297 0.19303 -0.0082102 0.03799 0.0016547 0.31585 0.10129 0.052952 
-0.064933 0.056898 -0.12067 0.025659 -0.027611 0.47089 0.10392 0.0092177 
-0.15931 0.033222 -0.1741 -0.046847 -0.071345 0.63547 0.12957 -0.022021 
-0.18956 0.0011614 -0.12083 -0.060658 -0.083512 0.72738 0.20208 0.020398 
-0.087622 -0.084991 -0.06 -0.030899 -0.082032 0.78114 0.26817 0.12529 
0.12694 -0.12182 -0.019061 0.047855 -0.033365 0.72886 0.27491 0.18136 
0.1641 -0.092883 0.00017495 0.11691 0.0079024 0.46481 0.16196 0.12595 
0.14519 -0.087951 0.016781 0.074983 -0.0050863 0.064132 0.088958 0.065447 
0.060186 -0.020541 0.083862 0.032729 -0.011827 -0.29495 -0.034023 0.044402 
0.09422 0.11296 0.13647 0.015301 -0.044381 -0.48057 -0.06444 0.023193 
0.2828 0.09126 0.080244 0.0016547 -0.05178 -0.48501 -0.020048 0.037661 
0.28593 -0.059178 -0.024816 0.020891 -0.053424 -0.38653 -0.042079 0.048348 
0.0786 -0.20945 -0.12741 -0.020048 -0.069043 -0.3252 -0.061151 -0.010841 
-0.10637 -0.23938 -0.12807 -0.034845 -0.063618 -0.24299 -0.09387 -0.060987 
-0.13941 -0.17131 -0.04323 0.021056 -0.047998 -0.15964 -0.089102 -0.047341 
-0.090417 -0.0075525 0.017767 0.0044497 -0.04882 -0.092719 -0.072003 -0.048327 
-0.038133 0.13894 0.063145 0.01826 -0.035338 -0.025638 -0.03616 -0.050793 
-0.0049219 0.18761 0.01826 0.013328 -0.036654 0.093891 0.0070803 -0.008539 
0.050321 0.17988 -0.018897 0.023357 -0.031064 0.20092 0.050321 0.03651 
0.082711 0.17971 -0.026296 0.068078 -0.0138 0.21046 0.077285 0.064954 
0.10408 0.18744 0.1128 0.060844 -0.0042642 0.14798 0.067091 0.067585 
0.091589 0.25732 0.25419 0.076134 0.018096 0.092904 0.038319 0.026481 
0.068407 0.24384 0.35268 0.041607 -0.0080457 0.075805 0.039799 0.0083956 
0.079422 0.1978 0.3387 0.026974 -0.020706 0.069886 0.06742 0.048348 
0.083533 0.17018 0.35662 0.042594 -0.029255 0.07597 0.099645 0.094384 
0.095206 0.17659 0.29776 0.031414 -0.026296 0.14371 0.12053 0.12003 
0.075476 0.17971 0.22345 0.035688 0.01004 0.16936 0.11674 0.12825 
0.037332 0.17412 0.13483 0.025166 -0.028269 0.12644 0.12135 0.093069 
0.017438 0.15653 0.029441 -0.012978 -0.055561 -0.013307 0.067585 0.068407 
0.028125 0.20619 -0.099789 0.017438 -0.059014 -0.092554 0.036839 0.038483 
0.070708 0.2001 -0.22951 -0.010841 -0.068714 -0.20468 -0.0095255 0.037497 
0.058871 0.051636 -0.28722 -0.0098543 -0.057534 -0.29676 -0.082032 -0.001798 
0.0013258 -0.077922 -0.11212 0.045224 -0.033037 -0.22589 -0.1233 -0.073811 
-0.0078813 -0.0034422 0.074161 0.069064 0.00297 -0.03501 -0.09946 -0.067235 
0.0059294 0.045718 0.084355 0.092576 0.021384 0.02681 -0.075455 -0.034188 
0.012342 -0.088608 -0.012649 0.041278 -0.0047575 0.00050378 -0.039613 -0.0039354 
0.044073 -0.11738 -0.075949 0.025659 -0.019555 -0.05326 0.012013 0.067256 
0.053938 -0.027282 -0.086471 0.068736 -0.01117 -0.059014 0.033222 0.048677 
-0.0088678 -0.01939 -0.017253 0.022206 -0.028104 0.023193 0.058213 0.031085 
0.033715 0.058213 0.11592 0.039799 0.00033937 0.038155 0.10178 0.078436 
0.13105 0.20964 0.14239 0.038155 -0.033365 0.0083956 0.15587 0.1003 
0.19451 0.089945 0.12661 0.022206 -0.03764 -0.066741 0.096028 0.09126 
0.11494 0.0019835 0.06742 0.042594 -0.042737 -0.16588 0.028783 0.025988 
-0.018075 0.086821 0.077943 -0.026953 -0.071345 -0.18594 -0.048163 -0.032543 
-0.020212 0.18711 0.13894 -0.015773 -0.05589 -0.15174 -0.080059 -0.0029489 
1.0539e-005 0.25699 0.18054 0.036182 -0.038133 -0.065591 -0.086964 0.0021479 
0.004943 0.28034 0.15012 0.028454 -0.024816 0.035031 -0.056877 -0.014622 
-0.0055795 0.19714 0.065118 0.04917 -0.015773 0.15423 -0.023665 -0.025638 
-0.0060728 0.13532 0.00050378 0.02829 -0.014129 0.35597 0.066763 0.013657 
-0.0044286 0.16294 0.012013 -0.0004827 -0.034516 0.50805 0.17166 0.091096 
-0.014129 0.15111 0.072846 0.040456 -0.024158 0.38277 0.25666 0.08304 
-0.040106 0.14519 0.094877 0.069064 -0.011334 0.12727 0.15653 0.08567 
-0.010841 0.069393 0.055747 0.11839 0.035853 -0.034681 0.055747 0.061172 
0.064625 -0.074798 -0.042573 0.074983 0.019083 -0.17328 0.019905 0.013986 
0.090767 -0.15306 -0.07973 0.059857 0.0065871 -0.24579 -0.030899 -0.0016336 
0.084355 -0.21225 -0.14533 0.055254 -0.0070593 -0.13662 -0.029091 0.01152 
0.046375 -0.39376 -0.20337 0.013657 -0.028269 -0.0059084 0.035031 0.033551 
-0.017582 -0.59023 -0.22754 -0.0029489 -0.024323 -0.0098543 0.032071 0.01711 
-0.07266 -0.59385 -0.17295 -0.01232 -0.061316 -0.076442 -0.025638 -0.025638 
-0.05589 -0.39919 -0.11623 -0.034516 -0.082525 -0.14484 -0.057041 -0.027611 
-0.04619 -0.068386 -0.088937 0.0054362 -0.072825 -0.13316 -0.024158 0.030427 
-0.097816 0.33213 0.026317 -0.0091966 -0.064111 -0.047998 -0.012156 0.038155 
-0.060165 0.59059 0.21753 -0.0059084 -0.041422 0.023686 -0.051122 0.0060938 
0.0064227 0.60292 0.33673 -0.0090322 -0.061809 0.088465 -0.03353 -0.027118 
0.085341 0.47928 0.36912 0.038648 -0.03501 0.20536 0.027468 0.03947 
0.14502 0.34692 0.30746 0.13499 0.033387 0.27803 0.10063 0.077121 
0.15308 0.10458 0.20898 0.12266 0.053609 0.26899 0.17248 0.11822 
0.11346 -0.10176 0.16344 0.086985 0.038648 0.25715 0.18892 0.14667 
0.051143 -0.15224 0.11066 0.055254 0.0014903 0.24877 0.11115 0.069722 
-0.036325 -0.39031 -0.063782 -0.040435 -0.065591 0.17495 -0.0019624 -0.046519 
-0.090088 -0.49323 -0.20189 -0.047341 -0.087951 0.12595 -0.0050863 -0.046683 
0.0082312 -0.2476 -0.25401 -0.036818 -0.088115 0.18119 0.051636 0.005765 
0.09981 0.03536 -0.21702 0.02122 -0.055561 0.11428 0.10425 0.076134 
0.14798 0.19155 -0.10258 0.048841 -0.041422 0.024837 0.11181 0.09833 
0.17133 0.1932 -0.050136 0.035031 -0.031721 0.0093821 0.073997 0.093726 
0.13828 0.17232 1.0539e-005 0.032893 -0.0052507 -0.014787 0.037168 0.0592 
0.0075736 0.27886 0.16607 0.035031 -0.028926 0.009711 0.036839 0.078272 
-0.16769 0.35169 0.35728 0.058049 -0.0059084 0.036675 0.033715 0.052952 
-0.19367 0.21046 0.45281 0.077943 0.013657 0.05476 0.06594 0.084848 
-0.11886 -0.024652 0.33361 0.045882 -0.0070593 0.027303 0.053116 0.032564 
-0.034681 -0.28475 0.075312 -0.019061 -0.032379 -0.075127 -0.0070593 -0.021528 
0.010533 -0.38307 -0.16572 -0.067564 -0.10308 -0.17657 -0.077922 -0.039284 
0.0019835 -0.2739 -0.24908 -0.084498 -0.13267 -0.22359 -0.079566 -0.045861 
0.0019835 -0.11755 -0.28459 -0.043888 -0.1085 -0.18972 -0.098473 -0.060329 
0.011355 -0.19202 -0.31829 -0.037969 -0.095021 -0.12149 -0.11426 -0.089924 
0.034702 -0.16638 -0.37255 -0.0014692 -0.068057 -0.0024557 -0.040106 -0.027775 
0.12661 -0.001798 -0.38751 0.076792 -0.014951 0.097015 0.080573 0.08156 
0.12431 0.036017 -0.22244 0.086985 0.015794 0.16607 0.11839 0.10754 
0.073832 0.047362 0.026646 0.091096 0.032236 0.13006 0.12283 0.099152 
0.029605 0.18892 0.21227 0.035195 -0.0019624 0.12694 0.1225 0.083697 
0.060186 0.28971 0.32243 -0.0077169 -0.041422 0.12085 0.10392 0.045553 
0.079587 0.36156 0.37734 0.0019835 -0.060165 0.11115 0.078107 0.039634 
0.077614 0.42124 0.38014 -0.029913 -0.07562 0.074983 0.055582 0.044238 
0.04654 0.37471 0.28823 0.029605 -0.022843 0.04654 0.067749 0.035195 
0.043087 0.33673 0.21194 0.080409 0.0070803 0.056404 0.062652 0.055418 
0.047526 0.28461 0.18794 0.081231 0.017274 0.059528 0.026974 0.010533 
0.030756 0.21769 0.1613 0.1031 0.025001 -0.015116 -0.011663 -0.0034422 
0.049828 0.11 0.10704 0.056733 0.0044497 -0.12231 -0.060658 0.031414 
0.037497 -0.09946 -0.057205 0.037826 -0.0055795 -0.18101 -0.053424 0.027303 
-0.0022913 -0.4347 -0.37567 0.035195 -0.029091 -0.23083 -0.051122 0.030592 
-0.059672 -0.69973 -0.62789 -0.043724 -0.0771 -0.27686 -0.07562 -0.001798 
-0.04619 -0.68198 -0.53433 -0.064111 -0.10143 -0.17673 -0.044546 -0.033037 
0.0054362 -0.4296 -0.25565 -0.070687 -0.10982 -0.011334 0.0047785 -0.013307 
0.060844 -0.098967 -0.062138 -0.06855 -0.1159 0.0592 0.053774 -0.012649 
0.097672 0.16821 0.0227 -0.016595 -0.097487 0.081724 0.020069 -0.050629 
0.087972 0.33607 0.093562 0.01711 -0.058192 0.12464 0.053116 -0.036654 
0.064461 0.34199 0.16722 0.077943 0.01004 0.13401 0.06479 0.014315 
0.039141 0.24367 0.1442 0.089616 0.016123 0.14996 0.048841 0.043909 
-0.014787 0.24301 0.13779 0.057391 0.0056006 0.16574 0.038977 0.069722 
-0.066741 0.39296 0.15653 0.070051 -0.0060728 0.13565 0.081067 0.10376 
0.03092 0.51528 0.1567 0.030592 -0.02235 0.06594 0.1105 0.19764 
0.061337 0.3632 0.1544 0.0227 -0.0083746 -0.013471 0.12069 0.16722 
0.026317 0.17001 0.20257 0.052294 -0.014622 -0.024487 0.095371 0.084848 
0.044567 0.19944 0.25091 0.05624 -0.0024557 -0.059836 0.029769 -0.0080457 
0.147 0.26406 0.27869 0.10622 0.021549 -0.17805 -0.079895 -0.07414 
0.17133 0.21671 0.20339 0.080409 0.018754 -0.30152 -0.15865 -0.10867 
0.12299 0.060679 0.089945 0.058871 0.0074092 -0.29692 -0.11524 -0.074798 
0.11066 0.026481 0.10408 0.082875 0.013821 -0.20041 -0.0965 0.00099702 
0.07301 0.10408 0.22411 0.10918 0.047691 0.09274 -0.0060728 0.045553 
-0.00015387 0.22246 0.27623 0.074326 0.055582 0.23249 0.10704 0.048019 
0.016781 0.091425 0.14552 0.0088889 -0.015444 0.19879 0.067913 0.059528 
0.073175 -0.2938 -0.1718 -0.059836 -0.087293 0.20158 0.083862 0.055582 
0.049664 -0.65929 -0.3714 -0.036818 -0.096336 0.28132 0.11395 0.051143 
0.021056 -0.57248 -0.29544 -0.027447 -0.087622 0.36337 0.14272 0.10967 
0.00033937 -0.21784 -0.14895 -0.069701 -0.090253 0.26209 0.094384 0.10474 
-0.016266 0.11132 -0.092226 -0.10702 -0.15783 0.10474 -0.0036066 0.034044 
-0.11212 0.20487 -0.16079 -0.10784 -0.16934 -0.084498 -0.029748 -0.07003 
-0.21225 0.19122 -0.12133 -0.0042642 -0.11459 -0.24069 -0.068714 -0.059178 
-0.072496 0.24384 0.034373 0.085999 -0.023007 -0.28097 -0.077428 -0.023336 
0.082053 0.32078 0.24564 0.14371 0.066763 -0.23428 -0.028104 0.0013258 
0.065447 0.35087 0.39625 0.17429 0.087972 -0.16046 0.011848 0.022535 
0.036017 0.30582 0.38885 0.13401 0.085506 -0.031557 0.084684 0.10672 
0.077943 0.1978 0.30746 0.1761 0.10984 0.13088 0.11757 0.13713 
0.069393 0.051965 0.24153 0.13023 0.085506 0.24334 0.11148 0.076627 
0.052459 -0.065919 0.1835 0.086985 0.050814 0.29464 0.060679 0.054925 
0.075476 -0.10834 0.15982 0.029769 -0.010348 0.29908 0.045882 0.053116 
0.08419 0.035853 0.13203 -0.017911 -0.051287 0.31059 0.066434 0.038483 
0.070215 0.13878 0.058871 -0.035667 -0.059836 0.27688 0.084355 0.049335 
0.061008 0.2172 0.0062583 -0.026953 -0.078415 0.16508 0.064132 0.018754 
0.043087 0.28971 -0.008539 -0.017253 -0.086142 -0.032379 0.036346 0.013657 
0.083862 0.25058 -0.029584 -0.011992 -0.091732 -0.16292 -0.0022913 0.047526 
0.13335 0.069722 -0.063946 -0.01676 -0.085156 -0.30432 -0.0014692 0.020891 
0.10491 -0.043888 -0.05326 0.03092 -0.025967 -0.37206 0.0083956 0.057227 
0.007738 -0.047176 0.040456 0.058871 -0.0138 -0.26059 0.0059294 -0.0027845 
-0.088115 -0.057534 0.03799 0.049828 -0.0062372 -0.19038 -0.099953 -0.083018 
-0.069372 -0.031228 0.035688 0.088136 0.0011614 -0.11755 -0.14171 -0.091404 
-0.0036066 -0.047998 0.059364 0.058377 0.0083956 0.047691 -0.071016 -0.046025 
-0.10209 -0.1866 -0.03616 0.068736 0.027139 0.26603 0.041114 0.024179 
-0.27703 -0.59122 -0.22787 0.023193 -0.017253 0.44919 0.1174 0.059857 
-0.14073 -0.82354 -0.40806 -0.010841 -0.046354 0.56872 0.18514 0.069393 
0.069558 -0.53137 -0.45509 -0.027775 -0.072496 0.48158 0.17084 0.085177 
0.18087 -0.15783 -0.31336 -0.068714 -0.11015 0.1664 0.11937 0.06742 
0.13894 0.064954 -0.060494 -0.048163 -0.11163 -0.021856 0.094877 0.028619 
0.067256 0.25995 0.19221 -0.010019 -0.094856 0.027961 0.086328 0.063639 
0.026317 0.41384 0.29957 -0.0098543 -0.076442 0.038155 0.08304 0.055911 
0.0060938 0.32835 0.32884 0.0028056 -0.041751 -0.17131 0.040128 0.022206 
-0.0078813 0.1567 0.3147 0.043416 -0.035832 -0.33917 -0.038133 -0.010019 
-0.0036066 0.0592 0.27162 0.048019 -0.027118 -0.29232 -0.047669 0.0046141 
0.029276 0.022042 0.12053 0.11954 0.02681 -0.17213 -0.025474 0.031085 
0.078272 0.11724 0.011026 0.090274 0.040456 -0.069043 0.041443 0.14174 
0.1539 0.35399 -0.00081153 0.085177 0.055089 -0.011992 0.068407 0.13927 
0.24959 0.37898 0.023028 0.031907 -0.017253 0.036346 0.0093821 0.10474 
0.15144 0.21835 0.031414 -0.023665 -0.056219 0.055747 0.0090533 0.023357 
0.026974 0.078765 0.038812 0.0011614 -0.058521 0.043745 -0.011334 -0.045696 
-0.010676 0.033058 0.099152 -0.0059084 -0.058685 0.077285 0.0082312 -0.0091966 
-0.00015387 -0.00097594 0.17856 0.016616 -0.042244 0.10754 0.044402 -0.023665 
-0.035503 -0.097487 0.15292 0.027303 -0.052109 0.01152 -0.030899 -0.07003 
-0.13497 -0.25384 -0.073647 -0.0090322 -0.065755 -0.096829 -0.09387 -0.09798 
-0.14204 -0.41448 -0.29659 -0.0070593 -0.053917 -0.15487 -0.078086 -0.070523 
-0.076935 -0.48764 -0.42105 -0.011334 -0.05885 -0.086636 0.01267 0.031742 
-0.061151 -0.30744 -0.28295 -0.00097594 -0.054739 -0.014787 0.054596 0.049499 
-0.0047575 0.025824 -0.11968 0.033715 -0.040928 0.024179 0.044567 0.067749 
0.30812 0.27573 -0.02794 0.026974 -0.031886 0.099645 0.1077 0.1174 
0.49095 0.23677 -0.014787 0.033058 0.0024767 0.2149 0.12151 0.14223 
0.30648 0.15259 0.01563 0.069722 -0.0026201 0.24038 0.11214 0.14437 
0.013164 0.14321 0.080244 0.058213 0.00033937 0.19451 0.10606 0.097344 
-0.14813 0.13335 0.091589 0.051965 -0.012814 0.0592 0.079587 0.037168 
-0.12231 0.1345 0.13943 0.010369 -0.047834 -0.098967 0.025659 0.02681 
-0.042901 0.1031 0.099152 0.013821 -0.034845 -0.21965 -0.044217 -0.018404 
0.03651 0.18267 0.047855 0.025659 -0.047012 -0.23395 -0.064933 -0.027118 
0.086657 0.17659 0.046211 -0.0024557 -0.048327 -0.11919 -0.060329 -0.021528 
0.058871 0.074654 -0.012156 0.033551 -0.030735 -0.0080457 -0.049478 -0.028104 
0.035688 -0.0965 -0.041422 0.020727 -0.034188 0.01563 -0.00081153 -0.0049219 
0.022206 -0.23658 0.018918 0.036017 -0.024323 0.028619 -0.025638 -0.028104 
-0.021692 -0.0965 0.12085 0.049006 -0.028104 0.039305 -0.027775 -0.02235 
-0.10949 0.21243 0.1927 0.013328 -0.036489 0.069393 0.03092 0.031249 
-0.028597 0.33657 0.22394 0.076956 0.012835 0.074161 0.056569 0.066598 
0.047033 0.25156 0.12151 0.091918 0.018589 0.04654 0.065447 0.06742 
0.12283 0.13647 -0.038627 0.057555 0.0059294 0.0032988 0.055254 0.084848 
0.16278 0.11033 -0.13662 0.048841 -0.016431 -0.006566 0.031249 0.053609 
0.04358 0.16114 -0.12823 0.012999 -0.035174 0.010204 0.016123 0.076956 
-0.042737 0.25814 -0.032872 0.018425 -0.0067304 0.053774 0.035195 0.092082 
-0.027775 0.20224 0.069064 0.030263 -0.024323 0.065118 0.07038 0.071202 
0.077121 0.077449 0.099152 0.017932 -0.034023 0.047691 0.06742 0.070708 
0.1294 0.043087 0.077614 0.019411 -0.046847 0.030592 0.065283 0.05772 
0.12628 0.040128 0.097015 -0.014951 -0.059672 0.03388 0.076134 0.056898 
0.039799 0.028454 0.082875 0.00083261 -0.05178 0.047033 0.035524 0.036017 
0.015465 0.045224 0.037661 0.057227 -0.031886 0.068242 0.0016547 -0.00097594 
-0.021692 0.0037921 0.041936 0.038319 -0.027282 -0.010183 -0.026131 -0.042737 
-0.045696 -0.014622 0.011355 0.070708 0.0011614 -0.029748 -0.060823 -0.086471 
-0.078744 0.0032988 -0.021034 0.065612 0.007738 -0.014129 -0.03764 -0.061151 
-0.10094 -0.021692 0.0016547 0.072024 0.012177 -0.034023 -0.004593 0.030098 
-0.067728 -0.023172 0.055747 0.052787 -0.011827 -0.054575 0.021878 0.03947 
0.032236 0.10244 0.14453 0.0036276 -0.038791 -0.037311 -0.0052507 0.023851 
0.094713 0.23233 0.20914 -0.018404 -0.040106 -0.025145 0.025166 0.039963 
0.11543 0.21835 0.18777 -0.024323 -0.068057 0.016123 0.044567 0.043416 
0.091096 0.17478 0.14601 -0.0016336 -0.060329 0.046704 0.029934 0.071531 
0.074654 0.1077 0.10688 0.045718 -0.042901 0.051472 0.047526 0.045553 
0.029112 -0.00064712 0.016945 -0.0019624 -0.053588 0.0098754 0.049006 0.01415 
0.005765 -0.063618 -0.043724 -0.042737 -0.059507 0.059693 0.075312 0.072024 
-0.030899 -0.06296 -0.086636 -0.025967 -0.073154 0.1784 0.084519 0.073504 
-0.069536 -0.1427 -0.14484 -0.023665 -0.07562 0.21408 0.086821 -0.0019624 
-0.077757 -0.21537 -0.15076 -0.035338 -0.085813 0.15374 0.04654 -0.045532 
-0.010512 -0.16934 -0.04323 0.0031344 -0.06296 0.1031 -0.0050863 -0.051287 
0.064461 0.03388 0.11905 0.053774 -0.022679 0.047197 0.01563 0.026317 
0.093069 0.19353 0.20076 0.14831 0.036839 0.023522 0.054432 0.053281 
0.10014 0.2126 0.1636 0.17725 0.085835 -0.028104 0.017603 0.032236 
0.10392 0.097179 0.092576 0.1493 0.094055 -0.086307 -0.0088678 0.067749 
0.062159 -0.060329 0.081395 0.099974 0.067091 -0.076935 0.048184 0.08567 
0.013328 -0.15931 0.098001 0.031414 0.0083956 -0.045203 0.026481 0.0592 
-0.017253 -0.3104 -0.023994 -0.0073881 -0.060987 -0.015938 -0.053588 -0.010348 
0.019247 -0.24102 -0.08121 -0.067728 -0.097158 0.061666 -0.023829 -0.059672 
0.023686 0.068736 -0.00097594 -0.0771 -0.084663 0.13302 0.051801 0.0059294 
-0.0024557 0.28132 0.083368 -0.035667 -0.096665 0.11576 0.080573 0.041936 
-0.030077 0.36764 0.13203 -0.028104 -0.088608 0.055911 0.0689 0.055582 
-0.0088678 0.38145 0.17593 0.026317 -0.060658 -0.069043 0.027961 0.0421 
0.0056006 0.39806 0.22246 0.021713 -0.047176 -0.18742 -0.037311 0.024673 
0.0065871 0.35728 0.2463 0.050321 -0.0040998 -0.22968 -0.040271 0.038155 
0.029276 0.24005 0.19977 0.10277 0.012999 -0.16654 -0.023007 0.038483 
0.08419 0.079094 0.097672 0.055911 0.0080668 -0.060658 -0.021528 -0.018404 
0.10935 -0.15437 0.010533 0.047197 -0.00081153 0.074819 0.0032988 -0.015116 
0.10293 -0.3834 -0.073482 -0.0082102 -0.036325 0.19599 0.10408 0.021713 
0.038977 -0.51773 -0.17821 0.0024767 -0.045696 0.21408 0.10704 0.028783 
-0.033859 -0.44917 -0.33523 0.036839 -0.039613 0.25008 0.08567 0.010533 
-0.047505 -0.39803 -0.43996 -0.0024557 -0.051287 0.3193 0.10408 0.021549 
-0.0059084 -0.32372 -0.35742 0.004943 -0.042573 0.32062 0.12825 0.056404 
0.019576 -0.08269 -0.092883 0.066927 -0.001798 0.15768 0.050486 0.089945 
0.050814 0.11987 0.2172 0.062652 0.0011614 0.048184 0.0047785 0.068571 
0.0689 0.33065 0.37257 0.091425 0.012177 0.034373 0.046046 0.11346 
0.082382 0.52186 0.39197 0.069229 0.012506 0.021878 0.028454 0.034044 
0.16081 0.5674 0.34988 0.082875 0.028619 0.046046 0.10425 0.095699 
0.1516 0.36304 0.20553 0.096357 0.021056 -0.041751 0.0786 0.12464 
0.032893 -0.0042642 0.040456 0.02681 -0.015773 -0.1108 0.020562 0.042265 
-0.056548 -0.20649 -0.10275 0.01004 -0.047834 -0.13991 -0.006566 0.013986 
-0.033201 -0.30185 -0.27949 -0.063124 -0.096336 -0.16375 0.0064227 0.019905 
0.017767 -0.29297 -0.43799 -0.11064 -0.13596 -0.24891 -0.024652 -0.019719 
0.01004 -0.25582 -0.50178 -0.097651 -0.15454 -0.28377 -0.052109 -0.0039354 
0.018754 -0.032543 -0.35167 -0.073647 -0.13086 -0.085813 -0.011005 0.042594 
0.05772 0.12677 -0.041257 0.021549 -0.04882 0.17758 0.092411 0.094713 
0.042429 0.14683 0.16853 0.037168 -0.026624 0.26422 0.034866 0.023686 
-0.06707 0.18383 0.28806 0.061666 -0.012156 0.13203 -0.10686 -0.12462 
-0.12971 0.13072 0.31141 0.10836 0.0093821 -0.034352 -0.1501 -0.1746 
-0.051451 0.090274 0.30648 0.1544 0.069722 0.0016547 -0.10341 -0.082196 
0.056404 0.14815 0.23479 0.15242 0.10918 0.1225 -0.015773 0.0062583 
0.13187 0.2736 0.19714 0.11822 0.08156 0.17577 0.062817 0.088301 
0.11099 0.30516 0.159 0.063639 0.034537 0.256 0.16278 0.1345 
0.09981 0.19944 0.12036 0.035853 -0.0034422 0.37619 0.26784 0.21391 
0.077285 0.066269 0.13203 -0.05178 -0.073811 0.26669 0.24417 0.20372 
0.0786 0.005765 0.11526 -0.077922 -0.092719 0.11642 0.16919 0.11987 
0.03388 -0.011498 0.022206 -0.059507 -0.12067 -0.01676 0.063639 0.068571 
0.023851 0.17741 0.064296 -0.030242 -0.10489 -0.16786 -0.041915 0.0088889 
0.019411 0.38178 0.092082 0.048513 -0.049971 -0.35331 -0.13399 -0.0771 
0.018589 0.36238 0.024344 0.077614 -0.010183 -0.45722 -0.15109 -0.082854 
0.041114 0.053445 -0.14862 0.054925 -0.0047575 -0.35183 -0.10571 -0.045368 
0.082217 -0.1718 -0.36597 0.029934 -0.019884 -0.15421 0.00017495 0.022042 
0.10277 -0.054739 -0.39573 -0.012156 -0.043395 0.05213 0.069722 0.067091 
0.086492 0.073668 -0.29265 0.0014903 -0.030899 0.2662 0.077778 0.062323 
0.083697 -0.11245 -0.22836 0.0092177 -0.035996 0.42157 0.12414 0.061501 
0.08304 -0.57379 -0.23395 0.0075736 -0.042737 0.44031 0.13056 0.043416 
0.058213 -0.9794 -0.21504 0.0054362 -0.062631 0.32637 0.09126 0.025001 
0.018425 -0.70697 0.091918 -0.020048 -0.07562 0.1373 0.072517 0.081395 
-0.041093 0.086492 0.45856 0.031907 -0.026296 -0.036983 0.044731 0.080244 
-0.098967 0.57086 0.5679 0.075312 -0.0075525 -0.085156 -0.031721 0.056076 
-0.1187 0.60949 0.47632 0.085012 0.012013 -0.10094 -0.076771 0.018754 
-0.17838 0.53222 0.45067 0.12135 0.029769 -0.16079 -0.078579 -0.023007 
-0.26404 0.40578 0.38129 0.062159 0.010204 -0.20041 -0.070523 -0.016924 
-0.15125 0.18859 0.14946 0.0014903 -0.019884 -0.3058 -0.062302 -0.092719 
0.018425 -0.069536 -0.14977 -0.05326 -0.090746 -0.45361 -0.1381 -0.099953 
0.16229 -0.17312 -0.31862 -0.041915 -0.094692 -0.39951 -0.090746 -0.034681 
0.24252 -0.18331 -0.43569 0.040128 -0.038462 -0.21833 -0.05737 -0.035338 
0.21161 -0.1718 -0.39721 0.015301 -0.036983 -0.0062372 0.044073 -0.0070593 
0.1322 0.023028 -0.19318 0.029769 -0.019719 0.19073 0.12891 0.10277 
0.13171 0.27951 0.062488 0.071695 0.0013258 0.3484 0.17873 0.17577 
0.20224 0.38079 0.19961 0.053445 -0.0004827 0.37833 0.18185 0.17396 
0.16475 0.24828 0.15127 0.026317 -0.0049219 0.41894 0.17988 0.080902 
0.045224 0.028454 0.036017 -0.018239 -0.046519 0.56379 0.16788 0.048348 
-0.024158 -0.086142 -0.025474 -0.03057 -0.071674 0.54159 0.1927 0.070544 
-0.044874 -0.051451 0.041936 0.0018191 -0.077428 0.33739 0.12102 0.041772 
-0.046519 -0.047341 0.12924 -0.00015387 -0.073647 0.13417 0.09981 0.056898 
-0.023007 -0.016924 0.20734 0.0037921 -0.036489 -0.028762 0.07449 0.061172 
0.025495 0.017603 0.20635 0.05476 -0.021363 -0.14829 0.077778 0.070051 
0.0044497 0.038977 0.1904 0.066598 -0.0052507 -0.24793 0.017767 0.061008 
-0.012156 0.047855 0.1197 0.11559 0.027468 -0.36022 -0.085485 -0.0057439 
-0.04323 0.026646 0.078436 0.072517 0.01711 -0.42335 -0.13925 -0.049807 
-0.089102 -0.01939 0.081724 0.045718 0.012177 -0.32947 -0.11639 -0.043888 
-0.10784 -0.008539 0.11132 0.01004 -0.032708 -0.16029 -0.075455 -0.026953 
-0.093048 0.010204 0.063639 -0.037147 -0.068386 -0.065591 -0.010183 0.0093821 
-0.080223 -0.042901 -0.018568 -0.047505 -0.084334 -0.010676 0.016452 0.027303 
0.05624 0.028125 -0.10637 -0.046519 -0.09239 0.062159 0.060844 0.03388 
0.29628 0.20882 -0.1381 -0.0050863 -0.068386 0.12875 0.065447 0.065118 
0.35301 0.28856 -0.10554 0.064296 -0.02794 0.14404 0.061501 0.060515 
0.20816 0.27327 -0.040435 0.092247 0.010697 0.1345 0.029605 -0.011498 
0.018425 0.19336 0.021056 0.10474 0.050321 0.050321 -0.012649 -0.041915 
-0.069701 0.07301 0.0028056 0.10277 0.0421 0.015465 -0.060823 -0.06444 
-0.048492 0.088465 0.073997 0.078436 0.033058 0.10425 0.065612 0.019083 
0.043087 0.21967 0.20849 0.098001 0.032729 0.11609 0.10754 0.10688 
0.10655 0.30122 0.31059 0.076956 0.023193 0.030592 0.091753 0.08978 
0.12431 0.37816 0.33081 0.074654 0.043909 0.00017495 0.091425 0.11296 
0.16475 0.39197 0.29579 0.06594 0.011684 -0.038627 0.065776 0.12102 
0.11609 0.19961 0.1174 0.024673 -0.016595 0.013328 0.027632 0.073504 
-0.030899 0.037332 -0.043559 0.02533 -0.027118 0.06183 0.019083 0.06479 
-0.15421 -0.017911 -0.11459 -0.010841 -0.053917 0.059364 0.030098 0.030756 
-0.11524 -0.069536 -0.15224 -0.034681 -0.076277 -0.021856 -0.017746 0.021056 
-0.021199 -0.25154 -0.1917 -0.036489 -0.10341 -0.081703 -0.049149 -0.00097594 
0.053774 -0.45558 -0.17065 -0.049971 -0.10489 -0.075127 -0.039942 -0.030242 
0.055911 -0.49767 -0.08828 -0.004593 -0.078579 -0.061809 -0.051615 -0.03205 
0.02122 -0.3206 0.0013258 -0.016924 -0.07414 -0.046683 -0.084991 -0.070194 
0.046704 0.081231 0.15999 -0.0087034 -0.06444 -0.073976 -0.087786 -0.041422 
0.068078 0.34807 0.3147 0.091918 -0.0075525 -0.14237 -0.0138 0.018096 
0.052623 0.3512 0.36567 0.071531 0.0041209 -0.12544 0.034702 0.028947 
0.057884 0.33098 0.26126 0.075148 0.037332 -0.023665 0.064132 0.023522 
0.0786 0.32358 0.1807 0.096028 0.031742 0.078765 0.060022 -0.024652 
0.079258 0.25929 0.062817 0.087808 0.035195 0.16903 0.029112 -0.068221 
0.093233 0.22361 -0.038627 0.090274 0.03651 0.28116 0.076792 0.0013258 
0.08304 0.10754 -0.085156 0.025824 -0.0075525 0.27573 0.1544 0.07597 
-0.052273 -0.097158 -0.077428 -0.035832 -0.041257 0.087643 0.093069 0.10376 
-0.11113 -0.23099 -0.1011 0.007738 -0.064604 -0.1062 -0.0052507 0.092904 
-0.0052507 -0.31386 -0.19071 -0.028104 -0.074633 -0.18857 -0.075949 0.032564 
0.065283 -0.32224 -0.18446 0.042429 -0.03616 -0.07973 -0.080717 0.0039565 
0.1077 -0.1524 -0.082361 0.037826 -0.020541 0.065118 -0.03912 0.039141 
0.0786 -0.058192 -0.038791 0.014479 -0.032379 0.071366 0.037168 0.044402 
0.034702 -0.07414 -0.063124 0.0080668 -0.055561 0.0046141 0.05476 0.058706 
0.040292 -0.035338 -0.025802 -0.029091 -0.074962 0.038319 0.0421 0.0324 
-0.0064016 0.09274 0.027796 -0.01528 -0.067728 0.036675 0.022864 0.048841 
-0.056712 0.091918 0.067256 -0.039449 -0.088608 0.013821 0.057391 0.04917 
-0.062467 0.069558 0.10655 -0.052931 -0.1011 -0.004593 0.038483 0.034702 
-0.030406 0.13401 0.15308 0.034044 -0.062138 0.0054362 0.052294 0.047691 
-0.020706 0.3415 0.22361 0.051801 -0.032215 -0.026131 0.05476 0.062323 
0.053938 0.5046 0.29579 0.044073 0.0051074 -0.057863 -0.016266 -0.0027845 
0.14815 0.4944 0.36928 0.062817 -0.0095255 -0.0022913 -0.053095 -0.016924 
0.15407 0.31092 0.34133 0.041114 -0.010183 0.055747 -0.0055795 -0.035338 
0.12299 0.072188 0.17577 0.066927 0.0062583 0.043416 -0.020377 -0.039284 
0.055582 -0.16753 -0.049642 0.08156 0.018754 0.034373 -0.034352 -0.0406 
-0.021034 -0.3617 -0.23905 0.059035 0.01826 0.071531 0.025659 -0.015444 
-0.11294 -0.54814 -0.42681 0.052952 -0.004593 0.08715 0.073339 0.041936 
-0.2476 -0.94011 -0.73229 -0.017582 -0.057534 -0.066413 0.040785 0.086492 
-0.35348 -1.5922 -0.9868 -0.089924 -0.11672 -0.18298 -0.019884 -0.01232 
-0.3834 -1.5636 -0.87648 -0.11903 -0.1478 -0.056877 -0.012978 -0.021528 
-0.14517 -0.55571 -0.34115 -0.039449 -0.10078 0.21326 0.069886 0.053938 
0.24334 0.54323 0.18596 0.054596 -0.051287 0.36468 0.20997 0.17363 
0.36928 1.0758 0.42354 0.027632 -0.036325 0.36057 0.22115 0.18366 
0.29678 1.121 0.47023 -0.010841 -0.043888 0.29102 0.16623 0.11411 
0.22427 0.92237 0.45823 -0.032215 -0.082525 0.11576 0.061008 0.028125 
0.14026 0.57513 0.3826 -0.012485 -0.07825 -0.016102 -0.045203 -0.05326 
0.05624 0.2537 0.26324 0.024837 -0.059178 -0.060165 -0.09946 -0.096336 
0.018425 -0.040928 0.14338 0.038977 -0.031557 0.022535 -0.027611 0.0026412 
-0.0040998 -0.29297 -0.011498 0.073997 0.026974 0.13894 0.09833 0.12085 
-0.011005 -0.22343 0.020398 0.097015 0.03092 0.16097 0.15505 0.16229 
-0.084498 0.13384 0.14667 0.093233 0.030756 0.073997 0.067749 0.068736 
-0.084991 0.31207 0.21523 0.12661 0.061666 -0.029748 -0.060823 -0.036654 
-0.032215 0.2366 0.079916 0.070215 0.023522 -0.13103 -0.088115 -0.1062 
0.040128 0.12513 -0.049642 0.0098754 -0.018075 -0.21882 -0.1256 -0.077922 
0.10063 0.053938 -0.10719 0.03092 -0.029255 -0.24825 -0.09239 -0.03353 
0.21474 0.18794 -0.038956 0.050486 -0.014787 -0.13464 -0.003771 0.11822 
0.20734 0.2075 0.044731 0.09274 0.020727 -0.036489 0.071202 0.17001 
0.049499 -0.075455 -0.020212 0.053281 0.010862 0.01152 0.039799 0.086163 
-0.11672 -0.42418 -0.15026 0.010204 -0.026131 -0.004593 -0.010019 -0.019061 
-0.14155 -0.39047 -0.16325 0.0011614 -0.048656 -0.0080457 -0.023829 -0.077428 
-0.015938 -0.10291 -0.042901 -0.034188 -0.075291 0.0019835 -0.001798 -0.02498 
0.14009 0.20175 0.044073 -0.02498 -0.041093 0.038977 0.064954 0.058871 
0.10869 0.31404 0.076463 -0.0019624 -0.054739 0.033222 0.094877 0.081395 
-0.0070593 0.14042 0.014643 0.010533 -0.050136 0.023357 0.061501 0.089287 
-0.11459 -0.32027 -0.15783 0.049335 -0.036325 0.039799 0.01004 0.030263 
-0.12116 -0.46627 -0.18643 0.011026 -0.040271 0.092576 0.0227 -0.0014692 
-0.077922 -0.13103 -0.070194 0.017274 -0.0138 0.1003 0.033551 0.018754 
0.0060938 0.27261 0.13006 0.02829 -0.030899 0.065612 0.056569 0.018754 
0.14239 0.46267 0.22493 0.018754 -0.031721 0.13516 0.09126 0.067585 
0.23348 0.36863 0.26488 0.079258 -0.003771 0.19944 0.12612 0.088958 
0.21868 0.26801 0.29069 0.035524 -0.018075 0.14453 0.077285 0.066105 
0.15407 0.27573 0.29234 0.0093821 -0.032215 0.14009 0.020562 0.027468 
0.070051 0.27787 0.24038 0.032893 -0.036654 0.17593 0.024508 -0.027611 
0.014808 0.23479 0.15456 0.00066819 -0.049807 0.13269 -0.0019624 -0.031557 
0.0026412 0.24959 0.073504 0.033715 -0.02794 0.13335 0.051636 0.038977 
0.042429 0.30631 0.098001 0.037826 -0.016595 0.13088 0.1202 0.099152 
0.083204 0.29793 0.12036 0.045718 -0.015938 -0.024652 0.0786 0.082053 
0.081231 0.27491 0.15916 0.045718 -0.030735 -0.13908 0.016945 0.051143 
0.046704 0.24696 0.22148 -0.0098543 -0.056548 -0.17789 -0.016924 0.016452 
0.039799 0.23479 0.26899 -0.02942 -0.059507 -0.20879 -0.017911 0.050486 
0.024344 0.22657 0.2246 -0.0014692 -0.06444 -0.16966 -0.0004827 0.050979 
0.032564 0.22263 0.12201 0.023686 -0.041257 -0.04619 0.07449 0.099645 
0.076627 0.14749 0.080902 0.11181 0.014972 0.0083956 0.091425 0.081231 
0.064461 0.028947 0.030427 0.073832 0.010204 0.026317 0.034044 0.010369 
0.056404 -0.013143 -0.060165 0.051965 0.020069 0.074654 0.020891 0.014315 
0.052459 -0.10373 -0.15158 0.015959 -0.028762 0.099316 0.044896 0.022371 
-0.00031829 -0.39672 -0.30909 -0.0406 -0.073154 0.068407 0.010369 0.0069159 
-0.045532 -0.62936 -0.36104 -0.042737 -0.091075 0.037497 -0.020706 -0.014787 
-0.071016 -0.54765 -0.23444 -0.052931 -0.1011 0.032236 -0.037147 -0.085978 
-0.047998 -0.3349 -0.084334 -0.010676 -0.079072 0.021878 -0.062467 -0.10275 
-0.031064 -0.05441 0.058871 0.02681 -0.052931 -0.04323 -0.076771 -0.099295 
-0.075455 0.25304 0.22378 0.014972 -0.047012 -0.049971 -0.032708 -0.0059084 
-0.048656 0.4824 0.30878 0.009711 -0.034188 0.01711 0.051472 0.058542 
0.028947 0.62626 0.293 -0.0024557 -0.046354 0.15604 0.12036 0.10162 
0.19977 0.61097 0.27754 0.015465 -0.040928 0.21013 0.14305 0.13236 
0.23825 0.51348 0.29316 0.099645 0.0042853 0.1391 0.15637 0.18103 
0.053938 0.29053 0.19024 0.11839 0.03536 0.061501 0.15061 0.15752 
-0.021528 -0.10176 -0.055397 0.08419 0.048513 0.018918 0.1031 0.10047 
0.021549 -0.42566 -0.26338 0.026646 -0.019719 -0.063618 0.010697 -0.0082102 
0.051472 -0.51164 -0.31731 -0.010019 -0.048492 -0.064111 -0.034845 -0.088773 
0.031578 -0.35611 -0.19022 0.026974 -0.039449 -0.010019 -0.063946 -0.042901 
0.080409 -0.059178 -0.039613 0.015137 -0.043066 -0.048492 -0.040435 0.019905 
0.13565 0.10754 0.044073 0.020727 -0.030735 -0.068879 -0.019226 0.01415 
0.12792 0.079751 0.09981 0.048184 -0.025638 0.0036276 -0.0050863 0.0095465 
-0.023007 0.0689 0.14371 0.040456 -0.020541 -0.018239 0.027468 0.017767 
-0.10061 0.061008 0.17478 0.051143 -0.010512 -0.058028 0.019247 0.0036276 
-0.085649 -0.01676 0.16574 0.04917 -0.0088678 -0.078579 -0.053917 -0.027447 
-0.035338 -0.046683 0.077121 0.066598 0.0042853 -0.057205 -0.068057 -0.067399 
-0.071674 0.10622 -0.059178 0.096028 0.01415 -0.032215 -0.020541 0.015794 
-0.023829 0.14897 -0.10653 0.058377 0.0069159 -0.022679 0.033387 0.11099 
0.026152 -0.054575 -0.094034 -0.0072237 -0.013965 -0.0075525 0.053938 0.13993 
0.050321 -0.18479 0.026152 -0.033365 -0.067564 -0.021692 0.033058 0.076956 
0.098988 -0.11656 0.087314 -0.071838 -0.10291 0.047362 0.076627 0.024673 
0.025659 -0.071345 0.040128 -0.003771 -0.086636 0.057391 0.051965 0.014808 
-0.075291 -0.092061 -0.091897 -0.029091 -0.095514 -0.11574 -0.06 -0.030735 
-0.10883 -0.25746 -0.19926 -0.025802 -0.069208 -0.28278 -0.17049 -0.092883 
-0.065262 -0.33737 -0.26009 0.04095 -0.0406 -0.11343 -0.16013 -0.10801 
0.037826 -0.18791 -0.23806 0.098001 0.022864 0.1613 -0.05178 -0.085813 
0.096193 0.011684 -0.099295 0.17906 0.073339 0.28362 0.098001 0.016123 
0.15144 0.12053 0.060515 0.13664 0.076299 0.27836 0.21506 0.14042 
0.13105 0.1544 0.23134 0.098988 0.050814 0.20668 0.26389 0.15571 
0.093891 0.27294 0.23907 0.068242 0.01152 0.14667 0.1955 0.097672 
0.04654 0.23858 0.12562 -0.0050863 -0.03616 0.159 0.087808 0.010533 
-0.011498 -0.028269 -0.03353 -0.017746 -0.0503 0.14108 0.018918 -0.02794 
-0.035338 -0.28738 -0.16539 -0.068221 -0.096336 0.10376 0.020233 0.03388 
-0.084663 -0.35742 -0.19712 -0.067399 -0.11097 0.16048 0.095371 0.10096 
-0.060823 -0.157 -0.20271 0.0024767 -0.085649 0.14601 0.086657 0.1271 
0.0021479 0.19484 -0.080552 0.033551 -0.049314 -0.018568 0.013657 0.10491 
0.13927 0.41894 0.16607 0.1248 0.040621 -0.1741 -0.032543 0.092082 
0.13828 0.51676 0.40562 0.094055 0.020233 -0.31057 -0.042244 0.046704 
0.090603 0.49424 0.43686 0.014643 -0.018897 -0.37304 -0.040435 0.027303 
0.033387 0.28198 0.29168 0.01152 -0.043559 -0.33835 -0.09239 -0.052931 
0.025495 0.17314 0.1978 -0.052273 -0.081539 -0.17624 -0.10571 -0.08269 
0.019083 0.10408 0.065118 -0.033037 -0.071181 -0.026789 -0.030242 -0.03501 
0.040128 -0.051451 -0.064275 0.013328 -0.058028 0.073504 0.03651 0.0051074 
0.048677 -0.35956 -0.25993 0.014808 -0.047505 0.14749 0.11132 0.073175 
-0.023336 -0.60618 -0.36433 0.037168 -0.015609 0.13993 0.051965 0.036675 
-0.065097 -0.583 -0.32668 0.00066819 -0.0406 0.13878 -0.020212 -0.016924 
-0.079072 -0.24727 -0.17262 -0.032872 -0.07003 0.16459 -0.0090322 -0.028433 
-0.091568 0.12365 0.018754 0.024673 -0.052437 0.30615 0.042758 -0.011827 
0.02122 0.43308 0.23364 0.042923 -0.027282 0.39789 0.12677 0.086821 
0.26028 0.50739 0.34314 0.078929 0.011684 0.22148 0.15801 0.13335 
0.30105 0.22328 0.26242 0.044073 -0.025802 -0.017582 0.079916 0.090603 
0.13647 0.052952 0.12677 0.00083261 -0.048985 -0.13958 -0.010676 0.019083 
0.0014903 0.12036 0.012835 0.038977 -0.030406 -0.12034 -0.014787 -0.0032777 
-0.020048 0.22065 -0.03353 0.040456 -0.016924 0.011848 0.005765 0.013821 
-0.019719 0.18333 -0.087293 0.030756 0.004943 0.098001 -0.035667 0.0083956 
0.0014903 0.029605 -0.12314 0.036346 -0.017911 0.14042 0.0067515 0.0085601 
0.039305 -0.014458 -0.057863 0.048677 -0.0064016 0.28017 0.13105 0.091425 
0.060844 0.094713 0.062817 0.055089 -0.0080457 0.2468 0.18465 0.10113 
0.034044 0.12283 0.13976 -0.028926 -0.065097 0.12579 0.17774 0.085341 
0.017438 0.074654 0.1516 -0.064768 -0.10373 0.032729 0.14239 0.091096 
0.014972 0.02533 0.12414 -0.042573 -0.10801 -0.02498 0.11576 0.09833 
0.010697 -0.099624 0.05213 -0.04882 -0.1062 -0.0022913 0.07038 0.095042 
0.047197 -0.097816 0.035195 0.010369 -0.05885 0.085177 0.073832 0.058542 
0.066434 0.029276 0.074983 0.038648 -0.034681 0.049335 0.011026 0.0065871 
0.045718 0.066598 0.10885 0.040128 -0.023994 -0.034516 -0.073811 -0.053588 
0.030592 0.091918 0.10967 0.074326 -0.015444 -0.095514 -0.10801 -0.09387 
0.072517 0.18054 0.076463 0.067749 -0.0044286 -0.18052 -0.11475 -0.074633 
0.047033 0.23512 0.038812 0.06479 0.024837 -0.27456 -0.13481 -0.0073881 
0.010533 0.21983 -0.02498 0.063803 -0.0070593 -0.27045 -0.091404 0.03388 
0.040621 0.16689 -0.03764 0.023522 -0.023172 -0.19087 -0.052437 0.041936 
0.11329 0.094713 0.0011614 0.04917 -0.0138 -0.01528 -0.042408 0.033715 
0.14321 0.047362 0.098001 0.015794 -0.029255 0.12217 -0.017746 0.010204 
0.094384 0.10869 0.17232 0.024673 -0.014458 0.10672 0.021056 0.028125 
0.0060938 0.16163 0.16969 0.035524 -0.033859 0.024508 0.024837 0.021549 
-0.044874 0.18761 0.19254 0.031414 -0.026131 0.020398 0.023193 0.043251 
-0.0082102 0.23529 0.19731 0.06183 -0.0039354 0.040292 0.039634 0.03947 
0.091096 0.27129 0.20355 -0.00097594 -0.016924 0.093398 0.055582 0.030756 
0.1174 0.25025 0.13993 0.031578 -0.022843 0.081889 0.070708 0.025824 
0.095042 0.21112 0.043745 0.067256 -0.009361 0.12644 0.12217 0.023686 
0.016452 0.18152 0.0088889 0.059364 -0.0031133 0.096521 0.17708 0.093891 
-0.068221 0.07301 -0.011334 0.065776 0.037661 -0.031392 0.13762 0.16541 
-0.065426 -0.0072237 -0.028926 0.024179 -0.018897 -0.11048 0.053281 0.099481 
-0.015116 -0.1912 -0.027611 -0.0031133 -0.041257 -0.070523 0.026481 0.048019 
0.023851 -0.25483 -0.0096899 0.014479 -0.043724 0.077614 -0.030735 -0.036325 
-0.0067304 -0.25615 -0.019226 -0.031392 -0.071016 0.18662 -0.055561 -0.076442 
-0.039449 -0.34723 -0.087293 -0.042573 -0.065262 0.16311 -0.01676 -0.051615 
-0.015116 -0.32783 -0.078579 -0.0098543 -0.071509 0.090109 0.048019 -0.021199 
0.0072447 -0.091239 -0.038627 0.01415 -0.055397 -0.018404 0.0056006 0.011191 
-0.0090322 0.24137 -0.0044286 0.041936 -0.035503 -0.055232 -0.06296 -0.032872 
-0.014622 0.41844 0.1003 0.02533 -0.030242 0.060515 -0.030406 -0.072167 
0.076627 0.41072 0.16886 0.10524 0.02681 0.21342 0.031085 0.019411 
0.09981 0.14289 -0.024652 0.14634 0.055911 0.20931 0.10228 0.10754 
0.064132 -0.20501 -0.18298 0.07038 0.022042 0.038319 0.12957 0.14486 
0.0095465 -0.25828 -0.092061 0.06331 0.0088889 -0.19959 0.068736 0.14404 
-0.021363 -0.056548 0.1077 0.044238 -0.01232 -0.32701 0.0011614 0.078107 
-0.0098543 0.10869 0.14864 0.047691 -0.011334 -0.3594 -0.058521 0.0014903 
0.014972 0.05772 0.0016547 0.026646 -0.039449 -0.30333 -0.07825 -0.034023 
0.034044 0.068736 -0.098802 -0.035503 -0.068714 -0.1598 -0.085978 -0.064275 
0.087314 0.22213 -0.037311 -0.027282 -0.050629 0.00297 -0.020541 -0.0054151 
0.13203 0.31174 0.064461 -0.00015387 -0.05737 0.072188 0.047526 0.033058 
0.13368 0.20767 0.075148 -0.0032777 -0.058685 0.087479 0.041772 0.030098 
0.098001 -0.15717 -0.056219 0.0037921 -0.063946 0.087808 0.048019 0.038812 
0.053609 -0.45607 -0.16358 -0.033365 -0.079072 0.1128 0.051143 0.018096 
-0.037311 -0.44128 -0.095021 -0.011498 -0.047012 0.14667 0.025495 0.012177 
-0.059836 -0.31353 0.025659 0.029769 -0.040435 0.171 0.022042 0.013821 
-0.087293 -0.3007 0.049335 0.030098 -0.033859 0.16475 0.063803 -0.010676 
-0.21554 -0.30037 0.0065871 0.017932 -0.045532 0.1128 0.041772 -0.006566 
-0.26059 -0.081045 -0.044217 -0.044217 -0.083512 0.044731 0.033715 -0.010512 
-0.11541 0.17215 -0.076442 -0.023829 -0.079566 -0.00097594 0.036017 0.020233 
0.063803 0.27442 -0.049314 0.059035 -0.031721 -0.0029489 0.041772 0.03947 
0.15818 0.31486 -0.017088 0.079094 0.0016547 -0.036489 0.040128 0.078436 
0.11757 0.27261 -0.015773 0.13302 0.057391 0.0026412 0.015959 0.11099 
0.080244 0.1026 -0.072003 0.14108 0.077449 0.033715 0.0095465 0.067585 
0.085999 -0.15618 -0.13021 0.11888 0.067913 0.094877 0.013164 0.0018191 
0.11855 -0.25697 -0.090417 0.10178 0.04506 0.092904 0.037826 0.027796 
0.10524 -0.08384 0.070708 0.028454 0.00017495 0.099481 0.10195 0.023357 
0.074983 0.18728 0.1909 -0.029584 -0.026789 0.052459 0.10754 0.045224 
0.043416 0.28017 0.2098 -0.075455 -0.097158 0.015959 0.097508 0.054596 
0.036346 0.2662 0.22164 -0.074633 -0.11985 -0.039449 0.024837 0.027632 
0.078107 0.21046 0.31947 0.020233 -0.076442 -0.056383 -0.001798 0.032071 
0.066105 0.22575 0.37537 0.0036276 -0.061316 -0.048492 -0.031392 0.0062583 
0.044073 0.23003 0.38375 0.025988 -0.031064 -0.017088 -0.018733 -0.022843 
0.0065871 0.11313 0.33394 0.057555 -0.024487 0.037004 0.049006 0.01415 
0.005765 0.097672 0.30763 0.076956 0.005765 0.064625 0.081067 0.05624 
0.021384 0.035853 0.13499 0.056404 0.0062583 0.055089 0.068078 0.055747 
0.0031344 -0.11048 -0.11903 0.020398 -0.01939 0.037497 0.044402 0.039305 
-0.0029489 -0.16999 -0.32191 0.034209 -0.023829 -0.096829 -0.026789 0.013821 
0.061172 -0.15651 -0.39573 0.050979 -0.03205 -0.17558 -0.036818 0.041278 
0.082053 -0.21027 -0.44769 -0.027118 -0.067728 -0.14451 -0.04323 0.052787 
-0.049971 -0.40313 -0.58777 -0.069043 -0.0771 -0.10702 -0.063124 -0.065755 
-0.084827 -0.34937 -0.51658 0.01974 -0.051451 -0.024487 -0.07266 -0.088773 
-0.022679 -0.089759 -0.28558 0.15522 0.049664 0.082053 0.039634 -0.0011404 
0.14404 0.19977 0.0227 0.25107 0.12924 0.078436 0.11346 0.12529 
0.36485 0.60473 0.41269 0.17708 0.12743 0.019411 0.058377 0.12316 
0.4048 0.82849 0.62577 0.10359 0.096357 0.00297 0.0060938 0.078765 
0.25008 0.6649 0.55507 0.039305 0.023028 0.11937 0.053774 0.0421 
0.036017 0.26603 0.34988 -0.04471 -0.0503 0.28428 0.096521 0.041278 
-0.10341 -0.047998 0.10458 -0.08121 -0.11491 0.31864 0.11115 0.037332 
-0.2961 -0.10719 0.011848 -0.133 -0.1649 0.2292 0.12727 0.060844 
-0.52496 -0.038627 0.067585 -0.057699 -0.13415 0.074654 0.11296 0.080244 
-0.36778 -0.089924 0.069558 0.015959 -0.083347 -0.010841 0.060022 0.051308 
0.00099702 -0.14139 0.028125 0.024015 -0.051451 -0.0064016 0.013492 0.0041209 
0.23989 -0.049642 0.053938 0.037826 -0.025638 -0.010019 -0.0004827 -0.035503 
0.26718 0.099316 0.095535 0.042923 -0.01939 0.028783 0.019411 0.0090533 
0.22526 0.18267 0.10326 0.046046 -0.011992 0.029934 0.032071 0.030756 
0.17462 0.18235 0.088301 0.075805 0.0065871 -0.054575 0.061172 0.026974 
0.097179 0.14058 0.058542 0.049828 -0.0075525 -0.19235 -0.035174 0.0044497 
0.044238 0.023357 0.031414 0.045389 0.01152 -0.33835 -0.13382 -0.037311 
0.0098754 -0.078744 -0.034023 0.04358 -0.014622 -0.42845 -0.13333 -0.033859 
0.030098 -0.042573 -0.084005 0.031907 -0.017417 -0.35085 -0.10702 0.007738 
0.039634 0.010862 -0.099131 0.061995 0.0018191 -0.12034 -0.06296 -0.019061 
0.019576 0.035031 -0.0771 0.013821 -0.021363 0.082217 0.022371 0.01267 
0.013821 0.085012 -0.059178 -0.009361 -0.034681 0.21194 0.082875 0.042429 
0.015301 0.052787 -0.088937 -0.0013048 -0.058028 0.31897 0.12957 0.073832 
-0.011663 -0.06148 -0.11755 -0.015444 -0.064604 0.38967 0.13582 0.047691 
-0.032379 -0.09798 -0.073318 -0.0068948 -0.059507 0.52926 0.16163 0.027632 
-0.063124 -0.037969 0.061337 -0.0406 -0.079895 0.63169 0.17166 0.029934 
-0.066084 -0.0080457 0.15916 -0.054739 -0.10176 0.5485 0.18794 0.067749 
-0.0014692 0.1368 0.20043 0.0018191 -0.086142 0.3119 0.17034 0.096686 
0.050157 0.38556 0.23134 0.0016547 -0.077428 0.092247 0.13812 0.16475 
0.21424 0.68677 0.26225 0.050486 -0.020377 -0.10193 0.08304 0.20964 
0.21112 0.59042 0.21128 0.059693 0.0032988 -0.26124 0.013657 0.17528 
0.088958 0.1197 0.040456 0.04095 -0.013307 -0.31747 -0.047834 0.046704 
-0.0077169 -0.21093 -0.091239 0.029605 -0.039613 -0.16555 -0.078579 -0.049642 
-0.034023 -0.24645 -0.063618 -0.015116 -0.055397 -0.03501 -0.078744 -0.093376 
-0.032215 -0.21899 -0.041915 -0.01939 -0.045861 0.064461 -0.010019 -0.079237 
-0.05326 -0.24924 -0.081868 -0.031557 -0.083347 0.057062 -0.039449 -0.11097 
-0.056548 -0.34411 -0.10554 -0.023829 -0.081539 -0.016431 -0.021034 -0.036654 
-0.039942 -0.47038 -0.033694 0.026152 -0.051944 -0.035174 0.062488 0.018918 
-0.014951 -0.37551 0.080409 0.022042 -0.0406 -0.042408 0.070051 0.046211 
0.038483 0.10704 0.22493 0.010862 -0.040435 -0.027118 0.077121 0.10277 
0.09833 0.61114 0.32637 0.005765 -0.055232 -0.021692 0.091096 0.088794 
0.041278 0.7162 0.2833 -0.01676 -0.066084 -0.025802 0.034866 0.049335 
