0.13417 0.022864 0.018589 0.0024767 -0.037969 -0.0032777 0.0013258 -0.22228 
0.14486 0.068242 0.035853 0.034537 -0.031392 0.12776 0.074983 -0.19301 
-0.0016336 0.13499 0.062488 0.025001 -0.02498 0.28987 0.10524 -0.12905 
-0.36301 0.06742 0.079751 0.045389 -0.015444 0.27771 0.05213 -0.083018 
-0.64531 -0.070523 0.060844 0.04095 -0.028926 0.13253 -0.042408 -0.14188 
-0.52151 -0.12988 0.022864 -0.017582 -0.06296 0.020069 -0.085813 -0.11426 
-0.070523 -0.11311 -0.0034422 0.018096 -0.034188 -0.034516 -0.0771 -0.017253 
0.2588 -0.046025 0.0019835 0.021384 -0.032708 -0.027611 -0.019719 0.076299 
0.30944 0.0082312 -0.0072237 0.026974 -0.029748 0.01974 -0.012485 0.13368 
0.21556 0.060186 -0.0096899 0.069064 -0.010019 -0.032872 -0.039942 0.10655 
0.074326 0.044731 -0.0022913 0.010533 -0.040928 -0.18298 -0.076935 0.066763 
-0.057041 0.027961 0.01826 0.027796 -0.014458 -0.26996 -0.073318 0.059035 
-0.054082 0.10474 0.045389 0.050486 -0.02087 -0.25713 -0.0406 0.031249 
0.051308 0.16837 0.058049 0.03092 -0.021528 -0.18397 0.027961 0.037497 
0.11921 0.15949 0.069229 0.057227 -0.013307 -0.049478 0.056733 0.035031 
0.087479 0.069558 0.033058 0.04654 -0.010348 0.038648 0.032236 0.017274 
0.09833 -0.072167 0.020727 0.041607 0.01415 0.084026 0.05065 -0.019884 
0.17593 -0.033201 0.063803 0.067749 0.0059294 0.10918 0.0786 -0.0077169 
0.21227 0.056569 0.073997 0.054596 0.00033937 0.097508 0.074654 0.031578 
0.22033 0.03388 0.065283 0.063145 -0.008539 0.064296 0.049499 0.066269 
0.2075 -0.06148 0.036182 0.0011614 -0.041915 0.010369 0.013164 0.0067515 
0.13351 -0.066577 0.026646 -0.029091 -0.053753 -0.0034422 -0.009361 0.03536 
-0.059014 -0.031228 0.014972 -0.029584 -0.08269 -0.0022913 -0.039778 0.028619 
-0.093705 0.039634 0.01563 0.019411 -0.052273 0.037826 -0.011663 -0.0011404 
0.063803 0.044567 0.038648 0.070215 -0.014129 0.056898 -0.023007 -0.013143 
0.29776 0.0031344 0.014808 0.047855 -0.0050863 0.024508 -0.022021 -0.023994 
0.35366 0.084519 -0.025638 0.023357 -0.025145 -0.057699 -0.049971 -0.017253 
0.2029 0.26028 0.0069159 0.025495 -0.037969 -0.11804 -0.038133 0.058377 
0.047691 0.3706 0.049664 0.02122 -0.035832 -0.14056 -0.036818 0.10343 
-0.11755 0.3706 0.09685 0.042594 -0.020048 -0.074798 -0.0077169 0.12908 
-0.19153 0.16952 0.05213 0.024179 -0.02498 -0.03616 0.026317 0.13943 
-0.07414 0.00066819 0.025988 0.029605 -0.022021 0.033551 0.075148 0.16081 
0.10885 0.016616 0.037826 0.069229 -0.0077169 0.10113 0.13056 0.20684 
0.31059 0.068242 0.067256 0.048841 -0.0082102 0.16574 0.17051 0.20816 
0.37405 0.029441 0.069064 0.055418 0.0080668 0.14371 0.11806 0.13828 
0.31042 0.089287 0.05772 0.069558 0.0016547 0.11872 0.061995 0.10556 
0.34775 0.23989 0.0786 0.043909 -0.0080457 0.062159 0.10967 0.091096 
0.54011 0.28987 0.048513 0.069722 -0.0026201 0.028619 0.025166 0.053774 
0.71275 0.17758 0.018096 0.0034632 -0.038298 -0.03501 -0.008539 0.040456 
0.54866 0.10425 0.019576 -0.037805 -0.055068 -0.019555 0.01826 -0.0032777 
0.20076 -0.085485 0.0024767 0.0098754 -0.051615 -0.013965 -0.030899 -0.072332 
-0.040435 -0.29215 -0.0080457 -0.02646 -0.072332 -0.023994 -0.038627 -0.034516 
-0.18512 -0.37025 -0.0031133 0.023193 -0.06 -0.073154 -0.041257 -0.038298 
-0.10012 -0.29774 0.014315 -0.0014692 -0.059836 -0.089266 0.010697 0.03651 
-0.031064 -0.11015 0.026317 0.0056006 -0.023665 -0.01528 0.065283 0.13171 
-0.03353 0.1008 0.046375 0.027796 -0.038627 0.058871 0.1197 0.19468 
-0.050629 0.17149 0.01711 0.024344 -0.033859 0.072681 0.10622 0.1664 
0.0024767 0.10096 0.016616 0.04358 -0.03616 0.069393 0.040785 0.12727 
-0.03616 -0.001798 0.01004 -0.0014692 -0.051287 0.080738 0.049499 0.087479 
-0.17262 0.092576 0.037826 0.021713 -0.019226 0.074326 0.15357 0.12003 
-0.18643 0.24992 0.068407 0.040785 -0.023665 0.11954 0.17856 0.17939 
-0.21143 0.34479 0.1031 0.06331 -0.0040998 0.10672 0.17758 0.16837 
-0.15996 0.22345 0.10178 0.067585 -0.0022913 0.0018191 0.10113 0.072517 
0.027139 0.10359 0.078272 0.042594 -0.0047575 -0.068879 0.028125 -0.0042642 
0.08567 0.11839 0.045882 0.030098 -0.018404 -0.048163 0.0067515 0.0083956 
-0.071674 0.093398 0.042429 0.047855 -0.016266 0.015465 0.024344 -0.014293 
-0.29429 0.054925 -0.0039354 0.041772 -0.0138 0.069886 0.043087 -0.042244 
-0.47794 0.0059294 -0.053917 0.022042 -0.010676 0.10244 0.01152 -0.12955 
-0.31829 -0.10653 -0.032215 0.0059294 -0.034845 0.098166 -0.054246 -0.17262 
0.041278 -0.19383 -0.035338 -0.010676 -0.053917 0.1493 -0.060329 -0.14911 
0.27803 -0.087622 0.0018191 0.0044497 -0.06 0.22575 -0.016266 -0.026953 
0.40447 0.056898 0.045882 0.024837 -0.037805 0.2805 0.021878 0.052459 
0.29135 0.10606 0.092082 0.057391 -0.0024557 0.26242 0.02681 0.070215 
0.050979 0.018425 0.072024 0.064132 0.0024767 0.2486 0.025659 0.027796 
-0.11935 -0.087458 0.024508 0.047526 -0.0077169 0.16097 0.010533 -0.042573 
-0.28278 -0.13448 0.0054362 0.050321 -0.030077 -0.037476 0.012835 -0.052273 
-0.46429 -0.061151 0.004943 0.0067515 -0.049642 -0.17016 0.058706 0.022864 
-0.48764 0.023522 0.028454 0.02122 -0.022843 -0.24842 0.062159 0.065283 
-0.5248 0.0592 0.035195 0.0036276 -0.050793 -0.25746 0.066269 0.057884 
-0.49372 0.045224 0.037826 -0.014293 -0.060165 -0.19811 0.02122 -0.075291 
-0.29265 -0.031557 0.019905 -0.00064712 -0.062467 -0.082196 -0.049314 -0.1159 
-0.27111 -0.052437 0.021713 -0.019226 -0.066084 0.074161 -0.0040998 -0.14188 
-0.43749 0.014315 0.025001 0.0044497 -0.031886 0.22559 0.06479 -0.14911 
-0.35019 0.0065871 0.014315 0.010862 -0.045861 0.27162 0.056404 -0.1376 
0.086492 -0.076935 -0.0062372 -0.020706 -0.069208 0.18925 -0.018239 -0.061151 
0.4436 -0.13284 0.0062583 0.020727 -0.051944 0.066105 -0.060658 0.072353 
0.34281 -0.096007 0.0034632 0.015794 -0.050464 -0.0059084 -0.13415 0.058706 
0.10606 0.079094 0.016452 0.048184 -0.015938 -0.052931 -0.24053 -0.068714 
0.08156 0.20191 0.026974 0.047526 -0.021034 -0.085813 -0.20633 -0.11541 
0.24877 0.20849 0.039141 0.024837 -0.027775 -0.057863 -0.12725 -0.053588 
0.37175 0.18366 0.06183 0.014479 -0.02794 -0.049642 0.041772 0.084684 
0.28527 0.15324 0.061995 0.026317 -0.030077 -0.061973 0.21556 0.12644 
0.050486 0.10425 0.025166 0.073339 -0.00064712 -0.076277 0.35761 0.055254 
-0.17394 0.037661 0.0062583 0.055911 -0.0088678 -0.061809 0.38112 0.042429 
-0.27472 0.031907 0.0052718 -0.0014692 -0.042901 -0.046683 0.36041 0.047362 
-0.2208 0.041936 0.02122 0.031578 -0.02646 -0.0096899 0.095864 0.011355 
-0.10784 0.0088889 0.027632 0.0051074 -0.044874 -0.069372 -0.25319 -0.017417 
0.031249 -0.0060728 0.01267 -0.013143 -0.062302 -0.10061 -0.36055 -0.033859 
0.073339 -0.0080457 0.017932 0.012506 -0.064933 -0.062302 -0.28574 -0.035996 
0.11329 0.010533 0.044238 0.024508 -0.040928 -0.009361 -0.18298 -0.059014 
0.18761 0.034702 0.088958 0.054925 0.0044497 0.10063 -0.053095 -0.086471 
0.31371 0.086492 0.061172 0.04506 -0.0027845 0.24137 0.077285 -0.0070593 
0.48783 0.10425 0.05772 0.015465 -0.023336 0.31207 0.20651 0.088301 
0.66622 0.12497 0.043909 0.05213 -0.027775 0.21671 0.30352 0.14058 
0.65438 0.1419 0.021384 0.00017495 -0.054575 0.057555 0.27343 0.11937 
0.54323 0.1003 0.013328 0.0064227 -0.03057 -0.099295 0.19895 0.14667 
0.32687 0.080902 0.01974 0.028619 -0.037147 -0.1113 0.092576 0.19435 
0.14042 0.091918 0.022371 0.025001 -0.030077 0.038977 0.030098 0.22476 
0.087479 0.05213 0.063145 0.061008 -0.013965 0.16722 -0.0024557 0.16985 
0.096028 0.050979 0.075312 0.018589 -0.029913 0.19912 -0.017417 0.11592 
0.047855 0.055089 0.068571 0.0052718 -0.032708 0.10491 -0.0073881 0.089616 
-0.11919 0.00066819 0.031249 0.030427 -0.042737 -0.0095255 0.079258 0.06594 
-0.43108 -0.054739 -0.018568 0.010697 -0.047505 -0.10242 0.078272 -0.0098543 
-0.63561 -0.033859 0.0065871 0.027961 -0.043724 -0.074469 0.052787 -0.025474 
-0.24069 0.038812 0.03388 0.041772 -0.032379 0.0054362 0.085177 0.01004 
0.32851 0.13319 0.053774 0.039141 -0.019061 0.058706 0.12365 0.13319 
0.67526 0.1904 0.06331 0.021056 -0.030899 0.13845 0.14453 0.23397 
0.91481 0.16475 0.079587 0.027303 -0.028104 0.20487 0.17051 0.30993 
0.99636 0.095371 0.095699 0.072517 -0.0044286 0.23907 0.24301 0.34561 
0.779 0.076956 0.071366 0.050979 -0.0077169 0.1927 0.19616 0.26225 
0.46678 0.048513 0.021384 0.045553 -0.0095255 0.11905 0.12825 0.14519 
0.080902 0.023851 0.017274 0.080244 -0.0027845 0.085835 0.10819 0.027139 
-0.40428 0.046046 0.01415 0.027961 -0.019719 0.10869 0.11066 -0.042737 
-0.63216 0.030592 0.005765 0.027796 -0.017417 0.13598 0.12546 -0.065755 
-0.38998 0.010204 0.01004 0.020069 -0.026953 0.13384 0.13154 -0.019061 
-0.14895 0.019411 0.025166 0.024673 -0.028104 0.13516 0.11987 0.043416 
-0.32553 -0.056548 0.071531 0.082382 -0.00064712 0.11773 0.040292 0.014972 
-0.66274 -0.0503 0.074819 0.072846 0.0062583 0.034702 -0.031886 -0.06148 
-0.66307 0.011684 0.11477 0.076627 0.025659 -0.01232 -0.087458 -0.062631 
-0.12067 0.037332 0.079422 0.025824 -0.014129 0.0018191 -0.044381 0.071366 
0.41927 0.06035 0.027303 -0.010512 -0.046847 0.016123 0.012999 0.13664 
0.69943 0.068571 0.0016547 -0.0055795 -0.067728 0.0034632 -0.013143 0.16031 
0.76881 0.045224 -0.0075525 -0.029255 -0.090088 0.012013 -0.067728 0.15538 
0.56773 0.039799 0.016123 0.0036276 -0.041586 -0.025474 -0.10982 0.099481 
0.17807 0.065283 0.040621 0.017767 -0.051122 -0.091732 -0.12396 0.042923 
-0.21373 0.04506 0.031578 0.0037921 -0.052602 -0.1016 -0.15339 -0.064604 
-0.41596 0.028947 0.022371 0.055747 -0.022514 -0.14007 -0.14763 -0.12018 
-0.44637 0.047362 0.049335 0.056076 -0.0098543 -0.15585 -0.10554 -0.15766 
-0.38603 0.041607 0.048348 0.052294 0.011191 -0.11376 -0.015938 -0.10456 
-0.20123 0.016616 0.018589 0.04506 -0.0138 -0.091568 0.043416 0.030427 
-0.011005 -0.0050863 0.0019835 -0.008539 -0.038627 -0.06855 0.081889 0.11724 
0.062817 -0.013471 -0.0057439 0.026974 -0.037147 -0.069865 0.02829 0.034537 
-0.044874 -0.0019624 0.021056 0.03536 -0.027775 -0.051287 -0.01528 -0.019884 
-0.22902 0.011026 0.0090533 0.030756 -0.023665 -0.019884 0.0014903 -0.036654 
-0.36186 0.023193 0.0079024 0.050486 -0.017911 -0.0049219 -0.0034422 -0.049149 
-0.25582 0.035195 0.025988 0.041772 -0.017746 -0.016266 -0.080552 -0.052931 
0.047691 0.091589 0.053281 0.055254 -0.001798 -0.028104 -0.064111 -0.019226 
0.19977 0.076627 0.081067 0.027139 -0.019884 -0.01117 0.01563 -0.0055795 
0.15916 0.064132 0.073339 0.032729 -0.025967 0.0079024 0.088465 0.015959 
0.10704 0.052787 0.052787 0.051472 -0.029255 -0.03912 0.062817 -0.013636 
-0.044052 0.00033937 0.036675 0.020891 -0.035174 -0.16457 0.0075736 -0.043888 
-0.23724 0.038648 0.018425 0.024344 -0.023007 -0.25023 -0.031721 -0.084827 
-0.33737 0.13993 0.020562 0.0026412 -0.049971 -0.28229 -0.057699 -0.10801 
-0.21603 0.03092 0.020398 0.0054362 -0.047341 -0.24727 -0.10801 -0.085485 
-0.075291 -0.15257 0.0064227 0.035853 -0.038462 -0.20403 -0.16588 -0.066741 
-0.043066 -0.20353 -0.011663 0.010369 -0.047012 -0.19285 -0.2619 -0.067564 
-0.060165 -0.1039 0.022206 0.016616 -0.013471 -0.11755 -0.32224 -0.12807 
0.034866 -0.028433 0.031249 0.025166 -0.030406 -0.024158 -0.26502 -0.1182 
0.3096 -0.13629 -0.021034 -0.0040998 -0.045696 0.016781 -0.22589 -0.050136 
0.62495 -0.145 0.0042853 0.01415 -0.049807 0.035524 -0.10801 0.069393 
0.58976 0.12464 0.048184 -0.0088678 -0.059178 0.13664 0.004943 0.11115 
0.29037 0.36583 0.094384 0.05213 0.0024767 0.14009 0.029441 0.091096 
-0.037147 0.40578 0.062652 0.080409 0.0059294 0.098659 -0.0059084 0.010204 
-0.29051 0.2218 0.0064227 0.04654 -0.0052507 0.058706 0.065118 -0.032379 
-0.4079 0.029769 -0.017911 0.040785 -0.020212 -0.0077169 0.15193 -0.011334 
-0.42434 0.015794 -0.010512 -0.011498 -0.052109 -0.03616 0.20421 -0.039778 
-0.40839 -0.0088678 0.016452 -0.032543 -0.066741 -0.00064712 0.25058 -0.13136 
-0.37469 0.027139 0.024837 0.0092177 -0.06296 0.027139 0.26735 -0.080388 
-0.2305 0.1396 0.11148 0.025988 -0.038298 0.12562 0.26192 -0.084663 
-0.059836 0.14075 0.076463 0.047362 -0.018075 0.1368 0.26357 -0.067892 
0.17297 0.037168 0.004943 0.014808 -0.030406 0.15555 0.24137 0.012999 
0.36534 -0.0070593 0.0087245 0.024508 -0.023336 0.25091 0.22082 0.16327 
0.58072 0.041114 0.047526 0.060679 -0.014458 0.29908 0.14453 0.27277 
0.58598 0.07449 0.046375 0.012999 -0.040435 0.098659 -0.045861 0.19287 
0.30878 0.072517 0.050157 0.056404 -0.0013048 -0.043559 -0.30596 0.08863 
0.051965 0.015465 0.052952 0.055582 -0.0021268 0.063145 -0.36038 0.017932 
-0.1085 -0.056712 0.048348 0.044567 -0.0070593 0.13269 -0.24398 -0.01232 
-0.15273 -0.091568 0.018589 0.02829 -0.027775 0.11839 -0.097322 0.0062583 
-0.1085 0.00297 0.034702 0.032564 -0.025638 0.13762 0.045553 0.042594 
-0.008539 0.13286 0.038812 0.042594 0.0090533 0.085341 0.19205 0.051472 
0.16706 0.2172 0.023686 0.01267 -0.029255 0.12085 0.33788 0.094384 
0.27162 0.21227 -0.020706 -0.0503 -0.071674 0.26159 0.48553 0.18152 
0.24285 0.20503 -0.023501 -0.0090322 -0.080388 0.41976 0.53353 0.23512 
0.11773 0.12003 -0.012485 -0.033859 -0.086142 0.45018 0.48306 0.21852 
0.052294 -0.014622 0.043087 -0.013307 -0.052931 0.39164 0.37948 0.17939 
-0.08121 -0.17986 0.0592 0.013328 -0.060987 0.21062 0.16673 0.087808 
-0.18759 -0.12149 0.061666 0.017274 -0.055068 0.0064227 -0.084334 -0.057041 
-0.18298 -0.024487 0.037826 0.037826 -0.043724 -0.15224 -0.26174 -0.20814 
-0.13662 -0.052931 0.021713 0.0032988 -0.049807 -0.16342 -0.32701 -0.25993 
0.17791 -0.056219 0.0070803 0.024015 -0.025309 -0.052273 -0.29462 -0.23707 
0.36879 0.19139 0.057227 0.1128 0.015959 -0.047669 -0.25582 -0.098638 
0.34462 0.41055 0.11691 0.1105 0.033058 -0.21685 -0.30021 0.010533 
0.051636 0.28724 0.086328 0.09833 0.036346 -0.29166 -0.34164 -0.036489 
-0.10324 0.054432 0.034702 0.040128 0.0051074 -0.16769 -0.21027 0.018096 
0.11033 -0.034845 0.033387 0.0072447 -0.024652 0.02122 0.099152 0.20323 
0.41253 0.0093821 0.041278 -0.0024557 -0.049478 0.24893 0.41548 0.32128 
0.34528 0.027961 0.015301 -0.029255 -0.063124 0.49325 0.61739 0.34298 
0.032071 0.097508 0.010369 -0.0013048 -0.047012 0.60275 0.73659 0.3318 
-0.24612 0.20125 0.005765 0.02122 -0.0406 0.47023 0.77062 0.29267 
-0.29972 0.15637 0.045224 0.033222 -0.038956 0.19747 0.55293 0.16097 
-0.19268 0.049335 0.036346 0.061666 -0.032872 -0.042408 0.15242 0.013328 
0.019905 -0.01676 0.020069 0.046375 -0.025474 -0.18791 -0.22228 -0.032872 
0.22378 -0.030242 0.030427 0.053938 0.007738 -0.24217 -0.38521 0.0018191 
0.30401 -0.018404 0.044731 0.067585 0.0054362 -0.18216 -0.42697 0.020069 
0.39921 -0.079401 0.05476 0.06183 0.0093821 -0.11426 -0.27768 0.06183 
0.21835 -0.12412 0.051965 0.069558 0.0028056 -0.071181 -0.063618 0.11855 
-0.23675 -0.13284 0.027961 0.0034632 -0.032379 -0.043559 0.010533 0.049992 
-0.39195 -0.080552 0.0032988 -0.014622 -0.032215 -0.069372 -0.0087034 -0.042573 
-0.20584 -0.090417 0.010862 -0.004593 -0.058192 -0.20896 -0.053753 -0.10883 
-0.014458 -0.067235 0.00099702 -0.015444 -0.071838 -0.33786 -0.11459 -0.087786 
0.069886 0.072517 -0.009361 0.012999 -0.06148 -0.34164 -0.16309 -0.017911 
0.047526 0.19122 0.0072447 -0.033859 -0.07973 -0.25795 -0.21455 -0.043888 
-0.10472 0.19188 0.018425 -0.024158 -0.05737 -0.20436 -0.2448 -0.17246 
-0.27637 0.093398 0.044731 -0.0011404 -0.073318 -0.27472 -0.28574 -0.18726 
-0.12642 0.030756 0.088301 0.034373 -0.041586 -0.29561 -0.20682 -0.084663 
0.11658 0.079587 0.082875 0.10441 0.0082312 -0.20666 -0.17131 0.014643 
0.28626 0.12217 0.090274 0.080738 0.025824 0.057884 -0.095514 0.094384 
0.41516 0.027468 0.061172 0.032071 0.005765 0.37603 0.059528 0.13598 
0.40365 -0.068879 0.016781 0.035688 -0.012649 0.66457 0.25946 0.13845 
0.28198 -0.046683 0.011355 0.014315 -0.039942 0.64106 0.35564 0.049664 
0.18843 0.094548 -0.0060728 0.02122 -0.044052 0.36205 0.26472 -0.090088 
0.015794 0.15078 0.042265 0.017274 -0.052109 0.041936 0.23446 -0.050793 
-0.16259 0.1294 0.072353 0.033551 -0.041915 -0.21521 0.22016 0.052623 
-0.28097 0.040785 0.077943 0.040292 -0.041586 -0.31122 0.23726 0.1151 
-0.37288 0.027632 0.043251 0.046704 -0.020377 -0.25549 0.23068 0.16541 
-0.44012 0.010862 0.030592 0.041936 0.0018191 -0.22622 0.20224 0.19912 
-0.45903 -0.042079 -0.0029489 -0.00064712 -0.03764 -0.24086 0.02122 0.17117 
-0.31468 -0.020048 -0.011005 -0.01117 -0.05589 -0.21044 -0.13053 0.071695 
-0.11738 0.029605 0.0052718 0.034537 -0.046354 -0.18282 -0.36367 -0.062796 
0.025166 0.028947 0.010204 0.046868 -0.02235 -0.18939 -0.56146 -0.145 
0.051472 0.063474 0.039305 0.032564 -0.010676 -0.21767 -0.59993 -0.18216 
0.10293 0.097508 0.055582 0.012999 -0.030735 -0.17641 -0.48057 -0.19104 
0.20849 0.13171 0.075641 0.00099702 -0.042079 -0.087622 -0.26239 -0.13333 
0.3313 0.20355 0.060022 0.038977 -0.035503 -0.050629 -0.12593 -0.14615 
0.41499 0.25058 0.075805 0.035195 -0.023007 0.064461 0.088794 -0.07825 
0.35449 0.1373 0.040785 0.025659 -0.0080457 0.25222 0.47418 -0.0019624 
0.23496 -0.047505 0.0064227 0.0074092 -0.030899 0.46119 0.75911 0.10918 
0.1807 -0.10998 -0.0047575 0.0024767 -0.039449 0.61245 0.76914 0.18678 
0.087643 -0.12511 -0.036489 0.023028 -0.054246 0.40809 0.48289 0.15127 
-0.08384 -0.12593 -0.039449 -0.0026201 -0.070852 0.028619 0.1493 0.13697 
-0.15339 -0.13875 -0.0072237 0.020398 -0.0406 -0.27489 -0.10669 0.091589 
-0.24102 -0.028597 0.047362 0.062981 -0.020541 -0.3663 -0.1741 0.022042 
-0.22392 0.08567 0.054925 0.070051 0.0052718 -0.24694 -0.13497 0.030427 
-0.14895 0.12529 0.056733 0.098166 0.023851 -0.13201 -0.12823 -0.0004827 
-0.033037 0.18695 0.067749 0.045389 0.0013258 -0.19564 -0.12314 -0.042079 
0.21095 0.1761 0.078765 0.031742 -0.0067304 -0.15898 -0.087458 0.0064227 
0.35054 0.10984 0.08156 0.092411 0.012342 0.11559 0.041443 0.12003 
0.33098 0.029605 0.019905 0.076299 0.025659 0.39395 0.14305 0.17593 
0.24038 -0.041915 -0.0087034 0.032893 0.0051074 0.61081 0.14223 0.16508 
0.16031 0.016945 -0.021363 -0.023336 -0.034845 0.77522 0.027632 0.14058 
0.26472 0.080902 0.0041209 -0.012814 -0.051944 0.83014 0.086821 0.17396 
0.27491 0.078929 0.054925 0.047855 -0.036489 0.64057 0.24203 0.21769 
0.24449 0.080902 0.034537 0.035031 -0.041422 0.2052 0.21852 0.15916 
0.19862 0.049499 0.0023123 0.014479 -0.036325 -0.15092 0.089945 0.040621 
0.045389 0.050157 0.0067515 -0.00064712 -0.055726 -0.2573 0.08567 -0.073976 
-0.31714 0.053774 0.0074092 -0.045368 -0.084663 -0.28607 0.1174 -0.15964 
-0.80151 -0.001798 -0.0077169 -0.0029489 -0.08269 -0.31122 0.10589 -0.20863 
-0.9554 -0.068221 -0.026624 -0.026953 -0.084334 -0.28179 0.11115 -0.24398 
-0.59582 -0.11031 -0.001798 -0.0021268 -0.03912 -0.13464 0.048019 -0.20929 
-0.0022913 -0.081868 0.028125 0.055418 -0.015444 0.011355 -0.063453 -0.15947 
0.33213 -0.092883 0.061666 0.069229 0.004943 0.063474 -0.17575 -0.089102 
0.39329 -0.011827 0.050486 0.09833 0.011026 0.17692 -0.1284 0.090274 
0.46941 0.11888 0.064296 0.061337 0.0085601 0.25502 -0.023172 0.22526 
0.47747 0.13713 0.094548 0.082546 0.02829 0.23496 0.083697 0.21819 
0.39115 0.1396 0.076956 0.055911 -0.0029489 0.12332 0.19468 0.20668 
0.22657 0.16262 0.029769 0.005765 -0.032708 0.10639 0.22296 0.20388 
0.10162 0.1391 0.025001 0.054432 -0.01676 0.23249 0.25633 0.2759 
0.13516 0.093398 0.033715 0.032893 -0.019555 0.33114 0.16344 0.28971 
0.11428 0.013492 0.015794 0.0082312 -0.034845 0.21342 -0.18561 0.13121 
-0.0055795 -0.040928 0.0011614 -0.0050863 -0.06855 -0.0062372 -0.42401 -0.068221 
-0.19614 -0.0067304 0.023028 0.0070803 -0.059343 -0.089102 -0.41859 -0.14287 
-0.20057 0.017767 0.028454 0.05476 -0.034352 -0.15339 -0.26667 -0.13925 
-0.022514 -0.030242 0.010697 0.0021479 -0.049642 -0.17361 -0.22162 -0.20584 
0.072188 -0.062302 0.012342 0.018425 -0.040435 -0.14632 -0.092883 -0.29577 
0.044567 -0.020541 0.018754 0.010533 -0.050464 -0.072003 0.1493 -0.19318 
0.019247 0.027961 0.035195 0.0041209 -0.038956 0.055747 0.48602 -0.012814 
-0.025309 0.11033 0.039141 0.010697 -0.029748 0.18235 0.61936 0.12118 
-0.082196 0.19879 0.051472 0.010533 -0.03353 0.26751 0.54241 0.23858 
0.065447 0.16525 0.06035 0.016288 -0.032708 0.3775 0.45248 0.28823 
0.23923 0.13302 0.076792 0.06594 -0.023336 0.36238 0.32358 0.18794 
0.10556 0.10672 0.063968 0.020727 -0.03764 0.23989 0.15423 0.10014 
-0.080552 0.038812 0.049992 0.0085601 -0.017417 0.18218 0.032236 0.068736 
-0.19153 0.0060938 0.030427 0.03092 -0.030077 0.11757 -0.016595 0.046375 
-0.14846 0.019576 0.045553 0.01711 -0.041257 -0.05178 -0.12905 -0.018568 
-0.0098543 0.025659 0.014315 0.072353 -0.038956 -0.21652 -0.23576 -0.072003 
0.15801 0.064625 0.025495 0.044073 -0.030899 -0.16177 -0.14303 0.0080668 
0.28461 0.075805 0.035853 0.033058 0.0026412 -0.14977 -0.056055 0.15045 
0.29135 0.03092 0.041936 0.020891 -0.043559 -0.25302 -0.21175 0.085506 
0.16492 -0.0004827 0.053116 0.0079024 -0.05178 -0.40067 -0.42747 -0.091239 
0.027139 0.023357 0.05772 0.055911 -0.032872 -0.51148 -0.51839 -0.15289 
0.090767 0.082711 0.056404 0.023686 -0.035832 -0.54601 -0.38307 -0.11771 
0.23035 0.11526 0.054432 0.022864 -0.010512 -0.42171 -0.22836 -0.043559 
0.080902 0.13894 0.037661 0.058542 -0.0055795 -0.26552 -0.047012 -0.095514 
-0.061645 0.045882 0.04654 0.064954 0.012835 -0.1062 0.17856 -0.11935 
0.014479 0.070215 0.07449 0.10211 0.031414 0.018918 0.16146 -0.12166 
-0.019719 0.16459 0.057062 0.042923 0.0036276 0.079916 0.078107 -0.079566 
-0.25204 0.16262 0.038648 -0.001798 -0.034681 0.0098754 -0.039778 0.025166 
-0.35808 0.12809 0.030592 0.019411 -0.050793 0.024837 -0.12988 0.043087 
-0.1667 0.083368 0.027632 -0.0087034 -0.058192 0.016781 -0.1085 -0.011992 
-0.045039 -0.016431 0.0041209 -0.0047575 -0.057699 0.080738 0.070215 0.029276 
-0.074633 -0.14582 -0.068879 -0.04882 -0.088444 0.14075 0.28379 0.19254 
0.033058 -0.11623 -0.069043 -0.058521 -0.10406 0.20553 0.30253 0.36879 
0.26603 0.043745 -0.001798 0.0067515 -0.074798 0.25288 0.27491 0.41105 
0.34018 0.16804 0.067256 0.02829 -0.052766 0.1562 0.21358 0.256 
0.24515 0.19484 0.070215 0.05772 -0.012978 -0.071016 0.04506 0.010697 
0.15686 0.1567 0.071037 0.064625 -0.0042642 -0.22491 -0.020706 -0.080552 
0.12677 0.092082 0.062159 0.049828 -0.0055795 -0.17953 0.074326 -0.062302 
0.1659 -0.020048 0.041772 0.08304 0.011355 -0.049478 0.18284 0.0072447 
0.18662 -0.20929 0.045389 0.050814 -0.00031829 -0.048327 0.1858 0.028454 
0.10655 -0.13004 0.031085 0.032071 0.0028056 -0.10752 0.028454 0.011848 
-0.074962 0.1465 0.03947 0.035195 -0.019555 -0.14089 -0.26568 -0.07825 
-0.28064 0.2223 0.047691 0.056404 -0.0032777 -0.1108 -0.36252 -0.13925 
-0.38768 0.052623 0.022371 0.043087 -0.017582 -0.12741 -0.30383 -0.11278 
-0.31221 -0.0057439 0.022864 -0.020377 -0.058521 -0.20173 -0.25056 -0.088608 
-0.24398 -0.010019 -0.014951 -0.023501 -0.057041 -0.3469 -0.31139 -0.14171 
-0.1843 -0.10176 -0.013636 -0.0062372 -0.077757 -0.35036 -0.2693 -0.095185 
-0.0049219 -0.33375 0.015301 0.016616 -0.047998 -0.1843 -0.13152 -0.021199 
0.10836 -0.32882 0.047362 0.073997 -0.0087034 -0.0077169 -0.085978 -0.019719 
0.072846 -0.030899 0.046868 0.022371 -0.019061 0.14075 0.0093821 0.0056006 
0.091753 0.293 0.022042 0.0019835 -0.03616 0.24745 0.19681 0.058213 
0.256 0.37734 0.051143 0.017438 -0.047012 0.3392 0.30993 0.15949 
0.3221 0.22608 0.015794 0.022864 -0.034516 0.39296 0.35366 0.22115 
0.22378 0.18087 -0.0026201 0.023686 -0.029255 0.39329 0.32851 0.22 
0.0689 0.18892 -0.0016336 -0.0011404 -0.050464 0.341 0.2121 0.17889 
0.11346 0.14733 0.044896 0.034373 -0.030735 0.23594 0.049006 0.13187 
0.15999 0.040456 0.070544 0.098659 0.0034632 0.18152 -0.030242 0.0095465 
0.041443 -0.034845 0.090274 0.086492 0.014972 0.1197 -0.047341 -0.079895 
-0.085156 -0.07562 0.060186 0.051636 0.0095465 0.014315 -0.013471 -0.085813 
-0.18101 -0.089102 0.0070803 0.01415 -0.027611 -0.050136 0.060186 -0.049642 
-0.35381 -0.1108 -0.004593 -0.006566 -0.049149 0.011684 0.14963 0.0093821 
-0.30087 -0.09239 -0.0047575 0.033222 -0.040928 0.047197 0.16475 0.06742 
-0.059836 -0.017582 0.0034632 0.0082312 -0.043888 0.053938 0.17495 0.096193 
0.057227 0.010204 -0.013307 0.011191 -0.021692 0.084848 0.23414 0.14831 
0.10935 0.0087245 0.022371 0.034373 -0.028926 0.087972 0.16179 0.12053 
0.083368 0.017767 0.050814 0.040785 -0.018404 0.10754 0.059035 0.12151 
0.036017 0.061666 0.04095 0.031414 -0.031228 0.11296 0.078929 0.11165 
0.085835 0.094055 0.03947 -0.0026201 -0.047176 0.07597 0.05476 0.1391 
0.066927 0.096028 0.034209 0.0047785 -0.028269 0.050814 -0.0026201 0.1225 
0.053774 0.047197 0.0019835 0.030592 -0.030077 0.060679 -0.028104 0.033551 
-0.035338 -0.038627 0.014479 0.036346 -0.02235 0.11148 -0.0054151 -0.051944 
-0.066413 -0.038627 0.015137 0.057227 -0.0077169 0.2223 0.0028056 -0.074798 
0.015794 0.024015 0.05476 0.070708 0.0044497 0.24548 0.009711 -0.064604 
0.063803 0.11839 0.10639 0.076792 0.0227 0.30697 0.09685 0.025659 
0.12776 0.10228 0.08863 0.071859 0.0088889 0.27754 0.11658 0.079422 
0.090438 0.056569 0.046375 0.027468 -0.016431 0.23446 0.14897 0.071531 
0.010533 -0.033201 0.01267 0.025166 -0.032872 0.10573 0.24745 0.1197 
0.1756 -0.026789 -0.02794 -0.00064712 -0.053424 0.046375 0.23775 0.16229 
0.48602 0.087643 -0.034023 -0.01939 -0.065262 0.10244 0.23677 0.21457 
0.37734 0.19895 0.021713 0.0064227 -0.056712 0.13993 0.24828 0.18794 
-0.10209 0.22476 0.024837 0.024837 -0.042573 0.11132 0.16311 0.11855 
-0.41727 0.10047 0.027796 0.06742 -0.010841 0.028125 0.052459 0.030098 
-0.3081 -0.031721 0.024344 0.035524 -0.023829 -0.09239 -0.13547 -0.0406 
-0.004593 0.090109 0.065118 0.033551 -0.028269 -0.16786 -0.29692 -0.18265 
0.098659 0.24548 0.073504 0.042265 -0.028926 -0.19827 -0.44522 -0.3127 
-0.30185 0.14124 0.028619 0.0060938 -0.041257 -0.21537 -0.46183 -0.38044 
-0.59122 -0.0022913 0.021713 0.0036276 -0.037969 -0.15552 -0.32569 -0.3326 
-0.26535 0.027961 0.0065871 0.0082312 -0.033037 -0.075784 -0.082196 -0.08121 
0.22526 0.12891 0.03799 0.042265 -0.019226 -0.098967 0.12497 0.17971 
0.49079 0.17971 0.060515 0.081067 -0.0067304 -0.17082 0.28461 0.38934 
0.48355 0.14075 0.10162 0.05772 0.0034632 -0.013636 0.43916 0.51989 
0.55063 0.061008 0.098659 0.040292 0.015137 0.14568 0.50871 0.53255 
0.59897 0.012013 0.064132 0.012999 -0.028433 0.17117 0.34429 0.37849 
0.51084 0.01563 0.041443 -0.001798 -0.047341 0.10836 0.064954 0.13187 
0.40003 0.024508 0.028783 0.037826 -0.036325 0.18383 -0.051944 -0.042244 
0.35712 0.030098 0.049499 0.023522 -0.033694 0.2782 0.044731 -0.069043 
0.051636 0.05213 0.04095 0.043087 0.0013258 0.21885 0.0786 -0.11689 
-0.68379 -0.010841 -0.023172 -0.0052507 -0.059672 -0.020706 -0.13267 -0.32536 
-1.0397 -0.063946 -0.0503 -0.052109 -0.097158 -0.21784 -0.36893 -0.51049 
-0.78358 0.041936 -0.06148 -0.028104 -0.091075 -0.19087 -0.31747 -0.51987 
-0.43437 0.11329 -0.035338 -0.030406 -0.0868 -0.05589 -0.2254 -0.3275 
-0.18528 0.11855 0.011191 -0.0027845 -0.052931 -0.003771 -0.1062 -0.12248 
-0.22507 0.088465 0.052787 0.051308 -0.02794 0.045882 0.071531 -0.024487 
-0.38488 0.0095465 0.043745 0.059528 -0.0083746 0.030098 0.074326 0.094877 
0.055418 -0.03764 0.027468 0.081395 0.0041209 -0.095349 0.039963 0.13976 
0.58648 0.034209 0.035853 0.032729 -0.015444 -0.21554 0.036182 0.1881 
0.76059 0.067585 0.038155 0.041278 -0.014458 -0.15174 0.041278 0.21441 
0.80893 0.092411 0.058377 0.054432 -0.021034 -0.087458 0.086163 0.19698 
0.88933 0.12184 0.07301 0.010697 -0.035503 -0.015938 0.11231 0.19188 
0.69433 0.071366 0.043909 0.026152 -0.023994 0.072517 0.097837 0.092247 
0.21638 -0.011663 0.032564 0.03799 -0.015938 0.17495 0.15933 0.060186 
-0.063124 0.047033 0.030427 0.060679 -0.0011404 0.2366 0.25978 0.13483 
-0.14648 0.10836 0.0592 0.064954 -0.0087034 0.16558 0.22427 0.14617 
-0.23411 0.11214 0.054267 0.0095465 -0.041093 0.017603 0.053774 0.051801 
-0.36992 0.066598 0.027796 -0.052931 -0.068879 -0.039942 -0.052931 -0.059343 
-0.58958 0.0080668 -0.013636 -0.094527 -0.12116 -0.060165 0.028619 -0.11212 
-0.78967 -0.034845 -0.021692 -0.074633 -0.12396 -0.039942 0.18399 -0.079401 
-0.49603 -0.041422 0.011191 0.011355 -0.081703 0.015137 0.22559 -0.010019 
-0.030735 -0.089431 0.0011614 0.024344 -0.053753 -0.047176 -0.055561 -0.070359 
0.17314 -0.056712 0.04358 0.066269 0.016616 -0.071345 -0.25697 -0.036325 
0.28346 0.032564 0.060186 0.074654 0.0024767 -0.22145 -0.26798 -0.023829 
0.27507 0.0093821 0.060515 0.066269 0.0037921 -0.34509 -0.23921 -0.12511 
0.1641 1.0539e-005 0.070873 0.086492 0.012013 -0.23461 -0.028926 -0.048985 
0.067585 0.032564 0.080244 0.059364 0.011191 -0.1376 0.020069 0.14683 
0.041936 -0.0039354 0.051472 0.040292 0.017274 -0.15174 -0.22984 0.15242 
0.16262 -0.028926 0.016452 0.021713 -0.023829 -0.18528 -0.56179 -0.044217 
0.35778 -0.033694 -0.019719 -0.024816 -0.059672 -0.086964 -0.67425 -0.22524 
0.42486 -0.11278 -0.029091 0.013164 -0.05178 0.20208 -0.34329 -0.18841 
0.34692 -0.097816 -0.011005 0.0041209 -0.045203 0.38951 0.12842 -0.053917 
0.19418 0.020233 0.00297 0.035031 -0.029255 0.31848 0.48454 0.1853 
0.07597 0.16327 0.034866 0.057062 -0.028762 0.19139 0.47254 0.30187 
0.038155 0.32095 0.075641 0.028947 -0.023336 0.21704 0.22887 0.20569 
-0.14846 0.30434 0.076956 0.014479 -0.025474 0.2856 0.12908 0.10902 
-0.39162 0.19862 0.05213 -0.0034422 -0.047669 0.25962 0.17906 0.14913 
-0.51707 0.086821 0.06594 0.042265 -0.033365 0.034702 0.20043 0.11033 
-0.39064 -0.023665 0.11 0.10655 0.011191 -0.21225 0.095042 -0.041586 
-0.073154 -0.079237 0.081231 0.080409 0.011191 -0.38011 0.12118 -0.091075 
0.080244 -0.1552 0.078436 0.055911 0.0026412 -0.41661 0.19418 -0.01939 
0.15324 -0.18709 0.016123 0.025166 -0.025802 -0.37222 0.14634 0.12233 
0.33426 -0.18923 0.015301 0.028125 -0.031721 -0.23444 0.049499 0.22328 
0.40348 -0.085485 0.020562 0.066927 -0.0088678 -0.077922 -0.2111 0.14223 
0.26126 0.06035 0.034866 -0.019555 -0.053753 -0.014129 -0.38735 -0.085813 
-0.042573 0.13434 0.0034632 -0.031886 -0.051944 0.070873 -0.41744 -0.1746 
-0.14106 0.017438 -0.0052507 -0.074633 -0.095514 0.18695 -0.34772 0.015794 
0.00083261 -0.098309 -0.012649 -0.052931 -0.10291 0.18892 -0.23724 0.18728 
0.24367 -0.030406 0.0016547 0.016452 -0.073154 0.21112 -0.021034 0.15686 
0.36287 0.070215 0.014972 0.030427 -0.040928 0.27195 0.22838 0.074983 
0.41269 0.10885 0.027139 0.057884 0.010204 0.26801 0.42535 0.0070803 
0.29776 0.19106 0.033058 0.087479 0.012342 0.31996 0.5337 -0.035667 
0.13582 0.23118 0.040621 0.068571 0.01267 0.38425 0.52268 -0.016924 
-0.031557 0.23512 0.052787 0.052459 -0.008539 0.26521 0.44212 0.069393 
-0.12445 0.21621 0.053609 0.01152 -0.042573 -0.035832 0.068078 0.10359 
-0.18068 0.18366 0.058213 0.012013 -0.02235 0.053281 -0.19745 0.081889 
-0.070852 0.15604 0.065612 0.057884 -0.01939 0.20487 -0.16884 0.049335 
-0.11968 0.10491 0.077943 0.04917 -0.020048 -0.03205 -0.194 0.10408 
-0.28443 0.092247 0.059693 0.056569 -0.02498 -0.30761 -0.30037 0.13171 
-0.20847 0.070215 0.0421 0.024508 -0.034516 -0.4222 -0.29856 0.19172 
0.071037 0.061995 0.03947 0.019083 -0.034023 -0.35331 -0.074798 0.26242 
0.21243 -0.09387 0.027632 0.022864 -0.038956 -0.19909 0.12201 0.10145 
0.27442 -0.26059 -0.013965 -0.025967 -0.061151 -0.012649 0.24038 -0.089759 
0.28478 -0.24743 -0.034023 0.013986 -0.040106 0.19566 0.34561 -0.14747 
0.16525 -0.15536 -0.01117 0.032564 -0.025638 0.38836 0.47418 -0.16276 
-0.28163 -0.073976 0.0037921 0.043087 -0.013636 0.4704 0.47928 -0.13744 
-0.50375 0.055418 0.0085601 0.068078 -0.0075525 0.487 0.48388 -0.062302 
-0.36071 0.15966 0.04095 0.056404 -0.0040998 0.52416 0.475 0.0054362 
-0.084169 0.19188 0.056733 0.045553 0.00066819 0.53271 0.46415 0.12562 
0.039305 0.1784 0.037168 0.01826 -0.027447 0.42107 0.31667 0.21572 
-0.046683 0.12529 0.029276 0.010369 -0.042244 0.29563 0.15949 0.30385 
-0.24299 0.1664 0.049992 0.040128 -0.03501 0.32966 0.079916 0.37455 
-0.10258 0.26159 0.075148 0.037332 -0.025638 0.31634 0.091425 0.28724 
0.24712 0.20832 0.080573 0.039634 -0.006566 0.16015 0.10293 0.12924 
0.43439 0.13319 0.064132 0.012013 -0.05178 -0.1159 -0.068221 -0.072825 
0.23282 0.015794 -0.0078813 -0.028433 -0.083347 -0.31533 -0.37255 -0.33194 
0.0088889 -0.088444 -0.055232 0.01563 -0.060987 -0.13366 -0.29199 -0.28558 
-0.1108 -0.091075 -0.047341 0.023193 -0.029255 0.26636 0.061501 -0.054082 
-0.064933 0.018096 0.0092177 0.081067 0.049335 0.3849 0.23348 0.089287 
-0.064933 -0.0073881 0.050979 0.10606 0.030592 0.17297 0.18119 0.046375 
-0.22524 -0.1815 0.026317 0.053609 -0.0029489 -0.12725 0.024344 -0.003771 
-0.26239 -0.21586 0.012177 0.015301 -0.038133 -0.25154 -0.02646 -0.032215 
-0.18298 -0.047176 0.030756 -0.049478 -0.08269 -0.30185 -0.057534 -0.024816 
0.0039565 0.14585 0.065776 -0.010348 -0.053753 -0.21241 -0.15503 -0.078086 
0.076463 0.26209 0.083697 0.076627 -0.0078813 -0.030406 -0.24628 -0.12083 
0.16048 0.26176 0.091589 0.095371 0.021056 -0.077593 -0.27834 -0.10554 
0.27738 0.18909 0.075148 0.083862 0.01267 -0.42056 -0.26009 -0.050136 
0.28017 0.10672 0.0082312 0.012506 -0.033859 -0.69776 -0.29265 -0.037147 
0.19221 0.07597 -0.0026201 -0.0024557 -0.040435 -0.4125 -0.10752 -0.019226 
0.16821 0.10869 0.0039565 -0.0070593 -0.048163 0.046046 0.18876 0.073832 
0.23512 0.079422 0.012999 -0.03501 -0.067892 0.26274 0.39411 0.16623 
0.21868 0.010533 0.01563 0.015465 -0.035667 0.35646 0.38984 0.14026 
0.13631 0.046868 0.031249 0.050814 -0.020377 0.22345 0.090274 0.060186 
0.090109 0.074983 0.041114 0.095206 0.00050378 -0.19811 -0.3492 -0.027118 
-0.05885 -0.00031829 0.024344 0.074161 -0.0096899 -0.44489 -0.6024 -0.10817 
-0.24447 -0.040106 0.0060938 0.051636 -0.010019 -0.39195 -0.61605 -0.21866 
-0.34789 0.0046141 0.023193 0.060679 0.023357 -0.19104 -0.43832 -0.24677 
-0.30613 0.071366 0.057062 0.073339 0.022535 -0.086307 -0.18578 -0.21077 
-0.17394 0.065612 0.061666 0.010533 -0.016924 0.016616 0.063968 -0.10193 
0.051472 0.072353 0.058706 0.033387 -0.028926 0.23052 0.32423 0.074161 
0.27244 0.0090533 0.043251 0.005765 -0.038133 0.34692 0.45659 0.29924 
0.18202 -0.05885 0.02681 -0.0047575 -0.027611 0.329 0.43719 0.43735 
0.1562 -0.069043 0.016781 0.0088889 -0.057041 0.044238 0.25962 0.32588 
0.30714 -0.041586 0.009711 0.018918 -0.059343 -0.40593 -0.030077 0.17807 
0.60374 0.059693 0.0031344 0.0056006 -0.072003 -0.61884 -0.2647 0.032893 
0.57661 0.22279 0.061337 -0.027611 -0.079237 -0.62673 -0.29856 -0.057205 
0.31947 0.27162 0.069229 -0.011005 -0.051451 -0.5973 -0.26108 -0.14073 
-0.095349 0.22213 0.073504 0.040292 -0.031721 -0.53253 -0.42993 -0.26338 
-0.35233 0.16426 0.086163 0.085999 0.0095465 -0.45246 -0.78589 -0.33983 
-0.29067 0.13401 0.067585 0.11231 0.037004 -0.38505 -0.98433 -0.33408 
-0.10225 0.093398 0.081724 0.075148 0.028947 -0.17016 -0.89966 -0.30794 
-0.017746 0.042923 0.085341 0.072353 0.042758 0.10162 -0.49898 -0.19581 
-0.12971 -0.17345 0.061008 0.071695 0.014479 0.10737 0.027796 0.0079024 
-0.15964 -0.35282 -0.016595 0.010533 -0.034023 -0.17361 0.48487 0.24236 
-0.12149 -0.16539 -0.043888 -0.047669 -0.081703 -0.19038 0.83359 0.39016 
-0.0096899 0.040128 -0.057205 -0.06855 -0.10949 -0.010183 0.95476 0.52909 
0.24548 0.091425 -0.014622 -0.0057439 -0.066248 0.25025 0.81156 0.63679 
0.38194 0.066598 0.030592 0.047855 -0.034188 0.4413 0.62347 0.54751 
0.2754 0.057227 0.041278 0.051636 -0.019061 0.30319 0.39148 0.20701 
0.10967 0.036839 0.062159 0.024344 -0.028762 -0.013307 0.014479 -0.14402 
-0.031228 0.025495 0.043251 -0.024652 -0.068879 -0.096007 -0.22392 -0.43404 
-0.022843 0.075312 0.093069 -0.01117 -0.062302 0.10836 -0.16506 -0.55291 
-0.0047575 0.10639 0.077121 0.023851 -0.048163 0.16426 -0.061809 -0.39935 
-0.034023 0.063968 0.056733 0.027632 -0.040106 0.011684 -0.15552 -0.10242 
-0.13103 0.032564 0.0037921 0.022371 -0.031228 -0.25467 -0.4301 0.081889 
-0.12544 0.00066819 0.00083261 0.024179 -0.046847 -0.34953 -0.60026 0.095864 
-0.13136 0.01004 -0.0013048 0.012013 -0.029913 0.0051074 -0.39392 0.01415 
-0.20616 -0.010019 0.041278 0.070544 0.015137 0.69992 0.11691 0.12332 
-0.13448 0.0026412 0.06594 0.0324 0.0074092 1.1713 0.71784 0.42666 
0.021384 0.03799 0.085341 0.0087245 0.0064227 1.2803 1.0123 0.64073 
0.17051 0.086492 0.10556 0.043087 -0.012814 1.2741 1.0038 0.58236 
0.16015 0.092904 0.10655 0.058871 -0.011992 0.92846 0.80663 0.31552 
0.14831 0.098823 0.043909 0.06594 -0.027282 0.25617 0.47895 -0.02235 
0.14141 0.10277 -0.012156 0.017932 -0.061316 -0.35595 0.057391 -0.16983 
0.10869 0.021384 -0.035667 -0.015116 -0.056383 -0.68806 -0.23263 -0.19038 
0.13138 -0.07825 -0.024816 0.0032988 -0.065097 -0.72259 -0.37321 -0.14089 
0.17791 -0.062302 -0.0060728 0.013164 -0.048327 -0.56968 -0.4952 -0.16144 
0.1613 -0.021856 0.012013 0.04506 -0.023829 -0.30728 -0.39064 -0.25598 
-0.024158 -0.019555 0.0026412 -0.012649 -0.045039 -0.029255 -0.099131 -0.20255 
-0.34148 -0.014622 0.010369 -0.042079 -0.063618 0.26505 0.16788 -0.060658 
-0.64581 -0.059507 0.021384 0.0421 -0.030242 0.58187 0.414 0.076792 
-0.69595 -0.013471 0.039141 0.058871 0.00066819 0.81896 0.6478 0.24384 
-0.42007 -0.0054151 0.03651 0.087643 0.020069 0.82603 0.72919 0.34512 
0.074326 0.023193 0.033387 0.039305 -0.016924 0.53074 0.54126 0.32802 
0.4824 0.069558 0.060186 0.045389 -0.030406 0.064132 0.11707 0.090603 
0.62084 0.084848 0.064461 0.061337 -0.025145 -0.13021 -0.071838 -0.10209 
0.63366 0.0054362 0.048841 0.036182 -0.015938 0.099316 -0.032215 -0.048327 
0.47796 0.063474 0.022535 0.061666 0.0064227 0.35103 0.050321 0.06479 
0.23775 0.24088 0.042923 0.014315 -0.02794 0.23808 -0.083347 0.035195 
0.084026 0.26011 0.050814 -0.009361 -0.057534 0.0093821 -0.29922 0.0021479 
-0.19268 0.18465 0.020562 0.014643 -0.061316 -0.0024557 -0.35562 -0.059014 
-0.4513 0.147 0.010369 -0.0049219 -0.054904 0.1687 -0.25253 -0.14928 
-0.34575 0.0074092 0.0036276 0.0075736 -0.021363 0.30155 -0.059507 -0.042079 
-0.042079 -0.0068948 0.035524 0.010862 -0.053588 0.19912 0.17232 0.21934 
0.30187 0.074326 0.033715 0.0227 -0.044546 0.047197 0.30862 0.4071 
0.56477 0.058542 0.038648 0.10491 -0.0013048 -0.08828 0.1858 0.41253 
0.53962 -0.015938 0.016452 0.084848 0.0051074 -0.25335 -0.24283 0.11263 
0.097508 -0.04882 0.023851 0.083533 0.038155 -0.47136 -0.53894 -0.17789 
-0.50523 -0.067892 0.029441 0.063145 0.0072447 -0.55242 -0.5659 -0.31599 
-0.55357 -0.010019 0.078929 0.075805 0.025659 -0.43223 -0.28738 -0.32832 
-0.067399 0.082711 0.044731 0.068736 0.015959 -0.11656 0.20125 -0.33539 
0.53468 0.079422 0.00050378 0.018918 0.0019835 0.28494 0.81123 -0.19975 
0.80169 0.1031 0.029112 0.004943 0.004943 0.67246 1.0562 0.068242 
0.56066 0.11609 -0.016595 -0.0083746 -0.042244 0.59355 0.89409 0.34725 
-0.010183 0.059693 -0.0044286 -0.021692 -0.074469 0.23446 0.41548 0.38244 
-0.54568 0.056404 0.01004 0.036839 -0.03764 0.0083956 -0.071345 0.21013 
-0.64071 0.11198 0.049006 0.038812 -0.028762 -0.1889 -0.31139 0.10491 
-0.43355 0.14453 0.075148 0.058542 -0.017417 -0.41316 -0.27226 0.12184 
-0.27637 0.070215 0.064296 0.012835 -0.048656 -0.46988 -0.26141 0.14782 
-0.26322 0.047526 0.040456 -0.053588 -0.095678 -0.57462 -0.43865 0.042265 
-0.10719 0.069064 0.042265 0.032729 -0.055397 -0.93271 -0.82156 -0.12577 
-0.037805 0.096028 0.051472 0.08863 -0.01232 -1.096 -1.2474 -0.20255 
-0.095021 0.097179 0.0592 0.13187 0.048348 -0.93057 -1.1203 -0.14204 
-0.011498 0.053281 0.049664 0.12332 0.059364 -0.67869 -0.58695 -0.074798 
0.1733 -0.01939 0.0042853 0.028125 0.010697 -0.40741 -0.16687 -0.14517 
0.24137 -0.036489 -0.032379 -0.028104 -0.018733 0.035524 0.15949 -0.26404 
0.20421 -0.074469 -0.037147 -0.074962 -0.07266 0.54439 0.4094 -0.31402 
0.29382 -0.058028 -0.012978 -0.10752 -0.12149 0.78591 0.54932 -0.16917 
0.58565 -0.012649 0.0026412 -0.061973 -0.12938 0.75878 0.6113 0.067256 
0.58993 -0.0098543 0.0019835 -0.058521 -0.12182 0.66441 0.59371 0.21539 
0.1368 -0.036325 0.014315 -0.0072237 -0.063618 0.59371 0.50739 0.27277 
-0.1279 0.066598 0.079422 0.072846 -0.018075 0.50246 0.48947 0.24351 
-0.029584 0.15785 0.10096 0.10573 0.010862 0.09422 0.35449 -0.0050863 
0.17314 0.20027 0.10918 0.12661 0.018096 -0.44802 0.10639 -0.033037 
0.13615 0.21441 0.050157 0.069064 0.0037921 -0.58612 -0.0004827 0.19994 
-0.23494 0.21704 -0.0036066 0.017767 0.00066819 -0.62739 -0.19235 0.17955 
-0.51789 0.23381 0.020727 0.015301 -0.038462 -0.61276 -0.40527 -0.10061 
-0.40231 0.21062 0.053609 0.0021479 -0.045368 -0.47597 -0.44144 -0.14846 
-0.095021 0.090767 0.052623 0.020727 -0.047505 -0.49981 -0.4712 -0.068714 
0.2833 -0.055068 0.046046 0.0079024 -0.038791 -0.42779 -0.42072 0.045553 
0.42519 -0.18495 0.054267 0.015959 -0.029255 -0.19416 -0.15881 0.073997 
0.25041 -0.32092 -0.020048 0.0042853 -0.047505 0.044731 0.13598 -0.075127 
-0.12001 -0.30004 -0.055561 -0.04619 -0.076935 0.21145 0.45478 -0.15405 
-0.27193 -0.083347 -0.037311 0.00033937 -0.061151 0.34791 0.63679 -0.037147 
-0.25647 0.1003 0.022864 0.0051074 -0.05326 0.40184 0.53945 -0.0057439 
-0.22326 0.1664 0.044567 0.037168 -0.025802 0.52975 0.32407 0.0026412 
-0.088608 0.15999 0.06331 0.018425 -0.036983 0.61706 0.13565 0.052952 
0.28708 0.13993 0.05476 0.0088889 -0.045368 0.51643 0.093891 0.21243 
0.50673 0.085999 0.06742 0.043909 -0.017911 0.3415 0.056733 0.35827 
0.2856 0.054432 0.050321 0.051472 -0.019884 0.15752 -0.20057 0.16311 
-0.048492 -0.00081153 0.014808 0.04095 -0.019061 0.18218 -0.33786 -0.1039 
-0.10653 0.029605 0.016945 0.098823 0.01711 0.2634 -0.26601 -0.1011 
0.1835 0.1853 0.069064 0.088301 0.020069 0.14042 -0.29002 -0.026296 
0.22772 0.31223 0.08567 0.0786 0.031414 -0.029748 -0.14911 -0.065755 
-0.025967 0.17528 0.029934 0.025824 -0.019555 -0.15059 0.10869 -0.013143 
-0.092061 -0.1256 -0.031557 -0.037969 -0.065919 -0.1085 0.45725 0.045882 
-0.041422 -0.33983 -0.022021 -0.011498 -0.077264 -0.073318 0.55951 0.14733 
0.015794 -0.16555 0.0088889 -0.023007 -0.07562 0.0024767 0.41006 0.23775 
0.17511 0.15061 0.02681 0.027468 -0.0082102 0.15374 0.17314 0.34577 
0.24252 0.29546 0.090767 0.10688 0.023522 0.26406 0.029112 0.37882 
0.10408 0.23446 0.081067 0.10754 0.043745 0.27623 -0.0029489 0.22641 
-0.13168 -0.013143 0.024837 0.06594 0.0026412 0.15686 -0.047998 -0.23773 
-0.4079 -0.20847 -0.033694 -0.034352 -0.060987 0.17758 0.0083956 -0.58777 
-0.50704 -0.21159 -0.04619 -0.032708 -0.055726 0.24367 0.2366 -0.39261 
-0.2642 -0.11787 0.0036276 -0.013471 -0.080717 0.04917 0.27195 -0.031392 
0.038812 -0.010841 0.041114 0.013986 -0.059178 -0.053753 0.071366 0.14437 
0.12579 0.039799 0.064625 0.04917 -0.0090322 0.094384 -0.10653 0.16656 
0.16574 0.086163 0.030427 0.060186 0.0090533 0.44935 -0.086964 0.1932 
0.30023 0.11707 0.024344 0.04917 0.0095465 0.70551 0.072353 0.16492 
0.42403 0.082217 0.0092177 0.016616 -0.038791 0.439 0.13549 0.19698 
0.33262 0.081724 0.028947 0.029112 -0.038956 0.082053 0.13253 0.23331 
0.083204 0.11066 0.058542 0.11905 0.017603 -0.15536 0.10195 0.23677 
-0.093212 0.081724 0.076792 0.11395 0.034702 -0.34296 -0.022679 0.16919 
-0.21159 0.073175 0.076792 0.040621 0.00033937 -0.39244 -0.14434 0.0421 
-0.33145 0.050814 0.024837 0.037661 -0.0073881 -0.29626 -0.16177 -0.056712 
-0.31846 -0.0070593 0.038977 0.015465 -0.022679 -0.098144 -0.073482 -0.025309 
-0.12626 -0.0088678 0.012835 0.034209 -0.0096899 0.087479 0.041443 -0.014951 
0.10507 -0.0011404 -0.01117 -0.0064016 -0.039778 0.11658 0.058871 0.041443 
0.18596 0.028947 0.015137 0.0037921 -0.042573 0.11477 0.06594 0.16048 
0.17182 0.064296 0.039799 0.061501 -0.023994 0.16771 0.065283 0.15587 
0.14519 0.10244 0.053774 0.033551 -0.023829 0.19468 -0.078415 0.08978 
0.1276 0.074326 0.049828 0.046375 0.0037921 0.17955 -0.31501 0.0021479 
0.023522 0.0092177 0.038483 0.023522 -0.033365 -0.073811 -0.43815 -0.12034 
-0.019061 0.020891 0.037332 0.0032988 -0.054246 -0.32668 -0.46923 -0.18907 
0.022042 0.0067515 0.029769 0.02533 -0.06 -0.42763 -0.40724 -0.29248 
0.089616 -0.0073881 -0.0013048 -0.0068948 -0.063782 -0.37008 -0.2351 -0.27884 
0.068242 0.059528 0.015137 0.021384 -0.0040998 -0.13678 0.044402 -0.026953 
-0.052109 0.077449 0.033387 0.04506 -0.013307 -0.0068948 0.29859 0.16064 
-0.089595 0.076299 0.028125 0.033222 -0.014458 0.041114 0.44574 0.23792 
0.071859 0.10359 0.050814 0.070873 0.0080668 0.084519 0.56954 0.3466 
0.18909 0.080902 0.068571 0.06594 0.0070803 0.13713 0.53551 0.40332 
0.18613 0.077285 0.04917 0.041114 -0.0031133 -0.087786 0.18646 0.16031 
0.21441 0.14798 0.026646 0.027796 -0.035503 -0.35249 -0.14714 -0.13004 
0.25847 0.081231 0.0689 0.0026412 -0.048327 -0.42796 -0.31879 -0.18282 
0.2902 0.074983 0.078107 0.02122 -0.014458 -0.3839 -0.39524 -0.1039 
0.24203 0.062323 0.040128 0.0059294 -0.03353 -0.3206 -0.29643 -0.11738 
0.079751 0.037826 0.037168 -0.019555 -0.053588 -0.14714 -0.17361 -0.10702 
-0.096994 0.045553 0.033058 0.029441 -0.0406 -0.082361 -0.062796 0.049828 
-0.17213 0.08008 0.041114 0.0026412 -0.048985 -0.109 0.061501 0.19583 
-0.22162 0.095042 0.025001 0.011355 -0.035174 0.0023123 0.20569 0.26455 
-0.045532 0.088958 0.020398 0.010697 -0.032543 0.1562 0.25946 0.29168 
0.2537 0.088958 0.034044 0.042594 -0.015938 0.20142 0.2759 0.33344 
0.40414 0.053116 0.051965 0.082875 -0.0087034 0.11954 0.1904 0.31864 
0.30418 0.077778 0.086163 0.041443 -0.020377 -0.052931 -0.046519 0.17166 
0.12283 0.088301 0.058542 0.027303 -0.010183 -0.12807 -0.25532 -0.10604 
-0.020048 0.066927 0.034044 -0.010841 -0.045203 -0.065097 -0.36499 -0.47235 
-0.12609 0.065118 0.028125 0.0042853 -0.04619 -0.026131 -0.26026 -0.5317 
-0.33441 0.093233 0.024179 0.047691 -0.029255 -0.043559 -0.13366 -0.43486 
-0.37863 0.093726 0.028619 0.034702 -0.018897 0.06479 0.0039565 -0.2499 
-0.056548 0.074161 0.061172 0.054432 0.019576 0.21326 0.24022 -0.036654 
0.24121 0.065118 0.07038 0.058213 -0.0024557 0.14946 0.38293 0.049499 
0.27244 0.033387 0.04506 0.020069 -0.029091 -0.015609 0.22 0.024673 
0.14256 -0.013636 0.032071 0.056733 -0.024816 -0.28492 -0.157 -0.058521 
-0.038462 -0.00081153 0.018096 0.0095465 -0.046847 -0.4518 -0.49126 -0.15487 
-0.19367 -0.026296 -0.023501 -0.015938 -0.036489 -0.33687 -0.54666 -0.29084 
-0.28492 -0.027611 -0.029748 -0.027775 -0.065426 -0.033859 -0.352 -0.37979 
-0.26075 0.011355 0.015301 -0.014622 -0.057534 0.2611 0.12546 -0.033365 
-0.047341 0.019576 0.02681 0.041443 -0.032215 0.39345 0.63185 0.5868 
0.2999 -0.00015387 0.034702 0.0032988 -0.047505 0.37126 0.8571 0.93536 
0.40546 0.036675 0.021384 0.01563 -0.033694 0.54866 0.76289 0.75747 
0.28346 0.054267 0.025659 0.063474 -0.0083746 0.88127 0.66293 0.49342 
0.12957 0.12365 0.073175 0.067585 0.00083261 0.75845 0.42453 0.2172 
0.029276 0.18481 0.077449 0.079916 -0.0088678 0.27738 -0.025638 -0.1016 
-0.02942 0.15259 0.041443 0.028619 -0.040271 -0.26404 -0.68527 -0.33424 
-0.015938 0.10408 0.012342 0.0011614 -0.064933 -0.66833 -1.1328 -0.41579 
-0.20074 0.098166 0.01826 0.0046141 -0.070194 -0.75366 -0.94553 -0.49734 
-0.33063 0.1008 0.03536 0.019411 -0.039778 -0.48501 -0.40757 -0.46183 
-0.19597 -0.10702 0.02681 0.045224 0.0023123 -0.029748 0.15209 -0.46314 
-0.10406 -0.25088 -0.0004827 0.020233 -0.011827 0.31273 0.55195 -0.34131 
0.03799 -0.15174 -0.015444 -0.0077169 -0.03501 0.54685 0.81748 0.19353 
0.18218 0.022042 -0.0060728 0.019411 -0.040764 0.70995 0.98074 0.65323 
-0.0026201 0.00033937 0.0083956 0.019411 -0.041751 0.64435 0.64632 0.58894 
-0.31205 -0.077264 0.0075736 -0.0054151 -0.026131 0.36665 -0.13004 0.27721 
-0.29889 -0.08121 0.00066819 0.010369 -0.057205 -0.045203 -0.46002 -0.11442 
-0.047176 0.080902 0.020069 0.017603 -0.052109 -0.1917 -0.376 -0.34542 
0.065776 0.19632 0.034209 0.039963 -0.034516 0.089945 -0.23083 -0.39919 
0.091589 0.18794 0.044731 0.015959 -0.03501 0.21835 -0.13448 -0.16276 
0.11247 0.097508 0.029112 0.0087245 -0.024323 -0.0031133 -0.047012 0.047526 
0.15324 0.086821 0.040785 0.015959 -0.047505 -0.15881 -0.01676 0.030756 
0.1835 0.081724 0.041936 0.028783 -0.033694 -0.074633 -0.0064016 0.0054362 
0.23364 0.13467 0.069722 0.06742 -0.006566 0.077121 0.10326 0.068078 
0.16821 0.16541 0.068242 0.048184 -0.0082102 0.04917 0.22986 0.13894 
0.075641 0.09685 0.025659 0.042265 0.0014903 0.053281 0.2052 0.23858 
-0.025309 0.020727 0.0087245 0.045553 -0.013143 0.067585 0.15209 0.27146 
-0.11196 0.045882 0.0013258 0.044238 -0.010512 0.058542 0.10819 0.23775 
-0.12955 -0.038627 0.00099702 0.048348 -0.012978 0.0087245 0.053116 0.18942 
-0.084498 -0.25138 -0.014458 0.013492 -0.041915 -0.039778 0.026152 0.17215 
0.00099702 -0.28278 -0.0062372 0.015959 -0.040435 -0.14106 -0.039284 0.14437 
0.19205 -0.063618 0.06594 0.063474 -0.025309 -0.24677 -0.17361 0.19501 
0.33837 0.15867 0.078929 0.043745 -0.020048 -0.34608 -0.27292 0.1858 
0.30434 0.20882 0.10195 0.07038 0.012506 -0.16769 -0.1205 0.07449 
0.27853 0.13565 0.095535 0.051472 0.015301 0.25091 0.099152 -0.19219 
0.30993 0.069722 0.052459 0.039305 0.00066819 0.45642 0.24992 -0.50162 
0.25814 0.040128 -0.0050863 0.0064227 -0.03912 0.50246 0.4584 -0.49027 
0.12069 0.012506 -0.020048 -0.044546 -0.070852 0.70337 0.69729 -0.22918 
-0.09798 0.055418 -0.01528 0.017274 -0.035503 0.7938 0.64353 0.027303 
-0.1672 0.19369 0.026481 0.048348 -0.029584 0.39247 0.36961 0.24992 
-0.25039 0.15242 0.046211 0.032236 -0.047998 -0.23346 0.10902 0.37208 
-0.35299 0.034373 0.045553 0.039305 -0.053424 -0.59878 -0.013307 0.40414 
-0.40363 -0.035832 0.038319 0.0062583 -0.055726 -0.60914 -0.090088 0.39378 
-0.31451 -0.057863 0.0324 -0.0050863 -0.025145 -0.36137 -0.017582 0.26126 
-0.08828 -0.059836 0.016452 -0.0022913 -0.047176 -0.12429 0.018425 0.21704 
0.024179 -0.02794 0.011848 0.0069159 -0.033201 0.12891 -0.074469 0.14864 
0.10507 -0.0090322 0.017932 0.068407 -0.008539 0.23167 -0.20764 -0.063782 
0.34117 0.049335 0.037497 0.048841 -0.014622 0.12842 -0.25023 -0.12133 
0.4265 0.099316 0.047197 0.044402 0.0069159 -0.014951 -0.17969 -0.045368 
0.27409 0.041607 0.052459 0.073339 0.00050378 -0.17525 -0.10078 0.017932 
0.1881 -0.0024557 0.034866 0.041772 -0.016266 -0.36121 -0.11656 0.011848 
0.31914 0.044402 0.014479 0.034537 -0.035174 -0.45065 -0.14336 -0.077922 
0.31799 0.081889 0.028454 -0.012156 -0.053917 -0.36959 -0.044052 -0.081045 
0.081067 0.10589 0.053609 0.004943 -0.022514 -0.15191 0.12316 -0.082196 
-0.16654 0.14042 0.057555 0.045882 -0.021363 -0.061645 0.17149 -0.14599 
-0.28031 0.068242 0.06183 0.0082312 -0.033201 -0.015116 0.24121 -0.055068 
-0.23642 0.018096 0.0060938 0.018096 -0.034845 0.16031 0.30237 0.13039 
-0.097322 0.04506 -0.0039354 0.0023123 -0.038298 0.39822 0.31684 0.22559 
0.029769 0.06183 0.033387 0.051636 -0.0049219 0.58943 0.40184 0.35695 
0.033551 0.061008 0.059857 0.052787 -0.010841 0.65093 0.46119 0.4436 
-0.062302 0.029276 0.031578 0.026152 -0.027282 0.5651 0.28214 0.25732 
-0.18578 -0.0060728 0.033715 0.036839 -0.023994 0.38984 -0.052766 -0.024158 
-0.063782 -0.030735 0.041772 0.0026412 -0.05326 0.15242 -0.32158 -0.21817 
0.13516 0.035195 0.030592 -0.0096899 -0.067892 -0.095349 -0.39836 -0.12166 
0.26784 0.054103 0.022535 0.013164 -0.067892 -0.25713 -0.34855 0.1442 
0.22213 0.047691 0.018096 0.024837 -0.045532 -0.21882 -0.24842 0.21227 
0.091589 0.091589 0.012177 0.047855 -0.012485 -0.18232 -0.19054 0.12398 
-0.031557 0.13401 0.027796 0.041607 -0.016924 -0.17065 -0.16473 0.046211 
-0.075784 0.078929 0.04095 0.049828 -0.010019 -0.18874 -0.12281 -0.11903 
-0.0040998 0.063145 0.046211 0.073997 -0.0026201 -0.22787 -0.10291 -0.24875 
0.049992 0.079751 0.059035 0.049335 -0.01117 -0.30004 -0.028269 -0.13234 
0.047855 0.074161 0.055747 0.030427 0.00099702 -0.33638 0.074161 0.0324 
0.027468 0.039634 0.05213 0.0021479 -0.039942 -0.28623 0.21112 0.054925 
-0.0016336 0.0046141 0.019083 0.0072447 -0.03912 -0.17147 0.19172 -0.064768 
-0.14698 -0.037805 0.018589 0.023686 -0.040764 -0.14369 -0.1598 -0.1455 
-0.31533 -0.035667 0.01004 0.0026412 -0.052109 -0.14928 -0.49685 -0.017417 
-0.34361 -0.0013048 0.026646 -0.0062372 -0.030242 -0.049314 -0.53598 0.1003 
-0.14961 0.014315 0.032564 0.025824 -0.034188 0.0051074 -0.38636 0.14585 
0.021713 0.086492 0.028947 0.028947 -0.03205 0.074326 -0.13908 0.0026412 
0.21901 0.19188 0.068736 0.074161 -0.0036066 0.19303 0.11576 -0.182 
0.50493 0.2218 0.087479 0.067749 0.017932 0.37076 0.37948 -0.17427 
0.46875 0.14437 0.094877 0.041443 0.022535 0.44689 0.47599 -0.19729 
0.2246 0.042429 0.02681 0.015137 -0.039613 0.29612 0.45034 -0.2379 
0.17199 -0.02235 0.024508 0.00099702 -0.053588 0.14782 0.48109 -0.10045 
0.23151 0.019083 0.0067515 0.025824 -0.05178 0.13647 0.51907 0.20323 
0.23151 0.05476 -0.012485 0.012835 -0.043724 0.19353 0.37537 0.39411 
0.183 0.088958 0.015794 0.04358 -0.02942 -0.0040998 -0.091404 0.33558 
0.18613 0.10293 0.05065 0.054432 -0.02942 -0.27719 -0.47662 0.21474 
0.075148 0.08156 0.058049 0.029112 -0.031064 -0.39984 -0.51017 0.12875 
-0.11015 -0.042244 0.056076 0.016945 -0.031721 -0.3788 -0.39935 -0.018075 
-0.2185 -0.12166 0.062652 0.019411 -0.034845 -0.25204 -0.28952 -0.08532 
-0.23099 -0.094692 0.065447 0.016781 -0.032872 -0.069536 -0.046519 -0.065919 
-0.35956 -0.071181 0.017603 0.032893 -0.026131 0.3216 0.27228 0.063474 
-0.54519 -0.01117 -0.021034 0.016945 -0.027282 0.51512 0.34133 -0.079237 
-0.67293 0.085506 -0.02646 0.054267 -0.020706 0.29809 0.20339 -0.32405 
-0.37304 0.10178 -0.017911 0.03388 -0.040106 -0.28689 -0.16029 -0.37715 
0.24236 0.18547 0.043909 0.0046141 -0.063453 -0.75662 -0.52167 -0.23148 
0.71982 0.28609 0.043745 0.039963 -0.04471 -0.90278 -0.64877 -0.16818 
0.62774 0.26389 0.075476 0.028125 -0.025967 -0.53384 -0.41382 -0.047341 
0.32506 0.17117 0.1026 0.049006 0.018754 -0.032379 -0.11031 0.083533 
0.21835 0.047855 0.10902 0.041607 0.00083261 0.12135 -0.0021268 0.14338 
0.32571 -0.055232 0.063803 0.021549 -0.025474 0.066763 0.020233 0.28264 
0.35827 -0.096665 0.028783 0.027139 -0.03057 -0.0032777 0.14519 0.29563 
0.062159 -0.12971 -0.006566 -0.0016336 -0.047012 0.095699 0.37537 0.036017 
-0.34493 -0.10932 -0.017253 -0.0087034 -0.03205 0.39132 0.62544 -0.10998 
-0.33326 -0.0027845 -0.028597 0.012835 -0.037805 0.69861 0.85217 -0.019719 
-0.13103 0.066598 -0.050464 -0.021199 -0.055068 0.92435 0.91366 0.15686 
0.011684 0.10293 -0.029091 0.0039565 -0.056383 1.0879 0.84691 0.45511 
0.078272 0.15078 0.027796 0.018096 -0.046025 1.1151 0.536 0.57694 
0.03947 0.07449 0.042758 0.016945 -0.03205 0.75188 0.12825 0.31864 
-0.13053 -0.048163 0.060679 0.037826 -0.050958 0.19616 -0.16227 -0.16654 
-0.21274 -0.095678 0.066763 0.047691 -0.038133 -0.20534 -0.25105 -0.47235 
-0.13021 0.0087245 0.096357 0.10606 -0.0072237 -0.46972 -0.18824 -0.41267 
-0.0072237 0.065612 0.08156 0.050814 -0.014458 -0.56771 -0.2009 -0.18512 
-0.057534 0.045389 0.021713 0.034373 -0.011827 -0.5904 -0.31451 -0.12264 
-0.15141 0.024837 -0.029748 0.00066819 -0.049642 -0.59533 -0.4273 -0.04619 
0.029605 0.066763 -0.032543 -0.023007 -0.065262 -0.61259 -0.54321 0.2103 
0.31305 0.15571 0.0056006 0.046211 -0.027611 -0.51855 -0.80463 0.32506 
0.27475 0.2246 0.061008 0.059693 -0.0029489 -0.37518 -0.84195 0.060186 
-0.0049219 0.17643 0.09833 0.089123 0.029441 -0.10489 -0.7461 -0.33868 
-0.079401 0.11921 0.093726 0.086821 0.03799 0.16969 -0.32882 -0.38044 
-0.048163 0.078929 0.068736 0.0421 0.0092177 0.35268 0.36139 -0.23444 
-0.10719 -0.057534 0.034866 0.0026412 -0.030406 0.41499 0.84691 -0.02794 
-0.035503 -0.11163 -0.017088 -0.056712 -0.078579 0.48092 1.0643 0.096686 
0.10392 -0.069208 -0.066741 -0.066577 -0.10439 0.49523 1.1812 0.31996 
0.14321 -0.018733 -0.088444 -0.059343 -0.12889 0.38869 0.96989 0.4875 
0.15176 0.01415 -0.024487 -0.0068948 -0.087951 0.37833 0.60292 0.63037 
0.17001 0.0026412 0.076299 0.10129 0.0079024 0.25863 0.3512 0.63416 
0.12184 -0.041586 0.12809 0.11313 0.029605 0.16738 -0.034516 0.32276 
-0.073976 -0.14566 0.086657 0.056733 0.0041209 0.11263 -0.46462 -0.02794 
-0.15536 -0.041915 0.02533 0.064954 -0.013143 -0.017582 -0.77109 -0.32306 
0.045389 0.15801 0.0227 -0.0031133 -0.052602 -0.16144 -0.7724 -0.28327 
0.19221 0.22361 -0.020541 -0.038791 -0.050136 -0.19844 -0.4347 -0.11475 
0.053116 0.18054 -0.029255 -0.02794 -0.073154 -0.0091966 0.070708 -0.15174 
-0.078744 0.15752 0.0060938 -0.011334 -0.061645 0.25913 0.44393 -0.096829 
-0.1353 0.21704 0.067256 0.10606 0.0059294 0.43817 0.56165 0.062323 
-0.085649 0.16919 0.10869 0.11313 0.034866 0.38392 0.40019 0.12036 
0.0098754 -0.017253 0.088958 0.083204 0.044896 0.14683 0.14223 0.014479 
0.069886 -0.19614 0.02533 0.026974 -0.0044286 -0.18627 -0.10045 -0.25368 
0.11017 -0.15733 -0.0082102 -0.0049219 -0.054904 -0.53466 -0.3742 -0.27226 
0.20734 -0.022185 0.011684 0.023522 -0.051451 -0.77602 -0.5003 -0.1376 
0.24088 0.088301 0.031907 0.018589 -0.042573 -0.72324 -0.35874 0.018589 
0.13993 0.14404 0.049828 0.026974 -0.016595 -0.303 -0.009361 0.24482 
0.0070803 0.22542 0.069886 0.042594 -0.012814 0.11806 0.2006 0.35235 
-0.0044286 0.20717 0.034373 -0.0032777 -0.036654 0.26439 0.27129 0.35827 
0.057884 0.084026 0.023357 0.025495 -0.031228 0.26307 0.21917 0.293 
0.019576 -0.068386 0.022206 -0.028597 -0.063453 0.14321 0.12085 0.13417 
-0.19104 -0.10127 0.028619 -0.014622 -0.075127 -0.050958 -0.16095 -0.058028 
-0.32125 -0.13875 0.0039565 0.0092177 -0.076935 -0.25384 -0.3788 -0.10061 
-0.10373 -0.15651 -0.0040998 0.0051074 -0.063453 -0.3936 -0.37403 -0.052602 
0.22328 -0.067564 0.0227 0.04506 -0.020048 -0.28919 -0.13053 0.062817 
0.36402 0.06035 0.054596 0.044567 -0.0075525 -0.10357 0.24548 0.091753 
0.39641 0.16442 0.07038 0.083862 0.023851 0.11296 0.52762 0.090767 
0.3244 0.24877 0.085835 0.094713 0.028947 0.30253 0.70765 0.17084 
0.12447 0.27261 0.060515 0.065283 0.021549 0.5388 0.71423 0.22065 
-0.11409 0.14174 0.055582 0.057555 0.025824 0.60111 0.4681 0.20208 
-0.052931 0.012506 0.070215 0.055089 -0.010019 0.39049 0.10376 0.11263 
0.19813 -0.015938 0.058706 0.025166 -0.037147 -0.0029489 -0.23625 -0.041915 
0.24055 -0.034023 0.041607 0.048677 -0.040271 -0.33326 -0.40001 -0.11557 
0.11115 -0.1501 -0.023007 0.013328 -0.047341 -0.43289 -0.34345 0.067749 
-0.075784 -0.33161 -0.053095 -0.019884 -0.039778 -0.36071 -0.15848 0.27623 
-0.23346 -0.35923 -0.061973 -0.0406 -0.080881 -0.27555 -0.00064712 0.42814 
0.078107 -0.037147 0.017767 -0.03616 -0.084005 -0.11376 0.010862 0.51874 
0.3752 0.42979 0.068736 0.032564 -0.044874 0.1613 -0.11459 0.20734 
0.26998 0.62265 0.065612 0.032729 -0.028104 0.33657 -0.17016 -0.33737 
-0.043559 0.4949 0.046046 0.015959 -0.014293 0.35827 -0.12642 -0.75563 
-0.1524 0.27425 0.056404 0.05624 -0.017746 0.26439 -0.038791 -0.65189 
-0.067892 0.058049 0.08008 0.07449 -0.0052507 0.0064227 0.015301 -0.32553 
-0.11705 -0.093376 0.053445 0.11115 0.020891 -0.20814 0.0056006 -0.097651 
-0.46446 -0.13629 0.038155 0.05476 0.00017495 -0.35331 0.044402 0.13351 
-0.68707 -0.18643 0.0088889 0.013492 -0.021199 -0.36449 0.15571 0.22246 
-0.47317 -0.22754 -0.011992 0.014808 -0.042408 -0.26765 0.10754 0.16114 
-0.044546 -0.13004 0.010533 -0.0067304 -0.052766 -0.10916 0.013986 0.071037 
0.19024 0.0036276 -0.014787 -0.0042642 -0.051287 0.13138 -0.032708 -0.067399 
0.27968 0.036675 0.030592 -0.020048 -0.055397 0.4533 0.0324 -0.080388 
0.30105 0.075476 0.044567 0.028125 -0.023665 0.84165 0.092247 0.0028056 
0.36008 0.14963 0.068571 0.059035 -0.00097594 0.83096 0.01004 0.16081 
0.47023 0.12513 0.058213 0.056569 -0.023994 0.3341 -0.18117 0.23298 
0.43916 0.12842 0.08304 0.071366 -0.018568 -0.22211 -0.26453 0.40907 
0.3313 0.093726 0.045718 0.039963 -0.028926 -0.46133 -0.2282 0.47155 
0.25502 0.029276 0.032564 0.021878 -0.03205 -0.50211 -0.20123 0.2856 
0.10819 -0.00031829 -0.0022913 0.032071 -0.038133 -0.36762 -0.12182 -0.13464 
-0.16342 0.078272 0.0095465 0.029769 -0.021199 -0.082032 0.15111 -0.50869 
-0.34888 0.073832 0.026317 0.034209 0.015301 0.33903 0.46201 -0.47761 
-0.30514 -0.042901 0.021549 0.027632 -0.015773 0.47862 0.52383 -0.22441 
-0.33802 -0.10932 -0.0042642 -0.0050863 -0.047012 0.41499 0.44261 -0.19614 
-0.42878 -0.036654 0.0069159 0.022864 -0.046519 0.36797 0.22904 -0.31139 
-0.29988 0.11362 0.030592 0.038155 -0.03501 0.17971 0.014479 -0.17871 
0.038977 0.19533 0.03947 0.034537 -0.010512 -0.07266 -0.20567 0.080902 
0.28593 0.19632 0.035853 0.030592 -0.032543 -0.18824 -0.34986 0.11395 
0.32144 0.19402 0.061337 0.022535 -0.030406 -0.094856 -0.21126 0.17396 
0.18169 0.14223 0.078107 0.045553 -0.023994 0.020891 -0.040106 0.16656 
-0.082032 -0.055726 0.050157 0.0041209 -0.046025 -0.075455 0.01563 0.025988 
-0.17443 -0.15832 0.018096 -0.014787 -0.056055 -0.13053 0.068407 -0.050629 
-0.080881 -0.10225 0.021384 0.013657 -0.046025 0.077285 0.14321 0.064132 
-0.14254 -0.066084 0.014315 -0.0024557 -0.045203 0.31371 0.27507 0.17281 
-0.19597 0.01974 -0.0055795 0.01415 -0.046025 0.31634 0.29004 0.18744 
0.054925 0.14601 0.0072447 0.011355 -0.052766 0.12513 0.14617 0.22953 
0.2833 0.16903 0.054432 0.052623 -0.030735 -0.19696 -0.13086 0.061008 
0.1858 0.11477 0.066105 0.090767 -0.01232 -0.49586 -0.4467 -0.14254 
-0.019061 0.047691 0.045553 0.054925 -0.013307 -0.5756 -0.66669 -0.26864 
-0.05589 0.0062583 0.040785 0.047691 0.0031344 -0.44243 -0.67573 -0.31024 
0.033551 0.071695 0.04654 0.037332 -0.00064712 -0.080223 -0.26387 -0.24299 
0.16344 0.1368 0.065283 0.030263 -0.0029489 0.31092 0.14897 -0.2305 
0.22822 0.093069 0.051308 0.035688 -0.026131 0.366 0.33624 -0.1011 
0.21885 0.0088889 0.01974 -0.014458 -0.057863 0.25946 0.41433 0.025166 
0.11526 -0.021856 -0.012485 -0.034845 -0.060987 0.26981 0.67953 0.19402 
0.10129 -0.04619 -0.0024557 -0.0039354 -0.06444 0.28856 0.78887 0.49325 
0.13516 0.028947 0.041936 0.029276 -0.041915 0.25896 0.73543 0.63646 
0.10458 0.095206 0.053609 0.05624 -0.02942 0.25617 0.60949 0.54077 
0.011191 0.075805 0.043251 0.031742 -0.027118 0.30385 0.3512 0.30993 
-0.08828 0.021549 0.024673 0.015959 -0.023665 0.19057 0.020398 0.043745 
-0.14517 0.04654 0.039963 0.012835 -0.052931 -0.061809 -0.23411 -0.076277 
-0.18709 0.032071 0.079587 0.03947 -0.038627 -0.22721 -0.36515 -0.16424 
-0.017088 0.04506 0.0324 0.053938 -0.016102 -0.16259 -0.30218 -0.14418 
0.21424 0.088794 0.018918 0.038319 -0.022843 -0.15914 -0.16292 -0.062302 
0.2417 0.086821 0.027468 0.024179 -0.011498 -0.1838 -0.10357 0.028125 
0.14568 0.094055 0.060679 0.047691 -0.017746 -0.28262 -0.047834 0.13302 
0.036675 0.059693 0.028947 0.022206 -0.02646 -0.29856 0.031085 0.18925 
-0.075455 0.033715 0.037497 0.066105 -0.014622 -0.16654 0.10376 0.16837 
-0.17509 0.046046 0.033715 0.013492 -0.02942 -0.055561 0.12233 0.097179 
-0.20863 0.063803 0.038483 0.023686 -0.030406 0.050979 0.088301 -0.026789 
-0.15635 0.020727 0.049992 0.036675 -0.032215 0.14733 0.057884 -0.19038 
0.060844 0.0062583 0.04095 0.025659 -0.027447 0.26488 0.26537 -0.085485 
0.36221 0.076463 0.046211 0.042758 -0.008539 0.32128 0.4972 0.12316 
0.49112 0.10293 0.049664 0.04095 -0.02235 0.21095 0.42683 0.13664 
0.41729 0.088465 0.027139 0.016452 -0.041422 -0.025309 0.15028 0.090603 
0.21523 0.056076 -0.012978 0.01415 -0.062302 -0.25746 -0.16769 0.076134 
0.10129 0.020727 -0.0021268 -0.013143 -0.06855 -0.26075 -0.29445 0.15226 
0.082053 0.0083956 0.0087245 0.030756 -0.030077 -0.22096 -0.30103 0.19632 
0.013492 -0.017746 0.025166 0.035524 -0.022679 -0.14434 -0.36466 0.13927 
-0.20616 -0.043395 0.046211 0.051965 -0.003771 0.063968 -0.32849 0.10754 
-0.49192 -0.04323 0.063803 0.063968 -0.0016336 0.15916 -0.19087 0.0074092 
-0.4125 -0.047998 0.062488 0.03651 -0.017582 0.21276 -0.027118 0.10178 
-0.13267 -0.0080457 0.04095 0.036346 0.00297 0.17643 0.14864 0.17199 
0.07301 0.017438 0.01563 0.061501 -0.0060728 0.080244 0.1858 -0.022021 
0.15423 0.052459 0.0098754 0.00083261 -0.04323 -0.068057 0.11148 -0.35595 
0.17265 0.11954 -0.0070593 0.013492 -0.052931 -0.11179 -0.078086 -0.61539 
0.17117 0.16245 -0.0138 -0.0060728 -0.054739 0.018589 -0.21866 -0.57346 
0.071531 0.2195 -0.003771 0.013492 -0.021856 0.12546 -0.19926 -0.2596 
0.026317 0.19385 0.019247 0.04917 -0.024652 0.0026412 -0.17262 0.056898 
-0.038298 0.044731 0.051308 0.040128 -0.025145 -0.25088 -0.11656 0.19846 
-0.21438 -0.009361 0.078436 0.086328 -0.0022913 -0.34476 -0.004593 0.31207 
-0.067399 -0.076113 0.029605 0.053938 -0.0004827 -0.22376 0.023522 0.36632 
0.20783 -0.14369 0.024673 0.048184 0.0047785 -0.066577 0.023686 0.37405 
0.24992 -0.10587 0.049006 0.059693 -0.0044286 -0.021692 -0.025474 0.23331 
0.16936 -0.010019 0.03799 0.033387 -0.015609 0.013657 -0.12067 0.020891 
0.059035 0.065283 0.03947 0.059364 -0.0039354 0.033058 -0.16523 -0.25598 
0.055582 0.10655 0.028783 0.030756 -0.015938 0.040292 -0.15092 -0.2277 
0.026974 0.13861 0.025824 0.0075736 -0.032543 0.12809 -0.028104 -0.17558 
-0.30021 0.068736 0.042265 0.014972 -0.043066 0.29727 0.090931 -0.2009 
-0.41924 -0.00064712 0.041772 0.036346 -0.025802 0.29316 0.17363 -0.12412 
0.01826 0.019083 0.012013 0.023193 -0.021528 0.10047 0.1128 -0.026953 
0.26307 0.014315 -0.047012 0.027468 -0.044052 -0.090417 -0.075455 -0.11179 
-0.003771 -0.030406 -0.020212 -0.013471 -0.063453 -0.11113 -0.070852 -0.19909 
-0.20995 0.02681 0.0013258 -0.0014692 -0.066248 0.037826 0.034044 0.046046 
-0.10209 0.066434 0.012506 -0.017746 -0.072003 0.11674 -0.024323 0.24137 
0.011191 0.10359 0.029769 0.0032988 -0.044052 0.077285 -0.21685 0.16245 
0.21605 0.066105 0.012999 -0.02087 -0.078086 -0.14352 -0.45673 -0.02942 
0.31799 -0.017253 0.015301 -0.038627 -0.099131 -0.39475 -0.5225 -0.16703 
0.39115 -0.044217 0.049664 0.060515 -0.044381 -0.4513 -0.3885 -0.13037 
0.43949 0.026481 0.071202 0.060186 -0.018733 -0.25467 -0.059507 0.010369 
0.21424 0.047691 0.065612 0.047855 0.023686 0.088958 0.28773 0.032564 
-0.071674 0.096521 0.083697 0.085177 0.036346 0.46645 0.55047 0.080409 
-0.15848 0.15686 0.10606 0.091589 0.039141 0.536 0.67855 0.15883 
-0.39869 0.11937 0.084519 0.11247 0.024015 0.28658 0.5143 0.030756 
-0.4393 0.009711 0.045224 0.023028 -0.025474 -0.068714 0.15357 -0.083183 
-0.15651 -0.059672 0.0087245 -0.042408 -0.070523 -0.26519 -0.041751 -0.11228 
0.099316 -0.069701 -0.0078813 -0.021199 -0.078744 -0.17756 -0.035667 0.0024767 
0.26768 0.0026412 0.017932 0.0036276 -0.051615 -0.021199 0.11313 0.26784 
0.35087 0.12891 0.034537 0.041607 -0.027282 0.11872 0.21424 0.42551 
0.30779 0.19632 0.042758 0.036017 -0.018075 0.27968 0.10951 0.46464 
0.20471 0.23233 0.030098 0.023522 -0.02235 0.34495 -0.017746 0.29546 
0.019905 0.21309 0.03092 0.019576 -0.039778 0.33065 -0.027447 0.013328 
-0.097651 0.11 -0.023336 -0.035996 -0.07825 0.19106 0.010862 -0.019719 
-0.13432 -0.05737 -0.035667 -0.025309 -0.067235 0.018754 0.18646 -0.041915 
-0.22392 -0.24414 -0.025638 -0.0064016 -0.064933 -0.051122 0.30483 -0.23609 
-0.16375 -0.24842 0.01004 0.032071 -0.036489 -0.017253 0.35169 -0.1912 
-0.042244 -0.0073881 0.065118 0.063803 -0.02235 0.0046141 0.3198 0.024673 
0.099974 0.24219 0.10852 0.068736 0.0067515 0.086492 0.19418 0.2366 
0.34331 0.24729 0.12924 0.080738 0.046375 0.22657 0.32982 0.53896 
0.50657 0.10967 0.10704 0.057227 0.021549 0.27376 0.51315 0.66013 
0.4117 -0.064604 0.045224 0.024344 -0.01528 0.15999 0.33525 0.33969 
0.34807 0.0016547 0.032071 0.047855 -0.025802 0.087808 0.0032988 0.079094 
0.25222 0.17511 0.028454 0.015959 -0.041751 -0.0070593 -0.3127 -0.27851 
0.070873 0.19747 0.026974 0.0014903 -0.036818 -0.061809 -0.41859 -0.42155 
-0.13875 0.10918 0.014972 -0.056219 -0.091239 -0.022514 -0.23494 -0.25056 
-0.24891 -0.0082102 0.01711 -0.063946 -0.1039 0.053774 0.05772 0.09833 
-0.17953 -0.063618 0.0042853 0.0067515 -0.074962 0.077449 0.11 0.017767 
-0.18331 -0.10538 0.03388 0.040128 -0.040764 -0.022021 0.049664 -0.25713 
-0.33046 -0.12001 0.017603 0.066434 0.00099702 -0.13168 0.12579 -0.13432 
-0.42171 -0.080223 0.015794 0.085506 0.0072447 -0.10653 0.13088 0.21753 
-0.28558 0.012506 0.05624 0.079094 0.023028 0.06479 0.02533 0.32226 
0.087479 0.12792 0.10721 0.098659 0.012177 0.12299 -0.027282 0.26685 
0.30927 0.21326 0.054267 0.03799 -0.014622 -0.049478 -0.12001 0.08567 
0.25452 0.18465 0.020727 -0.0016336 -0.057041 -0.22376 -0.14846 -0.060165 
0.033222 0.11477 0.0051074 -0.0082102 -0.074304 -0.19909 0.076792 -0.066906 
-0.079072 0.082217 0.031578 0.020891 -0.038791 0.014972 0.2463 0.04358 
-0.049971 0.1128 0.058377 0.048348 -0.0049219 0.20553 0.2149 0.147 
0.099316 0.15587 0.071202 0.022206 -0.02498 0.17593 -0.0014692 0.12973 
0.12316 0.13976 0.050157 0.010862 -0.042901 -0.0075525 -0.18643 -0.01117 
0.16031 0.060186 0.050157 0.060186 -0.018897 0.09685 -0.072003 -0.031886 
0.26291 -0.015773 0.033551 0.037497 -0.014458 0.32736 0.15883 0.045224 
0.49407 -0.037311 0.013492 0.034044 0.00083261 0.43538 0.34742 0.0592 
0.49309 -0.094034 0.0044497 0.032071 -0.017746 0.42486 0.47566 0.19862 
0.12332 -0.133 0.00083261 0.023686 -0.026953 0.53584 0.62199 0.37224 
-0.17953 -0.12429 0.036675 0.076792 -0.00015387 0.61558 0.66901 0.40825 
-0.39869 -0.03501 0.067913 0.08567 0.0069159 0.30204 0.29102 0.13417 
-0.61802 0.05476 0.050814 0.014315 -0.032215 -0.42138 -0.64334 -0.42418 
-0.80381 0.094055 -0.001798 -0.020377 -0.098802 -1.0818 -1.5154 -1.1193 
-0.57823 0.10688 -0.024158 -0.037969 -0.097651 -1.1435 -1.6247 -1.1356 
0.13253 0.12825 0.03092 0.052787 -0.030899 -0.71634 -0.97973 -0.44243 
0.71801 0.13746 0.040785 0.060186 0.0074092 -0.23296 -0.083512 0.29842 
0.80926 0.13532 0.06035 0.084848 0.057555 0.091589 0.58269 0.60094 
0.46793 0.081724 0.037004 0.048184 0.016123 0.305 0.90544 0.62265 
-0.10867 0.060022 0.022371 -0.016595 -0.042244 0.30056 0.816 0.41368 
-0.47564 0.082217 0.044073 0.014479 -0.054904 0.22756 0.49194 0.032564 
-0.4393 0.066763 0.060022 0.014479 -0.048656 0.28609 0.052952 -0.23642 
-0.12494 0.037332 0.052952 0.040456 -0.011992 0.46152 -0.20551 -0.22441 
0.28642 -0.038627 0.015465 0.085341 0.0062583 0.54981 -0.21998 -0.10752 
0.46662 -0.1672 0.009711 0.054103 -0.0040998 0.42371 -0.11722 0.016123 
0.38836 -0.12067 -0.018404 0.025988 -0.031392 0.093891 -0.086142 0.052623 
0.18399 -0.0054151 1.0539e-005 -0.017417 -0.06707 -0.1524 -0.13086 0.045718 
0.0085601 0.045553 -0.0029489 -0.034681 -0.082525 -0.19942 -0.11163 0.13467 
-0.1381 0.029276 0.0024767 -0.026953 -0.093705 -0.22737 -0.062467 0.20882 
-0.27094 -0.038791 -0.0022913 -0.047834 -0.10176 -0.21948 -0.0039354 0.16344 
-0.21702 -0.020048 0.04095 0.018754 -0.044874 -0.16769 -0.003771 -0.0078813 
0.041936 0.1174 0.10211 0.081724 0.0013258 -0.11376 -0.096665 -0.13119 
0.15144 0.20635 0.099316 0.098659 0.023357 -0.21093 -0.17016 -0.16786 
0.13401 0.22789 0.097837 0.11707 0.032564 -0.32799 -0.20403 -0.11771 
0.15061 0.26192 0.079258 0.088136 0.03092 -0.28426 -0.13547 0.038977 
0.17708 0.22575 0.042594 0.039963 0.022206 -0.20715 -0.041093 0.2121 
0.17544 0.092082 -0.0016336 -0.0050863 -0.028269 -0.12757 0.098659 0.20651 
0.12365 -0.0024557 -0.031392 -0.017911 -0.052273 0.032071 0.27031 0.098166 
0.049335 -0.109 -0.023172 -0.00081153 -0.059672 0.19254 0.32555 0.027139 
-0.084169 -0.2665 0.0095465 -0.0059084 -0.057863 0.28806 0.3096 0.016616 
-0.07266 -0.16276 0.026974 0.0056006 -0.028597 0.29365 0.21802 0.098988 
-0.011005 0.051636 0.025988 0.028947 -0.032215 0.25337 0.11905 0.16853 
-0.025802 0.11329 0.01711 0.040456 -0.02235 0.28987 -0.00064712 0.12184 
0.041278 0.055418 0.012342 0.082711 -0.0050863 0.1807 -0.13333 -0.057041 
0.147 -0.019226 -0.0004827 0.016452 -0.046025 -0.2208 -0.35364 -0.020377 
0.16097 -0.0088678 0.0037921 -0.00064712 -0.052273 -0.51822 -0.46742 -0.023994 
-0.012156 0.057062 0.017603 0.02681 -0.04619 -0.42385 -0.25861 -0.15865 
-0.085649 0.13121 0.049992 0.024837 -0.023007 -0.065591 0.26669 -0.072496 
0.004943 0.14091 0.059528 0.053281 -0.00015387 0.26669 0.58697 0.13121 
-0.018733 0.13762 0.06742 0.023357 -0.012156 0.51035 0.54143 0.13072 
-0.13119 0.12727 0.089616 0.030427 -0.02087 0.42601 0.46399 0.2006 
-0.14846 0.069064 0.042429 0.055089 -0.024487 0.25239 0.23463 0.35745 
-0.062796 -0.0026201 0.027796 0.018589 -0.037969 0.15982 -0.036654 0.39197 
0.099152 -0.015773 0.020562 0.014643 -0.030406 0.065776 -0.26272 0.24203 
0.20997 -0.091897 -0.01117 -0.018733 -0.067399 -0.16736 -0.54124 0.0082312 
0.20273 -0.18709 -0.019061 -0.0024557 -0.072332 -0.40905 -0.49339 -0.50934 
0.060844 -0.10784 0.0042853 0.029769 -0.057863 -0.47613 -0.32783 -0.98433 
-0.0138 0.16212 0.061995 0.043087 -0.023007 -0.29363 -0.13152 -0.76517 
-0.074304 0.33574 0.08419 0.046375 0.019083 -0.16161 -0.22918 -0.24036 
-0.2032 0.26357 0.060844 0.060844 0.00297 -0.23576 -0.38291 0.23529 
-0.10291 0.11033 0.0062583 -0.018733 -0.048327 -0.18709 -0.182 0.69104 
0.16821 0.1128 0.027139 0.0092177 -0.051944 -0.077757 0.16163 0.74431 
0.21983 0.16179 0.05476 0.0075736 -0.048492 -0.0040998 0.47303 0.40611 
0.15275 0.042265 0.044731 0.0064227 -0.019555 0.14075 0.68216 -0.070194 
0.062652 -0.0060728 0.045882 0.037826 -0.020048 0.32917 0.83227 -0.16276 
-0.0138 0.01563 0.034702 0.046704 -0.0070593 0.47846 0.89656 0.067256 
-0.051944 -0.020212 0.031578 0.069558 -0.0039354 0.45889 0.71176 0.19057 
0.054267 -0.02794 0.03947 0.014972 -0.038298 0.27228 0.26801 0.13269 
0.037004 0.023686 0.060022 0.03388 -0.021528 0.025001 -0.24776 0.041607 
-0.060165 -0.00081153 0.034702 0.01974 -0.049807 -0.17493 -0.57889 -0.050958 
-0.13218 -0.05885 -0.027775 0.0072447 -0.048163 -0.13201 -0.55965 -0.1644 
-0.12281 -0.1016 -0.0034422 0.049828 -0.011334 0.31404 -0.22869 -0.24398 
-0.10686 -0.059343 0.015301 0.038155 0.00017495 0.59042 0.17906 -0.3275 
-0.044874 0.074654 0.013657 0.029605 -0.018568 0.48964 0.36698 -0.15783 
0.10556 0.17363 0.019411 0.033551 -0.038462 0.33426 0.41285 0.23249 
0.10228 0.1294 0.025988 0.022042 -0.044381 0.09833 0.27425 0.36567 
-0.020706 0.093398 0.0074092 0.066763 -0.03057 -0.24036 -0.060165 0.22887 
-0.17147 0.10145 0.037661 0.010533 -0.052437 -0.45426 -0.38883 -0.15816 
-0.10932 0.15028 0.058542 0.00050378 -0.053588 -0.54354 -0.49356 -0.40379 
0.10935 0.14798 0.059693 0.063639 -0.020706 -0.56228 -0.46314 -0.35299 
0.38852 0.17248 0.050814 0.0082312 -0.034845 -0.4393 -0.31024 -0.10209 
0.47977 0.18383 0.061995 0.047033 0.004943 -0.13892 -0.050958 0.26702 
0.43571 0.15176 0.053774 0.052294 -0.00064712 0.18876 0.24877 0.46629 
0.51331 0.10787 0.062488 0.016288 -0.025309 0.19435 0.29793 0.53403 
0.53962 0.052787 0.036346 0.04917 -0.028762 0.11395 0.26505 0.46711 
0.34265 0.034702 0.04358 0.01004 -0.039778 0.15357 0.24762 0.22493 
-0.1187 -0.0075525 0.01152 -0.014622 -0.030735 0.16048 0.24005 0.011355 
-0.39672 -0.17098 -0.018733 -0.031721 -0.078579 0.12414 0.23512 -0.22869 
-0.46166 -0.23691 -0.054739 -0.05326 -0.094692 0.16146 0.1756 -0.57116 
-0.48008 -0.13267 -0.047505 -0.00031829 -0.076935 0.21983 0.11428 -0.55127 
-0.32191 -0.0060728 -0.00097594 0.018754 -0.051451 0.30894 0.052787 -0.31139 
-0.083018 0.098659 0.034866 0.018589 -0.011334 0.39575 0.037168 0.01415 
0.021713 0.065612 0.03651 0.029276 -0.023007 0.2103 -0.017911 0.36468 
-0.1838 0.019411 0.038648 0.051965 -0.025638 -0.19054 -0.12067 0.38277 
-0.46528 -0.006566 0.047691 0.078765 -0.0075525 -0.36384 -0.21652 0.22033 
-0.11853 -0.0032777 0.048348 0.058542 0.0028056 -0.1695 -0.18676 0.11313 
0.45083 0.058049 0.08419 0.059528 0.024508 0.080409 -0.01528 0.040292 
0.45938 0.072846 0.07449 0.038977 -0.011005 0.1539 0.14634 0.021056 
0.30007 0.074654 0.065612 0.021549 -0.031392 0.11937 0.21934 0.089945 
0.23364 0.093069 0.063639 0.037168 -0.031064 -0.021199 0.15489 0.18284 
0.1516 0.0098754 0.040785 0.0054362 -0.04882 -0.1136 -0.086142 0.18777 
0.13483 -0.035832 0.013164 0.012013 -0.04323 -0.095021 -0.11475 0.25666 
0.25748 -0.054082 -0.013965 0.035853 -0.037311 -0.03912 0.18662 0.41269 
0.37307 -0.049807 -0.0073881 0.0023123 -0.048492 -0.038956 0.31963 0.35761 
0.3946 0.11247 0.030756 0.026646 -0.02498 -0.049642 0.34906 0.17955 
0.25502 0.22887 0.062981 0.042923 -0.018733 -0.042737 0.34923 0.062159 
-0.1108 0.25419 0.0324 0.012177 -0.034023 -0.012156 0.23677 -0.12248 
-0.58662 0.21885 -0.001798 0.015794 -0.051944 0.061501 -0.066248 -0.49898 
-0.66044 0.15374 0.01826 0.013821 -0.04323 0.12069 -0.31287 -0.51345 
-0.32454 -0.025802 0.033715 0.030592 -0.019884 0.01563 -0.43963 -0.16079 
-0.078579 -0.21685 0.011684 0.0065871 -0.047834 -0.060987 -0.66077 -0.008539 
-0.091075 -0.26009 -0.031228 0.007738 -0.049149 -0.038298 -0.78424 -0.16572 
-0.051287 -0.23033 -0.021363 0.027632 -0.044217 0.045718 -0.46939 -0.10554 
0.11148 -0.109 0.013164 0.035195 -0.023172 0.17412 -0.043395 0.011191 
0.15883 0.11017 0.0689 0.068407 0.015465 0.17166 0.17495 -0.097158 
-0.10702 0.19106 0.092904 0.034866 -0.021199 -0.071674 0.17955 -0.1547 
-0.075455 0.14552 0.072846 -0.016595 -0.050629 -0.099789 0.045224 -0.0029489 
-0.0040998 0.073832 0.053609 0.023028 -0.045203 0.048513 0.086985 0.15801 
0.058706 -0.025802 0.044073 0.059857 -0.0055795 0.18498 0.1738 0.30105 
0.06742 -0.021363 0.051965 0.060515 0.021713 0.092411 0.14404 0.36337 
0.13253 0.047033 0.017603 0.051143 -0.01528 -0.08532 0.13187 0.28806 
0.20832 0.12792 0.047855 0.019083 -0.031064 -0.18594 0.16475 0.19221 
0.31404 0.15851 0.074326 0.060679 -0.015444 -0.11015 0.1225 0.21917 
0.36879 0.18037 0.059693 0.058542 -0.0040998 -0.037805 -0.034023 0.1562 
0.28757 0.1294 0.053774 0.052787 -0.0014692 -0.22573 -0.14862 0.044073 
0.13878 0.10343 0.03388 0.058377 -0.018568 -0.45213 -0.31024 -0.13152 
-0.044381 0.10902 0.033387 0.044731 -0.018733 -0.39902 -0.31336 -0.34394 
-0.15996 0.053281 0.020069 0.062159 0.0031344 -0.20764 -0.025802 -0.29413 
-0.17936 0.016288 0.0019835 0.0059294 -0.026624 -0.045532 0.38737 -0.19153 
-0.20205 0.0031344 -0.03353 -0.039613 -0.065097 0.087314 0.53419 0.02681 
-0.19104 -0.032543 -0.029255 -0.022185 -0.085156 0.28428 0.52334 0.24104 
-0.041257 -0.0070593 0.010697 -0.020706 -0.072496 0.52367 0.41253 0.26044 
0.10885 0.081395 0.053609 0.012999 -0.03057 0.81041 0.18744 0.13023 
0.1853 0.070708 0.069722 0.0028056 -0.044381 0.85398 -0.0031133 -0.016924 
0.12447 0.052459 0.098494 0.034537 -0.032872 0.7162 -0.042737 -0.095678 
0.041936 0.13319 0.095206 0.085999 -0.0138 0.41664 -0.14862 -0.12544 
-0.082032 0.15226 0.096521 0.072188 -0.014458 -0.14073 -0.3298 -0.1866 
-0.069372 0.16064 0.075641 0.067913 0.0098754 -0.50162 -0.38439 -0.12429 
0.11839 0.14289 0.065447 0.052787 0.0014903 -0.47449 -0.4541 0.10392 
0.4122 0.14338 0.036017 0.035853 -0.00081153 -0.15996 -0.36926 0.30303 
0.56527 0.12135 0.019247 0.078765 0.013986 0.2634 0.027468 0.3854 
0.39888 0.089945 0.0072447 0.0324 -0.0064016 0.35301 0.33509 0.18333 
-0.024158 -0.030899 0.0018191 0.02829 -0.0072237 0.013164 0.35449 -0.20584 
-0.30021 -0.17493 0.0095465 0.032564 -0.034188 -0.16835 0.51315 -0.38225 
-0.12659 -0.15372 0.00033937 -0.010676 -0.050793 -0.084663 0.71965 -0.15372 
-0.096336 -0.19301 -0.02087 -0.01939 -0.0771 -0.11541 0.4847 -0.11048 
-0.37765 -0.096007 -0.0024557 -0.015444 -0.081539 -0.24102 -0.035996 0.0054362 
-0.16457 0.084848 0.027139 0.007738 -0.046683 -0.24102 -0.29856 0.26833 
0.29152 0.18547 0.059693 0.03947 -0.025638 -0.11853 -0.12314 0.36879 
0.41302 0.16656 0.059035 0.040456 -0.013143 0.065447 0.16525 0.23858 
0.22279 0.19649 0.087808 0.08863 0.013164 0.25748 0.38359 0.086163 
-0.020377 0.19073 0.074983 0.055254 0.0070803 0.36748 0.56231 0.14223 
-0.13678 0.13088 0.083697 0.045718 -0.010348 0.19895 0.42601 0.23808 
-0.16654 0.032729 0.048348 0.036675 -0.035338 -0.064933 0.1031 0.1927 
-0.080388 -0.011334 0.040292 0.023357 -0.03764 -0.14698 -0.097158 0.076792 
0.0032988 -0.016266 0.014808 0.052459 -0.0072237 -0.14319 -0.17213 -0.025309 
-0.021528 -0.03501 0.0067515 0.029112 -0.022679 -0.25072 -0.3132 -0.15996 
0.094548 -0.056383 -0.0021268 0.029934 -0.025638 -0.26848 -0.43092 -0.32421 
0.32588 -0.058192 0.0092177 0.026317 -0.025638 -0.15437 -0.43519 -0.48106 
0.29596 -0.03764 -0.0083746 -0.00064712 -0.042079 -0.025474 -0.38242 -0.55587 
0.19369 -0.025145 -0.031392 -0.047341 -0.067564 0.10606 -0.13464 -0.37979 
0.1151 0.029769 -0.0055795 -0.021528 -0.066906 0.22213 0.17824 0.24203 
-0.027282 0.079422 0.024508 -0.013636 -0.06 0.45363 0.55376 0.79676 
-0.19383 0.081889 0.062159 0.036675 -0.042573 0.63942 0.78164 0.91399 
-0.22244 0.081724 0.052952 0.023686 -0.035667 0.72952 0.84411 0.75911 
-0.16605 0.03092 0.010204 -0.0072237 -0.033037 0.65339 0.59519 0.3535 
-0.2111 -0.12988 -0.021692 -0.0052507 -0.073154 0.31371 0.21523 -0.073811 
-0.14878 -0.19531 -0.017253 0.020233 -0.062467 -0.095185 -0.098967 -0.18413 
0.072681 0.050157 0.057884 0.083204 -0.024487 -0.29856 -0.37485 -0.22655 
0.21326 0.28773 0.065118 0.056569 -0.012156 -0.26486 -0.50441 -0.35545 
0.19205 0.26685 0.076299 0.029934 0.0065871 -0.25154 -0.58711 -0.40297 
0.14124 0.12233 0.076956 0.053445 -0.01117 -0.32717 -0.81992 -0.43207 
0.1054 -0.10521 0.077285 0.056733 -0.0080457 -0.47745 -0.88782 -0.37008 
0.027468 -0.32257 0.029441 0.069558 -0.0067304 -0.7438 -0.63989 -0.11163 
-0.08269 -0.24743 0.012342 0.051472 -0.0077169 -0.81088 -0.22737 0.1391 
-0.21767 -0.054246 0.027468 0.039799 0.0052718 -0.57955 0.1271 0.20783 
-0.2203 0.13878 0.028783 0.027632 -0.0090322 -0.20945 0.44853 0.26932 
-0.10308 0.25567 -0.0011404 -0.0022913 -0.028269 0.10721 0.55918 0.24301 
0.10556 0.27392 -0.017253 0.01152 -0.032543 0.31601 0.43735 0.020891 
0.2195 0.1738 -0.016431 -0.0078813 -0.038791 0.5628 0.34512 -0.004593 
0.1419 0.12168 0.0072447 -0.018897 -0.056548 0.706 0.3581 0.1539 
-0.0138 0.14864 0.035524 0.0095465 -0.067399 0.60325 0.04917 0.17478 
-0.10127 0.11247 0.072024 0.0056006 -0.061316 0.4653 -0.15405 0.16081 
-0.19844 -0.010183 0.073504 0.023028 -0.029255 0.54718 0.014972 0.16607 
-0.16523 -0.11574 0.04506 0.0075736 -0.037969 0.65701 0.12201 0.075476 
0.005765 -0.15684 0.025001 0.010697 -0.050793 0.44985 0.059528 0.013492 
0.11888 -0.13941 0.020233 0.047033 -0.051287 -0.070359 -0.16161 0.015465 
0.1396 -0.076935 0.0019835 0.015794 -0.064111 -0.61769 -0.43963 -0.17969 
0.064461 -0.050464 -0.010348 0.016945 -0.035996 -0.76402 -0.5687 -0.4051 
-0.0072237 0.025495 -0.001798 0.03947 -0.020706 -0.48353 -0.45936 -0.26387 
0.18498 0.19336 0.029769 0.038483 -0.009361 -0.14188 -0.15947 -0.050793 
0.42042 0.26406 0.089123 0.096686 0.0083956 -0.018733 0.086985 0.11033 
0.42009 0.27754 0.092904 0.059857 0.0021479 -0.095021 0.13795 0.17971 
0.35975 0.26472 0.055254 0.043416 0.028783 -0.16194 0.15127 0.2006 
0.18613 0.19106 0.056076 0.038155 -0.0098543 -0.13103 0.026974 0.10014 
0.012999 0.15078 0.04506 0.024015 -0.021856 -0.079237 -0.12001 1.0539e-005 
-0.0965 0.11592 0.032729 0.045718 -0.023665 -0.015116 -0.2573 -0.054739 
-0.12462 -0.12462 -0.023665 0.046211 -0.014293 0.12381 -0.21685 0.12168 
-0.079895 -0.26979 -0.031886 -0.0027845 -0.016266 0.16031 0.040292 0.22082 
-0.068714 -0.06707 -0.009361 -0.034188 -0.060494 0.14897 0.3974 -0.033201 
-0.13168 0.14519 0.049992 -0.011992 -0.06 0.28247 0.57546 -0.089266 
-0.2471 0.11477 0.04654 0.080573 -0.014129 0.48865 0.72014 0.03651 
-0.25088 -0.0031133 0.032893 0.059693 -0.0026201 0.52893 0.80317 0.14733 
-0.07825 0.026317 0.049006 0.05476 -0.017088 0.33624 0.56625 0.21062 
-0.0019624 0.10556 0.034044 0.055254 -0.030242 0.012835 0.086821 0.077614 
0.048513 0.11395 0.016781 0.036182 -0.029913 -0.2545 -0.29856 -0.028926 
0.10343 0.055582 0.031249 0.049828 -0.021199 -0.3566 -0.42401 -0.15026 
-0.018568 0.034537 -0.0029489 -0.0077169 -0.058192 -0.55225 -0.55604 -0.30087 
-0.080881 0.076134 -0.020212 -0.02498 -0.072167 -0.54288 -0.51608 -0.3206 
0.0098754 0.037661 -0.030899 -0.00064712 -0.059178 -0.35973 -0.21126 -0.12429 
0.11559 0.064461 0.020562 0.026152 -0.033694 -0.19564 0.062488 0.17347 
0.32095 0.17528 0.058377 0.062817 0.013986 -0.25039 0.13088 0.24762 
0.47582 0.10195 0.082875 0.0689 0.010862 -0.24825 0.057884 0.12233 
0.46695 -0.074304 0.062159 0.06183 0.014479 0.023193 0.072353 0.086328 
0.34216 -0.054246 0.04654 0.028947 -0.0095255 0.39444 0.24088 0.22016 
0.16689 0.1026 0.055911 0.0018191 -0.036489 0.47188 0.36485 0.35876 
0.019083 0.18843 0.076792 0.049828 -0.0054151 0.2953 0.55047 0.35021 
-0.093541 0.18169 0.057884 0.069722 0.0031344 0.25403 0.5554 0.12151 
-0.19729 0.091096 0.044402 0.047197 0.0023123 0.43193 0.48454 -0.08384 
-0.27653 0.071859 0.0421 0.041278 -0.028762 0.22937 0.33624 -0.046847 
-0.28393 0.007738 0.0019835 -0.00015387 -0.066741 -0.32569 0.019083 0.05624 
-0.29215 -0.12412 -0.025145 0.014643 -0.034681 -0.64778 -0.23148 0.24811 
-0.22343 -0.10982 -0.0011404 0.019247 -0.043888 -0.70993 -0.30481 0.23364 
-0.035996 0.020233 0.023522 0.032564 -0.029748 -0.60322 -0.37831 -0.084169 
0.057884 0.025166 0.027139 0.038319 -0.029091 -0.42796 -0.4296 -0.39951 
0.14108 0.0062583 0.043909 -0.0004827 -0.03616 -0.2231 -0.36236 -0.43486 
0.15867 0.023357 0.041443 -0.0024557 -0.020212 -0.04471 -0.17591 -0.28179 
0.17725 0.025824 0.045882 0.014808 -0.02794 0.33032 0.072517 -0.064111 
0.2246 0.027139 0.055089 0.031578 -0.0068948 0.85858 0.33492 0.063803 
0.2976 0.06594 0.077778 0.079751 0.0069159 1.0659 0.54998 0.17412 
0.25617 0.053116 0.068407 0.047033 -0.0042642 1.0095 0.6603 0.30039 
0.14617 0.053938 0.090438 0.085012 0.012999 0.76223 0.55951 0.24959 
0.029934 0.066598 0.066763 0.10507 0.0095465 0.34824 0.11017 0.091753 
-0.088773 0.036182 0.044073 0.089945 0.014808 0.04506 -0.059836 0.13351 
-0.097816 -0.010019 0.019083 0.073339 0.0085601 -0.1011 -0.0868 0.10458 
-0.14566 0.031249 -0.013307 0.0070803 -0.041422 -0.46429 -0.23346 -0.0087034 
-0.17098 -0.025474 -0.025309 -0.056548 -0.098473 -0.78671 -0.31829 0.029605 
-0.10965 -0.11541 -0.029255 -0.057534 -0.11919 -0.80381 -0.22655 0.025988 
-0.0077169 0.0072447 0.011191 -0.050136 -0.10817 -0.7655 -0.091404 0.094055 
0.10984 0.13056 0.061501 0.030592 -0.022843 -0.71059 -0.028926 0.15982 
0.15752 0.17232 0.042758 0.06035 0.0095465 -0.3252 -0.095185 0.14585 
0.060022 0.066434 0.048348 0.08008 0.023028 0.054103 -0.18709 0.086328 
-0.29002 0.012177 0.0064227 0.037168 -0.0055795 0.32555 -0.25565 -0.29018 
-0.43421 0.071202 0.016945 -0.038133 -0.055397 0.57546 -0.15125 -0.35907 
-0.1935 0.10113 0.036346 0.0032988 -0.014787 0.98041 0.34117 0.15785 
0.13762 0.024179 0.082217 0.049335 0.0092177 1.1746 0.67592 0.41581 
0.36419 -0.048492 0.08863 0.025166 -0.026296 0.93783 0.42798 0.095206 
0.45314 0.0016547 0.073997 0.017438 -0.055561 0.5337 -0.047341 -0.29034 
0.32752 0.075148 0.038812 0.012835 -0.064275 0.17084 -0.39376 -0.58695 
0.14683 0.015959 0.0041209 0.035524 -0.023007 -0.19959 -0.4929 -0.50918 
-0.038791 -0.048327 -0.0040998 0.042758 -0.032872 -0.27966 -0.30185 -0.16983 
-0.1279 -0.0052507 0.013821 0.042429 -0.017253 -0.11755 -0.03353 0.16804 
-0.076277 0.052623 0.03388 0.06594 -0.0049219 0.016616 0.14058 0.46695 
0.097672 0.066927 0.038483 0.022206 -0.010512 0.22296 0.35728 0.49095 
0.29678 0.13286 0.038483 0.032729 -0.0014692 0.30714 0.5041 0.34512 
0.2537 0.13499 0.046868 0.023522 -0.035338 0.05213 0.44459 0.11674 
0.079094 0.073997 0.0092177 -0.028926 -0.078579 -0.25417 0.12743 0.00017495 
-0.11903 0.0023123 0.0013258 -0.023501 -0.085156 -0.31468 -0.14763 0.063474 
-0.27653 -0.024487 0.013164 0.0060938 -0.060658 -0.21471 -0.17262 0.11395 
-0.15766 0.063639 0.004943 0.056898 -0.01528 -0.12692 -0.032543 0.12184 
0.011848 0.16344 0.020891 0.070215 -0.0068948 -0.12494 1.0539e-005 0.009711 
0.082875 0.15144 0.03092 0.025495 -0.020048 -0.15618 -0.062302 -0.10571 
0.16278 0.072681 0.05772 0.025001 -0.026131 -0.091075 -0.18167 -0.15964 
0.17495 -0.12034 0.037168 0.029276 -0.024487 -0.055561 -0.35923 -0.22145 
-0.013143 -0.25664 0.0093821 0.016945 -0.035832 -0.12971 -0.45344 -0.12083 
-0.13612 -0.11048 0.033058 0.017438 -0.039778 -0.14434 -0.28212 0.1978 
-0.109 0.17856 0.060844 0.0069159 -0.040928 -0.031886 0.078107 0.35432 
-0.055232 0.24433 0.027303 0.020398 -0.022021 0.12316 0.36254 0.37175 
0.023028 0.19813 0.02122 0.0051074 -0.033037 0.30993 0.45363 0.23216 
0.097672 0.19188 -0.0083746 0.0042853 -0.039284 0.51907 0.30237 -0.30202 
0.14683 0.12743 -0.015116 0.022206 -0.044381 0.53649 0.084355 -0.51658 
0.10474 0.041772 0.00099702 0.012506 -0.054246 0.29957 -0.0088678 -0.20271 
0.012013 0.011684 0.016288 0.0019835 -0.041257 0.055418 -0.030242 -0.18693 
-0.25779 -0.053424 0.048348 0.024508 -0.046519 -0.07562 0.016452 -0.2744 
-0.32142 -0.13678 0.048513 0.049664 -0.024323 -0.17739 0.019411 -0.20896 
-0.030077 -0.089266 0.069064 0.084026 -0.0047575 -0.28689 -0.013965 -0.047834 
0.15752 -0.038791 0.057062 0.072517 0.0032988 -0.32898 0.022535 0.17462 
0.26488 0.058049 0.011191 0.019247 0.010204 -0.27604 0.086328 0.28905 
0.28017 0.098166 0.010862 0.0044497 -0.031392 -0.12988 0.1613 0.38326 
0.19122 0.13072 0.0092177 1.0539e-005 -0.043066 -0.008539 0.14897 0.35169 
0.041936 0.13762 0.018918 0.040785 -0.032708 -0.060494 0.079587 0.24482 
-0.18742 0.14552 0.040456 0.04358 -0.022843 -0.11327 0.090274 0.24219 
-0.28295 0.12316 0.036182 0.01152 -0.028433 -0.046519 0.12677 0.19254 
0.018589 0.082875 0.034044 0.034044 -0.02646 0.062159 0.10392 0.082711 
0.28856 -0.0068948 0.029441 0.016616 -0.033694 0.040621 0.011848 -0.066577 
0.42634 -0.10078 0.035524 0.055089 -0.02235 -0.046519 -0.15881 -0.26272 
0.35728 -0.063453 0.021713 0.014808 -0.035667 -0.029913 -0.37617 -0.47416 
-0.074469 0.063145 0.020727 0.03536 -0.018568 0.062159 -0.28985 -0.36696 
-0.32273 0.12858 0.044567 0.057884 -0.016266 0.063145 -0.050958 -0.074798 
-0.16079 0.15752 0.078272 0.046868 -0.018568 -0.069208 0.01415 0.078436 
0.11954 0.11066 0.07449 0.044402 -0.0082102 -0.21833 0.0014903 0.090109 
0.086985 0.0070803 0.076627 0.053445 -0.01117 -0.20781 0.10211 0.12891 
-0.023829 -0.0078813 0.071037 0.053938 -0.001798 -0.10242 0.21506 0.20027 
0.037497 0.0032988 0.014315 0.0060938 -0.033201 -0.021199 0.2611 0.21769 
0.059364 -0.17279 -0.039284 -0.021363 -0.063782 -0.05589 0.18251 0.072188 
0.033222 -0.28097 -0.052109 0.0018191 -0.039613 -0.0868 0.039141 0.01004 
-0.10982 -0.0062372 -0.039613 0.033387 -0.032708 -0.04323 -0.016266 0.014479 
-0.25088 0.19829 0.016945 0.042758 -0.018404 0.032729 -0.025309 0.043251 
-0.15207 0.14765 0.043087 0.075476 -0.0031133 0.093398 -0.030242 0.043745 
0.17297 0.12464 0.075476 0.029605 -0.020706 0.17528 0.028125 0.034373 
0.32012 0.10326 0.057555 0.0098754 -0.0098543 0.17445 -0.0019624 -0.0050863 
0.28839 0.16788 0.055582 0.016452 -0.040928 0.23068 -0.077428 -0.13316 
0.14124 0.2417 0.087808 0.037826 -0.018075 0.47056 0.053281 -0.033201 
-0.042079 0.22197 0.090274 0.074983 0.0054362 0.43801 0.17478 0.11181 
-0.1136 0.095699 0.058706 0.023522 -0.033694 0.047691 0.05213 0.12299 
-0.0073881 -0.15092 0.026974 -0.020377 -0.05885 -0.33687 -0.21767 0.049006 
0.22871 -0.32306 -0.0070593 0.0011614 -0.074633 -0.55423 -0.39491 -0.040106 
0.18185 -0.267 -0.0016336 0.00017495 -0.062631 -0.54157 -0.44818 -0.21011 
-0.15964 -0.16934 -0.036654 0.034702 -0.036983 -0.49224 -0.34444 -0.23017 
-0.31024 -0.044052 -0.044381 0.005765 -0.042408 -0.37781 -0.16539 -0.020541 
-0.22129 0.12875 0.024344 0.027632 -0.029255 -0.27719 -0.10965 0.12579 
-0.076606 0.33311 0.074326 0.09126 0.0023123 -0.26996 -0.26502 0.1202 
-0.0040998 0.32851 0.10047 0.073832 0.017274 -0.12182 -0.20025 0.025001 
0.067091 0.21737 0.11263 0.079751 0.042923 0.21621 0.25206 -0.058356 
0.21194 0.14469 0.094384 0.030756 0.0092177 0.50361 0.50542 0.024344 
0.24071 0.0786 0.024508 -0.0054151 -0.033037 0.60801 0.5725 0.13039 
0.11378 0.044402 -0.0013048 0.0034632 -0.056219 0.72047 0.80449 0.30039 
0.00017495 1.0539e-005 -0.00064712 -0.020377 -0.070523 0.71192 0.83951 0.3558 
-0.036325 -0.026789 0.00017495 0.018425 -0.044217 0.50493 0.52696 0.41581 
0.10343 0.045718 0.01152 0.049828 -0.029091 0.37603 0.1955 0.42025 
0.25617 0.15768 0.023851 0.048348 -0.023172 0.17347 0.27327 0.51446 
0.24729 0.13828 0.058871 0.07597 -0.017088 -0.17443 0.22887 0.53008 
0.14848 0.031907 0.08156 0.058871 -0.013143 -0.45887 0.0083956 0.29037 
0.1128 0.036346 0.091425 0.055582 0.015959 -0.55225 -0.16786 -0.034845 
0.058871 -0.019719 0.047197 0.049664 -0.0040998 -0.46972 -0.44703 -0.37041 
-0.038298 -0.20173 0.012342 0.032236 -0.008539 -0.25335 -0.64564 -0.56903 
0.015959 -0.13349 0.0059294 0.027796 -0.032543 -0.18446 -0.68724 -0.55883 
0.079258 0.071859 -0.017253 -0.040271 -0.073482 -0.039613 -0.65107 -0.5123 
0.052787 0.041443 -0.05589 -0.070523 -0.070687 0.44212 -0.29906 -0.41628 
-0.14352 -0.033037 -0.048163 -0.015938 -0.066906 0.78903 0.34068 -0.080881 
-0.31418 0.11378 0.0079024 -0.014622 -0.062467 0.86434 0.70896 0.27721 
-0.21619 0.19912 0.067256 0.080902 -0.018404 0.70107 0.64665 0.37224 
0.018754 0.18383 0.10688 0.059528 -0.018239 0.37011 0.43078 0.17544 
0.14782 0.10655 0.08715 0.023028 -0.041422 0.017438 0.11806 -0.01117 
0.11461 0.020233 0.045389 0.037497 -0.048985 -0.28574 -0.22935 0.011026 
0.023522 0.072681 0.065776 0.035688 -0.033201 -0.30383 -0.22113 0.23611 
-0.073976 0.15045 0.11411 0.053774 -0.0013048 -0.19235 0.09685 0.44426 
-0.14632 0.13993 0.057227 0.028619 -0.017417 -0.097322 0.49391 0.59568 
0.024673 0.10885 0.013328 -0.035338 -0.071509 -0.13349 0.70403 0.46284 
0.31174 0.049992 -0.00064712 0.005765 -0.07003 -0.23214 0.58631 -0.0054151 
0.27557 0.011026 0.015794 0.025001 -0.034023 -0.075291 0.18054 -0.30152 
0.064132 -0.059672 0.015137 0.017603 -0.015444 0.15193 0.01415 -0.24628 
-0.081374 -0.058685 -0.00097594 0.009711 -0.028597 0.31996 0.044402 -0.13464 
-0.121 -0.0083746 -0.0095255 0.0060938 -0.043559 0.23167 -0.13448 -0.091075 
-0.077922 0.04358 -0.016924 0.036017 -0.05441 0.11115 -0.41908 -0.13168 
-0.0042642 0.082053 0.0036276 0.022042 -0.042737 0.1128 -0.45706 -0.20797 
0.13384 0.0041209 -0.00097594 0.00066819 -0.026789 0.20586 -0.32273 -0.20929 
0.33246 -0.025802 0.03799 0.0075736 -0.040271 0.37981 -0.09387 0.039799 
0.43521 0.0421 0.098494 0.038977 -0.023501 0.44015 -0.040271 0.31947 
0.33344 0.072681 0.096686 0.079258 -0.0073881 0.3706 0.05065 0.41335 
0.13483 0.072188 0.085341 0.047855 -0.019719 0.16656 0.12529 0.25617 
-0.083183 0.077943 0.074654 0.031907 -0.0082102 -0.084827 0.22624 -0.017253 
-0.16391 0.0227 0.0075736 0.0098754 -0.041586 -0.145 0.4316 -0.12379 
-0.22885 0.011848 -0.02942 -0.025802 -0.064275 -0.097322 0.38046 -0.14418 
-0.29709 0.047691 -0.033365 0.0072447 -0.060658 -0.094363 0.16673 -0.19038 
-0.28179 -0.069865 -0.022185 0.0046141 -0.05885 -0.13662 -0.017746 -0.14484 
-0.23658 -0.12001 0.035031 0.011684 -0.049314 -0.32273 -0.40313 -0.13596 
-0.028104 0.021056 0.031578 0.025495 -0.047341 -0.46429 -0.73656 -0.14402 
0.18366 0.17248 0.067256 0.071037 -0.0049219 -0.45492 -0.5608 -0.10489 
0.1761 0.069722 0.069393 0.091918 0.020398 -0.32257 -0.24447 -0.023007 
0.21671 -0.035832 0.039305 0.071037 0.034537 0.0019835 0.15768 0.17626 
0.25929 0.0085601 0.058213 0.040456 0.01415 0.29365 0.54093 0.39723 
0.14387 0.022864 0.03947 0.061008 0.0018191 0.37011 0.57941 0.38901 
-0.064604 0.024837 0.017767 0.031249 -0.02087 0.20224 0.31996 0.16081 
-0.19054 0.092411 0.033551 0.038812 -0.025309 -0.069043 -0.11212 -0.31402 
-0.19252 0.16985 -0.0078813 -0.0027845 -0.049971 -0.1644 -0.40971 -0.63084 
-0.2282 0.090109 -0.012649 0.010697 -0.041257 -0.032215 -0.53516 -0.58826 
-0.1769 0.036017 0.0082312 0.038812 -0.036983 -0.031721 -0.47695 -0.21291 
-0.014293 0.12694 0.0064227 -0.0096899 -0.072989 -0.45722 -0.36614 0.27623 
0.014643 0.17889 0.017438 -0.013965 -0.062467 -0.74133 -0.20863 0.39937 
0.036182 0.069558 0.042265 0.0087245 -0.036325 -0.40823 0.12727 0.35465 
0.16607 -0.034188 0.051308 0.026481 -0.019555 -0.028597 0.4094 0.28724 
0.29332 -0.0014692 0.042594 0.080902 0.012013 0.19122 0.41598 0.1909 
0.29201 0.040128 0.026646 0.021384 -0.026131 0.056569 0.1539 0.1807 
0.27524 0.092576 0.024015 0.0080668 -0.018568 -0.19597 -0.10719 0.18646 
0.22493 0.092082 0.04917 0.0054362 -0.046025 -0.21915 -0.37683 0.14305 
0.07038 0.014643 0.058213 0.017603 -0.031886 -0.031886 -0.65057 -0.13991 
-0.18101 0.013821 0.061666 0.085341 0.0039565 0.13615 -0.78753 -0.53647 
-0.28804 0.071366 0.066105 0.084684 0.017603 0.092082 -0.5488 -0.43799 
-0.31386 0.048019 0.042265 0.049335 0.017274 -0.054575 0.0044497 -0.28245 
-0.14632 0.015794 0.033387 0.033715 -0.015773 -0.049149 0.68216 -0.24036 
0.17117 0.014972 0.0051074 0.023851 -0.020048 0.081231 0.98173 -0.098473 
0.40167 -0.01232 0.0080668 0.021713 -0.032543 0.03388 0.65043 0.14157 
0.43604 -0.053753 0.0019835 -0.017746 -0.061809 -0.034516 0.047033 0.33541 
0.24795 -0.068714 -0.0040998 0.01415 -0.042901 0.094548 -0.25154 0.39904 
-0.067564 -0.033037 0.013986 0.066434 -0.019719 0.14963 -0.16062 0.22723 
-0.27604 0.13384 0.045882 0.078272 -0.003771 -0.12116 -0.014458 0.049992 
-0.41168 0.15686 0.038483 0.02533 -0.029255 -0.32487 0.093562 -0.032708 
-0.43289 0.11806 0.024344 -0.012978 -0.041751 -0.041915 0.30007 -0.03205 
-0.22145 0.11773 0.051801 0.022206 -0.017911 0.45757 0.54965 0.072188 
0.014643 0.086821 0.046375 0.076299 -0.010183 0.54636 0.5166 0.17593 
0.08008 -0.021199 0.018918 0.017274 -0.036654 0.27113 0.22411 0.17939 
0.098166 -0.031886 0.014479 0.00017495 -0.041915 -0.012649 -0.23559 0.10507 
0.19188 0.051965 0.015465 0.0083956 -0.050629 -0.095514 -0.39162 0.063968 
0.44163 0.10704 0.036182 0.031578 -0.033201 -0.099131 -0.24151 0.087808 
0.46843 0.10425 0.084848 0.086328 -0.0022913 -0.069208 -0.062138 0.079094 
0.14338 0.065612 0.10852 -0.017911 -0.047998 -0.010348 -0.024652 -0.070687 
-0.062631 0.11066 0.03536 -0.0077169 -0.037476 0.074819 0.21967 -0.11541 
0.021056 0.05213 0.049664 -0.013307 -0.067564 0.19205 0.55984 0.037168 
0.14371 0.011026 0.037168 0.0067515 -0.050464 0.35038 0.67838 0.21194 
0.15637 0.036675 0.062817 0.098823 -0.016266 0.4071 0.46481 0.26307 
0.12644 0.034209 0.0088889 0.019411 -0.037476 0.19155 0.25156 0.28412 
0.15111 -0.09798 -0.030077 -0.033859 -0.050793 -0.13678 -0.074304 0.2833 
0.13532 -0.14517 -0.0031133 0.005765 -0.065919 -0.25023 -0.31764 0.1562 
-0.11343 -0.06148 -0.022185 -0.0083746 -0.066084 -0.14221 -0.41579 -0.22047 
-0.47498 0.053774 0.0014903 0.035688 -0.045696 -0.13727 -0.53499 -0.55439 
-0.66323 0.097837 0.0421 0.027796 -0.042244 -0.10406 -0.66455 -0.69349 
-0.52562 0.081395 0.095535 0.049664 -0.009361 -0.10078 -0.65337 -0.7923 
-0.10505 0.047197 0.10573 0.079422 0.0069159 -0.023172 -0.24875 -0.40872 
0.29661 -0.043724 0.063145 0.057062 0.0095465 0.18383 0.15522 0.16015 
0.46645 -0.07562 0.028947 0.055254 0.023851 0.39987 0.34429 0.48585 
0.41022 0.017767 0.020562 -0.001798 -0.022843 0.56379 0.53057 0.63087 
0.31174 0.12612 0.027796 -0.016102 -0.0503 0.59881 0.71094 0.59979 
0.1105 0.074983 -0.00097594 0.051801 -0.033037 0.60505 0.78903 0.31503 
-0.042408 0.01711 -0.012649 0.05476 -0.019719 0.42305 0.70107 0.099481 
-0.036325 -0.0088678 0.024344 0.047197 -0.017746 -0.017582 0.4339 0.098494 
0.059693 0.074654 0.059364 0.037826 -0.035832 -0.26765 0.19961 0.18974 
0.11 0.14289 0.086492 0.01826 -0.036325 -0.26552 0.00099702 0.18596 
0.12332 0.18777 0.077121 0.044402 -0.031886 -0.15158 -0.10752 0.13236 
0.10178 0.11872 0.041114 0.0079024 -0.042408 -0.036489 -0.054739 0.10737 
0.02829 0.069722 0.016616 -0.028269 -0.049478 0.093726 0.039141 0.065118 
0.056733 0.0689 0.010697 -0.053424 -0.091075 0.17955 0.059857 0.059857 
0.079094 0.090931 0.015301 -0.047998 -0.097487 0.18728 -0.067399 -0.048327 
0.056569 0.053281 0.011848 0.0324 -0.063782 0.13286 -0.2841 -0.26831 
-0.11541 -0.034352 0.012835 0.059035 -0.023829 0.081395 -0.43256 -0.32273 
-0.14566 -0.068714 0.021713 0.05213 0.0069159 -0.057041 -0.61342 -0.25335 
-0.0014692 0.027796 0.031414 0.057227 -0.0080457 -0.21537 -0.55439 -0.05737 
0.17248 0.08156 0.038977 0.036182 -0.017911 -0.30268 -0.24497 0.17478 
0.15176 -0.044381 0.023357 0.063968 -0.0011404 -0.19482 0.12612 0.30335 
-0.080059 -0.10538 0.026317 0.047033 -0.0026201 -0.10982 0.28773 0.20553 
-0.26913 -0.014458 0.023028 0.048019 0.012835 -0.034845 0.31059 -0.046847 
-0.28771 0.077121 0.036182 0.041443 -0.01232 0.10129 0.23085 -0.23888 
-0.093705 0.16179 0.080409 0.018754 -0.021199 0.18103 0.086657 -0.049807 
0.11674 0.22624 0.075476 0.051308 -0.01676 0.15505 -0.1256 0.22592 
0.20257 0.16952 0.060515 0.023193 -0.029913 0.091753 -0.25598 0.10392 
0.094877 0.076792 0.01826 0.0046141 -0.047176 -0.0091966 -0.33737 -0.26946 
0.010204 0.040456 0.017438 0.072681 -0.034516 0.0016547 -0.22918 -0.33802 
-0.054904 0.014479 0.028125 0.022864 -0.030077 0.12973 0.064461 -0.11064 
0.046704 -0.0082102 0.013164 0.063474 0.010369 0.20701 0.20372 0.062323 
0.23825 -0.0090322 0.0014903 0.019247 -0.025145 0.030427 -0.016595 0.16623 
0.33163 -0.12001 -0.017417 -0.018733 -0.059672 -0.25039 -0.19038 0.24153 
0.26209 -0.1547 -0.0050863 0.018918 -0.07003 -0.48994 -0.22326 0.30434 
0.21178 -0.039284 0.029441 0.0054362 -0.064604 -0.54321 -0.16818 0.20043 
0.16377 0.067913 0.06035 0.020727 -0.019555 -0.34213 0.069393 -0.057205 
0.066434 0.10967 0.071695 0.0013258 -0.039778 0.078436 0.43554 -0.12314 
-0.099789 0.15045 0.041607 -0.017746 -0.04882 0.42814 0.62626 -0.13991 
-0.28689 0.14667 0.012342 -0.018733 -0.054082 0.58878 0.48109 -0.050958 
-0.31977 0.085999 0.018589 0.0046141 -0.056383 0.56181 0.18711 0.10984 
-0.077593 0.11066 0.0044497 0.056569 0.004943 0.341 -0.032708 0.10277 
0.15111 0.15061 0.023028 0.071859 -0.0054151 0.040456 -0.25763 -0.11113 
0.24828 0.16015 0.018918 0.059364 -0.0060728 -0.056383 -0.36943 -0.17427 
0.22279 0.094548 0.029276 0.089287 0.0037921 -0.13826 -0.31402 0.09981 
0.13812 0.0041209 0.058542 0.060186 0.0014903 -0.29215 -0.069865 0.39608 
0.11017 0.034866 0.064132 0.036182 0.0065871 -0.35397 0.28445 0.54192 
0.061666 0.1248 0.10014 0.03092 -0.022679 -0.33852 0.41055 0.50147 
-0.023336 0.1008 0.077121 -0.0068948 -0.04471 -0.25204 0.27047 0.31404 
-0.13152 0.030592 0.042594 0.01563 -0.043395 -0.093376 0.064132 -0.016102 
-0.086142 -0.0049219 0.014315 -0.021692 -0.063618 0.0041209 -0.19926 -0.48435 
0.066598 -0.061645 -0.0026201 -0.0087034 -0.060987 0.028454 -0.32849 -0.61358 
0.11329 -0.15405 -0.009361 0.032236 -0.046847 0.0046141 -0.23609 -0.42648 
-0.022185 -0.18298 -0.014129 0.021713 -0.042737 -0.14944 -0.11574 -0.21817 
-0.29297 -0.15947 -0.020541 0.025166 -0.035667 -0.25434 -0.046683 -0.14073 
-0.38718 0.088465 0.018918 0.050814 -0.013636 -0.18397 0.16837 -0.017746 
-0.2813 0.39822 0.058377 0.064625 0.0083956 0.036182 0.48635 0.17873 
0.049664 0.52449 0.091918 0.083368 0.01415 0.24893 0.5577 0.53584 
0.45248 0.36912 0.096686 0.030263 -0.0052507 0.41548 0.57332 0.56395 
0.56017 0.021384 0.040785 0.024179 -0.0090322 0.31223 0.4385 0.10787 
0.27442 -0.20847 0.0056006 0.014315 -0.045368 0.014808 0.083862 -0.19942 
-0.017582 -0.16079 0.012177 1.0539e-005 -0.054246 -0.1062 -0.20107 -0.14846 
-0.22326 -0.20353 -0.0031133 0.015137 -0.056383 -0.109 -0.28229 0.22263 
-0.31336 -0.38291 -0.045203 -0.036325 -0.081045 -0.14944 -0.46429 0.44426 
-0.071509 -0.23592 -0.047012 -0.052931 -0.075949 -0.27637 -0.85379 0.07301 
0.29464 0.18119 0.026646 0.0026412 -0.066248 -0.26354 -0.72522 -0.33063 
0.43702 0.40628 0.08304 0.039141 -0.029584 -0.020048 -0.21488 -0.38472 
0.22871 0.37224 0.1128 0.073504 0.0021479 0.27951 0.26537 -0.15224 
0.057391 0.21737 0.07301 0.046704 -0.0032777 0.43637 0.58171 -0.032543 
0.16541 0.092576 0.047197 0.05213 0.015959 0.36271 0.78344 0.16722 
0.17314 0.030098 0.019247 0.091753 0.024344 0.2269 0.86845 0.27771 
-0.033365 0.032071 0.044402 0.057884 0.0069159 0.14256 0.7943 0.33509 
-0.14171 0.040785 0.043087 0.082382 0.03092 0.12497 0.50986 0.24614 
-0.17361 -0.015116 0.0070803 0.024673 -0.014293 -0.0067304 0.1026 0.060186 
-0.26946 -0.069865 -0.023007 0.024015 -0.021528 -0.15569 -0.15668 -0.053095 
-0.3589 -0.13645 -0.010841 0.034866 -0.036983 -0.23921 -0.20764 -0.035832 
-0.36795 -0.24217 -0.031392 -0.023994 -0.063289 -0.24842 -0.18413 0.086492 
-0.32076 -0.2379 -0.020377 -0.031392 -0.069865 -0.029091 -0.081539 0.20273 
-0.02942 -0.063124 -0.031064 -0.0036066 -0.055232 0.27639 0.035688 0.04917 
0.21704 0.056076 0.040128 0.06594 -0.0044286 0.44508 -0.047834 -0.20468 
0.27606 0.052459 0.021878 0.052787 -0.023501 0.27327 -0.27653 -0.32865 
0.19402 0.066763 0.020233 0.017767 -0.042901 0.027139 -0.44424 -0.34838 
0.11017 0.17741 0.056569 0.044073 -0.014293 -0.045039 -0.48139 -0.23543 
0.13088 0.23035 0.043909 0.053116 -0.0078813 -0.013307 -0.42237 -0.14106 
0.14042 0.18728 0.045718 0.026152 -0.023007 -0.033694 -0.36976 -0.090417 
0.18152 0.15292 0.054432 0.065776 -0.011827 -0.081045 -0.24118 -0.046354 
0.22378 0.12431 0.072846 0.052623 -0.0067304 -0.065262 0.13056 0.094384 
0.171 -0.051122 0.040621 0.039305 0.0054362 -0.018897 0.45955 0.29069 
0.012177 -0.067399 0.0014903 0.00297 -0.031886 0.12661 0.51759 0.32555 
-0.081045 0.12694 0.021549 -0.0087034 -0.046519 0.29809 0.52383 0.28313 
-0.039284 0.33311 0.041114 0.041772 -0.034845 0.34742 0.47829 0.25436 
0.012835 0.24976 0.037497 0.013657 -0.044546 0.25535 0.2999 0.23611 
-0.091239 0.10852 0.010533 0.0026412 -0.028762 0.25683 0.12085 -0.0055795 
-0.28525 -0.027611 0.0039565 0.032564 -0.033859 0.26488 -0.035832 -0.39754 
-0.32964 -0.1889 0.013492 0.028947 -0.035338 0.14026 -0.21274 -0.58645 
-0.023007 -0.21554 0.031907 0.050321 -0.030899 -0.047505 -0.28969 -0.45657 
0.28872 -0.13678 0.048513 0.0095465 -0.048656 -0.18216 -0.30136 -0.060494 
0.41187 -0.072496 0.060679 0.031578 -0.021856 -0.26437 -0.15881 0.42502 
0.34873 -0.034845 0.01974 0.04917 -0.014951 -0.29873 -0.015444 0.68397 
0.16146 -0.031721 0.0051074 0.0083956 -0.040764 -0.413 -0.067399 0.5896 
0.037168 0.019411 0.0013258 0.011026 -0.045039 -0.39343 -0.15405 0.26028 
-0.29495 0.14848 0.019247 0.009711 -0.038298 -0.24431 -0.27407 -0.27703 
-0.55768 0.2366 0.035524 0.030592 -0.019226 -0.004593 -0.26667 -0.6366 
-0.34526 0.22213 0.045553 0.050486 -0.012978 0.25008 -0.20008 -0.54403 
0.13664 0.20997 0.084355 0.047033 -0.0034422 0.43489 -0.093048 -0.13859 
0.22476 0.15834 0.084355 0.039141 -0.0088678 0.42601 0.0059294 0.074983 
0.12579 0.10556 0.066105 0.0090533 -0.03353 0.38359 0.11 0.19501 
0.19122 0.11017 0.038977 0.0075736 -0.042079 0.33032 0.29102 0.19813 
0.26751 0.084519 0.053774 0.031414 -0.047012 0.073668 0.32637 0.15193 
0.16689 -0.088444 0.037661 0.049499 -0.033037 -0.22672 0.2754 0.11872 
-0.018897 -0.097322 0.022535 0.053116 0.0032988 -0.21406 0.28214 0.1151 
-0.070687 0.082217 0.038648 0.077449 0.02533 0.031249 0.22822 0.058049 
-0.070194 0.15637 0.032564 0.034373 0.0070803 0.26324 0.16179 0.050979 
0.11987 0.17511 0.074326 0.063145 -0.010512 0.10655 0.12727 0.21342 
0.19468 0.17593 0.085835 0.042758 -0.01939 -0.14648 0.075805 0.37586 
0.11559 0.032893 0.055582 0.022864 -0.0088678 -0.18939 0.0018191 0.41022 
0.14552 -0.11179 -0.026296 0.014808 -0.025474 -0.037969 -0.036654 0.24088 
0.10113 -0.13037 -0.03057 -0.01939 -0.0503 0.12447 -0.032543 -0.033694 
0.062488 -0.047176 -0.020377 0.030756 -0.047012 0.070215 -0.095514 -0.17969 
0.052787 0.053445 0.017932 0.032564 -0.036325 -0.011334 -0.10669 -0.18643 
0.012835 0.1179 0.05772 0.053445 0.0028056 -0.11886 0.047197 -0.17986 
-0.037969 0.10047 0.076299 0.064625 -0.00081153 -0.22984 0.19961 -0.075455 
-0.15635 0.025001 0.040128 0.0059294 -0.036489 -0.2379 0.18876 0.032071 
-0.41661 -0.0077169 0.0016547 0.020562 -0.0406 -0.099789 0.057227 -0.008539 
-0.45607 -0.09091 0.0021479 0.0065871 -0.040435 0.039963 -0.083512 -0.03912 
-0.13201 -0.19482 -0.014622 0.013821 -0.036489 0.098823 -0.19926 -0.04619 
0.22707 -0.087129 -0.01117 0.01711 -0.045861 0.12595 -0.16638 -0.01117 
0.41285 0.090767 0.033715 0.0072447 -0.047998 0.12809 -0.097651 0.041772 
0.42864 0.18251 0.063968 0.047197 -0.02235 0.10474 -0.030735 0.18465 
0.29053 0.18744 0.07449 0.017438 -0.038627 0.017438 -0.024816 0.16722 
0.028947 0.12743 0.071037 0.027139 -0.039449 -0.071838 0.051801 0.10655 
-0.10669 0.069229 0.042429 0.023686 -0.045532 -0.12034 0.1345 0.10293 
-0.10817 0.033222 0.028454 0.0021479 -0.050958 -0.079072 0.095535 0.080409 
-0.083512 0.031085 0.019083 0.024179 -0.027447 -0.10998 -0.053095 -0.013143 
0.010697 0.03536 0.040621 0.027632 -0.033859 -0.13119 -0.1159 -0.074304 
0.19205 0.068571 0.01974 0.0070803 -0.042244 -0.041915 -0.061316 -0.040928 
0.32522 0.027961 0.013328 0.054925 -0.017911 0.1756 0.15735 -0.041915 
0.29464 -0.012814 0.033551 0.039141 -0.011992 0.32226 0.41368 0.047197 
0.18596 0.0054362 0.027139 0.0079024 -0.006566 0.26192 0.4311 0.075641 
0.089123 0.066598 0.020727 0.020398 -0.039778 0.10178 0.37734 0.096028 
0.052459 0.15867 0.038812 -0.014129 -0.052437 0.10277 0.29267 0.13976 
-0.041586 0.15209 0.057555 0.034209 -0.041751 0.1276 0.27146 0.1756 
-0.13826 0.073668 0.054432 0.011848 -0.047176 0.031742 0.13828 0.12677 
-0.15306 0.0095465 0.042594 0.0028056 -0.030242 -0.058192 -0.068714 -0.00031829 
-0.038627 0.0016547 0.021549 0.020727 -0.048985 -0.050629 -0.2476 -0.066248 
0.016288 -0.069865 -0.0057439 0.014808 -0.044381 -0.10604 -0.27982 -0.059178 
0.016452 -0.10258 -0.0027845 0.049992 -0.028104 -0.17295 -0.21323 -0.035832 
-0.0029489 -0.018404 0.013821 0.032729 -0.027611 -0.17887 -0.24891 -0.067892 
-0.029913 0.10573 0.021713 0.023028 -0.018404 -0.1769 -0.33556 -0.11113 
-0.015116 0.1174 0.030756 0.03651 -0.032379 -0.16111 -0.32915 -0.20468 
0.041772 0.07597 0.01152 0.018589 -0.039284 -0.11343 -0.29741 -0.34049 
0.041443 0.084519 0.038319 0.030098 -0.035996 -0.096007 -0.11574 -0.18117 
0.032564 0.12233 0.079751 0.015959 -0.035667 -0.11557 0.099316 0.097837 
0.01415 0.12973 0.055911 0.0018191 -0.048492 -0.12889 0.17774 0.17577 
0.061337 0.067091 0.042923 0.055911 -0.027282 0.042265 0.17791 0.12628 
0.08304 0.0070803 0.020727 0.0080668 -0.036654 0.16738 0.20158 0.12299 
0.076956 -0.026953 0.010862 0.03651 -0.033201 0.13121 0.14387 0.1636 
0.0034632 -0.0032777 0.0065871 0.024673 -0.034681 0.11987 0.098659 0.10425 
-0.046683 -0.010841 0.031578 0.042429 -0.021363 0.10491 0.038155 0.04095 
0.0028056 0.047691 0.037004 0.063968 -0.013143 0.11329 0.046046 0.032729 
0.12447 0.12135 0.06742 0.030427 -0.02235 0.13812 0.081231 0.14552 
0.21704 0.14963 0.082382 0.038648 0.0023123 0.14831 0.033715 0.12612 
0.1761 0.15949 0.062817 0.029605 -0.024323 0.18859 0.033715 0.025988 
0.11954 0.13121 0.028125 -0.00097594 -0.047176 0.15834 0.037826 -0.058028 
0.082053 0.021384 0.016123 0.027468 -0.043066 0.079422 -0.03205 -0.077428 
0.015794 -0.020212 0.00099702 0.023522 -0.039778 0.062981 0.088301 0.0044497 
-0.045861 0.059035 0.0070803 0.06742 0.0092177 0.056076 0.20421 0.10688 
-0.1039 0.0324 0.0067515 0.040292 -0.021199 -0.037147 0.23479 0.042758 
-0.035996 -0.035832 0.0037921 0.029769 -0.025967 -0.18627 0.24367 0.11181 
-0.057041 -0.080059 0.004943 0.054925 -0.025145 -0.32865 0.10951 0.16673 
-0.16424 -0.10702 0.026481 0.0016547 -0.043888 -0.29824 -0.10571 0.13664 
-0.17706 -0.056877 0.029605 -0.013307 -0.032379 -0.15224 -0.43766 0.15505 
-0.1455 0.051308 0.032729 0.0074092 -0.050629 -0.05441 -0.84475 0.17873 
-0.054904 0.11987 0.022206 -0.0052507 -0.059836 -0.10521 -0.98894 0.038155 
0.017603 0.17577 0.03536 0.037661 -0.03501 -0.036325 -0.7609 -0.2665 
0.013821 0.2126 0.03947 -0.0049219 -0.04619 0.19599 -0.26601 -0.74215 
-0.0027845 0.15555 0.043745 -0.00031829 -0.041257 0.36945 0.54767 -0.68888 
0.043745 0.13878 0.038319 0.0592 -0.01939 0.42453 1.3053 0.037004 
0.16755 0.12184 0.03799 0.072024 0.0064227 0.49079 1.5968 0.66063 
0.34396 0.039141 0.070215 0.090109 0.034373 0.63284 1.4021 0.80432 
0.32012 -0.017417 0.064461 0.050157 -0.0032777 0.48487 0.62988 0.37783 
0.15587 -0.049971 0.038648 0.043416 -0.028104 0.0039565 -0.32388 -0.1723 
0.24104 -0.13777 0.010369 0.071202 -0.021856 -0.35331 -0.73558 -0.15651 
0.31289 -0.17312 -0.018897 0.031085 -0.026131 -0.38998 -0.56311 0.19616 
0.068736 -0.087951 -0.010676 0.031907 -0.012156 -0.28245 -0.25434 0.50049 
-0.26371 -0.041751 -0.0067304 -0.0095255 -0.045203 -0.17131 -0.14237 0.46744 
-0.32158 0.023686 0.020233 -0.025145 -0.061809 -0.013307 -0.10916 0.15045 
-0.20074 0.060515 0.018096 0.0072447 -0.054246 0.21161 -0.15076 -0.27325 
-0.12626 -0.0050863 0.041936 0.020891 -0.035996 0.32604 -0.098967 -0.49192 
-0.17312 -0.031064 0.049664 0.027961 -0.016924 0.28576 -0.11343 -0.67918 
-0.24661 0.033058 0.054103 0.013821 -0.043395 0.15144 -0.21488 -0.6246 
-0.24414 0.051472 0.033222 -0.0021268 -0.055068 0.10672 0.0051074 -0.10078 
-0.015609 0.16031 0.0054362 0.047197 -0.027282 0.14683 0.39148 0.37274 
0.26011 0.41318 0.030098 0.051308 -0.011992 0.15242 0.55458 0.53074 
0.28149 0.37603 0.040456 0.059857 0.022864 0.12135 0.42354 0.37356 
0.11806 0.044238 0.039141 0.060186 0.0023123 0.026974 0.079751 0.070708 
-0.038627 -0.056877 0.061008 0.044567 -0.015116 -0.15848 -0.23 -0.11935 
-0.021856 0.026152 0.051308 0.04095 -0.033365 -0.3178 -0.32109 -0.18019 
0.13039 0.054432 0.041772 -0.025638 -0.064768 -0.27489 -0.028269 -0.039284 
0.18415 -0.049149 0.031742 0.00050378 -0.029584 -0.017088 0.25074 0.07038 
0.1271 -0.16703 0.027961 0.032071 -0.026953 0.26176 0.34676 0.18826 
0.047033 -0.11113 0.021713 0.010369 -0.037311 0.17412 0.18218 0.18909 
0.049664 -0.011498 0.0079024 0.030592 -0.036654 0.068736 -0.031886 0.11806 
0.056733 -0.11212 -0.0013048 0.029769 -0.033365 0.025659 -0.10686 0.085835 
0.10951 -0.32356 -0.0073881 0.036346 -0.024323 -0.029255 -0.11261 0.043909 
0.19402 -0.18463 0.0018191 0.071366 -0.010348 -0.095021 -0.11508 -0.0042642 
0.2001 0.25189 0.071531 0.068571 0.00297 -0.18479 -0.19909 -0.16391 
0.06035 0.45922 0.082217 0.071695 0.01267 -0.37239 -0.35331 -0.22951 
-0.094199 0.39592 0.080244 0.024179 -0.017911 -0.38488 -0.33539 -0.26585 
-0.091075 0.31897 0.052294 -0.0087034 -0.045696 -0.14023 -0.082032 -0.23296 
0.0016547 0.20997 -0.0072237 -0.020212 -0.068386 0.054925 0.017603 -0.11015 
0.092411 0.12957 -0.040271 -0.018404 -0.060494 0.33574 0.15193 0.067913 
0.12513 -0.014293 0.018425 0.021878 -0.018075 0.69877 0.44327 0.26948 
-0.053588 -0.046354 0.04917 0.024837 -0.024323 0.81748 0.6136 0.27195 
-0.25072 -0.054082 0.081067 0.076627 0.0082312 0.90807 0.57842 0.073997 
-0.27374 -0.066248 0.082875 0.078436 0.0079024 0.61771 0.4556 0.034866 
0.0059294 -0.059178 0.044731 0.021713 -0.046519 -0.14615 0.21589 0.12349 
0.19517 -0.00064712 0.027303 0.01267 -0.053588 -0.68757 -0.11426 0.24433 
0.2149 0.031742 0.035524 0.020562 -0.052602 -0.77553 -0.41563 0.21868 
0.1516 -0.015609 0.060515 0.017932 -0.039942 -0.69332 -0.51625 0.15538 
0.12595 -0.086636 0.016616 0.041936 -0.024816 -0.43174 -0.44358 0.11165 
0.17939 -0.10456 -0.01939 -0.021034 -0.054082 -0.22672 -0.56064 -0.18167 
0.23874 -0.017582 -0.017253 -0.031064 -0.045696 -0.087951 -0.51395 -0.33178 
0.26833 0.18087 0.030592 0.034702 -0.029584 0.16146 -0.11245 -0.11508 
-0.069208 0.36912 0.08156 0.063803 0.0044497 0.40463 0.053281 -0.067564 
-0.62608 0.39428 0.075148 0.090767 0.017932 0.3997 0.098166 -0.087622 
-0.64416 0.29185 0.058377 0.03799 -0.016431 0.064625 0.159 0.1396 
-0.15421 0.17692 0.057062 -0.0027845 -0.050793 -0.28788 0.16574 0.27984 
0.2976 0.12891 0.053774 0.0092177 -0.066906 -0.45985 0.27606 0.12464 
0.41055 0.066927 0.057062 -0.022185 -0.072167 -0.38274 0.44656 -0.081539 
0.23446 -0.068386 0.0019835 0.032564 -0.02942 -0.068879 0.4436 -0.20123 
-0.0044286 -0.20962 -0.0072237 0.025988 -0.014951 0.20701 0.3221 -0.19794 
-0.15125 -0.11146 0.020398 0.036675 -0.011005 0.37422 0.012999 0.0014903 
-0.10456 -0.02942 0.052623 0.08567 0.0070803 0.38523 -0.19827 0.065776 
0.13302 -0.11886 0.059035 0.065447 0.00297 0.23545 -0.27259 0.088465 
0.26176 -0.065755 0.030756 0.042594 -0.016431 0.071366 -0.11508 0.13762 
0.1539 0.031414 0.022371 0.00099702 -0.042737 -0.00097594 -0.034188 0.17133 
0.08715 0.037661 0.063145 0.026152 -0.031886 0.076956 0.053281 0.21506 
0.077614 0.053281 0.030098 -0.0098543 -0.060494 0.11707 0.20306 0.31749 
0.018425 0.09274 -0.038956 -0.073811 -0.11179 0.12579 0.28741 0.27968 
-0.016266 0.086328 -0.047998 -0.039449 -0.084663 0.13746 0.29464 0.14864 
-0.0026201 0.080902 -0.0087034 0.0011614 -0.071674 0.15259 0.22986 0.074983 
-0.0013048 0.10343 0.027632 0.037661 -0.038298 0.11905 0.11855 0.060844 
-0.0039354 0.081724 0.054596 0.088794 -0.016266 -0.068221 -0.00015387 -0.025474 
-0.076442 0.037168 0.050979 0.060844 -0.014129 -0.29511 -0.13991 -0.13218 
-0.16309 0.016288 0.06331 0.047855 0.013328 -0.35447 -0.1723 -0.21685 
-0.21998 -0.023007 0.062817 0.053116 -0.0011404 -0.22228 -0.13136 -0.22852 
-0.1376 -0.063289 0.071202 0.042594 -0.0027845 -0.091568 -0.084991 -0.10176 
-0.0026201 -0.025967 0.049335 0.067585 -0.0029489 -0.038298 -0.013143 0.023028 
0.058213 -0.0034422 0.035853 0.035031 -0.012978 -0.025967 0.0065871 0.08008 
0.090931 0.046211 -0.003771 0.018425 -0.012649 -0.010676 0.052623 0.098494 
0.16673 0.12825 -0.018404 0.0042853 -0.042737 0.061172 0.11806 0.049664 
0.29069 0.20208 -0.017253 -0.012485 -0.053095 0.20092 0.14617 0.039963 
0.30105 0.21671 -0.010676 0.05624 -0.023829 0.31864 0.25008 0.089123 
0.13105 0.10063 0.034537 0.047526 -0.014951 0.25123 0.12875 0.13351 
-0.029584 -0.093705 0.045553 0.056076 -0.015938 0.071531 -0.1912 0.10573 
-0.19531 -0.28081 0.034702 0.04358 -0.031228 -0.10193 -0.39097 -0.015773 
-0.2351 -0.22869 0.033551 0.0088889 -0.04323 -0.16342 -0.30629 -0.11853 
-0.16687 -0.070523 0.01826 0.028619 -0.023994 -0.1256 -0.056712 -0.2009 
-0.035338 0.050157 0.024508 0.01974 -0.033201 -0.069701 0.2782 -0.087129 
0.041936 0.13187 0.025166 0.026974 -0.02794 -0.008539 0.56675 0.18498 
0.15949 0.13812 0.03092 0.048184 -0.014458 0.072517 0.7185 0.39904 
0.2583 0.14239 0.039634 0.037168 -0.018404 0.10852 0.53732 0.34594 
0.40891 0.17758 0.067913 0.031578 -0.0019624 0.073668 0.18761 0.19566 
0.57398 0.1077 0.066434 0.0080668 -0.03353 0.03536 -0.080223 0.059857 
0.55474 0.011848 0.083368 0.0042853 -0.041586 0.075312 -0.16506 0.020233 
0.3101 -0.0044286 0.05772 0.038155 -0.040106 0.063803 -0.32306 -0.0024557 
-0.0016336 0.00033937 0.039963 0.019905 -0.045368 -0.053588 -0.52414 -0.02646 
-0.27357 -0.0027845 0.016452 0.015959 -0.024158 -0.22655 -0.72308 -0.091075 
-0.46002 -0.0021268 -0.0064016 0.023028 -0.041093 -0.35134 -0.64778 -0.16342 
-0.53022 -0.0047575 -0.021199 0.021384 -0.038462 -0.39951 -0.30268 -0.36499 
-0.35611 0.033387 0.011191 0.035853 -0.041093 -0.39475 0.035524 -0.29659 
-0.01528 0.12381 0.017274 0.0065871 -0.041422 -0.17164 0.28691 0.092576 
0.23841 0.1567 0.029112 0.015465 -0.022514 0.13253 0.45675 0.30664 
0.35646 0.13582 0.061008 0.050979 -0.012978 0.37553 0.32966 0.26291 
0.36945 0.1026 0.064625 0.02533 -0.019884 0.57908 0.27228 0.093398 
0.22805 0.015794 0.064954 0.078436 0.00297 0.68216 0.20635 -0.23757 
0.07597 -0.063618 0.018918 0.038812 -0.019884 0.44442 0.13072 -0.19416 
0.017932 -0.052437 0.0070803 0.011848 -0.045039 0.12085 0.042923 -0.018404 
0.16886 0.034044 0.027303 0.041114 -0.029913 0.01004 0.028619 0.18103 
0.17133 0.089616 0.042923 0.035524 -0.026296 -0.094692 0.044402 0.23167 
-0.02498 0.14091 0.067913 0.051308 -0.018733 -0.20584 0.022371 0.10228 
-0.13744 0.14289 0.055582 0.026974 -0.025145 -0.12198 0.092576 0.075805 
-0.076935 0.094384 0.026481 0.0026412 -0.043724 -0.034845 0.24745 0.19024 
0.011191 0.085012 0.029276 0.016288 -0.056548 -0.052273 0.13467 0.090274 
0.06035 0.06742 0.0031344 -0.016431 -0.067728 -0.090581 -0.19137 -0.048985 
-0.065919 0.062981 0.0028056 -0.0026201 -0.042573 -0.057863 -0.32931 -0.16309 
-0.0965 0.08156 0.012835 -0.01232 -0.063618 0.012506 -0.18907 -0.10719 
0.014315 0.043416 0.033551 0.011355 -0.044874 0.10803 -0.044381 0.036675 
0.16278 0.033058 0.076134 0.064132 -0.020541 0.23151 0.017767 0.16919 
0.13434 0.026317 0.06742 0.046868 -0.014293 0.23216 0.0098754 0.18909 
0.0083956 0.0054362 0.069558 0.066598 0.016452 0.11017 -0.017911 0.062981 
-0.0057439 0.024015 0.043251 0.042594 -0.011498 0.035853 -0.00015387 -0.098802 
0.067091 0.052952 0.038812 0.021549 -0.026624 0.0039565 -0.0024557 -0.17575 
