0.034702 0.099645 0.082546 0.02829 -0.031721 0.019905 0.0093821 0.024179 
0.020562 0.037004 0.091918 0.054103 -0.018404 -0.0029489 0.026974 0.031578 
0.020398 -0.025638 0.064132 0.029934 -0.024487 0.02681 0.01267 0.0070803 
0.024837 -0.051451 0.014315 0.041772 -0.016924 0.039799 0.00050378 0.018754 
0.043909 0.078929 0.0056006 0.027468 -0.035832 0.011684 0.042429 0.048184 
0.06594 0.15275 0.0080668 -0.0021268 -0.049642 0.044731 0.048348 0.062159 
0.085012 0.035853 0.029769 0.00050378 -0.048492 0.040456 0.040456 0.06742 
0.064954 -0.084827 0.035688 -0.012156 -0.061645 0.01974 0.029769 -0.0073881 
0.02829 -0.098309 0.0087245 -0.0024557 -0.059507 0.031249 0.041114 0.019247 
-0.0088678 -0.0022913 0.032893 0.032729 -0.051615 0.023686 0.03799 0.013657 
-0.028926 0.14141 0.076956 0.033387 -0.033859 0.016781 0.019247 0.0062583 
-0.028104 0.21441 0.077614 0.039305 -0.018075 0.056404 0.028619 0.02533 
-0.026953 0.18119 0.030592 0.023522 -0.026131 0.032729 0.016288 0.0065871 
-0.062631 0.18103 0.04654 0.03947 -0.017088 0.01267 0.0046141 0.05065 
0.054267 0.19698 0.040456 0.073832 -0.0075525 0.044731 0.065283 0.089616 
0.18037 0.098166 -0.029748 0.048184 -0.0070593 0.051308 0.045389 0.085177 
0.17971 -0.023994 -0.031721 0.035688 -0.0032777 0.0227 0.025659 0.044073 
0.10672 -0.11886 -0.03057 0.012177 -0.032215 0.005765 0.044567 0.0227 
0.047197 -0.16769 0.025495 0.0074092 -0.041915 0.0087245 0.015959 0.0042853 
-0.045861 -0.21307 0.076463 0.053116 -0.018239 0.015465 -0.014951 0.025659 
-0.090581 -0.12494 0.07038 0.018096 -0.033694 0.013492 0.016945 0.031414 
-0.070194 0.021878 0.047197 0.013492 -0.019719 0.023851 0.027139 0.022042 
-0.026296 0.12085 -0.00064712 0.027139 -0.029913 0.022535 0.033387 0.034866 
0.0044497 0.10211 -0.035667 0.012835 -0.038133 0.03092 0.034044 0.031578 
0.026974 0.071531 0.00066819 0.039963 -0.039778 0.02829 0.038977 0.007738 
0.055911 0.089287 0.052294 -0.00097594 -0.053917 -0.0013048 0.01826 0.0080668 
0.059857 0.071531 0.077449 0.010862 -0.025474 0.0065871 0.0034632 0.016781 
0.041772 -0.034023 0.060679 0.018096 -0.041586 0.030098 0.037661 0.0083956 
0.024673 -0.10078 0.042923 0.032071 -0.027775 0.033551 0.017603 0.041936 
0.019247 -0.047012 0.023851 0.025988 -0.044381 0.045882 0.045882 0.070873 
0.053445 0.00297 0.051801 0.020069 -0.037969 0.037332 0.037168 0.030592 
0.081724 0.034209 0.062652 0.06479 0.020233 0.025988 0.023686 0.054432 
0.07038 0.048019 0.051636 0.049006 0.0018191 0.027632 0.027139 0.030756 
0.063474 0.051308 0.0060938 0.044238 -0.0078813 0.042923 0.04506 0.042758 
0.012013 0.11954 -0.046683 0.050321 -0.017088 0.02681 0.050321 0.040128 
-0.0032777 0.19435 -0.053753 0.051143 -0.011498 0.027303 0.019905 0.024837 
-0.049149 0.13319 -0.0070593 0.018425 -0.009361 0.027961 0.020069 0.01152 
-0.0068948 0.10902 0.041936 0.037332 -0.034352 -0.021199 0.023193 -0.011992 
0.062159 0.16492 0.084848 0.0075736 -0.042737 -0.0029489 0.0044497 0.0082312 
0.10721 0.13993 0.10244 0.0421 -0.036654 0.026481 0.016123 0.037497 
0.081231 0.061172 0.077285 0.010369 -0.04471 0.014643 0.044402 0.013164 
0.029112 -0.0026201 0.020233 0.004943 -0.041257 0.0227 -0.0029489 0.011355 
0.018754 -0.0078813 -0.013965 0.010697 -0.052273 0.027961 0.0042853 0.011355 
0.023686 0.025166 -0.028104 -0.00097594 -0.053588 -0.014129 0.01152 -0.031721 
0.01004 0.080409 0.024837 0.036346 -0.035338 -0.0042642 0.0054362 -0.010348 
-0.012485 0.063474 0.08978 0.058542 -0.009361 0.030592 0.018589 0.011848 
0.044073 0.084519 0.13598 0.055911 -0.0027845 0.029934 0.063474 0.056569 
0.077943 0.041114 0.1276 0.060844 -0.011498 0.014315 0.061008 0.059857 
0.06183 -0.11919 0.067256 0.034866 -0.018568 0.037661 0.029769 0.032729 
0.052623 -0.16638 0.053609 0.030427 -0.013965 0.019411 0.025824 -0.016102 
0.013657 -0.078579 0.024015 0.0074092 -0.037311 0.017438 0.029112 0.015794 
0.019083 0.046868 -0.010348 0.004943 -0.042737 0.054432 0.030592 0.039634 
0.018096 0.082546 -0.025638 0.043087 -0.033859 0.038812 0.038648 0.074654 
0.049664 0.092247 -0.053424 0.013164 -0.038956 0.017438 0.032729 0.049499 
0.069064 0.14831 -0.033694 0.030263 -0.021856 0.027961 0.012342 0.0079024 
0.062817 0.18251 0.0088889 0.026646 -0.028433 0.019576 -0.014293 -0.0044286 
0.0067515 0.14042 0.050157 0.03799 -0.023336 0.0070803 0.02533 -0.012156 
-0.016595 0.063474 0.072188 0.059364 -0.017088 0.019576 0.031414 0.013986 
-0.011005 0.035853 0.063803 0.01826 -0.03205 0.028125 0.0052718 0.020398 
0.0095465 0.034373 0.054267 0.0062583 -0.034845 -0.011005 0.033715 0.014479 
0.041278 -0.0050863 0.079916 0.004943 -0.046683 0.022042 0.030592 0.043251 
0.066434 -0.033365 0.063145 0.0080668 -0.049642 0.025988 0.016123 0.068242 
0.066763 0.016288 0.047033 0.056076 -0.02794 0.025824 0.031578 0.046046 
0.078272 0.080738 0.041114 0.050157 -0.014787 0.02533 0.021713 0.056404 
0.089616 0.10113 0.013492 0.027303 0.0021479 0.036017 0.020891 0.042758 
0.061172 0.099316 -0.014787 0.011684 -0.03501 0.012177 0.03092 0.038977 
0.07449 0.047855 -0.015116 -0.0016336 -0.051451 0.023522 0.045553 0.037004 
0.077121 0.012835 0.024344 0.026974 -0.052602 0.023522 0.010369 0.016452 
0.055747 0.039634 0.060022 0.011191 -0.050958 0.033058 0.01152 0.028947 
0.010533 0.063803 0.055911 0.023851 -0.031392 0.013492 0.058213 0.023357 
1.0539e-005 0.082382 0.019247 0.032893 -0.03764 0.033715 0.017438 0.019247 
-0.02646 0.10244 -0.021199 0.021056 -0.034352 -0.00064712 0.014808 0.0011614 
-0.019061 0.044567 -0.049314 0.028947 -0.041093 0.0028056 0.033715 0.011848 
-0.014622 -0.001798 0.024344 0.016452 -0.049314 -0.0095255 0.021384 0.030756 
-0.020541 0.0036276 0.090931 0.020233 -0.018568 0.015465 0.019905 0.036017 
-0.012156 -0.074962 0.12233 0.023028 -0.042408 0.0060938 0.043909 0.01974 
-0.01939 -0.098967 0.11181 0.019411 -0.039449 0.036839 0.016616 0.045224 
0.02122 -0.02087 0.08863 0.038977 -0.031228 0.023357 0.01826 0.068736 
0.087314 0.0098754 0.12842 0.034209 -0.026624 0.031249 0.03799 0.044896 
0.10918 0.052459 0.14354 0.030592 -0.0072237 0.023357 0.032071 0.0324 
0.071859 0.085506 0.12003 0.021878 -0.031392 0.020233 0.016452 0.028619 
0.046375 0.035688 0.05624 0.0046141 -0.045203 0.022206 0.010533 0.010533 
0.046375 0.017438 0.033222 0.052952 -0.026296 0.014972 0.017438 0.022371 
0.039141 0.087479 0.026481 0.028783 -0.023007 -0.0029489 0.014315 0.0018191 
0.03799 0.096686 0.012342 0.021384 -0.024158 0.010369 0.020562 0.010533 
0.034209 0.09126 0.019905 0.044567 -0.023829 0.049664 0.060679 0.054103 
0.031578 0.046868 -0.0049219 0.005765 -0.040106 0.042758 0.037332 0.047033 
-0.00064712 0.01152 -0.051451 0.029441 -0.029584 0.042265 0.03947 0.051636 
-0.037969 0.024179 -0.072496 0.0024767 -0.045368 0.06035 0.052952 0.043745 
-0.030406 0.066105 -0.083018 -0.0024557 -0.052273 0.029934 0.033387 0.026481 
0.018918 0.044402 -0.11557 0.043087 -0.039613 0.0014903 0.021878 0.023686 
0.044402 0.048513 -0.095021 0.045224 -0.021692 0.041607 0.074654 0.043416 
0.064625 0.041936 -0.10653 0.046868 -0.0096899 0.020891 0.03536 0.031085 
0.050979 -0.008539 -0.121 0.016945 -0.030077 0.009711 0.018425 0.030756 
-0.0068948 -0.045532 -0.038956 0.0083956 -0.040928 0.016123 0.0031344 0.004943 
-0.010348 -0.0052507 0.029934 0.038648 -0.032872 0.00017495 0.030427 -0.00015387 
0.0070803 0.0039565 0.096357 0.017438 -0.034188 0.024344 0.017274 0.02829 
0.04506 0.048841 0.15818 0.057062 0.00017495 0.052952 0.020069 0.03947 
0.1003 0.084355 0.2098 0.044402 -0.010183 0.026317 0.050979 0.050979 
0.095864 0.067913 0.20027 0.036346 -0.016431 0.027961 0.018754 0.04654 
0.070544 0.012835 0.15604 0.046211 -0.023665 0.028783 0.0090533 0.025988 
0.056898 0.040621 0.087972 -0.0026201 -0.047341 0.015465 0.028947 0.017274 
0.062488 0.036346 0.022206 0.0062583 -0.030406 0.014643 0.011684 0.0095465 
0.037826 0.049006 -0.021856 0.014808 -0.039613 0.025166 0.015137 0.00083261 
0.017603 0.10162 -0.036489 0.0067515 -0.045532 0.016781 0.027468 0.025988 
0.012506 0.14338 0.014315 0.065118 -0.027611 0.037332 0.041443 0.036675 
0.024673 0.1544 0.019905 0.014972 -0.039284 0.046375 0.031742 0.042758 
-0.0077169 0.13812 0.01974 0.015465 -0.016102 0.022206 0.038812 0.039634 
-0.11919 0.039799 0.01415 0.025166 -0.039942 0.0021479 0.035853 -0.0042642 
-0.13004 -0.053588 -0.0047575 0.012506 -0.03616 0.013328 -0.003771 0.016781 
-0.0016336 0.015137 -0.0016336 0.047526 -0.025145 0.018918 0.028947 0.041936 
0.10145 0.12398 0.064132 0.06479 -0.0062372 0.0042853 0.033387 0.01267 
0.11757 0.18728 -0.0067304 0.037826 0.0052718 0.024673 0.030592 0.031414 
0.086657 0.16886 -0.028762 0.051143 -0.020541 -0.0024557 0.0052718 0.0067515 
0.071859 0.045389 -0.064604 -0.0075525 -0.048492 -0.0021268 0.020891 -0.0034422 
0.055089 -0.09239 -0.086471 0.02829 -0.054246 -0.0062372 0.0067515 0.0069159 
0.054432 -0.1159 -0.071016 0.0074092 -0.051122 0.0051074 0.019247 0.018754 
0.045553 -0.10702 0.024508 0.01152 -0.020706 0.027303 0.041936 0.013821 
0.051143 -0.020377 0.089945 0.060186 -0.014458 0.031907 0.038977 0.04654 
0.023686 0.080573 0.13171 0.062817 -0.00015387 0.056898 0.046375 0.060515 
0.005765 0.12513 0.15324 0.08156 0.0060938 0.038155 0.056898 0.068078 
0.0070803 0.14157 0.1322 0.058049 0.00017495 0.047033 0.057555 0.090767 
0.0093821 0.11773 0.12858 0.037004 -0.0022913 0.03092 0.022535 0.031907 
-0.003771 0.049006 0.11937 0.025495 -0.029748 -0.011334 0.0044497 0.015794 
0.007738 0.060515 0.086163 0.012506 -0.039778 0.0082312 0.024344 -0.0022913 
0.043745 0.12266 0.073175 0.047033 -0.028269 0.023686 0.016616 -0.00015387 
0.046704 0.10984 0.073668 0.036182 -0.026953 0.010533 0.0060938 0.037332 
0.051965 0.095699 0.059035 0.045224 -0.01528 0.0079024 0.027796 0.029441 
0.040292 0.12644 0.022206 0.044402 -0.026131 0.02681 0.00297 0.0023123 
0.024015 0.1031 0.0070803 0.029934 -0.023007 0.034044 0.011026 0.032071 
-0.008539 0.072846 0.00083261 0.049828 -0.011498 0.016288 0.049992 0.020891 
-0.015609 0.08715 -0.023336 0.013986 -0.030899 0.034209 0.038319 0.035195 
-0.0091966 0.017932 -0.047012 -0.0055795 -0.050958 0.023851 0.012835 0.040456 
0.0046141 0.0067515 -0.066084 -0.0070593 -0.076606 0.009711 0.027796 0.013328 
0.031742 0.034702 -0.021363 -0.031392 -0.083676 0.031907 0.01974 0.017438 
0.044238 0.031742 0.035524 0.017438 -0.049807 0.017767 0.023028 0.025001 
0.041114 0.013492 0.046046 -0.0095255 -0.059507 0.023028 0.025824 0.02533 
0.028619 0.007738 0.069558 0.0064227 -0.051944 0.047855 0.044731 0.058377 
0.025166 -0.024158 0.080738 0.023522 -0.049971 0.03092 0.027796 0.031742 
0.044731 0.0087245 0.089616 0.0227 -0.041422 0.019083 0.028619 0.038155 
0.045389 0.097837 0.10754 0.04917 -0.0068948 0.042758 0.031578 0.040456 
0.085012 0.13006 0.099152 0.04358 -0.011663 0.032236 0.025166 -0.011498 
0.055747 0.067256 0.05065 0.021056 -0.027775 0.0041209 0.0087245 0.0088889 
0.028783 -0.0083746 0.060186 0.036182 -0.03353 0.022371 0.012999 0.01152 
0.020069 -0.0060728 0.059364 0.018425 -0.037147 0.012835 -0.003771 0.022535 
0.04095 0.086328 0.078765 0.059528 -0.00031829 0.015465 0.0032988 0.031742 
0.058871 0.079916 0.06035 0.037497 -0.012485 0.014479 0.023028 0.013492 
0.029605 -0.094363 0.0072447 0.023522 -0.02498 -0.00031829 0.012835 -0.0026201 
0.012999 -0.077428 -0.03353 0.051143 -0.023665 0.0069159 0.021713 0.039141 
0.035524 0.062488 -0.018075 0.023851 -0.034188 0.074654 0.030592 0.021878 
0.069393 0.055254 -0.035667 0.015137 -0.01676 0.059693 0.056733 0.077449 
0.10408 -0.037311 -0.069208 -0.017911 -0.063946 0.036017 0.072846 0.1128 
0.061008 -0.011334 -0.059672 -0.017746 -0.06855 0.058706 0.051801 0.064954 
0.051472 0.023522 -0.013965 0.041278 -0.050136 0.060515 0.065612 0.068078 
0.033058 0.025495 0.020398 0.016288 -0.043066 0.024673 0.027468 0.045553 
0.0592 0.035031 0.046704 0.049992 -0.00064712 0.026152 0.0011614 0.035031 
0.064954 -0.0026201 0.075476 0.035688 -0.02235 0.01563 0.033387 0.043087 
0.056569 -0.0013048 0.070544 0.038155 -0.017417 0.012835 0.015959 0.017932 
0.049828 -0.0503 0.021549 0.047197 -0.020048 0.0059294 0.0044497 0.013164 
0.024837 -0.1455 0.0046141 0.0019835 -0.045368 0.0069159 0.018096 0.031742 
-0.014293 -0.18989 0.016616 -0.011663 -0.036983 -0.0067304 -0.00064712 -0.0050863 
-0.010348 -0.028597 0.043909 0.011026 -0.05441 0.027961 0.0062583 0.0014903 
-0.003771 0.11477 0.084848 0.01152 -0.048163 0.024344 0.0227 0.013821 
-0.0088678 0.19122 0.062981 0.053609 -0.027447 0.0227 0.020398 0.010533 
-0.062631 0.18087 0.037168 0.030427 -0.029584 0.011355 0.010697 -0.0070593 
-0.087786 0.11329 0.033715 0.034866 -0.0057439 -0.0022913 0.014315 -0.011498 
0.051308 0.16837 0.058542 0.06183 -0.0091966 0.01711 0.041936 0.03799 
0.21917 0.2468 0.086328 0.033058 -0.02087 0.049335 0.051965 0.10672 
0.22756 0.10984 0.034209 0.031085 -0.032708 0.034044 0.046375 0.071037 
0.10244 -0.017911 -0.03501 -0.028104 -0.071181 -0.0068948 0.025001 0.024673 
-0.0054151 -0.077264 -0.02942 -0.011992 -0.064275 -0.019719 0.0080668 0.0028056 
-0.093376 -0.1381 0.0024767 0.024344 -0.049149 0.018096 0.01974 0.0036276 
-0.086142 -0.11738 0.028783 0.039305 -0.028269 0.020891 0.049335 0.023357 
-0.0088678 -0.039778 0.044402 0.075476 0.0054362 0.029441 0.01711 0.017603 
0.058706 0.010862 0.045224 0.051965 -0.0013048 0.04095 0.01267 0.017767 
0.08156 0.024508 0.053116 0.037332 -0.012485 0.032071 0.044731 0.031742 
0.059693 0.08419 0.085999 0.05476 -0.01676 0.027961 0.041114 0.011026 
0.063803 0.085999 0.095699 0.027139 -0.028926 0.044731 0.014643 0.020233 
0.083368 0.071531 0.0324 0.0421 -0.010841 0.025824 0.033058 0.046868 
0.078436 0.061501 0.025001 0.010204 -0.034023 0.023686 0.04095 0.020398 
0.0060938 0.091425 0.0052718 0.010204 -0.039778 0.039799 0.036182 0.047526 
-0.084334 0.15127 0.016452 0.066105 -0.010676 0.047691 0.060022 0.10556 
-0.11952 0.1493 0.015301 0.039305 -0.017088 0.030592 0.059693 0.068078 
-0.062467 0.14371 0.034044 0.038977 -0.012649 0.033058 0.029605 0.040621 
-0.01232 0.14552 0.063145 0.019576 -0.030242 0.0087245 0.0092177 0.01711 
0.043251 0.15078 0.10885 0.014643 -0.037476 -0.0078813 0.019576 -0.0080457 
0.082875 0.13779 0.10425 0.015959 -0.05326 0.0085601 0.0051074 -0.0054151 
0.10293 0.11428 0.091589 0.00050378 -0.054739 0.0060938 0.0059294 -0.0082102 
0.093233 0.075476 0.036346 0.017767 -0.031886 -0.0047575 0.041278 0.046704 
0.050814 -0.061316 -0.0019624 -0.0021268 -0.049971 0.0075736 0.0062583 0.020562 
-0.0082102 -0.18348 -0.04323 -0.026131 -0.070852 -0.012485 -0.0016336 -0.028269 
-0.02942 -0.13415 -0.034845 0.014479 -0.064604 -0.015938 -0.00064712 -0.00081153 
0.0062583 -0.0013048 0.0056006 0.013164 -0.05178 0.018096 0.021056 0.012835 
0.049664 0.11099 0.057227 0.03947 -0.0088678 0.015465 0.0227 0.02533 
0.079751 0.16919 0.1077 0.045389 -0.011005 0.03092 0.041607 0.056569 
0.082546 0.14864 0.095699 0.043745 -0.011005 0.060022 0.062488 0.068407 
0.025001 0.076956 0.061995 0.050486 -0.020377 0.036182 0.044567 0.03388 
-0.037147 0.0227 -0.0031133 0.022206 -0.031886 0.048184 0.040292 0.046868 
-0.021199 0.019083 0.0067515 0.034537 -0.0027845 0.0689 0.054596 0.029605 
0.0021479 0.09981 0.052294 0.052459 -0.0082102 0.05772 0.042265 0.02681 
0.033222 0.17051 0.057555 0.038648 -0.013965 0.037168 0.012177 0.051308 
0.046704 0.13812 0.023028 0.038319 -0.031886 0.025824 0.02681 0.021878 
0.020398 0.029934 -0.03057 -0.020377 -0.063782 -0.0080457 -0.0047575 -0.0070593 
-0.03205 -0.027282 -0.013636 -0.0026201 -0.035996 -0.0039354 -0.0138 -0.003771 
-0.057041 -0.044546 0.022371 0.03092 -0.035174 0.014643 0.038483 0.025659 
0.0046141 -0.015773 0.070215 0.031578 -0.027118 0.010533 0.022206 0.042758 
0.063145 0.014479 0.043745 0.038648 -0.032708 -0.006566 -0.009361 0.054596 
0.10244 0.031249 -0.023501 0.0065871 -0.042901 0.024344 0.0324 0.041278 
0.10836 0.035853 -0.050464 0.0042853 -0.010512 0.029112 0.062159 0.039305 
0.067256 0.10326 -0.03353 0.044073 -0.019884 0.026646 0.034209 0.01974 
0.054925 0.1567 -0.0036066 0.016123 -0.031886 0.033058 0.01415 0.0060938 
0.061337 0.11444 0.056569 0.056733 -0.021692 0.038319 0.043909 0.030263 
0.025495 -0.0087034 0.11576 0.033715 -0.03057 0.054432 0.029769 0.024837 
-0.041257 -0.032543 0.10474 0.035853 -0.0034422 0.020398 0.026317 0.032729 
-0.044217 0.034702 0.092247 0.034373 -0.029913 0.011684 0.035853 0.037004 
0.031249 0.095206 0.10063 0.02533 -0.031064 0.011355 0.018425 0.01152 
0.055418 0.03092 0.072353 0.049828 -0.019719 0.022371 -0.022514 0.022206 
0.046704 -0.022514 0.036675 0.034373 -0.023007 0.026974 0.031414 0.017767 
-0.0082102 -0.0052507 0.0065871 0.031085 -0.025967 0.011191 0.0080668 0.01974 
0.0031344 -0.00015387 -0.031886 0.014808 -0.048656 0.0067515 0.015465 0.024673 
0.0098754 0.023686 -0.02087 -0.0049219 -0.055232 0.013492 0.028454 0.023193 
0.013657 0.14157 0.0092177 0.038648 -0.033694 0.018096 0.016123 0.0026412 
0.070873 0.2269 0.0421 0.017274 -0.037969 -0.0060728 0.0067515 0.021713 
0.14634 0.26521 0.034209 0.026152 -0.030077 0.038155 0.026317 0.044238 
0.18169 0.1345 0.017603 0.04654 -0.042737 0.045389 0.056898 0.085506 
0.10836 -0.070359 -0.010841 0.01152 -0.044217 0.038319 0.051472 0.085506 
0.032071 -0.20189 -0.063289 -0.018239 -0.053424 0.037826 0.014808 0.048348 
-0.036325 -0.21011 -0.08121 -0.044381 -0.084991 0.0032988 0.022042 0.019083 
-0.047505 -0.090088 -0.053753 0.0014903 -0.064111 -0.019226 0.0047785 0.00099702 
-0.06148 0.073997 0.052952 0.057227 -0.03353 0.041443 0.043909 0.024673 
-0.072003 0.25222 0.13861 0.088958 0.0014903 0.047526 0.070544 0.059364 
0.025166 0.31207 0.15653 0.10441 0.040128 0.036017 0.062652 0.043416 
0.08304 0.1807 0.079422 0.068242 0.0062583 0.039634 0.045224 0.036182 
0.11543 0.14798 0.077285 0.038155 -0.0091966 0.0056006 0.044238 0.020069 
0.12217 0.10326 0.054925 0.052787 -0.0068948 -0.014951 0.00297 -0.0021268 
0.10984 0.056076 0.031249 0.024508 -0.023994 0.023851 0.007738 0.016945 
0.056569 -0.00064712 0.015301 0.031249 0.005765 0.012013 0.013657 0.0056006 
-0.044381 -0.16638 -0.04471 0.029934 -0.017746 0.015301 0.029276 0.019905 
-0.09239 -0.36006 -0.091404 0.020069 -0.029255 0.056404 0.019247 0.024508 
-0.08121 -0.26453 -0.10193 0.021878 -0.044217 0.02681 0.031085 0.025824 
-0.036325 -0.065262 -0.036983 0.012177 -0.045039 0.024508 0.040292 0.022864 
0.039305 0.0324 0.037332 0.020398 -0.014951 0.033058 0.025001 0.04358 
0.10655 0.078436 0.095864 0.025824 -0.026296 0.026974 -0.0077169 0.024179 
0.11724 0.098823 0.10655 0.032071 -0.024158 0.0031344 0.03092 0.03536 
0.10211 0.10589 0.10721 0.035853 -0.033694 0.016616 0.025166 0.047362 
0.043745 0.056404 0.064954 0.02533 -0.033201 0.023686 0.039305 0.052623 
0.024179 0.011355 -0.0059084 0.013821 -0.010348 0.034702 0.07597 0.072024 
-0.0080457 -0.013471 -0.0095255 0.0064227 -0.039449 0.069064 0.048841 0.053609 
-0.013143 -0.0082102 0.034044 0.039963 -0.027118 0.065447 0.051308 0.067585 
-0.0082102 0.0090533 0.051308 0.034702 -0.032379 0.048184 0.044073 0.05624 
-0.0024557 0.041443 0.058871 -0.0083746 -0.053753 0.043745 0.027139 0.0054362 
0.035853 0.11888 0.049499 0.024015 -0.018239 0.00017495 -0.00081153 0.012013 
0.080244 0.15522 0.050979 0.044073 -0.024323 0.0011614 0.0064227 0.027961 
0.080573 0.082711 0.060679 0.038977 -0.018733 0.010697 0.0088889 0.012013 
0.042758 0.048184 0.074161 0.076956 -0.0090322 0.007738 0.0037921 0.030427 
0.030098 0.012177 0.039634 0.033715 -0.017417 -0.00015387 -0.0004827 0.019411 
0.017767 -0.03353 0.013821 0.016452 -0.010348 0.0087245 0.025166 0.014808 
-0.013143 -0.078744 -0.059507 0.028125 -0.031721 0.0019835 0.011848 0.017603 
-0.023501 -0.091239 -0.096994 0.00099702 -0.047669 -0.0036066 0.012835 0.012999 
-0.024487 -0.074304 -0.013636 0.01152 -0.048492 0.0023123 0.017438 0.012177 
0.0011614 -0.02235 0.10195 -0.020377 -0.069701 0.0095465 0.022864 0.021056 
0.030263 0.0018191 0.11757 0.015137 -0.050958 0.020891 0.026317 0.017603 
0.049992 -0.041586 0.079422 0.022535 -0.044546 0.056569 0.065612 0.055911 
0.04095 -0.063453 0.045718 0.024673 -0.036818 0.05476 0.046704 0.043745 
0.059857 0.037497 0.0227 0.047197 -0.025309 0.03536 0.040456 0.030592 
0.068407 0.15522 0.0093821 0.02829 -0.025967 0.026317 0.027139 0.02533 
0.066927 0.24532 -0.02087 0.054267 -0.010348 0.037004 0.039799 0.034866 
0.048513 0.24548 0.0064227 0.075641 -0.0027845 0.041772 0.056733 0.077449 
0.048019 0.13088 0.060515 0.06331 0.0060938 0.039799 0.054103 0.076463 
0.037168 -0.012485 0.075312 0.04917 -0.0067304 0.05065 0.055582 0.057062 
0.054596 -0.061316 0.062488 -0.023501 -0.055561 0.029769 0.0028056 0.01152 
0.087314 -0.019719 0.047362 -0.031557 -0.074304 -0.0073881 -0.0057439 0.004943 
0.099645 0.087643 0.065118 0.014643 -0.073976 -0.014129 -0.0029489 -0.043888 
0.059693 0.14996 0.082053 0.012835 -0.055232 -0.0098543 -0.0054151 -0.0055795 
0.020069 0.11576 0.060844 0.031742 -0.03764 -0.022021 -0.011663 -0.0034422 
-0.0073881 0.062488 -0.0019624 0.016945 -0.03764 0.014479 0.0095465 0.0018191 
-0.016102 0.060515 -0.047669 0.024673 -0.030406 0.022042 0.0024767 0.0098754 
-0.015444 0.12151 -0.0057439 0.061337 -0.020377 0.024508 0.015794 0.028125 
-0.023172 0.19369 0.02122 0.046046 -0.018733 0.042758 0.0092177 0.049828 
0.047855 0.28478 0.026974 0.038977 -0.0026201 0.021549 0.043745 0.050814 
0.070051 0.21095 0.03092 0.027139 -0.026624 0.01974 0.034866 0.022535 
0.05213 0.034702 0.032893 0.037332 -0.018239 0.034044 0.038977 0.035688 
0.021549 -0.073976 0.054103 0.052787 -0.022185 0.029934 0.061501 0.036182 
0.044567 -0.057863 0.047033 0.037661 -0.020706 0.024673 0.045224 0.030756 
0.064954 -0.0062372 0.051143 0.031085 -0.0021268 0.059693 0.055911 0.047197 
0.028783 -0.12692 0.022864 0.019411 -0.03205 0.026152 0.045553 0.022371 
-0.027611 -0.26091 0.024508 -0.017746 -0.05589 0.017603 0.01563 0.011191 
-0.059836 -0.11179 0.01415 0.022864 -0.05326 0.0085601 -0.0070593 -0.010183 
-0.010019 0.18646 0.071037 0.024179 -0.038298 -0.0080457 0.015465 -0.0029489 
0.061337 0.35909 0.098494 0.037004 -0.0013048 0.018425 0.016288 0.011684 
0.10589 0.33657 0.10787 0.04358 -0.015773 0.03651 0.019905 0.040128 
0.14009 0.22361 0.078107 0.030098 -0.024487 0.011355 0.027796 0.011355 
0.11609 0.086985 0.074326 0.050486 -0.024487 0.012506 0.018918 0.015137 
0.049006 0.044567 0.064296 0.021878 -0.032215 0.020891 0.023522 0.0227 
0.038483 0.072353 0.064625 0.012177 -0.023007 0.014808 0.014479 0.045718 
0.041278 0.038155 0.024179 0.025824 -0.0406 0.015301 0.040128 0.062817 
-0.084005 -0.07003 -0.0032777 -0.011334 -0.057205 0.024015 0.037168 0.051308 
-0.18693 -0.057863 -0.041751 0.031249 -0.042244 0.023686 0.025824 0.045718 
-0.091075 0.036017 -0.0073881 0.044073 -0.020706 0.005765 0.051308 0.072846 
0.076134 0.15324 0.05213 0.069064 0.0037921 0.038155 0.042758 0.051965 
0.14354 0.25107 0.096028 0.099316 0.020398 0.038319 0.056733 0.052623 
0.12562 0.20092 0.098823 0.074819 0.019083 0.049335 0.054596 0.050814 
0.08567 0.10918 0.085999 0.086492 0.021549 0.056076 0.059857 0.046704 
0.018096 0.031085 -0.0022913 0.015137 -0.022514 0.032564 0.016288 0.031742 
-0.051944 -0.12379 -0.080552 -0.051944 -0.078579 -0.0060728 0.0080668 0.014479 
-0.05885 -0.21866 -0.079895 -0.064275 -0.11787 -0.036489 -0.018897 -0.0050863 
1.0539e-005 -0.18413 -0.018404 -0.065591 -0.12133 -0.029584 -0.023007 -0.00081153 
0.044402 -0.14977 0.019247 -0.014787 -0.080059 -0.02498 -0.023172 -0.032708 
0.027303 -0.10916 0.022042 0.0227 -0.053424 -0.0029489 0.00083261 -0.045861 
-0.043724 -0.0965 0.032071 0.013328 -0.049314 0.0013258 -0.012814 -0.009361 
-0.092061 0.00083261 0.077943 0.04358 -0.056877 -0.0040998 -0.014951 -0.034023 
-0.055397 0.044567 0.10524 0.024179 -0.042079 0.014315 0.0324 0.0041209 
0.054267 0.02829 0.15949 0.055418 -0.0073881 0.054103 0.038648 0.048677 
0.09126 0.11658 0.10704 0.083204 0.01563 0.082382 0.071531 0.083697 
0.10244 0.20684 0.11395 0.08419 0.028619 0.08008 0.11494 0.09981 
0.053774 0.256 0.062981 0.11132 0.03092 0.070873 0.076134 0.0786 
0.034044 0.14239 0.031249 0.078272 0.020891 0.018918 0.049335 0.049992 
0.014479 0.038812 -0.022021 0.056733 0.029112 0.0034632 0.031085 0.015301 
0.010862 0.029441 -0.089759 0.042265 -0.014129 -0.003771 -0.010841 -0.010183 
0.030098 0.0227 -0.075949 -0.0039354 -0.044052 -0.014458 -0.018897 -0.0067304 
0.078436 0.069229 -0.0095255 0.036346 -0.039942 0.0074092 0.00099702 0.031742 
0.082711 0.091589 0.037332 0.023851 -0.03616 0.0092177 0.014479 0.026317 
0.05213 -0.0011404 0.0016547 -0.0014692 -0.025145 -0.0044286 0.023193 0.0095465 
-0.03353 -0.12379 -0.10258 -0.016102 -0.06 0.0024767 0.016616 0.0065871 
-0.069865 -0.1011 -0.091897 0.017438 -0.047012 0.052787 0.049664 0.027139 
0.015301 0.025495 -0.019719 0.035688 -0.039449 0.033715 0.030263 0.060186 
0.086492 0.16278 0.10524 0.036675 -0.023501 0.056076 0.029441 0.022535 
0.11296 0.22986 0.17232 0.052952 0.010862 0.049992 0.060186 0.016945 
0.15061 0.17396 0.17133 0.05213 -0.001798 0.065447 0.056076 0.035853 
0.09833 -0.091897 0.078107 0.048841 -0.0042642 0.08156 0.059364 0.027303 
0.018589 -0.33391 -0.017911 0.055418 -0.0039354 0.09981 0.088465 0.05476 
0.0019835 -0.30794 -0.040764 -0.00064712 -0.040928 0.047691 0.047855 0.064625 
0.058377 -0.039778 0.016781 -0.0021268 -0.037476 0.012506 0.030098 0.051801 
0.098494 0.14371 0.019905 0.025166 -0.042408 -0.014458 0.016452 0.049664 
0.07038 0.10984 -0.018568 0.017438 -0.035832 -0.040106 -0.0034422 0.047691 
-0.016266 0.11642 -0.036983 0.040621 -0.03057 -0.031064 -0.0096899 0.017932 
-0.072989 0.13417 -0.02794 0.028125 -0.029091 0.0054362 0.005765 0.01152 
-0.099295 0.11625 -0.0019624 0.027796 -0.025145 0.0047785 0.017438 -0.0032777 
-0.12609 0.056898 0.017603 0.044073 -0.023665 -0.010348 0.014808 -0.022021 
-0.10291 0.024673 0.049499 0.031414 -0.022021 0.039305 0.021056 0.013492 
-0.028762 0.0039565 0.070544 0.052952 -0.017253 0.0087245 0.026152 0.0023123 
0.11181 0.12497 0.093069 0.005765 -0.039449 0.015794 0.028947 0.028619 
0.26225 0.19254 0.068407 0.010697 -0.045861 0.031414 0.029934 0.067749 
0.2782 0.075312 0.030592 0.0227 -0.044052 0.025166 0.050321 0.045718 
0.20405 -0.0096899 0.017932 -0.0078813 -0.057699 0.0095465 0.02122 0.027303 
0.098659 -0.033365 0.010204 0.014808 -0.036818 0.016452 -0.0047575 -0.008539 
0.061008 -0.081045 0.037497 0.016945 -0.041586 0.01711 0.019576 -0.01528 
-0.012156 -0.084498 0.082053 0.016616 -0.041093 0.0018191 0.0079024 -0.010676 
-0.063453 -0.0029489 0.069229 0.058213 -0.030735 0.025001 0.0044497 -0.026296 
-0.095843 0.022535 0.049006 0.026317 -0.031721 0.032893 0.01563 -0.0044286 
0.052459 0.19928 0.083862 0.04358 -0.0040998 0.054596 0.051965 0.088136 
-0.014293 0.37027 0.12529 0.070544 0.01004 0.053609 0.053116 0.1151 
-0.039449 0.37915 0.17725 0.07301 0.010862 0.047033 0.045882 0.13795 
0.072024 0.21457 0.10885 0.063803 -0.0064016 0.028619 0.071202 0.12168 
0.19698 -0.0044286 0.09274 0.027139 -0.026296 0.028783 0.035524 0.072846 
0.17626 -0.18331 0.051801 -0.0022913 -0.026296 0.019905 0.009711 0.022535 
0.069722 -0.2402 -0.015938 -0.044052 -0.07562 -0.011992 0.019905 -0.036818 
0.0032988 -0.15043 -0.046683 -0.065097 -0.10472 -0.025145 -0.019884 -0.068714 
-0.040435 0.016781 -0.006566 0.010862 -0.072332 0.0042853 -0.015444 -0.033859 
-0.018239 0.26439 0.073832 0.059035 -0.023007 0.019411 0.039141 0.019083 
0.027632 0.37668 0.091425 0.074654 0.031085 0.029934 0.041772 0.048348 
-0.0771 0.14798 -0.0406 0.040785 -0.010348 0.0046141 0.0072447 0.0095465 
-0.12116 -0.065426 -0.14303 -0.0087034 -0.04882 -0.024652 0.0021479 -0.016924 
-0.06444 -0.10587 -0.13284 -0.010512 -0.067728 -0.0080457 0.010862 0.013492 
-0.001798 -0.081868 -0.097158 -0.042244 -0.085649 0.032729 0.031907 0.031578 
0.011355 -0.089431 -0.035996 -0.026953 -0.056383 0.052459 0.043416 0.023357 
0.092411 -0.013965 0.075641 0.055089 -0.026296 0.064954 0.074326 0.07301 
0.19205 0.034866 0.18777 0.09833 0.020069 0.10014 0.080902 0.086821 
0.23315 0.021878 0.20388 0.12266 0.036675 0.06035 0.062159 0.083862 
0.13779 0.01563 0.14502 0.054596 0.0087245 0.0014903 0.032564 0.043416 
0.0079024 -0.10587 0.070544 -0.010019 -0.029748 -0.018075 -0.0059084 -0.012814 
0.00050378 -0.2379 0.035195 -0.016266 -0.06855 -0.0503 -0.034516 -0.021692 
0.086985 -0.030242 0.010533 -0.011005 -0.066906 -0.040271 -0.0077169 -0.0016336 
0.16738 0.22263 -0.0022913 0.033551 -0.041093 0.00033937 -0.010676 -0.0070593 
0.10754 0.30105 -0.010841 0.0021479 -0.045696 0.021713 0.0059294 0.035195 
-0.044546 0.3415 0.032564 0.053609 -0.013965 0.072681 0.079258 0.069886 
-0.064111 0.26669 0.054596 0.10935 0.019576 0.1373 0.12316 0.098494 
-0.098144 0.08008 0.00083261 0.0689 0.010862 0.10244 0.10211 0.10622 
-0.13563 -0.068714 -0.07003 0.00033937 -0.031557 0.034209 0.051308 0.048841 
-0.15717 -0.07562 -0.08121 -0.066084 -0.092554 -0.0042642 0.009711 -0.0044286 
-0.049478 0.06331 -0.04323 -0.031886 -0.087786 -0.0138 -0.0050863 0.00066819 
0.12529 0.18465 0.024015 0.023193 -0.060494 -0.0013048 0.007738 0.073668 
0.28773 0.15818 0.061666 0.0090533 -0.051944 0.040128 0.04358 0.075312 
0.26274 0.077943 0.087808 0.040785 -0.02235 0.023686 0.013821 0.0592 
0.073668 0.0016547 0.10392 0.038648 -0.02087 0.014972 -0.0044286 0.0093821 
-0.12264 -0.081539 0.083533 0.037168 -0.021034 0.025495 0.025001 -0.014951 
-0.18331 -0.10571 0.049664 0.043251 -0.028104 -0.0055795 -0.010183 -0.047176 
-0.15964 0.019247 -0.0062372 0.0037921 -0.045532 -0.024487 -0.024158 -0.05737 
-0.060987 0.20158 -0.011663 0.0080668 -0.03057 -0.00097594 0.01563 0.0062583 
0.062981 0.2856 0.012177 0.016616 -0.040271 0.015465 0.019905 0.060844 
0.16804 0.25535 0.0324 0.053281 -0.013636 0.032564 0.037661 0.047691 
0.20684 0.10293 0.069886 0.092247 0.026974 0.0075736 0.030592 0.069558 
0.16919 -0.01117 0.042429 0.11033 0.041278 0.06331 0.054267 0.059035 
0.14585 -0.1108 -0.027775 0.054267 0.03799 0.04095 0.032729 0.080738 
0.084026 -0.38653 -0.1085 -0.017582 -0.035667 0.044896 0.034044 0.071037 
-0.055232 -0.6315 -0.061645 -0.072496 -0.095021 0.01711 0.043745 0.049664 
-0.16851 -0.53417 0.02681 -0.046519 -0.11015 0.004943 0.01826 0.03092 
-0.15043 -0.15158 0.11937 -0.045696 -0.10061 0.026152 0.018096 0.0044497 
-0.0095255 0.21013 0.2103 0.0062583 -0.046354 0.035524 0.046046 0.019083 
0.089616 0.43489 0.25617 0.059693 -0.012814 0.054103 0.026974 0.041443 
0.13795 0.48191 0.25929 0.060022 -0.0021268 0.037661 0.033551 0.029605 
0.13483 0.44426 0.16919 0.069229 0.0060938 0.030098 0.038812 0.047033 
0.069558 0.46629 0.027468 0.034373 -0.013636 0.0062583 0.032893 0.05772 
0.00297 0.35432 -0.076606 0.014972 -0.0068948 0.031578 0.015301 0.029112 
-0.039942 0.11346 -0.16539 0.033222 -0.025638 0.01152 0.0085601 -0.0040998 
-0.034516 -0.048985 -0.20189 0.025001 -0.024158 0.011848 0.0080668 -0.052602 
0.010533 -0.15585 -0.15799 0.085835 -0.0019624 0.016616 0.0036276 -0.018568 
0.088301 -0.15487 -0.091404 0.062159 -0.0039354 0.03651 0.017603 0.018754 
0.17265 -0.0022913 -0.0014692 0.055582 0.020727 0.033222 0.039963 0.031742 
0.12529 0.0052718 0.053116 0.03799 -0.019719 0.011191 -0.0075525 0.010862 
0.009711 0.025988 0.071366 0.013657 -0.035667 0.0037921 -0.0021268 0.0060938 
-0.074798 0.0037921 0.093726 0.033222 -0.02942 0.011026 0.012342 -0.0034422 
-0.12905 -0.073647 0.11247 0.026974 -0.031721 0.015301 0.020069 0.018754 
-0.048327 -0.016924 0.15999 0.029112 -0.0011404 0.03388 0.02681 0.04654 
-0.081868 0.11576 0.15292 0.043416 -0.014951 0.040456 0.045718 0.046375 
-0.065755 0.086163 0.1641 0.045882 -0.0077169 0.031085 0.044896 0.072517 
-0.0021268 0.085506 0.18103 0.078765 0.0051074 0.067913 0.065118 0.069393 
0.099645 0.023028 0.17708 0.025166 -0.017746 0.056733 0.08008 0.081231 
0.19862 -0.1062 0.11214 0.026646 -0.020212 0.039634 0.04506 0.051801 
0.22131 -0.092719 0.031907 0.023686 -0.034023 0.023851 0.004943 -0.015609 
0.11839 0.085341 -0.050136 0.0011614 -0.048985 -0.029584 -0.047505 -0.070523 
-0.053917 0.086821 -0.084169 0.028947 -0.039613 -0.064933 -0.057863 -0.091897 
-0.18923 -0.038298 -0.059343 -0.0022913 -0.051615 -0.033037 -0.06 -0.089759 
-0.07003 0.039305 -0.03616 0.021384 -0.037805 -0.0055795 -0.0047575 -0.013965 
0.080738 0.18366 -0.0138 0.070708 -0.013636 0.039305 0.069722 0.10162 
0.11132 0.24499 -0.034516 0.048184 -0.009361 0.079258 0.083862 0.13236 
0.094548 0.27919 -0.071838 0.068078 0.0087245 0.069558 0.062817 0.10063 
0.086821 0.22904 -0.035832 0.063639 0.0065871 0.04917 0.061995 0.057391 
0.049828 0.10195 0.051143 0.027303 -0.017088 0.052952 0.055089 0.043745 
0.038319 -0.035996 0.09981 0.014479 -0.044217 0.019083 0.030263 0.060844 
0.049664 -0.1353 0.12135 -0.008539 -0.059014 0.012013 0.056733 0.047362 
0.018096 -0.24053 0.0227 -0.008539 -0.031557 0.031085 0.023193 0.0324 
-0.0044286 -0.30136 -0.019719 -0.0062372 -0.045532 0.0037921 0.021384 0.039799 
0.025166 -0.16292 0.02681 -0.012978 -0.051287 0.017932 0.033387 0.047362 
0.06183 0.069722 0.077943 0.059693 -0.028433 0.030098 0.040292 0.027961 
0.051801 0.16985 0.061008 0.050321 -0.017417 0.027796 0.016616 0.0098754 
0.0034632 0.16952 -0.018733 0.079587 0.024344 0.0095465 0.019905 -0.026789 
-0.02498 0.23414 -0.042079 0.087808 0.033387 0.0028056 0.029605 0.015301 
0.036017 0.27442 -0.022021 0.068571 0.019576 -0.0014692 -0.0068948 -0.008539 
0.086492 0.20142 0.0054362 0.084684 0.016616 0.00033937 -0.016431 0.017274 
0.037661 0.10951 -0.017417 0.034702 -0.010676 0.03947 0.032564 0.032893 
-0.019719 -0.01232 -0.10242 0.023028 -0.0059084 0.034373 0.038319 0.06742 
-0.033694 -0.20057 -0.20748 0.014643 -0.037311 0.034209 0.047526 0.093891 
-0.031886 -0.23888 -0.27588 -0.0098543 -0.053917 0.063968 0.067091 0.091589 
-0.020541 -0.12149 -0.090581 0.020562 -0.054082 0.057062 0.046375 0.05624 
-0.023829 -0.037805 0.1516 -0.054904 -0.095185 0.035853 0.033551 0.01415 
-0.072989 0.0034632 0.29744 -0.072332 -0.090581 -0.0036066 0.023686 -0.021199 
-0.027611 0.11428 0.30533 -0.053588 -0.1108 -0.014458 -0.010019 -0.0095255 
0.12809 0.10655 0.24022 -0.044052 -0.10324 -0.029091 -0.0070593 -0.0034422 
0.30796 0.08304 0.11806 0.00033937 -0.081374 -0.018075 0.011191 0.025166 
0.34347 0.093726 0.027632 0.0016547 -0.065755 0.007738 0.02533 0.051801 
0.13351 0.12727 0.015794 0.051965 0.0047785 0.0083956 0.041772 0.076792 
0.0087245 0.20421 0.035688 0.10458 0.023193 0.043909 0.046868 0.061995 
-0.011005 0.25863 0.058871 0.10573 0.041936 0.05624 0.077449 0.04506 
-0.041422 0.19336 0.016781 0.10721 0.035524 0.013657 0.023193 -0.0072237 
-0.079566 0.095535 -0.055232 0.0324 -0.0078813 -0.01676 -0.00081153 -0.040435 
-0.015938 0.098823 -0.11294 0.01826 -0.014129 0.03799 0.026317 -0.0052507 
0.11115 -0.015444 -0.14566 0.020727 -0.045861 0.061172 0.026152 0.049992 
0.16031 -0.17723 -0.12314 0.0042853 -0.050793 0.052952 0.046704 0.062159 
0.12053 -0.23099 -0.012978 0.065447 -0.018075 0.071695 0.068571 0.069064 
0.057884 -0.30629 0.010204 0.0026412 -0.04471 0.039141 0.040292 0.015465 
0.0056006 -0.22376 -0.010512 -0.030077 -0.072003 0.015465 0.021878 -0.0034422 
-0.033365 0.026974 0.0090533 -0.028104 -0.090088 0.011848 0.0092177 -0.014458 
-0.1113 0.14617 0.10063 -0.016266 -0.077264 0.007738 0.0026412 -0.0070593 
-0.012156 0.1881 0.16114 0.034537 -0.041751 -0.0073881 0.0072447 0.029605 
0.15834 0.21079 0.20997 0.034537 -0.033365 0.015794 0.040785 0.070051 
0.18498 0.13499 0.171 0.012013 -0.038791 0.026974 0.070051 0.083204 
0.020069 0.01415 0.093726 -0.0052507 -0.061316 0.020398 0.049499 0.070873 
-0.10521 -0.037805 0.031742 -0.03353 -0.079566 0.012177 0.0098754 0.028947 
-0.15931 -0.13053 0.014479 0.00033937 -0.061645 0.020398 -0.0031133 0.0079024 
-0.15059 -0.12675 -0.031886 0.0067515 -0.051451 -0.0029489 0.0018191 0.013821 
-0.094527 -0.044381 -0.041751 0.039141 -0.030242 0.030427 0.012342 0.024015 
-0.0080457 0.06331 -0.027282 0.07597 -0.013471 0.028619 0.026317 0.020233 
0.12365 0.14124 0.042429 0.0689 0.0079024 0.06742 0.017603 -0.010183 
0.16673 0.22838 0.12184 0.051308 0.0090533 0.057062 0.005765 -0.0050863 
0.13499 0.16985 0.11954 0.00083261 -0.035667 0.017767 0.016781 -0.0070593 
0.076134 -0.01117 0.050157 -0.046847 -0.080717 -0.021034 -0.018404 -0.04619 
0.014972 -0.12281 0.005765 -0.0068948 -0.081868 -0.031557 -0.037476 -0.045039 
0.066434 -0.04323 0.063639 -0.0095255 -0.07003 -0.018897 -0.0059084 0.0036276 
0.25633 0.26981 0.13615 0.053116 -0.0067304 0.03092 0.06594 0.076299 
0.20602 0.40102 0.16327 0.064954 0.0028056 0.069886 0.062817 0.095864 
-0.078908 0.33657 0.13812 0.073339 0.011848 0.056076 0.064296 0.11214 
-0.21981 0.25288 0.15883 0.081724 0.0080668 0.024508 0.053609 0.056733 
-0.19137 0.13976 0.16081 0.052952 -0.0013048 0.026152 0.015301 0.018425 
-0.05441 -0.077264 0.072353 -0.006566 -0.018568 -0.027118 -0.01939 -0.0080457 
0.032564 -0.26667 -0.016266 -0.045861 -0.071674 -0.03764 0.00033937 -0.020212 
0.094548 -0.25976 -0.025802 -0.04619 -0.089759 -0.016266 -0.022843 0.00083261 
0.15226 -0.12757 -0.0019624 0.0034632 -0.076442 0.020891 0.015959 0.053116 
0.054596 -0.13037 -0.038133 0.010204 -0.055561 0.059857 0.061172 0.071859 
-0.13185 -0.091239 -0.057041 0.053116 0.0095465 0.11576 0.053445 0.06035 
-0.24086 0.017932 -0.052766 0.044896 -0.014129 0.12168 0.044073 0.0080668 
-0.19071 0.17659 0.0074092 0.010533 -0.036325 0.10556 0.066105 0.042429 
-0.07414 0.35021 0.083862 0.052459 -0.024816 0.0689 0.051636 0.090603 
0.092576 0.39937 0.14502 0.084519 0.0098754 0.042429 0.06035 0.12381 
0.25008 0.25189 0.13269 0.097179 0.046046 0.0016547 0.039634 0.11 
0.24647 0.048677 0.063968 0.053938 0.0052718 -0.015938 0.019576 0.048841 
0.095535 -0.091897 0.024344 0.023522 -0.019884 -0.034516 -0.016431 -0.0042642 
0.02122 -0.055726 0.029112 0.084026 0.0052718 -0.019884 0.0072447 0.011026 
0.0080668 0.029276 -0.0040998 0.083368 0.021384 0.0080668 0.04095 0.029605 
0.013328 0.050321 -0.074469 0.085012 0.031907 0.018754 0.035031 0.02829 
-0.0034422 0.032071 -0.084663 0.026974 -0.020212 0.01152 0.017932 0.050814 
-0.0078813 -0.0004827 -0.066741 0.013492 -0.033201 -0.00064712 0.014643 0.028947 
0.0082312 0.016123 -0.029255 0.02829 -0.030406 0.00017495 0.0032988 0.03947 
0.040128 0.12283 -0.020541 0.020069 -0.030899 -0.011827 0.0047785 0.024673 
0.027796 0.26587 0.010862 0.019576 -0.032543 -0.013636 0.023028 0.010369 
0.029934 0.34248 0.050979 0.063145 -0.017911 0.038483 0.055911 0.048019 
0.0046141 0.20092 0.076627 0.031907 -0.02235 0.051308 0.045718 0.05772 
0.02829 0.059035 0.092082 0.024837 -0.02794 0.055089 0.062488 0.074654 
0.08008 0.074326 0.096357 0.027796 -0.030406 0.04506 0.058706 0.043087 
0.085506 0.12875 0.09981 0.06594 -0.010019 0.072681 0.059857 0.037168 
0.1784 -0.011992 0.037497 0.066434 -0.0070593 0.091918 0.072024 0.081724 
0.2583 -0.11639 0.047197 0.08978 0.022206 0.11477 0.13878 0.12546 
0.26028 0.0039565 0.14305 0.096686 0.043251 0.082711 0.093891 0.12431 
0.18498 0.057884 0.15341 0.08419 0.034044 0.071695 0.091096 0.11148 
0.12562 -0.047176 0.042594 0.041607 0.0019835 0.049006 0.064461 0.080573 
-0.014129 -0.19745 -0.045861 0.024344 -0.02646 -0.022843 0.013164 0.0064227 
-0.16802 -0.26733 -0.045861 -0.015609 -0.056712 -0.045696 -0.038133 -0.058192 
-0.19022 -0.10801 -0.048492 0.0090533 -0.049971 -0.029913 -0.017417 -0.10406 
-0.14533 0.10672 -0.0965 0.0069159 -0.049478 -0.060165 -0.035174 -0.093376 
-0.14434 0.20257 -0.088444 0.02829 -0.036489 -0.048985 -0.060987 -0.061809 
-0.11755 0.17215 -0.058356 0.035853 -0.036818 -0.017746 0.017603 -0.024816 
-0.023829 0.18991 -0.0083746 0.036346 -0.026296 0.010204 0.057062 0.066105 
0.091096 0.26537 0.0028056 0.037661 -0.0013048 0.025988 0.05476 0.060844 
0.089945 0.35449 0.019411 0.035853 -0.017253 0.064461 0.067256 0.053938 
0.05624 0.35334 0.12053 0.03536 -0.01676 0.078272 0.07449 0.047855 
0.052294 0.23578 0.24055 0.084848 0.00066819 0.090109 0.051143 0.038319 
0.094055 -0.039449 0.24943 0.017438 -0.028269 0.042758 0.00083261 -0.010841 
0.12431 -0.32421 0.16081 -0.014293 -0.034681 -0.022185 -0.013471 -0.013636 
0.1179 -0.49833 0.078272 -0.0095255 -0.062138 -0.015444 -0.021856 -0.031064 
0.11198 -0.54535 0.030427 0.01415 -0.046519 0.040292 -0.00081153 -0.027118 
0.15357 -0.27768 -0.024323 0.031578 -0.041586 0.014479 0.016452 0.012506 
0.20175 0.027139 -0.10045 0.024015 -0.033037 -0.0029489 0.0227 0.023686 
0.16985 0.18087 -0.1815 0.013164 -0.017253 0.041607 0.057227 0.072681 
0.01974 0.22542 -0.18709 0.059035 -0.0064016 0.044567 0.087808 0.10277 
-0.099789 0.13943 -0.09798 0.031414 -0.019226 0.022535 0.05213 0.066763 
-0.12067 0.013164 -0.022843 0.033387 -0.021199 0.026646 0.01415 0.019083 
-0.073318 -0.021034 -0.056383 -0.015444 -0.05589 -0.006566 -0.019061 -0.02498 
-0.033694 0.018754 -0.12396 -0.027775 -0.053424 -0.032379 -0.0095255 -0.055726 
-0.052602 0.069229 -0.086636 0.0064227 -0.056383 0.009711 -0.0059084 -0.02942 
-0.036983 0.087479 0.05065 0.039305 -0.026131 0.018096 -0.012814 -0.022679 
0.057062 0.12299 0.23562 0.082382 0.0023123 -0.0014692 0.013328 0.0026412 
0.038977 0.19336 0.29957 0.044567 -0.0064016 0.014643 -0.0050863 -0.0078813 
-0.011992 0.093233 0.25189 0.012506 -0.025309 0.033551 0.0018191 -0.0090322 
-0.069701 -0.071674 0.13121 -0.00031829 -0.053424 0.037826 0.053938 0.028125 
-0.094034 -0.13908 0.0056006 -0.040928 -0.080881 0.035195 0.030263 0.013657 
-0.068879 -0.16851 -0.058028 -0.016924 -0.077428 1.0539e-005 -0.020541 -0.036983 
-0.00097594 -0.15799 -0.072167 -0.018733 -0.076771 -0.031886 -0.040435 -0.056548 
0.13615 -0.088115 -0.053095 0.01152 -0.053753 -0.011498 -0.014951 -0.014293 
0.26702 0.05065 -0.015938 0.021056 -0.052602 -0.0016336 0.022535 0.049335 
0.15341 0.12069 -0.040106 -0.018404 -0.066741 0.0019835 0.044238 0.0592 
0.0098754 0.085999 -0.064604 -0.0096899 -0.063946 0.023028 0.063474 0.044402 
0.036675 0.067256 -0.037805 0.0028056 -0.054575 0.039963 0.048841 0.038155 
0.16508 -0.020048 0.044567 0.08156 -0.0024557 0.049006 0.054267 0.03536 
0.18037 -0.10571 0.065118 0.10326 0.022864 0.055418 0.064625 0.045224 
0.11362 -0.12659 0.013986 0.079094 0.01826 0.037168 0.034044 0.042265 
-0.038462 -0.07973 -0.066084 0.03092 -0.010348 0.010862 0.0067515 0.040621 
-0.26091 0.073175 -0.089102 -0.025802 -0.056219 -0.008539 0.01152 0.01563 
-0.28492 0.085341 -0.099789 -0.010676 -0.06148 0.031578 0.004943 0.030427 
-0.19663 0.097672 -0.031228 0.036675 -0.04471 0.049664 0.0070803 0.0062583 
-0.10505 0.22624 0.076463 0.054432 -0.017417 0.06183 0.039799 -0.018404 
0.092904 0.35317 0.13138 0.074161 0.026974 0.054925 0.041278 0.0037921 
0.22509 0.32407 0.10359 0.034702 -0.01117 0.019247 0.035853 0.042594 
0.20947 0.11444 0.03092 -0.016102 -0.052602 -0.025802 0.028947 0.091096 
0.084848 -0.23494 -0.017911 -0.02087 -0.077428 -0.039449 -0.008539 0.076299 
0.048841 -0.22852 -0.03353 -0.057041 -0.10012 -0.071674 -0.040271 0.032071 
0.081889 0.072024 0.074819 -0.012649 -0.056712 -0.030242 -0.015444 0.040292 
0.075312 0.2126 0.14141 0.025824 -0.046354 0.017932 0.03092 0.047526 
0.081724 0.19205 0.147 0.043909 -0.022843 0.041936 0.066927 0.0786 
0.071037 0.1909 0.13779 0.074983 -0.0021268 0.082217 0.094548 0.11395 
0.061008 0.20191 0.17922 0.093891 0.025001 0.14141 0.12579 0.10935 
0.06742 0.16048 0.14453 0.098988 0.059857 0.10507 0.083862 0.10458 
0.090931 0.14749 0.10441 0.07301 0.01974 0.053609 0.061995 0.078107 
0.080409 0.12743 0.072681 0.0227 -0.015444 0.037826 0.059528 0.047526 
0.10951 0.12579 0.045224 0.027139 -0.033201 0.020891 0.023193 0.053445 
0.05213 -0.054082 0.013821 -0.0096899 -0.057699 0.0059294 -0.026953 -0.0055795 
-0.01676 -0.21833 0.039634 0.014643 -0.020706 0.055418 0.029605 -0.016431 
0.01563 -0.054904 0.057555 0.05476 -0.014129 0.080573 0.046704 0.028947 
-0.065755 0.090767 0.00099702 0.022371 -0.028597 0.039963 0.034209 -0.0078813 
-0.12478 0.11691 -0.0032777 0.0026412 -0.055397 0.005765 -0.018075 -0.031228 
-0.19893 -0.01676 0.032564 -0.053424 -0.090746 -0.050136 -0.020377 -0.030735 
-0.23724 -0.39475 0.039634 -0.049971 -0.085649 -0.076771 -0.066248 -0.036818 
-0.076935 -0.37387 0.092576 0.0021479 -0.072825 -0.012814 -0.019884 0.020891 
0.16229 0.098001 0.14617 0.020891 -0.044546 0.026974 0.085341 0.092411 
0.26932 0.52548 0.21835 0.069229 -0.0073881 0.046211 0.090603 0.11181 
0.20487 0.56921 0.22082 0.046211 -0.010183 0.047691 0.08008 0.10047 
0.13401 0.48289 0.17873 0.063639 0.0054362 0.02122 0.066434 0.058049 
0.019411 0.31782 0.11658 0.10524 0.02533 -0.0059084 0.019576 0.03536 
-0.13497 0.064625 0.028947 0.077614 0.022042 0.014479 -0.0054151 0.0052718 
-0.22606 -0.11442 -0.043395 0.036182 -0.008539 -0.017088 0.0021479 -0.0067304 
-0.23839 -0.1667 -0.10176 -0.029748 -0.061316 -0.011498 0.0064227 -0.02498 
-0.12215 -0.23691 -0.14073 -0.0011404 -0.064111 0.047526 -0.0078813 -0.01676 
0.076299 -0.32701 -0.15207 0.017274 -0.055232 0.070051 0.055418 0.025166 
0.24137 -0.14171 -0.081703 0.098988 0.0046141 0.11461 0.10441 0.10918 
0.23956 0.066434 0.031578 0.1927 0.09685 0.13828 0.10047 0.12464 
0.13664 0.081724 0.0421 0.10606 0.060515 0.054925 0.081067 0.048184 
0.030592 0.047855 0.063968 0.0088889 -0.013143 -0.011005 0.015465 -0.003771 
-0.01528 0.073504 0.083533 -0.015444 -0.05885 -0.029584 -0.011334 -0.033037 
0.018918 0.08567 0.12299 -0.010183 -0.06 -0.025309 -0.025145 0.01563 
-0.033859 0.068571 0.13154 0.021878 -0.034845 -0.010676 0.027961 0.059035 
-0.11459 -0.018075 -0.012485 -0.027118 -0.064111 0.030263 0.00050378 0.0042853 
-0.046025 -0.025967 -0.12692 -0.051287 -0.089924 0.050814 0.018425 0.059035 
0.064461 0.03536 -0.11787 0.022371 -0.06148 0.040456 0.066434 0.11642 
0.14683 0.11576 0.0047785 0.06035 -0.019884 0.063968 0.05213 0.058213 
0.13056 0.10376 0.046375 0.088794 0.022535 0.052952 0.031414 0.010369 
0.034209 0.027961 0.083533 0.055911 0.0092177 0.02829 0.024015 0.0075736 
0.0026412 0.032071 0.18267 0.021384 -0.020541 0.0051074 0.029934 0.010369 
0.10474 0.13088 0.17265 0.024344 -0.033365 -0.0044286 0.013164 0.023686 
0.147 0.19254 0.093069 -0.0004827 -0.049971 -0.023994 -0.0040998 0.01974 
0.10129 0.07301 0.020069 0.04358 -0.016102 -0.023665 -0.0019624 -0.018404 
-0.048656 -0.17361 -0.02646 0.022206 -0.029913 -0.010512 -0.017088 -0.032708 
-0.24694 -0.47103 -0.12757 -0.0022913 -0.050136 -0.00015387 -0.03764 -0.061645 
-0.29347 -0.51921 -0.20353 0.0062583 -0.057534 0.0067515 0.0098754 -0.068879 
-0.071345 -0.29051 -0.16687 0.01563 -0.046683 0.045553 0.051636 0.059693 
0.18087 0.21112 -0.05737 0.0689 0.014479 0.061337 0.081231 0.16377 
0.28001 0.50032 0.030592 0.090274 0.020398 0.049499 0.064132 0.18678 
0.36238 0.42173 -0.078086 0.076299 0.016616 0.035853 0.040785 0.12053 
0.31174 0.19385 -0.21389 0.059035 -0.0014692 -0.011005 0.0069159 0.043251 
0.073339 0.1151 -0.24299 0.022042 -0.026131 0.024015 0.015301 -0.014951 
-0.10291 -0.016924 -0.12001 0.025495 0.00083261 0.04917 0.021713 -0.0406 
-0.15454 -0.12873 0.044073 0.04095 -0.014458 0.048184 0.031414 -0.03616 
-0.13053 -0.12264 0.14848 0.032236 -0.016431 0.041607 0.033058 -0.0096899 
-0.027611 0.18284 0.20191 0.071202 -0.010512 0.062981 0.077285 0.046211 
0.073339 0.49194 0.23562 0.051965 -0.010019 0.04358 0.072024 0.096521 
0.12595 0.4944 0.28675 0.053609 0.015301 -0.008539 0.02533 0.060844 
0.13631 0.19961 0.24318 0.018425 -0.030899 -0.034845 0.0065871 0.017932 
0.13269 -0.068879 0.10326 -0.050136 -0.081374 -0.070687 -0.038627 0.022864 
0.13236 -0.206 0.02122 -0.020541 -0.080223 -0.033365 -0.033694 0.025495 
0.027796 -0.22326 0.024179 -0.032708 -0.081703 0.03799 0.035195 0.048513 
-0.1159 -0.089595 0.042923 0.013657 -0.041751 0.069064 0.052623 0.06331 
-0.084663 0.035195 0.068736 0.073668 -0.024652 0.086328 0.061008 0.051308 
-0.030077 0.065118 -0.017088 0.017438 -0.043724 0.08863 0.079751 0.027632 
-0.11196 0.0060938 -0.15257 -0.042408 -0.07825 0.0069159 0.00083261 -0.022185 
-0.18512 -0.17641 -0.2522 -0.083347 -0.12215 -0.031557 -0.04323 -0.075455 
0.10277 0.021056 -0.07003 -0.058685 -0.11393 -0.021528 -0.045532 -0.010019 
0.39773 0.34692 0.13319 0.055089 -0.047505 0.019411 0.0028056 0.0087245 
0.50147 0.37931 0.19879 0.096193 0.0083956 0.022206 0.037661 0.038155 
0.3313 0.26209 0.18596 0.086492 0.051636 0.0036276 0.041772 0.051636 
0.023522 0.13993 0.16163 0.044073 0.0090533 -0.04619 0.020727 0.0047785 
-0.12001 0.12595 0.12612 0.020398 -0.019226 -0.046847 -0.00015387 -0.00064712 
-0.070194 0.16114 0.087643 0.0044497 -0.052931 0.0047785 0.024015 0.043087 
0.10819 0.074161 0.054432 -0.017911 -0.062467 0.069722 0.079094 0.085835 
0.20898 -0.026953 0.080902 0.071859 -0.001798 0.11559 0.090603 0.11921 
0.059693 -0.16259 0.091753 0.082546 0.020562 0.14765 0.11905 0.1151 
-0.12149 -0.18512 0.075476 0.06331 0.011026 0.096521 0.10228 0.07449 
-0.17542 -0.11541 0.062652 0.069886 0.0031344 0.046704 0.047691 0.036675 
-0.14911 -0.0013048 0.09274 0.049992 -0.0034422 0.045224 0.010533 -0.01528 
-0.14204 0.12201 0.065118 0.036675 0.0056006 0.0011614 -0.0073881 -0.047998 
-0.18068 0.13171 -0.052273 -0.0073881 -0.041257 -0.05326 -0.027118 -0.069372 
-0.16753 0.050321 -0.12577 -0.041915 -0.0771 -0.039778 -0.035996 -0.047341 
-0.15092 -0.018897 -0.13053 -0.028926 -0.089595 -0.045203 -0.024158 -0.013143 
-0.016595 -0.003771 -0.018733 -0.029748 -0.084169 -0.012485 0.018918 0.047855 
0.23118 0.092411 0.097344 0.030592 -0.028269 0.034044 0.047691 0.089452 
0.35103 0.0018191 0.16212 0.027961 -0.030406 0.010369 0.054432 0.11921 
0.27869 -0.28607 0.12217 -0.018239 -0.061151 -0.015116 0.0227 0.055418 
0.13368 -0.24858 0.062323 0.0051074 -0.068879 -0.0039354 0.0062583 0.020233 
0.053609 0.066269 0.066434 0.0042853 -0.057534 0.016288 0.024179 0.035524 
0.078436 0.18613 0.093069 0.010697 -0.023172 0.040128 0.057391 0.033551 
0.024015 0.06742 0.10524 0.018589 -0.039778 0.04917 0.017932 -0.012156 
-0.024816 -0.026953 0.091753 0.0227 -0.034188 0.029276 -0.0032777 -0.029913 
0.058377 0.18152 0.11592 0.073668 -0.013471 0.051636 0.032236 -0.0036066 
0.075641 0.34775 0.16245 0.10754 0.031085 0.10425 0.10326 0.12858 
0.053938 0.31914 0.14338 0.11198 0.071695 0.10951 0.10441 0.16278 
0.016452 0.19616 0.085999 0.10491 0.04917 0.060515 0.086492 0.11576 
-0.052602 0.12612 -0.0057439 0.063639 0.017932 0.033058 0.027468 0.012999 
-0.090746 -0.059178 -0.10308 0.052623 -0.0052507 0.004943 -0.020377 -0.025638 
-0.1404 -0.31961 -0.15717 -0.032708 -0.061151 -0.029255 -0.014951 -0.024323 
-0.109 -0.28837 -0.18676 -0.048985 -0.068386 -0.0090322 0.020891 -0.010019 
-0.0077169 -0.14648 -0.2208 -0.060329 -0.1062 0.022864 0.012177 -0.0016336 
0.048841 -0.15125 -0.16703 -0.034352 -0.093048 0.018754 -0.00081153 0.028454 
-0.0011404 0.047526 -0.056877 0.052294 -0.030242 0.017932 0.02681 0.024015 
0.048677 0.4048 0.13943 0.095042 0.011026 0.01267 0.0032988 0.009711 
-0.027282 0.55688 0.29628 0.12694 0.060022 0.020398 0.019083 0.019411 
0.066927 0.49342 0.26883 0.11559 0.059857 0.0592 0.085341 0.016123 
0.2218 0.22657 0.19566 0.05213 0.019905 0.066269 0.067091 0.058049 
0.18054 -0.19646 0.048677 -0.016102 -0.042408 0.05624 0.071859 0.1003 
-0.003771 -0.49866 -0.088115 -0.041093 -0.077757 0.071037 0.082711 0.10573 
-0.060658 -0.47942 -0.11771 -0.02942 -0.078744 0.039963 0.057555 0.059364 
0.022042 -0.25582 -0.097322 0.019411 -0.06 0.018754 0.031414 0.080738 
0.013492 0.046046 -0.073976 0.022206 -0.041751 -0.0077169 0.0083956 0.036182 
-0.1159 0.18498 -0.079895 0.040456 -0.028597 -0.023994 -0.0077169 -0.053917 
-0.15141 0.23068 -0.022843 0.038319 -0.020212 -0.056055 -0.047012 -0.08532 
-0.076113 0.31125 0.0079024 0.023357 -0.029091 -0.036489 -0.045203 -0.07562 
0.081889 0.4025 0.078272 0.085835 -0.014129 0.02681 -0.0080457 0.010697 
0.23512 0.31388 0.086985 0.078436 0.0070803 0.020398 0.012013 0.05476 
0.26455 0.037826 0.081889 0.08008 0.017932 0.029112 0.014808 0.044402 
0.12349 -0.17739 0.093233 0.048019 0.0018191 0.039799 0.040456 0.033058 
-0.066248 -0.1695 0.06183 0.048677 -0.0054151 -0.0060728 0.020727 0.019905 
-0.18183 0.0014903 0.042594 0.044896 -0.022843 0.01563 0.012835 -0.0073881 
-0.13119 0.17988 0.017274 0.021384 -0.02794 0.02829 0.043909 0.034373 
-0.044874 0.26965 0.013328 0.01974 -0.023172 0.027961 0.041114 0.014315 
0.0082312 0.30171 0.048677 0.012506 -0.03501 0.034537 0.04506 0.033222 
0.1031 0.16903 0.04095 0.0079024 -0.040435 0.089452 0.079751 0.097344 
0.19073 -0.13826 -0.016102 -0.0049219 -0.053095 0.095206 0.1054 0.14716 
0.19533 -0.26108 -0.10735 -0.02646 -0.074962 0.020727 0.04506 0.098001 
0.1248 -0.12725 -0.082361 -0.020377 -0.057699 -0.028269 -0.025802 0.033387 
0.060844 -0.040764 0.037661 0.030592 -0.037311 -0.037147 -0.011827 -0.033201 
0.058049 0.016452 0.14141 0.066269 -0.0064016 -0.0096899 -0.0052507 -0.0095255 
0.086492 0.13302 0.11494 0.09422 0.0064227 0.004943 0.0026412 0.030592 
0.17412 0.14782 0.10228 0.020891 -0.022021 0.022371 0.049006 0.075312 
-0.012649 0.072024 0.016288 0.0227 -0.0075525 0.031085 0.033551 0.054925 
-0.30744 0.079751 -0.04619 -0.016924 -0.052437 0.04654 0.0011614 -0.0060728 
-0.32421 0.015301 -0.039284 -0.018733 -0.064933 0.036017 0.02122 -0.0021268 
-0.10505 -0.066413 0.023357 0.026152 -0.051122 0.029934 0.042923 0.060186 
0.053938 0.14946 0.065612 0.02533 -0.038791 0.030592 0.023686 0.021713 
-0.035503 0.28691 0.064954 0.0098754 -0.021856 -0.0096899 0.00050378 -0.051615 
-0.13464 0.19221 0.034702 0.025001 -0.037969 -0.014787 -0.0406 -0.12692 
-0.0021268 0.1105 0.065283 0.024179 -0.03205 -0.028597 -0.048985 -0.094692 
0.10704 -0.072167 0.074654 0.035195 -0.037311 -0.050629 -0.05737 -0.05737 
0.19007 -0.32504 0.073832 -0.011334 -0.06 -0.055561 -0.027447 0.0034632 
0.25419 -0.31813 0.039141 -0.029255 -0.047505 0.0064227 -0.0022913 0.057227 
0.26587 -0.11903 0.031907 0.0065871 -0.044874 0.053445 0.037332 0.071695 
0.18991 0.022042 0.010369 0.0085601 -0.047341 0.093398 0.10737 0.14009 
0.1031 -0.00081153 -0.059507 0.01267 -0.055068 0.12743 0.10524 0.16837 
0.075148 -0.032379 -0.05441 -0.0032777 -0.05885 0.079751 0.1008 0.14815 
0.023028 0.065118 0.0421 0.0059294 -0.03353 0.029605 0.079587 0.10852 
-0.04619 0.16179 0.14502 0.070873 -0.014951 0.01152 0.0227 0.051801 
0.042923 0.23973 0.18152 0.065776 0.0031344 -0.02942 -0.015938 -0.0013048 
0.15111 0.27623 0.091096 0.10507 0.023357 -0.027447 -0.014293 -0.022021 
0.084684 0.24943 -0.036325 0.028125 -0.012978 -0.010019 -0.0024557 -0.037805 
-0.029584 0.08008 -0.093048 -0.016595 -0.046025 -0.0073881 -0.0072237 -0.02942 
-0.13234 -0.026296 -0.032872 0.018096 -0.058685 0.042429 0.00083261 -0.014293 
-0.16144 -0.079566 0.023193 0.026317 -0.037476 0.06594 0.051472 0.022864 
-0.065755 -0.1473 0.014479 0.076463 0.0019835 0.12217 0.069229 0.022371 
-0.10373 -0.16128 -0.080552 0.059035 0.0019835 0.12118 0.077285 0.018589 
-0.096172 -0.20764 -0.16605 0.021878 -0.022021 0.079422 0.050486 0.0080668 
-0.016102 -0.049314 -0.18479 0.015794 -0.046519 0.013492 0.0034632 -0.0029489 
0.014643 0.22986 -0.063124 -0.0029489 -0.060987 -0.029584 -0.010676 0.0095465 
0.10491 0.35268 0.097837 0.058871 -0.014622 -0.030899 0.014315 0.012342 
0.22723 0.23907 0.16607 0.095535 0.02122 -0.017253 0.010204 0.029769 
0.29234 0.080409 0.14946 0.059693 0.0083956 0.0090533 0.021878 0.070215 
0.25748 -0.15059 0.085506 0.022535 -0.029748 0.016616 0.058871 0.10326 
0.14042 -0.35019 0.046868 -0.023007 -0.060329 0.015794 0.058377 0.098001 
0.029605 -0.37321 0.042265 -0.039613 -0.07266 -0.0021268 0.027632 0.065776 
-0.039942 -0.17657 0.10063 -0.0771 -0.11064 -0.0090322 0.0070803 0.015137 
-0.019555 0.15916 0.2052 -0.0406 -0.09946 0.0090533 0.024015 -0.0055795 
0.023193 0.49292 0.256 0.025166 -0.062138 0.0062583 0.015465 -0.0083746 
0.15078 0.6044 0.22953 0.055089 -0.025309 0.020727 0.033551 0.023686 
0.25666 0.44755 0.13927 0.097179 0.026481 0.048841 0.054267 0.054103 
0.19353 0.30549 0.015465 0.11198 0.042758 0.03799 0.047362 0.03536 
0.050486 0.16344 -0.099789 0.080409 0.03092 0.048019 0.041114 0.007738 
-0.048985 0.027303 -0.19827 0.066269 0.0060938 0.051636 0.057227 0.021878 
-0.14533 0.010533 -0.2448 0.0031344 -0.034516 0.010533 0.02681 0.0083956 
-0.4028 0.029441 -0.18578 0.030098 -0.0095255 0.027139 0.023028 0.024179 
-0.50244 -0.092061 -0.057534 0.096521 0.019247 0.049335 0.051801 0.069229 
-0.29856 -0.18348 -0.045532 0.1271 0.052952 0.026317 0.042265 0.060515 
-0.022021 -0.058356 -0.069372 0.13582 0.056898 -0.0052507 0.020891 0.061008 
0.24071 0.25222 0.074326 0.085506 0.036346 0.022371 0.040785 0.071859 
0.41039 0.4288 0.23249 0.051143 0.034537 0.016945 0.05213 0.10359 
0.43932 0.33328 0.27162 0.03092 -0.0088678 0.016945 0.047033 0.086985 
0.44459 0.024673 0.20964 -0.027447 -0.054739 0.025001 0.01004 0.08419 
0.26866 -0.37946 0.060186 -0.056383 -0.10669 0.033058 0.039634 0.057555 
-0.054082 -0.57297 -0.073482 -0.094363 -0.13547 0.027961 0.033715 0.01563 
-0.27818 -0.54371 -0.089924 -0.01676 -0.071181 0.082711 0.021384 -0.041093 
-0.28426 -0.36384 -0.14813 -0.0011404 -0.070359 0.032236 0.034044 -0.0503 
-0.18035 -0.077264 -0.20501 -0.044381 -0.091239 0.017932 0.0039565 -0.037147 
-0.080881 0.24564 -0.11113 -0.0091966 -0.088115 0.02681 -0.015116 -0.022843 
0.062323 0.45363 0.055418 0.03092 -0.046519 0.023357 0.033222 -0.0057439 
-0.070687 0.33476 0.13516 0.052787 0.0023123 -0.0050863 0.0070803 -0.027447 
-0.26174 0.022864 0.13631 0.064132 -0.0055795 -0.0090322 -0.031886 -0.050464 
-0.279 -0.088773 0.1345 0.034537 -0.01676 -0.03353 -0.033037 -0.043559 
-0.078579 0.11855 0.15883 0.061172 -0.013307 -0.011498 0.0064227 0.021056 
0.20339 0.34939 0.15341 0.041607 -0.012814 0.047691 0.050486 0.17018 
0.43817 0.46777 0.17051 0.07449 0.020398 0.07038 0.12003 0.24795 
0.40677 0.30483 0.13878 0.086492 0.016123 0.066269 0.12743 0.20602 
0.14996 0.029276 0.052952 0.030098 -0.011498 0.062981 0.081231 0.11921 
-0.0040998 -0.026953 -0.0042642 0.010204 -0.03205 0.020727 0.018918 0.012506 
0.038155 0.12316 -0.010676 -0.02794 -0.067399 0.010862 0.014315 -0.0036066 
0.14913 0.17034 0.042429 -0.0054151 -0.062467 0.04654 -0.019061 -0.019226 
0.023028 0.096521 0.049664 0.025824 -0.052273 0.032564 -0.0049219 -0.056055 
-0.20682 -0.016102 0.097344 0.020891 -0.048492 0.00033937 -0.012156 -0.082525 
-0.13744 -0.19433 0.047362 0.037168 -0.031721 0.0026412 -0.025145 -0.038133 
0.076956 -0.19334 -0.013471 0.035031 -0.028104 -0.001798 -0.047834 -0.046354 
-0.0082102 0.099974 -0.0031133 0.00297 -0.040928 0.0079024 -0.006566 0.0019835 
-0.069536 0.37701 0.03092 0.027468 -0.041422 0.039634 0.050157 0.10902 
0.03536 0.088301 -0.013143 0.03536 -0.029255 0.042429 0.052787 0.1322 
0.058213 -0.43289 -0.0031133 0.025659 -0.022843 0.025824 0.020891 0.067913 
0.0098754 -0.49751 0.047197 0.022864 -0.031064 -0.016102 -0.008539 -0.047669 
-0.053917 -0.14303 0.083368 0.018754 -0.035667 -0.052109 -0.050793 -0.13645 
-0.15618 0.03947 0.047362 0.0052718 -0.054739 -0.063618 -0.069043 -0.12429 
-0.12577 0.055747 0.0047785 -0.05178 -0.086307 -0.035174 0.020398 0.016288 
0.16097 0.18152 -0.010348 -0.068879 -0.096336 0.06479 0.10836 0.17643 
0.30681 0.21786 0.051472 -0.034188 -0.089759 0.13302 0.1373 0.21901 
0.23759 0.14996 0.12398 0.051965 -0.03616 0.1276 0.13878 0.14798 
0.1128 0.10343 0.14354 0.087479 -0.0057439 0.12842 0.094548 0.089945 
0.076463 0.23512 0.16048 0.043909 -0.013307 0.060679 0.025659 0.029441 
0.11017 0.36452 0.1322 0.024015 -0.012978 -0.0090322 -0.020706 -0.062467 
0.11296 0.19533 0.11198 0.00017495 -0.045039 -0.045368 -0.054739 -0.052109 
0.0032988 0.075476 0.14075 0.028619 -0.031721 -0.034516 -0.037805 0.005765 
-0.044381 0.20849 0.18942 0.095864 0.0044497 0.010533 0.015794 0.038319 
0.041607 0.17544 0.13417 0.066763 -0.0026201 0.00017495 0.014479 -0.023501 
0.1664 0.03651 0.040785 0.039963 0.0070803 0.0042853 -0.0054151 -0.0055795 
0.021384 -0.18627 -0.017417 -0.025145 -0.042737 -0.034845 -0.021199 -0.0004827 
-0.17887 -0.49438 -0.13021 -0.05178 -0.0868 -0.030406 -0.024652 -0.013636 
-0.25335 -0.54403 -0.10817 -0.044217 -0.091239 -0.052273 -0.033201 0.007738 
-0.053588 -0.18331 -0.0014692 -0.00064712 -0.066906 -0.0019624 0.024015 0.02681 
0.18498 0.20783 0.063145 0.04917 -0.0075525 0.077778 0.074983 0.065776 
0.17117 0.3216 0.074654 0.09274 0.013986 0.039141 0.055911 0.034373 
0.11181 0.32029 0.067091 0.08863 0.020069 0.026646 0.041936 0.017603 
0.061172 0.29711 0.10376 0.08156 0.010862 0.018425 0.027303 -0.028762 
0.026646 0.36698 0.12891 0.011355 -0.028104 -0.028762 -0.0027845 -0.03501 
0.10754 0.42765 0.069064 -0.008539 -0.031721 -0.037147 -0.017911 -0.022021 
0.1853 0.17889 -0.0064016 0.0095465 -0.044217 0.023851 0.018589 0.027468 
0.1128 -0.27341 -0.13596 -0.011827 -0.057205 0.064296 0.04654 0.059693 
0.021384 -0.52151 -0.2032 0.038812 -0.028597 0.11444 0.10096 0.10145 
0.028454 -0.42451 -0.088444 0.060186 -0.0039354 0.1835 0.12102 0.13927 
0.031907 -0.17525 0.063639 0.12151 0.062159 0.14765 0.14058 0.14453 
-0.011992 0.03092 0.1641 0.14009 0.064296 0.078107 0.069229 0.063968 
-0.091239 0.062817 0.12365 0.072846 0.028125 0.012013 0.010697 -0.0052507 
-0.11327 0.017932 0.048184 0.026317 -0.020212 -0.0406 -0.016266 -0.037805 
-0.12166 -0.067892 -0.014129 -0.032379 -0.067728 -0.032215 -0.031228 -0.046683 
-0.070687 -0.098967 -0.05737 -0.023007 -0.060165 -0.0098543 -0.01117 0.0026412 
0.048513 0.029605 -0.025802 0.010697 -0.061151 -0.018404 0.036346 0.053281 
0.07597 0.12168 0.0090533 0.01974 -0.046025 -0.00015387 0.04358 0.048841 
0.035853 0.11263 0.014315 0.066598 -0.017417 0.016123 0.025166 0.0421 
-0.011827 0.061666 -0.0078813 0.039634 -0.016595 0.036346 0.040785 0.037497 
0.037497 0.048513 -0.03764 0.04917 -0.0088678 0.028454 0.056404 0.036675 
0.17478 0.086163 -0.0060728 0.0689 -0.0054151 0.057555 0.06479 0.078272 
0.25683 0.19385 0.030098 0.077285 0.010697 0.060679 0.052623 0.11526 
0.23874 0.18678 0.040456 0.049006 -0.0044286 0.039963 0.064625 0.08978 
0.088958 0.13878 0.010533 -0.0067304 -0.040106 0.021384 0.027796 0.052787 
-0.049971 0.053938 -0.070523 -0.0044286 -0.051287 0.0059294 -0.011663 -0.015773 
-0.072496 -0.16062 -0.094363 0.023686 -0.049971 0.0093821 -0.0044286 -0.025474 
-0.16227 -0.28377 -0.12626 0.01563 -0.044546 1.0539e-005 -0.012156 -0.013965 
0.047033 -0.16966 -0.0868 0.053609 -0.0011404 0.041278 0.01267 0.017274 
0.38425 -0.084498 -0.026953 0.066105 0.0090533 0.044567 0.065776 0.073997 
0.36616 0.049499 0.036839 0.036675 -0.0075525 0.026317 0.054596 0.069558 
0.053938 0.24104 0.097344 0.041772 -0.027775 0.013657 0.023522 0.039141 
-0.14287 0.28642 0.10918 0.0070803 -0.041093 0.0039565 0.025495 0.05624 
-0.14599 0.14831 0.11905 0.015959 -0.02942 0.026646 0.038155 0.04506 
-0.10094 0.067091 0.051965 0.042429 -0.015116 0.077943 0.016945 0.03947 
-0.036325 0.098166 0.050486 0.051801 -0.0088678 0.050979 0.051636 0.056569 
0.069393 0.16245 0.011684 0.10672 -0.0060728 -0.0004827 0.038977 0.012835 
0.051965 0.159 0.046046 0.051801 -0.0050863 0.010533 0.016123 0.0041209 
-0.051287 0.15259 0.037661 0.04506 0.0037921 0.0041209 -0.016266 -0.02646 
-0.028597 0.082217 0.060022 0.030756 -0.014458 -0.010512 0.022371 -0.00081153 
0.098001 0.18366 0.10655 0.059035 -0.00031829 0.020562 0.038812 0.030756 
0.25239 0.24153 0.10852 0.070544 -0.0029489 0.013657 0.030263 0.052787 
0.24663 0.10836 0.082053 0.024673 -0.025967 -0.017253 0.025659 0.02681 
0.22641 0.029605 0.014972 -0.012649 -0.030735 0.01004 -0.010841 -0.0016336 
0.13516 0.0080668 -0.03353 -0.035503 -0.079237 -0.029091 -0.035338 -0.043395 
-0.060494 -0.05737 -0.071674 -0.059672 -0.1011 -0.014458 0.00066819 -0.00031829 
-0.14188 -0.0004827 -0.068714 -0.0096899 -0.07973 0.025001 0.0052718 0.01826 
-0.1501 0.12332 -0.040928 -0.0055795 -0.070687 0.047855 0.01711 -0.0090322 
-0.020706 0.11674 0.029112 0.052787 -0.0055795 0.073832 0.074654 0.031578 
0.058871 0.0052718 0.097344 0.079258 0.0019835 0.073504 0.067585 0.073504 
0.11691 0.0085601 0.1442 0.06183 0.0067515 0.030427 0.049828 0.095864 
0.17774 -0.0050863 0.11 0.045553 -0.014787 0.0023123 0.032236 0.092082 
0.11609 0.052294 0.093891 0.02122 -0.027447 0.027468 0.036182 0.039305 
0.027961 0.1807 0.08567 0.0421 0.00033937 0.016288 0.016945 0.020891 
-0.072167 0.20125 0.067585 0.036675 -0.023172 -0.0050863 -0.0036066 -0.0096899 
-0.1159 0.089287 0.04506 -0.01676 -0.056383 -0.01676 -0.016102 -0.052766 
-0.11524 -0.036325 0.021878 0.016452 -0.060165 -0.042573 -0.059836 -0.095021 
-0.13826 -0.091404 0.011848 -0.022679 -0.074469 -0.040928 -0.055561 -0.10225 
-0.1187 -0.13711 0.050814 0.0059294 -0.046025 -0.010019 -0.034352 -0.082525 
-0.054575 -0.10225 0.047855 0.020398 -0.047669 0.0072447 -0.014458 -0.054904 
0.058542 0.048184 0.047197 0.018918 -0.043724 0.049006 0.03651 0.0042853 
0.073668 0.2121 0.064132 0.091753 0.0072447 0.1031 0.098001 0.067091 
-0.018404 0.38984 0.14946 0.11642 0.038319 0.10754 0.11592 0.11888 
-0.0064016 0.42798 0.10639 0.062488 0.013986 0.0689 0.089123 0.12151 
-0.026296 0.083368 -0.0062372 -0.01939 -0.05441 0.024508 0.046375 0.044402 
-0.10998 -0.34937 -0.10209 -0.093541 -0.11837 -0.034188 -0.022185 -0.032379 
-0.010512 -0.30646 -0.067892 -0.027611 -0.090088 -0.033037 -0.031392 -0.056712 
0.18695 0.13351 0.055747 0.018096 -0.055397 -0.0070593 -0.012156 -0.0083746 
0.21654 0.30122 0.11165 0.01711 -0.045368 0.010369 0.039634 0.032729 
0.1077 0.14289 0.10507 0.052952 -0.029091 0.021056 0.018754 0.056569 
0.13335 0.028454 0.1179 0.032893 -0.024652 0.046375 0.059857 0.096357 
0.18695 0.027796 0.12612 0.055582 0.00083261 0.069064 0.095206 0.12135 
0.1562 0.013657 0.080244 0.030427 -0.015938 0.074326 0.095042 0.08978 
0.0592 0.053445 0.041772 0.026317 -0.024158 0.05624 0.059528 0.067913 
-0.028104 0.063639 0.059857 0.083862 -0.0027845 0.028619 0.037497 0.016781 
-0.21093 -0.15437 0.026646 0.013986 -0.030899 -0.00064712 0.013328 -0.0049219 
-0.19909 -0.28229 0.010204 0.023522 -0.021692 -0.0059084 0.030427 0.0098754 
-0.22359 -0.16194 -0.022021 -0.02235 -0.059507 0.0052718 0.015301 0.0026412 
-0.32684 -0.0771 -0.048985 -0.043395 -0.084334 0.0072447 0.012342 -0.041093 
-0.34542 -0.028926 -0.044217 0.030427 -0.05737 0.010204 0.0075736 -0.047176 
-0.15717 0.1733 0.014315 0.062323 -0.017253 0.041772 0.03651 -0.0062372 
0.10178 0.14371 0.0421 0.040128 0.0036276 0.027961 0.04095 0.050321 
0.32374 -0.0090322 0.025659 0.024015 -0.024652 0.0024767 0.029276 0.089616 
0.47418 0.01267 0.026317 0.035524 -0.021199 0.0095465 0.031249 0.08156 
0.41335 0.032564 -0.0075525 0.047033 -0.027118 0.020398 0.047855 0.069558 
0.0021479 -0.1695 -0.04471 0.0060938 -0.046519 -0.00031829 -0.0034422 -0.046025 
-0.28755 -0.1358 -0.0062372 0.00033937 -0.023336 0.041278 -0.0013048 -0.081703 
-0.25549 0.22164 0.077614 0.013328 -0.041586 0.026974 0.027468 -0.019061 
-0.086142 0.36139 0.18448 0.039799 -0.023336 0.037661 0.04917 0.060515 
-0.055397 0.06742 0.16821 0.074983 -0.0095255 0.069064 0.072353 0.099645 
-0.092719 -0.35841 0.035853 0.01711 -0.031886 0.033058 0.066434 0.094384 
0.095371 -0.18397 -0.031392 0.0093821 -0.017911 0.010697 0.037332 0.074654 
0.46037 0.25436 -0.050629 0.053116 -0.00097594 0.06183 0.052952 0.15587 
0.53403 0.2024 -0.076277 0.066763 0.0095465 0.075805 0.090438 0.19402 
0.31618 -0.004593 -0.088115 0.094055 0.015794 0.052623 0.080409 0.1493 
0.062652 -0.079072 -0.064933 0.050979 -0.00081153 0.046375 0.021384 0.083697 
-0.071181 -0.07414 -0.072825 0.016616 -0.015609 -0.0083746 -0.0049219 0.017767 
-0.14254 0.018589 -0.11245 0.023851 -0.037311 -0.023007 -0.0070593 -0.00081153 
-0.14467 0.081067 -0.042079 0.025001 -0.031721 -0.004593 -0.022021 -0.033365 
-0.024816 0.027796 0.020233 0.043416 -0.024652 -0.020212 -0.023994 -0.036325 
0.054596 -0.011992 0.051308 -0.037311 -0.071016 -0.022843 -0.012978 -0.023665 
-0.022185 -0.0771 0.064296 -0.054246 -0.090088 0.0087245 -0.0088678 -0.0082102 
-0.033859 -0.079895 0.12349 -0.010019 -0.083347 0.031249 0.033387 0.033058 
-0.032215 0.012506 0.22279 0.018754 -0.050629 0.07301 0.073668 0.054925 
-0.032215 0.14897 0.22296 0.1026 0.013821 0.061995 0.084684 0.044402 
-0.061645 0.081395 0.14305 0.044731 -0.0073881 -0.0050863 0.020562 0.0036276 
-0.16901 -0.069536 -0.0040998 0.007738 -0.035996 -0.062796 -0.02498 -0.028597 
-0.33704 -0.057205 -0.1085 0.015137 -0.047341 -0.074469 -0.042244 -0.073482 
-0.28919 0.083697 -0.14122 0.00050378 -0.051287 -0.035832 -0.023336 -0.026789 
0.183 0.30894 -0.15306 0.0036276 -0.047505 -0.00031829 0.0039565 0.024837 
0.56527 0.37257 -0.10505 0.015794 -0.042244 0.063145 0.043416 0.051801 
0.54932 0.065612 -0.05326 0.0786 0.00017495 0.09685 0.06183 0.10984 
0.3124 -0.25121 -0.079895 0.15292 0.050979 0.11263 0.074654 0.13467 
0.25485 -0.48008 -0.12889 0.093069 0.038483 0.090438 0.066763 0.10474 
0.12908 -0.56705 -0.12527 0.027632 0.0093821 0.046704 0.032564 0.076792 
-0.12445 -0.21882 0.014479 0.014315 -0.027611 0.04358 0.04654 0.068571 
-0.072332 0.2754 0.17906 0.030592 -0.024487 0.04358 0.072024 0.10063 
0.22197 0.4584 0.25173 0.029605 -0.034188 -0.0050863 0.036182 0.062981 
0.43669 0.48454 0.28362 0.016452 -0.041915 -0.02942 0.0016547 0.015959 
0.32654 0.42124 0.24992 0.03092 -0.011827 -0.027611 0.0016547 -0.017746 
0.073175 0.37882 0.15045 0.0064227 -0.042901 -0.037969 -0.012485 -0.069208 
-0.31731 0.38885 0.023357 -0.019061 -0.066413 -0.053424 -0.034516 -0.095678 
-0.50096 0.28757 0.0064227 0.03388 -0.044381 -0.004593 0.021878 0.012013 
-0.3469 -0.0055795 0.037004 0.044073 -0.021363 0.054103 0.069886 0.049664 
-0.069208 -0.072989 0.040128 0.062488 0.020891 0.053445 0.038319 0.026974 
-0.069208 -0.23822 -0.061316 0.041607 -0.011498 0.038648 0.0018191 -0.04471 
-0.14829 -0.29149 -0.11491 -0.014787 -0.049971 0.050979 0.018425 -0.074304 
-0.12083 -0.040928 -0.095185 0.0026412 -0.061316 0.032564 0.010204 -0.064275 
0.0041209 0.29398 -0.013965 -0.023336 -0.075455 0.0047785 -0.012156 -0.0406 
0.24762 0.50887 0.080409 -0.00097594 -0.032215 0.016123 0.051308 0.047197 
0.63777 0.50082 0.20076 0.05476 -0.019555 0.058706 0.072517 0.20323 
0.52466 0.13236 0.23775 0.061995 -0.0036066 0.047526 0.087972 0.19944 
0.28609 0.0090533 0.20931 0.10063 0.014315 0.062817 0.092576 0.10935 
0.15719 -0.012814 0.16278 0.062981 0.0065871 0.026481 0.055911 0.072024 
0.049499 -0.059672 0.13516 0.025659 0.0044497 0.01004 0.026481 0.025166 
0.014972 0.058706 0.10408 -0.0021268 -0.047012 0.00083261 0.00066819 -0.0057439 
-0.12462 0.073832 0.041443 -0.042737 -0.080223 -0.022679 -0.017417 -0.033037 
-0.29906 -0.10949 -0.04471 -0.014293 -0.081703 0.00066819 -0.019719 -0.065919 
-0.39228 -0.2402 -0.073482 -0.023501 -0.078744 0.023357 -0.0083746 -0.087293 
-0.27588 -0.017417 -0.055068 0.031249 -0.034023 0.013986 0.011355 -0.055726 
-0.10982 0.29612 -0.055561 0.058213 -0.020048 0.020233 0.0083956 -0.0070593 
0.26274 0.57382 -0.036818 0.068407 0.0021479 0.070051 0.049828 0.13105 
0.46464 0.50147 0.0072447 0.088465 0.019411 0.043745 0.090109 0.16607 
0.36534 0.16919 0.027468 0.063968 0.0092177 0.0032988 0.037168 0.10852 
0.1904 -0.038627 0.083368 0.026152 -0.013636 0.0090533 -0.021034 0.010204 
-0.01676 -0.059343 0.10145 0.041936 -0.035503 0.0072447 -0.003771 -0.056055 
-0.11015 -0.15914 0.041772 0.029605 -0.029255 0.016945 -0.0016336 -0.055726 
-0.14254 -0.32915 -0.020377 0.03388 -0.026789 0.027468 0.0098754 -0.021199 
-0.15783 -0.38669 0.018918 -0.0095255 -0.053753 0.010204 0.016452 0.010369 
-0.17756 -0.31945 0.064461 -0.024158 -0.076442 0.00066819 0.038483 0.052459 
-0.1723 -0.1889 0.057555 -0.03205 -0.092061 0.01826 0.026317 0.069886 
0.0051074 0.054267 0.078107 -0.071016 -0.11261 0.0070803 0.027961 0.087643 
0.11214 0.28132 0.21852 0.012013 -0.06444 0.035031 0.088465 0.12875 
0.14058 0.36485 0.26784 0.058542 -0.020048 0.068736 0.092411 0.12973 
0.18218 0.37898 0.26488 0.082546 0.0090533 0.074326 0.091753 0.091589 
0.17133 0.20158 0.15078 0.10392 0.026152 0.053116 0.065776 0.086492 
0.032071 -0.12889 -0.0082102 0.053774 0.0031344 0.030427 0.023193 0.0018191 
-0.14895 -0.11574 -0.14993 0.018096 -0.0068948 -0.0055795 -0.046847 -0.069865 
-0.11015 0.11296 -0.19038 0.0024767 -0.035174 -0.036489 -0.036983 -0.085813 
0.04095 0.060679 -0.18775 0.023851 -0.031392 -0.023007 -0.025802 -0.12116 
0.077285 -0.099131 -0.1672 0.054267 -0.024487 -0.016102 -0.021363 -0.042079 
0.13812 -0.2185 -0.21274 -0.0055795 -0.043559 -0.056055 -0.012156 -0.010348 
0.16393 -0.26897 -0.18775 -0.01676 -0.044381 -0.029913 0.010204 0.053116 
0.20947 -0.047012 -0.11376 0.0016547 -0.036325 -0.0070593 0.012835 0.086657 
0.15308 0.17314 0.03092 0.094713 0.013164 0.023851 0.029934 0.075148 
0.01415 0.27146 0.12349 0.16262 0.050979 0.017932 0.052623 0.061501 
0.033715 0.33969 0.16508 0.11115 0.053281 0.086328 0.057884 0.10491 
0.3216 0.29497 0.24696 0.086163 0.048184 0.11839 0.10162 0.18383 
0.40184 0.10244 0.24005 0.007738 -0.018404 0.11642 0.13483 0.22049 
-0.013965 -0.28295 0.17692 0.012835 -0.036489 0.074819 0.066434 0.10376 
-0.45739 -0.46676 0.084519 0.037826 -0.037311 0.036182 0.01267 -0.031064 
-0.49816 -0.48797 0.017438 0.013328 -0.040271 0.02122 0.013657 -0.064604 
-0.33161 -0.33046 -0.068386 -0.01232 -0.036489 -0.027447 -0.026296 -0.093212 
-0.0029489 0.025988 -0.12149 -0.031228 -0.079895 -0.069043 -0.022021 -0.04882 
0.23052 0.29102 -0.094363 -0.039778 -0.086964 -0.031721 0.011191 0.021549 
0.26685 0.33098 -0.047012 0.022371 -0.055068 0.030427 0.03651 0.053938 
0.31864 0.26932 0.0054362 0.024673 -0.042079 0.021713 0.040621 0.076299 
0.24795 0.17034 0.0065871 0.024837 -0.016266 0.035524 0.037826 0.055582 
-0.043395 0.054103 -0.029255 0.04506 -0.02087 0.051308 0.037497 0.0095465 
-0.32323 -0.14484 -0.09946 0.012177 -0.042244 0.032893 -0.017911 -0.042573 
-0.42204 -0.25631 -0.084827 0.051636 -0.029255 0.014479 -0.00097594 -0.059672 
-0.33901 -0.17723 0.0062583 0.074983 0.0013258 0.034866 0.0018191 -0.06855 
-0.11311 -0.058192 0.069558 0.082546 0.040128 0.022535 0.0085601 -0.037476 
0.17922 0.046211 0.08863 0.072517 0.015794 0.019576 0.012835 -0.0019624 
0.30878 0.20323 0.082053 0.044402 -0.0014692 0.060679 0.057227 0.03388 
0.22953 0.32835 0.061666 0.035195 -0.019884 0.0227 0.027632 0.069064 
0.085506 0.25419 0.076299 -0.001798 -0.04619 -0.0031133 0.022042 0.031414 
0.022042 0.10622 0.096357 -0.018897 -0.042408 -0.003771 0.027303 0.029934 
0.11494 0.0016547 0.099316 -0.014622 -0.06855 -0.016595 0.017603 0.070215 
0.16574 0.0064227 0.090931 -0.010841 -0.064111 0.00050378 0.040128 0.08156 
0.17659 0.11378 0.098494 0.044238 -0.031886 0.048513 0.054925 0.091096 
0.13976 0.22296 0.081067 0.041443 -0.018568 0.043909 0.042758 0.085835 
0.053445 0.27754 0.068736 0.051308 -0.0031133 0.031907 0.014479 0.031414 
0.0074092 0.29497 0.049992 0.080573 0.00297 0.051308 0.024508 0.032564 
0.017603 0.36172 0.044567 0.058706 0.00017495 0.033222 0.044073 0.0041209 
0.0031344 0.28971 0.03947 0.037004 -0.015609 0.025495 0.01711 -0.0013048 
0.0044497 0.083368 0.024508 -0.00015387 -0.039613 0.025166 0.011191 0.010533 
-0.051122 -0.14747 0.03799 -0.0098543 -0.052602 0.028454 0.018096 0.020069 
-0.24661 -0.3908 -0.0138 0.014808 -0.065591 0.041607 0.0019835 -0.031228 
-0.49076 -0.49192 -0.068057 -0.052602 -0.095514 0.015137 -0.07003 -0.10456 
-0.48271 -0.085813 0.020398 -0.0095255 -0.069865 -0.011498 -0.032379 -0.12412 
-0.1889 0.32637 0.14289 0.042594 -0.030242 0.026152 0.016616 -0.029091 
0.11132 0.47582 0.19057 0.059693 -0.0044286 0.055747 0.047855 0.060844 
0.24301 0.35465 0.12842 0.062323 -0.017417 0.037004 0.088301 0.11066 
0.21885 0.067256 0.014315 0.0046141 -0.040435 0.018096 0.067749 0.09833 
0.16969 -0.043888 -0.046354 0.023028 -0.029255 -0.0098543 0.024673 0.053116 
0.25781 0.1225 -0.038462 0.0095465 -0.041586 -0.020706 0.010533 0.018589 
0.35925 0.1932 -0.0087034 0.0059294 -0.045368 -0.012485 -0.0004827 0.029441 
0.38622 0.10704 0.013328 0.02122 -0.047505 -0.015444 -0.019061 0.022535 
0.14124 -0.042408 -0.031064 -0.00031829 -0.05441 -0.0039354 -0.018568 -0.0068948 
-0.053095 -0.15355 -0.01939 -0.0098543 -0.051944 0.0062583 0.02122 0.00297 
-0.20386 -0.22261 0.018096 -0.006566 -0.065755 0.036839 -0.001798 -0.018897 
-0.26979 -0.13251 0.064625 0.041443 -0.032543 0.048677 0.028783 0.014315 
-0.16868 0.01004 0.11378 0.096193 0.0023123 0.055911 0.076134 0.052952 
0.0083956 0.17232 0.12595 0.079751 0.013821 0.051965 0.065776 0.078765 
0.14124 0.30927 0.1442 0.058049 0.03947 0.080902 0.06742 0.11411 
0.24877 0.37915 0.13878 0.06742 0.010369 0.067256 0.079258 0.11494 
0.27623 0.34331 0.10918 0.026317 -0.014787 0.015465 0.035031 0.090931 
0.26488 0.25452 0.08567 0.045882 -0.025638 -0.0075525 0.0092177 0.066269 
0.20684 0.14979 0.082217 0.024508 -0.029748 -0.037311 -0.004593 0.052952 
0.034866 0.037497 0.029934 -0.0090322 -0.02646 -0.0503 -0.0004827 0.025001 
-0.049971 -0.021363 -0.052437 -0.011992 -0.06 -0.044052 -0.03353 -0.021856 
0.048348 -0.070194 -0.075291 -0.01676 -0.066248 -0.022185 -0.018568 0.00050378 
0.060515 -0.18709 -0.057041 0.066105 -0.029091 0.049664 0.040785 0.064625 
0.028454 -0.19104 -0.0095255 0.058213 -0.0095255 0.11033 0.066269 0.10737 
0.019083 -0.10012 -0.0011404 0.047033 0.017438 0.071695 0.07449 0.12316 
-0.035832 -0.02942 -0.032708 0.036839 -0.012485 0.07597 0.06035 0.07449 
-0.19367 0.078929 -0.060823 -0.015116 -0.050136 0.05065 0.025824 -0.035832 
-0.3377 0.13023 -0.046025 0.015301 -0.056712 0.0227 -0.034352 -0.06855 
-0.086142 -0.054246 -0.014951 -0.020706 -0.070523 0.0028056 0.019576 0.013657 
0.29152 -0.12609 0.058377 0.016123 -0.03205 0.013821 0.027468 0.083533 
0.37159 -0.084991 0.089452 0.063803 -0.014458 0.018918 0.025495 0.073339 
0.15587 -0.15257 0.064954 0.042594 -0.013471 -0.0073881 0.0060938 -0.0062372 
-0.00097594 -0.11426 0.014479 0.047526 -0.012156 0.0095465 -0.0013048 -0.035832 
-0.013143 -0.017253 0.004943 0.015301 -0.02942 -0.0044286 -0.0070593 0.0037921 
-0.017746 0.031742 0.10096 -0.030077 -0.056712 0.027961 0.040621 0.047691 
0.016616 0.28823 0.17412 0.043909 -0.044217 0.058049 0.077943 0.10277 
0.12414 0.41548 0.2029 0.026974 -0.038791 0.060844 0.10803 0.18909 
0.20865 0.13943 0.071695 0.062981 -0.0032777 0.039634 0.072846 0.13631 
0.23446 -0.17147 -0.12018 0.02829 -0.02087 0.029605 0.04358 0.027139 
0.070051 -0.291 -0.22573 -0.025474 -0.063782 -0.039449 -0.024652 -0.063289 
-0.1986 -0.25072 -0.23247 -0.0095255 -0.067892 -0.07562 -0.046025 -0.10275 
-0.36252 -0.15668 -0.1552 0.016945 -0.048985 -0.017911 -0.0062372 -0.077428 
-0.2106 -0.2083 -0.083018 0.058706 -0.011005 0.0047785 0.0065871 -0.035503 
-0.060987 -0.21093 -0.10587 0.032071 -0.01939 0.037332 0.015301 -0.020541 
-0.017253 -0.10817 -0.071509 0.0324 -0.020706 0.092904 0.064954 0.028619 
0.020069 -0.076277 -0.00081153 0.073504 -0.0091966 0.095042 0.097015 0.12381 
0.14996 -0.080388 0.08978 0.066598 0.0047785 0.11707 0.14124 0.20964 
0.3706 0.072517 0.17445 0.059693 0.016781 0.10639 0.12233 0.20503 
0.41894 0.13121 0.22361 0.00297 -0.034023 0.030098 0.056569 0.09833 
0.29826 -0.081374 0.1853 -0.036983 -0.074633 -0.037969 -0.038956 -0.03501 
0.19385 -0.092226 0.11395 -0.031392 -0.081539 -0.052273 -0.069865 -0.10472 
0.097837 0.19353 0.057227 -0.041586 -0.093376 -0.050464 -0.035996 -0.09798 
0.022206 0.29382 0.054925 -0.0021268 -0.050629 -0.038627 -0.024652 -0.081374 
-0.14122 0.21589 0.070051 0.044402 -0.028762 0.015465 0.035195 -0.013965 
-0.19893 0.25567 0.12151 0.10918 0.023357 0.059857 0.078929 0.060515 
-0.18989 0.15785 0.085177 0.11411 0.0324 0.022371 0.056404 0.027796 
-0.34065 0.023028 -0.038298 0.041772 -0.0024557 0.032564 0.024673 -0.028269 
-0.45574 0.0026412 -0.090088 -0.0060728 -0.015773 0.021056 0.040128 -0.0014692 
-0.32717 -0.10324 -0.063946 0.016123 -0.038627 0.010204 0.024508 0.014479 
0.044238 -0.11245 -0.03764 0.024837 -0.032708 0.01974 -0.009361 -0.011334 
0.54537 -0.05737 -0.040435 0.070873 -0.014129 -0.0029489 0.017274 0.047197 
0.6215 -0.13645 -0.070852 -0.017746 -0.053753 -0.017582 0.01415 0.063639 
0.26389 -0.20255 -0.06 -0.020706 -0.045861 -0.0022913 0.010862 0.059528 
-0.24595 -0.12659 -0.0019624 0.0018191 -0.055397 0.020233 0.014315 0.055747 
-0.37025 0.12825 0.088136 0.037004 -0.031557 0.051965 0.055254 0.037661 
-0.13349 0.3775 0.1853 0.11658 0.020069 0.053445 0.03536 -0.01528 
0.15785 0.49736 0.16525 0.082382 0.020233 0.059693 0.047362 0.0079024 
0.28642 0.31716 0.097179 0.05213 0.013986 0.037168 0.059364 -0.0014692 
0.17478 0.05065 0.013328 -0.0036066 -0.052931 0.019411 0.010862 0.01711 
0.0083956 -0.057534 0.026646 -0.0011404 -0.055726 0.0016547 -0.0042642 -0.019555 
-0.14089 0.03651 0.10918 0.066105 -0.012649 0.014808 0.030263 0.018096 
-0.15733 0.16952 0.13302 0.029934 -0.02235 0.032071 0.050979 0.095206 
-0.060329 0.26028 0.12513 0.0034632 -0.0406 0.035195 0.041278 0.079422 
0.15407 0.19764 0.10178 0.009711 -0.05178 -0.0055795 0.046046 0.03651 
0.15752 0.032071 0.058213 0.02533 -0.034681 0.044402 0.036346 0.049335 
0.063639 0.15045 0.044238 0.047526 -0.02498 0.073832 0.075805 0.10754 
0.028947 0.28806 0.027796 0.029934 -0.01939 0.096521 0.1197 0.11395 
-0.044874 0.25025 0.021878 0.041607 -0.015116 0.075476 0.075805 0.065283 
-0.093705 0.22427 0.089452 0.081889 0.0052718 0.10277 0.043745 -0.021856 
-0.085485 0.11214 0.10211 0.047033 -0.0057439 0.018918 0.020891 -0.015609 
0.10359 -0.0068948 0.068407 0.033715 -0.021856 0.0034632 0.04506 -0.028597 
0.29596 0.020562 0.057555 -0.0022913 -0.046683 -0.029091 -0.028269 -0.031392 
0.32752 0.10195 0.068407 0.0036276 -0.04882 -0.052766 -0.02235 0.012999 
0.12595 0.12135 0.077943 0.013164 -0.054904 -0.031228 -0.018075 0.0060938 
-0.13974 0.061008 0.079916 -0.01232 -0.065591 -0.013965 -0.014787 -0.022679 
-0.33063 -0.006566 0.0047785 -0.015444 -0.055232 0.00083261 -0.020541 -0.030406 
-0.44637 0.067256 -0.033365 -0.016431 -0.057041 -0.0014692 0.015465 -0.033859 
-0.4296 0.093891 -0.019719 0.0060938 -0.051451 0.00297 -0.01232 -0.035996 
-0.18331 0.035031 0.043251 0.03947 -0.038791 0.012342 0.027796 0.0019835 
0.091753 0.19714 0.079916 0.050979 -0.016595 0.032236 0.051472 0.031907 
0.2782 0.29957 0.086821 0.065447 0.015794 0.073504 0.082382 0.075805 
0.28149 -0.042408 0.01004 0.04506 -0.0031133 0.05213 0.054596 0.065776 
0.32341 -0.23642 -0.036983 0.0026412 -0.042079 0.047362 0.041114 0.096193 
0.33772 -0.17246 -0.012978 0.025001 -0.047341 0.053774 0.058542 0.10408 
0.20043 -0.14155 0.01826 0.016945 -0.038133 0.046211 0.076627 0.092904 
0.0042853 -0.09798 0.072024 0.046704 0.0054362 0.047033 0.064954 0.087314 
-0.031721 0.062488 0.10162 0.084848 0.018589 0.072188 0.09685 0.080573 
0.0016547 0.17856 0.098494 0.076792 0.017932 0.047691 0.053938 0.06035 
-0.03764 0.21227 0.057555 0.073504 0.0093821 0.0227 0.041278 0.038648 
-0.15388 0.14765 0.00099702 0.0046141 -0.032543 -0.0021268 0.0032988 -0.010183 
-0.12988 0.068407 0.031249 -0.030242 -0.044052 -0.028269 -0.0091966 -0.043066 
0.037004 0.11165 0.025166 -0.047834 -0.092061 -0.020377 -0.011663 -0.03057 
0.099974 0.20898 -0.00064712 -0.065097 -0.11311 -0.017911 -0.01232 -0.01939 
-0.020706 0.13335 -0.013307 -0.012156 -0.089759 -0.040435 -0.051451 -0.05885 
-0.083183 -0.087622 -0.067728 -0.026953 -0.086636 -0.030735 -0.05737 -0.051122 
-0.10472 -0.28163 -0.10324 0.00099702 -0.052273 0.004943 -0.024816 -0.029255 
0.026974 -0.25088 -0.049478 0.049664 -0.030899 0.044567 0.038648 0.058871 
0.23858 0.020727 0.035195 0.061666 -0.0059084 0.060515 0.082053 0.12973 
0.35449 0.01267 0.03536 0.13697 0.049828 0.10047 0.085835 0.13828 
0.29711 -0.12922 0.02533 0.12036 0.05772 0.093398 0.096028 0.12447 
0.13894 -0.034352 -0.00097594 0.1197 0.057884 0.060022 0.071859 0.091096 
-0.071838 0.021384 -0.048327 0.06479 0.014479 0.027468 0.040785 0.030098 
-0.30925 -0.21932 -0.071016 -0.022679 -0.048163 -0.017417 -0.0044286 -0.0503 
-0.35923 -0.25006 -0.048163 -0.051615 -0.088937 -0.05737 -0.074962 -0.10373 
-0.12692 -0.016924 -0.0068948 -0.040435 -0.094856 -0.057699 -0.069043 -0.085649 
0.20092 0.23742 0.082053 -0.0091966 -0.071509 -0.018075 0.0079024 0.015794 
0.52202 0.33081 0.10819 0.051143 -0.046847 0.025824 0.043416 0.10688 
0.45281 0.38293 0.091096 0.036346 -0.031721 0.053445 0.073175 0.12118 
0.1756 0.25732 0.042594 0.04506 -0.0047575 0.04654 0.062652 0.063145 
-0.02235 0.069722 -0.0044286 0.035195 -0.018404 -0.0021268 0.0074092 -0.043724 
-0.050464 0.059528 0.027796 0.045553 -0.016266 -0.0052507 -0.0047575 -0.042244 
0.018918 0.050486 0.071366 0.088136 0.010862 0.014315 0.029605 0.020562 
0.0051074 -0.12905 0.06035 0.021384 -0.024158 0.0042853 0.057391 0.07597 
-0.05885 -0.29413 -0.044546 -0.027282 -0.048327 0.0041209 0.034373 0.093726 
-0.15848 -0.40675 -0.096172 -0.041915 -0.082361 0.033551 0.029605 0.049499 
-0.15684 -0.34509 -0.088937 -0.033037 -0.086636 0.041936 0.047362 0.020069 
0.022864 0.039634 0.073832 0.040292 -0.050958 0.058049 0.052952 0.074983 
0.15867 0.25732 0.19961 0.032564 -0.03501 0.069229 0.06479 0.083204 
0.087643 0.30878 0.24005 0.069393 0.015465 0.050321 0.070215 0.058871 
0.014479 0.29004 0.16048 0.055747 -0.003771 0.017438 0.020398 0.0054362 
0.073339 0.25304 0.058049 0.0227 -0.022021 0.040292 0.031742 0.032236 
0.12085 0.17791 0.0019835 0.046868 -0.025638 0.058706 0.051143 0.075641 
0.17462 -0.092554 -0.009361 0.020233 -0.033201 0.05476 0.063803 0.068242 
0.20191 -0.16276 0.039141 0.049006 0.01004 0.067091 0.048184 0.06742 
0.1567 0.16179 0.074326 0.076792 0.0095465 0.049992 0.047197 0.068736 
0.13187 0.33706 0.038483 0.044567 -0.0055795 0.016452 0.024837 0.016288 
0.16558 0.18185 -0.044546 0.045224 -0.019884 0.012013 0.0056006 0.027961 
0.10474 0.068736 -0.093705 0.0031344 -0.044874 -0.015444 0.0064227 0.053116 
-0.06707 -0.070194 -0.1455 -0.021034 -0.043395 -0.036489 -0.0004827 -0.00031829 
-0.1889 -0.1889 -0.12429 0.0019835 -0.054739 -0.013143 -0.016924 -0.011992 
-0.12133 -0.036983 -0.030735 0.052952 -0.021528 0.018425 -0.0095255 -0.052437 
-0.10538 0.18629 0.007738 0.09833 0.01152 0.01415 0.017438 -0.064933 
0.0031344 0.28889 0.073832 0.044567 -0.0062372 0.058706 0.020398 0.014315 
0.14996 0.40036 0.20158 0.025495 -0.0096899 0.03799 -0.0059084 0.060186 
0.22772 0.33837 0.23167 0.067091 -0.0044286 0.023357 0.052294 0.083862 
0.14404 -0.14204 0.1345 0.013164 -0.027447 0.032729 0.047691 0.099645 
0.038977 -0.58086 0.040785 -0.0087034 -0.059014 0.020398 0.033222 0.068571 
0.0016547 -0.4957 0.032893 -0.034516 -0.07973 0.016781 0.03947 0.097508 
0.024508 -0.22343 0.076627 -0.0019624 -0.056055 0.043251 0.065283 0.10721 
0.037168 -0.056383 0.085835 0.012342 -0.056548 0.033551 0.055911 0.076956 
0.050486 0.065118 0.05772 0.018754 -0.044381 0.018918 0.012342 0.034373 
-0.0026201 0.10556 0.047526 0.046704 -0.017582 0.029441 0.0079024 -0.001798 
-0.097816 0.1128 0.091753 0.036675 -0.018897 0.011026 -0.0049219 -0.026624 
-0.098967 0.082382 0.14157 0.053774 -0.014951 0.012342 0.019905 -0.025638 
-0.10834 0.05213 0.073175 0.0689 -0.01117 0.035688 0.031907 -0.027611 
-0.058028 0.14206 -0.031064 0.041114 -0.011663 0.017438 0.025659 -0.0014692 
0.091918 0.20487 -0.11196 -0.022185 -0.050958 0.011848 0.025659 0.051472 
0.33262 0.16919 -0.13645 -0.025145 -0.06707 0.04358 0.064132 0.05772 
0.35695 0.19517 -0.073811 0.070051 -0.014951 0.057884 0.03799 0.054596 
0.20503 0.16788 -0.012485 0.17774 0.058213 0.076792 0.041278 0.054596 
-0.094856 0.14141 -0.02235 0.14979 0.078436 0.076792 0.030756 -0.020048 
-0.3765 0.023357 -0.067564 0.064132 0.044402 -0.00031829 -0.021034 -0.11376 
-0.40247 -0.072989 -0.036818 -0.040106 -0.048492 -0.051944 -0.080552 -0.16802 
-0.15503 -0.081045 0.050486 -0.045368 -0.082854 -0.016924 -0.025474 -0.066084 
0.21441 0.010204 0.16064 0.051308 -0.041257 0.032071 0.065118 0.091425 
0.31421 0.00066819 0.17001 0.010862 -0.044874 0.025824 0.083533 0.1516 
0.26143 -0.016102 0.15226 0.0032988 -0.026296 0.02681 0.057227 0.1128 
0.147 -0.012814 0.094877 -0.034516 -0.068386 0.013821 0.055418 0.077449 
-0.06296 0.067749 0.057555 -0.023665 -0.074633 0.0054362 0.03536 0.023357 
-0.267 0.0227 0.049006 0.019247 -0.057205 0.051472 0.047033 0.055747 
-0.31073 0.036839 0.05476 0.0080668 -0.052766 0.039141 0.080902 0.085835 
-0.20879 0.055089 -0.0054151 0.0032988 -0.028269 0.046211 0.069229 0.063803 
-0.16917 0.021713 -0.079072 0.029769 -0.035832 0.028619 0.032729 0.0060938 
-0.16917 0.12168 -0.13234 0.03947 -0.024158 0.0069159 0.0036276 -0.061151 
-0.071181 0.24121 -0.12544 0.070051 -0.012485 -0.01676 -0.01117 -0.063946 
0.13088 0.12595 -0.15733 -0.0050863 -0.038956 -0.009361 -0.008539 -0.01676 
0.25814 -0.10406 -0.12314 -0.0059084 -0.033037 0.011355 0.0070803 -0.014622 
0.26948 -0.1136 -0.089595 0.040128 -0.044217 0.054103 0.032893 -0.025802 
0.29283 0.052623 0.021549 0.07038 -0.0055795 0.048184 0.01826 -0.017582 
0.30894 0.21769 0.13171 0.088465 0.013821 0.022864 -0.031392 -0.0016336 
0.19813 0.31618 0.21917 0.025659 -0.019226 -0.03057 -0.0080457 0.019576 
0.0080668 0.25863 0.26948 0.0092177 -0.016924 -0.017582 0.01004 0.019411 
-0.2134 0.13203 0.25436 0.035195 -0.02942 0.033058 0.015465 0.018589 
-0.25516 0.024508 0.094384 0.0069159 -0.039613 0.032236 0.03947 0.010204 
-0.24677 -0.10571 -0.021199 0.017767 -0.042573 0.020562 0.0041209 -0.0040998 
-0.24299 -0.066413 -0.0040998 0.021878 -0.041586 0.02829 0.015301 0.049992 
-0.20518 0.14141 0.07301 0.064296 -0.0034422 0.029441 0.052623 0.075805 
0.054267 0.20651 0.062323 0.085506 0.012999 0.033551 0.057884 0.094877 
0.29004 0.22739 0.0044497 0.020562 -0.022185 0.019411 0.052459 0.085506 
0.16738 0.21638 -0.039284 0.016452 -0.041257 -0.010676 0.035031 0.017603 
-0.023829 0.19944 -0.0082102 -0.038791 -0.076113 -0.00064712 0.00033937 -0.047341 
-0.14106 0.12299 0.011684 -0.033859 -0.08121 0.023028 -0.028269 -0.084663 
-0.09946 -0.15964 -0.0047575 -0.0011404 -0.076771 0.009711 -0.018239 -0.072003 
0.13088 -0.44374 -0.068386 -0.010676 -0.079072 0.012999 0.037661 0.0044497 
0.28708 -0.4204 -0.043724 0.011026 -0.046847 0.049828 0.02533 0.064461 
0.30335 -0.23724 -0.02942 0.02122 -0.038956 0.045389 0.043251 0.067256 
0.19862 0.04917 -0.0082102 -0.0034422 -0.05178 0.028619 0.050486 0.064954 
-0.046519 0.28839 0.085835 0.03947 -0.029255 0.044731 0.071366 0.13582 
-0.13432 0.414 0.16771 0.067091 -0.0039354 0.060844 0.071695 0.15538 
-0.082361 0.29793 0.1733 0.07449 0.032564 0.032564 0.081724 0.14272 
0.091918 0.19468 0.12595 0.077285 0.02533 0.056569 0.060515 0.078272 
0.28741 0.10195 0.11674 0.06183 0.011848 0.014808 0.017274 0.041278 
0.27836 -0.051615 0.07597 0.022371 -0.03057 -0.023336 -0.0031133 0.0069159 
0.054103 -0.15125 -0.030735 -0.050464 -0.076277 -0.049642 -0.061151 -0.062796 
-0.10439 -0.12018 -0.060823 -0.055068 -0.081868 -0.069043 -0.065426 -0.10078 
-0.0052507 -0.019061 0.034209 0.00017495 -0.071181 -0.034681 -0.040106 -0.045039 
0.076463 0.051308 0.18761 0.043087 -0.030242 0.047691 0.029112 0.0041209 
-0.10061 0.0042853 0.2486 0.10359 0.0062583 0.072188 0.036017 -0.018075 
-0.28245 -0.058192 0.17988 0.054596 -0.0032777 0.011355 -0.0016336 -0.035338 
-0.19482 -0.011005 0.096193 0.037168 0.011355 0.037168 0.052459 0.062652 
0.16607 0.093398 0.018096 0.012999 -0.031392 0.041443 0.068736 0.1881 
0.39378 0.21309 -0.023336 0.012177 -0.038133 0.010204 0.060515 0.17001 
0.25436 0.20438 -0.055726 0.038648 -0.032543 0.021878 0.05624 0.10721 
-0.061973 0.17051 -0.092061 0.023686 -0.034352 0.026481 0.045882 0.046046 
-0.12346 0.21194 -0.062467 0.011355 -0.014787 0.019905 0.04654 0.019905 
0.010862 0.36139 0.00050378 0.041607 -0.018404 0.048348 0.069229 0.045718 
0.0037921 0.34117 0.049664 0.04095 -0.016431 0.052952 0.066763 0.070215 
0.030098 0.037497 0.064461 0.065612 -0.001798 0.032071 0.040621 0.064461 
0.088958 -0.37337 0.064132 0.064132 0.0013258 0.029112 0.041114 0.039963 
0.084848 -0.56459 0.025659 0.044402 0.010862 0.013821 0.010533 0.015301 
0.10145 -0.38603 0.013492 0.047526 -0.010512 0.013986 -0.0062372 -0.0054151 
0.15818 0.038977 0.037004 0.028947 -0.021528 0.031742 0.012177 0.031414 
0.11806 0.23858 0.068736 0.01004 -0.045368 0.026974 0.022864 -0.0011404 
0.061666 0.082711 0.068571 -0.018733 -0.062138 0.011684 0.023522 0.016452 
0.031414 -0.20271 0.050486 -0.022843 -0.064604 0.05476 0.039799 0.060186 
0.049664 -0.26519 -0.021363 0.038812 -0.052766 0.071037 0.072517 0.097344 
0.10014 -0.066413 -0.026624 0.051308 -0.021363 0.063639 0.046375 0.078765 
0.027303 0.23726 0.0070803 0.097179 0.011684 0.036675 0.029441 0.045389 
-0.10489 0.3535 -0.034845 0.063474 0.004943 0.0031344 0.010862 -0.043724 
-0.12067 0.17659 -0.09798 0.013986 -0.024816 -0.051287 -0.032379 -0.077593 
-0.19087 -0.084169 -0.1381 -0.0096899 -0.060823 -0.03912 -0.042408 -0.10242 
-0.26601 -0.24398 -0.10982 -0.019719 -0.069536 -0.0014692 -0.0013048 -0.034023 
-0.12018 -0.21866 -0.082525 0.033715 -0.037147 0.020398 0.047033 0.065612 
0.076299 -0.030899 0.015137 0.062981 0.0032988 0.060022 0.06479 0.092247 
0.18678 0.13171 0.046375 0.082053 0.018589 0.041278 0.057555 0.10721 
0.31075 0.30977 0.089945 0.13187 0.034702 0.042594 0.029934 0.090438 
0.45971 0.4778 0.14387 0.064461 0.012177 0.0052718 0.038155 0.080409 
0.39444 0.40644 0.13943 0.085177 0.021878 0.031085 0.059693 0.072188 
0.13828 0.055418 0.012835 0.031414 -0.009361 0.028783 0.047033 0.0044497 
-0.035832 -0.12577 -0.047012 -0.023665 -0.052931 0.035688 0.015465 -0.047834 
-0.10324 -0.10406 -0.052109 -0.015938 -0.080388 0.034373 0.004943 -0.021856 
-0.3252 -0.32142 -0.047998 -0.031392 -0.07973 0.0036276 0.0083956 -0.052273 
-0.46281 -0.44555 0.0064227 0.0019835 -0.04323 -0.021199 -0.032215 -0.060658 
-0.25598 -0.25516 0.11378 0.031742 -0.034188 -0.0078813 -0.0072237 -0.025145 
-0.099624 -0.13251 0.11543 0.029605 -0.029255 -0.013636 0.016781 -0.024816 
0.080738 0.054103 0.072353 0.06594 -0.0062372 -0.028762 0.022864 0.0085601 
0.21358 0.31864 0.059528 0.076956 0.009711 0.04095 0.029769 0.043909 
0.29069 0.35021 0.024179 0.059035 0.033715 0.031742 0.048184 0.040785 
0.29694 0.27836 -0.028762 0.041772 -0.0082102 0.0056006 0.029934 0.045882 
0.25255 0.13697 -0.10127 -0.016431 -0.0503 0.01415 -0.0022913 0.081889 
0.12102 -0.097651 -0.13382 -0.020048 -0.076935 0.023357 0.0324 0.063968 
0.019247 -0.11787 -0.10653 -0.023501 -0.078744 0.053774 0.049335 0.079094 
0.012999 0.038812 -0.053095 0.00017495 -0.035338 0.073175 0.034702 0.05476 
0.074819 0.15522 0.037168 0.054925 -0.023172 0.09274 0.067749 0.07301 
0.10326 0.20027 0.10063 0.076299 0.0034632 0.084355 0.073832 0.08978 
0.054103 0.14108 0.12529 0.099645 0.022206 0.049499 0.02533 0.051308 
-0.10982 -0.03912 0.12661 0.033058 -0.01232 -0.0050863 -0.003771 -0.00015387 
-0.17904 -0.26683 0.08304 -0.015773 -0.029091 -0.029913 0.0028056 -0.013965 
0.010862 -0.34953 0.057227 -0.020541 -0.067728 -0.024323 -0.0083746 -0.017911 
0.12628 -0.14007 0.061008 -0.021856 -0.071838 -0.019719 -0.008539 -0.0040998 
0.020891 0.22674 0.062159 0.017438 -0.059507 -0.010676 0.0072447 -0.020212 
-0.029584 0.45889 0.079751 0.0019835 -0.056548 0.043416 0.035195 -0.013307 
0.077943 0.54044 0.13631 0.0324 -0.026131 0.0421 0.03947 0.055747 
0.13631 0.38244 0.18152 0.080738 -0.018568 0.044731 0.042265 0.062488 
0.053774 0.094548 0.10737 0.036675 -0.019555 0.039141 0.054432 0.086163 
-0.08384 -0.052602 0.01152 0.031414 -0.029748 0.027303 0.037332 0.062981 
-0.16325 -0.067564 -0.033037 0.0013258 -0.046354 0.031742 0.024673 0.0046141 
-0.051287 0.031249 0.01004 0.024015 -0.038791 0.055911 0.060679 0.0227 
0.12201 0.090767 0.073668 0.059857 -0.023336 0.061008 0.055747 0.065118 
0.14223 0.11576 0.095864 0.045718 -0.014787 0.036017 0.048513 0.079751 
0.19895 0.17396 0.10951 0.06742 0.007738 0.065283 0.081231 0.081067 
0.24564 0.28708 0.10063 0.062488 0.0088889 0.056898 0.062652 0.078107 
0.11658 0.34281 0.10277 0.073997 0.010369 0.017603 0.027632 0.044238 
-0.092226 0.33837 0.071531 0.014808 -0.01676 0.004943 0.010533 -0.0073881 
-0.1621 0.27195 0.090109 0.0065871 -0.0406 -0.033201 -0.034352 -0.050136 
0.023193 0.15522 0.086821 -0.00031829 -0.052109 -0.0091966 0.0062583 -0.019061 
0.090931 0.025495 0.040456 -0.022514 -0.062631 0.034044 0.042758 0.074819 
0.020069 -0.095185 -0.028762 -0.013143 -0.067399 0.057062 0.074983 0.12036 
0.15259 -0.11705 -0.051615 -0.0088678 -0.074962 0.060022 0.062652 0.11691 
0.14042 -0.022843 0.019083 0.031085 -0.044874 0.046211 0.048019 0.085177 
0.015465 0.060844 0.0324 0.077778 0.0062583 0.03799 0.038483 0.012506 
0.00017495 0.012177 0.020069 0.059035 -0.0032777 0.01267 0.0044497 0.0093821 
0.039141 -0.050464 0.013657 0.016452 -0.025309 -0.0059084 -0.0049219 -0.0014692 
0.04654 -0.13793 0.0013258 -0.01117 -0.059836 -0.022021 0.0051074 -0.012156 
-0.0032777 -0.2397 -0.017088 -0.039449 -0.081539 -0.0406 -0.02794 -0.028926 
-0.034845 -0.19367 0.059693 -0.0098543 -0.043724 -0.012649 -0.022185 -0.042408 
-0.05589 -0.049971 0.17166 0.016945 -0.043888 0.015959 0.024015 -0.014951 
-0.073318 0.050157 0.19879 0.0082312 -0.04619 0.0074092 0.020069 0.031249 
-0.089924 0.11214 0.098988 0.062817 -0.024323 -0.0059084 0.007738 -0.0004827 
-0.061316 0.18695 0.027632 0.046375 -0.017582 0.03799 0.033551 0.010862 
0.029441 0.21079 -0.030735 0.055418 0.017603 0.039963 0.061501 0.030592 
0.079916 0.20224 -0.0503 0.048677 -0.00015387 0.061666 0.061172 0.05624 
0.072353 0.10984 -0.021856 0.044567 -0.0080457 0.055418 0.067256 0.070708 
0.05476 0.044238 0.0079024 0.083862 -0.0004827 0.052459 0.067091 0.06035 
-0.021034 0.14272 0.020727 0.051143 -0.0059084 0.03388 0.031249 0.026317 
0.061666 0.36271 0.05065 0.051801 0.0072447 0.028783 0.015301 0.044731 
0.13203 0.33624 0.023193 0.024015 -0.029584 0.0051074 0.026481 0.028947 
0.026481 0.046046 -0.029913 -0.031392 -0.068057 -0.038298 -0.00064712 -0.016431 
-0.094034 -0.13859 -0.049642 -0.040764 -0.095349 -0.018239 -0.025967 -0.046025 
0.093562 -0.10143 0.032564 -0.018075 -0.076935 0.035195 0.034373 0.015959 
0.17873 -0.12067 0.085012 0.057391 -0.016266 0.088958 0.080573 0.10688 
0.01152 -0.11212 0.11855 0.12201 0.01711 0.11066 0.080738 0.093233 
-0.043724 -0.10012 0.046211 0.073339 0.013164 0.045882 0.042594 0.025495 
-0.14484 -0.34427 0.00066819 0.053774 -0.0026201 -0.011663 0.0016547 -0.018568 
-0.27851 -0.54995 -0.069208 0.0056006 -0.035667 -0.017417 -0.02646 -0.06707 
-0.11903 -0.3885 -0.088115 -0.01528 -0.05737 -0.0098543 -0.023994 -0.055232 
0.21852 -0.14089 -0.047998 0.014972 -0.056219 -0.015938 0.005765 0.012013 
0.45379 0.081067 0.034702 0.031578 -0.03501 0.038812 0.028619 0.084026 
0.3267 0.16146 0.046868 0.01711 -0.034188 0.021549 0.032236 0.091425 
0.033222 0.10376 -0.019226 -0.008539 -0.05885 -0.0013048 0.0324 0.021549 
-0.086636 0.013986 -0.053917 -0.0027845 -0.05737 -0.017746 -0.013965 -0.038791 
-0.20863 0.089287 -0.078086 -0.010183 -0.075949 -0.051451 -0.049314 -0.086964 
-0.3303 0.2468 -0.086964 1.0539e-005 -0.061645 -0.048163 -0.019884 -0.10061 
-0.41185 0.20372 -0.12445 0.020727 -0.042079 0.014315 0.012835 -0.033037 
-0.43273 -0.043559 -0.094692 0.03388 -0.026789 0.071531 0.051801 0.032236 
-0.11048 -0.14665 -0.052931 0.08419 0.0042853 0.11198 0.097672 0.10376 
0.24186 -0.11228 0.045553 0.12858 0.030263 0.12365 0.095206 0.14617 
0.36961 -0.038462 0.11083 0.097508 0.036182 0.12661 0.088794 0.159 
0.3484 -0.020212 0.12431 0.061501 0.025001 0.045224 0.062817 0.10228 
0.24334 -0.063124 0.068242 0.013328 -0.02235 0.012342 0.027632 0.044073 
0.1391 -0.083018 0.02122 -0.023829 -0.058192 -0.0013048 -0.02087 -0.0073881 
-0.063289 -0.16934 0.012506 0.0064227 -0.064933 -0.023007 -0.028597 -0.049971 
-0.19367 -0.14467 -0.01528 -0.0032777 -0.064768 -0.012814 0.0011614 -0.056712 
-0.11491 -0.022021 -0.0090322 0.018096 -0.02646 0.025495 0.024673 -0.021692 
-0.043888 0.06742 0.018754 0.022535 -0.036325 0.028947 0.021878 0.00083261 
-0.054739 0.11428 0.064461 0.029769 -0.030242 0.020398 0.033222 0.0032988 
0.062652 0.20257 0.10984 0.064132 -0.014951 0.025659 0.0021479 -0.0087034 
0.1248 0.23693 0.12184 0.038648 -0.016924 0.0041209 0.0052718 0.0046141 
0.16048 0.13565 0.065776 0.025001 0.00017495 0.022864 0.0036276 0.0052718 
0.20914 0.0079024 0.0034632 0.014643 -0.033859 0.018754 0.0039565 0.013328 
0.20997 -0.11015 0.04358 0.01004 -0.039942 0.017767 0.033222 0.10491 
0.052294 -0.2984 0.066434 0.040785 -0.03057 0.00066819 0.056076 0.15127 
-0.067399 -0.27785 0.0085601 0.0046141 -0.04619 0.019905 0.018589 0.10441 
0.028125 0.17626 0.0013258 0.0019835 -0.024652 0.02829 0.015959 0.05772 
0.14272 0.54537 0.018918 0.0064227 -0.050136 0.034209 0.012835 0.0037921 
0.19188 0.633 0.075641 0.012835 -0.045203 0.052787 0.03092 0.0018191 
0.11099 0.49095 0.11905 0.068407 -0.012649 0.027632 0.022371 -0.02235 
-0.036983 0.14617 0.088794 0.035524 -0.02235 0.044731 0.03651 0.0011614 
-0.074469 -0.12922 0.044238 0.0083956 -0.022514 0.074819 0.066763 0.018754 
-0.059672 -0.10669 -0.027282 0.041443 -0.028926 0.045389 0.063639 0.027303 
-0.121 0.016781 -0.035338 0.032729 -0.026624 0.022535 0.0227 -0.0096899 
-0.24562 0.041772 0.007738 0.053281 -0.012814 0.018425 0.03536 0.014643 
-0.10012 0.16771 0.059693 0.016945 -0.03353 -0.0052507 0.021713 0.027632 
0.14338 0.26324 0.12332 -0.0036066 -0.047176 -0.0090322 0.016123 0.044402 
0.3415 0.20438 0.19599 0.036346 -0.038298 -0.012156 0.0095465 0.061008 
0.37372 0.22789 0.26998 0.031414 -0.027611 0.0051074 0.01711 0.049006 
0.25781 0.33985 0.26159 0.054596 -0.0095255 0.014972 -0.0011404 0.028947 
-0.016266 0.31289 0.17117 0.035688 -0.015773 0.036017 0.017603 0.0042853 
-0.1205 0.10935 0.088136 0.009711 -0.037147 0.0227 0.019247 0.005765 
0.028947 -0.11508 0.035031 0.047197 -0.028597 0.0064227 0.0042853 0.0037921 
0.15982 -0.30629 0.056404 0.029934 -0.034352 0.028454 0.011191 0.04506 
0.19616 -0.28377 0.065283 0.059035 -0.0054151 0.021384 0.047855 0.078929 
0.05624 0.062323 0.0421 0.02533 -0.024487 0.011848 0.049335 0.072024 
-0.066577 0.26817 -0.01939 -0.029091 -0.061973 0.012177 0.0067515 0.0032988 
0.034044 0.31651 -0.023665 -0.051451 -0.091404 -0.011663 0.054103 0.051472 
0.057884 0.2833 -0.057534 -0.020212 -0.082525 0.01711 0.042594 0.1003 
-0.054739 0.045553 -0.0406 0.031578 -0.009361 0.023851 0.024015 0.14058 
-0.066084 0.0060938 -0.016102 0.03799 -0.015116 0.039305 0.063639 0.092247 
0.078272 0.14881 0.0011614 0.046375 -0.010348 0.042758 0.041936 0.073339 
0.17347 0.25452 0.06035 0.083368 0.0092177 0.050486 0.042594 0.043745 
0.097672 0.33361 0.063145 0.032893 -0.015938 0.045882 0.015465 0.025988 
-0.13826 0.26472 0.082217 -0.018075 -0.036654 0.0031344 0.027961 -0.0019624 
-0.23083 0.13187 0.10441 0.018425 -0.034516 0.014972 0.037004 0.015959 
-0.13168 0.011848 0.11773 0.049664 -0.01676 0.031249 0.029934 0.017603 
-0.064933 -0.021363 0.10869 0.10951 0.010369 0.0090533 0.042265 -0.019555 
0.10556 0.011684 0.12628 0.11017 0.037332 0.024837 0.026481 0.048841 
0.38573 -0.0088678 0.15094 0.13039 0.076956 0.042758 0.050814 0.1368 
0.47862 -0.17624 0.067256 0.050321 0.015137 -0.0042642 0.050979 0.093562 
0.1373 -0.36071 -0.071674 -0.056548 -0.076771 -0.030077 -0.031557 -0.001798 
-0.19646 -0.15668 -0.11228 -0.032872 -0.096336 -0.015773 -0.034352 -0.073482 
-0.26963 0.34248 -0.036654 -0.046683 -0.09946 0.012177 0.016945 -0.048327 
-0.19827 0.53896 0.059857 0.012999 -0.039942 0.040128 0.050157 0.0421 
-0.085156 0.53222 0.15094 0.022535 -0.049971 0.0087245 0.031907 0.058377 
-0.040435 0.51972 0.18037 0.0075736 -0.050958 0.0023123 0.040128 0.046375 
-0.039284 0.32884 0.092904 0.037332 -0.037805 0.025988 0.031742 -0.0036066 
0.071366 -0.0016336 -0.035503 0.02533 -0.03501 0.072353 0.045718 0.028783 
0.2218 -0.22392 -0.047176 0.066927 0.019411 0.08008 0.082217 0.097179 
0.19681 -0.4153 -0.078744 0.069722 0.0024767 0.056898 0.07038 0.10096 
0.080573 -0.55456 -0.15076 0.012835 -0.027611 0.014808 0.0072447 0.041278 
-0.07562 -0.68675 -0.20732 0.0041209 -0.054904 -0.027118 -0.01117 0.0095465 
-0.13415 -0.93024 -0.24036 -0.012814 -0.068386 -0.025967 1.0539e-005 -0.026789 
-0.093376 -1.0471 -0.23921 -0.01117 -0.050793 0.0014903 -0.0042642 -0.018897 
-0.010676 -0.70565 -0.17969 0.03092 -0.052931 0.023851 -0.012814 0.023522 
0.044731 -0.060494 -0.067564 0.035031 -0.033201 0.018425 0.043087 0.011355 
0.084519 0.35301 0.054925 0.085341 0.00099702 0.056076 0.047197 0.035853 
0.09833 0.27425 0.071695 0.034209 -0.014787 0.046704 0.019576 0.036675 
0.01415 0.076792 0.04506 -0.028762 -0.056383 0.029441 0.016945 0.037332 
0.0036276 0.13565 0.064132 -0.014622 -0.080059 0.027303 0.013986 0.033551 
0.047033 0.35679 0.14848 0.019083 -0.049971 0.02829 0.041114 0.063474 
-0.009361 0.40036 0.18892 0.084519 0.0047785 0.065118 0.055582 0.067256 
-0.11196 0.34857 0.15357 0.077614 0.014972 0.071366 0.0421 0.053116 
-0.037805 0.34512 0.11346 0.06035 0.009711 0.020562 0.01563 -0.0019624 
0.10244 0.35514 0.056076 0.053116 -0.009361 0.012013 -0.0031133 0.00033937 
0.023193 0.24548 -0.018733 0.017274 -0.030406 0.018918 0.012835 -0.0024557 
-0.03764 0.069722 -0.08269 0.019905 -0.047012 0.0079024 0.0028056 -0.03616 
0.17659 -0.10505 -0.03205 0.0095465 -0.047505 0.013986 0.02122 0.027303 
0.33689 -0.23658 0.0064227 0.027632 -0.03912 0.038155 0.062323 0.08715 
0.26274 -0.22474 -0.0064016 0.044896 -0.028926 0.025824 0.059857 0.098001 
0.20914 -0.088444 0.061337 0.072188 0.0046141 0.052294 0.059857 0.08567 
0.18777 0.024015 0.021713 0.084026 0.028125 0.059528 0.058377 0.067749 
0.044402 -0.1644 -0.048163 0.040785 -0.0062372 0.01826 0.023028 -0.0080457 
-0.21504 -0.39195 -0.12922 -0.017088 -0.051287 -0.0059084 -0.029584 -0.071181 
-0.3178 -0.32832 -0.12248 -0.018075 -0.082361 -0.018568 -0.026789 -0.1381 
-0.33885 -0.26059 -0.030735 -0.010512 -0.07003 -0.022185 -0.015773 -0.074633 
-0.21702 -0.084169 0.042265 0.013328 -0.03501 0.0023123 0.0074092 0.03388 
0.082217 0.18909 0.11839 0.044896 -0.020377 0.024344 0.017274 0.05213 
0.26735 0.36452 0.15538 0.046046 -0.012156 0.038319 0.044402 0.068407 
0.27705 0.40924 0.15061 0.079422 0.00297 0.015794 0.041114 0.076299 
0.19698 0.42946 0.11872 0.019576 -0.022843 0.033387 0.033551 0.013657 
0.06742 0.42847 0.052623 0.019576 -0.012649 0.012177 0.033551 -0.0068948 
-0.050464 0.25666 -0.041586 -0.037476 -0.066906 -0.014293 0.015959 -0.02942 
-0.12577 -0.051944 -0.13514 -0.090746 -0.11903 -0.0096899 -0.017582 -0.042079 
-0.10061 -0.07003 -0.10604 -0.047505 -0.11409 -0.0042642 0.02533 0.01563 
0.051965 0.21358 0.048513 0.0013258 -0.073976 0.012177 0.027632 0.034044 
0.28954 0.3831 0.13384 0.069886 -0.0070593 0.058706 0.052787 0.11115 
0.44574 0.31421 0.15587 0.089287 0.011848 0.071859 0.10244 0.1733 
0.31223 0.16114 0.1927 0.10293 0.036017 0.082711 0.098166 0.13253 
-0.089102 -0.04471 0.19501 0.10803 0.034702 0.085999 0.055418 0.040785 
-0.30481 -0.046519 0.17182 0.041443 -0.004593 0.024673 0.013492 -0.034352 
-0.22754 0.10014 0.14486 0.014643 -0.0044286 -0.010348 0.0042853 -0.052437 
-0.061809 0.25387 0.14486 0.024837 -0.021528 -0.010676 0.0028056 0.027139 
0.0013258 0.36649 0.16229 0.024344 -0.027282 0.0042853 0.026974 0.066927 
0.066598 0.23167 0.14272 0.044402 -0.028597 0.01267 0.045224 0.034044 
0.1179 0.070873 0.067091 0.013821 -0.038627 0.0041209 -0.0040998 -0.0013048 
0.0083956 0.20224 0.0023123 0.0036276 -0.027118 0.0056006 -0.025309 -0.06148 
-0.09798 0.29152 -0.045368 0.0021479 -0.056712 -0.013471 -0.011992 -0.091568 
-0.02498 0.26209 -0.084827 -0.018897 -0.069701 -0.0083746 -0.012156 -0.041915 
0.14765 0.27771 -0.057205 0.054267 -0.03205 0.027468 0.027632 0.039141 
0.19829 0.13664 -0.010183 0.064296 -0.011498 0.068407 0.098823 0.11198 
0.19764 0.030098 0.017932 0.063474 0.0014903 0.070544 0.10441 0.14519 
0.1151 0.17511 0.092082 0.081395 0.00066819 0.068736 0.10902 0.13121 
0.042758 0.21621 0.15949 0.039305 -0.0138 0.05065 0.075312 0.093233 
-0.055068 -0.082032 0.083368 0.029605 -0.026953 0.014643 0.042594 0.0227 
-0.16769 -0.41941 -0.047341 -0.039613 -0.075455 -0.0044286 -0.0138 -0.034681 
-0.26026 -0.54897 -0.082361 -0.017417 -0.081374 -0.018075 -0.015444 -0.054575 
-0.31336 -0.52874 -0.0011404 -0.0029489 -0.079237 -0.013965 -0.02235 -0.074304 
-0.079566 -0.52463 0.035853 -0.006566 -0.07003 -0.0014692 -0.0026201 -0.0080457 
0.28675 -0.23165 0.035688 0.026974 -0.034188 0.0044497 0.0042853 0.050321 
0.42765 0.28165 0.0060938 0.016452 -0.03353 0.01267 0.060515 0.032564 
0.2685 0.61147 0.012506 0.015794 -0.039449 0.017438 -0.00031829 0.03092 
-0.067892 0.56412 0.031249 0.06742 -0.01939 0.032564 0.017767 0.07038 
-0.12873 0.39575 0.051965 0.051143 -0.01232 0.034537 0.056076 0.12217 
0.095371 0.30122 0.058377 0.075476 0.01826 0.070708 0.078107 0.14946 
0.10326 0.14963 0.08008 0.063968 0.0070803 0.0324 0.042594 0.068736 
-0.13678 0.055089 0.12003 0.05772 0.0021479 0.020233 0.023522 -0.015444 
-0.15224 0.0090533 0.16048 0.080902 0.0044497 0.035524 0.029441 -0.0078813 
0.029441 0.01415 0.15768 0.076299 0.011355 0.03388 0.052787 0.046046 
0.15242 0.063145 0.18859 0.09126 0.048841 0.056733 0.068242 0.072517 
0.13269 -0.19186 0.061501 0.048677 0.0041209 0.040785 0.046046 0.098659 
-0.023501 -0.57544 -0.18052 -0.059014 -0.072989 -0.020212 0.010533 0.033222 
-0.15191 -0.69168 -0.28344 -0.057699 -0.11574 -0.01528 0.0098754 -0.010348 
-0.10078 -0.376 -0.24217 -0.070852 -0.12363 0.016123 0.014315 -0.040764 
0.0080668 0.14338 -0.090746 -0.003771 -0.060658 0.022371 0.00050378 -0.033694 
0.099316 0.36008 0.010862 0.056404 -0.02942 0.039141 0.032564 0.016288 
0.11428 0.2098 0.071695 0.069886 0.0041209 0.073832 0.060844 0.0592 
0.090767 -0.14632 0.10984 0.087643 0.0060938 0.048677 0.045718 0.05772 
-0.059014 -0.4005 0.10178 0.0093821 -0.03501 -0.0055795 -0.0019624 0.012835 
-0.37436 -0.39475 0.018589 -0.055232 -0.063124 -0.032379 -0.036489 -0.077428 
-0.24365 -0.17443 -0.03501 -0.045532 -0.093376 -0.037969 -0.034023 -0.05589 
0.15818 0.11313 -0.0062372 0.00017495 -0.065426 0.0056006 -0.0049219 -0.0064016 
0.1927 0.329 -0.0055795 0.083368 -0.013143 0.057391 0.028783 0.012506 
0.10211 0.41877 -0.0072237 0.059364 -0.0060728 0.052623 0.042429 0.075476 
0.30155 0.39625 -0.0024557 0.088958 0.034209 0.061995 0.05624 0.14568 
0.59996 0.2805 0.015465 0.08715 0.022042 0.08156 0.090767 0.21391 
0.49605 0.036675 -0.035667 0.050814 0.0011614 0.049664 0.096521 0.20208 
0.19928 -0.067399 -0.023007 0.07597 0.0056006 0.020562 0.046704 0.087808 
-0.030899 -0.10127 -0.028433 0.01711 -0.026131 0.0056006 0.010204 0.023357 
-0.27144 -0.23083 -0.051287 -0.001798 -0.046683 -0.025967 -0.023665 -0.064933 
-0.37995 -0.26897 -0.032872 0.027468 -0.050464 -0.038133 -0.054246 -0.10834 
-0.2402 0.042429 0.037661 0.014643 -0.042573 -0.013965 -0.021199 -0.052109 
0.012835 0.21161 0.10425 0.071202 -0.008539 0.037826 0.065447 0.034044 
0.094055 0.1105 0.060515 -0.0098543 -0.045368 0.059364 0.06479 0.068407 
0.071037 0.038483 0.045718 -0.024323 -0.068879 0.086657 0.058213 0.046868 
-0.02646 -0.00015387 0.05065 -0.001798 -0.07973 0.059693 0.029112 0.00050378 
-0.087951 0.063639 0.058706 0.026152 -0.05178 0.035853 0.004943 -0.014622 
-0.15602 0.1881 0.10458 0.058871 -0.0047575 0.040128 0.0018191 -0.00015387 
-0.19877 0.18596 0.091753 0.074983 0.00083261 0.033222 0.0034632 -0.044381 
-0.087129 0.19402 0.023851 0.050486 -0.0073881 0.004943 -0.0049219 -0.038956 
0.19566 0.23298 -0.0096899 0.053445 -0.015444 -0.014951 -0.011827 -0.011498 
0.36287 0.058542 0.0098754 0.014643 -0.031392 0.0092177 0.012177 0.027139 
0.24417 -0.17493 0.030098 0.043745 -0.0044286 0.017767 0.027468 0.040292 
-0.037476 -0.26157 0.048677 0.024015 -0.023501 0.023851 0.03388 0.04095 
-0.08828 -0.19022 0.036182 0.030756 -0.019884 0.046868 0.034537 0.022864 
0.065776 -0.069043 0.00083261 0.056076 -0.016102 0.023851 0.061337 0.08567 
0.19665 0.027139 -0.022679 0.032893 -0.025967 0.0051074 0.02829 0.041936 
0.28083 -0.030406 -0.062138 0.0069159 -0.02235 0.012999 0.020233 0.04654 
0.23249 -0.10357 -0.05441 0.0026412 -0.043395 0.01004 0.033222 0.037168 
0.11 0.058871 -0.041422 0.011355 -0.04323 0.0026412 0.019083 0.014972 
-0.20912 0.10458 -0.00097594 0.04917 -0.041257 0.01826 0.02533 0.049992 
-0.47843 -0.017746 0.016288 0.019083 -0.038462 0.029441 0.031742 0.042429 
-0.41628 -0.029255 0.038812 0.048019 0.0060938 0.05065 0.053445 0.052952 
-0.18791 0.037332 0.094877 0.056404 -0.0042642 0.083368 0.046375 0.040456 
-0.069865 0.12825 0.15324 0.071202 0.0095465 0.044238 0.037826 -0.0088678 
-0.029091 0.20668 0.16146 0.072681 0.0026412 0.038155 0.061008 0.013492 
0.18925 0.36928 0.13467 0.035524 -0.011827 0.077614 0.07449 0.12677 
0.3752 0.40611 0.1026 0.0039565 -0.010676 0.048348 0.070051 0.12497 
0.44376 0.39559 0.069229 -0.0049219 -0.053753 0.013492 0.055911 0.086657 
0.49934 0.3124 0.048348 -0.03205 -0.075455 0.0037921 0.0054362 0.059364 
0.42568 0.073339 0.073504 0.023193 -0.059672 -0.019061 -0.015609 0.011848 
0.15686 0.010204 0.11609 0.024837 -0.043066 -0.020377 0.0093821 -0.023665 
-0.080717 0.13236 0.16886 0.055911 0.0074092 0.024837 0.016945 -0.024816 
-0.12478 -0.066248 0.18547 0.10984 0.029769 0.041772 0.021878 -0.0091966 
-0.32882 -0.53729 0.04654 0.039141 -0.0021268 0.033222 0.0079024 -0.033037 
-0.54486 -0.63479 -0.13925 -0.028269 -0.063124 0.0092177 -0.022021 -0.077922 
-0.33671 -0.23362 -0.18939 -0.067564 -0.10341 -0.026131 -0.038133 -0.046025 
-0.24382 0.15555 -0.13333 -0.02794 -0.068386 -0.050793 -0.028269 -0.040928 
-0.24513 0.47698 0.043416 0.055254 -0.03205 -0.00031829 0.029769 0.0090533 
-0.059343 0.55573 0.17626 0.072188 0.0028056 0.044238 0.058706 0.095042 
0.21457 0.32506 0.19254 0.099316 0.021056 0.076299 0.075312 0.11477 
0.11707 0.086492 0.14585 0.063145 0.009711 0.091753 0.098823 0.076792 
0.14585 0.10408 0.11576 0.035688 -0.0029489 0.083533 0.07301 0.08978 
0.38194 0.17906 0.13598 0.046046 -0.017911 0.055911 0.067749 0.094548 
0.54471 0.24417 0.14519 0.0095465 -0.035832 0.035524 0.072024 0.099152 
0.49424 0.24285 0.096193 0.011355 -0.035832 -0.013965 0.016452 0.081067 
0.35564 0.15489 0.052787 -0.011498 -0.053917 -0.046354 -0.0098543 0.03651 
0.14354 0.0083956 -0.0040998 -0.023501 -0.069372 -0.038791 -0.019555 -0.019061 
-0.026296 -0.054739 -0.010019 -0.0083746 -0.072167 -0.0075525 -0.013307 -0.042079 
-0.10242 -0.1478 -0.011498 0.01152 -0.054739 0.017274 -0.00015387 -0.02942 
-0.04882 -0.1935 -0.004593 0.050486 -0.018239 0.048841 0.044896 0.032893 
-0.066906 -0.059178 0.028783 0.0421 -0.016595 0.042429 0.047855 0.034702 
-0.20238 0.03947 0.0227 0.032071 -0.023007 0.0019835 0.014808 -0.0019624 
-0.23428 0.0098754 -0.024487 0.013657 -0.046847 -0.016102 -0.028104 -0.020377 
-0.1358 -0.063453 -0.096829 -0.02942 -0.073482 -0.02087 -0.023665 -0.042573 
-0.20666 0.10721 -0.058192 0.0052718 -0.043888 -0.016924 0.019411 0.0014903 
-0.038791 0.33229 0.056404 0.06742 -0.0073881 0.035195 0.041607 0.0786 
0.317 0.30763 0.1202 0.08715 0.020727 0.071859 0.060679 0.10343 
0.41466 0.14996 0.1202 0.10047 0.023522 0.048348 0.065283 0.11313 
0.30155 0.093069 0.093398 0.049006 -0.0026201 0.06594 0.067256 0.11543 
0.1909 0.10293 0.08715 0.043745 0.0069159 0.049664 0.046868 0.038483 
0.10819 0.11954 0.055089 0.036346 -0.012156 0.045224 0.038812 -0.011992 
0.074654 0.22526 0.062488 0.028619 -0.023501 -0.0027845 -0.0039354 -0.045696 
0.0075736 0.22033 0.070215 0.020398 -0.055726 0.030098 0.027303 -0.058028 
-0.11409 0.10869 0.081889 0.021878 -0.042737 0.0093821 0.035524 0.033058 
-0.1358 0.067913 0.077449 0.063474 0.0062583 -0.023994 0.025659 0.017274 
0.0028056 0.061501 0.090931 0.056076 -0.0047575 -0.0055795 0.0034632 0.040292 
0.097344 0.042429 0.045882 0.0083956 -0.033365 -0.053095 -0.0067304 0.0014903 
0.090931 0.0019835 -0.018075 0.0023123 -0.05589 -0.064768 -0.023501 -0.030735 
0.029769 -0.10094 -0.090746 -0.055397 -0.076442 -0.020048 -0.0077169 0.0024767 
-0.010348 -0.18068 -0.1741 -0.049149 -0.068057 0.029769 0.030263 0.030592 
0.010369 -0.16621 -0.16128 -0.00031829 -0.067399 0.10721 0.063639 0.072353 
0.031907 -0.049807 -0.086471 0.047033 -0.028104 0.12349 0.073997 0.087808 
0.081724 -0.069372 -0.034681 0.10359 0.0019835 0.12053 0.10228 0.098494 
0.14848 -0.24875 -0.027447 0.054925 -0.0052507 0.077614 0.080409 0.099645 
0.08863 -0.64466 -0.059507 0.019905 -0.0039354 0.067256 0.046046 0.097015 
-0.025638 -0.79115 -0.064933 0.049499 -0.014622 0.02681 0.036346 0.0065871 
0.018096 -0.49931 0.0227 0.062159 -0.0024557 0.029605 0.0042853 -0.021363 
-0.021692 -0.04323 0.019411 0.048513 -0.017253 -0.0036066 -0.03501 -0.059836 
-0.22195 0.37783 0.016123 -0.014293 -0.062302 -0.038956 -0.056877 -0.099789 
-0.291 0.60357 0.11378 -0.009361 -0.051122 -0.02794 -0.0049219 -0.027775 
-0.10867 0.5947 0.18333 0.045718 -0.030242 0.053938 0.064132 0.080573 
0.13532 0.61327 0.19484 0.060186 -0.0075525 0.051143 0.084355 0.11033 
0.094384 0.5189 0.14239 0.086163 0.021384 0.047691 0.077778 0.091918 
-0.060165 0.16442 0.048677 0.058213 0.0070803 0.035524 0.029605 0.023686 
-0.052931 -0.20551 -0.062302 0.025166 -0.019884 -0.00015387 -0.0073881 -0.017417 
0.12891 -0.39803 -0.076606 0.017603 -0.042573 -0.01232 0.01711 -0.0029489 
0.16706 -0.35923 0.034373 0.032729 -0.02942 0.033551 0.04506 0.058049 
0.023851 -0.15914 0.15571 0.079422 0.0052718 0.086821 0.071366 0.05772 
-0.07562 0.11033 0.16525 0.043087 1.0539e-005 0.085835 0.098659 0.08419 
-0.02942 0.1613 0.083533 0.01152 -0.030242 0.090109 0.076134 0.071695 
-0.024816 -0.060987 0.0039565 -0.00031829 -0.050958 0.07301 0.061666 0.10162 
-0.023994 -0.18956 -0.0096899 -0.011498 -0.065591 0.027961 0.031578 0.055911 
0.017932 -0.19104 -0.043559 0.0060938 -0.0503 -0.0031133 -0.013636 -0.013471 
0.10655 -0.00097594 -0.10587 0.0036276 -0.055068 -0.020212 -0.017746 -0.01676 
0.12085 0.30911 -0.10768 0.045553 -0.025474 -0.010183 -0.0036066 -0.0090322 
0.045389 0.48273 -0.075291 0.082546 -0.0052507 0.018425 0.037332 0.029112 
-0.11524 0.31174 -0.13859 0.029276 -0.020706 0.01004 0.011848 0.0011614 
-0.11705 0.12135 -0.16375 -0.018897 -0.039449 -0.033037 -0.014787 -0.035503 
0.0054362 -0.059014 -0.091732 -0.0062372 -0.055232 -0.019719 0.032236 0.014808 
0.14174 -0.36548 -0.042901 0.0028056 -0.050793 0.019083 0.031249 0.075476 
0.25814 -0.68428 -0.042079 0.012013 -0.053588 0.06594 0.040292 0.10277 
0.1784 -0.69349 -0.0034422 0.0024767 -0.054246 0.068571 0.066105 0.068571 
-0.14171 -0.3081 0.089616 0.031414 -0.020212 0.08008 0.049335 0.0023123 
-0.3012 0.25781 0.16048 0.054267 -0.016924 0.037826 0.0098754 -0.030242 
-0.25154 0.50789 0.20849 0.037004 -0.023007 0.01152 0.048677 -0.0080457 
-0.080059 0.37964 0.2223 0.047691 -0.03057 0.0016547 0.024508 0.010369 
0.14979 0.30878 0.1909 0.023522 -0.034845 0.013492 0.025988 0.065283 
0.23578 0.38375 0.17347 0.047855 0.005765 0.016781 0.054432 0.10277 
0.16969 0.44426 0.16393 0.071037 0.00297 0.04654 0.067091 0.097179 
0.047033 0.43554 0.094713 0.040128 -0.012156 0.031578 0.044238 0.064461 
-0.052766 0.31585 -0.015444 0.0011614 -0.047669 0.0075736 0.0070803 0.020233 
-0.049478 0.28149 -0.038791 -0.037476 -0.077593 0.020562 0.0032988 -0.013471 
-0.025145 0.30664 0.0039565 0.0090533 -0.03616 0.013657 -0.0052507 -0.0055795 
0.0021479 0.16163 0.024015 0.043745 -0.028926 0.0059294 -0.0016336 -0.02087 
0.083368 -0.0059084 -0.0073881 0.053609 -0.0087034 0.025001 0.0088889 -0.0062372 
0.20503 -0.13859 -0.076277 0.053938 -0.016431 0.0069159 -0.0095255 0.016288 
0.077121 -0.35989 -0.14122 0.0227 -0.03057 -0.020377 -0.042573 -0.023501 
0.010204 -0.46117 -0.082196 -0.0073881 -0.030899 0.0046141 0.015137 -0.011663 
0.08567 -0.45706 -0.040764 0.03092 -0.033037 0.0070803 0.043909 0.048184 
0.024837 -0.34065 0.0065871 0.020562 -0.034516 0.0046141 0.050157 0.062159 
0.0098754 -0.091732 0.054103 0.065118 -0.02235 0.031085 0.055582 0.084519 
0.069064 0.19961 0.10359 0.041443 -0.019061 0.022535 0.062817 0.091918 
0.072353 0.33065 0.13368 0.0098754 -0.031721 0.034209 0.06035 0.06594 
-0.03057 0.2006 0.078929 0.0047785 -0.054575 0.062652 0.04095 0.052787 
-0.040928 0.0037921 0.067091 0.043909 -0.036818 0.048677 0.025166 -0.017911 
