0.25304 0.45083 0.084519 0.088465 0.056569 0.040785 0.0689 0.088136 
0.20471 -0.031392 0.053116 0.052787 0.043416 0.025166 0.050979 0.082875 
0.095535 -0.11343 0.10293 0.0786 0.048677 0.0013258 0.044731 0.076299 
0.01711 0.01004 0.12973 0.08567 0.029441 0.0011614 0.021549 0.0421 
-0.0098543 0.056898 -0.12955 0.040128 0.046046 0.012506 0.046704 0.034537 
-0.059672 0.085012 -0.39803 -0.0082102 0.033551 0.022864 0.025001 -0.0029489 
-0.14878 0.035031 -0.42303 -0.081703 -0.0070593 -0.027118 -0.012814 -0.051287 
-0.19992 -0.29002 -0.24118 -0.11508 -0.041751 -0.068057 -0.036325 -0.068879 
-0.22326 -0.14813 0.067749 -0.11804 -0.059343 -0.076771 -0.043888 -0.092719 
-0.17065 0.25387 0.38277 -0.049314 -0.039613 -0.046683 -0.011992 -0.042737 
-0.060823 0.26883 0.41548 0.00099702 -0.029584 -0.0088678 -0.0050863 0.017438 
0.065283 0.32276 0.23956 -0.015938 -0.01117 0.029934 0.047691 0.04917 
0.039634 -0.32783 -0.15125 0.073175 0.03651 0.048019 0.033551 0.039799 
-0.083347 -1.2757 -0.41826 0.086328 0.073504 0.084684 0.064625 0.079751 
-0.099789 -0.8916 -0.27752 0.11707 0.066105 0.06183 0.043909 0.02533 
0.029934 0.33673 0.1003 0.11855 0.077943 0.054432 0.039305 0.039305 
0.16212 0.92599 0.34824 0.1077 0.072681 0.041772 0.022042 0.058542 
0.171 0.56264 0.35514 0.1003 0.061337 0.01974 0.013492 0.017438 
0.12151 -0.11343 0.20767 0.037661 0.056404 -0.0049219 0.024015 0.015137 
0.06035 -0.16407 0.086657 0.025824 0.024344 0.0031344 0.03947 0.021056 
-0.03764 0.088794 0.07597 -0.022679 0.0016547 -0.017746 -0.0013048 0.015301 
-0.065755 0.062323 0.11247 -0.034023 -0.0073881 -0.023007 0.0032988 0.00066819 
0.034537 -0.11722 0.11346 0.00083261 0.039634 0.0011614 0.035031 0.051636 
0.18185 0.15851 0.0047785 0.044731 0.076299 0.0592 0.066269 0.10244 
0.19665 0.55606 -0.14303 0.059528 0.077614 0.066763 0.059528 0.11231 
0.092247 0.54734 -0.13875 0.034702 0.062981 0.05624 0.020562 0.061337 
-0.069536 0.19402 -0.032543 0.082875 0.057391 0.022371 0.026646 0.0093821 
-0.20879 -0.27144 0.04506 0.061172 0.036839 0.037497 0.0088889 -0.03912 
-0.13908 -0.27686 0.11115 0.03947 0.021549 0.023686 0.01711 -0.015444 
-0.028762 -0.16753 -0.017417 0.01004 0.011191 0.030098 0.024015 0.015794 
-0.057205 -0.61638 -0.24645 -0.089431 0.021878 0.014479 0.048513 -0.0055795 
-0.30629 -1.4297 -0.53203 -0.15799 -0.043559 -0.021856 0.017438 -0.061645 
-0.48156 -1.3789 -0.44029 -0.15043 -0.074304 -0.07414 -0.0067304 -0.14665 
-0.26059 -0.50885 -0.15668 -0.064604 -0.044217 -0.020377 -0.016102 -0.086636 
0.071531 0.65027 0.28757 0.088958 0.031742 0.0044497 0.047526 0.0039565 
0.20849 1.1623 0.65093 0.15801 0.055747 0.050814 0.048348 0.050321 
0.19632 1.0199 0.70864 0.18218 0.066598 0.035853 0.067256 0.075805 
0.20208 0.94786 0.37405 0.11099 0.088136 0.044238 0.066763 0.066105 
0.27507 1.0449 0.10343 0.10836 0.11526 0.070544 0.08156 0.096686 
0.27327 0.78262 0.037826 0.10918 0.10491 0.095042 0.016945 0.07597 
0.14617 0.071037 0.024508 0.077778 0.078929 0.059364 -0.037969 0.034702 
0.027303 -0.52069 -0.24513 0.010533 0.012342 0.025001 -0.061316 0.028125 
0.087972 -0.10472 -0.44489 -0.080059 -0.041257 -0.021034 -0.050793 0.036675 
0.15768 0.35728 -0.30958 -0.046354 -0.018239 0.016123 -0.050464 0.067585 
0.12233 -0.14237 -0.069701 -0.026131 -0.00031829 0.0060938 -0.009361 0.056733 
-0.021528 -1.0927 -0.15635 -0.085813 -0.044217 0.022535 0.044402 0.013492 
-0.042408 -1.2933 -0.15059 -0.097158 -0.065591 -0.00081153 0.056569 0.0064227 
1.0539e-005 -0.47613 0.14486 -0.079895 -0.039613 0.027961 0.071037 0.014643 
-0.010183 0.2024 0.39855 0.057555 0.018754 0.012506 0.050979 0.029276 
0.016616 0.49457 0.43505 0.12513 0.087972 0.064954 0.065447 0.022042 
0.095535 0.66243 0.36106 0.1465 0.11066 0.021549 0.051308 0.049335 
0.18974 0.93766 0.35284 0.17544 0.10228 0.056733 0.054267 0.054103 
0.34018 1.303 0.42025 0.20684 0.10967 -0.012814 0.030756 0.082546 
0.40019 1.2543 0.33443 0.18777 0.076134 0.059528 0.079094 0.1008 
0.40496 0.95509 0.056569 0.096193 0.035853 0.024344 0.075312 0.11609 
0.32358 0.67214 -0.095349 0.10573 0.061337 0.060022 0.069064 0.13368 
0.1807 -0.080388 -0.1187 0.066269 0.040621 0.029112 0.065447 0.1054 
-0.024158 -1.0817 -0.36318 -0.0024557 0.035031 0.039963 0.026317 0.049992 
-0.17262 -1.2716 -0.61555 -0.10094 -0.044217 0.0032988 -0.030242 -0.039778 
-0.32536 -0.83258 -0.5243 -0.22326 -0.091239 -0.035667 -0.08384 -0.12034 
-0.55357 -1.201 -0.24168 -0.2231 -0.090088 -0.052602 -0.089102 -0.15405 
-0.54272 -1.1596 -0.045039 -0.17805 -0.055232 0.0085601 -0.075127 -0.10719 
-0.12215 -0.19811 0.06742 -0.06707 -0.0026201 0.049828 0.024344 0.0064227 
0.21753 0.74168 0.21671 0.079258 0.040621 0.081231 0.041278 0.077285 
0.34561 1.0421 0.35186 0.10737 0.064132 0.06742 0.069886 0.10343 
0.36172 0.93536 0.38408 0.16146 0.070215 0.058213 0.049992 0.095699 
0.39 0.70403 0.32785 0.11543 0.055747 -0.0082102 0.067913 0.071037 
0.38951 0.48158 0.15505 0.10376 0.04506 0.0090533 0.027796 0.084684 
0.26685 0.42387 0.018425 0.073832 0.028619 -0.0067304 0.020233 0.081889 
0.044731 0.34068 -0.074962 0.073668 0.0421 0.032729 0.015794 0.056569 
-0.11705 -0.13053 -0.12363 0.076134 0.026152 0.0044497 0.0074092 0.0324 
-0.12001 -0.38603 -0.063124 0.05065 0.012835 0.0032988 0.016123 0.034373 
-0.014622 -0.14862 0.13664 0.071202 0.03388 0.020233 0.023522 0.036839 
0.017767 0.27244 0.28428 0.062652 0.048841 0.053281 0.08008 0.036839 
-0.098144 -0.19252 0.13993 0.01415 0.045553 0.049828 0.10326 0.015137 
-0.18923 -0.75744 -0.090581 0.030592 0.039305 0.055418 0.11724 0.016945 
-0.12577 -0.50342 -0.12955 0.028947 0.042758 0.050979 0.10606 0.019411 
0.0080668 0.083533 -0.047998 0.070873 0.042265 0.046375 0.10441 0.033551 
0.019411 0.44031 0.032564 0.043909 0.029276 0.019247 0.040621 0.025166 
-0.035503 0.26784 -0.0032777 -0.00031829 0.023522 0.0013258 0.031249 0.012835 
-0.035996 -0.22557 -0.16029 -0.033037 -0.00081153 -0.0077169 -0.00015387 0.014643 
0.068407 -0.45262 -0.25154 -0.018568 0.019411 -0.0073881 0.020727 0.035524 
0.20882 -0.041422 -0.20107 0.050979 0.030098 0.00050378 0.020727 0.070051 
0.35531 0.42798 0.12464 0.067749 0.073668 0.029112 0.040621 0.085012 
0.31059 0.40151 0.26669 0.11066 0.081067 0.051143 0.025659 0.091589 
0.17445 0.42469 0.25222 0.13154 0.087314 0.06594 0.039634 0.066105 
0.099316 0.85727 0.30714 0.13713 0.073504 0.057062 0.040785 0.041443 
0.012999 0.85316 0.40085 0.15785 0.055254 0.034373 0.018096 -0.0031133 
-0.32865 -0.1279 0.1174 -0.023994 -0.017088 -0.0011404 -0.034516 -0.091897 
-0.66356 -1.1499 -0.41053 -0.22441 -0.10702 -0.051122 -0.1016 -0.18907 
-0.6389 -1.3283 -0.50786 -0.30613 -0.11722 -0.080881 -0.074962 -0.21406 
-0.31797 -1.1308 -0.11343 -0.15832 -0.062302 -0.041751 -0.032379 -0.093376 
-0.065426 -1.0611 0.078272 0.0031344 0.022371 0.015794 0.070051 0.034537 
0.029276 -0.61802 0.0019835 0.056898 0.043087 0.0087245 0.065283 0.13697 
0.17971 0.19533 -0.038627 0.092247 0.03651 0.023686 0.086657 0.098494 
0.37126 0.94539 -0.017582 0.095535 0.038812 0.018918 0.065283 0.1174 
0.46826 1.0299 -0.086307 0.061995 0.043087 0.023357 0.080409 0.13467 
0.24729 0.81534 0.073339 0.060844 0.065118 -0.0049219 0.056404 0.098823 
-0.090088 0.33772 0.30779 0.039141 0.02533 0.026974 0.029276 0.028125 
-0.32191 0.094548 0.40825 0.045553 0.0098754 0.0090533 0.00083261 -0.030242 
-0.23214 -0.0050863 0.27919 0.036182 0.029441 0.030427 0.018096 -0.012485 
0.056733 0.025001 0.14289 0.10754 0.066927 0.063639 0.048841 0.069229 
0.24466 0.014479 0.068242 0.13812 0.055911 0.064625 0.05624 0.09126 
0.2514 0.053281 0.077943 0.090274 0.031742 0.03092 0.051472 0.075476 
0.14042 0.21013 0.022864 0.055254 -0.0060728 0.022371 0.016288 0.030263 
0.036839 0.37422 -0.035503 -0.0062372 0.023193 -0.011005 0.0095465 -0.0024557 
0.0080668 0.43883 -0.062631 -0.01939 0.032564 -0.020048 -0.014129 0.0026412 
-0.003771 0.2634 -0.083347 -0.043395 0.026481 -0.010183 0.013164 -0.009361 
-0.031721 0.044567 -0.096665 -0.059507 0.005765 -0.0032777 -0.013307 -0.027447 
0.15768 -0.080223 0.011191 -0.063453 0.021056 0.010369 0.019083 -0.011334 
0.40611 0.0098754 0.1687 -0.035667 0.04095 0.0421 -0.0054151 0.030427 
0.37159 0.036346 0.19747 0.03388 0.04654 0.01004 0.017438 0.058377 
0.17824 -0.010512 0.057555 -0.015773 -0.022679 -0.008539 -0.035338 0.036346 
-0.10768 -0.0965 -0.066741 -0.041093 -0.031886 -0.038627 -0.053588 0.041607 
-0.21356 0.019247 -0.070523 -0.033201 -0.023829 -0.02087 -0.052109 0.052787 
-0.087129 -0.023172 -0.0064016 0.012506 0.038977 0.014479 0.040292 0.10967 
-0.10357 -0.21899 0.0014903 0.080573 0.055582 0.046211 0.058542 0.074161 
-0.48189 -0.51822 -0.16802 0.057391 0.065283 0.022206 0.054267 -0.004593 
-0.72324 -0.72719 -0.29972 0.046704 0.057555 0.062652 0.05476 -0.07973 
-0.60881 -0.71502 -0.28607 0.039634 0.06183 0.040621 0.03388 -0.089431 
-0.095185 -0.083183 -0.0965 0.032564 0.046375 0.035524 0.019576 -0.052273 
0.22263 0.23512 0.070873 0.0592 0.037004 -0.019884 -0.020377 -0.019226 
0.25436 0.25321 0.30253 0.035524 0.012835 0.015465 0.00066819 0.0046141 
0.31059 0.84921 0.66276 0.089616 0.017603 0.037332 0.016123 0.047691 
0.31848 0.8668 0.63333 0.027139 0.038648 0.04917 0.049664 0.078436 
0.18152 -0.17789 0.15719 -0.037147 0.0079024 -0.0098543 0.025166 0.069229 
0.12283 -0.53285 -0.15684 -0.052766 0.0046141 0.004943 0.018918 0.047197 
0.1493 0.083862 -0.087129 0.00066819 0.021056 -0.0044286 0.024508 0.052294 
0.19599 0.58286 -0.037476 0.077285 0.045389 0.041772 0.047362 0.073504 
0.20783 0.82307 -0.16802 0.063639 0.068571 0.028619 0.059364 0.079094 
0.19237 0.75862 -0.24809 0.085999 0.08156 0.063803 0.060022 0.08978 
0.17939 0.56198 -0.097487 0.080244 0.070708 0.035688 0.036675 0.10918 
0.086985 0.27261 0.071695 0.081395 0.055582 0.041114 0.023357 0.056404 
0.0024767 -0.15388 0.096028 0.098823 0.051143 0.01152 0.036182 0.03947 
-0.096172 -0.83505 0.014808 0.058213 0.048184 0.045389 0.097179 0.04095 
-0.12231 -0.88552 0.0056006 0.063803 0.03536 0.047033 0.10935 0.048184 
-0.12511 -0.32931 0.080738 0.014808 0.02533 0.060186 0.073504 0.044896 
-0.14188 0.13483 0.051965 0.022535 0.027303 0.024344 0.048019 0.022535 
-0.16161 0.48783 0.079422 0.041114 0.048677 0.034373 0.020233 0.021878 
-0.14582 0.43768 0.072846 0.046211 0.042429 -0.016266 0.014808 0.026974 
-0.22852 -0.20699 -0.081703 0.095042 0.03651 -0.0026201 0.0079024 -0.0049219 
-0.12478 -0.55275 -0.047341 0.057555 0.04358 0.0019835 0.030756 -0.003771 
0.13286 -0.36532 0.1807 0.084684 0.02829 0.043909 0.026481 0.020069 
0.34857 0.17347 0.28395 0.076627 0.025166 0.035524 0.026317 0.052459 
0.41039 0.7818 0.25732 0.056076 0.041114 0.042429 -0.00097594 0.069393 
0.439 1.1052 0.23562 0.10178 0.055254 0.034373 0.031085 0.077943 
0.46103 0.67131 -0.014129 0.038648 0.053116 0.069558 0.02681 0.097015 
0.43834 0.013164 -0.34674 0.020891 0.056733 0.0592 0.0070803 0.10326 
0.25206 -0.58366 -0.3303 -0.01676 0.058213 0.071859 0.029769 0.10113 
-0.056219 -1.0807 -0.18348 -0.04619 -0.0031133 0.011026 0.029605 0.034702 
-0.47564 -1.3625 -0.050136 -0.037311 -0.04471 -0.035667 0.025166 -0.070852 
-0.70121 -1.0667 0.097672 -0.10176 -0.08384 -0.073976 -0.014293 -0.15733 
-0.48189 -0.16111 0.28182 -0.056548 -0.084991 -0.063289 -0.0068948 -0.13399 
-0.10883 0.73955 0.25239 -0.010841 -0.059672 -0.062796 -0.042573 -0.078579 
0.22345 0.97729 0.071859 0.0047785 -0.03912 -0.032543 -0.015938 -0.032379 
0.31536 0.78147 0.03388 0.02681 -0.00064712 -0.042244 -0.0042642 -0.014787 
0.1539 0.59305 0.067913 0.070051 0.068736 0.042594 0.056404 0.034866 
0.055747 0.83458 0.069229 0.12529 0.10951 0.071531 0.080409 0.060844 
0.21375 0.91251 0.022864 0.10852 0.11296 0.093069 0.11609 0.10672 
0.33903 0.21605 0.043745 0.060022 0.080244 0.054596 0.080573 0.11165 
0.30237 -0.33687 0.12792 0.048513 0.062159 0.073504 0.075148 0.12316 
0.16475 -0.26042 0.1465 0.092411 0.073668 0.028947 0.060515 0.08715 
0.086163 -0.3303 -0.019226 0.10606 0.081231 0.046375 0.0227 0.052623 
0.013821 -0.91018 -0.19942 0.048513 0.063474 0.015794 0.023357 0.025495 
0.012342 -1.0516 -0.18874 0.057884 0.051308 0.024344 0.031085 0.027632 
-0.0083746 -0.61062 0.0028056 0.022042 0.019411 0.0052718 0.005765 -0.0049219 
-0.042573 -0.279 -0.016266 -0.064933 -0.020212 0.01004 -0.008539 -0.020706 
-0.029913 0.27491 -0.10127 -0.091404 -0.014951 0.020069 0.0039565 -0.011827 
0.048513 0.90347 0.0046141 -0.11228 0.0011614 0.040785 -0.0040998 -0.01117 
0.017932 1.0486 0.047033 -0.041915 0.025659 0.0064227 0.024179 -0.0031133 
-0.02498 0.56099 0.086328 0.0090533 0.03651 0.0059294 0.0065871 0.0082312 
-0.13316 -0.26848 0.026974 0.034866 0.023522 0.0042853 0.031907 0.020562 
-0.12429 -0.50967 -0.063782 0.022042 0.019083 0.015465 0.025166 0.018918 
0.11247 -0.16753 0.0087245 0.073504 0.027139 0.044567 0.051801 0.053774 
0.26472 -0.15618 0.045718 0.12677 0.025001 0.038648 0.064954 0.077449 
0.24581 -0.24875 0.0062583 0.11313 0.052294 0.04095 0.051636 0.074654 
0.15571 0.17495 0.1539 0.048184 0.018425 0.020069 0.0227 0.051308 
0.19681 1.1233 0.3946 -0.013471 -0.017417 -0.018404 0.0056006 0.027468 
0.12513 1.3165 0.52515 -0.034845 -0.024323 -0.013965 0.0052718 0.015959 
-0.36104 -0.29593 0.35991 -0.074633 -0.0868 -0.095843 -0.063618 -0.077922 
-0.77175 -1.5992 -0.03205 -0.16292 -0.10143 -0.084991 -0.06296 -0.11179 
-0.56179 -0.68 -0.16736 -0.10982 -0.013307 -0.017911 -0.05178 -0.076113 
-0.16572 0.52383 -0.24858 -0.009361 0.10491 0.067585 0.028947 -0.0042642 
0.2223 0.60982 -0.28475 0.073339 0.1881 0.15144 0.053445 0.062488 
0.51512 -0.28607 -0.43322 0.12595 0.22148 0.18021 0.10178 0.12562 
0.59766 -0.50359 -0.4467 0.048513 0.1026 0.10211 0.096686 0.13006 
0.54044 0.30451 0.077614 0.062488 0.023357 0.049828 0.088465 0.13746 
0.32489 0.70321 0.53238 0.084355 0.032893 0.025659 0.062817 0.080409 
-0.12001 0.10803 0.42239 0.082546 0.026317 0.023028 0.061337 0.03947 
-0.44473 -0.49898 0.00099702 0.041114 0.022206 0.020398 0.024179 -0.0047575 
-0.50951 -0.39721 -0.27703 0.017438 0.026646 0.016781 0.022371 -0.017911 
-0.27144 0.14683 -0.26272 0.087314 0.067256 0.041936 0.036182 0.01267 
-0.058028 0.56264 -0.1644 0.10885 0.073339 0.031249 0.044567 0.060844 
0.12924 0.77506 -0.051944 0.093726 0.053938 0.011355 0.045553 0.079094 
0.14437 0.80136 0.15324 0.06183 0.017932 -0.010019 0.033058 0.073175 
0.012835 0.20142 0.31651 0.0070803 -0.033037 -0.02942 0.027796 0.014643 
-0.096665 -0.4227 0.23956 -0.10078 -0.084663 -0.045696 -0.012814 -0.032543 
-0.02942 -0.37173 0.2371 -0.17427 -0.088444 -0.019061 -0.0083746 -0.021856 
0.040785 -0.46742 0.20405 -0.10078 -0.032215 -0.00081153 -0.00031829 0.015301 
0.091753 -0.76879 0.071695 -0.026296 0.044073 0.029769 0.0421 0.06594 
0.086821 -0.82008 -0.13481 0.042923 0.077121 0.029769 0.041278 0.061337 
0.13631 -0.018404 -0.14155 0.10803 0.066927 0.013821 0.059693 0.071859 
0.17429 0.87864 0.086985 0.12595 0.070708 0.016945 0.034702 0.0689 
0.15259 1.0363 0.24647 0.171 0.10819 0.077285 0.071531 0.070873 
0.075312 0.63909 0.18432 0.13039 0.13647 0.12891 0.039799 0.065447 
-0.0024557 0.18021 0.052623 0.11329 0.12727 0.1008 0.047197 0.031578 
-0.086142 -0.33161 -0.08532 0.047691 0.074983 0.040292 -0.0024557 -0.0077169 
-0.15355 -0.55669 -0.16391 0.010204 0.0064227 -0.0029489 -0.01117 -0.018733 
-0.11557 -0.303 -0.11524 0.018918 -0.034516 -0.0138 0.0052718 0.00099702 
0.068078 0.38573 0.089123 0.013821 -0.023501 0.013164 -0.0029489 0.042758 
0.11066 0.50937 0.10918 0.050979 -0.015773 0.0044497 0.043416 0.055747 
0.067091 0.40019 0.067091 0.024179 -0.009361 0.035195 0.041936 0.059364 
0.0065871 0.37109 0.023522 -0.008539 -0.025309 -0.015938 0.018589 0.032564 
-0.065919 0.37339 0.0032988 -0.030406 -0.037147 -0.020212 0.0031344 0.027303 
-0.061645 -0.11491 -0.022843 -0.036654 -0.0013048 -0.034352 0.0059294 -0.0070593 
-0.025474 -0.40856 0.0036276 0.030263 0.031742 0.0023123 0.0034632 0.023028 
0.051801 -0.29297 0.18826 0.059364 0.055254 0.038812 0.061172 0.047197 
0.077285 -0.095021 0.27557 0.06742 0.049499 0.048841 0.083204 0.065776 
0.029769 -0.43996 0.066763 0.053609 0.025659 0.034537 0.083204 0.037332 
-0.0050863 -0.88075 -0.16605 0.015301 0.01152 0.028947 0.045224 0.021384 
-0.015444 -0.61687 -0.18495 0.039634 -0.0075525 0.0052718 0.039141 0.011191 
-0.0083746 -0.058685 -0.1473 0.01004 -0.0036066 -0.0004827 0.0065871 0.0019835 
0.0083956 0.39987 -0.045039 0.045553 0.018425 0.0075736 0.0093821 0.0093821 
0.00033937 0.32144 -0.080552 0.084355 0.051308 0.030263 0.025001 0.011684 
-0.031392 -0.03501 -0.10637 0.098988 0.074819 0.037004 0.037661 0.038812 
-0.025145 -0.029748 0.087808 0.15522 0.078272 0.031578 0.056076 0.067913 
0.12168 0.63317 0.36731 0.062652 0.025824 0.038155 0.034537 0.064461 
0.28626 1.2404 0.51249 0.03092 0.0036276 0.046704 0.038319 0.049828 
0.31207 1.2357 0.1368 -0.049478 -0.0021268 0.027303 0.0031344 0.032071 
0.25551 0.75105 -0.26272 -0.078908 -0.016266 0.024673 0.016288 0.034373 
0.23775 0.097015 -0.37107 -0.025309 0.023357 0.031907 0.012342 0.052623 
0.35186 -0.041422 -0.16753 0.039305 0.04358 0.051308 0.068242 0.09422 
0.41483 -0.049971 0.038483 0.1128 0.064954 0.037168 0.05476 0.095206 
0.39608 0.18695 0.21917 0.066598 0.037826 0.052952 0.0689 0.061008 
0.28889 0.45922 0.49572 0.084519 0.013164 0.011026 0.022042 0.019411 
0.029441 -0.16539 0.58976 0.070544 0.026974 0.01267 0.0062583 0.0059294 
-0.30415 -0.85626 0.35219 -0.0049219 -0.031886 -0.02942 -0.0016336 -0.031228 
-0.53335 -0.93879 0.041443 -0.018239 -0.056548 -0.02794 -0.020377 -0.074798 
-0.60306 -0.75826 -0.18726 -0.046354 -0.033694 -0.041915 -0.013965 -0.096172 
-0.4735 -0.55784 -0.36499 -0.056055 -0.0083746 -0.015773 0.0032988 -0.077593 
-0.37124 -1.0881 -0.68642 -0.10571 -0.028433 -0.041915 -0.0013048 -0.0503 
-0.39327 -1.2005 -0.71831 -0.15552 -0.053753 -0.019719 -0.030077 -0.052437 
-0.2499 -0.33194 -0.32619 -0.069208 -0.035174 -0.0021268 -0.032872 -0.064933 
0.15489 0.86138 0.1835 -0.017417 0.0072447 0.038812 -0.036325 0.017932 
0.3928 1.3132 0.42798 0.087479 0.058542 0.041114 0.031907 0.078929 
0.39987 1.2039 0.48635 0.11642 0.075312 0.060515 0.033058 0.13762 
0.41696 1.0929 0.38885 0.13434 0.089616 0.045224 0.077449 0.10869 
0.32752 0.46037 0.12135 0.096521 0.069722 0.047691 0.062488 0.09126 
0.14749 -0.26009 -0.18265 0.05213 0.05624 0.0052718 0.075641 0.071202 
0.031907 -0.54288 -0.27637 0.062981 0.059364 0.032071 0.061995 0.060679 
0.0054362 -0.22688 -0.0965 0.043416 0.054596 0.033551 0.11181 0.061337 
0.036182 0.12546 0.09274 0.0227 0.013986 0.042594 0.12924 0.047855 
0.031085 0.22115 0.18103 0.011848 0.0074092 -0.0059084 0.11132 0.034044 
0.047855 0.21342 0.17314 -0.01939 -0.0032777 0.034537 0.079751 0.01711 
0.015794 0.13253 0.11987 0.023522 0.038483 0.04358 0.012999 0.012177 
-0.029584 0.06183 0.091096 -0.0042642 0.026152 0.024015 -0.011992 0.004943 
-0.04882 -0.059672 0.0083956 -0.0049219 0.023522 -0.0075525 -0.056548 -0.030406 
-0.10143 -0.15503 -0.02646 -0.015938 0.0032988 -0.014458 -0.072496 -0.024816 
-0.12544 -0.32125 -0.027775 0.025988 0.029769 -0.010019 -0.086636 0.0087245 
-0.068714 -0.34674 -0.049642 0.050321 0.027303 0.029934 -0.10916 -0.02646 
0.025001 -0.14385 -0.033037 0.073504 0.077614 0.03092 -0.091732 0.012342 
0.14617 0.11822 0.053281 0.10984 0.085835 0.052952 -0.024652 0.05772 
0.089452 -0.049149 0.13894 0.093562 0.088136 0.014808 0.00033937 0.070873 
0.01152 -0.35759 0.10556 0.072846 0.051472 0.044073 0.013821 0.075312 
0.067585 -0.10127 0.12201 0.068078 0.037661 0.031907 0.027139 0.05213 
0.092247 0.28971 0.033058 -0.00097594 0.010862 0.029934 0.084519 0.025495 
0.051143 0.15768 -0.26601 -0.053424 0.005765 -0.0082102 0.072188 0.031085 
0.21046 0.66112 -0.30169 -0.050629 -0.0036066 0.027961 0.088301 0.06742 
0.23562 1.2598 0.017603 0.031907 0.051143 0.0421 0.08156 0.070051 
0.020069 1.3087 0.36287 0.073668 0.046375 0.059857 0.071859 0.016616 
-0.32076 0.69006 0.44524 0.07038 0.058049 0.046046 0.059693 -0.0067304 
-0.5151 -1.0511 0.17676 0.052623 0.024673 0.027796 0.0036276 -0.021692 
-0.37272 -1.9223 -0.077264 -0.011992 0.019905 0.011191 -0.0077169 -0.01117 
-0.076113 -1.133 -0.023829 0.0064227 0.025166 0.020233 -0.031886 -0.027118 
0.12842 -0.6879 -0.095021 -0.0095255 0.035195 0.020398 -0.018568 -0.040764 
0.24499 0.08715 -0.059178 -0.011827 0.02681 0.015465 -0.031228 -0.0022913 
0.35794 1.0072 0.17396 0.064625 0.044402 0.0018191 0.012342 0.066105 
0.28214 0.84181 0.11198 0.055582 0.038812 0.013328 0.025659 0.096357 
0.08419 0.062652 -0.063618 0.071859 0.037004 0.018918 0.048841 0.075641 
0.01152 -0.46429 -0.15191 0.0592 0.046375 0.033551 0.046868 0.085012 
0.13861 0.028619 -0.036489 0.11559 0.071037 0.065447 0.068242 0.11066 
0.20454 0.72869 0.16262 0.14535 0.064954 0.055254 0.07038 0.11099 
0.17182 0.83244 0.24926 0.11477 0.049664 0.044896 0.021384 0.037332 
0.17593 0.40891 0.15916 0.0592 0.024179 0.013492 0.020562 0.029934 
0.2708 -0.22096 -0.046025 0.010369 0.034044 0.029769 0.023851 0.046704 
0.27787 -0.26305 -0.054246 0.0421 0.063803 0.040292 0.030756 0.082382 
0.18646 0.12299 0.063803 0.049335 0.061666 0.070708 0.031742 0.078436 
0.019083 0.30894 0.047526 0.021878 0.035688 0.058706 0.048513 0.03536 
-0.052602 0.28445 0.015465 0.022371 0.020233 0.055911 0.024179 0.0018191 
-0.093541 0.21309 0.035195 0.0037921 0.030756 0.021384 0.038483 -0.0083746 
-0.22014 0.034209 0.07597 0.020069 0.016452 -0.0032777 0.020562 -0.037476 
-0.33753 -0.066906 0.14749 -0.020377 -0.033859 -0.038627 0.0036276 -0.059507 
-0.26486 -0.18693 0.19073 0.00297 -0.022843 -0.030406 0.0070803 -0.054575 
-0.091075 -0.50014 0.050814 0.033715 0.005765 -0.0064016 0.038319 -0.0083746 
0.12135 -0.47482 -0.07266 0.021549 0.00297 0.01152 0.049335 0.040456 
0.24926 0.14963 0.017274 0.042758 0.022042 0.032564 0.078107 0.079094 
0.17676 0.40809 0.044073 0.044238 0.049992 0.031414 0.051143 0.034209 
-0.11228 -0.31797 -0.1866 -0.0049219 0.016781 0.018096 0.025166 -0.021363 
-0.21455 -0.3834 -0.21537 -0.049642 -0.015938 0.010533 0.028454 -0.043066 
-0.1963 0.096521 0.0054362 -0.038956 -0.010676 0.0070803 0.00297 -0.03616 
-0.17854 0.098494 0.11691 0.0047785 -0.006566 0.0095465 0.02681 0.0052718 
-0.0021268 0.057062 0.17528 0.034044 0.029112 0.031742 0.048019 0.038648 
0.19024 0.14091 0.20355 0.094384 0.053281 0.038977 0.072353 0.068242 
0.25041 0.12924 0.093562 0.064625 0.043087 0.010369 0.034702 0.052623 
0.19747 -0.069372 -0.18512 0.0087245 0.015959 0.016616 0.03947 0.040128 
0.1761 -0.11853 -0.35627 0.026481 0.036182 0.017932 0.044896 0.055911 
0.22674 0.38375 -0.22836 0.049664 0.063639 0.045553 0.082875 0.090438 
0.25814 0.77161 -0.030077 0.11066 0.075641 0.039141 0.08008 0.099645 
0.1636 0.83984 0.069064 0.098659 0.056898 0.055747 0.087972 0.088301 
0.064132 0.81781 0.21671 0.047197 0.033222 0.041278 0.052952 0.056404 
-0.059836 0.52531 0.2851 0.0054362 0.0042853 0.01563 0.021549 -0.024323 
-0.23675 -0.89884 0.049006 -0.055726 0.029441 0.0018191 -0.015444 -0.060329 
-0.32257 -1.729 -0.096665 0.0018191 0.051636 0.019411 0.00297 -0.031392 
-0.17969 -1.0575 -0.040271 0.0085601 0.04654 0.00099702 0.032564 0.022206 
0.013328 0.33558 0.090109 0.016123 0.0064227 0.01415 0.0075736 0.016452 
0.15966 0.92796 0.12727 0.011026 0.011684 0.023028 0.01563 0.038319 
0.095371 -0.50342 -0.081539 0.025824 0.02681 0.033551 0.011355 0.020727 
0.029276 -1.1466 -0.096007 0.10293 0.061501 0.033058 0.042594 0.04917 
0.052623 -0.44424 0.2514 0.075641 0.067091 0.031249 0.023028 0.045224 
0.020891 0.070215 0.30796 0.035031 0.053774 -0.0027845 0.016945 0.01563 
-0.10571 0.58927 0.0093821 -0.070359 0.0060938 0.0079024 -0.0027845 -0.015444 
-0.088444 1.1512 -0.15651 -0.073318 0.0016547 0.0093821 0.026974 -0.016924 
0.031249 1.1818 -0.18627 -0.011334 0.010862 0.019576 0.012835 0.016945 
0.10721 0.46333 -0.2379 -0.0054151 0.0037921 0.012999 0.037168 0.040785 
0.013492 -0.56113 -0.31303 -0.010676 -0.0042642 0.0031344 0.030756 0.035853 
-0.04619 -0.705 -0.12412 -0.026953 0.0042853 -0.01117 0.048841 0.034044 
-0.15816 -0.41941 0.055911 0.0013258 0.0072447 0.0095465 0.015137 0.0085601 
-0.15931 0.13286 0.14535 0.0059294 -0.0077169 0.012013 -0.0042642 -0.0098543 
0.0095465 0.76503 0.3119 0.037497 -0.0060728 0.0059294 0.018096 -0.0077169 
0.10507 0.70189 0.45412 0.066105 -0.0032777 -0.0040998 0.029112 0.010204 
0.12809 0.232 0.30911 0.017932 0.0060938 0.0083956 0.0227 0.031742 
0.17643 -0.12774 0.064132 0.049664 0.029441 0.0421 0.051472 0.056733 
0.18136 -0.19433 -0.021363 0.054596 0.076134 0.066927 0.071202 0.099645 
0.18744 -0.49405 -0.018733 0.064132 0.06331 0.063968 0.03651 0.065283 
0.14009 -0.55308 -0.10669 0.050814 0.056898 0.074326 0.069064 0.061666 
0.16656 -0.22474 -0.078579 0.025988 0.061995 0.029112 0.04095 0.047362 
0.10047 0.031249 -0.0083746 0.051143 0.04506 0.048348 0.055911 0.036346 
-0.10012 -0.096665 0.020727 0.0054362 0.010369 -0.013307 -0.018897 0.021056 
-0.13152 -0.035503 0.065283 -0.032379 -0.0095255 0.0095465 -0.03057 -0.00064712 
-0.026953 0.35071 0.053609 0.028947 0.020233 0.015465 -0.035338 0.033715 
0.12562 0.67625 0.0324 0.046704 0.039799 0.024837 -0.0073881 0.023357 
0.15357 0.60588 0.027961 0.11839 0.053938 -0.0019624 -0.021692 0.039963 
0.097344 0.20569 0.013164 0.063474 0.03651 0.0060938 -0.03057 0.026317 
0.05213 -0.1598 0.016616 0.050979 0.038483 0.00033937 -0.034516 0.041278 
-0.034681 -0.33013 0.10721 0.0074092 0.0044497 0.030427 -0.013471 0.023851 
-0.11541 -0.26864 0.21326 -0.04323 -0.024652 0.0041209 0.011355 -0.00015387 
-0.089595 -0.26091 0.1641 -0.027775 -0.021856 0.032729 0.045389 -0.0044286 
0.04095 0.010862 0.055911 0.00066819 0.044073 0.036182 0.086821 0.01415 
0.041772 0.30253 0.050486 0.058706 0.061666 0.044238 0.070544 0.028125 
-0.010841 0.38605 0.1733 0.080244 0.05772 0.03388 0.061008 0.037497 
0.074326 0.57283 0.19336 0.10935 0.070873 0.06035 0.042594 0.077778 
0.15324 0.94095 0.17577 0.10885 0.024344 0.019247 0.062159 0.053116 
0.1756 0.35186 -0.02942 0.0074092 0.021549 0.024837 0.011848 0.029934 
0.049499 -0.93534 -0.32931 -0.045532 0.021384 0.0093821 0.025001 0.01563 
-0.023501 -1.2295 -0.33342 -0.046354 0.019083 0.022042 0.0062583 0.032729 
0.051636 -0.46298 0.0072447 0.0024767 0.026481 0.0085601 0.030427 0.045389 
0.23118 0.52827 0.25436 0.047033 0.025659 0.024015 -0.0042642 0.045553 
0.37175 0.95953 0.21506 0.072681 0.029605 0.0324 0.050157 0.11428 
0.34594 1.0909 0.11132 0.13828 0.058871 0.08567 0.0689 0.11954 
0.15357 0.65093 0.011355 0.098494 0.062652 0.059528 0.04654 0.10984 
0.054432 -0.038462 -0.11196 0.06035 0.046211 0.05065 0.046375 0.050979 
-0.096172 -0.69217 -0.20616 0.018425 0.016452 0.022535 0.0098754 0.026646 
-0.33885 -1.2071 -0.22787 0.0083956 0.0039565 0.0044497 -0.0044286 -0.031557 
-0.42566 -1.2783 -0.24908 0.026481 0.020562 -0.028597 -0.042737 -0.055726 
-0.21833 -0.47975 -0.060987 0.035031 0.050486 -0.00097594 0.00017495 -0.016102 
0.033715 0.77506 0.2583 0.11921 0.055089 0.014643 0.0041209 -0.0019624 
0.059693 1.0026 0.293 0.066269 0.038977 0.026317 0.021056 -0.010348 
0.11872 1.1864 0.36369 0.030427 0.029112 0.019247 -0.0042642 0.013986 
0.31042 1.6246 0.47434 0.048513 0.035688 0.035524 0.083204 0.078272 
0.29086 0.8354 0.23298 0.01267 0.025166 0.045224 0.079916 0.09126 
0.061666 -0.89423 -0.084991 0.02681 0.014315 0.043745 0.094548 0.080409 
-0.15421 -1.81 -0.22754 -0.019555 0.0075736 0.029441 0.05065 0.024015 
-0.21225 -1.6306 -0.33589 -0.021199 0.035195 0.029112 0.0090533 -0.02942 
-0.18397 -0.75498 -0.3178 -0.029255 0.0087245 -0.0082102 -0.010183 -0.02087 
-0.1233 -0.017253 -0.17558 -0.052437 -0.0039354 0.0064227 -0.027611 -0.059507 
-0.039449 0.52055 -0.10308 0.024508 0.012013 -0.0055795 -0.0068948 -0.021856 
0.11083 0.90001 -0.025802 0.013657 0.023686 0.00297 0.0082312 0.0042853 
0.20882 0.71028 0.0786 0.055747 0.059364 0.026317 0.019083 0.044073 
0.16689 0.26948 0.096193 0.056569 0.05772 0.012342 0.0016547 0.065612 
0.037826 -0.22096 0.01152 0.07038 0.052623 0.011191 0.039799 0.035031 
-0.092719 -0.37518 0.007738 0.095042 0.0324 -0.0031133 -0.0026201 0.010862 
-0.061809 -0.09387 0.02681 0.057884 0.034373 -0.0026201 -0.050464 0.012342 
0.027961 0.45741 0.15982 0.05065 0.028125 -0.012978 -0.038462 0.043745 
0.024673 0.75204 0.29448 0.021549 0.016781 0.025166 0.081724 0.027139 
-0.01528 0.65043 0.32867 0.01004 0.029769 0.035688 0.099316 0.00050378 
-0.044217 0.05065 0.11822 -0.037805 0.014643 0.027796 0.10869 0.00297 
-0.069043 -0.51099 -0.12823 -0.070852 -0.0064016 0.014643 0.083697 0.013164 
-0.034516 -0.59089 -0.16818 -0.0091966 0.0018191 0.0069159 0.070051 0.035688 
0.0021479 -0.29084 -0.023994 0.01415 0.017274 1.0539e-005 0.048677 0.017603 
0.034537 0.18678 0.14913 0.030427 0.0034632 -0.011334 -0.00064712 0.030098 
0.046868 0.58993 0.20273 0.023193 -0.0055795 -0.010019 -0.011498 0.00033937 
0.045882 0.45708 0.046704 0.037661 0.0026412 0.01267 -0.010512 0.020069 
0.061172 -0.12659 -0.096829 0.075312 0.031085 0.03092 0.0082312 0.027303 
0.10507 -0.23362 -0.038627 0.044073 0.039634 0.025824 -0.0027845 0.025988 
0.093726 -0.27752 0.13927 0.052787 0.032729 -0.0027845 0.032564 0.010204 
0.055089 -0.20419 0.1271 0.039141 0.042758 0.0227 0.020562 0.039634 
0.11494 0.31881 0.13861 0.062652 0.068571 0.027961 0.064625 0.078929 
0.13927 0.85233 0.27721 0.095699 0.067091 0.050321 0.054432 0.066927 
0.017767 0.16673 0.027303 0.0092177 0.029934 0.024837 0.045882 0.0093821 
-0.091404 -0.54042 -0.21143 -0.02794 0.0041209 0.03092 0.016945 -0.0052507 
-0.012156 -0.15355 -0.018897 0.0028056 0.026646 0.031414 0.071695 0.043745 
0.048513 0.12217 0.030427 0.036182 0.02829 0.034702 0.044731 0.031907 
-0.10308 -0.5779 -0.41135 -0.05737 -0.015938 -0.019226 0.010204 -0.022843 
-0.23247 -0.99387 -0.55406 -0.10045 -0.028433 -0.045368 -0.025967 -0.031228 
-0.04471 -0.16243 -0.13711 -0.042079 -0.032708 -0.023665 -0.02794 0.024837 
0.16163 0.6501 0.21753 -0.00081153 0.0018191 -0.004593 -0.01117 0.056569 
0.19698 0.72952 0.27014 0.026974 0.023851 0.024179 -0.00064712 0.035853 
0.16229 0.62396 0.43209 0.064954 0.058542 0.055582 0.041936 0.041607 
0.19369 0.71603 0.49013 0.12875 0.12118 0.064132 0.0592 0.060679 
0.26439 0.75368 0.35514 0.15587 0.10984 0.076627 0.05213 0.059693 
0.2976 0.52696 0.1516 0.1197 0.089616 0.073504 0.070051 0.072517 
0.1465 -0.1741 -0.098473 0.091753 0.071695 0.049006 0.070708 0.053609 
-0.036818 -0.59911 -0.22622 0.073175 0.047033 0.061995 0.078929 0.059528 
-0.10653 -0.65732 -0.073647 0.088958 0.057391 0.05624 0.076627 0.079751 
0.029441 -0.1746 0.11066 0.12332 0.035195 0.00066819 0.083204 0.087314 
0.20767 0.40282 0.097179 0.011355 -0.0095255 0.0065871 0.012177 0.060022 
0.25978 0.585 0.078765 -0.04619 -0.056219 -0.047176 -0.038298 0.045553 
0.12464 0.10573 0.043745 -0.12938 -0.063453 -0.025802 0.023851 -0.0013048 
-0.10817 -0.5391 -0.22096 -0.1113 -0.055397 -0.017746 0.055747 0.0039565 
-0.16818 -0.54568 -0.40099 -0.061151 -0.010019 0.025166 0.069558 0.039799 
-0.10637 0.024508 -0.17246 -0.0016336 0.010533 0.031742 0.048677 0.029112 
-0.093541 0.15587 0.12266 0.055747 0.02122 0.045718 0.0075736 0.0067515 
-0.14615 -0.30169 0.079587 0.03651 0.054596 0.039141 0.0019835 -0.01117 
-0.046354 -0.26552 -0.12379 0.094548 0.09274 0.053445 0.00050378 0.030098 
0.15111 0.032071 -0.1912 0.063474 0.0689 0.014643 0.02829 0.037332 
0.32539 0.60604 0.13236 0.068736 0.048677 0.049992 0.059693 0.038319 
0.50525 1.0327 0.34166 0.10113 0.046046 0.0324 0.08156 0.081231 
0.50509 0.76832 0.18218 0.073832 0.060186 0.074983 0.060022 0.11724 
0.18465 0.24334 0.040292 0.086985 0.066598 0.051636 0.06035 0.08567 
-0.1039 -0.75646 -0.095514 0.060186 0.054267 0.055747 0.015794 0.014315 
-0.3811 -1.7331 -0.29544 -0.012814 -0.0049219 -0.0029489 -0.0029489 -0.017746 
-0.60207 -2.009 -0.32915 -0.04471 -0.035503 -0.0075525 -0.053095 -0.07003 
-0.66258 -0.85215 -0.1011 -0.081045 -0.060494 -0.02794 -0.049478 -0.09239 
-0.49438 0.5388 0.11378 -0.030242 -0.049149 0.0016547 -0.042244 -0.088115 
-0.12774 1.3035 0.31223 0.010369 -0.014293 0.01267 0.019247 -0.023829 
0.27491 1.1304 0.43078 0.10441 0.0689 0.079751 0.064625 0.078765 
0.33147 0.5286 0.32374 0.11987 0.071531 0.06035 0.072846 0.1077 
0.28675 0.1396 0.096357 0.079587 0.046046 0.02829 0.046704 0.097179 
0.24828 0.22871 -0.0082102 0.046868 0.015465 -0.0072237 0.0056006 0.042758 
0.15341 0.21983 -0.00031829 -0.029584 0.024508 0.012177 0.0067515 0.011355 
0.069393 0.36468 0.16755 0.025495 0.061666 0.02681 0.017274 0.011684 
0.047855 0.68447 0.27623 0.066763 0.065118 0.076792 0.075641 0.028947 
0.0069159 0.20191 -0.010676 0.039305 0.037661 0.027796 0.020233 0.030263 
-0.0091966 -0.55028 -0.20863 0.029934 0.011355 0.029605 0.0324 -0.0055795 
-0.048492 -0.64071 -0.039778 0.014479 -0.0049219 -0.0090322 0.013328 -0.00081153 
-0.038133 -0.26716 -0.090746 0.0042853 -0.0098543 0.0087245 0.026974 0.01974 
0.023193 0.029276 -0.29725 -0.061645 -0.024487 -0.019555 0.024837 0.054596 
0.015465 0.035195 -0.30909 -0.032379 0.021384 0.031414 0.036182 0.054267 
-0.047341 0.016452 -0.11343 0.047526 0.052459 0.029276 0.034373 0.035853 
-0.066248 -0.030242 0.087808 0.067749 0.073339 0.053281 0.037168 0.027632 
-0.030077 -0.25171 0.18448 0.085341 0.04506 0.049006 0.027303 0.045224 
0.01974 -0.45525 0.147 0.059035 0.040292 0.063803 0.034702 0.0421 
0.068078 -0.35677 0.1516 0.08419 0.051965 0.030263 0.041114 0.04358 
0.082382 0.34199 0.40973 0.15423 0.024344 0.04917 0.018918 0.060515 
0.027632 0.73264 0.56592 0.079422 0.055254 0.026646 0.047362 0.016781 
0.011848 0.87354 0.4117 0.051636 0.0067515 0.059035 0.0036276 -0.042737 
0.022864 1.0097 0.26439 -0.045861 0.005765 -0.008539 -0.031557 -0.054246 
0.032236 0.3267 0.069229 -0.038791 -0.028269 -0.020048 -0.052109 -0.031557 
0.11033 -0.25236 -0.1672 -0.014129 -0.0073881 -0.018897 -0.020212 0.020069 
0.17856 0.0042853 -0.26223 0.053281 -0.0055795 0.01826 0.007738 0.0689 
0.17034 0.15505 -0.40099 0.067256 0.026646 0.0037921 0.040292 0.051143 
-0.025309 -0.70713 -0.6052 -0.017088 0.046868 0.045389 0.043251 0.037004 
-0.10702 -1.0531 -0.43059 -0.028597 0.023686 0.0052718 0.064461 0.0070803 
-0.19877 -0.60141 0.11872 -0.058521 0.018425 0.025495 0.07301 -0.012485 
-0.12692 0.34035 0.60061 0.034209 0.051965 0.038483 0.074983 0.023028 
0.0098754 0.50641 0.57168 0.059364 0.027796 0.0592 0.077614 0.024015 
0.1493 0.18185 0.23562 0.024179 0.035195 0.07301 0.061172 0.063474 
0.18728 0.10622 0.074326 0.044731 0.080573 0.056569 0.062323 0.083697 
0.13302 -0.0965 -0.090417 0.019576 0.050157 0.018096 0.045389 0.073175 
0.10392 0.022864 -0.18479 0.0080668 0.0032988 -0.045861 0.01826 0.055582 
0.092411 0.183 -0.26568 -0.0072237 -0.011992 -0.060658 -0.057863 -0.010183 
0.027139 0.26685 -0.34312 -0.013143 -0.014951 -0.079072 -0.12462 -0.021199 
0.030427 0.32752 -0.30169 0.035688 -0.00031829 -0.041422 -0.10949 -0.018568 
0.030098 0.038319 -0.10686 0.042758 0.020398 0.021878 -0.042079 0.024344 
0.048513 -0.061151 0.24564 0.11214 0.049499 0.043416 -0.037969 0.050814 
0.080902 0.34955 0.52416 0.10935 0.064954 0.075312 -0.00015387 0.053116 
0.10047 0.51315 0.5046 0.078765 0.060844 0.079094 0.042594 0.04095 
0.066105 0.35103 0.30434 0.0227 0.058213 0.079258 0.15259 0.040292 
0.0072447 -0.1256 0.040785 0.0067515 0.056404 0.095699 0.19122 0.061501 
0.004943 -0.39902 -0.13925 0.016616 0.027303 0.043416 0.17676 0.059857 
0.093398 -0.30415 -0.17575 -0.0060728 0.0026412 0.0065871 0.13203 0.055747 
0.12776 -0.20386 -0.19433 -0.027282 -0.021034 -0.010348 0.066927 0.054596 
0.088136 -0.21915 -0.24924 -0.052273 -0.03912 -0.013471 0.016616 0.025495 
0.03799 -0.10768 -0.19153 -0.067728 -0.022679 -0.037147 -0.038133 0.0054362 
0.047855 0.060186 0.014479 0.027632 0.037332 -0.016595 -0.029748 0.009711 
0.04358 0.147 0.14782 0.060022 0.072681 -0.010841 -0.029255 0.020727 
0.0070803 0.23348 0.13943 0.11247 0.099645 0.00297 -0.02498 0.033715 
0.0011614 0.29744 0.067091 0.090767 0.097344 0.0075736 -0.027611 0.034537 
0.020398 0.25633 0.00066819 0.068407 0.07597 0.094713 0.041936 0.033715 
-0.0004827 -0.056383 -0.08269 0.062323 0.061337 0.099481 0.045224 0.038319 
-0.030735 -0.46512 -0.19466 0.017932 0.026317 0.096193 0.079916 0.027468 
-0.039449 -0.60421 -0.15322 0.034702 0.017274 0.0421 0.042758 0.017767 
-0.0034422 -0.16128 -0.022021 0.0070803 -0.018239 0.027139 0.068242 0.049006 
0.10228 0.39789 0.20158 0.036346 -0.017088 -0.0088678 0.019905 0.03536 
0.0689 0.75171 0.42173 0.027468 -0.057863 -0.0095255 -0.0022913 0.04358 
-0.041422 0.58648 0.46941 -0.0032777 -0.054082 -0.037147 -0.0072237 -0.0031133 
-0.10456 0.34166 0.30171 -0.04619 -0.033037 -0.035832 -0.029913 0.0065871 
-0.021199 0.098659 0.047691 -0.050464 -0.010676 -0.019226 -0.023501 -0.023007 
0.089616 -0.23263 -0.20123 0.052459 0.032071 0.031249 0.021056 0.040292 
0.15982 -0.2716 -0.36055 0.077943 0.094548 0.0592 0.051636 0.057555 
0.19517 0.0044497 -0.32947 0.12513 0.11773 0.081231 0.08978 0.093726 
0.28067 0.41368 0.038483 0.17232 0.081395 0.056404 0.093891 0.12365 
0.2468 0.24236 0.36649 0.14634 0.048677 0.028454 0.095206 0.097672 
0.018425 -0.052602 0.37586 0.095206 0.017932 0.013657 0.074326 0.035195 
-0.26798 -0.46873 0.098001 -0.055726 -0.010512 0.010369 0.021878 -0.04619 
-0.34657 -0.43947 -0.25039 -0.16309 -0.049807 -0.029091 -0.017088 -0.082361 
-0.29955 -0.33753 -0.31714 -0.16259 -0.041422 -0.028762 -0.0052507 -0.033694 
-0.20962 -0.31681 -0.14928 -0.076442 0.0023123 -0.010512 0.020069 -0.0040998 
-0.041751 0.14026 0.14913 0.049335 0.04654 0.042594 0.031249 0.030756 
0.14026 0.53748 0.24959 0.086163 0.055254 0.048677 0.077449 0.062159 
0.14749 0.2634 0.19139 0.094713 0.06479 0.044238 0.083204 0.073997 
0.068078 0.17265 0.19665 0.081231 0.035195 0.041278 0.069558 0.05624 
0.077943 0.293 0.19862 0.082711 0.058542 0.055089 0.056569 0.070215 
0.14124 0.32358 0.1225 0.10622 0.084355 0.054267 0.054596 0.07449 
0.16377 0.36698 0.0034632 0.066927 0.060186 0.063145 0.054267 0.091425 
0.18004 0.45675 -0.044546 0.045718 0.037332 0.040785 0.010533 0.049664 
0.20388 0.67674 0.14141 0.019576 0.013657 0.056898 -0.020212 0.037332 
0.19928 0.75286 0.28412 0.026974 -0.0070593 -0.00097594 -0.069701 0.018589 
0.11181 0.13319 0.19665 0.013164 -0.038791 -0.0082102 -0.057534 -0.0083746 
-0.1205 -0.85987 -0.028104 -0.057699 -0.048163 -0.033859 -0.056712 -0.043066 
-0.29758 -0.95951 -0.1792 -0.02794 -0.032379 -0.026624 -0.0091966 -0.058028 
-0.40576 -0.73607 -0.2397 -0.024323 -0.027775 -0.045368 -0.040928 -0.049478 
-0.27916 -0.80562 -0.25187 0.0054362 -0.020541 0.019083 0.0070803 -0.0016336 
-0.057699 -0.4615 -0.07003 0.046868 0.05213 0.036839 0.039305 0.05772 
0.073832 0.29053 0.16853 0.10474 0.079751 0.082053 0.10787 0.097672 
0.15144 0.74283 0.25732 0.17462 0.11313 0.059857 0.13335 0.08978 
0.20816 0.8155 0.28149 0.12168 0.082053 0.044896 0.12135 0.05772 
0.17462 0.80038 0.27261 0.031085 0.0072447 0.016781 0.077614 0.030592 
0.083697 0.24943 -0.11804 -0.095349 -0.062302 0.012506 0.04506 0.041114 
-0.008539 -0.70779 -0.59829 -0.13366 -0.029748 -0.0039354 0.041114 0.0044497 
0.027796 -0.96921 -0.53927 -0.079566 -0.011992 0.0021479 0.01826 -0.0027845 
0.047691 -0.39639 -0.22935 -0.09239 -0.014458 -0.011992 0.021713 -0.025802 
-0.098967 -0.26963 -0.11508 -0.090088 -0.01232 0.013164 -0.0049219 -0.032708 
-0.18413 -0.34789 -0.028597 -0.022185 0.021713 0.023357 -0.0067304 0.0021479 
-0.043888 0.18251 0.3581 0.13236 0.10063 0.068242 -0.019226 0.0054362 
0.10803 0.7236 0.7065 0.22937 0.13072 0.058213 0.019083 0.069558 
0.18383 0.75747 0.57349 0.15637 0.090767 0.062488 0.0018191 0.071859 
0.18695 0.48487 0.33689 0.13664 0.046046 0.036675 0.029112 0.076792 
0.17511 0.29694 0.076956 0.01415 0.0060938 0.042594 0.0065871 0.072846 
0.12266 -0.11327 -0.1838 -0.0091966 0.023686 0.016945 0.0093821 0.049828 
-0.015609 -0.37666 -0.32421 0.0082312 0.021384 0.041936 0.01415 0.027632 
-0.14204 -0.34789 -0.24694 0.024837 0.0088889 0.021056 0.012835 0.0028056 
-0.17986 -0.17838 -0.15914 -0.0032777 0.011026 1.0539e-005 0.0074092 -0.012814 
-0.031886 -0.036325 -0.15898 -0.0039354 0.011191 -0.0029489 0.016288 -0.010348 
0.043251 0.22822 -0.20238 0.025495 0.01152 0.01415 0.03388 -0.0060728 
0.11773 0.44738 -0.14418 0.049335 0.02829 -0.0032777 0.042923 0.004943 
0.075805 0.37487 -0.018075 0.032071 0.018918 1.0539e-005 0.028619 0.010369 
0.050979 0.19418 0.14289 0.064954 0.034866 -0.0087034 0.034044 0.033551 
0.037826 0.055911 0.29415 0.077778 0.056404 0.039305 0.056569 0.026646 
0.091096 -0.4541 0.1927 0.064625 0.059857 0.057227 0.039799 0.051801 
0.057227 -1.0342 -0.074798 -0.034845 0.026152 0.039963 0.060186 0.047526 
0.085341 -0.64367 -0.10324 -0.037147 -0.013307 0.015137 0.037497 0.059528 
0.17528 0.28823 0.01711 -0.0034422 0.017932 0.018425 0.031085 0.057555 
0.24203 0.92846 0.091096 0.047855 0.040456 0.014972 0.036182 0.06035 
0.14552 0.71834 0.19961 0.098001 0.070873 0.025659 0.03388 0.05624 
0.085012 0.097837 0.27705 0.10721 0.11346 0.0098754 0.0227 0.051143 
0.075476 -0.18216 0.37044 0.12579 0.13598 0.011026 0.039634 0.057555 
0.06035 0.077778 0.32571 0.09981 0.11296 0.012999 0.061995 0.024837 
-0.0031133 0.59108 -0.02498 0.0088889 0.046046 0.017438 0.041443 -0.015938 
-0.05178 0.58516 -0.39754 -0.03912 -0.011992 -0.0060728 0.016616 -0.041586 
-0.010512 0.5138 -0.33408 -0.025309 -0.020706 0.02681 0.010697 -0.015116 
-0.084498 0.31355 -0.091075 0.082875 0.03536 0.053116 0.038483 0.0067515 
-0.23083 -0.30662 -0.12363 0.059857 0.027632 0.050486 0.025166 0.0083956 
-0.30563 -0.89128 -0.13596 -0.017253 -0.015444 0.037332 0.018918 -0.011334 
-0.2397 -1.2612 -0.098144 -0.10423 -0.056383 0.016288 -0.015444 -0.036818 
0.026646 -0.21406 0.13138 -0.079895 -0.035667 0.040128 0.071695 0.0080668 
0.26061 0.68463 0.34462 0.024015 0.010533 0.06035 0.076627 0.06183 
0.26455 0.34166 0.29744 0.040785 0.039141 0.081231 0.03799 0.068242 
0.16738 -0.084169 0.12562 0.029441 0.0070803 0.073997 -0.013965 0.03388 
0.050486 -0.32504 0.099974 0.03536 -0.011992 0.051143 -0.012156 0.031742 
-0.050958 -0.13727 0.14075 0.088794 0.0093821 0.053281 -0.0138 0.066105 
0.055911 0.56247 0.21112 0.16146 0.042594 0.065612 0.045389 0.13006 
0.37142 1.5914 0.35531 0.16673 0.078436 0.029276 0.12891 0.18432 
0.54307 2.0412 0.41713 0.1562 0.12151 -0.010841 0.15538 0.19912 
0.48618 1.6619 0.31766 0.10737 0.10918 -0.025474 0.12661 0.16722 
0.28247 0.48306 0.12414 0.056898 0.095371 -0.030242 0.027632 0.048184 
0.090109 -0.46775 -0.086307 -0.024816 0.030427 -0.03912 -0.016102 -0.031392 
-0.29034 -1.7359 -0.61588 -0.19581 -0.057205 -0.071016 -0.087786 -0.17986 
-0.9138 -3.3558 -1.1241 -0.26157 -0.10078 -0.082032 -0.12873 -0.28541 
-1.06 -2.8542 -0.6657 -0.20419 -0.081374 -0.022185 -0.10554 -0.24053 
-0.53598 -0.73311 0.17297 -0.006566 -0.003771 0.024508 -0.019719 -0.12692 
0.086328 0.8571 0.58664 0.11362 0.031249 0.068407 0.016288 -0.025309 
0.44738 1.4705 0.60703 0.14042 0.039799 0.077614 0.066927 0.079094 
0.56296 1.4697 0.39937 0.12579 0.041936 0.11083 0.094384 0.17215 
0.4385 0.91284 -0.040928 0.060515 0.019083 0.085835 0.11099 0.17018 
0.030098 0.083697 -0.44177 -0.03057 -0.013965 0.045553 0.05772 0.10672 
-0.29034 -0.39803 -0.46199 -0.054575 -0.0042642 0.014808 0.034044 0.05624 
-0.23806 -0.11804 -0.046025 0.004943 0.022371 0.0032988 0.037826 0.052787 
0.0037921 0.26866 0.3438 0.085012 0.030592 -0.012156 0.03651 0.066927 
0.087314 0.37619 0.45001 0.074326 0.025824 -0.011498 0.03947 0.065612 
0.12497 0.28675 0.28149 0.082711 0.039305 0.016945 0.047855 0.032236 
0.2075 0.3387 0.13121 0.089945 0.069393 0.045882 0.066269 0.059035 
0.2833 0.38967 0.1664 0.11362 0.077943 0.053774 0.054267 0.086821 
0.21276 -0.10637 0.02681 0.090603 0.051472 0.049992 0.057555 0.060186 
0.012835 -0.88601 -0.19778 0.0019835 0.02681 0.024837 0.019905 0.011355 
-0.10423 -0.96132 -0.24579 -0.01676 0.0062583 0.017603 0.0037921 -0.049149 
-0.17098 -0.47416 -0.19778 -0.08384 -0.011992 -0.01117 -0.045861 -0.078086 
-0.18315 -0.014787 0.01004 -0.10061 -0.05737 -0.026296 -0.035996 -0.061973 
-0.089266 0.45133 0.13056 -0.089102 -0.044546 -0.065755 -0.053588 -0.045532 
0.030263 0.61837 0.058049 -0.06148 -0.014787 -0.049478 -0.026789 -0.01117 
0.09274 0.24828 -0.11163 0.019576 0.023686 -0.038791 -0.0011404 0.031414 
0.090931 -0.023829 -0.109 0.067585 0.04917 0.0044497 0.032236 0.071037 
0.051965 -0.028597 0.03092 0.13713 0.088958 0.01267 0.0592 0.079587 
0.041772 -0.30613 0.037004 0.16048 0.092576 0.052787 0.060022 0.067256 
0.093562 -0.41037 -0.065262 0.12809 0.095042 0.038319 0.083368 0.1003 
0.13779 -0.35726 -0.064933 0.076299 0.053938 0.041936 0.027632 0.075312 
0.070873 -0.36367 0.0786 0.010533 0.033058 0.013821 0.012999 0.032729 
0.024344 0.48355 0.26784 -0.026953 0.0092177 0.0079024 -0.01939 -0.023829 
0.037497 1.1771 0.26801 -0.060329 0.0095465 0.023028 0.013328 -0.0078813 
0.0090533 0.76059 0.045553 -0.052602 0.015959 0.032564 0.03799 0.014808 
0.024673 0.24877 0.034702 0.042923 0.044896 0.036182 0.074326 0.053445 
0.11543 0.21293 0.20832 0.13615 0.076627 0.058049 0.063968 0.069064 
0.16985 0.38638 0.39608 0.24038 0.13056 0.050979 0.11839 0.069064 
0.23578 0.23545 0.44952 0.19385 0.089945 0.079258 0.053281 0.092904 
0.2001 -0.10406 0.40496 0.16081 0.052952 0.018425 0.06331 0.099645 
0.06479 -0.20123 0.13598 0.057555 0.0037921 0.020562 0.034209 0.054267 
-0.14369 -0.52167 -0.29429 -0.035503 -0.033365 -0.065426 -0.031228 -0.013143 
-0.18545 -0.73936 -0.8339 -0.10867 -0.02942 -0.083183 -0.061645 -0.056548 
-0.085813 -0.66323 -1.0442 -0.16013 0.034209 -0.029091 -0.035667 -0.046354 
-0.10291 -1.1466 -0.99716 -0.1552 0.063968 0.01974 -0.028597 -0.041751 
-0.1427 -0.83192 -0.6052 -0.11722 0.059857 0.005765 -0.05178 -0.041751 
0.078929 0.90675 0.1008 -0.035667 0.052787 0.059035 -0.023994 -0.039284 
0.26044 2.1522 0.88735 0.1419 0.08567 0.080409 0.014479 0.0083956 
0.21506 1.6414 1.0414 0.16919 0.10819 0.13499 0.082382 0.051801 
0.1026 0.78081 0.76125 0.14634 0.081067 0.08304 0.06594 0.093726 
0.0028056 0.42436 0.57727 0.061666 0.024179 0.056898 0.081889 0.073832 
0.037661 -0.048656 0.30977 0.033551 0.011848 0.022206 0.053281 0.074161 
0.03947 -0.53828 -0.038133 0.014808 -0.0068948 0.017274 0.058377 0.045389 
0.037004 -0.55357 -0.09387 0.022535 -0.033365 0.0083956 0.018096 0.035688 
0.073997 -0.3737 -0.022185 0.061501 -0.014622 0.0092177 0.035031 0.038812 
0.090931 -0.27801 -0.079237 0.048677 -0.013965 -0.016102 0.0227 0.029276 
0.078107 -0.21784 -0.23116 0.05213 0.028947 0.013821 0.015465 0.012999 
0.073668 0.090767 -0.14714 0.053281 0.037497 -0.012814 0.038319 0.01826 
0.07449 0.26669 -0.02235 0.03799 0.046046 0.033222 0.028947 0.052294 
0.066105 0.098823 -0.10061 0.058542 0.058871 0.02681 0.042758 0.076299 
0.067585 0.1294 -0.13514 0.0032988 0.048348 0.053609 0.049828 0.067585 
0.11888 0.41236 0.0028056 0.041936 0.068407 0.05772 0.056733 0.076956 
0.20668 0.81074 0.19977 0.044731 0.048841 0.07597 0.044731 0.063639 
0.16886 0.56329 0.22772 0.05065 0.030098 0.052952 0.062323 0.053116 
-0.0004827 0.24137 0.17577 0.06479 0.030427 0.066763 0.024673 0.012013 
-0.097158 0.067091 0.19172 0.0592 0.036182 0.047526 0.031414 -0.0013048 
-0.18117 -0.19482 0.15867 0.039141 -0.0013048 0.022864 0.011848 -0.027118 
-0.27061 -0.54962 0.013164 -0.058521 -0.042737 -0.044052 -0.0070593 -0.05441 
-0.23888 -0.43815 -0.11771 -0.081868 -0.053588 -0.023336 -0.010841 -0.03353 
-0.14155 -0.62706 -0.31994 -0.079237 -0.032708 -0.0091966 0.02533 -0.012649 
-0.19992 -1.3728 -0.4592 -0.0868 -0.0059084 0.018589 0.0227 -0.012485 
-0.23231 -1.8133 -0.48682 -0.080223 0.005765 0.0054362 0.013164 -0.053588 
0.029934 -0.38126 -0.052273 -0.019226 0.029112 0.046868 0.034044 0.014808 
0.2856 0.89837 0.23151 0.095371 0.069393 0.064132 0.069064 0.078765 
0.28773 0.62363 0.11198 0.08419 0.054103 0.071202 0.05624 0.077285 
0.15407 0.099152 0.074161 0.053281 0.0034632 0.01004 0.020891 0.055582 
0.090274 0.30894 0.19057 0.074161 1.0539e-005 0.0047785 0.0032988 0.028454 
0.064132 0.56625 0.20438 0.031249 0.0051074 -0.025638 -0.0050863 0.030427 
0.056733 0.57135 0.2486 0.063145 0.01563 0.00017495 0.01152 0.02122 
0.061008 1.0325 0.38211 0.074654 0.032071 0.00033937 0.01826 0.0059294 
-0.029584 0.95394 0.36073 0.055582 0.053116 0.044567 0.055418 0.011026 
-0.053917 0.51791 0.24828 0.053445 0.010369 0.014808 0.03651 0.010204 
0.079587 0.050979 0.20454 0.020398 0.00050378 0.027303 0.067749 0.062323 
0.18152 -0.14418 0.068242 0.063803 0.0056006 0.048677 0.10359 0.086985 
0.18448 -0.15914 -0.067235 0.049664 0.028125 0.074326 0.16114 0.095371 
0.1174 -0.31764 -0.085813 0.056733 0.039634 0.042758 0.11066 0.083533 
0.08863 -0.32109 0.0013258 0.095042 0.059528 0.01826 0.067913 0.077121 
0.025824 -0.17542 0.024015 0.064296 0.030427 -0.016102 0.034537 0.032893 
-0.073811 -0.54732 -0.23099 0.049335 0.0080668 -0.036489 -0.0067304 0.00050378 
-0.30399 -1.12 -0.46413 -0.03057 -0.012156 -0.030406 0.0072447 -0.026953 
-0.38538 -0.8237 -0.2961 -0.025474 0.018589 -0.011663 -0.026296 -0.04323 
-0.18364 -0.073318 -0.14089 0.026152 0.042758 0.030427 -0.069536 -0.038462 
0.1299 0.36254 -0.15076 0.044567 0.079422 0.040456 -0.091239 -0.003771 
0.24943 0.43456 -0.12626 0.019576 0.026152 0.013492 -0.047012 0.052459 
0.25041 0.68299 0.15522 0.012999 -0.031721 0.01563 -0.020212 0.092247 
0.1761 0.72097 0.35416 0.031414 -0.0073881 -0.0062372 -0.0016336 0.077614 
0.0421 0.51578 0.38589 -0.0024557 0.0088889 0.011191 0.0092177 0.041772 
-0.16342 0.043087 0.2195 0.036675 0.032071 0.011848 0.078436 -0.010183 
-0.32635 -0.69497 -0.1404 0.00017495 0.050979 0.036839 0.077778 -0.023007 
-0.18298 -0.69529 -0.19202 -0.02646 0.038155 0.029769 0.081395 -0.0052507 
0.13253 0.23167 0.074326 0.044731 0.032729 0.015465 0.041278 0.02829 
0.19616 0.52877 0.040292 0.038483 0.051636 0.018754 0.053116 0.045224 
0.16097 0.44541 0.043416 0.089452 0.066105 0.00050378 0.037332 0.066763 
0.11757 0.05624 0.20799 0.043416 0.028783 -0.0019624 0.011355 0.025824 
0.086328 -0.27686 0.24992 -0.040764 -0.023172 -0.0082102 -0.0068948 -0.0004827 
0.0786 0.098166 0.29776 -0.018239 -0.014458 -0.015444 -0.0077169 -0.01676 
0.00050378 0.30911 0.18021 -0.045532 -0.0027845 -0.017911 -0.00081153 -0.028269 
-0.11639 0.13828 -0.27423 -0.029748 0.0031344 0.0087245 -0.017746 0.013821 
-0.051944 0.0080668 -0.47383 0.0028056 0.055418 0.048348 0.026317 0.049828 
0.074654 0.2902 -0.13284 0.086821 0.099152 0.090438 0.049828 0.09126 
0.11609 0.6118 0.18843 0.1636 0.13088 0.086492 0.089287 0.080244 
0.14075 0.7744 0.27064 0.16212 0.089945 0.083368 0.041114 0.06594 
0.17725 0.83195 0.24038 0.15851 0.049006 0.036182 0.069558 0.052623 
0.092411 -0.15322 0.11576 0.09274 0.035688 0.017438 0.041278 0.038483 
-0.082361 -1.0251 -0.055561 0.022535 0.029276 1.0539e-005 0.05772 0.0074092 
-0.087951 -0.76122 -0.036654 -0.077922 -0.011334 -0.011663 0.017274 -0.0021268 
0.0083956 -0.47087 -0.011827 -0.15536 -0.034845 -0.051287 -0.0040998 -0.0047575 
0.069886 -0.078579 0.0070803 -0.10587 -0.040435 -0.017582 -0.035503 -0.003771 
-0.018733 0.053445 0.051965 -0.048985 0.0087245 0.020398 -0.02942 0.027303 
-0.07266 -0.1769 -0.029913 0.028783 0.053445 0.082217 -0.0095255 -0.0047575 
-0.010676 -0.067399 -0.14303 0.053609 0.079094 0.07597 0.0074092 0.0064227 
0.030427 0.24515 -0.14796 0.090438 0.064132 0.072681 0.023686 -0.0016336 
0.037497 0.34988 -0.021856 0.072846 0.058542 0.031414 0.027632 0.0069159 
0.071037 0.50032 0.2269 0.071531 0.047526 0.034702 0.062652 0.042923 
0.18119 0.92862 0.45774 0.089123 0.03947 -0.00081153 0.070215 0.091918 
0.25255 0.70798 0.32933 0.041772 0.03092 0.0051074 0.076956 0.099481 
0.15061 -0.55752 -0.1792 -0.013965 0.0069159 -0.00097594 0.054103 0.10047 
0.048019 -1.2449 -0.36943 -0.0087034 0.02533 0.018754 0.052459 0.076463 
0.03536 -0.55784 -0.048656 0.025495 0.028619 0.01711 -0.0040998 0.027303 
-0.022514 0.08008 0.18711 0.035688 0.016945 0.037004 0.0059294 -0.015444 
-0.13136 -0.076771 0.11477 -0.045203 -0.017253 0.031578 0.0032988 -0.040764 
-0.11393 0.11625 0.19813 -0.018239 -0.01232 0.021878 0.015959 -0.032215 
-0.0073881 0.26669 0.27392 0.010697 0.0026412 0.025824 0.030427 -0.0098543 
0.0032988 0.018425 0.0019835 -0.0060728 0.019247 0.031907 0.02533 0.00297 
0.0075736 -0.19679 -0.24875 0.010533 0.0092177 -0.031557 0.0074092 0.0018191 
0.019083 -0.05885 -0.19646 0.048513 0.030427 -0.0057439 0.012835 0.037004 
0.028947 0.42354 0.046046 0.11855 0.074654 0.032236 0.033551 0.056076 
0.10589 0.85842 0.0051074 0.055747 0.082217 0.0689 0.028619 0.063639 
0.16558 0.60012 -0.14007 0.038319 0.06479 0.043909 0.038319 0.063803 
0.20602 0.13417 -0.049807 0.062323 0.061501 0.065118 0.069229 0.093398 
0.23989 0.16508 0.071037 0.058213 0.070873 0.067913 0.12431 0.12612 
0.25946 0.21934 0.18596 0.11461 0.072024 0.077285 0.15423 0.13993 
0.1955 0.54044 0.25025 0.11231 0.043909 0.052294 0.12612 0.08978 
0.13072 1.1535 0.2583 0.093233 0.0062583 0.042594 0.051965 0.066269 
0.047197 0.69614 0.20586 0.039634 -0.013143 0.0032988 0.040785 0.021549 
-0.16424 -1.3894 -0.12922 -0.036654 -0.020212 0.018096 0.016781 -0.0059084 
-0.35808 -1.827 -0.3178 -0.0868 -0.029748 -0.042901 -0.039942 -0.097322 
-0.39754 -1.496 -0.43519 -0.19186 -0.053095 -0.047505 -0.094692 -0.13859 
-0.29166 -2.1046 -0.57609 -0.1741 -0.052766 -0.048327 -0.087951 -0.11409 
-0.17361 -1.9823 -0.43059 -0.091897 0.0028056 0.0072447 -0.024323 -0.056055 
-0.027118 -0.40215 -0.10653 0.0054362 0.023851 -0.0039354 0.036346 0.0026412 
0.20586 1.5351 0.30171 0.096521 0.038648 0.039141 0.097837 0.023028 
0.29908 2.375 0.56 0.10852 0.087808 0.018589 0.071531 0.050979 
0.27294 2.3202 0.65191 0.16393 0.1054 0.061995 0.072846 0.070873 
0.19961 1.3043 0.50937 0.14749 0.097179 0.055089 0.031742 0.093069 
0.053774 0.35334 0.28346 0.10836 0.097672 0.09126 0.041114 0.094548 
-0.12314 -0.13234 0.020233 0.055254 0.046375 0.06035 0.021056 0.060186 
-0.22754 -0.29643 -0.14434 0.0067515 -0.001798 0.087808 0.052623 0.068407 
-0.15043 -0.4347 -0.19942 0.012835 0.0037921 0.007738 -0.028104 0.024344 
0.056898 -0.4666 -0.29676 -0.0082102 0.016123 -0.010512 -0.0077169 0.033551 
0.15752 -0.60339 -0.40642 -0.024652 0.020727 -0.047505 -0.024816 0.014315 
0.11428 -0.61753 -0.38209 -0.05326 -0.026953 -0.059178 -0.0082102 -0.004593 
0.043745 -0.23083 -0.18167 -0.035503 -0.024323 -0.040271 -0.028269 -0.023501 
-0.012814 0.26126 0.11658 0.047526 0.020233 0.031249 0.018425 0.00083261 
0.017767 0.42255 0.31338 0.082217 0.050814 0.040785 -0.0054151 0.018096 
0.13499 0.45873 0.39164 0.10343 0.052459 0.060844 -0.0044286 0.044567 
0.17593 0.36139 0.23545 0.050321 -0.0019624 0.04506 0.051801 0.071366 
0.14831 0.19829 -0.02235 0.011848 -0.025967 0.047526 0.11526 0.082053 
0.14305 0.37783 0.021878 0.066105 -0.017911 0.035031 0.13615 0.072024 
0.043416 0.38967 0.11313 0.076463 0.014972 0.040456 0.10047 0.048019 
-0.11886 -0.034681 0.039141 0.059035 0.037497 -0.0040998 0.049664 0.014808 
-0.25384 -0.51033 0.064954 0.035853 0.056404 0.0098754 0.00099702 -0.013471 
-0.23724 -0.76517 0.23068 0.10639 0.11543 0.035195 0.014315 -0.0073881 
-0.13267 -0.82617 0.27902 0.1322 0.11707 0.063803 -0.0044286 0.037826 
0.070708 -0.13218 0.2149 0.062159 0.068078 0.032236 0.031414 0.024508 
0.18563 0.72261 0.026317 -0.017088 -0.0060728 -0.0042642 -0.035667 0.0039565 
0.12792 0.53501 -0.14566 -0.097158 -0.055232 -0.039449 -0.043888 1.0539e-005 
-0.022021 -0.37946 -0.25927 -0.090581 -0.050958 -0.039284 -0.030077 0.020562 
0.028947 -0.75333 -0.24727 -0.073482 -0.027775 -0.0082102 -0.011827 0.040621 
0.23315 0.16081 0.13976 -0.013965 -0.00031829 0.031414 0.011355 0.025824 
0.21621 0.97828 0.42436 0.054925 -0.014951 -0.0044286 0.00297 0.010204 
0.10211 1.0348 0.21737 0.021713 -0.0075525 0.0060938 0.0085601 0.01563 
0.0028056 0.83227 -0.13448 0.03388 0.0083956 0.015465 0.012999 0.034537 
-0.0026201 0.54932 -0.18578 0.035524 0.040621 0.073339 0.03947 0.058542 
-0.021692 0.46777 0.16837 0.13746 0.081067 0.074654 0.047362 0.071859 
-0.021528 0.0062583 0.30385 0.19517 0.13302 0.099316 0.076956 0.056404 
-0.06707 -0.88421 0.10606 0.14206 0.076627 0.082217 0.040456 0.062652 
-0.032215 -1.0777 0.059035 0.082053 0.029441 0.041278 0.032893 0.02681 
0.047855 -0.97233 -0.18726 -0.070523 -0.036983 -0.009361 -0.016924 0.013492 
0.20405 0.0079024 -0.25368 -0.099624 -0.021692 -0.010348 0.034537 0.06742 
0.28297 0.86598 -0.082032 -0.025638 0.034702 0.029276 0.052952 0.086492 
0.23627 0.84346 0.1008 0.069886 0.089123 0.061008 0.082711 0.089616 
0.07038 0.33509 0.17873 0.11691 0.080738 0.060186 0.062323 0.05624 
-0.16802 -0.1427 0.13779 0.07038 0.05624 0.024673 0.03799 -0.0039354 
-0.31172 -0.45574 0.074819 0.06479 0.021878 -0.015609 0.0074092 -0.046025 
-0.15569 -0.38587 0.067091 0.028783 0.014972 -0.012156 0.00099702 -0.02235 
0.081067 -0.22721 0.067913 0.039634 0.032893 0.0088889 0.043909 0.03651 
0.15999 -0.0059084 -0.022679 0.038155 0.02533 0.0070803 0.030756 0.047855 
0.14289 0.34462 -0.010512 0.010862 0.054267 0.0065871 0.035853 0.055254 
0.1761 0.46793 0.046704 0.022206 0.026481 0.024508 0.036182 0.05624 
0.32917 0.63333 0.22739 0.048513 0.034702 0.026646 0.037168 0.083204 
0.45675 0.7333 0.34758 0.065447 0.072353 0.045553 0.052459 0.1077 
0.34725 0.7213 0.38063 0.13286 0.084684 0.039634 0.041607 0.07449 
0.17577 0.34035 0.23726 0.1151 0.088136 0.056898 0.044896 -0.0024557 
-0.050629 -0.18676 -0.12922 0.084026 0.04654 0.061337 0.032071 -0.016595 
-0.32684 -0.60816 -0.40642 -0.042408 0.021056 0.0090533 -0.0090322 -0.043888 
-0.40954 -0.51247 -0.45887 -0.089431 -0.017253 0.0064227 0.0098754 -0.044381 
-0.32372 0.17084 -0.47695 -0.16934 -0.044381 -0.028433 -0.018733 -0.0090322 
-0.37748 -0.20748 -0.60092 -0.17575 -0.046025 -0.020048 0.01267 -0.05737 
-0.52694 -1.1626 -0.61095 -0.15881 -0.029913 -0.025967 0.01563 -0.091568 
-0.34657 -1.3114 -0.095021 -0.083676 -0.01117 0.0052718 0.029441 -0.067892 
0.062323 -0.59171 0.50937 0.094877 0.040128 0.013657 0.039963 0.0085601 
0.29776 0.045224 0.54817 0.15111 0.090931 0.073175 0.048513 0.039799 
0.3216 0.33262 0.24828 0.15867 0.091425 0.064625 0.064625 0.064461 
0.36715 0.62922 0.084684 0.14831 0.12085 0.064461 0.050157 0.11115 
0.4043 1.0705 0.14798 0.11905 0.085835 0.036675 0.050157 0.097344 
0.32539 1.0884 0.25091 0.10392 0.054596 0.048019 0.015465 0.076463 
0.066598 0.52416 0.18284 -0.013965 -0.0055795 -0.012814 0.01826 0.031085 
-0.17986 0.088301 0.15522 -0.060823 -0.01939 -0.0082102 -0.0087034 0.0018191 
-0.25911 -0.35775 0.09833 -0.086142 -0.013471 -0.014951 0.0069159 -0.025145 
-0.14714 -0.72045 -0.058521 -0.06 -0.0042642 0.014972 0.00017495 -0.0406 
-0.064768 -0.37222 -0.16687 -0.0011404 0.012999 -0.0091966 0.012013 -0.0082102 
-0.030899 -0.2864 -0.2933 0.007738 0.020069 0.017274 0.01826 0.026481 
-0.039284 -0.28179 -0.23822 0.057227 0.035031 0.022864 0.043745 0.038648 
-0.0014692 0.058213 0.03947 0.064461 0.03536 0.054103 0.048019 0.035853 
0.037826 0.33657 0.19616 0.064461 0.022535 0.028947 0.023686 0.012506 
0.093233 0.50312 0.19007 0.064461 -0.0059084 0.015301 0.034702 0.017274 
0.12579 0.43193 0.15423 0.052952 0.0074092 -0.0068948 0.026974 0.037332 
0.14946 0.34988 0.14108 0.070708 0.023686 0.023522 0.046704 0.071695 
0.11559 0.18761 0.16245 0.03651 0.041936 0.043909 0.04506 0.0421 
0.064132 0.15851 0.18547 0.056569 0.034209 0.075148 0.05624 0.030756 
0.073339 0.32341 0.16837 0.045718 0.027632 0.06183 0.025824 0.026481 
0.10622 0.50246 0.16689 0.041278 0.035195 0.065612 0.05065 0.061337 
0.25502 0.63317 0.17495 0.12316 0.041114 0.045882 0.060186 0.081889 
0.3387 0.65093 0.17824 0.14305 0.08715 0.091096 0.091589 0.075148 
0.24696 0.14338 -0.020212 0.15193 0.094055 0.041278 0.039141 0.081231 
-0.12807 -1.5766 -0.56393 -0.012649 0.034209 -0.0082102 0.0072447 0.024179 
-0.38916 -2.1749 -0.89999 -0.17114 -0.0039354 -0.023501 -0.012156 -0.02794 
-0.44029 -0.70779 -0.54979 -0.21422 -0.014458 0.01004 -0.020377 -0.0868 
-0.49849 0.073504 -0.157 -0.25204 -0.06148 -0.02235 -0.053917 -0.14319 
-0.34181 -0.11557 0.074161 -0.2111 -0.08532 -0.016595 -0.072332 -0.10324 
0.024837 0.051965 0.31848 -0.054082 -0.049642 -0.039449 -0.015773 -0.011498 
0.12924 0.36896 0.50854 0.12595 -0.0036066 0.0092177 0.0018191 0.033715 
0.098823 0.53584 0.46547 0.20882 0.020891 -0.014293 0.037497 0.035853 
0.1294 0.77785 0.3923 0.15324 0.025824 0.0075736 0.01974 0.048677 
0.2246 0.83737 0.3313 0.12858 0.018589 0.031742 0.058213 0.08715 
0.32358 1.0958 0.36567 0.077614 0.04358 0.052952 0.058542 0.14174 
0.35366 0.87289 0.35021 0.091753 0.071531 0.06183 0.087314 0.11017 
0.24499 -0.18972 0.070873 0.088465 0.08419 0.079916 0.059035 0.10195 
0.13976 -0.89835 -0.2185 0.062981 0.066927 0.058049 0.065776 0.076299 
0.12579 -0.71206 -0.26387 0.044567 0.043745 0.058213 0.025659 0.037332 
0.22148 -0.14846 -0.085813 0.025166 0.058049 0.041278 0.043416 0.042594 
0.18383 -0.06 0.0227 0.051965 0.055089 0.047197 0.023686 0.024508 
0.12233 -0.094527 0.011355 0.021878 0.030427 0.0013258 0.018918 0.042429 
0.087314 0.17659 -0.042737 -0.0082102 0.024344 0.0085601 0.02122 0.043745 
0.045553 0.17199 -0.059836 0.032729 0.050486 0.041443 0.034866 0.075476 
-0.042408 0.060844 -0.099295 0.02533 0.063968 0.055254 0.046375 0.072024 
-0.0013048 0.13286 -0.051451 0.080738 0.087314 0.058213 0.053774 0.087314 
-0.045368 0.44228 -0.014787 0.11165 0.079094 0.048841 0.070215 0.10113 
-0.1524 0.58467 0.18777 0.18678 0.095042 0.052623 0.05065 0.091589 
-0.11985 0.38622 0.47582 0.20421 0.08008 0.061008 0.072188 0.064132 
-0.072332 0.58713 0.74596 0.16278 0.04917 0.041114 0.027632 -0.0080457 
-0.15602 0.24104 0.66622 0.062159 -0.018239 -0.0096899 -0.0059084 -0.076277 
-0.21915 -0.90509 -0.14599 -0.18512 -0.11048 -0.048985 -0.069043 -0.13004 
0.010697 -1.0034 -1.0876 -0.30679 -0.13727 -0.10423 -0.076606 -0.092226 
0.14141 -0.99403 -1.3626 -0.28475 -0.094363 -0.08532 -0.067235 -0.027447 
0.086492 -1.1532 -1.1321 -0.17147 -0.010019 -0.034516 -0.0083746 -0.0021268 
-0.074633 -0.65715 -0.36597 -0.029091 0.051965 0.02122 0.024344 0.011355 
-0.10176 -0.045532 0.47254 0.00033937 0.036675 0.01415 0.040456 0.03092 
-0.012156 0.7111 0.89229 0.097508 0.040128 0.015465 0.041772 0.048348 
-0.0082102 0.94391 0.63942 0.069064 0.026317 0.0087245 0.011848 0.011848 
-0.049642 0.45346 0.16097 0.035031 0.015465 0.019247 -0.0024557 -0.01232 
0.007738 -0.11656 -0.096829 0.053281 0.0227 0.025495 0.017767 0.025988 
0.098166 -0.042244 0.040456 0.10178 0.043416 0.048184 0.041443 0.084519 
0.086657 0.14223 0.23627 0.093891 0.020727 0.024179 0.029605 0.056404 
0.0079024 0.23052 0.27458 0.062323 0.026152 0.027468 0.049006 0.0085601 
0.0083956 0.32325 0.21161 0.060186 0.03651 0.010697 0.027303 0.027796 
0.10244 0.3609 0.12694 0.088958 0.1031 0.024015 0.049828 0.062323 
0.15834 0.19221 0.037004 0.080573 0.091753 0.048184 0.02829 0.089945 
0.16229 0.031414 -0.069372 0.12858 0.088794 0.049499 0.059035 0.098001 
0.077943 0.10655 -0.040271 0.10967 0.099481 0.051801 0.037004 0.049992 
0.0227 0.17791 0.063474 0.075312 0.052623 0.040292 0.051801 0.024344 
0.038648 0.03092 0.024837 0.050157 0.020727 0.01415 0.027796 0.012506 
0.009711 0.010533 0.0087245 0.029605 -0.0044286 -0.0098543 0.026152 0.0028056 
-0.0060728 0.20487 0.0047785 0.0031344 0.0037921 -0.017582 -0.0078813 -0.013307 
-0.025638 0.17067 -0.060823 -0.059507 -0.006566 -0.00031829 0.0082312 -0.0040998 
-0.087293 -0.034352 -0.22178 -0.065097 -0.014129 -0.029255 0.0060938 -0.004593 
-0.11903 -0.2037 -0.45788 -0.076606 -0.00064712 0.01267 0.026646 0.017603 
-0.13448 -0.3104 -0.39491 -0.07414 0.0047785 0.024179 0.042265 0.017438 
-0.11409 -0.27357 -0.1843 -0.043724 -0.0024557 0.022371 0.019247 0.013328 
-0.061973 -0.44654 -0.049807 -0.040764 -0.011334 0.013986 0.047033 0.010862 
-0.089595 -0.40034 0.19747 0.012342 -0.025967 0.0079024 0.043087 0.0047785 
-0.1205 0.0021479 0.34544 0.017274 -0.010183 -0.0078813 0.050157 0.0028056 
-0.020377 0.20339 0.26225 0.0421 0.017274 0.018754 0.025001 -0.0026201 
0.092576 0.25452 0.24597 0.062652 0.048019 0.011848 0.044238 0.018589 
0.23118 0.48536 0.3147 0.10228 0.083368 0.043416 0.032236 0.055582 
0.24597 0.56395 0.2565 0.16426 0.12102 0.059528 0.050486 0.061172 
0.21556 0.50772 0.1562 0.11329 0.13023 0.08304 0.046211 0.08008 
0.20339 0.46349 0.24762 0.13072 0.076627 0.044073 0.052294 0.064296 
0.20142 0.39773 0.36057 0.073339 0.050814 0.029605 0.019083 0.058213 
0.15949 0.35383 0.31157 0.044238 0.011684 -0.010348 0.01267 0.03536 
0.10491 0.37471 0.05624 0.032236 -0.0040998 0.010862 0.0074092 0.027468 
0.048348 0.28823 -0.17789 -0.02646 -0.011827 -0.0042642 0.046704 0.026152 
0.015301 -0.014458 -0.23642 -0.018568 -0.0072237 0.031742 0.069886 0.056898 
0.11263 -0.010019 -0.18775 -0.034516 0.0014903 0.048348 0.060844 0.1151 
0.15801 -0.028597 -0.090417 -0.0070593 0.019247 0.050814 0.081395 0.094877 
-0.041915 -0.22014 0.016616 0.018096 0.01563 0.044402 0.038155 0.050979 
-0.15257 -0.38636 0.13647 0.058049 0.031249 0.052623 0.032893 -0.0054151 
-0.13678 -0.15207 0.35219 0.18728 0.094713 0.061995 0.050321 0.0024767 
-0.045532 -0.28607 0.28626 0.17429 0.11526 0.074819 0.061008 0.0037921 
0.12266 -0.18989 -0.085485 0.11543 0.075148 0.012177 0.0054362 0.030756 
0.26044 0.50904 -0.27916 0.056076 0.049335 -0.0075525 0.010369 0.044402 
0.26801 0.90643 -0.086307 0.027961 0.033387 -0.027447 -0.013143 0.050321 
0.18152 0.17248 0.024015 0.00083261 0.0059294 0.0032988 -0.033859 0.041936 
0.08008 -1.1601 -0.38439 -0.090417 -0.00015387 0.0044497 -0.026953 0.07597 
-0.046847 -1.6277 -0.60668 -0.13316 -0.0067304 0.037332 0.023522 0.058049 
-0.12149 -0.8459 -0.24168 -0.14385 -0.023336 0.027303 0.062159 0.020398 
-0.079401 0.69778 0.24795 -0.096994 -0.037147 0.026974 0.053609 -0.048985 
-0.004593 1.4219 0.37241 -0.04619 -0.019719 0.028454 0.021056 -0.040764 
0.087808 1.447 0.25288 0.038812 0.032564 0.028619 0.054432 0.0090533 
0.16196 0.99981 0.28362 0.10425 0.015794 0.020562 0.07597 0.018918 
0.10359 0.33509 0.33657 0.12447 0.024344 0.012835 0.052623 0.049664 
0.047362 -0.44358 0.23249 0.14568 0.063968 0.045389 -0.00081153 0.058049 
0.055911 -0.32092 0.12085 0.11543 0.095206 0.083368 -0.039778 0.038319 
0.10244 -0.012978 0.11362 0.11724 0.094548 0.073339 -0.050136 0.017438 
0.06479 -0.15947 0.012177 0.078765 0.076299 0.057227 -0.074633 0.024179 
-0.059178 -0.56393 -0.1621 0.011355 0.031907 0.017603 -0.040435 0.016781 
-0.1644 -0.84951 -0.23428 -0.015609 0.013328 0.014479 -0.047505 0.010862 
-0.2716 -1.0637 -0.30646 -0.068221 -0.011334 -0.006566 -0.037147 -0.018075 
-0.25352 -0.81548 -0.31007 -0.05326 -0.01939 0.00099702 0.034209 -0.023994 
-0.0075525 0.11773 -0.11935 0.028125 0.04095 0.040785 0.08419 0.018589 
0.16623 0.59174 0.020069 0.044567 0.020891 0.05772 0.08304 0.052787 
0.21704 0.2417 -0.023994 0.054596 0.012177 0.050486 0.032564 0.061501 
0.19862 0.28741 0.15193 0.044567 0.012342 0.03536 0.013986 0.051965 
0.24203 0.76043 0.33837 0.036675 0.0079024 0.022206 0.013492 0.059693 
0.22279 0.77341 0.095371 -0.039284 -0.018239 0.0051074 0.013492 0.042265 
0.13746 0.451 -0.23839 -0.081868 -0.015938 0.0036276 0.017274 0.049006 
-0.048327 -0.068057 -0.26289 -0.0088678 0.019411 0.016945 0.055089 0.050486 
-0.16177 -0.34263 -0.14352 0.01415 0.06331 0.031249 0.055582 0.047691 
-0.13103 -0.28936 -0.0096899 0.053445 0.069229 0.040128 0.062159 0.035195 
-0.041586 -0.076442 0.081231 0.041607 0.055418 0.014972 0.02122 0.030263 
-0.071509 -0.30383 0.014643 0.025824 0.027632 0.0052718 0.010697 -0.004593 
-0.20764 -0.94076 -0.08828 0.007738 -0.0073881 -0.020377 -0.051615 -0.056383 
-0.2106 -0.30876 0.19599 -0.02087 -0.025638 -0.031392 -0.043724 -0.092061 
-0.038791 0.74579 0.6478 0.053281 0.021713 -0.0091966 -0.02498 -0.048656 
0.12085 0.85447 0.62002 0.10507 0.048348 0.031907 0.014972 0.035524 
0.22707 0.17051 0.36041 0.12233 0.079094 0.060186 0.058706 0.1128 
0.27113 -0.091568 0.23677 0.13878 0.058377 0.062817 0.078929 0.13483 
0.21128 0.15292 0.047855 0.042923 0.041114 0.059857 0.057062 0.098659 
0.08978 -0.3012 -0.49422 -0.095021 -0.011498 0.027303 0.0092177 0.035853 
-0.025309 -0.62591 -0.67935 -0.16079 -0.012485 0.019247 0.019411 0.024179 
-0.19005 0.13927 -0.26009 -0.098967 -0.021034 -0.017746 -0.006566 -0.042244 
-0.46101 0.40694 0.0088889 -0.031886 0.0054362 -0.023994 -0.0054151 -0.095843 
-0.50885 -0.27933 0.12349 0.022864 0.03092 -0.060823 -0.023336 -0.094692 
-0.22195 -0.33983 0.20717 0.1174 0.079258 0.0065871 0.046868 0.02122 
0.1294 0.2685 0.26274 0.1613 0.10326 0.066763 0.070544 0.088958 
0.26406 0.55047 0.244 0.19517 0.1396 0.12135 0.088794 0.11214 
0.34002 0.67559 0.25206 0.1465 0.12447 0.11839 0.08156 0.08978 
0.31355 0.59272 0.15785 0.083862 0.080902 0.093726 0.080738 0.036675 
0.14831 -0.11245 -0.16786 0.0087245 0.016616 0.024837 0.079422 0.042265 
0.073175 -0.28525 -0.24941 -0.051944 -0.015116 -0.0052507 0.12398 0.065447 
0.049992 -0.21225 -0.16128 -0.021692 -0.021528 -0.015444 0.12595 0.070215 
-0.004593 -0.10538 -0.20912 -0.034681 -0.020048 -0.03205 0.063474 0.050157 
0.00050378 -0.039778 -0.29429 -0.034845 -0.030735 -0.057534 0.00083261 -0.0004827 
-0.021034 -0.096007 -0.10061 -0.069701 -0.058521 -0.060494 -0.061316 -0.033037 
-0.029584 -0.14944 0.23216 -0.10719 -0.084827 -0.059672 -0.078908 -0.058356 
-0.0049219 0.24301 0.44804 -0.052931 -0.079237 -0.03205 -0.067728 -0.030735 
0.060022 0.70864 0.61985 0.0098754 -0.014622 -0.0011404 0.00297 0.0079024 
0.047033 0.51282 0.57513 0.090767 0.055582 0.047855 0.030263 0.037004 
-0.0406 -0.15733 0.2103 0.10244 0.076299 0.073504 0.060022 0.036346 
-0.09798 -0.34263 -0.16983 0.055254 0.0689 0.054432 0.030427 0.028783 
-0.063946 -0.16325 -0.32421 0.06742 0.067091 0.037332 0.084026 0.021713 
-0.0064016 -0.061973 -0.29084 0.038155 0.054925 0.032893 0.040785 0.038648 
0.068078 0.15259 -0.076113 0.062159 0.043909 0.012506 0.08978 0.065776 
0.11592 0.30977 0.12201 0.066105 0.060515 0.029769 0.064132 0.054925 
0.12612 0.37356 0.14058 0.03947 0.073832 0.033222 0.061501 0.037497 
0.12579 0.15242 -0.003771 0.052952 0.068571 0.046375 0.045389 0.031578 
0.16853 0.028125 -0.036489 0.063968 0.070708 0.046868 0.037497 0.050486 
0.18037 -0.047341 -0.056712 0.1054 0.07449 0.068078 0.051965 0.061008 
0.030427 -0.25631 -0.29873 0.051801 0.0421 0.050979 0.045718 0.050157 
-0.12248 -0.24661 -0.36466 -0.0004827 -0.031392 0.014479 0.025495 0.0032988 
-0.10669 -0.020377 0.060844 -0.021856 -0.037147 -0.019719 -0.016431 -0.014622 
0.032236 0.34512 0.48174 -0.0070593 -0.046354 -0.018733 0.0018191 0.010697 
0.19484 0.57513 0.6843 0.04358 0.0074092 -0.010183 0.009711 0.067913 
0.22674 0.4413 0.53567 0.016781 -0.0054151 0.013164 0.03092 0.062652 
0.13121 0.11148 0.12381 -0.015938 -0.033201 -0.025145 -0.0057439 0.022864 
0.055582 0.1008 -0.18331 -0.060823 -0.026953 -0.02942 -0.017088 -0.019884 
-0.051122 -0.16391 -0.45542 -0.052931 0.00099702 0.004943 -0.0138 -0.0024557 
-0.19679 -0.92482 -0.77504 -0.039449 0.05476 0.053281 0.041936 0.015465 
-0.15388 -0.98548 -0.729 0.0046141 0.10721 0.058871 0.061172 0.042758 
0.043416 -0.28179 -0.29774 0.11083 0.12809 0.090438 0.061337 0.057062 
0.16853 0.35021 0.13878 0.11461 0.10376 0.083533 0.076627 0.08419 
0.14765 0.61541 0.31125 0.093069 0.06183 0.084848 0.04506 0.072353 
0.089287 0.66605 0.4676 0.058049 -0.0032777 0.038319 0.016781 0.036346 
-0.023336 0.5388 0.50937 0.012506 -0.011498 0.0095465 -0.0044286 -0.0098543 
-0.058356 0.41105 0.36764 0.024673 -0.042079 -0.025309 -0.011992 -0.025802 
0.067091 0.36846 0.26307 0.019247 -0.024158 0.00017495 -0.018568 0.024015 
0.17396 0.44738 0.27162 0.094548 0.010533 0.0079024 0.037497 0.095864 
0.25123 0.42272 0.20257 0.11757 0.071037 0.03947 0.035688 0.090109 
0.26998 0.42519 0.03092 0.1396 0.08978 0.061995 0.036839 0.070708 
0.1562 -0.23 -0.05885 0.13795 0.10458 0.079916 0.047691 0.063474 
-0.0098543 -0.76221 -0.17542 0.059693 0.073504 0.081889 0.038319 0.046375 
0.055747 -0.29462 -0.042901 0.062652 0.033551 0.05476 0.0324 0.022206 
0.14256 0.31042 0.159 0.017274 0.0034632 0.036675 0.03651 0.021384 
0.065776 -0.11459 0.080409 -0.035503 -0.019719 0.028454 -0.0060728 0.0039565 
-0.094363 -0.82946 -0.43207 -0.14977 -0.036654 -0.020541 -0.011827 -0.0044286 
-0.096829 -0.72505 -0.70894 -0.15503 -0.0022913 0.00066819 -0.0078813 0.016452 
-0.10291 0.02681 -0.30679 0.015794 0.045553 0.0062583 0.010533 0.014479 
-0.19663 0.31716 0.15719 0.048513 0.049006 0.030592 0.023522 -0.0022913 
-0.27209 0.23858 0.17626 0.032564 0.041772 0.022042 0.014972 -0.0082102 
-0.13711 0.39395 0.12776 0.049992 0.052952 0.06742 0.061008 0.042758 
0.1391 0.52729 0.23529 0.12069 0.045718 0.048841 0.072681 0.093891 
0.14272 -0.39064 0.13121 0.1179 0.041278 0.044402 0.069722 0.046046 
-0.035996 -1.1987 0.0016547 0.018589 -0.0068948 -0.0049219 0.0087245 -0.016595 
-0.12692 -0.65238 0.12743 0.013821 -0.0019624 0.005765 -0.0036066 -0.041257 
0.018096 0.59141 0.329 0.010204 0.0093821 0.0032988 -0.0029489 -0.01117 
0.031085 0.87108 0.21753 -0.022185 0.0059294 0.0054362 0.0060938 0.0062583 
-0.074798 0.16459 -0.16342 -0.019555 0.0036276 -0.026624 -0.033365 -0.037476 
-0.021034 -0.033365 -0.33358 0.019576 0.025988 0.018425 0.018589 -0.02235 
0.045882 -0.10127 -0.23625 0.042758 0.032729 0.024179 0.016288 0.0062583 
0.12053 -0.028269 -0.052931 0.01826 0.027961 0.042923 0.057555 0.06331 
0.16673 0.01711 -0.033201 0.0032988 0.019905 0.039141 0.072188 0.097344 
0.14667 -0.0011404 -0.012156 0.009711 0.021713 0.057227 0.0689 0.088958 
0.073668 0.041443 0.08419 0.030098 0.020233 0.022535 0.047033 0.049828 
-0.027775 0.059693 0.18366 0.070708 0.011191 0.017932 0.0041209 0.0085601 
-0.056877 0.064625 0.19385 0.062981 0.016781 -0.0021268 0.015794 0.0080668 
0.029605 0.13483 0.20076 0.081724 0.034702 0.023357 0.010862 0.023851 
0.13286 0.20487 0.17906 0.06594 0.031907 0.024179 0.034044 0.052623 
0.159 0.17824 0.099481 0.071531 0.087972 0.024673 0.031414 0.065118 
0.15127 0.2463 0.11691 0.1174 0.10491 0.043251 0.054267 0.074819 
0.13121 0.36748 0.19665 0.069064 0.069229 0.03799 0.027961 0.070051 
0.08008 0.38803 0.066598 0.0019835 0.019905 0.0079024 0.034537 0.019905 
-0.092061 -0.010841 -0.26913 -0.06296 -0.035667 -0.047834 -0.017088 -0.004593 
-0.20107 -0.24135 -0.17032 -0.057205 -0.027611 -0.042573 -0.0021268 -0.032379 
-0.049478 0.069558 0.30368 0.036839 -0.0050863 -0.0075525 -0.022514 -0.0044286 
0.091096 0.47221 0.44459 0.005765 0.01152 0.01563 0.0014903 -0.0022913 
0.065776 0.17199 0.19106 0.0082312 0.042923 0.06594 0.031249 0.0080668 
0.048348 -0.41809 -0.094199 0.0034632 0.047033 0.071695 0.057391 0.046868 
0.048513 -0.91643 -0.39425 -0.021363 0.0067515 0.030756 0.072353 0.065612 
-0.12133 -0.84376 -0.59171 -0.031886 0.0072447 0.0051074 0.043745 0.029276 
-0.23477 -0.32849 -0.43881 -0.038298 0.044402 -0.021692 0.012506 -0.0055795 
-0.18709 -0.016266 -0.15651 -0.024158 -0.034681 -0.02646 -0.0057439 -0.038627 
0.021713 0.04654 0.2583 0.018754 0.011848 -0.047998 0.027303 0.026646 
0.22822 0.23479 0.62972 0.13467 0.033058 0.00083261 0.0087245 0.080409 
0.34232 0.82948 0.70288 0.11576 0.058377 0.063803 0.039799 0.075312 
0.25008 0.74925 0.27261 0.011191 0.03388 0.055747 0.033387 0.044073 
0.1031 0.24186 -0.291 -0.039284 0.015959 0.035031 0.033222 0.016945 
-0.032215 -0.17427 -0.43799 -0.050464 0.0028056 0.01974 0.0039565 0.0052718 
-0.18183 -0.41431 -0.23198 0.0036276 -0.0019624 0.0034632 -0.0059084 -0.026624 
-0.28262 -0.19433 0.046046 0.01563 0.0065871 -0.017746 -0.030077 -0.065097 
-0.1741 0.41088 0.2565 0.050157 0.0324 -0.02942 0.017767 -0.02794 
0.0044497 0.81518 0.329 0.090767 0.057391 0.020233 0.026152 0.034209 
0.14617 0.63152 0.26094 0.098494 0.096521 0.019083 0.029112 0.091096 
0.20734 0.29283 0.14437 0.10573 0.077778 0.080573 0.081889 0.077121 
0.19435 -0.021199 0.051965 0.07597 0.060515 0.082711 0.10589 0.06479 
0.12447 -0.17756 -0.056712 0.035688 0.038977 0.054596 0.083697 0.061501 
0.040621 -0.3012 -0.25204 0.01152 0.021713 0.0227 0.023851 0.044402 
-0.056712 -0.28459 -0.27966 -0.0027845 0.012342 0.00017495 0.014808 0.030263 
-0.05441 -0.12116 -0.13629 -0.0016336 0.007738 -0.026131 -0.013471 0.031414 
0.074326 0.038155 -0.06 -0.034681 -0.012156 -0.0060728 0.026646 0.06183 
0.17182 -0.03205 -0.046847 -0.024158 0.0065871 -0.0087034 0.017438 0.0592 
0.10967 -0.077428 0.021713 -0.0055795 0.01826 0.007738 0.031578 0.028783 
0.079258 -0.03616 0.13697 0.031249 0.049499 0.026974 0.030756 0.0080668 
0.081724 0.0039565 0.092904 0.083368 0.061172 0.04917 0.052294 0.029769 
0.095864 0.062817 0.030263 0.077285 0.043416 0.054267 0.052952 0.052952 
0.081724 0.21112 0.10441 0.10918 0.052623 0.056404 0.048841 0.053609 
0.029441 0.3581 0.23923 0.10145 0.063968 0.042594 0.026317 0.046211 
-0.020377 0.42535 0.29645 0.066434 0.0088889 0.005765 0.0041209 0.0074092 
-0.054246 0.40973 0.27836 0.02681 -0.043888 -0.025309 -0.040435 -0.021528 
-0.08384 -0.17624 -0.0039354 -0.075949 -0.025802 -0.011498 -0.053095 -0.060658 
-0.10784 -0.45394 -0.1279 0.0098754 0.034702 0.011026 -0.0087034 -0.02087 
0.045718 0.1853 -0.06 0.10737 0.10836 0.068571 0.067091 0.09685 
0.24104 0.95131 0.040785 0.1738 0.12085 0.086163 0.11822 0.13582 
0.2366 1.1022 0.017274 0.13302 0.10836 0.090109 0.092247 0.1225 
-0.019226 0.29744 -0.26749 0.024508 0.061172 0.046211 0.051636 0.028619 
-0.31451 -1.6995 -0.48468 -0.035832 0.028125 0.039799 0.019247 -0.023665 
-0.41924 -2.0639 -0.18101 -0.11113 0.004943 0.005765 0.020727 -0.067235 
-0.16424 -0.69266 0.071859 -0.15174 -0.066577 -0.032379 -0.017253 -0.064275 
0.055582 0.31322 0.098166 -0.1547 -0.10505 -0.067564 0.00099702 -0.039284 
0.14716 0.56839 -0.0047575 -0.10078 -0.081374 -0.029091 0.0093821 0.024673 
0.21671 0.80169 -0.0013048 0.014315 -0.011005 1.0539e-005 0.043087 0.087479 
0.40365 0.81748 0.1539 0.078929 0.0095465 0.047033 0.054267 0.12792 
0.41844 0.45511 0.33361 0.16114 0.05213 0.03092 0.063803 0.12497 
0.24959 0.10737 0.28971 0.19829 0.092576 0.070544 0.062159 0.097179 
0.055254 -0.15766 0.28395 0.16344 0.066434 0.049006 0.049335 0.059035 
-0.070194 -0.10554 0.21737 0.084848 0.055418 0.048841 0.031249 0.0052718 
-0.15585 0.12825 0.081889 0.032564 0.031742 0.019576 0.0075736 -0.04619 
-0.082032 0.26685 -0.12001 0.005765 0.035688 0.0592 0.021549 -0.016595 
-0.0771 -0.23494 -0.34164 -0.045861 0.057062 0.04506 0.029934 0.020727 
-0.1205 -0.76517 -0.35101 -0.011663 0.067091 0.067091 0.062323 0.051143 
-0.05178 -0.58662 -0.20814 0.0056006 0.080902 0.07597 0.040785 0.052294 
0.091096 -0.082525 0.0056006 0.029441 0.04654 0.088958 0.061337 0.039634 
0.14815 0.4191 0.19714 0.060515 0.018754 0.034209 0.033387 0.042594 
0.17166 0.75023 0.33015 0.027139 -0.0078813 0.018425 0.028125 0.051308 
0.13812 0.69778 0.33541 0.030756 -0.0067304 -0.017088 0.0064227 0.013164 
0.061995 0.28017 0.19188 0.020233 0.0095465 0.026974 0.012835 0.026974 
0.023851 -0.067892 0.042594 0.0098754 -0.0050863 -0.0042642 0.0093821 0.0028056 
0.025988 -0.12544 -0.023007 0.054596 0.0062583 0.018754 0.010204 0.027796 
0.070708 -0.057699 -0.098144 0.024015 -0.004593 0.0046141 0.010697 0.043745 
0.086328 -0.025638 -0.049149 0.034866 0.0052718 0.022206 0.034537 0.032564 
0.048184 -0.035503 -0.0055795 0.013164 0.011684 0.016945 0.021878 0.025824 
0.066105 -0.0016336 0.021713 0.011684 0.049006 0.055418 0.0065871 0.035031 
0.093069 0.080244 0.088465 0.034866 0.049499 0.039634 -0.011334 0.028947 
0.043087 -0.070194 0.17889 0.034373 0.04654 0.041114 -0.057534 0.038648 
-0.05178 -0.50457 0.15407 0.040785 0.01711 0.016616 -0.023007 -0.0031133 
-0.20945 -0.78934 -0.055232 -0.028269 0.0041209 0.018589 0.0075736 -0.036818 
-0.10291 -0.42894 -0.15421 -0.017253 -0.0032777 -0.0067304 0.049992 -0.00064712 
0.15785 0.41598 0.0080668 0.053116 0.04095 0.056076 0.084026 0.12414 
0.30796 0.74152 0.15637 0.14108 0.099481 0.070544 0.11921 0.12151 
0.15127 0.52005 0.14321 0.14864 0.09422 0.056076 0.071859 0.08419 
-0.13941 -0.01528 -0.080223 0.049828 0.039141 0.0060938 0.009711 -0.010841 
-0.43223 -0.21027 -0.14352 -0.045368 -0.054904 -0.038791 -0.051122 -0.10275 
-0.55176 -0.34805 -0.11607 -0.13432 -0.078744 -0.08269 -0.074798 -0.11442 
-0.42648 -0.50211 -0.17887 -0.13448 -0.080223 -0.061316 -0.050958 -0.12429 
-0.16687 -0.25812 -0.044381 -0.043066 -0.010512 -0.0011404 -0.017911 -0.037147 
0.089945 0.034866 -0.0042642 0.0592 0.041772 0.058706 0.033222 0.07038 
0.35958 0.29365 0.058706 0.1664 0.09685 0.071202 0.065118 0.12447 
0.55902 0.70666 0.33755 0.17445 0.10984 0.03651 0.087808 0.12201 
0.60522 0.97301 0.64303 0.20964 0.096686 0.041278 0.055911 0.10392 
0.46908 1.1476 0.67921 0.21276 0.097179 0.01826 0.058871 0.12431 
0.32522 1.1369 0.44919 0.18333 0.10885 0.061501 0.05213 0.10014 
0.1225 0.44393 -0.039942 0.075476 0.042923 0.042758 0.055911 0.054103 
-0.070687 -0.33243 -0.54075 -0.090581 -0.015773 0.010697 -0.0055795 -0.0070593 
-0.1912 -1.0087 -0.83061 -0.19548 -0.046354 -0.026789 -0.014293 -0.032379 
-0.37436 -1.4975 -0.82255 -0.17706 -0.041751 -0.033201 -0.030899 -0.060987 
-0.47514 -1.2556 -0.34263 -0.14385 -0.014129 -0.036489 -0.0138 -0.06148 
-0.36548 -0.45591 0.1613 -0.028269 -0.027775 -0.015773 -0.0068948 -0.041257 
-0.11804 0.21391 0.39477 0.028454 -0.018897 -0.0068948 0.013986 -0.0014692 
0.081395 0.65273 0.47073 0.08567 0.027468 0.0054362 0.019083 0.026152 
0.16689 0.71242 0.4316 0.09685 0.074654 0.034373 0.020562 0.041772 
0.13549 0.53682 0.24104 0.084848 0.095206 0.060186 0.049992 0.060022 
0.094055 0.3752 0.050979 0.081724 0.085341 0.051965 0.051472 0.065447 
0.1202 0.34561 0.0056006 0.1054 0.09685 0.051965 0.072353 0.055089 
0.171 0.32933 -0.0031133 0.1105 0.071859 0.035688 0.059693 0.067091 
0.16262 0.27672 0.024508 0.041936 0.034373 0.021384 0.062981 0.070215 
0.1174 0.30352 0.094877 0.011026 -0.0014692 -0.0029489 0.016616 0.041114 
0.069722 0.039634 0.11757 -0.028762 0.0052718 -0.0082102 0.026646 0.00297 
0.010862 -0.17575 0.085177 -0.010019 -0.010512 -0.01939 0.0016547 -0.0077169 
0.03092 0.15489 0.2366 0.053774 0.013657 0.0083956 0.038155 0.016616 
0.050486 0.20092 0.11576 0.033551 0.01563 0.0023123 0.017932 0.027796 
-0.030406 -0.38702 -0.21685 0.011684 0.020562 0.018096 0.044896 0.020891 
-0.080388 -0.89687 -0.3007 -0.039613 -0.001798 0.016288 0.034209 0.029112 
-0.063618 -1.0947 -0.24809 -0.052273 0.013986 0.023193 0.038155 0.031907 
0.00099702 -0.44785 -0.18397 0.0018191 0.038319 0.022864 0.04506 0.038155 
-0.036654 -0.068057 -0.13612 0.039305 0.059857 0.035031 0.037497 0.024673 
-0.13958 -0.25088 -0.28344 0.012835 0.0093821 0.0047785 0.024015 -0.021199 
-0.13892 -0.0070593 -0.35611 -0.060165 0.004943 0.0037921 0.0093821 -0.023994 
-0.010841 0.65241 -0.10225 -0.013965 0.012999 -0.0083746 0.025495 0.0044497 
0.087972 1.0393 0.21474 -0.030899 0.00033937 0.018096 0.013821 0.021713 
0.06742 0.54208 0.25387 -0.023172 -0.0004827 -0.0019624 0.018096 0.016452 
0.092904 0.14716 0.34758 0.016123 0.015137 0.019083 0.024344 0.030756 
0.25551 0.31338 0.51726 0.073668 0.050486 0.012013 0.063803 0.067913 
0.38704 0.60703 0.55589 0.16196 0.061666 0.045718 0.075148 0.11181 
0.31536 0.4025 0.35071 0.16031 0.071202 0.037661 0.087479 0.12168 
0.15226 0.068407 0.064132 0.094384 0.076792 0.068571 0.063968 0.07597 
0.015794 -0.15602 -0.11837 0.0689 0.061995 0.043745 0.047855 0.047362 
-0.032543 -0.42335 -0.23609 -0.021363 0.015301 0.036839 0.019905 0.024837 
0.038648 -0.36696 -0.23132 -0.02498 0.011355 0.01711 0.03799 0.037332 
0.083204 0.07597 -0.081868 -0.024487 -0.0067304 0.0085601 0.0028056 0.042265 
-0.039613 -0.10324 0.0092177 -0.020377 -0.0062372 -0.00064712 0.0046141 -0.0016336 
-0.17213 -0.25746 0.043416 -0.0075525 -0.019226 -0.0050863 -0.006566 -0.0064016 
-0.21702 -0.11015 0.043909 0.019411 -0.0040998 0.0044497 -0.006566 -0.024816 
-0.14106 0.021549 -0.015609 0.053116 0.013328 0.0065871 0.016123 0.017438 
-0.060987 -0.02942 -0.0965 0.040621 0.024344 0.01711 0.024015 0.026481 
-0.014622 -0.087622 -0.22145 0.015301 0.040785 0.030592 0.037168 0.0090533 
0.004943 -0.098802 -0.15076 -0.010348 0.035853 0.00297 0.012013 0.0056006 
0.089287 0.046704 -0.015609 -0.0090322 0.044896 0.028619 0.05065 0.04358 
0.13894 0.30533 0.071859 0.03536 0.059528 0.032236 0.053774 0.066927 
0.13828 0.14206 0.15587 0.037497 0.064296 0.062652 0.058871 0.057555 
0.10244 -0.26946 0.25452 0.099316 0.061995 0.056898 0.041936 0.055254 
0.15999 0.012506 0.44459 0.10869 0.050321 0.068078 0.039963 0.051965 
0.22904 0.8206 0.59075 0.11296 0.028947 0.0324 0.031578 0.05065 
0.23463 1.2062 0.62906 0.12875 0.0051074 0.037168 0.025495 0.030263 
0.10688 0.59239 0.378 0.063639 -0.0014692 -0.019555 0.013492 0.020069 
0.038319 0.057227 0.036675 0.055254 -0.0082102 0.04654 0.022864 0.041607 
-0.12905 -0.38258 -0.2744 -0.023336 -0.0070593 0.0070803 0.010862 0.016781 
-0.22195 -0.31402 -0.53039 -0.14665 -0.056548 -0.015609 -0.033201 -0.063618 
-0.23905 -0.68329 -0.78835 -0.15816 -0.045203 -0.033694 -0.020706 -0.080881 
-0.28377 -1.4483 -1.0715 -0.15109 -0.01117 0.0042853 -0.021856 -0.066084 
-0.25911 -1.3406 -0.85527 -0.11886 -0.0090322 -0.0088678 -0.025309 -0.052437 
-0.015444 -0.23773 -0.11738 -0.10176 -0.03616 -0.010841 -0.055232 -0.0036066 
0.20997 0.73691 0.39164 -0.050136 -0.01676 -0.011827 0.016288 0.052623 
0.2195 1.0258 0.56724 0.055911 0.028947 0.039634 0.05065 0.10622 
0.16492 0.79577 0.61229 0.15374 0.068407 0.02681 0.10195 0.1179 
0.15028 0.44755 0.54866 0.2371 0.079587 0.05624 0.071366 0.11099 
0.15472 0.22805 0.36271 0.17955 0.091753 0.068407 0.073832 0.074819 
0.15045 0.15818 0.2218 0.15209 0.084684 0.076956 0.011026 0.049499 
0.12184 0.18794 0.17528 0.10787 0.082546 0.069886 0.017274 0.031249 
0.10622 0.21753 0.18695 0.078272 0.060022 0.061995 0.02122 0.049006 
0.070873 0.13434 0.16903 0.062159 0.065283 0.046211 0.025166 0.046868 
-0.034352 -0.053588 0.020891 0.011848 0.056733 0.050157 0.026481 0.0067515 
-0.094527 -0.072332 -0.14106 0.0047785 0.025495 0.012506 0.012835 -0.02646 
-0.097158 -0.0098543 -0.24234 -0.055561 0.00099702 0.017438 0.022042 -0.0054151 
-0.025802 -0.15881 -0.24316 -0.014293 0.025988 0.0019835 0.014479 0.018096 
-0.032708 -0.39212 -0.28048 -0.017911 -0.00031829 -0.022021 0.014972 -0.00031829 
-0.020377 -0.32849 -0.17608 -0.01939 -0.03764 -0.035832 -0.003771 -0.024323 
0.10129 0.1419 0.10721 0.054596 -0.017253 -0.046354 0.020727 0.020233 
0.24351 0.59766 0.28461 0.098988 0.035031 -0.01676 0.040456 0.08715 
0.2833 0.67444 0.27919 0.17412 0.10589 0.053774 0.11444 0.13006 
0.20898 0.65931 0.3775 0.14387 0.10984 0.071037 0.11921 0.094877 
0.027139 0.10376 0.21112 0.025659 0.023028 0.053116 0.066105 0.023193 
-0.25253 -0.62986 -0.1718 -0.081045 -0.012814 -0.0034422 0.00083261 -0.039449 
-0.30514 -0.80479 -0.29462 -0.13464 -0.047505 -0.0138 -0.032708 -0.058356 
-0.10489 -0.39721 -0.079566 -0.047505 -0.008539 -0.0039354 -0.014787 0.010862 
0.013492 -0.12215 -0.12642 -0.034188 0.021713 0.01563 0.0014903 0.051308 
0.036346 -0.28212 -0.42845 -0.033694 0.052952 0.050814 0.035195 0.083862 
0.067913 -0.20715 -0.31945 0.03092 0.090109 0.058049 0.037661 0.067091 
0.082546 -0.14254 0.058706 0.11855 0.12349 0.068242 0.032236 0.03092 
0.055911 -0.10127 0.17676 0.15538 0.092411 0.048019 0.015959 0.021878 
0.13582 0.46958 0.17922 0.10524 0.049335 0.045882 0.03388 0.042429 
0.21441 1.0463 0.23479 0.11083 0.037826 0.01004 0.028947 0.04506 
0.28379 1.3161 0.15916 0.054267 0.023028 -0.00031829 0.053938 0.047691 
0.28642 1.1151 0.13894 -0.0034422 -0.02087 -0.0080457 0.016945 0.071859 
0.23825 0.48816 0.23249 0.033058 0.005765 0.031742 0.050814 0.088136 
-0.065919 -0.38538 0.22427 0.032236 0.02829 0.020562 0.030427 0.019576 
-0.4176 -1.0361 0.091425 0.051472 0.032564 0.01974 0.025659 -0.047341 
-0.36236 -0.64827 0.034044 0.034866 0.032564 0.0070803 0.015465 -0.022185 
-0.0503 0.18909 0.083862 0.063145 0.047362 0.024508 0.0421 0.035688 
0.012506 0.017274 -0.023994 0.047526 0.017932 -0.0034422 0.030756 0.004943 
-0.18035 -0.66323 -0.24283 -0.026789 1.0539e-005 -0.015938 0.020233 -0.036654 
-0.19729 -0.66192 -0.23477 0.0098754 -0.012649 -0.025967 0.010204 -0.014951 
0.05476 0.097179 -0.0090322 0.058377 0.043745 0.017438 0.046868 0.054267 
0.25387 0.64764 0.22049 0.11395 0.058706 0.030098 0.067256 0.10474 
0.28297 0.63547 0.27409 0.1054 0.068078 0.046211 0.050814 0.10507 
0.22887 0.47566 0.19451 0.06183 0.063474 0.048019 0.05065 0.062323 
0.16081 0.46629 0.20602 0.039305 0.037826 0.061172 0.03092 0.050486 
0.10474 0.36419 0.12924 -0.066084 0.019083 0.016945 0.044896 0.018754 
-0.036489 -0.08828 -0.1792 -0.055561 0.01974 0.028947 0.058542 0.0067515 
-0.10193 -0.29774 -0.28788 0.024673 0.06479 0.037661 0.08156 0.016288 
-0.063289 -0.16523 -0.052437 0.09685 0.0786 0.075641 0.085012 0.058377 
-0.0004827 -0.18693 -0.015609 0.10145 0.022371 0.028947 0.062159 0.058871 
0.024015 -0.46413 -0.11722 0.0014903 -0.037476 -0.0082102 0.018918 0.038319 
0.073832 -0.07003 0.11411 -0.0022913 -0.031557 -0.023501 0.013164 0.036839 
0.17363 0.26011 0.39855 0.015465 -0.019719 -0.0090322 -0.0039354 0.035195 
0.0592 -0.01117 0.3826 0.0059294 -0.020706 -0.017417 -0.073482 -0.047669 
-0.21965 -0.2134 0.097015 -0.014787 0.012177 0.0080668 -0.1552 -0.11672 
-0.32816 -0.14007 -0.14632 -0.01939 0.023522 -0.0055795 -0.15322 -0.12346 
-0.28114 -0.23559 -0.39886 -0.0088678 0.040621 0.015465 -0.094692 -0.067892 
-0.14319 -0.27966 -0.45262 -0.096994 -0.00081153 -0.025474 -0.064111 -0.020541 
0.0021479 -0.15092 -0.30514 -0.079072 -0.020377 0.031907 -0.034352 0.053116 
0.11888 0.045224 -0.023665 -0.024652 -0.0064016 -0.0088678 0.095206 0.10474 
0.20783 0.28165 0.2126 0.06594 0.035031 0.0039565 0.19714 0.12595 
0.32226 0.39 0.26801 0.14486 0.060679 0.0064227 0.16853 0.16179 
0.32078 -0.091075 0.11888 0.10343 0.056569 0.044567 0.10787 0.1544 
0.19139 -0.23938 0.057391 0.076463 0.053609 0.041936 0.04095 0.077943 
0.058377 0.20651 0.14338 0.019576 0.023357 0.056733 -0.0013048 0.026646 
-0.042901 0.4168 0.16212 0.0019835 0.0059294 0.028454 -0.038133 -0.073318 
-0.19104 0.45034 0.13746 -0.019719 -0.014787 0.016781 -0.043888 -0.089759 
-0.27209 0.07301 0.083533 -0.066741 -0.030406 -0.015773 -0.053095 -0.079072 
-0.15947 -0.30859 -0.066577 -0.020048 -0.0068948 0.021056 -0.0090322 -0.011334 
0.0039565 -0.38192 -0.14961 0.017767 0.039799 0.059364 0.042594 0.046046 
0.10704 -0.054246 -0.04619 0.0786 0.08304 0.08863 0.049335 0.067091 
0.10869 0.20717 0.085999 0.070873 0.076299 0.057062 0.055089 0.073339 
0.095042 0.27129 0.13006 0.038977 0.028783 0.067585 0.028125 0.042923 
0.14042 0.20125 0.12513 0.050321 0.0093821 0.034044 0.03947 0.054267 
0.16475 0.10491 0.090438 0.0070803 -0.00031829 0.036346 0.015794 0.040128 
0.16048 -0.043395 0.069393 0.025495 0.00066819 0.0013258 0.051636 0.049499 
0.064954 -0.21899 0.062817 0.027796 0.014643 -0.009361 0.039799 0.044567 
0.02829 -0.23099 0.069722 0.042594 0.012835 -0.028433 0.053938 0.050486 
0.14256 -0.29758 0.06331 0.051308 0.026152 -0.0036066 0.013164 0.023028 
0.17528 -0.042408 -0.0095255 0.032236 0.039141 0.010862 0.015959 0.01563 
0.13664 0.59091 -0.10735 0.019411 0.036017 0.039799 0.0072447 0.015959 
0.071037 0.7231 -0.18808 -0.056877 0.014972 0.0042853 0.016781 0.01974 
0.040128 0.33805 -0.11491 -0.017582 -0.010512 0.026646 0.029769 0.045224 
0.018918 0.20372 0.040128 0.031907 -0.0052507 0.013164 0.005765 0.016781 
-0.017582 0.39247 0.19139 0.077285 0.027632 0.039963 0.018589 0.033387 
0.035688 0.69236 0.42699 0.14634 0.089452 0.049335 0.028947 0.054925 
0.10244 0.66441 0.49539 0.11921 0.070215 0.048184 0.035195 0.053445 
0.10737 -0.0052507 0.076299 0.041443 0.040785 0.019411 0.024015 0.034702 
0.081231 -0.75843 -0.47169 -0.078086 -0.0067304 0.0095465 0.020727 0.029276 
0.10277 -0.51526 -0.62049 -0.08828 0.022371 0.02533 0.022535 0.050814 
0.066598 -0.19022 -0.4684 -0.029748 0.038977 0.069064 0.071202 0.058049 
-0.037147 -0.58695 -0.31747 -0.024816 0.037332 0.048348 0.069229 0.055418 
-0.034516 -0.4541 0.041443 0.058871 0.057227 0.067256 0.094877 0.037826 
0.033715 0.33246 0.52712 0.14404 0.1174 0.094384 0.086985 0.048184 
-0.10456 0.1978 0.56231 0.12168 0.079587 0.075805 0.085177 0.027303 
-0.18611 -0.5927 0.27623 0.09274 0.041114 0.017932 0.032564 0.0087245 
-0.20814 -0.97529 0.047033 0.032729 0.0026412 0.012177 0.031249 -0.00015387 
-0.05178 -0.48665 0.027961 -0.034845 -0.001798 -0.0095255 0.029112 -0.0073881 
0.041607 0.44985 -0.022843 -0.07414 -0.044381 -0.026131 -0.0052507 -0.02646 
-0.047669 0.60325 -0.15651 -0.14961 -0.059507 -0.078415 -0.028104 -0.050958 
-0.00081153 0.92172 -0.057041 -0.081868 -0.0049219 -0.023336 -0.022514 -0.013143 
0.27376 1.425 0.18958 0.044073 0.087314 0.0019835 0.041772 0.065776 
0.35909 1.1915 0.26735 0.14864 0.083697 0.041607 0.062159 0.096521 
0.27721 0.4949 0.1562 0.11017 0.066927 0.026646 0.072681 0.068736 
0.070051 -0.10867 0.072517 0.11839 0.070873 0.052294 0.05476 0.054267 
-0.043559 -0.41579 0.016288 0.08715 0.045224 0.03092 0.053609 0.02829 
-0.061151 -0.44604 0.029441 0.056404 0.044073 0.035524 0.01826 0.026152 
0.044896 -0.2665 0.036346 0.058871 0.020398 0.013164 0.037332 0.04358 
0.045224 -0.2032 -0.01232 0.014315 0.031249 0.030098 0.030098 0.050486 
0.030427 -0.17558 -0.081868 0.041607 0.038319 0.018754 0.046046 0.033551 
-0.0004827 -0.010183 0.062488 0.040128 0.027139 0.026974 0.026974 0.035031 
0.05624 0.23973 0.25091 0.0689 0.054925 0.061501 0.053938 0.040456 
0.1008 0.30319 0.20224 0.086163 0.065612 0.045389 0.044896 0.047691 
0.092576 0.17939 0.01826 0.036675 0.032893 0.0070803 0.051636 0.060186 
0.010697 -0.076935 -0.19712 0.031907 0.02829 -0.0138 0.020891 0.055911 
-0.15224 -0.75037 -0.54058 -0.033859 0.036017 0.0023123 -0.021692 0.023851 
-0.21998 -0.73048 -0.71075 0.0095465 0.055582 0.037661 0.021056 0.012342 
-0.039613 0.13615 -0.19597 0.053281 0.048513 0.032071 0.047526 0.016452 
0.10195 0.92418 0.39674 0.050486 0.031414 0.033058 0.021056 0.018754 
0.079587 1.1904 0.64698 0.043251 -0.026624 -0.011334 -0.012814 0.01826 
-0.1062 0.75911 0.7356 -0.025145 -0.060823 -0.04882 -0.042573 -0.076277 
-0.36762 -1.0032 0.23907 -0.16736 -0.094856 -0.069865 -0.08532 -0.14484 
-0.40428 -2.456 -0.63331 -0.30399 -0.086964 -0.072989 -0.065097 -0.13152 
-0.1986 -1.8064 -0.75942 -0.23707 -0.048985 -0.032215 -0.031886 -0.039449 
0.056076 -0.28558 -0.30942 -0.031392 -0.010841 0.010697 0.05772 0.034044 
0.14601 0.63136 0.14683 0.079258 0.01415 0.037168 0.071037 0.073668 
0.22789 0.90774 0.402 0.18284 0.070708 0.071202 0.10293 0.097508 
0.27721 0.95805 0.47056 0.20421 0.10737 0.089616 0.093069 0.12677 
0.25436 0.8137 0.33377 0.16442 0.10277 0.071531 0.077121 0.11444 
0.14321 0.59618 0.13943 0.11872 0.064296 0.027796 0.03092 0.069064 
0.051636 0.38836 0.082875 0.099481 0.084355 0.011355 0.023193 0.053116 
0.00017495 0.32078 0.16623 0.12924 0.10524 0.041114 0.03799 0.03536 
0.024179 0.23496 0.20898 0.10326 0.082711 0.04654 0.031085 0.041607 
0.081395 0.19533 0.23266 0.087314 0.049992 0.051636 0.032564 0.043251 
0.08304 0.15176 0.18119 0.034209 0.0065871 0.01711 0.028454 0.040785 
-0.043066 -0.27259 -0.16309 -0.047998 -0.015444 -0.0027845 0.01711 0.0023123 
-0.10669 -0.72637 -0.42796 -0.026624 -0.0088678 -0.022514 -0.036818 -0.022843 
-0.071509 -0.40412 -0.35101 -0.042244 -0.019061 -0.017746 0.0041209 -0.0019624 
-0.0054151 0.037661 -0.14385 0.0024767 0.0013258 -0.01939 0.0090533 0.0065871 
0.07038 0.2149 0.025659 0.0026412 -0.010841 0.015959 0.040128 0.0072447 
0.14733 0.1761 0.048841 0.011355 -0.0027845 0.00083261 0.031414 0.012999 
0.24153 0.082053 0.020891 0.063145 0.01152 0.013492 0.029276 0.066927 
0.2976 0.0031344 -0.053588 0.027303 0.036017 0.050814 0.024179 0.073997 
0.26669 0.081889 -0.056055 0.038648 0.051801 0.06035 0.041443 0.072024 
0.31305 0.45938 0.075476 0.071366 0.081231 0.075476 0.059528 0.10836 
0.37175 0.55491 0.23282 0.09274 0.071366 0.058542 0.082053 0.13253 
0.27195 0.014808 0.24482 0.11839 0.062488 0.0324 0.084848 0.13993 
-0.017417 -0.56015 0.22394 0.081067 0.027139 0.030263 0.046704 0.047197 
-0.29396 -0.5442 0.1322 -0.0052507 -0.02942 -0.0039354 0.0069159 -0.03912 
-0.63413 -0.88141 -0.15355 -0.18939 -0.081868 -0.058521 -0.085649 -0.1792 
-0.71354 -0.64597 -0.32175 -0.2032 -0.0868 -0.080881 -0.11903 -0.20485 
-0.41267 -0.0078813 -0.23198 -0.12248 -0.040271 -0.042737 -0.084334 -0.12379 
-0.08384 0.16804 -0.16835 -0.0088678 0.033715 0.020891 0.025166 -0.02646 
0.024508 0.3415 -0.058192 0.10836 0.1008 0.095042 0.054925 0.043745 
0.065118 0.45133 0.12266 0.12842 0.10622 0.098823 0.1105 0.10589 
0.19583 0.48733 0.24269 0.14864 0.07449 0.068571 0.082711 0.11543 
0.35514 0.44853 0.22378 0.094548 0.013164 0.012177 0.0689 0.11296 
0.43768 0.38063 0.147 0.056569 -0.032543 -0.01528 0.041607 0.10935 
0.33278 0.23923 0.098001 0.077943 0.0014903 -0.020377 0.05476 0.10244 
0.20569 0.15505 0.028125 0.02533 0.027303 0.038977 0.034702 0.079751 
0.13138 0.06479 -0.027118 0.03388 0.033058 0.020233 0.0088889 0.068736 
0.11691 0.029934 -0.027118 0.027632 0.077285 0.0592 0.01974 0.044731 
0.078765 -0.054246 0.0070803 0.053116 0.10754 0.10359 0.020233 0.027303 
0.013986 -0.12823 0.00297 0.059528 0.10244 0.11921 0.047197 0.0042853 
-0.06296 -0.17838 -0.038133 0.070544 0.069558 0.071531 0.046868 0.0080668 
-0.049971 -0.19301 -0.12083 0.077778 0.054267 0.055089 0.044402 0.029276 
-0.0047575 0.048513 -0.018897 0.081067 0.0689 0.024015 0.027139 0.06183 
0.11543 0.71423 0.30648 0.12842 0.059528 0.037661 0.065612 0.075476 
0.22772 1.5156 0.74497 0.14946 0.052623 0.0098754 0.065118 0.10096 
0.22411 1.6349 0.8308 0.055582 0.010204 0.029112 0.057555 0.079751 
-0.0080457 0.64123 0.33854 -0.019719 -0.031392 -0.028433 -0.010676 -0.011827 
-0.38274 -0.66323 -0.37584 -0.11327 -0.075455 -0.039613 -0.019555 -0.066577 
-0.67787 -1.786 -0.86957 -0.194 -0.12018 -0.086307 -0.069536 -0.12133 
-0.55719 -2.5089 -1.0614 -0.25582 -0.10094 -0.063453 -0.073976 -0.10291 
-0.15355 -1.6476 -0.80923 -0.20074 -0.038298 -0.032543 -0.027611 -0.026131 
0.12299 -0.31287 -0.19679 -0.075784 0.024673 0.034866 0.011191 0.0026412 
0.27047 0.66507 0.36139 0.095371 0.044402 0.03947 0.051143 0.049828 
0.30615 0.90577 0.49539 0.13894 0.07449 0.071531 0.052787 0.078765 
0.22592 0.88933 0.49539 0.16558 0.079094 0.071202 0.078436 0.022864 
0.14453 0.67921 0.51545 0.16706 0.073339 0.071695 0.042265 0.023193 
0.072846 0.36156 0.34791 0.11181 0.054267 0.028947 0.022371 0.038155 
0.079751 0.24663 0.19287 0.059693 0.060844 0.057884 0.025824 0.053609 
0.11888 0.25156 0.078107 0.11888 0.082546 0.057884 0.069064 0.08419 
0.1003 0.16722 0.0059294 0.11642 0.086328 0.049006 0.05065 0.087808 
-0.047669 -0.10505 -0.10801 0.038483 0.013492 -0.017253 0.045882 0.04358 
-0.12379 -0.17936 -0.20649 -0.084169 0.0082312 0.010204 0.012506 0.021549 
0.032729 0.079422 -0.1575 -0.056383 0.020562 0.027796 0.03092 0.048513 
0.18613 0.3415 0.032729 0.035853 0.043251 0.074983 0.039305 0.088958 
0.18974 0.28527 0.19287 0.056569 0.03651 0.041772 0.02829 0.06479 
0.12233 0.16722 0.20799 0.045224 0.028947 0.04654 0.02533 0.023851 
-0.0019624 -0.19202 0.11132 -0.0073881 -0.00031829 0.0011614 0.014315 0.0024767 
-0.086964 -0.449 0.037168 -0.024323 -0.015444 0.019247 0.018589 -0.015444 
-0.04471 -0.42451 -0.032708 -0.031392 -0.0027845 0.007738 0.0028056 0.0060938 
0.056733 -0.010019 -0.067728 0.015959 0.0324 0.019247 0.034537 0.014808 
0.16097 0.38392 -0.032708 0.047197 0.037661 0.019247 0.025659 0.048513 
0.079258 0.4048 0.052294 0.044073 0.045718 0.023851 0.050157 0.024837 
-0.18183 -0.53844 0.019576 0.03651 0.025659 -0.003771 -0.0034422 -0.011663 
-0.3201 -1.0514 0.050321 0.022371 -0.0004827 -0.0004827 0.0083956 -0.03501 
-0.22211 -0.40642 0.16886 0.041114 0.013328 -0.010183 -0.01117 -0.025474 
-0.0078813 0.25798 0.18004 0.081889 0.0227 0.028783 0.033058 0.027468 
0.20323 0.59174 0.070544 0.053938 0.029769 0.016616 0.038319 0.061172 
0.33936 0.65273 -0.10604 0.066105 0.031907 0.049828 0.071202 0.1105 
0.42338 0.67641 -0.17312 0.038155 0.045718 0.04358 0.064954 0.11921 
0.41302 0.52942 -0.23428 0.012342 0.037332 0.068242 0.05065 0.10721 
0.22033 0.076627 -0.33013 -0.034516 0.023028 0.01974 0.032071 0.038319 
-0.076113 -0.66734 -0.33885 -0.075127 -0.0068948 -0.01232 -0.021363 -0.03616 
-0.33901 -1.0434 -0.031721 -0.0080457 -0.03057 -0.04471 -0.045532 -0.079237 
-0.3571 -0.6708 0.44261 0.040621 -0.03205 -0.041422 -0.058028 -0.081045 
-0.2083 0.19599 0.54027 0.066763 -0.006566 -0.037147 -0.0050863 -0.054082 
0.012342 0.96496 0.25091 0.058377 0.016452 0.0019835 0.022042 0.01974 
0.23825 1.2012 0.09422 0.053116 0.063639 0.034373 0.069722 0.083862 
0.28346 0.70584 0.043745 0.096357 0.092082 0.079587 0.05772 0.086985 
0.24269 -0.043066 -0.022514 0.078436 0.097179 0.080902 0.074654 0.084684 
0.21391 -0.6149 -0.11212 0.077943 0.085506 0.077121 0.070544 0.071366 
0.1276 -0.51625 -0.13941 0.021713 0.034866 0.0421 0.061172 0.061172 
-0.079401 -0.36006 -0.12314 -0.014293 0.02681 0.042594 0.047197 0.020727 
-0.26289 -0.15733 0.014643 0.0039565 0.010369 0.013164 0.040456 -0.020377 
-0.26486 0.24088 0.1197 0.0098754 0.042594 0.0046141 0.015959 -0.0091966 
-0.19893 0.22164 0.025001 0.015137 0.011684 -0.0016336 -0.011992 -0.013471 
-0.15766 0.12562 -0.0057439 0.030427 0.037168 0.038319 -0.0096899 -0.017911 
-0.038462 0.14453 0.016123 0.057555 0.054267 0.038483 0.017767 0.01826 
0.17906 0.066434 -0.02942 0.067256 0.069558 0.058542 0.027303 0.076956 
0.28264 0.027632 0.005765 0.079422 0.046375 0.029934 0.025166 0.089123 
0.30105 0.091918 0.082053 0.11214 0.054267 0.033551 0.035031 0.090767 
0.25156 0.52597 0.12908 0.049499 0.015301 0.013821 0.0324 0.081067 
0.20257 1.2908 0.33541 0.047197 0.012835 0.0064227 0.037661 0.029276 
0.18169 1.6251 0.51019 0.024508 -0.006566 0.0072447 -0.0060728 0.0032988 
0.098823 0.91728 0.2417 -0.019061 0.00017495 -0.032543 -0.0059084 -0.014951 
-0.098309 -0.60503 -0.2665 -0.02794 -0.013636 -0.033365 -0.017582 -0.027282 
-0.12708 -1.4376 -0.45969 -0.048327 0.012342 -0.015444 0.026152 -0.010841 
-0.13826 -1.6824 -0.41661 -0.011334 0.019247 0.021549 0.03651 0.018096 
-0.17016 -1.6015 -0.38735 -0.012978 0.034702 0.040292 0.07449 0.017603 
-0.17641 -1.0822 -0.32964 0.024179 0.049006 0.049664 0.07449 0.031249 
-0.16259 -0.3377 -0.0019624 0.079422 0.055418 0.05624 0.042594 0.028783 
-0.089431 0.30418 0.38408 0.11559 0.063968 0.023028 0.029769 0.023686 
0.067256 0.85612 0.47533 0.073832 0.038977 0.031907 0.0082312 0.026152 
0.11855 1.179 0.35531 -0.027611 0.0036276 0.0085601 -0.004593 0.00033937 
0.070708 0.91234 0.09833 -0.076771 -0.0098543 0.012177 -0.021528 0.0072447 
0.060022 0.4653 0.044402 -0.036489 0.014479 0.023686 -0.0062372 0.034209 
0.064296 0.26307 0.093726 0.030592 0.03651 0.028619 0.024508 0.049335 
0.087479 0.11888 -0.018075 0.048348 0.028947 0.023686 0.044896 0.05476 
0.057555 -0.23773 -0.26667 -0.023172 0.0056006 -0.0090322 0.01563 0.023357 
0.035195 -0.60848 -0.36614 -0.011005 -0.0078813 -0.0067304 0.038483 0.030427 
0.054432 -0.3936 -0.028433 0.031414 -0.0091966 -0.0067304 0.024015 0.027796 
0.093069 0.021056 0.33706 0.067256 0.017767 0.014315 0.045553 0.02681 
0.038319 0.090109 0.26948 0.064954 0.03092 0.0098754 0.016123 0.022535 
0.023522 -0.043888 0.11757 -0.0013048 0.052952 0.035688 0.04095 0.03536 
0.043909 0.096193 0.11872 0.01974 0.06331 0.044402 0.034702 0.049992 
0.076134 0.17528 0.1202 0.0080668 0.049992 0.039799 0.048513 0.024837 
0.02122 0.08419 0.10425 0.037497 0.062159 0.027961 0.02829 0.024673 
-0.013636 -0.079401 0.015137 0.0592 0.057227 0.041607 0.064296 0.050157 
0.05624 -0.27374 0.0083956 0.078107 0.060186 0.034209 0.08156 0.088136 
0.21145 -0.04619 0.13006 0.12743 0.059364 0.045389 0.086492 0.093233 
0.31815 0.6141 0.17396 0.12135 0.079258 0.037168 0.076956 0.12842 
0.34709 1.1445 0.24663 0.15341 0.10293 0.046046 0.076792 0.1368 
0.2953 1.3719 0.48585 0.13434 0.053116 0.028783 0.070051 0.095206 
0.047691 0.72458 0.30187 0.035031 -0.014622 0.067913 -0.015773 -0.017088 
-0.50244 -1.3437 -0.45394 -0.16013 -0.089924 -0.051944 -0.05441 -0.14352 
-0.6611 -1.7212 -0.70516 -0.30794 -0.099953 -0.052437 -0.11146 -0.19975 
-0.53992 -1.5294 -0.72522 -0.29561 -0.11097 -0.065919 -0.080717 -0.18265 
-0.29692 -1.2229 -0.72949 -0.25549 -0.067564 -0.013471 -0.070523 -0.10521 
0.029934 -0.52052 -0.32372 -0.10127 -0.020541 -0.0026201 0.0047785 -0.017088 
0.24285 0.27836 0.27935 0.078272 0.058213 0.051143 0.033551 0.067091 
0.26833 0.92418 0.69811 0.22394 0.1202 0.078272 0.081395 0.1345 
0.21901 1.1078 0.69729 0.28395 0.13647 0.11642 0.11214 0.16278 
0.17741 0.84872 0.39888 0.18251 0.12316 0.10869 0.098166 0.13417 
0.16969 0.1641 0.063639 0.09274 0.067913 0.06594 0.061995 0.09833 
0.1636 0.081395 -0.030735 0.035688 0.038648 -0.00081153 0.029605 0.072353 
0.22592 0.48766 0.012013 0.025001 0.015137 -0.024323 0.017603 0.077121 
0.16607 0.72623 0.031085 0.061666 0.015959 -0.011663 0.013657 0.064954 
0.0060938 0.53518 0.072353 0.051965 0.042758 0.028783 0.034702 0.028783 
-0.13497 -0.064604 0.035195 0.036017 0.040456 0.031249 0.025495 -0.018239 
-0.18298 -0.8237 -0.10982 -0.014458 0.020562 0.05213 0.040785 -0.036654 
-0.06296 -0.53713 -0.05178 0.011355 0.013492 0.019247 0.0018191 -0.028597 
0.055254 0.19632 0.02829 0.037168 -0.001798 0.035195 -0.0096899 -0.0022913 
0.10359 0.40611 0.11461 0.023851 0.0039565 0.025824 -0.035667 0.00066819 
0.10425 0.30697 0.20619 0.06479 0.031907 0.060022 0.0060938 0.012013 
0.091753 0.11592 0.16755 0.058213 0.040292 0.047526 0.018918 0.044073 
0.015301 -0.1376 -0.069865 0.023686 0.026481 0.041772 0.034537 0.055089 
-0.092226 -0.34378 -0.30728 -0.018075 -0.0080457 0.0065871 0.024015 0.020233 
-0.13152 -0.18545 -0.23559 -0.020212 -0.011334 0.018918 0.014479 0.00017495 
-0.096994 0.11132 -0.19761 0.007738 -0.0034422 -0.011663 0.0064227 -0.020212 
0.01267 0.3849 -0.19005 0.0060938 0.033222 0.010204 0.0067515 0.013821 
0.10721 0.35498 -0.049807 0.069558 0.076627 0.013328 0.031742 0.038155 
0.12529 0.23594 0.16064 0.093069 0.075476 0.073175 0.029441 0.019083 
0.12858 0.11543 0.30483 0.08304 0.055254 0.036346 0.029276 0.01826 
0.14749 0.24515 0.42272 0.094713 0.045553 0.044238 0.031907 0.051472 
0.093891 0.092082 0.41466 0.096686 0.038812 0.0064227 0.09274 0.053609 
0.033058 -0.23116 0.38244 0.12003 0.026317 0.017438 0.080902 0.058377 
0.084684 -0.20255 0.22411 0.060844 -0.017582 0.0083956 0.087972 0.055089 
0.085506 -0.089266 -0.17345 -0.02498 -0.02794 0.043745 0.027632 0.052623 
-0.030735 -0.0067304 -0.41513 -0.06444 -0.015444 0.0026412 0.023851 0.01974 
-0.16621 -0.017088 -0.43914 -0.074962 -0.024323 0.00050378 -0.020212 0.00017495 
-0.1524 -0.045039 -0.49652 0.00099702 0.027139 -0.0072237 0.0041209 0.026481 
0.00083261 0.24647 -0.1455 0.080738 0.1179 0.080573 0.073997 0.074819 
0.1978 0.62034 0.38079 0.18432 0.1493 0.11806 0.072024 0.09833 
0.31059 0.74185 0.5947 0.22115 0.13582 0.14683 0.040456 0.047855 
0.232 0.56247 0.49605 0.1853 0.085835 0.066105 0.031578 0.072846 
0.094055 -0.11113 0.14979 0.15094 0.040456 0.038977 0.032893 0.038319 
0.016288 -0.46429 -0.31912 0.0056006 -0.028597 -0.037147 -0.0036066 -0.0021268 
-0.023336 0.13795 -0.49948 -0.1621 -0.1256 -0.090088 -0.043888 -0.063782 
0.012835 0.54274 -0.40806 -0.24003 -0.12494 -0.096172 -0.060987 -0.079895 
0.017274 -0.21965 -0.2009 -0.19597 -0.070852 -0.044874 -0.014951 -0.038791 
-0.073976 -1.1979 0.14469 -0.072825 -0.016595 -0.003771 -0.0072237 -0.004593 
-0.091897 -0.81318 0.43209 0.00033937 -0.0024557 0.042923 0.034537 0.018589 
-0.033201 0.37044 0.45133 0.10343 0.041772 0.061501 0.045553 0.032729 
0.0065871 0.90297 0.29283 0.10326 0.06183 0.053609 0.070215 0.046704 
-0.031392 0.40085 0.090767 0.10277 0.086163 0.029605 0.067091 0.045389 
-0.17295 -0.39392 -0.034352 0.099974 0.1105 0.033058 0.059528 0.021878 
-0.14303 -0.61851 0.013986 0.072024 0.08008 0.021384 0.045882 0.0082312 
-0.069372 -0.92284 -0.10998 0.048677 0.050979 0.035031 0.043251 0.035031 
-0.0138 -1.0905 -0.32816 -0.048656 0.026974 0.023851 0.050486 0.046211 
0.047855 -0.29676 -0.22984 -0.059672 -0.0055795 0.016616 0.021549 0.036346 
0.14223 0.65273 0.072188 0.0075736 -0.0013048 0.011355 0.048677 0.053116 
0.24269 1.038 0.33969 0.070708 0.026974 0.03651 0.016616 0.091753 
0.2371 0.95065 0.33985 0.11066 0.056898 0.024179 0.038977 0.078436 
0.2006 0.55902 0.075805 0.043251 0.032236 0.032236 0.00066819 0.029605 
0.11346 0.19501 -0.087129 0.0069159 0.011684 0.024179 0.016945 0.024344 
0.053774 -0.016431 -0.12083 -0.02794 0.013986 0.00050378 0.00033937 0.014972 
-0.017253 -0.097322 -0.08269 -0.0050863 0.040128 0.020727 0.016123 0.029441 
-0.056548 -0.19844 -0.0868 -0.018239 0.019083 0.022535 -0.0091966 0.010204 
-0.075291 -0.28919 -0.11113 -0.050958 -0.014622 0.0046141 0.027796 -0.016924 
-0.070852 -0.25253 0.051143 0.011191 -0.014458 -0.011005 -0.0014692 -0.014787 
-0.029748 -0.089431 0.19007 0.028454 0.0014903 -0.025967 0.010862 0.015959 
0.027139 -0.063782 0.15982 0.017603 0.015301 -0.032215 0.017438 0.047197 
0.038319 -0.039778 0.14354 0.030098 0.024344 -0.013636 0.015794 0.053938 
0.051472 0.042265 0.16623 0.017438 0.037004 -0.00031829 0.010697 0.036017 
0.0080668 -0.0080457 0.098494 0.016123 0.036017 0.0227 0.010862 0.007738 
-0.069536 -0.35151 -0.095349 -0.015609 0.037497 0.048184 0.020069 0.0018191 
-0.11623 -0.3617 -0.1963 -0.0022913 0.040128 0.049006 0.020891 0.013986 
-0.067399 -0.25779 -0.15931 0.0031344 0.034373 0.031907 0.033715 0.0052718 
-0.018568 -0.11327 -0.045368 0.031249 0.039305 0.047855 0.038155 0.0065871 
0.01152 0.20651 0.14979 0.073175 0.030756 0.0021479 0.025824 0.022535 
0.039141 0.43357 0.26455 0.049499 0.037826 0.011848 0.00297 0.029769 
0.10096 0.44524 0.21408 0.073997 0.033551 0.026646 0.033551 0.030263 
0.22082 0.31864 0.11757 0.05213 0.033387 0.034373 0.051308 0.063474 
0.25814 0.32752 0.1179 0.059364 0.042265 0.054103 0.079422 0.07449 
0.18119 0.25239 0.20553 0.036182 0.00297 0.04358 0.029769 0.09685 
0.049006 0.20882 0.14058 0.05772 0.065118 0.059693 0.027303 0.052787 
0.032071 0.10935 0.12217 0.039963 0.047526 0.031085 0.034373 0.026152 
-0.0078813 -0.25516 -0.014951 0.044238 0.053938 0.01004 0.044731 0.026317 
0.047033 -0.32438 -0.11409 0.026646 0.040292 -0.008539 0.038155 0.0039565 
0.063803 0.23446 -0.12494 0.0087245 0.012999 -0.0040998 0.018425 0.019905 
0.037004 0.48996 -0.12593 -0.0072237 0.025166 0.022535 0.013986 -0.0060728 
0.023193 0.32802 -0.15783 0.007738 0.009711 0.0046141 0.0082312 0.01152 
0.16114 0.49144 -0.064604 0.014479 0.033387 -0.0096899 0.048184 0.051636 
0.26126 0.52416 0.21589 0.075641 0.03651 0.026974 0.043745 0.089123 
0.23216 0.23167 0.28395 0.080902 0.031907 0.038812 0.048677 0.091096 
0.16064 0.078436 0.08567 0.043909 0.027468 0.037497 0.034702 0.066927 
0.097837 0.18333 0.019411 0.024837 -0.0088678 0.034044 0.042265 0.048184 
-0.091732 -0.15141 0.0041209 -0.012485 -0.0091966 0.0085601 0.027139 0.0052718 
-0.30399 -0.60816 -0.088608 0.0079024 -0.0054151 0.0028056 0.040785 -0.03353 
-0.32208 -0.64252 -0.065755 0.020398 0.0098754 -0.0080457 0.01152 -0.022679 
-0.14698 -0.36647 0.0075736 0.018918 0.031907 0.018918 0.030427 -0.032708 
0.059693 0.082711 0.0421 0.048513 0.050486 0.015301 0.034044 0.025166 
0.21769 0.45379 0.08304 0.082382 0.061995 0.039634 0.025824 0.040292 
0.25255 0.53468 0.072846 0.13746 0.072517 0.054267 0.056404 0.072681 
0.21589 0.52087 0.13286 0.13072 0.085177 0.082053 0.065447 0.079422 
0.11609 0.73659 0.21062 0.14535 0.092082 0.070544 0.062159 0.063145 
0.034866 0.95443 0.36106 0.095042 0.068571 0.063474 0.051636 0.042758 
0.060186 1.0485 0.44722 0.079422 0.012177 0.033058 0.062488 0.045718 
0.11198 0.70962 0.35054 0.083697 0.028947 0.033058 0.076627 0.072517 
0.13532 0.093726 0.081724 0.024837 0.0052718 0.025166 0.10754 0.07038 
0.072024 -0.82124 -0.11097 0.021056 0.00050378 0.012999 0.066763 0.053281 
-0.07562 -1.8822 -0.37156 -0.031064 -0.028762 -0.021199 0.047691 0.02829 
-0.45673 -3.1493 -0.78276 -0.12215 -0.084005 -0.04323 -0.028433 -0.064604 
-0.75761 -3.3969 -1.1497 -0.21422 -0.13777 -0.097651 -0.063124 -0.16342 
-0.45788 -0.82436 -0.93386 -0.25845 -0.133 -0.067728 -0.092883 -0.16753 
0.14469 2.4442 -0.1815 -0.12659 -0.029584 -0.044546 -0.036818 -0.048985 
0.28346 2.9189 0.32719 -0.056877 0.034866 0.044073 -0.045696 0.013164 
0.20158 1.4544 0.50789 0.042758 0.083697 0.069886 -0.058521 0.051143 
0.13302 0.30993 0.52416 0.12217 0.11115 0.070215 -0.021692 0.06742 
0.12233 -0.07266 0.47911 0.14256 0.091425 0.029605 -0.0083746 0.071695 
0.13023 -0.11623 0.35005 0.13927 0.04095 0.038648 -0.017088 0.061172 
0.13154 -0.068879 0.14272 0.10408 0.047526 0.03651 0.0054362 0.080573 
0.1031 -0.10489 -0.019226 0.099316 0.053281 0.055418 0.069229 0.062652 
0.10622 -0.17673 0.012013 0.080409 0.061995 0.041607 0.097015 0.048677 
0.097015 -0.079072 0.08863 0.063968 0.021384 0.048019 0.11806 0.054596 
0.073668 -0.0026201 0.066763 0.073997 -0.0013048 0.014972 0.081395 0.040292 
0.034702 0.10819 0.016945 0.026481 0.016123 0.03799 0.059693 0.028783 
-0.031392 0.068736 -0.02087 0.036839 0.055418 0.013821 0.043251 0.016781 
-0.22589 -0.073482 -0.059343 0.0014903 0.021878 0.046046 0.044073 -0.008539 
-0.3474 -0.29478 -0.096336 -0.0073881 0.017767 0.00033937 0.028454 -0.015116 
-0.27785 -0.48254 -0.10784 -0.033859 1.0539e-005 0.012177 -0.0054151 -0.033694 
-0.096336 -0.5756 -0.088608 -0.039778 0.023851 -0.01117 -0.016266 0.0042853 
0.11181 -0.43585 -0.047834 0.012835 0.017603 0.026317 0.0092177 0.020233 
0.24795 0.076956 0.020069 0.00050378 0.024673 0.023686 0.01152 0.049006 
0.30533 0.67855 0.13253 0.043416 0.031085 0.018589 0.00083261 0.060515 
0.28823 1.0131 0.21917 0.021056 0.040128 0.010697 0.021384 0.087479 
0.2389 0.84724 0.21852 0.048677 0.044402 0.042923 0.033058 0.078436 
0.13565 0.49358 0.08567 0.093233 0.082053 0.043416 0.050979 0.045882 
-0.0032777 -0.16966 -0.073811 0.055582 0.060022 0.04358 0.042429 0.033715 
-0.090253 -0.98943 -0.12445 0.054596 0.039799 0.028125 0.030263 0.011026 
-0.15881 -1.0664 -0.13464 0.0054362 0.0052718 0.025001 0.0026412 -0.0060728 
-0.21422 -0.53269 -0.18578 -0.034681 -0.021199 0.004943 -0.00064712 0.0016547 
-0.22211 -0.12922 -0.18874 0.00297 0.0079024 0.030592 -0.0138 -0.019061 
-0.12297 0.24285 -0.10324 -0.0064016 0.039634 0.041772 0.038319 0.029605 
0.049335 0.18843 -0.10965 -0.001798 0.029276 0.042429 0.0082312 0.022206 
0.098823 0.13269 -0.011334 -0.048163 0.041278 -0.0014692 -0.0032777 0.0018191 
0.21753 0.67164 0.19649 0.025988 0.043416 0.023357 0.034373 0.027632 
0.27639 0.86713 0.3757 0.050157 0.04654 0.02533 0.056733 0.084355 
0.22312 0.67657 0.48832 0.04358 0.027796 0.02829 0.049828 0.050486 
0.11033 0.30944 0.36583 0.058377 -0.0019624 -0.010512 0.012177 0.031249 
0.147 0.086821 0.21079 0.040621 0.024837 0.015794 0.023193 0.048677 
0.27557 0.28543 0.26965 0.12381 0.05065 0.027303 0.05476 0.081067 
0.35662 0.58105 0.32835 0.14782 0.084519 0.07038 0.079916 0.11625 
0.3387 0.59223 0.1641 0.14585 0.095206 0.065118 0.094877 0.09685 
0.1807 0.21276 -0.086307 0.13746 0.086328 0.085506 0.1026 0.095864 
-0.089102 -0.79246 -0.30268 0.040456 0.040456 0.034537 0.066598 0.033222 
-0.25302 -1.0718 -0.26552 0.0098754 0.011191 0.023686 0.05772 -0.0073881 
-0.32471 -0.35923 0.00050378 -0.038462 -0.029584 -0.030242 -0.0026201 -0.047834 
-0.41037 -0.032215 -0.061151 -0.10554 -0.077264 -0.051287 -0.013143 -0.081539 
-0.4661 -0.16227 -0.32652 -0.12281 -0.074798 -0.06707 -0.033859 -0.092883 
-0.27916 -0.025802 -0.21734 -0.057534 -0.016924 -0.023007 0.018425 -0.027282 
-0.043395 0.12842 0.13878 0.072024 0.04654 0.0088889 0.043745 0.027961 
0.12431 0.256 0.39345 0.092247 0.078436 0.033058 0.060186 0.063474 
0.2149 0.3752 0.25025 0.064132 0.069722 0.011026 0.042758 0.0592 
0.21194 -0.08532 -0.20025 -0.01676 0.05476 0.071859 0.019411 0.037332 
0.1465 -0.29577 -0.32323 -0.014293 0.069558 0.065776 0.046704 0.027632 
0.17248 0.075805 0.040456 0.10392 0.10425 0.0592 0.029441 0.052952 
0.21901 0.42913 0.29283 0.06183 0.070708 0.073504 0.076627 0.10507 
0.26833 0.46875 0.35268 0.08863 0.029605 0.030427 0.056404 0.12332 
0.20947 0.35366 0.35038 0.046375 -0.019061 0.015301 0.04095 0.060844 
0.025988 -0.38833 0.13006 0.0011614 -0.056219 0.0019835 -0.008539 0.036017 
-0.10637 -0.88355 -0.056219 -0.00015387 -0.046847 -0.038462 -0.0077169 -0.021363 
-0.074798 -0.056877 0.025824 0.01711 0.011191 -0.011005 -0.029584 -0.0068948 
0.018096 1.0227 0.15045 0.059857 0.049992 0.015794 0.014315 -0.025802 
-0.053588 0.84822 -0.04323 0.011026 0.034866 0.030098 0.0080668 -0.023665 
-0.22293 -0.29363 -0.42303 -0.057041 0.02533 -0.0031133 0.017603 -0.035832 
-0.17641 -0.61703 -0.47087 -0.024487 0.036182 -0.006566 0.031249 0.029605 
-0.041422 -0.25121 -0.18167 0.0074092 0.032893 -0.0036066 0.042923 0.044731 
0.025988 0.12365 0.094877 0.069722 0.05213 0.022206 0.048841 0.041443 
0.01974 0.044896 0.19106 0.054596 0.052787 0.060844 0.041607 0.040292 
-0.0091966 -0.18249 0.17412 0.092082 0.064954 0.071859 0.049828 0.031578 
-0.016431 -0.15289 0.17445 0.070544 0.054925 0.065283 0.033387 0.035031 
0.054925 0.1909 0.1932 0.051965 0.026152 0.025988 0.017438 0.014479 
0.099152 0.25814 0.19747 0.072188 0.023193 0.0023123 -0.01117 0.0324 
0.096028 -0.028433 0.02681 0.02533 0.015301 -0.0055795 0.014808 0.039305 
0.10819 -0.10653 -0.13415 0.012835 0.01826 0.0032988 0.010697 0.044402 
0.14108 -0.0042642 -0.18676 -0.012649 -0.0031133 -0.014787 0.030263 0.052459 
0.17692 0.31536 -0.11015 0.011684 -0.023336 -0.0013048 0.013821 0.035195 
0.23282 0.6039 0.0075736 0.08567 0.014808 0.0064227 0.044731 0.048184 
0.3147 0.66539 0.19764 0.11263 0.077778 0.058377 0.032729 0.079916 
0.37652 0.816 0.36896 0.16081 0.099974 0.086328 0.062159 0.13615 
0.17988 0.4191 0.18267 0.061501 0.069722 0.060679 0.030756 0.061501 
-0.16588 -0.54782 -0.21767 -0.052766 0.015465 0.031578 0.012835 -0.015609 
-0.2961 -1.0471 -0.40543 -0.1113 -0.024816 0.0056006 -0.023007 -0.029584 
-0.36926 -1.3429 -0.3275 -0.10094 -0.03057 -0.038298 -0.025309 -0.05441 
-0.4273 -1.3012 -0.24431 -0.094856 -0.047012 -0.030899 -0.042244 -0.072332 
-0.37715 -0.5077 -0.05326 -0.11607 -0.060987 -0.05885 -0.064111 -0.11048 
-0.1279 0.39987 0.22279 -0.019884 -0.029091 -0.014951 -0.025967 -0.055726 
0.14716 0.76141 0.34495 0.081067 0.071202 0.031578 0.027796 0.055911 
0.26883 0.7989 0.32045 0.16229 0.11559 0.085999 0.086985 0.1197 
0.22246 0.67115 0.28905 0.23118 0.15012 0.097344 0.09981 0.13368 
0.23512 0.47484 0.25304 0.18383 0.090931 0.074654 0.099152 0.12069 
0.24466 0.39148 0.19879 0.14486 0.072024 0.039305 0.0689 0.098001 
0.24219 0.45297 0.093069 0.071202 0.04917 0.037826 0.065447 0.067913 
0.25222 0.39197 -0.061151 0.0324 0.0032988 0.0067515 -0.016266 0.058706 
0.19895 0.055911 -0.31238 -0.032543 0.0046141 0.014315 0.013986 0.027632 
0.16525 -0.1741 -0.39688 -0.09091 0.015959 -0.0087034 -0.0057439 -0.015444 
0.1077 -0.18907 -0.059178 -0.0016336 -0.0024557 0.0046141 -0.00031829 -0.025309 
0.056733 0.14469 0.41812 -0.019555 -0.026624 -0.00064712 -0.008539 0.0098754 
0.0014903 0.51939 0.63629 -0.030406 -0.023665 -0.019226 -0.013307 0.0083956 
-0.019719 0.70896 0.36912 -0.063782 -0.030406 -0.021363 -0.017417 0.012013 
-0.060329 0.36517 -0.095678 -0.068714 -0.018239 -0.020048 -0.027611 0.0014903 
-0.14928 -0.62164 -0.28097 0.004943 0.024179 0.020891 0.017932 0.039634 
-0.22852 -1.8071 -0.54814 -0.016102 0.041936 0.054596 0.020233 0.026974 
-0.21471 -2.2534 -0.7267 -0.0098543 0.05624 0.058706 0.028125 -0.0073881 
-0.094363 -1.1009 -0.352 0.016123 0.050321 0.057555 0.018096 1.0539e-005 
0.032729 0.16525 0.25304 0.080244 0.05624 0.028947 0.045718 0.037004 
