0.0075736 -0.068714 -0.0091966 0.013986 0.04917 -0.21471 0.0042853 0.10063 
-0.012978 -0.16325 -0.032872 0.026317 0.12908 0.18399 -0.19975 0.11461 
-0.055397 -0.18282 -0.031392 0.03947 0.24959 0.40151 -0.20107 0.087479 
-0.1256 -0.21718 -0.049149 0.025988 0.23249 0.15472 -0.091404 0.097508 
-0.10193 -0.16013 -0.028269 0.028454 0.075312 -0.24825 0.027961 0.11954 
-0.054904 -0.11442 -0.0138 -0.014787 -0.13086 -0.54173 0.26094 0.15193 
0.03651 -0.064768 0.050157 0.00297 -0.19778 -0.53253 0.27902 0.18547 
0.078107 0.080409 0.089123 0.017274 -0.17295 -0.45262 0.012013 0.14338 
0.088958 0.23693 0.085341 0.017932 -0.18216 -0.31961 -0.34 -0.031721 
0.0046141 0.26242 0.042429 -0.00081153 -0.15059 -0.14599 -0.18693 -0.094363 
-0.017746 0.1174 0.0011614 0.0028056 -0.081045 0.14864 0.19468 -0.064111 
0.014643 0.0041209 -0.0060728 0.053774 -0.023007 0.26126 0.14815 0.0037921 
0.029441 0.041607 0.031085 0.037004 0.069886 0.37997 0.043745 -0.06707 
0.018754 0.16525 0.08008 0.055418 0.11231 0.36304 0.13286 -0.14106 
0.017438 0.12184 0.087479 0.012177 0.033222 0.061337 0.049335 -0.15355 
0.017932 0.093891 0.057555 0.028619 -0.042408 -0.3104 -0.23527 -0.19926 
0.061501 0.091753 0.037497 0.047362 -0.1455 -0.53631 -0.40889 -0.17065 
0.14354 0.17528 0.064625 0.018754 -0.19219 -0.55242 -0.31649 -0.047341 
0.21095 0.26143 0.11231 0.043416 -0.17032 -0.39442 -0.020048 0.10458 
0.24071 0.2297 0.1174 0.034044 -0.042573 -0.15816 0.22542 0.1516 
0.17906 0.1174 0.064625 0.033551 0.089123 0.10408 0.39312 0.16146 
0.090274 -0.0067304 -0.0047575 0.034373 0.16212 0.305 0.31026 0.16278 
-0.0406 -0.10028 -0.090417 0.0018191 0.1641 0.37159 0.19912 0.16706 
-0.091075 -0.17377 -0.12873 0.0065871 0.1179 0.22904 0.056733 0.090274 
-0.13974 -0.17032 -0.13201 -0.027611 0.060679 0.12908 0.071366 -0.034681 
-0.11968 -0.12856 -0.049807 -0.0026201 0.14585 0.1664 0.13269 -0.025638 
-0.097158 -0.024158 0.03651 0.020727 0.1756 0.097015 -0.046847 0.043087 
-0.10916 0.0085601 0.06594 0.019083 0.026152 -0.16013 -0.4176 0.095699 
-0.1039 0.03388 0.06594 0.041114 -0.079237 -0.24086 -0.40182 0.035195 
0.049006 0.10852 0.10014 0.049499 -0.082525 -0.11228 0.053116 -0.0050863 
0.20651 0.17741 0.13203 0.082875 -0.11228 -0.059178 0.23611 0.030427 
0.20109 0.22953 0.14979 0.06594 -0.13547 -0.061316 0.31782 0.057391 
0.22098 0.23644 0.099152 0.051965 -0.13645 -0.091732 0.27212 0.034537 
0.20306 0.21687 0.066927 0.013821 -0.070359 -0.11015 0.063639 -0.012156 
0.15999 0.15604 0.020891 0.0032988 0.024837 -0.050793 -0.22392 -0.0073881 
0.12003 0.19007 0.033222 0.053774 0.078107 0.013986 -0.32504 0.10754 
0.066763 0.14733 0.052787 0.048184 0.11296 0.062817 -0.21767 0.14963 
0.039305 0.14469 0.072188 0.084519 0.13499 0.099316 0.094877 0.11083 
0.00033937 0.083368 0.051636 0.056898 0.094055 -0.0044286 0.1299 0.01415 
0.025824 0.072846 0.056076 0.048841 0.10606 -0.13547 0.13023 -0.034188 
0.086328 0.012177 0.0039565 0.046375 0.13565 -0.24332 0.11674 0.026646 
0.093726 0.015794 0.01826 -0.0059084 0.0047785 -0.24858 0.040292 0.0042853 
0.057555 0.058049 0.038483 0.007738 -0.133 -0.076277 0.13105 -0.026789 
-0.014458 0.031085 0.043909 0.0072447 -0.23379 0.074819 0.26521 -0.02794 
-0.066906 -0.05178 0.0024767 0.004943 -0.30761 -0.026953 0.33081 0.047362 
-0.063946 -0.066084 -0.011498 -0.0062372 -0.28656 -0.24003 0.097508 0.17659 
0.007738 0.0087245 0.019411 -0.024158 -0.28936 -0.4638 -0.0503 0.17297 
0.037332 0.040292 0.047197 0.015959 -0.30169 -0.52546 -0.14451 0.071859 
0.076792 0.032729 0.035031 0.0024767 -0.11064 -0.070359 -0.26322 -0.040435 
0.081889 -0.068714 0.022535 0.082053 0.39 0.89705 -0.051944 0.010697 
0.030098 -0.088937 0.0013258 0.12118 0.89409 1.6326 0.49934 0.10162 
0.012177 -0.064275 0.0019835 0.11559 1.0444 1.6858 0.64386 0.069722 
0.038319 0.052952 0.027796 0.12776 0.84592 1.1226 0.4704 -0.09946 
0.048677 0.087808 0.049828 0.053938 0.44212 0.36896 0.14206 -0.15766 
-0.0054151 0.047362 0.024673 0.044731 0.055747 -0.27292 -0.42549 -0.16539 
-0.058521 0.022535 0.0026412 -0.02942 -0.1718 -0.61703 -0.63742 -0.051615 
-0.020048 0.052623 -0.0044286 -0.071181 -0.26256 -0.68921 -0.53105 0.082875 
0.079587 0.14206 0.018754 -0.065919 -0.30958 -0.49109 -0.22803 0.13532 
0.1248 0.17971 0.058049 -0.038956 -0.28278 -0.28886 -0.012978 0.17791 
0.10869 0.1345 0.03947 0.029112 -0.19087 -0.063124 0.14749 0.1932 
0.065447 0.023028 0.035853 0.043745 -0.063618 0.13286 0.23118 0.18761 
0.1151 0.011191 0.034537 0.075805 0.027796 0.17117 0.25946 0.17166 
0.14996 -0.029913 0.00297 0.096193 0.031742 0.051801 0.16377 0.1909 
0.13335 -0.073318 -0.038627 0.073339 0.03536 0.067091 -0.089266 0.14338 
-0.025309 -0.12264 0.030263 0.070051 0.024673 0.063474 -0.24579 -0.032872 
-0.1473 -0.12873 0.08715 0.01711 0.0062583 0.17429 0.0013258 -0.18117 
-0.1672 -0.10028 0.14075 0.02829 -0.023336 0.18399 0.31799 -0.21915 
-0.10538 -0.047998 0.10014 0.0018191 -0.012978 0.18711 0.23808 -0.18035 
-0.054904 0.0056006 0.041278 0.011848 0.039799 0.21062 0.10277 -0.218 
-0.014951 -0.091732 -0.063453 -0.028104 0.12546 0.22641 0.083204 -0.095843 
-0.011663 -0.14928 -0.11755 -0.039284 0.17149 0.055911 -0.10587 0.17544 
-0.028433 -0.085485 -0.10193 0.036346 0.17133 -0.10143 -0.44851 0.22575 
-0.026296 0.085506 -0.050136 0.05624 0.17166 -0.095349 -0.43667 0.0056006 
-0.0044286 0.15308 -0.012485 0.077121 0.22394 0.088136 -0.28229 -0.12116 
-0.006566 0.13203 -0.017088 0.048841 0.26143 0.24203 -0.11311 -0.0091966 
-0.036818 0.044073 0.015137 0.024344 0.22526 0.28116 0.25452 0.10014 
-0.0096899 0.049499 0.067091 0.027139 0.045718 0.18383 0.89245 0.010697 
-0.0014692 -0.013965 0.08008 0.0067515 -0.21537 0.054432 0.97268 -0.19515 
0.055747 0.048841 0.08419 0.029276 -0.3298 -0.10423 0.27968 -0.19482 
0.12036 0.16574 0.10573 0.04358 -0.1187 -0.0050863 -0.45837 0.0036276 
0.1909 0.25419 0.10392 0.099152 0.17758 0.32325 -0.48649 0.19435 
0.19813 0.23331 0.084848 0.088465 0.13302 0.37438 -0.33309 0.31289 
0.19073 0.083697 0.050814 0.031085 -0.020212 0.19418 -0.22343 0.26702 
0.090438 -0.063946 -0.03912 -0.0068948 -0.096007 0.036346 0.058213 0.17692 
0.034373 -0.2037 -0.090088 -0.060329 -0.064275 -0.22951 0.1909 0.067091 
-0.084169 -0.31369 -0.15766 -0.077264 -0.020212 -0.42681 -0.0095255 0.044896 
-0.056219 -0.29199 -0.12248 -0.056712 -0.093048 -0.42566 -0.15306 0.030098 
0.0031344 0.020727 0.010533 0.0090533 -0.10998 -0.26897 0.31914 -0.044052 
0.014479 0.27935 0.12316 0.085835 -0.054575 -0.15059 0.59979 -0.018897 
0.036346 0.39493 0.16821 0.058213 -0.030077 -0.22063 0.34528 0.029441 
0.069722 0.33607 0.15374 0.057227 -0.091239 -0.33457 -0.29396 0.0036276 
0.027139 0.16426 0.072846 0.030098 -0.16966 -0.25582 -0.77372 -0.092226 
-0.10949 0.01826 0.05065 0.030263 -0.080388 0.1026 -0.79181 -0.18364 
-0.1963 -0.044546 0.055911 0.060844 0.32374 0.56773 -0.16753 -0.22277 
-0.22704 -0.093541 0.043087 0.083862 0.48651 0.70091 0.35005 -0.21274 
-0.24875 -0.18907 0.0052718 0.069229 0.27787 0.25041 0.42321 -0.069536 
-0.14993 0.011848 0.032893 0.00017495 -0.042737 -0.31698 0.26324 0.18629 
0.066269 0.2126 0.085012 0.012506 -0.24299 -0.50441 0.084026 0.36238 
0.25074 0.3484 0.16179 -0.013965 -0.25697 -0.23724 0.045882 0.42239 
0.39625 0.22641 0.1248 0.012506 -0.14402 -0.096336 0.27639 0.49375 
0.41713 0.16541 0.041772 0.021384 -0.089431 -0.049971 0.77818 0.50032 
0.34692 0.10162 -0.017911 0.0087245 -0.047505 -0.1473 0.79989 0.39641 
0.22542 0.038648 -0.0050863 0.062159 -0.080223 -0.41201 0.17807 0.015137 
0.07038 -0.0057439 0.036839 0.051472 -0.23083 -0.51312 -0.58859 -0.47399 
-0.19646 -0.054904 0.022535 0.036182 -0.22622 -0.28196 -0.96625 -0.71519 
-0.34394 -0.063618 -0.01676 -0.0077169 -0.056877 0.045553 -0.92251 -0.79444 
-0.28426 -0.028762 -0.025145 -0.0077169 0.097508 0.020233 -0.44851 -0.52628 
-0.17871 0.028619 -0.041586 0.020562 0.18169 0.022042 -0.011663 -0.11935 
-0.16901 -0.095843 -0.034188 0.02533 0.25337 0.31667 0.5947 0.27425 
-0.17345 -0.33917 -0.057205 0.031578 0.33459 0.64731 1.0786 0.60209 
-0.16934 -0.52299 -0.018404 0.035031 0.35186 0.70485 0.83145 0.64928 
-0.086636 -0.42829 -0.016266 0.045389 0.29776 0.33361 0.07301 0.26784 
0.0088889 -0.21274 -0.074962 0.030592 0.15144 -0.22376 -0.49898 -0.0406 
0.15752 0.20619 -0.014622 -0.013471 -0.087786 -0.71157 -0.48041 -0.012814 
0.27294 0.57201 0.12973 0.042429 -0.16407 -0.39557 -0.14681 0.17939 
0.23759 0.69861 0.25995 0.046211 0.048019 0.68743 0.20109 0.16837 
0.24433 0.49555 0.21013 0.092082 0.24466 1.2127 0.27162 0.040456 
0.20208 0.15028 0.081395 0.076792 0.040128 0.6575 0.040456 -0.12462 
0.14552 -0.081868 -0.0059084 0.040128 -0.21619 -0.12133 -0.25763 -0.24447 
0.11954 0.018589 0.025659 0.034702 -0.26486 -0.56755 -0.11327 -0.28985 
0.10392 0.22476 0.096028 -0.010676 -0.19729 -0.60339 0.090767 -0.20353 
0.060022 0.18037 0.10014 0.011191 -0.089924 -0.50967 0.15538 -0.05737 
0.064296 0.0013258 0.047526 -0.0082102 0.0023123 -0.38981 0.28198 0.094548 
0.097179 -0.16687 -0.020377 0.0039565 0.079916 -0.27242 0.28198 0.14897 
0.1738 -0.11163 -0.039284 0.034866 0.20471 -0.1381 0.19796 0.1909 
0.19336 -0.023172 0.013328 0.055089 0.42469 0.012999 0.19566 0.30385 
0.090603 0.022371 0.022206 0.070708 0.50739 0.047855 0.13171 0.28083 
-0.10439 0.03536 0.00017495 -0.014622 0.16229 -0.3931 -0.5779 0.11839 
-0.23296 0.12513 0.0090533 -0.050958 -0.25763 -0.54354 -1.2418 -0.1233 
-0.24151 0.17166 0.027632 -0.087622 -0.31484 -0.22557 -0.87368 -0.38192 
-0.11541 0.20947 0.046704 -0.058028 -0.1404 0.36764 0.12102 -0.4495 
0.019083 0.42173 0.13236 0.037168 0.012999 0.75434 0.8816 -0.20074 
0.074819 0.4556 0.10704 0.059528 0.095206 1.0311 1.292 -0.0034422 
0.14108 0.22526 0.016123 0.0786 0.12546 1.0955 1.2384 0.088794 
-0.0060728 -0.10406 -0.121 0.040621 -0.059014 0.64139 0.79923 0.087479 
-0.2009 -0.41711 -0.17854 -0.00081153 -0.073318 0.19007 0.15801 0.066269 
-0.22014 -0.70911 -0.19811 -0.0082102 0.069558 0.0075736 -0.45509 0.19731 
-0.0016336 -0.52562 -0.065755 -0.004593 0.074161 -0.15552 -0.8944 0.35005 
0.20553 -0.14106 0.041114 0.059035 0.079751 -0.072003 -1.096 0.329 
0.32752 0.17643 0.09274 0.08419 0.093069 -0.039778 -0.66965 0.29185 
0.2948 0.29431 0.072188 0.080738 -0.053095 -0.21159 -0.16375 0.17495 
0.23364 0.31421 0.10852 0.067913 0.023522 -0.32849 0.18218 -0.0075525 
0.14617 0.35366 0.13647 0.053116 0.1733 -0.42385 0.20701 -0.13843 
0.13927 0.39378 0.11428 0.023193 0.055911 -0.52381 0.1396 -0.11804 
0.1322 0.45988 0.11395 -0.025309 -0.097487 -0.43667 0.023193 -0.017253 
0.24384 0.52268 0.1151 -0.027611 -0.037147 -0.25943 0.099645 0.1179 
0.26143 0.56839 0.1465 0.0067515 -0.062796 -0.15076 0.13023 0.075312 
0.15949 0.39641 0.12776 0.03947 0.010697 0.11691 0.24022 0.099152 
0.025495 0.19533 0.074819 0.062159 0.11148 0.47188 0.3221 0.079916 
-0.041915 -0.22491 -0.0062372 0.047033 -0.1478 0.39691 0.33772 0.1151 
-0.17904 -0.66981 -0.10686 0.032893 -0.18265 0.11148 0.20717 0.1516 
-0.22721 -0.75317 -0.13826 0.0056006 -0.056877 -0.23921 -0.073318 0.1276 
-0.16457 -0.37979 -0.08269 -0.029584 -0.1986 -0.65584 -0.49027 0.019576 
-0.069865 0.10754 0.015794 -0.0029489 -0.14763 -0.49257 -0.4153 -0.12873 
-0.08269 0.26028 0.056404 0.040292 0.12595 -0.28475 -0.19153 -0.44292 
-0.18759 0.14601 0.015137 0.086163 0.41696 0.13121 -0.25664 -0.48369 
-0.14961 -0.035174 -0.0052507 0.053445 0.52022 0.50525 -0.28278 -0.18282 
-0.0011404 -0.018733 -0.016266 0.079422 0.3706 0.31996 -0.17427 0.027468 
0.12085 0.035195 -0.011498 0.022864 0.10507 0.096521 0.054925 0.13861 
0.17922 0.11017 0.01563 0.028947 -0.17558 -0.057699 0.34709 0.52087 
0.16706 -0.069536 -0.012649 0.011684 -0.22458 0.047691 0.66243 0.7407 
0.15505 -0.29413 -0.035503 0.023686 0.052952 1.0462 1.02 0.5577 
0.22312 -0.32092 0.023193 0.12727 0.40167 2.0823 0.94062 0.19632 
0.2685 -0.07414 0.11181 0.16771 0.48569 1.764 -0.099624 -0.06444 
0.28346 0.20471 0.19895 0.15982 0.1636 0.45215 -1.0266 -0.25647 
0.17084 0.26965 0.13302 0.097344 -0.012156 -0.53696 -0.96608 -0.28179 
0.04506 0.16607 0.041607 0.0034632 0.11247 -0.89917 -0.064275 -0.14303 
-0.062302 0.031742 -0.008539 -0.006566 0.15407 -0.98581 1.3865 -0.018239 
-0.0021268 -0.013143 0.037168 0.01004 0.12447 -0.87237 1.0031 0.0072447 
0.11313 -0.048163 0.042429 0.062817 -0.031228 -0.56179 -0.39672 -0.0075525 
-0.027611 -0.013307 0.0075736 0.018918 -0.15881 -0.08269 -1.0726 0.13976 
-0.31764 -0.089759 -0.018075 0.017603 -0.07825 0.29382 -0.89407 0.24564 
-0.46413 -0.093376 -0.014129 0.0080668 0.15374 0.30237 -0.55686 0.14091 
-0.34394 -0.025638 0.0093821 0.016288 0.26373 0.25387 -0.017253 -0.10094 
-0.18249 0.097837 0.053938 0.042758 0.17873 0.15094 0.39362 -0.16523 
-0.091075 0.12858 0.091589 0.058213 0.07597 -0.067892 0.4847 -0.083018 
-0.0049219 0.10408 0.1105 0.091096 -0.060329 -0.36449 0.37504 -0.011334 
0.12266 0.053774 0.061172 0.066763 -0.17509 -0.37502 0.24729 0.019411 
0.18432 0.020233 0.0082312 0.059364 -0.10012 -0.096336 0.23183 0.009711 
0.17528 -0.025309 -0.041422 0.046375 0.030098 0.34281 0.12102 -0.05589 
0.1978 -0.03353 -0.034516 -0.010348 0.066269 0.43472 0.015794 -0.040271 
0.2172 0.0085601 -0.020048 -0.0080457 0.08304 0.70321 -0.022514 0.0047785 
0.18037 0.0227 -0.010348 -0.02794 0.21786 0.81139 -0.0014692 0.0056006 
-0.0036066 -0.0013048 0.011848 -0.029255 0.26373 0.61739 0.40463 -0.056548 
-0.11607 0.018589 0.028125 -0.015444 0.13467 -0.036983 0.58072 -0.16588 
-0.063618 0.1391 0.057884 -0.013965 0.037497 -0.093212 0.171 -0.066084 
0.0046141 0.10178 0.055089 0.061008 -0.07973 0.31421 -0.047012 0.13943 
0.14486 0.23298 0.085012 0.038483 -0.066741 0.45264 -0.056055 0.29053 
0.18399 0.25518 0.10014 0.099481 0.007738 0.20224 -0.074469 0.26554 
0.12612 0.14979 0.091425 0.096521 0.08863 -0.13991 -0.12083 0.12233 
0.058542 0.12447 0.085835 0.092082 0.14552 -0.36745 -0.12955 -0.024158 
-0.060329 0.082875 0.071695 0.082217 0.018918 -0.5442 -0.15109 -0.20107 
-0.097487 0.094877 0.057555 0.012177 -0.18561 -0.62197 -0.1746 -0.26338 
-0.1381 0.060186 0.051143 0.019247 -0.22096 -0.39228 -0.10554 -0.13727 
-0.1718 -0.061151 0.0095465 -0.038298 -0.1353 -0.091075 0.042265 0.11576 
-0.14928 -0.21291 -0.04471 -0.041586 -0.16621 -0.018075 0.17758 0.21194 
-0.067399 -0.083183 -0.035338 -0.021199 -0.21389 -0.096994 0.20947 0.14848 
0.0070803 0.16755 0.044731 0.0083956 -0.10341 -0.081703 0.16821 0.052459 
0.15637 0.34413 0.090274 0.054267 -0.053588 -0.17065 0.021384 0.020562 
0.15275 0.27392 0.043416 0.005765 -0.17673 -0.36022 -0.033365 -0.011827 
0.045882 0.14091 -0.057699 -0.048985 -0.38126 -0.47005 -0.060494 -0.032708 
-0.067892 -0.022679 -0.1284 -0.1108 -0.58448 -0.52858 -0.068714 -0.052273 
-0.082525 -0.15388 -0.10406 -0.089924 -0.64071 -0.57396 -0.094527 -0.034516 
-0.074633 -0.1478 -0.053917 -0.05737 -0.49487 -0.46216 -0.080059 -0.017582 
0.018918 -0.02794 0.015794 -0.018568 -0.32553 -0.42401 -0.028597 -0.014458 
0.088301 0.12003 0.089287 0.045224 -0.44276 -0.49849 -0.0068948 0.0036276 
0.13746 0.19303 0.1202 0.022042 -0.35973 -0.016924 0.057391 0.011191 
0.10392 0.27195 0.16212 0.064954 0.41976 0.98173 0.071366 0.024837 
-0.015116 0.24877 0.20569 0.14864 1.2473 1.5736 0.14338 0.023686 
-0.050958 0.15752 0.19336 0.16985 1.2336 1.3229 0.12283 0.00099702 
0.0079024 0.012342 0.10852 0.11691 0.56839 0.3609 0.041443 -0.040435 
0.039963 -0.028433 -0.014129 0.0021479 -0.051287 -0.65222 -0.12067 -0.062631 
0.04654 -0.078579 -0.11656 -0.037805 -0.010676 -0.80019 -0.20173 -0.055232 
0.097508 -0.1284 -0.1501 -0.08121 0.098166 -0.43207 -0.25943 -0.019719 
0.18958 -0.055397 -0.070852 -0.042737 -0.18726 -0.23773 -0.075455 0.1294 
0.23989 0.045389 0.058542 0.032893 -0.37929 -0.29972 0.16048 0.31157 
0.14815 0.090274 0.11395 0.061172 -0.34394 -0.73804 0.23693 0.28757 
0.047855 0.020398 0.087479 0.073832 -0.23888 -0.93649 0.12957 0.085012 
-0.042901 0.028947 0.04917 0.007738 -0.35858 -0.54009 -0.024323 0.00297 
0.015794 0.058706 0.060679 0.015301 -0.56607 -0.057699 -0.087458 0.0013258 
0.10852 0.10145 0.044567 0.009711 -0.54239 0.40858 -0.02235 0.024179 
0.18333 0.066269 0.0054362 0.022864 -0.21685 0.54981 0.09833 0.0036276 
0.082711 0.041443 -0.037969 0.047526 0.14206 0.054925 -0.089595 -0.08828 
0.009711 0.009711 -0.024158 0.012013 0.28099 -0.51773 -0.17246 -0.060987 
-0.02235 0.0046141 0.0075736 0.020727 0.2999 -0.62739 -0.14796 0.034866 
-0.12363 -0.15322 0.0056006 -0.01232 0.46021 -0.056383 0.055911 0.083204 
-0.18611 -0.20271 -0.012485 -0.0032777 0.5822 0.73691 0.29744 0.12299 
-0.006566 -0.035174 0.033715 0.034209 0.50838 1.184 0.51101 0.26718 
0.15226 0.17084 0.081231 0.069722 0.28905 0.86088 0.42107 0.32259 
0.20569 0.24893 0.11296 0.099152 0.19057 0.29135 -0.02498 0.15653 
0.12151 0.19533 0.067091 0.033058 0.17429 0.49506 -0.21702 -0.033201 
0.057884 0.16525 0.049499 0.044073 0.19221 1.3295 -0.059178 -0.18265 
0.10113 0.14009 0.038812 0.03536 0.25666 1.6108 -0.091239 -0.25417 
0.13631 0.08304 0.052294 0.08715 0.53732 1.0692 -0.093541 -0.12149 
0.065283 -0.080881 0.026646 0.11395 0.28987 -0.28821 0.23068 -0.017746 
-0.092719 -0.15026 -0.0080457 0.051801 -0.31961 -1.8171 0.45708 0.044567 
-0.17904 -0.17542 -0.059014 0.029934 -0.54091 -2.4409 0.32621 0.089123 
-0.073976 -0.068057 -0.017417 0.01004 -0.28179 -1.3436 0.053774 0.15292 
0.055747 0.024179 0.011191 0.030098 0.061172 0.19451 -0.12314 0.19665 
0.10277 0.042758 0.01152 0.058871 0.16623 0.70502 -0.26256 0.21885 
0.068242 0.040785 0.0069159 0.040128 0.15966 0.48733 -0.15766 0.20224 
0.057391 0.08715 0.072681 0.075476 0.1567 0.18695 -0.079237 0.095371 
0.12349 0.17889 0.10524 0.067091 0.21572 0.0079024 -0.24842 -0.087786 
0.19829 0.25271 0.12365 0.096686 0.1442 0.0095465 -0.52447 -0.10604 
0.25387 0.29727 0.11411 0.043909 -0.16276 0.10113 -0.63463 -0.15865 
0.20471 0.22098 0.024344 -0.055397 -0.6925 -0.0029489 0.22674 -0.11163 
0.1664 0.18415 -0.029584 -0.084991 -0.95293 -0.66767 1.2926 0.2052 
0.21358 0.18119 0.024837 -0.063782 -0.71535 -0.69036 1.2089 0.61623 
0.085012 0.14749 0.057555 -0.0138 -0.39721 -0.035338 -0.17213 0.59026 
-0.19679 -0.027775 0.034373 -0.035338 0.029934 0.55688 -1.7324 -0.061316 
-0.3543 -0.096336 -0.022185 -0.042408 0.55688 1.2773 -1.5856 -1.0026 
-0.26585 0.018096 0.0039565 0.01563 1.1808 1.8735 0.092411 -1.3171 
-0.10258 0.03388 0.027303 0.1031 2.0217 2.164 1.9105 -0.52496 
0.032893 0.011026 0.040128 0.18169 2.188 1.4827 2.6298 0.50246 
0.12743 -0.086636 0.0021479 0.14272 1.1886 -0.067728 1.6414 1.0588 
0.20684 -0.24645 -0.053424 0.11707 -0.0070593 -1.1118 -0.13777 0.89821 
0.14124 -0.43092 -0.099789 0.054267 -0.70236 -0.4204 -1.1875 0.30303 
0.0024767 -0.4079 -0.090417 0.016781 -0.99453 0.56083 -1.1552 -0.18446 
-0.15914 -0.30925 -0.02498 0.058871 -0.79723 0.72031 -0.87829 -0.29873 
-0.31353 -0.17542 0.081067 0.093069 -0.42204 -0.044546 -0.67557 -0.10439 
-0.4153 -0.084991 0.11609 0.070708 -0.30235 -1.1453 -0.42779 0.064296 
-0.32208 0.077449 0.097508 -0.024652 -0.3012 -1.6491 0.064296 0.0041209 
-0.065097 0.15768 0.038648 -0.074633 -0.32471 -1.3209 0.47073 -0.1085 
0.2366 0.23973 -0.0075525 -0.069701 -0.21323 -0.5271 0.46793 -0.10423 
0.37603 0.34396 -0.017911 -0.082525 -0.093048 0.30862 0.1927 -0.054739 
0.2634 0.35219 -0.034845 -0.018568 0.027139 0.6432 -0.21291 -0.010019 
0.1955 0.43258 0.03947 0.016288 0.16146 0.58352 -0.38833 0.0324 
0.18843 0.39904 0.11362 0.10852 0.15735 0.19451 -0.40872 -0.041751 
0.019247 0.11346 0.05476 0.050486 0.081231 -0.031064 0.1128 -0.13777 
-0.11196 -0.19614 0.018589 0.019083 0.024344 0.022206 0.43225 -0.05441 
-0.015938 -0.091568 0.095535 0.073175 0.037661 0.04917 0.1909 0.1664 
0.11329 0.071859 0.17265 0.062652 0.089287 0.14289 0.06183 0.23907 
0.13171 0.085341 0.10524 0.036017 0.030592 -0.16588 0.21293 0.21934 
0.064132 -0.021856 -0.015444 -0.048492 -0.010512 -0.35183 0.29168 0.22838 
0.040128 -0.061645 -0.071345 -0.029913 0.24186 0.39132 0.32473 0.29037 
-0.024158 -0.0059084 -0.060823 0.019083 0.46053 0.98518 0.2514 0.22542 
-0.12018 0.086492 0.024344 0.056404 0.42617 0.80038 0.046211 -0.15585 
-0.29347 0.017603 0.052294 0.090931 0.42995 0.33262 -0.44177 -0.7244 
-0.4398 -0.1113 0.022864 0.032564 0.40546 -0.17608 -0.9018 -1.0738 
-0.34263 -0.053095 0.03947 0.034537 0.010369 -0.6537 -0.75498 -0.59977 
0.077121 0.14683 0.069064 0.027632 -0.24973 -0.70976 -0.42878 0.50246 
0.40151 0.26011 0.071695 0.01563 -0.29741 -0.61786 0.47829 1.059 
0.46464 0.20224 0.06331 0.025659 -0.31879 -0.44785 1.3142 0.77555 
0.35728 0.12546 0.020891 -0.011827 -0.27193 -0.13218 0.64369 0.31716 
0.23348 -0.00081153 -0.028269 0.0052718 -0.12001 0.25025 -0.19811 0.077285 
-0.015116 -0.19153 -0.077757 0.0059294 0.054432 0.41187 -0.55538 -0.098967 
-0.2665 -0.29182 -0.052273 0.05476 0.10556 0.20569 -0.76813 -0.28804 
-0.3377 -0.20025 0.0079024 0.048184 -0.064111 -0.20534 -0.15191 -0.33474 
-0.36417 -0.087786 0.02829 0.047362 -0.13349 -0.37979 0.74415 -0.12757 
-0.21241 -0.074962 0.042923 0.078107 -0.059507 -0.14418 0.83211 0.18317 
-0.0031133 -0.14139 0.021878 0.031742 -0.133 -0.040106 0.27557 0.23627 
0.19698 -0.19811 -0.018404 -0.00031829 -0.26059 -0.15881 -0.35364 0.068571 
0.34413 0.056733 0.016945 -0.058685 -0.28821 -0.31747 -0.60076 -0.045039 
0.41877 0.35465 0.070544 -0.025474 -0.23346 -0.44374 -0.52167 0.022371 
0.24088 0.53353 0.17758 0.051143 -0.13415 -0.37946 -0.1552 0.055911 
0.089287 0.47878 0.20125 0.048019 -0.037311 -0.18101 0.03799 -0.054739 
0.080409 0.38457 0.17626 0.069722 -0.022021 -0.25105 0.11937 -0.14878 
0.13746 0.27146 0.11231 0.00050378 -0.068221 -0.45229 0.19106 -0.077593 
0.13598 0.21342 0.064461 0.00099702 -0.16227 -0.56919 0.40102 0.12628 
0.16574 0.10622 0.016945 0.0075736 -0.31484 -0.48402 0.71307 0.4071 
0.21342 0.025824 0.022864 0.036017 -0.29511 -0.25516 0.51117 0.48996 
0.18646 -0.13711 0.0069159 0.055747 -0.15898 -0.032215 -0.098309 0.28691 
-0.070852 -0.24546 0.030098 -0.010512 -0.092554 0.31963 -0.62575 -0.11015 
-0.39606 -0.19498 -0.10143 -0.015773 0.019083 1.1307 -0.46035 -0.59582 
-0.59418 -0.069536 -0.092061 -0.0082102 0.32982 1.6376 0.019576 -0.99255 
-0.40494 0.072024 1.0539e-005 0.050814 0.60308 1.3903 0.22789 -0.95309 
-0.03353 0.16442 0.084684 0.08863 0.45083 0.36205 -0.0091966 -0.16062 
0.35991 0.23759 0.1003 0.026317 0.12677 -1.3661 0.099152 0.63005 
0.75188 0.19994 0.11148 0.040292 -0.034352 -2.3814 0.21342 0.72573 
0.91185 0.092904 0.095206 0.063968 -0.011005 -1.1415 -0.14434 0.63448 
0.7402 -0.0029489 0.11198 0.11017 -0.14928 0.5406 -0.42451 0.73363 
0.35334 0.089616 0.1373 0.098823 -0.38554 0.96742 -0.5516 0.61739 
0.032564 0.22805 0.13631 0.080244 -0.29363 0.31305 -0.57478 0.13351 
-0.074469 0.20323 0.01826 0.042429 0.18136 -0.0080457 0.12546 -0.2642 
-0.051287 0.13434 -0.10965 -0.038462 0.55063 0.071531 0.7037 -0.26634 
-0.063618 0.13713 -0.051287 -0.0021268 0.56362 0.34544 0.72245 -0.097651 
-0.2859 0.12957 0.023851 0.016781 0.38951 0.45429 0.64599 -0.1039 
-0.67392 -0.081703 0.047362 0.034373 0.22476 0.65142 0.609 -0.20173 
-0.74084 -0.13908 0.024015 0.045389 -0.1358 0.89196 0.5873 -0.17082 
-0.45558 -0.052109 0.08156 0.040621 -0.48567 0.70469 0.25847 -0.092226 
-0.16999 -0.0027845 0.12447 0.073339 -0.52052 0.16393 -0.13218 -0.080552 
0.033058 -0.078908 0.10441 0.035031 -0.42681 -0.46808 -0.2693 -0.051451 
0.24466 -0.021528 0.076134 0.023193 -0.35183 -1.0384 -0.23707 -0.017911 
0.27738 0.11099 0.023686 -0.040106 -0.11722 -0.90492 -0.33671 0.015301 
0.15555 0.04917 -0.10817 -0.088608 0.61377 0.051472 -0.53302 -0.033037 
0.09422 -0.16013 -0.2374 -0.047998 1.3143 0.96578 -0.59352 -0.14287 
-0.10686 -0.3857 -0.27357 -0.047176 1.2573 1.12 -0.34657 -0.20485 
-0.30415 -0.42007 -0.20847 -0.016266 0.52383 0.79791 0.074326 0.064296 
-0.22557 -0.26223 -0.0091966 0.028619 -0.050629 1.0016 0.53008 0.13236 
0.024179 0.11642 0.25239 0.16212 -0.061809 1.3781 0.86565 -0.052437 
0.18004 0.29513 0.30072 0.19944 0.082875 0.85036 0.51627 -0.095349 
0.17396 0.3022 0.17626 0.084519 -0.015116 -0.49504 -0.37107 0.077778 
0.22 0.25798 0.070051 0.045553 -0.25976 -1.833 -0.68 0.54143 
0.24712 0.32456 0.091589 0.0046141 -0.26996 -2.0492 0.16196 0.62906 
0.093562 0.18859 0.06479 0.021549 -0.10686 -0.61342 0.67361 0.27294 
-0.088608 -0.09239 -0.0070593 -0.0088678 0.017767 0.77933 0.27984 0.020562 
-0.15372 -0.2208 -0.07266 -0.0096899 0.070215 1.1549 -0.02087 0.016616 
-0.063618 -0.080388 -0.0029489 0.043745 0.12464 0.89903 0.17396 0.060022 
-0.071674 0.054432 0.058213 0.021878 0.1368 0.28412 0.13483 -0.0083746 
-0.11557 0.10787 0.098823 0.022864 0.073997 -0.36022 -0.099789 -0.11935 
-0.20205 0.075805 0.068242 -0.0044286 -0.012649 -0.80874 -0.27637 -0.19367 
-0.22869 1.0539e-005 0.041607 0.01826 -0.0077169 -0.64087 -0.39097 -0.22557 
-0.17213 -0.055726 -0.008539 0.049992 0.087643 0.091096 -0.34049 -0.1598 
-0.061809 -0.048656 -0.011005 0.067091 0.15686 0.68627 -0.1427 -0.072003 
0.0046141 -0.05589 -0.02235 0.065776 0.081067 0.6506 0.047033 -0.080059 
0.082382 -0.071016 -0.049807 -0.0039354 0.018096 0.25814 0.11066 -0.062631 
0.18333 0.0016547 -0.040271 0.013821 -0.065097 -0.17706 0.15703 0.051472 
0.20125 0.086821 0.021549 0.015465 -0.048985 -0.22162 0.30664 0.17001 
0.10672 0.076463 0.050814 0.022371 -0.0062372 -0.19285 0.46514 0.30845 
0.01415 0.0093821 0.051308 0.042429 0.00297 -0.19926 0.39543 0.31223 
-0.051122 -0.067399 -0.0013048 -0.0016336 0.017603 -0.19597 0.062323 0.19451 
-0.095678 -0.10784 -0.0077169 -0.0096899 -0.024323 -0.25105 -0.33063 0.00099702 
-0.019884 -0.13432 -0.009361 -0.012485 -0.18726 -0.486 0.040128 -0.12297 
0.11806 0.062652 0.038319 0.0069159 -0.32487 -0.67869 0.34413 -0.22622 
0.30171 0.25025 0.065283 0.037332 -0.37091 -0.70976 -0.39129 -0.17147 
0.40957 0.38392 0.087808 0.082053 -0.15569 -0.24793 -1.0266 -0.060165 
0.40348 0.3313 0.079094 0.11724 0.17445 0.46103 -0.78243 0.13943 
0.36008 0.22476 0.062159 0.10672 0.34495 0.54439 -0.0013048 0.39181 
0.27573 0.054925 0.035031 0.093398 0.088465 -0.081045 0.55474 0.45149 
0.13795 0.012506 -0.0034422 0.026646 -0.19794 -0.57281 0.71636 0.3609 
0.052459 -0.086307 -0.052931 -0.032379 -0.28623 -0.35101 0.66359 0.25403 
0.049992 -0.12018 -0.09387 -0.0087034 -0.25352 0.15834 0.46875 0.062159 
0.11428 -0.024652 -0.041586 -0.028597 -0.29692 0.15571 -0.14961 -0.29955 
0.15259 0.12349 0.032564 -0.069536 -0.3326 -0.0019624 -0.65501 -0.71601 
0.17939 0.26998 0.094384 -0.006566 0.12579 0.34166 -0.3326 -0.52348 
0.13598 0.28017 0.1539 0.14305 0.82899 0.49342 0.32752 0.11559 
-0.024323 0.19517 0.12612 0.18695 0.90939 -0.1917 0.44245 0.45281 
-0.20452 0.083697 0.06479 0.10113 0.61919 -0.59369 -0.034845 0.2736 
-0.25647 0.19501 0.040128 0.033058 0.18399 -0.27275 -0.60602 -0.11738 
-0.18183 0.18465 0.018754 -0.072332 -0.15372 0.27277 -0.47334 -0.29856 
0.063474 0.02681 0.03388 -0.041422 -0.31073 0.70189 0.21556 -0.08828 
0.41351 0.023851 0.11905 0.020233 -0.34082 0.86927 0.71209 0.13269 
0.57973 0.30845 0.21885 0.071037 -0.2476 0.76914 0.97203 0.18448 
0.47287 0.49621 0.20717 0.10228 -0.25253 0.092247 0.71077 0.2731 
0.24318 0.43472 0.096357 0.031414 -0.37847 -0.67211 0.018918 0.36616 
0.047362 0.16163 -0.045861 -0.010512 -0.43914 -0.98631 -0.56196 0.33262 
-0.081045 -0.10538 -0.10275 -0.06296 -0.4592 -0.91528 -0.68839 0.08715 
-0.20715 -0.20337 -0.07973 -0.047176 -0.36137 -0.8819 -0.68609 -0.26535 
-0.19646 -0.13218 -0.0014692 0.0036276 -0.058521 -0.53088 -0.62936 -0.43799 
0.00297 0.028619 0.035031 0.03092 0.23085 0.054267 -0.33687 -0.30004 
0.20191 0.11954 0.10014 0.097015 0.41877 0.57891 0.22411 0.049664 
0.26209 0.16459 0.073504 0.081231 0.64517 0.97795 0.45856 0.17971 
0.28165 0.054103 0.0019835 0.098659 0.84888 1.326 0.27491 0.056569 
0.20651 0.044731 -0.0016336 0.072188 0.8673 1.4062 0.44508 -0.097487 
-0.024816 -0.13316 -0.0138 0.027796 0.548 1.3091 0.8913 -0.25779 
-0.29495 -0.25467 -0.075949 0.016781 0.15111 0.99389 0.80597 -0.054246 
-0.45509 -0.27078 -0.0031133 -0.040764 -0.017582 0.14124 0.16969 0.018918 
-0.53614 -0.23116 0.050157 -0.00097594 -0.084169 -0.83669 -0.47219 -0.32405 
-0.51099 -0.16983 0.075312 -0.014458 -0.19186 -1.6504 -0.7775 -0.017582 
-0.28031 -0.091568 0.057555 -0.019555 -0.32306 -1.4204 -0.65057 0.55293 
-0.085485 0.088465 0.059528 -0.047998 -0.39623 -0.13136 -0.018733 0.64073 
-0.145 0.12612 0.03799 -0.025145 -0.15733 0.85118 0.31273 0.35728 
-0.080881 0.076299 0.026317 -0.00081153 0.086821 0.67509 -0.18019 -0.01676 
0.17084 0.042265 0.01826 -0.029091 0.20158 -0.29396 -0.52957 -0.22244 
0.33443 0.079422 0.062159 0.05065 0.36485 -0.36828 -0.17542 -0.23461 
0.13565 -0.0078813 0.083368 0.11313 0.46119 0.47451 0.54899 -0.20896 
-0.12083 -0.040106 0.075805 0.1664 0.43587 1.1317 0.82175 -0.023994 
-0.070852 -0.031557 0.020727 0.15851 0.28642 1.1096 0.4311 0.05476 
0.16541 -0.017417 -0.051122 0.066763 0.21046 0.71373 -0.02498 0.051636 
0.27935 0.010697 -0.059343 -0.0032777 0.068571 0.077285 -0.44045 -0.050793 
0.27343 0.014479 -0.019061 -0.047669 -0.089102 -0.4541 -0.43306 -0.03205 
0.062652 -0.056383 -0.00015387 -0.061316 -0.20978 -0.62246 0.031249 0.022864 
-0.18134 -0.14533 0.012835 -0.031557 -0.18495 -0.2836 0.64599 0.019411 
-0.28229 -0.062467 0.065776 0.048677 -0.11787 -0.034023 0.77785 0.076956 
-0.18084 0.054267 0.08567 0.089452 -0.093705 -0.133 0.30352 0.1904 
-0.079401 0.13697 0.072846 0.036346 -0.18676 -0.42664 -0.4615 0.18974 
-0.065755 0.12398 0.065776 0.0051074 -0.24003 -0.61539 -0.95655 0.13236 
-0.063946 0.12447 0.054925 -0.018568 -0.22129 -0.71289 -0.9771 0.091096 
-0.05441 0.040292 0.043909 -0.00081153 -0.14599 -0.72177 -0.40839 -0.013143 
0.040456 0.031414 0.035524 0.060515 -0.09239 -0.57001 0.072188 -0.080881 
0.23446 0.06035 0.032236 0.084026 -0.098802 -0.2767 -0.075127 -0.055068 
0.28231 0.036839 0.0014903 0.088794 -0.1016 0.62972 -0.22968 -0.033201 
0.19928 0.004943 -0.049149 0.0098754 -0.16934 1.1507 0.1368 0.11115 
0.047033 -0.087293 -0.077264 -0.037147 -0.16572 0.48141 0.54636 0.22115 
-0.16703 -0.15931 -0.1062 -0.063453 -0.08269 -0.66997 0.44311 0.1077 
-0.38505 -0.27292 -0.0965 -0.045368 0.16952 -1.1801 0.34232 -0.11031 
-0.33194 -0.28295 -0.063946 0.048019 0.58993 -0.18956 0.25058 -0.0868 
-0.076113 -0.18693 0.01267 0.091425 0.76503 1.2681 0.24844 0.021878 
0.10573 0.0592 0.066434 0.11181 0.56954 1.3189 0.38375 -0.047834 
0.12398 0.19188 0.067749 0.057884 0.030592 0.36797 0.39904 -0.23806 
0.11937 0.27951 0.070873 0.021713 -0.50014 -0.44111 0.19714 -0.17361 
0.25255 0.32719 0.087479 0.029441 -0.50605 -0.65419 -0.035996 0.044402 
0.43357 0.31897 0.10573 0.073504 0.067256 0.077285 0.24285 0.26242 
0.52696 0.24482 0.065118 0.12562 0.51331 0.9985 0.091589 0.34528 
0.4579 0.19024 0.015465 0.043087 0.35054 0.49375 -0.49931 0.27244 
0.42387 0.22263 -0.0054151 0.013492 -0.10883 -0.49356 -0.61572 0.19073 
0.20684 0.13368 0.027468 0.0031344 -0.40543 -0.81745 -0.30563 0.082875 
-0.069536 0.023851 0.036675 -0.0036066 -0.3589 -0.42714 0.093562 -0.06855 
-0.24941 -0.11261 -0.029255 -0.016431 -0.27604 -0.17608 0.47434 -0.24365 
-0.28031 -0.069208 -0.03616 -0.054082 -0.28212 -0.27292 0.44113 -0.34986 
-0.19301 0.13138 0.040128 0.037661 -0.23411 -0.52694 -0.194 -0.29166 
-0.081539 0.26817 0.095042 0.041772 -0.070194 -0.23346 -0.33441 0.055089 
-0.12231 0.086821 0.038319 0.0013258 -0.0024557 0.18892 0.086163 0.33805 
-0.25384 -0.18528 -0.063124 -0.06296 0.013657 0.19369 0.1932 0.2999 
-0.23231 -0.29988 -0.10752 -0.064933 0.071366 -0.092061 -0.080717 0.17626 
-0.044052 -0.074962 0.0031344 0.029112 0.10195 -0.22409 -0.27242 0.15801 
0.048348 0.12579 0.072517 0.048184 0.11707 -0.1187 -0.26174 0.13401 
0.10277 0.22937 0.13927 0.11905 0.20651 0.38934 0.0052718 -0.0054151 
0.17429 0.28478 0.1738 0.14519 0.29086 0.61656 0.24877 -0.19646 
0.21967 0.27573 0.19435 0.14009 0.18103 0.31963 0.45034 -0.36745 
0.16114 0.19681 0.074326 0.055747 -0.21537 -0.11015 0.43604 -0.36548 
0.17314 0.046868 -0.046519 -0.076935 -0.40132 -0.2522 0.3706 -0.25779 
0.25222 0.078765 -0.061973 -0.047341 -0.27456 -0.038133 0.40102 0.070051 
0.27261 0.11477 0.00099702 -0.032215 -0.036983 0.3244 0.32456 0.42782 
0.15966 0.13713 0.017932 -0.023172 0.23858 0.61048 0.010204 0.31716 
-0.00081153 0.074161 0.024673 0.01711 0.47319 0.55902 -0.37765 -0.023172 
-0.080059 0.0421 0.063145 0.045718 0.58171 0.22542 -0.59155 -0.060329 
-0.039942 -0.022679 0.090603 0.10589 0.50509 0.015137 -0.29117 0.18448 
-0.0040998 -0.15618 0.095042 0.098001 0.28626 -0.23559 0.029605 0.44475 
-0.012649 -0.16966 0.055418 0.087643 0.082711 -0.15191 0.085999 0.62593 
-0.085156 -0.14402 -0.02087 -0.011663 0.03947 0.39575 0.14864 0.329 
-0.14434 0.0037921 0.013657 -0.010019 0.086328 0.89968 0.34298 -0.22293 
-0.054739 0.14289 0.077614 0.052623 -0.028597 0.22756 0.26587 -0.45673 
0.058377 0.22213 0.11115 0.052787 -0.14517 -0.65156 -0.025967 -0.31106 
0.07038 0.15341 0.077614 0.053609 -0.20863 -0.83044 -0.25006 -0.11015 
0.020398 0.070708 0.047362 0.0013258 -0.23625 -0.74577 -0.32816 0.0092177 
-0.014787 -0.040106 0.0090533 -0.037147 -0.22803 -0.68247 -0.28804 0.096357 
-0.050958 -0.14829 -0.066084 -0.056548 -0.16111 -0.13645 -0.18019 0.052787 
-0.20485 -0.26601 -0.077757 -0.054575 -0.047834 0.43587 -0.03501 -0.11163 
-0.24497 -0.21932 -0.044052 0.026646 0.25321 0.82159 0.028947 -0.13991 
-0.10538 -0.0016336 0.050486 0.051308 0.51808 0.75221 0.017274 -0.054904 
0.10474 0.24959 0.10935 0.078765 0.30763 0.23775 0.024673 -0.01676 
0.24038 0.34791 0.095042 0.052952 -0.032872 -0.29034 0.098659 0.085999 
0.28543 0.29004 0.07301 0.030592 -0.2083 -0.42089 0.18087 0.24252 
0.29185 0.19237 0.0592 0.051636 -0.30202 -0.3446 0.12825 0.30105 
0.24269 0.068407 0.069393 0.042923 -0.28689 -0.21208 0.10803 0.19435 
0.20339 0.03947 0.086328 0.086985 -0.1524 -0.040928 0.0093821 0.075805 
0.1248 -0.050629 0.065283 0.039305 0.029934 0.11822 -0.077593 0.016288 
0.033058 -0.049642 0.041114 0.023357 0.10343 0.059035 -0.19318 -0.019061 
-0.065262 -0.07825 0.00017495 -0.0087034 0.11839 -0.10538 -0.28706 0.064954 
-0.11541 -0.076935 -0.0075525 0.01711 0.3341 0.090931 -0.23461 0.16541 
-0.082361 -0.042244 0.0065871 0.092411 0.58204 0.37553 0.019576 0.16426 
0.023522 0.0592 0.052952 0.089123 0.53616 0.55737 0.38556 0.051143 
0.0039565 0.095042 0.027961 0.053281 0.17495 0.4043 0.7111 -0.19761 
-0.008539 0.073175 -0.026789 -0.0083746 -0.22737 -0.088608 0.70814 -0.34082 
0.034044 -0.0068948 -0.04619 -0.048163 -0.43223 -0.70335 0.12546 -0.194 
0.11247 -0.069043 -0.012649 0.017274 -0.39228 -0.93402 -0.5853 0.023193 
0.15768 -0.011498 0.0021479 0.025495 -0.23148 -0.93419 -0.81351 0.2098 
0.18235 0.013328 0.032729 0.077943 -0.1085 -0.68247 -0.64137 0.25567 
0.057062 0.083368 0.0689 0.025166 -0.047505 0.013821 -0.28344 0.037826 
-0.041915 0.093891 0.080573 0.019247 0.026317 1.1198 -0.020706 -0.17525 
-0.069043 0.12529 0.070708 0.023851 0.055582 1.6808 0.058049 -0.13234 
0.052787 0.16706 0.088301 0.043416 0.040456 0.87913 0.46859 0.052623 
0.19714 0.20898 0.095535 0.072517 -0.099789 -0.56163 0.59059 0.20684 
0.26784 0.21506 0.058542 0.060679 -0.079072 -0.97496 0.42025 0.22246 
0.19665 0.091425 -0.031392 0.030098 -0.011498 -0.35397 0.44048 -0.035338 
-0.039449 -0.097651 -0.15076 -0.039778 0.0032988 0.39329 0.23512 -0.27374 
-0.24562 -0.22014 -0.21126 -0.10489 0.051801 0.37405 -0.10225 -0.2009 
-0.33145 -0.18759 -0.12067 -0.03205 0.28576 0.35071 0.07301 -0.025967 
-0.20649 -0.099131 0.020727 0.071366 0.46448 0.53995 0.13927 0.040621 
-0.012814 0.055254 0.15111 0.18777 0.50312 0.53715 0.17199 0.11707 
0.13845 0.12875 0.1733 0.183 0.39559 0.22131 0.3318 0.2925 
0.1853 0.25008 0.15752 0.12924 0.095371 -0.22902 0.31026 0.37142 
0.14174 0.21424 0.10408 0.032564 -0.24908 -0.67672 -0.15914 0.19747 
0.043087 0.13236 0.015301 -0.061809 -0.49783 -0.84836 -0.82189 -0.0771 
-0.021856 0.033222 -0.001798 -0.076113 -0.49586 -0.74248 -1.2245 -0.44111 
-0.030735 -0.0029489 -0.014951 -0.07973 -0.35742 -0.11311 -0.69036 -0.5317 
0.027139 0.0014903 -0.0091966 -0.044874 -0.28574 0.24712 0.34544 -0.27851 
0.2098 0.091753 0.054103 0.032893 -0.3012 -0.010841 0.9694 0.21227 
0.37833 0.22838 0.10655 0.07038 -0.49224 -0.77536 0.84198 0.51709 
0.47533 0.31404 0.067585 0.070708 -0.33441 -1.0098 0.33295 0.45083 
0.41729 0.2417 0.0014903 0.020727 0.18103 0.057555 0.044896 0.15916 
0.15916 0.023522 -0.028433 0.039305 0.52482 1.608 0.097179 -0.1866 
-0.13382 -0.12955 -0.035503 0.043745 0.63103 2.0626 0.16607 -0.30744 
-0.50046 -0.21274 0.01152 0.15768 0.90659 1.3974 -0.0036066 -0.11426 
-0.59681 -0.10686 0.067091 0.13368 1.008 0.49654 0.041936 0.34232 
-0.26946 0.020562 0.10425 0.12644 0.64714 0.086821 0.36172 0.52202 
0.058377 0.11757 0.073175 0.068736 0.24137 -0.053588 0.34775 0.27951 
0.2029 0.13532 0.01004 -0.022843 -0.20978 -0.25368 0.13236 0.081889 
0.14354 0.1756 0.039141 -0.050464 -0.46347 -0.15158 -0.14714 -0.16046 
-0.053424 0.183 0.031742 -0.086964 -0.2716 0.33048 -0.40461 -0.40165 
-0.33145 0.060844 -0.014787 -0.05326 -0.049478 0.1636 -0.61654 -0.41842 
-0.41382 -0.11755 -0.023172 -0.0054151 -0.065919 -0.2277 -0.52315 -0.31797 
-0.26437 -0.16835 0.013328 0.016945 -0.083676 -0.77668 -0.28097 -0.38817 
0.1031 0.0013258 0.089123 0.085341 -0.12593 -1.262 0.42601 -0.21504 
0.39263 0.067091 0.11411 0.088794 -0.1011 -0.54568 1.1593 0.39033 
0.47155 0.076956 0.079916 0.084684 -0.08532 0.39575 0.88291 1.0477 
0.38342 -0.012814 0.019247 0.054103 0.030756 0.70469 0.1248 1.1312 
0.23151 0.004943 0.016945 0.054103 0.24285 0.59355 -0.34378 0.56921 
0.072353 0.04654 0.055254 0.092411 0.3216 0.44672 -0.49438 -0.15766 
-0.065919 0.11198 0.06183 0.043251 0.12957 -0.063782 -0.62345 -0.50951 
-0.10637 0.15522 0.087479 0.038812 -0.12248 -0.68477 -0.44358 -0.4587 
-0.059507 0.17922 0.040292 -0.025802 -0.21652 -0.52496 -0.0082102 -0.21702 
0.052623 0.22312 0.011848 -0.011334 -0.10784 0.088794 0.35202 0.03388 
0.073997 0.17758 -0.012156 0.007738 0.0042853 0.43768 0.34577 0.10704 
0.087479 0.15341 -0.0029489 -0.0029489 0.14338 0.57743 0.15818 0.10408 
0.11296 0.16475 0.065776 0.072846 0.48996 0.66622 -0.12198 0.10688 
0.14075 0.20651 0.15686 0.094713 0.69186 0.38901 -0.15125 0.052459 
-0.0024557 0.089452 0.09422 0.043745 0.23381 -0.21175 0.016945 -0.048163 
-0.25779 -0.13119 -0.044052 -0.06707 -0.57807 -0.78852 0.04506 -0.10406 
-0.39508 -0.27982 -0.089924 -0.1113 -0.77668 -0.73196 0.030427 -0.16342 
-0.25269 -0.22047 -0.064768 -0.041751 -0.38291 -0.27209 0.33558 -0.12692 
-0.003771 -0.12478 -0.026953 0.010369 -0.11672 0.070708 0.58335 0.047362 
0.18728 -0.021363 0.038812 0.11378 0.061172 0.10277 0.55063 0.20323 
0.27639 0.031249 0.044402 0.11905 0.45429 0.10228 -0.11163 0.24778 
0.21178 -0.010019 0.03947 0.10326 0.76092 0.16886 -1.0503 0.15472 
-0.01528 -0.031228 0.034537 0.050157 0.65504 -0.059014 -0.92317 0.18119 
-0.17427 0.010862 0.034044 0.022042 0.2052 -0.19367 0.023357 0.26422 
-0.17443 0.078436 0.027796 0.020233 -0.021856 0.052787 -0.17032 0.087643 
-0.071345 0.07449 0.011684 0.0037921 0.019411 0.085177 -0.81269 -0.44259 
0.058542 0.094055 -0.013143 0.0088889 -0.0068948 -0.27637 -0.095185 -0.53779 
0.2953 0.22115 0.034044 0.030427 -0.092226 -0.32224 0.75895 -0.032543 
0.43505 0.30368 0.070708 0.053938 -0.21817 0.17297 1.0103 0.51989 
0.3923 0.10622 0.066269 0.058542 -0.21406 0.87765 0.70633 0.77457 
0.20536 -0.3224 -0.034188 0.021056 -0.1524 1.0546 -0.063453 0.43817 
-0.032543 -0.48271 -0.12856 -0.020706 -0.14171 0.38556 -0.97776 -0.37387 
-0.28738 -0.42697 -0.16325 -0.12478 -0.22162 -0.64679 -1.4616 -1.2717 
-0.41086 -0.27061 -0.1279 -0.11376 -0.24743 -1.1371 -0.3862 -1.4795 
-0.22787 -0.17361 -0.084663 -0.034681 -0.11607 -0.88289 1.4567 -0.22491 
-0.0080457 -0.016102 0.018096 0.020891 -0.0047575 -0.34 2.2037 1.142 
-0.080881 0.098988 0.083204 0.094055 0.023851 0.042429 1.2808 1.2538 
-0.21011 0.076956 0.098823 0.089287 0.041936 0.16985 -0.16687 0.57102 
-0.11787 -0.036983 0.11642 0.074654 0.025824 -0.041422 -1.1312 0.017274 
0.073832 -0.010019 0.10819 0.076627 -0.003771 -0.23099 -1.1719 -0.21833 
0.17034 0.14338 0.090603 0.056404 0.027468 -0.26996 -0.78326 -0.41168 
0.17544 0.27409 0.042923 0.012835 -0.046519 -0.15717 -0.39179 -0.47383 
0.15374 0.21227 0.01004 -0.054739 -0.091075 -0.063453 -0.18627 -0.076606 
0.2098 0.1927 0.038155 -0.019555 -0.042079 0.11313 0.060022 0.26998 
0.27031 0.18843 0.082546 0.0324 0.18415 0.34446 0.41154 0.31996 
0.16821 0.14223 0.084684 0.075805 0.33262 0.62577 0.48174 0.056569 
0.039799 0.12908 0.0421 0.038155 0.23956 0.49161 0.2583 -0.12445 
0.06035 0.14568 0.032729 -0.015609 0.021056 0.14798 -0.080059 -0.032543 
0.12398 0.14321 0.086821 0.043909 -0.13481 -0.13086 -0.17493 0.033551 
0.078272 0.020891 0.10672 0.049664 -0.15684 -0.19202 0.067585 -0.072003 
-0.052602 -0.10801 0.023193 0.039799 -0.034188 -0.18742 0.37586 -0.16687 
-0.096665 -0.22277 -0.1011 -0.008539 0.047033 0.11461 0.21868 -0.22293 
-0.16358 -0.1815 -0.10225 -0.013143 0.14091 0.48996 0.019411 -0.21488 
-0.32652 -0.16539 -0.011992 0.044731 0.11937 0.36501 -0.12544 -0.19334 
-0.38324 -0.109 0.065447 0.031249 -0.054739 -0.14336 -0.14434 0.1026 
-0.22557 -0.0050863 0.0786 0.047033 -0.18216 -0.4781 -0.13086 0.32621 
0.024508 0.11428 0.096357 0.022535 -0.21652 -0.52496 -0.087786 0.25304 
0.20158 0.11247 0.055089 0.0093821 -0.17098 -0.24003 0.095535 0.12579 
0.26242 0.15456 0.045389 -0.0049219 -0.02087 0.34117 0.34347 0.14996 
0.31404 0.26521 0.073339 0.020398 0.19188 0.71784 0.41335 0.29037 
0.31256 0.21194 0.099152 0.092576 0.3318 0.22509 0.28231 0.35136 
0.21917 0.15735 0.075312 0.039141 0.29185 -0.4781 0.083862 0.17791 
0.11477 0.072517 0.049664 0.029441 0.091425 -0.31681 -0.12511 -0.060823 
0.14174 0.21868 0.082217 0.017438 -0.13695 0.10326 -0.27423 -0.26733 
0.13171 0.37603 0.12365 0.02681 -0.35315 -0.016431 -0.27061 -0.38077 
0.12316 0.42075 0.10277 0.041278 -0.45278 -0.41168 -0.032379 -0.20781 
0.043909 0.31848 0.057062 0.031414 -0.33704 -0.43289 -0.10472 0.096028 
-0.0090322 0.21474 0.069064 0.048184 -0.19992 -0.2813 -0.31928 0.096028 
-0.1381 0.11313 0.062323 0.020727 -0.18117 -0.10258 -0.27637 -0.088444 
-0.17887 0.028619 0.032071 -0.041093 -0.15848 0.12727 0.10803 -0.10965 
-0.17624 0.004943 -0.034188 -0.018568 0.30911 0.74711 0.8691 0.1442 
-0.089266 0.056404 0.033551 0.058377 0.85003 1.2305 0.84444 0.29957 
0.04917 0.15999 0.11395 0.17511 0.71587 0.89377 0.083204 0.33459 
0.15357 0.26094 0.16179 0.19862 0.42765 0.42847 -0.20666 0.22871 
0.21178 0.21013 0.11839 0.14502 -0.0057439 -0.31566 0.029276 0.13154 
0.23956 0.039305 -0.017746 -0.019226 -0.49389 -1.266 0.026481 0.08008 
0.30434 0.035524 -0.049314 -0.080717 -0.43897 -0.60635 0.10655 0.21769 
0.39559 0.058542 -0.038298 -0.018075 0.020727 1.0654 0.28445 0.31996 
0.48174 0.089287 -0.01939 0.027796 0.39608 1.7134 0.47928 0.066434 
0.37816 0.059857 0.048184 0.11477 0.58434 0.87338 0.56099 -0.19104 
0.19665 0.071202 0.11477 0.13647 0.67148 -0.28393 -0.060494 -0.14517 
-0.093541 0.076134 0.11247 0.12546 0.56247 -0.70269 -0.39919 -0.074962 
-0.30531 0.020233 0.039799 0.04358 0.13088 -0.62131 -0.3252 -0.04882 
-0.32109 -0.0052507 -0.024323 -0.0072237 -0.28673 -0.51526 -0.42056 0.011355 
-0.1672 0.0087245 -0.026296 0.025001 -0.3885 -0.42894 -0.46331 0.11066 
0.063968 0.12644 0.0052718 0.023193 -0.18348 -0.21159 -0.25615 0.15637 
0.2246 0.20355 0.036839 0.048677 -0.057534 -0.10341 0.097179 0.070708 
-0.012156 0.17084 0.025001 -0.012649 -0.19498 -0.24168 0.29069 -0.057699 
-0.20945 -0.11376 -0.030899 -0.04882 -0.30728 -0.14303 0.12908 -0.085978 
-0.14484 -0.35529 -0.10078 -0.034516 -0.17756 0.44393 -0.015609 0.026152 
-0.11212 -0.291 -0.074962 0.018096 0.20355 1.0153 -0.0055795 0.15818 
-0.17443 -0.10752 0.017438 0.09685 0.46119 1.1167 0.64566 0.26685 
-0.22507 -0.089431 0.0042853 0.056569 0.43867 0.86138 1.2961 0.22115 
-0.11557 -0.13086 -0.033201 0.0067515 0.33048 0.51643 0.70617 0.087479 
-0.028433 -0.19597 -0.030899 -0.0057439 0.16821 0.04095 -0.58234 -0.1233 
0.079094 -0.096829 0.0019835 -0.0049219 -0.048327 -0.51559 -1.0059 -0.2887 
0.096521 0.073175 0.048348 0.046375 -0.072825 -0.71585 -0.66537 -0.57034 
0.12135 0.13483 0.063145 0.053938 -0.031557 -0.62361 0.090767 -0.52743 
0.19369 0.1031 0.073339 0.099645 -0.016266 -0.33819 0.62429 0.070215 
0.30237 -0.087786 0.042758 0.070544 0.029934 -0.12462 0.42666 0.64945 
0.25123 -0.13711 -0.0029489 0.048019 0.05213 -0.0004827 0.13088 0.74908 
0.11543 -0.10423 0.0054362 0.039634 0.013492 0.073339 -0.16457 0.45626 
0.12003 0.0421 0.035853 0.050814 0.075148 0.3466 -0.60931 0.23068 
0.19846 0.15587 0.027796 0.071695 0.1008 0.78344 -0.77142 0.01415 
0.073175 0.15883 -0.031064 -0.0096899 -0.076606 0.28461 -0.72801 -0.50573 
-0.21965 0.07038 -0.05885 -0.056055 -0.36285 -0.7262 -0.09239 -1.035 
-0.41365 -0.071345 -0.096829 -0.12725 -0.35529 -1.1949 0.5554 -0.68395 
-0.43667 -0.14928 -0.071345 -0.095843 -0.037969 -1.4411 0.24005 -0.0052507 
-0.39097 -0.14829 -0.028762 0.0072447 0.15587 -0.44752 -0.1889 0.30516 
-0.31254 -0.066248 0.035853 0.026152 0.19681 1.1774 -0.08269 0.27409 
-0.17443 -0.021692 0.047691 0.1003 0.34577 1.9161 0.33443 0.23315 
0.023193 0.06183 0.043745 0.079587 0.43834 1.2144 0.33328 0.32802 
0.147 0.069722 0.034044 0.043909 0.36106 0.21358 0.17297 0.35251 
0.25748 0.029112 0.050814 0.043416 0.048184 -0.36745 0.12349 0.23693 
0.23183 -0.18348 0.051143 0.031907 -0.26552 -0.51839 0.0031344 -0.035503 
0.13286 -0.30827 -0.016102 0.036839 -0.27851 -0.48106 0.056733 -0.23066 
0.092247 -0.21998 -0.035503 -0.01939 -0.291 -0.31714 0.17643 -0.18167 
0.11378 0.0082312 0.021056 0.020727 -0.14139 -0.062796 0.13993 0.012342 
0.13105 0.11872 0.028619 0.04358 0.083862 0.029112 0.20388 0.19353 
0.086821 0.14798 -0.0054151 0.015301 0.064625 -0.053588 0.1179 0.20092 
0.01974 0.14305 -0.03205 -0.016431 -0.082196 -0.046025 -0.27736 -0.09091 
0.024837 0.16015 -0.011992 -0.03764 -0.20189 -0.041915 -0.59714 -0.26733 
0.13549 0.22887 0.064625 0.023686 -0.21455 -0.17098 -0.50145 -0.18282 
0.15308 0.28609 0.099316 0.023522 -0.16391 -0.31435 -0.095349 -0.09798 
0.038319 0.29579 0.092247 0.035195 -0.10735 -0.37156 0.085506 -0.076442 
-0.12955 0.1881 0.095206 0.017932 -0.044052 -0.4929 -0.024652 -0.15372 
-0.18282 0.11691 0.060022 0.01563 0.010697 -0.31846 -0.21389 -0.060494 
-0.10143 0.062323 0.055089 0.056733 0.13319 -0.087458 -0.15043 0.17149 
0.018754 0.0689 0.050979 0.035031 0.093398 -0.074469 0.0036276 0.29415 
0.15489 0.12875 0.064954 0.06035 -0.036983 0.12431 0.11773 0.26899 
0.33098 0.20306 0.073832 0.03536 -0.070852 0.41269 0.27738 0.15703 
0.38425 0.22427 0.071531 0.026646 -0.017253 0.53781 0.50114 0.10869 
0.22739 0.10836 0.034373 0.020398 -0.1376 0.21457 0.46892 0.029112 
0.034702 0.019576 -0.0013048 -0.0098543 -0.28607 -0.37831 0.20306 -0.085649 
-0.059507 -0.012485 0.027139 0.033222 -0.18857 -0.75267 0.031578 -0.076113 
-0.073976 -0.047012 0.037004 0.037332 0.062323 -0.57938 -0.041422 -0.013307 
-0.032379 -0.060165 0.039963 0.063639 -0.10061 -0.29972 0.10392 0.077614 
0.10228 -0.0036066 0.0592 0.015959 -0.29955 -0.13826 0.23397 0.21441 
0.13779 -0.022514 0.042594 -0.041751 -0.070852 0.12349 0.1539 0.20027 
0.054103 0.0034632 -0.042573 -0.063289 0.65175 0.68315 -0.1478 -0.085649 
-0.10505 -0.013636 -0.061151 -0.05737 0.9911 1.0475 -0.69628 -0.44128 
-0.14319 0.0098754 0.015959 0.03651 0.52827 1.2496 -0.039284 -0.522 
-0.06855 0.018918 0.10721 0.061337 0.020891 1.3873 0.64435 -0.15717 
0.072681 0.16788 0.18695 0.15653 0.12069 1.1787 0.57727 0.44228 
0.26192 0.35169 0.19895 0.15834 0.12036 0.13253 0.52318 0.75664 
0.42551 0.33739 0.10162 0.045389 -0.29067 -1.4647 0.050814 0.51594 
0.52153 0.26406 0.038648 -0.0022913 -0.44111 -2.3381 -0.42977 0.22986 
0.39214 0.20767 0.034209 0.0044497 -0.19581 -1.5093 -0.39656 0.19188 
0.20651 0.17873 0.076627 0.068242 0.35235 0.53567 -0.05326 0.21654 
0.1927 0.1687 0.096193 0.1225 0.78114 1.9679 0.2537 0.10819 
0.22871 0.25041 0.082053 0.093562 0.58845 1.6351 0.092411 0.0024767 
-0.043066 0.21934 0.036017 0.058213 0.17511 0.50098 -0.37715 -0.10801 
-0.4495 0.11921 0.0021479 -0.0050863 -0.17394 -0.51822 -0.53565 -0.34756 
-0.81137 -0.12708 -0.014458 -0.011827 -0.38636 -0.81597 -0.11163 -0.58284 
-0.75859 -0.23625 0.0088889 -0.017911 -0.37403 -0.56491 0.38688 -0.34559 
-0.40543 -0.19893 0.047033 0.0018191 -0.22754 -0.17706 0.33065 -0.045696 
-0.21455 -0.20255 0.082711 0.03536 -0.095678 0.034044 -0.043724 -0.053424 
-0.20353 -0.26963 0.029441 0.015301 -0.028104 0.042429 -0.19778 -0.073154 
-0.082525 -0.33506 -0.019061 -0.0021268 -0.047998 -0.23346 0.12266 0.073339 
0.14387 -0.21323 -0.010512 -0.0075525 -0.0087034 -0.18117 0.33821 0.21523 
0.38392 0.0072447 0.069722 0.031907 -0.094692 0.065447 0.14091 0.24318 
0.52909 0.11609 0.084848 0.044402 -0.22885 0.051308 -0.1621 0.22345 
0.41746 0.019411 0.0092177 0.01711 -0.22935 0.079258 -0.15618 0.25436 
0.1567 -0.088937 -0.096336 -0.011827 -0.13958 -0.07973 -0.057699 0.24647 
-0.010512 -0.19926 -0.18791 -0.10094 0.051472 -0.0032777 -0.0044286 0.14568 
-0.0062372 -0.048656 -0.13267 -0.027775 0.33459 0.38293 -0.089102 0.028454 
0.034044 0.13154 0.023357 0.11181 0.68759 0.91613 -0.071016 -0.012978 
-0.12757 0.092576 0.12316 0.19418 0.81008 1.2272 -0.16572 -0.088773 
-0.3691 0.019576 0.12184 0.12694 0.52482 0.56428 -0.19367 -0.37633 
-0.41119 -0.03205 0.031578 0.022864 0.17412 -0.24612 0.30812 -0.3589 
-0.23609 -0.028433 -0.0055795 -0.024158 0.0016547 -0.88667 0.81978 -0.077264 
-0.089266 -0.029913 0.0032988 -0.035174 0.22608 -0.8339 0.77966 0.028454 
-0.0095255 0.12579 0.072024 0.053116 0.4145 0.11395 -0.013965 -0.0034422 
0.02533 0.17955 0.10491 0.090438 0.34627 1.2413 -0.48254 -0.0031133 
0.060515 0.1927 0.098166 0.10491 0.21687 1.2412 -0.255 0.32654 
0.15226 0.16804 0.082875 0.12595 -0.041093 0.76421 0.33163 0.56872 
0.18169 0.2269 0.096193 0.10178 -0.27818 0.18547 0.33624 0.3683 
0.19073 0.20076 0.079916 0.060186 -0.425 -0.41481 0.099481 0.036675 
0.16492 0.11724 0.033715 0.010204 -0.48435 -0.93583 -0.3372 -0.18348 
0.062488 -0.0068948 -0.012814 -0.034516 -0.4855 -1.1099 -0.47103 -0.24727 
-0.0083746 -0.049642 -0.023829 -0.040271 -0.41546 -0.97118 -0.075949 -0.19104 
0.016781 0.014315 -0.026296 -0.049149 -0.28525 -0.60355 0.14552 -0.055068 
0.076956 -0.034681 -0.02498 -0.015938 -0.12708 -0.20452 0.083697 0.11905 
0.074326 -0.10324 -0.052273 -0.0047575 0.024344 0.082217 -0.020212 0.20355 
-0.015773 -0.14961 -0.032543 0.032893 0.08156 0.1636 -0.048163 0.14782 
-0.14336 -0.11705 0.015959 0.047855 0.25173 0.29694 -0.064604 -0.021199 
-0.19318 -0.035338 0.055911 0.066927 0.3313 0.19665 -0.094856 -0.19679 
-0.024487 0.15867 0.060515 0.074326 0.14091 -0.047012 -0.12725 -0.19482 
0.18876 0.2024 0.041772 -0.0050863 -0.12725 -0.1552 -0.079566 -0.057699 
0.19665 0.14601 -0.027118 -0.00031829 -0.32175 -0.041093 0.065612 0.051965 
0.12529 -0.017417 -0.15585 -0.066741 -0.29478 -0.067728 0.14141 0.018589 
0.070708 -0.082854 -0.14451 -0.061973 -0.16046 -0.22195 0.23529 -0.053588 
0.13138 -0.021856 -0.056055 -0.014622 -0.048656 -0.28327 0.41729 -0.032872 
0.15735 0.067913 0.038155 0.013328 0.098988 -0.1427 0.18892 0.12628 
0.06035 0.15818 0.13713 0.070873 0.15094 0.0085601 -0.12116 0.29135 
-0.021692 0.17889 0.17758 0.04917 0.25206 0.30072 -0.14106 0.32243 
0.0592 0.20323 0.12316 0.032893 0.24433 0.54817 -0.063453 0.091096 
0.16377 0.20355 0.061995 0.016945 0.037826 0.58911 -0.030899 -0.15964 
0.18547 0.24712 0.040456 0.0041209 0.024179 0.42075 0.048019 -0.27752 
0.19468 0.19731 0.06479 0.094384 0.27524 0.46168 0.31947 -0.045696 
0.21112 0.13664 0.046211 0.084684 0.21934 -0.30333 0.25798 0.21917 
0.19895 0.072024 0.0324 0.062817 -0.011827 -1.3645 -0.01117 0.28247 
0.13302 0.12003 0.05476 0.034537 -0.1085 -0.77076 -0.13497 0.24433 
0.12612 0.21539 0.091096 0.054267 -0.015116 0.72376 -0.15372 0.098166 
0.16492 0.21621 0.079258 0.073668 0.14963 1.3808 -0.028269 -0.11722 
0.12595 0.12036 0.01711 0.042923 0.080902 0.70699 0.2833 -0.17312 
0.044238 -0.0096899 -0.06148 0.0031344 -0.27061 -0.46758 0.31371 -0.11935 
0.022864 -0.025145 -0.02942 -0.061316 -0.53664 -1.1739 0.14042 0.0095465 
0.0227 -0.025309 0.0041209 -0.034023 -0.53433 -1.0394 -0.14254 0.12332 
0.10507 0.046211 0.041936 -0.040928 -0.38768 -0.78539 -0.68609 0.058871 
0.091589 0.043909 0.045882 -0.02235 -0.27374 -0.67277 -0.69069 -0.10768 
0.071859 0.078765 0.037497 0.0062583 -0.11196 -0.38784 -0.068221 -0.14599 
0.061666 0.024837 0.026317 -0.0098543 0.13582 0.12283 0.20076 0.026152 
0.0024767 -0.036983 -0.001798 0.026646 0.57398 0.83392 0.25781 0.36485 
-0.053917 -0.057699 0.0044497 0.042923 0.94737 1.3084 0.47846 0.52581 
-0.11935 0.037332 0.06331 0.067913 0.73971 1.1271 0.42634 0.27096 
-0.206 0.12414 0.07449 0.027796 0.3609 0.77933 0.14913 -0.047341 
-0.21619 0.07597 0.04917 -0.01528 -0.014129 0.23479 -0.10982 -0.27341 
-0.13777 -0.045368 -0.018897 0.0042853 -0.20468 -0.21093 -0.0075525 -0.29692 
0.039634 -0.036325 0.020891 0.054432 -0.097487 -0.45657 0.005765 -0.17114 
0.12332 0.094055 0.12562 0.16508 -0.059507 -0.76665 -0.3229 -0.047998 
0.13549 0.11773 0.18251 0.14437 -0.20863 -0.89999 -0.4444 0.090767 
0.20158 0.18119 0.14091 0.060186 -0.3423 -0.4878 -0.16868 0.19172 
0.32835 0.14387 0.06183 0.014479 -0.29906 0.089287 0.00083261 0.22789 
0.36221 0.1516 0.023851 -0.040928 -0.17032 0.14305 -0.16391 0.085835 
0.29661 0.13467 0.007738 -0.017911 -0.14073 -0.37913 -0.024158 -0.081045 
0.19106 0.11773 -0.027611 -0.03353 -0.094363 -0.022514 0.42255 -0.13448 
0.066763 0.0088889 -0.057534 -0.0062372 0.21835 0.99932 0.83063 -0.13464 
-0.079072 -0.086307 -0.050958 0.082217 0.6483 1.5705 0.48043 -0.14648 
-0.21981 -0.13826 -0.014129 0.13105 0.64238 0.78575 -0.20962 0.0075736 
-0.29067 -0.23165 -0.021692 0.072353 0.22805 -0.15552 -0.40231 0.14437 
-0.38784 -0.24217 -0.060165 -0.050793 0.071531 0.023357 0.18383 0.015301 
-0.47613 -0.19449 -0.035667 -0.056877 0.035853 0.18728 0.35893 -0.3691 
-0.40642 -0.076113 0.026974 -0.06707 -0.023007 -0.47005 -0.15026 -0.50753 
-0.19646 0.020891 0.070873 0.031414 0.065776 -0.93287 -0.01676 -0.039778 
0.068407 0.072681 0.1174 0.079751 -0.0057439 -0.44719 0.305 0.60489 
0.27294 0.05065 0.12957 0.058213 -0.1695 0.42469 0.18185 0.90823 
0.43998 0.10392 0.10441 0.094548 -0.095678 0.77391 0.39954 0.60916 
0.46201 0.10935 0.064461 0.085999 0.093891 0.56198 0.39871 0.23019 
0.33065 0.086657 0.053774 0.1054 -0.075949 -0.4929 -0.18627 0.066269 
0.16114 0.038648 0.047033 0.069229 -0.48304 -1.3748 -0.63282 -0.044546 
-0.11722 -0.049807 -0.01676 0.015959 -0.4587 -1.0373 -0.70812 -0.43026 
-0.29626 -0.039613 -0.0091966 -0.0083746 -0.15602 0.16294 -0.50014 -0.71322 
-0.18841 0.039141 0.015465 -0.00064712 0.20092 1.0763 -0.069208 -0.42451 
-0.011498 0.049499 0.045389 0.031907 0.5485 1.3885 0.36485 0.12497 
0.0011614 -0.043559 0.030427 0.058049 0.93684 1.1402 0.4339 0.41154 
-0.10291 -0.11524 0.0046141 0.024015 1.1212 0.50805 0.19846 0.34709 
-0.21077 -0.2106 -0.064933 -0.031886 0.54866 0.032729 0.093069 0.074654 
-0.28492 -0.20353 -0.085978 -0.041915 -0.090746 0.35745 0.22838 -0.13136 
-0.23198 -0.20107 -0.098967 0.018425 -0.33901 0.41302 0.016452 -0.29528 
-0.0036066 -0.064933 -0.03616 0.044567 -0.33605 -0.084663 -0.38225 -0.23609 
0.11888 0.078107 0.042758 0.087479 -0.2665 -0.90722 -0.5248 -0.10127 
0.025824 0.17034 0.11674 0.079916 -0.23938 -1.0697 -0.15931 0.032729 
-0.021034 0.19501 0.11724 0.041114 -0.19778 -0.46643 0.6409 0.098988 
0.03651 0.13565 0.08304 0.017438 -0.1843 -0.016595 1.0776 0.1733 
0.085506 0.037826 0.014972 -0.036325 -0.10045 -0.10127 0.61788 0.20043 
0.0092177 -0.033365 -0.014622 -0.00015387 0.032729 0.086657 -0.44703 0.1077 
-0.077922 -0.043066 -0.0138 0.018425 0.065612 0.49424 -0.64202 -0.022679 
-0.11607 0.0036276 0.00017495 0.063474 0.1391 0.47977 -0.083018 -0.13382 
-0.044546 0.073504 0.012506 0.035853 0.13894 -0.039778 0.13943 -0.031557 
0.19402 0.11313 0.042594 -0.0021268 0.070873 -0.55472 0.022535 0.30664 
0.30566 0.15094 0.041278 0.05476 0.053609 -0.16259 -0.096994 0.4316 
0.18942 0.041443 0.034044 0.046704 0.09126 0.87897 -0.057534 0.29267 
0.0083956 -0.028762 0.04654 0.071859 0.20438 1.1877 -0.039449 0.2537 
-0.073482 -0.031886 0.063639 0.081231 0.30418 0.5485 0.056076 0.28428 
-0.06444 0.0069159 0.062323 0.030427 0.0786 -0.60717 -0.23806 -0.036489 
-0.019226 0.049664 0.02122 0.03092 -0.023172 -0.93616 0.015137 -0.58662 
-0.079237 0.050321 0.0065871 -0.018404 0.244 -0.33819 0.45609 -0.77388 
-0.072332 0.091753 0.01826 -0.025802 0.34364 0.14617 0.27277 -0.21225 
0.061666 0.14798 0.0324 -0.01528 0.031907 0.10145 -0.1205 0.27524 
0.24384 0.25321 0.038155 0.0014903 -0.26848 -0.044052 -0.089266 0.32736 
0.25814 0.22246 0.052294 0.020398 -0.26535 0.047526 0.099974 0.13943 
0.12875 0.21457 0.096686 0.029276 -0.15635 -0.06296 0.090274 -0.0044286 
0.059693 0.23003 0.092247 0.05772 -0.16523 -0.36811 -0.085649 -0.032872 
0.023357 0.24088 0.10376 0.064132 -0.19663 -0.50573 -0.071181 0.017603 
-0.003771 0.15916 0.099152 0.054103 -0.16539 -0.34148 -0.040271 0.1539 
-0.059343 0.11609 0.069558 0.023522 -0.08384 -0.086307 -0.157 0.27507 
-0.13021 0.023522 -0.017088 -0.014951 -0.076935 0.019247 -0.12067 0.31881 
-0.0072237 -0.021199 -0.08828 -0.024158 -0.11705 -0.066084 0.051801 0.18892 
0.099974 0.028125 -0.054575 -0.0406 0.017274 0.21539 0.13138 -0.12396 
0.183 0.15505 0.077285 0.068571 0.2902 0.44459 0.16377 -0.49751 
0.26242 0.23151 0.16804 0.15604 0.34331 0.21309 0.12447 -0.43799 
0.39099 0.24318 0.19057 0.16064 0.067585 -0.25845 -0.028597 0.009711 
0.46185 0.26505 0.11214 0.075476 -0.15043 -0.35266 -0.0039354 0.42107 
0.34627 0.11707 -0.061151 -0.07003 -0.3936 -0.27061 -0.058521 0.47796 
0.25288 0.018754 -0.14961 -0.15174 -0.44719 -0.10867 -0.27325 0.16673 
0.12776 -0.043888 -0.133 -0.19054 -0.28969 -0.13695 -0.49027 -0.47103 
-0.022843 -0.040435 -0.10045 -0.13185 -0.056712 0.067091 -0.76862 -0.6435 
-0.14056 -0.1159 -0.03057 -0.04323 0.24005 -0.19893 0.32012 -0.14714 
-0.075949 -0.080881 0.0786 0.13056 0.46366 0.010533 1.9508 0.37915 
0.13401 0.0098754 0.20503 0.25633 0.55096 0.93257 1.9248 0.63268 
0.21523 0.17445 0.23529 0.26702 0.45018 1.1096 0.45215 0.48635 
0.10606 0.3438 0.23496 0.23956 0.11937 0.2565 -0.80989 0.20569 
0.013821 0.29596 0.14519 0.14141 -0.075455 -0.30481 -1.1599 0.066434 
-0.11475 0.10803 -0.0077169 0.03947 -0.1935 -0.61983 -0.84639 -0.056055 
-0.21143 -0.063618 -0.089266 -0.066084 -0.32504 -0.72144 -0.56935 -0.18808 
-0.10505 -0.10258 -0.10209 -0.094527 -0.3885 -0.72259 -0.32717 -0.24973 
0.089123 -0.17739 -0.064933 -0.039942 -0.31254 -0.45624 -0.064111 -0.12379 
0.11115 -0.18348 -0.03616 -0.065591 -0.22261 -0.11376 0.22065 -0.061151 
0.013492 -0.15174 -0.00064712 -0.01117 -0.18874 0.11658 0.33854 -0.037969 
-0.086142 -0.057205 0.0079024 -0.0095255 -0.12396 0.1345 0.31733 -0.019555 
-0.1381 -0.037147 -0.040106 -0.0095255 0.049006 0.18136 0.22756 -0.016431 
-0.15043 -0.065097 -0.05589 -0.0070593 0.092576 -0.07266 0.078272 -0.017746 
-0.13629 -0.070523 1.0539e-005 -0.00031829 0.0036276 -0.14204 -0.00097594 -0.012156 
-0.14911 -0.12215 0.031742 0.047033 -0.014458 0.26176 0.016616 -0.0016336 
-0.22787 -0.12034 0.028125 0.049828 0.12217 0.6866 0.070708 0.027632 
-0.18084 -0.054246 -0.0027845 0.048019 0.28609 0.70206 0.094384 0.056569 
0.11 0.16755 0.031578 0.045718 0.35695 0.47056 0.13812 0.10326 
0.43768 0.33098 0.10113 0.069064 0.42486 0.089616 0.1054 0.13516 
0.4801 0.29974 0.08567 0.10014 0.46037 -0.17394 0.049992 0.086163 
0.2736 0.12957 0.066434 0.048019 0.25337 -0.24908 -0.065097 0.091096 
0.048841 0.085506 0.052294 0.034537 -0.088115 -0.29248 -0.12198 0.041936 
-0.13793 0.042265 0.075805 0.044402 -0.24266 -0.43125 -0.30004 -0.12889 
-0.2813 -0.0047575 0.059364 0.021549 -0.16572 -0.30711 -0.13793 -0.23214 
-0.32356 -0.11031 0.0024767 -0.0078813 -0.10719 0.080573 0.23627 -0.091568 
-0.22869 -0.14895 -0.047012 -0.062302 -0.3252 0.12168 0.31832 0.17807 
-0.18775 -0.11787 -0.087951 -0.015773 -0.40724 -0.036818 0.2001 0.27343 
-0.15931 -0.071674 -0.065919 0.0034632 -0.090581 -0.092883 0.10622 0.26718 
0.075476 -0.038462 -0.03501 0.027796 0.27869 0.17544 0.0023123 0.20832 
0.22328 -0.066577 -0.025145 0.034209 0.47698 0.89903 -0.052766 0.079258 
0.11625 -0.065755 -0.029913 -0.0034422 0.64007 1.2505 -0.096172 -0.059507 
-0.12018 -0.11607 0.0087245 0.070708 0.69548 0.82636 -0.052273 -0.078744 
-0.30596 -0.44736 -0.021528 0.06479 0.5314 0.31963 0.17248 -0.0095255 
-0.34559 -0.80085 -0.073976 0.060515 0.2223 -0.055561 0.2371 0.0026412 
-0.23329 -0.50638 0.024179 0.0421 -0.25384 -0.37633 0.18777 -0.047505 
0.00297 0.12792 0.20355 0.071202 -0.56672 -0.71091 0.067091 -0.082032 
0.19813 0.54093 0.29398 0.088958 -0.4957 -0.97809 0.028783 -0.1598 
0.29924 0.5679 0.20849 0.052294 -0.2397 -0.70631 0.083533 -0.1358 
0.26455 0.41959 0.059693 0.012177 0.056569 0.089945 0.093398 -0.0059084 
0.23611 0.32736 -0.050136 -0.067892 0.25683 0.57184 -0.16983 0.23068 
0.19402 0.23414 -0.121 -0.084169 0.3392 0.44722 -0.63874 0.33689 
0.15604 0.21112 -0.095185 -0.059014 0.28987 0.11132 -0.62887 0.10852 
0.06742 0.1299 -0.011827 -0.044217 0.15028 0.147 0.021384 -0.31862 
-0.078086 0.058871 0.029605 0.0016547 0.1664 0.49112 0.84493 -0.49093 
-0.16243 -0.070852 0.016945 0.021549 0.17281 0.62182 1.2431 -0.17525 
-0.11376 -0.074962 0.038319 0.10852 0.17824 0.40282 0.72277 0.35169 
-0.10242 -0.088115 0.083862 0.14256 0.12973 -0.052931 -0.23313 0.46662 
-0.080881 -0.028104 0.098001 0.12743 -0.01528 -0.4033 -0.56393 0.25025 
0.10737 0.066598 0.12612 0.086328 -0.16457 -0.40658 -0.44358 0.1054 
0.31749 0.13647 0.14338 0.021713 -0.17394 -0.23921 -0.22047 0.018425 
0.39132 0.2029 0.1271 0.05065 -0.1524 -0.040764 -0.095843 -0.028433 
0.42617 0.19632 0.031742 0.004943 -0.16243 0.24186 -0.041422 -0.0019624 
0.32177 0.17708 0.0051074 -0.013636 -0.16539 0.25387 -0.095678 0.019083 
0.22033 0.093726 -0.016102 -0.019884 -0.098638 -0.13612 -0.14533 0.051143 
0.16788 0.047855 -0.021528 -0.034352 -0.065919 -0.55127 -0.05885 0.064296 
0.19385 0.023686 -0.06148 -0.017417 0.053609 -0.37091 0.17314 0.089452 
0.19139 0.075312 -0.032379 -0.0075525 0.34709 0.19879 0.29563 -0.03057 
-0.02087 0.090767 0.061995 0.071202 0.56444 0.67115 0.13697 -0.17854 
-0.19597 0.04506 0.11017 0.11477 0.41302 0.71866 0.01711 -0.19548 
-0.24809 -0.061809 0.064954 0.11148 0.043416 0.55195 0.40036 -0.13349 
-0.30235 -0.050136 0.030427 0.061172 -0.26354 0.034209 0.60012 0.070873 
-0.17706 0.090109 0.040128 -0.0036066 -0.37699 -0.51773 0.17873 0.18662 
0.12085 0.24203 0.099974 0.048348 -0.26042 -0.30136 -0.15618 0.15719 
0.22739 0.2389 0.064461 0.0024767 -0.12938 0.17544 -0.45328 0.086328 
0.11559 0.15637 0.0083956 -0.0042642 -0.23576 0.085177 -0.42451 0.096028 
0.03388 0.11987 -0.00015387 -0.048163 -0.16523 -0.097651 -0.019226 0.18563 
0.068736 0.18284 0.094548 0.027961 0.28149 -0.35134 0.46284 0.18169 
0.059857 0.27606 0.13006 0.11181 0.47895 -0.14763 0.34331 -0.096007 
0.0023123 0.24482 0.097344 0.07597 0.1641 0.13384 -0.31797 -0.30054 
0.0042853 0.1932 0.033715 0.047362 -0.22293 -0.51132 -0.30679 -0.19186 
0.094384 0.11543 0.0093821 -0.0032777 -0.43174 -1.164 -0.0072237 -0.019061 
0.2218 0.11165 0.015959 0.015794 -0.25861 -0.90361 -0.23296 -0.030242 
0.23315 0.17314 0.055418 0.071859 0.018918 0.17182 -0.66537 -0.096994 
0.244 0.24663 0.1174 0.08304 0.20125 0.925 -0.51888 0.10195 
0.3244 0.33344 0.12957 0.13795 0.22608 0.63185 0.18004 0.37553 
0.33344 0.29924 0.095042 0.049499 0.020398 -0.26733 0.55063 0.48191 
0.14848 0.14437 0.0016547 0.030098 -0.057041 -0.72867 0.33377 0.3997 
-0.18364 -0.07562 -0.026131 0.016123 0.098659 -0.56886 0.059035 0.022535 
-0.41119 -0.1963 -0.028597 0.048348 0.11017 0.016945 0.076956 -0.27209 
-0.35693 -0.20616 0.019411 0.089287 0.18974 0.76322 0.19599 -0.32849 
-0.23263 -0.12626 0.027632 0.048677 0.36353 1.2532 0.43209 -0.16851 
-0.12264 -0.13004 -0.024652 0.048348 0.4048 1.338 0.30007 -0.054575 
-0.0042642 -0.035667 -0.02794 0.012177 0.17758 0.85168 -0.072332 0.00297 
0.16015 0.0056006 -0.050793 -0.020541 -0.16588 -0.02235 -0.10587 0.064296 
0.19665 -0.031392 -0.042573 -0.0073881 -0.29692 -0.62969 -0.20764 0.14568 
0.13713 -0.19778 -0.038956 0.017932 -0.24431 -0.85889 -0.21488 0.22575 
0.013657 -0.26404 -0.0073881 0.066434 -0.1792 -0.79033 0.028783 0.18777 
-0.10357 -0.11804 0.020562 0.015301 -0.10538 -0.62756 -0.099953 0.012506 
-0.11705 0.08156 0.058871 0.049828 -0.033365 -0.43552 -0.03912 0.0028056 
-0.088444 0.1322 0.099152 0.0083956 -0.06148 -0.27785 -0.043066 0.054267 
-0.050629 0.11954 0.09126 0.0047785 -0.075455 -0.010512 -0.0087034 0.068736 
0.070051 0.065283 0.074983 0.024015 -0.00015387 0.40019 0.36896 0.075312 
0.1179 -0.092226 0.033715 0.019576 0.15472 0.63777 0.4852 -0.016102 
-0.03764 -0.16999 0.029441 0.040456 0.22444 0.49901 0.21062 -0.17558 
-0.13168 -0.12988 0.027632 0.023028 0.33558 0.27327 0.01004 -0.14402 
0.041936 0.14338 0.03947 0.018096 0.31092 0.097344 -0.13843 0.046211 
0.20224 0.26242 0.015794 -0.025145 0.14437 -0.13843 -0.25812 0.17429 
0.093726 0.16064 -0.064111 -0.025967 -0.043888 -0.24793 -0.25943 0.16623 
-0.16901 -0.022021 -0.15487 0.030263 -0.14615 -0.17427 -0.025145 0.045553 
-0.32224 -0.10045 -0.10817 -0.031392 -0.18857 -0.12856 0.26505 -0.10669 
-0.31731 -0.18578 -0.014787 -0.0052507 -0.27703 -0.32092 0.11148 -0.15437 
-0.17345 -0.1963 0.05213 -0.0062372 -0.28706 -0.37337 -0.10291 -0.036983 
0.073504 -0.14796 0.067913 0.067091 -0.19416 -0.10045 -0.11343 0.070215 
0.27244 -0.098309 0.1054 0.11329 0.065283 0.35169 -0.054739 0.11346 
0.31585 -0.015773 0.079751 0.086328 0.40003 0.84674 -0.0095255 0.10244 
0.24071 0.031414 0.055089 0.090274 0.48059 0.84707 0.021056 0.06742 
0.11954 0.052459 0.00050378 0.014808 0.26883 0.53995 0.057884 0.08978 
-0.042901 -0.043559 -0.050958 -0.038627 0.16755 0.34676 0.23874 0.12825 
-0.11113 -0.057205 -0.075784 -0.079566 0.031414 0.0019835 0.32374 -0.0021268 
-0.031228 -0.022185 -0.049642 -0.061645 -0.078744 -0.43717 0.1271 -0.05178 
0.017767 0.046868 0.013328 0.020069 -0.074633 -0.73311 -0.19449 -0.060494 
0.014315 0.15028 0.066434 0.055254 -0.12083 -0.70006 -0.36877 -0.065919 
-0.01117 0.17117 0.10573 0.079094 0.03799 -0.34296 -0.071509 -0.010019 
0.052623 0.16706 0.076463 0.042758 0.37833 0.43686 0.47615 0.20372 
0.053281 0.13483 0.048841 0.029605 0.39329 1.1184 0.79166 0.29596 
-0.030406 0.056076 0.032893 0.012999 0.023522 1.1205 0.38523 0.030592 
-0.11048 -0.10357 -0.051944 -0.055068 -0.27653 0.50345 -0.38883 -0.34049 
-0.051944 -0.17969 -0.082196 -0.047834 -0.3936 -0.28607 -0.84951 -0.36926 
-0.13481 -0.23773 -0.072167 -0.039284 -0.34345 -0.887 -0.2522 -0.17295 
-0.27982 -0.21784 -0.018568 0.022206 -0.17377 -0.82946 0.76223 0.026152 
-0.24875 -0.0050863 0.054596 0.038483 -0.050136 -0.32454 0.77769 0.13467 
0.067913 0.29349 0.12809 0.082711 0.0028056 0.11839 0.1904 0.17265 
0.3752 0.44376 0.16426 0.11115 0.03947 0.29217 -0.16046 0.1978 
0.51561 0.42683 0.11247 0.057062 0.04358 0.18876 -0.10768 0.19336 
0.35317 0.26718 0.03947 0.0067515 0.0088889 0.20109 -0.077264 0.17478 
0.037661 0.10376 -0.019061 -0.042573 -0.014458 0.54258 -0.076935 0.07449 
-0.14681 0.075476 0.0070803 -0.0073881 -0.0070593 0.64961 -0.33063 -0.052931 
-0.1455 0.1179 0.079751 0.090931 0.083862 0.25535 -0.38932 -0.10998 
-0.0042642 0.10967 0.10556 0.092082 0.17478 -0.63315 -0.23757 -0.077264 
0.14881 0.023851 0.088136 0.13499 0.1858 -1.4176 0.056404 -0.0047575 
0.22049 0.054103 0.039634 0.057062 0.066105 -0.81532 0.16706 -0.008539 
0.23298 0.10277 0.0016547 0.017767 -0.16029 0.2948 0.049992 -0.066413 
0.20109 0.13056 -0.022514 0.011848 -0.19235 0.62758 0.015959 -0.11442 
0.29448 0.16344 0.01267 0.048348 0.057391 0.46103 0.086328 -0.0080457 
0.36468 0.11987 0.057227 0.088136 0.098988 -0.097816 0.45659 0.26636 
0.24663 0.057227 0.076299 0.052459 -0.12494 -0.48452 0.73116 0.38605 
0.037661 0.029441 0.073175 0.042923 -0.13744 -0.22261 0.41203 0.32818 
-0.14796 0.10474 0.051636 0.0092177 0.33788 0.47352 -0.19449 0.08156 
-0.13958 0.13812 0.025495 -0.0036066 0.50114 0.35251 -0.46808 -0.094692 
0.0072447 0.21013 0.029441 -0.010183 0.11609 -0.050464 -0.3349 -0.267 
-0.16753 0.1151 0.036346 -0.0049219 0.018754 -0.019226 -0.32372 -0.27719 
-0.46577 0.068571 0.015959 0.065283 0.54356 0.80893 -0.44424 -0.21093 
-0.42286 0.069064 0.053938 0.087479 0.46777 0.98551 -0.42171 -0.20436 
-0.13645 0.10951 0.08715 0.096686 -0.062302 0.13253 -0.51921 -0.25878 
0.15357 -0.0083746 0.031249 0.085012 -0.48468 -0.56146 0.39099 -0.055726 
0.36748 -0.059836 0.00050378 0.090931 -0.37535 -0.44884 1.3717 0.35366 
0.43275 -0.10456 -0.021034 0.077121 -0.047834 -0.071509 1.6996 0.52696 
0.21638 -0.22754 -0.0049219 0.021713 -0.091568 -0.1746 1.0799 0.40052 
-0.0080457 -0.26568 0.041443 0.021549 -0.11524 -0.66504 -0.31303 0.27869 
-0.055397 -0.20436 0.04654 -0.0055795 0.13351 -0.70171 -1.2247 0.17955 
0.044896 -0.058028 -0.0091966 -0.003771 0.45988 0.20997 -1.0511 0.047033 
0.10474 0.01267 -0.01676 0.018096 0.39871 0.90445 -0.15881 0.075312 
0.037004 -0.058192 -0.01676 -0.037805 0.15555 0.72836 0.18794 0.055089 
-0.037805 -0.17509 -0.035832 0.024673 0.16327 0.37076 -0.035174 -0.17016 
-0.09387 -0.13464 -0.028926 0.024837 0.24515 0.11148 -0.40132 -0.18019 
-0.039284 -0.021034 -0.061645 0.066434 0.21408 -0.14698 -0.53861 -0.092226 
0.040785 0.083862 -0.11722 0.038483 -0.0031133 -0.32832 -0.37239 -0.099131 
-0.053095 -0.10834 -0.14895 -0.011498 -0.24266 -0.36219 0.24071 -0.23773 
-0.10801 -0.080388 -0.027775 -0.0082102 -0.291 -0.2522 0.86795 -0.092719 
0.0098754 0.21112 0.13302 -0.011827 -0.21093 -0.15092 0.73889 0.17084 
0.052623 0.46267 0.23825 0.031249 -0.098473 -0.088115 0.090274 0.20849 
0.038319 0.5138 0.24597 0.046211 -0.0091966 -0.096665 -0.29232 0.076956 
0.03388 0.37948 0.21819 0.056733 0.046046 -0.091897 -0.27851 0.017438 
-0.10242 0.18119 0.15094 0.066434 0.061172 -0.042737 -0.15059 0.023686 
-0.19498 0.0018191 0.072517 0.018096 0.098001 0.062817 -0.045861 0.051472 
-0.11541 -0.11607 -0.0024557 0.027632 0.11559 0.14469 -0.027282 0.059364 
0.036182 -0.24447 -0.067892 0.0059294 0.1345 0.16278 0.019411 0.063145 
0.034209 -0.26519 -0.086636 0.023193 0.13039 0.15735 0.051965 0.012835 
-0.017417 -0.23757 -0.032708 0.035688 0.15555 0.26505 0.1373 0.010862 
0.031249 -0.11015 -0.010019 0.030592 0.1225 0.15144 0.10425 0.01711 
0.1276 0.005765 0.035853 0.042758 0.031907 -0.11722 0.078107 0.0324 
0.1248 0.070215 0.034702 0.016288 -0.074469 -0.25023 -0.0055795 0.038648 
0.14831 0.1419 0.038155 0.023193 -0.18167 -0.18939 -0.015773 0.045389 
0.1659 0.15883 0.028454 -0.018733 -0.22507 -0.23543 -0.041915 0.01826 
0.11 0.19139 0.0052718 -0.053753 -0.23888 -0.49257 -0.097158 -0.030406 
-0.008539 0.12875 0.0087245 -0.016924 -0.23527 -0.44835 -0.061809 -0.076442 
-0.084991 0.039634 -0.0070593 -0.0067304 -0.12544 0.16311 -0.0032777 -0.066577 
-0.11442 -0.11656 -0.062796 -0.020541 -0.041093 0.42288 0.0082312 -0.013307 
-0.072825 -0.071838 -0.0090322 -0.045368 -0.06855 0.23348 0.047033 0.11822 
-0.061809 0.06331 0.067913 0.037004 0.22937 0.38507 0.025495 0.34528 
0.019083 0.16574 0.15999 0.085341 0.57398 0.84559 0.052623 0.39164 
0.093398 0.15735 0.17659 0.097508 0.5388 1.0381 0.050321 0.1003 
0.11198 0.16722 0.16804 0.089945 0.18892 0.78048 -0.09091 -0.2739 
0.075312 0.23775 0.1179 0.014643 -0.25697 -0.24809 -0.16259 -0.41579 
0.11329 0.30516 0.12792 0.017932 -0.54683 -1.3538 -0.055397 -0.26749 
0.18613 0.33394 0.075312 -0.0072237 -0.632 -1.5953 0.23101 -0.0014692 
0.28428 0.29448 0.074161 0.024015 -0.35331 -0.68116 0.50164 0.20158 
0.33509 0.25896 0.043087 0.047197 -0.048163 0.009711 0.50509 0.1562 
0.2999 0.11625 -0.041915 0.013986 0.047855 0.3558 0.34133 0.038483 
0.24581 0.11526 -0.016102 0.043745 0.085341 0.59519 0.10951 0.11017 
0.20684 0.10113 0.020562 0.028125 0.17741 0.67394 0.029112 0.21079 
0.054925 0.1197 0.077614 0.033222 0.29086 0.71538 -0.010348 0.23644 
-0.08121 0.061501 0.11444 0.029605 0.20421 0.059857 -0.01939 0.11132 
-0.2647 -0.046354 0.066927 -0.016595 -0.21093 -1.1529 -0.21685 -0.14878 
-0.41365 -0.19992 -0.0034422 -0.0082102 -0.36795 -0.89325 -0.43536 -0.47991 
-0.2864 -0.16342 0.023851 0.029441 -0.082361 0.27096 -0.42303 -0.43881 
-0.036325 0.01152 0.10408 0.15308 0.34495 1.2499 -0.24414 -0.10998 
0.1853 0.12118 0.12743 0.17906 0.56264 1.2681 0.27524 0.24038 
0.29185 0.17495 0.075641 0.13647 0.54636 0.65915 0.77309 0.28823 
0.2514 0.13582 0.0034632 0.047855 0.27557 -0.040435 0.62067 0.1664 
0.13269 0.084519 -0.040435 -0.029913 -0.030406 -0.3497 0.2754 0.17248 
0.08863 0.095699 -0.038462 -0.030735 -0.23066 -0.46314 -0.040764 0.2246 
0.11905 0.14749 0.01711 -0.023172 -0.23724 -0.38949 -0.26848 0.19073 
0.13056 0.10326 0.045553 0.0042853 -0.19285 -0.26059 -0.21866 0.021384 
0.10606 0.054103 0.02829 -0.0013048 -0.15437 -0.10028 -0.049642 -0.16818 
0.081889 -0.061809 -0.028926 0.0024767 -0.14878 -0.022021 0.23003 -0.12593 
-0.040106 -0.15931 -0.053588 0.03388 -0.095185 -0.08269 0.30105 -0.028762 
-0.18315 -0.15273 -0.018075 0.035853 0.025659 -0.12889 0.232 -0.032215 
-0.16966 -0.067564 0.028125 0.10458 0.15522 -0.033201 0.0042853 0.026974 
-0.057863 0.025988 0.067256 0.1077 0.27129 0.091589 -0.15848 0.066434 
-0.031228 0.030263 0.079094 0.1128 0.49095 0.33591 -0.17213 0.040128 
-0.017746 -0.0027845 0.039963 0.071531 0.46037 0.38704 -0.045696 0.0062583 
0.059528 -0.037147 -0.01528 0.00066819 0.23594 0.30911 0.10589 0.028947 
0.17708 0.068571 -0.0036066 0.017767 0.03388 0.20947 0.24005 0.1202 
0.18678 0.1026 0.0227 -0.0032777 -0.14221 0.11329 0.26307 0.17232 
0.074983 0.089123 0.066927 0.034537 -0.13777 0.032071 0.079094 0.16311 
-0.056877 -0.047998 0.047855 0.016452 -0.1769 -0.14796 0.0034632 0.074819 
-0.058685 -0.027775 0.028125 0.029276 -0.16769 -0.30054 -0.019719 0.03388 
0.0041209 0.0085601 0.00050378 0.065612 0.016452 -0.15339 -0.15421 -0.1381 
0.0060938 -0.010676 -0.088444 0.01415 0.23282 0.31207 -0.30613 -0.26519 
-0.10078 -0.10423 -0.097322 -0.018404 0.34166 0.48733 -0.66438 -0.33391 
-0.17624 -0.11278 -0.01676 0.011026 0.2537 0.16196 -0.69069 -0.28936 
-0.054082 0.0054362 0.075312 0.067749 0.15719 -0.20288 0.21983 0.013821 
0.11888 0.013492 0.082217 0.07597 0.044073 -0.37452 1.0023 0.28214 
0.12464 -0.018733 0.0036276 -0.0021268 -0.18495 -0.57494 0.89179 0.22279 
-0.047998 -0.14895 -0.061151 -0.031392 -0.30711 -0.62608 0.20619 0.092576 
-0.096829 -0.16868 -0.061316 -0.064604 -0.29215 -0.12462 -0.52282 0.10704 
0.047691 -0.109 -0.0034422 0.0011614 0.01974 0.57809 -0.88667 0.16475 
0.17412 0.009711 0.032071 0.027961 0.33805 0.83556 -0.31912 0.21967 
0.18958 0.078765 0.049335 0.027303 0.29645 0.53912 0.61821 0.18646 
0.061172 0.11165 0.041443 0.044238 0.081889 -0.011005 0.94325 0.10721 
-0.056877 0.075312 0.0054362 0.016288 -0.045861 -0.206 0.32588 0.17692 
-0.19022 0.1003 0.042758 0.051801 -0.079401 0.1151 -0.085485 0.060844 
-0.15207 0.15209 0.064461 0.07301 0.069229 0.36928 -0.20403 -0.16835 
-0.071674 0.11757 0.060022 0.034209 0.063968 -0.22918 -0.59977 -0.20057 
-0.12774 0.032893 0.020398 -0.0019624 0.053938 -0.91216 -0.56146 -0.085156 
-0.14023 -0.022679 0.020891 0.0042853 0.10441 -0.58119 -0.25417 0.070051 
-0.036818 -0.02794 0.0052718 0.030592 0.017438 0.07597 -0.22672 0.15094 
0.095535 -0.010841 0.032071 0.01974 -0.068221 0.28642 -0.034845 0.060515 
0.14437 0.028783 0.06183 0.050157 -0.073318 0.14108 0.21671 -0.013965 
0.004943 -0.031557 0.060022 0.043416 -0.12609 -0.13415 0.13845 -0.030077 
-0.085978 -0.055561 0.057391 0.027303 -0.14829 -0.23214 0.0059294 -0.081045 
-0.038956 0.022535 0.045553 0.011191 -0.10291 -0.15898 -0.098967 -0.071345 
0.12233 0.12661 -0.028762 -0.026953 -0.08384 0.1465 -0.031228 -0.017088 
0.256 0.14108 -0.057863 -0.018568 0.016452 0.68743 0.14338 0.087972 
0.25978 0.22065 0.00083261 0.0039565 0.19764 0.88308 0.21243 0.15456 
0.20323 0.33229 0.070051 0.055089 0.28214 0.32884 0.15999 0.10145 
0.12431 0.20125 0.058706 0.058213 0.19172 -0.20847 0.06479 0.051472 
0.053774 -0.0060728 0.005765 0.03536 0.15834 -0.18495 0.049335 -0.00081153 
-0.0503 -0.25204 -0.031721 0.023028 0.071859 -0.023007 0.02681 -0.022843 
-0.07562 -0.17312 0.01711 -0.0067304 -0.064768 -0.10456 0.14897 0.03651 
-0.016924 0.0080668 0.090438 0.043087 -0.047669 -0.23461 0.14289 0.11872 
-0.023007 0.11461 0.11494 0.060022 -0.035667 -0.41185 0.024015 0.13812 
-0.05326 0.070215 0.11296 0.067091 -0.17871 -0.52858 -0.052766 0.16738 
-0.086636 0.057884 0.09833 0.0786 -0.1746 -0.30942 -0.080881 0.070873 
-0.11031 0.041772 0.044731 0.031907 -0.039284 -0.031392 -0.24398 -0.13826 
-0.076606 0.058871 -0.00097594 0.017438 -0.025638 -0.042079 -0.29659 -0.19054 
0.034866 0.15357 0.018425 -0.023829 0.033058 0.085999 -0.015116 -0.097816 
0.2463 0.28362 0.085506 0.020562 0.14979 0.50377 0.20914 0.054432 
0.36896 0.30681 0.10277 0.077778 0.27787 1.033 0.37668 0.15357 
0.36583 0.22378 0.099481 0.099645 0.34791 1.1075 0.37307 0.20372 
0.25715 0.22378 0.06479 0.12168 0.15637 0.55754 0.23956 0.15686 
0.15768 0.16179 0.053116 0.051801 -0.12379 -0.1284 0.10737 0.06331 
0.041607 0.042923 -0.013965 0.0041209 -0.22902 -0.61424 -0.047012 1.0539e-005 
-0.092226 -0.090088 -0.071181 -0.039284 -0.24036 -0.9429 -0.21159 0.072846 
-0.14106 -0.10571 -0.032708 -0.03353 -0.1792 -0.82715 -0.20666 0.13467 
-0.12001 -0.06707 0.027796 0.01415 -0.047834 -0.38801 -0.1011 0.16179 
-0.097487 -0.030406 0.044402 0.022535 0.1539 0.17577 0.019083 0.039305 
-0.008539 0.012013 0.055089 0.066763 0.26636 0.51594 0.046046 -0.17608 
0.147 0.0031344 0.028783 0.038648 0.027796 0.3096 -0.022514 -0.38768 
0.23578 0.064461 -0.00015387 0.021384 -0.17394 -0.0059084 -0.022679 -0.3298 
0.23989 0.13549 0.039305 0.023686 -0.16177 -0.072167 0.084519 -0.1575 
0.12694 0.23068 0.12743 0.055089 -0.10308 -0.097322 0.12217 -0.13941 
-0.008539 0.20586 0.1322 0.086821 -0.069865 -0.20616 0.029112 -0.1159 
-0.12593 0.083368 0.048841 0.029441 -0.051122 -0.22145 0.07038 0.22657 
-0.12955 -0.23362 -0.080388 -0.0080457 0.03388 -0.066413 0.20553 0.48503 
-0.14993 -0.41974 -0.15766 -0.035174 0.17117 0.1054 0.27902 0.42272 
-0.33276 -0.37732 -0.13284 -0.040928 0.2297 0.071859 0.080573 0.040292 
-0.39031 -0.15865 -0.055397 -0.001798 0.045718 -0.17739 -0.15174 -0.25763 
-0.15207 0.045882 0.025001 0.009711 -0.041257 -0.13432 -0.32092 -0.24135 
0.20405 0.20339 0.093562 0.11247 0.17577 0.41466 0.21145 -0.10554 
0.40825 0.23841 0.13187 0.097344 0.11576 0.75418 0.67641 0.0016547 
0.36665 0.16771 0.071366 0.088794 -0.081045 0.9107 0.52942 0.1345 
0.20997 0.15292 0.051636 0.045224 -0.13662 0.87617 0.036675 0.19484 
0.14634 0.092411 0.027796 -0.011005 -0.045696 -0.034352 -0.39951 0.14897 
0.21145 0.086492 -0.0072237 -0.0050863 0.079751 -1.152 -0.54239 0.054103 
0.15423 0.037497 -0.025967 -0.05326 0.17495 -1.5728 -0.41694 -0.023007 
-0.052437 0.048841 -0.0087034 -0.018404 0.13236 -0.82058 -0.043888 -0.052273 
-0.17312 0.023522 0.028619 0.028783 -0.0004827 0.69154 0.56395 0.015794 
-0.16013 0.037826 0.078107 0.073997 -0.027775 1.2716 0.75352 0.085835 
-0.063782 0.034373 0.080738 0.09422 0.018589 0.76043 0.50394 0.10967 
-0.035503 0.0054362 0.034044 0.053445 0.08008 0.060844 0.22296 0.078107 
-0.053917 -0.095349 -0.0014692 0.046046 0.18958 -0.30892 -0.056383 0.0052718 
-0.053095 -0.16523 -0.020706 0.0052718 0.09685 -0.44029 -0.1935 -0.1108 
-0.099624 -0.16342 -0.053588 -0.0011404 -0.0078813 -0.17591 -0.2476 -0.13826 
-0.15437 -0.18348 -0.04471 -0.024487 -0.050958 -0.048656 -0.37058 -0.10538 
-0.13908 -0.15503 -0.014458 -0.034516 -0.15865 -0.17887 -0.41283 0.0079024 
-0.094363 -0.054904 0.012999 0.011684 -0.065755 -0.11294 -0.24891 0.087479 
-0.00064712 0.082546 0.0083956 0.02533 0.26636 0.16311 0.1544 0.14535 
0.083204 0.12283 0.017274 0.07301 0.536 0.47665 0.51052 0.27113 
0.15719 0.19879 0.061008 0.063803 0.44557 0.64155 0.60785 0.37668 
0.11855 0.20865 0.10195 0.08304 0.023522 0.232 0.18333 0.27951 
0.024508 0.19977 0.09685 0.040456 -0.26996 -0.1935 -0.53664 -0.019061 
0.0421 0.085012 0.046868 1.0539e-005 -0.21998 -0.44802 -0.70154 -0.49751 
0.060844 0.0044497 0.0028056 0.0028056 -0.17509 -0.19137 0.13878 -0.70006 
0.080244 0.04654 0.051965 0.012342 -0.037311 0.23414 0.71949 -0.34361 
0.1008 0.19649 0.14239 0.080409 0.19468 0.3854 0.38836 0.27919 
0.13664 0.35465 0.21062 0.089452 0.31174 0.23101 -0.090417 0.54373 
0.21769 0.38046 0.17363 0.059857 0.11263 0.31453 0.15801 0.4362 
0.25699 0.34643 0.0786 0.023193 -0.14698 0.38573 0.4214 0.23019 
0.2805 0.24943 0.0034632 -0.033694 -0.097487 0.17955 -0.30235 0.075312 
0.244 0.25748 -0.025474 -0.00015387 -0.052766 -0.80003 -1.2375 0.18892 
0.038319 0.1368 -0.043395 -0.04471 -0.07003 -1.4993 -0.7193 0.25288 
-0.06855 0.012835 -0.013471 0.018754 0.14667 -0.39902 0.4949 0.069064 
0.010862 -0.093376 0.0051074 0.097508 0.26735 1.2302 0.97926 -0.06707 
0.17133 0.074983 0.13434 0.15012 0.1539 1.5059 0.76371 -0.026953 
0.082217 0.25074 0.21474 0.17824 -0.074798 0.43801 0.14535 0.041443 
-0.27999 0.16114 0.1174 0.039634 -0.32816 -0.91216 -0.38143 -0.018404 
-0.53006 -0.11409 -0.051451 -0.063124 -0.33605 -1.3281 -0.68954 -0.13201 
-0.50984 -0.30761 -0.13678 -0.12577 -0.20057 -0.84886 -0.61802 -0.19301 
-0.23757 -0.17854 -0.062138 -0.071838 0.027796 0.012506 -0.29676 -0.09946 
0.20865 0.075476 0.064132 0.034209 0.30516 0.56872 0.076299 0.065283 
0.48405 0.1927 0.12431 0.09833 0.66128 1.0386 0.47829 0.17248 
0.39575 0.13006 0.10491 0.15111 0.81255 1.1415 0.72393 0.079751 
0.08156 -0.10193 0.047526 0.076956 0.34413 0.4316 0.34002 -0.075784 
-0.15257 -0.33622 0.027139 0.018425 -0.21636 -0.2864 -0.13744 -0.059507 
-0.16177 -0.23938 0.018754 -0.0031133 -0.29955 -0.20173 -0.26354 0.024673 
-0.015444 -0.023336 0.045553 0.024508 -0.15421 0.064132 -0.31747 0.049664 
0.04917 0.1151 0.038155 0.041114 -0.060823 0.12727 -0.031064 -0.028269 
0.0031344 0.13286 0.0011614 0.0013258 -0.07825 0.1031 0.41318 -0.076771 
0.10655 0.16311 0.01152 -0.0091966 -0.1233 -0.068057 0.35416 0.096193 
0.24466 0.18629 0.014315 0.00083261 -0.16983 -0.30185 -0.069208 0.39592 
0.32637 0.19073 0.048513 0.029276 -0.13136 -0.32372 -0.21208 0.40743 
0.27261 0.22016 0.068736 0.067749 -0.096336 -0.31879 -0.15207 0.17692 
0.097508 0.10589 0.023028 0.035688 -0.14566 -0.41596 -0.17854 -0.12281 
-0.050793 -0.042573 -0.033201 0.015465 -0.18989 -0.51181 -0.27259 -0.24973 
-0.013471 -0.094856 -0.039284 -0.04471 -0.206 -0.4952 -0.25549 -0.21422 
-0.17953 -0.048163 -0.02794 -0.034681 -0.14303 -0.25138 -0.075291 -0.096007 
-0.38669 -0.096665 0.016123 -0.020706 -0.01939 0.11214 0.10967 -0.027282 
-0.27801 -0.096336 0.041936 0.021384 0.13105 0.4875 0.2292 -0.029255 
-0.0072237 -0.084005 0.020069 0.09126 0.33426 0.85825 0.29645 0.061337 
0.10408 -0.054904 0.035524 0.1174 0.54537 0.9985 0.44541 0.22937 
0.047033 -0.058192 0.048348 0.12661 0.49243 0.54027 0.31782 0.29727 
-0.01117 -0.13021 0.012013 0.07038 0.072024 -0.17904 -0.010676 0.10228 
-0.027118 -0.16276 -0.048492 -0.0090322 -0.19071 -0.51723 -0.4906 -0.15026 
-0.03205 -0.1889 -0.07003 -0.0064016 -0.2037 -0.39425 -0.67721 -0.52611 
-0.040764 -0.13563 -0.060494 -0.024652 -0.055397 -0.16128 -0.19581 -0.69513 
0.043745 -0.10308 -0.045861 0.019411 0.060022 0.10754 0.50558 -0.05737 
0.1396 0.044567 0.0090533 0.022535 0.026974 0.28182 0.81041 0.68841 
0.2126 0.10869 0.034209 0.023028 0.02681 0.27228 0.63054 0.706 
0.2121 0.18366 0.064954 0.033715 0.011355 0.0075736 0.21391 0.26768 
0.19303 0.13631 0.036346 0.010862 -0.088608 -0.44456 -0.19679 -0.0087034 
0.14141 0.13697 0.016288 0.0088889 -0.17673 -0.81351 -0.38307 -0.070523 
0.12316 0.19336 0.044238 -0.0055795 -0.18874 -0.39836 -0.5613 -0.049807 
0.12891 0.2223 0.058377 0.029441 -0.036818 0.27343 -0.52299 -0.11031 
0.1733 0.17445 0.029276 0.0067515 0.02829 0.51939 0.12973 -0.15947 
0.24071 0.13499 0.031249 0.010369 0.017438 0.3997 0.72754 -0.11261 
0.24943 0.084355 0.034044 0.024344 -0.029584 0.033058 0.37718 -0.18528 
0.097837 -0.075127 0.010369 0.013492 0.080409 -0.23296 -0.19729 -0.063289 
-0.10291 -0.18397 -0.033365 0.041772 0.18448 -0.25911 -0.12494 0.23989 
-0.28114 -0.21422 -0.039613 0.035524 0.1026 -0.14846 0.23496 0.26537 
-0.41217 -0.10291 0.0059294 0.042758 0.043745 0.061172 0.19747 0.049828 
-0.37124 0.0067515 0.028125 0.050814 0.048677 0.17067 -0.017253 -0.081539 
-0.22474 0.084355 0.022864 0.023686 0.0039565 0.18563 -0.19285 -0.092226 
-0.017088 0.043251 -0.0029489 0.02829 -0.028104 0.081067 -0.26864 -0.049478 
0.18317 0.019576 -0.014622 -0.018239 -0.043888 0.0036276 -0.11541 0.011026 
0.33788 0.12546 0.021056 0.015301 0.030098 0.082711 0.065283 0.066927 
0.36715 0.27277 0.0786 0.029605 0.1276 0.16196 0.19287 0.083533 
0.34018 0.36945 0.11296 0.058213 0.095371 0.11822 0.11822 0.087808 
0.26324 0.31404 0.11411 0.068242 0.06742 0.015465 0.0031344 0.069393 
0.21408 0.23183 0.096028 0.012999 0.029934 -0.088773 0.02533 0.075148 
0.11674 0.15144 0.042429 0.065612 0.019083 -0.03205 0.15933 0.075148 
0.0059294 0.12595 0.024015 0.03947 0.091753 0.075805 0.18432 0.056733 
-0.090581 0.080902 -0.0032777 0.031742 0.12201 0.14174 0.15916 0.033387 
-0.099789 0.074161 0.0046141 0.019576 0.048019 -0.0052507 0.044238 0.0072447 
-0.1256 0.0074092 0.0088889 0.013821 -0.039942 -0.095514 -0.013471 -0.018568 
-0.1473 -0.021528 0.034702 0.052294 -0.045532 -0.11935 -0.050136 -0.027282 
-0.11705 -0.047341 0.054103 0.0093821 -0.025145 -0.047176 -0.040928 -0.017911 
-0.01939 0.030592 0.0087245 0.0072447 -0.010183 -0.011005 0.034866 0.0031344 
0.043909 0.015301 0.034866 0.0085601 0.026317 0.08567 0.024015 0.034866 
0.066598 0.015959 0.040292 0.040128 0.066763 0.1784 0.057062 0.020562 
0.010697 0.023686 0.031578 0.043087 0.10178 0.27195 0.041278 0.041114 
-0.013143 0.028619 0.06035 0.071531 0.14864 0.15472 0.044073 0.057062 
0.068571 0.084519 0.065447 0.09274 0.053609 -0.045203 0.0067515 0.048348 
0.11214 0.079751 0.096357 0.058871 -0.05589 -0.19038 0.0018191 0.058377 
0.053938 0.089616 0.069558 0.035195 -0.095514 -0.22918 -0.0040998 0.043251 
-0.0057439 0.064954 0.030592 0.018754 -0.077922 -0.18611 0.015137 0.04358 
0.00066819 0.063474 0.025495 -0.0024557 -0.038298 -0.0082102 -0.0021268 0.044238 
-0.027282 0.082711 0.052294 0.0018191 -0.037147 0.061008 0.037004 -0.0073881 
-0.078908 0.18974 0.13203 0.013328 -0.042573 -0.0032777 0.0044497 -0.066413 
-0.00097594 0.19172 0.15768 0.087808 0.14716 0.026481 -0.025309 -0.033037 
0.10145 0.024015 0.058542 0.06742 0.27853 0.13828 -0.05441 -0.016924 
0.050979 -0.20995 -0.15257 0.016616 0.12694 0.066763 -0.19729 0.0069159 
0.10885 -0.22754 -0.17986 -0.036654 -0.075784 -0.16013 0.19533 0.13615 
0.1927 -0.039449 -0.085813 -0.024487 -0.12396 -0.2014 0.41302 0.18925 
0.10902 0.068078 -0.008539 0.020233 0.0083956 -0.10669 0.072681 0.072353 
-0.014458 0.052623 0.03651 0.055582 0.40973 0.25814 -0.16687 -0.021199 
-0.18693 0.025988 0.094548 0.10129 0.63531 0.77769 -0.10916 0.10178 
-0.34181 0.029769 0.15719 0.09274 0.37931 0.84658 -0.037805 0.24499 
-0.30415 -0.019555 0.13483 0.049992 -0.061973 0.3581 -0.0027845 0.1493 
-0.14221 0.059035 0.090603 0.0059294 -0.32487 -0.22195 0.037332 -0.026131 
0.099645 0.16377 0.074819 -0.037805 -0.35529 -0.52578 0.1299 -0.10653 
0.24285 0.26126 0.096028 0.03536 -0.17213 -0.62098 0.11181 -0.075949 
0.27869 0.22526 0.10556 0.055911 0.020727 -0.30514 0.021549 -0.056548 
0.23414 0.15357 0.079751 0.080738 0.13532 0.19944 -0.066906 -0.030899 
0.15456 0.11296 0.048019 0.08304 0.11461 0.49194 0.092411 0.022864 
0.017932 0.010533 0.0052718 0.020562 0.022042 0.33558 0.15555 0.092411 
-0.019555 0.018754 -0.0067304 0.009711 -0.072332 -0.23921 -0.11722 0.15259 
0.050814 -0.0049219 -0.025802 -0.024487 -0.096172 -0.62345 -0.26535 0.12743 
0.068242 -0.0022913 -0.044874 -0.013965 -0.049478 -0.44292 -0.12938 0.065447 
0.028947 -0.023994 -0.023994 0.0042853 0.021056 0.11313 0.13088 0.017603 
0.027961 0.050814 0.048184 0.021384 0.058377 0.35021 0.069064 0.017603 
0.042429 0.019083 0.051801 0.035853 0.054925 0.19139 -0.14599 0.063474 
-0.025145 -0.10867 0.011191 -0.0072237 0.13828 0.073668 -0.2037 0.036675 
-0.089759 -0.22178 -0.015609 0.033058 0.24351 0.47763 0.16196 -0.12593 
-0.073318 -0.21932 -0.022021 0.028454 0.22641 1.0419 0.75681 -0.21554 
-0.0011404 -0.16506 0.004943 0.037332 0.047362 0.96446 1.0005 -0.019226 
0.032236 -0.11935 -0.02087 0.01415 -0.026624 0.32078 0.51216 0.23644 
-0.027611 -0.1016 -0.028433 0.00033937 -0.04882 -0.4735 -0.29939 0.21095 
-0.054904 -0.066577 0.017932 0.026317 0.011684 -0.87533 -0.67622 0.040621 
-0.053753 0.073175 0.024508 0.01267 0.089452 -0.7512 -0.55456 0.046211 
0.072517 0.20224 0.05772 0.059857 0.12168 -0.2864 0.014643 0.038155 
0.24055 0.27442 0.1031 0.077121 0.027468 -0.046683 0.3997 -0.10193 
0.2588 0.22789 0.11872 0.073175 -0.21932 -0.093048 0.047855 -0.23379 
0.092411 0.16311 0.070051 0.037168 -0.31797 -0.0036066 -0.53516 -0.11804 
-0.11639 0.079422 0.043251 -0.00031829 -0.121 0.22723 -0.31418 0.11017 
-0.21192 0.076956 0.033715 0.03799 0.1276 0.43143 0.25091 0.34133 
-0.072167 0.071695 0.0324 0.03799 0.30911 0.47911 0.57677 0.50246 
0.075641 0.072188 0.034209 0.024837 0.45231 0.49835 0.47139 0.33722 
0.12085 0.032729 0.014808 0.015465 0.26537 0.18004 -0.047669 -0.016102 
0.13861 -0.00015387 0.01563 0.0062583 -0.10735 -0.19942 -0.52299 -0.30974 
0.21375 0.0016547 0.010697 0.044731 -0.31862 -0.35808 -0.51 -0.35792 
0.25387 -0.03912 0.0052718 0.024508 -0.12922 -0.12511 0.069558 -0.16572 
0.17939 -0.02498 0.015301 0.047197 0.16837 0.3073 0.70485 0.084519 
0.010533 -0.013636 0.028454 0.037497 0.16919 0.50394 0.66671 0.13072 
-0.063453 0.088465 0.057884 0.0072447 -0.041093 0.19385 0.14091 0.13088 
-0.088608 0.11115 0.06331 0.031742 -0.1598 -0.31879 -0.29462 0.050157 
-0.083676 0.076792 0.029934 -0.0098543 -0.11886 -0.53598 -0.50096 -0.068879 
-0.1011 -0.067235 0.011848 0.035031 0.043087 -0.25993 -0.39064 -0.12823 
-0.17147 -0.1233 0.024837 0.042265 0.17791 0.11905 -0.083018 -0.095843 
-0.20189 -0.10752 0.032893 0.063803 0.11115 0.13286 0.27392 -0.064604 
0.042429 -0.047341 -0.0096899 0.0014903 -0.044874 -0.22244 0.25798 0.08978 
0.244 0.06183 -0.031064 -0.05589 -0.17624 -0.42007 0.11757 0.33492 
0.2246 0.16081 0.0069159 -0.017746 -0.13875 -0.2037 -0.019884 0.36353 
0.15735 0.28346 0.055089 0.013986 -0.049478 0.15966 -0.17476 0.18465 
0.10408 0.26587 0.071202 0.040621 -0.012814 0.050321 -0.28031 -0.047012 
0.11378 0.16755 0.03536 0.0085601 -0.043395 -0.1838 -0.11278 -0.22343 
0.083533 0.054103 0.031907 0.010533 -0.043724 -0.054246 -0.0096899 -0.19334 
0.072681 0.076134 0.05065 0.090274 0.17544 0.26751 0.20635 -0.21192 
0.10474 0.1197 0.041443 0.071202 0.25058 0.30335 0.52679 -0.15585 
0.17215 0.21457 0.028619 0.053938 0.076627 -0.14862 0.28954 0.011684 
0.086657 0.12102 -0.004593 -0.024816 -0.1233 -0.38044 -0.19811 0.095864 
-0.13349 -0.030077 -0.043395 -0.049971 -0.19893 0.043251 -0.30531 0.050157 
-0.29051 -0.1205 -0.047834 -0.031228 -0.071181 0.43521 0.1539 0.084519 
-0.20551 -0.015938 0.0064227 0.03536 0.22509 0.39362 0.26916 0.17034 
-0.095514 0.067091 0.047033 0.10918 0.29332 -0.15881 -0.091239 0.18087 
-0.034681 -0.011827 0.044402 0.043087 0.11214 -0.41333 -0.35282 0.051143 
0.00066819 -0.12511 0.038155 0.033715 -0.036983 -0.20501 -0.22918 -0.056383 
0.015465 -0.11146 0.0421 0.024837 -0.069372 0.043745 -0.040271 -0.014787 
0.061008 -0.039449 0.069393 0.039634 0.031578 0.20191 0.032236 0.058377 
0.091096 0.031742 0.063639 0.051801 0.095206 0.17708 -0.046683 0.043416 
0.068407 0.14075 0.039799 0.015959 0.033387 0.031578 -0.14813 -0.0054151 
0.053609 0.18892 0.030756 0.061501 -0.038791 0.042758 -0.025967 -0.024816 
0.047033 0.24762 0.037661 0.016945 -0.067892 -0.04323 0.067749 -0.03057 
0.032236 0.20454 0.053609 0.040292 -0.057699 -0.13284 0.16936 -0.012649 
-0.021363 0.045389 0.020891 0.01004 -0.0068948 -0.098473 0.21638 -0.0075525 
0.012177 -0.10028 0.022042 -0.0073881 0.13286 0.07597 0.24038 0.052294 
0.14946 -0.087951 0.011355 0.040292 0.08008 0.1197 0.15111 0.080244 
0.2468 0.021056 0.010533 0.020891 -0.056877 -0.042901 0.13894 0.097015 
0.21358 0.054103 -0.010841 0.0052718 -0.17838 -0.20518 0.10244 0.06479 
0.072681 0.079422 0.0036276 -0.012156 -0.13793 -0.22458 0.010862 -0.012156 
-0.074633 -0.0049219 0.037332 0.0069159 -0.016431 -0.14171 -0.18479 -0.062631 
-0.14796 -0.093048 0.035195 0.050814 0.14469 0.036675 -0.34296 -0.11376 
-0.097651 -0.11343 0.0090533 0.019411 0.21901 0.22509 -0.22195 -0.038462 
0.050157 0.0041209 -0.015609 0.013986 0.22608 0.34347 0.44475 0.1835 
0.14798 0.10228 -0.0090322 0.025659 0.27228 0.30927 0.68249 0.25863 
0.12825 0.21621 0.047526 0.090603 0.15259 -0.012814 0.19764 0.12908 
0.035195 0.24877 0.082711 0.067256 -0.13859 -0.33243 -0.14961 -0.014129 
-0.082196 0.12283 0.052294 -0.00064712 -0.3298 -0.33934 -0.30991 -0.18463 
-0.18545 -0.028433 -0.0072237 -0.015116 -0.1866 -0.010019 -0.29314 -0.24858 
-0.1108 -0.1307 -0.015116 0.0054362 0.12299 0.42749 -0.077757 0.10524 
0.021713 -0.14171 0.0014903 0.053116 0.3392 0.60489 0.18547 0.36238 
0.086657 -0.11903 0.037661 0.078765 0.3221 0.38984 0.27475 0.33344 
0.057555 -0.031064 0.10277 0.087479 0.1151 0.058871 0.18333 0.014315 
0.047691 -0.00064712 0.13434 0.092247 -0.092226 -0.066741 0.01711 -0.24513 
0.067091 0.080409 0.11148 0.03947 -0.10735 0.014479 -0.036489 -0.34444 
0.099645 0.068078 0.046046 0.04358 -0.015773 0.013164 0.066927 -0.090088 
0.095206 0.081395 -0.020212 0.0052718 -0.057534 -0.26535 0.080738 0.23052 
0.038977 0.058049 -0.02646 0.00033937 -0.21356 -0.55258 -0.0032777 0.24647 
0.021878 0.077943 -0.016102 -0.019719 -0.25269 -0.2254 -0.025802 0.11576 
0.10836 0.11674 0.014315 -0.0042642 -0.10127 0.40036 0.12316 0.085999 
0.22641 0.18974 0.08978 0.055582 0.066269 0.54981 0.090274 0.14469 
0.29875 0.24745 0.15423 0.070215 0.18662 0.071037 -0.03205 0.15604 
0.26258 0.22789 0.16936 0.10195 0.27655 -0.42631 -0.028269 0.098001 
0.22805 0.20273 0.13532 0.057227 0.32752 -0.48435 0.011355 -0.015609 
0.20569 0.15999 0.10408 0.057391 0.22049 0.050486 -0.024816 -0.10965 
0.17149 0.14683 0.023522 0.04358 0.064296 0.41006 0.0689 -0.014787 
-0.089924 -0.024652 -0.083512 -0.020706 -0.12609 0.48717 0.18843 0.071695 
-0.44818 -0.16555 -0.18167 0.0060938 -0.20189 0.31914 0.1858 0.0021479 
-0.62131 -0.26354 -0.18693 -0.071509 -0.18101 0.023357 -0.00031829 -0.13316 
-0.29774 -0.10308 -0.044217 -0.0019624 0.051308 -0.16983 -0.18545 -0.18611 
0.06035 0.090931 0.088136 0.077778 0.35778 0.027632 -0.21948 -0.11952 
0.14042 0.13598 0.10918 0.074654 0.33015 0.081724 0.080902 -0.093048 
0.060022 0.10441 0.078929 0.05065 -0.0050863 -0.12478 0.35679 0.046704 
0.072024 0.07449 0.070873 -0.0055795 -0.13859 -0.20666 0.15259 0.24828 
0.13286 0.059528 0.071037 0.050979 0.031578 0.081067 0.071366 0.44475 
0.13631 -0.0095255 0.058213 0.065447 0.25732 0.52597 0.20471 0.39691 
0.13417 0.020398 0.068242 0.089123 0.22772 0.8303 0.22986 0.14009 
0.15374 0.079258 0.070051 0.085999 0.035195 0.6113 0.0016547 -0.090417 
0.21737 0.18909 0.062817 0.045718 -0.087458 0.15226 -0.061151 -0.10423 
0.19024 0.15094 0.060844 0.050814 -0.10505 -0.26815 -0.022843 -0.10045 
0.092411 0.093726 0.014808 0.0072447 -0.094692 -0.53088 -0.025474 -0.10571 
0.054596 0.0093821 0.00083261 0.016616 -0.036654 -0.50474 -0.064933 -0.039942 
0.021713 0.017603 0.021056 0.024015 0.020562 -0.2397 -0.050136 0.04358 
-0.02646 0.014808 0.029276 0.0026412 -0.0011404 -0.073647 -0.023172 0.10162 
-0.018075 0.012999 0.023028 0.03651 -0.02498 0.029934 0.041443 0.14239 
0.023522 0.086492 0.01974 0.022042 0.041772 0.0032988 0.11494 0.11066 
0.047691 0.17117 0.061666 0.049335 0.053774 -0.0503 0.055418 0.041936 
-0.046683 0.23496 0.067091 0.019905 -0.013307 -0.14517 -0.15848 -0.19022 
-0.21389 0.14535 0.017932 -0.0021268 -0.035667 -0.054082 -0.12462 -0.20222 
-0.29725 0.067585 -0.021199 -0.020048 -0.032215 0.078436 0.15028 0.13976 
-0.23428 0.035195 -0.024158 -0.033859 0.010204 0.17265 0.19435 0.34133 
-0.097816 0.018918 -0.031228 -0.00081153 0.047362 0.31174 0.088794 0.23907 
-0.049642 -0.12462 -0.027282 0.0088889 0.098166 0.50558 -0.015116 -0.12198 
-0.018075 -0.22688 -0.027118 0.031085 0.11231 0.49539 -0.28048 -0.35923 
0.0041209 -0.24349 0.0075736 0.035031 0.2029 0.50427 0.1151 -0.19515 
0.039963 -0.24579 0.042758 0.068571 0.24005 0.2006 0.93947 0.21506 
0.096686 -0.21159 0.07301 0.09833 0.11658 -0.206 0.7818 0.37323 
0.19122 -0.09091 0.065283 0.044567 -0.072003 -0.39803 -0.25878 0.064625 
0.24104 0.11263 0.087643 0.039634 -0.052273 -0.32668 -1.103 -0.19548 
0.2103 0.23677 0.088136 0.044238 0.03092 -0.26782 -0.99962 -0.14139 
0.090767 0.27327 0.037826 0.041114 0.00083261 -0.3469 -0.41152 0.14305 
0.0032988 0.22509 0.018754 -0.001798 -0.13316 -0.34937 0.3854 0.31305 
-0.052931 0.21309 0.004943 -0.009361 -0.15174 -0.045203 0.82438 0.1008 
-0.045368 0.15061 0.030098 0.033222 -0.1279 0.15505 0.42551 -0.12445 
-0.069701 0.11181 0.031742 -0.015938 -0.074304 0.079094 -0.046025 -0.07825 
-0.040764 -0.050793 -0.023501 0.0067515 -0.053753 -0.1256 -0.23658 0.03651 
0.082053 -0.1838 -0.063289 0.0067515 0.029934 -0.11623 -0.10587 0.037661 
0.12661 -0.1187 0.033222 0.042758 0.10425 0.1465 0.051801 0.053938 
0.096521 0.11165 0.10639 0.080244 0.12233 0.22049 0.0689 0.024015 
0.08978 0.26373 0.14733 0.066105 -0.052437 -0.014951 -0.10834 -0.031064 
0.082217 0.21358 0.11362 0.063474 -0.10225 -0.1547 -0.15224 -0.065262 
-0.023665 0.012835 0.051143 0.018589 -0.024487 -0.046354 -0.085649 -0.063618 
-0.040928 -0.15372 -0.020377 -0.0098543 0.15999 0.07449 0.077285 0.034537 
-0.12889 -0.18413 -0.069536 -0.031557 0.23118 0.12102 0.17676 0.032893 
-0.17789 -0.26174 -0.069372 -0.074633 0.17133 -0.028597 0.046704 -0.028104 
-0.11426 -0.17394 -0.051944 0.0062583 0.0031344 -0.096994 -0.036654 -0.036818 
-0.0965 -0.066413 -0.010019 0.038977 -0.080717 -0.037311 -0.058521 -0.062631 
-0.13267 0.0090533 0.042265 0.06479 -0.049642 -0.06 0.0070803 -0.078579 
-0.13958 0.00033937 0.026974 0.03651 -0.12774 -0.36154 -0.14073 -0.038956 
0.032729 0.020233 0.020398 0.00033937 -0.20074 -0.54814 -0.2231 0.01974 
0.29332 0.097508 0.048184 0.040292 -0.066741 -0.24102 -0.11179 0.11592 
0.48109 0.18744 0.10655 0.070051 0.23562 0.22049 0.064296 0.1493 
0.47254 0.23134 0.099645 0.083697 0.36912 0.2537 0.094713 0.12365 
0.37011 0.232 0.08304 0.040621 0.16492 0.071859 0.0067515 0.064461 
0.30007 0.24811 0.06594 0.025988 -0.12988 -0.15437 0.082053 0.0069159 
0.20553 0.19418 0.033058 0.0074092 -0.1718 0.11263 0.50969 0.067585 
0.12349 0.19172 0.020069 0.0082312 -0.029584 0.40282 0.61739 0.17429 
-0.15437 0.090274 0.0088889 0.039634 0.018754 0.31453 0.28165 0.09833 
-0.56212 -0.063946 -0.012485 0.011355 0.034702 0.053281 -0.26453 -0.10439 
-0.63216 -0.2032 -0.010183 0.0080668 0.093726 -0.19498 -0.86185 -0.2282 
-0.55587 -0.1427 -0.023007 -0.029584 0.12842 0.018918 -0.48731 -0.35233 
-0.23494 -0.023172 0.032729 0.01563 0.19517 0.47928 0.44459 -0.21685 
0.28198 0.096357 0.080244 0.069064 0.1613 0.42584 0.54636 0.17692 
0.60768 0.15176 0.078765 0.071531 0.061666 0.12464 0.089452 0.4658 
0.55474 0.087479 0.038483 0.075641 0.057062 -0.068879 -0.051451 0.39329 
0.3489 0.00083261 -0.023501 0.047855 0.060022 -0.13119 0.056076 0.16821 
0.19681 -0.02794 -0.032543 0.04358 -0.0064016 -0.22935 0.0021479 -0.0059084 
0.14256 0.044896 0.015959 0.057884 -0.021199 -0.19022 -0.043724 -0.043559 
0.10408 0.066105 0.041278 0.035688 0.022042 -0.094363 0.022042 -0.012649 
0.089287 0.098659 0.07038 0.083697 0.053774 0.014808 0.097015 0.010204 
-0.006566 0.083533 0.041607 0.026974 0.027961 0.020891 -0.031228 0.0054362 
-0.11228 0.099974 0.055911 0.024344 -0.030406 0.060515 -0.077428 -0.0098543 
-0.20222 0.073997 0.056898 -0.0095255 -0.039778 0.047855 -0.048656 -0.019884 
-0.24661 0.11017 0.092411 -0.021199 0.0026412 0.17643 0.043251 -0.030242 
-0.2402 0.15028 0.092247 0.023357 0.029112 0.23808 0.25913 -0.023994 
-0.109 0.16607 0.063639 0.011355 0.027139 0.16985 0.36961 -0.030077 
0.082217 0.17215 0.046704 0.041936 0.0054362 -0.011334 0.17265 0.025659 
0.22411 0.17314 -0.001798 -0.0073881 0.022535 -0.078908 0.023851 0.081395 
0.17922 0.047362 -0.03616 0.026317 0.0041209 -0.12001 -0.0082102 0.10721 
0.10918 -0.050958 -0.049149 0.049828 -0.10637 -0.17147 -0.033859 0.068407 
0.051308 -0.058685 -0.030899 0.031907 -0.22557 -0.21274 -0.025309 0.053445 
0.014808 0.00297 -0.043888 0.048677 -0.23773 -0.16029 -0.070194 0.026974 
0.0011614 0.098988 0.034373 0.019576 -0.19268 -0.019884 -0.048327 0.0085601 
-0.0050863 0.15703 0.083368 0.036182 -0.065591 0.16508 -0.033201 0.034044 
0.065118 0.17741 0.080738 0.030756 0.10178 0.25715 -0.011005 0.065283 
0.091096 0.12036 0.073175 0.068078 0.25535 0.26011 -0.049642 0.098001 
0.076299 0.16262 0.090603 0.12135 0.55787 0.30977 -0.087951 0.068407 
0.071202 0.21835 0.080409 0.071202 0.66243 0.22493 -0.23066 -0.0040998 
0.066598 0.093069 -0.0091966 0.0095465 0.31832 -0.25812 -0.14566 -0.11574 
-0.045532 -0.19186 -0.12462 -0.072989 0.081395 -0.38998 0.26307 -0.17838 
-0.13366 -0.44884 -0.12971 -0.087786 -0.11294 0.1493 0.46991 -0.072989 
-0.10932 -0.33506 -0.076935 -0.062138 -0.12231 1.0633 0.081889 0.085999 
0.02829 -0.038133 0.019247 -0.019719 -0.0138 1.3956 -0.28574 0.23085 
0.017603 0.18152 0.048184 0.037661 -0.061973 0.69269 0.033058 0.15883 
-0.095514 0.18448 0.094055 0.029934 -0.023665 -0.13037 0.92862 0.044896 
-0.1085 0.13532 0.097344 0.060679 0.024344 -0.59484 1.1655 -0.066084 
0.029605 0.041278 0.093726 0.072188 0.08304 -0.59254 0.36879 0.014972 
0.12102 0.061172 0.12168 0.11148 0.034866 -0.38653 -0.42286 0.24186 
0.098823 0.037661 0.11559 0.13746 -0.057699 -0.27029 -0.5876 0.20487 
-0.0075525 -0.06444 0.048677 0.093726 -0.18495 -0.23938 -0.52447 0.024673 
-0.00064712 -0.086471 -0.010512 0.046704 -0.18676 -0.2185 -0.47465 -0.078415 
0.086985 -0.045861 -0.045532 -0.001798 -0.097158 -0.11689 -0.31961 -0.086636 
0.12447 -0.039449 -0.050629 -0.019226 0.06742 0.03536 -0.2499 -0.018404 
0.1197 -0.074469 -0.05326 -0.050136 0.12908 0.18054 -0.017088 -0.003771 
0.069722 0.025001 -0.041093 -0.060658 0.092411 0.13532 0.11494 -0.096007 
0.044567 0.08419 0.0070803 -0.0090322 0.064461 0.16525 0.13549 -0.16588 
0.036017 0.15703 0.06183 0.0098754 0.10721 0.32966 0.23989 -0.12494 
0.018425 0.094055 0.10113 0.063145 0.15292 0.32259 0.30171 -0.0060728 
0.032729 0.094548 0.12102 0.078929 0.15144 0.11477 0.38507 0.16919 
0.1128 0.11839 0.10359 0.066105 0.054925 -0.10176 0.32506 0.27425 
0.19057 0.14568 0.084684 0.081395 0.018754 -0.076606 0.086328 0.18185 
0.12497 0.071202 0.034702 0.044567 0.044238 0.14486 -0.094199 0.05476 
0.047855 -0.028104 -0.0059084 0.038483 0.081395 0.25683 -0.080059 0.029441 
-0.0016336 -0.014951 -0.038298 0.0031344 0.1294 0.20898 -0.059836 0.016452 
-0.041586 0.024015 0.00017495 0.015137 0.12316 0.10737 0.020398 0.034373 
-0.09091 0.05476 0.028783 0.00033937 0.022042 -0.050793 0.031249 0.038648 
-0.066577 0.022371 0.027796 0.010697 -0.11376 -0.11146 0.024673 0.011848 
-0.045532 0.020727 0.050321 0.010369 -0.13711 -0.16769 -0.013471 -0.00015387 
-0.076606 -0.13103 0.053281 0.022864 -0.026624 -0.076442 0.016616 0.052952 
0.011684 -0.13021 0.055254 0.060515 -0.017911 -0.017911 0.17182 0.087808 
0.11033 -0.039284 0.093562 0.070873 0.0034632 -0.027611 0.26521 0.14963 
0.094384 0.10573 0.09274 0.06331 0.044238 -0.051287 0.15275 0.049992 
0.10376 0.17889 0.10359 0.058871 0.18021 0.036675 -0.31303 -0.24036 
0.076463 0.19961 0.077121 0.050157 0.25847 0.016616 -0.54798 -0.28443 
0.010369 0.19468 0.055418 0.051636 0.10967 -0.067399 -0.25911 -0.087293 
-0.13201 0.10589 0.029276 -0.0067304 -0.13168 -0.28229 0.061008 0.10836 
-0.18035 -0.023501 0.0047785 0.013328 -0.30218 -0.32125 0.35514 0.12957 
-0.20682 -0.17887 -0.031721 -0.036654 -0.36384 -0.19433 0.56987 0.048841 
-0.11196 -0.2305 -0.036818 -0.038956 -0.34378 -0.12462 0.16344 0.024837 
-0.0078813 -0.15158 -0.032708 -0.012814 -0.16523 -0.17789 -0.37304 0.044731 
0.035195 0.061337 0.013164 -0.008539 0.035031 -0.25779 -0.63101 0.033715 
0.08008 0.19599 0.098494 0.055418 0.13056 -0.34493 -0.49389 -0.0032777 
0.1807 0.28494 0.1174 0.10967 0.26702 -0.029255 -0.14582 0.032236 
0.27886 0.27491 0.10113 0.10984 0.36238 0.55458 0.14174 0.053445 
0.37126 0.30122 0.091425 0.092082 0.30681 0.67131 0.27047 0.072353 
0.29398 0.32308 0.079422 0.048019 0.13171 0.22641 0.25798 0.048348 
0.030756 0.2754 0.057884 0.038155 -0.073976 -0.29659 0.17791 0.030592 
-0.18232 0.19895 0.056898 -0.01117 -0.20074 -0.49849 0.075312 -0.0014692 
-0.2185 0.086328 0.042923 -0.010183 -0.18791 -0.29445 0.10984 0.035688 
-0.077264 -0.0004827 -0.045696 -0.02498 -0.16572 -0.095843 0.11033 0.08863 
0.10425 -0.006566 -0.042901 0.011355 -0.023007 0.075148 0.062817 0.05772 
0.15785 0.095535 0.043251 0.089452 0.065776 0.11 -0.18594 -0.00097594 
0.074161 0.10343 0.064954 0.054925 0.02122 0.071695 -0.35923 -0.17805 
-0.033859 0.011848 0.040292 0.043909 -0.075291 -0.077428 0.0092177 -0.34197 
-0.10505 -0.088444 0.004943 0.013657 -0.053424 -0.035832 0.52383 -0.074304 
-0.049478 -0.10143 0.0024767 0.011355 0.01826 -0.020706 0.43505 0.36813 
-0.01117 -0.11491 0.023686 0.01004 0.049006 0.039963 0.011026 0.35728 
-0.01676 -0.11097 0.0090533 0.0011614 0.058049 0.06183 -0.33556 0.013328 
-0.056219 -0.11294 0.024837 0.042758 0.12513 0.042594 -0.30021 -0.14566 
-0.1062 -0.11656 0.0051074 0.013986 0.10162 -0.12511 -0.14993 -0.1039 
-0.11376 -0.08384 -0.033365 0.0098754 0.030098 -0.28443 -0.036654 0.021384 
-0.00015387 -0.051944 -0.028104 0.0026412 0.0036276 -0.24908 0.064296 0.10408 
0.08978 0.0041209 0.0080668 0.029112 0.060186 0.065447 0.16459 0.098659 
0.10589 0.055582 0.018754 0.070051 0.13976 0.41532 0.17922 0.011684 
0.081231 0.15653 0.028125 0.053774 0.17659 0.57842 -0.032708 -0.057041 
0.08008 0.17807 0.026481 0.068571 0.17807 0.48421 0.15916 -0.018733 
0.051965 0.16196 -0.00097594 0.039305 0.088465 0.27343 0.4556 0.14272 
0.07038 0.10721 -0.038462 0.0085601 0.03799 0.056404 0.34873 0.19846 
0.18251 0.10672 -0.019555 0.022206 0.005765 -0.082196 0.11378 0.1271 
0.31716 0.10606 0.005765 0.0032988 -0.032379 -0.10061 0.010862 0.088794 
0.27623 0.09274 0.04095 0.036182 -0.035667 -0.088937 -0.22951 0.022371 
0.13516 0.077778 0.087643 -0.0087034 -0.037311 -0.109 -0.45344 -0.034188 
0.012999 0.018918 0.055582 0.019576 -0.025802 -0.12166 -0.31402 -0.076442 
0.043745 0.0092177 0.041114 0.011684 -0.010841 -0.10028 0.11346 -0.009361 
0.09685 -0.012156 0.019411 -0.0082102 -0.033859 -0.075291 0.43538 0.034702 
0.088465 -0.0022913 0.037826 0.025495 -0.05589 -0.064768 0.25107 0.051636 
0.059857 -0.035832 0.029769 0.046868 0.050814 0.026974 -0.036654 0.077449 
0.017438 -0.056055 0.058049 0.10425 0.23266 0.16755 -0.084991 0.11872 
-0.048492 -0.087293 0.044073 0.076792 0.15851 0.055254 0.020398 0.062817 
-0.14615 -0.036654 0.01004 0.025659 0.062323 0.077778 0.08156 0.017767 
-0.16983 -0.055068 -0.046025 -0.027447 0.19402 0.49259 0.12513 -0.0068948 
-0.085156 -0.050136 -0.096172 -0.045532 0.16294 0.54208 0.11099 0.0042853 
0.044731 -0.011334 -0.10883 -0.027447 0.011026 0.26028 0.07449 0.013492 
0.1151 0.041607 -0.0057439 -0.0042642 -0.027118 0.012835 0.052623 0.046046 
0.14831 0.15456 0.091425 0.062488 -0.075949 -0.041422 0.0044497 0.050814 
0.16278 0.19665 0.16738 0.076627 -0.10028 0.048513 0.035853 0.10047 
0.13598 0.1927 0.14256 0.061501 -0.042244 0.0080668 0.067091 0.093726 
0.12201 0.079751 0.083697 0.059693 0.046211 0.091425 0.090767 0.10869 
0.057227 -0.016102 0.023028 0.027468 0.23841 0.33295 0.06035 0.12184 
0.048348 -0.086307 -0.012814 0.0421 0.20619 0.341 0.0082312 0.11247 
0.047197 -0.034023 -0.0014692 0.013657 -0.032872 -0.081539 -0.16424 -0.026131 
-0.01528 -0.01528 0.015959 0.020891 -0.17624 -0.40478 -0.076113 -0.18052 
-0.097487 0.01152 0.037497 -0.0087034 -0.1815 -0.2596 0.34528 -0.19992 
-0.11541 0.050979 0.070544 -0.0026201 -0.10193 0.038483 0.46366 -0.12314 
-0.046519 0.16673 0.064296 0.027961 -0.014622 0.0085601 0.005765 -0.059836 
0.058871 0.19928 0.05772 0.03388 0.063968 -0.20485 -0.16884 0.034044 
0.14404 0.1562 0.041114 0.058049 0.24367 -0.24645 -0.15339 0.11576 
0.21408 0.15028 0.065118 0.048184 0.35087 0.21145 -0.00064712 0.20898 
0.2052 0.15324 0.086328 0.04654 0.16459 0.43489 0.14256 0.34002 
0.14716 0.14617 0.055254 0.060022 -0.07414 0.26768 0.13565 0.33262 
-0.016595 0.047362 0.018589 -0.012649 -0.19466 -0.10883 0.039799 0.10359 
-0.22162 -0.025309 0.0092177 -0.004593 -0.18019 -0.076606 -0.025145 -0.15766 
-0.30152 -0.039942 0.0019835 -0.015444 -0.081045 0.20027 -0.041915 -0.1649 
-0.17789 0.03947 0.044567 0.032236 0.040785 0.27886 -0.042737 -0.039778 
-0.0072237 0.033222 0.051965 0.034209 0.04917 -0.019226 -0.07266 0.060186 
0.11592 -0.0088678 0.037004 0.027961 -0.026624 -0.23938 -0.14106 0.032564 
0.18465 0.010697 0.016781 0.052623 -0.035667 -0.28475 -0.067399 -0.013307 
0.20717 0.11247 0.086492 0.019083 0.0019835 -0.20534 0.053445 -0.065426 
0.12661 0.16755 0.12184 0.10902 0.1539 0.023357 0.10096 -0.0055795 
-0.12642 0.048513 0.061008 0.048841 0.22098 0.18481 -0.031886 -0.03764 
-0.28985 -0.06148 -0.012978 -0.0049219 0.22197 0.3244 -0.032708 -0.074469 
-0.24266 -0.090581 0.0018191 0.0013258 0.14733 0.46991 -0.0067304 -0.045861 
-0.056219 0.03651 0.066269 0.037661 0.081724 0.42913 0.30927 -0.02794 
0.059528 0.12891 0.10392 0.081889 -0.063289 0.15357 0.60357 0.0087245 
0.11822 0.21358 0.089123 0.0067515 -0.20715 -0.25763 0.41187 0.088136 
0.15883 0.19007 0.024508 -0.012649 -0.15618 -0.40363 0.085341 0.17873 
0.20257 0.13582 0.0019835 0.0018191 0.086821 -0.30333 -0.20337 0.14683 
0.21868 0.047033 0.015794 0.020398 0.2856 -0.083347 -0.37535 0.060022 
0.15719 -0.051451 0.032071 0.041936 0.39756 0.16015 -0.45361 -0.016595 
0.084684 -0.047669 0.077285 0.0324 0.25354 0.22312 -0.26996 -0.047998 
-0.0060728 -0.0016336 0.11214 0.055582 -0.048163 0.040785 0.026974 -0.029748 
-0.109 0.021384 0.074654 0.042594 -0.22836 -0.087129 0.36369 0.020069 
-0.24118 0.019247 0.025988 0.03536 -0.18775 -0.10521 0.37027 0.1271 
-0.28229 -0.027118 -0.059014 0.025824 -0.13875 -0.12083 -0.010183 0.14272 
-0.19482 -0.13218 -0.088773 -0.027447 -0.13925 -0.18528 -0.35249 0.18103 
-0.18512 -0.13678 -0.12823 0.0032988 -0.11804 -0.19071 -0.32586 0.04358 
-0.1376 -0.068879 -0.071674 0.022371 -0.064933 -0.15964 0.017767 -0.14385 
0.025659 0.08863 0.023028 0.06594 0.0088889 -0.08532 0.305 -0.2841 
0.17544 0.18284 0.094384 0.0786 0.12529 -0.063618 0.24022 -0.15947 
0.22624 0.21243 0.086985 0.052294 0.13483 -0.041093 -0.008539 -0.010676 
0.19879 0.12644 0.064132 0.04095 0.2537 0.082217 -0.19663 0.15604 
0.23035 0.054103 0.049335 -0.0049219 0.2468 0.10869 -0.18808 0.32999 
0.24153 0.04095 0.034373 0.004943 0.0036276 -0.05441 -0.014622 0.31684 
0.16031 -0.00015387 0.028125 -0.004593 -0.15914 -0.021199 0.0016547 0.14798 
0.1197 0.026646 0.047033 0.025001 -0.011005 0.24088 0.16426 -0.051944 
0.11214 0.06479 0.038155 0.04917 0.10162 0.34314 0.15735 -0.32915 
0.1322 0.18251 0.06035 0.023686 0.11115 0.22559 0.050979 -0.45953 
0.17462 0.19468 0.042923 0.052623 0.11987 0.047855 0.023193 -0.19548 
0.19451 0.11888 0.035031 0.021713 0.18366 -0.092226 0.054925 0.10803 
0.096686 -0.025638 0.023193 0.032236 0.088958 -0.22869 -0.053753 0.21539 
-0.18068 -0.034681 0.015794 0.027632 -0.087129 -0.28837 -0.19926 0.20405 
-0.24349 0.083368 0.023028 0.022535 -0.25253 -0.45805 -0.19696 0.15456 
-0.063453 0.24828 0.074161 0.036675 -0.34624 -0.45739 -0.058192 0.14502 
0.034373 0.27655 0.088301 0.040621 -0.2374 -0.10373 0.072846 0.13516 
0.11395 0.20816 0.10343 0.08304 -0.050793 0.19977 0.019411 0.083204 
0.027468 0.016123 0.052787 0.040456 0.055582 -0.0039354 0.091918 -0.11015 
-0.37896 -0.34592 -0.060494 0.015301 0.027468 -0.44078 -0.11064 -0.26552 
-0.6269 -0.47876 -0.14352 -0.039613 0.053938 -0.39179 0.067913 -0.22195 
-0.29955 -0.27292 -0.088115 -0.031721 0.30714 0.51397 0.55524 -0.086964 
0.25469 -0.012485 0.0042853 0.066927 0.30303 1.1752 0.63892 -0.015609 
0.48635 -0.20304 -0.02235 0.021713 0.24499 1.0304 0.28198 0.13269 
0.20717 -0.35874 -0.051944 0.03947 0.20355 0.39559 -0.15191 0.29464 
-0.031064 -0.30794 -0.03501 0.011684 0.1248 -0.17525 -0.32701 0.19632 
-0.03057 -0.095678 -0.0024557 -0.015938 -0.12379 -0.56672 -0.40297 0.078272 
0.046211 -0.0082102 0.042923 0.005765 -0.24053 -0.5317 -0.22852 0.043416 
0.090931 0.080738 0.078272 0.026646 -0.12281 -0.095021 0.0080668 0.075312 
0.10376 0.14289 0.10737 0.083204 -0.031886 0.17791 0.081067 0.14913 
0.042923 0.22065 0.083204 0.073504 0.0064227 0.15111 -0.11459 0.071202 
0.031414 0.31848 0.058377 0.041772 0.034702 0.062488 -0.51296 -0.17608 
-0.0039354 0.33657 0.074654 0.038812 0.022535 -0.031064 -0.39458 -0.29034 
-0.043395 0.27162 0.086985 0.026646 -0.0027845 -0.074633 0.71159 -0.11245 
-0.045203 0.094384 0.048841 0.042594 -0.020048 -0.099789 1.0167 0.066269 
-0.014293 -0.044874 0.004943 0.024015 -0.036654 -0.1113 0.41055 0.19221 
-0.023172 -0.10324 0.010204 0.021384 -0.023336 -0.073811 -0.12018 0.14601 
0.044731 -0.022021 0.038812 0.026152 0.011355 0.064461 -0.24677 0.08008 
0.26833 0.035524 0.069558 0.032564 0.048348 0.14897 -0.13168 0.059857 
0.31026 -0.00064712 0.030098 0.036017 0.047362 0.16064 -0.012156 0.047197 
0.13384 -0.11607 -0.034352 0.0065871 0.060515 0.10655 0.035524 0.016781 
-0.042901 -0.13168 -0.077757 0.0064227 0.06742 0.21276 0.046211 0.0088889 
-0.078086 -0.059507 -0.06148 0.011355 0.11839 0.30434 0.077285 -0.0016336 
-0.055561 0.018425 -0.030242 0.011684 0.086163 0.22 0.043416 -0.029913 
-0.014129 0.03947 0.021056 0.026152 0.037004 0.013657 0.025988 -0.041093 
-0.047341 0.020891 0.041772 -0.0040998 -0.004593 -0.087951 -0.013471 -0.039778 
-0.057041 0.050321 0.085835 0.050321 0.028783 -0.043395 0.0079024 0.047197 
-0.064768 0.059364 0.094877 0.048184 0.10195 0.062323 -0.010019 0.15522 
-0.0040998 0.13088 0.10524 0.059528 0.095864 0.020891 0.023851 0.26472 
0.043087 0.17084 0.093069 0.044402 0.068078 0.0019835 0.069558 0.17001 
0.094384 0.21737 0.088301 0.0098754 0.048677 0.073668 0.12825 0.093398 
0.058871 0.18284 0.098988 0.039963 -0.028926 0.14404 0.079916 0.13335 
0.080738 0.14075 0.090931 0.020727 -0.13021 0.078765 0.041278 0.14124 
0.13549 0.06331 0.023686 0.0080668 -0.218 0.11839 0.047691 0.073504 
0.23973 -0.0004827 -0.058192 0.0013258 -0.11212 0.048019 0.016945 -0.029584 
0.19764 -0.013307 -0.091404 -0.016431 0.0083956 -0.099295 -0.026296 -0.1136 
0.07038 0.068736 -0.03501 0.01415 0.090274 -0.30185 -0.094527 -0.14434 
0.00066819 0.16656 0.036182 0.010204 0.14437 -0.42187 -0.001798 -0.0771 
0.10425 0.19977 0.078436 0.068736 0.25535 -0.12067 0.10639 0.031907 
0.19484 0.22328 0.061501 0.069064 0.37553 0.48717 0.20027 0.069393 
0.18596 0.20832 0.10047 0.056569 0.31256 0.75484 0.18909 0.017274 
0.086163 0.22855 0.11905 0.078107 0.20438 0.36994 0.082875 -0.014787 
0.093233 0.20832 0.13812 0.067091 0.01711 -0.21406 -0.049478 0.031742 
0.11707 0.23414 0.085999 0.026974 -0.20551 -0.51756 -0.23494 0.11526 
0.12809 0.18826 0.072353 -0.014129 -0.25286 -0.43174 -0.18643 0.17544 
0.087314 0.16788 0.037168 -0.0039354 -0.19926 -0.11771 0.026317 0.15768 
0.050321 0.15193 0.048348 -0.015938 -0.13662 0.10885 0.16048 0.010204 
0.0072447 0.15538 0.038977 0.004943 -0.084334 0.18152 0.17067 -0.10308 
0.026481 0.18087 0.052623 0.026646 -0.0080457 0.078765 0.08978 -0.0082102 
0.086163 0.16952 0.041443 0.019083 0.035688 -0.015938 0.10984 0.12414 
0.14815 0.17347 0.044896 0.061666 0.084355 0.053445 0.30204 0.25633 
0.12957 0.13762 0.01563 0.028619 0.12546 0.19172 0.20503 0.23907 
0.054432 0.093233 0.035524 0.030756 0.12398 0.18859 -0.20616 0.10441 
0.0046141 -0.0013048 0.036839 0.032236 0.028947 -0.047669 -0.77816 -0.13004 
-0.016431 -0.040271 0.02122 0.022371 -0.11097 -0.36186 -0.80989 -0.38587 
-0.039942 -0.020541 0.026481 0.017767 -0.23346 -0.45558 0.15538 -0.37781 
-0.03616 0.031085 0.004943 -0.047012 -0.23658 -0.32997 1.0314 -0.053424 
0.01267 0.049992 0.048019 0.012506 -0.1547 -0.2859 1.0422 0.2371 
0.072188 0.030592 0.07597 0.048019 0.0085601 -0.27423 0.33985 0.22279 
0.073339 0.070873 0.095535 0.10425 0.52959 0.31322 -0.23428 0.14996 
0.047691 0.047362 0.073997 0.13549 0.90001 1.0092 -0.33079 0.12447 
-0.062138 0.0013258 0.039634 0.090931 0.68578 1.1144 -0.14944 0.090931 
-0.13711 -0.072332 0.018096 0.050979 0.18629 0.66457 -0.015116 0.028947 
-0.157 -0.10521 -0.0049219 0.024508 -0.14171 0.079094 0.041114 -0.02498 
-0.12462 -0.10604 -0.0044286 0.022042 -0.28097 -0.40445 -0.11607 -0.041422 
-0.095021 -0.066577 0.0021479 -0.011663 -0.36581 -0.60405 -0.38554 -0.09946 
-0.1284 -0.090088 -0.012814 -0.042408 -0.40395 -0.55801 -0.53812 -0.16555 
-0.13415 -0.043888 -0.019555 -0.030899 -0.38669 -0.47646 -0.27111 -0.15224 
-0.00097594 -0.0057439 -0.013636 -0.022021 -0.24414 -0.31994 0.25765 0.00297 
0.21572 0.041114 0.0092177 0.048677 0.036346 -0.017911 0.73461 0.18235 
0.40661 0.029276 0.0047785 0.034373 0.37898 0.50493 0.73922 0.3415 
0.40759 0.032564 0.022371 0.08008 0.53929 0.80219 0.40759 0.28395 
0.17084 0.0051074 0.029441 0.064954 0.3752 0.62281 -0.040106 0.027796 
-0.071345 -0.045203 0.029112 0.035853 0.21802 0.20339 -0.43947 -0.12248 
-0.17673 -0.00081153 0.049499 0.040456 0.030592 -0.30744 -0.72818 -0.1815 
-0.14533 -0.012649 0.067256 0.043745 -0.1284 -0.44407 -0.26223 -0.21784 
-0.1233 -0.062796 0.082875 0.06331 -0.13234 -0.022679 0.51808 -0.12215 
-0.13612 -0.13991 0.040292 0.025001 -0.080059 0.25288 0.6016 0.018754 
-0.16161 -0.13777 -0.027282 -0.0021268 -0.092554 0.033715 0.13138 0.086492 
-0.24234 -0.14171 -0.065591 0.024508 -0.034845 -0.43667 -0.35792 0.077943 
-0.30662 -0.18101 -0.09091 -0.039778 0.038812 -0.68066 -0.44621 -0.018568 
-0.30843 -0.20896 -0.11048 0.01152 0.070873 -0.31945 -0.28097 0.0056006 
-0.14402 -0.14188 -0.033037 0.0093821 0.034537 0.35317 -0.021363 0.011355 
0.081395 -0.015773 0.0070803 0.032893 0.13023 0.6774 0.11231 0.053938 
0.18678 0.048184 0.048513 0.050321 0.14141 0.49243 0.049828 0.048513 
0.14617 0.1174 0.074819 0.026646 0.0023123 -0.01232 0.018589 0.063639 
0.1516 0.15883 0.08156 0.076299 -0.12823 -0.28936 0.14305 0.10063 
0.22361 0.20536 0.11658 0.052952 -0.15783 -0.40757 0.30023 0.20257 
0.23463 0.19188 0.10655 0.056898 -0.2014 -0.46561 0.30072 0.16196 
0.20158 0.18958 0.078107 0.0039565 -0.19285 -0.36006 0.16673 0.013821 
0.12464 0.085341 0.019411 -0.043724 -0.053753 0.11017 0.052294 -0.10439 
0.029934 0.038483 -0.037805 -0.0036066 0.21128 0.52367 -0.11459 -0.18084 
-0.11491 -0.10834 -0.087458 -0.021692 0.49194 0.71505 -0.28525 -0.12774 
-0.15914 -0.13974 -0.11064 0.030592 0.48289 0.56543 -0.25828 0.09422 
-0.14188 -0.18791 -0.085978 0.016781 0.20125 0.45725 -0.23428 0.1613 
-0.12856 -0.18315 -0.011498 0.034044 0.026646 0.19533 -0.13908 -0.018897 
-0.18742 -0.11015 0.037497 0.057555 -0.05441 -0.16079 0.32555 -0.18578 
-0.20649 -0.040435 0.032729 0.033715 -0.15865 -0.54453 0.88242 -0.18315 
-0.044546 0.054596 0.049664 0.053281 -0.20288 -0.52529 0.51035 -0.014787 
0.13812 0.10113 0.0689 0.016616 -0.15947 -0.2254 -0.053424 0.15571 
0.23529 0.17297 0.058049 0.020727 -0.094856 0.14519 -0.32717 0.21326 
0.22805 0.19501 0.05772 0.0056006 0.018918 0.28412 -0.55637 0.1978 
0.21983 0.21408 0.058213 0.024015 0.011684 0.17544 -0.25401 0.2172 
0.10819 0.1391 0.056733 0.063803 0.071037 -0.017088 0.16179 0.19599 
0.018754 0.083204 0.020562 0.042594 0.1738 -0.063618 0.35547 0.035853 
-0.0078813 0.10951 -0.035832 0.056733 0.11231 -0.076113 0.18695 -0.096007 
0.048019 0.14174 0.0060938 0.019576 -0.0031133 0.039799 -0.039778 -0.085978 
