-0.055397 0.10129 -0.1039 -0.0052507 0.042923 0.068242 0.09685 -0.15257 
-0.059178 0.075312 -0.17131 -0.029584 0.019083 0.029276 0.12875 0.12266 
-0.0090322 -0.045532 -0.19696 -0.03501 0.015794 0.027961 0.091425 0.26291 
0.039634 -0.044217 -0.092883 -0.0062372 0.028947 0.014972 0.062488 0.1978 
0.10589 0.00297 -0.020212 0.0786 0.048841 0.06183 0.042758 0.14058 
0.10343 -0.015444 -0.0060728 0.14486 0.039963 0.079422 0.048019 -0.027611 
0.084355 -0.1649 -0.062467 0.13467 0.051801 0.063968 0.0019835 -0.10094 
0.036675 -0.2397 -0.086142 0.065776 0.04506 0.054103 0.01711 0.062323 
-0.039778 -0.10275 -0.063289 -0.033037 0.016945 0.059528 0.015137 0.19879 
-0.072825 0.10392 0.034537 -0.078415 -0.0016336 0.012999 0.0082312 0.12431 
0.082711 0.34692 0.11181 -0.062467 -0.0049219 0.025495 -0.0088678 0.051801 
0.19846 0.41187 0.21358 0.020069 0.021056 0.012013 0.029276 0.16607 
0.19681 0.31256 0.2759 0.12299 0.033222 -0.0068948 0.011684 0.19369 
0.14026 0.15324 0.25765 0.1003 0.032564 -0.0014692 0.011355 -0.048656 
0.11724 0.14502 0.22148 0.068736 0.025495 0.038319 -0.018075 -0.32191 
0.17429 0.10852 0.15209 0.0054362 0.02681 0.033387 0.03092 -0.19334 
0.19928 0.085012 0.048513 0.023522 0.014479 0.055089 0.044567 0.10589 
0.21013 -0.029584 -0.062302 0.068242 0.0085601 0.014808 0.044896 0.32966 
0.20273 -0.17706 -0.14352 0.043745 0.018589 0.01415 0.033551 0.41992 
0.19616 -0.25713 -0.16292 0.031085 0.036839 0.041443 0.084684 0.44607 
0.17018 -0.18939 -0.15158 -0.011005 0.048019 0.065612 0.16114 0.36813 
0.10885 0.0082312 -0.13711 -0.050629 0.0227 0.033222 0.11181 0.21769 
0.054925 0.15604 -0.045203 -0.065755 -0.0042642 0.025988 0.047855 0.12283 
0.0019835 0.15571 0.034209 -0.065426 -0.0049219 -0.004593 -0.044546 -0.14254 
-0.014458 0.07449 0.0069159 -0.03912 0.00066819 0.0070803 -0.032543 -0.50984 
0.040621 -0.0082102 -0.040106 -0.037311 0.013164 -0.0072237 -0.024816 -0.55308 
0.062652 -0.18824 -0.071345 -0.0082102 0.024508 0.033222 0.040456 -0.1621 
-0.025474 -0.32882 -0.061645 0.011684 0.01826 0.0074092 0.029934 0.16738 
-0.084005 -0.22869 -0.0039354 0.013986 0.027961 0.041772 0.040456 0.24301 
-0.11919 -0.014129 0.086821 0.10293 0.026317 0.04095 0.037497 0.21539 
-0.045039 0.033715 0.15259 0.12447 0.034209 0.027139 -0.0016336 0.18728 
0.084519 0.0090533 0.19172 0.14321 0.036839 0.023193 -0.003771 0.15127 
0.17955 0.047855 0.25337 0.093562 0.036182 0.009711 -0.021528 0.02681 
0.12875 0.10754 0.24597 0.10918 0.048019 -0.00031829 -0.027447 -0.11113 
0.070873 0.14683 0.18711 0.11724 0.033222 0.0079024 -0.027611 -0.11113 
0.092904 0.11362 0.059528 0.070051 0.037826 -0.0087034 -0.011005 0.0079024 
0.11214 0.047197 -0.0091966 0.066269 0.018425 0.030592 0.022535 0.061501 
0.082217 -0.011498 1.0539e-005 0.0065871 0.019247 0.052623 0.057227 0.047526 
0.074161 0.045882 0.079258 0.013492 0.048677 0.070708 0.056076 0.038155 
0.057555 0.081889 0.10113 0.024344 0.066598 0.086657 0.092082 -0.063124 
1.0539e-005 0.091753 0.064132 0.031907 0.060679 0.066927 0.08304 -0.13218 
-0.03912 0.044073 0.03388 0.07449 0.037004 0.035524 0.10441 0.080409 
-0.022185 0.072681 0.019905 0.070051 0.035195 0.01974 0.10211 0.25321 
-0.16506 0.016288 0.086985 0.038155 0.0051074 -0.013143 0.074161 0.12365 
-0.24382 0.029605 0.15324 -0.0042642 -0.014622 -0.0406 0.012835 -0.039284 
-0.19926 0.088136 0.232 -0.038956 -0.022843 -0.02794 0.004943 -0.031557 
-0.056383 0.09981 0.19122 -0.052602 -0.023501 -0.056548 -0.0049219 0.057227 
-0.06 0.060186 0.064954 -0.088937 -0.02087 -0.024816 -0.030735 0.042265 
-0.041093 0.0047785 -0.041586 -0.09946 -0.0034422 -0.0013048 -0.0067304 -0.021363 
-0.016266 -0.035667 -0.12001 -0.11607 -0.011005 -0.0031133 -0.011005 -0.0024557 
0.023686 -0.082854 -0.13366 -0.037147 0.029112 0.014315 0.022535 -0.066577 
-0.059507 0.021878 -0.035503 0.07038 0.028125 0.0227 0.023028 -0.075127 
-0.10078 0.097508 0.025659 0.15604 0.044402 0.032236 0.044896 -0.0095255 
-0.1284 0.18103 0.025659 0.21917 0.061337 0.035688 0.026317 0.07597 
-0.079566 0.13861 0.020069 0.21523 0.10277 0.057391 0.040621 0.14206 
0.00099702 0.14437 0.039141 0.19566 0.10869 0.056404 0.029934 0.15209 
0.057555 0.09274 0.015137 0.1225 0.076299 0.029769 0.053116 0.12118 
0.029276 0.077778 0.01563 0.058706 0.053445 0.023193 0.037661 -0.092554 
-0.0049219 0.079751 -0.0055795 0.012013 0.02681 0.0041209 0.015301 -0.29955 
-0.0091966 0.086657 -0.046025 -0.067892 0.012999 0.015794 0.0227 -0.48797 
0.023357 0.10984 -0.11196 -0.11426 0.029605 0.028619 0.068407 -0.42911 
0.01711 0.10195 -0.22441 -0.19498 -0.0080457 0.031742 0.060844 -0.2568 
0.020398 0.12562 -0.28475 -0.20288 -0.0064016 0.031578 0.080409 0.11444 
0.024673 0.13335 -0.23329 -0.15931 -0.010841 0.015301 0.050486 0.30352 
0.070544 0.20142 -0.086471 -0.098309 -0.0050863 -0.024158 0.012999 0.25255 
0.085506 0.27721 0.12151 0.037332 0.0054362 -0.011005 0.011684 0.21523 
0.074326 0.32703 0.31042 0.093891 0.015137 -0.013471 -0.013143 0.1978 
0.10589 0.2685 0.35794 0.13154 0.010862 -0.0055795 0.018589 0.19188 
0.1493 0.18218 0.28642 0.11905 0.028947 -0.0032777 0.026317 0.23446 
0.12529 0.01563 0.14174 0.074326 0.023028 0.025001 0.033551 0.23233 
0.057391 -0.11903 0.046375 0.066927 0.060186 0.031907 0.02829 0.19977 
-0.001798 -0.17098 1.0539e-005 0.02533 0.079587 0.07597 0.080738 0.08863 
-0.055561 -0.12971 0.0065871 0.097508 0.080738 0.081889 0.061995 0.028454 
0.0060938 -0.0021268 0.12973 0.10704 0.094548 0.072681 0.10326 0.13713 
0.010862 0.06183 0.26192 0.11642 0.088465 0.068078 0.097508 0.20997 
0.020069 0.08008 0.24318 0.10458 0.046375 0.024508 0.048019 0.048348 
-0.07973 -0.0027845 0.10293 0.066105 -0.0070593 -0.048327 -0.07973 -0.19383 
-0.20386 -0.0016336 -0.0087034 0.084684 -0.021856 -0.061151 -0.15026 -0.42516 
-0.12823 -0.019719 -0.15454 0.016781 -0.011827 -0.048163 -0.13645 -0.57922 
0.12085 0.007738 -0.35512 -0.071509 -0.012978 0.00017495 -0.1039 -0.4763 
0.35925 -0.0098543 -0.48057 -0.18956 -0.022514 0.015959 -0.016595 -0.12166 
0.43949 0.049499 -0.41892 -0.1649 0.0098754 0.049828 0.024015 0.11411 
0.25469 0.087808 -0.26979 -0.062302 0.04095 0.028947 0.049992 0.13894 
-0.013636 0.063145 -0.14369 0.0044497 0.039799 0.072024 0.051636 0.12233 
-0.22376 0.033551 -0.045696 0.069229 0.060844 0.074326 0.098166 0.11888 
-0.16325 -0.025638 0.13351 0.15982 0.074654 0.064132 0.084848 0.15144 
-0.069701 -0.057863 0.27162 0.24745 0.095699 0.011848 0.070544 0.13598 
0.040456 -0.07562 0.30516 0.19747 0.073175 0.046868 0.06183 0.20668 
0.15933 -0.080881 0.28379 0.037497 0.037004 0.01267 0.041114 0.22345 
0.23479 -0.041093 0.26044 -0.010348 0.020398 0.03388 0.02829 0.21013 
0.16442 0.020562 0.20832 -0.06855 0.004943 0.034044 0.024673 0.16623 
0.07038 0.052952 0.16788 -0.049149 0.024179 0.048019 0.036346 0.1562 
0.015794 0.095371 0.14091 -0.012978 0.033058 0.029276 0.016616 0.15555 
-0.019061 0.077778 0.17971 0.044567 0.036839 0.04095 0.024344 0.082875 
0.017767 0.094713 0.18432 0.13121 0.016452 0.020398 0.029934 0.098001 
0.031085 0.051965 0.12842 0.10113 0.018425 0.028125 0.041114 0.1054 
-0.016431 0.015137 0.016945 0.072188 -0.0004827 -0.018733 -0.021528 0.12513 
-0.078415 -0.067399 -0.086307 0.038319 0.0039565 -0.0031133 -0.039449 0.044073 
-0.10669 -0.069043 -0.071181 0.054267 0.020727 -0.0098543 -0.11097 -0.22754 
-0.075784 -0.069536 -0.01676 0.092082 0.03536 0.009711 -0.11672 -0.51296 
0.018096 -0.061645 -0.017746 0.054925 0.031414 -0.018733 -0.13168 -0.62361 
0.11839 -0.026624 -0.043559 0.057884 0.043745 0.030756 -0.048656 -0.40872 
0.25765 -0.052931 -0.088773 0.016452 0.055089 0.041936 0.067091 -0.034023 
0.19632 -0.077922 -0.10521 0.0018191 0.036182 0.062817 0.13039 0.27327 
0.01974 -0.10916 -0.068221 0.024344 0.028947 0.048348 0.14568 0.32752 
-0.079401 -0.049478 -0.039449 0.012835 0.02533 0.070051 0.13253 0.31108 
-0.13695 -0.049314 -0.023665 -0.0049219 0.009711 0.029276 0.095042 0.21967 
-0.13563 0.010204 0.043416 -0.011005 0.016452 0.052294 0.086492 0.16163 
-0.049478 0.043251 0.1174 0.019905 0.03536 0.038812 0.10967 0.15275 
0.062981 0.14963 0.17791 0.051636 0.042923 0.065612 0.10326 0.14815 
0.14157 0.18136 0.17034 0.062817 0.035688 0.048348 0.076299 0.049335 
0.10507 0.16146 0.084355 0.085177 0.046375 0.061337 0.014315 -0.0029489 
-0.023829 0.037497 -0.078415 -0.0050863 0.012835 0.025988 -0.061809 0.072188 
-0.084334 -0.014293 -0.1108 -0.009361 0.0032988 0.0072447 -0.044052 0.093726 
-0.048656 0.0056006 -0.024323 0.023851 0.040785 0.022864 0.014808 0.045224 
-0.044874 0.024673 0.10145 0.12316 0.072517 0.035688 -0.020706 -0.07266 
-0.014458 0.07597 0.147 0.2001 0.072681 -0.022843 -0.049807 -0.098638 
0.11 0.096028 0.090767 0.10935 0.063474 -0.0054151 -0.089431 -0.045039 
0.2052 0.067091 -0.059672 0.0082312 0.0060938 -0.0078813 -0.017582 0.044896 
0.2218 0.013492 -0.12823 -0.11524 -0.012814 0.01563 0.077943 0.12118 
0.16015 0.090274 -0.11787 -0.13168 -0.015773 -0.0068948 0.13779 0.13088 
0.11905 0.11642 -0.081868 -0.08121 -0.0019624 0.014808 0.10162 0.062817 
0.028125 0.10852 -0.035832 -0.063618 -0.015609 -0.0090322 -0.066577 -0.10423 
-0.095678 0.023357 -0.016431 -0.050629 0.0011614 -0.025309 -0.15569 -0.1552 
-0.18495 0.034044 0.05624 -0.095843 -0.022021 -0.025802 -0.065755 -0.10883 
-0.10982 0.11954 0.12562 -0.057041 0.0060938 0.03092 0.053116 0.0024767 
0.069722 0.2075 0.23594 -0.013143 0.035195 0.051308 0.11609 0.11757 
0.14552 0.22394 0.29546 0.028125 0.027632 0.044238 0.12529 0.15341 
0.13319 0.18432 0.22197 0.086657 0.032893 0.036182 0.072846 0.089123 
0.080902 0.11592 0.11494 0.024344 0.016945 0.045553 0.095864 0.13845 
0.050814 0.029605 -0.0073881 0.0069159 0.014972 0.023686 0.077285 0.329 
0.029605 -0.054739 -0.12807 -0.070194 0.017767 -0.011827 0.1105 0.3757 
0.00050378 -0.12544 -0.17756 -0.038956 0.029441 0.010369 0.084519 0.25666 
0.01415 -0.054904 -0.12593 0.067256 0.062817 0.027303 0.045224 -0.040271 
0.052623 -0.013471 -0.02235 0.10737 0.061666 0.021549 -0.014293 -0.3132 
0.014315 0.056076 0.049499 0.14831 0.044567 0.0087245 -0.039284 -0.40494 
-0.028762 0.087972 0.11773 0.10441 0.0074092 -0.0060728 -0.038956 -0.23017 
-0.015773 0.084026 0.11115 0.063639 -0.024158 -0.023336 -0.06444 -0.012978 
-0.0011404 0.060844 0.059857 -0.015609 -0.022514 -0.033694 -0.058521 -0.12642 
0.11428 0.051472 -0.021528 -0.035667 0.026974 -0.012978 -0.035503 -0.24957 
0.1562 0.089123 -0.046354 -0.016102 0.042429 0.024837 0.015137 -0.16424 
0.15653 0.068571 -0.06444 -0.064933 0.045882 0.013164 -0.00081153 -0.010348 
0.18843 0.12497 -0.087458 -0.033365 0.036017 0.0065871 0.011026 0.2103 
0.24186 0.15587 -0.009361 -0.042079 0.054103 0.023851 0.035195 0.3757 
0.18991 0.14338 0.065612 -0.046847 0.035524 0.029276 0.13154 0.33032 
-0.0070593 0.095371 0.15275 -0.0031133 0.038648 0.0031344 0.12644 0.17001 
-0.18594 0.11444 0.21967 0.031907 0.02829 0.024015 0.11378 0.020562 
-0.24365 0.080573 0.22855 0.11543 0.024837 -0.0087034 0.032893 -0.054904 
-0.1381 0.059693 0.1733 0.12529 0.036346 0.039305 0.08567 -0.027611 
-0.042244 0.017932 0.10474 0.11921 0.061337 0.069064 0.1054 -0.0077169 
0.072846 0.029441 0.0069159 0.094384 0.072681 0.10145 0.12612 0.056898 
0.17067 0.0092177 -0.098309 0.047197 0.04506 0.09422 0.10869 0.13795 
0.29661 -0.00064712 -0.12873 0.058213 0.036182 0.08863 0.10211 0.23611 
0.28675 -0.003771 -0.049807 0.026317 0.018918 0.0421 0.11378 0.27261 
0.18383 -0.0096899 0.0046141 0.049335 0.0039565 0.037826 0.082875 0.22986 
0.05476 0.017438 0.033715 0.025001 -0.0032777 0.013986 0.056569 0.020562 
0.00099702 0.026152 -0.0054151 0.017932 -0.0022913 0.022371 0.021713 -0.16901 
-0.020541 0.052459 -0.019061 0.032729 0.0092177 0.019905 0.015794 -0.2476 
0.076463 0.06479 0.044567 0.054432 0.037826 0.012177 -0.0052507 -0.2665 
0.10918 0.054267 0.095206 0.075641 0.031249 -0.014129 -0.033201 -0.19433 
-0.0406 -0.042737 0.042429 0.0090533 0.0067515 -0.024652 -0.10308 -0.24727 
-0.33852 -0.064933 -0.010512 -0.015116 0.01152 -0.06 -0.13201 -0.54025 
-0.52546 -0.017582 0.04506 0.0059294 0.037497 -0.059178 -0.2203 -0.57116 
-0.41661 0.11313 0.13056 0.056569 0.06479 -0.064275 -0.2185 -0.12034 
-0.17854 0.16821 0.17034 0.08715 0.095042 0.045224 -0.15322 0.1853 
0.016781 0.1419 0.23989 0.086328 0.090767 0.073504 0.0074092 0.3558 
0.069558 0.10672 0.20175 0.072517 0.063968 0.09981 0.1442 0.37997 
0.12184 0.028947 0.12168 0.061008 0.017767 0.063803 0.17084 0.30615 
0.28905 0.07038 0.068078 0.12381 0.012342 0.058706 0.14354 0.27787 
0.48207 0.054432 0.0689 0.19846 0.025824 0.030592 0.12464 0.23874 
0.52367 0.08419 0.075148 0.092247 0.013986 0.055089 0.15752 0.21309 
0.37241 0.038977 -0.0019624 0.013164 0.015465 0.070873 0.14354 0.12102 
0.11428 0.047197 -0.10735 -0.027611 0.029769 0.075148 0.1345 -0.021856 
-0.014787 0.0052718 -0.18676 -0.032708 0.041114 0.067913 0.091753 -0.076442 
-0.016102 0.01152 -0.18183 0.016616 0.043745 0.074326 0.078765 0.06479 
-0.013143 -0.011334 -0.13218 0.0059294 0.023686 0.02829 0.02829 0.23973 
-0.11442 0.032564 -0.068879 0.071037 0.036182 0.015301 0.007738 0.14371 
-0.24151 0.017767 -0.033037 0.06035 0.033551 -0.021199 -0.086307 -0.29495 
-0.43618 -0.038462 -0.034516 0.055418 0.033058 -0.0040998 -0.11689 -0.56097 
-0.52907 -0.049314 -0.012814 -0.0016336 0.0016547 -0.033037 -0.13695 -0.45459 
-0.47547 -0.037969 0.028783 0.021878 0.019576 0.0023123 -0.07825 -0.12346 
-0.30037 -0.021363 0.11411 0.06183 0.034044 0.017274 -0.010183 0.17922 
-0.065262 0.004943 0.13631 0.03092 0.050814 0.033387 0.042923 0.3438 
0.19698 0.08008 0.10918 0.040128 0.053281 0.033058 0.057227 0.36139 
0.34627 0.12184 0.1562 0.082382 0.052952 0.056733 0.0324 0.3826 
0.30072 0.098659 0.17922 0.12316 0.057884 0.041772 0.056404 0.25699 
0.15801 0.03651 0.1909 0.16886 0.024673 0.037826 0.040456 0.025824 
0.06594 0.04358 0.10836 0.080902 -0.016595 -0.037147 -0.0031133 -0.053588 
0.027796 0.011355 -0.029091 0.034702 -0.039778 -0.049807 -0.038133 -0.06444 
0.14387 0.015137 -0.11755 -0.048327 -0.040435 -0.046354 0.015959 0.04358 
0.18892 0.018918 -0.20732 -0.071674 -0.020541 0.012999 0.018754 0.11937 
0.11937 0.031085 -0.23855 -0.093705 0.0051074 0.0088889 0.037332 0.04654 
0.037497 0.072188 -0.13744 -0.10768 0.035031 0.029441 0.057062 0.072188 
-0.077428 0.10343 0.018918 -0.055068 0.026646 0.032071 0.063145 -0.057534 
-0.22178 0.058213 0.084848 -0.054246 0.029769 0.04358 0.012506 -0.34624 
-0.31451 -0.055726 0.046704 0.014315 0.028619 0.018754 -0.023336 -0.52513 
-0.19893 -0.065591 0.041114 0.064132 0.027632 0.028619 -0.015444 -0.15059 
0.080244 0.005765 0.079422 0.093726 0.032236 -0.0042642 0.00050378 0.28001 
0.27573 0.11576 0.11658 0.085341 0.02681 0.019411 0.071037 0.487 
0.27853 0.085835 0.063803 0.037826 0.01563 0.035853 0.097508 0.43686 
0.11592 0.04506 -0.029748 0.045389 0.00050378 0.044896 0.10063 0.17199 
0.022371 -0.0021268 -0.10521 0.0041209 0.01711 0.03388 0.069558 -0.064768 
0.021549 0.015465 -0.096336 0.027468 0.039634 0.070215 0.078107 -0.13284 
0.13236 0.030427 -0.051615 0.060022 0.038483 0.071531 0.069393 -0.011498 
0.11691 -0.028269 -0.14895 -0.042737 -0.0088678 0.044731 0.070873 0.067913 
0.0689 -0.10291 -0.26256 -0.16079 -0.083183 -0.043559 0.0092177 0.04095 
-0.0078813 -0.12363 -0.20567 -0.22392 -0.097651 -0.033201 0.019083 0.0036276 
-0.10949 -0.0095255 0.015465 -0.10045 -0.0088678 0.0059294 0.052294 -0.02087 
-0.15503 0.092247 0.31305 0.028783 0.07301 0.06183 0.077285 -0.019226 
0.012999 0.29497 0.50377 0.12365 0.12579 0.073504 0.076792 0.030756 
0.32456 0.38737 0.49703 0.17001 0.12036 0.070544 0.063639 0.16673 
0.44343 0.35975 0.35679 0.083204 0.07597 0.041607 0.053938 0.22953 
0.34462 0.11181 0.053445 -0.0044286 0.03536 0.036346 0.019083 0.17067 
0.15505 -0.018897 -0.20584 -0.066741 1.0539e-005 0.0036276 -0.023665 -0.02794 
0.0075736 -0.039778 -0.27522 -0.025145 0.012506 0.013328 -0.05885 -0.17098 
-0.076442 0.054103 -0.18791 0.10836 0.018918 0.017274 -0.015444 -0.087129 
-0.15799 0.099481 -0.019884 0.18054 0.038812 0.012342 0.0052718 0.10277 
-0.090581 -0.06148 0.14963 0.22082 0.0032988 0.00297 0.005765 0.24219 
-0.044874 -0.23757 0.19435 0.15785 0.018096 0.0036276 -0.016924 0.13598 
-0.068714 -0.31797 0.14535 0.13006 0.023522 -0.0004827 -0.010512 -0.28837 
-0.10357 -0.15684 0.079751 0.064625 0.01711 -0.016431 -0.017088 -0.47038 
0.047197 0.067749 0.051472 0.0072447 0.054103 0.0052718 0.070708 -0.044217 
0.22871 0.27129 0.050979 -0.041422 0.053938 0.037168 0.11362 0.20964 
0.29152 0.27853 0.084848 -0.095514 0.052623 0.078272 0.097344 0.14585 
0.2006 0.24532 0.094055 -0.11409 0.0059294 0.051143 0.050321 0.05624 
0.15949 0.13499 0.086821 -0.096172 -0.016102 0.037332 0.025495 0.065776 
0.21638 0.10376 0.041443 -0.031392 -0.006566 0.022864 0.034702 0.11066 
0.24384 0.020562 0.014479 0.026152 0.019247 0.017932 0.027961 0.088794 
0.067749 -0.042244 0.01004 0.063639 0.01826 0.01711 0.01974 0.010697 
-0.10768 -0.093705 0.016452 0.12365 0.040785 0.041936 0.024673 0.042265 
-0.17723 -0.061645 -0.02794 0.1026 0.055254 0.043251 0.086163 0.14486 
-0.095349 0.075312 -0.012649 0.062323 0.067091 0.073997 0.079916 0.20701 
0.0083956 0.1761 0.020069 0.027961 0.053938 0.0421 0.076134 0.16114 
0.076956 0.27951 0.0026412 -0.023829 0.024837 0.013986 0.022371 0.091425 
0.11231 0.26373 0.059364 -0.021528 0.0037921 -0.020706 -0.038133 -0.053753 
0.13467 0.20092 0.16508 -0.020541 0.023357 -0.022185 -0.10423 -0.28426 
0.088465 0.0054362 0.21654 0.0031344 0.029276 -0.030077 -0.054739 -0.29988 
0.058049 -0.1136 0.18432 0.011355 0.024837 -0.0138 -0.046354 -0.045532 
0.069558 -0.11475 0.19007 0.072517 0.0093821 -0.020377 -0.056383 0.13154 
0.048841 0.027468 0.22444 0.14568 0.031414 0.022535 -0.044217 0.14239 
-0.065755 0.06479 0.1835 0.13023 0.062323 0.047526 0.021056 0.0067515 
-0.058356 0.10277 0.039305 0.11954 0.046704 0.047855 0.098659 -0.045696 
0.077778 0.085835 -0.049314 0.088301 0.03092 0.053281 0.14321 0.042758 
0.1174 0.067091 -0.018733 0.1835 0.052623 0.039305 0.15818 0.033222 
-0.012485 -0.077593 -0.0068948 0.23381 0.041936 0.022864 0.019411 -0.022514 
-0.13053 -0.2402 0.0026412 0.1733 0.021713 0.022371 -0.01232 -0.060658 
-0.06707 -0.21784 -0.023994 0.1493 0.01974 0.013821 -0.0014692 -0.05326 
0.051636 -0.10669 -0.16572 -0.054246 0.039963 0.020727 0.071366 0.010533 
0.1105 -0.0057439 -0.38685 -0.20534 0.023193 0.024508 0.079258 0.066763 
0.081395 0.043745 -0.40461 -0.23099 0.040621 0.053938 0.13417 0.097837 
0.015794 0.091918 -0.20633 -0.18413 0.0689 0.044402 0.054925 0.12003 
-0.059836 0.14075 -0.0138 -0.080223 0.035031 0.038483 0.049499 0.17626 
-0.027118 0.22082 0.12316 -0.050629 0.032564 0.0072447 0.027303 0.23973 
0.070215 0.21194 0.14042 -0.045039 0.018096 0.024344 0.027961 0.23858 
0.10655 0.18859 0.09833 -0.056055 -0.012649 -0.0039354 0.044073 0.13269 
0.060515 0.11444 -0.0027845 -0.070852 -0.019061 0.0011614 -0.010676 -0.109 
0.08304 0.089616 -0.098309 -0.023501 -0.016431 -0.0036066 -0.028269 -0.182 
0.020891 0.04506 -0.18298 -0.040928 0.016616 0.01826 -0.032215 -0.13497 
-0.077264 0.021549 -0.21438 0.015301 0.040292 0.024179 0.00033937 0.0036276 
-0.14221 0.01974 -0.14698 0.029769 0.070544 0.037826 0.013821 0.059857 
-0.16309 0.027632 0.060022 0.090931 0.080409 0.028619 0.033222 0.019905 
-0.13826 0.047526 0.29069 0.19139 0.075476 0.016123 -0.010348 -0.063946 
-0.057699 0.017932 0.35728 0.20027 0.032236 -0.0090322 -0.026296 -0.097158 
0.040292 0.0052718 0.26307 0.13335 0.0092177 -0.0034422 -0.067235 -0.15388 
0.090274 0.0098754 0.20175 0.016123 0.00297 -0.030406 -0.01117 -0.16194 
0.13812 0.058049 0.11954 -0.026789 0.00017495 0.0018191 0.058542 0.023851 
0.10047 0.097508 0.078929 -0.0019624 0.033551 0.010533 0.1322 0.16771 
0.032729 0.11313 0.10869 0.057555 0.056733 0.06594 0.13746 0.25025 
-0.015609 0.065283 0.16853 0.11494 0.068242 0.035524 0.069722 0.21062 
0.014315 -0.01676 0.14354 0.11757 0.032893 0.025988 0.0092177 0.073504 
0.067256 -0.0406 0.051801 0.11313 0.014315 0.0011614 -0.0032777 0.033387 
-0.0060728 -0.028926 -0.038298 0.049992 -0.0047575 0.0047785 0.0074092 0.069393 
-0.13678 -0.001798 -0.13086 -0.015444 0.022042 0.0065871 -0.033859 0.067091 
-0.14829 -0.070194 -0.27916 -0.053917 0.026974 0.016452 -0.011498 -0.011663 
-0.13284 -0.13711 -0.3492 -0.086636 0.066763 0.043909 -0.014622 0.005765 
-0.089266 -0.073482 -0.25121 -0.061973 0.064954 0.064954 0.041114 0.0044497 
-0.00015387 0.14798 -0.11672 -0.038133 0.056898 0.056569 0.067091 0.018754 
0.11099 0.20438 -0.017582 -0.021856 0.056733 0.063145 0.079751 0.053445 
0.12694 0.22082 0.058213 0.0090533 0.031085 0.0039565 0.0421 0.070873 
0.06594 0.1516 0.14321 0.0095465 0.023357 0.0046141 0.03799 -0.0013048 
0.01267 0.14716 0.18958 0.07597 0.054103 0.0031344 0.056569 -0.021034 
0.018918 0.10688 0.18333 0.056404 0.048677 0.019247 0.041114 -0.05589 
0.012835 0.076134 0.12546 0.054596 0.010204 -0.012814 0.038648 -0.054739 
0.071531 0.035195 0.13236 0.055582 -0.0004827 0.019905 0.035853 -0.043395 
0.059693 0.049499 0.19649 0.1539 0.031907 0.0046141 0.013328 -0.074304 
0.055254 0.047362 0.26554 0.22033 -0.013636 -0.012814 -0.056219 -0.12248 
-0.059836 -0.081703 0.30122 0.21934 -0.013965 -0.021856 -0.094199 -0.078579 
-0.23757 -0.17871 0.23512 0.14765 -0.004593 -0.013636 -0.062796 -0.02087 
-0.26091 -0.11837 0.14535 0.07301 0.03388 0.02829 0.013328 0.004943 
-0.070194 0.092247 0.029769 0.009711 0.046046 0.063145 0.069886 0.15209 
0.054596 0.12727 -0.068057 -0.019061 0.054596 0.073997 0.1077 0.256 
0.055254 0.1373 -0.094856 -0.027282 0.03388 0.074983 0.066269 0.17988 
0.034702 0.071859 -0.066577 0.0069159 0.021056 0.049664 0.076134 0.078929 
0.055911 0.054432 -0.10258 -0.047505 0.0088889 0.037004 0.10902 0.24219 
0.082711 -0.015609 -0.18989 -0.10505 -0.0096899 0.0039565 0.13647 0.35021 
0.18629 -0.024158 -0.19087 -0.14829 -0.03616 -0.018239 0.021713 0.16969 
0.30187 0.024344 -0.051944 -0.1011 -0.042408 -0.060165 -0.056055 -0.10686 
0.40578 0.13384 0.159 -0.0050863 -0.021856 -0.037805 -0.090417 -0.20929 
0.43176 0.13269 0.23775 0.010533 0.025824 0.026152 -0.024816 -0.1233 
0.24038 0.084848 0.17676 0.096357 0.062488 0.074819 0.030756 -0.016266 
0.079587 0.078107 0.095042 0.088794 0.074819 0.088465 0.075641 0.040785 
0.015301 0.074819 0.025659 0.077285 0.037497 0.067091 0.09981 0.034373 
0.0075736 0.037661 -0.055068 0.069064 0.0028056 0.044073 0.086328 0.053116 
-0.055397 0.016288 -0.045861 0.034373 -0.0075525 0.010204 0.093398 0.092576 
-0.019226 0.069393 0.051801 0.1174 0.01974 0.018589 0.084355 0.14815 
0.0082312 0.023686 0.13434 0.1396 0.048677 0.056733 0.13335 0.10113 
0.00033937 -0.05178 0.037168 0.11592 0.070544 0.073339 0.093069 -0.0068948 
-0.16391 -0.13629 -0.10949 0.0031344 0.018425 0.041936 0.058542 0.044896 
-0.31205 -0.073318 -0.11409 -0.094034 -0.0087034 -0.0083746 0.010369 0.043909 
-0.2522 0.037168 -0.17114 -0.12182 -0.018733 -0.026131 -0.018733 -0.094692 
-0.040928 0.08978 -0.29626 -0.20271 -0.0014692 -0.025474 -0.045203 -0.10637 
0.038483 0.091918 -0.33671 -0.17739 0.031249 -0.010676 -0.077757 -0.049971 
0.092082 0.058049 -0.26108 -0.10571 0.036346 0.020398 -0.045368 0.053609 
0.23035 0.061666 -0.13448 0.0059294 0.037661 0.0092177 -0.0060728 0.16344 
0.41088 0.0028056 0.027139 0.087314 0.033551 0.00297 0.0044497 0.2736 
0.42107 0.028619 0.21243 0.12381 0.043416 0.0092177 0.00099702 0.28905 
0.23134 0.06479 0.39395 0.1858 0.043745 0.023193 -0.003771 0.059035 
-0.028762 0.17199 0.4219 0.13105 0.046046 -0.0087034 -0.0098543 -0.29511 
-0.31007 0.11165 0.26554 0.041936 0.0064227 -0.008539 -0.01528 -0.39031 
-0.40905 0.047691 0.17478 0.010862 -0.0027845 -0.00015387 -0.038791 -0.16095 
-0.17065 -0.024323 0.10145 0.051308 0.016616 0.038977 0.0098754 0.083533 
0.14091 -0.035667 0.078765 0.14009 0.046211 0.044073 0.051965 0.17955 
0.24367 -0.047341 0.11757 0.16623 0.036182 0.062652 0.12579 0.1853 
0.10047 -0.05885 0.23216 0.2851 0.099481 0.081231 0.11757 0.12973 
0.01415 -0.0077169 0.24712 0.19106 0.06035 0.082053 0.11526 0.083204 
0.024508 0.045224 0.092411 0.057391 0.024673 0.084026 0.067749 -0.0083746 
0.040292 0.08978 -0.11048 -0.027282 0.085012 0.072024 0.023522 -0.11146 
0.005765 0.082053 -0.19729 -0.037147 0.098166 0.039963 0.013164 -0.12034 
-0.082032 0.062488 -0.1843 -0.023994 0.078272 0.058213 -0.006566 -0.099131 
-0.020212 0.047855 -0.058028 0.023357 0.046868 0.02122 -0.026131 -0.098309 
0.066269 0.030756 -0.0027845 0.028454 0.022206 0.010369 -0.025638 -0.081703 
0.10228 -0.023172 0.016781 -0.022514 0.0067515 -0.013965 -0.021199 -0.053917 
0.063968 0.023522 0.075476 -0.052602 -0.025638 -0.016102 -0.049971 -0.1085 
0.02681 0.071202 0.16015 0.027139 -0.014787 -0.044546 -0.034352 -0.15832 
-0.070359 0.14683 0.171 0.048348 -0.0022913 -0.01939 -0.0073881 -0.083018 
-0.073482 0.16459 0.13368 0.0592 0.015959 0.0044497 0.078272 0.061501 
-0.063289 0.12365 0.073175 0.031249 0.041936 0.048348 0.047197 0.15226 
-0.036654 0.025988 0.047033 0.056898 0.055911 0.06479 0.037497 0.11872 
0.047526 -0.057041 0.059693 0.1008 0.075641 0.063145 0.028947 0.03947 
0.14963 -0.020048 0.096521 0.077449 0.095206 0.058706 0.014479 0.013164 
0.10639 0.039799 0.093562 0.077778 0.073175 0.049828 -0.0013048 -0.011992 
0.071859 0.13812 0.10047 0.067749 0.069229 0.033387 -0.008539 -0.026624 
0.08304 0.11444 -0.035832 0.027139 0.052952 0.042265 0.017767 -0.050793 
0.13713 0.056733 -0.10341 0.0070803 0.036017 0.034866 0.036346 -0.051615 
0.096193 0.029276 -0.011498 0.0098754 0.0324 0.036839 0.052787 -0.068057 
-0.047341 0.061995 0.16311 0.092904 0.026974 0.038977 0.038319 -0.048656 
-0.16506 0.026974 0.25091 0.13516 0.03388 0.039141 0.07038 0.0026412 
-0.1113 0.0042853 0.21704 0.14338 0.056898 0.041936 0.08567 0.11181 
0.030592 0.024179 0.06594 0.066434 0.027632 0.049828 0.098823 0.2098 
0.16064 0.080902 -0.029584 -0.029584 0.01563 0.027303 0.084684 0.22855 
0.19533 0.13713 -0.11426 -0.045203 0.013492 0.042758 0.071202 0.20372 
0.08715 0.097344 -0.12133 -0.065426 0.0046141 0.039799 0.038977 0.10721 
0.064625 0.098166 -0.074469 -0.0022913 0.0075736 0.051308 0.047197 0.086821 
0.040785 -0.035338 -0.020541 -0.018239 -0.0052507 0.017932 0.033551 0.051965 
0.030427 -0.1011 0.01563 0.03092 0.012342 0.022535 0.047362 -0.0040998 
0.10425 -0.028926 0.05624 0.056404 0.027468 0.034702 0.051636 -0.026789 
0.24729 0.11083 0.06742 -0.046354 0.017438 0.022206 0.040128 0.03388 
0.26965 0.11609 0.015137 -0.096665 -0.01117 -0.008539 0.020891 0.080738 
0.18728 0.11296 -0.00081153 -0.16391 -0.040928 -0.018404 0.011191 0.11181 
0.055582 0.033387 -0.089924 -0.16901 -0.022679 -0.014293 0.022535 0.15686 
0.01563 -0.0088678 -0.062467 -0.10291 0.0044497 0.027303 0.044731 0.12233 
-0.049149 -0.047834 -0.0022913 -0.028597 0.013492 0.037168 0.058049 0.08715 
-0.10242 -0.034023 0.058542 0.14535 0.044238 0.046046 0.049006 0.096686 
-0.064933 0.050157 0.12118 0.20536 0.061995 0.021549 0.058049 0.10359 
-0.048327 0.080573 0.23167 0.23282 0.089616 0.043087 0.039963 -0.029748 
-0.13859 0.040456 0.1271 0.11937 0.085999 0.038483 0.056898 -0.11343 
-0.18594 0.064132 -0.096665 0.014643 0.068242 0.046046 0.041443 0.018589 
-0.15355 0.13582 -0.23362 -0.023994 0.037826 0.025001 0.051636 0.16804 
-0.015444 0.10869 -0.20682 -0.052109 -0.0024557 -0.011005 -0.033201 0.086328 
0.084026 0.10606 -0.13991 -0.048985 -0.02498 -0.025474 -0.075291 -0.11294 
0.13138 0.044567 -0.15125 -0.097487 -0.015938 -0.024652 -0.078908 -0.25023 
0.17955 0.039305 -0.17246 -0.12379 -0.010348 -0.0067304 -0.021692 -0.15109 
0.19188 0.0083956 -0.10916 -0.096336 0.01004 0.0026412 0.055911 0.17643 
0.15982 -0.0024557 -0.045039 -0.079401 -0.00097594 0.00017495 0.087643 0.3609 
0.081724 -0.0040998 0.058871 -0.047669 -0.006566 -0.0062372 0.079751 0.31125 
-0.0073881 0.030427 0.1373 -0.026624 -0.0067304 -0.0064016 0.024015 0.16048 
-0.045696 0.078929 0.12184 0.019247 0.027303 -0.010348 0.022371 0.098001 
0.013986 0.11543 0.14683 0.021056 0.046046 0.0037921 0.014479 0.10688 
0.028947 0.16393 0.15324 0.05624 0.054103 0.017274 0.055747 0.089616 
-0.011992 0.097015 0.071202 0.049006 0.045882 0.010862 0.0039565 -0.041586 
-0.045203 0.013657 -0.028762 0.0051074 0.053281 -0.024487 -0.032215 -0.22261 
-0.029748 -0.11853 -0.073482 0.024673 0.029441 -0.0027845 -0.059836 -0.28443 
-0.047176 -0.10784 -0.024652 0.08008 0.049992 0.012506 -0.014458 -0.22918 
-0.15421 -0.10127 0.014643 0.17297 0.072681 0.027796 -0.0068948 -0.15405 
-0.2379 -0.030077 0.16804 0.37159 0.12677 0.042758 0.040292 -0.040435 
-0.18134 0.066269 0.47599 0.51939 0.17117 0.062488 0.063639 0.06331 
-0.013143 0.16623 0.60423 0.49753 0.19517 0.075805 0.077943 0.071202 
0.081889 0.10984 0.47418 0.17232 0.13417 0.056733 0.051801 0.024508 
0.098823 -0.073811 0.10524 -0.16079 0.048348 0.015301 0.021056 0.0046141 
0.171 -0.14254 -0.26206 -0.32717 0.026481 0.011026 0.020562 0.0013258 
0.18267 -0.037805 -0.3423 -0.26354 0.041936 0.020069 -0.0032777 0.0046141 
0.093069 0.10935 -0.25779 -0.10801 -0.0032777 -0.00081153 0.013986 -0.0059084 
-0.082032 0.14798 -0.1792 -0.048327 -0.063782 -0.029584 -0.041915 -0.004593 
-0.16407 0.17741 -0.16851 -0.017253 -0.095678 -0.055561 -0.029584 0.07597 
-0.073811 0.1373 -0.23938 0.00066819 -0.086142 -0.044052 0.013328 0.28478 
0.069722 0.083368 -0.3395 -0.029913 -0.065755 -0.015444 0.081724 0.3757 
0.19287 0.021878 -0.31122 -0.027775 -0.048492 -0.0077169 0.068242 0.27606 
0.27179 0.11477 -0.14648 -0.0091966 0.020562 0.048019 0.079587 0.087643 
0.28543 0.20898 0.048677 0.03651 0.054432 0.082217 0.058377 -0.050464 
0.24137 0.24384 0.17939 0.011191 0.051801 0.09833 0.052952 -0.13678 
0.11411 0.1396 0.23381 -0.00015387 0.018425 0.077285 0.030756 -0.26124 
-0.012814 0.01563 0.25123 0.013164 0.0044497 0.048841 -0.0059084 -0.35611 
-0.10669 -0.036489 0.31667 0.063145 -0.013965 0.020069 -0.0052507 -0.22359 
-0.15174 0.029441 0.50509 0.24548 0.019083 0.023851 0.01974 0.017274 
-0.13908 0.10113 0.59568 0.2754 0.012177 0.025166 0.03092 0.17824 
-0.0067304 0.080573 0.49868 0.28856 0.033551 0.017932 0.02122 0.25485 
0.095535 0.055911 0.23611 0.15111 0.026646 -0.0024557 0.024673 0.33015 
0.088794 -0.10193 -0.080881 0.0039565 0.0056006 0.020069 0.022206 0.31174 
0.11313 -0.10242 -0.23148 -0.020706 -0.015444 0.025495 0.032071 0.17873 
0.090767 -0.039778 -0.19022 0.027468 0.0046141 0.027796 0.0026412 0.061172 
0.038155 -0.046847 -0.096665 0.12085 -0.0075525 -0.014129 -0.05326 0.00099702 
-0.14434 -0.13727 -0.082032 0.11263 -0.034681 -0.022021 -0.13103 -0.051615 
-0.27571 -0.14369 -0.15059 0.020891 -0.055068 -0.025638 -0.1159 -0.18709 
-0.16407 -0.073647 -0.20666 -0.068714 -0.051122 0.012177 -0.01676 -0.2522 
0.0047785 0.020562 -0.17065 -0.1404 -0.070194 0.05772 0.099974 -0.13251 
0.16278 0.15834 -0.060494 -0.10045 -0.062467 0.087972 0.171 0.18185 
0.26159 0.23134 0.037661 -0.059836 -0.068386 0.052952 0.16936 0.35893 
0.27655 0.25041 0.10491 -0.015773 -0.048985 0.075148 0.15489 0.36189 
0.20339 0.16623 0.14075 -0.0040998 -0.043066 0.032729 0.10951 0.16311 
0.14108 0.12973 0.14469 0.0042853 -0.028926 0.030098 0.051308 -0.022514 
0.11559 0.089616 0.08567 0.032564 -0.021856 -0.0077169 -0.047012 -0.28459 
0.0592 0.10277 -0.025474 0.03947 -0.0064016 -0.009361 -0.073976 -0.30415 
0.016945 0.058542 -0.14254 0.041772 -0.0090322 -0.015773 -0.068057 -0.05737 
0.035524 0.038648 -0.15552 -0.008539 -0.021034 0.037661 0.0070803 0.23611 
0.10737 0.025001 -0.057041 -0.031392 -0.036489 0.044073 0.053609 0.38819 
0.1396 0.072353 0.097837 0.01267 -0.032543 0.051308 0.093233 0.35613 
0.029769 0.045553 0.12414 -0.02942 -0.032708 0.041772 0.057391 0.21835 
-0.00097594 0.057555 0.013164 -0.032543 -0.01117 0.047197 0.052459 0.23118 
-0.091075 0.047197 -0.094856 -0.10028 -0.044217 -0.00064712 0.025659 0.26324 
-0.14698 0.015465 -0.025309 -0.084991 -0.065426 -0.012156 -0.0019624 0.0324 
-0.17542 -0.070687 0.14387 -0.052109 -0.056712 -0.045861 -0.0771 -0.53927 
-0.11853 -0.23017 0.24959 0.035524 0.018096 -0.022679 -0.11212 -0.54321 
-0.0024557 -0.28771 0.28395 0.19566 0.057227 0.0042853 -0.056383 -0.12609 
0.016288 -0.1376 0.34002 0.32128 0.10063 0.058871 0.0087245 0.091096 
-0.079401 0.070051 0.30253 0.31486 0.15111 0.052459 0.043745 -0.041751 
-0.22425 0.12513 0.21079 0.1955 0.13056 0.057555 0.023851 -0.24201 
-0.36433 0.17593 0.1368 0.041278 0.082217 0.028619 0.010533 -0.36186 
-0.30152 0.20355 0.03799 -0.032708 0.051965 0.02533 -0.023501 -0.27736 
-0.019719 0.18859 -0.084991 -0.10784 0.033058 -0.001798 -0.032215 -0.16424 
0.30467 0.084848 -0.2208 -0.10949 0.041114 0.011684 -0.018568 -0.06707 
0.48832 0.047197 -0.36663 -0.1575 0.038483 0.031742 0.046375 0.039305 
0.43587 0.097179 -0.46084 -0.14911 0.048184 0.056076 0.048019 0.10688 
0.22805 0.1659 -0.36055 -0.094199 0.055582 0.033058 0.071202 0.14305 
0.086492 0.24384 -0.067728 -0.0068948 0.050157 0.024179 0.051308 0.23101 
0.043087 0.19895 0.19353 0.039963 0.031578 0.019576 0.069229 0.18547 
0.015137 0.16837 0.34331 0.028454 0.076463 0.016452 0.090438 0.12464 
0.0092177 0.052952 0.30039 0.035688 0.089287 0.026646 0.06035 0.069886 
-0.026296 -0.069701 0.1927 0.0075736 0.089123 0.021713 0.045224 -0.00031829 
-0.022514 -0.12988 0.24482 0.03947 0.097672 0.040621 0.044238 -0.015116 
-0.051944 -0.052931 0.35646 0.17347 0.13549 0.044896 0.07449 -0.024487 
-0.044217 -0.08121 0.38359 0.2731 0.14371 0.036182 0.035688 -0.02087 
0.010697 -0.11113 0.14239 0.29415 0.1322 0.031578 0.033551 0.021713 
-0.0016336 -0.17525 -0.21143 0.10573 0.12299 0.041278 0.011684 0.086163 
-0.041586 -0.10225 -0.45278 -0.076113 0.097344 0.0324 0.041772 0.088136 
-0.086471 0.09274 -0.41382 -0.11837 0.086821 0.041772 0.032071 0.0065871 
-0.13316 0.22411 -0.18693 -0.086307 0.084684 0.04095 0.045882 -0.08121 
-0.12067 0.23282 0.034373 -0.0040998 0.067749 0.01563 0.026152 -0.13744 
-0.032708 0.051636 0.12447 0.061666 0.053281 0.028947 0.030427 -0.088444 
0.088301 -0.15224 0.14239 0.068242 0.040456 0.018425 0.03799 0.012835 
0.11 -0.21438 0.17659 0.096193 0.055911 0.010862 0.049828 0.069393 
0.037004 -0.085649 0.32522 0.13532 0.089616 0.038319 0.026481 -0.0022913 
-0.040106 0.019083 0.39789 0.14617 0.10129 0.053938 0.013492 -0.11771 
-0.085978 0.11 0.4658 0.13812 0.088136 0.042923 0.014808 -0.22392 
-0.039284 0.16689 0.47155 0.1613 0.08304 0.02829 0.015465 -0.13892 
0.15818 0.25551 0.28987 0.10556 0.1026 0.031578 0.029769 0.050321 
0.27343 0.18646 -0.058521 -0.025474 0.096193 0.022535 0.062817 0.16771 
0.2948 0.08156 -0.39113 -0.13514 0.047033 0.035853 0.073339 0.21605 
0.22493 0.054432 -0.45558 -0.11327 0.038812 0.005765 0.055089 0.18909 
0.12299 0.072681 -0.31024 0.03651 0.051308 0.038155 0.090603 0.15933 
0.031414 0.064461 -0.12083 0.1151 0.071202 0.030592 0.068078 0.12908 
0.032071 0.014972 -0.030242 0.10967 0.06183 0.050157 0.083862 0.15012 
0.079422 0.034044 -0.016266 0.1077 0.092247 0.042265 0.070544 0.18498 
0.045553 -0.031557 0.018096 0.089616 0.048841 0.051636 0.057062 0.16706 
-0.091732 -0.15372 0.053116 0.069886 0.018425 0.013986 0.016123 0.12513 
-0.14023 -0.25697 0.14683 0.027468 0.0042853 0.039141 0.027796 0.19402 
-0.11048 -0.16769 0.3341 0.070051 0.0067515 0.0324 0.095206 0.37339 
-0.033694 -0.079566 0.36912 0.085012 -0.00081153 0.016945 0.10688 0.3946 
0.061501 -0.023336 0.13713 0.027632 -0.0098543 0.0037921 0.098659 0.26948 
0.12184 0.004943 -0.14829 -0.037476 -0.0042642 0.027632 0.061008 0.079422 
0.085177 0.084848 -0.23296 -0.095185 0.024179 0.013492 0.038483 -0.087951 
0.042923 0.20191 -0.12889 -0.029913 0.028454 0.043745 -0.0062372 -0.14254 
0.074326 0.23068 -0.022514 -0.011005 0.023851 0.023686 -0.011663 -0.069208 
0.16919 0.21786 -0.014622 0.0032988 0.019411 0.049828 -0.010183 0.16278 
0.094384 0.13943 -0.082361 -0.014458 -0.0050863 -0.0050863 0.021384 0.34347 
-0.031392 0.034866 -0.14665 -0.060823 -0.015938 0.011355 -0.014787 0.19106 
-0.043395 0.010204 -0.11672 -0.041093 -0.025638 -0.01528 -0.015116 -0.20271 
0.02533 0.11411 -0.02087 -0.018733 -0.017746 0.01826 -0.076771 -0.61555 
0.14601 0.1105 0.00017495 -0.0080457 -0.030735 -0.039284 -0.071345 -0.51723 
0.27672 0.13088 0.050321 0.019411 -0.006566 0.028619 -0.015609 -0.0068948 
0.30845 0.12677 0.055254 0.042923 0.0069159 0.02122 0.033387 0.34791 
0.075148 0.18333 0.020891 0.070708 0.028454 0.1128 0.11 0.39707 
-0.11935 0.10902 -0.054575 -0.050136 0.00050378 0.060022 0.094384 0.28412 
-0.12593 0.0042853 -0.25368 -0.13777 -0.0024557 0.04095 0.065283 0.2223 
0.033551 -0.0091966 -0.35907 -0.16358 0.016945 0.0067515 0.021056 0.19632 
0.069886 0.08156 -0.30679 -0.065262 0.037497 0.023522 0.016781 0.085341 
-0.022843 0.17297 -0.094527 0.028947 0.035853 0.00099702 -0.025145 -0.03057 
-0.02087 0.14716 0.087479 0.044567 0.041443 0.023851 -0.017746 -0.051122 
0.040128 0.071037 0.12365 0.082382 0.022864 -0.014129 -0.032543 0.029769 
0.09685 0.025659 0.11609 0.0060938 0.013164 -0.003771 -0.0068948 0.14124 
0.066434 0.041443 0.12858 0.013657 -0.02498 -0.022021 -0.03353 0.00050378 
-0.00081153 0.06479 0.24663 0.078272 -0.0073881 0.0054362 -0.004593 -0.23461 
-0.092719 0.086821 0.29941 0.14371 0.0036276 0.0087245 0.013492 -0.25943 
-0.21159 -0.014293 0.24943 0.17199 0.010862 0.034702 0.014972 -0.2328 
-0.18117 -0.031064 0.17462 0.098166 -0.013636 -0.0057439 -0.038462 -0.22063 
-0.0070593 0.013657 0.087314 0.015301 -0.047998 -0.043724 -0.064604 -0.12642 
0.13549 0.055418 -0.045696 -0.1159 -0.072167 -0.043888 -0.031886 -0.0075525 
0.13631 0.095042 -0.099953 -0.13793 -0.041751 0.010369 -0.0032777 0.10096 
0.068407 0.10556 -0.094034 -0.081045 0.016781 0.031907 0.064461 0.17248 
0.11329 0.15308 -0.060329 -0.036818 0.022371 0.044073 0.094877 0.23742 
0.21474 0.19353 0.083204 0.038155 0.032071 0.040292 0.091425 0.21474 
0.2343 0.16771 0.11346 0.015794 0.057227 0.02681 0.041443 0.047362 
0.19336 0.031085 -0.054739 -0.030077 0.056569 0.047362 0.058542 -0.078744 
-0.062631 -0.1113 -0.24973 -0.040928 0.03388 0.035195 0.04506 -0.11968 
-0.26798 -0.23132 -0.19794 0.042429 0.032071 0.0069159 0.052459 -0.06444 
-0.17295 -0.14221 0.080244 0.1909 0.040785 0.030098 0.051965 0.0069159 
0.0036276 -0.075455 0.32391 0.23594 0.068571 0.051636 0.055254 0.016123 
0.023357 0.019083 0.3946 0.24926 0.029605 0.046046 -0.0098543 -0.05326 
-0.083676 0.083368 0.36287 0.2029 0.043251 0.019247 -0.019719 -0.068057 
-0.17213 0.14848 0.24071 0.14782 0.061008 0.0088889 -0.017911 -0.049149 
-0.11491 0.14963 0.094055 0.072353 0.029605 0.0088889 -0.026789 -0.11097 
0.028619 0.05213 -0.046025 -0.022679 0.014643 -0.004593 -0.031557 -0.084827 
0.16492 0.015959 -0.11228 -0.042244 0.024015 -0.013307 -0.03912 -0.034188 
0.19336 -0.026131 -0.11903 -0.082525 0.020891 -0.038956 -0.0073881 -0.043888 
0.071859 -0.039942 -0.0868 -0.061316 -0.010348 -0.014129 0.0095465 0.0080668 
-0.015938 -0.051122 0.047197 -0.026296 0.0227 0.011684 0.041443 0.067749 
-0.019061 0.03388 0.13072 0.033058 0.013986 0.013657 0.018425 0.097015 
-0.020706 0.022206 0.18925 0.068407 0.013821 -0.00031829 0.034209 0.06183 
0.0067515 0.08863 0.25847 0.079258 -0.0021268 0.011026 0.0090533 0.055089 
0.079751 0.1197 0.23858 0.073997 0.023028 0.038319 0.094877 0.045389 
0.10458 0.15966 0.18843 0.053281 0.03799 0.0421 0.052459 0.014315 
0.032564 0.056404 0.11757 0.018754 0.02122 0.024673 0.044731 -0.040435 
0.06742 0.019905 0.091425 0.048348 0.021056 0.030427 0.052459 -0.031721 
0.10014 -0.0059084 0.11609 0.11231 0.06479 0.043909 0.072188 0.037168 
0.065776 -0.1381 0.019247 0.15275 0.088958 0.072353 0.09981 0.14239 
0.0059294 -0.15783 -0.08384 0.11329 0.10573 0.075805 0.11855 0.20832 
-0.0080457 -0.15421 -0.10521 0.12677 0.10458 0.092904 0.11132 0.19665 
-0.033859 -0.06444 -0.035667 0.19846 0.099481 0.044896 0.071037 0.13023 
-0.030735 -0.039778 0.054925 0.22033 0.086985 0.027139 0.051636 0.099481 
-0.054246 -0.024487 0.038319 0.15949 0.04095 0.010697 0.018754 0.031742 
-0.04619 -0.038133 -0.011663 0.01415 0.027468 0.023193 0.022371 -0.051287 
0.01152 0.037168 -0.043888 -0.070852 0.022371 0.034866 0.013657 -0.041093 
0.09274 0.11576 -0.070194 -0.11163 0.030098 0.069229 0.070873 0.078107 
0.09833 0.20602 -0.11031 -0.14254 0.011191 0.041936 0.06594 0.19533 
0.089945 0.20816 -0.15076 -0.11985 -0.044874 0.020727 0.061995 0.13647 
0.076299 0.20191 -0.13727 -0.10949 -0.049478 -0.014787 0.0056006 -0.028433 
0.14354 0.16788 -0.0771 -0.030899 -0.023829 0.016123 0.00099702 -0.18874 
0.16755 0.10195 -0.11541 -0.019719 0.016945 0.0088889 0.00033937 -0.13267 
0.15045 0.072024 -0.13547 -0.018404 0.048513 0.042265 0.046375 0.11165 
0.08304 0.041936 -0.073482 -0.014458 0.045224 0.035031 0.085835 0.28724 
0.073997 0.10836 0.074326 -0.013471 0.029769 0.032564 0.075641 0.34035 
0.11263 0.20767 0.29135 0.11033 0.017767 -0.0032777 0.052294 0.34199 
0.19829 0.29809 0.35186 0.13483 0.0069159 -0.03616 -0.043888 0.29678 
0.19796 0.12825 0.17971 0.0064227 -0.041422 -0.12988 -0.2106 0.054267 
0.051801 -0.0068948 -0.0054151 -0.080717 -0.043066 -0.12297 -0.29034 -0.28327 
-0.22244 -0.18989 -0.05178 -0.051122 -0.0040998 -0.076442 -0.19449 -0.48205 
-0.37748 -0.21291 -0.03616 0.059528 0.074983 0.047362 -0.069536 -0.73706 
-0.26059 -0.13168 0.04654 0.12875 0.11378 0.097672 0.050814 -0.94931 
-0.0055795 -0.013636 0.11247 0.16327 0.12973 0.14535 0.14387 -0.24201 
0.099152 0.030756 0.016123 0.092411 0.096193 0.12792 0.22838 0.43702 
-0.042737 0.091918 -0.074304 0.0024767 0.053281 0.12118 0.21441 0.60144 
-0.19022 0.17758 -0.15191 -0.022679 0.030098 0.046211 0.18383 0.44015 
-0.18101 0.21852 -0.19729 -0.063618 0.01563 0.068571 0.11625 0.24318 
0.0051074 0.20931 -0.10258 -0.0068948 0.00033937 0.039305 0.048677 0.11724 
0.18152 0.2052 0.10326 0.0024767 -0.04323 0.04506 0.010533 0.069722 
0.25962 0.11444 0.18054 0.021713 -0.025967 -0.030242 -0.022021 0.01974 
0.20471 0.053609 0.13812 0.09126 -0.036983 0.015301 -0.00064712 0.0023123 
0.13171 -0.019555 0.01152 0.053938 0.0074092 0.0047785 0.0024767 -0.054246 
0.10967 -0.03764 -0.016431 0.034373 0.044567 0.033387 0.011355 0.01152 
0.083204 0.0080668 0.020891 -0.061809 0.0083956 0.0088889 -0.021363 0.026974 
0.02829 -0.0070593 0.0028056 -0.099131 0.026646 0.0046141 -0.023336 0.01974 
0.0088889 0.058706 -0.009361 -0.044874 0.062488 -0.02087 -0.065919 0.0065871 
0.00033937 0.08304 0.067256 0.031249 0.05772 -0.030899 -0.075291 -0.035174 
-0.038791 0.066269 0.25929 0.14667 0.059364 -0.042901 -0.096665 -0.084827 
-0.039778 0.019576 0.3489 0.15768 0.034866 0.028125 -0.011992 -0.091568 
-0.028269 0.0075736 0.29168 0.12151 0.041443 0.037661 0.049664 -0.066084 
-0.03205 0.019905 0.17988 0.071202 -0.001798 0.060679 0.08156 -0.058028 
-0.076935 -0.044874 0.11937 0.055418 -0.0013048 0.030756 0.069558 -0.015609 
-0.078908 -0.047341 0.12003 0.08008 0.0047785 0.011684 0.040785 0.021878 
-0.042244 -0.015773 0.12694 0.05624 -0.013965 -0.0040998 0.058377 0.090109 
0.0087245 0.09981 0.06594 -0.013965 -0.029748 -0.008539 0.046704 0.086492 
0.12135 0.15308 -0.076771 -0.11607 -0.042079 -0.031721 0.04654 0.16081 
0.27162 0.20487 -0.18413 -0.13464 -0.0047575 0.023686 0.0087245 0.25123 
0.31042 0.09274 -0.2425 -0.12478 -0.0036066 0.048019 0.072024 0.24548 
0.16558 -0.040435 -0.21044 -0.080881 0.05213 0.074983 0.060844 0.2195 
0.0028056 -0.036325 0.0044497 0.068571 0.085999 0.096521 0.098166 0.12973 
-0.13284 0.041114 0.22772 0.17314 0.10014 0.072517 0.046375 -0.037147 
-0.2448 0.11247 0.28017 0.2195 0.090438 0.047362 -0.00081153 -0.35118 
-0.32027 0.063474 0.1465 0.12743 0.050157 0.0227 -0.073811 -0.35808 
-0.25171 -0.042901 0.029441 0.080902 0.047033 0.025659 -0.038956 -0.18232 
-0.054739 -0.22096 -0.037476 0.12497 0.043745 0.020233 -0.018404 -0.071345 
0.086821 -0.16999 0.042594 0.15209 0.046868 0.032071 0.0088889 -0.019226 
0.098823 0.042265 0.11263 0.10606 0.027796 0.013657 0.033058 0.11115 
0.14864 0.17971 0.035524 1.0539e-005 0.0028056 0.016781 0.10277 0.30171 
0.18465 0.085177 -0.029255 -0.057041 -0.0026201 0.019576 0.14387 0.39871 
0.17577 -0.00097594 -0.078415 -0.066248 -0.020377 0.029934 0.11855 0.41483 
0.15472 -0.065097 -0.072989 -0.07414 -0.013307 0.018096 0.07597 0.3461 
0.18925 0.015137 0.03947 0.017274 0.040785 0.049992 0.045882 0.19681 
0.24334 0.11247 0.11691 0.070544 0.068407 0.023686 0.04917 0.032071 
0.24844 0.13319 0.099152 0.071037 0.051472 0.042923 0.046211 -0.03912 
0.20257 0.12053 0.061666 0.061172 0.055418 0.034373 0.071366 0.081067 
0.076792 0.14946 0.092082 0.099481 0.075641 0.066269 0.061337 0.11444 
-0.036654 0.18761 0.088465 0.14667 0.060844 0.047526 0.082875 -0.015609 
-0.076606 0.085999 -0.027447 0.038155 0.015794 0.041936 0.022371 -0.19712 
-0.065097 0.026481 -0.25302 -0.10834 -0.042901 -0.017582 -0.0057439 -0.19416 
-0.046025 0.01267 -0.29561 -0.20074 -0.062796 -0.043888 -0.039284 -0.076113 
-0.062631 0.062323 -0.20189 -0.14911 -0.096665 -0.064275 -0.047834 -0.00031829 
-0.073318 0.078272 -0.12248 -0.074798 -0.076771 -0.023994 -0.0044286 0.032893 
0.02122 0.10655 -0.15914 -0.059343 -0.023994 -0.008539 0.034702 0.13302 
0.014643 -0.026131 -0.21537 -0.032872 0.067256 0.056076 0.053938 0.18333 
-0.096172 -0.17394 -0.22211 -0.041093 0.073668 0.066434 0.042923 0.088465 
-0.084663 -0.088444 0.041114 0.063968 0.12891 0.11576 0.031085 -0.083676 
-0.014293 0.084684 0.3729 0.2052 0.15292 0.070544 -0.011005 -0.17821 
0.044731 0.14815 0.52893 0.26472 0.1539 0.063803 0.0034632 -0.17328 
0.098494 0.077449 0.4556 0.23068 0.07597 0.0085601 0.0019835 -0.080552 
0.10622 -0.014129 0.30385 0.099316 0.020891 0.0093821 0.074161 0.026152 
0.046868 -0.026953 0.15818 0.044731 -0.0039354 0.014972 0.060844 0.049335 
0.12003 0.030756 0.10836 0.062323 0.0052718 0.039305 0.10096 0.15538 
0.19122 0.045224 0.11822 0.097344 0.015301 0.035031 0.12644 0.24121 
0.18218 0.061501 -0.0064016 0.013164 0.0023123 0.033387 0.094713 0.20964 
0.13056 0.071037 -0.1695 -0.058028 -0.013471 0.0041209 0.058871 0.15407 
0.12612 0.17577 -0.28854 -0.066084 0.00033937 0.031578 0.080738 0.24696 
0.12332 0.20043 -0.2836 -0.091404 0.020233 0.022371 0.095699 0.36813 
0.15308 0.20635 -0.22606 -0.10604 -0.0026201 0.045882 0.064132 0.31634 
0.04358 0.085012 -0.23017 -0.10505 0.01974 0.018918 0.0074092 0.072353 
-0.19548 0.026152 -0.12166 -0.089431 0.0042853 -0.0087034 -0.12429 -0.35611 
-0.27637 0.16508 0.083862 -0.0055795 -0.013965 -0.068221 -0.17525 -0.54897 
-0.13168 0.19665 0.13713 -0.022679 0.0021479 -0.075949 -0.19268 -0.58974 
0.036182 -0.011498 0.097015 -0.0054151 0.015137 -0.069865 -0.14023 -0.49849 
0.094055 -0.10308 0.20454 0.086657 0.069064 -0.0011404 -0.071838 -0.15668 
0.047526 -0.068057 0.21654 0.13647 0.087808 0.038155 0.076956 0.171 
-0.012485 -0.11623 0.039305 0.10474 0.088465 0.10113 0.14765 0.38244 
0.045718 -0.0029489 -0.031064 0.047033 0.078436 0.091753 0.17922 0.39773 
0.15867 0.12529 0.0018191 0.054925 0.038812 0.073175 0.15374 0.35794 
0.23233 0.1927 0.036839 0.034702 0.038648 0.042758 0.12151 0.27606 
0.14798 0.044731 -0.01528 0.057062 0.01711 0.040621 0.079587 0.20158 
-0.048656 -0.10702 -0.1279 0.016452 -0.03912 -0.0077169 0.044567 0.050814 
-0.17065 -0.15454 -0.10965 -0.03353 -0.073811 -0.030735 -0.029091 -0.095678 
-0.088608 0.022864 0.0046141 -0.025638 -0.034845 -0.022021 -0.018075 -0.10669 
-0.030735 0.19714 0.034209 -0.0083746 0.04095 0.029605 0.00099702 -0.12166 
-0.019884 0.23397 0.041607 0.044731 0.065447 0.029605 -0.023501 -0.12511 
0.026317 0.22016 0.13565 0.088958 0.067913 0.034702 -0.051944 -0.13218 
0.059035 0.0786 0.21342 0.11559 0.062981 0.007738 -0.072496 -0.089595 
-0.00015387 -0.12462 0.21819 0.12036 0.060679 0.0041209 -0.026131 -0.075291 
-0.046354 -0.27259 0.26505 0.052294 0.068407 0.020891 -0.011663 -0.033365 
-0.17575 -0.27357 0.3484 0.085012 0.062159 0.059364 0.027303 -0.0060728 
-0.19054 -0.21767 0.4316 0.14798 0.062981 0.048348 -0.0021268 -0.041422 
-0.049807 -0.036654 0.45462 0.21852 0.036675 0.054925 0.025495 -0.0021268 
0.19566 0.15851 0.36715 0.22164 0.040456 0.045389 0.057884 0.10721 
0.26866 0.2999 0.25403 0.12431 0.01563 0.045718 0.12513 0.27491 
0.21802 0.21901 -0.10341 -0.032215 0.0041209 0.03536 0.15505 0.33936 
0.12118 0.025166 -0.50951 -0.19285 -0.0064016 0.027961 0.13105 0.26159 
0.081889 -0.018568 -0.64038 -0.21751 -0.01117 -0.0088678 0.070873 0.12266 
0.035524 -0.046025 -0.50507 -0.18084 -0.004593 -0.011334 -0.024652 0.019247 
-0.045368 -0.017088 -0.22326 -0.07266 -0.022021 -0.045203 -0.082361 -0.052437 
-0.11196 0.0093821 0.051308 0.032564 -0.018897 -0.031886 -0.12659 -0.08121 
-0.087622 0.0689 0.20125 0.099152 0.023851 -0.030735 -0.11212 -0.087951 
-0.031064 0.11559 0.27919 0.18004 0.046375 -0.014622 -0.17805 -0.19482 
0.010697 0.17281 0.31289 0.19501 0.095699 -0.0070593 -0.16243 -0.25911 
0.035524 0.12497 0.22624 0.16804 0.11017 0.055418 -0.040106 -0.25565 
0.10359 0.09126 0.11494 0.14108 0.12102 0.10228 0.13516 -0.10883 
0.19188 0.060515 -0.0062372 0.078107 0.12727 0.12217 0.17396 0.11132 
0.15407 0.061008 -0.10045 0.023851 0.08304 0.082053 0.17034 0.22345 
-0.025638 -0.047505 -0.22244 -0.081045 -0.013143 0.02533 0.099316 0.090274 
-0.1672 -0.089266 -0.18972 -0.09387 -0.071509 -0.019061 0.075312 -0.0098543 
-0.054904 0.005765 -0.026131 -0.062302 -0.066248 -0.01117 0.048677 0.092411 
0.15916 0.11263 0.017932 -0.036654 -0.022021 0.029276 0.060844 0.19632 
0.18152 0.031249 -0.14632 -0.05885 -0.001798 0.013492 0.040785 0.14881 
0.0085601 -0.042573 -0.11804 -0.12494 -0.010676 -0.0036066 -0.020706 0.063803 
-0.14582 -0.038956 0.15851 -0.078086 -0.051944 -0.027775 -0.065097 -0.01528 
-0.15865 -0.048163 0.38885 0.013492 -0.054904 -0.020048 -0.053424 0.049664 
-0.041751 0.087972 0.56658 0.19484 0.047691 0.01826 -0.00064712 0.1299 
0.12283 0.18958 0.63498 0.32884 0.15094 0.053774 0.0072447 0.09981 
0.24186 0.23923 0.5383 0.31601 0.14798 0.058049 0.027961 -0.064604 
0.17593 0.15324 0.39312 0.27623 0.1248 0.075312 0.023686 -0.18035 
-0.090581 0.03651 0.11757 0.11757 0.056733 0.031578 0.049664 -0.25549 
-0.19416 -0.024816 -0.11459 -0.0036066 0.042429 0.035524 0.064625 -0.182 
-0.034516 0.020891 -0.3691 -0.065591 0.025659 0.029112 0.090931 0.030592 
0.11033 0.03388 -0.57379 -0.15405 0.021713 0.047197 0.086985 0.27606 
0.15176 0.037497 -0.6223 -0.16901 0.028783 0.065118 0.1202 0.38655 
0.19139 0.11937 -0.51148 -0.20879 -0.0019624 0.0592 0.12135 0.38918 
0.23348 0.16114 -0.38883 -0.21093 -0.062302 0.0065871 0.079094 0.35794 
0.18826 0.19862 -0.26042 -0.2037 -0.094692 -0.011498 0.084026 0.27573 
0.10754 0.22411 -0.15832 -0.12725 -0.058356 -0.0024557 0.072353 0.13138 
0.11198 0.22411 -0.0039354 -0.03353 -0.024652 -0.0073881 0.084684 -0.00081153 
0.1003 0.098659 0.087314 -0.01939 0.010204 0.017274 0.037168 -0.29791 
0.037826 0.047197 0.25995 0.083697 0.084355 0.058213 0.035195 -0.50556 
0.032729 0.0034632 0.36221 0.17462 0.13154 0.068736 0.092904 -0.035338 
0.041443 -0.014458 0.42913 0.24745 0.15061 0.071859 0.12233 0.36846 
-0.13168 -0.03764 0.45379 0.26028 0.10113 0.027796 0.049499 0.21605 
-0.3469 0.020398 0.45626 0.20224 0.042923 0.0018191 -0.060987 -0.41102 
-0.44522 -0.045532 0.31716 0.1909 0.023522 -0.048163 -0.17049 -0.87714 
-0.24924 -0.16046 0.12151 0.11806 -0.014951 -0.098309 -0.21685 -0.78276 
0.068736 -0.20715 -0.010841 0.061995 -0.023336 -0.10472 -0.24365 -0.16177 
0.24203 -0.14221 -0.05589 0.053938 0.0011614 -0.066741 -0.14155 0.34873 
0.1978 0.02533 -0.15602 -0.0004827 0.025659 -0.011005 0.0069159 0.47385 
0.14124 0.092082 -0.26667 -0.07414 0.038319 0.047197 0.10228 0.41253 
0.14338 0.20487 -0.21093 -0.11787 0.050157 0.075148 0.1345 0.28264 
0.18267 0.23529 -0.063618 -0.052602 0.044731 0.10672 0.095535 0.22559 
0.13187 0.19435 0.030592 -0.019555 0.045224 0.10491 0.13203 0.21161 
0.0592 0.10096 0.051472 -0.00064712 0.037332 0.11231 0.19961 0.22871 
0.057555 0.065776 0.035195 0.030427 0.023028 0.099481 0.25485 0.24515 
0.064461 0.053938 0.013821 0.0069159 -0.0087034 0.066269 0.19139 0.12365 
0.054596 0.027961 -0.10423 0.0039565 -0.0073881 0.021056 0.11642 0.083862 
0.075641 -0.029584 -0.25269 -0.07825 0.0065871 0.012342 0.012177 0.059693 
0.035853 -0.073811 -0.21751 -0.091239 0.019576 -0.015773 -0.037805 -0.045368 
-0.027611 0.0036276 -0.070523 -0.025309 0.047197 -0.016266 -0.08269 -0.17887 
-0.099953 0.096521 0.076134 0.081067 0.06331 -0.037969 -0.071838 -0.27341 
-0.17328 0.14371 0.15193 0.11148 0.032893 -0.03353 -0.098473 -0.38439 
-0.18742 0.084355 0.18152 0.075148 0.06035 -0.013636 -0.055232 -0.4005 
-0.12609 0.055418 0.26389 0.12398 0.078272 0.034537 -0.043724 -0.22244 
0.046375 0.0083956 0.32012 0.19303 0.087808 0.046211 0.0046141 0.12168 
0.14552 -0.010512 0.46826 0.31108 0.08978 0.072681 0.057227 0.39839 
0.075476 -0.15898 0.4801 0.3096 0.050157 0.016452 -0.013965 0.36534 
0.0095465 -0.2379 0.43587 0.088465 -0.033201 -0.034516 -0.086142 0.14831 
0.081067 -0.091239 0.34758 0.00033937 -0.027611 -0.03616 -0.11689 -0.048163 
0.1345 -0.0014692 -0.018075 -0.10571 -0.031228 0.014479 -0.013471 0.048019 
0.14716 -0.03501 -0.45525 -0.20025 -0.055232 -0.0040998 0.052952 0.19073 
0.19681 0.025001 -0.57609 -0.18824 -0.067892 -0.01528 0.074983 0.06183 
0.25041 0.22378 -0.40576 -0.10949 -0.025802 -0.03912 0.073175 -0.038627 
0.09422 0.2075 -0.2961 -0.03057 0.039141 0.0227 0.079258 -0.031557 
-0.094034 0.052787 -0.25236 -0.040928 0.056898 0.054432 0.044402 -0.038462 
-0.22047 -0.095514 -0.16934 -0.0091966 0.030756 0.047197 0.031578 -0.10949 
-0.24316 -0.012485 0.0016547 0.042429 0.049664 0.02122 -0.0055795 -0.076606 
-0.24118 0.079916 0.15111 0.092082 0.065447 0.045553 -0.0021268 -0.051615 
-0.15158 0.093562 0.15818 0.11099 0.064132 0.0324 -0.010512 -0.030077 
0.074654 0.047526 0.051143 0.044402 0.047691 0.033715 0.024344 0.21342 
0.25913 0.095699 0.058871 0.061995 0.012835 0.01267 0.11461 0.38079 
0.24943 0.087808 0.20701 0.060515 0.012506 0.056076 0.10918 0.3461 
0.18021 0.12414 0.37241 0.098001 0.037332 0.013657 0.11707 0.2075 
0.073504 0.054103 0.31223 0.097672 0.036346 0.049335 0.043416 0.081231 
0.038648 0.012506 0.25584 0.050321 0.050814 0.042758 0.011684 0.023028 
0.060679 0.035524 0.26801 0.065283 0.034537 0.050486 0.012999 -0.003771 
0.1373 0.13631 0.23693 0.020562 0.0047785 0.042594 0.06742 -0.055726 
0.15867 0.14272 -0.059178 -0.086142 0.010697 0.051965 0.060515 0.0034632 
0.098823 -0.039778 -0.5049 -0.17723 -0.01939 0.012013 0.073997 0.10951 
0.062159 -0.091239 -0.55883 -0.12067 0.0088889 0.038155 0.081724 0.21145 
0.1003 0.01267 -0.42204 0.037332 0.049499 0.06742 0.13006 0.27409 
0.17149 0.13171 -0.23839 0.069886 0.071202 0.087479 0.11148 0.21967 
0.15999 0.10819 -0.085485 0.035524 0.067091 0.055418 0.064132 0.13467 
0.097508 0.077449 0.06594 -0.0098543 0.031742 0.047197 0.007738 -0.066084 
-0.023501 -0.031392 0.1373 0.0016547 0.014315 -0.0004827 -0.053917 -0.25236 
-0.12511 -0.048492 0.19073 0.050979 0.0065871 -0.00064712 -0.034023 -0.23395 
-0.17739 0.067913 0.37701 0.083697 0.011191 0.012506 -0.0032777 0.03651 
-0.10209 0.15193 0.61936 0.22164 0.034866 0.014808 0.042923 0.11033 
-0.037969 0.19632 0.64402 0.19566 0.017438 -0.0032777 0.0031344 -0.14336 
-0.11508 0.1128 0.24499 0.05624 -0.025967 -0.023336 -0.0091966 -0.41185 
-0.26305 -0.01117 -0.15421 -0.068057 -0.046519 -0.039942 -0.0406 -0.30202 
-0.17164 -0.13333 -0.38126 -0.15289 -0.038462 -0.027282 0.019411 -0.064604 
0.0047785 -0.073976 -0.44555 -0.082196 0.02122 0.028619 0.11148 0.072188 
0.18284 0.057227 -0.28064 -0.016431 0.12644 0.11937 0.2001 0.19879 
0.26044 0.1054 -0.20584 0.057062 0.16673 0.18563 0.19451 0.33706 
0.19714 -0.022021 -0.14287 0.092576 0.14058 0.16245 0.15061 0.28773 
-0.009361 0.011848 0.059035 0.1493 0.094384 0.12118 0.052459 0.14716 
-0.068057 0.088136 0.21769 0.17265 0.020069 0.031742 -0.0036066 0.026646 
0.05624 0.15505 0.27836 0.076792 -0.026953 -0.019226 -0.020706 1.0539e-005 
0.21457 0.22082 0.35514 0.095042 0.0052718 0.0031344 -0.0042642 0.0080668 
0.20619 0.19616 0.2195 0.066105 0.05772 0.026974 0.034209 0.032236 
0.063639 0.053938 0.0060938 -0.0039354 0.061337 0.030427 0.023851 0.061172 
-0.068714 -0.027775 -0.019555 0.016945 0.047362 0.00066819 -0.0021268 -0.010348 
-0.085485 0.044567 0.034209 0.038812 0.042923 -0.038956 -0.055397 -0.12774 
-0.051615 0.019247 -0.0068948 0.017603 0.021056 -0.071509 -0.087293 -0.084991 
-0.047176 -0.07562 -0.14533 -0.092061 -0.0050863 -0.0868 -0.11212 -0.0050863 
-0.055397 -0.096994 -0.17279 -0.10456 -0.018568 -0.052273 -0.049642 0.031085 
-0.030077 0.050486 -0.014458 -0.021363 -0.018733 0.00066819 -0.0031133 0.056404 
0.02122 0.15456 0.13746 0.080738 0.044731 0.059528 0.048019 0.016781 
-0.0078813 0.23151 0.25518 0.13286 0.033058 0.065447 0.044238 -0.022514 
-0.062138 0.14552 0.23792 0.099152 0.022206 0.039799 0.099974 0.014808 
-0.093212 0.010204 0.059528 0.059364 0.013492 0.047526 0.053609 0.11921 
-0.0088678 -0.12149 -0.069208 0.058871 0.036839 0.045718 0.047362 0.14289 
0.12283 -0.15766 -0.091897 0.090931 0.059035 0.057884 0.062652 0.15571 
0.19106 -0.090581 -0.078908 0.060844 0.052623 0.048019 0.037661 0.095042 
0.14272 -0.13152 -0.1233 -0.060987 0.0083956 0.0059294 -0.013471 -0.049314 
-0.023336 -0.028433 -0.12001 -0.10193 -0.026953 -0.029584 -0.11541 -0.34098 
-0.1524 0.10129 0.013328 -0.059507 -0.063453 -0.062467 -0.13037 -0.49685 
-0.15207 0.2514 0.086657 0.021713 -0.009361 -0.021692 -0.087951 -0.34592 
0.029769 0.26505 0.0067515 0.025824 0.058049 0.020891 0.024837 -0.03912 
0.20684 0.27869 -0.18364 -0.020706 0.055254 0.033387 0.053281 0.40546 
0.18432 0.17577 -0.32027 -0.023994 0.01004 -0.015938 0.076627 0.57973 
-0.012649 -0.047176 -0.25368 -0.03057 -0.011663 -0.01232 -0.028762 0.22657 
-0.15421 -0.22425 -0.043395 0.027303 0.014972 -0.027775 -0.035174 -0.26124 
0.01004 -0.11097 0.305 0.14321 0.059528 0.035031 -0.011334 -0.24941 
0.2486 0.083533 0.55244 0.23315 0.11839 0.057062 0.060022 0.079094 
0.28362 0.10967 0.66622 0.26242 0.10425 0.049664 0.068736 0.18383 
0.035031 -0.080388 0.65783 0.21342 0.059364 0.01563 0.01415 0.059364 
-0.21751 -0.19992 0.56609 0.17396 0.024015 -0.016431 -0.03353 -0.1575 
-0.20929 -0.10669 0.28214 0.076792 0.0090533 -0.012649 -0.034352 -0.13366 
-0.03205 0.051143 -0.00031829 -0.0034422 0.024344 0.019247 0.011026 -0.0078813 
0.13006 0.17544 -0.20353 -0.052766 0.018918 0.033222 0.029769 0.12135 
0.097179 0.1373 -0.33556 -0.15914 -0.00031829 0.026646 0.048348 0.15111 
0.055582 0.1442 -0.33704 -0.12511 -0.016924 0.012013 0.0039565 0.15982 
0.071695 0.11691 -0.24382 -0.14928 -0.029584 0.027139 0.028619 0.097837 
0.095371 0.1031 -0.13859 -0.14648 -0.073318 -0.00097594 0.0021479 0.012342 
0.10211 0.064461 -0.081374 -0.1108 -0.07003 -0.0098543 -0.02235 -0.041257 
0.15703 0.10162 0.027468 -0.016924 -0.031228 -0.018733 -0.017582 0.014643 
0.17412 0.17281 0.17314 0.11658 0.06331 0.049664 0.054267 0.083533 
0.22674 0.21852 0.23841 0.16064 0.10014 0.10063 0.12579 0.13795 
0.21753 0.10672 0.13549 0.14321 0.11839 0.13664 0.23068 0.23644 
0.1105 -0.090746 -0.065755 0.041936 0.086328 0.11872 0.25074 0.29283 
0.049664 -0.077593 -0.11327 0.017274 0.069064 0.10918 0.21375 0.33689 
0.10704 0.019411 -0.083018 0.029934 0.044567 0.061337 0.15357 0.33624 
0.18695 0.086163 0.014315 0.035524 0.033387 0.047362 0.10491 0.35482 
0.20947 0.010204 0.040785 0.041278 0.027632 0.0095465 0.064132 0.13549 
-0.099295 0.012013 0.023357 0.018589 0.024179 -0.010841 -0.052766 -0.37469 
-0.3686 -0.01939 0.093562 0.04506 0.0095465 -0.054904 -0.093048 -0.60733 
-0.31353 0.01267 0.15933 0.020069 -0.0054151 -0.047341 -0.15733 -0.33819 
-0.1136 0.0021479 0.2611 0.035524 -0.041915 -0.095185 -0.15914 -0.35085 
-0.0064016 0.038155 0.34544 0.06183 -0.031886 -0.068714 -0.17164 -0.40527 
-0.0965 -0.0040998 0.38457 0.049335 -0.023007 -0.092226 -0.16786 -0.43404 
-0.21093 -0.034516 0.34446 0.017932 -0.026789 -0.060658 -0.20403 -0.3497 
-0.23296 -0.025967 0.10918 -0.052931 0.011355 -0.0070593 -0.090746 0.014972 
-0.089595 -0.041751 -0.23296 -0.079895 0.048019 0.1008 0.12299 0.36846 
0.19616 0.0069159 -0.39031 -0.021692 0.086328 0.14141 0.2754 0.55737 
0.43653 0.13368 -0.30859 -0.016266 0.083533 0.15144 0.30467 0.57102 
0.35893 0.26554 -0.23033 -0.023336 0.045553 0.085177 0.22624 0.38211 
0.14913 0.2126 -0.23642 -0.10702 -0.0064016 0.037661 0.14289 0.21572 
0.042429 0.21917 -0.182 -0.094363 -0.020212 -0.00064712 0.076956 0.1391 
0.044896 0.159 -0.0078813 -0.0052507 0.028783 0.028947 0.066598 0.10688 
0.0095465 0.094548 0.10047 0.064954 0.023686 0.01152 0.036675 0.041443 
-0.004593 0.020891 0.11921 0.15916 0.036017 0.038648 0.018589 -0.11048 
-0.02794 -0.065097 -0.048327 0.10902 0.033387 0.0072447 -0.032543 -0.24365 
-0.058521 -0.16539 -0.18364 0.064461 0.011355 0.014479 -0.021692 -0.19318 
-0.12248 -0.14599 -0.041093 0.11773 0.034373 -0.0039354 -0.024487 -0.030077 
-0.07003 -0.054904 0.25354 0.22641 0.08156 0.015959 0.0028056 0.0090533 
0.015137 -0.069536 0.42962 0.3096 0.073997 0.012342 -0.011498 -0.012156 
0.11181 -0.019555 0.36057 0.19353 0.07301 0.03799 0.013164 0.027796 
0.11937 0.052787 0.12003 0.031742 0.0098754 0.0037921 0.016452 0.073504 
0.087972 0.19254 -0.076442 -0.1256 -0.026624 0.01267 0.021056 0.075641 
-0.014787 0.17955 -0.13251 -0.17312 -0.0029489 -0.0032777 0.017767 0.025166 
-0.096336 0.076134 -0.22573 -0.19301 0.00050378 0.017932 0.00017495 0.0014903 
-0.054904 -0.045532 -0.23313 -0.17065 -0.01676 -0.01232 -0.0044286 0.045882 
0.12858 -0.0062372 -0.15733 -0.074469 -0.033037 -0.0013048 0.015794 0.13845 
0.20947 0.05772 -0.10752 -0.019555 -0.025967 -0.012485 0.040785 0.10836 
0.076463 0.16031 -0.017253 0.033387 -0.0049219 0.0095465 0.0098754 0.018096 
-0.08384 0.21013 0.024015 0.053938 0.06183 -0.0024557 -0.0052507 -0.060658 
-0.13201 0.19435 0.052459 0.11576 0.14239 0.058377 -0.026131 -0.046519 
-0.13908 0.11921 0.15127 0.2463 0.14091 0.072353 -0.03501 -0.133 
-0.088937 -0.031392 0.17232 0.25551 0.12332 0.060679 -0.058192 -0.13695 
-0.044381 -0.047341 0.1881 0.23463 0.070215 0.052459 0.030098 -0.063453 
0.023686 -0.02498 0.18958 0.12727 0.086492 0.090603 0.10606 0.045718 
0.079422 0.0028056 0.15456 0.1174 0.085835 0.11148 0.15999 0.10918 
0.018425 -0.14139 0.072024 0.093726 0.051965 0.096521 0.15012 0.12135 
0.014479 -0.267 -0.034681 0.005765 0.020727 0.041607 0.084355 0.14963 
0.10556 -0.23066 -0.064604 0.017932 0.055911 0.037168 0.076299 0.08008 
0.20454 -0.073154 -0.059507 -0.008539 0.029769 0.05213 0.10458 0.009711 
0.19846 0.085341 -0.090581 -0.020212 -0.013965 0.07038 0.11872 0.06035 
0.12792 0.20964 0.0014903 -0.051122 -0.011663 0.025988 0.05624 0.13039 
0.085999 0.21687 0.054596 -0.058192 -0.031886 -0.042901 0.01711 0.12349 
0.092576 0.22937 0.10967 -0.00081153 -0.028926 -0.028762 -0.031721 0.097344 
0.049006 0.15209 0.071037 -0.031064 0.024179 -0.055068 -0.068057 0.13335 
-0.04471 0.04506 0.005765 -0.043888 -0.013143 -0.072496 -0.16868 0.087314 
-0.052931 0.035853 0.020562 -0.008539 0.014808 -0.045861 -0.14221 0.11822 
0.017932 0.025659 0.086163 0.022864 0.048841 0.022371 -0.056548 0.071202 
0.01415 0.037826 0.077778 0.073832 0.077943 0.047197 0.051143 -0.10225 
-0.038298 0.033222 0.040456 0.062159 0.071859 0.058377 0.09422 -0.17082 
0.040785 0.036182 0.068571 0.11296 0.07597 0.051801 0.11099 -0.010183 
0.15308 0.039141 0.13056 0.13549 0.068736 0.01711 0.0786 0.17084 
0.1419 0.045718 0.1756 0.10491 0.045553 0.022371 0.067913 0.21835 
0.083533 -0.030242 0.12283 0.074983 0.016288 0.041936 0.08863 0.22953 
0.065118 -0.0091966 0.05065 0.0082312 0.03388 0.061666 0.10737 0.2514 
0.10524 0.05213 -0.018404 -0.0019624 0.020727 0.077778 0.1008 0.16574 
0.12217 0.10935 -0.096172 -0.056877 -0.0026201 0.038812 0.027796 0.0056006 
0.12809 0.15555 -0.084169 -0.099789 0.0044497 0.028454 0.049499 -0.03616 
0.10918 0.1465 -0.01232 -0.099789 -0.001798 -0.0059084 0.034537 -0.021856 
0.043416 0.095371 -0.0047575 -0.066084 -0.0075525 0.0047785 0.024508 0.06183 
-0.014458 -0.017746 -0.072332 -0.0050863 0.0041209 -0.0070593 0.015959 0.11362 
-0.018404 -0.0083746 -0.082854 -0.0021268 0.01415 0.0037921 0.017767 0.13039 
-0.042573 0.028454 -0.074633 0.013986 0.0046141 -0.0088678 -0.026953 0.10096 
-0.047669 0.079258 -0.094856 -0.012485 0.012835 -0.010348 -0.022679 -0.014787 
-0.085156 0.078929 -0.090088 0.01826 0.032564 -0.010183 -0.054739 -0.24562 
-0.17164 0.085506 -0.067399 0.052787 0.059528 0.021713 -0.050464 -0.57396 
-0.16588 0.0032988 -0.025802 -0.0031133 0.055911 -0.0050863 -0.052931 -0.60536 
0.0070803 -0.035667 -0.0029489 -0.017746 0.017932 0.010204 -0.029255 -0.1769 
0.17462 -0.023829 0.094548 -0.035174 0.015959 -0.0042642 0.0059294 0.17774 
0.16179 0.12562 0.32012 0.04654 0.035195 0.0070803 0.032893 0.22756 
0.15489 0.2417 0.38556 0.12381 0.0024767 -0.011334 0.054267 0.23792 
0.17363 0.27688 0.18415 0.071695 -0.039449 -0.016595 0.040292 0.27836 
0.19517 0.24581 -0.022021 0.030263 -0.034845 -0.033859 0.037826 0.23644 
0.18843 0.092904 -0.22918 -0.080388 -0.0034422 -0.0040998 0.021056 0.15522 
0.069393 -0.13448 -0.36071 -0.13168 -0.014951 0.004943 0.025495 0.03536 
-0.093048 -0.21998 -0.21998 -0.089759 0.0054362 0.043087 0.0031344 -0.067892 
-0.083183 -0.047176 -0.0011404 0.015301 0.036182 0.025824 0.057227 -0.062138 
0.013821 0.096686 0.19977 0.18432 0.095371 0.060022 0.068407 -0.0004827 
0.028783 0.1659 0.31059 0.22592 0.096357 0.065447 0.10063 0.022864 
0.0072447 0.063639 0.34364 0.18481 0.075312 0.061172 0.075476 -0.022679 
-0.049971 -0.001798 0.48635 0.1396 0.040785 0.024179 0.055254 -0.061316 
-0.030242 -0.0040998 0.54751 0.16196 0.033387 0.014315 0.023357 -0.094692 
-0.0024557 0.037826 0.35449 0.11231 0.03388 0.023357 0.015137 -0.062796 
0.056404 0.099645 0.078272 0.033715 -0.0073881 0.016123 0.055418 -0.029913 
0.090274 0.13845 -0.12248 -0.01117 -0.032215 -0.036654 0.024837 0.0026412 
0.077121 0.1733 -0.17197 -0.043395 -0.028597 -0.020706 -0.014787 -0.049478 
-0.022679 0.096357 -0.16736 -0.05737 -0.0057439 -0.012978 -0.086636 -0.1575 
-0.045696 -0.0022913 -0.26026 -0.091732 0.019576 0.049499 -0.048985 -0.11968 
0.092904 -0.090088 -0.30448 -0.093705 0.039799 0.069722 0.033222 0.060844 
0.19369 -0.053917 -0.21356 -0.015773 0.034044 0.071859 0.082546 0.19172 
0.027468 -0.013965 -0.059672 0.042429 0.030263 0.021713 0.073504 0.21309 
-0.13119 0.077121 0.12102 0.12283 0.048513 0.031249 0.080409 0.17988 
-0.12264 0.12349 0.27294 0.14502 0.043087 0.025166 0.049828 0.046375 
-0.06 0.1567 0.33262 0.14289 0.066598 0.067091 0.050979 -0.12708 
-0.092554 0.1368 0.30894 0.12595 0.071037 0.051472 0.023357 -0.23757 
-0.03912 0.092576 0.1858 0.058871 0.028619 0.050157 0.01826 -0.20156 
0.053938 -0.00064712 0.03092 0.053281 0.025495 0.0026412 -0.0026201 -0.071016 
0.20734 -0.032708 -0.017582 0.0324 0.023522 0.032071 0.037661 0.14798 
0.26389 -0.043888 0.0098754 0.048019 0.025824 0.030263 0.084848 0.22953 
0.14535 -0.066413 0.025166 0.03536 0.019411 0.047526 0.094384 0.13499 
-0.017582 -0.088115 0.040128 0.013821 0.031249 0.048348 0.11198 0.11872 
-0.024652 -0.1695 0.066105 0.070873 0.051636 0.10737 0.11543 0.16311 
-0.025638 -0.12955 0.015794 0.041443 0.071366 0.084026 0.0786 0.16229 
0.034866 -0.027118 -0.048656 0.029605 0.055911 0.045882 0.015465 0.092082 
0.055747 0.11592 -0.11738 -0.038791 0.019247 -0.0013048 -0.023336 -0.0095255 
0.10902 0.15111 -0.16523 -0.09091 -0.028269 -0.014787 -0.067728 -0.017417 
0.09685 0.10524 -0.18101 -0.098638 -0.034516 -0.045861 -0.054739 0.022535 
0.043251 0.019576 -0.14813 -0.1113 -0.034188 -0.018239 -0.096007 -0.086307 
-0.006566 0.046868 -0.0011404 0.012177 0.026974 -0.0067304 -0.081703 -0.29972 
-0.099789 0.081231 0.18218 0.15653 0.062652 0.013492 -0.045861 -0.30827 
-0.23033 0.084355 0.31716 0.20734 0.071695 0.0075736 0.0024767 -0.16111 
-0.34164 0.11987 0.39839 0.21293 0.097837 0.077449 0.053609 -0.0078813 
-0.2106 0.097837 0.27261 0.15357 0.077285 0.060844 0.080738 0.12792 
0.049499 0.045389 -0.05178 0.043087 0.044896 0.083862 0.12743 0.32621 
0.2297 -0.033365 -0.25845 -0.050629 0.023522 0.064625 0.10392 0.54965 
0.30039 0.0062583 -0.31238 -0.037147 -0.0067304 0.042265 0.076463 0.52071 
0.29694 0.035853 -0.31418 -0.050464 -0.026296 0.0085601 0.051965 0.2925 
0.24992 0.066105 -0.33934 -0.11261 -0.040764 0.0046141 0.097344 0.14239 
0.13434 0.0085601 -0.26535 -0.11623 -0.023501 -0.0052507 0.099645 0.061666 
-0.16128 -0.12626 -0.1427 -0.11048 0.0079024 -0.0039354 0.019905 -0.17377 
-0.22688 -0.21521 0.011848 0.014972 0.057555 -0.0073881 -0.072496 -0.26059 
-0.1598 -0.042573 0.21013 0.11526 0.084026 0.026481 -0.055726 -0.26601 
-0.01232 0.15094 0.25008 0.12579 0.08863 0.033058 -0.019555 -0.26239 
-0.012649 0.16985 0.14108 0.054432 0.050321 0.046375 0.034537 -0.17345 
-0.028269 0.10885 0.068078 -0.0021268 0.014479 0.037004 0.012835 0.007738 
0.027961 0.11247 0.085341 0.023851 -0.0054151 0.040456 0.031414 0.1807 
0.18514 0.27836 0.18958 0.039305 0.029934 0.045389 0.053281 0.21095 
0.23216 0.3027 0.13615 0.093069 0.0087245 0.023522 0.056404 0.16689 
0.13269 0.15242 -0.0868 0.089123 0.014479 0.012999 0.046375 0.10524 
-0.063453 -0.045696 -0.182 0.028125 0.0026412 -0.015609 -0.0024557 0.024344 
-0.082854 0.0036276 -0.095514 0.01711 0.0034632 0.0026412 0.0087245 -0.053588 
-0.010019 -0.024158 -0.057534 -0.054246 0.0031344 -0.0070593 0.0074092 -0.10949 
0.079094 -0.046847 -0.16769 -0.045039 0.015465 -0.0055795 0.028125 -0.18594 
0.1294 -0.074962 -0.23116 -0.040764 0.019411 -0.0014692 -0.020377 -0.062467 
0.015794 -0.15733 -0.18183 0.042758 0.047691 -0.012978 -0.052602 0.14683 
-0.18578 -0.21406 0.005765 0.10162 0.026481 -0.018075 -0.030899 0.2588 
-0.19005 -0.050136 0.2297 0.070708 0.016616 0.028619 0.06183 0.24499 
-0.024652 0.16919 0.39543 0.071531 0.019411 0.04506 0.11263 0.2583 
0.10063 0.19336 0.31157 0.023522 0.026481 0.049335 0.11083 0.22065 
0.14321 0.13023 0.060022 -0.035996 0.011191 0.013821 0.051801 0.16837 
0.15768 0.12168 0.11 0.053774 0.026152 0.0054362 0.042758 0.18514 
0.159 0.22756 0.41433 0.15949 0.051143 0.012342 0.030263 0.11083 
0.13483 0.21046 0.62922 0.19879 0.066269 0.031085 -0.01232 -0.086142 
0.051308 0.098166 0.51298 0.10129 0.044731 0.024673 -0.078908 -0.486 
-0.023994 -0.03205 0.1539 0.0011614 0.0095465 0.0083956 -0.1187 -0.93649 
-0.048327 -0.087129 -0.26897 -0.094034 0.017932 0.0034632 -0.051615 -0.69579 
-0.096172 -0.06 -0.53154 -0.071016 0.03536 0.041443 0.028454 -0.089102 
-0.001798 0.037168 -0.54798 0.014315 0.06594 0.049828 0.11 0.37257 
0.086163 0.080902 -0.3132 0.045224 0.10408 0.098823 0.11115 0.53616 
0.13368 0.07301 -0.032543 0.069722 0.069229 0.058213 0.12332 0.52383 
0.096028 0.0032988 0.053774 0.00033937 0.0016547 0.041278 0.064625 0.34692 
0.009711 -0.048327 0.0041209 -0.058521 -0.027447 0.014315 0.049992 0.11724 
0.018096 0.051636 0.068407 -0.045368 -0.022843 0.018425 0.0028056 0.0052718 
0.10178 0.14141 0.26554 -0.0073881 -0.015116 -0.003771 -0.0080457 -0.043066 
0.26718 0.21161 0.38408 0.059693 0.010204 0.023686 0.012013 0.011684 
0.31486 0.13335 0.40102 0.060844 0.053445 0.057062 0.05772 0.042923 
0.15883 0.093398 0.39362 0.12316 0.081889 0.1054 0.10491 0.056569 
-0.0087034 0.0067515 0.23331 0.14108 0.074983 0.087479 0.10935 0.048513 
-0.03912 -0.045861 -0.049971 0.09833 0.058377 0.09274 0.074654 0.09685 
0.044073 -0.052602 -0.19811 0.016781 0.00099702 0.0069159 0.062817 0.14108 
0.030263 0.01563 -0.097487 -0.039942 -0.0078813 0.00017495 0.060679 0.20586 
-0.0098543 0.10606 0.00033937 -0.0067304 0.036017 -0.024323 0.030592 0.23035 
-0.017746 0.1271 0.062981 -0.001798 0.042758 -0.019719 0.026317 0.18498 
0.0034632 0.078765 0.094384 0.011848 0.0090533 -0.050793 -0.051287 -0.011005 
0.023193 0.057227 0.088794 0.044731 0.0082312 -0.0050863 -0.080388 -0.34476 
-0.016266 0.072353 0.009711 -0.033365 -0.014293 -0.012156 -0.1353 -0.60832 
-0.097487 -0.046519 -0.094199 -0.074304 -0.00097594 -0.067564 -0.18791 -0.53696 
-0.19252 -0.12116 -0.15339 -0.11245 -0.036325 -0.10373 -0.30514 -0.27061 
-0.21784 -0.048327 -0.08384 -0.044874 -0.022514 -0.07003 -0.21932 -0.073482 
-0.069208 0.15111 0.046704 0.015137 0.036182 0.029441 0.027303 0.1659 
0.11428 0.20914 0.11083 0.03799 0.091753 0.13236 0.24893 0.29513 
0.22542 0.25551 0.057884 0.086985 0.10655 0.15144 0.31716 0.30451 
0.25041 0.22674 0.049499 0.10737 0.10556 0.15028 0.26965 0.26505 
0.13713 0.058377 0.13779 0.1636 0.10984 0.097508 0.20717 0.2371 
0.038483 -0.11327 0.20717 0.18103 0.091918 0.093891 0.14321 0.18267 
0.11592 -0.061151 0.23348 0.18909 0.067749 0.056733 0.1128 0.12151 
0.19073 0.0085601 0.053445 0.13993 0.040456 0.046868 0.065447 0.1054 
0.051801 -0.016102 -0.2693 -0.028104 -0.015116 0.0042853 0.027796 0.08863 
-0.12889 -0.056548 -0.41481 -0.11064 -0.019884 -0.018568 -0.04619 0.012177 
-0.17936 -0.06855 -0.25368 -0.11705 -0.03057 -0.04471 -0.09798 -0.089759 
-0.12281 -0.06 -0.00081153 -0.082525 -0.051451 -0.066906 -0.157 -0.2647 
-0.068714 -0.08532 0.19616 -0.052931 -0.047176 -0.10209 -0.16868 -0.26749 
0.034702 -0.0078813 0.24482 -0.026953 -0.01939 -0.072825 -0.18265 -0.019719 
0.098166 0.11329 0.28231 0.071037 0.029112 -0.040435 -0.10439 0.10704 
0.032071 0.24548 0.3022 0.089452 0.047033 0.026646 -0.0082102 -0.031228 
0.010533 0.29316 0.21506 0.10129 0.06742 0.040128 0.06479 -0.090253 
0.032893 0.30845 0.10606 0.041443 0.049006 0.046868 0.10573 -0.041915 
0.02681 0.22739 0.079587 0.035031 0.036346 0.033551 0.095864 0.037168 
0.0052718 0.12809 -0.045861 0.044073 0.050814 0.065283 0.095371 0.072846 
0.06035 0.10343 -0.18117 0.023028 0.056404 0.077449 0.092904 0.11822 
0.084848 -0.022679 -0.27571 0.03799 0.058542 0.077121 0.11115 0.18678 
-0.0039354 -0.23132 -0.30235 -0.00015387 0.022206 0.025824 0.075805 0.14864 
-0.093212 -0.33737 -0.15339 0.038155 -0.0090322 0.012013 0.051636 0.085999 
-0.021692 -0.24398 0.037826 0.13532 -0.0024557 0.00083261 0.0324 0.016288 
0.053116 -0.12856 0.082217 0.14601 0.024673 0.051636 0.083204 -0.013143 
0.10606 0.087808 0.13943 0.1197 0.033715 0.032564 0.081724 0.03947 
0.082711 0.21145 0.13582 0.018754 0.025495 0.030592 0.077121 0.072024 
0.01563 0.27902 0.031742 -0.010019 -0.013307 0.0032988 0.031742 0.069722 
-0.023829 0.12135 -0.090088 -0.047012 0.0070803 0.010369 0.0019835 0.062159 
-0.018897 -0.069372 -0.1889 -0.044217 0.025495 0.010204 -0.017088 0.015794 
-0.025474 -0.22491 -0.14615 -0.0050863 0.051308 0.041278 -0.036983 -0.036818 
-0.021034 -0.17147 -0.025638 0.03092 0.063968 0.060679 -0.0068948 -0.068221 
0.014643 -0.0050863 0.080902 0.074326 0.059857 0.08863 0.086657 -0.059507 
0.05624 0.16656 0.19879 0.053445 0.058542 0.092904 0.13269 -0.071181 
0.078107 0.23101 0.15242 -0.0004827 0.030756 0.08863 0.10047 -0.055232 
0.13499 0.1368 0.098659 -0.028762 -0.0090322 0.025659 0.065776 0.013657 
0.18777 0.082546 0.14634 -0.039449 -0.016266 0.038812 0.043087 0.12809 
0.22378 0.12562 0.20503 0.10326 0.031085 0.055418 0.093562 0.21967 
0.21589 0.17429 0.24482 0.18892 0.057227 0.072353 0.09833 0.25008 
0.12957 0.077778 0.18021 0.14963 0.063474 0.041278 0.09274 0.28609 
-0.048656 0.029276 0.21095 0.10935 0.031249 0.019411 0.064296 0.31552 
-0.057699 -0.0096899 0.17396 0.079916 0.016781 -0.011334 0.0227 0.23003 
-0.0083746 -0.036818 -0.076113 0.037168 0.034044 -0.018239 -0.0032777 -0.016431 
-0.00081153 -0.086142 -0.35512 -0.079566 0.035853 -0.027775 -0.053588 -0.32964 
-0.12346 -0.14813 -0.47301 -0.10242 0.023193 -0.06855 -0.11179 -0.53877 
-0.17262 -0.079072 -0.40593 -0.085649 0.0051074 -0.10258 -0.13251 -0.35989 
-0.11459 0.0011614 -0.19285 -0.047341 0.0014903 -0.068221 -0.076442 -0.037476 
0.035524 0.089616 0.022042 0.026481 0.00033937 -0.023994 -0.013307 0.17906 
0.13072 0.1077 0.20471 0.04095 0.0060938 0.023357 0.080573 0.17544 
0.1807 0.10869 0.12349 0.062981 0.020233 0.047691 0.11346 0.11987 
0.183 0.088958 -0.037969 0.009711 0.029276 0.08156 0.13351 0.069886 
0.10819 0.10277 -0.121 -0.033365 0.01826 0.096028 0.10836 0.035853 
0.10507 0.10573 -0.058521 -0.025967 0.011026 0.071859 0.10951 0.11461 
0.13746 0.15275 0.096357 -0.013307 0.017932 0.071037 0.078107 0.24005 
0.13713 0.11806 0.21621 0.043745 0.021549 0.0592 0.097837 0.21638 
0.045389 0.069229 0.20799 -0.0021268 0.019576 0.023851 0.020727 0.066269 
0.014808 0.042758 0.16459 0.0092177 0.011684 0.00017495 -0.020706 -0.01232 
-0.016102 0.084519 0.20471 0.082217 0.069393 0.044896 0.0026412 -0.063124 
-0.050793 0.049006 0.26751 0.12891 0.10885 0.053281 0.017932 -0.12281 
-0.19104 -0.025967 0.31914 0.10589 0.044402 0.012999 -0.01676 -0.20649 
-0.25565 0.0021479 0.27771 0.039305 -0.0055795 -0.057041 -0.02794 -0.093212 
-0.10538 0.08156 0.078929 0.025001 -0.023829 -0.040764 0.0047785 0.080902 
0.13401 0.17676 -0.20978 -0.048327 -0.013636 -0.044546 0.019083 0.16804 
0.1567 0.14256 -0.48928 -0.1233 -0.016595 -0.041751 -0.0052507 0.093726 
0.16607 0.11609 -0.6366 -0.13941 0.029441 -0.014129 -0.050464 0.018425 
0.16656 -0.0024557 -0.54995 -0.13448 0.045389 -0.0047575 -0.036654 0.040128 
0.13253 0.0079024 -0.26963 -0.048327 0.02829 -0.0052507 -0.017253 0.069064 
-0.0042642 0.041114 0.020891 0.016452 0.031414 0.017438 0.013821 0.033222 
-0.070359 0.049335 0.27639 0.09833 0.019905 0.032071 -0.00081153 -0.00031829 
-0.11146 0.038977 0.4944 0.14042 0.031742 0.0026412 -0.0059084 -0.058685 
-0.11557 0.1179 0.65635 0.21457 0.040621 0.0051074 -0.1011 -0.11738 
-0.073154 0.11691 0.70962 0.19912 0.00017495 -0.02235 -0.085978 -0.18002 
0.0080668 -0.027282 0.44903 0.099152 0.0024767 0.0039565 0.0034632 -0.073647 
0.10343 -0.098309 0.17034 0.033222 0.0051074 0.044402 0.10589 0.13434 
0.13088 -0.063124 0.0062583 0.053938 0.055747 0.090109 0.13417 0.1904 
-0.027775 0.041114 -0.18841 0.056898 0.067913 0.061337 0.079587 -0.099624 
-0.19515 0.077943 -0.3252 -0.017253 0.038483 0.035688 0.048019 -0.20978 
-0.18578 0.1299 -0.29149 -0.10308 0.016616 0.022042 -0.0087034 -0.13119 
-0.03616 0.12891 -0.11097 -0.074469 0.0031344 0.023522 -0.0004827 0.1151 
0.088301 0.19468 0.06183 -0.034845 0.004943 0.0065871 -0.029748 0.23512 
0.19106 0.2098 0.16114 0.033058 0.029769 0.013986 0.013164 0.22953 
0.22608 0.19484 0.13401 0.071037 0.046211 0.056404 0.051308 0.17265 
0.15571 0.096193 0.09126 0.085835 0.056569 0.062323 0.10113 0.1202 
0.062652 -0.017746 0.052952 0.097837 0.035853 0.078272 0.080738 0.040128 
0.030263 -0.081045 0.058542 0.092411 0.023686 0.053281 0.099316 0.056898 
0.066434 -0.10028 0.091589 0.12908 0.046375 0.061337 0.07301 0.061172 
0.026152 -0.075455 0.018425 0.092082 0.033715 0.03651 0.062652 0.018589 
-0.0095255 -0.091732 -0.093376 0.011848 0.033387 0.041278 0.047197 0.042758 
-0.054082 -0.061151 -0.12396 0.0051074 0.021549 0.034373 0.036182 0.080573 
-0.05326 -0.026624 -0.021199 -0.014951 0.026481 0.045553 0.049828 0.11609 
-0.027775 0.059857 0.15111 0.030098 0.016616 0.020727 0.03947 0.10622 
0.023028 0.066763 0.24186 0.013492 0.012342 0.018589 0.017603 0.047691 
0.030098 0.053938 0.18613 0.021549 -0.0049219 0.012506 0.023193 0.025824 
0.086163 0.038648 0.067091 0.047362 0.024015 0.063474 0.058213 0.077778 
0.13105 0.097015 0.033387 0.075148 0.031414 0.06035 0.078929 0.12644 
0.1567 0.12316 0.041772 0.098659 0.05624 0.092082 0.084848 0.038977 
0.13417 0.071695 -0.0027845 0.034537 0.03799 0.04917 0.037168 -0.025309 
0.098166 0.027468 -0.066248 -0.010512 0.032236 0.028125 0.0021479 -0.12807 
0.058871 0.025495 -0.052273 -0.018568 0.031249 -0.016102 -0.054082 -0.27538 
-0.030242 0.039963 0.017438 0.026152 0.016452 0.0085601 -0.027611 -0.32487 
-0.060658 -0.075291 0.0046141 0.011848 -0.0068948 -0.017911 -0.0078813 -0.052273 
-0.072003 -0.070194 -0.0062372 -0.012485 -0.009361 -0.0064016 0.016288 0.19862 
-0.045368 -0.060823 0.029934 0.046046 0.033715 -0.036818 -0.03353 0.17133 
-0.01528 -0.084663 0.010204 0.042429 0.059693 -0.061645 -0.11903 0.028125 
-0.010348 -0.11771 0.014808 0.09274 0.072188 -0.073811 -0.14204 -0.11113 
-0.015609 -0.015116 0.040128 0.14042 0.096193 -0.00081153 -0.056712 -0.059178 
0.051801 0.047197 -0.022021 0.086657 0.08863 0.092411 0.11642 0.079258 
0.12809 0.1026 -0.074469 0.018589 0.052623 0.17133 0.21638 0.171 
0.19599 0.098166 -0.096665 -0.064275 -0.0004827 0.14897 0.2565 0.22394 
0.17873 0.14371 0.00099702 -0.044874 -0.016431 0.092247 0.17429 0.18235 
0.10803 0.19895 0.13006 0.0032988 -0.028104 0.028125 0.11017 0.1294 
0.032236 0.19764 0.11625 0.0056006 -0.009361 0.031085 0.075476 0.13976 
0.021549 0.084355 -0.040271 -0.0014692 -0.020048 0.012177 0.08978 0.1368 
0.036346 -0.057699 -0.14763 -0.060823 -0.0073881 0.014643 0.03092 0.069393 
0.030592 -0.0062372 -0.11015 -0.023336 0.028947 0.004943 0.022535 -0.031064 
0.016781 0.033058 -0.020541 0.049992 0.050486 0.016288 -0.0088678 -0.12478 
-0.0021268 -0.0036066 -0.025309 0.051472 0.031907 0.0032988 0.01004 -0.14122 
0.022042 -0.090253 -0.035996 0.057391 0.025495 -0.0054151 -0.0067304 -0.10505 
-0.0004827 -0.058685 -0.018239 0.048184 0.038319 -0.039942 -0.05885 -0.085978 
-0.040271 -0.035996 0.022864 0.030427 0.040456 -0.024323 -0.10423 -0.052109 
-0.057205 0.017767 0.045553 -0.0072237 0.036675 -0.019719 -0.17986 -0.033365 
-0.02235 0.080573 0.19681 0.038155 0.05213 0.010533 -0.13251 0.0064227 
0.03799 0.10293 0.25946 0.085012 0.024508 -0.031392 -0.053095 0.017932 
0.07449 0.091096 0.16508 0.086492 0.032071 -0.020048 -0.020377 0.085835 
0.082382 0.046704 -0.044052 0.022042 0.021056 0.04358 0.016288 0.16278 
0.11724 0.0070803 -0.20008 -0.072167 0.038483 0.085506 0.13302 0.20438 
0.091589 0.012506 -0.15651 -0.028597 0.027632 0.077614 0.15834 0.085999 
0.0021479 0.11329 -0.08532 0.00066819 0.031578 0.071366 0.1909 -0.025474 
-0.077264 0.14042 -0.065591 0.015137 0.030756 0.084355 0.16952 -0.025474 
-0.053588 0.11658 -0.032379 0.014479 0.022042 0.045553 0.15357 0.0023123 
0.062981 0.058871 0.033058 0.026974 0.0090533 0.041936 0.12677 0.059528 
0.11888 0.08304 0.095206 0.02533 0.012177 0.050979 0.1544 0.082382 
0.077449 0.074654 0.13532 -0.0098543 -0.0013048 0.0786 0.16344 0.13368 
0.01267 0.12036 0.23151 0.047855 0.049499 0.085341 0.1174 0.15719 
0.01415 0.091753 0.23759 0.10392 0.076792 0.034537 0.081889 0.10556 
0.039141 0.066927 0.18859 0.14108 0.10195 -0.025145 0.00050378 0.0067515 
-0.0031133 0.065283 0.19616 0.19172 0.085177 -0.025967 -0.037476 -0.0091966 
0.014479 0.0592 0.16179 0.10589 0.04358 -0.072989 -0.075455 0.056898 
0.03651 -0.025474 0.018425 0.014972 -0.004593 -0.13925 -0.1353 0.10474 
0.12299 -0.035174 -0.06296 -0.019884 -0.023501 -0.19926 -0.26322 0.14568 
0.058049 0.0074092 -0.086307 -0.019555 -0.03057 -0.16588 -0.36696 0.059364 
-0.14599 -0.084169 -0.13432 -0.025802 -0.049971 -0.089431 -0.4051 -0.10752 
-0.16999 -0.093376 -0.17377 -0.08269 -0.028926 -0.025474 -0.23148 -0.12182 
0.021878 -0.0019624 -0.084663 -0.032872 -0.0042642 0.067913 -0.030077 0.01267 
0.12973 0.1562 0.033222 0.016452 0.045553 0.14815 0.1807 0.072188 
0.13056 0.20635 0.14305 0.060844 0.076134 0.18004 0.26077 0.080573 
0.045553 0.20503 0.20701 0.11428 0.066763 0.15242 0.28231 0.039305 
-0.080223 0.11674 0.1853 0.076792 0.020233 0.086985 0.22378 -0.011827 
-0.048492 0.0689 0.12628 0.06594 0.012835 0.064954 0.15522 -0.036325 
0.12201 0.094384 0.064625 0.0095465 0.038977 0.0085601 0.11017 -0.11804 
0.13647 0.10211 0.041936 0.013657 0.041278 0.025659 0.072517 -0.11919 
0.13072 0.099152 -0.020212 -0.011005 0.043909 0.024015 0.076792 0.029276 
0.097508 0.09685 -0.042408 0.0046141 0.050321 0.019247 0.058377 0.05624 
0.04506 0.075641 -0.071016 0.0075736 0.024508 0.017438 0.045718 0.075641 
0.0093821 0.0098754 -0.010183 -0.00081153 0.014972 -0.0016336 0.025495 0.16492 
0.064132 0.079422 0.074161 0.066434 0.044731 0.00083261 0.058213 0.21983 
0.075312 0.12595 0.070708 0.05476 0.022535 -0.034681 -0.0088678 0.17166 
0.019247 0.11609 -0.0078813 0.011026 0.0059294 -0.06855 -0.025474 0.065118 
0.011026 0.092082 -0.012814 -0.0016336 -0.015444 -0.046354 -0.096007 -0.056219 
0.00297 0.066763 -0.014622 -0.039284 -0.06444 -0.050958 -0.12067 -0.071674 
0.026646 0.0041209 -0.049971 -0.0087034 -0.018239 0.017438 -0.18693 0.044731 
0.063145 -0.022514 -0.038791 0.026481 0.018918 0.078436 -0.14533 0.1271 
0.081067 -0.025802 0.033058 0.068407 0.03536 0.091753 -0.059672 0.01711 
-0.010676 -0.070359 -0.011334 0.01004 0.029605 0.046868 0.020398 -0.1843 
-0.11738 -0.10965 -0.053424 -0.038133 0.031249 0.034044 0.033058 -0.34164 
-0.2009 -0.17509 -0.0090322 0.026646 0.031414 0.033222 0.013328 -0.35068 
-0.20419 -0.084827 0.23118 0.15209 0.05624 0.0065871 0.028947 -0.1792 
-0.19893 0.0083956 0.59141 0.29332 0.067091 0.017438 0.04095 -0.067399 
-0.12116 0.058049 0.64106 0.25485 0.072517 0.031249 0.054596 0.049828 
-0.011498 0.016781 0.28757 0.078929 0.039634 0.0023123 0.048513 0.1105 
0.12513 0.095042 -0.020541 -0.043395 0.035688 0.01152 0.049499 0.15226 
0.24828 0.13894 -0.17772 -0.10373 0.018589 -0.011005 0.039141 0.14683 
0.28017 0.18119 -0.33901 -0.10143 0.017438 0.02533 0.094055 0.10063 
0.22312 0.14223 -0.42829 -0.14007 0.0016547 0.029441 0.15308 0.051143 
0.147 0.14913 -0.30169 -0.12396 -0.0075525 0.066269 0.20405 0.028783 
0.070215 0.13549 -0.10587 -0.037147 -0.00081153 0.062323 0.19205 0.0088889 
0.01974 0.13121 0.025988 0.022371 0.023193 0.087314 0.15061 0.0067515 
0.024837 0.15028 0.098823 0.10392 0.02681 0.067091 0.08304 0.013821 
0.0072447 0.11428 0.073668 0.085999 0.031414 0.061666 0.018425 0.032729 
-0.035174 0.0014903 0.024837 0.02533 0.016452 0.031414 -0.032872 0.005765 
-0.023501 -0.1016 0.067091 0.032236 0.0028056 0.035195 -0.01939 0.011355 
0.016123 -0.077264 0.11494 0.1031 0.025166 0.027139 0.028783 0.0075736 
0.036839 -0.065262 0.14239 0.17347 0.041443 0.077121 0.066105 0.026152 
-0.0055795 -0.11212 0.029276 0.083204 0.056733 0.071202 0.090603 0.028125 
-0.086307 -0.2208 -0.14714 0.010697 0.064132 0.08304 0.087808 0.017274 
-0.063289 -0.17509 -0.16473 -0.070852 0.045882 0.019247 0.057391 0.00083261 
-0.0057439 -0.0406 -0.036983 -0.07003 0.027139 0.0037921 -0.016102 0.0041209 
0.033551 0.079916 0.012013 -0.043724 1.0539e-005 -0.021034 -0.019226 0.010862 
0.0090533 0.12694 -0.076935 -0.02087 0.041936 0.0098754 0.022864 0.036839 
0.049992 0.1373 0.04506 0.087972 0.067256 0.046704 0.098001 0.071859 
0.050486 0.11066 0.3096 0.17232 0.074819 0.08156 0.1202 0.099481 
0.033387 0.02681 0.43373 0.16459 0.036675 0.026481 0.068407 0.044567 
-0.0013048 0.0095465 0.46826 0.17824 0.044731 0.022042 -0.0049219 0.017603 
0.058049 0.024179 0.45626 0.17626 0.03799 -0.023007 -0.074798 0.016123 
0.069886 0.06035 0.36846 0.16426 0.066927 -0.0059084 -0.018733 0.03799 
0.077121 0.11707 0.24038 0.057391 0.050814 0.039141 0.074161 0.076134 
0.071202 0.15275 0.12464 -0.010348 0.032893 0.075476 0.16755 0.079916 
0.1026 0.018096 -0.16786 -0.13875 -0.0014692 0.054432 0.16179 0.096357 
0.03388 -0.11755 -0.51937 -0.20863 -0.023829 0.03947 0.10244 0.049499 
0.01711 -0.14287 -0.5733 -0.15306 -0.023829 -0.00031829 0.017603 0.07301 
0.11658 0.027468 -0.32964 -0.052931 0.030098 0.029769 0.053938 0.11592 
0.14058 0.13664 -0.07266 0.067091 0.065612 0.047691 0.056076 0.14733 
0.066927 0.12036 0.056898 0.066927 0.048348 0.061008 0.079422 0.1345 
-0.030242 0.1202 0.075805 0.066105 0.044238 0.051636 0.043251 0.05624 
-0.012814 0.074161 0.071695 0.06035 0.042758 0.019083 -0.0014692 0.0075736 
0.013821 0.070215 0.14437 0.042594 0.010862 0.012835 -0.027775 -0.013307 
0.070051 0.05624 0.25551 0.11921 0.031578 0.0036276 -0.02087 0.0098754 
0.063145 0.05772 0.30697 0.15275 0.046211 0.018096 0.0069159 0.020069 
0.069229 0.00297 0.14338 0.10737 0.069558 0.041607 0.026974 0.028947 
0.037661 0.030756 -0.084005 -0.014458 0.041936 0.041114 0.020069 0.033058 
0.07301 0.0052718 -0.27242 -0.098473 0.02533 0.0018191 -0.012978 0.022535 
0.062652 -0.020706 -0.34197 -0.11278 1.0539e-005 0.009711 0.011191 0.014479 
0.060186 -0.003771 -0.28623 -0.095843 0.013164 -0.00097594 0.012342 0.063145 
0.062652 0.069064 -0.15405 -0.015938 0.020727 0.023193 0.029605 0.086657 
0.10343 0.15785 -0.031228 -0.028104 0.015137 0.0037921 0.0085601 0.085506 
0.082053 0.19073 0.03536 -0.023336 0.012013 0.019576 0.042429 0.088958 
0.038812 0.17018 0.055418 0.0044497 0.015794 0.022371 0.02829 0.10754 
-0.023829 0.061995 0.074326 -0.0072237 0.012013 0.015465 0.029276 0.072517 
-0.038791 0.042594 0.19879 0.097344 0.024508 -0.0022913 -0.023007 0.050321 
-0.017911 0.071859 0.44639 0.19566 0.040128 -0.0138 -0.02794 0.065447 
0.021056 0.13319 0.69088 0.2565 0.041443 0.0082312 -0.016266 0.16475 
0.063968 0.1026 0.68973 0.22082 0.016288 0.0079024 0.024673 0.20569 
0.059693 0.061172 0.45346 0.11362 0.0039565 -0.018897 -0.014622 0.13319 
0.024015 -0.067564 0.023851 0.036182 0.00099702 -0.031064 -0.10521 0.03651 
0.028619 -0.08121 -0.3714 -0.094199 0.018918 -0.056383 -0.14944 -0.089431 
-0.0075525 -0.092883 -0.55078 -0.14336 0.030263 -0.012485 -0.13497 -0.28788 
-0.047834 -0.06296 -0.5539 -0.17443 0.035524 0.025001 -0.019555 -0.37567 
0.022206 0.040292 -0.39836 -0.095678 0.072188 0.068407 0.069393 -0.23527 
0.065118 0.13878 -0.20633 0.01004 0.076956 0.048019 0.12299 -0.052437 
0.043416 0.17051 -0.10587 0.0080668 0.047197 0.052952 0.088136 0.07449 
-0.045532 0.1299 -0.063618 0.04095 0.019247 0.024508 0.07597 0.088794 
-0.018239 0.12875 -0.019226 0.03651 0.021384 0.029112 0.045882 0.11987 
0.024344 0.077285 -0.02646 0.035853 0.0090533 0.026317 0.057062 0.14371 
0.035853 0.043909 -0.017088 0.032071 0.01267 0.033387 0.048513 0.14798 
0.080573 0.00099702 0.071695 0.061008 0.0082312 0.014479 0.031578 0.12151 
0.097015 0.083697 0.13417 0.11083 0.03388 0.011026 -0.020377 0.046868 
0.05213 0.048184 0.1567 0.084848 0.041278 0.00297 -0.033365 -0.0029489 
0.048019 0.071366 0.13615 0.063474 0.052952 0.013328 -0.019061 -0.013143 
0.03092 0.080738 0.11773 0.0041209 0.036839 0.01563 0.00099702 -0.030077 
0.061995 0.088958 0.14289 -0.014787 0.0093821 -0.00015387 -0.0027845 -0.06855 
-0.009361 0.082217 0.12381 0.00050378 -0.04323 -0.049314 -0.055068 -0.09091 
-0.09239 -0.012485 0.042429 -0.030899 -0.0072237 -0.030242 -0.05326 -0.084827 
-0.088444 -0.062631 -0.040764 -0.018239 -0.004593 -0.03353 -0.047998 -0.051122 
0.038648 -0.02646 -0.041093 0.0052718 0.01563 0.0065871 0.013821 -0.017582 
0.17396 0.063803 -0.015444 -0.0047575 0.024344 -0.010348 0.017274 0.026646 
0.12529 0.07449 0.050979 0.017932 -0.0059084 0.01004 0.030098 0.01152 
-0.1478 0.022206 0.018754 0.010862 -0.013307 -0.019555 -0.029748 -0.071016 
-0.26749 -0.05589 0.0026412 0.049006 0.024015 0.025824 -0.012649 -0.081539 
-0.14763 0.031249 0.004943 0.046704 0.09833 0.075805 0.057884 -0.029913 
0.063639 0.08008 0.01415 0.093891 0.17626 0.18794 0.19369 0.083204 
0.19632 0.076299 -0.018568 0.10244 0.15472 0.18629 0.27392 0.17445 
0.17117 -0.014293 -0.042573 0.07038 0.087808 0.16508 0.25978 0.19254 
0.10589 0.03388 0.014808 0.052459 0.017603 0.082546 0.17314 0.13286 
0.087314 0.05476 0.013164 0.013164 -0.012814 0.064132 0.086492 0.051472 
0.038155 -0.0019624 0.034866 -0.0067304 -0.031557 -0.036654 -0.0078813 -0.037476 
-0.063124 -0.015116 0.095699 -0.0052507 -0.030899 -0.051944 -0.10686 -0.09387 
-0.1108 -0.01232 0.15489 0.026152 -0.016431 -0.075127 -0.070194 -0.13875 
-0.066906 0.0037921 0.11806 0.06742 0.011191 -0.021856 -0.023172 -0.067564 
0.056404 0.022535 0.066105 0.049828 0.044238 0.0093821 0.063474 0.054596 
0.15752 0.08008 0.025659 0.057062 0.055089 0.016945 0.052952 0.14239 
0.18942 0.076792 -0.0019624 0.024508 0.036346 -0.046025 0.059857 0.15472 
0.10951 0.078107 -0.0073881 0.011355 0.033058 -0.053588 0.030427 0.18185 
0.031578 0.043745 -0.014458 0.004943 0.034537 -0.035996 -0.0503 0.16015 
-0.0068948 0.094055 0.015465 -0.0013048 0.022864 -0.0039354 -0.18249 0.12891 
0.027961 0.031742 -0.0031133 0.030427 0.025001 0.036346 -0.19794 0.096686 
0.031414 0.034537 -0.054575 -0.0055795 -0.0060728 0.08156 -0.042408 0.079422 
0.034209 0.10754 -0.13777 0.0032988 0.0069159 0.067749 0.11017 0.081395 
0.052787 0.26455 -0.099295 -0.0096899 -0.023994 0.020727 0.11165 0.021384 
0.06331 0.30401 -0.059343 -0.033859 -0.012649 -0.094199 -0.027282 -0.18479 
0.12677 0.21408 -0.024487 -0.015773 -0.012649 -0.080717 -0.078908 -0.37584 
0.01711 0.18317 0.0088889 -0.024816 0.030427 0.0026412 -0.0064016 -0.56771 
-0.092554 -0.050629 -0.084169 -0.089431 0.012342 0.043251 0.11461 -0.35479 
-0.062631 -0.24793 -0.10176 -0.083676 0.010862 0.098166 0.1493 0.031578 
0.042758 -0.2351 0.30319 0.10014 0.0592 0.088794 0.19172 0.37487 
-0.0055795 -0.1575 0.74415 0.32325 0.1179 0.08156 0.13779 0.45725 
-0.087458 -0.17345 0.91333 0.37093 0.11642 0.060515 0.1031 0.3535 
-0.11459 -0.18249 0.78196 0.37455 0.086163 0.051143 0.034702 0.2292 
-0.042408 -0.15585 0.42338 0.25962 0.078272 0.032893 0.042758 0.16344 
0.10869 -0.0083746 -0.055397 0.077614 0.043909 0.047362 0.024344 0.14075 
0.20208 0.14913 -0.34263 -0.11228 -0.0059084 -0.0036066 0.0083956 0.083533 
0.19336 0.22098 -0.352 -0.18463 -0.021528 -0.038133 -0.045203 0.055089 
0.16064 0.2098 -0.28179 -0.1524 -0.028104 -0.082361 -0.11343 0.015301 
0.12957 0.14552 -0.20436 -0.12462 -0.013471 -0.063782 -0.12182 -0.0019624 
0.068571 0.11444 -0.14073 -0.06148 0.0064227 -0.030242 -0.082361 -0.035832 
-0.017253 0.067913 -0.052109 -0.021856 0.0051074 -0.0004827 -0.0095255 -0.085485 
-0.04323 0.087808 0.054596 0.034044 0.0095465 -0.0026201 0.012177 -0.051287 
-0.082525 0.062159 0.099645 0.039799 -0.0032777 -0.0070593 0.022371 0.016781 
-0.10176 0.045553 0.065118 0.0047785 0.013328 -0.0073881 0.011848 0.041114 
-0.026624 -0.027118 0.047691 0.004943 0.038648 0.027139 0.040621 -0.018568 
0.095699 -0.0088678 0.033387 0.0024767 0.049006 0.034537 -0.0022913 -0.10472 
0.068078 -0.070687 0.040292 0.036839 0.071695 0.067256 0.0062583 -0.15207 
-0.050958 -0.077264 0.061172 0.081889 0.062488 0.048513 -0.022021 -0.13859 
-0.064275 0.022535 0.17363 0.098823 0.03536 0.03092 0.010862 -0.072825 
-0.0095255 0.097837 0.2491 0.13351 0.0080668 0.011848 0.021384 0.0060938 
0.020069 0.12546 0.24318 0.1077 0.013492 0.041607 0.049335 0.090603 
0.032071 0.067256 0.12381 0.078765 0.034044 0.059693 0.079916 0.12283 
0.10688 -0.016266 -0.022021 0.0085601 0.036182 0.081395 0.12957 0.18119 
0.099645 -0.092719 -0.15109 0.015794 0.036182 0.071037 0.12858 0.16344 
0.058706 -0.0068948 -0.22885 0.032729 0.052787 0.079587 0.092576 0.10556 
0.012342 0.028454 -0.25088 -0.049478 0.045718 0.043745 0.066105 0.01826 
-0.011498 0.077614 -0.23395 -0.069372 0.045718 0.065283 0.024673 -0.047834 
-0.015444 0.06479 -0.15076 -0.10702 0.024837 0.046868 0.042429 -0.061973 
0.036346 0.13056 -0.018733 -0.10012 -0.00064712 0.060186 0.05772 0.083862 
0.083368 0.028783 0.026317 -0.058356 -0.009361 0.039799 0.087479 0.20421 
0.10047 -0.017253 0.15966 0.044238 0.026152 0.085835 0.12217 0.23052 
0.063474 0.064132 0.39296 0.18251 0.047362 0.10441 0.19517 0.19616 
0.050157 0.14585 0.58335 0.24334 0.065612 0.11592 0.17824 0.076299 
0.021056 0.14289 0.39658 0.26307 0.084026 0.085506 0.13088 -0.02498 
0.028125 0.0324 0.09274 0.16278 0.091589 0.050157 0.086492 0.028619 
0.064954 -0.047669 -0.08532 0.088301 0.022371 0.031578 0.049828 0.072846 
0.13582 -0.042079 -0.078415 0.021056 -0.021692 -0.0011404 0.0098754 0.10376 
0.088301 0.079916 -0.071181 -0.050464 0.015301 0.01267 0.034373 0.1008 
0.046211 0.13779 -0.21915 -0.094527 0.050157 0.048841 0.016123 -0.00081153 
0.057555 0.18794 -0.34608 -0.15487 0.023851 0.012342 -0.018733 -0.2254 
0.11674 0.17363 -0.28393 -0.10406 0.022864 0.066434 -0.0068948 -0.37699 
0.083697 0.21868 -0.13662 -0.027775 0.025988 0.012999 -0.047998 -0.32865 
-0.049149 0.16985 0.031085 -0.016431 0.011684 -0.019226 -0.070194 -0.18495 
-0.17295 0.061172 0.14058 0.016616 -0.01676 -0.095843 -0.15651 0.026646 
-0.14188 -0.10784 0.073832 -0.0022913 -0.023665 -0.056877 -0.15536 0.27771 
-0.057041 -0.17262 -0.093212 0.011684 -0.008539 0.01004 -0.053095 0.38852 
-0.015609 -0.072003 -0.095021 0.045882 0.040621 0.092904 0.15407 0.32095 
0.030592 0.040128 0.021384 0.075805 0.064132 0.093398 0.23512 0.21901 
0.062817 0.12349 0.13335 0.086985 0.065118 0.098001 0.22789 0.056076 
0.11165 0.15423 0.17462 0.054596 0.032893 0.05213 0.14864 0.015137 
0.18629 0.25156 0.11822 0.045718 0.0090533 0.024508 0.058706 0.046046 
0.15176 0.16048 0.06331 -0.00064712 -0.023172 0.0095465 0.06035 0.081231 
0.044402 0.049828 -0.02794 -0.043888 -0.00031829 0.015137 0.010862 0.056404 
0.005765 -0.035174 -0.023829 0.01267 0.024508 -0.012649 -0.030242 0.024508 
0.10244 0.076134 0.089123 0.052952 0.070873 0.027139 -0.053753 -0.030406 
0.15193 0.10096 0.14404 0.066598 0.048513 -0.016102 -0.066741 -0.16687 
0.1271 0.10902 0.10195 0.043909 0.054267 0.0069159 -0.081868 -0.19235 
0.086163 0.1396 0.0083956 0.08863 0.069064 -0.0021268 -0.029913 -0.14402 
-0.021528 0.16048 -0.13711 0.074819 0.078765 0.036182 -0.029748 -0.076771 
-0.10193 0.10721 -0.31616 -0.042244 0.058542 0.00297 -0.0052507 -0.053588 
-0.078744 0.048841 -0.39458 -0.097322 0.028619 0.014315 0.0014903 -0.01117 
0.015465 0.072681 -0.32504 -0.11442 0.0042853 -0.0070593 0.020562 0.088958 
0.026152 0.010697 -0.16029 -0.064604 -0.001798 -0.0052507 0.012999 0.24367 
-0.043559 -0.026953 0.023357 0.00050378 0.010533 -0.025802 0.031907 0.25715 
-0.08532 -0.021528 0.24581 0.062323 -0.0044286 -0.0040998 0.033551 0.19484 
-0.0080457 0.0046141 0.42288 0.1174 -0.017911 -0.018568 0.01826 0.13532 
0.009711 -0.094527 0.50082 0.07597 -0.045696 -0.036325 -0.0055795 0.049664 
0.0090533 -0.13251 0.61426 0.16837 -0.026789 -0.035174 -0.00097594 0.084684 
0.048841 -0.12577 0.65602 0.26965 0.012506 0.0079024 0.039963 0.16919 
0.061666 -0.12609 0.54669 0.26981 0.071531 0.023686 0.029112 0.17692 
0.029605 -0.1935 0.29809 0.20043 0.082053 0.063968 0.057884 0.096357 
-0.0052507 -0.1935 -0.04619 0.03536 0.097179 0.074983 0.060844 -0.095349 
-0.037969 -0.097651 -0.31238 -0.10094 0.072024 0.069229 0.027632 -0.54847 
0.04358 0.06035 -0.44835 -0.18775 0.071695 0.036182 -0.035503 -0.76665 
0.10606 0.20865 -0.48386 -0.20304 0.00050378 0.00050378 -0.010183 -0.43914 
0.12513 0.26192 -0.42467 -0.13547 -0.00081153 -0.010183 -0.01232 0.11313 
0.077778 0.2708 -0.29248 -0.088937 -0.0022913 -0.044546 0.021713 0.45807 
0.11395 0.19155 -0.18512 -0.010183 0.026974 -0.0868 -0.037805 0.51709 
0.038155 0.11165 -0.15125 -0.053588 -0.0064016 -0.096336 -0.092226 0.35728 
-0.034681 0.044731 -0.1279 -0.06148 0.018754 -0.063782 -0.12248 0.10852 
-0.053424 0.08419 -0.025309 -0.058192 0.011355 -0.019226 -0.1062 -0.048985 
-0.022514 0.082875 0.027139 -0.0067304 0.036839 0.050321 -0.050464 -0.13859 
0.0069159 0.050486 0.0067515 0.0592 0.030756 0.06331 0.022864 -0.17723 
0.074819 0.0227 -0.0049219 0.085835 0.030427 0.099481 0.14535 -0.034023 
0.18547 0.0074092 0.073832 0.1202 0.034373 0.095371 0.1853 0.21342 
0.16327 0.00033937 0.25354 0.16771 0.058542 0.10852 0.24005 0.33344 
0.033715 -0.03764 0.41368 0.2052 0.07449 0.10573 0.18432 0.2486 
-0.12988 -0.12429 0.42962 0.22148 0.074161 0.086985 0.11083 0.057227 
-0.16013 -0.25121 0.33262 0.16656 0.050157 0.034044 -0.0052507 -0.035996 
-0.034681 -0.23757 0.19155 0.13203 0.0079024 -0.011992 -0.026624 -0.011334 
0.13171 -0.121 0.078436 0.017603 -0.0034422 -0.040435 -0.063946 0.0079024 
0.1271 0.06035 0.14272 -0.030735 0.014643 -0.0057439 -0.017746 -0.040928 
0.025001 0.12135 0.23726 0.01826 0.027468 -0.0029489 -0.014129 -0.064933 
-0.067564 0.12595 0.15259 0.07038 0.029769 0.012999 -0.019884 -0.077922 
-0.065591 0.11855 0.078765 0.10852 0.017274 -0.038956 -0.05441 -0.18298 
-0.088773 0.15308 0.022371 -0.023172 -0.010019 -0.042079 -0.0503 -0.29955 
-0.05326 0.1738 -0.065097 -0.058356 0.0090533 -0.028597 -0.0019624 -0.30169 
0.041278 0.16574 -0.21143 -0.093376 0.026646 0.005765 0.044896 -0.063453 
0.15357 0.13302 -0.25697 -0.082032 0.024179 0.042758 0.078272 0.19139 
0.17955 0.14502 -0.22968 -0.0083746 0.042265 0.08008 0.082053 0.28116 
0.13993 0.11855 -0.19482 0.0051074 0.062323 0.061337 0.088136 0.23249 
0.078929 -0.0059084 -0.22129 -0.0054151 0.046704 0.072517 0.068407 0.1294 
0.023028 -0.075784 -0.23675 -0.0044286 0.017438 0.034373 0.068242 0.090931 
0.024673 -0.093212 0.0051074 0.10359 0.038812 0.027468 0.04917 0.085177 
0.027961 0.011684 0.27672 0.14683 0.019411 0.016945 0.058377 0.05772 
0.058213 0.0324 0.43686 0.13878 0.012999 0.023357 0.041607 0.05213 
0.078107 0.11181 0.52301 0.1396 0.022042 0.015465 0.041607 0.041278 
0.10343 0.090931 0.37668 0.07597 0.047526 0.059857 0.07301 0.044402 
0.054267 0.052623 0.15752 0.03536 0.047855 0.044731 0.076956 0.042265 
0.035853 0.063145 -0.021199 0.031414 0.064132 0.035524 0.065776 0.026974 
0.033387 0.12201 -0.053917 0.026646 0.044567 0.013821 0.021384 0.0024767 
-0.034516 0.09981 -0.14171 0.0079024 0.020727 0.017603 0.030427 -0.022185 
-0.081539 0.092247 -0.18117 -0.020048 0.030098 0.021878 0.034702 0.023851 
-0.045532 0.12891 -0.11459 0.021713 0.02681 0.042265 0.061501 0.098823 
-0.011663 0.11806 0.069886 0.020398 0.032893 0.047855 0.052294 0.20668 
0.040456 0.10244 0.17297 0.004943 0.0092177 0.029441 0.018096 0.17593 
0.0070803 0.00083261 0.19484 0.0082312 -0.014951 -0.0070593 -0.024816 -0.1085 
-0.029584 -0.0091966 0.18185 0.027139 0.013821 0.01415 -0.018568 -0.39392 
0.032236 -0.010841 0.050157 0.063639 0.046704 0.034537 0.019411 -0.33983 
0.013164 -0.0091966 -0.15848 -0.019061 0.041114 0.047197 0.070544 -0.087293 
-0.039613 -0.071509 -0.21192 0.0044497 0.034209 0.031249 0.067913 0.12842 
-0.0067304 -0.034516 -0.13103 0.0062583 0.022206 0.037661 0.053609 0.19402 
0.029934 0.076299 -0.035667 0.045718 0.029769 0.016452 0.011191 0.17149 
0.068078 0.16196 0.051143 0.076627 0.025495 0.033222 -0.022514 0.16525 
0.054103 0.1807 0.052294 0.023028 0.028125 0.032071 0.037497 0.20586 
0.092411 0.11526 -0.0067304 -0.0052507 0.017438 0.053938 0.095535 0.25156 
0.14486 0.096028 -0.05441 -0.022021 -0.008539 0.02122 0.077614 0.21408 
0.11526 0.053445 0.025001 0.010204 0.014479 0.028619 0.024344 0.062488 
0.027632 0.04358 0.10902 0.059364 0.043087 0.050979 0.064132 -0.11672 
-0.0021268 0.0056006 0.11888 0.026481 0.029934 0.071531 0.065612 -0.17624 
0.048184 0.0021479 0.096521 0.037168 0.04358 0.045882 0.10343 -0.091075 
0.070215 -0.017582 0.052623 -0.0014692 0.043087 0.047691 0.061666 -0.015938 
0.098494 0.048184 0.041443 -0.0036066 0.037826 0.04917 0.070215 0.032729 
0.1026 0.06479 0.045718 -0.010019 0.023686 0.067749 0.055582 0.067913 
0.11724 0.14733 0.077449 0.011848 0.010862 0.048348 0.051308 0.080902 
0.057227 0.16163 0.076134 0.018754 0.0085601 0.041278 0.047526 0.05624 
0.03947 0.1539 0.070708 0.015137 0.042923 0.041936 0.061337 0.086163 
0.026481 0.077778 -0.034845 0.025166 0.052294 0.055418 0.069722 0.17412 
-0.058685 -0.082196 -0.22359 -0.048656 0.0227 0.01415 0.032236 0.1516 
-0.20353 -0.16917 -0.30087 -0.086142 -0.017088 -0.039284 -0.054246 -0.019226 
-0.27686 -0.14829 -0.21126 -0.028762 -0.023172 -0.047834 -0.13152 -0.17476 
-0.23642 -0.0059084 -0.055232 0.00099702 -0.0044286 -0.0088678 -0.084005 -0.15257 
-0.024816 0.10836 0.069229 0.065283 0.040785 0.0032988 -0.026296 0.011355 
0.16393 0.19961 0.13631 0.067913 0.048348 -0.010348 -0.022021 0.051472 
0.28593 0.17199 0.12036 0.062323 0.040128 -0.022843 -0.052931 -0.020048 
0.25025 0.093233 0.052623 0.017932 0.026152 0.038319 0.0036276 -0.02235 
0.094055 0.019411 0.011026 -0.0087034 0.022206 0.068736 0.036017 0.012177 
-0.033201 0.073668 0.00099702 0.034537 0.018425 0.071366 0.013328 0.056898 
-0.034352 0.089287 0.0095465 0.047691 0.030263 0.032071 -0.10308 0.092247 
-0.030242 0.036346 0.027796 0.064954 0.049006 0.060679 -0.068714 0.092411 
-0.046354 -0.07414 -0.026789 0.041278 0.033058 0.034866 0.0092177 0.066763 
0.018589 -0.13234 -0.15569 0.046704 0.027303 0.04506 0.073339 0.04506 
0.11839 -0.080223 -0.27423 0.040621 0.036839 0.015301 0.078929 0.029934 
0.14617 -0.0042642 -0.29495 -0.036818 0.034373 -0.0138 0.055747 -0.013307 
0.093726 0.080573 -0.15503 -0.034681 0.015959 0.0085601 0.012177 -0.076771 
0.029441 0.077943 0.00050378 -0.069865 -0.0082102 -0.049642 -0.029913 -0.14023 
0.031907 0.12283 0.13631 -0.031064 0.03092 -0.066084 -0.032708 -0.25187 
0.07038 0.13861 0.16031 0.053609 0.034866 -0.012978 0.022042 -0.17114 
0.051965 0.147 0.22296 0.08863 0.059528 0.069229 0.13861 0.073504 
0.0064227 0.023193 0.34709 0.1276 0.031742 0.069722 0.092247 0.24005 
-0.071509 -0.032379 0.53255 0.16623 0.0019835 0.017767 0.055418 0.21769 
-0.084663 -0.043395 0.60341 0.1904 -0.004593 -0.0062372 -0.022021 0.062981 
-0.10505 -0.019719 0.37208 0.12809 0.016616 -0.0050863 -0.048985 -0.11475 
-0.037476 -0.015444 0.0592 0.052623 0.047033 0.013657 0.0098754 -0.020212 
0.063145 0.0082312 -0.19877 0.0060938 0.055747 0.048348 0.097179 0.13384 
0.14321 0.071531 -0.31714 -0.023829 0.060515 0.047526 0.10359 0.18317 
0.11806 0.059857 -0.28952 -0.032215 0.02533 0.0083956 0.045553 0.10408 
0.063474 0.03092 -0.19761 -0.056055 -0.0072237 -0.04323 -0.077593 -0.090581 
0.014808 -0.042573 -0.10341 -0.076606 -0.016924 -0.0771 -0.20238 -0.18956 
0.016945 -0.031886 -0.049971 -0.048985 -0.0011404 -0.091239 -0.23592 -0.24299 
0.030427 0.019083 0.030592 -0.019061 0.03799 -0.028269 -0.12609 -0.15059 
0.034866 0.16607 0.16673 0.058706 0.063968 0.058706 0.031907 -0.00031829 
0.069393 0.18991 0.21687 0.072517 0.077943 0.12135 0.16919 0.15505 
0.14124 0.19599 0.20816 0.13056 0.098166 0.12085 0.21753 0.22427 
0.067256 0.079587 0.16903 0.13598 0.066763 0.094877 0.15341 0.16558 
-0.012156 -0.0049219 0.17676 0.13565 0.048019 0.045882 0.12776 0.09833 
-0.016595 -0.02087 0.24499 0.21983 0.055089 0.02681 0.098823 0.079916 
0.035853 -0.088608 0.34479 0.22772 0.049992 0.019576 0.11724 0.13927 
0.073504 -0.1478 0.31059 0.19336 0.039634 0.014479 0.081395 0.19122 
0.12908 -0.15865 0.089452 0.09126 0.027139 0.0013258 0.049664 0.2246 
0.11806 -0.082854 -0.12774 -0.049478 0.005765 -0.010841 -0.018733 0.12102 
0.093233 -0.025309 -0.21274 -0.09798 -0.0034422 -0.028597 -0.042244 -0.11689 
0.078929 0.044073 -0.17624 -0.12642 -0.021528 -0.024158 -0.052602 -0.19202 
-0.0029489 0.042923 -0.065097 -0.064111 0.0059294 -0.013143 -0.01939 -0.11508 
-0.12133 0.10639 0.018096 -0.020048 0.047691 0.048019 0.058213 -0.0060728 
-0.08384 0.099316 0.057884 0.0052718 0.054432 0.059528 0.12299 0.082053 
0.01974 0.078929 0.071859 0.033222 0.026974 0.061008 0.10425 0.061501 
0.014972 0.10491 0.13088 0.053116 0.01711 0.039141 0.052294 -0.096336 
-0.098309 0.13812 0.14157 0.08715 0.0095465 0.030263 0.020891 -0.16194 
-0.21027 0.088958 0.06742 0.050486 0.016781 -0.0011404 -0.012649 -0.15766 
-0.19548 0.04358 0.021056 -0.0095255 -0.0011404 0.005765 0.0092177 -0.19597 
-0.075127 0.09126 0.061666 -0.043395 -0.010019 -0.0040998 0.0092177 -0.045203 
0.10655 0.13467 0.086821 -0.0067304 0.012999 0.032236 0.059528 0.19122 
0.30368 0.22065 0.020069 0.051308 0.040128 0.055747 0.089945 0.33706 
0.43571 0.18662 -0.029255 0.077285 0.062323 0.055911 0.10524 0.31947 
0.33328 0.064954 -0.19235 0.030756 0.027139 0.0090533 0.095699 0.24992 
0.057227 -0.15487 -0.25943 -0.017088 0.017767 0.03651 0.056076 0.17741 
-0.1769 -0.17739 -0.19844 -0.011992 0.053281 0.071859 0.069886 0.15555 
-0.15355 -0.088608 -0.086142 0.075148 0.080244 0.082217 0.078272 0.12792 
-0.11837 0.041607 0.064954 0.097508 0.08978 0.07449 0.054103 0.044567 
-0.094363 0.064296 0.17676 0.10228 0.046704 0.058213 0.033222 0.0065871 
-0.049478 0.064461 0.25896 0.049828 0.03092 0.033715 0.050157 -0.026296 
0.014643 0.029276 0.26718 -0.011827 -0.010676 0.038319 0.029276 -0.061809 
0.053445 0.05624 0.1756 -0.026296 -0.010512 0.022371 0.068571 -0.080388 
0.061666 0.046704 0.064132 -0.013471 -0.008539 0.063145 0.062159 -0.025145 
0.069229 0.0072447 -0.012156 -0.0088678 0.021549 0.07038 0.1174 0.062159 
0.0786 0.099481 -0.0080457 -0.019061 0.042923 0.085341 0.088136 0.06742 
0.13187 0.13615 -0.060494 0.0037921 0.061501 0.047362 0.08715 0.011355 
0.079916 0.15144 -0.15125 -0.03912 0.030427 0.014972 0.017767 -0.074633 
0.069558 0.14009 -0.19696 -0.051451 0.017603 -0.017582 -0.010512 -0.0096899 
0.047033 0.14749 -0.18035 -0.028926 0.024015 -0.022843 -0.050136 0.074326 
0.066763 0.054103 -0.12231 -0.022021 0.017438 -0.064111 -0.068386 0.10869 
0.057555 0.026974 -0.083347 0.010204 0.018096 -0.061316 -0.16391 0.048513 
0.061337 -0.011005 -0.019061 -0.030899 -0.00064712 -0.086471 -0.20682 0.064625 
0.11888 0.023686 0.077449 0.011684 -0.0083746 -0.013965 -0.10472 0.20914 
0.1294 0.066598 0.1396 0.078929 0.0075736 0.034044 0.074326 0.28445 
0.050157 0.037661 0.14239 0.072188 0.016616 0.054432 0.15637 0.16788 
0.090767 0.024015 0.062817 0.069722 0.025659 0.058871 0.12957 0.018589 
0.0095465 0.005765 -0.027282 -0.016924 0.011355 0.059035 0.064132 -0.28936 
-0.17114 0.027468 -0.18167 -0.088444 -0.011663 0.038483 -0.0019624 -0.5636 
-0.37995 0.083697 -0.35019 -0.10373 -0.0050863 0.059857 0.017767 -0.46972 
-0.40067 0.12529 -0.48106 -0.11409 0.029441 0.03651 0.044073 -0.13053 
-0.28031 0.096521 -0.4952 -0.14796 0.024673 0.056898 0.073339 0.1202 
0.0082312 0.13878 -0.31945 -0.14139 0.045389 0.030427 0.054432 0.24712 
0.2468 0.14782 0.021384 -0.039613 0.071037 0.052952 0.029934 0.21194 
0.36797 0.18251 0.26702 0.04917 0.062488 0.035853 0.047691 0.17676 
0.39099 0.11346 0.33311 0.10277 0.048184 0.037004 0.033387 0.19303 
0.29941 0.042429 0.48339 0.1978 0.031742 0.0079024 0.026481 0.12299 
0.09833 -0.057863 0.78755 0.31503 0.0324 0.0095465 -0.020377 0.0592 
-0.035174 -0.090253 1.07 0.45889 0.037332 -0.0082102 -0.017253 0.015137 
-0.024323 -0.090253 1.0426 0.41844 0.041278 -0.0019624 -0.026131 -0.0087034 
-0.060165 -0.12938 0.81961 0.34068 0.033551 -0.023007 -0.025802 -0.032215 
-0.10143 -0.10143 0.329 0.21145 0.027139 -0.022843 -0.069372 -0.026789 
-0.06148 -0.064275 -0.36647 -0.07003 0.02533 -0.024816 -0.061809 0.0034632 
0.0031344 -0.014622 -0.86037 -0.27818 -0.019061 0.020891 -0.044874 0.023686 
0.072846 0.09274 -0.81844 -0.32783 0.0018191 0.036182 0.038483 0.048348 
0.12677 0.22345 -0.41102 -0.18693 0.041443 0.033222 0.038977 0.038319 
0.10195 0.26094 -0.16999 -0.071345 0.047691 0.033551 0.065612 0.023851 
0.049992 0.18646 -0.019719 -0.036654 0.036182 0.028125 0.036839 0.033715 
0.0060938 0.044567 -0.017582 -0.011992 0.014315 0.01004 0.03092 0.019905 
-0.003771 -0.010183 0.013986 0.025495 0.015794 0.016123 0.02681 0.054103 
-0.02087 0.021384 0.090603 0.081395 0.020398 0.0080668 0.019411 0.0090533 
-0.037476 0.11115 0.22164 0.11033 0.0072447 0.0098754 0.0016547 -0.07414 
-0.063618 0.16212 0.24022 0.10885 0.015794 0.010533 0.0054362 -0.16539 
0.018425 0.17297 0.22279 0.11674 0.0056006 0.024508 0.041443 -0.15618 
0.048019 0.088301 0.095699 0.036182 0.043251 0.046211 0.057062 -0.018568 
0.051308 -0.019555 -0.0088678 0.037332 0.063474 0.063145 0.079422 0.16262 
0.069229 -0.12346 -0.13152 -0.042901 0.043909 0.055747 0.070215 0.28297 
0.12743 -0.12856 -0.11442 -0.018404 0.045553 0.071366 0.095699 0.29185 
0.10458 -0.029748 0.00033937 0.081231 0.047691 0.033387 0.03947 0.19303 
0.045389 -0.0026201 0.041278 0.15472 0.065447 0.0060938 0.029112 0.081724 
-0.00097594 0.030756 0.099152 0.17462 0.036675 0.0098754 -0.00097594 -0.034352 
-0.047176 0.0098754 0.18777 0.12924 0.0051074 0.01415 0.025659 -0.11376 
-0.072496 -0.08532 0.13878 0.070215 -0.0077169 0.011355 -0.011992 -0.14369 
-0.04323 -0.12231 0.051472 0.030756 -0.023007 0.022206 0.0054362 -0.049642 
0.041772 -0.021528 0.0421 0.026317 0.023193 0.043745 0.053445 0.096357 
0.15127 0.11822 0.090274 0.023193 0.044731 0.070873 0.092411 0.089287 
0.13236 0.17725 0.15785 -0.01528 0.030427 0.069064 0.071531 -0.087951 
0.089945 0.15341 0.20931 0.020562 0.0092177 0.030756 0.027961 -0.14303 
0.057227 0.038319 0.23742 0.012013 0.0079024 0.015959 0.029276 -0.035832 
0.062488 0.01974 0.23216 0.022371 0.00017495 0.033551 0.039305 0.20816 
0.046868 -0.0088678 0.094548 0.026646 0.034537 0.036017 0.062817 0.32243 
0.051965 0.050157 -0.073647 0.049499 0.033715 0.013328 0.036675 0.24088 
0.087479 0.023851 -0.23181 0.065118 0.036839 0.02533 -0.0044286 0.051801 
0.1031 0.013986 -0.24612 -0.024158 0.010533 -0.0078813 -0.044381 -0.06855 
0.070215 -0.037476 -0.17756 -0.070194 -0.010183 -0.036654 -0.038627 -0.10094 
0.044567 -0.024487 -0.081539 -0.065097 0.016945 -0.057041 -0.046025 -0.10554 
0.060844 0.0065871 0.020562 0.010862 0.033387 0.0087245 0.021056 -0.020048 
0.065118 0.094055 0.019576 0.063145 0.058706 0.024015 0.083533 0.072517 
0.03947 0.13368 -0.076442 0.026646 0.048513 0.086821 0.1276 0.10047 
-0.028762 0.10622 -0.12215 -0.013471 0.017274 0.063639 0.10721 0.10228 
-0.023172 0.071531 -0.16144 -0.059014 0.0059294 0.049828 0.076134 0.023522 
-0.001798 0.027632 -0.16901 -0.075784 -0.00064712 0.01711 0.026317 -0.14434 
0.034373 0.021878 -0.18265 -0.062631 -0.0088678 -0.011827 -0.010841 -0.15964 
0.059693 0.0054362 -0.11968 -0.046847 -0.0040998 -0.048327 -0.013636 -0.0036066 
0.047033 0.099645 -0.038791 0.037497 0.014315 -0.030242 -0.05326 0.089287 
0.046868 0.055254 -0.032215 0.03536 0.019083 -0.01676 -0.067728 0.11674 
0.058542 0.029934 0.020562 0.00017495 0.0013258 0.016123 -0.024323 0.094713 
0.049499 -0.0091966 0.044073 0.010697 0.016945 0.046704 0.089616 0.13236 
0.071366 0.052787 0.070708 0.044238 0.028947 0.052787 0.10458 0.11526 
0.047691 0.05476 0.11937 0.0421 0.026152 0.035688 0.093891 0.11477 
0.019576 0.016452 0.17281 -0.026131 0.036839 0.024837 0.03799 0.026481 
-0.020706 -0.0036066 0.20783 -0.010841 0.038977 -0.0098543 -0.00064712 -0.07562 
-0.013965 0.054925 0.21819 0.019576 0.052623 0.025988 -0.0014692 -0.042244 
-0.01232 0.15587 0.14371 0.047855 0.059693 0.013986 0.014643 -0.021034 
-0.027282 0.17051 0.05065 0.078272 0.067256 0.046046 0.023193 -0.010676 
-0.015609 0.13647 0.0014903 0.076134 0.064625 0.038977 0.033387 -0.011663 
0.01004 0.06183 0.061008 0.13647 0.054103 0.044073 0.048348 0.016781 
0.013328 -0.024652 0.13335 0.13039 0.034209 0.029441 0.034044 0.016616 
0.043909 -0.099295 0.14798 0.14091 0.037497 0.054267 0.07038 0.08008 
0.11592 -0.029091 -0.0039354 0.084684 0.050979 0.043416 0.094384 0.17988 
0.11937 -0.037969 -0.27916 -0.038627 0.042758 0.057227 0.12644 0.26225 
0.068078 0.025824 -0.26815 -0.11311 -0.021034 0.0011614 0.073339 0.29596 
-0.045532 0.099645 -0.023994 -0.085813 -0.038462 -0.01676 0.059693 0.16656 
-0.060165 0.18514 0.1807 -0.009361 -0.030406 -0.039449 0.025659 -0.03912 
-0.015444 0.21605 0.28889 0.037497 0.027632 0.012013 0.036346 -0.16227 
0.03092 0.1544 0.19073 0.069886 0.058542 0.011848 -0.01676 -0.12083 
0.026481 0.097837 0.13878 0.08304 0.034044 0.0054362 -0.029584 -0.067892 
-0.016266 0.015137 0.13335 0.040456 0.0082312 -0.064111 -0.12708 -0.041093 
-0.11475 0.0098754 0.076792 0.069229 0.01267 -0.068879 -0.21817 -0.10653 
-0.082361 0.022206 -0.048163 0.075148 0.055582 0.00050378 -0.1256 -0.18841 
0.11378 0.085341 -0.070194 0.098988 0.091589 0.11642 0.065283 -0.13185 
0.21293 0.093069 -0.095514 0.08304 0.073175 0.1031 0.14174 -0.037476 
0.23594 0.14733 -0.07266 0.064461 0.079587 0.09126 0.11806 -0.022843 
0.075805 0.051636 -0.053095 0.030592 0.063474 0.029605 0.093726 -0.15881 
-0.10669 -0.0087034 -0.004593 -0.052931 0.041772 0.041443 0.082217 -0.078415 
-0.24727 -0.11015 0.028454 -0.051615 0.0051074 0.03536 0.10622 0.10869 
-0.21652 -0.043395 0.14338 0.0324 0.00066819 0.054925 0.12003 0.28757 
-0.086142 0.056569 0.25502 0.093891 0.016945 0.040292 0.11757 0.31963 
0.04358 0.036017 0.28083 0.1562 0.011355 0.030427 0.065447 0.26225 
0.085341 -0.020541 0.22542 0.064132 -0.024487 -0.015938 0.029934 0.18333 
0.13039 -0.03616 0.16327 0.072517 0.0046141 -0.015773 -0.004593 0.15637 
0.1858 0.062981 0.15094 0.071202 0.051472 -0.0032777 -0.056877 0.090767 
0.15308 0.14552 0.10688 0.072024 0.066434 0.0034632 -0.17805 -0.089431 
0.070873 0.17889 0.036346 0.03092 0.054432 0.0011614 -0.19959 -0.22573 
0.0072447 0.15209 -0.076277 -0.041257 0.031742 0.041278 -0.072989 -0.21915 
-0.045532 0.077121 -0.26897 -0.037147 0.029769 0.041772 0.036839 -0.11853 
-0.021528 -0.0039354 -0.4398 -0.02498 0.005765 0.038812 0.06035 -0.022185 
0.061995 0.055582 -0.32191 -0.03616 0.023686 0.021384 0.077614 0.03799 
0.094384 0.098823 -0.045696 0.018918 0.035853 0.033058 0.095535 0.079916 
0.0023123 0.026152 0.23298 0.048019 0.01826 0.036182 0.066598 0.052623 
-0.067399 -0.074304 0.30023 0.10195 0.012177 0.02681 0.071859 0.060515 
-0.034023 -0.17575 0.10162 0.0041209 0.004943 0.028454 0.044567 0.097837 
0.03092 -0.11672 -0.01676 -0.013471 -0.006566 0.022371 0.0421 0.14683 
0.049006 0.0047785 0.094713 0.0034632 -0.0075525 0.020398 0.0227 0.022206 
-0.013965 0.11263 0.32325 0.095535 -0.015609 0.026974 0.047855 -0.12593 
-0.031721 0.10902 0.49342 0.16064 0.032729 0.04506 0.040292 -0.24151 
-0.013143 0.045553 0.31338 0.12365 0.0592 0.049828 0.027961 -0.17197 
-0.028104 -0.029748 -0.078415 0.10211 0.072846 0.055418 0.046046 -0.0090322 
-0.024158 -0.00015387 -0.3668 0.011355 0.052294 0.011026 0.018425 0.10704 
0.031249 -0.0078813 -0.37403 -0.062796 0.03536 0.015137 0.0092177 0.14913 
0.076956 0.041772 -0.19729 -0.080388 0.022042 0.012342 0.029112 0.15883 
0.056569 0.072681 0.058049 -0.044546 0.0059294 -0.009361 0.0098754 0.12908 
0.024015 0.11658 0.21621 0.0011614 0.00033937 -0.034845 -0.059507 0.068571 
0.10524 0.081067 0.16985 -0.023172 -0.012978 -0.0039354 -0.048656 0.14502 
0.19517 0.025988 0.087314 0.0047785 0.044402 0.012999 -0.013965 0.15522 
0.14124 0.043745 0.11198 0.057884 0.055911 -0.017911 0.0026412 0.054103 
0.013821 0.058213 0.21934 0.13697 0.031249 -0.025802 -0.021034 -0.08384 
-0.015938 0.1003 0.19632 0.14782 0.046046 0.045718 0.076299 -0.15668 
0.020891 0.063968 0.0072447 0.027796 0.034702 0.064461 0.14272 -0.053095 
0.076134 0.085012 -0.14254 -0.019061 0.0090533 0.060022 0.16393 0.12809 
0.10113 0.049664 -0.15355 -0.043724 0.014643 0.024015 0.11247 0.19747 
0.044238 -0.0070593 -0.15503 -0.046847 0.018096 0.0064227 0.03799 0.16311 
-0.0068948 -0.085813 -0.14796 -0.040435 -0.0083746 -0.023501 -0.047669 0.090274 
-0.0075525 -0.045368 -0.10538 -0.028433 0.0023123 -0.013307 -0.10932 0.040128 
-0.0080457 -0.0004827 0.040621 0.057227 0.027468 -0.00015387 -0.14221 0.09274 
0.064461 0.097672 0.14815 0.091589 0.081231 0.064461 -0.066248 0.19484 
0.11576 0.10113 0.14683 0.092576 0.082546 0.068242 0.054103 0.15489 
0.16475 0.067256 0.1174 0.062159 0.058213 0.06742 0.09833 0.05065 
0.10244 0.10556 0.13023 0.055582 0.023686 0.041772 0.11099 -0.012978 
0.0080668 0.13499 0.19517 0.092082 -0.012156 0.019576 0.070051 -0.018239 
-0.01117 0.17758 0.17314 0.025824 -0.0077169 0.0016547 0.074326 -0.011005 
0.0021479 0.03799 -0.0067304 -0.013471 0.00017495 0.007738 0.025659 0.0018191 
0.011026 -0.098473 -0.13004 -0.026789 0.0095465 -0.028269 0.038648 0.0018191 
0.0051074 -0.088444 -0.13662 -0.019061 0.0024767 0.021384 0.01415 0.0032988 
-0.053917 0.0098754 -0.052437 0.025495 -0.0021268 0.0032988 0.070051 -0.012156 
-0.066906 0.020562 -0.018733 0.017438 0.0018191 0.048348 0.04358 -0.038462 
-0.051615 0.013657 -0.0503 -0.00081153 0.018754 0.021713 0.016781 -0.041586 
0.029934 0.037661 -0.02498 0.0047785 0.1008 0.079258 -0.0075525 0.015959 
0.14552 0.091753 0.065118 0.051472 0.060186 0.018918 -0.023501 0.037826 
0.16048 0.15916 0.14206 0.053281 0.038319 0.024015 -0.004593 0.023028 
0.071366 0.14798 0.18481 0.045553 0.020233 0.014972 -0.0019624 0.067749 
-0.012649 0.11691 0.070708 0.055911 0.026974 0.028947 0.025824 0.098494 
-0.0080457 0.084026 -0.10505 0.0019835 0.023193 -0.0019624 0.00083261 0.080902 
0.042758 0.11642 -0.21274 -0.027775 0.0095465 -0.008539 0.0082312 0.085012 
0.068078 0.049664 -0.23148 -0.095021 0.010697 -0.014787 0.0041209 0.065118 
0.045389 0.018589 -0.15421 -0.06148 0.026974 0.017274 0.040785 0.049664 
0.0065871 -0.035667 -0.046519 0.010204 0.029605 0.022371 0.048677 0.04654 
0.01711 -0.030406 0.026974 0.01711 0.058871 0.081067 0.11148 0.081724 
