0.031907 0.060844 0.051636 0.00050378 0.055582 0.27803 0.01826 -0.0068948 
0.062159 0.098001 0.057555 0.056076 0.085506 0.1978 -0.02646 0.0098754 
0.04654 0.10129 0.05213 0.07449 0.091753 0.055254 -0.12429 0.020069 
0.0072447 0.099316 0.05476 0.048513 0.044731 -0.15388 -0.1575 0.0044497 
-0.013471 0.10524 0.055418 0.062652 0.019411 -0.16588 -0.080388 -0.00081153 
0.13171 0.12875 0.053609 0.044238 0.011191 -0.13004 0.065612 0.02122 
0.18366 0.085999 0.050979 0.055911 -0.013471 -0.065755 0.1373 0.012835 
0.020891 0.016781 0.025824 0.061008 -0.016102 -0.021528 0.12957 -0.05589 
-0.28492 -0.023829 0.031414 0.053116 0.03799 0.10293 0.079422 -0.066741 
-0.36992 -0.0050863 0.039634 0.070873 0.083862 0.18267 0.010369 -0.053095 
-0.38603 -0.022843 0.020891 0.052623 0.046211 0.16903 -0.05589 -0.064768 
-0.34131 -0.018075 -0.011005 0.011191 -0.017417 0.12809 -0.0044286 -0.082032 
-0.30498 -0.039449 -0.02498 0.01004 -0.0016336 0.16262 0.063968 -0.031721 
0.0062583 -0.017582 -0.0039354 0.012506 -0.0024557 0.19846 0.14026 0.12447 
0.21506 0.083862 0.046375 0.067749 0.067913 0.18152 0.1294 0.16574 
0.19714 0.14733 0.066763 0.049664 0.036346 0.071037 0.11033 0.12118 
0.22822 0.15949 0.019411 -0.012814 -0.016102 -0.047341 0.046046 0.081724 
0.31207 0.13631 0.016945 -0.073318 -0.042737 -0.10439 -0.055068 0.071531 
0.31322 0.15292 0.025824 -0.08384 -0.014458 -0.10341 -0.067564 0.049664 
0.22394 0.08715 0.025988 -0.03501 0.074326 -0.05178 -0.028104 -0.00064712 
0.082382 0.072681 0.056404 0.0064227 0.12677 0.025659 0.023193 -0.034681 
-0.013307 0.0036276 0.04654 0.059035 0.14979 0.0034632 0.0037921 -0.060823 
-0.024158 -0.0067304 0.03651 0.058706 0.11822 -0.023336 -0.041422 -0.047998 
-0.045696 -0.02646 -0.0022913 0.048184 0.081724 0.0065871 -0.080552 0.010862 
-0.19087 -0.0096899 -0.02794 0.028125 0.042594 0.073668 -0.049149 0.018589 
-0.26075 0.012177 -0.018733 0.01004 0.0062583 0.03092 -0.057041 -0.016924 
-0.17065 0.11872 0.10524 0.083533 0.019905 -0.12725 -0.064768 0.02681 
0.0059294 0.10425 0.1613 0.061995 0.011355 -0.24924 -0.043888 0.11707 
0.11724 0.075312 0.17659 0.12283 0.050979 -0.13481 0.08008 0.1373 
0.18054 0.038648 0.10672 0.12875 0.018096 -0.015773 0.10704 0.095699 
0.24811 0.02681 0.041278 0.089945 -0.0087034 0.051308 0.10984 -0.014129 
0.2103 0.043087 0.070215 0.15094 -0.014293 0.048348 -0.014787 -0.08532 
0.023851 -0.010183 0.11855 0.1881 0.0093821 0.066105 -0.034516 -0.074962 
-0.11426 -0.05326 0.12924 0.16097 0.028619 0.034702 -0.027282 0.0026412 
-0.15421 -0.10193 0.053609 0.046211 0.0227 0.00033937 0.032729 0.073668 
-0.18331 -0.096994 -0.02087 -0.054082 0.045224 0.1322 0.1151 0.096028 
-0.1427 -0.10045 -0.10061 -0.079566 -0.00097594 0.24778 0.11543 0.13615 
-0.028597 0.0032988 -0.068879 -0.10225 -0.0019624 0.2463 0.098001 0.18629 
0.084355 0.073175 0.0044497 -0.039613 0.036839 0.11083 0.034866 0.16196 
0.24121 0.1271 0.052787 -0.023829 0.090931 -0.062467 -0.040764 0.071037 
0.28182 0.11559 0.02122 -0.0011404 0.04917 -0.3104 -0.089431 0.038483 
0.18613 0.1031 0.025001 0.037004 0.038319 -0.43453 -0.02498 0.020233 
0.073832 0.075148 0.016616 0.0098754 0.032564 -0.38455 -0.031557 -0.017746 
0.12743 0.03651 0.029112 0.028619 0.066763 -0.18841 -0.01232 -0.0082102 
0.28461 0.076299 0.053445 0.055418 0.071366 -0.029091 -0.0026201 0.026317 
0.24055 0.093891 0.059857 0.049499 0.10195 0.088136 0.077614 0.061501 
-0.10521 0.070215 0.012177 0.029441 0.0024767 0.005765 0.075148 0.01711 
-0.34213 0.053609 -0.011827 -0.019719 -0.099953 -0.1376 0.089123 -0.039942 
-0.17805 0.063474 0.053774 0.01415 -0.084827 0.051472 0.12135 -0.045861 
0.077614 0.023028 0.10556 0.034209 -0.019555 0.25666 0.11 -0.01676 
0.11 -0.013143 0.081231 0.063968 -0.033037 0.1858 -0.10341 -0.06148 
0.028454 -0.085485 0.03388 0.034209 -0.074469 0.036182 -0.21636 -0.021856 
0.04095 -0.020212 0.0093821 -0.021199 -0.10012 -0.082361 -0.096829 0.069229 
0.10885 0.040128 -0.0034422 0.018096 0.029605 0.056898 0.1391 0.11115 
0.12085 0.067256 0.061501 0.036346 0.22378 0.43456 0.22805 0.044567 
0.088136 0.065283 0.074161 0.075148 0.26159 0.65158 0.21013 -0.00064712 
0.07597 0.060844 0.029276 0.053938 0.13762 0.42288 0.14831 0.044567 
0.04917 0.043416 -0.0011404 0.026481 0.034209 -0.040106 -0.015116 0.048348 
0.10721 0.043416 0.029605 0.058377 0.020233 -0.36334 -0.097158 0.016616 
0.12349 0.029276 0.023028 0.02122 0.027796 -0.45755 -0.17953 -0.02794 
0.13779 -0.012649 -0.0022913 -0.017253 -0.029584 -0.48123 -0.15372 -0.039778 
0.27064 0.074819 -0.02087 -0.062302 -0.031392 -0.31879 0.027303 0.02533 
0.41072 0.1151 -0.028269 -0.072332 -0.02087 -0.1381 0.24285 0.12694 
0.1858 0.083368 -0.01676 -0.024158 0.013657 0.021713 0.33739 0.18218 
-0.14319 0.027468 -0.0040998 -0.015609 0.031907 0.21901 0.38474 0.14585 
-0.27801 0.11165 -0.0067304 0.010862 0.0082312 0.52597 0.28017 0.03799 
-0.17197 0.089123 -0.014458 -0.028597 -0.083347 0.64649 0.0052718 -0.045039 
-0.17739 0.064296 -0.012978 -0.066741 -0.064604 0.55376 -0.20551 -0.056383 
-0.21718 0.027139 -0.028269 -0.027282 -0.024323 0.47451 -0.267 -0.086142 
-0.16029 -0.034352 -0.0050863 -0.060658 -0.0080457 0.12776 -0.21143 -0.16013 
-0.022021 -0.012814 0.033387 0.023357 -0.003771 -0.42187 -0.089759 -0.073482 
0.12677 0.043745 0.067585 0.02681 0.03947 -0.62657 0.04358 0.183 
0.27491 0.12069 0.05065 0.059857 0.13845 -0.029584 0.16097 0.28264 
0.28658 0.13598 0.020727 0.016288 0.19024 0.74629 0.21424 0.2685 
0.18843 0.11937 0.0069159 0.0072447 0.17067 0.70798 0.14075 0.17347 
0.071531 0.070215 0.015301 0.03092 0.065283 0.21293 0.072681 0.031742 
0.069393 0.099152 0.033387 0.02681 0.010533 -0.27456 -0.03764 -0.10061 
-0.0088678 0.060022 0.019411 0.043416 0.032893 -0.47367 -0.073976 -0.20205 
-0.12823 0.055582 0.0080668 0.04654 0.056404 -0.38702 -0.12675 -0.16506 
-0.11327 0.009711 -0.0044286 0.013328 0.029934 -0.087951 -0.090253 -0.08828 
-0.055726 0.0026412 -0.0049219 0.0016547 -0.004593 0.10376 -0.023994 0.041114 
0.010697 -0.003771 0.013986 -0.028104 -0.031886 0.11822 0.078272 0.072681 
0.075476 0.047197 0.036017 0.017438 -0.018568 0.076792 0.13335 0.11165 
0.13598 0.058542 0.035853 0.025988 0.0092177 0.098659 0.12661 0.11477 
0.18218 0.079916 0.044731 0.049828 0.012506 0.090931 0.061995 0.17889 
0.17626 0.050979 0.02829 0.031578 -0.011827 0.044073 0.03092 0.23183 
0.13664 0.0039565 -0.0004827 0.013657 -0.028762 0.012177 0.066598 0.17791 
0.011026 -0.020706 0.0039565 0.033058 -0.0057439 0.059035 0.096193 0.062817 
-0.061316 -0.082032 0.0036276 0.021878 0.030263 0.1003 0.11905 -0.012814 
-0.19252 -0.090581 -0.0022913 0.025166 0.016452 0.14239 0.058049 -0.10752 
-0.29807 -0.030899 0.038977 0.049992 0.022535 0.090931 0.025495 -0.1552 
-0.14944 0.072353 0.083862 0.06035 0.012999 -0.0031133 0.011191 -0.15174 
-0.14336 0.10869 0.11921 0.11642 0.018096 -0.074304 0.049335 -0.052273 
-0.2767 0.1151 0.11609 0.10639 0.043251 -0.11343 -0.0082102 0.059035 
-0.26946 0.074326 0.078929 0.09274 0.058542 -0.12708 -0.025145 0.077285 
-0.20633 0.096686 0.031578 0.041114 0.084026 -0.048656 -0.034845 -0.028433 
0.03947 0.066105 0.020233 0.022535 0.070873 -0.045696 -0.021034 -0.041751 
0.40891 0.062981 0.031578 0.045718 0.055747 -0.038462 -0.03616 0.0041209 
0.40661 0.075476 0.048019 0.027468 0.0421 -0.065097 -0.01528 0.1077 
0.15604 -0.014787 0.021878 0.051308 -0.024816 -0.13037 -0.037147 0.19583 
0.039141 -0.016431 0.021056 0.036017 -0.056219 -0.16638 -0.058192 0.22476 
0.11987 0.034866 0.061501 0.045224 -0.067892 -0.072989 -0.0080457 0.16903 
0.2999 0.11855 0.10014 0.07597 -0.053753 -0.046519 0.027303 0.10293 
0.14617 0.090438 0.10425 0.078765 0.011684 -0.076606 0.019411 -0.025967 
-0.13432 0.078765 0.099974 0.098659 0.064132 -0.20419 -0.014622 -0.13892 
-0.19334 -0.026789 0.031907 0.031742 0.052787 -0.31287 0.012342 -0.11064 
-0.01939 -0.041422 -0.027118 0.016781 0.023357 -0.20781 0.023686 -0.080059 
0.12447 -0.0027845 0.03388 0.023028 0.023851 0.036182 0.0080668 -0.23181 
0.0014903 0.073504 0.074983 0.058706 0.027796 -0.008539 -0.078908 -0.28656 
-0.1917 -0.013636 0.020891 0.061008 0.00017495 -0.26437 -0.2106 0.00066819 
-0.23888 -0.061151 -0.043559 -0.011498 -0.014787 -0.37798 -0.15289 0.26061 
-0.099295 -0.033365 -0.022514 -0.011005 -0.0083746 -0.19696 0.11198 0.28658 
0.023028 0.035195 0.020891 -0.0073881 0.05772 0.50016 0.402 0.16607 
0.11378 0.10178 0.087808 0.01974 0.12085 1.1826 0.59026 0.048677 
0.15883 0.10343 0.079751 0.029769 0.10737 1.0079 0.42666 -0.025638 
0.1659 0.094877 0.062323 0.011026 0.0059294 0.35021 0.11609 -0.024652 
0.16097 0.072353 0.072024 0.085835 -0.052437 -0.29889 -0.14139 -0.0406 
0.080902 0.046704 0.05213 0.057391 -0.04882 -0.56212 -0.23527 -0.091075 
0.01974 0.0093821 0.0227 0.033387 -0.024816 -0.53269 -0.20814 -0.10143 
-0.019719 0.029769 -0.01117 0.015137 -0.011498 -0.41382 -0.19679 -0.038133 
-0.020212 0.025166 -0.021199 0.009711 0.026152 -0.12297 -0.10176 0.016452 
-0.038627 0.050157 -0.00015387 0.040785 0.068242 0.090438 -0.01676 0.038483 
-0.046847 0.043251 0.053609 0.0074092 0.07301 0.097015 0.079094 0.037826 
-0.061316 0.06183 0.055582 0.013986 0.035031 0.13154 0.10737 0.065776 
0.034209 0.071859 0.038319 0.013986 0.029605 0.079751 0.088301 0.147 
0.16788 0.10836 0.053609 0.010862 0.027303 -0.086142 0.038319 0.21802 
0.21621 0.10556 0.036346 0.04654 0.005765 -0.18808 0.041772 0.13845 
0.15686 0.078765 0.042429 0.02829 0.016452 0.019905 0.033387 -0.028597 
0.07038 0.048019 0.028947 0.044238 0.013328 0.21095 0.00033937 -0.091404 
0.059857 0.012999 0.0085601 0.015465 0.057391 0.29086 0.00017495 -0.041915 
0.087972 0.055089 0.020562 0.042265 0.066763 0.2149 0.10195 0.052294 
0.0786 0.068571 0.038648 0.070544 0.092904 0.15292 0.12513 0.073339 
-0.02235 0.06594 0.013492 0.031085 0.066269 0.049828 0.04917 0.0047785 
-0.039613 0.031742 0.013986 0.0324 0.036346 0.028619 -0.0060728 0.0052718 
0.068571 0.050321 0.0087245 -0.01528 0.031742 0.051801 0.023851 0.058049 
0.057227 0.075641 0.033387 -0.01528 0.038648 0.11691 0.086328 0.037661 
-0.024816 0.090603 0.019083 -0.0064016 0.020398 0.11526 0.083533 -0.0095255 
0.01563 0.052459 0.0092177 -0.0060728 0.023851 0.1197 0.081067 -0.0027845 
0.098988 0.0689 0.013328 0.027961 0.040785 0.084026 0.055582 0.065283 
0.14864 0.029934 0.034866 0.036346 0.078272 0.12135 0.092576 0.18744 
0.1493 0.047855 0.041278 0.05065 0.10014 0.13302 0.093562 0.19879 
0.14371 0.036675 0.02122 0.048677 0.083533 0.1202 0.09274 0.097837 
0.15078 0.020398 0.021878 0.038319 0.053116 0.04654 -0.0075525 0.036182 
0.1419 0.038648 0.04095 0.052294 0.023193 0.014479 -0.047341 0.034537 
0.085835 0.020069 0.040785 0.022371 0.013164 -0.028926 -0.10258 0.0024767 
0.049992 0.061501 0.068407 0.049499 0.016123 -0.0034422 -0.11031 -0.042408 
0.0056006 0.061008 0.046704 0.04506 0.04358 -0.015773 -0.084663 -0.061973 
-0.048163 0.15719 0.056569 0.063803 0.096193 -0.025309 0.017274 -0.018897 
-0.12889 0.12414 0.061501 0.090931 0.12053 -0.038627 0.051636 -0.027447 
-0.14434 0.13302 0.076463 0.059035 0.16442 -0.0024557 0.028947 -0.013471 
0.065776 0.15966 0.046046 0.077614 0.16278 0.024179 -0.011663 0.022535 
0.2759 0.12792 0.00099702 -0.025967 0.094877 0.077285 0.022371 0.090931 
0.26192 -0.019226 -0.070523 -0.07414 -0.037311 0.050157 0.056898 0.13302 
0.14519 -0.10373 -0.10604 -0.080059 -0.13695 0.05624 0.1465 0.083862 
0.073175 -0.18035 -0.055726 -0.10127 -0.19433 -0.0073881 0.14042 0.074326 
0.032729 -0.20041 -0.0080457 -0.006566 -0.14352 0.020398 -0.011992 0.10392 
-0.1478 -0.13349 0.021056 0.026317 -0.014622 0.079094 -0.14204 0.032729 
-0.25088 0.012177 0.06479 0.069558 0.12316 0.15604 -0.15898 0.0018191 
-0.26946 0.15555 0.089616 0.075641 0.16081 0.052623 -0.074469 -0.044052 
-0.36762 0.15587 0.073339 0.06183 0.12381 -0.040928 -0.032872 -0.076771 
-0.30432 0.14289 0.042265 0.076627 0.077121 -0.1182 0.066763 -0.091239 
-0.060987 0.10507 0.027303 0.036182 0.033222 -0.1182 0.087479 -0.085156 
0.2172 0.11954 0.039634 0.039799 0.014808 -0.086142 0.11954 -0.033201 
0.33246 0.079751 0.039305 0.031249 0.032236 -0.0029489 0.076956 0.053609 
0.26718 0.043416 0.028454 0.011848 0.033715 -0.0073881 0.037661 0.076463 
0.16788 -0.016431 0.0227 0.016452 0.047362 0.030263 0.036346 0.1031 
0.076627 0.01152 0.01711 -0.011992 0.043745 -0.016595 -0.0027845 0.071202 
0.038483 0.0054362 0.031085 0.018754 0.051801 0.014808 -0.02646 0.037497 
-0.014293 0.017438 0.025824 -0.01117 0.043416 0.061501 -0.026789 0.02829 
-0.013307 0.017438 0.021549 -0.01117 0.034373 0.12316 0.010862 0.037826 
0.025988 0.024344 0.01004 -0.0054151 0.020069 0.11642 0.0092177 0.023686 
0.051965 0.029112 0.021713 0.02122 -0.0055795 0.093726 0.042923 0.0088889 
0.033058 0.038319 0.011355 0.034209 -0.030735 -0.083676 0.046704 0.014972 
0.061008 0.066269 0.015959 0.017603 -0.03057 -0.2083 0.07038 0.0056006 
-0.00015387 0.027303 0.016123 0.029112 -0.057205 -0.22014 0.030263 -0.010512 
-0.097651 0.0041209 0.0019835 0.024837 -0.07414 -0.1455 0.055089 -0.010512 
-0.13744 -0.020048 0.05213 0.012506 -0.10028 -0.070359 0.027303 0.024344 
-0.073647 0.0011614 0.0786 0.040785 -0.029913 0.049664 0.053281 0.039305 
-0.096994 0.021878 0.095535 0.03651 0.041936 0.083862 0.030098 -0.011498 
-0.1473 0.049335 0.066269 0.063474 0.05772 -0.060494 -0.0004827 -0.042408 
-0.11771 0.0092177 0.035688 0.054267 0.023193 -0.2111 -0.02087 0.0090533 
0.0052718 0.061337 0.039305 0.090931 0.056898 0.014315 0.012342 0.092576 
0.083697 0.041278 0.02681 0.10113 0.10474 0.20224 0.065283 0.068736 
0.067585 0.0080668 0.018589 0.058542 0.091425 0.21441 0.01152 -0.00064712 
0.014643 1.0539e-005 0.010533 0.044896 0.058871 0.16607 -0.041257 -0.048492 
0.042923 0.03388 0.024508 0.056076 0.06035 0.18876 0.032729 -0.012485 
0.086985 0.061337 0.063803 0.050157 0.058706 0.091425 0.10096 0.042429 
0.093233 0.096357 0.06742 0.029934 0.066927 0.047526 0.10408 0.022206 
0.079094 0.09126 0.043745 0.025988 0.085341 0.11329 0.10902 0.030263 
0.077121 0.064132 0.028783 0.034537 0.14091 0.23266 0.083368 0.048184 
0.087479 0.08419 0.04917 0.025824 0.097015 0.2486 0.11905 0.056569 
0.060844 0.051143 0.029605 0.012342 -0.059178 0.11888 0.0090533 0.043909 
0.072517 0.053938 0.0098754 -0.0083746 -0.16769 0.026974 0.0031344 0.0083956 
0.10622 0.013986 0.00297 -0.025802 -0.11146 -0.072332 -0.063453 -0.045203 
0.083368 0.049992 0.018754 0.015137 -0.035667 -0.2522 -0.050629 -0.11228 
0.030756 0.096028 0.059528 0.031907 0.0227 -0.42894 -0.0031133 -0.11837 
0.03799 0.14387 0.10984 0.087972 0.068407 -0.31714 0.09422 -0.054246 
0.11461 0.15686 0.1271 0.077285 0.071531 0.020891 0.19073 0.14667 
0.16738 0.11543 0.11806 0.065612 0.0064227 0.19024 0.17676 0.30779 
0.15637 0.079751 0.069064 0.074161 -0.039778 0.30977 0.14058 0.32391 
0.1322 0.010862 -0.0064016 0.014643 -0.014458 0.29875 0.10655 0.27277 
0.015465 -0.062302 -0.063946 0.01267 0.011848 0.26061 0.033222 0.16722 
-0.16358 -0.10078 -0.079401 -0.013636 0.033222 0.14453 -0.13843 0.076956 
-0.1547 -0.02942 0.0070803 -0.03353 0.071202 0.19928 -0.18627 0.058213 
0.053938 0.031414 0.13302 -0.0072237 0.13615 0.51331 -0.063782 0.047197 
0.1128 0.14897 0.1636 -0.014293 0.07597 0.39987 0.10556 -0.13382 
0.05624 0.12694 0.092411 0.01974 0.033222 0.075641 0.11724 -0.24036 
0.013328 0.098001 0.010862 0.016452 0.072024 0.05476 0.10228 -0.15848 
0.087972 0.068078 -0.01939 0.06594 0.13006 0.2366 0.08978 -0.017911 
0.095206 0.12579 -0.0032777 0.088794 0.047033 0.14437 0.064625 0.042265 
0.071531 0.11494 0.005765 0.087643 -0.10916 -0.069701 0.062817 0.062817 
0.04095 0.077614 0.017767 0.073668 -0.18693 -0.19745 0.044238 0.10918 
0.091096 0.041772 0.0019835 0.016123 -0.1672 -0.21751 0.015465 0.14486 
0.068407 0.01004 -0.064111 -0.030899 -0.12314 -0.19235 -0.03764 0.11181 
0.10408 0.0047785 -0.081703 -0.0054151 -0.022679 -0.089595 -0.010019 0.067256 
0.08863 -0.0019624 -0.067399 0.0026412 0.07449 0.014808 0.0082312 0.014643 
0.08863 0.028454 0.028619 0.1128 0.14206 0.1299 0.034209 0.038483 
0.01974 -0.0004827 0.13631 0.18054 0.13828 0.13138 0.0032988 0.053938 
-0.045039 -0.0062372 0.21934 0.22953 0.12085 0.04506 -0.02235 0.029276 
-0.041915 -0.10291 0.11346 0.11461 0.066105 -0.0050863 -0.0070593 0.027961 
0.014643 -0.1085 -0.014622 -0.037311 0.049006 0.059035 0.11132 0.057062 
0.02533 -0.058192 -0.020212 -0.10028 0.035853 0.073504 0.17281 0.065776 
0.062159 0.073504 0.034209 -0.12412 1.0539e-005 -0.057863 0.19616 0.079587 
0.082875 0.086985 -0.014787 -0.14451 -0.090253 -0.22852 0.084026 0.058213 
0.043745 0.076463 -0.073482 -0.18643 -0.17723 -0.39212 -0.012814 0.0227 
-0.010676 0.057884 -0.068879 -0.12264 -0.17049 -0.43569 -0.074633 -0.016102 
-0.034516 0.055911 -0.013143 -0.04471 -0.058028 -0.19416 -0.06707 -0.014293 
-0.0027845 0.096686 0.00297 0.023357 0.027961 0.098494 -0.061151 0.004943 
0.050321 0.053774 0.025495 0.064625 0.084848 0.25222 -0.11343 0.013492 
-0.0087034 0.033387 0.059528 0.078929 0.053445 0.24384 -0.23033 -0.033037 
-0.044381 0.0095465 0.053609 0.095371 0.058542 0.17824 -0.11787 -0.017253 
-0.0011404 0.05624 0.049992 0.081231 0.12908 0.29859 0.088136 0.028125 
0.010369 0.064461 0.049499 0.086492 0.16459 0.25156 0.13499 0.045389 
0.035853 0.085835 0.034044 0.098823 0.081724 -0.09946 0.07449 0.019247 
0.074983 0.081724 0.031085 0.076627 0.098166 -0.32915 0.00066819 -0.013307 
0.12529 0.1077 0.03388 0.097672 0.1202 -0.40658 0.049499 -0.0031133 
0.1978 0.050157 0.016616 0.046211 0.073339 -0.47087 0.09981 0.0324 
0.2833 -0.0044286 -0.025802 0.00033937 -0.061809 -0.60191 0.067585 0.022864 
0.17577 -0.076113 -0.056712 -0.0016336 -0.14089 -0.73936 -0.082525 -0.0060728 
-0.13136 -0.080552 0.012342 -0.027282 -0.17262 -0.58695 -0.096665 0.028783 
-0.39425 -0.11639 0.03388 0.00099702 -0.12988 -0.11113 -0.069372 -0.048163 
-0.42253 -0.13432 0.047197 0.022535 -0.059507 0.32687 -0.059836 -0.10505 
-0.28985 -0.07562 0.023522 0.040128 0.023028 0.62758 -0.069536 -0.02646 
-0.066248 0.0047785 0.011684 0.004943 0.10458 0.52318 0.014643 0.08419 
0.15275 0.10211 0.033551 -0.01528 0.20898 0.39806 0.12266 0.11329 
0.32621 0.17971 0.051472 0.069393 0.28938 0.4191 0.15785 0.074161 
0.31684 0.2389 0.10803 0.11148 0.34298 0.46612 0.11822 0.05476 
0.10787 0.19122 0.10211 0.12168 0.28067 0.32374 0.055747 0.005765 
-0.085485 0.11559 0.044896 0.040785 0.14239 0.018754 -0.063946 -0.045368 
-0.070523 0.062488 0.037661 -0.016431 -0.056383 -0.3326 -0.1085 -0.086471 
-0.0059084 0.089945 0.046868 -0.02498 -0.16786 -0.53746 -0.087129 -0.025474 
-0.10768 0.018096 0.014643 -0.057699 -0.19005 -0.5391 0.0090533 -0.051287 
-0.19285 -0.017582 -0.01117 -0.035503 -0.12494 -0.28558 0.20553 -0.047998 
-0.081703 -0.016595 -0.0083746 -0.028926 -0.015116 -0.076277 0.16196 -0.0047575 
0.0074092 0.0024767 -0.013636 -0.021199 0.040292 0.085506 0.004943 0.035031 
0.085341 0.041936 -0.033201 -0.004593 0.045718 0.18218 -0.11245 0.15094 
0.072846 0.065118 -0.022679 -0.025309 0.052952 0.20997 -0.073482 0.17363 
0.051965 0.059857 0.019083 0.031907 0.086492 0.14848 -0.034845 0.13286 
0.024673 0.010697 0.021056 0.027961 0.075148 0.041772 0.0082312 0.056569 
0.079422 0.0092177 0.0011614 0.0021479 0.014643 -0.054082 0.015465 0.015959 
0.095206 0.035031 0.038319 -0.0077169 0.016288 0.087643 0.1248 0.0046141 
0.076463 0.159 0.1008 0.029934 0.036346 0.34216 0.21589 -0.02498 
0.025988 0.15999 0.11839 0.06183 0.048677 0.4533 0.23677 -0.021199 
0.0013258 0.13549 0.1003 0.012999 0.084355 0.42091 0.13795 0.0064227 
-0.048492 0.032564 0.049664 0.0092177 0.037004 0.26192 0.009711 0.043416 
-0.043559 0.021713 0.025166 -0.0083746 -0.0067304 0.0052718 -0.056383 0.056898 
-0.038462 0.016288 0.055089 0.010862 -0.025802 -0.15816 -0.1182 0.056076 
-0.025967 0.053938 0.042758 0.096193 -0.059672 -0.25088 -0.028926 0.087972 
-0.069701 0.0036276 0.044896 0.062488 -0.034681 -0.31649 0.051801 0.050486 
0.018589 0.01267 0.044073 0.14535 0.0026412 -0.057534 0.15818 0.038648 
0.13993 0.067091 0.086492 0.12431 0.025495 0.18202 0.12497 0.045553 
0.28626 0.13056 0.12283 0.11872 0.042429 0.096521 0.12612 0.027632 
0.27853 0.10967 0.076627 0.066269 0.075312 0.051143 0.056076 0.0028056 
0.065612 0.047197 0.025001 0.050814 0.053445 -0.0013048 0.0087245 -0.030899 
-0.17706 0.027632 0.015959 0.061008 -0.0096899 -0.027282 -0.035832 -0.019061 
-0.14418 0.030098 0.015959 0.015794 0.037826 0.081231 -0.00097594 0.029769 
0.093233 0.13006 0.0085601 0.010862 0.056569 0.29398 0.043251 0.10359 
0.25222 0.14305 0.0026412 0.0090533 0.011191 0.38803 0.10787 0.12003 
0.20651 0.13795 0.02533 0.0060938 -0.0055795 0.463 0.058377 0.073832 
0.15916 0.079422 0.033387 0.029276 -0.0019624 0.41581 0.025824 0.046211 
0.18366 0.068736 0.031907 0.02829 -0.00097594 0.14453 0.078272 0.074161 
0.14091 0.020398 0.088136 0.054103 -0.0095255 -0.29758 0.085999 0.093726 
-0.053917 -0.034023 0.086163 0.047855 0.013492 -0.70549 0.066269 0.0786 
-0.17394 -0.10341 0.033222 0.033058 0.014479 -0.88585 -0.01676 0.027139 
-0.13086 -0.064275 0.01711 0.064954 0.0092177 -0.44473 -0.062631 -0.051122 
-0.021856 -0.00081153 0.015301 0.05624 0.014479 0.15505 -0.011992 -0.062302 
0.062323 0.020891 0.055254 0.097015 0.0092177 0.31223 0.017438 -0.0064016 
0.19747 0.099316 0.10803 0.099645 0.0056006 0.057391 0.013328 0.072681 
0.25814 0.1248 0.1026 0.10951 0.03388 -0.12396 0.087808 0.086492 
0.20208 0.11691 0.072846 0.088465 0.01974 -0.16802 0.087314 0.083697 
0.12842 0.064625 0.038155 0.039963 0.01004 0.068736 0.050321 0.075476 
0.088958 0.076134 0.016781 0.038812 0.012013 0.3678 0.054596 0.094713 
0.076956 0.062981 0.07301 0.014479 -0.024652 0.46119 0.085341 0.089287 
0.086328 0.07597 0.06035 0.024015 -0.011827 0.44557 0.071695 0.067585 
0.06742 0.028454 0.027139 0.039141 0.063639 0.35761 0.062817 0.03651 
-0.0032777 0.014808 0.0019835 0.043745 0.06331 0.051308 -0.0080457 -0.010348 
-0.023501 -0.0044286 0.0075736 0.056569 0.011848 -0.17114 -0.09091 -0.051944 
-0.041422 0.011191 0.076463 0.033058 0.013657 -0.16013 -0.077757 -0.018075 
0.0324 0.033387 0.10441 0.062817 0.026481 -0.0090322 -0.035338 -0.012649 
0.038319 0.04095 0.052952 0.072517 0.052787 -0.039284 -0.0096899 -0.020212 
0.033715 0.043416 0.0054362 0.073175 0.079258 -0.11278 -0.011663 -0.00031829 
0.025988 0.023193 -0.036325 0.076956 0.066269 -0.14303 0.0016547 0.011026 
0.01826 0.027796 -0.038791 0.038812 0.046046 -0.076606 0.0016547 0.031085 
0.031249 0.0052718 -0.0077169 0.046211 0.050321 -0.0098543 0.050486 0.051801 
0.087808 0.041114 0.0047785 0.036346 0.068571 0.083533 0.048019 0.051801 
0.10425 0.03388 0.026646 0.047526 0.12546 0.12398 0.082382 0.11559 
0.15538 0.046375 0.036839 0.053445 0.12743 0.13532 0.036346 0.10425 
0.13072 0.051308 -0.0049219 -0.0013048 0.11428 0.12151 0.024015 0.018096 
0.017274 0.094384 -0.015116 0.020891 0.10704 0.048184 0.049335 -0.052931 
-0.065097 0.047033 -0.053424 -0.01528 0.037661 -0.055068 0.031578 -0.03205 
-0.080552 -0.013143 -0.098473 -0.081539 -0.031721 -0.11015 -0.0004827 0.05476 
-0.21932 -0.063618 -0.088937 -0.069043 -0.12281 -0.096336 -0.074633 0.048019 
-0.36565 -0.083347 -0.045039 -0.054904 -0.145 -0.020541 -0.16259 -0.087129 
-0.31846 -0.069372 0.0046141 -0.014787 -0.077922 0.0093821 -0.14171 -0.16802 
-0.095021 -0.038956 0.015137 -0.012485 0.042923 0.11872 0.023028 -0.031064 
0.12349 0.024673 0.016945 0.0026412 0.12825 0.13483 0.15933 0.14124 
0.23923 0.077121 0.045224 0.056404 0.16229 0.10524 0.10113 0.15949 
0.2565 0.12135 0.038812 0.042594 0.17347 0.43653 0.032729 0.1276 
0.21901 0.089945 0.028619 0.036182 0.12349 0.69285 0.091425 0.078929 
0.036675 0.015959 -0.0078813 -0.025145 0.041607 0.38622 0.064625 -0.017582 
-0.12166 -0.014787 -0.017746 -0.028926 -0.062631 -0.15388 0.08419 -0.05589 
-0.20173 -0.014951 -0.032379 -0.060823 -0.1501 -0.78983 0.060022 -0.055397 
-0.1501 -0.016595 -0.035503 -0.075455 -0.13547 -0.88503 0.1077 -0.014787 
-0.028269 0.057227 -0.0087034 0.0016547 0.020562 -0.42187 0.14634 0.068078 
0.055582 0.060844 0.018754 0.009711 0.14667 0.11691 0.10721 0.081889 
0.053116 0.074819 0.020891 0.01826 0.18711 0.44574 -0.0029489 0.024837 
0.061008 0.092082 0.016945 0.017438 0.17495 0.48092 -0.084663 0.030592 
0.07597 0.086492 0.026317 -0.011005 0.12184 0.30977 -0.054082 -0.0039354 
0.048513 0.085506 0.057555 0.0072447 0.10376 0.1031 0.035688 0.04917 
0.016781 0.081067 0.11658 -0.001798 0.038319 -0.084169 0.055254 0.18251 
0.0079024 0.085012 0.13598 0.024179 0.028783 -0.046354 -0.042901 0.071695 
-0.0057439 0.049992 0.036346 -0.042079 0.050486 0.08008 -0.20945 -0.070194 
-0.010019 0.080244 -0.045203 -0.040435 0.089616 0.11576 -0.2231 -0.068714 
-0.03616 0.034044 -0.083347 -0.044546 0.058377 -0.073482 -0.083183 0.0041209 
-0.019555 0.037661 -0.088773 -0.08828 0.0080668 -0.29873 -0.027611 0.068242 
0.018096 0.0037921 -0.047669 -0.018404 -0.03616 -0.41086 -0.0039354 0.076299 
0.020069 0.06479 0.012177 0.0041209 -0.006566 -0.33967 0.025495 0.038812 
-0.008539 0.043087 0.054432 0.043909 0.03388 -0.16588 0.058049 0.022864 
-0.046847 0.044731 0.086328 0.076134 0.08304 0.07301 0.062981 -0.094199 
-0.030406 0.039141 0.048841 0.058049 0.071859 0.27968 0.12809 -0.25878 
0.0019835 0.055747 0.025988 0.079258 0.10441 0.51594 0.26768 -0.23609 
0.049992 0.063145 0.050979 0.055254 0.12513 0.5771 0.33755 -0.047176 
0.10376 0.072188 0.10244 0.091589 0.13121 0.38129 0.27771 0.13713 
0.14091 0.070873 0.090931 0.062488 0.089287 0.037004 0.18448 0.18119 
0.1396 0.037661 0.011848 0.066105 0.030756 -0.24398 0.075148 0.19714 
0.14996 0.047033 -0.034516 0.086985 0.0062583 -0.29182 -0.02235 0.27672 
0.14733 0.012835 -0.037969 0.019083 0.016616 -0.17443 -0.17542 0.26061 
0.08567 0.012835 0.044402 0.072353 0.013821 -0.073318 -0.34378 0.22016 
0.0088889 -0.021856 0.092904 0.063803 0.045718 0.017767 -0.31205 0.056569 
-0.048492 0.038648 0.092411 0.025001 0.012999 0.088794 -0.12889 -0.19942 
0.023193 0.034044 0.055418 0.011684 0.039634 0.15423 0.076134 -0.1524 
0.094877 0.1026 0.073339 -0.014129 0.013986 0.13878 0.12283 0.010862 
0.079094 0.097837 0.06183 0.0088889 0.0018191 -0.028269 0.1197 0.10063 
0.03092 0.095371 0.055089 0.011191 -0.014293 -0.12166 0.061008 0.01974 
-0.0027845 0.078929 0.061501 0.052294 -0.0019624 -0.097322 0.069229 -0.066906 
0.052294 0.041772 0.069064 0.07597 0.048677 0.014643 0.062652 -0.056877 
0.12233 0.081724 0.10622 0.091425 0.090109 0.12464 0.069558 -0.05441 
0.10425 0.081889 0.13861 0.17265 0.083862 0.1105 0.015959 -0.059507 
0.042594 0.11214 0.15472 0.21671 0.11592 0.11346 0.041936 -0.059178 
0.035031 0.083533 0.11576 0.22887 0.10047 0.10507 0.080409 0.01004 
0.027632 0.026974 -0.020048 0.12365 0.022535 0.08304 0.12398 0.075148 
0.026974 -0.0098543 0.00066819 0.062323 -0.030242 0.11411 0.12217 0.10392 
0.049664 0.023357 0.17215 0.076956 -0.029255 0.01974 0.09685 0.092082 
0.071202 0.053938 0.23594 0.047526 0.00083261 -0.06296 0.0014903 0.056076 
0.041607 0.067585 0.12875 0.035524 -0.04471 -0.18298 -0.13777 -0.033201 
0.027139 0.043251 0.058542 0.0021479 -0.069043 -0.23642 -0.18117 -0.042901 
0.084519 0.08419 0.054432 0.028783 0.025166 0.036839 -0.05441 0.053609 
0.087972 0.075805 0.10326 0.074819 0.072024 0.21375 0.099645 0.068407 
0.035688 0.035195 0.1179 0.062159 0.047855 0.1562 0.10113 0.052787 
0.0072447 0.027303 0.098494 0.096028 0.04095 0.12414 0.066927 0.027468 
0.013164 0.0070803 0.042758 0.051801 -0.039613 -0.01676 -0.027447 -0.012978 
0.032893 0.0079024 -0.034023 0.027796 -0.13875 -0.16161 -0.017088 0.033387 
0.065776 0.0028056 -0.089266 0.043416 -0.13744 -0.10209 0.024673 0.091753 
0.05065 0.012342 -0.084005 0.084848 -0.11722 -0.020212 0.10441 0.10376 
0.042923 -0.0073881 0.0021479 0.17133 -0.037147 0.070051 0.060022 0.04506 
0.077614 0.055089 0.10441 0.2001 0.11395 0.25107 0.093069 0.028125 
0.085506 0.059035 0.12036 0.15818 0.13993 0.293 0.10491 -0.054246 
0.068736 0.053774 0.068078 0.061008 0.075148 0.19764 0.10803 -0.069372 
0.052294 0.012835 0.067585 -0.017253 0.012177 0.051965 0.15423 0.027468 
0.012177 0.020727 0.024673 -0.064111 -0.082361 -0.12873 0.1077 0.10376 
-0.1016 -0.024158 -0.02087 -0.11771 -0.17114 -0.27357 -0.0050863 0.059528 
-0.24151 -0.011005 0.0079024 -0.060823 -0.17723 -0.18183 -0.061809 -0.012156 
-0.21192 0.025659 0.051308 -0.04619 -0.095514 -0.021199 -0.0047575 0.058542 
-0.054246 0.059693 0.081231 -0.047341 -0.0138 0.045882 0.040785 0.14913 
0.059693 0.056898 0.073668 -0.043066 0.0037921 -0.026953 0.013657 0.085012 
0.093069 0.0046141 0.047362 -0.080552 -0.026131 -0.025638 -0.071674 0.0036276 
0.10606 0.048513 0.01826 -0.059014 0.021878 0.093069 -0.02498 -0.043559 
0.12069 0.035524 0.015959 -0.063289 0.11773 0.10408 -0.034023 -0.011498 
0.089452 0.041936 -0.019884 -0.045696 0.13319 -0.099624 0.034373 0.025988 
0.074654 -0.01232 -0.068221 -0.046354 -0.038791 -0.3834 0.027303 0.0592 
0.036675 0.011684 -0.075127 -0.038462 -0.18956 -0.1986 0.12661 0.071037 
-0.054246 0.037497 -0.040764 0.054267 -0.21258 0.41105 0.20372 0.11658 
-0.026296 0.091753 -0.026296 0.052952 -0.31057 0.6044 0.20306 0.17084 
0.0080668 0.050486 -0.061151 0.043745 -0.32504 0.35778 0.097015 0.14831 
0.047362 0.022864 -0.1085 -0.027282 -0.19614 0.014315 0.0014903 0.099645 
0.036346 0.01826 -0.11097 -0.037311 -0.046354 -0.16095 -0.00015387 0.023193 
0.042265 0.064132 -0.056219 -0.010841 0.018754 -0.2282 -0.050793 -0.071509 
0.0080668 0.12398 0.034702 -0.003771 0.057555 -0.15651 -0.05441 -0.11722 
-0.015609 0.1026 0.051308 0.0088889 0.077449 -0.01232 -0.01528 -0.061645 
0.017274 0.077943 0.015465 -0.022679 0.088136 0.14765 0.039799 0.045224 
0.048348 0.00050378 -0.023336 -0.042573 0.11378 0.17824 0.031742 0.068571 
0.052623 -0.022021 -0.065262 -0.05326 0.051308 0.052952 0.0051074 0.0034632 
0.047362 -0.028104 -0.0771 -0.077428 -0.059343 -0.11623 -0.025145 -0.036983 
0.099974 0.00099702 -0.060494 -0.030077 -0.077593 -0.15388 0.019576 -0.018404 
0.1442 0.00066819 -0.055068 -0.055397 -0.067564 -0.19153 0.0047785 0.0324 
0.18843 0.071037 -0.040764 -0.042573 -0.038462 -0.21932 0.03536 0.069722 
0.053774 0.085999 0.0044497 0.0098754 0.033551 -0.2744 0.068078 0.096357 
-0.028269 0.095535 0.0074092 -0.012156 0.065118 -0.28163 0.095699 0.11526 
-0.15405 0.015794 -0.035996 -0.025145 0.0090533 -0.26141 -0.035338 0.069393 
-0.18331 0.024179 -0.047341 -0.072003 -0.0138 -0.16375 -0.14862 0.044567 
-0.23888 0.019905 -0.015773 -0.025309 0.024508 -0.0004827 -0.14237 0.085012 
-0.14336 0.012999 0.0031344 0.0039565 0.088465 0.27458 -0.00081153 0.058049 
0.023686 0.027961 -0.0078813 -0.0049219 0.15686 0.69499 0.14798 -0.037805 
0.21424 0.10589 0.036839 0.061995 0.1761 0.96233 0.27573 -0.065591 
0.25337 0.19435 0.073175 0.070544 0.1613 0.82241 0.27771 -0.020541 
0.10556 0.17067 0.047033 0.071037 0.18728 0.38129 0.13319 -0.017253 
-0.022514 0.13056 0.039799 0.026974 0.305 -0.022021 -0.001798 -0.011663 
0.029276 0.074983 0.064461 0.051308 0.47829 -0.13629 -0.077264 0.013986 
0.11559 0.11362 0.088794 0.12595 0.46547 -0.16851 -0.027282 0.021713 
0.16229 0.081395 0.090603 0.066105 0.2537 -0.26996 -0.031886 0.048513 
0.159 0.060186 0.029605 -0.0050863 0.03388 -0.34065 -0.013143 0.054596 
0.10885 -0.03205 -0.015444 -0.082032 -0.064604 -0.30859 -0.033365 0.03092 
0.014808 -0.033694 0.01563 -0.032872 -0.056712 -0.21521 -0.033694 0.032071 
-0.19433 -0.020706 0.073668 0.08304 0.079258 -0.084991 -0.11738 -0.054575 
-0.33046 -0.014129 0.097179 0.12085 0.21901 -0.058028 -0.18841 -0.18232 
-0.1866 -0.031721 0.046046 0.13335 0.30763 -0.034352 -0.19498 -0.17904 
0.0085601 -0.022514 0.0069159 0.047526 0.26242 -0.07562 -0.133 -0.093541 
0.13516 0.027961 0.013657 0.025001 0.25419 -0.09798 -0.041422 0.007738 
0.19303 0.10211 0.073668 0.035031 0.29628 0.048019 0.068571 0.018918 
0.22164 0.171 0.1294 0.070215 0.36008 0.23052 0.19172 0.13976 
0.28905 0.15489 0.16936 0.12529 0.34232 0.3221 0.21539 0.23463 
0.26735 0.15949 0.16804 0.12233 0.27754 0.28067 0.14239 0.16804 
0.12464 0.098659 0.14058 0.159 0.25551 0.13565 0.018425 0.046704 
0.13434 0.12316 0.095206 0.12546 0.24088 0.02122 -0.014129 0.026646 
0.1151 0.09685 0.055747 0.087808 0.25699 -0.019555 0.029605 0.1008 
0.01711 0.054432 0.0056006 0.071859 0.25452 0.023028 0.11576 0.17511 
-0.033201 0.018589 0.00066819 0.050486 0.22082 0.032236 0.099645 0.12431 
-0.06 0.018096 0.03388 0.051636 0.18448 0.016781 0.077121 -0.011334 
-0.20912 -0.079566 0.026152 0.023522 0.171 0.020069 0.015137 -0.17164 
-0.38044 -0.096172 0.014808 -0.012814 0.17149 0.077614 0.037826 -0.23444 
-0.21866 -0.029748 0.062488 0.0052718 0.15768 0.16163 0.03799 -0.090746 
-0.03205 0.010862 0.069064 0.00050378 0.1202 0.20536 0.026317 0.01563 
-0.025474 0.041607 0.098823 0.050157 0.075641 0.097015 -0.027447 0.065776 
-0.071016 0.014972 0.081395 0.038812 0.04917 -0.045861 -0.066577 0.072846 
0.026317 0.0052718 0.070873 0.056898 0.045389 -0.20057 -0.073811 0.10984 
0.17906 0.00066819 0.056898 0.069229 0.042594 -0.2836 -0.11048 0.096028 
0.24088 -0.004593 0.041772 0.082875 0.049664 -0.31566 -0.077922 0.078107 
0.20734 -0.05326 0.013657 0.093398 0.036346 -0.14139 -0.044052 0.082217 
0.11165 0.015137 0.023851 0.11839 0.054103 0.17051 0.051636 0.14667 
-0.0057439 0.11526 0.084519 0.14058 0.053116 0.31585 0.15357 0.15456 
-0.0054151 0.20454 0.1174 0.13516 0.012506 0.15209 0.17676 0.10178 
0.024179 0.17117 0.087972 0.090931 -0.032215 -0.12281 0.11543 0.10376 
0.11576 0.18185 0.056898 0.079422 -0.070523 -0.34838 0.10852 0.12497 
0.20208 0.13335 0.043745 0.028783 -0.089759 -0.18545 0.11395 0.0095465 
0.26373 0.085012 0.038155 0.06479 -0.081703 0.31815 0.14881 -0.13234 
0.24071 0.095535 0.052787 0.044896 -0.065755 0.57316 0.099645 -0.11327 
0.16936 0.081395 0.06479 0.053609 -0.095021 0.28116 0.053938 -0.13645 
0.023193 0.042923 0.029441 0.015959 -0.21619 -0.061316 -0.08384 -0.21619 
-0.1815 -0.081868 -0.021363 -0.05737 -0.30317 -0.41053 -0.19712 -0.22557 
-0.22507 -0.11837 -0.026131 0.011191 -0.2476 -0.65222 -0.21406 -0.077428 
-0.13333 -0.10078 -0.031228 -0.0013048 -0.19745 -0.74528 -0.21422 -0.001798 
-0.044052 -0.049149 0.00050378 0.0064227 -0.18117 -0.62953 -0.19614 0.015794 
-0.020048 -0.045368 0.041114 -0.00064712 -0.10341 -0.29741 0.040456 0.13467 
-0.048985 0.00083261 0.053609 0.014479 -0.049642 0.53551 0.38112 0.32243 
0.064954 0.061172 0.06742 0.039799 -0.042244 1.4107 0.66671 0.47698 
0.21638 0.15259 0.069722 0.024179 -0.081539 1.4621 0.72968 0.47517 
0.24137 0.17232 0.02122 0.024508 -0.20962 0.56477 0.44146 0.25436 
-0.060329 -0.036325 -0.04323 -0.042737 -0.34674 -0.47728 -0.026131 -0.069043 
-0.24776 -0.1016 -0.071674 -0.067564 -0.35167 -0.84146 -0.29692 -0.194 
-0.16539 -0.035996 0.032729 0.010204 -0.24546 -0.56228 -0.27949 -0.068714 
-0.0047575 0.077943 0.11921 0.004943 -0.13974 -0.25302 -0.41481 0.081067 
0.14946 0.13582 0.098166 0.098166 -0.11919 0.019576 -0.36597 -0.086471 
0.26176 0.16459 0.10672 0.10688 -0.11048 0.1567 -0.16375 -0.3081 
0.27919 0.16097 0.07038 0.12316 -0.088773 0.24499 0.059364 -0.24941 
0.2685 0.14321 0.014808 0.10606 -0.10094 0.30089 0.15966 -0.047012 
0.31618 0.097015 -0.027775 0.024508 -0.13004 0.30089 0.22953 0.12053 
0.38096 0.10211 -0.048492 -0.018897 -0.15816 0.12069 0.22756 0.16656 
0.20832 0.0052718 -0.058685 -0.060165 -0.20271 -0.20205 0.1174 0.073997 
-0.15224 0.00033937 -0.051122 -0.021692 -0.1524 -0.34641 0.061337 0.03388 
-0.39919 -0.01676 -0.019061 0.026152 -0.12626 -0.16786 -0.018733 0.012835 
-0.2716 -0.023501 -0.020212 0.017603 -0.11557 0.058871 -0.10784 0.040621 
-0.027282 -0.06296 -0.029255 0.016452 -0.11903 0.15982 -0.13366 0.050814 
-0.092719 -0.099789 -0.029091 -0.033037 -0.10554 0.088958 -0.067564 -0.023501 
-0.34082 -0.097158 0.0090533 -0.012649 -0.058521 0.064132 0.027632 -0.029584 
-0.58234 -0.086142 0.020562 -0.016266 -0.019884 0.055582 0.18563 0.048348 
-0.37222 -0.053095 0.010369 -0.0067304 -0.027775 0.14091 0.2297 0.10014 
-0.004593 0.0082312 0.027961 0.012835 -0.062467 0.1151 0.22723 0.051143 
0.22624 0.095042 0.051965 -0.0059084 -0.10604 0.026317 0.10195 -0.012649 
0.3581 0.11872 0.067913 0.024508 -0.07562 -0.059836 0.0028056 -0.038298 
0.37372 0.14058 0.072353 0.018918 -0.045696 -0.098309 -0.085156 -0.13547 
0.28757 0.089123 0.043087 0.010369 -0.05589 -0.091404 -0.15355 -0.11196 
0.22213 0.089123 0.00297 0.013821 -0.058028 -0.043559 -0.19975 0.029605 
0.10935 0.053609 -0.017746 -0.021856 -0.049149 0.037826 -0.15766 0.084355 
0.045882 0.078436 0.020233 0.019411 0.052623 0.26537 -0.070194 0.13861 
-0.0049219 0.064954 0.030756 0.022864 0.14535 0.52383 0.057227 0.27409 
0.0082312 0.079916 0.03799 0.0421 0.11543 0.45823 0.097672 0.27376 
-0.059014 0.033715 0.014643 0.027632 -0.012156 0.063474 -0.017746 -0.019061 
-0.089266 0.0016547 -0.0080457 -0.014951 -0.08828 -0.16851 -0.03912 -0.19663 
-0.056219 0.0080668 -0.0070593 0.03799 -0.070194 -0.26946 0.015794 -0.083183 
0.0051074 0.050979 0.020891 0.049006 0.098166 -0.2305 0.12151 0.10819 
0.013164 0.095535 0.020562 0.06594 0.16607 -0.13432 0.18383 0.18547 
0.03388 0.08863 0.022864 0.043416 0.15883 0.016616 0.23003 0.14157 
0.05624 0.084684 0.01563 0.00033937 0.093069 0.13927 0.14469 0.086328 
0.090931 0.055418 0.00050378 0.0056006 0.027961 0.22559 0.1294 0.063968 
0.10047 0.072681 0.031085 -0.055068 0.0019835 0.24564 0.098494 0.089616 
0.051143 -0.042244 0.011355 -0.068221 0.039634 0.24581 0.11362 0.072846 
-0.11459 -0.003771 0.013492 -0.024816 0.099645 0.14108 0.064132 -0.011827 
-0.092226 0.016616 0.04095 -0.014951 0.11839 -0.078908 -0.03501 -0.076442 
-0.16786 -0.006566 0.045882 0.046046 0.044567 -0.16786 -0.15766 -0.10538 
-0.32306 -0.054082 1.0539e-005 0.018425 0.030263 -0.15355 -0.25467 -0.16407 
-0.30268 -0.011827 0.017438 0.038812 0.099645 -0.13168 -0.28854 -0.23625 
0.038648 0.10343 0.071202 0.053281 0.1733 -0.028926 -0.17887 -0.096829 
0.28609 0.18843 0.099645 0.062817 0.2024 0.055747 0.054596 0.065118 
0.30664 0.20355 0.11033 0.067585 0.24778 0.15127 0.17971 0.17429 
0.21934 0.16031 0.091918 0.029112 0.19353 0.1008 0.23249 0.22361 
0.13154 0.064954 0.035524 -0.014293 0.056733 -0.075949 0.12431 0.20783 
0.098001 0.01267 0.004943 -0.068221 1.0539e-005 -0.16194 -0.038133 0.12036 
0.10359 0.035688 0.017767 -0.029748 0.076134 -0.059507 -0.099624 0.09833 
0.15933 0.096028 0.065776 0.046375 0.19665 0.19961 0.12694 0.084519 
0.15982 0.13351 0.1008 0.096521 0.24532 0.38951 0.22608 0.01267 
0.089452 0.08304 0.065118 0.093891 0.18152 0.2759 0.16146 -0.044546 
-0.0021268 0.038648 0.039634 0.022864 0.04654 0.068571 0.004943 -0.054904 
-0.038133 -0.0021268 0.01711 0.033058 -0.018404 -0.080881 -0.071838 -0.025145 
-0.0077169 -0.010841 0.0014903 0.022042 0.017932 -0.16292 -0.072003 0.015301 
0.066763 0.033715 0.053445 0.014972 0.057555 -0.15684 -0.014787 0.009711 
0.068571 0.11099 0.085012 0.019247 0.11329 -0.060329 0.12414 0.032564 
0.049335 0.092904 0.073668 0.005765 0.093562 0.0042853 0.094055 0.057391 
0.009711 0.019411 0.049992 0.023193 0.085341 0.024015 -0.010183 0.037497 
-0.0075525 0.0042853 0.025001 0.02533 0.10195 0.023522 0.012342 0.017767 
-0.058192 -0.062302 0.010697 0.0095465 0.11066 0.01826 0.046211 0.056076 
-0.0016336 -0.012814 0.016945 0.041443 0.088958 -0.010841 0.0026412 0.13187 
0.10836 0.03388 0.020069 0.038648 0.081067 -0.051944 -0.028926 0.20487 
0.13302 0.058542 0.034866 0.052459 0.076956 -0.035338 -0.018404 0.17462 
0.02829 0.053116 0.036182 0.013986 0.086985 -0.011498 0.053116 0.043251 
0.0062583 0.061172 0.049992 0.055418 0.098659 0.00083261 0.053609 -0.069701 
0.04095 0.055582 0.077614 0.064954 0.069886 0.0064227 0.049335 -0.13267 
0.079422 0.094713 0.079916 0.05065 0.061008 0.00297 0.022371 -0.1085 
0.066434 0.059528 0.05772 0.053116 0.025495 -0.048985 0.011355 -0.067564 
0.036839 0.012177 0.0080668 -0.0055795 -0.013307 -0.093376 -0.060165 -0.13991 
-0.0088678 -0.0087034 -0.023665 0.007738 -0.0059084 -0.12215 -0.071345 -0.22737 
0.00297 -0.016102 -0.0078813 0.02829 0.040785 -0.11475 -0.078086 -0.072989 
0.0034632 0.019411 0.012999 0.047691 0.050486 -0.12478 -0.075949 0.18037 
0.030263 0.034373 0.038319 0.098494 0.056569 -0.081374 -0.033694 0.15555 
0.045553 0.077121 0.071695 0.093069 0.042594 -0.043559 0.0082312 0.031085 
0.082217 0.079258 0.068078 0.093562 0.025824 -0.054739 0.042265 -0.018897 
0.045553 0.076134 0.033551 0.045882 0.032729 -0.11935 0.050157 0.0067515 
0.012013 0.017932 0.021384 0.010533 0.059528 0.025001 0.13713 0.1003 
0.0011614 0.017932 -0.0087034 0.0023123 0.0421 0.052952 0.12612 0.064296 
0.026152 -0.02498 -0.017582 -0.024652 0.024508 -0.027611 0.10918 0.028783 
0.0090533 0.012835 0.0088889 0.019905 0.082711 -0.10801 0.09126 0.057884 
-0.0019624 0.0042853 0.032564 0.079258 0.2024 0.009711 0.10507 0.14782 
-0.0054151 0.039141 0.038155 0.082875 0.16508 0.028125 0.063803 0.17445 
0.094548 0.043251 0.035853 0.075148 0.049335 -0.121 0.063145 0.057391 
0.23266 0.077121 0.031578 0.054267 -0.054575 -0.1917 -0.02498 -0.024323 
0.28346 0.079916 0.0092177 0.08304 -0.087951 -0.056219 -0.085156 -0.070359 
0.11296 0.055911 0.03388 0.053938 -0.05589 0.23118 -0.17591 -0.10752 
-0.089431 -0.0050863 0.024015 0.048513 0.030427 0.50049 -0.15421 -0.038956 
-0.21784 -0.10357 -0.037147 -0.047012 0.01415 0.34807 -0.095678 0.086328 
-0.12659 -0.050136 -0.031886 -0.069536 -0.13777 -0.17049 0.064954 0.20175 
0.089452 0.029112 -0.0406 -0.046847 -0.21143 -0.47942 0.20388 0.21605 
0.27524 0.13894 0.028947 1.0539e-005 -0.10752 -0.10637 0.26554 0.27787 
0.25091 0.11181 0.061666 0.088465 0.15604 0.66605 0.22328 0.24236 
0.11872 0.10145 0.090438 0.14174 0.41927 1.0948 0.22049 0.1174 
0.018589 0.035853 0.057227 0.14782 0.45922 1.0103 0.29497 -0.097158 
-0.077922 0.021056 0.037004 0.1373 0.28708 0.56 0.22838 -0.35381 
-0.25993 -0.052766 -0.0014692 0.050814 0.027303 -0.096665 -0.0044286 -0.46544 
-0.37748 -0.014129 0.013821 0.027303 -0.14632 -0.51937 -0.18923 -0.36318 
-0.24973 0.021549 0.029276 -0.0036066 -0.18726 -0.64038 -0.23263 -0.17558 
-0.0016336 0.06594 0.048677 -0.0138 -0.13103 -0.46331 -0.22672 0.070708 
0.15851 0.03947 0.023686 0.0011614 -0.069208 -0.31747 -0.057699 0.23348 
0.10672 0.044896 0.029934 0.0098754 -0.013307 -0.19794 0.031578 0.27327 
0.075805 0.078436 0.0067515 0.019905 0.028619 -0.12297 0.080573 0.29168 
0.081724 0.094384 -0.016102 -0.0059084 0.088958 0.064625 0.033058 0.30598 
0.14864 0.12743 -0.020212 0.011191 0.1026 0.22937 0.10293 0.24482 
0.15571 0.13253 0.015465 0.01974 0.066927 0.3535 0.17544 0.12201 
0.081889 0.11937 0.019411 0.01826 -0.033859 0.31256 0.12776 0.016616 
-0.023007 0.049664 0.0060938 0.016781 -0.10768 0.26439 0.068242 -0.025474 
-0.099295 0.023028 0.0051074 -0.038298 -0.049807 0.23644 0.01415 -0.097322 
-0.10357 -0.038791 0.056569 -0.00097594 0.043087 0.26357 -0.04882 -0.21175 
-0.052766 -0.075949 0.088136 0.0079024 0.098166 0.19024 -0.033859 -0.2425 
0.019411 -0.046847 0.097344 0.044896 0.1641 0.13976 0.096357 -0.12182 
0.046375 0.047197 0.096193 0.082217 0.15259 0.058049 0.1105 0.044896 
0.01415 0.071695 0.048677 0.046211 0.12151 0.078765 0.032564 0.1465 
0.0065871 0.073504 0.053609 0.073175 0.15242 0.14387 -0.078415 0.18498 
0.083862 0.11691 0.048677 0.069229 0.11313 0.10063 -0.043724 0.16969 
0.077285 0.10737 0.052623 0.08156 -0.0771 -0.033694 -0.084169 0.069722 
0.028619 0.099974 0.068242 0.080902 -0.17262 -0.14106 -0.091897 -0.00015387 
-0.03912 0.057884 0.044238 0.041607 -0.15733 -0.21932 -0.10653 -0.10719 
-0.087622 0.035524 0.054267 0.039634 -0.12757 -0.33802 -0.080717 -0.13974 
-0.038462 0.015959 0.037826 -0.013636 -0.12116 -0.63841 -0.016102 -0.1644 
-0.0049219 0.026646 0.046211 -0.010841 -0.12905 -0.71075 0.01152 -0.1039 
0.028783 0.040785 0.015137 0.0044497 -0.089102 -0.20304 0.0044497 0.011848 
0.0074092 0.063803 0.012999 0.022864 0.077285 0.41006 -0.066413 0.091425 
0.029605 0.038319 0.0082312 0.06183 0.15292 0.66589 -0.031721 0.069064 
0.032071 0.059364 0.018754 0.0028056 0.10047 0.56971 0.089452 0.097015 
0.079258 0.07449 0.041607 0.031742 0.03947 0.18317 0.15768 0.16377 
0.077943 0.066105 0.026317 0.023357 0.019905 -0.063453 0.24038 0.19681 
0.11822 0.016945 0.0085601 -0.018239 0.073832 0.036675 0.32407 0.075312 
0.14371 0.020562 0.012999 0.033387 0.10819 0.45609 0.29941 -0.016266 
0.056076 0.055089 0.077778 0.04917 0.062488 0.439 0.24334 0.089123 
-0.05326 0.03388 0.083533 0.059693 -0.062796 -0.057863 0.085835 0.13105 
-0.043559 0.016781 0.044896 0.016616 -0.14352 -0.68083 -0.1016 0.018425 
0.047197 -0.022021 0.012013 -0.023172 -0.12692 -0.8505 -0.23642 -0.16572 
0.15456 -0.014293 -0.022185 0.012835 -0.09091 -0.54042 -0.12823 -0.11541 
0.18843 -0.066741 -0.065591 -0.045532 -0.052437 -0.081539 -0.081045 0.025824 
0.15226 -0.010183 -0.035667 0.0051074 0.010369 0.064625 -0.14171 0.11033 
-0.008539 0.082217 0.09685 0.077121 0.067913 -0.092883 -0.19433 0.044402 
0.049828 0.17725 0.13976 0.10392 0.015465 -0.29363 -0.098309 0.063639 
0.27409 0.16623 0.097672 0.050486 -0.058356 -0.24184 0.062488 0.13401 
0.24564 0.18711 0.10556 0.023028 -0.03616 -0.10061 0.098659 0.04917 
0.13976 0.15752 0.12431 0.0324 -0.003771 0.022535 0.053281 -0.1113 
0.11477 0.1465 0.11559 0.021384 0.05065 0.068407 0.038812 -0.14073 
-0.12494 0.05065 0.062981 0.021713 0.071695 0.17643 0.07038 -0.070359 
-0.53828 -0.076442 -0.0039354 0.0037921 0.087479 0.34692 0.025659 -0.00015387 
-0.59846 -0.14829 -0.058685 0.0070803 0.077943 0.49062 0.049335 0.068407 
-0.15668 -0.085485 -0.032708 0.040128 0.068407 0.3683 0.10688 0.15045 
0.14568 0.055911 0.0069159 0.058213 0.073504 0.09833 0.19221 0.16525 
0.057555 0.06594 0.039305 0.088794 0.037826 -0.081703 0.11707 0.16114 
0.054925 0.031907 -0.03501 0.019411 -0.054082 -0.049149 0.020727 0.12842 
0.15061 -0.020212 -0.06707 -0.016266 -0.089266 -0.039613 -0.024323 0.079916 
0.26866 0.030756 -0.043066 -0.025474 -0.082854 -0.092061 0.03799 0.064461 
0.30122 0.050979 -0.0026201 -0.038791 -0.037147 -0.25088 0.06331 0.054596 
0.25683 0.089945 0.019411 -0.018568 0.013821 -0.27012 0.057391 0.019905 
0.15883 0.10014 0.041607 -0.037969 0.060022 -0.23395 0.054596 -0.0083746 
0.089945 0.097508 0.053938 -0.021528 0.055089 -0.078744 0.029769 0.045718 
0.088794 0.071202 0.074983 0.013328 0.068736 0.2999 -0.029584 0.13335 
0.083862 0.086985 0.076299 0.054432 0.081724 0.53485 -0.15799 0.08978 
0.19698 0.047526 0.051143 0.090767 0.026974 0.3101 -0.21652 -0.028926 
0.26537 0.039963 0.0039565 0.00066819 -0.043559 -0.18726 -0.26338 -0.19646 
0.17084 -0.020541 -0.03353 -0.035996 -0.075455 -0.63561 -0.21126 -0.2328 
-0.039942 -0.1113 -0.064111 -0.068714 -0.038791 -0.56853 -0.047505 -0.092554 
-0.35907 -0.085649 -0.011663 -0.069701 0.091589 0.21243 0.2953 -0.082032 
-0.41497 0.0092177 0.050979 0.053445 0.29727 1.0787 0.57858 -0.10078 
-0.29709 0.17018 0.12661 0.080738 0.37734 1.1864 0.54981 -0.089431 
-0.2351 0.15818 0.090438 0.085177 0.26998 0.56576 0.21556 -0.015609 
-0.17772 0.14239 0.047691 0.064132 0.15982 -0.023501 0.0031344 0.09685 
-0.10423 0.083862 0.017932 0.021384 0.044731 -0.20649 -0.058192 0.17429 
0.071531 0.092411 0.0082312 0.049499 -0.058192 -0.29182 -0.056877 0.23282 
0.34479 0.07301 -0.012978 -0.0078813 -0.14599 -0.32405 -0.14303 0.31059 
0.61656 0.10096 0.020727 0.0021479 -0.1621 -0.31879 -0.1307 0.43242 
0.54373 0.095206 -0.009361 -0.020541 -0.11376 -0.21521 -0.13152 0.41137 
0.086492 0.02829 -0.0011404 0.016452 -0.03764 -0.15421 -0.12988 0.25123 
-0.38636 -0.035832 0.038812 0.033058 0.018096 -0.042408 -0.041422 -0.096829 
-0.43766 -0.097651 0.016288 0.0088889 0.061337 0.012342 0.0689 -0.45903 
-0.17131 -0.025145 0.013821 0.0039565 0.032729 0.13845 0.13269 -0.56459 
0.10162 0.05065 0.059857 0.018918 0.061008 0.19599 0.12053 -0.35003 
0.23282 0.087314 0.10556 0.055418 0.085341 0.17873 0.065776 -0.10489 
0.13647 -0.010676 0.090274 0.047526 0.0592 -0.043066 -0.025638 0.030263 
-0.11508 -0.076935 0.020727 0.0014903 -0.0036066 -0.23165 -0.070687 0.077449 
-0.34098 -0.1358 0.01152 0.029934 0.013821 -0.1039 -0.027775 0.17873 
-0.24283 -0.040435 0.017767 0.035853 0.097508 0.43291 0.10606 0.28921 
0.094384 0.093069 0.023522 0.085177 0.14535 0.6381 0.11757 0.24844 
0.26406 0.13467 0.01004 0.034044 0.093562 0.5411 0.094384 0.11296 
0.20553 0.11855 -0.0036066 0.032236 0.05624 0.27984 0.06183 -0.0055795 
0.16821 0.08978 -0.015444 0.053609 0.060679 0.0083956 0.080902 -0.010183 
0.15719 0.11115 0.024837 0.063639 0.070708 -0.15635 0.17001 0.029441 
0.14256 0.12217 0.036182 0.083533 0.053609 -0.17657 0.171 0.0324 
0.14848 0.1368 0.049828 0.058706 0.025495 -0.17821 0.086163 0.0044497 
0.084684 0.093726 0.0421 0.026481 0.0046141 -0.10949 0.040456 0.044402 
-0.028269 0.034537 0.043251 0.023357 0.015137 -0.053917 -0.011334 0.10376 
-0.13037 -0.085649 0.027303 0.02829 -0.0013048 -0.018897 -0.064604 0.095371 
-0.21882 -0.15552 0.021713 0.084684 0.0062583 0.0014903 -0.084334 0.0013258 
-0.16868 -0.15865 0.049664 0.03947 0.015137 0.025659 -0.063782 -0.018897 
0.028947 -0.052437 0.087479 0.061172 -0.00015387 -0.044874 0.037826 0.052623 
0.097837 0.04654 0.10967 0.089123 -0.034516 -0.039778 0.1003 0.064954 
0.079258 0.15982 0.093891 0.063145 -0.07266 -0.071509 0.092247 0.019083 
0.12283 0.16804 0.075148 0.058871 -0.057205 -0.033365 0.062817 0.010533 
0.18777 0.17412 0.071695 0.031907 0.00017495 -0.051451 -0.01676 -0.0039354 
0.15703 0.14437 0.068242 0.052623 0.020069 -0.052273 -0.14615 -0.027447 
0.069229 0.065447 0.037004 0.046046 0.08156 -0.047998 -0.14237 -0.039284 
-0.11097 -0.049807 -0.0021268 0.028947 0.14996 0.022042 -0.11459 -0.0064016 
-0.21767 -0.094527 -0.030077 0.023522 0.11017 0.05476 -0.041422 -0.025474 
-0.21784 -0.035832 -0.026296 -0.010348 0.088465 0.11822 0.044402 -0.057699 
-0.068714 0.018918 0.011355 0.033715 0.08156 0.1835 0.1442 0.038319 
0.027303 0.071531 0.032071 0.037004 -0.00015387 0.14075 0.14716 0.17922 
0.09981 0.034866 0.024673 0.032071 -0.11656 -0.053424 0.010369 0.16837 
0.20372 0.049828 0.064132 0.082711 -0.11146 -0.1307 -0.04471 0.055911 
0.28872 0.0592 0.083533 0.10507 -0.0075525 -0.019884 -0.027447 0.00033937 
0.25978 0.11411 0.10178 0.15176 0.087643 0.034044 -0.0059084 0.019576 
0.1294 0.10293 0.069229 0.097672 0.10951 0.05772 -0.0026201 0.050486 
0.034537 0.072517 0.03092 0.041443 0.052623 0.020233 0.0421 0.064461 
-0.10817 -0.021034 -0.011663 0.014315 0.011684 0.038483 0.091096 0.01152 
-0.21389 -0.068057 -0.033201 -0.011005 -0.018404 -0.023336 0.1636 0.0041209 
-0.15602 -0.049478 -0.0087034 -0.031064 -0.043724 -0.37715 0.025001 -0.023007 
0.09833 0.074161 0.048019 -0.013965 0.011848 -0.45377 -0.15651 -0.11196 
0.24614 0.22789 0.10556 0.06594 0.10869 0.025166 -0.21291 -0.12873 
0.23874 0.17281 0.069229 0.061501 0.091918 0.35301 -0.067235 -0.11343 
0.16508 0.076299 0.01974 0.032893 0.025166 0.24055 0.054925 -0.057534 
0.11526 0.032729 0.037004 0.06183 -0.073482 -0.098473 0.081395 0.03651 
0.057062 0.029112 0.024837 -0.0024557 -0.14287 -0.40675 0.010862 0.048348 
-0.0078813 -0.020212 0.01563 0.017932 -0.042901 -0.37979 -0.011005 0.0095465 
-0.077428 -0.00015387 0.013328 0.017767 0.080573 0.19287 0.11231 0.045389 
-0.089266 -0.029913 -0.0077169 -0.0068948 0.1197 0.57168 0.10113 0.15259 
-0.059343 0.0018191 -0.039284 -0.037969 0.018918 0.33722 0.15818 0.22559 
0.086657 -0.017746 -0.032215 -0.045532 -0.048492 -0.074304 0.30697 0.2731 
0.12546 0.093891 0.061172 0.030263 -0.021199 -0.26059 0.21769 0.20619 
0.063474 0.13779 0.11346 0.073668 0.011684 -0.21685 -0.10505 -0.013471 
-0.010183 0.1299 0.10014 0.094877 -0.014458 -0.15618 -0.22935 -0.26848 
0.072846 0.15604 0.091589 0.080409 0.070708 0.088301 -0.10341 -0.16227 
0.11757 0.12842 0.052952 0.050486 0.18925 0.51742 0.15094 0.023357 
0.055418 0.081889 0.017932 0.055089 0.20947 0.64813 0.23677 0.14815 
-0.016924 0.047362 0.0085601 0.010697 0.17149 0.62857 0.19698 0.16179 
0.097508 0.087643 0.0079024 0.02122 0.10589 0.4191 0.074654 0.10326 
0.20092 0.061172 -0.026131 -0.039942 -0.012978 0.047362 -0.028597 -0.095021 
0.068571 0.020562 -0.021856 -0.06296 -0.077264 -0.24365 -0.08121 -0.23494 
-0.072167 -0.025309 0.00066819 -0.01117 -0.055068 -0.33424 -0.069701 -0.12889 
-0.051287 0.035195 0.074983 0.007738 -0.036489 -0.29314 -0.0138 0.061995 
-0.14418 0.022864 0.039799 0.029605 -0.021856 -0.27505 0.022042 0.15456 
-0.22047 0.022371 0.030098 0.029441 -0.045039 -0.16687 0.049992 0.10556 
-0.084334 0.030263 0.019083 0.02122 -0.0019624 -0.063124 0.078929 0.059693 
0.15555 0.053281 0.029112 0.039799 0.035688 0.072517 0.16146 0.053609 
0.26669 0.072353 0.026481 0.013657 0.036839 0.10556 0.14371 0.048184 
0.18892 0.03536 0.037661 0.037004 0.031578 0.10655 0.13023 0.038648 
0.10507 0.02533 0.029112 0.00083261 0.017603 0.082875 0.10524 0.058049 
0.04095 -0.0059084 0.041114 0.022864 0.017932 0.10787 0.069722 0.046046 
0.0060938 0.026646 0.050814 0.015959 0.022864 0.14634 0.0011614 0.011684 
-0.11491 0.014315 0.043251 0.0041209 0.051308 0.10113 -0.031392 0.050979 
-0.33309 0.0227 0.035853 0.0041209 0.06331 0.070873 -0.19844 0.14864 
-0.28475 0.041607 0.017274 -0.065426 0.066763 0.08715 -0.23395 0.12842 
-0.023007 0.12118 0.019411 -0.0091966 0.10918 0.20865 -0.088608 0.086328 
0.19237 0.10096 0.019576 0.022371 0.12184 0.14469 0.084848 -0.0062372 
0.30763 0.12085 0.030756 0.047033 0.090438 -0.054246 0.16377 -0.031721 
0.3586 0.10507 0.035853 0.10244 0.043909 -0.35595 0.15719 -0.16621 
0.30434 0.10195 0.013657 0.079094 -0.012485 -0.46594 0.11165 -0.21504 
0.14206 0.058706 0.0062583 0.081889 -0.012978 -0.29413 0.070215 -0.15602 
-0.019884 0.011355 0.0019835 0.049499 -0.042079 -0.059672 -0.019061 -0.024816 
-0.14139 -0.04619 0.0013258 0.027796 -0.047669 0.080244 -0.16358 0.055254 
-0.27292 -0.089595 -0.0032777 0.04506 -0.021034 0.24795 -0.13481 0.069064 
-0.38044 -0.046354 0.025988 0.030427 -0.0022913 0.26061 -0.02942 -0.024652 
-0.23017 0.061995 0.072024 0.060022 -0.031557 0.1909 0.13943 0.0032988 
-0.016595 0.13615 0.10474 0.045389 -0.044874 0.12727 0.32489 0.14256 
0.011191 0.089452 0.071531 -0.01117 0.0028056 0.11214 0.33147 0.25666 
-0.049642 -0.053424 -0.017911 -0.076113 0.079587 0.24153 -0.046354 0.18794 
0.05476 -0.084663 -0.024652 -0.089595 0.16196 0.36287 -0.44045 -0.026624 
0.043909 0.036017 0.047362 0.023686 0.22082 0.27836 -0.44358 -0.15848 
0.065612 0.095864 0.10392 0.050157 0.1955 0.060844 -0.091897 -0.072003 
0.17495 0.12612 0.089945 0.081067 0.14996 -0.046683 0.18843 0.10589 
0.28823 0.10096 0.085506 0.048677 0.10293 -0.10686 0.25222 0.19764 
0.23594 0.072846 0.016616 0.025166 0.082711 -0.15865 0.26028 0.24614 
0.18465 0.058706 0.017603 0.038155 -0.049642 -0.1917 0.2343 0.3216 
0.067913 0.041278 0.025495 0.005765 -0.18578 -0.30021 0.050321 0.19764 
-0.06296 0.041772 0.023357 0.035688 -0.18101 -0.29248 -0.16128 -0.10489 
-0.1912 0.007738 0.0046141 0.045718 -0.10604 -0.22869 -0.18101 -0.32553 
-0.24053 -0.0019624 0.0227 0.088136 0.022535 -0.12018 -0.13662 -0.39984 
-0.18183 0.0087245 0.023193 0.10622 0.1128 -0.06855 -0.078579 -0.33441 
-0.071674 0.029605 0.010697 0.02829 0.12135 0.0023123 -0.025309 -0.21603 
-0.0047575 0.021384 0.0021479 0.065447 0.1202 0.061995 0.042758 -0.036983 
0.095042 0.073832 0.024015 0.056404 0.098166 0.087314 0.068736 0.10869 
0.13927 0.070051 0.082217 0.086821 0.1077 0.078765 0.10639 0.15127 
0.15587 0.082546 0.070708 0.065776 0.099645 0.13253 0.1128 0.15308 
0.11526 0.063803 0.0592 0.030263 0.11033 0.13401 0.13417 0.17445 
0.069064 0.031085 0.039634 0.052787 0.091918 0.16179 0.12661 0.21145 
0.0016547 -0.04323 0.0028056 -0.015116 0.045718 0.10425 0.070544 0.095206 
-0.068714 -0.083512 0.0016547 -0.019555 0.01563 0.11461 0.058871 0.014315 
-0.10752 -0.075291 0.0041209 -0.019061 0.024015 0.20388 0.044731 0.05772 
-0.041915 -0.0016336 0.012342 -0.012814 -0.012485 0.27146 -0.024158 0.10507 
-0.0082102 -0.019555 -0.031721 -0.03057 -0.15585 0.092576 -0.17509 0.0092177 
0.020069 -0.042244 -0.042244 -0.062302 -0.19334 -0.093048 -0.20814 -0.11607 
0.02122 0.083204 0.070051 0.040128 -0.053588 -0.12692 -0.032215 -0.11015 
0.053774 0.15456 0.14996 0.11198 0.086657 -0.04323 0.16377 0.0042853 
0.13088 0.21704 0.14733 0.16459 0.13236 -0.050958 0.11247 0.16755 
0.20421 0.17182 0.13203 0.2075 0.18119 0.012177 0.12875 0.27179 
0.30648 0.16656 0.070215 0.12135 0.17758 0.065447 0.22657 0.35679 
0.2805 0.069886 0.020727 0.044896 0.08567 0.10244 0.28593 0.34413 
0.20421 0.071037 -0.06707 -0.059507 -0.013307 0.040292 0.15883 0.1659 
0.099481 1.0539e-005 -0.11031 -0.087622 -0.08269 -0.013471 0.035853 0.00066819 
-0.13037 -0.071345 -0.062796 -0.099953 -0.18561 -0.2009 -0.21422 -0.17147 
-0.31007 -0.11755 0.048677 -0.07562 -0.22195 -0.32438 -0.36844 -0.30827 
-0.18693 -0.086636 0.12003 -0.02498 -0.13612 -0.29133 -0.31073 -0.32076 
0.057227 0.040292 0.15028 -0.0021268 0.013328 -0.10209 -0.029748 -0.16605 
0.19747 0.14716 0.099316 0.031907 0.096028 0.020562 0.13861 0.0083956 
0.16442 0.18613 0.045718 -0.0039354 0.10129 0.061995 0.21358 0.091425 
0.087479 0.1465 -0.011663 0.015137 0.088958 0.024837 0.18629 0.12562 
-0.038133 0.09274 -0.03205 0.00033937 0.093562 0.020069 0.10869 0.1465 
-0.025802 0.029276 -0.021692 0.0069159 0.10967 0.042923 0.055911 0.13762 
0.0080668 0.044402 -0.011498 0.027468 0.092082 0.09685 0.021878 0.17708 
0.09274 0.011026 -0.057205 0.031249 0.081395 0.1419 -0.015938 0.10655 
0.2218 0.043745 -0.06444 0.050321 0.013821 0.15538 -0.0087034 0.034866 
0.30319 0.076299 0.013164 0.1373 0.0026412 0.038648 0.03799 0.028454 
0.2634 0.090767 0.13138 0.14815 -0.019555 -0.0039354 0.054925 0.07038 
0.16031 0.047197 0.15472 0.21523 -0.037805 -0.017746 0.071202 0.067256 
0.10326 0.0090533 0.13154 0.14519 -0.047176 0.024344 0.10606 0.090931 
0.12118 -0.018404 0.085506 0.063474 -0.057699 -0.042244 0.14864 0.10047 
0.072353 -0.060494 0.0037921 -0.014129 -0.057534 -0.145 0.092904 0.13236 
-0.018733 -0.040106 0.005765 -0.077593 -0.038133 -0.2203 0.071037 0.095042 
-0.40675 -0.032379 -0.0024557 -0.061645 -0.01676 0.085999 0.030592 0.06331 
-0.62854 0.0088889 -0.0014692 -0.070852 0.0088889 0.37964 -0.12807 -0.016102 
-0.4033 0.030263 -0.013965 -0.073976 -0.050958 0.35005 -0.21356 -0.15651 
-0.043559 0.063968 -0.023994 -0.06855 -0.087622 -0.074798 -0.19466 -0.28229 
0.12069 -0.0011404 -0.02235 -0.059836 -0.1279 -0.77734 -0.17805 -0.28443 
0.19139 -0.01232 -0.013965 0.0016547 -0.091239 -0.99995 -0.086471 -0.079566 
0.18415 0.018754 0.040785 0.038812 0.030263 -0.1598 0.18087 0.18284 
0.16853 0.12842 0.091753 0.1373 0.17988 0.93207 0.37537 0.23989 
0.19188 0.15226 0.10639 0.15061 0.18646 1.2019 0.38704 0.17528 
0.25354 0.1853 0.078929 0.096357 0.076627 0.55441 0.25156 0.12727 
0.23759 0.14469 0.033058 0.075476 -0.0138 -0.15684 0.11428 0.096521 
0.21062 0.1322 0.020069 0.013986 -0.030242 -0.43947 0.014808 0.090274 
0.1031 0.077778 -0.032379 -0.0042642 -0.03912 -0.30547 0.013821 0.037661 
-0.05441 -0.014458 -0.052602 -0.011005 -0.0013048 -0.15931 -0.0034422 -0.057863 
-0.17986 -0.059014 -0.024487 -0.0022913 0.089945 0.049335 0.011026 -0.14895 
-0.2397 -0.072003 0.031578 0.056076 0.22164 0.25962 -0.0059084 -0.20271 
-0.17871 -0.06855 0.051472 0.03092 0.2292 0.33558 -0.0138 -0.13481 
-0.027775 -0.051944 0.057227 0.05624 0.12447 0.21753 -0.016595 -0.029584 
0.027468 0.062159 0.054596 0.054432 0.017932 0.06183 0.0075736 0.023028 
0.010697 0.080409 0.07038 0.049335 -0.013307 -0.04619 0.024837 0.0227 
0.0065871 0.10096 0.037332 0.047526 -0.019884 -0.045532 0.0032988 0.0042853 
0.020233 0.018918 -0.0059084 -0.004593 -0.025309 -0.070687 -0.047505 0.020398 
0.0051074 -0.023665 -0.048163 0.0059294 -0.030735 -0.087951 -0.10012 -0.0014692 
0.0059294 -0.018075 -0.017417 0.0072447 -0.0047575 -0.10308 -0.047505 0.019411 
0.023851 0.034702 0.021878 0.013328 0.022371 0.0039565 0.02681 0.066434 
0.067585 0.069064 0.060515 0.020562 0.080409 0.12546 0.12661 0.056733 
0.074983 0.10244 0.11296 0.039799 0.065776 0.24499 0.13779 0.040785 
0.029441 0.10524 0.11066 0.042923 0.012013 0.24318 0.12727 0.016452 
0.0011614 0.10935 0.0786 0.0072447 0.030098 0.19649 0.063803 0.013164 
-0.076771 0.10491 0.046375 0.018754 0.054925 0.060022 0.042265 0.016945 
-0.1473 0.024344 -0.016102 -0.009361 0.033222 -0.065755 -0.015609 0.020069 
-0.10669 -0.0088678 -0.030242 -0.030899 -0.009361 -0.18512 -0.0068948 0.030098 
-0.015609 -0.0004827 -0.014458 -0.012485 -0.0072237 -0.1113 0.013821 -0.026131 
0.028947 0.088301 0.054925 0.015959 0.05624 0.033387 0.082875 0.014808 
0.088465 0.076956 0.076627 0.05476 0.16393 0.19073 0.086492 0.11806 
0.11806 0.090274 0.064132 0.028454 0.14765 0.14437 0.030592 0.10556 
0.19303 0.08715 0.065612 -0.0042642 0.092411 0.076463 -0.03616 0.011355 
0.32982 0.1322 0.10343 -0.015444 0.095699 0.09422 -0.038462 -0.0004827 
0.41927 0.14617 0.082711 -0.020706 0.077285 0.15472 -0.048656 0.031742 
0.29398 0.11329 0.070873 0.041443 0.024508 0.031907 -0.079566 -0.027775 
0.042923 0.040128 0.010862 0.0047785 -0.072003 -0.16802 -0.1233 -0.10686 
-0.13958 -0.050629 -0.038956 0.046211 -0.14977 -0.33835 -0.19301 -0.0059084 
-0.18315 -0.071345 -0.059178 -0.017582 -0.157 -0.097816 -0.068057 0.13088 
-0.12544 -0.056383 -0.021692 -0.021528 -0.10127 0.28741 0.011848 0.12299 
-0.01528 -0.00064712 -0.0047575 0.011684 -0.12281 0.23693 0.072846 0.027961 
-0.046354 0.041772 0.0085601 0.011026 -0.051944 -0.2282 0.029769 -0.035667 
-0.18216 0.046704 0.046046 0.038155 0.038648 -0.4883 0.027796 -0.044217 
-0.28475 0.033222 0.079258 0.054267 0.16886 -0.067564 0.038155 -0.035503 
-0.19729 0.07597 0.091753 0.095699 0.23463 0.56494 0.10622 -0.010019 
-0.011663 0.073997 0.072188 0.11263 0.19418 0.66918 0.098494 -0.0077169 
0.12529 0.093726 0.048841 0.069722 0.14486 0.28445 0.013492 0.00050378 
0.18399 0.074983 0.051308 0.0786 0.070051 -0.32947 -0.061151 0.058871 
0.18169 0.062159 0.0324 0.050814 0.016781 -0.62065 -0.052931 0.097179 
0.19649 0.047362 0.01711 0.070544 -0.032708 -0.2277 0.1077 0.13582 
0.19912 0.051308 0.0227 0.048348 0.013821 0.32292 0.28067 0.26685 
0.19879 0.052623 0.049499 0.027796 0.075805 0.49539 0.36748 0.34643 
0.13878 0.017767 0.024344 0.036839 0.063968 0.29694 0.21572 0.25502 
0.012835 0.015137 0.05065 0.035195 0.065118 -0.02942 0.0046141 0.058049 
-0.066577 0.0052718 0.063145 0.047033 0.028454 -0.20929 -0.13875 -0.10439 
-0.074304 -0.0070593 0.029441 0.012177 -0.066577 -0.30284 -0.18002 -0.19877 
-0.079072 -0.030735 0.02122 0.0069159 -0.14204 -0.25615 -0.21389 -0.17756 
-0.03764 0.015465 0.016123 0.034209 -0.085485 -0.020048 -0.14122 -0.089266 
0.031578 0.027468 0.01267 0.024837 0.069064 0.35761 -0.027447 0.017438 
0.076134 0.065447 0.043251 0.083697 0.11757 0.54373 0.17051 0.074819 
0.075148 0.088301 0.087314 0.098659 0.08567 0.40841 0.23101 0.079916 
0.040621 0.085506 0.074654 0.092904 0.041443 0.082875 0.17018 0.067913 
0.037826 0.017603 0.01267 0.075476 0.0092177 -0.20156 0.052294 0.044402 
0.022206 -0.0049219 -0.00081153 0.019905 -0.004593 -0.25664 -0.0016336 -0.0026201 
0.032564 0.0095465 0.0087245 0.042923 0.01563 -0.15799 0.030263 0.0037921 
0.045882 0.0024767 0.026317 0.024508 0.040621 -0.089595 0.038977 0.0019835 
-0.0022913 0.030427 0.015465 0.033222 0.025166 -0.11722 0.062159 0.029441 
-0.009361 0.041443 0.015465 0.041607 0.013821 -0.14336 0.073832 0.058871 
-0.0011404 0.062323 0.015465 0.03799 0.016288 -0.12741 0.10507 0.08715 
-0.094527 0.055254 0.020069 0.062323 0.020069 -0.077922 0.071695 0.10655 
-0.13662 0.074326 0.013328 0.037004 0.018589 -0.0062372 0.022864 0.14108 
-0.063782 0.027961 0.0046141 0.017274 0.030427 0.10885 -0.010841 0.16689 
-0.017911 0.067749 0.027303 0.034702 0.044896 0.13812 0.046375 0.11674 
0.097015 0.084519 0.035853 0.04095 0.097344 0.14091 0.058377 0.044567 
0.15209 0.13499 0.061337 0.08156 0.11346 0.11428 0.053116 -0.00081153 
0.090767 0.049499 0.066269 0.013328 0.07449 0.086821 -0.016102 -0.039942 
0.027139 0.052294 0.056733 0.0028056 0.012835 0.061008 -0.02235 -0.070523 
0.046375 -0.023994 0.023193 0.0041209 -0.073647 -0.018733 0.0021479 -0.11442 
0.13943 0.025495 0.038977 0.026317 -0.033694 -0.058028 0.042429 -0.043724 
0.19139 0.064954 0.031249 0.050157 0.064625 -0.072496 0.026974 0.0090533 
0.15209 0.055254 0.029605 0.079587 0.16377 -0.085978 0.035031 0.080409 
0.037661 0.074654 0.012506 0.044073 0.17478 0.054103 0.016123 0.10293 
-0.027611 0.015959 0.0013258 0.037826 0.1784 0.1853 0.044238 0.10063 
-0.031721 -0.0019624 -0.032708 -0.0064016 0.058542 0.079422 0.01004 0.036675 
0.0051074 -0.025967 -0.018404 -0.021199 -0.056548 -0.074304 -0.050629 -0.01676 
0.094877 0.044238 0.045224 0.019083 -0.089595 -0.083018 -0.078086 -0.011663 
0.11362 0.059693 0.090438 0.085341 -0.073318 0.08419 -0.04882 0.067913 
0.069558 0.084848 0.077614 0.063968 -0.064604 0.20717 0.06594 0.12579 
0.031742 0.05065 0.06331 0.063803 -0.082361 0.15555 0.1391 0.21605 
0.009711 0.069722 0.024179 0.020069 -0.11738 0.049335 0.065283 0.023357 
-0.027447 0.032893 -0.0138 0.0080668 -0.069372 -0.062302 -0.082032 -0.18923 
0.065447 0.062981 0.021713 0.026646 0.087643 -0.1404 -0.05589 -0.14402 
0.11987 0.079422 0.061008 0.027961 0.2075 -0.13991 0.11231 0.02533 
0.14354 0.086821 0.081395 0.064296 0.23792 0.23825 0.34709 0.052294 
0.14782 0.088465 0.060186 0.035195 0.18087 0.44261 0.32341 0.069064 
0.077449 -0.0064016 -0.0077169 -0.03912 0.0088889 0.11115 0.039305 -0.0057439 
0.01974 -0.041751 -0.059178 -0.041751 -0.081703 -0.47843 -0.24891 -0.035503 
-0.0034422 -0.035338 -0.043888 -0.061809 -0.073811 -0.57856 -0.30152 -0.0098543 
0.013328 0.075805 0.016945 -0.0022913 -0.060823 -0.20797 -0.16309 0.056076 
0.015959 0.11937 0.072024 0.022206 -0.023007 0.11658 -0.1963 -0.017253 
-0.06148 0.16442 0.093233 0.061501 -0.02794 0.10441 -0.33112 -0.12083 
-0.21767 0.078107 0.018425 0.027796 -0.016924 -0.022843 -0.18578 -0.0965 
-0.22836 0.049664 -0.046354 -0.022021 0.015959 -0.14862 0.11872 0.0060938 
-0.18364 -0.022021 -0.036983 0.041443 0.067749 0.015137 0.23233 0.02681 
-0.044874 -0.02498 0.004943 0.052787 0.11346 0.27524 0.25058 -0.021034 
0.11691 0.017438 0.043745 0.064461 0.11658 0.33837 0.070708 -0.0055795 
0.26373 0.054267 0.08978 0.059364 0.088136 0.19879 -0.03353 0.087972 
0.27343 0.024179 0.10902 0.066269 0.054925 0.091589 0.0072447 0.17955 
0.20619 0.012999 0.074654 0.074326 0.023193 -0.003771 0.12431 0.18366 
0.10885 -0.0082102 0.0324 0.01152 0.020562 0.0070803 0.12381 0.079587 
0.031085 0.0052718 0.0056006 0.037661 -0.0075525 0.029934 0.08567 0.011848 
0.019247 0.055747 0.011684 0.0056006 -0.034352 0.013492 0.035524 -0.015773 
0.031249 0.020727 -0.012814 -0.016102 -0.066084 -0.034516 0.055747 -0.014293 
-0.020212 0.012013 -0.012485 -0.0004827 -0.024158 -0.017088 0.064296 -0.031886 
-0.017746 0.00099702 -0.0036066 0.00017495 -0.0011404 -0.026131 0.097508 0.019411 
0.026646 0.085506 0.032071 0.05065 0.033715 -0.018404 0.067585 0.013986 
-0.02235 0.024837 0.055911 0.033058 0.055418 -0.061645 -0.020048 -0.0068948 
-0.087951 0.032236 0.061995 0.063474 0.011355 -0.046025 -0.045368 0.0013258 
-0.13596 0.052952 0.059364 0.06183 0.032236 -0.004593 0.010697 -0.010019 
-0.12462 0.11083 0.07038 0.054925 0.097837 0.059857 0.013657 -0.020048 
0.011355 0.11674 0.051965 0.092082 0.087972 -0.014951 -0.047834 0.017274 
0.088136 0.058049 0.04358 0.030756 0.03947 -0.12412 -0.051287 0.049992 
0.077943 0.076627 0.0059294 0.027961 0.010204 -0.23987 -0.035503 0.024179 
0.023686 0.057391 -0.0036066 0.021713 -0.0036066 -0.26042 -0.0070593 -0.020377 
0.044896 0.073339 0.0074092 0.011848 0.024344 -0.17887 -0.034352 -0.026296 
0.029934 0.033222 0.017603 0.068078 0.086657 0.053774 0.023193 0.0046141 
0.09833 0.057227 0.052952 0.02533 0.08304 0.16262 0.037332 0.03947 
0.12316 0.047855 0.076627 0.03536 -0.023336 0.12085 0.066598 0.013821 
0.047033 0.030427 0.055747 -0.0068948 -0.038133 0.048184 0.038483 -0.017417 
-0.0075525 -0.0062372 0.050157 -0.0088678 0.050979 0.10244 0.050321 -0.011663 
-0.046683 0.018096 0.032893 0.028947 0.081231 -0.018733 0.11905 0.072846 
-0.063124 -0.020048 -0.0044286 -0.025145 -0.0011404 -0.024487 0.19024 0.2098 
-0.095514 -0.033201 -0.02794 -0.018568 0.01267 0.28083 0.20832 0.23085 
0.034373 -0.0072237 -0.0052507 -0.053424 0.027796 0.53025 0.20158 0.24367 
0.20158 0.16853 0.053116 0.026646 0.050321 0.40447 0.19205 0.14568 
0.22509 0.24959 0.10244 0.062323 0.029605 0.13302 0.095535 0.020562 
0.14272 0.18103 0.092411 0.062817 -0.014951 -0.13744 -0.0031133 -0.036983 
0.1664 0.10277 0.083368 0.095535 0.025659 -0.13464 -0.071674 0.0060938 
0.17445 0.042758 0.075148 0.062652 0.10293 0.084848 0.028619 0.081231 
0.045718 0.0014903 0.061337 0.064132 0.1003 0.19632 0.064132 0.11592 
-0.19877 -0.098473 -0.0049219 -0.017582 0.00083261 0.036675 0.017438 0.030756 
-0.28081 -0.15865 -0.069701 -0.073318 -0.11985 -0.1575 -0.093376 -0.13711 
-0.18989 -0.14944 -0.063453 -0.055232 -0.13908 -0.32356 -0.16144 -0.19383 
0.033222 0.014479 0.029276 -0.019719 -0.039449 -0.26782 -0.069701 -0.157 
0.31453 0.10491 0.082053 0.037168 0.059693 -0.12741 0.11033 -0.022021 
0.3198 0.15111 0.097015 0.046375 0.12842 0.18843 0.2583 0.1567 
0.20783 0.11543 0.039799 0.030756 0.12135 0.4145 0.26685 0.20339 
0.2366 0.15735 0.025824 0.018589 0.05065 0.49112 0.15949 0.23858 
0.22789 0.084026 -0.0024557 -0.037805 -0.03501 0.28412 -0.024816 0.29941 
0.10178 0.025824 0.01152 0.015794 -0.046847 -0.061809 -0.10834 0.37816 
-0.18298 -0.03057 0.011026 0.0046141 -0.058685 -0.25746 -0.050629 0.27261 
-0.4587 -0.01117 0.039634 0.033551 0.010533 -0.087622 0.14387 0.086492 
-0.32175 0.065118 0.06183 0.085012 0.080573 0.087643 0.19336 -0.10719 
0.018425 0.098659 0.082053 0.079422 0.074983 0.19616 0.066927 -0.16375 
0.13943 0.096686 0.053281 0.072517 0.072353 0.28395 -0.014293 -0.10587 
0.044567 0.051472 0.053281 0.028783 0.074326 0.41483 0.14601 -0.20107 
-0.14319 0.034537 0.034044 -0.0016336 0.1031 0.20027 0.1756 -0.23527 
-0.24891 0.0026412 -0.014293 -0.016431 0.072188 -0.019555 0.031414 -0.18857 
-0.17525 0.062488 0.071531 -0.023665 -0.01117 -0.14846 -0.18298 -0.069865 
0.16311 0.098001 0.17396 0.014315 -0.0067304 -0.098473 -0.20978 0.069722 
0.37882 0.096686 0.14058 -0.0050863 -0.015609 -0.11771 -0.059178 0.10704 
0.33772 0.0083956 0.043909 0.0098754 -0.022679 -0.076113 0.064132 0.098001 
0.19385 0.00050378 -0.024816 -0.0072237 0.0044497 -0.046847 0.073175 0.1345 
0.13171 -0.014951 -0.066577 -0.017911 -0.0077169 0.018589 0.03092 0.13483 
-0.10653 -0.042737 -0.072989 0.021878 -0.023336 0.00050378 -0.021528 0.054432 
-0.35118 -0.047341 -0.080223 -0.003771 -0.047998 -0.019719 -0.013143 0.018754 
-0.27736 0.0023123 -0.035996 0.035524 0.01267 -0.027447 0.024179 0.0052718 
-0.09946 0.0592 -0.0022913 0.018425 -0.0064016 -0.057205 0.05065 0.05772 
0.041443 0.058706 -0.0087034 0.046375 0.010862 -0.058685 0.10573 0.095206 
0.12513 0.07301 0.0083956 0.077121 0.042265 0.016616 0.042429 0.13631 
0.12299 0.070215 0.026317 0.047691 0.033058 0.0080668 0.016452 0.10622 
0.096686 0.03651 0.00050378 0.058213 -0.0075525 -0.0054151 -0.018404 0.053774 
0.055911 0.016616 0.011848 0.026481 0.028125 0.12118 -0.022843 0.023193 
-0.0026201 0.035031 0.047526 0.048841 0.1151 0.19994 -0.036818 -0.038462 
-0.0406 0.0021479 0.051636 0.051308 0.086985 0.024015 -0.030077 -0.16687 
-0.01676 0.021056 0.041443 0.036017 0.033715 -0.19844 0.0082312 -0.14665 
0.051965 0.034373 0.025001 0.037497 -0.00081153 -0.28163 0.089287 -0.097158 
0.075641 0.06035 0.026974 -0.0013048 0.012342 -0.26815 0.098001 -0.060658 
0.043909 0.10228 0.065283 0.051472 0.081889 -0.2157 0.03092 -0.08121 
-0.050629 0.12562 0.11148 0.088958 0.13171 -0.10719 -0.042244 -0.057863 
-0.068714 0.12184 0.1225 0.081067 0.10507 -0.068714 -0.19679 -0.062467 
-0.044052 0.050157 0.045882 0.03651 -0.0014692 -0.10341 -0.29347 -0.036983 
0.052459 -0.0021268 -0.039613 -0.067235 -0.056219 -0.019555 -0.27719 -0.073811 
0.13351 0.0021479 -0.040435 0.0023123 0.058542 0.18711 -0.10538 -0.051287 
0.19714 0.087808 0.024344 0.093562 0.12431 0.24745 0.13647 0.049992 
0.19369 0.051308 0.015794 0.094055 0.04654 0.1544 0.2269 0.14338 
0.1202 0.019411 -0.011005 0.086657 -0.041586 0.02533 0.16163 0.2537 
0.06331 -0.026624 -0.023007 0.053774 0.041443 0.24762 0.13812 0.28741 
0.13878 0.028783 -0.020212 0.073668 0.12513 0.62347 0.060844 0.25929 
0.15867 0.053609 0.0080668 0.041772 0.074161 0.43373 -0.13103 0.081231 
0.00099702 0.06594 0.040456 0.033551 -0.0068948 -0.14007 -0.25598 -0.06707 
-0.19153 0.059364 0.057555 0.021384 -0.045368 -0.51181 -0.096994 -0.031886 
-0.11672 0.088958 0.053609 0.020069 -0.070194 -0.52661 0.09126 0.047855 
0.064461 0.093069 0.051308 0.024015 -0.022843 0.14486 0.23331 0.055911 
0.17593 0.069393 0.041443 -0.010512 0.028947 0.39214 0.26357 0.011684 
0.12595 0.033222 0.0054362 -0.014787 -0.0075525 -0.054082 0.22822 -0.072003 
0.052294 -0.00031829 0.053116 0.020891 -0.027611 -0.34608 0.15472 -0.15026 
0.054267 0.064461 0.032071 0.044567 0.016452 -0.30531 0.098001 -0.16703 
0.064625 0.043087 0.068571 0.09833 0.090109 0.018754 0.10195 -0.09239 
0.041443 0.03388 0.041114 0.043416 0.079094 0.22592 0.096028 0.041443 
0.027303 -0.040764 0.029112 0.046046 0.059693 0.12694 0.025166 0.15407 
0.082711 0.040785 0.057884 0.014315 0.038977 -0.0014692 -0.18742 0.19517 
0.087479 0.049828 0.058706 0.018589 0.037332 0.009711 -0.32652 0.19681 
0.049828 0.057227 0.050979 0.042758 0.036675 0.03092 -0.35381 0.12184 
0.066598 0.046211 0.033715 0.027139 0.048841 0.1368 -0.12429 0.033551 
0.096357 0.07597 0.031907 0.035853 0.045718 0.18415 0.078272 -0.062631 
0.096193 0.083862 0.033387 0.02829 0.047197 0.17001 0.25584 -0.025802 
0.050486 0.093726 0.071859 0.045224 0.0085601 0.1276 0.2486 0.049499 
0.079094 0.11658 0.067749 0.017603 -0.040764 0.051965 0.21704 0.11642 
0.12332 0.079587 0.057227 0.007738 -0.032379 0.037661 0.14519 0.1202 
0.11691 0.047362 0.055582 0.030427 0.032893 0.17018 0.13056 0.058213 
0.03388 0.012999 0.054267 0.0085601 0.078436 0.26126 0.12447 0.00099702 
-0.15766 0.038483 0.061666 0.023357 0.0689 0.21885 0.097015 -0.020048 
-0.22639 0.041278 0.074983 0.02533 0.036346 0.056076 0.092082 -0.017417 
-0.16884 0.082382 0.089287 0.044896 0.024179 -0.04471 -0.010512 0.0036276 
-0.060494 0.06594 0.069393 0.075148 0.01267 -0.034188 -0.051451 0.01415 
-0.020541 0.094548 0.047033 0.033551 0.015465 -0.07003 -0.11623 0.014643 
0.04095 0.05476 0.038155 0.029769 0.0065871 -0.22359 -0.12379 0.056404 
0.021713 0.078272 0.044567 0.019247 0.0036276 -0.27933 -0.058356 0.13976 
0.08715 0.050321 0.031414 0.00099702 -0.016431 -0.089924 0.10787 0.17117 
0.091918 0.055747 0.019247 -0.0091966 -0.048985 0.21769 0.10902 0.11987 
0.054432 0.040621 0.029276 -0.033859 -0.039942 0.25255 0.090603 0.016123 
0.027303 0.02533 0.023522 -0.012814 -0.066413 -0.23116 -0.057699 -0.067892 
-0.035338 -0.012978 0.01004 -0.051944 -0.14566 -0.8459 -0.18348 -0.1062 
-0.10834 -0.067564 -0.038462 -0.059836 -0.19104 -0.71239 -0.20008 -0.12823 
-0.083512 -0.039284 -0.0096899 -0.01528 -0.12215 0.10096 0.093398 -0.026131 
-0.011663 -0.010676 0.04358 0.00083261 -0.01528 0.47648 0.32177 0.075312 
0.062323 0.053281 0.11674 0.04917 0.050979 0.28987 0.36583 0.10589 
0.075641 0.068736 0.13039 0.06479 0.18481 0.21901 0.30812 0.12069 
0.084848 0.11428 0.084355 0.088136 0.26258 0.28247 0.095206 0.07449 
0.056898 0.098001 0.0092177 0.06035 0.20323 0.23348 -0.11442 -0.04471 
0.027139 0.080244 -0.059507 0.00083261 0.12891 0.0324 -0.26881 -0.10209 
-0.029255 0.022864 -0.096336 -0.023501 0.078107 -0.09239 -0.22063 -0.093541 
-0.0029489 0.038483 -0.067728 -0.023336 0.1202 0.068078 -0.047998 0.052459 
0.05065 0.04506 -0.047834 0.037661 0.031085 0.21523 0.080409 0.15472 
0.071037 0.038483 0.0059294 0.038977 -0.073154 0.17462 0.048019 0.10178 
0.047855 0.032729 0.054103 0.08978 -0.098638 -0.16227 0.031414 0.023851 
0.10326 0.032893 0.076956 0.12792 -0.046025 -0.41497 0.0051074 -0.042079 
0.080409 0.0052718 0.055582 0.072681 0.018425 -0.22557 0.066763 0.027468 
0.0013258 -0.066741 0.023522 0.052623 0.054925 0.15999 0.12217 0.14141 
-0.12626 -0.043724 0.012342 0.011355 0.10639 0.52614 0.21276 0.17725 
-0.085156 0.011191 0.07301 0.023028 0.09422 0.44968 0.19418 0.12743 
-0.045532 0.078272 0.082382 0.0227 0.022864 -0.031064 0.037168 0.023686 
0.0013258 0.041114 0.06331 -0.016431 0.00099702 -0.29281 -0.055232 -0.02794 
-0.025802 0.027303 0.00066819 -0.022021 0.0080668 -0.22113 0.065612 -0.033694 
0.059528 0.0085601 -0.0021268 -0.053095 0.053116 -0.10324 0.050157 -0.026296 
0.20388 0.066105 -0.010512 0.028125 0.067585 0.094877 -0.079895 0.078272 
0.28412 0.081889 0.053281 0.090767 0.066105 0.068242 -0.1182 0.11839 
0.18991 0.080738 0.07449 0.12233 0.032893 -0.22557 -0.17525 0.053116 
0.10754 0.05213 0.078765 0.1493 -0.034681 -0.58497 -0.14402 0.0028056 
0.0054362 0.0087245 0.029112 0.07597 -0.063289 -0.70368 -0.087458 0.011026 
-0.057534 -0.003771 0.0021479 0.051472 -0.074633 -0.60799 -0.015609 0.010533 
-0.093376 -0.034352 -0.039284 -0.00081153 -0.045039 -0.36745 -0.018897 -0.08269 
-0.089595 -0.012485 -0.012978 -0.017253 0.035853 0.10655 0.11395 -0.17295 
-0.047669 -0.032379 -0.017417 0.020069 0.074983 0.68841 0.19566 -0.07973 
0.016123 0.00297 0.01267 0.0065871 0.19402 1.2915 0.28527 0.082546 
0.027796 0.052952 0.042758 0.073997 0.37356 1.7275 0.26603 0.171 
0.035853 0.12842 0.078436 0.085999 0.39247 1.4792 0.19879 0.16919 
0.060022 0.10047 0.082053 0.1077 0.27705 0.8862 0.12431 0.12546 
0.10293 0.15752 0.13417 0.088465 0.096193 0.11231 0.10524 0.097015 
0.11461 0.13927 0.15012 0.076299 -0.062796 -0.51214 0.076299 0.072024 
0.086821 0.14782 0.11296 0.097015 -0.0965 -0.93106 0.045718 0.059528 
0.047362 0.057227 0.047691 0.045553 -0.072167 -0.89374 -0.094363 0.06035 
-0.010019 -0.008539 -0.05178 0.018589 0.007738 -0.58678 -0.24283 0.059693 
0.00050378 -0.036489 -0.044874 0.0037921 0.055582 -0.20255 -0.21241 0.060022 
0.027632 -0.073318 -0.064604 -0.033859 0.0095465 0.027303 -0.13415 0.00099702 
-0.031392 -0.051944 -0.062302 -0.034516 -0.082361 0.076792 -0.059014 -0.21159 
-0.073811 0.021713 -0.0044286 -0.024816 -0.073976 0.083862 0.061172 -0.2841 
-0.031228 0.065776 0.0093821 0.0074092 -0.030077 0.24137 0.16755 -0.18989 
0.019083 0.049664 -0.01232 -0.015773 -0.037476 0.32341 0.17922 -0.17032 
0.095699 0.064954 -0.01528 -0.00031829 -0.066741 0.2565 0.1174 -0.093212 
0.10967 0.063145 0.010369 0.032564 -0.010512 0.16656 0.021878 0.071202 
0.041114 0.084026 0.032071 0.0070803 0.063639 0.12283 -0.0077169 0.14601 
-0.059507 0.032564 0.053445 0.030098 0.068242 -0.10176 -0.0090322 0.11017 
-0.087951 0.063145 0.089945 0.019905 0.029441 -0.19252 0.066927 0.14996 
-0.036818 0.063639 0.14108 0.090603 0.032893 -0.083676 0.048513 0.19796 
0.079916 0.16146 0.15604 0.048348 0.087643 0.10967 0.010369 0.19172 
0.074654 0.18744 0.18711 -0.012978 0.14979 0.27557 0.027468 0.11658 
0.050979 0.14765 0.10704 0.029112 0.083862 0.24433 0.019247 -0.028269 
0.00033937 0.11362 0.029112 -0.040764 0.023522 -0.0096899 -0.057041 -0.15947 
0.087972 0.089945 -0.00031829 -0.040435 0.0041209 -0.12807 -0.10209 -0.17213 
0.13549 0.051143 -0.014129 -0.015116 -0.02235 -0.1986 -0.080717 -0.1723 
0.11658 -0.024158 -0.043066 -0.0075525 -0.035667 -0.11689 -0.064933 -0.10571 
0.15209 -0.044381 -0.05441 -0.0095255 -0.14287 -0.0095255 0.014808 0.071366 
0.095371 -0.05737 -0.031064 -0.00097594 -0.14303 0.010533 0.0051074 0.11839 
-0.038791 -0.031886 -0.014787 0.031085 -0.057699 0.072024 0.011191 0.069393 
-0.093376 -0.014622 0.0032988 0.050157 0.050979 0.17412 0.035524 0.08156 
-0.027118 0.11411 0.076134 0.043416 0.094713 0.1784 0.12497 0.15587 
0.093069 0.20191 0.10902 0.11444 0.11806 0.058377 0.093891 0.13138 
0.19418 0.22197 0.052459 0.092904 0.13056 -0.080059 0.034702 0.044731 
0.24269 0.10096 -0.045861 0.077778 0.1391 -0.28607 0.029441 -0.011005 
0.094548 -0.049149 -0.11524 -0.014293 0.044731 -0.56837 0.036675 -0.070523 
-0.077593 -0.13201 -0.10571 -0.03912 -0.045696 -0.40806 0.070708 -0.068221 
-0.099953 -0.092061 -0.035832 0.010533 -0.024158 -0.026624 0.093562 -0.00031829 
-0.073647 -0.025309 0.020233 0.0032988 -0.031886 0.18152 -0.017746 -0.0090322 
-0.045203 -0.021528 0.022206 -0.023994 -0.1358 0.078107 -0.20386 -0.051287 
-0.030406 0.03092 0.0592 -0.04882 -0.1815 -0.026296 -0.13563 0.0065871 
-0.023172 0.070708 0.086492 -0.006566 -0.054904 0.11822 0.048841 0.080409 
-0.010841 0.10096 0.09422 0.019083 0.094055 0.17018 0.095535 0.10129 
-0.0024557 0.063474 0.063803 0.0085601 0.081889 -0.27916 -0.077264 0.13006 
0.092904 0.090931 0.083862 0.087643 0.027303 -0.71486 -0.10225 0.19287 
0.1955 0.059364 0.088958 0.10984 0.015794 -0.62345 -0.013307 0.22953 
0.0324 0.015137 0.063803 0.10195 0.05065 0.066598 0.17528 0.15242 
-0.070194 -0.073811 0.0042853 0.052952 0.063145 0.52022 0.22953 0.034537 
-0.12922 0.00017495 0.042923 0.073668 0.078272 0.39411 0.21424 -0.02498 
-0.16144 0.10063 0.095535 0.10507 0.11954 0.054103 0.11033 -0.076771 
-0.060987 0.15078 0.090767 0.06742 0.11872 0.10902 0.048677 -0.02498 
0.17314 0.11937 0.080738 0.038319 0.071859 0.083862 -0.0013048 0.049664 
0.30582 0.076463 0.044073 -0.01117 0.066598 -0.09798 -0.029091 0.079587 
0.25271 0.0090533 0.014808 0.016616 0.10655 -0.18413 0.038483 0.067913 
0.072353 -0.063618 -0.016431 0.027632 0.1248 -0.18249 0.065118 0.068242 
-0.11327 -0.078415 -0.011005 0.028783 0.082546 -0.18364 0.05213 0.082382 
-0.13892 -0.049807 0.0016547 0.073175 0.028454 0.047691 -0.032543 0.069558 
-0.027447 0.035853 0.007738 0.039141 -0.076771 0.13384 -0.13464 0.042758 
-0.010183 0.073504 0.01826 0.00066819 -0.18265 -0.00097594 -0.19761 -0.010183 
0.0227 0.079751 0.023028 0.018096 -0.20847 -0.23231 -0.15717 -0.025145 
0.00017495 0.071859 0.03651 0.056569 -0.16243 -0.3012 -0.056383 0.0324 
0.038648 0.062159 0.075805 0.11855 -0.0014692 0.13565 0.18366 0.033551 
0.0013258 -0.01676 0.11313 0.06035 0.1687 0.69269 0.36172 0.0044497 
0.0047785 0.017767 0.045389 0.061172 0.16377 0.63268 0.34183 -0.038298 
0.056404 0.03651 0.010697 0.047526 0.11543 0.20997 0.1738 0.017603 
0.12661 0.011355 -0.027282 -0.015609 0.01563 -0.16309 0.048677 0.0689 
0.071202 0.024673 -0.057205 -0.020541 -0.056055 -0.097816 -0.021528 0.087643 
-0.0019624 -0.00097594 -0.036818 -0.059178 -0.02498 0.11872 -0.045696 0.069393 
-0.023007 0.038812 0.018589 -0.018897 0.093726 0.20405 -0.022679 0.067749 
-0.010348 0.081889 0.072517 0.0072447 0.093398 -0.2111 -0.07973 0.068571 
-0.062631 0.13088 0.084519 0.010204 0.048513 -0.70631 -0.16818 0.077121 
-0.18265 0.076299 0.10195 0.032893 0.095535 -0.3326 -0.090088 0.041443 
-0.21751 0.085506 0.11428 0.040128 0.25337 0.63909 0.11609 0.013821 
-0.069701 0.072846 0.10277 0.073668 0.25123 1.0868 0.18054 -0.058028 
0.12825 0.11806 0.083533 0.034209 0.12085 0.90659 0.22756 -0.080881 
0.21194 0.069722 0.041278 0.016616 0.038648 0.32012 0.18777 -0.066084 
0.22394 0.098988 0.03092 0.0014903 -0.052602 -0.40593 0.11198 -0.047998 
0.11642 0.052952 -0.004593 -0.028433 -0.21208 -0.8237 -0.014293 -0.050136 
0.020727 0.00297 -0.025309 -0.0075525 -0.23543 -0.49882 -0.051944 -0.030077 
-0.0039354 -0.021528 -0.037147 -0.023007 -0.13958 0.1562 -0.046519 0.11888 
0.044073 -0.041422 -0.029091 0.010369 -0.053753 0.50509 0.082217 0.25387 
0.061501 0.030592 0.020233 0.02533 -0.019061 0.37356 0.1544 0.27623 
0.10606 0.081395 0.064625 0.028454 0.054103 0.18333 0.19632 0.18087 
0.13746 0.13499 0.072517 0.064296 0.1756 0.19813 0.13762 0.029605 
0.12792 0.1276 0.0689 0.042429 0.183 0.22624 0.087314 -0.062467 
0.081724 0.10737 0.042265 0.026317 0.074161 0.11017 -0.010348 -0.051615 
0.082217 0.08008 0.041772 0.014479 0.016123 -0.076277 -0.065097 0.0072447 
0.083697 0.10359 0.039634 0.041114 0.032893 -0.059507 -0.062467 0.018589 
0.064461 0.050814 0.0052718 0.02533 0.063474 0.019411 -0.16703 -0.050958 
0.016616 0.015137 -0.022021 -0.025802 0.036017 0.055254 -0.29051 -0.14944 
-0.012649 -0.019884 -0.034845 -0.015444 0.0098754 -0.027775 -0.22984 -0.22063 
-0.027447 0.011848 -0.015609 -0.0138 0.026481 0.0042853 -0.050629 -0.13004 
-0.021528 0.014808 0.01152 0.016452 0.033222 0.0072447 0.055582 -0.013307 
-0.01117 0.038155 0.05065 0.04358 0.033222 0.048019 0.12184 0.058706 
0.06183 0.041443 0.049006 0.04095 0.045718 0.082053 0.11 0.13434 
0.1516 0.032236 0.034209 0.058213 0.053609 0.017603 0.17001 0.17215 
0.14469 0.021549 0.02829 0.034866 0.039141 -0.041586 0.12053 0.15999 
0.025659 0.012342 0.032893 0.042923 0.021056 -0.049971 0.077614 0.097508 
-0.010183 0.035688 0.027468 0.047033 0.018096 -0.036325 0.014315 0.054596 
-0.029913 0.10211 0.03799 0.045389 0.062817 -0.018568 0.01004 0.034702 
0.0069159 0.12464 0.04095 0.062817 0.06331 -0.082361 -0.037805 0.028125 
-0.044052 0.096357 0.02829 0.024344 0.044567 -0.13826 -0.057863 0.01563 
0.022371 0.068078 0.022206 0.030756 0.030592 -0.14303 -0.090088 -0.037476 
0.073339 0.074161 0.055089 0.030427 0.029112 -0.059343 -0.084498 -0.08269 
0.069886 0.079916 0.051472 0.023357 0.043087 0.10178 -0.046847 -0.11426 
0.082711 0.055089 0.033551 0.042923 0.049006 0.094548 0.083862 -0.0072237 
0.10935 0.048184 0.029276 0.023522 0.0021479 -0.21488 0.16903 0.12447 
0.060515 -0.017582 0.0051074 0.014643 -0.076277 -0.44785 0.10326 0.11921 
-0.042573 -0.059507 -0.014951 -0.0072237 -0.08532 -0.40856 0.0074092 0.0098754 
-0.081703 -0.049314 0.0018191 0.020727 -0.034188 -0.0013048 -0.062796 -0.039778 
-0.032215 -0.012156 0.021549 0.056733 0.025001 0.44968 -0.068057 -0.056055 
0.035688 0.072517 0.071695 0.076792 0.067749 0.59897 -0.044052 -0.036654 
0.038812 0.062488 0.068407 0.10836 0.09274 0.4436 0.051801 -0.010512 
0.01004 0.044073 0.051472 0.041443 0.0324 0.16952 0.10096 0.0021479 
-0.014951 0.0042853 0.016616 -0.0040998 0.0067515 -0.034188 0.12875 0.036675 
0.013986 0.046211 0.0019835 -0.023007 0.0044497 -0.16276 0.060844 0.076463 
0.0065871 -0.0027845 0.016781 -0.0050863 0.048184 -0.25253 -0.032543 0.080573 
0.028783 0.029769 0.0087245 0.062652 0.019411 -0.31451 -0.014129 0.11642 
0.069886 0.033715 0.028783 0.017603 -0.095349 -0.33013 0.025988 0.025166 
0.061666 0.082875 0.028454 0.037497 -0.18841 -0.22688 -0.02794 -0.052766 
-0.0057439 0.056898 0.035688 0.050979 -0.16046 -0.14763 -0.12988 -0.045039 
-0.0090322 0.049006 0.026152 0.067913 0.038648 0.0083956 -0.020048 0.037004 
0.0019835 0.049664 0.03799 0.096193 0.23019 0.20503 0.09685 0.096357 
0.011355 0.041936 0.04358 0.068407 0.27047 0.22361 0.06035 0.084355 
-0.0078813 0.044731 0.055582 0.076134 0.17544 0.085506 -0.051287 0.048184 
-0.015444 -0.017088 0.044402 0.011026 0.06331 0.06479 -0.069372 0.047855 
0.0031344 0.021384 0.03388 0.0052718 0.025824 0.1761 -0.013636 0.12069 
0.1927 0.046046 0.047362 0.041278 0.076956 0.49292 0.20947 0.23545 
0.20471 0.08715 0.024344 0.0047785 0.023522 0.51561 0.27146 0.18498 
0.079094 0.051308 0.02829 0.012342 -0.077428 0.053281 0.1613 0.023357 
-0.065755 0.069393 0.027961 0.0036276 -0.13497 -0.50605 0.00017495 -0.25549 
-0.15766 0.046704 0.043745 0.019247 -0.084334 -0.57429 0.031907 -0.37551 
-0.15964 0.051143 0.0324 0.017932 -0.071016 -0.40905 0.01415 -0.24283 
-0.060658 -0.013143 -0.0083746 0.010204 -0.059507 -0.18923 0.044567 -0.028269 
0.053281 -0.0027845 -0.026953 0.0098754 -0.039613 -0.0070593 0.068078 -0.057205 
0.077285 0.047362 0.031907 0.01267 -0.013143 0.12677 0.026974 -0.064604 
0.061008 0.089287 0.074819 0.04506 -0.0039354 0.18843 -0.098638 0.171 
0.092411 0.084848 0.071037 0.031249 0.049499 0.27392 -0.12938 0.45988 
0.089287 0.052459 0.055254 0.051143 0.1271 0.26324 -0.021363 0.52515 
0.016616 0.057884 0.040621 0.086985 0.14469 0.16393 0.05476 0.24581 
0.022371 0.042594 0.041607 0.060679 0.13746 0.091918 0.18711 -0.0029489 
0.069886 0.038977 0.045389 0.072024 0.088136 0.10195 0.2024 -0.14878 
0.066269 0.049828 0.013821 0.011191 0.048348 0.058377 0.067256 -0.095185 
0.029934 0.013657 -0.011992 -0.0075525 -0.0032777 -0.060494 -0.06 -0.08269 
0.0037921 0.02681 -0.0014692 0.011848 -0.0064016 -0.27193 -0.066577 -0.047998 
0.05476 0.05624 0.042429 0.037826 0.031907 -0.25615 -0.019226 0.022864 
0.081067 0.037497 0.058871 0.035853 0.034702 0.020398 0.053774 0.072188 
0.060844 0.024015 0.035853 0.017767 -0.0013048 0.38096 0.030263 0.095864 
0.024673 -0.015773 0.007738 -0.010512 -0.040764 0.22148 -0.011005 0.082875 
0.046211 -0.0011404 -0.0016336 -0.01676 -0.10982 -0.20781 -0.023336 0.11296 
0.02681 0.049992 0.055089 0.026317 -0.0080457 -0.39491 0.044073 0.088136 
-0.044546 0.12792 0.10211 0.10178 0.17659 -0.31649 0.16327 0.044073 
-0.11015 0.14848 0.089123 0.07038 0.27425 -0.13514 0.18728 0.018425 
-0.12215 0.10162 0.034209 0.050979 0.22115 0.35465 0.13351 0.014643 
-0.047834 0.063474 0.00099702 -0.024652 0.01711 0.5503 -0.0050863 0.026152 
0.084355 0.03799 -0.011992 -0.051944 -0.15109 0.49851 -0.0042642 0.071531 
0.22575 0.076956 0.047691 0.013657 -0.13908 0.31815 0.071859 0.13171 
0.28247 0.069886 0.071366 0.0227 -0.053588 -0.080881 0.12332 0.1077 
0.19649 0.059528 0.06742 0.096686 0.042594 -0.29692 0.085999 0.017932 
0.11148 0.025824 0.059693 0.11757 0.14716 0.27721 0.044896 -0.0011404 
0.069558 0.055747 0.065612 0.10902 0.17018 0.70485 -0.023829 -0.020541 
-0.048163 -0.013471 0.014643 0.030098 0.046704 0.3198 -0.049478 -0.069701 
-0.15898 -0.02087 -0.0090322 -0.035338 -0.064768 -0.37732 -0.053917 -0.015938 
-0.070852 0.0024767 -0.019719 -0.051944 -0.056383 -0.55538 0.0036276 0.1151 
-0.0029489 0.029276 -0.0087034 -0.065426 0.01004 -0.26979 -0.015116 0.14585 
-0.026953 0.013164 -0.011992 -0.084498 0.014643 -0.062467 -0.059672 0.060679 
-0.056219 0.0021479 -0.0088678 -0.061316 -0.037147 -0.19252 -0.062138 -0.0026201 
-0.053753 0.04654 0.027961 -0.033859 -0.035996 -0.33112 -0.014458 -0.10538 
0.0088889 0.064954 0.052952 0.021713 0.016123 -0.24579 0.059035 -0.094692 
0.019083 0.073504 0.066434 0.031249 0.062159 0.06742 0.095206 -0.064275 
0.050979 0.07301 0.094384 0.072681 0.12661 0.27409 0.11855 0.018754 
0.093398 0.091589 0.061008 0.086821 0.1493 0.30467 0.042594 0.01826 
0.11625 0.091096 0.07597 0.11905 0.14272 0.24186 -0.05589 0.011848 
0.093398 0.090274 0.053938 0.17018 0.14091 0.19681 -0.071345 0.063968 
0.10606 0.052787 0.047033 0.14157 0.16689 0.10967 0.041936 0.093233 
0.11477 0.0689 0.020233 0.13056 0.14765 0.08419 0.10951 0.14864 
0.13812 0.040292 0.018425 0.11691 0.070708 -0.037147 0.15801 0.21062 
0.083697 0.071859 0.043251 0.078272 0.021549 -0.04619 0.1493 0.22592 
0.0016547 0.011684 0.047033 0.067585 -0.00097594 0.03651 0.12694 0.13779 
-0.054575 0.0034632 -0.00031829 0.027139 -0.051944 0.11609 0.030263 -0.0021268 
0.025166 0.0070803 -0.0138 0.0028056 -0.12264 0.0093821 -0.011005 -0.061645 
0.10063 0.021056 -0.015938 -0.01528 -0.13185 -0.06444 -0.011663 -0.11393 
0.095042 0.035195 -0.0004827 -0.013143 -0.078744 -0.11278 -0.020212 -0.080717 
0.00050378 -0.0019624 0.010533 -0.0062372 -0.00064712 0.067749 -0.052437 -0.10291 
-0.0004827 0.005765 0.022371 0.0014903 0.065776 0.32456 -0.060823 -0.080223 
-0.083676 0.0013258 0.036017 0.064132 0.10162 0.47122 -0.01676 -0.11113 
-0.097816 0.074654 0.053609 0.051308 0.15292 0.51709 -0.024487 -0.048327 
-0.084334 0.10836 0.05772 0.025001 0.13812 0.35761 0.0095465 -0.015444 
-0.055397 0.16048 0.071859 -0.016924 0.0019835 -0.16276 -0.05737 -0.0070593 
0.053445 0.068242 0.063803 0.020562 -0.069701 -0.42927 -0.043066 -0.0039354 
0.15768 0.049006 0.096686 0.12809 0.00050378 -0.27209 -0.010348 -0.012814 
0.25091 0.018918 0.10096 0.12694 0.11543 0.0034632 0.056569 0.029605 
0.32325 0.031085 0.0689 0.11658 0.11083 0.0069159 0.1077 0.15275 
0.19895 0.00017495 0.021878 0.055582 0.037661 -0.24858 0.14946 0.26866 
0.016123 -0.025309 -0.021034 0.021549 -0.029091 -0.57971 0.057062 0.26439 
-0.019061 0.0067515 -0.017417 0.01563 -0.047341 -0.70697 -0.022021 0.11987 
-0.087786 0.029112 -0.011827 -0.0014692 -0.035174 -0.55308 -0.023501 -0.085978 
-0.30448 0.010369 -0.02235 -0.0060728 -0.085485 -0.21882 -0.036818 -0.24447 
-0.33506 -0.069536 -0.040764 -0.058028 -0.079895 0.18859 -0.023994 -0.21866 
-0.11294 0.04654 0.024344 -0.011663 0.052623 0.64616 0.037004 -0.14254 
0.10589 0.16656 0.097837 0.040128 0.13039 0.78903 0.058706 -0.028926 
0.21589 0.16015 0.062817 0.0092177 0.065118 0.61344 -0.0072237 0.0592 
0.19007 0.048513 0.030427 0.039141 -0.015116 0.38474 0.025988 0.053445 
0.13401 0.044238 0.033551 0.033058 0.024673 0.21523 0.093891 0.048184 
0.11395 0.035688 0.055582 0.068078 0.051636 0.053609 0.1151 0.076627 
0.077778 0.074161 0.062652 0.039799 0.079751 0.020398 0.073832 0.075641 
-0.032543 0.043909 0.06331 0.016781 -0.01117 -0.060329 0.044896 0.036346 
-0.14632 0.004943 0.038812 0.016288 -0.091239 -0.2014 -0.032543 0.0324 
-0.16276 -0.03501 -0.003771 -0.038627 -0.10916 -0.38143 -0.022021 0.033387 
-0.031886 -0.020377 0.013657 -0.024487 -0.074304 -0.27111 0.016452 0.06479 
0.070544 0.013657 0.035688 -0.046354 0.040456 -0.072003 0.070708 0.06331 
0.095864 0.024508 0.027139 -0.035667 0.15604 0.10655 0.024179 0.01826 
0.072188 0.057227 0.0093821 -0.011992 0.14815 0.11444 0.065447 0.01152 
0.080409 0.064954 0.035031 -0.015938 0.098823 0.083697 0.069393 -0.0057439 
0.041936 0.09422 0.038977 0.018096 0.0064227 0.049499 0.036182 -0.032215 
0.019083 0.07597 0.042265 -0.038462 -0.078086 0.08715 0.055418 -0.038627 
0.010369 0.082053 0.0067515 -0.049149 -0.1136 0.099316 0.094548 1.0539e-005 
0.011191 0.068078 0.010533 -0.026624 -0.088115 0.043087 0.041772 -0.0088678 
0.0085601 0.078929 -0.00081153 -0.023007 -0.095843 -0.10242 -0.12198 0.0059294 
-0.0040998 0.051801 0.019411 -0.010512 -0.092883 -0.18331 -0.24135 0.07597 
0.00050378 0.040292 0.014643 -0.045696 -0.02235 -0.1815 -0.1575 0.20487 
0.067091 0.035524 -0.028433 -0.0029489 0.071695 -0.014129 -0.021856 0.26422 
0.060515 0.0592 0.018754 -0.01232 0.064625 -0.016595 -0.08532 0.085341 
0.04358 0.035853 0.0062583 -0.009361 0.013657 -0.022514 -0.18084 -0.11376 
-0.039942 -0.0052507 0.020398 0.038648 -0.02087 0.03651 -0.10439 -0.25993 
-0.080717 -0.024816 0.041443 0.0088889 0.012177 0.38753 0.1881 -0.14582 
-0.041915 -0.018568 0.037826 0.025824 0.041607 0.56576 0.38474 0.018918 
0.060515 0.049499 0.040128 0.033551 0.067913 0.33081 0.34824 0.14305 
0.13697 0.088136 0.038812 0.010862 0.090274 -0.14796 0.15785 0.21704 
0.1978 0.15209 0.01711 0.028783 0.073668 -0.40691 0.10096 0.21605 
0.0324 0.037004 0.00017495 -0.032379 0.029934 -0.21291 0.08978 0.084519 
-0.11508 -0.030242 0.01563 -0.027282 -0.075127 0.16673 0.05065 -0.031228 
-0.070523 -0.042079 0.01563 -0.025309 -0.10735 0.33344 0.02681 0.01563 
0.062323 0.048348 0.053445 0.044731 -0.080223 0.22082 0.0032988 0.1179 
0.12792 0.11231 0.086657 0.10047 0.067091 -0.059836 -0.0055795 0.15686 
0.12332 0.17018 0.12349 0.13993 0.23973 -0.42763 -0.042079 0.1516 
0.072024 0.14289 0.10047 0.13467 0.23726 -0.62591 -0.12429 0.027303 
0.063639 0.048513 0.043745 0.041936 0.11724 -0.40001 -0.19285 -0.041257 
0.041772 0.01267 -0.010512 0.00066819 0.0014903 -0.011498 -0.12182 -0.067892 
0.05065 -0.0072237 0.00017495 -0.016595 -0.050629 0.19928 -0.023994 -0.047341 
0.031085 0.0060938 0.0014903 0.0070803 -0.06444 0.18925 0.072024 -0.034023 
0.031907 0.00066819 0.032893 0.075805 -0.09239 0.21474 0.057062 -0.036983 
0.06331 0.005765 0.022535 0.095699 0.014315 0.50279 0.05476 0.0080668 
0.068242 -0.0073881 0.037004 0.17856 0.1248 0.597 0.066598 0.064132 
0.08008 0.026646 0.040621 0.1613 0.16673 0.39641 0.15341 0.18942 
0.070051 0.012013 0.050814 0.12299 0.14798 0.14338 0.18383 0.21572 
0.019576 0.0039565 0.030427 0.084026 0.099645 0.0085601 0.17725 0.20372 
0.047033 0.0011614 0.005765 0.045224 0.069558 -0.093212 0.11329 0.13121 
0.15686 0.055911 0.021878 0.041607 0.038155 -0.22869 0.022864 0.090767 
0.23167 0.076134 0.026317 0.035853 0.065118 -0.26289 -0.045696 0.0069159 
0.14996 0.10589 0.029605 0.038155 0.024673 -0.22063 -0.14944 -0.11459 
0.063145 0.064954 0.038483 0.023522 -0.006566 -0.25138 -0.12067 -0.16506 
-0.046025 0.035524 0.052459 0.015137 -0.038462 -0.25516 0.031249 -0.15881 
-0.12231 0.05772 0.069064 0.042758 0.037168 -0.023007 0.19073 -0.12807 
-0.10176 0.10293 0.071695 0.042265 0.12792 0.20701 0.16475 -0.06707 
-0.15141 0.093069 0.06594 0.059693 0.12661 0.26981 0.05772 -0.0098543 
-0.1667 -0.0040998 0.033551 0.046704 0.0786 0.24943 -0.065591 0.095206 
0.0014903 -0.037805 0.012999 0.04654 0.032071 0.15933 -0.032379 0.19435 
0.099974 0.0047785 0.035524 0.082053 0.057555 0.096521 0.09274 0.18761 
0.013492 0.13138 0.076792 0.11642 0.10984 0.052294 0.18169 0.1641 
-0.13678 0.075148 0.06479 0.095206 0.050157 0.043416 0.11937 0.21293 
-0.15898 0.029769 0.027796 0.061008 -0.0050863 -0.018733 0.014643 0.24466 
0.10293 0.029441 0.02533 0.028125 -0.003771 0.029276 -0.046354 0.14897 
0.32128 0.092082 0.014643 0.0036276 -0.028926 0.086328 -0.019226 -0.15503 
0.3849 0.077121 0.0080668 -0.0036066 -0.0034422 0.12414 0.056404 -0.22557 
0.27064 0.025001 -0.0032777 0.023357 -0.010019 -0.0044286 0.032071 -0.14599 
0.15982 -0.028762 -0.0090322 0.0072447 -0.018075 -0.068386 0.0046141 -0.031557 
0.022371 -0.07414 0.00297 0.025166 -0.017253 -0.074798 -0.012485 0.035853 
-0.13826 -0.057041 0.018918 0.032893 0.022535 0.024508 -0.014787 -0.0072237 
-0.24102 -0.016431 0.030756 0.023357 0.07301 0.048841 -0.026953 -0.07825 
-0.16572 0.05065 0.017603 0.045882 0.12085 0.005765 -0.06 -0.10061 
-0.054082 0.026152 -0.023007 -0.010348 0.07301 -0.29363 -0.11968 -0.048163 
0.009711 0.037497 -0.025967 -0.049314 -0.0072237 -0.583 -0.10176 0.067585 
0.020069 -0.0088678 -0.0077169 -0.031557 -0.025145 -0.37765 -0.045861 0.12694 
0.068078 0.061172 0.040292 0.0028056 0.055254 0.25567 0.13088 0.15966 
0.09981 0.098494 0.041114 0.050486 0.082053 0.63218 0.23594 0.078765 
0.0014903 0.18695 0.090603 0.033551 0.081724 0.63991 0.27442 -0.028926 
-0.11804 0.20635 0.087479 0.062817 0.031742 0.34643 0.14157 -0.063946 
-0.054082 0.1909 0.067749 0.053938 -0.00064712 -0.076771 -0.032379 -0.013143 
0.011684 0.11263 0.023522 0.027139 -0.014787 -0.37715 -0.1256 0.076792 
0.044731 0.042923 0.0324 0.060022 -0.031064 -0.35595 -0.12264 0.1179 
0.05772 0.022371 0.041772 0.036839 -0.045861 -0.26683 -0.067235 0.030756 
0.082546 -0.004593 0.074819 0.071531 -0.021363 -0.077757 0.0024767 -0.089759 
0.18876 0.0018191 0.088958 -0.011005 -0.0406 0.084848 0.087479 -0.050464 
0.25025 -0.014622 0.087479 -0.062796 0.036675 0.24384 0.075805 0.018589 
0.20175 0.028947 0.084026 -0.024487 0.087972 0.13894 0.00066819 0.020069 
0.15012 0.046868 0.064132 -0.023829 0.0031344 -0.025638 -0.055397 -0.024323 
0.063968 0.036017 -0.0039354 0.0088889 -0.088773 -0.18084 0.020233 -0.042573 
-0.054575 0.013492 -0.049314 -0.0070593 -0.041422 -0.1986 0.10852 -0.035667 
-0.088444 0.044073 -0.086471 0.0046141 0.060844 -0.10242 0.22657 0.032564 
-0.15454 0.037497 -0.08121 -0.0090322 0.11674 0.052294 0.28642 0.083533 
-0.30531 0.032564 -0.054246 0.0075736 0.055582 0.23035 0.30648 0.058377 
-0.39343 -0.004593 -0.024816 0.03651 0.021878 0.5115 0.23775 0.05476 
-0.29824 0.0087245 0.021713 0.017767 0.01826 0.42354 0.064625 0.073175 
-0.067728 0.04358 0.054103 0.015959 -0.044381 0.025824 -0.27226 0.067091 
0.20388 0.049992 0.049664 -0.014951 -0.11475 -0.32224 -0.55916 0.015137 
0.37553 0.072024 0.075476 0.033387 -0.109 -0.43897 -0.60454 -0.036818 
0.35925 0.068242 0.1202 0.13582 0.011684 -0.37403 -0.36384 -0.021363 
0.23841 0.061172 0.090438 0.14387 0.17708 -0.083018 -0.027775 0.044896 
0.20865 0.033222 0.064132 0.11691 0.19912 0.058706 0.085506 0.063639 
0.20503 0.090931 0.095371 0.076463 0.10211 0.20471 0.15028 0.024344 
0.11066 0.11313 0.086985 0.050979 0.051965 0.3609 0.14733 -0.0406 
0.0046141 0.10244 0.1026 0.024508 -0.011334 0.33607 0.232 -0.070194 
-0.0049219 0.060022 0.047197 -0.056712 -0.039778 0.035195 0.25239 -0.012485 
-0.050629 0.072024 0.037497 -0.046519 -0.095349 -0.13152 0.24285 0.081067 
-0.12938 0.020398 0.023357 -0.041751 -0.057699 -0.057205 0.16311 0.07597 
-0.2106 0.012506 0.015465 0.0056006 0.046211 0.2121 0.16689 0.072846 
-0.14056 0.059857 0.026152 0.051801 0.09833 0.2976 0.15801 0.086328 
-0.017911 0.10836 0.049006 0.054925 0.10573 0.21391 0.091425 0.074326 
0.066598 0.091425 0.039141 0.093398 0.069393 0.0016547 -0.0024557 -0.029255 
0.13384 0.071366 0.035853 0.046375 0.046868 -0.065755 -0.016266 -0.11196 
0.16377 0.048348 0.011848 0.049664 0.017274 -0.064604 -0.063453 -0.041915 
0.12053 -0.0080457 0.0090533 0.0034632 0.0067515 -0.018075 -0.096172 0.058542 
-0.012485 -0.027447 -0.019555 -0.018733 -0.035996 -0.0503 -0.16588 0.10129 
-0.096665 -0.09091 -0.018733 0.00066819 -0.055726 -0.082361 -0.1575 0.080902 
-0.10768 -0.035996 0.011848 0.0042853 -0.044052 -0.10078 -0.11755 0.041278 
-0.02235 -0.0091966 0.050486 0.051143 0.025824 -0.052766 -0.062467 0.012342 
0.076627 0.064954 0.060022 0.044238 0.094713 0.0018191 0.025659 0.058706 
0.14141 0.041607 0.04095 0.026317 0.1248 0.12118 0.12825 0.12743 
0.18119 0.063639 0.021056 0.01974 0.077778 0.20947 0.20224 0.10655 
0.13088 0.054925 0.00017495 -0.034023 0.022206 0.19599 0.11839 -0.051287 
0.067749 0.083204 -0.013965 0.0041209 -0.0014692 0.046046 0.047197 -0.13382 
0.030263 0.084519 -0.0068948 0.022042 0.0052718 -0.095678 -0.00081153 -0.05885 
0.020891 0.090603 0.039963 0.052294 0.032236 -0.2037 0.038812 0.02533 
0.054596 0.087643 0.064625 0.055582 0.046375 -0.090417 0.028619 0.075312 
0.055747 0.053938 0.052294 0.030098 0.041114 -0.017911 0.029605 0.090274 
-0.017911 -0.0047575 0.013328 0.0041209 -0.012649 -0.04471 -0.043066 0.10885 
-0.11343 -0.064933 -0.025638 -0.044874 -0.092061 -0.14993 -0.076277 0.1054 
-0.085156 -0.033694 -0.0036066 -0.027611 -0.11886 -0.1353 -0.059507 0.062488 
0.1128 0.041278 0.040292 0.0056006 -0.062796 -0.048492 0.0047785 0.050321 
0.2246 0.13746 0.093069 0.050321 -0.01939 0.16459 0.095371 0.040456 
0.08978 0.10474 0.10441 0.074819 0.020891 0.2149 0.16278 0.049335 
-0.060329 0.033715 0.071531 0.052294 0.093233 0.1853 0.21605 0.070215 
-0.056548 -0.019226 0.03388 0.048348 0.14157 0.083368 0.14881 0.067585 
-0.0070593 -0.004593 0.016781 0.020069 0.16064 -0.0004827 0.04917 -0.0019624 
-0.0072237 -0.010019 0.046211 0.012506 0.12661 -0.098473 -0.02087 -0.02498 
0.025001 0.0059294 0.062159 0.023193 0.040292 -0.095843 -0.0073881 0.00099702 
0.096521 0.009711 0.073504 0.027139 0.073832 0.04095 0.027303 0.057391 
0.20076 0.076463 0.074161 0.072024 0.067256 0.15916 0.12644 -0.011005 
0.21819 0.18152 0.075476 0.070873 0.099152 0.18744 0.18563 -0.0073881 
0.20125 0.20438 0.094713 0.086821 0.11806 0.21293 0.17807 -0.023501 
0.089616 0.1225 0.019247 0.082711 0.035031 0.0786 0.061172 -0.001798 
-0.024158 -0.016266 -0.063124 -0.013636 -0.059507 -0.015938 -0.018075 0.047526 
-0.068221 -0.035667 -0.11015 -0.045532 -0.058356 0.052787 -0.085813 0.12414 
-0.032215 -0.040435 -0.060329 -0.035174 -0.0406 0.020891 -0.062467 0.16558 
0.014315 0.069064 0.0018191 0.041443 -0.05885 -0.10045 -0.0075525 0.16245 
0.025495 0.027796 0.048677 0.035853 -0.070359 -0.25072 -0.010676 0.06479 
0.017438 0.03799 0.069722 0.027303 -0.059178 -0.41776 -0.032708 0.0023123 
0.020727 0.016288 0.070544 0.094548 0.01152 -0.2471 0.037168 -0.0004827 
0.019411 0.068078 0.079422 0.10524 0.11888 0.27113 0.19188 0.054103 
0.0080668 0.053774 0.074654 0.097508 0.18218 0.59289 0.20684 0.065612 
0.017274 0.058213 0.057555 0.0689 0.17807 0.42239 0.15489 0.02829 
0.056569 0.04506 0.026152 0.0032988 0.095206 0.068736 -0.017253 0.025495 
0.041772 0.040621 -0.01232 0.022371 0.01267 -0.19794 -0.17032 0.00017495 
0.016123 0.065447 -0.015116 -0.00097594 -0.020212 -0.15503 -0.27472 -0.0095255 
0.025824 0.058542 0.0041209 0.013821 -0.028926 -0.044546 -0.15339 0.024344 
0.071695 0.082053 0.042923 0.0082312 -0.014129 -0.049478 -0.03616 0.049006 
0.054267 0.076463 0.071695 0.018918 -0.010019 -0.19926 0.055582 0.038812 
0.010862 0.060186 0.048677 0.039305 0.0046141 -0.23231 0.074654 0.019411 
0.012013 0.031414 0.064132 0.027468 0.054103 -0.090253 0.13088 0.024837 
0.026317 0.051801 0.035688 0.045553 0.058706 0.11115 0.11444 0.0024767 
0.029934 0.05213 0.025495 0.027139 0.070544 0.29365 0.074654 -0.0096899 
-0.0022913 0.050979 0.029769 0.04358 0.089452 0.42042 -0.019719 -0.02498 
-0.010019 0.023028 0.037497 0.051801 0.071037 0.32802 -0.11031 -0.00097594 
0.022371 0.043909 0.046704 0.061501 0.0046141 0.19862 -0.044381 0.027468 
0.058377 0.055747 0.059364 0.080409 0.023193 0.29711 0.075312 0.020891 
0.081724 0.052459 0.037004 0.026481 0.081889 0.36649 0.15867 0.029605 
0.059693 0.09126 0.081724 0.030427 0.15012 0.27623 0.083368 0.009711 
0.0064227 0.076463 0.068407 0.019247 0.1202 0.10458 0.042594 0.022864 
0.011026 0.055089 0.012342 -0.016266 0.017767 -0.17739 0.035195 0.085835 
0.0039565 0.028454 0.015465 0.021713 -0.060987 -0.31073 0.093398 0.16278 
0.027303 0.015301 -0.013143 -0.024816 -0.050793 -0.43404 -0.0095255 0.22197 
0.062981 -0.028269 -0.040435 -0.011663 -0.063782 -0.36219 -0.052273 0.17889 
0.1516 -0.016266 -0.028926 -0.02942 -0.055232 0.053116 -0.06148 0.055747 
0.16541 0.08008 0.025988 0.026974 -0.006566 0.40858 -0.019555 -0.066084 
0.035853 0.14354 0.045553 0.053938 -0.01232 0.23414 -0.1016 -0.16884 
-0.15487 0.051472 -0.0050863 -0.0016336 -0.065591 -0.37173 -0.10538 -0.1718 
-0.21817 -0.023007 -0.026789 -0.0057439 -0.077593 -0.94816 -0.12231 -0.11294 
-0.10965 0.02122 0.034209 0.019247 0.028454 -0.55702 -0.018568 -0.094363 
-0.041093 0.083862 0.064296 0.065118 0.15341 0.45083 0.11099 -0.12544 
-0.14615 0.073668 0.066763 0.054267 0.15785 0.92895 0.17528 -0.0032777 
-0.19712 0.036839 0.011848 0.0227 0.13582 0.67148 0.18892 0.058049 
-0.11442 0.024015 0.0070803 0.037826 0.10819 0.18728 0.095699 0.038319 
0.052294 0.037661 0.025659 0.0074092 0.042594 -0.10883 0.010204 0.043251 
0.20027 0.068407 0.051472 0.049006 -0.019719 -0.17624 -0.033859 0.075148 
0.24236 0.020727 0.048348 0.048677 -0.07973 -0.21734 0.013492 0.072024 
0.15275 0.047362 0.030592 0.030263 -0.072003 -0.29906 -0.003771 0.046046 
0.056569 -0.014458 0.011026 0.039141 -0.0047575 -0.14303 0.11559 0.039799 
0.047526 0.053281 0.017767 -0.00064712 0.060844 0.25354 0.24219 0.064954 
-0.0075525 -0.012814 0.0011614 -0.019884 0.012999 0.42831 0.25584 0.061995 
-0.063289 -0.015609 -0.015444 -0.040106 -0.015938 0.26209 0.095699 0.019083 
-0.086471 -0.043724 -0.014293 -0.042408 -0.056877 -0.24809 -0.06855 0.057227 
-0.023007 -0.022514 0.010204 0.0093821 -0.066413 -0.65025 -0.22425 0.15571 
0.013492 0.00066819 0.0016547 0.031742 -0.043724 -0.43207 -0.26864 0.081724 
-0.010019 0.083862 0.091096 0.12184 0.048348 0.11099 -0.18397 -0.018733 
0.032729 0.14042 0.082875 0.11888 0.15538 0.49424 -0.026624 -0.081539 
0.067585 0.14404 0.066434 0.10672 0.1544 0.34955 0.081889 -0.12527 
0.097179 0.14798 0.060844 0.060515 0.10244 -0.02942 0.061008 -0.094692 
0.074654 0.14864 0.070708 0.052952 0.097672 -0.051944 0.070051 -0.094692 
0.057884 0.11263 0.043416 0.010204 0.016123 -0.048327 0.12003 -0.026131 
0.1077 0.037497 -0.010841 -0.1113 -0.13316 -0.14977 0.17544 0.11691 
0.068242 -0.029584 -0.062302 -0.13514 -0.22096 -0.23477 0.14026 0.23562 
-0.055232 -0.11722 -0.068714 -0.12988 -0.21044 -0.17673 0.16327 0.23562 
-0.081868 -0.11064 -0.057863 -0.083512 -0.19219 0.0227 0.10408 0.14716 
-0.0096899 -0.06148 0.012999 0.021713 0.016288 0.45297 0.051636 0.0074092 
0.14091 0.031907 0.0421 0.06035 0.20553 0.49046 0.011848 -0.20057 
0.17922 0.05624 0.0786 0.11444 0.30335 0.40052 0.060022 -0.22228 
0.037004 0.057555 0.05065 0.07301 0.23315 0.40496 0.062159 -0.10094 
-0.032708 0.048677 0.026646 0.062159 0.14223 0.28724 0.034537 0.03799 
0.071695 0.076134 0.055089 0.091589 0.16459 0.14683 0.053938 0.12875 
0.061172 0.10852 0.097015 0.076956 0.20355 -0.17525 0.06594 0.20388 
-0.10752 0.059857 0.050814 0.077778 0.1567 -0.58958 -0.037476 0.2001 
-0.21307 0.045882 0.01974 0.050321 0.051965 -0.62739 -0.072989 0.1932 
-0.17164 0.043745 0.021878 0.039634 -0.038956 -0.39277 -0.0062372 0.11839 
0.042594 0.091918 0.0088889 0.055911 -0.10587 -0.15158 0.017932 0.020727 
0.17939 0.082875 0.034209 0.040621 -0.12429 0.021549 -0.0073881 -0.081703 
0.24581 0.098001 0.055747 0.08863 -0.098309 0.15653 -0.031886 -0.18265 
0.19484 0.040621 0.036675 0.075641 -0.070194 0.21079 -0.075949 -0.34624 
0.12431 0.0019835 -0.013636 0.042594 -0.019061 0.24433 -0.09946 -0.19778 
0.078272 -0.054246 -0.051122 -0.0022913 0.019411 0.32226 0.034537 0.15456 
0.069229 0.031742 0.037168 0.016452 0.14141 0.34298 0.11773 0.30072 
0.082546 0.086492 0.10425 0.098001 0.21326 0.27869 0.12875 0.25995 
0.0098754 0.066269 0.11115 0.078107 0.25239 0.12118 -0.091897 0.13812 
-0.0771 0.070051 0.065447 0.069722 0.12201 -0.076771 -0.086636 0.12924 
-0.13464 0.026974 0.025659 0.026974 0.019247 -0.094199 -0.00064712 0.044896 
-0.047834 0.046704 0.016945 -0.0019624 0.0072447 0.020562 0.092576 -0.039284 
0.11921 0.055747 -0.00015387 0.02122 -0.0080457 0.0036276 0.12776 -0.059507 
0.27557 0.057555 0.015794 -0.020706 -0.035338 -0.10308 0.062652 -0.029584 
0.33443 0.061666 0.085835 0.047855 -0.015609 -0.21258 -0.026789 -0.023829 
0.23233 0.10145 0.10211 0.069886 0.076627 -0.11524 -0.010512 -0.0040998 
0.11198 0.11313 0.098659 0.053938 0.098494 -0.018897 0.017932 0.011191 
-0.027611 0.11773 0.063968 0.029605 0.061501 0.013821 0.091753 0.0059294 
-0.066248 0.061337 0.033715 0.019083 0.05065 0.076792 0.20734 0.090767 
-0.023501 0.065118 0.047033 0.08156 0.10096 0.12036 0.21243 0.1373 
-0.0082102 -0.013636 0.0072447 0.077943 0.092411 -0.017746 0.023522 0.065612 
-0.074304 -0.080881 -0.037476 0.033222 -0.0072237 -0.055068 -0.16342 0.08156 
-0.095678 -0.084334 -0.023007 0.021384 -0.064275 0.049992 -0.064111 0.058377 
-0.040106 -0.031064 0.017767 0.037004 -0.036325 0.088465 -0.030899 0.049828 
0.061008 0.04654 0.047362 0.079751 -0.032708 -0.069372 -0.12873 -0.00081153 
0.11724 0.08715 0.066927 0.064954 -0.087951 -0.3834 -0.35036 -0.099789 
0.1077 0.10343 0.079094 0.082875 -0.14352 -0.77356 -0.37962 -0.19498 
0.11461 0.12053 0.099152 0.046868 -0.12248 -0.66866 -0.16769 -0.17493 
0.12316 0.12217 0.077121 0.0324 0.030592 -0.016102 0.17314 -0.032543 
0.085177 0.082217 0.067585 0.071859 0.23479 0.71916 0.4727 0.12727 
-0.0026201 0.098988 0.042594 0.030427 0.28001 0.98847 0.49671 0.19961 
0.093398 0.13121 0.065118 0.068736 0.1932 0.69598 0.36682 0.20421 
0.19024 0.2149 0.081395 0.052952 0.04506 0.029112 0.10918 0.099152 
0.10721 0.15587 0.07449 0.031249 -0.012485 -0.24217 -0.075784 0.01826 
0.040456 0.073997 0.014808 -0.038462 -0.051122 -0.15865 -0.15783 -0.034845 
0.088958 -0.032872 -0.0039354 -0.10225 -0.055232 -0.13481 -0.15931 -0.063289 
0.076792 -0.058192 -0.018897 -0.045861 -0.06855 -0.19367 -0.17016 -0.051615 
0.058871 -0.10028 -0.010676 -0.035996 -0.05178 -0.15585 -0.18495 -0.05885 
-0.046354 -0.094527 0.01563 -0.029255 -0.052602 -0.16128 -0.13382 -0.027775 
-0.31533 -0.11327 0.030263 -0.013636 -0.048327 -0.2009 -0.088608 0.05065 
-0.44276 -0.1279 0.0227 -0.029913 -0.063453 -0.19334 -0.021034 0.12266 
-0.2693 -0.036983 0.01004 0.00033937 -0.042079 -0.16259 0.12365 0.17511 
-0.020048 0.041443 -0.0042642 -0.048327 -0.027118 -0.021199 0.19451 0.18103 
0.14601 0.1031 -0.004593 -0.038298 -0.0077169 0.18267 0.23019 0.14437 
0.14091 0.092576 -0.028269 -0.052766 -0.015444 0.16771 0.12003 0.054432 
0.08304 0.065776 0.0082312 -0.041257 0.0041209 0.16656 0.033551 -0.038298 
0.041443 0.045882 0.00099702 0.02122 0.025166 0.17117 0.094877 -0.065097 
0.14058 0.10935 0.03092 0.013657 0.01974 0.17708 0.10622 -0.038298 
0.09981 0.11346 0.0786 0.044896 0.073339 0.15637 0.09274 -0.087786 
0.068078 0.18202 0.11691 0.041114 0.077121 0.10228 0.060515 -0.095514 
0.044731 0.15176 0.08863 0.0324 0.059035 0.067585 -0.042901 -0.094034 
0.025824 0.10754 0.074161 0.03947 0.04358 0.13039 -0.05326 -0.023665 
-0.038956 0.034209 0.02533 0.015794 0.071531 0.13861 0.027796 0.058871 
-0.073647 -0.039613 -0.015444 0.018589 0.045224 0.089452 0.017274 0.16952 
-0.055232 -0.071509 -0.025638 -0.018897 0.0065871 0.0060938 0.0083956 0.22575 
-0.015116 -0.086471 -0.043888 -0.0049219 -0.00081153 -0.00097594 -0.028104 0.1419 
-0.077264 -0.088773 -0.041422 -0.026953 -0.039613 -0.019555 0.020233 0.029112 
-0.076113 -0.1108 -0.036654 -0.029913 -0.062631 -0.022679 0.04358 -0.022679 
-0.0087034 -0.020048 0.020398 0.015301 -0.045532 -0.068879 0.10359 0.019905 
0.072681 0.033058 0.088958 0.027961 -0.026624 -0.0026201 0.10672 0.061995 
0.099316 0.11806 0.10737 0.049499 0.0069159 -0.035338 0.088301 0.056404 
-0.0016336 0.1008 0.10014 0.03651 -0.019555 -0.069865 0.047033 0.045882 
-0.13152 0.088794 0.058871 0.0036276 0.051472 0.049992 0.058871 0.034044 
-0.14615 0.055747 0.068078 0.064461 0.1756 0.2856 0.073339 0.049828 
-0.076277 0.05213 0.0054362 -0.0029489 0.1738 0.24038 0.040621 0.064625 
0.062159 0.018589 -0.062138 0.015794 0.082382 0.020891 0.016616 0.086328 
0.07038 0.11231 -0.038133 0.039141 0.012835 -0.14648 0.01563 0.0036276 
-0.016102 0.12792 0.011848 0.052294 0.013986 -0.14171 0.0024767 -0.059507 
0.033551 0.051965 0.0018191 0.059528 0.094384 -0.085813 -0.074798 -0.06444 
0.1562 0.083533 0.0227 0.075476 0.1904 0.10852 -0.033201 0.028947 
0.27869 0.1442 0.047033 0.11411 0.14223 0.064132 -0.0049219 0.10984 
0.28182 0.13762 0.0324 0.090274 0.015959 -0.12067 0.069393 0.1202 
0.11757 0.034866 -0.0060728 0.070544 -0.021199 -0.11442 0.087972 0.075148 
-0.044381 -0.0078813 -0.023829 0.04654 0.0065871 0.26768 0.13171 -0.026624 
-0.08384 -0.050958 -0.010512 0.050321 0.067913 0.6381 0.095699 -0.069043 
-0.013143 0.014315 0.0069159 0.096521 0.029934 0.49901 0.094877 -0.024652 
0.10556 0.033551 0.045718 0.070708 -0.015444 -0.15799 0.031249 0.0088889 
0.070708 0.054103 0.057062 0.057062 -0.056712 -0.51871 0.044238 0.035524 
-0.055726 0.021713 0.056733 0.027468 -0.017746 -0.13908 0.13401 0.050157 
-0.072825 0.040621 0.14568 0.051965 0.054925 0.3757 0.20405 0.030592 
0.025001 0.085835 0.23118 0.10787 0.048513 0.28987 0.1271 0.0087245 
0.12973 0.074819 0.18629 0.068242 -0.00015387 -0.07266 -0.038627 0.037168 
0.1373 0.076792 0.10606 0.067091 1.0539e-005 -0.25384 -0.10867 0.10967 
0.046704 0.065118 0.01152 0.015959 0.021549 -0.1792 -0.082032 0.1493 
0.042923 0.066927 -0.056383 -0.013636 0.0072447 -0.1478 -0.047341 0.052623 
0.1197 0.049992 -0.05441 0.016616 0.020727 -0.047505 -0.064604 -0.034352 
0.13499 0.06183 -0.056877 0.018425 0.035853 -0.0014692 -0.017417 -0.043066 
0.16377 0.051636 -0.03501 0.063803 0.004943 -0.0040998 -0.012156 -0.042737 
0.15078 0.10918 -0.0054151 0.045389 -0.034352 -0.26618 0.0032988 0.027303 
0.11921 0.059528 -0.015773 0.076956 -0.01939 -0.41727 0.016945 0.072681 
0.053609 0.069064 0.032071 0.1077 0.026646 -0.35233 0.10819 0.18925 
-0.061809 0.028454 0.044073 0.078929 0.04095 -0.17821 0.062488 0.20405 
-0.054739 0.0051074 0.038319 0.069886 0.040128 -0.013307 0.038977 0.057391 
-0.036983 -0.0070593 0.0079024 0.03947 0.040621 0.29053 -0.050629 -0.1478 
-0.014129 -0.013636 -0.0042642 0.033058 0.15949 0.73823 -0.060494 -0.18331 
-0.065919 -0.059507 0.010862 0.033058 0.26817 1.1545 -0.0040998 -0.22524 
-0.06 -0.051122 0.031578 0.034866 0.2366 1.1636 0.074161 -0.13974 
-0.026953 0.00050378 0.071366 0.065447 0.11592 0.66326 0.12661 0.082546 
0.062817 0.05476 0.078765 0.030427 0.015959 0.096521 0.10737 0.21079 
0.11855 0.10852 0.070708 0.022371 -0.049314 -0.12445 0.081395 0.2024 
0.16771 0.098823 0.039634 -0.00031829 -0.081868 -0.3663 0.046211 0.18646 
0.15061 0.11214 0.064296 -0.00031829 -0.11639 -0.52759 0.072024 0.14963 
0.14091 0.034537 0.050321 0.024837 -0.09946 -0.3936 0.055254 0.097837 
0.087479 0.045553 0.03651 -0.010019 -0.070852 -0.41316 0.0056006 -0.065097 
-0.081374 0.084684 0.066598 0.055089 -0.0004827 -0.49603 -0.02235 -0.20485 
-0.17723 0.11444 0.079587 0.054267 0.055254 -0.25138 -0.047341 -0.20173 
-0.11212 0.049828 0.056569 0.055254 0.052294 -0.10275 -0.13152 -0.053424 
-0.01676 0.013821 0.043251 0.046868 0.015301 -0.094199 -0.15125 0.042594 
0.035524 -0.012978 0.016616 0.012013 0.005765 0.051965 -0.073318 0.09833 
0.031907 -0.028104 -0.021199 0.018589 -0.026296 0.27294 0.047033 0.097837 
0.018918 -0.0080457 -0.038791 -0.038298 -0.0138 0.33492 0.075148 0.07038 
0.014972 0.0037921 -0.0024557 -0.0095255 0.00066819 0.2463 0.029276 0.066927 
0.010369 0.061666 0.057227 -0.01676 0.019411 0.051965 -0.010183 0.069064 
0.045389 0.075641 0.074983 -0.0014692 0.054267 0.032071 -0.036983 0.048348 
0.069229 0.11115 0.043745 0.016123 0.055582 0.055089 -0.011827 0.043416 
0.021878 0.058213 0.00033937 -0.035338 0.025495 0.059693 -0.016266 -0.0042642 
-0.014458 0.062817 -0.0050863 -0.042737 0.050157 -0.016431 0.033551 -0.020212 
-0.023007 0.016123 0.0079024 -0.04323 0.081889 -0.033365 0.0052718 -0.041093 
-0.018568 0.024673 0.030098 -0.018075 0.086163 0.095535 0.071531 -0.014293 
0.10622 0.014643 0.028947 0.0074092 0.051636 0.18054 0.13269 0.021549 
0.16689 0.041607 0.052459 0.027796 0.058213 0.10524 0.20454 0.049499 
0.091589 0.051801 0.058706 0.098988 0.071202 0.0074092 0.15555 0.052459 
-0.018568 0.060022 0.070873 0.062159 0.049828 -0.090253 0.13516 0.060186 
0.018425 0.090274 0.089452 0.048513 0.046046 -0.10258 0.051636 0.035853 
0.10655 0.11888 0.1128 0.051801 0.061501 -0.10258 -0.0027845 0.052459 
0.1054 0.10556 0.091425 0.049335 0.040128 0.016288 -0.1085 0.11115 
0.013986 0.048677 0.038483 0.068736 0.038155 0.20191 -0.1085 0.089287 
-0.070687 0.033715 -0.011827 0.01004 -0.018733 0.0592 -0.0406 -0.010676 
-0.21899 0.0092177 -0.076935 -0.004593 -0.090746 -0.39787 0.022371 -0.013143 
-0.1524 0.017603 -0.059507 0.0036276 -0.071509 -0.41941 0.076134 0.034373 
-0.034845 0.030592 -0.0031133 0.050157 -0.019061 -0.049149 0.13894 0.063145 
-0.044052 0.027796 0.0064227 0.057391 -0.019719 0.18119 0.12365 0.018918 
-0.060658 -0.034845 -0.0022913 -0.00031829 -0.023336 0.12875 0.040292 0.0092177 
0.066763 0.02533 0.04506 0.034537 0.022206 0.0087245 -0.071181 -0.00064712 
0.21983 0.08008 0.083862 0.048513 0.059364 -0.26174 -0.38061 -0.068057 
0.27244 0.11921 0.086821 0.039634 0.053281 -0.41596 -0.51888 -0.15881 
0.2486 0.10145 0.059693 0.022535 0.044073 -0.29544 -0.31386 -0.15487 
0.15867 0.080902 0.048677 -0.010183 0.078929 0.15341 0.15653 -0.040435 
0.0046141 0.060186 0.036839 0.02122 0.14223 0.65767 0.45577 0.096686 
-0.038627 0.028619 0.036675 0.022535 0.11148 0.7282 0.49095 0.13762 
-0.030077 0.062652 0.034044 0.033551 -0.0042642 0.28034 0.37603 0.15883 
0.059857 0.048677 0.032236 0.03947 -0.085649 -0.033365 0.27129 0.26948 
0.091753 0.073668 0.012506 0.0098754 -0.054904 -0.060329 0.19287 0.38145 
0.095206 0.054267 0.018589 0.068242 0.0085601 -0.064604 0.11674 0.31848 
0.12085 0.09126 0.052952 0.058049 0.038648 -0.21636 0.053116 0.13615 
0.15061 0.058706 0.053609 0.075312 0.044896 -0.24398 -0.10341 -0.061316 
0.080573 0.065118 0.023193 0.028619 0.073997 -0.19761 -0.25121 -0.21241 
-0.014622 -0.0040998 -0.023336 0.013492 0.045882 -0.14287 -0.30531 -0.28147 
-0.11705 -0.015444 -0.041751 0.01152 -0.050629 -0.24924 -0.31632 -0.2231 
-0.14451 -0.018568 -0.05178 -0.031886 -0.1187 -0.18134 -0.2083 -0.096994 
-0.18693 -0.019719 -0.0026201 0.020398 -0.099953 0.10145 0.013986 0.013164 
-0.19367 -0.013471 0.026646 0.034537 0.03092 0.45166 0.1641 0.062159 
-0.15339 -0.027282 0.011355 0.051965 0.14568 0.61804 0.23348 0.11329 
0.11346 0.025166 0.025824 0.08419 0.17528 0.35893 0.19501 0.12677 
0.27705 0.028947 0.053774 0.049499 0.16936 0.1105 0.24926 0.087972 
0.27771 0.038483 0.064296 0.077121 0.10293 0.047197 0.17725 0.094877 
0.16311 0.049335 0.044073 0.04095 0.031085 0.0082312 0.089123 0.03947 
0.051965 0.10589 0.01826 0.041936 -0.030899 -0.079895 -0.022514 -0.046354 
0.1174 0.13812 0.025988 0.046868 -0.041586 -0.079072 -0.01939 -0.028762 
0.15933 0.19402 0.04506 0.04095 -0.018568 -0.079566 0.005765 0.0034632 
