-0.29445 -0.13925 0.012835 0.017767 0.075476 0.10622 0.38704 0.036675 
-0.25335 0.16426 0.05624 0.039305 0.083697 0.061172 0.028454 -0.030406 
-0.051615 -0.075127 -0.010512 0.044731 0.055747 0.00066819 -0.32635 -0.077757 
0.12661 -0.25121 -0.0088678 0.043251 0.024837 -0.024323 -0.53269 -0.14204 
0.050321 -0.34378 -0.022021 0.0041209 -0.048656 -0.031886 -0.33786 -0.19005 
-0.10406 -0.51937 -0.069865 -0.048492 -0.095843 -0.041586 -0.088444 -0.12166 
-0.22195 -0.42664 -0.047012 -0.018075 -0.0965 -0.032215 0.019411 -0.030242 
-0.19696 0.17856 0.078765 0.0075736 -0.052931 0.0016547 0.052952 0.061008 
-0.18084 0.54718 0.17593 0.072517 0.013821 0.057555 0.056404 0.11313 
-0.11393 0.59864 0.13056 0.072353 0.065283 0.04917 0.035688 0.11822 
0.11362 0.51643 0.028783 0.06035 0.10195 0.078272 0.031578 0.11773 
0.4311 0.43949 -0.074962 0.062652 0.092576 0.056898 0.049664 0.11083 
0.87239 0.25354 -0.083676 0.0026412 0.02533 0.024837 0.083368 0.11099 
0.90725 0.054103 -0.009361 -0.0070593 0.012342 0.035031 0.0592 0.08156 
0.38737 -0.22902 0.035195 -0.0075525 0.042758 0.13565 0.05624 0.037826 
-0.054904 -0.3224 0.023851 0.0080668 0.03947 0.2491 -0.018404 0.05476 
-0.40938 -0.14862 0.035688 0.052952 0.043251 0.32571 0.017438 0.034209 
-1.1083 -0.022514 0.03388 0.017438 0.023193 0.12283 0.053938 -0.054575 
-1.4445 -0.099953 0.027961 0.016945 0.027139 -0.2231 0.04654 -0.10587 
-1.0138 -0.19268 0.043251 -0.024158 0.0016547 -0.4684 0.014315 -0.076935 
-0.33276 -0.17328 0.017274 0.00099702 -0.011334 -0.60076 -0.018075 -0.026789 
0.44064 -0.19054 -0.039613 0.015465 -0.040435 -0.73443 -0.058028 0.024015 
0.90067 -0.38225 -0.15783 -0.030406 -0.0052507 -0.46643 -0.077264 0.0098754 
0.76832 -0.79 -0.23527 -0.0095255 0.061666 0.14075 -0.0034422 -0.015609 
0.48043 -0.7262 -0.14796 0.026317 0.12727 0.7767 0.03947 -0.0019624 
0.33492 -0.21307 -0.0082102 0.079422 0.13861 0.98715 0.10129 0.016616 
0.25699 0.25041 0.095371 0.082217 0.094384 0.77457 0.11724 0.05065 
0.074983 0.3341 0.075312 0.043087 0.039799 0.41499 0.14798 0.034537 
-0.23773 0.42913 0.037332 0.047855 0.012177 0.15374 0.058706 -0.0024557 
-0.73919 0.52646 0.031907 0.020727 0.01415 -0.15931 -0.01117 0.0093821 
-1.1381 0.56543 0.074819 0.026317 0.0054362 -0.31188 -0.07414 0.0088889 
-0.86727 0.64418 0.10589 0.02829 0.024673 -0.32454 -0.033037 -0.00031829 
0.18037 0.80712 0.21128 0.054925 0.038648 -0.19844 0.029441 0.076792 
1.0986 0.75319 0.24811 0.08419 0.023851 -0.093376 0.10277 0.14897 
1.2486 0.47089 0.20914 0.052952 0.0013258 0.01826 0.13565 0.17314 
0.9329 0.1927 0.10803 0.029112 0.0031344 0.074819 0.1248 0.12908 
0.58598 0.004943 0.047691 0.012506 0.040456 0.15703 0.12612 0.047691 
0.33246 -0.03501 0.031578 0.038155 0.073175 0.16936 0.072188 0.053609 
0.13072 -0.18348 0.016616 0.094384 0.10836 0.14091 0.059693 0.11066 
-0.046354 -0.30859 -0.032872 0.055089 0.074819 0.044731 -0.018239 0.13549 
-0.364 -0.32947 -0.065919 0.034209 0.056404 0.05624 -0.15996 0.066598 
-0.79542 -0.34131 -0.094856 -0.025802 0.0227 0.039305 -0.17673 -0.070852 
-1.1652 -0.74347 -0.14928 -0.034516 0.024179 0.087643 0.0079024 -0.1838 
-1.291 -1.1389 -0.21406 -0.046354 0.045389 0.06331 0.097179 -0.23921 
-0.9457 -1.056 -0.22293 -0.035338 0.023522 0.038812 0.11198 -0.1547 
-0.27489 -0.34411 -0.0073881 0.033058 0.00066819 -0.040271 0.022864 -0.056712 
0.30368 0.35712 0.19879 0.053116 -0.0011404 -0.043395 0.031414 0.048019 
0.74168 0.75862 0.26932 0.0786 0.022371 -0.017253 0.025495 0.10704 
0.91169 1.0187 0.26537 0.061995 0.017932 0.04654 0.041772 0.13417 
0.78361 1.0268 0.21737 0.042265 0.033551 0.030098 0.12398 0.16097 
0.71702 0.78969 0.1613 0.079587 0.037168 0.038812 0.21506 0.18563 
0.4168 0.37241 0.077449 0.050321 0.033551 0.03651 0.23101 0.18284 
-0.20962 -0.049149 -0.017253 0.073832 0.061008 0.11674 0.22197 0.14371 
-0.60421 -0.25088 -0.049807 0.044238 0.083697 0.15489 0.16294 0.088794 
-0.48156 -0.33802 -0.10637 0.049006 0.071202 0.16442 0.037826 0.00083261 
-0.020212 -0.17197 -0.024816 0.060022 0.12266 0.16722 -0.067235 -0.033201 
0.35679 0.27524 0.069558 0.032729 0.09981 0.098823 -0.20288 -0.062302 
0.40052 0.54258 0.14026 0.061501 0.042923 -0.033365 -0.17821 -0.011663 
0.56099 0.43801 0.16442 0.029769 -0.0080457 -0.11163 -0.079072 0.093891 
0.55951 0.099481 0.12727 0.051143 -0.032708 -0.069208 0.058213 0.16344 
0.24581 -0.31681 0.036017 -0.022185 -0.0138 0.13039 0.0095465 0.08419 
-0.1381 -0.52414 -0.066084 -0.035832 -0.042901 0.10441 -0.19712 -0.050793 
-0.51592 -0.41612 -0.078086 -0.044381 -0.062796 -0.026789 -0.27012 -0.10209 
-0.88404 -0.095678 0.03947 -0.027282 -0.01117 -0.19975 -0.059014 -0.035667 
-0.899 0.12069 0.15555 0.049006 0.046375 -0.29018 0.093398 -0.024487 
-0.54223 0.24745 0.21128 0.074654 0.057884 -0.29659 0.16492 -0.024323 
-0.13136 0.13105 0.14206 0.062652 0.048677 -0.14961 0.19928 -0.062138 
0.30927 0.005765 0.073997 0.05065 0.046211 0.078436 0.23298 -0.014622 
0.71077 0.055911 0.045718 0.019247 0.037168 0.29069 0.22427 0.020233 
0.78591 0.20651 0.033551 0.038483 0.031578 0.34396 0.07449 0.047362 
0.58713 0.14321 -0.016924 0.013492 0.0044497 0.27376 -0.035996 0.082711 
0.44985 0.11543 -0.06444 0.016781 -0.0024557 0.12381 -0.11672 0.15127 
0.37948 0.20438 -0.072989 0.023686 -0.014293 -0.02498 -0.15043 0.1881 
0.30779 0.23496 -0.084334 0.0016547 -0.012156 -0.15026 -0.12248 0.18909 
0.16426 0.090109 -0.076935 0.015137 -0.009361 -0.20715 -0.055232 0.15604 
-0.039613 0.028125 -0.061316 0.012013 0.0013258 -0.22047 -0.082196 0.11066 
-0.19318 0.036182 -0.02646 0.018918 -0.011827 -0.28377 -0.052602 0.02533 
-0.23 -0.15914 0.04506 0.016781 -0.01676 -0.3127 -0.060494 -0.082032 
-0.30415 -0.40543 0.08715 0.029769 0.019905 -0.070523 0.016945 -0.17114 
-0.22113 -0.45755 0.084684 0.072024 0.063639 0.29628 0.070708 -0.16111 
0.040128 -0.13448 0.15094 0.060186 0.089616 0.46662 0.12102 -0.038462 
0.088794 0.16788 0.17807 0.093398 0.067749 0.42338 0.1516 0.082875 
0.036182 0.20651 0.14519 0.052294 0.068242 0.20142 0.083533 0.11313 
0.15472 0.29842 0.16048 0.047197 0.065118 0.0019835 0.00099702 0.10885 
0.13697 0.56296 0.13582 0.048348 0.017274 -0.13464 -0.019555 0.079094 
-0.10143 0.52318 0.098659 -0.0057439 -0.028104 -0.16144 -0.009361 0.00017495 
-0.10965 0.34643 0.017438 -0.009361 -0.042244 -0.13333 0.012177 -0.018568 
0.38194 0.33525 0.012999 -0.017253 -0.023336 -0.049478 0.047691 -0.01676 
0.8058 0.35153 -0.015609 -0.011005 -0.027447 -0.029091 0.025988 0.02829 
0.77276 0.32999 -0.024323 -0.010183 -0.022185 -0.011005 0.26455 0.065612 
0.56872 0.27031 0.031085 -0.011992 -0.0004827 -0.018733 0.46777 0.097344 
0.4487 -0.075291 0.040128 0.029441 0.037004 -0.0052507 0.27738 0.10918 
-0.044546 -0.63463 -0.039284 0.026646 0.060186 -0.023501 -0.10587 0.053281 
-0.89374 -0.76205 -0.069208 0.044073 0.072846 0.0052718 -0.24316 -0.045532 
-1.5376 -0.4102 -0.046519 0.0421 0.087479 0.046868 -0.20797 -0.068057 
-1.1116 0.014808 0.046046 0.066434 0.10211 0.069886 -0.0503 -0.064768 
-0.3127 0.13878 -0.014458 0.073668 0.058706 0.080902 -0.018239 -0.047341 
0.13664 0.16607 -0.070359 0.0019835 -0.015773 0.035853 -0.0087034 -0.085485 
0.49588 0.19994 -0.056383 0.026481 -0.051122 0.0034632 -0.025967 -0.034516 
0.71521 0.28806 0.012999 0.01974 -0.040764 -0.036325 1.0539e-005 0.036839 
0.6501 0.055582 0.052787 -0.0075525 -0.088608 -0.091239 0.027961 0.053116 
0.22263 -0.38899 0.020398 -0.008539 -0.048492 -0.090581 0.13483 0.044073 
-0.1233 -0.13645 0.073175 0.028947 0.011684 0.0044497 0.20668 0.091589 
0.013492 0.54422 0.25535 0.10178 0.091918 0.15308 0.22855 0.20717 
0.40414 0.83704 0.31207 0.10047 0.17758 0.43291 0.25584 0.23578 
0.5702 0.70979 0.22707 0.082875 0.13647 0.52827 0.19731 0.13105 
0.31716 0.35202 0.084026 0.033715 0.0421 0.20355 0.041114 0.047855 
-0.12133 -0.21011 -0.027775 -0.029255 -0.019555 -0.05178 -0.11278 -0.0054151 
-0.37107 -0.7193 -0.16703 0.0032988 0.0018191 -0.15059 -0.067399 -0.039613 
-0.49126 -1.094 -0.1935 0.0060938 0.071531 -0.29758 -0.028104 -0.09387 
-0.74725 -0.92383 -0.15224 0.0098754 0.070544 -0.52381 -0.055232 -0.25039 
-0.92219 -0.29544 -0.041586 -0.00015387 0.024015 -0.59648 -0.14023 -0.33046 
-0.47202 0.48914 0.1077 0.035031 -0.037969 -0.36581 -0.15684 -0.21126 
0.20701 0.86072 0.19057 0.083368 -0.049478 0.16508 -0.096829 0.03092 
0.81402 0.51035 0.064132 0.031249 -0.03057 0.68759 0.064461 0.1636 
0.7966 -0.0034422 -0.12971 0.022042 0.018589 0.89179 0.093891 0.078107 
0.3849 -0.037476 -0.2887 -0.046847 0.036017 0.51643 -0.040106 0.0041209 
0.10836 0.06742 -0.26289 -0.048985 0.058213 0.065447 -0.014293 0.058377 
-0.010841 -0.075949 -0.1039 0.010204 0.042923 -0.15585 0.13171 0.22049 
0.12036 -0.20912 0.03092 0.031907 0.046868 -0.35068 0.15259 0.26077 
0.24778 -0.16884 0.11411 0.077285 0.081889 -0.65666 0.035524 0.1225 
-0.11985 0.023851 0.12529 0.067585 0.022535 -0.5368 0.15982 -0.057699 
-0.60191 -0.086471 0.10244 0.052952 -0.084498 -0.27029 0.34462 -0.16588 
-0.88108 -0.36006 0.03651 0.031907 -0.096336 0.17265 0.39477 -0.15257 
-0.88174 -0.48665 0.0011614 0.023028 0.00033937 0.53452 0.18284 -0.0083746 
-0.76698 -0.24891 0.0054362 0.069393 0.11576 0.49292 -0.075784 0.0421 
-0.49635 0.10063 0.061666 0.088136 0.1345 0.16294 -0.27752 -0.0082102 
-0.085813 0.36649 0.09685 0.10244 0.095206 -0.12166 -0.2596 -0.052109 
0.36369 0.41253 0.070215 0.051965 0.056569 -0.21011 -0.20222 -0.02235 
0.62626 0.37997 0.0093821 0.0024767 0.070051 -0.015609 -0.17131 0.045553 
0.72935 0.33953 0.0324 0.042429 0.14667 0.25107 -0.12889 0.13286 
0.69877 0.21868 0.040292 0.044896 0.18991 0.3678 0.042758 0.23726 
0.6843 0.11395 0.016616 0.065118 0.13549 0.26998 0.21013 0.26784 
0.65241 -0.018897 -0.023829 0.020562 0.03388 0.12184 0.16508 0.17971 
0.41696 -0.12346 0.00297 -0.02087 -0.045696 0.036017 -0.020541 0.035688 
-0.059343 -0.15881 -0.031392 -0.017582 -0.11163 0.15653 0.081231 -0.14139 
-0.46692 -0.056219 -0.029913 -0.043888 -0.13596 0.041772 0.37833 -0.21208 
-0.57166 0.089287 -0.025474 -0.029091 -0.12757 -0.15832 0.25798 -0.19301 
-0.31632 0.36452 0.067913 0.025824 -0.031228 -0.18002 -0.054082 -0.10932 
-0.18643 0.45346 0.095206 0.034044 0.10228 -0.059178 -0.11163 -0.10176 
-0.36614 0.33706 0.13384 0.085012 0.15604 -0.11689 -0.070852 -0.024487 
-0.2545 0.096193 0.25041 0.091425 0.13779 -0.21356 -0.050136 0.08567 
0.034044 0.0016547 0.2394 0.088794 0.082217 -0.018568 0.087643 0.16097 
0.2269 -0.17624 0.12151 0.023686 -0.0029489 0.28708 0.21112 0.20882 
0.32769 -0.37189 0.0085601 0.020398 0.0042853 0.36632 0.12398 0.18711 
0.33624 -0.61079 -0.064111 0.009711 -0.001798 0.26307 -0.0868 0.10688 
0.20569 -0.40067 -0.083018 -0.0057439 -0.014458 -0.036325 -0.18413 0.01974 
0.12151 0.17182 -0.026296 0.0054362 -0.056877 -0.33506 -0.1182 0.057062 
-0.16736 0.21095 -0.013471 -0.02235 -0.041586 -0.46232 0.036675 0.13434 
-0.3663 -0.18249 -0.078908 -0.0067304 0.015465 -0.24086 0.1516 0.13121 
-0.11705 -0.32043 -0.10554 -0.016595 0.063803 0.11773 0.22476 0.096686 
0.29152 -0.018404 -0.015609 0.0095465 0.085012 0.35449 0.19632 0.020562 
0.5138 0.34002 0.09981 0.05213 0.072681 0.28773 0.10819 -0.062302 
0.51249 0.46152 0.12069 0.0092177 0.045882 0.079258 0.016945 -0.097816 
0.2075 0.25403 0.096521 0.020398 0.0227 -0.10324 -0.089924 -0.12067 
-0.41661 0.047362 0.061995 1.0539e-005 0.027961 -0.091568 -0.15552 -0.12774 
-0.98039 -0.077757 0.041772 0.00297 0.064132 0.065612 -0.17887 -0.12922 
-1.0243 0.0044497 0.058871 0.035524 0.073504 0.24449 -0.11903 -0.076771 
-0.41711 0.18218 0.11987 0.02681 0.056076 0.26801 -0.081868 0.00297 
0.28165 0.15242 0.091753 0.074654 0.049335 0.21671 0.018589 0.067749 
0.74415 -0.074304 0.048184 0.051801 -0.0032777 -0.021528 0.046375 0.12283 
0.94786 -0.035174 0.072517 0.041443 -0.030735 -0.056548 0.075476 0.21161 
0.86121 0.22148 0.14716 0.03799 -0.015938 0.064296 0.076627 0.22855 
0.61229 0.25337 0.16064 0.025988 -0.036325 0.067091 0.076792 0.17544 
0.27244 0.17297 0.12677 0.064954 -0.11426 -0.11294 0.099481 0.081395 
-0.015773 -0.006566 0.055582 0.0011614 -0.12642 -0.27045 0.13845 0.028454 
-0.22392 -0.1159 -0.015773 0.0052718 -0.10883 -0.55587 0.027139 -0.0029489 
-0.26223 -0.18841 -0.026624 -0.026789 -0.073318 -0.65205 -0.24086 -0.02646 
-0.00015387 0.025659 0.0082312 -0.011992 0.00297 -0.42368 -0.24497 0.036346 
0.20947 0.21835 0.022535 0.040292 0.10474 0.19139 -0.062631 0.052787 
0.17528 0.29941 0.047197 0.057062 0.2172 0.75911 0.11609 0.015301 
-0.014787 0.14979 0.017603 0.079751 0.18678 0.70831 0.1465 0.017767 
-0.073154 -0.02087 0.0014903 0.03536 0.05772 0.183 0.021878 0.036182 
0.097015 0.07301 0.061008 0.0083956 -0.086964 -0.25746 -0.13596 0.056569 
0.18087 0.21917 0.11806 0.02533 -0.1695 -0.52365 -0.078579 0.036839 
0.10704 0.23973 0.14338 0.042594 -0.13234 -0.47087 -0.050793 -0.0098543 
0.035524 0.1659 0.13203 0.069229 -0.001798 -0.28212 0.044731 -0.0057439 
0.15949 0.16179 0.09422 0.08008 0.082053 -0.1478 0.013986 0.010204 
0.24745 0.0037921 0.028947 0.055911 0.034209 -0.19433 0.023686 0.00017495 
-0.098473 -0.20584 -0.065755 0.018589 0.037004 -0.02235 0.058377 -0.011005 
-0.26239 -0.20584 -0.099295 0.0051074 0.098494 0.38852 0.16426 0.12151 
-0.19202 0.075805 -0.047669 0.036346 0.183 0.63218 0.2463 0.21539 
-0.1644 0.092247 0.019411 0.009711 0.27458 0.76289 0.25123 0.18514 
-0.077922 0.13516 0.086657 0.033715 0.24219 0.72787 0.14404 0.067913 
0.081889 0.26801 0.11691 0.031907 0.039141 0.42831 -0.0059084 -0.055068 
0.036675 0.28412 0.066269 0.01152 -0.077264 0.13762 -0.17361 -0.057205 
-0.0090322 0.061501 -0.033037 0.022371 -0.13793 -0.18907 -0.19301 0.016288 
0.16311 -0.067728 -0.10554 -0.0013048 -0.15618 -0.37452 0.038812 0.070708 
0.29875 0.042594 -0.029584 0.091589 -0.018733 -0.23609 0.1391 0.01826 
0.29661 0.27179 0.082217 0.12381 0.11526 -0.013471 0.11609 -0.018239 
0.1179 0.22937 0.07597 0.08715 0.12513 0.055911 -0.015609 -0.063946 
-0.035667 0.0023123 0.029605 0.065447 0.085012 -0.0016336 -0.078908 -0.088937 
-0.12231 -0.011005 0.039305 0.032564 0.038483 -0.099131 -0.16835 -0.038133 
-0.11952 0.070873 0.12102 0.080244 0.017932 -0.24464 -0.18874 0.12283 
-0.0075525 0.1299 0.1322 0.041936 0.021878 -0.30662 -0.060658 0.2103 
0.12809 0.14716 0.089616 0.032071 0.048184 -0.16325 0.12283 0.15982 
0.15801 0.27524 0.071859 0.032729 0.03947 0.1179 0.2001 0.054103 
0.1054 0.26685 0.06183 0.025001 0.070708 0.48059 0.25107 0.00017495 
-0.01117 0.12349 0.011848 0.045553 0.082053 0.55014 0.22756 -0.036983 
-0.19367 -0.18841 -0.049642 -0.0049219 0.062652 0.3558 0.20684 -0.037969 
-0.33474 -0.3543 -0.10817 -0.019884 0.062323 0.11609 0.16097 -0.043559 
-0.34213 -0.27078 -0.11343 -0.030735 0.039141 -0.049971 0.077614 -0.0057439 
-0.13119 -0.20666 -0.1011 -0.031392 0.047855 -0.053588 0.019576 -0.008539 
0.34018 -0.043066 0.0044497 0.060844 0.087643 0.029605 -0.035832 0.020562 
0.45149 0.13072 0.10244 0.070708 0.10704 0.068078 -0.020212 0.012177 
0.18613 0.12529 0.11806 0.086492 0.11263 0.060844 -0.035338 0.027961 
-0.047341 -0.10094 0.022206 0.0069159 0.089616 0.016781 -0.020048 0.034702 
-0.085978 -0.13234 -0.034023 -0.029584 0.065447 0.029441 0.077121 0.077614 
-0.098638 -0.06 -0.060987 -0.0036066 0.060515 0.11132 0.1881 0.10359 
-0.13464 0.051308 -0.045039 -0.0052507 0.069229 0.12201 0.15604 0.067256 
0.095864 0.092576 -0.019061 0.0093821 -0.011827 0.057884 0.062981 0.053938 
0.41516 0.10113 -0.02235 -0.014129 -0.08532 0.099481 -0.036325 0.0421 
0.07301 -0.079237 -0.050793 -0.027282 -0.11163 0.12184 -0.098144 -0.039449 
-0.55012 -0.25417 -0.061151 -0.018897 -0.091404 0.099152 -0.039942 -0.15421 
-0.60964 -0.21307 -0.011992 0.024508 -0.074798 -0.043066 -0.01232 -0.16884 
-0.19992 -0.036325 0.093891 0.098823 0.0011614 -0.34937 -0.0029489 -0.056712 
-0.0013048 0.13286 0.10556 0.073175 -0.0068948 -0.53746 0.031907 0.065776 
0.024508 0.10869 0.032071 0.00083261 0.049664 -0.39869 0.10655 0.15522 
0.1659 -0.011498 -0.021528 -0.037311 0.011191 -0.10406 -0.017911 0.14206 
0.26077 -0.11623 -0.035832 -0.051287 0.031249 0.072024 -0.21471 0.028454 
0.17758 -0.157 -0.015773 -0.0024557 0.099152 0.12414 -0.10932 -0.20501 
0.15801 -0.18561 -0.0054151 0.0060938 0.15242 0.2537 0.11592 -0.3446 
0.18695 0.075148 0.039141 0.053445 0.14881 0.41762 0.11658 -0.2665 
0.11181 0.15324 0.053774 0.035031 0.071531 0.54537 0.08978 -0.0077169 
0.0021479 0.023522 0.041443 0.031249 0.022371 0.4316 0.092247 0.30204 
-0.091568 -0.089266 0.066434 0.062488 -0.026789 -0.16358 0.037826 0.31618 
-0.056383 0.025001 0.10869 0.038319 -0.087293 -0.70993 -0.12231 0.16755 
0.059528 0.22164 0.13549 0.051143 -0.14106 -0.90574 -0.29199 0.043909 
0.20651 0.32062 0.14585 0.026152 -0.13366 -0.63578 -0.32684 -0.0098543 
0.35449 0.40496 0.13006 0.024837 -0.075127 -0.32997 0.035524 0.015137 
0.30911 0.39756 0.12431 0.036346 -0.009361 -0.034681 0.5041 0.021713 
0.13878 0.31782 0.10474 0.041936 -0.084827 -0.02087 0.57941 0.021713 
-0.046683 0.20306 0.063474 0.043087 -0.080881 -0.39047 0.13516 0.043416 
-0.13744 0.159 0.018754 0.021549 -0.062796 -0.4878 -0.2254 0.051965 
-0.121 0.074819 -0.0062372 0.02533 0.072846 0.07038 -0.24135 0.048019 
-0.20501 -0.10982 -0.038462 0.037661 0.15999 0.61278 -0.059672 0.039963 
-0.17805 -0.28623 -0.041915 0.031907 0.13631 0.85299 0.087972 -0.028926 
0.13664 -0.10538 -0.012649 0.054103 0.080902 0.68743 0.20635 -0.017417 
0.39822 0.06479 0.041114 0.041936 0.054596 0.34199 0.49818 0.13516 
0.36879 0.16706 0.040128 0.030098 0.043745 0.10556 0.42535 0.17676 
0.21391 0.28971 0.023522 -0.013965 0.034044 0.074983 0.00017495 0.11165 
0.066269 0.35482 0.041114 -0.030899 -0.01939 -0.00064712 -0.31336 -0.01939 
-0.027447 0.21621 0.069064 0.037004 -0.010512 -0.12692 -0.29741 -0.10357 
-0.084005 0.081231 0.11757 0.098823 0.023522 -0.15306 -0.14106 -0.041751 
-0.11179 -0.0011404 0.1738 0.17018 0.057884 -0.092719 -0.073647 0.037332 
-0.068714 -0.25417 0.12053 0.13335 0.068571 -0.10439 -0.14796 0.012999 
0.11757 -0.29215 0.085177 0.090931 0.019247 -0.20748 -0.22951 -0.013143 
0.1807 -0.2716 0.051636 0.026646 -0.075291 -0.376 -0.10702 0.013986 
-0.090253 -0.41004 -0.0014692 -0.018568 -0.1478 -0.42747 0.16097 -0.017582 
-0.40132 -0.39162 -0.034188 0.01004 -0.12708 -0.38587 0.41729 -0.10357 
-0.2864 0.057062 0.011684 -0.020048 -0.013307 -0.21965 0.40414 -0.059343 
0.031907 0.23364 -0.00097594 -0.017417 0.081395 0.049992 0.25699 0.039799 
-0.023007 0.14765 -0.021692 -0.021692 0.15028 0.30763 0.087479 0.12283 
-0.30054 0.17692 -0.026624 -0.0082102 0.079751 0.24351 -0.0503 0.10688 
-0.34822 0.30352 0.021384 -0.0072237 -0.051287 0.15982 -0.17986 0.047526 
-0.065262 0.29283 0.026481 -0.022021 0.038977 0.20142 -0.1649 0.094713 
0.39378 0.26455 0.016452 -0.022679 0.26389 0.49112 -0.045039 0.20355 
0.5457 0.30812 0.043745 0.0079024 0.3946 0.8326 0.12513 0.22542 
0.41943 0.34068 0.14354 0.080409 0.41384 0.81485 0.21161 0.12447 
0.25617 0.26192 0.16804 0.16689 0.28773 0.63399 0.17429 -0.01528 
0.18235 -0.032379 0.095864 0.14256 0.10655 0.28149 0.059693 -0.041915 
0.012506 -0.19597 -0.00081153 0.078929 -0.11623 -0.14254 -0.057041 -0.05885 
-0.11919 -0.25384 -0.0075525 -0.0027845 -0.2471 -0.35545 -0.13284 -0.012485 
-0.11212 -0.21504 -0.0040998 -0.0060728 -0.23921 -0.27851 -0.037805 0.094055 
-0.080881 -0.26239 -0.035503 -0.0044286 -0.12609 -0.018897 0.11017 0.13598 
-0.083183 -0.32109 -0.088608 -0.010841 -0.017746 0.052294 0.092904 0.10145 
-0.11064 -0.3377 -0.1108 0.00099702 0.011026 0.0011614 0.12464 0.05476 
-0.13053 -0.10439 -0.087293 -0.048656 0.027632 -0.0406 0.11773 -0.003771 
-0.096007 0.066927 0.023193 -0.025474 0.052787 -0.0771 0.0044497 -0.0098543 
-0.085649 0.084848 0.056898 -0.0050863 0.084026 -0.070852 -0.094199 -0.033201 
-0.06148 0.028619 0.040128 0.0060938 0.10984 0.0041209 -0.17065 -0.039449 
-0.16029 -0.078579 0.0037921 0.044402 0.095042 -0.19433 -0.26946 -0.074962 
-0.21537 -0.29939 -0.05326 0.014808 -0.0031133 -0.20814 -0.19383 -0.04323 
-0.1113 -0.28656 -0.043395 0.021878 -0.08828 0.15061 -0.076277 0.0062583 
0.11083 0.10244 0.036346 0.028619 -0.092719 0.57677 0.099645 0.044402 
0.15752 0.50904 0.11165 0.03092 -0.016924 0.57743 0.2754 0.03799 
0.14716 0.6677 0.15719 0.085177 0.043087 0.085177 0.19649 0.017438 
0.12151 0.37257 0.090274 0.022864 0.0031344 -0.66734 0.0044497 0.089287 
0.059693 0.020398 0.007738 -0.00081153 0.024508 -0.98976 -0.027447 0.12644 
0.03092 -0.11903 0.0052718 -0.024158 0.2029 -0.31928 0.093233 0.081889 
0.15587 -0.047341 0.0032988 -0.0098543 0.36353 0.81041 0.057555 -0.028433 
0.33657 -0.081374 0.010369 0.047033 0.33278 1.2839 -0.069701 -0.077428 
0.13927 -0.19597 0.0227 0.11428 0.13943 0.79413 -0.16194 -0.068057 
-0.24875 -0.093541 0.066927 0.1179 -0.076277 -0.16144 -0.12774 -0.003771 
-0.10669 0.16541 0.077943 0.061172 -0.2111 -0.67655 -0.011827 0.10622 
0.30598 0.5702 0.035195 -0.0050863 -0.19877 -0.69579 0.12118 0.15341 
0.41861 0.71209 0.022206 -0.051615 -0.11985 -0.35512 0.097179 0.22641 
0.39263 0.58056 0.051965 -0.016102 -0.016924 0.021056 0.09422 0.23118 
0.34528 0.3221 0.090438 0.049664 0.030592 0.15357 0.088136 0.072681 
0.27787 -0.026789 0.026317 0.012177 0.067913 0.15275 0.026974 -0.03616 
0.11625 -0.35282 -0.054082 0.017603 0.11346 0.17577 -0.045532 -0.065919 
-0.26963 -0.30185 -0.011005 -0.0004827 0.049006 -0.020377 -0.026624 -0.043724 
-0.46347 -0.052437 0.1008 0.026974 -0.069043 -0.16358 0.033058 -0.0098543 
-0.23987 0.18021 0.17807 0.082546 -0.085649 -0.13333 0.042429 0.042758 
-0.015444 0.073668 0.1197 0.059035 -0.075291 -0.08121 0.025495 0.051801 
0.22394 0.11691 0.040785 0.064296 -0.080223 -0.19877 -0.011992 0.10754 
0.27376 0.37866 0.040621 0.032893 -0.019226 -0.24858 -0.01676 0.059528 
0.34742 0.53189 0.037826 0.016452 0.029605 -0.33687 -0.050629 -0.061645 
0.24219 0.32687 0.042265 0.058871 0.044238 -0.35414 -0.023829 -0.15043 
0.038319 -0.047012 0.035853 0.054596 0.067913 -0.15569 0.06331 -0.19794 
-0.098802 -0.29561 -0.0031133 0.076134 0.059035 0.35514 0.30319 -0.067564 
-0.084498 -0.50457 -0.082032 0.0090533 -0.009361 0.66474 0.33607 0.13072 
-0.039449 -0.6001 -0.15635 -0.055726 -0.0068948 0.41302 0.086492 0.18761 
0.0079024 -0.41448 -0.098802 -0.059014 0.03799 -0.2379 -0.27834 0.12644 
-0.0064016 -0.10225 -0.0004827 -0.041915 0.039963 -0.69908 -0.36992 0.059693 
0.049828 0.058213 0.037497 -0.0014692 0.024015 -0.57889 -0.22935 0.10178 
0.025001 0.26143 0.061172 0.013821 0.049006 0.075641 -0.087293 0.049006 
0.022864 0.43291 0.12612 0.058871 0.083862 0.65717 0.036182 -0.004593 
0.10672 0.49424 0.13516 0.063968 0.086328 0.7453 0.34791 0.044731 
0.15061 0.37619 0.13697 0.094713 0.1179 0.15078 0.58943 0.086163 
0.12628 0.28445 0.11921 0.089945 0.1151 -0.35019 0.49753 0.0085601 
0.14552 0.18876 0.13516 0.087643 0.13631 -0.27736 0.31815 -0.016266 
0.15242 0.14206 0.12069 0.10918 0.10836 0.33755 0.20487 -0.00097594 
0.15111 0.10277 0.081889 0.05624 0.088958 0.66079 0.099316 0.010697 
0.067585 0.015137 0.043416 0.030427 -0.018404 0.34035 -0.084005 0.031907 
0.0021479 -0.039778 0.02122 -0.023172 -0.079895 -0.17197 -0.18907 0.032893 
-0.013636 -0.043066 -0.010183 -0.025802 -0.097816 -0.3788 -0.24842 0.036675 
-0.1159 0.05772 0.018425 0.0090533 -0.049478 -0.29922 -0.17509 -0.066577 
-0.26371 0.13878 0.027632 -0.0029489 0.0067515 -0.14895 -0.13514 -0.145 
-0.25828 0.11674 0.023028 -0.00081153 0.016781 -0.058356 -0.045696 -0.084498 
-0.14171 -0.13612 -0.026296 0.0046141 -0.0090322 0.1368 -0.0090322 0.013328 
0.054432 -0.36877 -0.075291 -0.02087 -0.030242 0.20125 0.037168 0.071366 
0.16294 -0.46561 -0.060494 -0.00097594 -0.03912 0.10326 0.054925 0.063474 
0.15653 -0.23806 0.02533 0.020727 -0.056219 -0.12642 0.069229 0.038648 
0.16015 0.098659 0.058542 0.10195 0.056898 -0.24266 0.045718 0.034373 
0.17051 0.20092 0.046704 0.091589 0.061337 -0.3497 0.01415 0.048677 
0.1151 -0.038956 0.017274 0.062159 -0.0055795 -0.20715 0.0039565 0.030756 
-0.023172 -0.3012 0.044731 0.078107 0.066434 0.24614 0.013328 0.00099702 
-0.032379 -0.10686 0.085835 0.086328 0.091753 0.43998 0.065283 0.037004 
0.025001 0.085835 0.072024 0.10096 0.12776 0.37619 0.10704 0.050321 
-0.0067304 0.040128 0.0052718 0.051143 0.18202 0.26176 0.19106 -0.0026201 
-0.15881 -0.32504 -0.11278 -0.035667 0.147 0.086657 0.28067 -0.027775 
-0.29495 -0.47547 -0.10538 -0.076606 0.1054 0.10474 0.30418 0.021549 
-0.3178 -0.22425 -0.017582 -0.073647 0.13384 0.39329 0.11674 0.010533 
-0.17739 0.29431 0.062652 -0.00031829 0.1373 0.58138 -0.053424 0.034373 
-0.12971 0.45116 0.10474 -0.0055795 0.058871 0.38786 -0.2522 0.076299 
-0.20222 0.38803 0.10063 0.0031344 -0.082361 -0.13843 -0.36071 0.034209 
-0.03501 0.31207 0.099974 0.017932 -0.2111 -0.5756 -0.24809 0.056569 
0.29267 0.25469 0.10326 0.038319 -0.2573 -0.7535 -0.1381 0.042429 
0.31585 0.20767 0.062817 0.062817 -0.19909 -0.5174 -0.097651 -0.042244 
0.23266 0.12118 0.069064 0.044073 -0.055397 -0.055561 -0.044381 -0.18611 
0.11411 -0.015116 0.009711 0.050321 -0.021363 0.22148 0.32456 -0.24842 
0.019576 -0.17328 -0.018075 0.015137 -0.012485 0.046046 0.54833 -0.1136 
-0.064111 -0.2185 -0.0054151 0.023522 0.034373 -0.040764 0.23874 0.076627 
-0.044217 -0.12955 0.020562 0.046868 0.12546 0.19254 -0.041422 0.19764 
0.0083956 0.0054362 0.041607 0.046868 0.25041 0.41746 0.031742 0.18678 
0.068571 0.059693 0.03947 0.083204 0.22115 0.36073 -0.053753 0.11362 
0.038319 0.089123 0.025659 0.045718 0.098494 0.17856 -0.24941 -0.0060728 
-0.062467 0.033715 0.0074092 0.027303 -0.025145 -0.13349 -0.36104 0.014808 
-0.092061 -0.031228 0.009711 0.005765 -0.0047575 -0.26913 -0.24727 0.095535 
-0.048327 -0.059014 0.024673 0.033222 0.1031 -0.069701 -0.048656 0.0689 
-0.031228 0.028125 0.030427 0.059528 0.18843 0.32325 0.19418 0.019576 
-0.0095255 0.08008 0.03388 0.035195 0.17347 0.56296 0.25978 0.01563 
0.032564 0.090767 0.054596 0.039305 0.071366 0.37487 0.1932 0.034373 
0.12546 0.14387 0.063145 -0.0039354 -0.063124 -0.046519 0.06742 0.033222 
0.13384 0.15176 0.065612 -0.0039354 -0.11639 -0.32832 -0.032543 -0.0059084 
0.037661 0.12677 0.037004 0.01152 -0.10423 -0.35775 -0.086471 -0.050793 
-0.042901 0.075641 0.012177 -0.013307 -0.05326 -0.218 -0.075784 -0.041586 
0.03799 0.10688 -0.0014692 0.0024767 -0.010183 -0.074633 -0.025474 0.035853 
0.080902 0.12381 0.0051074 -0.015609 0.0064227 0.016781 0.026152 0.064461 
0.057884 0.15966 0.0083956 0.016123 0.027303 0.069558 0.069722 0.063968 
-0.0064016 0.09833 0.035524 0.044731 0.043416 0.093891 0.056076 0.050157 
0.099974 0.12332 0.039799 0.059857 0.054267 0.095206 0.061995 0.056076 
0.2417 0.095864 0.06183 0.070215 0.050321 0.097015 0.014315 0.043251 
0.24104 0.12184 0.08863 0.061995 0.036675 0.078272 -0.044052 0.04358 
0.13582 0.13056 0.091096 0.051801 0.042923 0.06331 -0.095843 0.029276 
0.073504 0.16558 0.078272 0.049499 0.041772 0.070051 -0.019226 0.076299 
-0.0098543 0.12266 0.036017 0.019905 0.041443 0.027961 0.04917 0.09422 
-0.20551 0.048677 -0.0091966 0.036182 0.044402 0.028783 0.10359 0.055418 
-0.37124 0.027303 -0.03057 -0.015444 0.037168 0.21786 0.065612 0.015794 
-0.17558 0.092411 0.033551 0.042429 0.012506 0.31157 0.089287 0.034209 
0.14667 0.15604 0.067091 0.042758 -0.0039354 0.17593 0.072353 0.078272 
0.2953 0.20651 0.082546 0.066434 -0.020048 -0.087622 0.056733 0.078107 
0.29349 0.16886 0.054267 0.076627 -0.056055 -0.44259 0.037661 0.075476 
0.23973 -0.009361 0.046046 0.038319 -0.10784 -0.68855 0.056569 0.1179 
0.14897 -0.037476 0.03388 0.032893 -0.068879 -0.44292 0.048184 0.093398 
0.023686 -0.052109 -0.0024557 -0.0024557 0.03947 -0.082854 0.036182 0.052787 
0.0031344 -0.024158 -0.045532 -0.018239 0.12792 0.2024 -0.001798 0.010533 
-0.016102 -0.13168 -0.11689 -0.030242 0.14601 0.2343 -0.054575 -0.016924 
0.0024767 -0.1455 -0.071838 -0.016266 0.11477 0.19912 -0.050464 -0.039449 
0.0065871 -0.052273 0.018754 0.049335 0.18991 0.27771 -0.11623 -0.06444 
0.017932 0.044238 0.047197 0.039141 0.22904 0.024344 -0.1284 -0.014787 
0.046704 0.14141 0.05213 0.032564 -0.02646 -0.4569 -0.12346 0.078107 
0.15834 0.22855 0.052952 0.010862 -0.17493 -0.40149 0.11444 0.15768 
0.23167 0.29201 0.072188 0.0072447 -0.12166 0.23874 0.31651 0.14996 
0.22279 0.24992 0.10145 0.065283 -0.038956 0.63975 0.37701 0.10491 
0.05772 0.17856 0.086328 0.070873 0.037661 0.55392 0.23956 0.076627 
-0.025309 0.052787 0.078765 0.098494 0.071366 0.17774 0.1248 0.047691 
-0.035996 -0.0036066 0.079587 0.097015 0.031742 -0.23346 -0.016102 0.062323 
-0.027611 -0.13678 0.039799 0.10096 0.009711 -0.46298 -0.17558 0.025001 
-0.11935 -0.27768 0.01152 0.097015 0.013821 -0.2448 -0.16818 0.004943 
-0.19498 -0.34394 -0.022514 0.017932 0.033387 0.21112 -0.053753 -0.03501 
-0.20222 -0.16901 -0.031557 0.016945 0.00017495 0.14502 -0.037476 -0.073976 
-0.16572 -0.010183 -0.023336 -0.044052 -0.10373 -0.37403 0.0054362 -0.060823 
-0.083018 0.16015 -0.015444 -0.036654 -0.17936 -0.9651 0.1613 0.011191 
0.061008 0.18415 0.0051074 -0.028926 -0.1376 -0.89933 0.16821 0.084026 
0.16212 0.074161 -0.010676 -0.048327 0.017932 0.047691 0.12644 0.087972 
0.16623 -0.030899 -0.016102 0.026481 0.14535 1.0927 0.066105 0.040292 
0.10754 0.058542 0.012177 0.042594 0.19912 1.3206 0.0059294 0.020562 
0.096357 0.21112 0.040292 0.080244 0.17659 0.77983 -0.045368 0.052294 
0.097344 0.10754 0.051308 0.078107 0.25156 0.12398 0.23183 0.071202 
0.063474 -0.078579 0.045553 0.058213 0.23446 -0.32602 0.32555 0.060844 
0.016123 -0.23675 0.027468 0.071695 0.099645 -0.49997 0.019411 0.055911 
0.076299 -0.10587 0.03651 0.043251 -0.057863 -0.23346 -0.18808 0.086492 
0.1904 0.05772 0.05772 0.033058 -0.13086 0.041114 -0.16177 0.039799 
0.11263 0.071531 0.08419 0.031085 -0.078744 0.16886 0.025001 -0.068057 
-0.060987 -0.19252 0.007738 0.0075736 -0.047341 0.047033 0.09422 -0.15273 
-0.31665 -0.2813 -0.034516 0.016616 -0.03912 -0.041915 0.051143 -0.12774 
-0.32684 -0.145 -0.030899 -0.024158 -0.023172 0.033551 0.049992 -0.031064 
-0.12922 0.13746 0.020233 0.0064227 0.03799 0.2075 0.064625 0.060679 
0.049992 0.26751 0.022864 0.0019835 0.13828 0.20224 -0.0031133 0.14502 
0.15834 0.24367 0.053281 0.037168 0.19517 0.07449 0.043745 0.1756 
0.2218 0.19862 0.068736 0.044567 0.13697 -0.05178 0.10819 0.058377 
0.20619 0.19237 0.07038 0.035031 0.064132 0.083368 0.15456 -0.039613 
0.10474 0.15933 0.06183 0.060515 0.0034632 0.25617 0.10211 -0.090746 
0.020398 -0.034845 0.055089 0.049992 -0.093376 0.25748 0.029276 -0.06 
0.017438 -0.12609 0.044567 0.038483 -0.10817 0.03092 -0.023336 0.02829 
0.0031344 -0.05589 0.092247 0.083862 -0.062467 -0.19466 0.010697 0.11296 
-0.00097594 0.18037 0.11592 0.082382 0.0032988 -0.35052 0.021056 0.10244 
0.0059294 0.30319 0.10096 0.058871 -0.0034422 -0.255 -0.0027845 0.062488 
-0.0022913 0.2491 0.0024767 -0.021856 -0.089431 -0.12938 -0.060823 0.0041209 
-0.048492 0.08567 -0.091075 -0.063782 -0.090253 0.025659 -0.069536 -0.015609 
-0.1016 -0.078086 -0.089431 -0.065591 0.035853 0.21342 -0.010019 -0.015609 
-0.0868 -0.15388 -0.074798 -0.017253 0.22739 0.38359 0.04654 -0.0026201 
0.0056006 -0.035338 -0.016266 0.041772 0.23479 0.36402 0.11132 -0.013307 
0.094713 0.19385 0.053938 0.074983 0.13121 0.24005 0.12694 0.018754 
0.18613 0.17478 0.045224 0.07301 0.022042 0.031414 0.089616 0.024344 
0.28938 0.08863 0.04506 0.022042 -0.0098543 -0.047669 -0.032379 0.041278 
0.28247 0.19188 0.083204 0.034209 0.05624 -0.049314 -0.031557 0.0052718 
0.13467 0.32489 0.12891 0.074983 0.11987 0.1733 -0.09091 0.034044 
-0.011498 0.11559 0.087972 0.038812 0.067256 0.23973 -0.078086 0.10195 
-0.089431 -0.19909 -0.014787 0.044402 -0.034681 0.07038 -0.14961 0.097837 
-0.12478 -0.30728 -0.046519 -0.0040998 -0.12807 -0.27851 -0.0091966 -0.02087 
-0.13678 -0.23707 -0.035996 0.012835 -0.16506 -0.5733 0.0227 -0.071181 
-0.16851 -0.34049 -0.015938 -0.023007 -0.067892 -0.56113 0.019247 -0.061316 
-0.16621 -0.29495 -0.01528 -0.024323 0.010369 -0.1233 0.058213 -0.025145 
-0.14073 -0.17082 0.00017495 0.01415 0.045553 0.17018 0.053609 -0.063453 
-0.049971 0.040292 0.01974 0.007738 0.066927 0.29974 0.0034632 -0.035832 
0.11609 0.38178 0.092576 0.026317 0.079258 0.30779 -0.0004827 0.066269 
0.18646 0.55244 0.11888 0.02681 0.013328 0.074654 0.023357 0.1077 
0.092904 0.44903 0.074161 0.0090533 -0.066906 -0.1644 -0.093212 0.099481 
0.040456 0.1687 0.024837 0.0072447 -0.088608 -0.37189 -0.2282 0.10556 
0.11099 0.035688 0.017932 0.011026 -0.022843 -0.27538 -0.2134 0.081889 
0.12529 0.13812 0.072353 0.075312 0.12497 0.2879 -0.021528 0.054925 
0.21769 0.25058 0.1151 0.11181 0.18678 0.67592 0.09685 0.0227 
0.5046 0.1904 0.08978 0.13138 0.14634 0.52663 0.10178 0.021878 
0.62446 0.052623 0.074983 0.10228 0.060515 -0.021528 -0.014787 0.023851 
0.40611 -0.012485 0.060679 0.064954 0.015959 -0.45311 0.042758 -0.018733 
-0.0096899 0.076792 0.038319 0.043087 -0.013636 -0.49816 0.1276 -0.04323 
-0.28919 0.12398 0.037332 -0.033037 0.042429 0.11576 0.36649 -0.03501 
-0.46479 -0.014787 -0.0040998 -0.047834 0.034373 0.51808 0.56806 0.011026 
-0.50079 -0.21537 -0.039613 -0.050136 -0.034516 0.35153 0.53978 0.059035 
-0.40806 -0.32553 -0.023501 -0.047505 -0.093541 -0.055232 0.078765 0.093398 
-0.33622 -0.28459 -0.0068948 0.015794 -0.080552 -0.52776 -0.41333 0.024344 
-0.24349 -0.31714 0.016123 -0.00015387 0.030263 -0.73788 -0.56278 -0.061809 
-0.15865 -0.39902 -0.02235 -0.011005 0.12168 -0.20929 -0.47794 -0.037969 
-0.048163 -0.16375 -0.022021 -0.020212 0.16377 0.43702 -0.29002 -0.021856 
0.17807 0.17528 0.0044497 -0.0011404 0.092576 0.65487 0.038977 0.056404 
0.34758 0.29497 0.0088889 0.038977 0.0098754 0.38441 0.23808 0.066434 
0.41088 0.37718 0.053116 0.035524 -0.013471 -0.070687 0.16673 0.053609 
0.35465 0.37504 0.11165 0.09274 0.01974 -0.25795 0.10376 0.038977 
0.24564 0.23759 0.10787 0.08978 0.038155 -0.14467 0.095699 0.049335 
0.16656 0.14996 0.12168 0.06183 -0.042244 -0.074962 0.18021 0.10211 
0.12233 0.12085 0.095864 0.065612 -0.061809 -0.1085 0.13203 0.092904 
0.079587 -0.022679 0.047691 0.037004 -0.05441 -0.13563 0.045389 0.055911 
0.051801 -0.14714 -0.011827 0.033222 -0.028433 -0.10653 -0.015116 0.010862 
0.025824 -0.10571 -0.021034 0.018918 0.042923 0.058871 0.052294 0.020233 
0.14585 0.14469 0.037332 0.03947 0.1276 0.2999 0.11313 0.060022 
0.32867 0.3632 0.09422 0.0592 0.29546 0.49703 0.13187 0.082711 
0.35235 0.3706 0.16952 0.075476 0.32374 0.43604 0.087808 0.061337 
0.19122 0.28017 0.17791 0.10277 0.15604 0.16114 0.0095465 0.061172 
-0.041257 0.21786 0.12349 0.061501 -0.0042642 -0.15109 -0.025474 0.057555 
-0.23017 0.16969 0.075641 0.063803 -0.076771 -0.29199 -0.0059084 0.06594 
-0.40001 -0.027447 0.0036276 0.042429 -0.078086 -0.26289 0.032893 0.042923 
-0.71831 -0.31287 -0.066741 0.010862 -0.042737 -0.16638 0.02122 -0.067892 
-0.85889 -0.5687 -0.13168 0.012835 -0.022679 -0.099789 -0.0027845 -0.16079 
-0.51263 -0.67902 -0.15437 -0.034352 -0.0044286 0.10211 0.01004 -0.10012 
0.15801 -0.40954 -0.12938 -0.059836 -0.024158 0.14223 0.077614 0.026481 
0.71735 0.35547 -0.05178 -0.088444 -0.072496 -0.021692 0.039141 0.061995 
0.46958 0.73856 0.032071 -0.058356 -0.13744 -0.37041 -0.0024557 -0.01528 
0.069064 0.59733 0.14683 0.009711 -0.14139 -0.48649 0.034044 -0.020541 
0.058542 0.13319 0.14897 0.034702 0.017767 -0.13612 0.11263 0.021056 
0.29859 -0.20567 0.075641 0.063474 0.099481 0.13483 -0.0029489 0.086328 
0.30072 -0.15848 0.039634 0.068571 0.03536 0.16229 -0.11212 0.10047 
0.14486 0.11395 0.081889 0.10524 0.066927 0.19484 -0.11442 0.17133 
-0.016102 0.29974 0.11214 0.10688 0.18103 0.25765 -0.088115 0.26472 
-0.13563 0.24729 0.09981 0.11033 0.27672 0.44853 -0.051451 0.12529 
-0.20452 0.2537 0.049664 0.087643 0.30303 0.47632 0.017274 -0.08121 
0.087314 0.25518 0.028619 0.050157 0.20849 0.2833 0.2269 -0.11919 
0.18185 0.18498 0.0011614 0.046704 0.072024 0.12825 0.47073 -0.001798 
-0.062796 -0.133 -0.020048 0.052787 0.0036276 0.10491 0.41828 0.059528 
-0.23116 -0.26239 0.0014903 0.078765 -0.047012 0.0046141 -0.015773 0.046868 
-0.11804 -0.10373 0.04095 0.090109 -0.13037 -0.16243 -0.36186 0.087972 
0.091918 0.086163 0.041936 0.0067515 -0.22113 -0.25335 -0.42171 0.10885 
0.21901 0.13467 0.03388 0.017274 -0.23855 -0.24217 -0.22507 0.090438 
0.17445 0.10869 0.050157 -0.010676 -0.17854 -0.30711 0.038155 0.064296 
0.092576 0.10162 0.045224 0.020233 -0.12873 -0.53022 0.071531 -0.049807 
0.13401 0.044731 0.0065871 -0.028597 -0.031721 -0.35216 0.0042853 -0.16013 
0.13845 0.11494 0.059364 0.0060938 0.17774 0.28083 0.22378 -0.17772 
0.083862 0.1567 0.10869 0.10277 0.33689 0.80745 0.46152 -0.01528 
0.00033937 0.11905 0.11543 0.1174 0.39197 0.77752 0.43521 0.20142 
-0.0070593 -0.051451 0.1026 0.11526 0.31273 0.3244 0.20914 0.24449 
0.015794 -0.055068 0.075476 0.06331 0.05476 -0.20403 -0.096172 0.079258 
-0.11475 -0.039613 0.032071 0.0082312 -0.15289 -0.54469 -0.27489 -0.049807 
-0.32487 0.058049 -0.031392 0.0036276 -0.21011 -0.49635 -0.3104 -0.2037 
-0.24069 0.1008 -0.063782 -0.046025 -0.16523 -0.056219 -0.088937 -0.16095 
0.014315 0.089287 -0.096829 -0.02794 -0.036983 0.46415 0.062159 0.038977 
0.15292 0.053116 -0.10784 -0.018897 0.0079024 0.54274 0.10047 0.20191 
0.25584 0.029605 -0.085485 0.010862 0.037332 0.32012 0.041772 0.18267 
0.22279 -0.023007 -0.059672 0.034537 0.043416 0.062488 -0.06296 0.086492 
0.13582 0.038812 -0.017253 0.036839 0.031907 -0.030242 -0.099624 -0.014129 
0.16163 0.22789 0.095864 0.076463 0.15012 0.014643 0.22378 -0.023501 
0.22559 0.27409 0.16919 0.050321 0.18909 0.19599 0.5217 0.00050378 
0.24795 0.21786 0.16278 0.044238 0.089287 0.15028 0.34709 0.094713 
0.21062 0.12266 0.089616 0.010533 -0.058521 -0.038956 -0.059178 0.090438 
0.10178 0.10655 0.045389 0.00033937 -0.11738 -0.21126 -0.20945 0.049664 
-0.0090322 0.023851 0.062652 0.037004 -0.06148 -0.17624 -0.1741 0.027139 
-0.10521 -0.039778 0.06594 0.043087 0.0028056 -0.066084 -0.095021 0.019247 
-0.24053 -0.21258 0.015301 0.038319 0.015794 0.012506 -0.017253 -0.01528 
-0.38685 -0.62673 -0.0868 -0.0082102 0.020891 -0.0075525 0.014808 -0.064768 
-0.39771 -1.0363 -0.17591 -0.036654 0.00050378 -0.04471 0.0062583 -0.12675 
-0.13991 -0.64564 -0.1256 -0.0039354 0.025988 0.023686 0.03388 -0.1113 
0.099645 0.0070803 -0.040928 -0.0072237 0.043909 0.019576 0.15883 -0.027775 
0.232 0.44524 0.088136 0.078929 0.0044497 -0.18791 0.21358 0.092411 
0.21556 0.52367 0.11855 0.056898 0.0069159 -0.19498 0.20142 0.11263 
0.21391 0.3752 0.087643 0.035195 -0.0031133 -0.062302 0.076792 0.056733 
0.31371 0.24318 0.048019 0.036017 0.016123 0.049664 -0.13251 -0.051451 
0.31799 0.018754 0.01826 0.019576 0.051636 0.28494 -0.30021 -0.1376 
0.051801 -0.14336 0.0062583 0.020069 0.081067 0.548 -0.26568 -0.080223 
-0.064111 -0.092554 0.0011614 0.00297 0.15242 0.71521 -0.062796 0.1151 
0.03947 0.091425 -0.011498 -0.027282 0.1276 0.41779 0.047197 0.24038 
0.06035 0.031249 -0.066084 -0.036325 -0.0019624 -0.19581 0.032564 0.18004 
-0.090253 -0.047834 -0.068221 -0.047834 -0.073976 -0.67211 0.0021479 0.02533 
-0.15832 -0.041093 -0.00097594 0.030427 -0.047669 -0.69612 0.14058 -0.049149 
-0.12034 0.08304 0.077285 0.018425 0.0047785 -0.25828 0.28445 0.011191 
0.091918 0.23463 0.080902 0.035031 -0.010841 0.044073 0.1904 0.18235 
0.24219 0.31453 0.065447 0.014808 -0.010183 0.085835 -0.030735 0.21079 
0.20438 0.31338 0.067256 -0.0021268 0.012999 -0.020541 -0.121 0.064954 
0.10885 0.16574 0.070051 0.051472 -0.0096899 -0.11491 -0.051122 -0.059343 
0.020398 0.044073 -0.0027845 -0.012485 -0.043559 -0.17805 0.028454 -0.1404 
-0.067564 -0.10028 -0.0021268 0.017274 -0.076606 -0.09946 -0.033201 -0.08828 
-0.22573 -0.17032 -0.0029489 0.010204 0.024344 0.23446 0.004943 0.013986 
-0.50918 -0.32947 0.027303 0.01974 0.07449 0.84378 -0.16966 0.028783 
-0.41086 -0.49504 0.014808 0.020891 0.0056006 0.88439 -0.40872 -0.060329 
-0.044052 -0.49931 0.056569 0.011684 -0.040435 0.36106 0.05772 -0.095021 
0.16623 -0.37683 0.075805 0.062323 0.08156 -0.70335 0.40134 -0.022185 
0.33196 0.024673 0.12858 0.077614 0.24778 -1.7096 -0.060165 0.12398 
0.41022 0.56132 0.15061 0.095699 0.21638 -1.3845 -0.32947 0.19451 
0.32078 0.54751 0.065283 0.051965 0.082875 0.33081 -0.14287 0.061172 
0.21621 0.33509 -0.040106 0.0054362 -0.013471 1.2131 0.076134 -0.0022913 
0.060022 0.34429 -0.076442 0.012013 -0.083512 0.59075 0.12085 0.076956 
-0.21027 0.3119 -0.088444 -0.03353 -0.16457 -0.52562 0.097672 0.14568 
-0.15684 0.2634 -0.10735 -0.069208 -0.25171 -1.0838 0.1031 -0.014622 
-0.0032777 0.095371 -0.099295 -0.087293 -0.28656 -0.74988 0.12053 -0.1552 
-0.047176 -0.26256 -0.035667 -0.018568 -0.059672 0.53123 0.31897 -0.11426 
-0.34904 -0.63348 0.022864 0.11346 0.23348 1.4153 0.45922 0.056569 
-0.44637 -0.69414 0.012835 0.092904 0.23907 1.1082 0.33459 0.14206 
-0.20781 -0.40132 0.01974 0.082053 0.069558 0.11543 -0.051944 0.091589 
-0.050958 0.013328 0.068242 0.011026 0.014315 -0.40034 -0.2476 0.098001 
-0.047998 0.3101 0.14075 -0.0021268 0.20914 -0.35299 -0.1815 0.08567 
0.042923 0.62133 0.22723 0.021384 0.36205 0.089123 -0.18561 0.0070803 
0.27754 0.71159 0.25058 0.08715 0.36485 0.44278 -0.24661 -0.0075525 
0.47533 0.62347 0.21654 0.12546 0.29924 0.38836 -0.013965 0.047362 
0.38096 0.34446 0.11987 0.081889 0.014643 -0.1621 0.13154 0.098166 
0.22148 0.11115 0.024673 0.033058 -0.182 -0.43371 0.073339 0.06035 
0.086821 0.016616 0.01004 0.00033937 -0.22162 -0.29741 -0.026789 -0.006566 
0.0074092 -0.018568 0.015794 0.015465 -0.13218 -0.019719 0.035688 -0.02794 
-0.058356 -0.071674 -0.00064712 0.047033 0.0052718 0.16853 0.16771 -0.013636 
-0.12527 -0.12412 -0.045368 0.01267 0.081724 0.35893 0.28839 0.0052718 
-0.16605 -0.13464 -0.079566 0.024179 0.10293 0.30894 0.40299 0.019411 
-0.12626 -0.182 -0.087622 0.010697 0.030098 -0.0503 0.2121 0.049335 
-0.032379 -0.1473 -0.06296 0.0031344 -0.015116 -0.38406 -0.06444 0.072846 
0.10754 -0.062631 -0.0021268 0.03651 -0.010019 -0.23263 -0.14303 0.058049 
0.10014 0.074161 0.032564 0.016123 0.0024767 0.0592 -0.06296 0.022535 
0.048513 0.11247 0.032729 0.043416 0.057555 0.23578 -0.023829 0.01152 
0.00297 0.10852 0.060022 0.031578 0.09126 0.15061 -0.0087034 0.020233 
0.030592 0.094713 0.1077 0.023522 0.10754 0.047197 -0.025309 0.023028 
0.12184 0.10836 0.080573 0.029605 0.098001 0.094548 0.16853 0.048841 
0.29448 0.14321 0.077943 0.047691 0.094713 0.25863 0.30138 0.063474 
0.18974 0.084848 0.069558 0.06479 0.090274 0.29217 0.24795 0.049006 
-0.082854 0.011191 0.053116 0.0227 0.071366 0.30582 0.044238 0.014479 
-0.084334 0.019576 0.026481 0.030263 0.056898 0.19616 -0.11623 0.007738 
0.10343 0.12973 0.049828 0.041114 0.063968 0.072517 -0.20288 0.025166 
0.21145 0.24252 0.096028 0.064296 0.03092 -0.04471 -0.3201 -0.02794 
0.11576 0.32341 0.11378 0.090603 0.022206 -0.035338 -0.029748 -0.0078813 
-0.019719 0.34462 0.088958 0.033551 -0.015609 -0.0050863 0.54965 0.072517 
-0.21586 0.32128 0.095206 0.034702 -0.010512 0.012177 0.52137 0.11411 
-0.3275 0.2879 0.090931 0.013657 -0.024158 -0.066577 0.071695 0.055089 
-0.16638 0.43686 0.12414 0.037168 0.012506 -0.084991 -0.20156 0.0039565 
0.2833 0.44738 0.11674 0.09274 0.032236 -0.09239 -0.21241 0.053116 
0.52942 0.31947 0.1008 0.090109 0.0028056 -0.12445 -0.10686 0.11592 
0.42519 0.13713 0.066598 0.079587 -0.033859 -0.25746 -0.096336 0.052787 
0.27425 0.062159 0.061666 0.063639 0.00033937 -0.14418 -0.068386 -0.0078813 
0.27491 0.054267 0.0044497 0.035688 0.019247 0.0046141 -0.070523 0.040456 
0.15916 -0.056383 0.0024767 0.058213 0.045882 0.15538 0.019576 0.067585 
-0.01939 -0.27325 -0.012156 0.013328 0.016945 0.25633 0.10556 0.023357 
-0.025145 -0.656 -0.11672 -0.013143 0.054432 0.33163 0.16262 -0.03501 
-0.06855 -1.07 -0.21603 -0.081539 0.074161 0.26669 0.18925 -0.095843 
-0.24316 -1.0437 -0.21685 -0.057863 0.0421 0.28691 0.090438 -0.09387 
-0.19252 -0.22392 -0.090746 -0.039613 -0.038462 0.12612 -0.061151 -0.034516 
0.14124 0.29579 -0.0091966 -0.022021 -0.12034 -0.19038 -0.10637 0.070544 
0.27162 0.45166 0.025495 0.039141 -0.12708 -0.34361 -0.069701 0.067749 
0.017274 0.62939 0.088794 0.066105 -0.045696 -0.27538 0.026481 0.025824 
-0.255 0.62495 0.15127 0.095864 0.024015 -0.27275 -0.049149 0.0036276 
-0.36104 0.16722 0.14568 0.075641 0.031742 -0.26502 -0.088115 0.057555 
-0.36433 -0.21603 0.097015 0.04506 0.041114 -0.1455 0.078929 0.085506 
-0.25746 -0.40527 0.048677 0.045224 0.0013258 0.022206 0.10014 0.09833 
0.1026 -0.18167 0.10178 0.021878 -0.028269 0.1659 0.076134 0.091918 
0.35482 0.23101 0.1562 0.084519 0.028454 0.31388 0.015959 0.024015 
0.3466 0.31552 0.12365 0.0786 0.073832 0.41631 -0.063946 -0.027447 
0.2902 0.22263 0.049664 0.057227 0.034209 0.3563 -0.24102 -0.044217 
0.15111 0.026481 -0.030899 0.022042 -0.047012 0.096686 -0.23921 -0.065755 
0.01267 -0.074633 -0.052602 -0.011827 -0.039284 -0.10801 -0.020541 -0.064275 
-0.06148 -0.13053 -0.056383 0.0065871 0.0024767 -0.42944 0.1299 -0.087293 
-0.097651 -0.099953 -0.020048 -0.031557 -0.030899 -0.78556 0.09126 -0.011992 
-0.081539 -0.12379 -0.020377 -0.0047575 -0.019061 -0.61062 0.02122 0.087972 
-0.077922 -0.082525 -0.019719 0.036346 0.049828 -0.046683 0.1026 0.12842 
-0.050793 -0.039778 -0.019884 0.031249 0.092247 0.39378 0.23151 0.099481 
0.026152 0.010369 0.0041209 0.077943 0.14141 0.55787 0.26324 0.085012 
0.035524 -0.077428 -0.0088678 0.0021479 0.034373 0.3632 0.13056 0.059528 
-0.016266 -0.24266 -0.035832 -0.00015387 -0.031228 0.024015 -0.034188 -0.054575 
-0.12116 -0.34986 -0.068714 -0.011663 -0.065426 -0.081045 -0.1182 -0.13612 
-0.17854 -0.42105 -0.099295 -0.012649 -0.08828 -0.023829 -0.050793 -0.059836 
-0.088444 -0.27884 -0.072332 0.023686 -0.090417 0.038812 0.064625 0.066598 
0.093069 -0.0024557 0.030756 0.017274 -0.076442 0.090603 0.14338 0.14979 
0.19813 0.23545 0.087314 0.038648 -0.017582 0.15719 0.057884 0.13121 
0.072517 0.26061 0.067749 0.0072447 0.050157 0.2006 -0.076442 0.08008 
-0.060823 0.27014 0.04095 0.0032988 0.017274 0.14075 -0.21471 -0.035174 
0.084519 0.25058 0.039305 0.023851 -0.046519 -0.0087034 -0.29873 -0.11804 
0.24269 0.23414 0.069393 0.012177 -0.053588 -0.090417 -0.22852 -0.17312 
0.11773 0.1419 0.073339 0.050979 -0.012649 -0.052437 0.23282 -0.062631 
-0.10916 0.17034 0.09981 0.068407 0.044238 0.069886 0.60686 0.097672 
-0.17147 0.15292 0.10162 0.080902 0.06594 0.032893 0.4191 0.2782 
-0.14582 0.10869 0.10918 0.073175 0.083204 -0.044874 0.12957 0.34183 
0.042265 0.0079024 0.064954 0.072517 0.088958 -0.10587 -0.032379 0.22394 
0.20602 -0.15405 -0.0024557 0.071531 0.062981 0.019411 -0.066741 0.068407 
0.33213 -0.21734 -0.048163 0.015137 0.036346 0.12168 -0.091075 -0.033365 
0.35597 -0.10324 -0.020048 0.014315 0.016452 0.051143 -0.094856 -0.10653 
0.30155 0.10244 0.007738 0.00297 -0.035503 -0.16391 -0.13974 -0.16358 
0.10063 0.29267 0.058377 0.013164 -0.040106 -0.20403 -0.096994 -0.12083 
-0.23362 0.40726 0.083862 0.048677 -0.029913 -0.076606 -0.036654 -0.05326 
-0.36236 0.39707 0.058706 0.014972 0.00083261 0.10967 0.14519 0.065118 
-0.25927 0.44146 0.048184 0.020727 0.01563 0.19237 0.18333 0.11559 
-0.10867 0.39 0.042923 0.012835 0.056898 0.2417 0.12858 0.15785 
0.13105 0.26472 0.057555 0.027632 0.11329 0.19961 0.057227 0.11872 
0.3073 0.13861 0.098166 0.068736 0.14897 0.038812 0.036675 0.048513 
0.3267 0.15176 0.12529 0.075312 0.13532 -0.097487 -0.0088678 -0.0088678 
0.24022 0.14963 0.11132 0.07449 0.072353 -0.08828 -0.041751 0.058213 
0.13582 0.15916 0.0592 0.022042 -0.021692 -0.041586 -0.021692 0.080244 
-0.026953 0.16262 0.01711 0.0028056 -0.084498 -0.074469 0.0069159 0.029934 
-0.056383 0.15292 0.036017 -0.011498 -0.086964 -0.16309 0.083368 -0.017582 
0.020398 0.13746 0.059035 0.007738 0.004943 -0.082361 0.1853 0.022042 
0.090767 0.10902 0.069886 0.037661 0.12053 0.12299 0.20175 0.06742 
0.10376 0.087972 0.051801 0.026481 0.12809 0.19566 0.04358 0.10244 
0.082546 0.016616 -0.0024557 0.044402 0.20536 0.11773 -0.11113 0.067585 
0.037168 -0.11376 -0.045368 0.03388 0.30187 0.066763 -0.21225 0.043251 
-0.078415 -0.24332 -0.058521 0.028454 0.19353 0.060186 -0.13366 -0.026953 
-0.021199 -0.056877 -0.016431 0.036182 0.08863 0.21835 -0.077593 -0.016924 
0.039305 0.082546 0.053445 0.018589 0.10869 0.27919 0.033387 -0.0080457 
-0.010348 0.17495 0.098823 0.064296 0.25699 0.15571 0.083204 -0.047834 
-0.083018 0.12924 0.085999 0.065447 0.27705 -0.2545 0.054267 -0.078744 
-0.023336 0.16525 0.10819 0.074161 0.15275 -0.37485 0.0083956 -0.041422 
0.18004 0.22707 0.080902 0.037497 0.017603 -0.055561 -0.023336 -0.0040998 
0.28691 0.28165 0.055747 -0.025967 -0.059836 0.2103 0.037332 0.052459 
0.28099 0.24301 0.0324 0.0032988 -0.064275 -0.072496 0.042265 0.16541 
0.20306 0.16064 0.068571 0.014315 0.010369 -0.60026 0.17297 0.2246 
0.076627 0.10376 0.092904 0.049664 0.088136 -0.51904 0.31749 0.22444 
0.04654 0.18859 0.12924 0.076627 0.24597 0.55507 0.32012 0.081724 
-0.075949 0.36846 0.10343 0.091918 0.37816 1.2234 0.044896 -0.16457 
-0.2106 0.18925 0.054432 0.065283 0.25419 0.79758 -0.19137 -0.13021 
-0.22672 -0.30399 -0.09946 -0.033859 0.062652 -0.097487 -0.20781 -0.0059084 
-0.14928 -0.70286 -0.19252 -0.066577 -0.011334 -0.63791 -0.053588 0.12497 
-0.010676 -0.64087 -0.19268 -0.069865 0.026317 -0.66734 -0.019555 0.16837 
0.069229 -0.50408 -0.13284 -0.012814 0.13746 -0.1062 0.048513 0.088136 
0.19155 -0.17016 0.0070803 0.086985 0.293 0.37504 0.070708 0.023851 
0.13187 -0.14582 0.06479 0.068736 0.29398 0.31585 -0.029255 -0.034516 
-0.24382 -0.28114 0.025988 0.06331 0.10803 -0.067892 -0.15207 -0.082196 
-0.63775 -0.26831 -0.020706 -0.030242 -0.041586 -0.20452 0.13812 -0.1233 
-0.70121 -0.053588 -0.049807 -0.0027845 -0.042079 -0.042737 0.35514 -0.069372 
-0.16194 0.19353 -0.035174 0.0021479 -0.0034422 0.075148 0.14272 0.10408 
0.34364 -0.020212 -0.049478 -0.022514 -0.023501 0.03799 -0.068221 0.15045 
0.34298 -0.50704 -0.17032 -0.038462 -0.039449 0.068242 -0.10193 0.013164 
0.23298 -0.61194 -0.14961 -0.054575 -0.033859 0.13286 -0.018404 -0.057205 
0.23874 -0.13119 0.00066819 -0.01528 -0.027447 0.10967 -0.014129 -0.0014692 
0.053116 0.15176 0.13467 0.044402 0.0090533 -0.010019 -0.012814 0.048019 
-0.039778 0.12792 0.14239 0.055911 0.064296 -0.055068 -0.011334 0.081067 
0.018754 0.0093821 0.10376 0.071695 0.086163 -0.042573 0.039305 0.048348 
-0.034845 0.027139 0.06035 0.031414 0.064954 0.040456 0.054267 0.0028056 
-0.23395 0.093233 0.073339 0.044402 0.092904 0.147 0.10836 -0.0022913 
-0.21258 0.18711 0.041114 0.028947 0.077778 0.13401 0.080573 0.051636 
0.17511 0.18942 0.012013 0.014643 -0.025474 0.050157 0.029441 0.12727 
0.34988 0.01415 0.013986 0.039963 -0.109 0.054432 -0.037476 0.12973 
0.25008 -0.1741 -0.0040998 0.0092177 -0.13349 0.021713 -0.059178 0.093726 
0.19237 -0.14533 -0.017911 0.01415 -0.16851 -0.23231 -0.043395 0.041936 
0.034866 -0.10587 0.0065871 -0.001798 -0.17641 -0.60372 0.039634 -0.011334 
-0.14747 -0.16555 -0.038627 -0.016595 -0.16835 -0.59698 0.01267 -0.084663 
-0.24332 -0.13711 -0.016266 0.047691 -0.013143 0.067091 -0.026624 -0.12478 
-0.35479 -0.095678 0.0088889 0.060022 0.13697 0.64665 -0.0052507 -0.071838 
-0.45328 -0.027447 0.005765 0.078107 0.11905 0.64698 0.061172 -0.019061 
-0.1547 -0.070523 0.025659 0.027796 -0.039942 0.32884 0.27064 0.1003 
0.0069159 -0.066577 0.056898 0.024015 -0.091404 0.0592 0.28428 0.14782 
-0.016266 -0.13596 0.038977 0.032564 -0.10867 -0.028433 0.1271 0.096357 
0.074654 -0.058521 0.040621 0.019576 -0.12396 -0.11607 -0.086636 0.032071 
0.17922 0.13861 0.083204 0.0227 -0.17082 -0.32257 -0.17558 -0.013471 
0.24729 0.34265 0.14174 0.0019835 -0.16555 -0.49487 -0.28311 -0.0059084 
0.25535 0.41696 0.14798 0.030098 -0.080059 -0.21586 -0.16901 0.010862 
0.14404 0.42338 0.16393 0.062981 0.032893 0.19402 -0.054082 0.024673 
0.058377 0.46267 0.11329 0.06331 -0.03057 0.31536 -0.20386 -0.015444 
0.13105 0.48092 0.071695 0.071859 -0.083018 0.13598 -0.20929 -0.12938 
0.11609 0.36402 0.011848 0.0088889 -0.079895 0.039963 0.25715 -0.18117 
0.066105 0.26883 0.015794 0.022042 0.0046141 -0.013471 0.4773 -0.037147 
0.12464 0.33953 0.099481 0.036839 0.02533 -0.06707 0.40085 0.15949 
0.24564 0.41006 0.17297 0.090109 0.037168 -0.12297 0.44919 0.2514 
0.29398 0.41532 0.20125 0.10869 -0.0083746 -0.12938 0.36501 0.24071 
0.29283 0.34906 0.23003 0.082546 -0.11722 -0.1741 0.15176 0.18202 
0.33854 0.44475 0.21901 0.11066 -0.15865 -0.20518 -0.17394 0.11017 
0.43949 0.47961 0.20158 0.069393 -0.16342 -0.17575 -0.45854 -0.032215 
0.30927 0.48289 0.1613 0.053116 -0.18249 0.0026412 -0.7262 -0.20748 
0.028454 0.46086 0.13598 0.060679 -0.11196 0.36961 -0.50112 -0.20879 
-0.045368 0.52383 0.085506 0.059364 0.018425 0.59124 0.30829 0.057884 
0.020562 0.32571 -0.021363 0.053774 0.1562 0.58993 1.0028 0.33525 
-0.0138 -0.39951 -0.19383 -0.019226 0.25173 0.55737 0.72968 0.31157 
-0.029091 -0.83324 -0.37518 -0.073647 0.11757 0.19484 -0.13941 0.10655 
-0.28245 -0.61079 -0.29906 -0.10521 -0.044874 -0.12478 -0.6144 -0.11294 
-0.57494 -0.059014 -0.063124 -0.026296 -0.011498 -0.18068 -0.40543 -0.17854 
-0.42697 0.24252 0.1248 0.038483 0.017438 -0.10193 -0.064111 -0.1478 
-0.029584 0.23331 0.18859 0.037661 -0.0026201 -0.11426 0.13384 0.0056006 
0.33328 0.23052 0.22246 0.090931 -0.024652 -0.14007 0.17971 0.13319 
0.63087 0.30615 0.22592 0.10425 -0.023007 -0.14747 0.14469 0.18021 
0.64517 -0.019555 0.14601 0.07301 0.0036276 -0.03912 0.17873 0.171 
0.3198 -0.3104 -0.02235 0.025659 -0.017088 -0.035996 0.1031 0.045389 
-0.11113 -0.24842 -0.10061 -0.038462 -0.017746 -0.0088678 0.048677 -0.092554 
-0.25467 0.2121 -0.077264 -0.01232 0.0079024 -0.0021268 -0.025145 -0.14615 
-0.12264 0.53781 -0.050793 -0.0060728 0.022042 0.016781 -0.039613 -0.10521 
-0.099131 0.52679 0.014972 -0.0050863 0.026481 0.0082312 -0.081045 -0.1233 
-0.13316 0.23266 0.033551 0.022042 0.057227 0.11839 0.021713 -0.011498 
-0.0047575 0.090109 0.071695 0.036017 0.085506 0.30089 0.13795 0.14552 
0.15193 0.035688 0.087479 0.067256 0.096193 0.38638 0.19764 0.22411 
0.17363 -0.10045 0.040456 0.048348 0.088136 0.19024 0.10277 0.2103 
0.16081 -0.22409 0.010204 0.070051 0.098823 -0.0024557 0.0064227 0.12085 
0.15259 -0.50375 -0.009361 0.066434 0.12809 -0.015116 -0.070194 0.058871 
0.11658 -0.64054 -0.020541 0.043745 0.10951 0.012177 -0.091568 0.033551 
-0.033365 -0.48583 -0.061645 0.025988 0.058871 -0.003771 -0.12264 -0.035174 
-0.25467 -0.27505 -0.15503 -0.065262 -0.010019 -0.075949 -0.14813 -0.16917 
-0.32947 -0.2374 -0.21044 -0.085485 -0.035503 -0.17723 -0.11064 -0.25072 
-0.086636 -0.14451 -0.13481 -0.071674 -0.023007 -0.077922 -0.03501 -0.1205 
0.12085 -0.079237 -0.013636 -0.024487 0.0075736 0.03388 0.029276 0.031742 
0.23052 -0.060658 0.0056006 -0.019884 0.027961 0.060679 0.023028 0.11855 
0.3073 -0.091075 -0.032379 -0.031557 0.046868 0.094877 0.068571 0.1105 
0.081231 -0.24825 -0.11048 -0.012485 0.077285 0.22756 0.10885 0.10524 
-0.45574 -0.34164 -0.11968 -0.023994 0.079916 0.23282 0.080738 0.079094 
-0.80808 -0.22655 -0.022185 0.040621 0.11181 0.033551 0.0052718 0.0036276 
-0.94159 -0.10045 0.087479 0.076627 0.11461 -0.2568 0.0083956 -0.014622 
-0.55505 -0.12593 0.10162 0.087314 0.10425 -0.23165 -0.054246 0.044731 
0.076463 0.11329 0.16623 0.13335 0.10721 0.048513 -0.079401 -0.02087 
0.32095 0.38194 0.23479 0.11461 0.11165 0.13532 -0.16769 -0.15635 
0.38523 0.5018 0.19451 0.086492 0.077121 -0.031557 -0.18643 -0.17756 
0.55507 0.36698 0.13582 0.043745 0.0085601 -0.099295 0.18415 -0.0503 
0.55458 0.14206 0.063639 -0.015938 -0.064768 -0.10752 0.47681 0.061172 
0.39049 0.00297 0.044073 0.034209 -0.051287 -0.10916 0.28839 0.18169 
0.14519 0.01004 0.041114 0.026646 0.020891 -0.11311 -0.044546 0.27524 
-0.083512 0.032729 0.033387 0.050157 0.070708 -0.043066 -0.12511 0.25321 
-0.27423 0.069886 0.020562 0.049992 0.13713 0.020069 -0.079566 0.14387 
-0.1621 0.12118 0.021056 0.078436 0.19829 -0.01528 -0.049149 0.00066819 
0.019411 0.074654 0.013164 0.083862 0.18317 -0.062138 -0.13711 -0.17591 
0.033387 0.0083956 0.028619 0.03947 0.053281 -0.039613 -0.11031 -0.26486 
-0.040271 -0.14139 -0.0098543 0.02681 -0.047176 0.13549 0.050157 -0.11524 
-0.0004827 -0.033365 0.044402 0.017767 -0.043724 0.45215 0.26735 0.13779 
0.11576 0.14634 0.090109 0.040292 -0.031228 0.43094 0.17412 0.16508 
0.082217 0.14108 0.085999 0.025988 -0.057534 0.16146 0.098166 -0.086964 
-0.079895 -0.16062 0.004943 -0.0029489 -0.011992 -0.14106 0.10162 -0.19827 
-0.079895 -0.17673 -0.01528 0.01711 0.030098 -0.5636 0.060844 -0.11952 
0.06594 0.10244 0.025824 1.0539e-005 0.089452 -0.64975 0.16081 0.11362 
0.23068 0.49638 0.08008 0.011191 0.1225 -0.38077 0.18958 0.40891 
0.21128 0.64123 0.084026 0.0051074 0.051143 -0.17969 -0.078579 0.32835 
0.048677 0.48306 0.033715 0.0016547 -0.072496 -0.084334 -0.28295 0.11921 
-0.095678 0.19484 0.043745 0.028454 -0.050793 0.093233 -0.18117 0.037168 
-0.097487 0.031249 0.066598 0.044402 0.10474 0.47714 0.066269 0.067256 
-0.022185 0.032236 0.12217 0.11313 0.28576 0.85266 0.17478 0.0059294 
0.05476 0.086821 0.14437 0.1419 0.30598 0.81287 0.15061 0.030098 
0.20701 0.17939 0.11247 0.085999 0.1442 0.37487 0.1391 0.051143 
0.329 0.23841 0.10721 0.065612 -0.051451 -0.065591 0.056733 0.053445 
0.42617 0.36106 0.1054 0.047526 -0.1011 -0.15405 0.062488 0.0062583 
0.40496 0.36485 0.11214 0.052294 -0.052437 -0.056877 0.093069 -0.052109 
0.34183 0.20832 0.064625 0.0227 0.041607 0.071695 0.12447 -0.010512 
0.27655 0.041936 0.019083 0.052952 0.10704 -0.13185 0.065118 0.044731 
0.14815 -0.076442 0.0090533 0.021549 0.032564 -0.39343 0.024508 0.10211 
-0.12281 -0.1284 -0.051944 -0.015938 -0.018897 -0.30974 -0.029913 0.1294 
-0.46002 -0.20452 -0.13432 -0.028104 -0.042079 -0.06855 -0.038627 0.15883 
-0.57642 -0.35299 -0.17098 -0.030406 -0.046354 -0.06 -0.01939 0.065283 
-0.59944 -0.36877 -0.1718 -0.023829 -0.017746 -0.11409 0.018589 -0.15618 
-0.38192 -0.28327 -0.12346 -0.023829 0.01152 0.026317 0.059528 -0.22145 
0.076792 0.069722 0.022371 0.0037921 0.052459 0.20355 0.037497 -0.096829 
0.40398 0.49786 0.16969 0.047197 0.022371 0.24597 0.0064227 0.085835 
0.4944 0.58253 0.24959 0.046046 -0.0047575 0.18021 -0.080552 0.1807 
0.37833 0.29332 0.18465 0.071366 0.057391 0.16558 -0.24184 0.10359 
0.087479 -0.21734 0.041772 0.037661 0.047526 0.18251 -0.10225 -0.038956 
-0.05178 -0.46955 -0.049478 -0.0016336 0.005765 0.11231 0.37767 0.009711 
0.16574 -0.35003 -0.021363 0.00099702 -0.014787 0.056733 0.47665 0.18514 
0.35745 -0.022679 0.066763 0.01152 0.024179 0.055254 0.30697 0.23019 
0.3313 0.21704 0.10967 0.057555 0.031907 0.065447 -0.012156 0.14979 
0.14486 0.31782 0.096521 0.049335 0.02829 0.019576 -0.145 0.024837 
-0.024487 0.18103 0.034866 0.060515 0.06035 0.016781 -0.17312 -0.0078813 
-0.18742 0.020727 -0.05589 0.035031 0.031578 -0.035503 -0.2157 -0.014951 
-0.48304 -0.084169 -0.11442 -0.023336 -0.042901 0.12349 -0.33161 -0.059836 
-0.63331 -0.14615 -0.12544 -0.035832 -0.051287 0.50147 -0.28443 -0.084169 
-0.30448 -0.055397 -0.084169 -0.076771 0.050486 0.76273 -0.075127 -0.010676 
0.20668 0.085506 0.029441 0.0014903 0.061172 -0.10324 0.11905 0.072353 
0.50328 0.22887 0.10096 0.025824 -0.095021 -1.3952 0.11954 0.059364 
0.45346 0.12102 0.073504 0.014315 -0.21258 -1.7689 0.015959 -0.016266 
0.17725 -0.00081153 0.037661 0.032729 -0.16901 -0.62723 0.16755 -0.040764 
-0.18824 -0.10817 0.0065871 0.02681 -0.022185 0.609 0.37405 -0.025309 
-0.55258 -0.056712 0.037497 0.11181 0.18152 1.2126 0.47665 0.038319 
-0.64942 0.045553 0.058213 0.13088 0.3073 1.0204 0.36731 0.061501 
-0.25565 0.10425 0.05476 0.12694 0.39773 0.53222 0.18284 0.13582 
0.059528 -0.18907 -0.033201 0.079422 0.38408 0.070544 -0.042079 0.039799 
0.21178 -0.60388 -0.15947 0.013657 0.10754 -0.20962 -0.19696 -0.0004827 
0.28921 -0.68954 -0.15437 -0.028433 -0.20419 -0.34888 -0.23116 -0.012649 
0.26488 -0.46265 -0.09387 -0.08384 -0.32652 -0.33358 -0.20518 -0.032379 
0.24729 -0.035503 -0.014293 -0.054904 -0.25861 -0.21093 -0.18364 -0.037476 
0.19385 0.41943 0.12151 -0.041915 -0.16835 -0.08828 -0.15668 0.0024767 
0.0037921 0.58204 0.12464 -0.010183 -0.078579 -0.054246 -0.11048 0.0047785 
-0.19498 0.33311 0.079751 0.023357 -0.028597 -0.020541 -0.097651 0.021549 
-0.21504 0.041936 0.044073 0.015959 0.0019835 -0.027775 -0.063124 0.0227 
-0.15191 -0.20238 0.02122 0.039634 0.040456 0.012999 0.16607 0.036839 
-0.078744 -0.14878 0.014643 0.035853 0.066105 0.057227 0.49161 0.034373 
0.0021479 0.14617 0.057062 0.040621 0.087314 0.075476 0.42387 0.055418 
0.071366 0.39033 0.076792 0.086985 0.085341 -0.0059084 0.066763 0.027961 
0.071037 0.28478 0.058706 0.072681 0.049828 -0.05737 -0.33424 -0.0072237 
0.065776 0.10425 0.029441 0.055911 0.040621 -0.071181 -0.29988 -0.043888 
0.039634 0.0024767 0.029934 -0.00064712 0.0018191 -0.035832 0.15242 -0.020212 
0.085012 0.010862 0.051472 0.033715 -0.072332 -0.095514 0.27228 0.0689 
0.14486 0.034866 0.06594 0.063145 -0.059014 -0.065262 0.053609 0.10951 
0.12168 0.092247 0.073832 0.048348 0.013657 0.038319 -0.033365 0.033222 
0.10195 0.15061 0.086821 0.076463 0.10211 0.15176 -0.022021 -0.043066 
0.076792 0.11707 0.041443 0.02122 0.12316 0.26094 0.055418 -0.015938 
0.028947 0.064625 0.0031344 0.0052718 0.12579 0.44968 0.096521 0.047855 
-0.0078813 -0.008539 -0.0026201 -0.01676 0.16607 0.42321 0.1003 0.050814 
-0.024652 0.016288 -0.0024557 -0.003771 0.11132 0.15061 0.0090533 0.016945 
0.056076 0.049828 0.039141 0.045882 -0.035667 -0.36022 -0.12116 0.025166 
0.12118 0.11083 0.039799 0.025495 -0.094856 -0.65156 -0.15931 0.036839 
0.12085 0.10228 0.055418 0.043909 -0.053588 -0.30218 -0.066084 0.027468 
0.12069 0.1294 0.081889 0.058542 0.0227 0.16722 0.1419 -0.014622 
0.10524 0.1322 0.096357 0.074983 0.094548 0.32029 0.29612 -0.10423 
0.091918 0.14042 0.080738 0.057227 0.045882 0.082875 0.19961 -0.079401 
0.071859 0.1391 0.055089 -0.00097594 -0.054904 -0.090088 0.023686 0.08715 
0.076463 0.13384 0.056733 0.0067515 -0.046354 0.036017 0.031742 0.23858 
0.11132 0.16048 0.076134 0.028783 0.0421 0.23266 0.10211 0.1784 
0.12661 0.17511 0.12332 0.051308 0.088794 0.23151 0.14502 0.069722 
0.10244 0.17281 0.095042 0.061008 -0.038627 -0.11015 0.045882 0.0088889 
0.063474 0.13253 0.098659 0.042594 -0.11985 -0.27604 -0.14171 -0.030899 
0.054596 0.15966 0.081395 0.039799 -0.11311 -0.15914 -0.35858 -0.017582 
0.065776 0.17199 0.089287 0.014972 -0.035667 0.10787 -0.36926 -0.0080457 
0.062323 0.20799 0.077614 0.022535 0.04358 0.20668 -0.27604 -0.0004827 
0.025166 0.14552 0.05476 0.020727 0.1151 0.11806 -0.041422 0.031578 
-0.023501 0.077943 0.026481 -0.0082102 0.089616 0.0047785 0.20471 0.086163 
-0.0021268 -0.081539 -0.038133 0.0093821 0.034702 0.076299 0.35662 0.13582 
-0.029255 -0.24464 -0.089102 -0.016924 0.041607 0.25535 0.37027 0.10704 
-0.07003 -0.3155 -0.084991 0.01415 0.048841 0.27491 0.20027 0.067913 
0.020891 -0.095514 -0.0096899 0.01415 0.031578 0.043087 0.033551 0.058213 
0.080244 0.10672 0.067913 0.040456 0.024837 -0.093376 0.034866 -0.026296 
0.028947 0.23167 0.11477 0.059693 0.02122 -0.14434 0.050979 -0.098473 
-0.017746 0.21326 0.12562 0.051801 -0.0042642 -0.11228 -0.12166 -0.04882 
0.044896 0.15933 0.1031 0.059857 0.01974 -0.12429 -0.23724 -0.011663 
0.18662 0.18284 0.11148 0.057555 0.04917 -0.023007 -0.2014 0.016288 
0.25683 0.17314 0.074983 0.056076 0.025659 0.1026 0.0047785 0.070708 
0.17018 0.091753 0.049499 0.048841 0.039634 0.32128 0.1322 0.073832 
0.043909 0.0036276 -0.0078813 0.016452 0.035688 0.24926 0.17429 0.086163 
-0.044874 -0.037476 -0.010348 0.019905 0.035195 0.067749 0.091425 0.075148 
-0.067728 -0.071674 -0.0064016 -0.0044286 0.03388 -0.057041 0.050157 0.064132 
-0.060329 -0.0034422 -0.0060728 -0.00081153 0.023193 -0.067892 0.0227 0.057227 
-0.03057 0.011848 -0.017582 0.00050378 0.0085601 -0.058685 0.0074092 0.033387 
0.0041209 0.019083 -0.0044286 -0.0039354 0.00033937 -0.021856 0.029276 0.031742 
0.0075736 -0.028433 -0.0052507 0.028454 0.0046141 -0.023007 0.010533 -0.0049219 
-0.032543 -0.048656 0.0039565 -0.001798 0.015465 0.032893 0.031085 -0.0077169 
-0.06148 -0.075127 0.0018191 0.023522 0.049499 0.038483 0.014808 -0.034023 
-0.068714 -0.11212 -0.02235 0.0093821 0.081724 0.057391 0.011355 -0.046519 
-0.01939 -0.11163 -0.060823 -0.0068948 0.090438 0.066927 0.0065871 -0.0095255 
0.011355 -0.067728 -0.0406 0.011355 0.075805 0.096193 0.055418 0.1003 
0.044402 0.013821 -0.0026201 0.031742 0.059857 0.066598 0.045389 0.20701 
0.079258 0.022042 0.046046 0.094548 0.060844 0.060186 0.060022 0.12677 
0.074819 0.034209 0.059693 0.076463 0.074819 0.04654 0.035031 -0.024816 
0.0052718 0.021713 0.041936 0.056076 0.046868 0.0056006 0.028783 -0.10225 
0.011191 0.049992 0.045553 0.034866 0.029441 -0.019226 0.00297 -0.042901 
-0.0021268 -0.0055795 0.038648 -0.010841 0.011355 -0.012649 0.031414 -0.023172 
-0.017417 -0.058685 0.021056 0.021713 0.02681 -0.0022913 0.041278 0.023522 
-0.055068 -0.15898 -0.033365 -0.022185 0.018425 0.014315 0.041607 0.072353 
-0.074304 -0.10817 -0.027611 -0.015938 0.033551 0.017274 0.057227 0.074326 
-0.039449 0.029112 -0.0021268 0.00297 0.036839 0.0227 0.043251 0.06742 
0.054267 0.13253 0.053445 0.023028 0.029934 0.011191 0.05772 0.049664 
0.086821 0.17297 0.050979 0.06183 0.044731 0.013328 0.013164 -0.0138 
0.088136 0.16114 0.038977 0.037004 0.036346 0.012835 -0.0055795 -0.091568 
0.075148 0.14453 0.033222 0.042594 0.047362 0.0059294 0.019083 -0.028104 
0.084848 0.072024 0.025495 0.034702 0.016945 -0.045203 0.0592 0.092904 
0.055582 0.040621 0.025659 0.034044 0.060844 -0.095021 -0.032379 0.091589 
0.017932 -0.012156 0.033222 0.078765 0.086163 -0.081868 -0.07414 0.05624 
-0.044052 -0.0070593 0.012835 0.019083 0.028947 -0.076771 -0.10127 0.041772 
-0.09798 -0.090417 -0.0059084 0.0088889 -0.0027845 -0.074469 -0.051944 0.068078 
-0.13021 -0.034352 -0.023172 -0.018404 -0.034845 -0.16095 -0.023336 0.009711 
-0.0868 -0.0087034 0.0051074 -0.011498 -0.05885 -0.23033 -0.044217 -0.041751 
-0.0029489 0.042758 0.021713 0.0065871 -0.021528 -0.098309 -0.036489 -0.14221 
0.065612 0.055254 0.030592 0.012835 0.07038 0.28313 0.21276 -0.088773 
0.099481 0.10359 0.041278 0.058213 0.1909 0.67805 0.56872 0.11033 
0.12299 0.12875 0.062488 0.058706 0.2394 0.8548 0.63448 0.20092 
0.11378 0.12003 0.06742 0.073175 0.19106 0.54274 0.31733 0.14667 
0.10425 0.12464 0.093233 0.064296 0.10293 -0.03205 -0.045532 0.073668 
0.064461 0.083697 0.080738 0.045882 0.0031344 -0.5123 -0.24842 0.00099702 
0.033551 0.072681 0.047855 0.043909 -0.056219 -0.55406 -0.25368 -0.047505 
0.018754 0.034866 0.025166 -0.0044286 -0.05885 -0.33293 -0.15191 -0.056383 
0.022042 0.054432 0.0026412 -0.0031133 -0.036983 -0.11837 -0.077593 -0.030735 
0.020727 0.051472 0.0060938 -0.0034422 -0.036983 -0.0052507 0.0026412 0.0062583 
-0.003771 0.058542 0.0042853 -0.0096899 -0.032543 0.047526 -0.0073881 0.071859 
-0.039942 0.028454 -0.0032777 0.016781 -0.0027845 0.055582 0.0098754 0.12414 
-0.030735 0.082711 -0.0054151 0.00033937 0.029605 0.070544 0.022535 0.12809 
0.025495 0.12316 0.038155 0.059528 0.049335 0.061501 0.067256 0.0014903 
0.060022 0.1636 0.062817 0.067256 0.053938 0.039305 0.043745 -0.048656 
0.084026 0.14519 0.081067 0.064625 0.053281 -0.0091966 0.023522 0.017767 
0.073668 0.090767 0.066434 0.058542 0.035688 -0.073976 -0.023172 0.097672 
0.028783 0.0011614 0.037004 0.039799 0.053445 -0.03205 0.02122 0.077285 
-0.1062 -0.13563 -0.0077169 0.049335 0.077121 0.060022 0.062488 0.0039565 
-0.21438 -0.20764 -0.018897 0.023686 0.093891 0.13598 0.074654 -0.0036066 
-0.026789 -0.19663 -0.027775 0.013492 0.07038 0.13861 0.08978 -0.00015387 
0.28182 0.020069 0.011191 0.033551 0.021384 0.095699 0.078272 -0.019226 
0.27557 0.079587 0.06479 0.028783 0.0059294 0.1003 0.061337 -0.054575 
0.10425 0.17791 0.096521 0.076792 0.01152 0.17001 0.040292 0.0021479 
0.047197 0.29957 0.084026 0.041607 0.01711 0.18218 0.043416 0.033715 
0.08567 0.3923 0.1008 0.040785 0.012342 0.0421 0.026152 0.046046 
0.1031 0.33509 0.087314 0.02681 -0.055561 -0.21422 0.0092177 0.053116 
0.09274 0.23644 0.063803 0.018425 -0.06855 -0.32799 -0.018404 0.086328 
0.025824 0.080738 0.024508 0.027303 0.0085601 -0.079401 0.033551 0.087808 
0.0019835 0.047526 0.031742 0.01415 0.052952 0.11395 0.020727 0.10244 
-0.0091966 0.014315 0.024179 0.040456 0.03092 0.060022 0.033551 0.18678 
0.11559 -0.018404 0.053774 0.041278 0.06183 0.015465 0.038483 0.18021 
0.13171 -0.082525 0.047362 0.065447 0.14535 0.13631 0.076956 0.023522 
-0.026296 -0.38028 0.0070803 0.06183 0.086821 0.16393 0.031414 -0.076935 
-0.18545 -0.47169 -0.066577 0.005765 -0.0011404 0.03799 -0.052273 -0.11853 
-0.14977 -0.23658 -0.06296 0.0065871 -0.037476 -0.047998 -0.07973 -0.041915 
-0.0014692 0.12118 -0.02087 -0.025474 -0.065755 -0.048327 -0.060823 0.010204 
0.10573 0.26784 0.044567 0.012177 -0.025967 0.02533 1.0539e-005 0.046375 
0.097837 0.25107 0.07038 0.028454 0.024837 0.095042 0.021713 0.072846 
-0.0013048 0.087314 0.050814 0.052623 0.028454 0.093233 0.052952 0.020069 
-0.0055795 0.01563 0.060022 0.094713 0.053445 0.035195 0.00017495 0.04506 
0.06742 0.01152 0.050979 0.05624 0.029441 -0.025802 -0.0034422 0.044073 
0.088794 0.045553 0.043745 0.040292 0.00083261 -0.040764 -0.01939 1.0539e-005 
0.044731 0.050157 0.037168 0.014972 0.0085601 -0.029913 0.016288 0.0095465 
0.05065 0.066598 0.041114 0.013492 0.00083261 -0.0050863 -0.0082102 0.012999 
0.089452 0.14831 0.040128 0.011026 0.0082312 -0.028762 0.036182 0.036182 
0.1368 0.21539 0.078929 0.0052718 0.01563 -0.010676 0.0069159 0.063968 
0.10984 0.27277 0.09422 0.042429 0.018589 0.028125 0.025659 0.024179 
0.036346 0.2024 0.090438 0.014315 0.0083956 0.048184 0.014643 -0.037311 
0.024344 0.11378 0.061995 0.016452 0.042429 0.074819 0.029605 -0.018404 
0.025988 -0.0067304 0.031249 0.05065 0.056076 0.060679 0.051308 0.048184 
-0.01117 -0.088937 -0.015609 0.0072447 0.055747 0.028454 0.10869 0.079094 
-0.05885 -0.19186 -0.032872 0.040292 0.027632 -0.0091966 0.11181 0.033715 
-0.073318 -0.11475 -0.013307 0.052294 0.047362 0.021549 0.056898 -0.038133 
-0.026296 -0.12544 -0.015609 0.052623 0.052787 0.031085 -0.053917 -0.084169 
-0.027447 -0.047998 -0.041915 -0.0026201 -0.018239 -0.0077169 -0.15224 -0.046025 
-0.047012 0.039141 -0.045203 -0.051615 -0.087786 -0.045203 -0.13267 0.0082312 
-0.079401 -0.097322 -0.076277 -0.046025 -0.064275 -0.041093 -0.02794 0.051143 
-0.081045 -0.30004 -0.058356 -0.019555 0.0023123 0.047033 0.043087 0.11444 
0.029769 -0.10357 0.012835 0.0019835 0.043087 0.04506 0.045553 0.12644 
0.12414 0.24992 0.1026 0.071531 0.097015 0.091589 0.13088 0.095699 
0.15111 0.35186 0.14881 0.082546 0.16294 0.11181 0.14289 0.038977 
0.093233 0.12497 0.11099 0.096028 0.15801 0.13401 0.077449 0.0062583 
-0.034023 -0.27259 0.0028056 -0.0057439 0.083204 0.10458 -0.022679 -0.021363 
-0.10078 -0.49438 -0.070523 -0.016431 -0.019226 0.059857 0.024179 0.010204 
-0.026131 -0.3007 -0.044217 -0.026789 -0.050464 0.010862 0.066598 0.03536 
0.073175 0.14996 -0.0027845 -0.010676 -0.048985 -0.053753 0.038319 -0.025474 
-0.0067304 0.35514 0.051308 0.011684 -0.067892 -0.049971 0.0051074 -0.13793 
-0.044381 0.27327 0.050486 -0.0068948 -0.032215 -0.0095255 -0.0062372 -0.096665 
0.0082312 0.22772 0.056898 0.024673 -0.0014692 0.011191 -0.014458 -0.014951 
0.05624 0.29365 0.080244 0.028783 0.039634 -0.00081153 0.0023123 0.027961 
0.02681 0.23841 0.096193 0.04654 0.060679 -0.084827 0.046046 0.033551 
0.039963 0.12677 0.067256 0.044896 0.042429 -0.028104 0.069064 0.1026 
0.081889 0.058542 0.048348 0.036182 0.029769 0.0098754 0.091589 0.16919 
0.14535 0.13351 0.050321 0.086163 0.029605 0.01974 0.074819 0.17577 
0.10902 0.12447 0.049499 0.036675 0.012835 -0.025309 0.051965 0.13335 
0.18366 0.080902 0.053116 0.059693 -0.0011404 -0.010183 -0.02087 0.033222 
0.20849 -0.01117 0.037332 0.026646 0.03388 0.077285 -0.062138 -0.098309 
0.11674 0.017438 0.030427 0.06035 0.12891 0.22805 -0.086471 -0.14352 
0.0070803 0.07449 0.074819 0.084684 0.089287 0.1003 0.0070803 -0.038298 
0.074983 0.0014903 0.065283 0.049006 0.0011614 -0.068057 0.15522 0.092411 
0.024837 -0.19614 -0.0021268 0.029769 -0.0095255 -0.057699 0.28839 0.092576 
-0.31238 -0.58086 -0.12281 -0.022843 -0.081374 -0.020212 0.24104 0.024837 
-0.69102 -0.81696 -0.17986 -0.079237 -0.19729 -0.21027 -0.028433 -0.023829 
-0.50211 -0.3326 -0.10817 -0.069208 -0.18249 -0.15421 -0.34542 0.040785 
-0.0068948 0.52186 0.086821 -0.01528 -0.066413 -0.11574 -0.43569 0.060679 
0.35991 0.92106 0.23101 0.076627 0.1322 0.10425 -0.21241 0.084848 
0.53353 0.74777 0.19994 0.091589 0.3826 0.46168 -0.016924 0.065118 
0.53715 0.43291 0.094713 0.075641 0.48043 0.71538 0.40266 0.11017 
0.33394 0.19024 0.073504 0.055254 0.41236 0.62478 0.77851 0.073504 
0.06183 0.080409 0.084848 0.079094 0.19829 0.17511 0.64862 -0.0036066 
-0.10834 0.011684 0.06742 0.098494 -0.10505 -0.50556 0.027303 -0.063782 
-0.096007 -0.00064712 0.043087 0.036346 -0.30711 -0.81565 -0.48106 -0.14796 
-0.033201 -0.035174 -0.0036066 -0.014951 -0.32931 -0.51954 -0.63726 -0.10949 
0.038483 -0.038298 0.0014903 -0.030077 -0.14763 0.28741 0.049335 -0.02646 
0.11198 -0.069372 -0.0004827 0.019576 0.034044 0.81731 0.62577 0.082382 
0.21852 0.026646 0.0087245 0.069229 0.076463 0.69367 0.3951 0.21885 
0.24203 0.069886 0.0075736 0.0046141 0.057884 0.029934 -0.11952 0.15735 
0.14305 0.089123 0.019247 0.0019835 0.030427 -0.65501 -0.35512 -0.0047575 
-0.058028 0.037826 0.042429 0.010862 0.016945 -0.69677 -0.27012 -0.08828 
-0.18545 0.017274 0.083697 0.068736 0.045389 -0.045532 -0.033201 -0.03057 
-0.098309 0.01004 0.088794 0.099645 0.054103 0.36649 0.15916 0.052294 
-0.01676 -0.07414 0.067749 0.065776 0.051472 0.27425 0.17363 0.25929 
-0.13678 -0.18512 0.0082312 0.047691 0.0067515 -0.06444 0.069722 0.27096 
-0.24677 -0.15092 -0.011992 -0.024487 0.0054362 -0.18808 0.029276 0.074161 
-0.18134 -0.0059084 0.00099702 -0.016102 0.042429 -0.10834 0.014808 -0.10669 
-0.048163 0.13713 0.040292 -0.0060728 0.094384 0.043087 -0.00097594 -0.12873 
0.12776 0.26751 0.058871 0.013986 0.078272 0.030592 0.00297 -0.11048 
0.20668 0.30598 0.067585 0.065612 0.030756 -0.071509 -0.014787 -0.13218 
0.18399 0.30944 0.069886 0.062323 0.016781 -0.1455 0.0095465 -0.13004 
0.16706 0.2463 0.10162 0.07449 0.046868 0.19846 0.048019 -0.0087034 
0.1562 0.171 0.09685 0.058049 0.031085 0.72508 0.083533 0.10704 
0.16097 0.068242 0.066434 0.022535 0.0227 0.92599 0.055418 0.17824 
0.23792 0.033058 0.0069159 0.023522 0.02829 0.54685 0.0028056 0.18728 
0.30911 0.011191 -0.035667 -0.036325 -0.036818 -0.64745 -0.14303 0.18695 
0.31782 0.026481 -0.0031133 -0.015773 -0.083512 -1.3003 -0.06855 0.2126 
0.29645 0.092576 0.039963 0.029769 0.066763 -0.25861 0.27179 0.18563 
0.2343 0.13499 0.058542 0.069229 0.098988 0.74612 0.56658 0.11247 
0.12069 0.16311 0.092082 0.076792 0.075312 0.78476 0.48257 0.010369 
-0.0055795 0.14848 0.092411 0.096686 0.076463 0.30631 0.077614 -0.18348 
-0.27522 0.051636 0.057227 0.10524 0.071366 -0.18101 -0.20288 -0.13859 
-0.67984 -0.035174 0.049006 0.042429 0.10113 -0.37584 -0.46758 -0.021856 
-0.65123 0.0082312 0.047197 0.037168 0.035031 -0.51378 -0.53598 -0.060987 
-0.38472 0.00050378 0.037168 0.028125 -0.058028 -0.58415 -0.35627 -0.16227 
-0.053095 -0.17131 -0.040435 -0.022679 -0.058356 -0.22228 -0.11475 -0.16358 
0.11658 -0.43108 -0.15684 -0.067399 -0.035174 0.38836 0.11477 -0.045368 
0.18267 -0.48649 -0.22047 -0.13136 -0.056548 0.5041 0.45659 0.12003 
0.29365 -0.4301 -0.17657 -0.061151 -0.016431 0.2126 0.59519 0.2491 
0.33426 -0.10669 -0.06444 0.023028 0.086328 0.0227 0.32078 0.29513 
0.29826 0.27376 0.021878 0.054432 0.11165 -0.01117 0.016781 0.32703 
0.14354 0.51594 0.11707 0.086657 0.049335 -0.037147 -0.17673 0.27425 
0.014479 0.6044 0.22657 0.081889 0.024015 -0.031064 -0.23411 0.025824 
-0.082525 0.52581 0.21934 0.095864 -0.004593 0.03092 -0.20173 -0.19827 
-0.16177 0.26011 0.13894 0.046211 -0.01939 0.076792 -0.079566 -0.22721 
-0.1108 -0.051615 -0.011334 0.0031344 -0.040106 0.042265 0.027961 -0.069701 
0.060844 -0.19186 -0.12231 -0.018075 -0.04882 -0.10538 0.085506 0.03092 
0.12464 -0.1792 -0.11787 -0.063289 -0.012649 -0.14681 0.045389 0.0092177 
-0.05589 -0.157 -0.06707 0.0018191 0.058542 0.01826 -0.0034422 -0.041586 
-0.31632 -0.30152 -0.077264 -0.019061 0.062159 0.1202 -0.031886 -0.063289 
-0.22425 -0.17394 -0.016924 0.013164 0.032236 0.047526 0.035195 -0.033859 
0.13039 0.1932 0.12085 0.029605 0.021549 0.01826 0.048841 0.024673 
0.33591 0.40989 0.21786 0.050814 -0.022021 -0.023336 0.069722 0.068736 
0.31832 0.33657 0.18596 0.048184 -0.014293 -0.092719 0.050157 0.088958 
0.093398 -0.040764 0.081067 0.0064227 0.016288 -0.076442 0.072681 0.080409 
-0.15174 -0.46577 -0.061151 0.0080668 0.055254 0.017932 0.051965 0.033387 
-0.30152 -0.43963 -0.092554 -0.011663 0.067091 0.12316 0.052294 -0.028762 
-0.34378 -0.22409 -0.053588 0.0051074 0.079751 0.17117 0.012999 -0.029748 
-0.16917 -0.0011404 0.023686 0.090438 0.11099 0.083204 0.0083956 0.023686 
0.11658 0.24581 0.055911 0.062981 0.089287 -0.027775 0.015137 0.022864 
0.16771 0.24252 0.030427 0.044402 0.047855 -0.088444 0.0074092 0.00083261 
-0.0138 0.19994 0.029934 -0.014622 0.0098754 -0.072989 0.044567 -0.037311 
-0.096172 0.12201 0.035524 0.0044497 -0.023007 -0.040928 0.040292 -0.024487 
-0.050958 0.0592 0.019905 0.016945 -0.049807 -0.024816 -0.015938 -0.02646 
0.0013258 -0.074304 0.012342 0.02681 -0.037805 -0.026296 -0.045039 0.0080668 
0.015301 -0.098473 0.0054362 0.028783 -0.017911 -0.011498 -0.057205 0.045224 
0.04654 -0.04619 0.005765 -0.0062372 0.03092 -0.026131 -0.03764 0.14338 
0.10326 0.027632 0.011191 0.0036276 0.023193 0.0075736 0.03388 0.20438 
0.097015 0.021384 0.010697 0.004943 0.030592 0.024179 0.063968 0.11378 
0.10113 0.019411 0.0069159 0.020562 0.049664 0.018589 0.082217 -0.030242 
0.069886 -0.013143 0.0060938 0.076299 0.038812 0.0018191 0.027961 -0.094034 
0.050814 -0.083347 0.015959 0.039963 0.02122 -0.023994 -0.0044286 -0.088937 
0.11231 -0.092719 0.016945 0.049664 -0.0062372 -0.068714 -0.078908 0.058542 
0.15259 -0.10439 0.033551 0.014643 -0.024323 -0.037476 -0.068057 0.18859 
0.17544 -0.13695 0.05213 0.014479 -0.03764 0.045389 0.027303 0.18596 
0.18876 -0.095349 0.091425 0.027468 -0.049642 0.03947 0.073504 0.044073 
0.12447 0.19649 0.15801 0.024344 -0.023501 -0.044381 0.025824 -0.026296 
0.0088889 0.40578 0.21605 0.066269 0.023851 -0.17821 -0.025967 -0.052273 
-0.0042642 0.54406 0.24581 0.086163 0.14765 0.018589 0.00066819 -0.033694 
0.019905 0.50082 0.20224 0.10507 0.23052 0.38737 0.075641 -0.010183 
-0.027447 0.34495 0.13023 0.12743 0.20717 0.56379 0.14437 0.026646 
-0.19087 0.14042 0.061666 0.077614 0.10425 0.40447 0.13828 0.060844 
-0.091239 0.022371 0.021878 0.078107 0.035031 -0.033201 0.071531 0.077614 
0.12694 -0.062302 -0.064933 0.0098754 -0.054575 -0.60043 -0.095349 0.068242 
0.15226 -0.11607 -0.091404 0.00083261 -0.087622 -0.71305 -0.1159 0.042265 
0.11642 -0.21159 -0.036983 -0.016102 -0.038133 -0.31007 -0.093376 -0.020541 
0.35169 -0.12462 0.027303 -0.0091966 -0.0087034 0.066105 -0.0011404 -0.069043 
0.55852 0.11674 0.06594 0.066434 0.04358 0.24893 0.084519 0.022206 
0.47698 0.1881 0.062981 0.064132 0.065447 0.3295 0.25387 0.16327 
0.20635 0.1465 0.052294 0.038319 0.054925 0.3923 0.32259 0.27014 
0.0052718 0.069558 0.056898 0.063145 0.061501 0.39132 0.28182 0.23693 
-0.20978 0.07038 0.08863 0.086821 0.03947 0.14256 0.12102 0.098001 
-0.39113 0.072681 0.063803 0.081231 0.028125 -0.065591 -0.052109 0.011355 
-0.28919 0.17807 0.049992 0.044402 0.06183 -0.13678 -0.084169 -0.054246 
-0.070359 0.22115 0.062159 0.04358 0.077943 -0.052931 -0.023829 -0.061151 
-0.045696 0.18843 0.084519 0.0082312 0.038483 0.024015 -0.017746 0.0018191 
0.042429 0.13335 0.034537 -0.010841 -0.001798 0.015794 -0.12889 0.0052718 
0.27869 0.12776 0.033715 -0.0031133 0.027632 -0.022679 -0.182 -0.091568 
0.32785 0.1373 0.042429 0.011191 0.060022 0.0032988 -0.082525 -0.11228 
0.19829 0.059035 0.013986 0.046375 0.064461 -0.0060728 0.11033 -0.0052507 
0.051636 0.019411 -0.016431 0.013328 0.036346 -0.056548 0.12529 0.10129 
-0.038791 -0.0070593 -0.0062372 0.019905 -0.013307 -0.10028 0.13269 0.13203 
0.018096 0.040456 -0.0068948 -0.00031829 -0.063618 -0.05178 0.071202 0.074819 
0.073832 0.0016547 -0.012485 0.0072447 -0.034516 0.089287 0.10376 0.052459 
0.044896 -0.02942 -0.029091 0.040128 0.037826 0.23956 0.10885 0.043909 
-0.015773 -0.12577 -0.0059084 0.06742 0.11477 0.27886 0.14108 0.040621 
0.037332 -0.069372 0.0051074 0.061337 0.12644 0.23167 0.086328 0.030263 
0.065118 -0.13284 -0.0057439 0.063803 0.13499 0.16031 0.048677 -0.019061 
-0.042573 -0.12675 -0.039778 0.0036276 0.078765 0.13582 0.0083956 -0.086636 
-0.22688 -0.10209 -0.055232 0.046046 0.033222 0.069558 0.038648 -0.038298 
-0.23247 -0.0095255 -0.02646 -0.003771 -0.014129 -0.027118 0.064954 0.065118 
-0.056383 0.08156 0.027632 0.049006 -0.017746 -0.10867 0.040456 0.18004 
0.091425 0.16903 0.0592 0.028619 0.0085601 -0.10982 -0.032872 0.12102 
0.15127 0.18777 0.049335 0.012835 0.0056006 -0.19498 -0.18808 -0.021363 
0.16706 0.19336 0.027961 0.023851 -0.0021268 -0.15191 -0.2014 -0.10982 
0.13664 0.23693 0.0021479 -0.011005 0.031249 -0.064111 -0.056055 -0.065755 
0.07597 0.16426 0.025659 0.013657 0.012177 -0.034516 0.11214 -0.043888 
0.060515 0.084684 0.026152 -0.0040998 -0.036325 -0.11343 0.16903 0.052952 
-0.14122 -0.019884 -0.0064016 -0.030899 -0.066248 -0.010348 0.19566 0.0037921 
-0.48369 -0.068386 -0.0050863 0.010204 0.023028 0.23512 0.13828 -0.015444 
-0.39869 -0.17772 -0.012649 0.029276 0.060844 0.41812 0.11066 0.041278 
0.021549 -0.17016 -0.010841 0.056898 0.070051 0.26833 0.046046 0.097015 
0.24153 -0.10834 -0.0098543 0.027468 0.12365 0.14831 0.0095465 0.078436 
0.19385 -0.074633 0.00033937 0.038483 0.19517 0.089945 0.048841 0.0592 
0.098001 -0.16983 -0.014622 0.017274 0.1271 0.012013 0.046868 -0.0052507 
0.018096 -0.18216 -0.012156 0.022042 -0.048327 -0.15733 -0.033037 -0.025802 
-0.025309 -0.041751 0.017603 0.022371 -0.09091 -0.17065 -0.080881 0.045882 
0.072188 0.13269 0.072353 0.025166 -0.068879 -0.133 -0.042408 0.12398 
0.13302 0.23611 0.073997 0.039963 -0.069536 -0.16457 -0.090088 0.019247 
0.053609 0.25978 0.091753 0.051143 -0.070523 -0.09946 -0.10637 -0.1695 
-0.12823 0.19764 0.058542 0.032071 -0.02235 0.086985 -0.047505 -0.18676 
-0.16424 0.047855 0.004943 0.036017 0.17462 0.39526 -0.0019624 -0.038627 
-0.07266 0.037826 -0.023007 0.010533 0.28346 0.45018 -0.063453 0.072353 
0.11017 0.12579 0.020233 0.061172 0.14552 0.095206 0.014808 0.1271 
0.1784 0.2925 0.11477 0.049664 -0.01232 -0.091404 0.11099 0.097837 
0.18169 0.30023 0.17034 0.11477 -0.056219 -0.075455 0.13072 0.079751 
0.094384 0.25222 0.16771 0.10425 -0.00097594 0.041936 0.074326 0.065447 
0.071531 0.092576 0.13615 0.09685 0.0079024 -0.028926 0.061337 0.040785 
0.027632 0.00033937 0.056898 0.06331 -0.050629 -0.14155 0.15999 0.010533 
0.0047785 -0.13958 -0.048492 -0.011005 -0.081374 -0.1843 0.23644 0.041443 
-0.0088678 -0.34707 -0.12725 -0.054904 -0.067564 -0.10752 0.057391 0.075312 
-0.024487 -0.53088 -0.21093 -0.10423 -0.056055 -0.082854 -0.10768 0.039141 
-0.060987 -0.59714 -0.22441 -0.094692 -0.014622 0.0095465 -0.067892 0.016123 
-0.065262 -0.47597 -0.15339 -0.0070593 0.074326 0.15209 0.026481 0.024837 
0.048677 -0.2111 -0.0067304 0.046375 0.2195 0.37044 0.10655 0.06479 
0.13549 0.17149 0.092082 0.11937 0.16788 0.27557 -0.016595 0.093726 
0.037168 0.49227 0.21178 0.057227 0.0036276 0.004943 -0.39129 -0.045039 
-0.086307 0.63958 0.2292 0.038155 -0.10291 -0.39803 -0.40034 -0.13859 
-0.10719 0.50493 0.21967 0.05213 -0.00015387 -0.52052 -0.036818 -0.13958 
-0.11163 0.33394 0.19714 0.076134 0.11313 -0.083347 0.086985 -0.1695 
-0.10275 0.2126 0.16179 0.11263 0.042429 0.24828 0.33229 -0.05178 
0.031578 0.14141 0.069393 0.055747 -0.081374 0.14075 0.61673 0.17018 
0.26439 0.044238 0.02829 0.031907 -0.053753 -0.043066 0.42107 0.33525 
0.3073 0.027139 0.01415 0.022042 0.0037921 -0.30843 -0.17969 0.30319 
0.30483 0.0019835 -0.013471 0.015465 0.042594 -0.28689 -0.44128 0.1784 
0.19501 -0.16013 -0.073811 0.009711 0.049664 0.10326 -0.30596 0.057884 
0.0227 -0.20353 -0.093048 -0.014951 0.12085 0.75484 0.037004 -0.0406 
-0.17542 -0.12264 -0.052109 0.00017495 0.16706 0.90215 0.3581 -0.11393 
-0.22096 -0.029091 0.010204 0.0032988 0.11313 0.36221 0.44755 -0.1085 
-0.10571 0.0028056 0.048348 0.020398 0.0051074 -0.11261 0.34232 -0.027118 
0.020727 0.022371 0.0227 0.025659 -0.013143 -0.11031 -0.017253 0.038319 
0.072188 0.05213 0.010697 -0.0011404 -0.014951 -0.1353 -0.32076 0.056404 
0.094713 0.12858 0.024673 0.0019835 -0.054904 -0.4513 -0.33638 0.0227 
0.0013258 0.15719 0.049335 0.0018191 -0.075291 -0.77487 -0.27982 -0.00015387 
-0.056383 0.18826 0.060515 0.04917 -0.0004827 -0.44851 -0.18183 0.011026 
0.058213 0.12513 0.080902 0.082711 0.098494 0.098988 0.0090533 0.047362 
0.084848 -0.033365 0.062981 0.060186 0.10228 0.36715 0.1225 0.073504 
-0.037147 -0.14434 0.049006 0.078765 0.020891 0.13615 0.159 0.062159 
-0.0021268 -0.069372 0.034537 0.028619 -0.048985 -0.13859 0.070544 0.10014 
0.15209 -0.07825 0.01826 -0.0052507 -0.0049219 -0.051944 0.13713 0.1031 
0.21523 -0.10817 0.01415 0.0085601 -0.009361 0.17445 0.25403 0.093726 
0.21885 0.12595 0.071037 0.032236 -0.036818 0.23003 0.27376 0.099645 
0.25469 0.36435 0.14305 0.091753 -0.00081153 0.23775 0.10228 0.14881 
0.20536 0.50641 0.15916 0.046211 0.024179 0.065447 -0.17312 0.011191 
0.064625 0.35925 0.14206 0.061501 0.064132 -0.21422 -0.42927 -0.16835 
-0.16161 0.079751 0.054103 0.01826 0.047526 -0.21685 -0.47991 -0.072825 
-0.23165 -0.18397 -0.013143 0.009711 0.11033 0.13532 -0.093705 0.11757 
-0.1644 -0.18019 -0.03616 0.03388 0.15703 0.48372 0.49687 0.13532 
-0.095514 -0.14895 -0.035832 -0.026953 0.070215 0.37044 0.77736 -0.053588 
-0.10061 -0.20255 -0.097651 -0.013307 -0.021199 -0.20814 0.3461 -0.16358 
-0.10653 -0.21422 -0.14106 -0.054575 0.051472 -0.33654 -0.022021 -0.13399 
-0.19877 -0.28755 -0.18939 -0.05178 0.067913 0.17265 -0.1279 -0.04619 
-0.19909 -0.23609 -0.13958 -0.00031829 0.062817 0.62988 -0.042244 0.052459 
-0.0503 -0.015444 -0.0096899 0.031907 0.037497 0.48914 -0.011992 0.15324 
0.10326 0.13549 0.082053 0.086657 -0.035338 -0.025309 -0.11278 0.27688 
0.21704 0.27146 0.17001 0.053445 -0.079237 -0.5608 -0.27325 0.18859 
0.27655 0.37339 0.21243 0.060515 -0.1039 -0.77816 -0.20847 -0.015116 
0.21408 0.33213 0.17528 0.051143 -0.066248 -0.5368 -0.03501 -0.15931 
0.11329 0.26932 0.14321 0.040785 0.01563 0.17758 0.066269 -0.10932 
-0.0014692 0.12612 0.081067 0.049499 0.051472 0.5651 0.09274 -0.026131 
-0.018404 0.061501 0.037661 0.028619 0.066434 0.18613 0.051308 -0.00097594 
0.13516 0.062981 0.10326 0.10787 0.071859 -0.14796 0.091096 0.023193 
0.22805 0.1202 0.10491 0.10014 0.0056006 -0.24973 0.056898 0.091918 
0.14338 0.077121 0.038977 0.032071 0.009711 0.016945 0.036182 0.17297 
0.18103 0.19106 -0.0042642 0.010697 0.045882 0.33607 0.067091 0.16081 
0.26735 0.32111 0.021878 -0.013636 -0.021363 0.36517 0.13039 0.053938 
0.21687 0.34577 0.041114 0.012835 -0.030406 0.22115 0.12743 -0.010348 
0.12858 0.27096 0.046046 0.023522 0.10721 0.1299 0.12957 0.01152 
0.053116 0.16064 0.024015 0.062159 0.11329 -0.025638 0.14568 0.03947 
-0.023994 0.064132 0.071202 0.10145 0.051472 -0.10752 0.19566 -0.017253 
-0.084169 -0.038133 0.047033 0.077121 0.050157 -0.15717 0.020069 -0.13596 
0.032236 0.084355 0.073668 0.11921 0.12414 -0.073647 -0.13925 -0.13136 
0.20668 0.10524 0.066927 0.09685 0.072517 -0.17032 -0.16687 -0.064768 
0.072188 -0.12511 -0.032215 0.050321 -0.055232 -0.4587 -0.045368 0.05065 
-0.36219 -0.62558 -0.17361 -0.035503 -0.18397 -0.59188 0.07597 0.17034 
-0.4513 -0.85247 -0.27736 -0.12018 -0.19005 -0.15931 0.16327 0.19928 
-0.25615 -0.67573 -0.27538 -0.10275 -0.03912 0.38523 0.15867 0.0786 
0.022042 -0.21998 -0.14846 -0.05441 0.16393 0.72902 0.056404 -0.011334 
0.25074 0.24005 0.03092 0.0227 0.27606 0.60785 -0.10275 -0.089266 
0.26455 0.35876 0.11313 0.057391 0.23134 0.31141 -0.22376 -0.14007 
0.025166 0.18547 0.092247 0.033387 0.10162 0.099481 -0.12511 -0.13908 
-0.085813 0.093562 0.11017 0.054103 0.028783 -0.031064 0.10178 -0.0088678 
-0.1187 0.069393 0.11247 0.013328 -0.09239 -0.16358 0.28708 0.11937 
-0.11672 0.16442 0.11083 0.037661 -0.17312 -0.16588 0.23101 0.15818 
0.082217 0.36238 0.14453 0.056733 -0.13596 -0.037311 0.076299 0.16623 
0.37076 0.44393 0.14946 0.08978 0.012013 0.060022 -0.076113 0.17001 
0.39904 0.43275 0.11559 0.11872 0.17034 0.022371 -0.079895 0.14585 
0.20964 0.28478 0.074983 0.081231 0.16294 -0.13267 -0.14846 0.063803 
-0.14961 0.086492 0.0087245 0.045224 0.069722 -0.23592 0.020233 -0.094363 
-0.2379 -0.063782 -0.014951 0.011848 0.0046141 -0.18693 0.08567 -0.12346 
-0.01117 -0.060823 -0.0021268 -0.0014692 0.01267 0.079916 -0.011663 0.0095465 
0.30796 -0.0021268 0.049828 0.036675 0.046704 0.32769 0.13417 0.12168 
0.37504 0.014808 0.078929 0.015137 0.041607 0.13746 0.10672 0.054925 
0.21408 -0.0062372 0.079587 0.048677 0.012999 -0.13727 -0.011005 0.024179 
-0.073976 -0.056219 0.058049 0.0065871 0.0024767 -0.16539 -0.071345 0.034044 
-0.2083 -0.11574 -0.0068948 0.0044497 0.0074092 0.030098 -0.021363 0.0011614 
-0.25647 -0.14829 -0.038791 0.00066819 0.03947 0.30434 0.082053 -0.023994 
-0.19729 -0.072989 -0.033201 0.035031 0.094384 0.40726 0.15703 0.01563 
-0.17147 0.025001 0.023522 0.052952 0.047855 0.29892 0.09422 0.02533 
0.028454 0.11411 -0.0078813 -0.02646 0.0082312 0.21046 -0.053588 0.0075736 
0.1077 -0.0011404 -0.05326 -0.071674 -0.060165 0.044731 -0.17312 0.0026412 
0.10803 -0.032543 -0.042408 -0.055397 -0.098638 -0.16523 -0.14139 0.1465 
0.31075 0.038648 0.091918 0.021878 -0.05326 -0.72571 -0.14862 0.29037 
0.24236 0.1881 0.20421 0.11987 0.037332 -0.99239 -0.006566 0.19369 
-0.24299 0.21424 0.19977 0.095042 0.08567 -0.50129 0.042265 -0.017253 
-0.37995 0.33509 0.1664 0.10047 0.10047 0.1641 -0.096829 -0.20008 
-0.14928 0.14404 0.062981 0.022371 0.06183 0.49753 -0.060658 -0.29643 
0.091918 -0.0034422 0.012835 0.0062583 0.12414 0.52794 0.28297 -0.14763 
0.010204 0.10754 0.05213 0.040621 0.18761 0.60933 0.52482 0.079916 
-0.080059 0.13713 0.024837 0.046211 0.14535 0.88045 0.35728 0.27261 
0.15538 0.081889 -0.010183 0.012013 0.051308 0.73543 0.070544 0.22016 
0.15226 0.13368 0.021878 0.00297 -0.024487 0.22164 -0.13218 0.038812 
-0.064275 0.032236 0.022535 0.016123 -0.075455 -0.36581 -0.27144 -0.10324 
-0.08384 -0.1547 -0.011827 0.0013258 -0.063453 -0.59402 -0.303 -0.12182 
-0.03764 -0.14336 -0.003771 -0.022514 -0.0068948 -0.51312 -0.10357 -0.076771 
-0.0083746 -0.014458 0.021056 0.035524 0.06742 -0.17098 0.2024 0.019905 
-0.027118 0.093069 0.028454 0.0324 0.088465 0.051143 0.30944 0.081067 
-0.08828 0.047691 -0.00081153 0.023686 -0.0026201 0.034044 0.046704 0.0087245 
-0.21307 0.01563 0.00017495 -0.0060728 -0.050629 -0.085156 -0.15273 -0.11113 
-0.13974 0.014315 0.049499 0.0059294 -0.052437 -0.11245 -0.36729 -0.11639 
0.25485 0.18481 0.12266 0.063803 -0.06 -0.099953 -0.34246 0.080738 
0.44048 0.10145 0.11 0.034044 -0.033037 0.0592 0.14617 0.32966 
0.19237 -0.29643 -0.0068948 0.016123 -0.017582 0.2075 0.53781 0.26636 
-0.18512 -0.53812 -0.079401 -0.039284 0.0024767 0.25666 0.38046 0.029112 
-0.30021 -0.67968 -0.10538 -0.00031829 0.040621 0.12825 0.048513 -0.13333 
-0.25105 -0.5026 -0.11541 0.022206 -0.0021268 0.00066819 -0.14385 -0.1741 
-0.073976 0.062488 -0.0075525 0.011355 0.01826 -0.073318 -0.14023 -0.12083 
0.039141 0.51857 0.065447 0.056569 0.092411 0.035031 0.057555 -0.044546 
0.11461 0.50821 0.096028 0.05772 0.1197 0.10063 0.15949 0.037168 
0.17478 0.34577 0.083533 0.086163 0.10195 0.050814 0.088958 0.056898 
0.23562 0.1881 0.055418 0.051472 0.096357 -0.16605 -0.02794 0.071531 
0.19468 0.15571 0.027139 0.03092 0.088465 -0.19137 -0.0019624 0.14683 
0.084519 0.095699 0.021384 0.050814 0.043087 -0.090746 -0.015116 0.15061 
0.0075736 0.086657 0.0019835 0.017438 -0.031228 0.046375 -0.14615 0.15423 
0.029605 0.061501 -0.01528 0.022206 -0.032379 0.13006 -0.3178 0.18267 
0.15193 0.0087245 -0.040106 0.0067515 0.018918 0.24663 -0.26749 0.15735 
0.22953 -0.042737 -0.042737 0.0070803 0.10211 0.31092 -0.041093 -0.099131 
0.089287 -0.14944 -0.049971 0.018425 0.087808 0.21638 0.57266 -0.34427 
-0.032543 -0.24793 -0.066084 -0.024652 0.0028056 -0.018075 0.96348 -0.25302 
0.040456 -0.28574 -0.045039 0.026974 -0.018897 -0.12692 0.64238 0.054925 
0.20586 -0.21291 0.00033937 0.045553 -0.042408 -0.34049 -0.14007 0.2805 
0.41187 -0.038298 0.038977 0.035031 -0.093212 -0.42516 -0.61375 0.26357 
0.093562 0.065776 0.039141 0.029112 -0.16128 -0.24431 -0.61144 0.075805 
-0.54601 0.0060938 0.058706 0.0098754 -0.16457 0.0046141 -0.45311 -0.15602 
-0.64663 0.034537 0.040128 0.032564 -0.03912 0.25913 -0.14188 -0.18611 
-0.21126 0.00083261 0.049499 0.016945 0.12349 0.42913 0.18185 -0.064604 
0.11033 -0.0034422 0.085177 0.060679 0.2246 0.35334 0.39362 0.067913 
0.37619 0.068242 0.073504 0.054267 0.20372 0.18202 0.35284 0.09126 
0.36337 0.18646 0.093398 0.058049 0.12233 0.061501 0.21161 0.084848 
0.16969 0.085506 0.028947 0.042429 0.1151 0.017603 -0.046519 0.08978 
0.034373 0.026481 -0.01939 0.0227 0.11444 -0.19794 -0.26996 0.17824 
0.11905 0.1659 -0.013636 0.019083 0.0095465 -0.3571 -0.20748 0.27803 
0.25518 0.28905 0.042594 0.045553 -0.05737 -0.2448 0.078765 0.26357 
0.30977 0.35202 0.07301 0.047855 -0.035832 0.21737 0.30072 0.14371 
0.29069 0.42091 0.12842 0.083697 0.0032988 0.51874 0.2394 -0.10719 
0.22509 0.40546 0.11247 0.050814 -0.0034422 0.34709 0.10145 -0.21619 
0.10803 0.26225 0.096686 0.062159 -0.014951 -0.050793 0.00083261 -0.11064 
0.0021479 0.16952 0.069229 0.013657 -0.024487 -0.50836 -0.07973 -0.00064712 
-0.027282 0.095535 0.077121 0.021878 -0.020212 -0.58432 -0.080223 0.06594 
0.052459 0.094713 0.052787 0.016616 0.024015 -0.20222 -0.025309 0.069886 
0.12283 0.047197 0.022042 0.019905 0.069393 0.20109 0.0044497 0.063803 
0.065283 0.060022 0.0072447 0.041607 0.077449 0.30418 0.058049 0.063145 
-0.095349 -0.025802 0.012835 0.031578 0.050157 0.11461 0.10852 0.043745 
-0.19482 -0.10932 0.021878 0.048019 0.024673 -0.030077 0.11526 0.040128 
-0.12988 -0.018733 0.057391 0.066105 0.039799 -0.0068948 0.062159 0.0034632 
0.07038 0.14174 0.11346 0.057884 0.025495 -0.0014692 -0.010676 -0.023994 
0.17988 0.29513 0.13565 0.073997 0.038155 0.092904 -0.10028 -0.066248 
0.11707 0.34939 0.1202 0.049335 0.074654 0.2514 -0.11639 -0.12445 
0.0018191 0.37076 0.092411 0.061008 0.090603 0.27146 -0.096007 -0.055561 
0.052459 0.2708 0.069393 0.038483 0.05476 0.097837 0.10754 0.18465 
0.11625 0.17281 0.034209 0.024508 0.0098754 -0.11968 0.24153 0.28165 
0.11461 0.036346 0.0072447 0.033222 0.021056 -0.13777 0.18909 0.11724 
-0.0073881 -0.082032 -0.045861 -0.029091 0.050157 -0.031557 0.076956 -0.035667 
-0.13086 -0.22622 -0.074469 -0.00097594 0.036839 0.034866 0.020891 -0.069701 
-0.13234 -0.21192 -0.07266 -0.012156 0.0011614 0.075312 0.061172 0.046211 
-0.038956 -0.07562 0.0072447 0.013164 0.026317 0.13203 0.06183 0.10195 
-0.014951 0.076463 0.054925 0.017438 0.075312 0.15949 0.07597 0.05213 
-0.0052507 0.15275 0.096193 0.032236 0.065776 0.10408 0.052294 -0.0042642 
0.15028 0.16294 0.080573 0.055418 -0.00097594 -0.048327 0.056404 -0.0013048 
0.38046 0.12316 0.098494 0.051143 -0.048327 -0.27259 -0.030242 0.032236 
0.51446 0.17363 0.12908 0.094877 -0.061973 -0.33852 0.0034632 0.045389 
0.40957 0.20816 0.15324 0.092904 -0.033201 -0.18446 0.0026412 0.043416 
0.22296 0.1516 0.10458 0.060515 -0.029748 -0.035832 0.039634 0.029934 
-0.099624 -0.0098543 0.042758 0.04358 0.015301 0.051308 0.020562 0.01711 
-0.52282 -0.29166 -0.074798 -0.013471 0.024508 0.17725 0.060186 -0.05737 
-1.0161 -0.48221 -0.16555 -0.025638 0.075312 0.37011 0.051965 -0.080881 
-1.0032 -0.47547 -0.23461 -0.089266 0.13006 0.34577 0.0042853 -0.071016 
-0.56557 -0.23757 -0.20633 -0.11689 0.11625 0.28116 -0.035832 -0.0138 
-0.13974 -0.098309 -0.12774 -0.063618 0.047197 0.3775 -0.080552 0.03947 
0.057391 -0.089102 -0.049478 -0.027775 0.0065871 0.31536 -0.13991 -0.0095255 
0.13203 -0.20156 -0.0044286 0.044238 0.10704 0.024837 -0.19712 -0.061316 
0.20323 -0.23099 0.057227 0.081395 0.087972 -0.62641 -0.13596 -0.037969 
0.29217 -0.063618 0.11674 0.08304 -0.037805 -1.0478 -0.027447 0.019905 
0.33722 0.28231 0.1955 0.082382 -0.031886 -0.39853 0.20125 0.055418 
0.29102 0.5702 0.21786 0.07449 0.013328 0.463 0.33196 0.09422 
0.19254 0.50525 0.1761 0.087314 0.047855 0.72853 0.42962 0.15719 
0.13236 0.1202 0.042758 0.022042 0.010369 0.35153 0.37471 0.18432 
0.046375 -0.1912 -0.023007 0.016616 -0.02646 -0.11031 0.23907 0.14206 
-0.021363 -0.23658 0.01004 -0.0013048 -0.034681 -0.27325 -0.034516 0.01415 
-0.06707 -0.19794 0.060844 0.021878 0.0075736 -0.21011 -0.23444 -0.068057 
-0.065919 -0.014458 0.074983 0.065612 0.040128 -0.16506 -0.30037 -0.074304 
-0.05737 0.19501 0.079094 0.032564 0.070215 -0.091404 -0.20074 -0.050136 
0.005765 0.35153 0.032893 0.0092177 0.063145 0.15324 -0.12231 -0.036325 
0.01415 0.25765 -0.012978 -0.015609 0.052787 0.27738 -0.060658 -0.041751 
-0.088608 0.14026 -0.0064016 -0.0031133 0.04095 0.27228 0.0062583 1.0539e-005 
-0.13678 0.010204 0.0075736 0.035524 0.018425 0.17824 0.083533 0.027303 
-0.057699 -0.1986 -0.081539 -0.046354 -0.10406 -0.064275 0.063968 0.032564 
0.14881 -0.35611 -0.15914 -0.039942 -0.1552 -0.23428 0.044567 0.051801 
0.29941 -0.31172 -0.11738 -0.026296 -0.10357 -0.28706 0.069722 0.077449 
0.24104 -0.15964 0.014972 0.057391 -0.024323 -0.24891 0.06479 0.073339 
-0.0019624 -0.1473 0.075312 0.062488 0.043416 0.0065871 0.032564 0.060186 
-0.19597 -0.23263 0.099481 0.084519 0.10507 0.24433 -0.020706 0.020562 
-0.29199 -0.22326 0.07449 0.077121 0.16574 0.45511 0.05624 -0.039942 
-0.26798 0.074654 0.1128 0.041772 0.24499 0.41943 0.1391 -0.093376 
-0.073647 0.43078 0.159 0.060679 0.24778 0.24088 0.2657 -0.077264 
0.11987 0.71521 0.14897 0.10178 0.1391 0.030263 0.30697 0.064625 
0.20832 0.68825 0.1419 0.079258 0.023028 -0.11541 0.17478 0.27606 
0.40266 0.66211 0.070051 0.077614 -0.0060728 -0.066413 -0.036654 0.28724 
0.44343 0.48109 0.065447 0.047855 0.023028 0.0786 -0.13974 0.091918 
0.42091 0.27343 0.062488 0.042429 0.011848 0.36041 -0.080059 0.031578 
0.33344 0.11888 0.064461 0.058377 -0.0026201 0.63399 -0.035503 0.023522 
0.10195 0.0083956 0.076956 0.08008 -0.042573 0.35531 -0.19071 0.012342 
-0.2185 -0.3155 -0.032215 0.019576 -0.18874 -0.47991 -0.49964 -0.025802 
-0.48139 -0.8385 -0.21406 -0.11656 -0.3224 -1.557 -0.55472 -0.10456 
-0.54025 -1.1951 -0.31188 -0.11985 -0.26437 -1.5815 -0.14582 -0.17805 
-0.2545 -0.86941 -0.21504 -0.076606 -0.046847 -0.11607 0.56329 -0.054904 
-0.026131 -0.19137 -0.06148 0.016452 0.17971 1.1437 0.95493 0.050321 
0.15242 0.24614 0.071037 0.10754 0.25304 1.1016 0.64517 0.10507 
0.32325 0.42091 0.092247 0.074983 0.2075 0.30171 0.042923 0.082546 
0.46201 0.46366 0.087808 0.084519 0.17939 -0.28508 -0.27226 0.068407 
0.38523 0.49342 0.1396 0.048348 0.1373 -0.17345 -0.30547 0.029769 
0.19566 0.30549 0.13187 0.03536 0.080409 0.25436 -0.1501 0.045389 
0.011355 0.12069 0.080409 0.0074092 -0.027447 0.5235 -0.043066 0.044238 
-0.1062 -0.14336 0.017932 -0.033037 -0.093048 0.50295 0.012013 0.048348 
-0.074304 -0.1353 0.037661 0.020562 -0.028597 0.37652 -0.0047575 0.085341 
0.083533 0.28905 0.10376 0.037332 0.020727 -0.17673 -0.025638 0.14371 
0.11822 0.47402 0.14864 0.067585 -0.0138 -0.8334 -0.018075 0.061008 
0.095864 0.36863 0.14075 0.080902 -0.010348 -0.65814 0.06183 -0.0004827 
0.08419 0.082711 0.07038 0.062652 0.058706 0.11872 0.14437 0.018425 
0.016452 -0.11179 0.01974 0.06594 0.059364 0.39033 0.14897 0.11921 
-0.056877 -0.18989 -0.050136 0.00083261 -0.0088678 0.054103 0.085012 0.13828 
-0.13826 -0.13086 -0.047669 -0.022021 -0.038133 -0.23083 -0.048163 0.069229 
-0.10653 -0.10406 -0.067564 -0.037969 0.10737 0.036839 -0.10472 0.004943 
0.12908 0.0088889 -0.014951 -0.011827 0.18843 0.3119 -0.068057 -0.086636 
0.25946 0.10606 0.04506 0.061995 0.12398 0.29168 0.08863 -0.16703 
0.033551 0.09981 0.067585 0.06183 0.058377 0.061501 0.1442 -0.11146 
-0.19696 -0.022021 0.047691 0.059857 -0.0059084 -0.07003 0.10425 -0.031886 
-0.17476 -0.049971 0.017438 -0.00064712 -0.054739 -0.18874 0.037168 0.066763 
-0.008539 -0.02794 0.013328 -0.0016336 -0.023007 -0.14188 -0.04882 0.067091 
0.14141 0.045553 0.02829 0.0042853 0.016781 -0.039778 -0.10357 0.021878 
0.25584 0.10277 0.032729 0.012506 0.039799 0.051472 -0.067892 0.079258 
0.20355 0.08304 0.035195 0.029605 0.0082312 -0.014458 -0.025474 0.15226 
0.048348 0.061337 0.031249 -0.02235 -0.0068948 0.0070803 0.048348 0.14453 
0.014972 0.11165 0.024508 -0.01528 0.016123 0.095864 0.03947 0.069558 
-0.14517 0.14749 0.0054362 -0.017088 0.021384 0.10655 -0.17575 -0.063946 
-0.35627 0.11411 0.031249 0.0087245 -0.021034 0.0095465 -0.10127 -0.25335 
-0.25187 0.093562 0.07597 0.062817 -0.045532 0.026317 0.4117 -0.23872 
0.10556 0.15505 0.077285 0.034866 -0.011663 -0.023829 0.57382 -0.011498 
0.35745 0.2486 0.087479 0.038648 0.015959 -0.065591 0.23874 0.16179 
0.28478 0.27228 0.094055 0.024837 0.072353 -0.043724 -0.02498 0.1733 
0.1761 0.33887 0.15604 0.035524 0.083697 0.0031344 -0.22524 0.072846 
0.085999 0.37981 0.15999 0.077943 0.089287 0.013657 -0.26157 0.071859 
0.090931 0.35794 0.16229 0.091753 0.09422 0.057884 -0.20633 0.1174 
0.10787 0.24252 0.13236 0.099316 0.069393 0.047855 -0.036983 0.10885 
0.080902 0.10737 0.090931 0.063474 0.048184 0.037004 0.054925 0.045389 
0.036017 0.026481 0.042758 0.055911 0.012506 0.012506 0.071366 -0.020377 
0.13384 0.025988 0.031578 0.029605 -0.031886 -0.016431 0.0067515 -0.054739 
0.29563 0.033551 0.00297 0.010862 -0.051287 -0.028762 0.01415 -0.042901 
0.24301 -0.011334 -0.036325 0.015137 -0.041422 0.041607 0.13565 -0.0004827 
-0.0044286 -0.11524 -0.094856 -0.035996 -0.017911 0.098001 0.17988 0.1008 
-0.13366 -0.26733 -0.092719 -0.030077 0.025001 0.11937 0.11707 0.15571 
-0.2328 -0.37584 -0.076935 0.0098754 0.021713 0.057391 -0.027118 0.053609 
-0.37847 -0.34608 -0.06 0.014643 -0.0080457 -0.045696 -0.11672 -0.076277 
-0.3765 0.14437 0.033222 0.053445 0.0087245 -0.090253 -0.13399 -0.090746 
-0.031392 0.62084 0.14913 0.064954 0.033058 -0.041093 -0.030735 -0.067892 
0.28593 0.74316 0.17166 0.083862 0.012835 -0.084498 0.02681 -0.0052507 
0.27836 0.4801 0.13302 0.073997 -0.037969 -0.17575 0.11181 0.057062 
0.19583 0.10622 0.057391 0.044567 0.007738 -0.25171 0.041443 0.066105 
0.32522 -0.028269 0.017438 0.035688 0.11346 -0.049314 0.096193 0.11855 
0.46629 -0.078415 -0.031392 0.012999 0.097508 0.14897 0.16179 0.15587 
0.42584 -0.18939 -0.065426 0.014808 0.00050378 0.36797 0.15949 0.18235 
0.32621 -0.30366 -0.042901 -0.015938 0.023193 0.56296 0.028947 0.15324 
0.35942 -0.15289 0.052952 0.048019 0.11822 0.54619 -0.12741 -0.013307 
0.28198 0.018918 0.16952 0.10655 0.12825 0.14453 -0.12511 -0.20386 
0.14124 0.089452 0.15555 0.12513 0.036182 -0.42122 0.020233 -0.15552 
-0.0026201 0.071859 0.1294 0.14206 -0.063946 -0.74445 0.25995 0.048348 
-0.58037 -0.015773 0.091096 0.087314 -0.054082 -0.6754 0.18152 0.12792 
-1.4735 -0.18841 0.0031344 0.024673 -0.046847 -0.36006 -0.1552 -0.0036066 
-1.653 -0.16769 -0.049642 -0.038133 0.0062583 0.058871 -0.30728 -0.10209 
-1.0876 -0.047998 -0.094527 -0.10193 -0.0091966 0.38753 -0.044052 -0.15339 
-0.20633 0.057227 -0.13399 -0.1136 -0.089431 0.26669 0.079094 -0.14434 
0.47582 0.037497 -0.11787 -0.10949 -0.098638 0.20717 0.004943 -0.14632 
0.71373 -0.088937 -0.073154 -0.013471 -0.077593 0.44985 0.13812 0.041443 
0.78131 -0.047505 0.0011614 0.030592 0.042265 0.65438 0.40973 0.37504 
0.75615 0.19747 0.11674 0.083204 0.20914 0.36813 0.17396 0.43275 
0.71472 0.39888 0.15505 0.13861 0.33706 -0.26223 -0.081539 0.21589 
0.52449 0.37997 0.15933 0.11888 0.40348 -0.20715 -0.12725 0.04917 
0.32637 0.28905 0.13943 0.1373 0.28987 0.26817 0.059528 0.0026412 
0.23282 0.11329 0.14437 0.096357 0.18004 0.53699 0.17051 0.061995 
0.13401 -0.066413 0.071531 0.060844 0.0019835 0.22723 0.11674 -0.001798 
-0.12988 -0.53877 -0.05441 0.033551 -0.10324 -0.26223 0.0065871 -0.086471 
-0.5511 -1.1364 -0.21981 -0.054575 -0.15964 -0.45229 -0.082525 -0.13711 
-0.9549 -1.4414 -0.3127 -0.098802 -0.18528 -0.37896 -0.085156 -0.16769 
-0.9817 -1.0376 -0.34411 -0.17377 -0.1358 -0.14089 -0.048656 -0.15388 
-0.69973 -0.32882 -0.18463 -0.1376 -0.05589 0.075476 0.056898 -0.17279 
-0.29906 0.34528 0.044567 -0.072825 0.0046141 0.19435 0.080738 -0.084169 
0.033715 0.74382 0.22838 0.016781 0.049828 0.18761 0.08863 0.049992 
0.26669 0.87683 0.3198 0.12184 0.10491 0.2657 0.062159 0.17922 
0.32506 0.852 0.28971 0.11806 0.1105 0.16442 0.079751 0.14437 
0.30105 0.59141 0.20043 0.14009 0.056733 -0.11376 -0.031064 0.045718 
0.24976 0.29941 0.11921 0.068571 -0.0078813 -0.34296 -0.055561 0.055911 
0.20684 -0.031721 0.0028056 0.025824 -0.0050863 -0.20222 0.042429 0.16623 
0.08419 -0.27012 -0.10982 0.0072447 0.053609 0.1881 0.22164 0.20125 
-0.003771 -0.37633 -0.14484 0.0075736 0.11888 0.43702 0.26176 0.089452 
-0.049149 -0.28459 -0.074304 0.039305 0.13549 0.35712 0.23414 -0.028926 
-0.025145 -0.19679 -0.014458 0.014315 0.12792 0.12053 0.15275 -0.089102 
-0.004593 -0.1016 0.015794 0.015137 0.089287 -0.084169 0.004943 -0.03764 
-0.0013048 -0.0062372 0.033058 -0.0011404 0.031249 -0.065591 -0.1501 -0.0078813 
0.013492 0.088301 0.038977 0.0082312 -0.0083746 -0.061809 -0.34246 -0.038791 
0.056733 0.093398 0.030098 0.037004 -0.028926 -0.096829 -0.3303 -0.026953 
0.064954 0.10129 0.034537 -0.010348 -0.049807 -0.10028 -0.13497 0.046704 
0.090438 0.082546 0.031249 0.013164 -0.0868 -0.081374 0.15522 0.11231 
0.11346 0.085835 0.022206 0.0095465 -0.066577 -0.069372 0.22624 0.10392 
0.1322 0.094384 0.014315 0.023851 -0.038956 -0.034516 0.20783 0.11231 
0.13927 0.042429 -0.004593 0.025001 0.028619 0.090438 0.076134 0.072188 
0.11378 0.046046 0.04358 0.0047785 0.20224 0.33048 0.035031 0.034537 
0.063474 0.054596 0.073997 0.049664 0.24104 0.23463 0.0090533 -0.029255 
0.13467 0.09981 0.093726 0.071202 0.18942 0.10014 0.0088889 -0.014458 
0.21769 0.14108 0.092082 0.061337 -0.045203 -0.15832 -0.031721 0.032236 
0.28198 0.16821 0.073832 0.0592 -0.2448 -0.43125 -0.058685 0.072846 
0.24433 0.15078 0.043251 0.011684 -0.25845 -0.67392 -0.18512 0.012342 
0.16377 0.183 0.055747 0.035195 -0.057863 -0.35315 -0.19498 0.014972 
0.095699 0.24186 0.065776 0.031742 0.18119 0.27129 -0.067564 0.062159 
0.03947 0.31174 0.11724 0.069722 0.32588 0.67066 0.061337 0.097837 
0.10951 0.31223 0.12579 0.091589 0.22444 0.38556 0.17001 0.058706 
0.090767 0.080902 0.074983 0.11033 0.085506 0.09981 0.14634 0.018096 
-0.17427 -0.071016 0.063968 0.076627 -0.029913 0.2029 0.022371 -0.0080457 
-0.21981 0.0074092 0.04095 0.03388 -0.098967 0.29234 -0.072003 0.03388 
0.011026 0.22328 0.025001 0.0093821 -0.10735 -0.013307 -0.1039 0.037332 
0.15111 0.27902 0.017274 -0.025967 -0.12281 -0.63791 -0.109 0.0082312 
0.23068 0.25962 -0.010841 -0.017417 -0.11376 -0.8893 0.094877 0.032071 
0.19139 0.10474 -0.020212 0.024837 -0.066906 -0.4033 0.32621 0.05213 
0.11905 -0.018733 -0.032872 -0.00015387 0.0019835 0.074819 0.38753 0.0324 
0.20947 -0.15635 0.0059294 0.039141 0.091918 0.24285 0.24795 0.061008 
0.29875 -0.072167 0.064461 0.076463 0.12842 0.13072 0.034702 0.072517 
0.18251 0.12299 0.10672 0.089616 0.11592 0.064461 -0.12889 0.049992 
0.069229 0.35564 0.15538 0.094384 0.044238 0.061995 -0.27275 -0.028597 
-0.0060728 0.5235 0.22033 0.057391 -0.0098543 0.042265 -0.36992 -0.098309 
0.01826 0.55672 0.22033 0.063968 -0.0082102 -0.11015 -0.42089 -0.096336 
-0.029255 0.40167 0.1345 0.023028 0.0095465 -0.048656 -0.2305 0.10787 
0.0042853 0.15456 0.051308 0.05065 0.043416 0.14831 0.24466 0.26981 
0.073339 -0.07562 -0.00081153 0.051472 0.062159 0.34528 0.68825 0.24121 
0.14058 -0.12445 0.0036276 0.049992 0.12825 0.37635 0.41022 0.043909 
0.16114 -0.12626 -0.01232 0.079094 0.10803 0.27425 -0.12133 -0.16966 
0.10754 -0.060658 -0.00081153 0.026974 0.040621 0.10507 -0.22968 -0.26272 
0.022371 0.020891 -0.016431 0.029112 -0.025802 -0.074633 -0.047176 -0.094363 
-0.18216 -0.0771 -0.07562 -0.0083746 -0.090746 -0.35923 0.033058 0.15176 
-0.30251 -0.12215 -0.11048 -0.019719 -0.11541 -0.47153 0.035853 0.19846 
-0.27472 -0.23444 -0.12659 0.0039565 0.0042853 -0.091897 0.074819 0.039305 
-0.23395 -0.30465 -0.1307 -0.0078813 0.098166 0.28445 0.086163 -0.13432 
-0.1552 -0.26502 -0.073811 -0.0064016 0.06331 0.23101 0.073504 -0.16802 
-0.011498 -0.13464 0.016781 -0.031064 0.043416 0.15851 0.16393 -0.044874 
0.082711 -0.11179 0.064296 0.0031344 0.047691 0.11411 0.19862 0.094055 
0.20372 -0.031064 0.10096 0.027468 0.046375 0.11083 0.10359 0.10688 
0.27327 0.13812 0.12184 0.037004 0.0054362 0.049499 -0.0019624 0.057391 
0.18465 0.2269 0.12085 0.054925 -0.003771 0.009711 -0.042901 0.025824 
0.011355 0.28987 0.12546 0.033058 0.0056006 -0.074304 0.0039565 0.0227 
-0.067564 0.2731 0.088465 0.033551 0.014972 -0.15618 -0.025638 0.059693 
-0.05885 0.25863 0.086985 0.032564 0.02681 -0.097322 -0.052273 0.09833 
-0.058028 0.15703 0.07597 0.020727 0.049828 0.069886 -0.040764 0.047855 
-0.015116 0.15423 0.076134 0.064954 0.046375 0.12349 0.020891 0.013164 
0.057391 0.12102 0.066434 0.030592 0.020727 0.076956 0.041772 0.017932 
0.097344 0.049992 0.021549 0.035524 0.033551 0.018425 0.10359 0.036675 
-0.038298 -0.14648 -0.035996 0.009711 0.012999 0.00066819 0.069229 -0.0138 
-0.26141 -0.5031 -0.14747 -0.014622 0.02681 -0.023665 0.097344 -0.058521 
-0.35019 -0.7992 -0.20057 -0.03764 -0.010019 -0.0042642 0.012999 -0.044874 
-0.29133 -0.65189 -0.16111 -0.052602 0.013821 0.014643 0.028783 0.014479 
-0.083512 -0.19778 -0.066248 -0.020377 0.041936 0.083862 0.050321 0.046375 
0.069722 0.14996 0.038977 0.010697 0.079751 0.1294 0.056733 0.072517 
0.19994 0.26981 0.090109 0.01415 0.086328 0.093069 0.023851 0.035031 
0.30171 0.17396 0.063639 0.057227 0.074654 0.040292 0.038319 0.038319 
0.2389 0.010533 0.037497 0.03799 0.026974 -0.0027845 0.09126 0.020069 
0.01004 -0.10028 0.051636 0.051965 -0.0068948 0.0087245 0.06035 0.028125 
-0.25384 -0.12692 0.038319 0.020727 -0.027611 -0.012485 -0.00064712 0.0069159 
-0.4125 -0.017911 0.062652 0.04506 -0.010348 -0.025309 -0.020377 0.0037921 
-0.25861 0.14848 0.062817 0.020562 -0.0032777 -0.001798 -0.021199 0.041607 
0.16114 0.21835 0.059528 0.0056006 0.024837 0.061008 0.0036276 0.077449 
0.4533 0.35514 0.072846 0.05772 0.026317 0.079258 0.05213 0.015465 
0.32128 0.32687 0.073339 0.041607 0.033715 0.033387 0.0059294 -0.010348 
0.12891 0.18235 0.058542 0.034373 0.054103 0.0019835 0.01826 0.004943 
0.057555 0.11066 0.055582 0.045882 0.10918 0.13631 0.020233 0.065118 
0.058213 0.1008 0.06183 0.085012 0.13795 0.3946 0.0592 0.11461 
0.08567 0.21161 0.076299 0.13483 0.08419 0.43834 0.034702 0.10852 
0.089452 0.27442 0.097015 0.044238 -0.0024557 0.13582 0.016781 0.078107 
0.033058 0.26455 0.094055 0.037332 -0.041422 -0.26371 -0.066577 0.073175 
-0.045532 0.11165 0.060844 -0.0068948 -0.036325 -0.57281 -0.05885 0.027961 
-0.088773 -0.056219 0.011191 -0.010019 -0.03616 -0.56524 -0.0044286 0.013492 
-0.12708 -0.30432 -0.079072 0.00297 0.029605 -0.022843 0.08567 0.041936 
-0.11228 -0.42253 -0.10258 0.0051074 0.081067 0.34018 0.14765 0.094384 
-0.060329 -0.32339 -0.075291 0.029769 0.05065 0.21128 0.094384 0.1003 
-0.0027845 -0.11163 0.022535 0.0095465 -0.024323 -0.077922 -0.00064712 0.028947 
0.0098754 -0.11705 0.045553 0.032071 -0.033694 -0.14122 -0.13086 -0.12642 
0.18087 0.059857 0.085999 0.029276 -0.018897 0.095206 -0.16259 -0.19038 
0.29349 0.38737 0.15012 0.050486 0.020891 0.33821 -0.15766 -0.12905 
0.27228 0.55096 0.1687 0.089123 0.012835 0.30714 -0.15026 -0.025802 
0.24877 0.43291 0.1465 0.066105 0.066105 0.13039 -0.015116 0.074983 
0.18465 0.22723 0.10622 0.086163 0.19895 -0.12708 0.34594 0.28889 
0.09685 0.17445 0.090603 0.077285 0.1733 -0.23 0.41992 0.40924 
-0.032215 0.16114 0.089452 0.094055 0.052952 0.0042853 0.22822 0.28116 
-0.27768 0.17939 0.035195 0.073339 -0.019884 0.17051 0.086821 0.028125 
-0.57297 0.036182 -0.076935 -0.0014692 -0.061316 0.1197 0.10737 -0.15454 
-0.55686 -0.17887 -0.13908 -0.039778 -0.017746 -0.067728 0.061666 -0.18364 
-0.1575 -0.44374 -0.17065 -0.064768 -0.031886 -0.15141 -0.11935 -0.11771 
0.26505 -0.3372 -0.1256 -0.039942 -0.039449 -0.14023 -0.37485 -0.089759 
0.4413 -0.079401 -0.067399 -0.015609 -0.044546 -0.032379 -0.35693 0.021384 
0.37964 0.16081 0.02122 0.01004 -0.010841 0.048348 -0.19137 0.066763 
0.33328 0.15587 0.11625 0.078107 0.030098 0.06183 0.26866 0.090109 
0.28626 0.046375 0.13779 0.062159 0.036675 -0.0070593 0.52646 0.092411 
0.090931 0.037332 0.096028 0.033715 0.013986 -0.10061 0.14009 0.06594 
-0.040106 0.099152 0.058213 -0.0019624 0.014315 -0.16687 -0.16259 0.033058 
0.048677 0.17347 0.032729 -0.015609 0.031907 -0.070194 -0.07266 0.022371 
0.14913 0.25485 0.045882 0.020727 0.018425 0.095206 0.1419 0.011191 
-0.035832 0.26488 0.072024 0.044567 0.10096 0.42157 0.20882 0.01563 
-0.23296 0.19912 0.088958 0.10655 0.16936 0.4847 0.15456 0.090109 
-0.3201 0.12184 0.090438 0.1008 0.17314 0.3022 -0.0082102 0.18366 
-0.052273 0.15423 0.087808 0.073832 0.12069 0.059035 0.0031344 0.22082 
0.28198 0.16146 0.067091 0.080573 0.029276 -0.095843 0.063803 0.15933 
0.33081 -0.066084 -0.034352 0.0082312 0.0070803 -0.182 0.079751 0.045553 
-0.1062 -0.46709 -0.18298 -0.044546 -0.066577 -0.20929 0.022371 -0.11952 
-0.60766 -0.81499 -0.29232 -0.11228 -0.10834 -0.21044 -0.058356 -0.21225 
-0.5613 -0.69677 -0.19827 -0.089102 -0.095678 -0.12034 -0.066906 -0.21734 
-0.16753 -0.14681 0.02533 0.02829 -0.021692 -0.035503 -0.0073881 -0.11607 
0.094055 0.32818 0.1664 0.025988 -0.0067304 0.0044497 -0.0049219 -0.011663 
0.1322 0.45593 0.17117 0.04917 -0.0022913 0.0042853 -0.016924 0.039634 
0.17478 0.39164 0.11757 0.036346 0.063145 0.082053 0.010697 0.053116 
0.30911 0.317 0.091753 0.05624 0.11576 0.19583 0.057884 0.055418 
0.30286 0.25337 0.090274 0.057227 0.1077 0.2098 0.077121 0.084355 
0.16574 0.16853 0.081889 0.045224 0.078929 0.10869 0.095042 0.13499 
-0.045203 0.032236 0.051472 0.05624 0.044402 0.043087 0.11 0.12283 
0.06035 0.038483 0.052294 0.044896 0.026317 0.00099702 -0.026131 0.10458 
0.1853 0.098001 0.053938 0.055418 0.01004 -0.0049219 -0.15552 0.071366 
0.12529 0.15489 0.08715 0.03651 -0.00097594 -0.081703 -0.16818 -0.028269 
0.032564 0.17182 0.10326 0.053609 -0.021856 -0.043724 -0.084334 -0.13843 
-0.031886 0.1909 0.070708 0.065447 -0.055397 -0.068879 0.030263 -0.13464 
-0.098309 0.077614 -0.0078813 -0.010676 -0.073318 -0.091075 0.27507 0.010204 
-0.10225 0.042265 -0.047176 -0.0027845 -0.034516 -0.055726 0.4658 0.18695 
0.0085601 0.082711 -0.018404 -0.02794 -0.0034422 0.024837 0.37093 0.25288 
0.1368 0.070051 0.013657 0.011848 0.083862 0.23874 0.21424 0.1613 
0.17939 -0.038791 -0.039284 0.029605 0.12513 0.24466 -0.031886 0.0024767 
0.12891 -0.027282 -0.021528 0.020562 0.12349 -0.025309 -0.19975 -0.15076 
0.0052718 0.11609 0.057555 0.068078 0.12529 -0.11491 -0.32898 -0.18232 
-0.0011404 0.22624 0.10343 0.077449 0.086328 -0.056055 -0.29988 -0.03205 
0.11017 0.35449 0.15193 0.082053 0.10047 0.28214 -0.25763 0.15275 
0.17939 0.39263 0.15472 0.10244 0.21901 0.50558 -0.23806 0.07038 
0.16015 0.29398 0.11806 0.06331 0.11855 0.31125 -0.12708 -0.029913 
0.13253 0.029605 0.067091 0.090931 -0.044217 -0.13316 0.3198 0.082217 
0.12036 -0.049807 0.043909 0.030427 -0.13727 -0.29955 0.54488 0.11378 
0.171 0.022864 0.037661 0.056404 -0.091732 -0.076113 0.27096 0.039141 
0.21572 0.1881 0.068078 0.027632 -0.022843 0.16755 -0.071181 0.06183 
0.12299 0.064461 0.014808 0.017274 -0.060987 0.17248 -0.094692 0.084355 
-0.10275 -0.37732 -0.054904 0.0023123 -0.068879 -0.056877 0.029769 0.041114 
-0.18117 -0.51197 -0.090417 -0.0098543 -0.018075 -0.40149 0.13335 -0.063618 
0.049664 -0.12034 -0.035503 0.016452 0.00066819 -0.55834 0.18136 -0.13826 
0.26242 0.097344 0.0042853 0.0051074 0.056076 -0.10357 0.09685 -0.11228 
0.13351 -0.046683 -0.024652 -0.025474 0.10918 0.4658 0.079094 -0.022679 
-0.13547 -0.098473 -0.025474 0.02681 0.059693 0.44755 0.14881 0.086163 
-0.18907 -0.0049219 0.004943 0.019247 -0.0031133 0.20684 0.11642 0.16919 
-0.14303 0.18087 0.016288 0.05065 0.021713 0.032236 -0.11228 0.17117 
-0.29889 0.11066 0.01415 0.038483 0.1567 0.013986 -0.25845 0.046868 
-0.46413 -0.038462 -0.016595 0.051965 0.14798 -0.04323 -0.25204 -0.055068 
-0.097158 -0.16292 0.0044497 0.052459 0.045224 -0.080223 -0.062796 -0.052931 
0.56099 -0.02087 0.048019 0.037497 -0.03057 -0.041586 0.078107 -0.012978 
0.75632 0.10902 0.058213 0.026317 -0.051451 0.0227 0.15423 -0.0026201 
0.38441 0.10967 0.05476 -0.0082102 -0.05178 0.013821 0.047691 -0.028433 
0.061501 0.10704 0.11411 0.025166 -0.015116 0.034702 0.0034632 -0.0054151 
0.029441 0.13384 0.14798 0.023028 -0.00081153 0.039799 0.095042 0.066269 
0.068736 0.16475 0.13565 0.020562 0.027303 0.073668 0.18892 0.11855 
-0.03764 0.011191 0.026646 0.0324 0.035031 0.035031 0.18169 0.11559 
-0.16144 -0.28936 -0.096172 -0.023007 0.0083956 0.0013258 -0.048327 0.041772 
-0.2185 -0.5077 -0.13991 -0.015444 0.004943 -0.026296 -0.22409 -0.052273 
-0.18857 -0.36696 -0.096336 0.0079024 0.01711 -0.022185 -0.1667 -0.027775 
-0.12642 -0.12198 -0.0062372 0.039634 0.057391 -0.019061 0.054432 0.022864 
-0.11903 -0.0055795 0.0085601 0.081889 0.069886 -0.031886 0.17018 0.058871 
-0.13152 -0.05178 -0.0049219 0.027632 0.068078 0.0024767 0.13943 0.083533 
-0.030406 -0.027447 -0.025309 0.065612 0.045224 0.047855 0.072681 0.075476 
0.14075 -0.013471 -0.025967 0.035688 0.036346 0.040456 0.064296 0.045553 
0.1105 -0.053424 -0.038298 0.022864 0.027796 0.047197 0.027796 0.0090533 
-0.038462 -0.12445 -0.038791 0.0067515 0.024344 0.085341 -0.012649 -0.052931 
0.062488 -0.045203 0.023686 -0.010512 0.0036276 0.096686 -0.06148 -0.087622 
0.32358 0.16886 0.085835 0.030263 -0.0016336 0.0070803 -0.031557 -0.079072 
0.37997 0.29628 0.13993 0.027632 0.0069159 -0.086307 0.06183 0.037004 
-0.039449 0.25239 0.084355 0.016781 -0.036654 -0.13021 0.072024 0.028619 
-0.3908 0.17018 0.071037 -0.0034422 -0.018239 -0.099295 0.036017 0.018589 
-0.3594 0.07038 0.058213 0.014479 0.009711 -0.046354 -0.0072237 0.023028 
-0.15602 -0.0054151 0.055254 0.087643 0.088301 -0.03501 -0.024323 0.078107 
-0.03616 -0.0082102 0.031414 0.042923 0.048841 0.020069 0.0093821 0.10047 
0.026646 0.053116 0.0088889 0.049335 0.050486 0.036839 0.012835 0.086821 
0.042594 0.24778 0.070051 0.027139 0.059364 0.026974 -0.0062372 0.058871 
0.052952 0.37504 0.10376 0.019411 0.017438 0.01152 0.0070803 0.029441 
0.063474 0.3558 0.10359 0.03092 -0.0050863 0.048513 -0.035503 0.00033937 
0.16294 0.20832 0.082382 0.018918 0.0088889 0.051308 -0.0054151 0.025824 
0.17051 0.12809 0.069558 0.058706 -0.0067304 -0.133 -0.052437 0.037332 
0.10524 0.1105 0.060186 0.079258 0.00033937 -0.38192 -0.1159 -0.015116 
0.021384 0.028454 0.037004 0.069558 0.023028 -0.35907 -0.052273 0.010369 
0.08567 -0.0059084 -0.019226 0.036182 0.047197 0.092411 0.15851 0.10754 
0.22772 -0.0072237 -0.0034422 0.033058 0.10474 0.49884 0.25567 0.086657 
0.22279 0.13483 0.078929 0.071366 0.08978 0.47944 0.21046 0.039141 
0.10162 0.26225 0.085835 0.047197 0.077943 0.25666 0.073668 -0.026789 
-0.0050863 0.24614 0.070544 0.041114 0.033551 0.073504 0.0060938 -0.07414 
-0.037805 0.17626 0.01267 0.020891 -0.03912 -0.02235 -0.046354 -0.038627 
0.0024767 0.30911 0.034373 0.012013 -0.024158 -0.054739 -0.14155 0.032236 
0.046375 0.24712 0.057555 0.047197 0.028783 -0.1838 -0.10719 0.076299 
0.019247 0.051801 0.028619 0.031742 0.10474 -0.12988 0.12283 0.1202 
