-0.076935 0.09833 0.05065 0.050979 0.026646 0.030263 0.036182 0.030427 
0.081067 0.16738 0.088465 0.060022 0.021713 0.04095 0.049828 0.055911 
0.14174 0.17922 0.084355 0.03799 -0.010512 0.015794 0.032893 0.048513 
0.17462 0.10474 0.026317 0.020562 -0.041422 0.0037921 0.0067515 0.027139 
0.13483 0.034373 0.018425 -0.024816 -0.036325 -0.029913 -0.0039354 0.018754 
0.077121 -0.047341 -0.023665 -0.0050863 -0.025967 -0.0059084 -0.00031829 0.025001 
0.0090533 -0.14944 -0.07003 -0.025474 -0.0091966 -0.004593 0.013821 -0.00064712 
-0.022679 -0.15947 -0.0406 0.0087245 0.034537 0.020891 0.017932 -0.01232 
-0.063289 -0.10225 0.0079024 0.06479 0.056569 0.013657 0.023851 -0.012978 
-0.061316 0.025495 0.055747 0.094055 0.06183 0.044731 0.0074092 0.0065871 
-0.024652 0.068407 0.11839 0.12118 0.053609 0.026481 0.0090533 0.028783 
0.0072447 0.095535 0.10524 0.075805 0.033058 0.056898 -0.029255 0.038155 
-0.011663 0.0092177 0.027632 0.023028 0.016781 0.023851 -0.010348 0.031742 
0.005765 -0.11689 -0.035503 -0.02942 0.0032988 0.067749 -0.010348 0.03651 
-0.016595 -0.10225 -0.07562 -0.053424 0.01826 0.019905 0.035688 0.022864 
0.0052718 -0.062631 -0.02646 0.01415 0.020398 0.019411 0.055418 -0.0019624 
-0.045368 -0.047341 0.010697 -0.0055795 0.011684 0.037004 0.036675 0.0019835 
-0.10669 -0.10784 -0.0014692 0.016123 0.028947 0.051143 0.096686 0.00033937 
-0.1552 -0.11261 -0.0042642 0.014972 0.016123 0.020727 0.20816 -0.011992 
-0.11837 -0.089266 0.0036276 0.01152 0.0324 0.048348 0.22361 -0.014458 
-0.036654 0.0064227 0.031414 0.051472 0.037004 0.035195 0.13088 0.01004 
0.045718 0.062817 0.079587 0.029276 0.051472 0.060515 0.021384 0.015137 
0.10178 0.12398 0.078765 0.081231 0.042429 0.0013258 -0.052766 0.055582 
0.13368 0.071531 0.051965 0.052459 0.046704 0.021713 -0.062302 0.048677 
0.094877 0.092576 0.044073 0.015137 0.021384 -0.019226 -0.078579 0.022371 
0.095371 0.088794 0.039963 0.020727 0.021713 -0.0068948 -0.047669 0.028783 
0.066434 0.11905 0.039141 -0.010183 0.010862 0.0041209 -0.033201 0.034702 
0.038483 0.059857 0.013657 0.0095465 0.0042853 0.040456 0.0098754 0.031414 
-0.018897 0.015137 0.00099702 -0.013471 -0.00097594 0.01711 0.00099702 0.016945 
-0.015444 -0.0024557 0.037168 0.018425 0.024508 0.033387 0.015959 0.010862 
0.030427 0.0082312 0.044073 0.027139 0.01711 0.0227 0.02681 0.026152 
0.1276 -0.0040998 0.044238 0.035688 0.025659 0.058706 0.069064 0.049006 
0.18514 0.042429 0.069558 0.10737 0.05476 0.035524 0.085999 0.077943 
0.18859 0.16853 0.12546 0.10441 0.055747 0.05476 0.10195 0.074654 
0.1003 0.23019 0.12677 0.11099 0.049664 0.032564 0.070544 0.047033 
0.093233 0.22559 0.095535 0.053116 0.043251 0.058706 0.072681 0.030263 
0.027303 0.077285 -0.040928 -0.056548 0.036675 0.044402 0.064132 0.027468 
-0.03057 -0.01676 -0.1358 -0.078744 0.030098 0.050814 0.03799 0.022864 
-0.0073881 -0.021528 -0.082032 -0.048327 0.015137 0.022042 0.034702 0.027632 
0.069558 0.10885 0.055254 0.070873 0.049006 0.032564 0.02533 0.028947 
0.086821 0.18678 0.1909 0.12595 0.050321 0.0046141 0.036839 0.029769 
0.031085 0.27721 0.22411 0.14223 0.02829 -0.025474 0.022206 0.0042853 
0.029605 0.22789 0.18744 0.11 -0.0044286 -0.060987 -0.012814 0.0021479 
0.10589 0.1955 0.11247 0.069886 -0.0047575 -0.018897 -0.0503 -0.0138 
0.13927 0.089123 0.0041209 0.023851 0.004943 -0.00064712 -0.02942 0.020069 
0.13565 0.036675 -0.042901 -0.013965 0.0034632 0.044238 -0.009361 0.038319 
0.076627 -0.0024557 -0.0064016 -0.023007 0.01711 0.027796 0.071859 0.046704 
0.051472 0.015465 0.0085601 -0.020541 -0.0083746 0.026646 0.097344 0.075312 
0.067585 0.03536 -0.013471 -0.04323 -0.02235 0.053609 0.15292 0.058049 
0.034209 0.024344 -0.025802 0.0037921 0.0023123 0.12792 0.13335 0.037497 
-0.072003 -0.0039354 0.0032988 0.015137 0.051472 0.10852 0.12085 0.027632 
-0.13349 -0.084169 0.0054362 0.056569 0.066763 0.11017 0.13056 0.017274 
-0.053095 -0.095349 -0.00081153 0.032236 0.047855 0.060186 0.063474 0.019411 
0.012999 -0.11557 -0.030735 0.022535 0.016945 0.028454 -0.029584 -0.020212 
0.085506 -0.00015387 -0.0062372 0.051472 0.016616 -0.01117 -0.1815 -0.041586 
0.11888 0.15522 0.084848 0.053938 0.0080668 -0.027282 -0.29281 -0.046847 
0.20109 0.35317 0.16837 0.088136 0.017767 -0.032708 -0.29215 0.024015 
0.19155 0.2976 0.14272 0.047691 0.019083 0.007738 -0.15273 0.090109 
0.10293 0.11954 0.047855 0.0031344 0.007738 0.043416 0.018589 0.12628 
-0.01939 -0.11097 -0.082196 -0.014951 0.00050378 0.058377 0.17265 0.10589 
-0.078086 -0.13826 -0.07562 -0.0067304 0.0016547 0.046704 0.18876 0.084355 
-0.022185 0.033715 0.080244 0.083697 0.054267 0.065776 0.18333 0.055418 
0.091425 0.25255 0.18547 0.091918 0.076627 0.053774 0.10376 0.051472 
0.16146 0.28494 0.15407 0.093398 0.064132 0.058213 0.11263 0.047691 
0.17988 0.12727 0.030756 0.03947 0.053609 0.013492 0.064625 0.054103 
0.058706 -0.099953 -0.11607 -0.080059 0.0014903 0.0032988 0.067749 0.012013 
-0.14237 -0.25993 -0.18808 -0.098638 -0.012485 -0.02498 -0.023501 -0.052931 
-0.20534 -0.14878 -0.10801 -0.085813 -0.012485 0.00066819 -0.053917 -0.066906 
-0.14336 -0.0098543 0.016288 0.035524 0.03388 -0.0059084 -0.054575 -0.044874 
-0.10883 0.087972 0.10902 0.065612 0.032236 0.033222 -0.047176 -0.015444 
-0.051122 0.057062 0.1031 0.073997 0.029769 0.02681 -0.019061 0.012013 
0.004943 0.014643 0.065283 0.067585 0.020727 0.042758 -0.031064 0.021713 
0.037826 -0.043724 0.0016547 -0.0077169 0.0067515 0.034373 -0.011992 0.047197 
0.030756 -0.04471 -0.018404 -0.0068948 0.01826 0.059035 -0.008539 0.036182 
-0.024652 -0.072003 -0.045368 -0.023501 0.0064227 0.054596 0.015137 0.038483 
-0.051451 -0.045861 -0.034188 -0.0090322 0.0095465 0.040128 0.017603 0.022535 
-0.036818 0.021713 0.004943 0.041114 0.00099702 0.0085601 0.024015 0.01826 
-0.03501 0.061995 0.059528 0.032893 0.024673 0.023028 0.0082312 0.027303 
0.01004 0.054432 0.056733 0.050979 0.042594 0.027961 0.030592 0.044073 
0.04654 -0.018075 0.0064227 0.0072447 0.059857 0.02829 0.025166 0.062488 
0.10819 0.051801 0.012177 0.0079024 0.074819 0.0080668 0.05476 0.048019 
0.14765 0.1465 0.0592 0.04917 0.058377 0.029441 0.042923 0.056898 
0.17725 0.22476 0.079751 0.049006 0.058542 0.018096 0.055747 0.076627 
0.16541 0.16377 0.064132 0.072353 0.031578 0.020398 0.040785 0.07597 
0.15686 0.15292 0.061008 0.041278 0.026481 0.023357 0.049499 0.063145 
0.14897 0.17708 0.095371 0.040456 0.021713 0.013821 0.050979 0.051472 
0.13203 0.24581 0.13417 0.068736 0.019905 -0.001798 0.08978 0.064132 
0.086328 0.23101 0.14239 0.074819 0.025495 0.012013 0.10589 0.038319 
0.10491 0.22328 0.12727 0.091589 0.057884 -0.013636 0.098166 0.041936 
0.10507 0.099974 0.062981 0.0031344 0.022206 0.034373 0.065447 0.031249 
0.016452 -0.11722 -0.074962 -0.025638 -0.0027845 0.014315 0.0046141 0.0079024 
-0.07414 -0.26618 -0.15651 -0.076935 -0.020541 -0.008539 -0.004593 -0.0087034 
-0.16079 -0.27818 -0.1404 -0.056712 -0.01676 -0.026131 -0.0138 0.0024767 
-0.17936 -0.13925 -0.044381 0.042265 0.052623 -0.025967 -0.019226 -0.038298 
-0.088773 0.056733 0.021384 0.072188 0.12135 -0.03057 -0.0965 -0.045861 
0.00066819 0.1641 0.099316 0.11 0.12447 -0.010348 -0.13711 -0.02087 
0.022042 0.1077 0.076956 0.11839 0.10556 0.036839 -0.11656 0.038483 
-0.0016336 0.0095465 0.022371 0.059364 0.087479 0.071859 0.083368 0.043087 
-0.040435 -0.10982 -0.040435 0.045553 0.027961 0.04654 0.12858 0.017603 
-0.12577 -0.018897 0.066434 0.02681 -0.018239 -0.013636 0.15061 0.022535 
-0.087951 0.093562 0.14996 0.070544 -0.035503 -0.037147 0.076134 0.022864 
0.058213 0.25485 0.20158 0.088136 -0.0095255 -0.047669 0.043251 0.090109 
0.20734 0.36172 0.19418 0.085341 1.0539e-005 -0.10965 0.0021479 0.14174 
0.29365 0.39345 0.13878 0.065283 0.039634 -0.081868 -0.027282 0.12053 
0.26176 0.28757 0.023028 0.032564 0.087314 0.030592 0.020727 0.08863 
0.11362 0.020398 -0.11574 -0.023829 0.062159 0.15144 0.094877 0.029441 
0.039305 -0.18874 -0.25056 -0.11196 0.0023123 0.1664 0.15883 -0.0057439 
0.11181 -0.20452 -0.20978 -0.090581 0.037661 0.20454 0.2006 0.041607 
0.077943 -0.11656 -0.070359 -0.012485 0.037826 0.1904 0.24844 0.073339 
-0.030899 -0.087622 0.081395 0.062323 0.071037 0.084519 0.15883 0.028619 
-0.15914 -0.077264 0.13746 0.12085 0.10704 -0.013471 0.088301 0.00066819 
-0.14615 -0.079401 0.13171 0.10376 0.1442 -0.047341 0.022371 -0.056712 
-0.074633 -0.01939 0.098001 0.094713 0.12497 -0.10538 -0.084498 -0.077922 
0.012013 -0.055068 0.016452 0.030592 0.059364 -0.14665 -0.34904 -0.045368 
0.0227 -0.056383 -0.049642 -0.02794 0.016781 -0.032872 -0.35299 0.023522 
-0.025309 -0.12922 -0.0868 -0.022843 -0.027447 0.1391 -0.02942 0.05065 
-0.090746 -0.11771 -0.068879 -0.026789 -0.035996 0.18366 0.26126 0.043745 
-0.061151 -0.076935 -0.028104 0.04506 -0.010183 0.17824 0.3073 0.025495 
0.012013 -0.04471 0.018096 0.06035 0.0037921 0.15144 0.23479 0.050814 
0.055418 -0.053588 0.058706 0.0689 0.0060938 0.048677 0.072353 0.061995 
0.03947 -0.016266 0.055582 0.047033 0.007738 -0.069043 -0.075949 0.046046 
0.091096 0.11115 0.067585 0.037497 0.043251 -0.13185 -0.069865 0.051636 
0.10672 0.1544 0.065612 0.050321 0.035031 -0.096665 -0.011498 0.064625 
0.085341 0.21424 0.07301 0.0421 0.047691 -0.0503 0.040621 0.073339 
0.059035 0.16064 0.048677 0.0227 0.043251 -0.02498 0.019905 0.018425 
0.055747 0.094384 -0.015938 -0.0090322 0.029934 0.031907 0.0054362 -0.0083746 
0.06331 0.027139 -0.047998 -0.020706 0.034537 0.072846 -0.0054151 -0.0059084 
0.060022 0.05624 -0.021528 0.046211 0.054596 0.11839 0.030427 0.0021479 
0.076299 0.12381 0.033387 0.032564 0.038977 0.10589 0.036346 0.011191 
0.13582 0.232 0.095535 0.058871 0.041114 0.1026 0.069558 0.038483 
0.076792 0.159 0.10622 0.051143 0.02829 0.059857 0.059035 0.041936 
0.0054362 0.14272 0.11872 0.050979 0.027139 0.049828 0.076627 0.022864 
0.017603 0.09981 0.10737 0.061172 0.036839 0.041443 0.052787 0.031414 
0.092082 -0.065097 -0.0078813 0.0092177 0.013164 0.03799 0.065612 0.050814 
0.098166 -0.18857 -0.10982 -0.0055795 0.00066819 0.02533 0.018918 0.058706 
0.040785 -0.12231 -0.055068 -0.012485 -0.0082102 0.018918 0.018425 0.0070803 
-0.034023 -0.012649 0.025495 0.029934 0.0075736 -0.0014692 -0.0011404 -0.0088678 
-0.047012 0.038977 0.043251 0.071037 0.012835 -0.004593 0.01563 -0.032215 
-0.0095255 0.066269 0.074983 0.044402 0.021384 0.010697 -0.0044286 0.00050378 
-0.0075525 -0.045368 0.010369 0.049499 0.016616 0.024179 -0.0138 0.027139 
-0.015444 -0.14089 -0.011498 -0.025309 -0.021034 -0.020048 -0.018897 0.0024767 
-0.068057 -0.17016 -0.021363 -0.036654 -0.036818 -0.047012 -0.032379 0.0016547 
-0.067235 -0.082525 -0.042408 -0.056712 -0.056055 -0.052437 0.022206 0.0067515 
-0.042573 0.03947 -0.04619 -0.044874 -0.036654 -0.03205 0.043416 0.0074092 
0.0059294 0.20355 0.010369 0.0088889 -0.0059084 -0.012814 0.062159 0.020891 
0.12118 0.32571 0.062817 0.033222 0.037168 -0.0026201 0.063639 0.055747 
0.25962 0.35827 0.087479 0.073668 0.045882 0.017767 0.085999 0.078107 
0.22312 0.33426 0.13203 0.11937 0.068736 -0.0013048 0.083533 0.078765 
0.11066 0.29415 0.17478 0.11115 0.032729 0.016945 0.059528 0.0421 
0.089123 0.21835 0.1271 0.12053 0.029769 0.030427 -0.052931 0.01267 
0.11642 0.12661 0.079422 0.059693 0.032893 0.0016547 -0.11261 0.015465 
0.089123 0.081724 0.05624 0.061337 0.037826 -0.0042642 -0.099953 0.011848 
-0.018239 -0.034023 0.014479 0.022206 0.019411 0.034044 -0.022185 0.038812 
-0.081045 -0.070359 -0.044546 -0.023172 -0.004593 0.061501 0.06479 0.028619 
-0.036325 -0.021034 -0.026789 -0.026953 -0.033201 0.049828 0.049828 0.0014903 
0.054432 0.12727 0.068407 0.0059294 -0.034188 -0.006566 0.0031344 0.020891 
0.092082 0.17067 0.12431 0.051308 -0.01232 -0.021199 -0.035338 0.020562 
0.056733 0.10787 0.024344 -0.0078813 0.0060938 0.0092177 -0.03353 0.0060938 
-0.10143 -0.1279 -0.12412 -0.069701 -0.021856 -0.0021268 -0.04882 -0.069536 
-0.20288 -0.20781 -0.21932 -0.13086 -0.066741 -0.071181 0.011355 -0.087622 
-0.024652 -0.076771 -0.083512 -0.065919 -0.033201 -0.10965 0.066763 0.016123 
0.147 0.12332 0.087314 0.057391 0.055911 -0.076442 0.078272 0.11609 
0.07038 0.18777 0.18547 0.082875 0.1248 0.071366 0.092904 0.14141 
-0.18759 0.14387 0.19303 0.093726 0.13434 0.17166 0.24203 0.037168 
-0.30761 0.047197 0.096686 0.065776 0.073504 0.19024 0.26077 -0.03912 
-0.24069 -0.09239 -0.018075 0.018425 0.0087245 0.096521 0.14683 -0.036983 
-0.09239 -0.11574 -0.082525 0.0032988 -0.014622 0.0018191 -0.084991 -0.041586 
0.029112 -0.12445 -0.076771 -0.018239 -0.018568 -0.093376 -0.16259 0.01711 
0.11757 -0.091239 -0.029091 0.012177 -0.025802 -0.10998 -0.20156 0.028619 
0.16459 -0.076442 -0.0088678 0.007738 -0.014622 -0.088773 -0.26979 0.01826 
0.17051 0.0056006 -0.018404 0.0016547 0.0074092 -0.0013048 -0.23822 0.040456 
0.11346 0.052459 0.012999 0.017767 0.044073 0.051143 -0.091404 0.083533 
-0.0067304 0.1271 0.086163 0.013164 0.020562 0.074326 0.076956 0.081724 
-0.14122 0.075312 0.12036 0.057555 -0.0068948 0.014808 0.1368 0.088136 
-0.070852 0.10376 0.1396 0.094548 0.016123 0.013328 0.21737 0.1026 
0.036182 0.081231 0.10178 0.098659 0.07038 0.021384 0.28626 0.10458 
0.076956 0.030756 0.020727 0.079587 0.16311 0.074819 0.25781 0.064461 
0.11954 0.062159 -0.0032777 0.0046141 0.13762 0.070708 0.11921 0.0072447 
0.10178 0.05213 -0.021528 0.025495 0.11855 0.077121 0.0059294 -0.011498 
-0.017088 -0.0022913 -0.02087 -0.012485 0.067091 0.012342 -0.075949 -0.023007 
-0.079401 0.031742 0.056076 0.018754 0.058706 0.012177 -0.032872 0.019411 
-0.033201 0.10195 0.11822 0.092576 0.097672 0.062488 -0.032872 0.047362 
0.091425 0.15061 0.16146 0.10721 0.14108 0.13384 0.040785 0.064132 
0.16196 0.17462 0.081395 0.066927 0.086821 0.073668 0.051801 0.042594 
0.12431 0.11987 -0.014293 -0.039613 0.033058 0.041936 0.08156 0.019247 
0.11888 0.053445 -0.11459 -0.069372 0.071531 0.074819 0.061995 0.039141 
0.26274 0.044073 -0.01232 0.022206 0.13762 0.12299 0.066434 0.10918 
0.34265 0.19484 0.12628 0.10491 0.053281 0.021056 0.03536 0.1373 
0.25683 0.22444 0.15949 0.14321 -0.095843 -0.13678 -0.070359 0.094877 
0.16081 0.13417 0.048019 0.049335 -0.13185 -0.2522 -0.095843 0.041772 
0.016945 -0.022514 -0.053095 0.007738 -0.068879 -0.24579 -0.099624 -0.0067304 
-0.12905 -0.12379 -0.073318 -0.016102 -0.0070593 -0.11163 -0.14862 -0.098144 
-0.15717 -0.099295 0.037497 0.027303 0.061337 0.073832 -0.038298 -0.084334 
-0.095021 0.0069159 0.1636 0.11132 0.12842 0.25699 0.18925 -0.024323 
-0.0082102 0.13417 0.20767 0.13187 0.15851 0.43291 0.34775 0.085177 
0.017274 0.061995 0.10639 0.12644 0.15259 0.39016 0.48487 0.16492 
-0.085485 -0.089595 -0.049971 0.018096 0.12546 0.20882 0.3877 0.15176 
-0.15174 -0.17262 -0.15881 -0.065426 0.10195 -0.052437 0.03536 0.042758 
-0.14796 -0.15109 -0.15881 -0.077264 0.038648 -0.21389 -0.21027 -0.039942 
-0.020212 -0.1233 -0.10176 -0.060165 -0.028104 -0.24283 -0.089266 -0.025967 
0.16081 0.087808 0.0592 0.035853 -0.023336 -0.035174 0.044896 0.018425 
0.32111 0.24219 0.16048 0.090274 0.021878 0.16163 0.03092 0.0064227 
0.31503 0.33196 0.1756 0.13499 0.092411 0.31388 -0.10998 -0.038627 
0.27179 0.27047 0.1516 0.10803 0.1373 0.31289 -0.21652 -0.059014 
0.16837 0.25337 0.11822 0.082711 0.11921 0.2172 -0.13991 -0.030242 
0.091425 0.24647 0.070215 0.054103 0.031907 0.073668 -0.033037 -0.012485 
0.058213 0.15308 0.0087245 -0.019884 -0.014622 -0.0022913 0.051636 0.025495 
0.14453 -0.016102 -0.062796 -0.037476 -0.044381 -0.10176 0.12661 0.13631 
0.23677 -0.043724 -0.035338 0.00083261 -0.025967 -0.16654 0.16081 0.27343 
0.22838 0.098659 0.058542 0.046704 -0.0032777 -0.17509 0.11987 0.23167 
0.013821 0.071531 0.11658 0.099152 0.0036276 -0.12609 0.11296 0.080573 
-0.2106 -0.15783 -0.0406 -0.0073881 -0.023007 -0.057699 0.074326 -0.030077 
-0.30629 -0.28081 -0.16473 -0.020048 -0.012978 0.0074092 0.035853 -0.066906 
-0.10571 -0.06148 -0.044546 0.0082312 0.027139 0.042594 0.012999 -0.030242 
0.10556 0.19353 0.13434 0.11954 0.060515 -0.0083746 0.043909 -0.0064016 
0.19484 0.28478 0.18826 0.1516 0.053281 -0.11278 0.058377 0.014808 
0.088136 0.16294 0.081395 0.080902 0.079094 -0.013471 -0.018239 -0.026131 
0.011026 0.11165 0.027961 0.027139 0.017603 0.11247 -0.15076 -0.048163 
-0.006566 0.056076 -0.018733 -0.061645 -0.078579 0.14881 -0.15257 -0.059014 
-0.073647 -0.023665 -0.026296 -0.071016 -0.12692 0.040785 -0.065097 -0.089759 
-0.12577 -0.085156 -0.039284 -0.04323 -0.17016 -0.044381 0.11395 -0.095021 
-0.19729 -0.21734 -0.071181 -0.053588 -0.18742 -0.1376 0.1807 -0.072167 
-0.23477 -0.33063 -0.15257 -0.045532 -0.16473 -0.11952 0.11214 -0.0049219 
-0.1524 -0.20534 -0.085485 -0.026296 -0.085649 -0.1159 0.0083956 -0.0098543 
-0.022679 -0.040106 0.030263 0.0088889 -0.04471 -0.0021268 0.09833 0.020069 
0.06035 -0.0022913 0.096357 0.012342 0.024673 0.19895 0.2098 0.069229 
0.12266 0.089287 0.16196 0.073832 0.10655 0.43341 0.13269 0.21079 
0.1003 0.18103 0.1909 0.12908 0.12546 0.53633 -0.009361 0.2588 
0.0013258 0.13993 0.06183 0.044238 0.093398 0.54323 -0.12741 0.12792 
-0.094856 -0.044874 -0.11097 -0.031886 0.062488 0.2754 -0.15881 -0.011827 
-0.093048 -0.1108 -0.21438 -0.10028 -0.013307 -0.13481 -0.21011 -0.10242 
0.021713 -0.050629 -0.13415 -0.042408 -0.0059084 -0.42993 -0.1159 -0.079895 
0.18119 0.072024 0.029934 0.10655 0.14486 -0.44111 -0.015116 -0.0040998 
0.22328 0.14617 0.15735 0.16738 0.26768 -0.29117 0.058871 0.031414 
0.09422 0.17265 0.20832 0.17215 0.15078 -0.16588 0.093398 0.0079024 
-0.04471 0.16146 0.1927 0.10967 0.0054362 -0.15421 0.27277 -0.0022913 
0.017767 0.14058 0.11198 0.033715 -0.090746 -0.05326 0.40217 0.04506 
0.1396 0.11674 0.047855 -0.0077169 -0.1792 -0.028762 0.2953 0.074161 
0.11954 0.018425 0.0062583 -0.037969 -0.2596 -0.03616 0.066434 0.070215 
0.016616 0.035688 0.034537 0.014972 -0.31057 -0.080881 -0.12116 0.031249 
0.00033937 0.10819 0.095042 -0.0075525 -0.31024 -0.080717 -0.24349 0.028783 
0.057227 0.2149 0.12135 0.0072447 -0.23559 0.0093821 -0.21981 0.092411 
0.044238 0.23348 0.077778 -0.024323 -0.097487 0.095371 -0.15717 0.090931 
0.0085601 0.1978 0.024179 -0.030242 0.061172 0.057884 -0.097816 0.11724 
-0.0011404 -0.045696 -0.094199 -0.028269 0.1276 -0.029913 -0.03353 0.027796 
0.011191 -0.2596 -0.19679 -0.073976 0.15193 -0.11919 -0.020048 -0.036654 
-0.076935 -0.43158 -0.2203 -0.089102 0.21638 -0.11574 -0.054246 -0.093212 
-0.25417 -0.34493 -0.12083 -0.041257 0.32719 -0.027447 -0.030242 -0.15454 
-0.26256 -0.12988 0.062488 0.047362 0.39181 0.095371 0.1008 -0.1376 
-0.17936 0.016288 0.14749 0.12661 0.41877 0.20142 0.16541 -0.041915 
-0.13826 0.021549 0.10606 0.15555 0.44163 0.37356 0.21391 0.0011614 
-0.076113 0.084026 0.094055 0.20158 0.37339 0.38688 0.17659 0.039799 
0.062817 0.16245 0.08715 0.13664 0.1197 0.32177 0.20273 0.09685 
0.23463 0.25962 0.17149 0.10606 -0.09798 0.15374 0.18958 0.16064 
0.35778 0.37866 0.20602 0.079094 -0.3326 -0.11705 0.018589 0.17478 
0.41516 0.42469 0.21852 0.036675 -0.40724 -0.42335 -0.081045 0.17856 
0.26242 0.24844 0.064954 -0.029748 -0.35101 -0.449 0.013164 0.081231 
0.066927 -0.11853 -0.18348 -0.16473 -0.19745 -0.17871 0.14157 0.041443 
0.067585 -0.097322 -0.22409 -0.093212 -0.0083746 0.0592 0.11313 0.056898 
0.24877 0.13993 -0.037147 0.026646 0.16804 0.1567 0.065447 0.097015 
0.35202 0.37964 0.13401 0.10852 0.24022 0.23266 -0.016431 0.076463 
0.26077 0.31947 0.19024 0.19188 0.23134 0.19007 -0.069208 0.06183 
0.04506 0.14486 0.13532 0.13368 0.18711 0.07449 -0.16391 0.035031 
-0.1769 -0.035174 0.052459 0.060844 0.20816 -0.045532 -0.20501 0.0034632 
-0.29511 -0.18775 -0.059672 -0.0080457 0.32473 0.048841 -0.16868 -0.038791 
-0.3007 -0.19877 -0.083676 -0.015938 0.42486 0.24877 -0.0040998 -0.02498 
-0.22063 -0.11409 -0.016431 0.045224 0.42814 0.4533 0.089452 0.0052718 
-0.11343 -0.01939 0.050814 0.01711 0.28017 0.47204 0.14239 0.035688 
0.034209 0.085341 0.11658 0.091425 0.078107 0.25978 0.17084 0.04358 
0.096028 0.16607 0.11937 0.093233 -0.10127 -0.046847 0.244 0.051965 
0.040785 0.075148 0.027796 0.0070803 -0.2328 -0.25647 0.095535 0.0026412 
-0.051451 -0.011827 -0.05589 -0.023994 -0.25516 -0.33704 -0.18397 0.0064227 
-0.054575 -0.099624 -0.047176 -0.047176 -0.18857 -0.2568 -0.30383 0.035853 
-0.065919 -0.076771 0.012999 -0.0016336 -0.12988 -0.12708 -0.28771 0.036839 
-0.049807 0.047033 0.087479 0.041114 -0.077593 0.020069 -0.18939 -0.026296 
0.060515 0.21391 0.12858 0.044896 -0.0039354 0.10803 0.047855 -0.050464 
0.19435 0.16952 0.02533 0.036839 0.062488 0.22805 0.31601 0.022535 
0.29168 -0.072989 -0.13251 -0.020048 0.084519 0.29398 0.19057 0.082546 
0.22082 -0.27325 -0.20288 -0.023829 0.067256 0.23973 0.17117 0.082382 
0.063474 -0.2037 -0.077264 -0.014293 0.072024 0.11674 0.2001 0.077943 
-0.064768 0.069722 0.10704 0.077614 0.090767 0.00297 0.18152 0.039799 
-0.11212 0.25485 0.21112 0.089123 0.086328 -0.13448 -0.1233 -0.02498 
-0.13793 0.23512 0.1659 0.082546 0.10392 -0.18446 -0.18167 -0.07266 
-0.14763 0.029441 0.047855 0.065447 0.081724 -0.11311 0.16607 -0.033201 
-0.052931 0.00083261 0.0072447 0.03536 0.039963 0.090274 0.50246 0.031907 
0.10951 0.088958 0.039305 0.054432 -0.0503 0.19007 0.32062 0.11477 
0.16229 0.16936 0.066763 0.028783 -0.1381 0.20487 -0.1233 0.11559 
0.083862 0.082711 0.028619 -0.029748 -0.21093 0.10228 -0.42105 0.10392 
0.0021479 0.018754 -0.0022913 -0.060494 -0.27801 -0.065755 -0.4444 0.048677 
-0.050629 -0.035832 -0.015609 -0.085156 -0.27555 -0.2739 -0.32668 -0.0062372 
-0.088773 -0.020706 0.0070803 -0.019884 -0.18726 -0.255 -0.21734 -0.059672 
-0.023172 -0.030077 0.010533 -0.0057439 -0.03764 -0.074469 0.0092177 -0.045532 
0.11313 0.041607 0.045882 0.012506 0.034537 0.14864 0.43324 0.019083 
0.22986 0.1322 0.036017 0.048348 0.098494 0.23512 0.58631 0.02122 
0.2024 0.14913 0.026152 0.035688 0.14963 0.25995 0.13319 -0.036818 
0.13993 0.027303 -0.021199 0.047855 0.21227 0.1733 -0.18759 -0.0096899 
0.034537 -0.10538 -0.025967 0.041772 0.30648 0.058706 -0.15881 0.041114 
-0.10012 -0.12429 0.021384 0.053938 0.22822 -0.027118 0.010533 0.066598 
-0.16144 -0.078908 0.12414 0.07038 0.024344 -0.12067 -0.065262 0.012506 
-0.043559 0.095371 0.18415 0.066269 -0.14599 -0.051944 0.10984 0.040785 
0.16229 0.29102 0.26357 0.10721 -0.09091 0.13845 0.46316 0.13927 
0.3775 0.41203 0.23677 0.10639 0.063803 0.21326 0.44557 0.20668 
0.47204 0.38589 0.15867 0.10803 0.11806 0.10195 0.18021 0.17922 
0.42469 0.21128 -0.067399 0.0059294 0.018096 -0.1644 -0.0771 0.094055 
0.13532 -0.1815 -0.34164 -0.1381 -0.11672 -0.34592 -0.21389 -0.025309 
-0.1723 -0.44654 -0.45525 -0.18167 -0.18791 -0.41316 -0.2208 -0.084827 
-0.15076 -0.33605 -0.25894 -0.12675 -0.21702 -0.35726 -0.11672 -0.031721 
-0.11294 0.049828 0.12283 0.046704 -0.23379 -0.29791 -0.046354 -0.052273 
-0.21044 0.32111 0.36567 0.12546 -0.2106 -0.19992 0.0028056 -0.098967 
-0.29709 0.2195 0.27524 0.079587 -0.17575 -0.091239 -0.020706 -0.10801 
-0.30695 -0.081374 0.078272 -0.00015387 -0.095021 0.033387 -0.023665 -0.060823 
-0.21323 -0.28821 0.010369 -0.0054151 0.00066819 0.14437 -0.028104 -0.047012 
0.031907 -0.11804 0.059857 0.099481 0.13697 0.22986 0.077121 0.059035 
0.22542 0.13943 0.13943 0.11576 0.19007 0.33311 0.14124 0.11839 
0.28757 0.23611 0.11937 0.1031 0.1955 0.49835 0.22033 0.14141 
0.29563 0.18366 0.056404 0.056076 0.28773 0.57957 0.21638 0.14058 
0.30335 0.25304 0.063639 0.064954 0.43489 0.55326 0.21901 0.16393 
0.20569 0.17889 -0.011663 0.029605 0.40792 0.32226 0.10491 0.098494 
-0.015444 -0.020212 -0.09946 -0.082361 0.19895 -0.06 0.04506 -0.0049219 
-0.16917 -0.20781 -0.12971 -0.077922 -0.018404 -0.50885 -0.0091966 -0.059672 
-0.14895 -0.12988 -0.068386 -0.017746 -0.11442 -0.74199 -0.058028 -0.029091 
-0.0014692 0.027632 0.05213 0.068736 -0.10357 -0.58958 -0.021856 0.0054362 
0.12283 0.15423 0.10129 0.11362 0.013328 -0.13678 -0.044217 0.04917 
0.10293 0.17084 0.13319 0.090109 0.14338 0.21408 -0.056219 0.026974 
0.028454 0.12973 0.1202 0.1008 0.14864 0.3438 -0.029255 0.027961 
-0.042408 0.13253 0.090109 0.076627 0.0026412 0.32571 -0.033694 0.0095465 
0.059693 0.10737 0.031907 0.050486 -0.11705 0.22082 0.039305 0.058049 
0.18481 0.056076 -0.0052507 0.0087245 -0.13514 0.018918 0.28823 0.11691 
0.14798 -0.066084 -0.0067304 -0.025967 -0.12642 -0.16638 0.33246 0.15933 
-0.017088 -0.023501 0.032236 0.012342 -0.032379 -0.1935 0.17018 0.050814 
-0.051451 0.057884 0.064954 -0.012485 0.11395 -0.087951 -0.20304 -0.086307 
0.066763 0.15916 0.048841 -0.010512 0.16442 0.12628 -0.43947 -0.12462 
0.10014 -0.065919 -0.1473 -0.07003 0.1299 0.25452 -0.47991 -0.090253 
-0.068221 -0.38225 -0.31057 -0.081374 0.025659 0.1904 -0.36417 -0.016595 
-0.13596 -0.34213 -0.13004 0.043745 -0.069865 0.01711 -0.18528 0.040456 
-0.20797 0.032071 0.18119 0.159 -0.057863 -0.092719 0.33032 -0.0067304 
-0.26141 0.30631 0.34117 0.21556 -0.015116 0.00017495 0.80548 -0.044546 
-0.17969 0.23381 0.23151 0.14026 0.09274 0.047526 0.56494 0.0046141 
-0.12314 -0.036325 -0.014293 0.0083956 0.19155 0.015465 0.052294 0.060022 
-0.16111 -0.279 -0.13563 -0.073976 0.21704 0.011191 -0.32783 0.029276 
-0.15224 -0.31912 -0.10735 -0.10143 0.098988 0.024837 -0.14714 0.021056 
-0.030735 -0.14139 0.0095465 -0.0091966 -0.025145 0.08304 0.17676 0.052787 
0.13236 0.1299 0.076792 0.041936 -0.020377 0.12085 0.18826 0.12447 
0.24071 0.18761 0.061501 0.069558 -0.020706 0.25206 -0.038462 0.16541 
0.26373 0.17265 0.042265 0.092576 0.024015 0.40398 -0.18265 0.12398 
0.24729 0.19254 0.073832 0.067091 0.047526 0.3581 -0.1889 0.0689 
0.26389 0.22328 0.073997 0.039305 -0.024652 0.086328 -0.1039 0.010862 
0.15883 0.14091 0.014808 0.0041209 -0.10472 -0.18265 -0.03912 -0.042901 
0.005765 0.021384 -0.023336 -0.031721 -0.10817 -0.31057 -0.022514 -0.096665 
-0.059014 0.031249 0.0047785 0.012999 0.046704 -0.26733 -0.14254 -0.10012 
-0.080552 0.086821 0.067091 0.039141 0.22098 -0.11771 0.087479 -0.060987 
-0.044546 0.11296 0.084848 0.11296 0.22312 0.036839 0.22789 0.042758 
0.014643 0.097015 0.04654 0.059364 0.094713 0.026646 0.1174 0.19731 
0.032564 0.04095 -0.012156 0.0067515 0.023193 -0.05441 -0.068386 0.28428 
0.05624 -0.021528 -0.014293 -0.029748 -0.021692 -0.072496 -0.1159 0.18629 
0.10935 0.036346 0.0065871 -0.030077 -0.063453 0.011026 -0.062796 0.090109 
0.18317 0.13615 0.061008 0.029605 -0.079566 0.055089 0.057391 -0.013307 
0.18333 0.16771 0.071859 0.0074092 -0.03616 0.084355 0.10343 -0.086471 
-0.010019 -0.060329 -0.047341 -0.004593 -0.025474 0.073997 0.070873 -0.11163 
-0.078579 -0.068714 -0.060658 -0.001798 0.0021479 -0.023336 0.10293 -0.056055 
0.0026412 0.025988 0.0087245 0.061172 0.0021479 -0.049642 0.12184 0.0093821 
0.033058 0.11198 0.12069 0.13187 -0.0013048 0.10195 0.081231 0.018754 
-0.049971 0.14042 0.13713 0.096686 -0.07973 0.18859 -0.16999 -0.039449 
-0.071509 0.13664 0.13187 0.071695 -0.10653 0.21243 -0.18331 0.0026412 
-0.017417 0.099645 0.084848 0.022864 -0.079566 0.1202 0.049992 0.089452 
0.1345 0.15489 0.062323 0.022371 0.0041209 -0.026131 0.24038 0.17643 
0.25271 0.11691 -0.021199 -0.019061 0.041772 -0.13168 0.11165 0.14585 
0.33755 -0.03616 -0.1233 -0.074304 0.079751 -0.076771 0.055418 0.11937 
0.31914 -0.016924 -0.065097 -0.0090322 0.18037 0.011848 0.26373 0.10606 
0.26044 0.12365 0.070873 0.077121 0.2759 0.14272 0.41532 0.049006 
0.061666 0.23693 0.13664 0.11017 0.23118 0.10836 -0.10604 -0.10949 
-0.14073 0.18333 0.12562 0.081724 0.17774 -0.0067304 -0.741 -0.16391 
-0.25927 0.093726 0.02829 -0.0031133 0.20306 -0.079401 -0.69398 -0.091568 
-0.21471 -0.017417 0.013986 -0.01232 0.15637 0.021878 -0.073318 0.02533 
-0.2568 -0.12708 -0.09091 -0.055232 -0.023829 0.080409 0.41581 0.11247 
-0.17147 -0.16802 -0.058356 -0.015609 -0.18578 0.12875 0.40398 0.18843 
-0.021199 -0.032708 0.039963 0.025001 -0.1792 0.093726 0.16229 0.20388 
0.092904 0.012342 0.05624 0.04358 -0.15372 -0.077757 -0.029584 0.097837 
0.16031 0.10721 0.075476 0.04506 -0.15059 -0.28114 -0.039613 0.014972 
0.21079 0.22509 0.12825 0.061172 -0.058028 -0.33852 0.030263 -0.02942 
0.17528 0.22279 0.11033 0.050814 0.045389 -0.23116 0.24417 -0.061316 
0.15094 0.16541 0.11198 0.0093821 0.12053 0.078272 0.28478 -0.072825 
0.14733 0.1373 0.069886 0.01563 0.15966 0.27935 0.02829 -0.090253 
0.16985 0.15423 0.060022 0.029112 0.052952 0.14469 -0.087622 -0.038462 
0.13894 0.13631 0.054432 -0.00064712 -0.07003 -0.080881 0.062488 0.033222 
0.14963 0.16064 0.033551 0.0041209 -0.10719 -0.10571 0.2634 0.14223 
0.094877 0.087972 -0.035996 -0.048985 -0.18824 -0.24299 0.17955 0.11937 
-0.035832 -0.010841 -0.085978 -0.045861 -0.13497 -0.30711 -0.017253 0.050321 
-0.09798 -0.20107 -0.11393 0.0024767 0.053609 -0.21685 -0.0024557 0.004943 
-0.059836 -0.16786 -0.013307 0.07449 0.16508 -0.032872 0.056898 0.048513 
-0.036983 -0.025802 0.10113 0.16771 0.10935 0.047362 -0.12609 0.022864 
-0.028269 0.20947 0.16853 0.14354 0.052787 0.19813 -0.2254 -0.0062372 
-0.03501 0.17593 0.12184 0.095535 0.16821 0.30122 -0.084169 0.014315 
-0.10867 -0.11393 -0.0070593 0.039799 0.44459 0.42157 0.066269 0.061666 
-0.11886 -0.20468 -0.057534 -0.01939 0.41861 0.3757 0.039141 0.014808 
-0.031557 -0.0062372 0.0072447 0.01152 0.17758 0.24269 -0.063453 -0.046025 
0.13549 0.21523 0.1077 0.0067515 0.027468 -0.030077 -0.17098 -0.028104 
0.2149 0.26192 0.12151 0.042429 -0.0060728 -0.14007 -0.056712 -0.02498 
0.12365 0.1909 0.065612 0.046704 -0.024652 -0.057205 0.14239 0.015794 
-0.015609 -0.023172 -0.03764 0.0023123 -0.061151 0.076792 0.23742 -0.014293 
-0.1644 -0.25845 -0.1284 -0.029584 -0.16736 0.024344 0.23183 -0.041586 
-0.22425 -0.28936 -0.097816 -0.049642 -0.22441 -0.073318 0.45955 -0.010183 
-0.24513 -0.0965 0.032564 0.020233 -0.2009 -0.084334 0.44903 0.069886 
-0.24661 0.0082312 0.12464 0.040785 -0.063946 -0.017911 0.16163 0.13845 
-0.084169 0.053938 0.11937 0.057062 0.059035 -0.0060728 -0.079895 0.1687 
0.06183 0.0023123 0.056733 0.047526 0.055747 0.0075736 -0.1649 0.13006 
0.19139 0.023522 0.032564 0.031085 0.039141 0.0070803 -0.14237 0.099152 
0.2754 0.089452 0.016123 0.052294 0.053445 0.045553 -0.098144 0.07301 
0.29234 0.14765 0.012999 0.047033 0.15144 0.08567 -0.051451 0.024179 
0.17939 0.11888 0.020398 0.054925 0.2149 0.11987 -0.050629 -0.068221 
0.056076 0.058871 0.0067515 0.025001 0.3438 0.14437 -0.03501 -0.12675 
-0.069865 -0.016431 0.0079024 0.032729 0.44179 0.15472 -0.011498 -0.11327 
-0.056383 -0.021199 0.059528 0.057062 0.36189 0.062652 0.062817 -0.019719 
-0.0036066 0.047691 0.10458 0.042429 0.078272 0.028619 0.063474 0.061008 
0.071037 0.16212 0.17758 0.054925 -0.14106 0.012999 0.023851 0.069722 
0.032564 0.20323 0.11198 0.021878 -0.18315 0.05624 0.022042 0.056733 
-0.039449 -0.072167 -0.081539 -0.033694 -0.09239 0.10688 0.07449 0.032893 
-0.025145 -0.21586 -0.21882 -0.02794 0.043909 0.18284 0.091753 0.023851 
0.086163 -0.094856 -0.11656 -0.010183 0.034373 0.040785 0.097508 0.061337 
0.094384 0.057555 -0.0052507 0.034537 -0.067399 -0.2203 0.034702 0.036182 
-0.042901 0.081724 0.072024 0.049499 -0.16292 -0.49356 -0.060165 -0.024158 
-0.21652 0.047362 0.094055 0.073175 -0.20633 -0.38965 -0.12708 -0.071838 
-0.2282 0.068078 0.1345 0.11674 -0.19318 -0.096829 -0.31073 -0.11952 
-0.062138 0.18317 0.24581 0.10737 -0.15125 0.092576 -0.36548 -0.05737 
0.17544 0.32341 0.29711 0.1368 -0.11771 0.12743 0.071531 0.15176 
0.24811 0.26258 0.17659 0.070051 -0.001798 0.17774 0.71192 0.31042 
0.19402 -0.033694 -0.13448 -0.064111 0.14387 0.20931 0.60357 0.20668 
0.22082 -0.22392 -0.32882 -0.1376 0.33788 0.24729 0.056404 0.064625 
0.36485 -0.082854 -0.25845 -0.094363 0.52975 0.38737 -0.20288 0.048841 
0.31601 0.094713 -0.077428 0.020891 0.44015 0.55902 -0.1524 0.038483 
0.047526 0.17824 0.11132 0.083368 0.24712 0.40907 -0.16523 -0.024323 
-0.27538 0.09833 0.18202 0.097344 0.048184 -0.10965 -0.21866 -0.075455 
-0.29265 0.029934 0.13845 0.070873 -0.066906 -0.38176 0.083862 -0.084663 
-0.11903 0.045718 0.12776 0.069064 -0.14023 -0.38061 0.36402 -0.0031133 
0.043416 0.042429 0.083204 0.08978 -0.13432 -0.25088 0.17396 0.074161 
0.072024 -0.014787 0.0093821 0.00066819 -0.16375 -0.21077 -0.29495 0.053116 
0.14502 -0.029584 -0.044874 -0.036654 -0.157 -0.16884 -0.64959 -0.011992 
0.14552 -0.032215 -0.05326 -0.062467 -0.10456 -0.019719 -0.49224 -0.058685 
0.16821 0.095699 0.0090533 0.00297 0.035195 0.059364 0.15374 -0.0098543 
0.29234 0.25206 0.1077 0.11411 0.16886 0.13532 0.50673 0.080409 
0.39789 0.2851 0.12891 0.12562 0.15357 0.23167 0.54225 0.12431 
0.36797 0.28478 0.072353 0.094055 0.01826 0.24647 0.36665 0.16311 
0.22986 0.15144 0.029769 0.023193 -0.06707 0.20405 0.041114 0.18136 
-0.016431 0.10803 0.0011614 -0.016102 -0.15454 0.095535 -0.39919 0.068078 
-0.2813 -0.016431 0.026481 -0.025802 -0.16999 -0.035667 -0.49241 -0.086471 
-0.46495 -0.11524 0.020233 -0.054904 -0.1233 -0.074962 -0.25072 -0.1621 
-0.54354 -0.30103 -0.05326 -0.051944 -0.094034 -0.038133 0.08567 -0.22672 
-0.4296 -0.27094 -0.067892 -0.056877 -0.13152 0.027139 0.21621 -0.11886 
-0.15996 -0.10637 0.03947 0.019083 -0.17608 -0.12774 0.244 0.042923 
0.07301 0.033715 0.11494 0.091918 -0.047998 -0.32158 0.052294 0.1687 
0.17659 0.083204 0.097344 0.094384 0.025824 -0.49044 -0.041915 0.13861 
0.13598 0.093891 0.01826 0.013164 -0.026789 -0.54798 -0.023665 0.0324 
0.069886 0.13039 0.012835 -0.04619 -0.080223 -0.45821 -0.062138 -0.040435 
0.098494 0.16146 0.018918 0.012506 -0.080223 -0.18808 -0.16128 -0.073647 
0.091589 0.060515 -0.059836 0.0044497 -0.011498 0.15209 -0.19219 0.0079024 
0.091425 -0.11097 -0.066577 0.036346 0.18448 0.49884 -0.21208 0.05213 
0.17939 -0.093541 -0.028762 0.083204 0.45116 0.72064 0.063968 0.069886 
0.27277 -0.0036066 0.056569 0.097508 0.44343 0.95641 0.49572 0.10885 
0.19254 0.21589 0.1391 0.1271 0.22756 1.1279 0.84296 0.12381 
0.052623 0.25419 0.13878 0.071859 0.05476 1.11 0.7333 0.074983 
-0.081045 0.12053 0.045553 0.022371 -0.093376 0.41285 0.25288 -0.057699 
-0.2134 -0.04882 -0.018568 0.0052718 -0.17279 -0.35447 -0.25335 -0.092883 
-0.29593 -0.10883 -0.039284 -0.041093 -0.20436 -0.70319 -0.55472 -0.051122 
-0.206 -0.1358 -0.038298 -0.024652 -0.22261 -0.83965 -0.57642 0.028947 
-0.16177 -0.10291 -0.051451 -0.03057 -0.20222 -0.9115 -0.48337 0.031249 
-0.12133 -0.095349 0.0080668 -0.0027845 -0.15109 -0.66817 -0.30827 -0.0090322 
-0.046354 -0.053588 0.048348 0.0324 -0.10094 -0.30827 1.0539e-005 -0.025967 
0.034537 0.0062583 0.086328 0.065447 -0.016266 0.089945 0.29908 0.0421 
0.046375 0.078272 0.082875 0.11559 0.075805 0.31042 0.33558 0.067749 
0.066434 0.14091 0.079916 0.073832 0.089123 0.45215 0.22624 0.038319 
-0.0029489 0.051965 0.0031344 0.012999 -0.0080457 0.29152 -0.021363 -0.049807 
-0.017417 -0.023501 -0.0406 -0.062138 -0.13843 0.067585 -0.1552 -0.086142 
0.070873 0.019411 -0.027282 -0.058028 -0.15848 -0.02942 -0.093376 -0.043559 
0.14124 0.10951 0.040456 0.039141 0.020891 0.16377 0.14157 0.034373 
0.095864 0.066927 0.046375 0.0689 0.13697 0.35449 0.64254 0.085506 
0.026317 0.044731 0.016616 0.056898 0.14568 0.31322 0.85924 0.12858 
0.0067515 0.0070803 0.0083956 0.017438 0.021713 -0.073154 0.47023 0.1248 
0.15703 0.056569 0.025001 0.018918 -0.00097594 -0.29873 -0.082196 0.16607 
0.24548 0.020562 -0.024652 0.049335 0.12727 -0.12905 -0.3617 0.15374 
0.14108 0.072353 0.044731 0.066763 0.23923 0.057884 -0.67721 0.080902 
-0.016595 0.11198 0.11099 0.10195 0.25913 0.05476 -0.73936 -0.0032777 
-0.010841 0.13713 0.14026 0.08304 0.24449 0.10885 -0.061645 -0.008539 
0.076627 0.15735 0.078107 0.074161 0.15275 0.14437 0.6746 0.0018191 
0.11247 0.1276 0.029769 0.067585 0.31092 0.23759 0.49868 0.034702 
0.024508 0.070873 0.0014903 0.050321 0.39329 0.16821 0.018589 0.030756 
0.031742 0.075148 0.0083956 0.065447 0.14354 0.055089 -0.1159 0.031249 
0.1738 0.13664 0.045718 -0.014129 -0.20173 -0.16572 -0.041751 0.061008 
0.30746 0.13105 0.020069 -0.06707 -0.35315 -0.25138 0.029769 0.08156 
0.22707 0.21276 0.07597 -0.066577 -0.36811 -0.22803 0.0085601 0.04917 
0.12579 0.33278 0.18119 0.012999 -0.26798 0.035195 0.013657 0.0056006 
0.095864 0.35695 0.18202 0.081067 -0.086964 0.28099 0.048184 0.032071 
0.05772 0.022206 -0.048163 0.015959 0.049664 0.31733 0.13697 0.04654 
0.072846 -0.37337 -0.28245 0.0072447 0.13023 0.16738 0.18037 0.11 
0.17347 -0.35644 -0.15651 0.11526 0.25518 0.084519 0.18991 0.10063 
0.11083 -0.029584 0.090274 0.1659 0.34923 -0.014129 0.081395 0.091753 
0.020891 0.23759 0.24005 0.18711 0.31207 0.020891 0.10441 0.16081 
-0.0059084 0.28428 0.23019 0.12529 0.10376 -0.060823 0.010862 0.038977 
-0.069865 0.13894 0.11658 0.03947 -0.01117 -0.090253 0.020069 -0.0004827 
-0.12971 0.06183 0.031085 -0.051451 -0.020541 -0.16194 -0.049642 -0.066906 
-0.098309 0.03388 -0.027447 -0.079072 -0.050793 -0.21027 -0.22885 -0.12412 
-0.0049219 -0.030735 -0.041257 -0.053095 -0.083347 -0.25467 -0.059014 -0.10423 
0.096357 0.0083956 0.0011614 -0.01528 -0.050136 -0.20156 0.13368 0.047362 
0.17314 0.10852 0.064296 0.068242 0.035853 -0.10932 -0.05178 0.19632 
0.21868 0.21194 0.092411 0.10047 0.13187 0.10211 -0.15224 0.23052 
0.27738 0.22723 0.12053 0.1105 0.1733 0.19944 1.0539e-005 0.21901 
0.20306 0.18498 0.051143 0.048513 0.14256 0.22427 0.077943 0.093726 
0.1128 0.0044497 -0.047176 -0.018075 0.08304 0.12497 0.16327 -0.071016 
-0.01939 -0.093541 -0.020048 -0.025309 0.064461 0.078765 0.22016 -0.1547 
-0.16917 -0.041915 0.030263 -0.022021 0.037332 0.024015 0.23085 -0.15618 
-0.28558 -0.087129 -0.011992 -0.014129 -0.045861 -0.026789 0.10622 -0.14928 
-0.27768 -0.20205 -0.087293 -0.055397 -0.13547 -0.14023 -0.17427 -0.088608 
-0.16013 -0.19087 -0.083183 -0.053588 -0.15635 -0.18824 -0.31681 0.0064227 
0.075641 0.024673 0.064954 0.056076 -0.085156 -0.13415 -0.19696 0.12447 
0.27771 0.19731 0.16689 0.10852 0.047526 0.013986 -0.024487 0.2537 
0.35268 0.28001 0.13993 0.11724 0.12973 0.10096 0.091425 0.23512 
0.17412 0.20405 0.10787 0.072846 0.1544 0.14798 0.06035 0.060022 
-0.15207 0.054267 0.050979 0.06183 0.083533 0.089616 -0.040764 -0.12626 
-0.37732 -0.13958 -0.0029489 0.012342 -0.062138 0.010369 -0.13021 -0.22589 
-0.34394 -0.16621 -0.0032777 -0.046025 -0.13185 -0.0054151 -0.04323 -0.13464 
-0.16901 -0.081539 0.038812 -0.019061 -0.10735 -0.0032777 0.067749 -0.014787 
0.0083956 0.06742 0.07597 0.011355 -0.02794 -0.0138 0.09981 0.028454 
0.040621 0.078436 0.071695 0.035853 0.0227 0.0042853 0.26916 0.0069159 
0.043909 0.037332 -0.0088678 0.016616 -0.056712 -0.056055 0.34512 -0.035503 
0.061172 -0.12708 -0.18002 -0.08828 -0.032872 -0.062796 0.14749 -0.033859 
0.04917 -0.20567 -0.23313 -0.084498 0.15801 -0.0087034 -0.10341 0.015794 
0.021384 -0.16786 -0.10291 -0.021856 0.2491 0.034373 -0.19235 0.095206 
0.016123 0.066598 0.15423 0.11954 0.15555 0.039305 -0.14813 0.13368 
0.0062583 0.3295 0.32835 0.16706 0.013657 0.0324 -0.066084 0.11115 
0.010533 0.3586 0.31157 0.12365 -0.073647 -0.023336 -0.064111 0.043251 
0.040621 0.18909 0.10803 0.031085 -0.077428 -0.047176 -0.025638 -0.014951 
0.13351 -0.13645 -0.17969 -0.10719 0.023686 -0.034352 -0.0068948 -0.0042642 
0.13467 -0.30185 -0.29889 -0.14566 0.038977 -0.010841 0.040621 -0.012156 
0.019247 -0.20748 -0.1381 -0.070359 -0.050793 0.031085 0.074654 -0.0090322 
-0.086471 0.049828 0.066269 0.060844 -0.034681 0.030263 0.08715 -0.064275 
-0.13218 0.1345 0.22082 0.13795 -0.032872 0.00099702 0.09126 -0.059836 
-0.13843 0.17889 0.1659 0.093891 -0.068057 -0.018075 0.05213 -0.020048 
0.012999 0.19517 0.095206 0.03388 -0.052766 0.048677 0.00017495 0.017603 
0.15587 0.077285 -0.046354 -0.045696 0.022206 0.12283 0.017767 0.087314 
0.15735 -0.06444 -0.12626 -0.064604 0.12825 0.13056 0.056733 0.091096 
0.12381 -0.10768 -0.10308 -0.018897 0.21687 0.11066 0.062159 0.095699 
0.082711 0.019411 0.0786 0.096686 0.35383 0.13499 0.073832 0.096028 
0.037826 0.12135 0.16706 0.16623 0.31519 0.19912 0.062323 0.057391 
0.0028056 0.13762 0.15127 0.12513 0.13976 0.20503 0.02681 0.033387 
-0.003771 0.055418 0.078107 0.059857 -0.01939 0.14174 -0.0054151 -0.0021268 
-0.023665 0.031578 0.019576 0.035853 -0.07266 0.098166 0.017932 0.0087245 
0.11625 0.060022 0.0092177 0.0082312 -0.065262 0.10984 0.03651 0.068571 
0.27442 0.14568 0.0014903 0.027303 -0.08532 0.036017 0.068736 0.12447 
0.32654 0.171 0.007738 -0.012814 -0.0868 -0.08121 0.070051 0.12562 
0.27721 0.19862 0.037826 0.0075736 -0.060658 -0.10752 0.13993 0.08715 
0.10458 0.070215 0.022864 -0.0138 -0.038956 -0.060165 0.11033 0.052787 
-0.14056 -0.10373 -0.021034 -0.027775 -0.027611 -0.060823 0.06183 -0.038133 
-0.44703 -0.24529 -0.082525 -0.014293 -0.0016336 -0.064275 -0.044217 -0.11228 
-0.56607 -0.2767 -0.057699 -0.014129 0.093398 -0.010676 -0.07825 -0.17328 
-0.40576 -0.14911 0.015465 0.03799 0.11642 0.050979 -0.079237 -0.12642 
-0.09091 0.034209 0.12201 0.10293 0.13138 0.16936 -0.016102 -0.0044286 
0.24351 0.19616 0.14848 0.13762 0.18613 0.30829 0.030427 0.08978 
0.38573 0.18415 0.10573 0.12973 0.20306 0.32489 0.15768 0.1756 
0.34462 0.17034 0.033058 0.047362 0.14963 0.2075 0.28889 0.21737 
0.30697 0.21375 0.019083 0.033222 0.058377 0.06594 0.20701 0.19796 
0.29793 0.2366 0.083697 0.039799 0.0065871 -0.050136 -0.022021 0.14206 
0.18942 0.17906 0.11313 0.072681 -0.013636 -0.1376 -0.25039 0.059364 
-0.060165 0.12085 0.094877 0.031085 0.02681 -0.062631 -0.23938 -0.088115 
-0.33145 -0.18019 -0.10768 -0.082854 0.032729 0.10524 -0.15109 -0.25993 
-0.3571 -0.31862 -0.25878 -0.14582 -0.023336 0.07038 0.22509 -0.23017 
-0.16292 -0.1741 -0.17821 -0.10291 -0.034188 -0.0080457 0.48684 -0.02646 
0.11954 -0.030077 -0.025309 0.024673 -0.022514 -0.073976 0.32473 0.22098 
0.1105 0.034537 0.11181 0.11461 0.012835 -0.13448 -0.021856 0.25781 
-0.093212 0.12628 0.20898 0.14667 0.010697 -0.12231 -0.1667 0.13532 
-0.145 0.18728 0.24992 0.15226 -0.074304 -0.12264 -0.23839 0.010204 
-0.059178 0.1128 0.15324 0.072681 -0.13218 -0.096829 -0.26272 -0.038133 
-0.010676 0.029441 0.079422 0.064461 -0.098473 0.02122 -0.0965 -0.054246 
0.021384 -0.029748 0.046704 0.0090533 0.033387 0.29826 0.15226 -0.043066 
0.057884 0.032071 0.041936 0.004943 0.1636 0.55918 0.33229 0.027468 
0.031907 0.026646 -0.0083746 0.039141 0.12694 0.55376 0.42272 0.03947 
0.051472 0.10951 -0.0034422 0.032564 0.017932 0.26916 0.38096 0.069558 
0.1276 0.16623 0.022535 0.055418 0.026152 -0.0044286 0.15785 0.073504 
0.12973 0.20586 0.023851 0.007738 0.069229 -0.17871 -0.19367 0.013492 
0.10902 0.18054 0.018754 0.00050378 0.10359 -0.2471 -0.43947 -0.041093 
0.095371 0.10606 -0.0098543 0.013986 0.075641 -0.29725 -0.52841 -0.01939 
0.090109 -0.031886 -0.045368 -0.014129 -0.02942 -0.34361 -0.32454 0.013328 
0.029441 -0.10176 -0.047505 0.0079024 -0.10061 -0.1598 0.15176 0.070873 
0.021384 -0.0965 -0.047012 -0.001798 -0.035832 0.10754 0.49605 0.14913 
-0.00031829 -0.03501 0.022042 0.039799 0.059035 0.23167 0.46316 0.14321 
-0.036654 0.017603 0.047855 0.0592 0.057391 0.14058 0.12053 0.052787 
-0.084005 -0.012649 0.034373 0.037826 0.015465 -0.015444 -0.17641 -0.044217 
-0.073154 -0.024816 0.028783 0.054432 0.066763 -0.06148 -0.38307 -0.071838 
-0.028926 -0.035667 0.034866 0.013164 0.077778 -0.01232 -0.30859 -0.013636 
0.074983 0.071366 0.05213 0.013164 -0.016102 0.013821 0.064625 0.060679 
0.17988 0.13368 0.066598 0.027468 -0.012814 0.030098 0.25173 0.12546 
0.18037 0.18317 0.072188 0.037826 0.0083956 -0.037476 0.058542 0.10129 
0.09981 0.17067 0.094877 0.055254 -0.020706 -0.11146 -0.12626 0.037497 
0.069722 0.2246 0.14321 0.05476 0.02681 -0.06296 -0.11212 -0.049971 
0.21408 0.22361 0.14124 0.070544 0.083697 0.0098754 0.11231 -0.064768 
0.30368 0.1881 0.067913 0.041607 0.033551 0.052787 0.19139 -0.047669 
0.20668 -0.0060728 -0.055726 -0.008539 -0.049971 0.049499 0.035688 -0.019555 
0.077614 -0.1478 -0.16407 -0.025802 0.026974 0.053116 -0.033859 0.066763 
0.051801 -0.11196 -0.10554 -0.020377 0.10754 0.050486 -0.035996 0.15144 
0.098494 0.10639 0.12365 0.1008 0.10376 0.0087245 0.017274 0.20191 
0.18251 0.41154 0.31273 0.15883 0.07597 0.048184 0.059364 0.17314 
0.090109 0.41433 0.24515 0.16607 0.0056006 -0.0060728 0.055418 0.05624 
-0.1381 0.017603 -0.10291 -0.0029489 -0.075291 -0.060823 -0.029584 -0.045861 
-0.14517 -0.35315 -0.32602 -0.10883 -0.13793 -0.10784 -0.036983 -0.03501 
0.083533 -0.33556 -0.25911 -0.089431 -0.15914 -0.11064 -0.018733 0.0421 
0.17149 -0.14993 -0.06444 -0.014622 -0.075291 -0.068221 0.017603 0.10096 
0.085341 0.090931 0.18728 0.11198 0.11691 0.071366 0.064132 0.083862 
-0.031886 0.21079 0.32506 0.17511 0.20355 0.15933 0.12003 0.030263 
-0.10423 0.22098 0.24614 0.14124 0.08863 0.09685 0.033058 -0.076113 
-0.094363 0.10967 0.10918 0.058049 -0.039613 -0.069865 -0.10176 -0.17624 
-0.060494 0.038155 -0.018404 -0.037969 -0.076277 -0.26601 -0.19614 -0.22228 
-0.0064016 -0.0029489 -0.071345 -0.051451 0.043745 -0.32438 -0.16654 -0.1478 
0.059364 -0.0016336 -0.060329 -0.048656 0.29464 -0.13037 -0.069536 -0.0087034 
0.17067 0.057555 -0.01939 -0.0096899 0.46678 0.0080668 0.087808 0.071695 
0.22805 0.094548 0.034044 0.034209 0.22822 0.069886 0.32687 0.11231 
0.21786 0.095371 0.044731 -0.0011404 -0.035174 1.0539e-005 0.33657 0.17084 
0.070708 0.041114 0.017767 -0.0050863 -0.1136 0.023028 0.2389 0.12743 
-0.022514 0.00050378 -0.023665 -0.019061 -0.047341 0.29135 0.54751 0.15341 
-0.023007 -0.0049219 0.00083261 0.01004 -0.043395 0.6483 0.48964 0.055747 
-0.015116 0.039305 0.051472 0.068078 -0.061809 0.62873 -0.28048 -0.021528 
-0.011827 0.027796 0.065776 0.084519 -0.036818 0.35317 -0.78375 -0.095678 
-0.015116 0.069064 0.071366 0.13105 0.010862 -0.068221 -0.71272 -0.064768 
-0.0049219 0.041772 0.049499 0.088794 0.027139 -0.40757 -0.1866 -0.0090322 
-0.031886 0.026152 0.043416 0.054267 0.072024 -0.51082 0.26389 0.024837 
-0.0013048 0.016288 0.034373 0.022206 0.033387 -0.35775 0.56083 0.077778 
0.030756 0.089945 0.066269 0.0042853 -0.045368 -0.19482 0.50131 0.093398 
0.079751 0.11231 0.071531 0.041278 -0.029584 -0.034023 0.17939 0.072353 
0.021056 0.056898 0.057884 0.0054362 -0.052602 0.018096 -0.12346 0.0227 
-0.020377 0.045389 0.039799 0.005765 -0.070359 0.049335 -0.2397 0.0016547 
0.019905 0.10293 0.047526 -0.0080457 -0.023665 0.049828 -0.13201 0.07038 
0.079587 0.11543 -0.010512 -0.044217 -0.009361 0.06331 -0.031064 0.053281 
0.03947 0.047033 -0.081539 -0.041751 -0.018568 0.071695 0.034373 -0.019555 
0.0080668 -0.044546 -0.13234 -0.0080457 0.1031 0.12727 0.061995 -0.043888 
-0.029913 -0.12429 -0.074469 0.081889 0.13532 0.17297 0.11132 -0.015773 
-0.017911 0.05213 0.10211 0.13154 0.11477 0.14881 0.14256 0.025166 
0.013164 0.20651 0.22838 0.13417 0.037004 0.078929 0.34512 0.037826 
-0.0087034 0.22296 0.19188 0.097672 0.037661 0.13253 0.39543 0.048677 
-0.0090322 0.066269 0.07449 -0.0011404 0.025001 0.11691 0.17577 0.046211 
-0.010348 -0.029584 -0.014951 -0.012485 0.020891 0.1493 -0.096829 0.012506 
-0.049642 -0.14977 -0.066741 -0.067892 0.043416 0.13006 -0.24382 0.01267 
-0.081539 -0.17854 -0.077922 -0.059014 0.042758 0.11806 -0.2009 0.027139 
-0.083676 -0.11508 -0.043066 -0.014951 0.019083 0.036017 -0.098802 0.032729 
-0.12067 -0.054575 0.013657 0.034373 0.0013258 -0.026296 -0.015773 0.0024767 
-0.14582 0.0052718 0.017438 0.053774 -0.068386 -0.12807 -0.023172 -0.014622 
-0.076935 0.026481 0.024179 0.048513 -0.094199 -0.15076 0.015465 0.012999 
0.081067 0.12102 0.056404 0.051636 -0.06296 -0.11409 0.035688 0.070544 
0.21671 0.19517 0.10458 0.055089 -0.027282 -0.04619 0.078436 0.13187 
0.29579 0.24943 0.10967 0.040621 -0.033365 -0.021363 0.069722 0.13351 
0.27688 0.22033 0.086985 0.057884 -0.055068 0.01563 0.074326 0.10967 
0.20158 0.18103 0.0090533 -0.023994 -0.081374 0.034373 0.060844 0.076299 
0.15242 0.040456 -0.067892 -0.041093 -0.045039 0.094384 0.17084 0.055911 
0.044731 0.014643 -0.073976 -0.02646 -0.020706 0.028454 0.15209 0.025659 
-0.13152 -0.091732 -0.015444 0.0042853 -0.031228 -0.06444 0.037168 -0.010183 
-0.19153 -0.10505 0.037168 0.063145 -0.025145 -0.17049 -0.12116 -0.027447 
-0.10012 -0.041751 0.086163 0.076956 0.036182 -0.10472 -0.25187 -0.022843 
0.038977 -0.018239 0.049006 0.043416 0.0013258 -0.069043 -0.33457 -0.011498 
-0.016431 -0.0032777 0.04358 0.010533 -0.077264 0.060844 0.096357 0.00083261 
-0.16523 -0.09239 0.012177 -0.012978 -0.087129 0.041114 0.33229 0.063474 
-0.1838 -0.078415 0.01974 -0.0138 0.065118 0.023357 0.012342 0.063968 
-0.034352 -0.011663 0.046211 0.022864 0.18547 0.074326 -0.25417 0.014315 
0.10458 0.11839 0.077285 0.096193 0.32637 0.26307 -0.053588 0.045882 
0.17363 0.1516 0.085341 0.070051 0.31207 0.30451 0.28001 0.076627 
0.12118 0.14469 0.042265 0.049335 0.070873 0.1442 0.32818 0.086657 
0.0052718 0.012999 -0.0073881 -0.0016336 -0.1062 -0.052602 0.17922 0.039305 
-0.057534 -0.042244 -0.054246 -0.010019 -0.042244 -0.064111 0.029276 0.029112 
0.029934 -0.020212 -0.042573 0.023028 0.13203 0.025495 -0.045696 0.0042853 
0.18333 0.17166 0.036346 0.033058 0.20487 0.19221 -0.10653 -0.012814 
0.26192 0.23085 0.064132 0.024508 0.093562 0.1567 -0.089266 0.01826 
0.18267 0.11231 0.012342 -0.014129 -0.052766 0.036346 -0.036654 0.034209 
0.044402 -0.019555 -0.027447 -0.043724 -0.13596 -0.10686 0.068242 -0.0039354 
-0.0050863 -0.077264 0.01974 0.044567 -0.11722 -0.13168 0.10211 0.013164 
-0.04619 -0.068057 0.088958 0.084355 -0.034845 -0.14073 0.095864 0.018754 
-0.15076 -0.076113 0.094055 0.14634 0.020069 -0.060658 0.025988 0.0018191 
-0.20879 -0.031557 0.064954 0.076627 0.060679 -0.0032777 -0.023829 -0.031392 
-0.23132 -0.084827 0.030263 0.048019 0.082217 0.052952 -0.057534 -0.047176 
-0.17493 -0.11015 -0.014129 0.020398 0.066763 0.047197 -0.04882 -0.0036066 
-0.017253 -0.022843 -0.028433 -0.0036066 0.073339 0.073504 -0.021034 0.071859 
0.081395 0.074326 0.028783 0.011355 0.071859 0.06594 -0.015444 0.11017 
0.11691 0.094548 0.04654 0.0016547 0.073504 0.099152 0.0085601 0.11362 
0.099152 0.12118 0.066105 0.017767 0.060186 0.091918 0.050814 0.042265 
0.10195 0.075476 0.056898 0.038648 0.077943 0.11872 0.078272 -0.028433 
0.068407 0.060679 0.024837 0.016288 0.08304 0.081724 0.036346 -0.015444 
0.081395 -0.030899 -0.011827 0.048677 0.083697 0.096686 0.03536 0.013164 
0.17988 0.087643 -0.032379 -0.0040998 0.096357 0.060679 0.0021479 0.024673 
0.27244 0.24614 0.072846 0.037332 0.12447 0.092082 0.042923 0.037826 
0.159 0.27721 0.12168 0.091589 0.13762 0.089287 0.030756 0.044567 
0.017274 0.21013 0.12184 0.10589 0.13549 0.096028 0.070051 0.049006 
-0.008539 0.043416 0.02533 0.082875 0.086657 0.027961 0.013164 0.055254 
0.017274 -0.041751 -0.018733 -0.0040998 0.020069 -0.10949 -0.0078813 0.017767 
0.051801 -0.034845 0.027632 0.031742 0.010862 -0.27999 -0.012485 0.016781 
0.10326 0.012506 0.055747 0.052623 -0.009361 -0.24365 0.0067515 0.044073 
0.11855 0.058871 0.056076 0.054267 -0.012978 -0.17197 0.016781 0.052787 
0.084848 0.11083 0.038483 0.0065871 -0.079895 -0.054082 -0.025309 0.039799 
0.012506 0.050814 -0.0091966 -0.027282 -0.13629 0.010533 0.0093821 0.023851 
-0.0087034 0.08419 0.0044497 -0.0042642 -0.15503 0.10655 0.023851 0.0046141 
-0.0032777 0.13927 0.045224 0.026152 -0.086142 0.14157 0.019905 -0.016595 
-0.04882 0.099316 0.025988 0.021056 -0.043066 0.091589 0.024015 -0.031392 
-0.082032 -0.046847 -0.02235 0.0031344 -0.026131 0.091753 0.17807 0.020233 
-0.064768 -0.064768 0.035031 -0.013143 -0.045532 0.059693 0.2486 0.081067 
-0.014129 0.02829 0.082382 0.044073 -0.018075 -0.058192 0.20306 0.09422 
0.077614 0.077614 0.047691 0.01004 0.10113 -0.073647 -0.073318 0.050486 
0.098823 0.083862 -0.038627 0.0046141 0.14963 -0.05178 -0.39343 -0.024323 
0.091589 0.058377 -0.036489 0.0082312 0.18054 0.018425 -0.4319 -0.084498 
0.043416 0.11263 0.041443 0.065283 0.32029 0.10556 -0.074798 -0.13596 
-0.091732 0.069229 0.051965 0.080902 0.3341 0.46859 0.6409 -0.16523 
-0.10406 -0.00081153 0.020069 0.012835 0.23151 0.76437 0.99028 0.017932 
0.039634 -0.010676 -0.010841 0.026317 0.1807 0.73149 0.341 0.24564 
0.14174 0.085012 0.055582 0.035853 0.1003 0.25584 -0.31517 0.29267 
0.14206 0.11757 0.11 0.10556 -0.045532 -0.17345 -0.42056 0.20619 
0.056898 0.068242 0.095042 0.10836 -0.18759 -0.49323 -0.34115 0.10984 
0.00066819 0.0067515 0.060844 0.040456 -0.25171 -0.62624 -0.31994 0.013986 
0.011026 0.067256 0.054103 0.03651 -0.19202 -0.50573 -0.30958 -0.034188 
0.073668 0.11461 0.055254 -0.0027845 -0.12034 -0.22935 -0.040106 -0.080717 
0.11724 0.16837 0.030263 -0.018404 -0.056383 -0.0096899 0.31634 -0.11705 
0.11691 0.12628 0.0042853 -0.019719 -0.034188 0.12595 0.44261 -0.049971 
0.17988 0.11954 0.030098 -0.012156 0.012835 0.14864 0.28642 0.06742 
0.18383 0.15982 0.026974 0.04095 0.059364 0.1465 0.092904 0.0786 
0.10293 0.11346 -0.010348 0.02829 0.10392 0.13483 -0.034188 0.06183 
-0.030242 0.035195 -0.027282 0.019905 0.095042 0.14026 -0.040271 0.058542 
-0.092883 0.031578 0.047197 0.041114 0.08978 0.11987 -0.03353 0.058542 
-0.050464 -0.0047575 0.061172 0.025495 0.064132 0.11411 0.015137 0.034209 
0.049664 -0.13629 -0.039449 -0.010841 0.060844 0.086163 -0.0026201 0.0044497 
0.069722 -0.12346 -0.098309 -0.037805 0.045389 0.11362 0.020233 0.0070803 
0.040292 0.0075736 0.030756 0.048019 0.078436 0.13549 0.062323 0.026317 
0.013986 0.15653 0.15456 0.10754 0.11757 0.1442 0.11083 0.042758 
-0.038462 0.17873 0.17281 0.091753 0.085341 0.084519 0.11066 0.00050378 
-0.067235 0.13828 0.11576 0.064296 0.018754 0.027468 0.01415 0.0093821 
0.0039565 0.0067515 -0.015938 0.0016547 -0.010512 -0.021199 -0.045203 0.031249 
0.12628 -0.047012 -0.074633 0.017438 0.01267 0.0067515 -0.064275 0.051143 
0.23479 0.0095465 -0.06 0.030756 0.11017 0.059857 -0.056712 0.062981 
0.19583 0.0074092 0.014643 0.057062 0.17067 0.10014 -0.089431 0.029769 
0.12431 0.061008 0.058049 0.081724 0.10672 0.067091 0.15867 -0.012485 
0.078436 0.062488 0.072024 0.064132 0.024015 0.026646 0.305 0.031085 
0.10704 0.069722 0.052952 0.015137 -0.016102 -0.0029489 0.12135 0.079751 
0.055418 0.10787 0.1271 0.047033 -0.034516 -0.03616 -0.048985 0.069064 
0.10869 0.15522 0.09981 0.05065 -0.066906 -0.059343 0.15242 0.077778 
0.096357 0.11198 0.052459 -0.0078813 -0.080388 -0.041257 0.15357 0.046046 
0.0090533 0.021384 -0.063289 -0.038791 -0.14862 -0.12988 -0.18841 0.0044497 
-0.11212 -0.046683 -0.058521 0.0013258 -0.13925 -0.19761 -0.39688 -0.008539 
-0.15733 0.074819 0.054596 0.042758 -0.095843 -0.19794 -0.16703 0.0034632 
-0.16144 0.12908 0.16196 0.066105 -0.037147 -0.14287 0.09422 0.011848 
-0.10637 0.058213 0.12316 0.055747 -0.050629 -0.096336 0.1807 0.0087245 
0.077614 -0.038133 0.029605 0.02829 0.0032988 -0.061645 0.14765 0.044402 
0.19829 -0.10702 -0.059672 0.048513 0.18251 0.010369 0.079587 0.12184 
0.13483 -0.16786 -0.12396 -0.0090322 0.27014 0.043416 0.035853 0.15686 
0.0083956 -0.12593 -0.055232 -0.013471 0.13483 0.00083261 -0.012649 0.062488 
-0.08384 -0.078579 0.0070803 0.00066819 -0.074633 -0.057205 -0.085978 -0.052602 
-0.066084 -0.02794 0.011848 0.026152 -0.15898 -0.097487 -0.096336 -0.071674 
0.040128 0.08156 0.01711 0.069886 -0.14007 -0.015773 0.059857 -0.041586 
0.06479 0.18678 0.03092 0.048019 -0.019884 0.077778 0.13417 -0.049807 
-0.093376 0.14765 0.011684 0.026646 0.01711 0.080409 0.067091 -0.06148 
-0.24118 -0.048163 -0.055397 -0.08532 -0.046025 0.013986 -0.13991 -0.095843 
-0.3132 -0.18561 -0.098309 -0.078086 -0.072825 -0.063453 -0.21077 -0.057534 
-0.35266 -0.21389 -0.063289 -0.011334 -0.047834 -0.17871 -0.0022913 -0.025967 
-0.21603 -0.076277 0.063639 0.047855 0.037826 -0.1575 0.31832 0.038977 
-0.020706 0.034209 0.14371 0.10951 0.14963 0.076792 0.47484 0.076299 
0.12349 0.066598 0.14026 0.080573 0.13746 0.1853 0.28379 0.14469 
0.20405 0.048677 0.076956 0.070708 0.085835 0.16821 0.024837 0.16064 
0.24515 0.034702 0.032729 0.040128 0.054103 0.09685 -0.17887 0.1442 
0.18826 0.077449 -0.0021268 0.010204 0.011355 -0.039613 -0.21767 0.087808 
0.10589 0.076299 -0.017417 0.0421 -0.016595 -0.12675 -0.20189 0.010862 
-0.023336 0.053445 0.016781 -0.0088678 -0.045861 -0.11623 -0.21718 -0.095514 
-0.077428 -0.011005 0.01711 -0.010348 -0.056877 -0.039284 -0.12001 -0.13596 
-0.15109 -0.0032777 -0.018239 -0.031721 -0.020541 0.045389 0.041278 -0.044052 
-0.11705 -0.022185 -0.014787 -0.012978 0.061501 0.071037 0.13253 0.061337 
-0.10028 -0.0052507 0.0092177 0.044238 0.057227 0.048677 0.18876 0.059364 
-0.032543 -0.0055795 0.034373 0.020398 0.041278 0.040785 0.1419 0.012342 
0.00083261 0.044073 0.020727 0.011026 -0.009361 0.041443 0.085341 -0.011334 
0.053281 0.063474 -0.0067304 0.0037921 0.034373 0.10803 0.041278 0.012506 
0.05476 0.024837 -0.0088678 0.035195 0.12266 0.15752 0.056898 0.050157 
0.056076 0.019083 0.026317 0.085341 0.16475 0.14946 0.058542 0.083533 
0.051965 0.062981 0.080409 0.053774 0.16821 0.12661 0.050814 0.067749 
0.091918 0.14354 0.099645 0.052294 0.15456 0.10096 0.023193 0.058542 
0.09422 0.11625 0.045224 0.0085601 0.038977 0.074161 0.055747 0.039141 
0.12201 0.07038 -0.029091 0.02681 -0.0087034 0.0047785 0.044238 0.060515 
0.11017 0.063639 -0.00081153 0.012506 -0.075127 -0.02498 0.022042 0.039141 
0.012177 0.050979 0.025001 0.00297 -0.063289 -0.069865 -0.03057 0.0018191 
-0.084991 -0.027282 0.030263 0.010533 -0.070359 -0.079895 -0.14155 -0.054904 
-0.042079 0.12595 0.072353 -0.0044286 -0.11623 -0.16062 -0.16161 -0.039613 
0.082546 0.22049 0.11115 0.023851 -0.076277 -0.082032 0.0074092 0.030427 
0.34183 0.30105 0.1225 0.049006 0.012342 0.021549 0.21868 0.14091 
0.48783 0.18711 0.027961 0.031907 0.01826 0.050979 0.17939 0.16673 
0.40513 0.047197 -0.017582 0.046868 0.027468 -0.0031133 0.21802 0.14075 
0.1294 0.019247 -0.024816 0.014972 0.032729 -0.10834 0.025495 0.062323 
-0.14007 -0.029748 -0.051287 -0.013307 -0.015609 -0.2208 -0.30202 -0.044381 
-0.36104 -0.093048 -0.059178 -0.056548 0.033387 -0.095021 -0.1815 -0.18759 
-0.23214 0.028619 0.051472 0.0080668 0.232 0.16459 0.16442 -0.14615 
0.080902 0.16064 0.12595 0.092904 0.38655 0.51035 0.11477 0.0085601 
0.23118 0.19665 0.15735 0.12036 0.38112 0.71883 0.027468 0.14174 
0.29464 0.16952 0.1368 0.14437 0.23775 0.7305 0.086328 0.18547 
0.28132 0.11362 0.089452 0.092411 0.085177 0.52202 0.19599 0.15176 
0.22361 0.12431 0.023851 0.049006 -0.040271 0.20109 0.18119 0.093398 
0.20224 0.18728 0.068078 0.014972 -0.11261 -0.061316 0.10063 0.075148 
0.16015 0.20701 0.068571 0.019083 -0.13464 -0.20551 0.042594 0.073832 
0.074654 0.077943 0.010204 0.012999 -0.098802 -0.31945 0.044896 0.065118 
-0.09946 -0.008539 -0.041422 -0.016431 -0.077593 -0.36647 0.05772 -0.0022913 
-0.19466 -0.047834 -0.0060728 0.016945 -0.046354 -0.32306 0.014315 -0.04323 
-0.10686 0.041278 0.061172 0.03388 0.032729 -0.17821 -0.010019 -0.045203 
0.082382 0.10458 0.096193 0.022535 0.11165 -0.032872 0.016616 -0.001798 
0.24104 0.15637 0.069229 0.038977 0.06479 0.03651 0.0324 0.031414 
0.28182 0.20832 0.084519 0.028125 0.044402 0.087808 0.0047785 0.0689 
0.26389 0.2223 0.070215 0.038812 0.060186 0.12085 0.01711 0.092411 
0.15259 0.14782 0.075476 0.022864 0.033222 0.1008 -0.011005 0.091425 
-0.023007 -0.019719 0.023357 -0.0021268 -0.018239 0.043416 -0.0027845 0.042923 
-0.23017 -0.14632 -0.047834 0.017932 -0.053753 0.01711 -0.0036066 -0.020541 
-0.21323 -0.10357 -0.041422 0.024015 -0.03764 0.040128 0.034373 -0.049478 
-0.026296 0.021878 0.043416 0.10195 -0.060823 0.085506 0.12875 0.0062583 
0.00297 -0.080717 0.02122 0.054103 -0.061809 0.13467 0.2223 0.039141 
0.029934 -0.01676 0.030592 0.037168 0.0062583 0.14815 0.26291 0.040785 
0.06742 0.043745 0.057391 0.043909 0.034044 0.11165 0.16492 0.058706 
-0.08828 0.0044497 0.011355 0.019576 0.0421 0.015301 -0.11952 -0.033201 
-0.29445 -0.084005 -0.037805 -0.00097594 0.054267 -0.0047575 -0.37913 -0.099789 
-0.28541 -0.087129 -0.049971 -0.034352 0.13121 0.037332 -0.39064 -0.047176 
-0.098967 -0.092554 -0.016102 0.01267 0.21474 0.10754 -0.10801 0.039634 
0.017438 -0.098309 0.035195 0.040456 0.25551 0.088465 0.21852 0.072681 
0.098659 -0.026624 0.085835 0.074983 0.22641 0.073175 0.24384 0.077121 
0.11954 0.059528 0.091918 0.073175 0.061501 -0.0026201 0.093726 -0.016924 
0.1105 0.082546 0.053609 -0.0042642 -0.10768 0.0037921 0.007738 -0.078086 
-0.028597 0.00297 -0.010676 -0.030077 -0.10998 0.032893 0.20273 -0.094199 
-0.12297 -0.043066 -0.010019 -0.018239 -0.062467 0.055582 0.26948 -0.047998 
-0.098144 -0.042244 -0.014951 0.00017495 -0.092554 -0.024487 -0.03057 0.0062583 
0.0075736 0.028619 0.036839 0.061501 -0.023007 -0.077922 -0.33572 0.065776 
0.077449 0.068078 0.048019 0.057227 0.10737 -0.11607 -0.2277 0.11642 
0.12349 0.10754 0.058213 0.070051 0.12924 -0.10571 0.037004 0.15555 
0.13582 0.089123 0.074654 0.051965 0.034866 -0.12527 0.18991 0.16755 
0.16558 0.1516 0.12431 0.070544 0.015137 -0.084991 0.22559 0.16064 
0.10885 0.1225 0.075805 0.054267 -0.02942 -0.072332 0.14239 0.091425 
0.055582 0.037004 0.017767 -0.0036066 -0.073318 -0.056055 -0.0059084 0.027139 
0.00033937 -0.041586 -0.057041 -0.037147 -0.10653 -0.059836 -0.10653 0.017932 
0.03947 0.0064227 -0.006566 -0.024816 -0.077264 -0.054246 -0.10193 -0.00031829 
0.039305 0.12677 0.087479 0.025988 -0.061316 -0.075127 -0.080223 -0.023665 
0.077943 0.26291 0.19533 0.1054 -0.028433 -0.085978 -0.016266 -0.033201 
0.12595 0.31536 0.15028 0.073997 -0.042737 -0.13925 -0.011663 -0.021692 
0.20783 0.18843 0.036839 0.042265 -0.10275 -0.18824 -0.0027845 0.036017 
0.091918 0.0011614 -0.043559 -0.033694 -0.22524 -0.30876 -0.051451 0.037826 
0.031742 -0.082361 -0.021034 -0.014129 -0.22359 -0.31451 -0.059672 0.056569 
-0.021528 -0.25138 -0.12823 -0.023829 -0.082032 -0.20436 -0.00081153 0.033551 
-0.26322 -0.43897 -0.22672 -0.049642 0.032893 -0.008539 0.042594 -0.051287 
-0.42138 -0.35233 -0.15766 0.0047785 0.1396 0.15259 0.061666 -0.065591 
-0.30481 -0.1187 0.014479 0.054103 0.19369 0.26488 0.031742 -0.038627 
-0.26716 0.10392 0.14174 0.11954 0.18267 0.12529 -0.16358 -0.034845 
-0.19548 0.19418 0.22937 0.14519 0.45445 0.3387 -0.27785 -0.031064 
-0.026953 0.21391 0.19336 0.15883 0.84165 0.7037 0.025001 -0.0026201 
0.1738 0.12381 0.097344 0.1294 0.7065 0.74546 0.35662 0.038483 
0.22707 0.057391 0.01004 0.024015 0.2805 0.45494 0.67164 0.084519 
0.24926 0.057391 0.0056006 -0.023172 -0.14484 0.0592 0.58368 0.11214 
0.29267 0.0689 0.011355 -0.048985 -0.41776 -0.33145 0.04917 0.15637 
0.3198 0.15686 0.054267 -0.016266 -0.46002 -0.52858 -0.42171 0.18744 
0.24038 0.1756 0.064625 0.031742 -0.36006 -0.50901 -0.46627 0.12957 
0.089945 0.2149 0.072024 0.040456 -0.22672 -0.30958 -0.19975 0.057884 
0.026481 0.1567 0.065612 0.070544 -0.12034 -0.15996 0.16229 0.027468 
-0.019061 0.10902 0.0083956 0.0044497 -0.034352 -0.0080457 0.12513 0.0021479 
-0.043395 0.035524 -0.035338 -0.0080457 0.0032988 0.11477 -0.145 -0.077593 
-0.052931 0.037497 -0.036489 -0.022843 0.10129 0.22378 -0.20551 -0.065097 
-0.068879 0.01152 -0.014951 0.021713 0.20323 0.23282 0.017438 0.016452 
-0.02235 0.012999 0.016123 0.085835 0.28987 0.29234 0.076956 0.11707 
0.073504 0.043416 0.040621 0.073175 0.24219 0.20619 0.054432 0.03388 
0.10556 0.063474 0.061008 0.052952 0.14124 0.13927 0.021878 -0.019719 
0.057391 0.054103 0.046046 0.017274 0.030756 0.035195 0.072188 0.0011614 
0.046211 0.045882 0.038483 -0.010841 -0.019226 -0.017911 0.16393 0.02829 
0.023522 -0.014458 0.019247 0.028947 -0.003771 -0.022843 0.17824 0.04506 
-0.00031829 -0.092226 0.028125 0.0060938 0.071531 0.073504 0.20471 0.027468 
-0.011005 -0.12297 0.0062583 0.026646 0.085341 0.11148 0.18152 0.0082312 
0.017603 -0.14648 0.035853 0.012177 0.034209 0.13894 0.097837 0.0016547 
0.0592 -0.049314 0.022206 0.012835 0.0041209 0.088958 -0.026296 0.039634 
0.048348 0.050979 0.038155 0.058542 0.0062583 0.092904 -0.086471 0.10474 
0.11132 0.20372 0.074983 0.040456 0.067913 0.03092 -0.09798 0.097837 
0.19073 0.28527 0.12497 0.11 0.14174 0.049664 0.13779 0.037497 
0.21178 0.27968 0.11872 0.083862 0.027468 -0.020541 0.27968 -0.045696 
0.15472 0.18695 0.098166 0.054432 -0.086142 -0.089759 0.13549 -0.039613 
0.11313 0.15949 0.080738 0.03947 -0.12823 -0.11656 -0.069208 0.051472 
0.0592 0.091096 0.0041209 -0.011005 -0.10834 -0.090746 -0.22228 0.069229 
0.12053 0.062817 -0.060494 -0.026789 -0.145 -0.1039 -0.21011 0.11263 
0.1784 0.053774 -0.059343 -0.060165 -0.14237 0.0024767 -0.099295 0.10491 
0.089616 0.00099702 -0.012978 -0.028762 -0.049642 0.071531 -0.027611 0.023193 
-0.097158 -0.070359 0.015959 0.01563 0.09126 0.2343 -0.0059084 -0.093705 
-0.16079 -0.081703 0.058706 0.073668 0.35071 0.38079 0.046211 -0.11623 
-0.23017 0.04506 0.10425 0.12924 0.59683 0.40266 0.1174 -0.064275 
-0.25516 0.038648 0.072024 0.057227 0.50657 0.26751 0.21391 -0.013471 
-0.25911 -0.042244 0.023522 0.01415 0.077121 0.021713 0.19698 0.022042 
-0.20912 -0.14204 0.014643 -0.029584 -0.21767 -0.098802 0.22065 0.027961 
-0.025309 -0.067564 0.020069 -0.010183 -0.2813 0.0034632 0.15703 0.075641 
0.12743 -0.032379 -0.031886 -0.039942 -0.25713 -0.039613 -0.12741 0.060186 
0.25091 0.15193 0.01152 0.0093821 -0.12462 -0.11738 0.062981 0.055747 
0.33163 0.23693 0.066269 0.077778 -0.004593 -0.18643 0.54093 0.1128 
0.35547 0.1442 0.026317 0.038812 -0.11327 -0.26535 0.27951 0.20405 
0.28543 0.053116 -0.026296 0.00033937 -0.18759 -0.27966 -0.29215 0.18514 
0.17708 0.0036276 -0.0059084 -0.026296 -0.16654 -0.18956 -0.65863 0.048513 
0.029934 0.037168 0.043087 -0.024487 -0.040435 -0.11097 -0.44292 -0.11196 
-0.060494 0.052459 0.093891 0.029605 0.09833 -0.0091966 -0.057534 -0.2083 
-0.062467 0.055089 0.11674 0.062981 0.14108 0.031249 0.12529 -0.12116 
-0.074798 0.04917 0.11888 0.097508 0.11642 0.039634 0.13006 -0.0096899 
0.0024767 0.13582 0.13532 0.1026 0.10869 -0.014622 -0.0067304 0.041114 
0.028783 0.14206 0.089123 0.075476 0.082875 -0.001798 -0.11837 0.026481 
-0.079072 0.12792 0.0014903 0.033715 0.040621 -0.003771 -0.025967 0.019905 
-0.096172 0.071037 -0.041751 -0.012649 -0.048492 0.028454 0.1197 0.0324 
0.0028056 0.025166 -0.059836 -0.017253 -0.087458 -0.02087 0.31289 0.028783 
0.15324 -0.083512 -0.099953 0.00066819 -0.011827 0.0032988 0.46744 0.090603 
0.23512 -0.084005 -0.0031133 0.016123 0.070544 -0.0062372 0.34528 0.12924 
0.20405 0.010369 0.10277 0.072517 0.092904 0.081231 0.088794 0.10754 
0.091096 0.099152 0.12447 0.060022 0.086821 0.15423 -0.076277 0.053774 
-0.072003 0.11214 0.093726 0.064461 0.088958 0.20487 -0.003771 -0.0091966 
-0.26453 -0.01676 0.0052718 -0.012156 0.080902 0.14108 -0.016431 -0.0503 
-0.41431 -0.18726 -0.11376 -0.074962 0.072353 0.10688 -0.058192 -0.097651 
-0.41892 -0.33441 -0.14171 -0.075455 -0.017746 -0.0073881 -0.18298 -0.11442 
-0.32421 -0.27884 -0.072332 -0.068879 -0.070359 -0.10423 -0.44703 -0.15405 
-0.24299 -0.11919 0.051308 0.053281 -0.0082102 -0.1404 -0.50178 -0.16342 
-0.07414 0.044238 0.10836 0.080738 0.047526 -0.026953 0.041607 -0.071016 
0.17659 0.097508 0.13532 0.1368 0.075148 0.028619 0.42798 0.13434 
0.33509 0.11724 0.077943 0.080244 0.020891 0.05772 0.31897 0.21062 
0.30746 0.089452 0.02533 0.029441 0.0056006 0.01415 0.11411 0.19977 
0.23759 0.13154 0.0080668 0.038319 0.034866 0.015465 -0.010183 0.12184 
0.21885 0.19237 0.036346 0.029441 0.032893 -0.032872 -0.00064712 0.074819 
0.24943 0.2121 0.05624 0.03388 0.026974 -0.018075 0.007738 0.069722 
0.18218 0.18087 0.092904 0.041607 0.022042 -0.014787 0.046211 0.067585 
0.044567 0.15883 0.083533 0.051308 -0.003771 0.0046141 0.0060938 -0.022514 
-0.053588 0.14075 0.065447 0.072846 0.011355 0.024015 0.027303 -0.036818 
-0.013965 0.13845 0.072353 0.015465 0.024015 0.08715 0.011026 0.0037921 
0.045553 0.16722 0.090603 0.035524 0.020891 0.10014 0.0227 0.030592 
0.10589 0.12842 0.069886 0.0062583 0.028125 0.085341 -0.0026201 0.053116 
0.14239 0.096521 0.022864 -0.0042642 0.053774 0.028619 -0.0039354 0.13154 
0.15028 0.025659 -0.037969 -0.00097594 0.095042 0.017767 -0.013471 0.1659 
0.098166 0.035853 -0.023829 -0.014129 0.032071 -0.05441 -0.004593 0.12316 
0.061172 0.049664 0.046375 0.048019 -0.0077169 -0.055397 0.017274 0.037004 
-0.037969 0.024344 0.078765 0.0016547 -0.040435 -0.098802 -0.015444 -0.044217 
-0.11343 -0.096172 0.017274 0.025824 -0.02942 -0.016431 -0.014787 -0.076113 
-0.091897 -0.12741 -0.050958 -0.011005 -0.038133 0.1105 -0.030242 -0.038133 
0.027961 -0.04882 0.016945 0.0085601 -0.019061 0.13236 0.012506 0.033715 
0.12168 0.11543 0.11033 0.053116 -0.0068948 0.051965 0.052459 0.082382 
0.19566 0.23594 0.16886 0.034537 -0.020541 0.029112 0.10441 0.10672 
0.18596 0.27836 0.14042 0.037332 -0.059507 -0.012649 0.076792 0.10458 
0.090109 0.21161 0.045224 0.0072447 -0.084334 0.038319 0.042758 0.063145 
0.051472 0.078272 -0.096665 -0.013636 0.0023123 0.14634 -0.022185 0.046046 
0.0059294 -0.034681 -0.14829 0.028619 0.093398 0.2195 0.023193 -0.012978 
-0.1085 -0.070359 -0.045861 0.037661 0.12102 0.11888 0.10113 -0.065097 
-0.16457 -0.014129 0.049499 0.08978 0.14716 0.069558 0.1881 -0.045368 
-0.1381 -0.098967 0.028619 0.056404 0.15522 0.025166 0.1128 0.024015 
0.034537 -0.03912 0.062159 0.050486 0.16163 -0.017088 -0.012485 0.072846 
0.13779 0.039141 0.11609 0.097508 0.30056 0.0052718 -0.12231 0.098001 
0.11839 0.13105 0.083697 0.086163 0.29185 0.051472 -0.10752 0.10984 
0.074983 0.037168 -0.0029489 0.023686 0.011684 -0.09239 -0.008539 0.082382 
0.025166 0.0044497 -0.080881 -0.05589 -0.24957 -0.14402 0.030427 0.032729 
0.033222 0.076299 -0.034023 -0.066577 -0.31287 -0.15766 0.01267 0.01826 
0.011684 0.16771 0.062159 0.0023123 -0.1769 -0.014129 0.052952 -0.00097594 
-0.063289 0.11888 0.055911 0.039634 -0.00031829 0.17824 0.066927 -0.010019 
-0.085978 0.069886 0.075148 0.079587 0.13582 0.25304 -0.01528 -0.034188 
-0.0098543 0.05624 0.043416 0.034537 0.13023 0.14223 -0.028762 -0.05737 
0.066763 0.057884 0.034866 0.045389 0.088958 0.085177 0.049335 -0.003771 
0.1322 0.065283 0.025659 0.048019 0.13993 0.23792 0.14453 0.080573 
0.12233 0.069393 0.015137 0.056076 0.30451 0.40661 0.17791 0.083862 
0.091589 0.04917 0.010533 0.076792 0.26159 0.32654 0.30368 0.054103 
0.092411 0.014808 0.043251 0.027468 0.082382 0.11231 0.22707 0.06479 
0.050157 0.0070803 0.021384 0.028454 -0.068221 -0.20304 0.03536 0.065283 
-0.004593 -0.048492 0.0052718 0.004943 -0.13596 -0.34592 -0.045532 0.056569 
0.018589 -0.073811 -0.011992 0.019247 -0.089759 -0.34312 -0.050629 0.045718 
0.009711 -0.066248 -0.016102 0.034373 -0.0040998 -0.23116 -0.045696 0.03799 
-0.040106 -0.049149 -0.011663 0.010369 -0.027282 -0.15355 0.009711 -0.011005 
-0.033201 -0.035996 -0.025474 0.018918 -0.075127 -0.069372 0.068407 -0.0062372 
0.057227 0.01563 -0.00015387 -0.014622 -0.073647 0.0080668 0.064296 -0.0011404 
-0.077264 0.02681 0.020233 0.0088889 -0.016102 0.12595 -0.0062372 -0.044381 
-0.29511 -0.004593 0.047362 0.023028 0.035688 0.17084 -0.18676 -0.13185 
-0.17706 0.067913 0.084519 0.024673 0.11707 0.16738 -0.2448 -0.085813 
0.054267 0.005765 -0.00031829 0.043251 0.18267 0.29004 -0.068057 0.01267 
0.23726 -0.027118 -0.048492 0.036346 0.22674 0.49506 0.19961 0.10359 
0.34988 0.10277 0.042923 0.077614 0.21358 0.45577 0.26932 0.15752 
0.27146 0.10228 0.02681 0.077121 0.1784 0.20799 0.29579 0.13467 
0.074326 -0.018897 -0.0014692 0.073668 0.13894 -0.068057 0.15719 0.088465 
0.047033 0.12266 0.069558 0.13039 0.016288 -0.21784 -0.0029489 0.076299 
-0.011498 0.1853 0.12283 0.053938 -0.20567 -0.35545 -0.059343 0.013657 
-0.12593 0.18333 0.098659 0.013821 -0.33227 -0.37814 0.24877 -0.018733 
-0.1769 0.14108 0.10622 -0.010512 -0.26091 -0.30974 0.33295 -0.041751 
-0.12034 0.050979 0.058871 -0.024487 -0.090253 -0.17657 0.013328 -0.039613 
-0.037311 -0.018897 0.020727 -0.025309 0.052952 -0.15125 -0.45015 -0.068879 
-0.057534 -0.07825 -0.011663 -0.068057 0.15867 -0.13711 -0.69579 -0.093705 
-0.11985 -0.1769 -0.10998 -0.082196 0.090438 -0.11787 -0.71996 -0.15996 
-0.11722 -0.29281 -0.15388 -0.066741 0.032236 0.1373 -0.21274 -0.18611 
-0.067235 -0.27144 -0.12133 -0.026953 0.13516 0.50049 0.72179 -0.043395 
0.092904 -0.15569 -0.023336 0.1197 0.27179 0.7425 1.0725 0.17281 
0.12464 0.011684 0.092247 0.14026 0.4385 0.70189 0.84313 0.293 
0.10787 0.085341 0.067913 0.15308 0.49177 0.55935 0.22246 0.2736 
0.10803 0.20586 0.085177 0.067256 0.24252 0.28971 -0.33835 0.15292 
0.19649 0.28773 0.041607 0.013986 -0.088444 -0.021692 -0.54749 0.066598 
0.24893 0.33081 0.07301 0.012177 -0.2448 -0.30744 -0.47728 -0.0083746 
0.19024 0.2006 0.081395 0.020069 -0.28689 -0.44818 -0.35742 -0.013143 
0.14141 0.14881 0.10902 0.06183 -0.28393 -0.54371 -0.15552 0.040785 
0.18843 0.20865 0.16607 0.071366 -0.1889 -0.52036 0.029769 0.12595 
0.14289 0.22197 0.14963 0.089123 -0.055726 -0.25993 0.13976 0.068242 
0.024837 0.1442 0.092247 0.048019 0.010862 0.036839 0.14256 -0.045039 
-0.095678 -0.0024557 0.033715 -0.016102 0.017767 0.14157 0.11905 -0.10719 
-0.16654 -0.16407 -0.060823 -0.015116 0.014972 0.12102 0.047362 -0.084991 
-0.2185 -0.29955 -0.16457 -0.079072 0.016945 0.049006 0.01004 -0.079895 
-0.23987 -0.25713 -0.17624 -0.060987 0.063474 -0.0067304 -0.027775 -0.066577 
-0.16259 -0.14171 -0.066084 -0.023172 0.13499 0.018754 -0.021528 -0.021199 
-0.11409 -0.0049219 0.053774 0.040128 0.10474 0.023522 0.024673 0.031907 
-0.089266 0.063145 0.13532 0.079094 0.026317 0.051801 0.043251 0.056076 
0.027468 0.13105 0.14848 0.053281 0.01711 0.075312 0.071531 0.080244 
0.11165 0.083862 0.074326 0.066927 0.052459 0.095042 0.039963 0.075805 
0.17018 0.079258 0.0065871 0.023851 0.077449 0.050321 0.005765 0.063474 
0.23989 0.069886 0.013986 0.050979 0.062159 -0.03616 -0.0034422 0.044567 
0.26488 0.08978 0.0032988 0.036346 0.033715 -0.15322 0.096357 0.079258 
0.16903 0.047691 -0.0031133 0.0021479 0.015794 -0.1815 0.031907 0.089616 
0.02829 0.070544 0.039634 0.035853 -0.024816 -0.15848 -0.015116 0.063474 
-0.11393 0.087643 0.089616 0.021713 -0.02794 0.04506 -0.034188 0.027303 
-0.15092 0.020069 0.045224 0.033058 -0.044381 0.22246 -0.17904 -0.0047575 
-0.14336 -0.080388 0.0079024 -0.0011404 -0.056383 0.25896 -0.25615 -0.044874 
-0.18167 -0.11113 -0.0055795 -0.0047575 -0.047669 0.15341 0.098659 -0.042079 
-0.058521 0.00050378 0.058542 0.044402 0.0064227 0.070544 0.38655 0.024673 
0.11773 0.11362 0.11083 0.038483 0.076299 0.047855 0.28527 0.11066 
0.22016 0.22016 0.15324 0.074983 0.10918 0.060844 0.24976 0.19829 
0.23381 0.24926 0.15522 0.057555 0.049335 0.009711 0.25008 0.13056 
0.2657 0.24417 0.057555 0.018918 0.012999 0.15653 0.061008 0.03536 
0.28675 0.0324 -0.13464 -0.050629 0.082546 0.3073 -0.11327 0.0093821 
0.22674 -0.087622 -0.24168 -0.098638 0.11592 0.1807 -0.098473 -0.038956 
0.17001 0.036675 -0.085485 0.00066819 0.038319 -0.15569 -0.083018 -0.042408 
0.18185 0.26916 0.18991 0.13006 -0.060987 -0.41924 -0.03353 0.048348 
0.15045 0.35564 0.31437 0.19944 -0.085978 -0.47695 -0.04323 0.14979 
0.044238 0.28971 0.26636 0.1493 -0.059343 -0.3012 -0.037969 0.12201 
-0.0083746 0.29119 0.13499 0.038319 -0.035338 -0.11426 -0.032872 0.058542 
0.010862 0.21145 0.02122 -0.030077 0.082875 0.02533 0.027468 0.0013258 
0.10441 0.10425 -0.11376 -0.10308 0.078436 0.077285 0.11083 -0.0059084 
0.24367 0.017274 -0.094692 -0.04471 -0.01939 0.078272 0.15587 0.07038 
0.31914 0.086657 0.029769 0.062981 -0.066084 0.079916 0.12118 0.1179 
0.26505 0.11428 0.13039 0.14831 -0.038956 0.10984 0.082546 0.08304 
0.045553 0.095206 0.16377 0.15111 0.0046141 0.12431 0.071037 0.0074092 
-0.16046 -0.051615 0.13187 0.085012 0.025001 0.12151 0.094055 -0.041422 
-0.43947 -0.19137 0.027632 0.015137 -0.0047575 0.072353 0.07597 -0.11278 
-0.6001 -0.33326 -0.026296 -0.047998 -0.015444 0.030756 0.037004 -0.19054 
-0.62427 -0.40379 -0.16309 -0.1233 -0.036654 0.015137 -0.020541 -0.24628 
-0.44391 -0.36038 -0.17986 -0.079566 -0.015773 0.067585 -0.11311 -0.17871 
-0.10637 -0.090581 -0.092554 -0.049971 0.032893 0.049006 -0.064111 -0.027775 
0.20158 0.10047 -0.019061 0.0011614 0.067913 0.058049 0.053445 0.10359 
0.2463 0.14486 -0.0036066 0.0095465 0.08567 0.035853 0.12792 0.14749 
0.22476 0.1687 0.027468 0.041114 0.071037 0.044567 0.066598 0.14782 
0.23578 0.2223 0.066598 0.08008 0.074819 0.028454 0.038977 0.12924 
0.21967 0.2736 0.1345 0.084848 0.069722 0.038648 0.011848 0.094384 
0.13516 0.16738 0.17347 0.12546 0.070215 0.038648 0.039141 0.061337 
0.061008 0.043745 0.11313 0.083533 0.037168 0.019083 0.029605 0.068736 
-0.03057 -0.043395 0.083533 0.081395 0.041278 -0.021034 0.071695 0.083862 
-0.05178 -0.05441 0.076463 0.093562 0.065283 -0.017582 0.049828 0.067585 
-0.0078813 -0.10012 0.042429 0.048841 0.050814 -0.045368 0.021056 0.02533 
0.064132 -0.10225 -0.022021 0.027303 0.01004 -0.03501 -0.068057 -0.029584 
0.062159 -0.10406 -0.07414 -0.041257 -0.023336 -0.024158 -0.11903 -0.086471 
-0.014787 -0.023172 -0.049314 -0.053095 -0.023501 0.020069 -0.042901 -0.086964 
-0.043888 0.038977 -0.020212 -0.023007 -0.01528 0.02533 0.057227 -0.070687 
0.037332 0.074819 -0.0075525 0.016123 0.020069 0.028783 0.13302 0.014315 
0.0786 0.08156 0.032071 0.067913 0.049499 0.069393 0.14141 0.077449 
0.020562 0.063803 0.082875 0.017274 0.03947 0.084684 0.0067515 0.082053 
-0.094856 0.050321 0.095206 0.040785 -0.018075 0.017603 -0.28788 0.027468 
-0.17279 -0.080881 0.025988 -0.0021268 -0.0406 -0.014129 -0.072496 -0.036818 
-0.25335 -0.18101 -0.084005 -0.045532 -0.077428 -0.054246 0.27655 -0.074962 
-0.22376 -0.22622 -0.12462 -0.044217 -0.085813 -0.07562 0.2052 -0.034188 
-0.090253 -0.091732 -0.053917 -0.017911 -0.0096899 -0.031886 -0.084498 -0.0049219 
-0.0078813 -0.031392 -0.00031829 0.041772 0.074819 0.05624 -0.14961 0.082217 
-0.037969 0.011848 -0.015773 0.037004 0.10359 0.062981 -0.17032 0.080244 
-0.023007 0.028454 -0.015773 0.020398 0.089287 0.060186 -0.28163 -0.0064016 
0.084684 0.13187 0.057884 0.067585 0.17593 0.1003 -0.11459 -0.010512 
0.21934 0.1733 0.14354 0.071202 0.20734 0.17363 0.41433 0.045553 
0.35712 0.24811 0.11559 0.069558 0.13171 0.11592 0.51808 0.16508 
0.32144 0.1151 0.060679 0.040128 0.039141 0.016123 0.14585 0.20454 
0.15176 0.041443 0.069229 0.058542 -0.024158 -0.046683 -0.09387 0.13121 
-0.0034422 -0.013636 0.056898 0.048184 -0.06296 -0.065919 -0.14023 0.051143 
-0.040928 -0.069865 0.013164 0.023522 -0.078908 -0.03616 -0.069701 0.010204 
-0.021856 -0.072989 -0.08532 -0.017582 -0.046354 0.0024767 -0.017417 -0.022843 
-0.012978 -0.036489 -0.10735 -0.069536 -0.011334 0.0023123 0.10063 -0.014787 
-0.01939 0.10343 0.009711 0.0041209 0.019576 0.051965 0.22361 -0.011992 
0.031414 0.17873 0.09274 0.019576 0.041936 0.06183 0.25452 0.04358 
0.1008 0.2172 0.12365 0.053609 0.035195 0.070873 0.10819 0.081067 
0.20323 0.20832 0.089287 0.039305 -0.0013048 -0.02087 -0.098802 0.064954 
0.29135 0.18383 0.05213 -0.0040998 -0.017088 -0.015938 -0.4467 0.022042 
0.21786 0.15407 0.040292 0.044073 0.034044 0.030592 -0.45163 0.028783 
0.15259 0.19846 0.072681 0.060679 0.0054362 0.09126 -0.06148 0.10129 
0.19007 0.22986 0.091753 0.078929 0.012177 0.12414 0.33788 0.15801 
0.22575 0.26373 0.10195 0.096686 0.027303 0.10754 0.37931 0.14009 
0.24893 0.26521 0.10408 0.075476 0.029769 0.073832 0.23183 0.10293 
0.21161 0.19649 0.048677 0.061666 0.088465 0.059528 0.096521 0.079258 
0.21737 0.15176 -0.02794 0.010862 0.15423 0.076463 0.030592 0.06479 
0.22131 0.11362 -0.03912 0.0059294 0.16952 0.078929 0.010204 0.037168 
0.14535 0.061666 0.0087245 0.016945 0.21293 0.07597 0.0080668 0.0019835 
-0.091732 -0.064768 0.022371 0.031742 0.26192 0.087479 0.0062583 -0.050793 
-0.2157 -0.047669 0.048841 0.065118 0.23973 0.065118 -0.03616 -0.049642 
-0.29659 -0.063453 0.085341 0.030592 0.085506 0.0088889 -0.037147 -0.066248 
-0.30087 -0.048327 0.0689 0.033551 -0.070852 -0.030406 -0.047998 -0.048327 
-0.20074 -0.051944 0.053774 0.018589 -0.12889 -0.035503 0.0044497 -0.014951 
-0.098802 -0.062302 -0.0098543 -0.0027845 -0.10538 -0.0077169 0.010369 0.030592 
-0.029748 -0.11557 -0.051944 0.039141 -0.05178 0.032236 0.077614 0.069886 
0.10967 -0.014458 -0.0077169 0.028125 -0.0050863 0.035195 0.064625 0.11642 
0.29448 0.14009 0.042429 0.045389 -0.0011404 0.005765 0.062652 0.12447 
0.42502 0.22707 0.086492 0.055911 -0.0055795 -0.045368 0.037332 0.12644 
0.38655 0.26209 0.075312 0.037661 0.018918 -0.13333 0.029276 0.077778 
0.31667 0.24236 0.066927 0.060186 -0.0087034 -0.24431 0.0324 0.058542 
0.14815 0.19632 0.08567 0.027796 -0.038298 -0.31879 0.033551 0.033715 
-0.077922 0.10984 0.085506 0.055254 -0.019061 -0.19663 -0.034516 -0.010183 
-0.25828 0.027468 0.022535 -0.0014692 -0.017088 0.032729 -0.11853 -0.064604 
-0.29511 -0.16013 -0.10637 -0.066741 -0.016595 0.21605 -0.16966 -0.096007 
-0.29018 -0.21998 -0.13974 -0.073976 -0.019226 0.31815 -0.18348 -0.10554 
-0.19893 -0.21652 -0.10291 -0.036654 0.059528 0.37224 0.13072 -0.082361 
-0.12379 -0.10225 0.041607 0.089287 0.15505 0.38885 0.51265 -0.036654 
-0.016595 -0.023007 0.10639 0.083697 0.19435 0.42584 0.463 0.066269 
0.08863 0.14321 0.18481 0.13845 0.21523 0.44459 0.15818 0.09422 
0.18547 0.17166 0.13105 0.084355 0.10507 0.22345 -0.1108 0.11526 
0.16262 0.20306 0.068242 0.036839 0.0059294 -0.067399 -0.20551 0.076956 
0.071531 0.069229 -0.025967 0.018589 -0.084169 -0.37239 -0.11623 0.055089 
1.0539e-005 -0.12873 -0.10669 -0.062138 -0.12116 -0.46035 -0.03912 0.023357 
0.0041209 -0.13185 -0.091239 -0.056712 -0.067399 -0.37485 0.0689 0.025988 
-0.008539 0.015959 0.046704 0.012506 -0.027447 -0.18183 0.086328 -0.0068948 
-0.020212 0.10754 0.12644 0.066927 0.046868 -0.052602 0.036675 -0.039613 
-0.042901 0.057555 0.090603 0.087643 0.091425 0.068407 -0.071509 -0.020541 
-0.030406 0.073339 0.023851 0.023028 0.14749 0.11214 -0.16325 -0.014787 
0.0036276 0.084848 0.031249 0.036346 0.094877 0.10918 -0.11031 0.047362 
0.018918 0.036839 0.01826 0.040292 0.017767 0.067913 0.0042853 0.15012 
-0.063618 -0.054246 0.012506 0.028783 -0.027118 0.080409 0.055747 0.10474 
-0.16259 -0.06855 0.012999 0.021056 -0.053753 0.026481 -0.087293 -0.031721 
-0.090581 -0.12577 0.0079024 -0.015444 -0.040271 -0.01117 -0.06444 -0.11837 
0.036346 -0.16588 -0.04471 0.0011614 -0.039778 -0.082854 0.41598 -0.10669 
0.10343 -0.13037 -0.038133 -0.0059084 -0.045203 -0.071016 0.63268 -0.019884 
0.086657 -0.010512 -0.029748 0.00066819 -0.02942 -0.0082102 0.24466 0.040292 
0.024508 0.080573 0.027468 0.0087245 0.02829 0.17182 -0.13892 0.044402 
-0.012649 0.13779 0.048513 0.031742 0.085999 0.2856 -0.30728 0.038483 
-0.0047575 0.10885 0.075805 0.0786 0.12036 0.31486 -0.26009 0.021384 
-0.065755 0.0090533 0.065118 0.032071 0.1026 0.20569 -0.20337 0.0069159 
-0.082525 0.012013 0.05624 0.043251 0.085177 0.041443 -0.086142 0.011191 
-0.061645 0.044896 0.045718 -0.0004827 0.0080668 -0.16177 0.1151 0.039799 
0.0026412 0.068736 0.049664 0.01004 -0.043066 -0.23181 0.25403 0.053116 
0.064296 0.014972 1.0539e-005 0.012835 -0.070359 -0.19202 0.18136 0.045882 
0.17939 0.10145 0.0034632 0.0085601 -0.036489 -0.11541 0.066269 0.071366 
0.25255 0.17314 0.050814 0.046868 0.016288 -0.045861 -0.0087034 0.11066 
0.23331 0.2075 0.062652 0.030263 0.062159 0.042594 -0.025802 0.13203 
0.085999 0.10441 0.012013 0.025001 0.032729 0.071202 -0.0036066 0.076299 
-0.066577 0.016945 -0.014293 -0.0077169 -0.024816 0.14568 0.0062583 0.0067515 
-0.18643 -0.10538 -0.019555 -0.023994 -0.034188 0.15999 0.020891 -0.023007 
-0.14023 -0.19219 0.0021479 0.025824 0.0067515 0.16048 0.01152 -0.015773 
-0.080881 -0.15207 0.040128 0.046868 0.085341 0.060186 0.045553 -0.001798 
-0.061973 -0.051615 0.055089 0.059693 0.15719 0.0026412 0.042594 -0.018404 
0.013492 0.064132 0.037168 0.058542 0.20651 -0.069865 0.076956 -0.018568 
0.2006 0.1373 0.048677 0.041443 0.15094 -0.039778 0.060679 0.027632 
0.26916 0.19024 0.05476 0.066105 0.031907 -0.017253 0.037826 0.052294 
0.14552 0.17166 0.049664 0.041278 -0.0029489 0.065447 -0.06444 0.0075736 
0.025659 0.15407 0.036182 0.025988 -0.050629 -0.03057 -0.075949 0.01563 
0.041278 0.097344 -0.0014692 0.0065871 -0.077757 -0.050629 0.043416 0.05213 
0.1396 -0.021856 0.0013258 0.013164 -0.070852 -0.12757 0.080244 0.078929 
0.24384 -0.10472 0.032236 0.042923 -0.028597 -0.042244 0.13762 0.11888 
0.14075 0.0051074 0.034702 0.0072447 0.0074092 -0.0057439 -0.033201 0.043087 
-0.046354 0.041607 0.024673 -0.0042642 0.00297 0.03651 -0.30547 -0.065426 
-0.16539 0.032564 -0.0083746 -0.036325 -0.014129 0.025166 -0.2716 -0.067564 
-0.10127 0.017274 -0.057534 -0.042737 0.0047785 0.053609 0.1858 0.011848 
-0.014951 0.044402 0.0034632 0.020398 0.021056 0.010369 0.48306 0.067913 
-0.0047575 0.073504 0.053609 0.034044 -0.044052 -0.030077 0.48947 0.033715 
-0.0072237 0.067913 0.094055 0.060186 -0.028433 -0.049314 0.07449 0.0056006 
0.020398 0.064461 0.1225 0.084026 0.050979 -0.01676 -0.47942 0.037168 
0.13253 0.15045 0.12003 0.11 0.10441 -0.070194 -0.52233 0.147 
0.26669 0.28593 0.16886 0.15587 0.070708 -0.034516 0.14946 0.20175 
0.32012 0.29201 0.15292 0.074326 0.0085601 0.016288 0.40184 0.17577 
0.15538 0.0018191 -0.030406 -0.0036066 -0.050464 0.079916 0.12908 0.063145 
0.023357 -0.23461 -0.18315 -0.12692 -0.040106 0.0095465 -0.19137 -0.052931 
0.0080668 -0.10686 -0.15355 -0.12083 0.033222 -0.006566 -0.17558 -0.093376 
-0.2032 -0.10127 -0.14319 -0.089431 0.027632 0.038319 -0.064768 -0.16227 
-0.49882 -0.18693 -0.1695 -0.095514 -0.016102 0.1299 -0.0011404 -0.20025 
-0.58958 -0.28377 -0.083018 -0.0059084 0.041278 0.14239 0.03651 -0.16884 
-0.33358 -0.11541 0.11592 0.14091 0.18235 0.077778 0.063639 -0.0088678 
0.065612 0.10787 0.26455 0.23019 0.21769 -0.066248 0.12727 0.11198 
0.29004 0.21046 0.25058 0.18267 0.1077 -0.097651 0.11444 0.15341 
0.32522 0.22707 0.16673 0.10178 -0.038133 -0.045368 0.090767 0.14371 
0.31108 0.21885 0.097179 0.032729 -0.14796 0.043909 0.042923 0.12447 
0.29661 0.20668 0.055747 -0.020048 -0.19285 0.03388 -0.027282 0.096028 
0.20684 0.16952 0.039634 -0.027447 -0.16062 -0.12938 -0.059836 0.068736 
0.13483 0.12957 0.01004 -0.055726 -0.084498 -0.24924 -0.013636 0.0039565 
0.10178 0.046375 -0.014293 -0.048492 0.00297 -0.014129 0.052623 0.01152 
0.099974 0.039305 -0.029748 0.0098754 0.11526 0.46547 0.13779 0.076627 
0.072681 0.0421 0.024508 0.041443 0.21506 0.70321 0.16031 0.10754 
0.03651 0.1202 0.071859 0.095206 0.2708 0.50821 0.14667 0.026481 
-0.09091 0.064954 0.039141 0.067585 0.26735 0.18629 0.052952 -0.037805 
-0.19794 0.00050378 0.048348 0.058542 0.21457 -0.17147 0.0060938 -0.051944 
-0.19877 -0.050629 0.021878 0.047033 0.14354 -0.29084 -0.023994 -0.010183 
-0.040435 0.005765 0.01563 0.016123 0.070215 -0.26535 -0.038298 0.020891 
0.11214 0.058542 0.059528 0.044402 -0.022021 -0.14517 -0.0073881 0.026481 
0.20767 0.0786 0.039305 0.0087245 -0.12544 -0.071181 0.00033937 0.042429 
0.13828 0.086985 0.022864 0.043251 -0.15026 -0.041257 0.0324 0.078107 
0.086328 0.14387 0.034866 0.051965 -0.092061 -0.10505 0.051801 0.069558 
0.011848 0.18958 0.092904 0.062488 -0.03616 -0.1136 0.046046 0.011848 
0.028125 0.18744 0.11987 0.11724 -0.0049219 -0.13744 0.00050378 0.023357 
0.16196 0.096193 0.021384 0.01152 -0.0868 -0.036654 0.016452 0.052952 
0.26077 -0.027118 -0.10521 -0.056712 -0.15898 0.079587 -0.027775 0.055911 
0.30352 0.0082312 -0.10587 -0.089595 -0.20189 0.13631 0.021549 0.048677 
0.1807 0.13631 0.031249 -0.017417 -0.16276 0.01152 0.074654 0.017603 
-0.10998 0.17659 0.13894 0.077121 -0.10373 -0.16999 0.15735 -0.019226 
-0.3668 -0.023665 0.075476 0.032564 -0.0503 -0.15602 0.14667 -0.061973 
-0.45377 -0.2305 -0.063453 0.019083 -0.029255 -0.02646 0.12694 -0.065919 
-0.28574 -0.25664 -0.085978 -0.037805 -0.001798 0.18333 -0.011334 -0.025474 
-0.081868 -0.088773 0.016288 0.038812 0.1225 0.40167 -0.11311 0.0088889 
0.06742 0.15522 0.15061 0.11658 0.29135 0.38014 0.039799 0.093069 
0.15851 0.22263 0.1373 0.12266 0.46004 0.28461 0.17906 0.15538 
0.26389 0.23282 0.067256 0.10819 0.66983 0.27376 0.083533 0.16031 
0.28626 0.15735 0.034209 0.024673 0.69433 0.5651 0.032071 0.11148 
0.20125 0.10639 0.029934 0.014643 0.61656 1.0411 -0.066906 -0.0087034 
0.13615 0.032893 0.031578 0.05065 0.48503 1.0066 -0.3497 -0.1478 
0.12858 0.052294 0.049664 0.053774 0.077449 0.34824 -0.094034 -0.15865 
0.10589 0.044238 0.056569 0.072353 -0.37436 -0.37337 0.40726 -0.03205 
0.071366 0.10836 0.078272 0.026317 -0.53121 -0.81022 0.70683 0.15735 
0.037168 0.073997 0.055254 0.01563 -0.45032 -0.82748 0.54521 0.27064 
0.069229 0.10902 0.030427 -0.011992 -0.30942 -0.63348 0.14091 0.23397 
0.067585 0.086492 0.014315 -0.018733 -0.22359 -0.37863 -0.29199 0.092576 
0.031085 0.055911 -0.060165 -0.017582 -0.14862 -0.17147 -0.46791 0.0064227 
-0.0034422 -0.037476 -0.12593 -0.061151 -0.071016 0.0062583 -0.44029 0.014315 
-0.064768 -0.10028 -0.08384 -0.035174 0.0062583 0.11148 -0.21126 -0.06296 
-0.02498 -0.027775 0.011684 0.0093821 0.08156 0.19879 0.01826 -0.074633 
0.013657 0.081889 0.14256 0.073668 0.10704 0.21572 0.15966 -0.026953 
0.09981 0.15587 0.16278 0.12776 0.16229 0.22082 0.12694 -0.0047575 
0.073504 0.11313 0.078436 0.072024 0.15785 0.18399 0.07301 -0.01117 
-0.034516 0.011355 -0.039942 0.024837 0.10737 0.16311 0.032893 -0.054739 
-0.14089 -0.016924 0.00066819 -0.010348 0.073668 0.13549 0.022042 -0.016924 
-0.090253 0.015959 0.054267 0.017767 0.094713 0.11214 0.04917 0.044731 
0.049664 0.0018191 0.069558 0.044073 0.096357 0.09126 0.060844 0.093398 
0.077121 -0.0011404 0.012999 0.029441 0.11165 0.084519 0.077121 0.093069 
-0.025145 -0.066906 -0.030242 0.029934 0.10145 0.041443 0.097015 0.094877 
0.022535 -0.025309 -0.028597 0.0052718 0.08715 0.057555 0.078929 0.074983 
0.11937 -0.0072237 0.00050378 0.009711 0.050979 -0.022021 -0.0040998 0.075148 
0.11592 0.048513 0.064461 0.030592 0.0085601 -0.055397 -0.019719 0.060515 
0.012013 0.019247 0.08978 0.050321 -0.03912 -0.087129 -0.0771 -0.010019 
-0.20814 -0.084827 0.021549 0.032071 -0.080717 -0.0036066 -0.14599 -0.084169 
-0.41398 -0.14977 -0.039449 -0.052602 -0.11097 -0.02087 -0.092226 -0.1552 
-0.41661 -0.16111 -0.078579 -0.070359 -0.087622 -0.08121 0.17478 -0.16555 
-0.19581 -0.058685 -0.014458 -0.048985 -0.044381 -0.18956 0.10951 -0.045039 
0.081724 0.063803 0.052294 0.021549 -0.021856 -0.20699 -0.060823 0.068407 
0.24844 0.13697 0.089945 0.086821 -0.0014692 -0.10406 -0.10883 0.13861 
0.25485 0.086985 0.08715 0.039305 -0.0080457 0.056733 -0.047176 0.13302 
0.183 0.083368 0.061501 0.055418 0.043909 0.12727 0.044238 0.11822 
0.19484 0.11674 0.075641 0.055582 0.11921 0.1322 0.057062 0.094877 
0.19057 0.15637 0.074161 0.05065 0.11083 0.035853 0.065776 0.088958 
0.17429 0.1031 0.06183 0.062323 -0.026131 -0.11952 0.048184 0.054103 
0.11378 0.053938 0.0064227 0.029769 -0.15405 -0.25812 0.013164 0.029112 
0.062323 0.046375 -0.0064016 0.039305 -0.17262 -0.24299 -0.060658 0.015794 
0.014972 0.048841 -0.0052507 -0.0067304 -0.13629 -0.20501 -0.10308 0.0036276 
0.00050378 0.064132 0.02681 0.0079024 -0.08384 -0.13053 -0.062302 -0.0013048 
-0.0070593 0.064132 0.031578 0.0051074 -0.07003 -0.10423 0.028619 0.0046141 
-0.03057 0.10162 0.078272 0.019247 -0.070359 -0.081045 0.046704 0.0051074 
-0.028926 0.081889 0.11231 0.05772 -0.025802 -0.051615 0.058706 0.00083261 
0.082711 0.12266 0.082546 0.041114 0.082382 0.026974 0.041607 0.042429 
0.1659 0.067913 -0.0049219 0.039305 0.14305 0.055747 0.042594 0.080573 
0.12513 -0.0022913 -0.072825 0.01415 0.10918 0.064625 0.043745 0.06479 
0.068571 -0.0034422 0.017438 0.026974 0.046868 -0.0082102 0.030098 0.056569 
-0.013965 0.13483 0.15752 0.10425 -0.017253 -0.1233 0.013328 0.022371 
-0.062302 0.037168 0.06479 0.013821 -0.093376 -0.23165 -0.015773 -0.031721 
-0.080717 -0.046847 -0.06296 -0.062631 -0.1455 -0.21307 -0.010348 -0.027775 
-0.22984 -0.20189 -0.18019 -0.1016 -0.22491 -0.18265 -0.030406 -0.062302 
-0.27012 -0.22754 -0.1455 -0.060329 -0.15355 -0.12823 -0.019555 -0.072989 
-0.12511 -0.079566 0.039634 0.055911 -0.035996 -0.10061 -0.029748 -0.032379 
-0.02498 0.1174 0.17807 0.10441 0.10178 -0.053588 -0.004593 0.0064227 
-0.019884 0.13023 0.1659 0.1322 0.18383 0.048841 0.015794 0.0019835 
0.040785 0.020562 0.048184 0.052294 0.23529 0.38556 0.080902 0.041772 
0.16574 0.00050378 0.004943 0.021549 0.23068 0.71011 0.041278 0.064132 
0.16673 0.052952 0.061501 0.055254 0.25551 0.80794 0.07301 0.06742 
0.082875 0.12168 0.11757 0.089287 0.30977 0.59404 0.071202 0.053938 
0.032893 0.14338 0.12316 0.12151 0.29563 0.19484 0.16097 0.055911 
0.029605 0.090767 0.02829 0.0024767 0.098001 -0.1598 0.29612 0.049664 
0.08567 0.036017 -0.070194 -0.057205 -0.13201 -0.30679 0.3295 0.061172 
0.11987 -0.012485 -0.073318 -0.051287 -0.20468 -0.36729 0.0041209 0.083204 
0.075148 -0.040764 -0.052931 -0.03616 -0.17509 -0.34033 -0.15964 0.082217 
0.077285 0.043745 0.0032988 0.014315 -0.094527 -0.23214 -0.19909 0.073175 
0.10063 0.073832 0.05065 0.019411 0.0227 -0.068879 -0.18331 0.095042 
0.12365 0.097344 0.058377 0.06035 0.11757 0.080738 -0.0011404 0.10195 
0.14256 0.11855 0.045224 0.086985 0.15472 0.25748 0.16804 0.086163 
0.11559 0.12365 0.051472 0.074161 0.22 0.42666 0.24186 -0.0049219 
0.0042853 0.089452 -0.00097594 0.082217 0.24959 0.47566 0.34364 -0.021034 
-0.12988 -0.025309 -0.010676 0.0074092 0.14502 0.29727 0.28165 -0.074798 
-0.19449 -0.045368 -0.018568 0.012342 0.053774 0.09833 0.026317 -0.10127 
-0.033037 -0.034352 0.033058 0.025166 0.029112 0.00083261 -0.17854 -0.047669 
0.077778 0.037004 0.072681 0.034209 0.007738 -0.0029489 -0.27851 0.040621 
0.053774 0.066434 0.08567 0.066105 0.019905 -0.0054151 -0.28031 0.02122 
-0.036983 0.086328 0.078436 0.027961 0.00066819 0.031085 -0.17624 -0.0034422 
-0.045039 0.061666 0.051472 0.047362 -0.0022913 0.051801 0.12612 0.015959 
0.016288 0.040128 -0.0039354 0.010697 0.055254 0.093726 0.2371 0.0592 
0.087808 0.013821 -0.011334 0.031249 0.17445 0.15703 0.26981 0.080244 
0.12562 0.089616 0.0021479 0.061666 0.18185 0.16541 0.32966 0.094055 
0.10113 0.10441 0.040785 0.038319 0.11165 0.12184 0.27014 0.063639 
0.10524 0.11526 0.03388 0.063145 0.0072447 0.094713 0.11198 0.079422 
0.1659 0.12595 0.038155 0.026481 -0.03616 0.060515 -0.044217 0.096193 
0.22937 0.10704 0.027139 0.0023123 -0.073647 0.033715 -0.11327 0.091589 
0.26866 0.10573 0.0047785 -0.02235 -0.055068 0.019905 -0.1284 0.074983 
0.19501 0.12316 0.025495 0.020398 -0.0047575 0.06331 -0.066084 0.046375 
0.025166 0.096521 0.060022 0.072846 0.068078 0.065612 -0.0075525 0.013657 
-0.10472 0.058542 0.085506 0.064954 0.087972 0.081395 0.04506 -0.013965 
-0.12346 0.054596 0.041607 0.053445 0.065283 0.062981 0.019083 -0.0072237 
-0.14106 -0.04619 -0.031557 -0.0075525 -0.0075525 0.01974 0.041936 -0.014293 
-0.16227 -0.063124 -0.028926 -0.024652 0.039963 -0.031557 0.0016547 -0.017911 
-0.21208 -0.088773 -0.0019624 0.01004 0.12381 -0.024816 0.0039565 -0.042244 
-0.20929 -0.05589 0.00033937 -0.001798 0.097344 -0.0091966 -0.017582 -0.063289 
-0.097487 0.0016547 0.032236 0.023357 0.0072447 -0.042737 -0.0064016 -0.045368 
0.081067 0.16064 0.11559 0.044731 -0.0406 -0.049478 0.026974 0.034373 
0.26965 0.29201 0.1784 0.079587 -0.037311 -0.021199 0.062817 0.12069 
0.34955 0.29711 0.17215 0.078765 -0.049807 -0.0091966 0.05065 0.11592 
0.31799 0.19254 0.03536 -0.0077169 -0.097158 -0.039942 0.030427 0.10047 
0.24811 0.088136 -0.081868 -0.041422 -0.15092 -0.062138 0.005765 0.079094 
0.1396 -0.011827 -0.13695 -0.069372 -0.12478 -0.088773 -0.024652 0.031085 
0.057062 -0.069043 -0.10817 -0.018897 -0.032215 -0.069536 -0.018239 0.0019835 
-0.057863 -0.080881 -0.038462 0.0227 0.029605 -0.049807 -0.011005 -0.032379 
-0.1085 -0.056712 0.0039565 0.070708 0.098988 0.016123 0.049828 0.014808 
-0.018568 0.11724 0.1368 0.14338 0.11921 0.022206 0.045718 0.06742 
0.06035 0.21605 0.23298 0.159 0.15883 0.029605 0.088958 0.09274 
0.058706 0.22772 0.2121 0.11428 0.11839 -0.021363 0.044402 0.079094 
-0.031064 0.097344 0.099974 0.049499 0.052294 -0.052109 0.028125 0.044238 
0.010862 0.063639 0.0080668 -0.024816 -0.022514 -0.10571 -0.023007 0.021384 
0.12464 0.056733 0.011684 0.012835 -0.063124 -0.063289 -0.0049219 0.046704 
0.16163 0.068407 0.017767 -0.0052507 -0.097651 -0.088444 -0.054575 0.029605 
-0.011663 0.040621 0.03536 0.016288 -0.11031 -0.15322 -0.053917 -0.056055 
-0.22162 -0.040271 -0.025967 -0.044546 -0.11541 -0.091239 -0.055726 -0.10258 
-0.25615 -0.17213 -0.10587 -0.075291 -0.052109 0.095371 -0.045532 -0.11048 
-0.1917 -0.2813 -0.15503 -0.065591 -0.015116 0.19944 0.016452 -0.05737 
-0.054246 -0.1815 -0.055561 0.019247 0.054596 0.21687 0.22904 0.031414 
0.036839 -0.047176 0.062488 0.085012 0.099481 0.14716 0.27425 0.076463 
0.032729 0.037004 0.1128 0.06331 0.12562 0.05213 0.147 0.08419 
0.048348 0.10014 0.11148 0.097672 0.10425 -0.10028 0.057884 0.051472 
0.068078 0.13187 0.10162 0.086821 0.062323 -0.15437 0.041607 0.040785 
0.080409 0.086328 0.07597 0.049828 0.01711 -0.13497 -0.16177 0.038483 
0.094548 0.10573 0.066927 0.065118 0.0087245 -0.094692 -0.29528 0.039799 
0.12381 0.10951 0.062981 0.035688 0.0019835 -0.040435 -0.13382 0.077121 
0.11165 0.11872 0.023851 0.036182 0.0085601 0.028619 0.028125 0.10195 
0.047362 -0.021199 -0.067892 -0.020706 -0.043888 0.019411 0.11707 0.078272 
-0.036325 -0.12725 -0.12001 -0.057041 -0.087293 0.0092177 0.06183 0.0059294 
-0.040928 -0.070687 -0.016924 0.00083261 -0.03764 0.0070803 0.048841 -0.039778 
0.017767 0.10458 0.15834 0.043909 0.047033 0.049006 0.045882 -0.023172 
0.026646 0.23923 0.1955 0.11132 0.086985 0.066434 0.078929 0.019576 
0.03651 0.19994 0.13006 0.089123 0.078765 0.087972 0.08715 0.057555 
0.099316 0.024837 -0.058521 -0.0064016 0.065118 0.09126 0.083533 0.054925 
0.16344 -0.1307 -0.14336 -0.012649 0.033387 0.065283 0.062159 0.058213 
0.18695 -0.0138 -0.038133 -0.023665 -0.00031829 0.0019835 0.025824 0.058706 
0.13023 0.075312 0.070215 0.023193 -0.0050863 -0.015609 0.005765 0.044567 
0.028947 0.00017495 0.031085 0.0090533 0.01415 -0.013636 0.017438 0.025824 
-0.079401 -0.092226 0.0079024 0.049828 0.059693 0.020891 0.038483 0.015137 
-0.17262 -0.014951 0.024673 0.055911 0.081231 0.046868 0.040785 0.0090533 
-0.20156 -0.021034 0.074161 0.058049 0.1105 0.072846 0.03799 0.0023123 
-0.13925 -0.012156 0.075148 0.07301 0.10885 0.095371 0.018096 -0.0059084 
-0.050464 0.0019835 0.081395 0.030427 0.12332 0.087972 0.025659 0.012013 
-0.021692 0.052787 0.066598 0.040292 0.073504 0.0018191 -0.0022913 0.018096 
0.013492 0.062981 0.050486 0.042923 0.019083 -0.088937 0.014315 0.03799 
0.085012 0.026646 0.0046141 0.0064227 -0.018568 -0.074469 0.013164 0.06594 
0.15472 0.020891 -0.0078813 0.043909 -0.0072237 -0.031886 0.00066819 0.030263 
0.068736 -0.0036066 0.0023123 -0.014951 -0.066906 -0.01676 -0.044874 0.00066819 
-0.055397 -0.026131 -0.0062372 -0.02498 -0.089102 0.053445 -0.069372 -0.024652 
-0.02498 0.0047785 -0.10094 -0.073318 -0.038791 0.063803 -0.03057 -0.014293 
0.062652 0.0080668 -0.089924 -0.075455 0.013164 0.080902 0.079258 0.011191 
0.058377 -0.079401 -0.050793 0.004943 0.10935 0.20454 0.1567 0.0041209 
0.026974 0.044073 0.077943 0.066434 0.13943 0.32292 0.19928 0.030263 
0.011191 0.17791 0.19353 0.13417 0.14141 0.22871 0.14141 0.072517 
0.050321 0.2292 0.16969 0.087643 0.078436 0.033387 0.020398 0.10392 
0.058213 0.15193 0.10162 0.06035 0.038319 -0.12363 -0.052273 0.07597 
0.079258 0.083368 0.037826 0.051308 0.017438 -0.14319 -0.066577 0.043087 
0.14206 -0.013143 -0.0062372 0.013657 0.0034632 -0.109 0.0018191 0.051472 
0.15308 -0.032543 -0.018404 0.019576 -0.009361 -0.058192 -0.0047575 0.036182 
-0.0054151 -0.0138 0.0032988 -0.012156 -0.004593 -0.03205 0.025659 -0.0014692 
-0.13547 -0.056877 -0.023829 -0.012978 0.0074092 0.03092 0.021878 -0.046354 
-0.075127 -0.057534 -0.045532 -0.018733 0.023851 0.063474 0.12464 -0.034516 
0.01415 -0.029584 -0.038133 -0.025638 0.018754 0.079916 0.23512 0.015137 
0.11033 0.10704 0.047033 0.056076 0.031578 0.079916 0.33344 0.067913 
0.1271 0.16229 0.1128 0.095371 0.092082 0.09685 0.24219 0.075805 
0.095699 0.15242 0.14305 0.13023 0.1271 0.076627 -0.0052507 0.025001 
0.052294 0.092247 0.11132 0.08715 0.075312 0.029769 -0.40938 -0.030077 
0.063145 0.11165 0.065776 0.031907 0.028454 -0.003771 -0.56228 0.0065871 
0.14486 0.13894 0.055911 0.033551 0.004943 -0.009361 -0.31583 0.094055 
0.23594 0.22444 0.057884 0.043909 0.013986 0.010697 0.072681 0.14634 
0.32506 0.26472 0.10228 0.079258 0.019247 0.034044 0.28445 0.16426 
0.40957 0.3341 0.10343 0.057884 -0.018404 -0.02646 0.25206 0.18251 
0.26258 0.25403 0.036839 -0.020706 -0.12363 -0.072825 0.24153 0.088301 
-0.076935 0.034209 -0.073976 -0.11196 -0.16802 -0.15783 0.13664 -0.029584 
-0.33523 -0.26338 -0.20485 -0.1644 -0.13432 -0.20271 0.0095465 -0.16555 
-0.5396 -0.51066 -0.21126 -0.10916 -0.05589 -0.20649 -0.11376 -0.23839 
-0.61177 -0.42829 -0.057205 -0.010348 0.03947 -0.10143 -0.1039 -0.23214 
-0.49076 -0.30004 0.065612 0.12529 0.19073 0.016781 -0.062302 -0.12396 
-0.20847 -0.12363 0.095371 0.14996 0.22279 0.17495 0.039141 0.01415 
0.077121 0.059364 0.11625 0.12694 0.244 0.30648 0.073997 0.10836 
0.29464 0.25387 0.10639 0.12743 0.27705 0.30089 0.098659 0.14749 
0.39016 0.30401 0.11724 0.071202 0.31749 0.23216 0.086163 0.15834 
0.34939 0.29464 0.12447 0.07597 0.19073 0.17018 0.073504 0.15341 
0.27606 0.17906 0.085177 0.030427 0.0062583 0.14733 0.068571 0.11773 
0.20717 0.10211 0.024179 -0.0060728 -0.089924 0.14058 0.025824 0.057884 
0.13713 0.04506 0.025001 -0.0052507 -0.13399 0.029605 -0.081868 0.037826 
0.14453 0.1077 0.030098 -0.026624 -0.14385 -0.087786 -0.13284 -0.010512 
0.11198 0.13056 0.057227 0.015137 -0.12281 -0.18282 0.0037921 0.017438 
0.043087 0.14141 0.030427 -0.016924 -0.090253 -0.12511 0.14486 0.04506 
0.016288 0.12036 0.035688 0.014643 0.0070803 -0.0026201 0.1544 0.058377 
0.039141 0.093233 0.030592 0.072188 0.044896 0.093233 0.05213 0.075312 
0.043087 0.10754 0.041278 0.058213 0.072024 0.10622 0.014643 0.092411 
0.034702 0.10359 0.083533 0.067585 0.038812 0.056076 0.0039565 0.062488 
0.043745 0.15226 0.1225 0.028783 0.066269 -0.065426 0.020398 0.026152 
0.013657 0.14338 0.10836 0.035031 0.056569 -0.10373 -0.0036066 -0.023501 
-0.010348 0.034044 -0.00031829 0.017274 0.047033 -0.12412 0.016123 -0.051287 
-0.020706 -0.092554 -0.11064 -0.041422 0.050321 -0.062467 -0.028926 -0.028597 
-0.03057 -0.11985 -0.1427 -0.018897 0.038155 0.013821 -0.0027845 -0.0021268 
-0.0077169 -0.047012 -0.004593 0.030756 0.070544 0.089616 -0.027775 0.025824 
-0.076442 0.075641 0.11066 0.082546 0.080573 0.12168 0.0021479 0.016123 
-0.10423 0.075312 0.10211 0.058871 0.057555 0.11806 0.083533 -0.009361 
-0.072989 0.065776 0.070215 0.03536 0.043251 0.10935 0.097015 0.013821 
-0.0082102 0.03092 0.022864 0.046046 0.025166 0.087808 0.09126 0.0083956 
0.053938 0.0092177 0.0227 -0.00081153 0.0069159 0.05772 0.034702 0.040128 
0.099316 0.03651 0.018425 -0.012649 -0.058685 -0.0031133 -0.10423 0.047197 
0.10556 0.06594 0.048184 -0.010348 -0.11294 -0.075127 -0.19334 0.024015 
-0.02942 0.040456 0.0689 0.021384 -0.07825 -0.027611 0.18695 0.017603 
-0.070359 -0.064933 0.058542 0.077121 0.0098754 0.053116 0.42206 0.081231 
-0.037969 -0.12297 0.019247 0.054103 0.038648 0.056898 0.16788 0.11625 
0.014643 -0.14188 0.00017495 0.019905 0.019411 0.014808 -0.15848 0.081724 
0.094713 -0.088937 -0.054246 -0.026131 -0.033037 -0.034516 -0.22129 0.039799 
0.14354 -0.043724 -0.056383 -0.036654 -0.013143 -0.0019624 0.074983 0.0079024 
0.16048 0.15061 0.020727 0.024673 0.21901 0.18037 0.28132 0.081724 
0.19024 0.33985 0.12266 0.095042 0.44097 0.27919 0.13845 0.19057 
0.16738 0.39296 0.15752 0.12743 0.35564 0.21605 0.01415 0.171 
0.08156 0.23397 0.099974 0.066269 0.075476 0.034373 -0.052437 -0.0029489 
-0.028433 0.080738 0.065447 0.055911 -0.18315 -0.145 -0.14977 -0.16588 
-0.074469 0.014315 0.046211 0.020398 -0.26585 -0.33967 -0.28114 -0.25302 
-0.042737 -0.039284 -0.00015387 -0.0049219 -0.17969 -0.37798 -0.26601 -0.21603 
-0.035667 -0.12182 -0.075291 -0.0044286 -0.11919 -0.31369 -0.061316 -0.057699 
-0.045039 -0.19334 -0.12462 -0.073318 -0.12083 -0.095678 0.15801 0.063474 
0.0042853 -0.13399 -0.098473 -0.038956 -0.10078 -0.006566 0.4048 0.099645 
0.075476 -0.066248 -0.038627 -0.016431 -0.076442 0.038977 0.52778 0.1128 
0.086821 0.053116 0.054432 0.037332 0.01711 0.19155 0.3757 0.13154 
0.041936 0.06742 0.12957 0.13023 0.14354 0.37882 0.11461 0.15144 
0.033551 0.13351 0.14404 0.11 0.11905 0.27146 -0.15405 0.13417 
0.078929 0.10096 0.10376 0.06183 0.013986 0.0070803 -0.33572 0.090603 
0.037661 0.10573 0.0093821 -0.021363 -0.064604 -0.11755 -0.32915 0.029605 
-0.031392 0.048184 0.016945 -0.048985 -0.10225 -0.14582 -0.10439 0.01974 
-0.088115 0.04358 0.017932 -0.0054151 -0.11015 -0.27555 0.1419 -0.025145 
-0.010676 0.010862 0.045224 -0.0029489 -0.10505 -0.3395 0.14913 -0.025638 
0.061995 0.0041209 0.019576 0.039141 -0.027447 -0.3691 0.062652 -0.032872 
0.061172 -0.044052 -0.051944 0.0062583 0.17741 -0.10916 -0.073318 -0.044546 
0.016123 -0.086964 -0.054246 0.023028 0.37487 0.40973 -0.19761 -0.031557 
0.038483 -0.037969 -0.011334 0.030098 0.42519 0.7869 -0.12823 0.0028056 
0.031578 -0.018897 0.044731 0.026974 0.2269 0.66391 0.069886 0.053281 
0.061172 0.021713 0.025988 0.077943 0.051472 0.29168 0.14733 0.067749 
-0.021692 -0.016924 0.031742 0.04654 0.049992 -0.10258 0.088301 0.050321 
-0.072825 0.046046 0.044238 0.075805 0.0786 -0.30136 0.077121 0.023686 
-0.099624 0.031742 0.033222 0.017932 -0.021199 -0.40428 0.030756 -0.012649 
-0.025967 0.060844 0.0023123 -0.023007 -0.20912 -0.35315 0.050157 -0.048327 
0.022535 0.051308 -0.0040998 -0.020048 -0.2231 -0.18002 0.093233 -0.022679 
0.042265 0.10293 0.021056 0.015794 0.040456 0.19517 0.16015 0.044896 
0.053445 0.074654 0.059528 0.070708 0.21737 0.42091 0.14913 0.1276 
0.056404 0.084848 0.060186 0.074654 0.21934 0.43209 0.1636 0.16294 
0.044073 0.067091 0.087314 0.063803 0.11674 0.28445 0.077778 0.10918 
0.024673 0.057227 0.09685 0.064296 0.00066819 0.086985 -0.061316 0.046046 
0.0046141 0.06479 0.066269 0.046704 -0.078415 -0.13333 -0.21833 -0.0091966 
0.047526 0.058871 0.050814 0.055089 -0.045203 -0.16999 -0.14089 -0.047176 
0.13483 0.13384 0.026974 0.011191 -0.014293 -0.13185 -0.11886 -0.089924 
0.24959 0.16344 0.01826 0.0054362 -0.010512 -0.041915 -0.17986 -0.066741 
0.25452 0.16196 -0.008539 -0.025309 -0.027611 -0.010348 -0.037476 0.01974 
0.16574 0.11 -0.014129 -0.024323 -0.026789 -0.014458 0.37405 0.11247 
0.057062 0.11411 0.037168 0.031414 -0.026789 -0.194 0.50558 0.11395 
-0.056712 0.049664 0.050979 0.0093821 -0.021528 -0.303 0.2172 0.045224 
-0.23116 0.0032988 0.02829 0.013164 -0.046847 -0.29528 -0.083676 -0.0138 
-0.28985 -0.047176 0.053281 0.018918 0.011191 -0.048656 -0.22376 -0.009361 
-0.20978 -0.043066 0.056733 0.025824 0.042429 0.18366 -0.2448 -0.016266 
-0.034681 -0.05589 0.0047785 0.049335 0.083204 0.42946 -0.16621 0.01004 
0.009711 -0.0067304 0.018754 0.025988 0.23479 0.49884 0.010533 0.014479 
0.029276 0.05476 0.082217 0.11115 0.3558 0.5309 0.12003 0.03947 
0.058542 0.069229 0.11231 0.12003 0.29957 0.64435 0.22723 0.082382 
0.082382 0.084684 0.076627 0.09685 0.15818 0.70091 0.20882 0.11658 
0.14453 0.10573 0.063145 0.0786 0.13105 0.40595 0.16771 0.11083 
0.22378 0.18761 0.047197 0.087972 0.11346 -0.0021268 0.090109 0.12085 
0.19879 0.1807 0.040785 0.031578 -0.11179 -0.46725 0.0069159 0.078107 
0.093069 0.16886 0.035524 -0.011005 -0.24414 -0.61966 -0.10012 0.021878 
-0.034516 0.0592 0.027303 -0.033694 -0.22622 -0.52891 -0.12741 -0.084663 
-0.033037 -0.030735 -0.075127 -0.059836 -0.13366 -0.31665 -0.054246 -0.091075 
0.064461 -0.068057 -0.062302 -0.010348 -0.081868 -0.16029 0.020562 -0.0019624 
0.10458 0.069722 0.014972 0.064296 0.025495 -0.021856 0.058542 0.061337 
0.073997 0.13467 0.09833 0.072353 0.14141 0.041607 0.044567 0.045553 
-0.023336 0.14568 0.08156 0.056404 0.095864 0.057391 0.035524 0.036182 
-0.050464 0.050157 0.015959 0.0024767 0.020891 0.016945 0.050979 0.035195 
-0.02498 -0.022843 -0.034188 -0.026296 -0.053753 0.016452 0.050979 0.042265 
-0.045203 -0.059178 -0.061645 -0.0075525 -0.11886 -0.01528 -0.0070593 0.0092177 
-0.013143 -0.073154 -0.062796 -0.026789 -0.14632 0.01415 -0.015773 -0.016924 
0.09685 -0.0013048 0.0067515 0.025659 -0.1016 0.0095465 0.017932 0.015959 
0.17643 0.025166 0.04358 0.034702 -0.025474 -0.0138 0.097344 0.057391 
0.16952 0.11839 0.12233 0.080244 0.074983 -0.027282 0.14223 0.074161 
0.089945 0.16525 0.17445 0.13302 0.13878 0.084355 0.21885 0.055747 
0.022864 0.13647 0.12727 0.1003 0.16327 0.12579 0.24564 0.029276 
-0.055068 -0.014293 0.0075736 0.045553 0.17495 0.12398 0.078929 -0.012156 
-0.10982 -0.10752 -0.087786 -0.053588 0.21934 0.064296 -0.18348 -0.013636 
-0.10883 -0.15848 -0.088937 -0.06 0.1733 0.038812 -0.26141 0.08156 
-0.10949 -0.068057 -0.033859 -0.015609 0.02533 0.021549 -0.18709 0.11362 
-0.14287 -0.035503 0.01415 0.0023123 -0.065097 0.14174 -0.15832 0.046211 
-0.11557 0.0095465 0.046211 0.05065 -0.075127 0.22559 0.0044497 -0.012485 
-0.010348 -0.0083746 0.055418 0.030098 -0.049314 0.18744 0.1179 -0.012814 
0.10622 0.00297 0.025824 0.025659 -0.025309 -0.0078813 0.16031 0.044073 
0.14042 0.096686 0.047691 0.019905 -0.040271 -0.1621 0.094055 0.044073 
0.13582 0.13532 0.07449 0.047855 0.0062583 -0.2157 0.10244 0.018096 
0.15604 0.10688 0.052952 0.066269 0.030592 -0.15503 0.052952 0.02533 
0.17988 0.029112 -0.031228 -0.0019624 0.032893 -0.11557 0.077285 0.034866 
0.16081 0.037826 -0.080059 -0.039449 -0.003771 -0.080552 0.0090533 0.010697 
0.049664 0.031907 -0.014787 -0.034681 -0.033365 -0.08532 0.032564 0.0013258 
-0.059507 0.092247 0.06594 0.0067515 -0.032379 -0.047998 -0.0049219 0.015794 
-0.0059084 0.093233 0.095206 0.074654 0.022371 -0.0042642 0.012999 0.038319 
0.11625 0.080244 0.059857 0.069064 0.062159 0.060022 0.037826 0.078272 
0.2389 -0.052273 -0.015609 0.075641 0.068736 0.076299 0.035688 0.055747 
0.23414 -0.08532 -0.068221 0.031085 0.096521 0.11642 0.026317 0.056076 
0.1687 0.0227 0.010533 0.075148 0.15703 0.1225 0.049499 0.082875 
0.011191 0.15735 0.12266 0.092576 0.13976 0.1031 0.056076 0.079094 
-0.20633 0.14502 0.12332 0.054103 0.077121 0.037661 0.019411 -0.0096899 
-0.2545 0.071531 0.058377 0.03947 0.060022 0.01826 -0.014129 -0.083183 
-0.1205 0.047691 0.04095 0.031085 0.030427 -0.010348 -0.031721 -0.037476 
-0.035338 0.018096 0.013986 0.012177 -0.06444 -0.025802 -0.00031829 -0.00031829 
-0.00064712 0.0098754 0.0074092 -0.012156 -0.12494 -0.067892 0.0054362 0.028947 
0.0083956 -0.021692 0.027632 -0.0083746 -0.10193 -0.06855 0.044073 0.054596 
0.019905 -0.021692 0.023028 0.048513 -0.01676 -0.046519 -0.014787 0.042758 
0.011848 -0.018075 0.049828 0.019576 -0.0026201 0.047033 -0.015773 0.049992 
0.0088889 0.038155 0.042923 0.043745 0.047691 0.08008 -0.096336 0.042265 
0.011026 0.035853 -0.0062372 0.0095465 0.049499 0.079751 -0.13415 0.014972 
0.017274 -0.0057439 -0.076277 -0.014622 0.08008 0.044238 -0.08269 -0.011005 
0.024015 -0.027282 -0.073976 0.014643 0.16426 0.043745 0.23808 -0.0060728 
0.09422 0.11115 0.036182 0.037004 0.22115 -0.0077169 0.42206 0.024015 
0.09422 0.1636 0.10556 0.082217 0.12497 -0.034352 0.26192 0.056569 
0.20849 0.18794 0.12513 0.064132 -0.0057439 -0.11541 0.020233 0.093726 
0.36616 0.20865 0.16031 0.10162 -0.084334 -0.11787 -0.15372 0.1179 
0.4339 0.20158 0.14749 0.12266 -0.075784 -0.070523 -0.18052 0.12694 
0.32621 0.19106 0.088301 0.070544 -0.045039 0.00083261 -0.13168 0.11362 
0.069722 0.026152 -0.011992 0.0067515 -0.019555 0.08863 -0.031228 0.037497 
-0.28229 -0.15257 -0.09946 -0.058521 -0.0068948 0.14864 0.02829 -0.1062 
-0.69299 -0.30021 -0.10373 -0.055232 0.018754 0.24926 0.082711 -0.24398 
-0.80085 -0.2596 -0.09239 -0.023829 0.063803 0.40134 0.062323 -0.26338 
-0.48698 -0.12215 -0.009361 0.022206 0.10507 0.38967 0.072188 -0.14517 
-0.033694 0.046868 0.079422 0.083533 0.095042 0.18383 0.06035 0.018754 
0.2149 0.12875 0.12233 0.10113 0.075476 -0.034845 0.1225 0.1271 
0.25535 0.14848 0.10507 0.069558 0.049828 -0.14467 0.088465 0.12349 
0.20487 0.12497 0.095699 0.035853 -0.0078813 -0.21619 0.042758 0.094713 
0.18892 0.094055 0.05624 0.0036276 -0.032872 -0.16194 -0.017582 0.098001 
0.16755 0.030592 0.01004 0.016945 -0.037147 -0.068879 -0.015444 0.056569 
0.11642 0.046375 0.01974 0.011191 0.025001 0.071202 0.061172 0.020069 
0.048348 0.063145 0.031085 0.029112 0.076134 0.13121 0.13417 -0.023172 
0.0082312 0.051965 0.03947 0.026974 0.084848 0.14996 0.099481 0.046211 
-0.0096899 0.034702 0.009711 0.023028 0.062981 0.11526 0.042923 0.098494 
0.0013258 0.019905 0.016452 0.035031 0.033058 0.084026 0.00033937 0.05772 
0.025824 0.02829 0.011191 0.022371 0.033058 0.038977 -0.033037 0.0067515 
0.042758 0.024015 0.0087245 0.038977 0.04095 0.031249 -0.0022913 -0.011334 
0.018425 0.012013 0.00033937 0.01152 0.029112 0.018918 0.0072447 0.0082312 
0.042265 0.012835 0.052459 0.022042 0.044896 0.048513 0.044073 0.038155 
0.046704 0.092411 0.057391 0.038155 0.044731 0.050486 0.031085 0.039634 
0.072681 0.075641 0.06183 0.040456 0.030427 0.065283 0.051965 0.021878 
0.0689 0.10556 0.068078 0.063639 0.024179 0.04506 0.036017 0.015465 
0.082217 0.10852 0.073832 0.06479 0.0032988 0.044238 0.071037 0.018754 
0.077614 0.08863 0.0070803 0.019576 0.0023123 0.014315 0.033222 0.02681 
0.10195 0.082382 -0.022185 -0.0096899 -0.0075525 0.022371 0.025495 0.043909 
0.090438 0.085999 -0.0036066 -0.01117 0.0088889 0.030263 0.017438 0.017603 
0.11017 0.072024 0.027632 0.067749 0.005765 0.062323 0.02533 0.061008 
0.059364 0.091425 0.053609 0.04095 0.060186 0.063639 0.0034632 0.037826 
0.012835 1.0539e-005 0.056898 0.06479 0.063803 0.086163 0.032729 0.028783 
-0.042079 -0.13596 -0.011334 0.019905 0.048513 0.020233 -0.0070593 0.05213 
-0.045861 -0.091404 0.00297 0.023028 0.023193 -0.045368 -0.039778 0.04506 
0.09833 0.058706 0.059693 0.044567 -0.012156 -0.10752 -0.012649 0.07449 
0.15867 0.24104 0.17281 0.054925 -0.028597 -0.17082 0.038155 0.055089 
0.17067 0.26274 0.1664 0.065447 -0.036654 -0.17312 0.36632 0.060186 
0.19764 0.15472 0.06035 0.051636 -0.042737 -0.11212 0.6723 0.10803 
0.23019 0.0060938 -0.045532 0.014479 -0.026296 -0.017417 0.43883 0.15505 
0.20487 0.041936 -0.042737 0.025659 0.0044497 0.12661 -0.13267 0.12316 
0.14946 0.10228 -0.011334 -0.0039354 0.0088889 0.22016 -0.52924 0.030263 
0.0069159 0.16097 0.038483 0.028454 0.031085 0.22476 -0.59698 -0.042737 
-0.145 0.14568 0.097179 0.024837 0.066105 0.18991 -0.32257 -0.12314 
-0.16868 0.065776 0.070873 0.032893 0.11658 0.17725 -0.25927 -0.11853 
-0.065755 -0.043559 -0.040106 -0.0022913 0.14124 0.19977 -0.12462 -0.15569 
-0.0016336 -0.14303 -0.090088 -0.003771 0.20471 0.2389 0.27836 -0.072496 
0.057555 -0.16342 -0.072825 0.05213 0.21474 0.11691 0.53649 0.13549 
0.01152 -0.078744 -0.010183 0.04506 0.090438 -0.10423 0.5069 0.22756 
-0.064604 0.016288 0.067749 0.053609 -0.0503 -0.26256 0.33426 0.16821 
-0.088115 0.093726 0.13056 0.052623 -0.098144 -0.27505 0.073668 0.1008 
0.0047785 0.13319 0.13647 0.063474 -0.084991 -0.20436 -0.19235 0.037826 
0.12661 0.15686 0.12135 0.092576 -0.041915 -0.11968 -0.27719 0.016945 
0.20471 0.16163 0.075641 0.022371 -0.027282 -0.069208 -0.23559 0.016123 
0.19764 0.079094 -0.028433 -0.013307 -0.018733 -0.0406 -0.16177 0.0034632 
0.17528 0.091918 -0.055397 -0.050958 -0.020541 -0.014787 -0.081703 -0.021034 
0.15144 0.147 -0.012156 -0.0138 -0.0022913 0.023686 0.01267 0.0032988 
0.1151 0.18662 0.057884 0.033715 0.0227 0.05772 0.062652 0.055911 
0.039634 0.16229 0.062652 0.044896 0.035853 0.068407 0.12266 0.10606 
0.023028 0.1003 0.056076 0.063968 0.041607 0.079258 0.11181 0.098001 
-0.024323 0.032236 0.040785 0.022371 0.052623 0.064461 0.095864 0.04506 
-0.099131 -0.0138 0.023357 0.01563 0.047691 0.043909 0.044731 0.013328 
-0.16572 -0.041751 0.0098754 -0.001798 0.031249 0.040621 0.03536 -0.012485 
-0.15158 -0.084827 -0.016431 -0.029584 0.031578 0.012177 -0.028926 -0.059178 
-0.19252 -0.12182 -0.049971 -0.0040998 0.060022 -0.0026201 -0.032872 -0.13596 
-0.1912 -0.17197 -0.059507 0.0019835 0.089287 -0.0039354 -0.031557 -0.097651 
-0.10752 -0.13349 -0.044381 0.080573 0.090603 -0.089759 -0.0052507 -0.0040998 
0.064132 -0.047012 0.032236 0.08715 0.082382 -0.065097 0.027139 0.061666 
0.15357 0.028947 0.064954 0.091753 0.050157 0.02533 0.031085 0.083533 
0.094877 -0.0029489 0.072188 0.097179 0.0014903 0.073997 0.068736 0.058377 
-0.10341 -0.058028 0.040292 0.018754 -0.052109 0.025659 0.014808 -0.001798 
-0.1815 -0.067235 -0.015116 -0.028597 -0.083018 -0.098638 -0.063946 -0.043559 
-0.15668 -0.051451 -0.049314 -0.083676 -0.11952 -0.21488 -0.1381 -0.069865 
-0.057205 -0.026624 -0.024323 -0.058028 -0.027775 -0.031886 -0.11968 -0.05737 
0.024179 -0.018404 0.031249 0.029276 0.10556 0.35284 0.058377 0.040128 
0.072681 0.045718 0.073668 0.067091 0.20257 0.60884 0.26209 0.10573 
0.091589 0.091425 0.10918 0.12825 0.19303 0.51512 0.22756 0.1179 
0.16114 0.171 0.1128 0.10228 0.15735 0.15801 0.12003 0.12842 
0.17528 0.15456 0.06331 0.053445 0.1373 -0.24529 -0.010841 0.067913 
0.084519 0.084848 0.0059294 0.010697 0.057227 -0.44062 -0.038791 0.018754 
-0.032543 -0.025474 -0.015773 -0.020048 -0.067728 -0.37239 -0.05589 -0.031228 
-0.041257 -0.025145 -0.00064712 -0.0031133 -0.086964 -0.20205 -0.014622 -0.023665 
0.005765 -0.016924 0.005765 0.0065871 -0.040106 -0.084827 0.043087 -0.018897 
0.024344 0.062488 0.03799 0.016945 -0.028597 0.016452 0.091425 0.017932 
0.01152 0.03536 0.033222 0.00017495 -0.065919 0.035195 0.09833 0.052787 
0.021384 0.05213 0.029934 0.0016547 -0.052766 0.056733 0.032071 0.073175 
0.0087245 0.022206 0.033222 0.041114 0.00017495 0.054432 -0.038133 0.066434 
-0.018733 0.028619 0.048348 0.02533 0.045224 0.080409 -0.021199 0.059528 
0.0041209 0.022371 0.027961 0.044731 0.031414 0.058213 0.11592 0.055911 
0.015465 -0.011827 0.011684 0.036182 -0.016924 0.035688 0.11707 0.030592 
0.09685 0.059364 0.049006 0.047691 -0.07825 -0.0031133 0.060679 0.026152 
0.15423 0.12743 0.089452 0.082217 -0.022679 0.0042853 -0.086471 -0.0067304 
0.19977 0.15144 0.062488 0.060022 0.10162 0.061172 -0.034681 -0.010676 
0.18942 0.10869 0.049006 0.073668 0.098166 0.076956 0.057884 0.040621 
0.17774 0.13203 0.023193 0.0324 0.05065 0.063803 0.10145 0.041607 
0.09833 0.10376 0.03388 0.013492 0.0059294 0.015301 0.061172 0.011026 
-0.021856 0.086821 0.01004 -0.020706 -0.038956 -0.048492 0.078765 0.00033937 
-0.00081153 0.077614 0.013986 -0.049807 -0.040928 -0.087786 0.10392 0.0031344 
0.069886 0.01004 -0.020048 -0.013636 -0.032543 -0.17164 0.050486 0.0088889 
-0.03501 -0.13826 -0.084169 0.0067515 -0.064275 -0.26026 -0.048163 0.049664 
-0.20057 -0.14319 -0.059014 0.019247 0.018096 -0.20485 -0.18808 0.079094 
-0.14599 0.025659 0.064296 0.079751 0.16936 -0.01232 -0.25039 0.0689 
-0.0078813 0.14272 0.11757 0.073832 0.12628 0.020891 -0.10817 0.0324 
0.0087245 0.18251 0.10852 0.072681 0.033058 -0.096994 0.12628 -0.0013048 
-0.035174 0.1054 0.062817 0.016945 -0.05737 -0.22145 0.17265 -0.049478 
0.012013 0.061995 0.041936 0.032236 -0.071674 -0.20584 0.16755 -0.037147 
0.16212 0.073668 0.059857 0.028454 -0.0034422 -0.0078813 -0.0031133 -0.028926 
0.23562 0.15999 0.09833 0.063145 0.078107 0.42913 -0.11935 0.046868 
0.25683 0.19353 0.098659 0.066105 0.12727 0.76832 -0.019061 0.17034 
0.31749 0.2902 0.10343 -0.0044286 0.10129 0.74218 0.26061 0.28823 
0.37931 0.27606 0.051308 0.00033937 0.069393 0.60473 0.35136 0.20191 
0.2195 0.12727 -0.021856 -0.046519 -0.030899 0.43456 0.43308 0.12743 
-0.039284 -0.044381 -0.060823 -0.01676 -0.084663 0.17117 0.32407 0.025166 
-0.15503 -0.096665 -0.063618 -0.025802 -0.16523 -0.3788 0.074326 -0.039284 
-0.13991 -0.098638 -0.067564 -0.0026201 -0.052273 -0.67096 -0.18643 -0.14221 
-0.19466 -0.12067 -0.073482 0.01563 0.1271 -0.36301 -0.26897 -0.19581 
-0.27505 -0.11672 -0.023172 -0.0034422 0.27343 0.044238 -0.2744 -0.20896 
-0.2716 -0.032215 0.048677 0.030756 0.3244 0.25304 -0.25631 -0.15405 
