-0.013965 0.026974 0.01415 0.029769 0.033551 0.02829 0.035031 -0.014458 
-0.0087034 0.026974 0.054103 0.038483 0.048677 0.035853 0.03799 -0.0049219 
0.033387 -0.0054151 0.06742 0.075312 0.042758 0.022864 0.0072447 0.017603 
0.028947 -0.013965 -0.00064712 0.038319 0.053609 0.012177 0.020727 -0.014622 
0.059364 0.0082312 -0.049149 0.0421 0.055747 0.0083956 0.023357 -0.014293 
0.035195 -0.0024557 -0.051615 0.063639 0.025495 -0.00064712 0.0023123 -0.011005 
0.03536 0.024015 0.0041209 0.025659 0.027632 -0.012978 0.0016547 0.047526 
0.061337 0.070708 0.076792 0.0046141 0.023522 0.017438 0.014972 0.07597 
0.049992 0.075805 0.096357 0.0042853 0.029934 0.024344 0.030263 0.10113 
0.041607 0.060186 0.061501 -0.020377 0.029769 0.016123 0.012506 0.15078 
0.035524 0.062323 0.067256 -0.0090322 0.015959 0.0083956 -0.0027845 0.10244 
0.035524 0.086328 0.076792 0.028783 0.020069 0.048184 0.013821 0.04654 
0.028454 0.077614 0.094055 0.029441 0.037332 0.06479 0.031249 -0.0080457 
0.021549 0.044731 0.071531 0.016616 0.028454 0.050157 0.045224 -0.029748 
0.0051074 0.048184 0.026152 0.011191 0.012177 0.041443 0.027961 -0.04471 
-0.0049219 0.011848 -0.033365 -0.0098543 0.015465 0.029769 0.0019835 -0.049149 
0.0031344 0.015794 -0.045696 0.01974 0.018425 0.0079024 0.016616 -0.019061 
0.040621 0.044896 -0.038627 0.036675 0.01711 -0.017417 0.012999 -0.0032777 
0.052294 0.048513 -0.0055795 0.040128 0.029276 -0.00097594 0.021549 0.025495 
0.057391 0.016123 0.012013 0.047033 0.051143 0.012342 0.00050378 0.0095465 
0.060022 0.017274 0.042265 0.032071 0.034044 -0.0016336 0.01152 0.023357 
0.039963 0.047362 0.049335 0.032071 0.022864 -0.0050863 0.01711 0.0093821 
0.036346 0.02829 0.06035 0.040785 0.009711 0.040621 0.018754 0.0028056 
0.036346 0.010204 0.041278 -0.0075525 -0.00015387 0.037661 0.016945 0.0019835 
0.03388 0.041936 0.035031 -0.001798 0.010369 0.05624 0.01267 0.0028056 
0.050814 0.037497 0.024344 0.061008 0.03651 0.061172 0.041936 -0.004593 
0.038319 0.054596 0.050157 0.034866 0.044567 0.097672 0.041443 0.0031344 
0.035853 0.088136 0.12628 0.029934 0.047855 0.057062 0.063145 0.04095 
0.034373 0.10556 0.11855 0.071695 0.035524 0.059693 0.053116 0.034702 
0.010204 0.08304 0.13171 0.058871 -0.0014692 0.016123 0.084026 0.054432 
0.016452 0.047362 0.058377 0.014808 -0.0004827 0.012013 0.035524 0.021056 
0.016123 0.072188 0.022864 0.03092 0.0062583 0.018096 0.047691 0.014479 
-0.0031133 0.035031 0.022042 -0.016595 0.0014903 0.017274 0.04358 0.010697 
-0.010676 0.010697 -0.00081153 -0.0090322 -0.00081153 0.0062583 0.045389 -0.0031133 
-0.0075525 0.018754 -0.028597 -0.0031133 -0.016595 -0.0059084 0.04506 0.043416 
0.028125 0.029769 -0.054739 0.0046141 -0.011992 0.053445 0.073668 0.098659 
0.063968 0.046704 -0.021363 0.03947 0.0080668 0.1322 0.10639 0.12184 
0.064461 0.059035 0.032071 0.069393 0.049335 0.17626 0.11477 0.090274 
0.077285 0.097672 0.072846 0.053281 0.070873 0.14552 0.10524 0.094055 
0.051801 0.066927 0.074983 0.055911 0.073668 0.10096 0.058377 0.076299 
0.039634 0.070215 0.098494 0.036675 0.048184 0.032071 0.0034632 0.019576 
-0.0014692 0.041278 0.079422 0.016123 0.005765 -0.029913 -0.02087 -0.017911 
-0.039942 0.0082312 0.039305 0.0051074 -0.0088678 -0.050136 0.0021479 -0.052273 
0.0064227 0.015465 0.012013 0.0098754 -0.004593 -0.039942 -0.0036066 -0.012978 
0.023357 0.070873 0.023851 0.019905 0.029934 -0.045861 0.0095465 0.0036276 
0.042265 0.087314 0.056569 0.048677 0.041772 -0.084663 0.0087245 0.04654 
0.05065 0.079587 0.089452 0.042758 0.038155 -0.10176 0.0060938 0.034702 
0.024837 0.077121 0.02681 0.053281 -0.0073881 -0.13382 -0.072496 0.024179 
0.025659 0.079751 -0.012649 0.05772 0.0018191 -0.15569 -0.10308 0.041443 
-0.021034 0.043909 0.0037921 0.022206 0.0044497 -0.1649 -0.12363 0.021056 
0.0062583 0.029934 -0.0067304 0.0039565 0.025824 -0.08532 -0.067399 1.0539e-005 
-0.012814 0.045389 -0.0060728 0.043416 0.0013258 0.0031344 -0.015444 -0.056548 
-0.0072237 0.016288 0.023851 0.020069 0.0051074 0.10737 0.044402 -0.023829 
0.011191 -0.0014692 0.0074092 0.012835 0.0028056 0.14798 0.10573 0.0786 
0.035195 0.0011614 -0.039449 0.033551 -0.0060728 0.13154 0.13401 0.12694 
0.036839 0.040292 -0.021528 0.01563 0.021056 0.12233 0.1493 0.13006 
0.059035 0.028783 -0.0021268 0.014315 0.036839 0.086985 0.1128 0.095535 
0.02533 0.013986 0.037826 0.045389 0.034702 0.044073 0.032071 0.045718 
0.024179 0.040785 0.081889 0.024673 0.020891 0.01152 0.0059294 -0.064111 
0.0039565 0.045389 0.13105 0.0085601 0.027468 0.018589 0.0023123 -0.097322 
0.023851 0.047033 0.071037 0.049499 0.027468 0.0037921 0.0093821 -0.023172 
0.03651 0.061172 0.040785 0.0324 0.040128 -0.0088678 0.020562 0.079422 
0.035031 0.083697 0.030098 0.024837 0.041114 -0.02087 0.038483 0.10902 
0.050321 0.057391 0.01004 0.036675 0.022535 -0.025474 0.028454 0.09685 
0.064132 0.02681 0.0036276 0.015301 0.0093821 -0.02235 0.01152 0.075641 
0.048513 0.058871 0.014808 0.0014903 0.013164 -0.046519 -0.020048 0.033222 
0.038319 0.042758 0.010533 0.011191 0.013821 -0.033859 -0.013636 0.01563 
0.05476 0.033387 -0.003771 0.024673 0.044073 -0.019884 -0.0080457 0.0067515 
0.066763 0.030592 0.0047785 0.037661 0.040456 0.0036276 -0.034023 0.0013258 
0.048019 0.051143 0.020562 0.046046 0.029934 -0.038133 -0.013636 -0.0047575 
0.031578 0.024344 0.025495 0.012013 0.028947 0.0082312 0.016945 -0.024652 
0.016452 0.023686 0.053281 0.023028 0.030756 -0.0024557 0.023522 0.023193 
0.014808 0.064461 0.073832 0.029112 0.027961 0.033387 0.0072447 0.025659 
0.025824 0.031742 0.020398 0.015465 0.039799 0.052623 0.034702 0.051801 
0.049664 0.052623 0.030756 0.038977 0.053609 0.085999 0.031907 0.047362 
0.050814 0.057391 0.019411 0.029276 0.027632 0.090767 0.042758 0.057555 
0.047691 0.044073 0.011684 0.023686 0.026152 0.08304 0.076134 0.03651 
0.05213 0.034866 0.029934 0.028947 0.018425 0.08567 0.058049 0.033551 
0.046046 0.039799 0.048513 0.017603 0.025001 0.044073 0.039141 0.029605 
0.041607 0.071202 0.03947 0.023028 0.034537 0.031414 0.030592 0.043745 
0.03799 0.041936 0.02681 0.056404 0.0227 0.021713 0.050814 0.06479 
0.027139 0.045553 0.029769 0.041114 0.018589 0.048019 0.033551 0.041936 
0.017932 0.065776 0.041936 0.020727 0.034373 0.050486 0.0324 0.042265 
0.028125 0.042758 0.040621 0.055911 0.04917 0.051308 0.019905 0.019083 
0.022535 0.039963 0.047197 0.03388 0.04654 0.061172 0.031414 -0.003771 
0.010533 0.039141 0.068571 0.034209 0.060515 0.052952 -0.0021268 -0.1159 
0.0047785 0.040621 0.043087 0.04506 0.03388 0.032893 -0.03616 -0.22491 
0.011191 0.043745 0.042594 0.030592 0.023028 0.044896 -0.034681 -0.2282 
0.037826 0.042923 0.037004 0.029112 0.040128 0.074983 0.039963 -0.011334 
0.051143 0.073339 0.058871 0.045224 0.043416 0.083862 0.094055 0.18218 
0.067091 0.030098 0.042265 0.033551 0.057391 0.067585 0.10474 0.21523 
0.052623 0.041114 0.056898 0.025988 0.052623 0.060022 0.090931 0.18054 
0.055747 0.065776 0.051801 0.031907 0.0075736 0.055911 0.056569 0.12365 
0.039634 0.048019 0.015465 0.00033937 0.019083 0.056404 0.070051 0.10129 
0.02829 0.039141 0.01152 -0.010348 0.012013 0.077778 0.052294 0.069558 
0.042758 0.050486 0.024673 0.018096 0.041607 0.10228 0.072517 0.061666 
0.047033 0.078107 0.035031 0.028947 0.072188 0.1299 0.077943 0.073668 
0.044073 0.052459 0.065612 0.042923 0.06183 0.043416 0.076956 0.059857 
0.040785 0.052294 0.079094 0.049992 0.024837 0.0080668 0.038648 0.070215 
0.02533 0.061337 0.03799 0.015794 0.032564 -0.020706 -0.0034422 0.040621 
0.0095465 0.024837 0.0065871 0.015465 0.025988 -0.032708 -0.0054151 0.020562 
-0.0013048 0.023193 0.014479 0.01267 0.019576 -0.019719 -0.00031829 -0.031886 
-0.0034422 0.061172 -0.0077169 0.010369 0.019905 0.0056006 -0.017582 -0.15207 
0.021549 0.060679 0.010204 0.043909 0.023357 0.051143 -0.037805 -0.19466 
0.054432 0.053938 0.058542 0.030098 0.022206 0.042758 -0.014622 -0.084334 
0.070873 0.042594 0.05772 0.020069 0.025824 0.00017495 0.013657 0.096028 
0.04095 0.046704 0.021878 0.055747 0.030263 -0.017746 0.038155 0.17297 
0.025166 0.012013 0.0083956 0.024837 0.035853 -0.013143 0.034044 0.13434 
-0.0090322 0.0070803 -0.00015387 0.039963 0.053609 -0.016924 0.033222 0.10573 
-0.071016 0.0026412 0.00050378 0.039634 0.037497 -0.041586 -0.010512 0.12365 
-0.12182 0.0014903 0.035688 0.01152 0.0023123 0.018096 0.023028 0.12365 
-0.06707 0.024179 0.046868 0.0023123 -0.00031829 0.023851 0.024179 0.062817 
0.019083 0.060022 0.036839 0.050814 0.020562 0.046704 0.044073 0.031742 
0.049992 0.05213 0.053774 0.023522 0.055747 0.016123 0.031414 -0.030735 
0.078272 0.041772 0.046375 0.00017495 0.03092 0.046704 0.037332 -0.0503 
0.084848 0.01711 0.025659 0.0092177 0.020891 0.045224 0.016123 -0.046847 
0.088794 0.078929 0.04654 0.01974 0.023357 0.01711 0.010862 -0.019884 
0.050321 0.064625 0.06479 0.039305 0.049335 0.029769 0.0070803 -0.0070593 
0.057884 0.063968 0.030592 0.052952 0.034537 0.018589 0.040292 -0.041586 
0.019411 0.069722 0.0083956 -0.0091966 0.02533 -0.0077169 0.011355 -0.071181 
-0.0004827 0.046046 0.0037921 -0.0075525 0.017438 -0.009361 0.0013258 -0.072332 
0.004943 0.02533 0.010204 0.015137 -0.0011404 0.00033937 -0.0021268 -0.019061 
0.022042 0.023028 0.0054362 0.032071 0.0069159 -0.00031829 0.040456 0.066763 
0.027796 0.047362 -0.0138 0.028619 0.015794 -0.0011404 0.036346 0.15818 
-0.0014692 -0.008539 -0.011498 0.026317 0.018096 -0.023829 0.0324 0.15341 
-0.017582 -0.00031829 0.036675 0.0082312 0.043416 -0.001798 0.00017495 0.096686 
0.0075736 0.016452 0.072353 0.012342 0.014643 -0.011663 -0.017417 0.092904 
0.020727 0.022371 0.049335 0.0421 0.0064227 -0.004593 0.02681 0.099316 
0.056076 0.010533 0.044896 0.04654 0.029441 0.031249 0.029605 0.10704 
0.060844 0.045553 0.050157 0.071037 0.038155 0.027632 0.028619 0.062817 
0.064954 0.073175 0.060844 0.050486 0.046046 0.040456 0.021056 0.048841 
0.051472 0.066105 0.014808 0.04506 0.049992 0.037332 0.04358 -0.021363 
0.032071 0.069393 -0.00064712 0.066105 0.031085 0.046704 0.043909 -0.063289 
0.0056006 0.04506 -0.028926 -0.0016336 0.013657 0.012506 0.031414 -0.07825 
0.0062583 0.024508 -0.023501 0.0056006 -0.01117 -0.031064 0.016945 -0.043395 
-0.0075525 0.022535 0.013986 0.0067515 -0.023829 -0.036325 0.015794 -0.0031133 
0.0085601 0.045718 0.043416 0.0019835 0.0082312 -0.0064016 0.0021479 0.0079024 
0.020069 0.040456 0.0016547 0.020891 0.038483 0.022042 0.014972 0.031249 
0.046704 0.033387 0.010862 0.066434 0.044238 0.067749 0.020891 0.045718 
0.060186 0.025824 0.044238 0.042923 0.039305 0.05624 0.043416 0.07038 
0.065776 0.077943 0.045882 0.047855 0.029934 0.049335 0.044238 0.038155 
0.049006 0.054267 0.062488 0.042758 0.021549 0.0051074 0.027139 0.044896 
0.03092 0.047033 0.075148 0.0067515 0.012835 -0.021856 0.025001 0.023851 
0.044567 0.090438 0.088794 0.00017495 0.040456 0.0056006 0.036182 0.014972 
0.024837 0.0786 0.085341 0.024179 0.029605 0.053609 0.059364 0.025166 
0.037332 0.058542 0.13006 0.02533 0.03092 0.071366 0.049335 0.028783 
0.037497 0.048841 0.068736 0.023686 0.017274 0.060515 0.015301 0.022535 
0.042594 0.065776 0.025495 0.016945 0.0085601 0.027468 0.00066819 0.040621 
0.0421 0.060844 0.0054362 0.02122 0.024508 -0.071345 -0.010676 0.020727 
0.0016547 0.058542 -0.012649 0.014479 0.052787 -0.060987 -0.018568 0.027468 
0.034537 0.048184 -0.0021268 0.038319 0.02122 0.014479 0.016123 0.0075736 
0.038483 0.024344 -0.0087034 0.036346 0.016616 0.086328 0.039141 0.023193 
0.024837 0.013328 0.0023123 0.051472 0.036346 0.14272 0.095206 -0.0029489 
0.046375 0.0421 0.010862 0.034866 0.044896 0.13105 0.0786 0.018589 
0.061995 0.051636 0.037332 0.0075736 0.03947 0.13171 0.074326 0.034373 
0.081889 0.027796 0.020727 0.034537 0.032893 0.069886 0.064954 0.047033 
0.068736 0.0069159 0.004943 0.01004 -0.0068948 0.023851 0.072024 0.077943 
0.030592 0.015137 -0.022021 -0.00097594 0.0069159 -0.015609 0.06183 0.047855 
0.0227 0.0024767 0.0088889 0.019905 0.013657 -0.0091966 0.039634 0.040128 
0.018589 0.030427 0.082053 0.011848 0.023851 -0.020706 0.0090533 0.045389 
0.034702 0.085999 0.11494 -0.0004827 0.038483 -0.039449 -0.017088 0.055089 
0.036017 0.088794 0.082217 0.038319 0.045718 -0.033037 -0.0050863 0.027303 
0.053281 0.077449 0.04358 0.027468 0.026481 -0.045368 -0.034516 -0.0026201 
0.032071 0.058706 -0.021856 0.0067515 0.004943 -0.052109 -0.039778 -0.02087 
0.031578 0.072024 0.010697 0.048677 0.028783 -0.047341 -0.034188 0.041278 
0.039141 0.050157 0.038319 0.027796 0.038155 0.018425 0.027796 0.13582 
0.056569 0.061008 0.050321 0.035524 0.0689 0.087314 0.06035 0.14141 
0.077121 0.097015 0.090603 0.053445 0.08304 0.11691 0.087314 0.088301 
0.058542 0.06035 0.14272 0.016616 0.032893 0.10113 0.07449 -0.022843 
0.038648 0.0689 0.1179 0.041607 0.012835 0.08715 0.089452 -0.035338 
0.023522 0.04654 0.034209 0.052294 0.020233 0.063968 0.053774 -0.03353 
0.0011614 0.022206 -0.0021268 0.030427 0.019905 0.026974 0.038648 -0.0004827 
0.023686 0.00083261 -0.0072237 0.022042 0.031249 0.022535 0.030098 0.019411 
0.010533 0.0070803 0.019576 0.017932 0.023357 0.022535 0.059528 0.033551 
0.025824 0.048019 0.066927 0.014315 0.013164 -0.0013048 0.034209 0.03947 
0.06035 0.033387 0.049335 0.015959 0.014808 0.0047785 0.027303 0.028454 
0.046704 0.027303 -0.0059084 0.040621 0.022535 0.0028056 1.0539e-005 0.022864 
0.050486 0.055418 -0.022843 0.038483 0.052623 -0.011498 0.0065871 0.026974 
0.043909 0.036182 -0.024487 0.033715 0.052623 -0.022679 0.0098754 0.078929 
0.034537 -0.004593 0.00017495 0.0095465 0.01415 -0.012156 0.0064227 0.11132 
0.018096 -0.010183 0.027303 0.013164 0.01711 0.030098 0.019247 0.069393 
0.0098754 0.020233 0.075641 0.048841 0.022535 0.052294 0.036182 0.0421 
0.010204 0.03536 0.065776 0.02533 0.045553 0.049992 0.040621 -0.0095255 
0.0042853 0.061172 0.030263 0.013657 0.032236 0.064132 0.021549 -0.0060728 
0.004943 0.059035 -0.024816 0.050979 0.030263 0.037826 0.0095465 0.009711 
0.013164 0.044073 -0.029913 0.01974 0.013657 -0.0016336 0.013986 0.016123 
0.039963 0.035688 0.0016547 -0.008539 0.01004 -0.012485 0.024015 0.023028 
0.060022 0.070873 0.070215 0.043087 0.0324 -0.0027845 0.025001 0.051636 
0.077285 0.12135 0.084519 0.03651 0.019411 -0.014293 0.0085601 0.084684 
0.041114 0.064625 0.066434 0.037826 0.0421 -0.0050863 0.031578 0.052952 
0.027796 0.057391 0.063803 0.037497 0.063639 0.007738 0.064132 0.060679 
-0.0021268 0.04358 0.034537 0.026317 0.025001 0.045718 0.045553 0.039305 
-0.021856 0.026481 0.016945 0.0039565 0.040292 0.047855 0.046375 0.050321 
0.00083261 0.033222 0.043251 0.045389 0.0227 0.027468 0.041772 0.047033 
-0.0047575 0.062652 0.058213 0.028619 0.031907 0.018589 0.018918 0.04358 
0.013164 0.039963 0.070215 0.025824 0.029934 0.023028 0.023851 0.034702 
0.018589 0.034373 0.079094 0.040128 0.026317 0.035853 0.012177 0.034044 
0.011848 0.039305 0.047197 0.053938 0.010533 0.06479 0.042594 0.027961 
0.01004 0.061337 0.035195 0.029276 0.029934 0.078107 0.030427 0.029605 
0.03388 0.036182 0.013986 0.064625 0.043251 0.06035 0.060679 0.035853 
0.031578 0.046704 0.021713 0.044567 0.029934 0.048513 0.04654 0.011191 
0.023686 0.072681 -0.013471 0.02681 0.027961 0.032564 0.021549 -0.061645 
0.01826 0.058377 -0.033859 0.013986 0.0037921 0.026974 0.00297 -0.16539 
0.022864 0.064132 -0.016924 0.012999 0.0028056 0.016945 -0.0072237 -0.21685 
0.011355 0.059035 -0.0052507 0.0095465 0.018589 0.0087245 -0.031064 -0.12462 
0.022206 0.034044 -0.0080457 0.031249 0.020727 0.023686 -0.038791 -0.068879 
-0.0047575 -0.0067304 -0.0078813 0.0037921 0.02681 -0.013143 -0.027447 -0.040928 
-0.023665 -0.034845 -0.018239 0.0046141 0.040456 -0.037805 0.01267 0.067091 
-0.0095255 -0.0029489 -0.025474 0.028619 0.027961 -0.03057 0.038319 0.19402 
0.030427 0.014808 -0.0032777 0.021056 0.038648 0.01563 0.050814 0.21013 
0.056898 0.024179 0.043745 0.043087 0.043251 0.036675 0.077449 0.13845 
0.07449 0.098823 0.07301 0.021878 0.035195 0.037497 0.054267 0.10063 
0.088958 0.098166 0.10145 0.037826 0.02533 0.041772 0.064461 0.054596 
0.063474 0.097508 0.10819 0.038812 0.013164 0.053938 0.044567 0.044073 
0.024015 0.088465 0.070708 0.01563 0.0087245 0.0421 0.041114 0.0014903 
0.0087245 0.066598 0.046375 0.019576 0.007738 0.031578 0.028947 0.0024767 
0.014808 0.037004 0.060844 0.048677 0.025166 0.044567 0.043416 -0.021856 
0.029112 0.045882 0.082875 0.029441 0.023851 0.04095 0.038155 0.02829 
0.069722 0.071531 0.089123 0.019905 0.022371 0.032893 0.048019 0.050486 
0.076299 0.047362 0.077285 0.041607 0.034866 0.0016547 0.033387 0.049992 
0.057555 0.034702 0.025166 0.020069 0.038155 0.023357 0.040785 0.048019 
0.039799 0.032071 -0.049642 0.031085 0.035031 0.020398 0.023028 -0.0070593 
0.014808 0.011848 -0.038791 0.052459 0.035195 0.025495 0.0032988 -0.02235 
0.00083261 0.0064227 -0.038462 0.025166 0.033551 0.019576 -0.001798 -0.05326 
0.016945 0.024179 -0.034352 0.025495 0.047526 0.038319 0.014479 -0.065097 
0.024508 0.048513 0.0044497 0.039799 0.04358 0.035524 0.0090533 -0.12807 
0.044402 0.045553 0.03536 0.022371 0.025495 0.026481 -0.025967 -0.17361 
0.054432 0.031578 0.029934 -0.027611 0.045882 0.030427 -0.076606 -0.068714 
0.037497 0.038319 0.033058 0.011191 0.018754 0.0070803 -0.0047575 0.03651 
0.047033 -0.00031829 0.012342 -0.0014692 -0.001798 -0.022679 0.028619 0.10737 
0.033058 -0.03616 -0.00064712 0.0039565 0.041114 -0.0042642 0.032564 0.12957 
0.062159 -0.0032777 -0.027775 0.012835 0.05476 0.073504 0.049335 0.15374 
0.082546 0.049992 0.035524 0.018589 0.031249 0.035031 0.062652 0.17462 
0.047691 0.062488 0.046375 0.038155 0.029605 0.024837 0.082382 0.17084 
0.057555 0.06594 0.040292 0.028125 0.019083 0.020069 0.053281 0.10787 
0.067256 0.095206 0.048513 0.024508 0.028125 0.017274 0.035853 0.05772 
0.041114 0.059528 0.041278 0.034866 0.029112 0.0034632 0.029605 0.045718 
0.044073 0.047362 0.043909 0.026974 0.015137 -0.0087034 0.058871 0.054596 
0.040785 0.035524 0.051801 0.032893 0.034866 0.041114 0.040785 0.062981 
0.038483 0.025824 0.049006 0.061172 0.035195 0.038155 0.025988 0.042429 
0.040621 0.014315 0.0056006 0.043087 0.040785 0.03388 0.030427 0.057391 
0.04095 0.028125 0.023522 0.047362 0.04095 0.024179 0.047691 0.020398 
0.035524 0.055254 0.066598 0.081067 0.041772 0.041443 0.021878 -0.010183 
0.010533 0.028454 0.027303 0.0051074 0.0060938 0.017438 -0.0016336 -0.0082102 
0.0067515 0.05213 0.053938 -0.016102 0.026481 0.0041209 0.01004 -0.0078813 
0.01267 0.067091 0.070544 0.039634 0.029934 0.019247 0.0070803 0.020891 
0.022042 0.047197 0.048513 0.042265 0.035524 0.047197 0.039634 0.053938 
0.029934 0.038812 0.021549 0.03799 0.032729 0.032564 0.039963 0.08008 
0.033058 0.045882 0.011191 0.065283 0.028454 0.033551 0.027632 0.068242 
0.032236 0.047362 -0.017582 0.014808 0.018918 0.021549 0.0090533 0.048841 
0.026317 0.034373 -0.011992 0.0024767 0.013164 0.0079024 0.034044 -0.0052507 
0.013164 0.038812 0.020562 0.030427 0.01974 0.011848 0.034373 -0.07414 
0.019576 0.058542 0.019905 0.02681 0.024179 0.019576 0.041278 -0.040271 
0.033551 0.032893 0.019905 0.01004 0.020727 0.03092 0.045718 -0.0059084 
0.042758 0.041278 0.025659 0.048348 0.021384 0.023851 0.065447 0.034537 
0.01974 0.035524 0.035524 0.019411 0.0324 0.0421 0.069886 0.069064 
0.019576 0.039963 0.056733 0.022206 0.020233 0.074983 0.050979 0.11411 
0.00066819 0.06331 0.092247 0.034044 0.032893 0.068571 0.018096 0.1391 
0.0088889 0.037168 0.096521 0.02533 0.038648 0.046704 0.028454 0.17807 
0.010533 0.04917 0.039141 0.038155 0.067749 -0.0060728 0.030427 0.19583 
0.0034632 0.04506 0.034044 0.034702 0.041443 -0.015116 0.022371 0.12184 
0.011684 0.051143 0.023522 0.020233 0.013328 -0.042408 -0.012814 0.055254 
0.023851 0.069229 0.019905 0.046046 0.0088889 -0.065097 -0.020541 -0.020706 
0.04095 0.07449 0.024179 0.050157 0.012177 -0.0098543 -0.0029489 -0.059672 
0.037332 0.057062 0.038155 0.028619 0.027961 0.066434 0.012506 -0.048656 
0.048348 0.07449 0.052294 0.046375 0.047855 0.06479 0.027961 -0.0031133 
0.02681 0.061666 0.023851 0.021056 0.017438 0.0088889 0.0074092 0.0085601 
0.0013258 0.076299 0.033551 0.0024767 -0.018075 -0.028433 -0.011334 0.0016547 
0.030098 0.063474 0.047033 0.055089 0.0047785 -0.078579 -0.021692 0.056076 
0.011191 0.042758 0.045553 0.012013 0.021713 -0.047669 -0.0078813 0.064461 
0.025824 0.053609 0.066105 0.019576 0.025824 0.0039565 0.050157 0.09685 
0.0037921 0.030098 0.073175 0.051472 0.047197 0.064954 0.074983 -0.0087034 
0.00033937 0.04358 0.043251 0.017438 0.020398 0.079094 0.058871 -0.046847 
0.0026412 0.053774 0.035853 0.017438 0.012013 0.06479 0.044238 -0.052109 
0.029769 0.06035 0.054596 0.04917 -0.0057439 0.06183 0.027303 -0.039942 
0.037661 0.03947 0.057227 0.033058 0.026646 0.084519 0.053774 -0.018239 
0.074161 0.065283 0.046868 0.046375 0.052294 0.056404 0.046868 0.044896 
0.063474 0.057555 0.073997 0.061995 0.048184 0.018096 0.014479 0.081889 
0.047033 0.062981 0.039305 0.033222 0.0034632 -0.0057439 -0.0054151 0.02681 
0.043909 0.067749 0.044567 0.013986 0.010697 -0.0091966 0.0064227 0.021713 
0.029276 0.066105 0.028454 0.043087 -0.017746 -0.0067304 0.022042 0.0037921 
0.033387 0.067749 0.0324 -0.0021268 0.0064227 0.017438 0.0051074 0.010862 
0.049499 0.069064 0.02681 0.025495 0.0421 0.065776 0.016288 0.072517 
0.079587 0.044402 0.018589 0.048348 0.04095 0.03651 0.036839 0.07301 
0.044402 0.017603 0.019247 0.036675 0.031907 0.02681 0.061501 0.077121 
-0.018075 0.012506 -0.0026201 0.030098 0.012506 0.023357 0.055747 0.060186 
-0.042408 0.04917 0.0059294 0.032236 0.031085 0.039963 0.010369 0.0052718 
-0.01676 0.040785 0.010369 0.033222 0.040456 0.0019835 -0.0011404 -0.034681 
0.03947 0.034537 0.026481 0.020562 0.036839 -0.021034 0.011684 -0.035996 
0.063474 0.046375 0.035031 0.015465 0.025824 -0.020212 -0.0072237 -0.036983 
0.081067 0.033222 0.018425 0.0023123 0.015465 -0.030735 0.024344 0.00017495 
0.089616 0.024344 -0.027775 0.028619 0.01826 -0.015773 0.045882 0.040128 
0.061008 0.0031344 -0.021034 0.034537 0.035688 0.02122 0.058871 0.035195 
0.03092 0.047033 0.027468 0.020069 0.041278 0.043745 0.044567 0.027139 
0.013492 0.038648 0.038648 0.029441 0.044731 0.014315 0.011191 0.0021479 
0.019576 0.044731 0.030756 0.012999 0.029934 -0.0004827 -0.0055795 0.014643 
0.037332 0.053116 0.024837 0.0082312 0.020562 -0.03057 -0.0077169 0.013821 
0.039634 0.044567 0.03536 0.031742 0.035195 0.016781 0.0019835 0.024179 
0.048513 0.043745 0.01711 0.010862 0.030427 -0.014951 -0.0060728 0.045882 
0.060186 0.040621 0.02533 0.026317 0.036839 0.023686 0.01563 0.030098 
0.042758 0.062817 0.040292 0.062652 0.040621 0.052294 0.043416 0.018589 
0.035195 0.047526 0.081395 0.03651 0.027961 0.10885 0.068736 0.0041209 
0.03799 0.025166 0.094548 0.035195 0.024179 0.081395 0.059364 -0.04323 
0.0227 0.055911 0.067585 0.061008 0.029441 0.069558 0.029934 -0.13941 
0.025001 0.01267 0.0080668 0.024179 0.019905 0.07597 0.017274 -0.18232 
0.024837 0.019411 -0.0096899 0.0085601 0.049992 0.059364 0.065118 -0.058521 
0.024015 0.065283 -0.0075525 0.063145 0.061501 0.013492 0.061666 0.13171 
0.033222 0.026646 -0.045368 0.030592 0.048184 0.027468 0.068407 0.23808 
0.024179 0.047033 -0.049971 0.045553 0.040128 0.012013 0.071859 0.23216 
0.025659 0.031578 -0.0024557 0.022206 0.012835 0.017603 0.047033 0.11444 
0.03536 0.069558 -0.040764 -0.018075 0.039141 0.018096 0.021713 0.062488 
0.0324 0.054267 0.019083 0.0047785 0.027139 0.010204 0.0059294 0.0052718 
0.021549 0.032071 0.01415 0.045718 0.038812 0.013657 -0.0026201 0.0060938 
0.019247 0.051636 0.026646 0.054267 0.038319 0.028125 0.021056 0.036346 
0.038812 -0.0014692 0.012835 0.049664 0.046704 0.051308 0.045389 0.063968 
0.014479 -0.023172 -0.0047575 0.050486 0.025659 0.053116 0.01152 0.016781 
0.0051074 0.017932 0.043909 0.017438 0.035688 0.017767 -0.029748 -0.031557 
-0.0014692 0.055254 0.086328 0.010862 0.03388 -0.014458 -0.061973 -0.13563 
0.0044497 0.066927 0.10326 0.017767 0.017932 -0.0050863 -0.0032777 -0.093212 
0.0056006 0.085177 0.10721 0.0042853 0.01563 0.0083956 0.051143 0.03536 
0.029112 0.083204 0.11148 0.047362 0.017767 0.00017495 0.060844 0.10655 
0.013986 0.076792 0.084848 0.058213 0.027468 -0.011498 0.057555 0.11214 
0.044567 0.055254 0.041607 0.048019 0.036675 0.023357 0.066598 0.06742 
0.056898 0.054267 -0.062631 0.061501 0.034209 0.047855 0.022535 0.050486 
0.044073 0.020233 -0.06444 0.022864 0.024179 0.0324 0.0085601 0.051472 
0.037661 0.025495 -0.023501 0.015959 0.011848 0.0421 0.042594 0.071202 
0.027468 0.032564 0.035853 0.046375 -0.0054151 0.031907 0.050486 0.043087 
0.028125 0.0421 0.072517 0.030263 -0.0060728 0.014643 0.03388 0.028125 
0.014808 0.0095465 0.051965 0.020891 0.017932 0.035195 0.035195 0.034044 
0.04358 0.0031344 0.045224 0.075312 0.043909 0.070215 0.061995 0.038648 
0.039141 0.050486 0.025001 0.071037 0.041114 0.12332 0.081395 0.043087 
0.033387 0.053609 0.014808 0.026974 0.03651 0.071366 0.045389 0.026974 
0.034537 0.07597 0.011848 0.020398 0.029934 0.028125 0.0051074 0.048019 
0.037004 0.049499 0.017603 -0.0095255 0.01974 0.030263 -0.0039354 0.034702 
0.043251 0.073339 0.028125 0.014972 0.023851 0.046704 0.015794 0.047855 
0.048677 0.074161 0.033058 0.031249 0.038319 0.023357 0.043745 0.049992 
0.037332 0.061172 0.017603 0.021878 0.0087245 0.04095 0.037004 0.053116 
0.037332 0.063474 0.010862 0.034537 0.024344 0.051472 0.03799 0.061995 
0.018425 0.031085 0.045389 0.058871 0.049992 0.034702 0.039141 0.041114 
0.02829 0.014808 0.040128 0.036182 0.028454 0.0039565 0.046375 0.031249 
0.0039565 0.011848 0.060515 0.027961 0.034702 0.0087245 0.0067515 -0.048656 
0.016945 0.035688 0.094877 0.026152 0.027468 0.023357 -0.003771 -0.133 
0.031578 0.034702 0.089123 0.0018191 0.026481 0.040456 0.0090533 -0.096665 
0.050157 0.049828 0.080409 0.021713 0.015301 0.016616 0.040128 0.051965 
0.051636 0.067256 0.074819 0.031742 0.026974 0.022042 0.046868 0.12628 
0.048019 0.053116 0.066598 0.024837 0.023522 0.0056006 0.027303 0.13828 
0.033551 0.057062 0.032236 0.024673 0.043416 0.0031344 0.020069 0.10918 
0.066598 0.082382 0.0044497 0.063639 0.038483 -0.023829 0.021549 0.026317 
0.030098 0.041443 -0.011498 0.0088889 -0.0021268 0.0072447 0.0059294 -0.026624 
0.0060938 0.023522 -0.013636 0.012999 -0.0014692 -0.0042642 -0.021528 0.0042853 
0.023357 0.030756 -0.026789 0.020891 0.015959 -0.0078813 0.018096 0.089945 
0.027139 0.055418 0.017767 0.041772 0.018754 0.01974 0.029769 0.14371 
0.025495 0.039305 0.027139 0.054267 0.040128 0.019411 0.062488 0.097179 
0.031414 0.049006 0.044896 0.036182 0.044402 -0.016924 0.020069 0.078272 
0.029441 0.048184 0.035031 0.021056 0.01004 -0.020048 0.011848 0.034044 
0.0083956 0.016945 0.010204 0.035688 0.0018191 0.014643 0.027303 0.016288 
0.018754 0.0069159 0.0093821 0.013821 0.015301 0.042758 0.057062 -0.0060728 
0.023686 0.034537 0.051965 0.0054362 0.049992 0.042923 0.049828 -0.0040998 
0.02533 0.0592 0.069558 0.041278 0.051801 0.041443 0.042265 -0.01232 
0.03092 0.055747 0.098001 0.013986 0.020233 0.062981 0.032729 -0.00031829 
0.017767 0.06183 0.094713 0.012342 0.014479 0.023028 0.0067515 -0.0068948 
0.00017495 0.083368 0.0689 0.04506 0.023357 0.00297 0.018754 0.01711 
-0.0050863 0.069229 0.052952 0.023686 0.040128 0.032564 0.01152 0.05772 
0.028454 0.053938 0.041443 0.010369 0.046704 0.027303 0.025001 0.044567 
0.019083 0.074161 0.036675 0.01563 0.04917 -0.00097594 0.021713 0.04506 
0.026152 0.049664 0.024673 0.0087245 0.024508 -0.012156 0.019083 0.027796 
0.050814 0.014808 0.016945 -0.0014692 0.017603 -0.0027845 -0.014787 0.034537 
0.046046 0.01974 0.016452 0.034209 0.0098754 -0.017746 -0.016102 0.007738 
0.061008 0.046046 -0.01232 0.048841 0.041936 -0.006566 -0.0032777 0.021056 
0.055747 0.03799 -0.0060728 0.044238 0.045389 0.028125 0.016123 0.027796 
0.059035 0.031414 -0.024158 0.044402 0.038319 0.044402 0.021713 -0.013636 
0.058377 0.050814 -0.015444 0.03651 0.036182 0.061337 0.038648 0.020727 
0.047197 0.06742 0.060022 0.034866 0.049992 0.054596 0.070215 0.031578 
-0.0039354 0.042594 0.089945 0.053609 0.057884 0.041936 0.083204 0.018589 
-0.03764 0.018754 0.0032988 0.027139 0.026152 0.01826 0.03536 0.020069 
-0.061809 -0.015773 -0.033201 0.022042 0.030592 -0.020212 -0.00064712 0.055911 
-0.034023 -0.015609 -0.030735 0.0052718 0.015465 -0.026131 -0.02942 0.1026 
-0.011498 0.025166 0.027303 -0.0078813 0.017603 0.014972 0.01826 0.10047 
0.044402 0.09422 0.091918 0.029769 0.012999 0.014643 0.063639 0.12201 
0.046868 0.073668 0.1077 -0.00097594 0.014315 0.027303 0.044731 0.062981 
0.043909 0.074161 0.060679 -0.0013048 0.0088889 -0.0013048 0.01826 0.0060938 
0.02829 0.068571 0.021713 0.030263 0.035195 0.029934 0.029769 -0.052766 
0.013821 0.035524 0.01563 0.033222 0.01974 0.01563 0.015301 -0.067399 
0.019576 0.050321 0.015959 0.040785 0.041936 0.029769 0.014972 -0.048492 
0.042429 0.048841 0.040128 0.099481 0.046046 0.043909 0.026481 -0.0078813 
0.069064 0.0689 0.082546 0.062652 0.050321 0.058706 0.042429 0.029112 
0.064296 0.047197 0.08008 0.053774 0.053281 0.033058 0.048348 0.012835 
0.053938 0.020233 0.0075736 0.025001 0.046375 0.042429 0.03799 0.0036276 
0.044567 0.051965 -0.015609 0.014479 0.033222 0.091425 0.013657 -0.011005 
0.028947 0.044073 -0.0078813 0.0079024 0.010862 0.067749 0.018096 -0.033859 
0.031742 0.017767 0.048841 0.0421 0.0095465 0.037004 0.0090533 -0.027775 
0.015301 0.042429 0.1003 0.031578 0.0013258 0.0039565 0.021713 0.016288 
0.01974 0.051143 0.1197 0.03092 0.0070803 0.01415 0.010369 0.10491 
0.034702 0.016945 0.061172 0.021713 0.020562 -0.0088678 0.019576 0.12694 
0.057555 -0.00097594 0.020398 0.0052718 0.0062583 -0.0039354 0.0324 0.18777 
0.039634 0.023193 -0.0068948 0.00083261 0.0019835 0.015301 0.0087245 0.15768 
0.020727 0.027632 -0.0042642 0.025495 0.0088889 0.028454 0.023357 0.1026 
0.020727 0.036182 -0.0004827 0.032236 0.031578 0.024344 0.02829 0.013657 
0.035853 0.075476 0.023851 0.034209 0.051472 0.010862 0.059693 -0.0039354 
0.053445 0.064625 0.032236 0.051143 0.039305 0.017932 0.056404 0.029769 
0.063145 0.051965 0.0085601 0.04506 0.043416 0.0034632 0.049335 0.072353 
0.050486 0.054432 0.018425 0.029112 0.0088889 -0.0021268 0.031742 0.050486 
0.024015 0.060844 0.016616 0.022864 0.014479 0.012177 0.018096 -0.015938 
0.029769 0.026646 0.015959 0.032071 0.023357 0.064954 0.034044 -0.057534 
0.031414 0.018425 0.022206 0.035195 0.039799 0.067256 0.048348 -0.052437 
0.040456 0.02681 0.035031 0.019247 0.029769 0.078765 0.060679 -0.0024557 
0.045882 0.028454 0.049006 0.02829 0.033222 0.075641 0.063968 0.01711 
0.041443 0.044896 0.065776 0.062488 0.045224 0.050979 0.077943 0.054103 
0.029112 0.0689 0.064625 0.028454 0.016123 0.018096 0.025001 0.044567 
0.016781 0.073668 0.03536 0.028783 0.0031344 -0.011992 -0.014787 -0.057863 
-0.0014692 0.047362 0.04358 0.030427 0.01974 0.00297 -0.055068 -0.19383 
0.013986 0.048677 0.054432 1.0539e-005 0.026646 -0.01939 -0.039613 -0.19959 
0.025824 0.058542 0.048513 0.011848 0.02681 -0.010183 0.0054362 0.026974 
0.038483 0.044402 0.031907 0.050979 0.033551 0.034702 0.036182 0.16607 
0.038155 0.02533 -0.0044286 0.027468 0.020562 0.053445 0.054103 0.17067 
0.039141 0.038483 -0.0026201 -0.0082102 0.020398 0.058871 0.075312 0.12003 
0.025166 0.018754 -0.0044286 0.0421 0.046375 0.036346 0.070051 0.073997 
0.044073 0.0074092 0.021056 0.032564 0.051965 0.056733 0.050979 0.07449 
0.027632 0.037004 0.044896 0.016123 0.034866 0.060844 0.043909 0.042923 
0.031085 0.063474 0.012835 0.049664 0.027468 0.056076 0.048841 0.041443 
0.033551 0.066434 0.0047785 0.039141 -0.004593 0.051636 0.042758 0.01711 
0.035688 0.059528 0.038812 0.029441 0.032071 0.075148 0.038155 0.030592 
0.058049 0.080409 0.041114 0.06331 0.046375 0.024508 0.035195 0.040292 
0.038483 0.058377 0.033222 0.025495 0.024508 -0.039613 0.015301 0.046046 
0.016452 0.051143 0.062159 0.020727 0.029769 -0.082032 0.0059294 0.06594 
0.032071 0.061995 0.043909 0.04358 0.033058 -0.081374 -0.01528 0.033715 
0.00033937 0.066598 0.012506 0.021384 0.019576 -0.064275 0.0085601 0.012013 
0.013821 0.028947 -0.0088678 0.0087245 0.031907 -0.064111 -0.014787 -0.035338 
0.044073 0.013657 0.011355 0.0047785 0.038812 -0.01117 0.034866 -0.0031133 
0.022864 0.062817 0.07301 0.0019835 0.011684 0.015465 0.0031344 0.067256 
0.016123 0.055911 0.073832 0.0072447 -0.023007 0.037661 -0.00015387 0.14223 
0.013164 0.012999 0.044896 0.011191 0.013821 0.054267 0.031578 0.10228 
0.037826 0.041607 -0.02498 0.013986 0.011355 0.099645 0.078765 0.039305 
0.03536 0.046211 -0.0082102 0.047197 0.041772 0.095042 0.076463 -0.017582 
0.041278 0.042429 0.0088889 0.060186 0.066927 0.076627 0.058871 -0.1256 
0.036017 0.047526 0.028619 0.046704 0.039963 0.072517 0.032893 -0.17016 
0.028783 0.048841 0.028454 0.063639 0.040621 0.038155 -0.003771 -0.08269 
0.030098 0.0021479 0.033551 0.052459 0.030098 0.0024767 -0.0059084 0.075641 
0.019905 0.0013258 -0.014458 0.015959 0.033551 0.00017495 -0.010019 0.1613 
0.0046141 0.01563 -0.0055795 0.031907 0.048019 0.029605 -0.003771 0.18383 
0.051965 0.014972 -0.0078813 0.022535 0.027961 0.039634 0.024344 0.12233 
0.061337 0.041114 0.0028056 0.038319 0.03536 0.027139 0.028783 0.01826 
0.075312 0.066269 0.018425 0.054267 0.03536 0.01152 0.01004 0.018754 
0.063803 0.079422 0.057391 0.01267 0.027632 0.023028 -0.0040998 -0.040928 
0.055911 0.051636 0.092082 0.013492 0.024837 -0.014129 -0.0062372 -0.109 
0.048841 0.06183 0.089452 0.03947 0.034537 -0.040106 0.0069159 -0.16342 
0.051801 0.07597 0.071037 0.020891 0.025824 -0.0087034 0.0065871 -0.13695 
0.04506 0.054596 0.03947 0.028619 0.025988 0.005765 0.029276 0.011026 
0.017274 0.03947 0.042758 0.054267 -0.0026201 -0.0068948 0.032729 0.12497 
0.010369 0.061501 0.050486 0.02533 0.011848 -0.024323 0.056733 0.19073 
0.023522 0.044073 0.060515 0.012013 0.019905 -0.009361 0.023193 0.14979 
0.020233 0.014315 0.013821 0.041114 0.03536 -0.02794 -0.0138 0.10967 
-0.039284 0.020891 -0.0032777 0.027961 0.031414 -0.00081153 -0.018568 0.056569 
-0.046025 0.022864 0.013164 0.02681 0.035524 0.034373 0.005765 0.021056 
-0.0083746 -0.0026201 0.032729 0.038483 0.017767 0.080738 0.043251 -0.0014692 
0.039141 0.024673 0.020727 0.021713 0.018096 0.069722 0.048184 -0.0004827 
0.080902 0.060679 0.052787 0.01267 0.026974 0.057062 0.057391 0.031742 
0.09274 0.041607 0.0592 0.033715 0.032893 0.052952 0.031578 0.043416 
0.089616 0.035688 0.02681 0.019083 0.017274 0.069886 0.057062 0.035688 
0.064132 0.052787 0.042594 0.019576 0.022535 0.04917 0.037497 -0.011334 
0.04917 0.077285 0.061337 0.025659 0.025988 0.042429 0.030263 -0.030406 
0.027139 0.045389 0.05624 0.017767 0.032893 0.043251 0.014808 -0.034845 
0.0098754 0.048348 0.019411 0.031414 0.036346 0.012177 0.02829 -0.030899 
0.00017495 0.043087 -0.010348 0.014972 0.020891 0.004943 0.01004 -0.01232 
0.017274 0.0324 -0.045696 0.0088889 0.013328 0.013164 0.01152 -0.0072237 
0.036346 0.023522 -0.0016336 0.038155 0.01826 0.05624 0.025824 0.024673 
0.035853 0.070544 0.043909 0.017932 0.038648 0.045224 0.06479 0.064461 
0.045882 0.082546 0.057062 0.036182 0.061172 0.040292 0.083533 0.073339 
0.01004 0.054267 0.042758 0.057391 0.038319 0.041443 0.049664 0.071202 
0.0019835 0.043251 0.073504 0.025166 0.066598 0.047362 0.048184 0.065283 
-0.001798 0.048677 0.055089 0.038977 0.03388 0.03092 0.045224 0.031414 
-0.0029489 0.017438 0.023193 0.030098 0.029769 0.02829 0.064461 0.019905 
0.019247 0.020727 0.030756 0.016288 0.025495 0.076299 0.047362 0.049992 
0.0093821 0.059857 0.04358 0.019247 0.033715 0.053445 0.0080668 0.052952 
0.016288 0.054925 0.041607 0.024673 0.025001 0.015301 0.036017 0.086328 
0.018425 0.077943 0.076463 -0.0031133 0.021878 0.047197 0.077778 0.073832 
0.0051074 0.080409 0.088301 0.029605 0.020069 0.049335 0.062817 0.085012 
0.007738 0.044731 0.009711 0.064461 0.031907 0.010533 0.032236 0.067749 
0.010369 0.0075736 -0.053588 0.021713 0.015959 -0.020212 -0.028597 0.0041209 
0.0044497 0.0060938 -0.057041 0.0070803 0.01004 -0.010348 -0.0057439 0.0031344 
0.025824 0.027303 -0.048163 0.047197 0.029276 0.01004 0.0083956 -0.033037 
0.061337 0.045718 0.022042 0.015959 0.017932 0.01974 0.022042 0.040621 
0.058377 0.086985 0.10129 0.042923 0.016781 0.0044497 0.041114 0.080409 
0.055254 0.087479 0.081395 0.022864 0.024673 0.022371 0.065776 0.075312 
0.055418 0.042594 0.053774 0.029276 0.014315 0.0044497 0.069558 0.071531 
0.037497 0.034209 0.05213 0.05213 0.037332 0.0039565 0.044567 0.030263 
0.03388 0.057555 0.11329 0.064296 0.063968 0.027139 0.044402 0.034866 
0.055254 0.065776 0.13105 0.04654 0.043909 0.076956 0.069229 0.024837 
0.0689 0.059528 0.11724 0.018096 0.042265 0.094384 0.090767 0.040621 
0.070708 0.071202 0.073504 0.023028 0.022206 0.094384 0.078436 0.076956 
0.048184 0.091918 0.01974 0.0075736 0.016616 0.056569 0.045389 0.11987 
0.025495 0.066105 -0.023172 0.029605 0.033551 0.0056006 0.0046141 0.076627 
0.00066819 0.052787 -0.083183 0.0082312 0.030263 -0.020377 0.021384 0.03092 
0.009711 0.051308 -0.095185 0.015137 0.015137 0.0014903 0.00099702 -0.001798 
0.0082312 0.041607 -0.06 0.04095 0.035195 0.043416 0.0087245 -0.015609 
0.0046141 0.026481 -0.02498 0.051965 0.01974 0.065447 -0.0068948 -0.051451 
0.016616 0.033551 0.0023123 0.035031 0.016288 0.024508 -0.0068948 -0.16539 
0.036017 0.031414 0.0028056 0.050321 0.034866 -0.03912 -0.055068 -0.26042 
0.031578 -0.0052507 -0.0004827 0.029934 0.0227 -0.035174 -0.053753 -0.17262 
0.033715 -0.0098543 0.038977 0.015137 0.030263 -0.067399 -0.038133 0.04358 
0.044402 0.00099702 0.094055 0.026974 0.0090533 -0.092226 -0.0078813 0.17396 
0.034209 0.023028 0.11477 0.0080668 0.026152 -0.056712 0.011355 0.19402 
0.046375 0.050814 0.1174 0.033222 0.028619 0.03092 0.029605 0.20043 
0.055254 0.074161 0.094548 0.07597 0.044896 0.048184 0.057884 0.19846 
0.056898 0.11099 0.051308 0.034537 0.037497 0.055254 0.071202 0.14239 
0.048841 0.10622 0.042265 0.032071 0.048348 0.045553 0.054925 0.028125 
0.055254 0.079422 0.03536 0.055418 0.018918 0.014315 0.026974 -0.048163 
0.034373 0.071695 0.051472 0.013492 0.0065871 0.0019835 0.017274 -0.082854 
0.052294 0.031085 0.041936 0.009711 0.016123 0.00066819 0.026646 -0.086964 
0.031578 0.012177 -0.0004827 0.035031 0.027961 0.05213 0.038648 -0.049314 
0.0082312 -0.00031829 0.005765 0.024179 0.015465 0.050814 0.0227 -0.02087 
0.022371 -0.016431 0.007738 0.035688 0.012342 0.027468 0.021056 -0.0044286 
0.056076 -0.0072237 0.041772 0.071859 0.040785 0.016945 0.0060938 -0.032708 
0.055911 1.0539e-005 0.047033 0.075805 0.049828 -0.0075525 0.024837 0.023357 
0.071202 0.032729 0.01563 0.071366 0.064296 -0.019555 0.0092177 0.0227 
0.062981 0.023686 -0.056548 0.022206 0.041607 -0.032872 -0.0054151 0.0075736 
0.020891 0.040456 -0.10291 -0.0032777 0.021713 -0.021692 -0.0064016 0.027632 
-0.0013048 0.11576 -0.067728 -0.013143 0.023193 -0.0077169 0.012835 0.0087245 
0.016123 0.10951 -0.056712 0.0024767 0.032071 0.0026412 0.009711 0.023686 
-0.0019624 0.069722 -0.03205 -0.031064 0.0093821 0.013164 0.016288 0.015301 
0.0087245 0.080573 0.066105 0.024508 0.019576 0.046375 0.005765 0.0227 
-0.0032777 0.096357 0.1225 0.041278 0.034537 0.032893 0.040128 0.031907 
0.034866 0.088465 0.081231 0.059528 0.026317 0.031085 0.040128 0.064132 
0.037332 0.049335 0.069229 0.054925 0.022042 0.023686 0.019576 0.042923 
-0.026624 0.028454 0.089123 0.027632 0.0090533 0.02533 0.021056 0.066927 
-0.080388 -0.010512 0.16196 -0.031392 0.01004 0.014808 0.023522 0.040621 
-0.051451 -0.01528 0.18925 0.057555 0.022535 0.0098754 0.043251 0.0059294 
-0.014622 0.0072447 0.13779 0.044402 0.038319 0.034209 0.051636 0.00050378 
-0.0016336 0.046704 0.041278 0.059857 0.030756 0.056898 0.035688 0.0070803 
0.028947 0.071695 0.010697 0.10145 0.052459 0.058871 0.044073 0.037826 
0.066434 0.047691 -0.048985 0.084026 0.060844 0.053116 0.064132 0.036675 
0.068078 0.023028 -0.10883 0.049499 0.064625 0.042594 0.032893 0.034537 
0.077778 -0.0077169 -0.11738 0.025001 0.047197 0.035688 0.031085 0.051472 
0.11313 0.0016547 -0.074962 -0.023829 0.022535 0.045389 0.033058 0.055254 
0.091589 0.04506 -0.038791 -0.039449 0.012177 0.044567 0.041772 0.055747 
0.057227 0.070051 -0.0049219 -0.006566 0.0044497 0.026646 0.028454 0.035195 
0.024837 0.041114 0.078107 -0.014787 0.02122 0.022371 0.026317 0.022371 
-0.027282 0.054596 0.1003 0.0098754 0.026481 0.014972 0.016945 0.015794 
-0.070194 0.061008 0.072024 0.023522 0.034702 0.031249 -0.0054151 0.02829 
-0.041915 0.038648 0.070051 0.021056 0.014315 0.012999 0.027139 0.020562 
-0.020541 0.068242 0.050979 0.04654 0.0090533 0.0014903 0.022864 0.028783 
0.017438 0.085012 0.02829 0.056076 0.028125 -0.0022913 0.019083 0.054432 
0.046211 0.088136 0.012013 0.034866 0.036675 0.035853 0.020398 0.07301 
0.041443 0.05065 0.052294 0.047691 0.029441 0.034866 0.057391 0.13171 
0.036346 0.082217 0.19813 0.051965 0.046211 0.030427 0.06479 0.17297 
0.038155 0.056569 0.24104 0.041114 0.0018191 0.030263 0.047033 0.1151 
0.017603 0.0087245 0.159 0.081889 -0.00064712 0.0013258 0.045882 0.014972 
0.017767 -0.008539 -0.057534 0.021384 0.0065871 0.0227 0.049992 -0.0068948 
0.0324 0.016781 -0.1963 -0.023172 0.022371 0.069229 0.01711 -0.0011404 
0.038648 -0.00097594 -0.16407 0.020891 0.03651 0.080573 0.035853 -0.0026201 
0.028947 0.0062583 -0.068714 -0.0091966 0.060186 0.053281 0.05065 0.041607 
0.043251 0.070873 -0.017746 0.031249 0.039799 0.053938 0.057391 0.016945 
0.065118 0.067585 0.029934 0.053609 0.026646 0.04358 0.03799 0.0069159 
0.037661 0.060022 0.038155 0.014479 0.013492 0.054925 0.043745 -0.033365 
0.038812 0.062981 0.05213 0.01826 0.032564 0.047526 0.016452 -0.0077169 
0.048513 0.080573 0.080244 0.043251 0.043087 0.06331 0.026481 0.025659 
0.061172 0.024179 0.05213 0.02533 0.04917 0.029112 0.027468 0.078765 
0.036675 -0.026953 0.010862 0.00083261 0.0067515 0.0039565 -0.012156 0.014808 
0.038977 -0.030242 0.038319 0.018918 -0.00097594 -0.022679 -0.023007 -0.087622 
0.028619 -0.0057439 0.085999 0.0014903 0.0021479 -0.032379 0.0067515 -0.02498 
0.044731 0.03947 0.085835 -0.010348 0.016945 -0.0075525 0.049664 0.064954 
0.047197 0.091096 0.078929 0.010862 0.04095 -0.0060728 0.047197 0.10737 
0.038483 0.10869 0.044238 0.0075736 0.028619 -0.0095255 0.027468 0.049335 
0.045389 0.08008 0.023686 0.03947 0.034044 -0.026789 0.0018191 -0.051451 
0.044238 0.073668 0.035853 0.028125 0.016288 -0.024487 -0.034352 -0.10784 
0.042923 0.067749 0.029605 0.012342 0.019576 -0.040271 -0.03205 -0.059343 
0.042594 0.049664 0.019576 0.020891 0.030263 -0.019226 -0.0082102 0.054925 
0.041772 0.054432 0.0036276 0.032236 0.045718 0.061501 0.037826 0.098823 
0.040292 0.072846 -0.0014692 0.038483 0.037497 0.058871 0.10754 0.12858 
0.038812 0.058213 0.014315 0.035195 0.030263 0.075312 0.097837 0.10803 
0.012999 -0.001798 -0.0049219 0.042758 0.040456 0.034537 0.063145 0.08567 
0.026317 0.055747 0.016123 0.020891 0.020727 0.041443 0.038483 0.059035 
0.037004 0.055747 0.055747 0.041278 0.032071 0.022535 0.024508 0.031085 
0.030263 0.046868 0.031249 0.02681 0.045718 0.0093821 0.044073 0.032729 
0.025659 0.031085 0.033715 0.042923 0.04506 0.02681 0.020891 -0.00097594 
0.044238 0.072846 0.023028 0.042923 0.018918 0.013821 0.013492 0.0059294 
0.021384 0.0044497 0.025495 0.010369 0.020891 -0.010841 0.005765 0.0021479 
0.019247 0.016616 0.013492 0.0082312 0.029605 -0.025802 0.0069159 -0.0072237 
0.01004 0.047855 0.035195 0.054925 0.053609 -0.012156 -0.0032777 -0.0022913 
0.010533 0.050321 0.043087 0.033222 0.043087 0.014972 -0.0042642 -0.0050863 
0.023686 0.055747 0.029441 0.033387 0.026481 0.034702 0.0092177 0.012177 
0.00099702 0.043087 0.041936 0.04917 0.026317 0.030756 0.04358 0.010369 
0.007738 0.079258 0.047691 0.022864 0.018754 0.050321 0.030263 0.017932 
0.029605 0.061666 0.060186 0.016123 0.016781 0.021056 0.035524 -0.013965 
0.033715 0.061666 0.083533 0.044402 0.018918 0.0093821 0.018425 0.0037921 
0.041114 0.091753 0.073504 0.017767 0.037004 0.00297 0.042265 0.0093821 
0.051636 0.07038 0.070215 0.027632 0.010204 0.0080668 0.0080668 0.025824 
0.034702 0.050814 0.043909 0.033387 0.026317 0.013986 0.011848 0.047855 
0.027961 0.062488 0.050814 0.044402 0.036675 0.018096 0.018589 0.026974 
0.019905 0.045224 0.047033 0.03092 0.044238 0.034537 0.064461 0.073832 
0.0079024 0.022371 0.057884 0.055911 0.05065 0.032893 0.030427 0.043416 
0.019083 0.016945 0.088301 0.039799 0.0065871 0.049828 0.051308 0.05772 
-0.0047575 0.046868 0.045224 0.0324 0.014643 0.029276 0.063474 0.077449 
0.024015 0.046046 0.017932 0.048184 0.015301 0.046868 0.10474 0.10672 
0.016616 0.030263 0.020233 0.024015 0.026481 0.084519 0.12168 0.12053 
0.01004 0.061008 -0.012649 0.015794 0.047691 0.1003 0.11115 0.10573 
-0.0044286 0.03092 0.030263 0.044402 0.050486 0.060679 0.043745 0.049499 
0.025495 0.026481 0.037332 0.025988 0.016781 0.023522 -0.011827 -0.017582 
0.049828 0.029605 0.060186 0.057884 0.025988 -0.014458 0.0054362 -0.019555 
0.06183 0.047691 0.049828 0.053938 0.029276 -0.01117 -0.0095255 0.018754 
-0.0024557 0.034702 0.052787 0.0072447 -0.0078813 -0.023501 -0.0052507 0.057391 
0.023193 0.025495 0.03947 0.043416 0.014808 -0.012814 -0.0021268 0.062817 
0.031578 0.062652 0.043909 0.04095 0.015137 -0.025802 0.016616 0.070708 
0.0324 0.05624 0.049992 0.015301 0.012506 -0.026296 0.014808 0.01415 
0.047197 0.029934 0.056569 0.057227 -0.0055795 -0.022021 0.00099702 -0.094527 
0.034702 0.0227 0.014972 0.019411 0.021384 -0.026131 -0.024158 -0.121 
0.029276 0.024837 0.011026 0.0028056 0.026646 0.011355 0.036182 0.030756 
0.029441 0.017767 0.010533 0.062323 0.039634 0.032729 0.035031 0.13417 
0.025495 0.048677 0.017932 0.035524 0.058871 0.050814 0.043087 0.13697 
0.025659 0.059035 0.027796 0.021056 0.015959 0.051143 0.061008 0.082875 
0.035853 0.048841 0.03947 0.031249 -0.0022913 0.08863 0.070544 0.067749 
0.035524 0.022864 0.025659 0.016616 0.0059294 0.085177 0.068078 0.058213 
0.040621 0.041443 0.011355 0.013328 0.022206 0.056733 0.03947 0.078272 
0.034373 0.049992 0.0070803 0.042758 0.039963 0.017767 0.011026 0.020233 
0.038977 0.033551 0.018754 0.016616 0.03799 -0.003771 0.014315 -0.036983 
-0.0029489 0.01004 0.019411 0.01415 0.026317 0.044896 0.034044 -0.09946 
0.010697 0.037661 0.0227 0.027961 0.022206 0.038155 0.035031 -0.11163 
0.0085601 0.01267 0.038812 0.023851 0.040292 0.029276 0.023193 -0.041093 
0.037004 0.025659 0.0065871 0.021713 0.029934 0.02681 0.013164 0.03947 
0.064132 0.0689 0.0039565 0.041772 0.032236 0.027468 0.026317 0.096028 
0.05476 0.029769 0.012342 0.027303 0.048019 0.019083 0.028619 0.093891 
0.036182 0.01267 0.01826 0.039799 0.024015 0.01267 0.027961 0.09833 
0.02533 0.034373 0.025824 0.020069 0.018918 0.014643 0.00050378 0.060186 
0.03388 0.043909 0.035524 -0.017253 0.020398 -0.008539 0.017932 0.05772 
0.035524 0.038812 0.0052718 0.027961 0.035524 -0.0049219 0.0023123 0.0083956 
0.045224 0.030592 0.0079024 0.01711 0.04095 -0.016924 -0.017088 -0.03501 
0.013986 0.052787 0.024344 0.011848 0.034044 -0.0014692 -0.010841 -0.044381 
0.038319 0.045882 0.031578 0.032564 0.025988 -0.012814 0.010533 0.041114 
0.036182 0.039799 0.0070803 -0.012978 0.04358 -0.0067304 0.072353 0.090109 
0.041278 0.055747 0.039963 0.010369 0.028619 0.036839 0.028619 0.049828 
0.03799 -0.0034422 0.023193 0.021056 0.019083 0.063145 0.059693 -0.020706 
0.015301 0.015301 -0.015938 0.0042853 0.036182 0.053445 0.036182 -0.032379 
0.01711 0.048677 -0.027775 0.010862 0.021056 0.025988 0.040621 -0.035667 
0.047855 0.064132 0.0016547 0.043416 0.011848 0.030756 0.029276 0.016123 
0.081889 0.064132 -0.0052507 0.039141 0.023522 0.0052718 0.027961 0.039963 
0.051636 0.047033 0.038483 0.019576 0.0051074 0.0046141 0.007738 0.012342 
0.035853 0.052952 0.041278 0.051472 0.023522 0.03536 0.018589 -0.009361 
0.02681 0.023851 0.01711 0.028783 0.047855 0.076956 0.040292 0.025495 
0.010204 0.025166 -0.00015387 0.045389 0.054432 0.075312 0.051965 0.088301 
-0.044381 0.029441 0.020562 0.06035 0.036839 0.053116 0.048841 0.11165 
-0.040106 0.058377 0.038648 0.02829 0.037661 0.039305 0.041114 0.073504 
-0.0031133 0.04917 0.073175 0.017767 0.040456 0.027961 0.01415 0.012013 
0.050157 0.068407 0.10885 0.041114 0.054925 0.024508 0.027961 0.021056 
0.057555 0.07301 0.079094 0.023193 0.051308 0.027632 0.038648 -0.01232 
0.043087 0.056076 0.031249 0.017438 0.029605 0.065776 0.015794 -0.020706 
0.031578 0.054596 -0.011334 0.014808 0.034866 0.012999 0.032071 -0.05326 
0.034866 0.077614 -0.0091966 0.010862 0.016945 -0.02498 -0.00015387 -0.050958 
0.014643 0.069558 0.031249 0.0067515 0.015794 -0.038298 0.020562 -0.044052 
0.010204 0.040785 0.053281 0.025166 0.034209 -0.010348 0.010533 -0.045039 
-0.011334 0.015959 0.041443 0.018425 0.043416 -0.0011404 0.01711 -0.046354 
0.020891 0.036017 -0.0088678 0.025988 0.004943 0.0079024 0.00066819 0.045389 
0.051308 0.024837 -0.045532 0.021713 0.012342 0.041114 0.016123 0.17807 
0.068242 0.01974 -0.040106 0.020562 0.019247 0.038648 0.03536 0.19846 
0.070544 0.045718 0.00066819 0.03947 0.052459 0.051308 0.072353 0.17347 
0.060515 0.035195 0.0060938 0.028783 0.052952 0.050486 0.07449 0.10589 
0.053116 0.037826 0.025988 0.045389 0.051472 0.073668 0.057555 0.062981 
0.024673 0.064461 0.032236 0.041607 0.032564 0.041443 0.055254 0.038648 
0.013328 0.066105 0.013492 0.020727 0.028783 0.027961 0.05065 0.028783 
0.013492 0.058871 0.02122 0.056076 0.031742 0.025824 0.032564 0.030756 
0.032071 0.029112 0.040456 0.060844 0.017438 0.0088889 0.0021479 0.024673 
0.05476 0.039305 0.062488 0.028619 0.039634 -0.029913 0.00083261 0.053281 
0.065118 0.046046 0.10047 0.023193 0.020233 -0.006566 0.016123 0.047362 
0.059528 0.044238 0.11132 0.03651 0.0042853 0.010204 0.013492 0.051636 
0.056569 0.0689 0.0421 0.017603 0.005765 0.027303 0.026152 0.045882 
0.042758 0.061666 -0.011334 0.029769 0.011684 0.059528 0.03092 0.011191 
0.027961 0.025495 -0.023501 0.02829 0.02681 0.0324 0.016781 -0.058028 
-0.0096899 0.050321 -0.02087 0.021549 0.071202 0.023028 0.020562 -0.19975 
0.028454 0.063639 0.0031344 0.012342 0.009711 0.0070803 -0.046025 -0.30744 
0.0324 0.047855 0.077285 0.060515 -0.016266 -0.0059084 -0.01676 -0.23954 
0.056569 0.055254 0.045882 0.028619 0.010533 -0.014787 0.01004 0.066927 
0.068407 0.071366 0.018918 0.0085601 0.0042853 0.016616 0.068571 0.23989 
0.053116 0.0019835 -0.039942 0.019576 0.017438 0.010369 0.069229 0.26653 
0.030592 -0.0054151 -0.018404 0.01826 0.033551 0.034209 0.066434 0.20471 
0.029441 0.021878 0.050157 0.037826 0.062323 0.063968 0.062981 0.15045 
0.043909 0.070215 0.11083 0.051636 0.039963 0.025495 0.057555 0.086163 
0.044567 0.067585 0.12135 0.032564 0.029276 0.026317 0.044731 0.046211 
0.050486 0.068078 0.07597 0.028454 0.02533 0.013986 0.03388 0.027303 
0.048677 0.068242 0.049828 0.051472 0.046211 0.015959 0.025001 0.00050378 
0.029112 0.057884 -0.00031829 0.012506 0.026974 0.014808 0.038648 -0.0050863 
0.02681 0.045882 -0.0021268 0.034209 0.0018191 0.027796 0.039963 -0.012814 
0.039141 0.058871 0.010697 0.032729 0.020069 0.03388 0.021713 -0.015444 
0.03536 0.051965 0.040621 0.017274 0.02122 0.054596 0.0088889 -0.010676 
0.028619 0.038812 0.08567 0.049499 0.024179 0.030756 0.00017495 -0.014787 
0.015465 0.024179 0.05772 0.047033 0.035853 0.0056006 0.028454 0.00066819 
0.016616 0.023851 0.017438 0.034373 0.0074092 0.0051074 0.020398 0.011026 
0.010533 0.0092177 -0.0055795 0.07449 0.021713 -0.0016336 0.00099702 0.038977 
-0.008539 0.00033937 0.00017495 0.055089 0.030756 -0.0060728 0.035195 0.029441 
0.014479 0.03947 0.04358 0.030098 0.034373 0.005765 0.053281 0.070544 
0.056733 0.049664 0.066105 0.065283 0.022864 0.044567 0.074983 0.085177 
0.063474 0.059693 0.051308 0.0075736 0.04358 0.054267 0.073175 0.080738 
0.061666 0.088794 0.073668 0.031907 0.00066819 0.048841 0.034209 0.098494 
0.055911 0.096686 0.11066 0.039141 0.0324 0.051472 0.043745 0.046046 
0.046375 0.074819 0.11132 0.02533 0.036675 0.050321 0.01563 0.048184 
0.016288 0.082875 0.090931 0.024508 0.027139 0.025495 -0.0054151 0.039305 
0.03092 0.1026 0.072681 0.040292 0.033715 0.0044497 0.0072447 0.038319 
0.011026 0.042758 0.0072447 0.0018191 0.031085 0.028783 0.016123 0.040292 
-0.0062372 0.03388 -0.030899 0.0054362 0.0042853 0.029441 0.010204 0.028125 
-0.010841 0.053938 -0.0024557 0.043745 0.026152 0.019083 0.0047785 0.0031344 
0.025001 0.069229 0.061008 0.045224 0.031249 0.014315 0.014643 -0.069865 
0.028454 0.046868 0.09422 0.054432 0.028783 0.03536 -0.0055795 -0.1769 
0.01826 0.013492 0.12053 0.073668 0.041772 0.025001 0.0072447 -0.14582 
0.013821 0.020233 0.088136 0.053445 0.026974 0.00297 0.012506 0.045224 
-0.00081153 -0.055232 -0.036818 0.041772 0.012506 0.010204 0.037661 0.14831 
-0.0021268 -0.091732 -0.1136 0.041443 0.027139 0.027632 0.020398 0.17824 
0.039141 -0.043559 -0.085485 0.040785 0.035688 0.026646 0.072353 0.14502 
0.049992 0.031578 -0.008539 0.053938 0.056076 0.031249 0.061501 0.10836 
0.024344 0.078436 0.0592 0.01974 0.035031 0.03388 0.027961 0.069722 
0.0083956 0.11543 0.12069 -0.016431 0.014972 0.020562 0.02533 0.016616 
-0.0088678 0.10145 0.071037 0.0037921 0.0024767 0.0019835 0.035031 0.071695 
-0.030406 0.057227 0.04095 0.00033937 0.0098754 -0.001798 0.043745 0.064296 
-0.037476 0.054925 0.018918 -0.0059084 0.011684 0.034373 0.03536 0.024015 
-0.0019624 0.063803 0.012506 0.037004 0.013328 0.042758 0.040292 0.030592 
0.022535 0.046211 0.045553 0.021713 0.03388 0.058706 0.051308 0.030427 
0.05624 0.063968 0.071859 0.0034632 0.045718 0.081889 0.05476 0.023522 
0.061995 0.052623 0.10836 0.056898 0.027139 0.093891 0.021713 0.00017495 
0.04917 0.04917 0.093726 0.021713 0.015137 0.086985 0.03092 0.015137 
0.062817 0.01563 0.03947 0.024508 0.026481 0.078107 0.03388 -0.0055795 
0.072024 0.01974 0.0095465 0.049992 0.032893 0.058213 0.034044 0.0075736 
0.046375 0.033222 -0.019061 0.020562 0.03388 0.016616 -0.008539 0.0080668 
0.041607 0.036839 -0.016595 0.031742 0.043416 -0.027282 0.0054362 0.014643 
0.036017 0.023357 0.034537 0.045224 0.022371 -0.043559 0.020398 0.021549 
0.018918 0.048348 0.032236 0.030098 0.022206 -0.027282 -0.001798 0.034373 
0.0016547 0.023028 0.0039565 0.018589 0.01267 -0.078908 -0.054904 0.034537 
0.047197 0.0037921 -0.048492 0.021056 0.026646 -0.096007 -0.063618 0.0028056 
0.075641 0.007738 -0.12166 -0.011663 0.037004 -0.082854 -0.063618 0.00066819 
0.10162 0.024179 -0.13843 0.0014903 0.023522 -0.0406 0.0051074 -0.013143 
0.063803 0.036017 -0.072003 0.042923 0.04095 -0.0031133 0.029934 -0.033365 
0.0041209 0.053116 0.013492 0.02681 0.038319 0.042923 0.032893 -0.022843 
-0.047669 0.043251 0.026974 0.020233 0.027961 0.069064 0.055911 0.0042853 
-0.031064 0.0080668 0.024344 0.0026412 0.012177 0.076792 0.051308 0.043251 
0.0085601 0.023851 0.047033 0.0024767 0.02681 0.084519 0.067256 0.054596 
0.014315 0.083862 0.069064 0.022206 0.035524 0.056733 0.053609 0.065118 
0.024673 0.070873 0.071366 0.024015 0.025988 0.060186 0.051472 0.03092 
0.033715 0.041772 0.076134 0.0095465 0.037168 0.048348 0.039141 0.050157 
0.04095 0.062488 0.084355 0.028454 0.037661 0.03388 0.056898 0.056898 
0.048841 0.083368 0.13253 0.021878 0.043909 0.012177 0.032071 0.066269 
0.055089 0.071037 0.14206 0.020727 0.026974 -0.0059084 0.014315 0.048019 
0.041607 0.066434 0.10491 0.030756 0.02122 -0.020377 0.020069 0.057555 
0.03092 0.082546 0.022042 0.0088889 0.0079024 -0.001798 0.024344 0.069886 
0.053609 0.064461 -0.014951 0.015301 0.02533 0.052952 -0.0029489 0.0037921 
0.034373 0.039634 -0.067235 0.034209 0.041772 0.035853 -0.0040998 -0.020048 
0.05624 0.060022 -0.060987 -0.0036066 0.04358 0.020562 0.025166 -0.042408 
0.045224 0.056076 -0.059507 0.028125 0.032071 0.005765 0.044238 -0.017911 
0.048513 0.051143 -0.028597 0.049992 0.027961 0.017767 0.044402 0.0092177 
0.047033 0.044731 -0.0075525 0.025659 0.020562 1.0539e-005 0.029605 0.048677 
0.072681 0.053281 0.018096 0.036346 0.026152 0.00083261 0.053609 0.14716 
0.054925 0.019083 0.034866 0.051801 0.040292 0.026481 0.041443 0.13302 
0.050321 0.0011614 0.004943 0.02533 0.053281 0.038812 0.039305 0.10573 
0.021384 0.046375 0.04095 0.035688 0.057555 0.0051074 0.013492 0.010204 
0.013821 0.071531 0.088794 0.055582 0.019905 0.0047785 0.00297 -0.044381 
-0.004593 0.057391 0.088958 0.037004 0.027796 0.012177 -0.0049219 -0.030077 
-0.017088 0.069886 0.097837 0.027139 0.025988 0.0042853 0.02533 0.0011614 
-0.029913 0.07449 0.086985 0.037168 0.036346 0.050321 0.024015 0.058049 
-0.022185 0.03947 0.047526 0.009711 0.034373 0.089945 0.050814 0.06479 
-0.0087034 0.0324 0.057391 0.004943 0.022864 0.1368 0.079258 0.032893 
0.028619 0.04506 0.047526 0.017438 0.013986 0.086821 0.093891 0.0072447 
0.099316 0.042923 0.034702 0.032564 0.035031 0.045553 0.077449 0.050486 
0.085177 0.052787 0.029276 0.057555 0.043251 0.022206 0.054925 0.045553 
0.076627 0.074654 0.061337 0.053281 0.054103 0.014479 0.040785 0.0324 
0.055911 0.052623 0.012999 0.02829 0.048184 0.010204 0.036675 0.028947 
0.030098 0.02829 -0.0095255 0.046375 0.020398 0.0041209 0.039634 0.032236 
0.035195 0.032564 -0.012978 0.020069 0.011191 0.017603 0.015465 0.033222 
0.024673 0.059693 -0.0032777 0.013986 0.018754 0.0052718 0.0088889 0.027468 
0.030756 0.031414 0.0227 0.059693 0.010533 -0.013636 0.010533 0.022206 
0.026974 0.021549 0.058706 0.036182 0.030098 -0.050958 -0.0055795 -0.031228 
0.0067515 0.032564 0.063639 0.004943 0.02829 -0.050958 -0.028104 -0.020212 
0.017438 0.01826 0.026317 0.036839 0.0024767 -0.026624 -0.019555 0.010697 
0.0060938 0.016945 0.026481 0.004943 -0.0072237 0.021713 0.031249 0.072188 
0.03536 0.038812 0.073175 0.020398 0.023522 0.068571 0.0592 0.1544 
0.054925 0.057884 0.064296 0.056076 0.031414 0.084848 0.076956 0.19402 
0.036839 0.044731 0.072681 0.019247 0.0421 0.087972 0.069886 0.15752 
0.0019835 0.051965 0.068407 0.023028 0.029769 0.06331 0.074654 0.023686 
0.013986 0.058213 0.055418 0.061666 0.026481 0.076627 0.048841 -0.057534 
0.03092 0.0324 0.020069 0.033715 0.029769 0.06183 0.035688 -0.049971 
0.040128 0.037332 0.013492 0.025824 0.019576 0.02122 0.025988 -0.022679 
0.039963 0.067091 0.022042 0.026646 0.020233 0.015794 0.0072447 0.01826 
0.039799 0.047197 0.020891 0.0088889 0.034537 0.01974 0.012177 0.013492 
0.046046 0.037826 0.03947 0.016781 0.023522 -0.00064712 0.00099702 0.01415 
0.047691 0.041114 0.067913 0.060186 0.0052718 -0.012156 -0.035832 -0.027282 
0.03799 0.05624 0.041114 0.028783 0.027468 0.01563 -0.020541 -0.086636 
0.019411 0.02829 0.046868 0.034537 0.034044 0.0019835 -0.029748 -0.091897 
0.0023123 0.021549 0.022371 0.034044 0.028454 0.010862 0.01711 0.0064227 
0.026152 0.04917 0.041278 0.025166 0.031249 -0.010348 0.038319 0.072353 
0.031085 0.043416 0.039634 0.015137 0.0087245 0.0060938 0.025659 0.055089 
0.043745 0.02533 0.050157 0.030427 0.030098 0.0064227 0.015465 -0.038462 
0.030098 0.034044 0.043745 0.012835 0.016945 0.016288 0.01267 -0.088773 
-0.012649 0.14108 -0.0098543 0.073668 0.031907 0.027139 0.044567 0.023851 
0.044238 0.041607 0.01152 0.043909 0.038812 0.035195 0.041607 0.12825 
0.040785 0.053609 0.0014903 0.040785 0.047362 0.0054362 0.056569 0.12562 
0.031249 0.065776 0.030427 0.031742 0.0098754 0.023522 0.065776 0.076299 
0.037661 0.057555 0.08567 0.015301 0.013492 0.02829 0.029934 0.044731 
0.016123 0.034537 0.023686 0.00099702 0.0069159 0.039963 0.023357 0.031249 
-0.014787 0.030592 0.0074092 0.036182 0.01826 0.03536 0.014808 0.050321 
0.01711 0.024673 -0.011498 0.015794 0.019905 0.021878 0.042758 0.046046 
0.0056006 0.027961 0.0069159 0.020891 0.036675 0.047691 0.023028 0.043909 
0.032729 0.039799 0.015794 0.071202 0.018918 0.038319 0.028619 0.046046 
0.03092 0.072024 0.079094 0.034373 0.018754 0.034373 0.012342 0.0018191 
0.022864 0.061008 0.090274 0.034373 0.018425 0.0324 0.0095465 -0.056712 
0.010533 0.041772 0.05213 0.054103 0.040292 0.017438 -0.0060728 -0.18857 
0.0019835 0.058377 0.028783 0.013821 0.062981 0.0072447 -0.03616 -0.25072 
0.012999 0.033222 0.033058 0.0087245 0.026317 -0.019226 -0.018897 -0.12198 
0.041936 0.038648 0.018754 0.043416 0.012835 0.025824 0.04095 0.073997 
0.042429 0.04095 0.012342 0.019411 0.017932 0.036675 0.073668 0.17495 
0.035195 0.051965 0.0042853 -0.0013048 0.028619 0.023686 0.069886 0.17856 
0.045224 0.05213 0.013492 0.035524 0.036839 0.041936 0.038812 0.147 
0.032893 0.061337 0.043251 0.030427 0.059528 0.058871 0.032236 0.11296 
0.018754 0.068736 0.052787 0.035195 0.041772 0.031249 0.054103 0.091425 
0.015137 0.035688 0.050321 0.046211 0.032236 0.023851 0.029112 0.099645 
0.013986 0.034702 0.030098 0.017438 0.0044497 -0.0004827 0.011191 0.072681 
0.024673 0.040456 0.013492 0.0044497 0.015301 0.034209 0.010533 0.039963 
0.020562 0.038648 -0.018239 0.026974 0.037826 0.039963 0.029769 0.016616 
0.031414 0.052952 -0.010676 0.020727 0.052787 0.02681 0.032893 -0.0039354 
0.011355 0.054596 0.048019 0.027632 0.043251 0.028783 0.0031344 -0.030735 
0.027303 0.068407 0.086821 0.046375 0.041114 0.027632 0.013164 -0.048327 
0.044402 0.052294 0.081231 0.051143 0.030263 0.043251 0.047197 -0.027611 
0.047033 0.031907 0.042429 0.045718 0.032893 0.038812 0.054267 0.0019835 
0.031907 0.045718 0.025001 0.016945 0.020891 0.049992 0.0592 0.090274 
0.054103 0.031249 -0.0098543 0.019411 0.039141 0.024015 0.058871 0.086328 
0.054267 0.033222 0.0075736 0.046375 0.018589 0.033551 0.069722 0.11099 
0.053938 0.031414 0.03651 0.038483 0.020727 0.053116 0.065612 0.09422 
0.048019 0.045718 0.076463 0.034866 0.032893 0.040128 0.035853 0.074654 
-0.017253 0.041114 0.087808 0.056898 0.028125 0.014643 0.0083956 0.068242 
-0.050793 0.023851 0.0689 0.040456 0.040456 0.013986 0.036839 0.065283 
-0.011827 0.054103 0.0095465 0.033551 0.020891 0.028125 0.053938 0.094055 
0.044896 0.040621 -0.018897 0.053609 0.039305 0.035524 0.070051 0.0592 
0.06742 0.039141 -0.010183 0.035031 0.038483 -0.010348 0.03388 0.040292 
0.055418 0.054267 -0.00064712 0.0031344 0.0227 1.0539e-005 0.023851 0.022864 
0.058049 0.053774 0.0421 0.069393 -0.0095255 -0.034023 -0.016595 0.0044497 
0.063145 0.05772 0.04917 0.0047785 0.0098754 -0.037805 -0.023994 -0.0013048 
0.046868 0.038483 0.041114 0.056733 0.01826 -0.046847 -0.057534 -0.035996 
0.056898 0.058706 0.019411 0.033715 -0.00064712 -0.076935 -0.060329 -0.014951 
0.028783 0.031907 -0.0042642 -0.013471 0.017603 -0.051451 -0.013143 0.047197 
0.041114 0.023028 0.028783 0.018754 0.013821 0.0041209 0.032236 0.11181 
0.05476 0.063968 0.062817 0.039305 0.013821 0.059857 0.072681 0.075148 
0.053445 0.041607 0.033715 0.035688 0.045718 0.087314 0.08156 0.044567 
0.03947 0.0070803 0.035688 0.034702 0.023028 0.059693 0.08715 0.0046141 
0.0062583 0.01152 0.034866 0.03799 0.015959 0.041114 0.065612 -0.0052507 
-0.012649 0.019247 0.0051074 0.01004 0.025495 0.071037 0.033715 -0.0019624 
-0.014622 0.012013 0.014972 0.009711 0.030427 0.098001 0.0087245 0.010862 
0.0031344 0.050979 0.044731 0.029112 0.028454 0.059693 0.040621 0.032893 
-0.011005 0.10228 0.035853 0.013657 0.025824 0.00050378 0.035853 0.059857 
0.044073 0.096193 0.012835 0.029112 0.018096 -0.020212 0.026974 0.10524 
0.057884 0.086163 0.039799 0.035853 0.0065871 -0.051615 0.020398 0.071037 
0.03947 0.081889 0.024508 0.034537 0.021878 -0.050629 -0.0090322 0.068407 
0.035195 0.039305 0.0047785 0.044238 0.023522 -0.03764 -0.0070593 0.087808 
0.039634 0.00083261 -0.014951 0.020069 0.01563 -0.0072237 -0.015938 0.067913 
0.056569 -0.009361 -0.022185 0.009711 0.034044 0.0067515 -0.011827 0.010369 
0.046704 -0.011663 -0.031721 0.033715 -0.0013048 -0.0090322 0.0036276 -0.018075 
-0.012814 -0.03912 -0.001798 0.018754 0.011026 -0.01232 0.036675 -0.013307 
-0.077593 -0.046683 0.044402 0.017767 0.02681 0.0079024 0.01826 0.0021479 
-0.041422 -0.00064712 0.024015 0.052294 0.032071 0.01267 0.009711 0.043251 
0.022535 0.038648 0.0088889 0.0075736 0.0421 0.010533 0.013328 0.014315 
0.034537 0.076792 0.025659 0.024344 0.05065 0.033551 0.0072447 -0.03501 
0.031578 0.09833 0.063803 0.049335 0.070215 0.059364 0.031085 -0.08269 
0.026646 0.11263 0.077614 0.020562 0.027632 0.069229 0.036839 -0.056219 
0.013821 0.08419 0.08156 0.020562 0.026974 0.057884 0.034702 0.0059294 
0.035853 0.070708 0.026646 0.02829 0.026152 0.044402 0.04654 0.026646 
0.021056 0.072681 0.026646 0.014315 0.0324 0.020562 0.032071 0.036675 
0.041443 0.04095 0.0041209 0.0085601 0.023193 0.014315 0.033387 0.037168 
0.036017 0.033387 0.0021479 0.031578 0.043251 0.014972 0.0093821 0.049499 
0.034866 0.024673 -0.0082102 0.021384 0.027632 0.025988 0.0031344 0.037332 
0.040456 0.021713 0.013657 0.024673 0.0059294 0.022042 0.017438 0.03947 
0.037332 0.007738 0.044567 0.038319 0.02681 0.012342 0.010697 0.034209 
0.021713 0.035688 0.069886 0.023686 0.033058 0.017932 -0.00015387 0.013492 
0.0011614 0.062488 0.046211 0.014808 0.028454 0.031085 0.012999 0.013492 
0.016123 0.058542 0.029605 0.03799 0.026974 0.029934 0.044402 0.0092177 
0.027468 0.06331 0.036017 0.021878 0.032236 0.027961 0.048184 0.031085 
0.052787 0.09981 0.065612 0.046046 0.021549 0.057227 0.045389 0.034044 
0.035853 0.073504 0.09274 0.067256 0.059035 0.044238 0.044073 0.083862 
0.035195 0.039634 0.045553 0.011848 0.042594 0.039963 0.04654 0.11346 
0.064296 0.03947 0.066598 0.065118 0.031414 0.054103 0.075476 0.083862 
0.049828 0.04095 0.055911 0.028454 0.013986 0.046375 0.061995 0.082217 
0.056404 0.026152 0.029112 0.0018191 0.034209 0.059528 0.061008 0.016288 
0.052787 0.042429 0.0041209 0.047197 0.016123 0.044731 0.049499 0.046211 
0.049992 0.049499 -0.011005 0.02533 0.023193 0.037826 0.044896 0.012177 
0.041114 0.018754 -0.024158 0.026974 0.033387 0.00297 0.023851 0.02681 
0.044731 0.0070803 0.0060938 0.072188 0.014315 0.012177 0.018918 0.031414 
0.048019 0.051308 0.032236 0.038319 0.047691 0.026974 0.045882 0.039963 
0.052623 0.027303 0.040128 0.029769 0.031907 0.051143 0.059035 0.060515 
0.029441 0.021549 0.017438 0.041936 0.033387 0.046046 0.035031 -0.00064712 
0.016123 0.020891 0.044567 0.024015 0.060186 0.057227 0.024179 -0.066906 
0.032564 0.041607 0.012999 0.010204 0.052952 0.053116 -0.0021268 -0.23559 
0.046375 0.045718 0.029769 0.037004 0.038648 0.07449 -0.011992 -0.38899 
0.033551 0.037168 0.048019 0.014643 0.046211 0.017767 -0.046519 -0.28344 
0.047855 0.082711 0.055582 0.013328 0.0088889 -0.0013048 -0.010348 0.080573 
0.054925 0.072024 0.054267 0.021056 0.017932 -0.0021268 0.044896 0.29448 
0.057391 0.074983 0.069229 -0.0044286 0.01974 0.029276 0.059857 0.19221 
0.048841 0.057884 0.065118 0.019411 0.0054362 0.022206 0.046704 0.037661 
0.054267 0.086657 0.025988 0.033551 0.014643 0.0059294 0.021878 0.0080668 
0.051636 0.056898 0.054432 0.030427 0.031578 0.019905 0.029934 0.12398 
0.045553 0.067913 0.049335 0.016288 0.04506 0.0032988 0.058542 0.20306 
0.043909 0.095042 0.073504 0.043087 0.044238 0.016123 0.064296 0.18695 
0.049335 0.06183 0.082711 0.049499 0.073339 0.024508 0.045224 0.08156 
0.030592 0.033387 0.095699 0.046704 0.048348 0.044402 0.024837 0.0018191 
0.015301 0.052294 0.0324 0.036017 0.018918 0.019576 0.0074092 -0.019061 
0.0092177 0.047855 0.012506 0.012835 0.0028056 0.022371 0.0044497 -0.018568 
0.0085601 0.027303 0.029605 0.029934 0.012013 0.013821 0.013164 -0.025638 
0.019905 0.0324 0.084684 0.024673 0.029934 0.01415 0.0085601 -0.035503 
0.020727 0.041114 0.0592 0.012506 0.066105 0.0092177 0.01563 -0.033859 
0.033222 0.0046141 0.022535 0.037168 0.035688 0.017438 0.034537 -0.022185 
0.049335 -0.018404 -0.0080457 0.010533 0.010697 0.031249 0.024015 -0.023994 
0.017603 0.037168 -0.031721 0.0092177 0.012835 0.0072447 0.018754 -0.0098543 
-0.00081153 0.029112 -0.017088 0.03947 0.02122 -0.003771 0.01152 -0.017417 
-0.006566 0.027303 0.00017495 0.0059294 0.029934 0.00050378 0.0059294 0.015794 
-0.0096899 0.062817 0.037168 0.012506 0.047691 0.02829 0.01974 0.018425 
0.020562 0.060515 0.071859 0.053938 0.0098754 0.0023123 0.00033937 0.028619 
0.028125 0.039634 0.06183 0.10606 0.075148 -0.047834 0.054596 0.0069159 
0.019083 0.032071 0.051143 0.031414 0.016945 0.028454 0.032729 0.037168 
0.073339 0.029112 0.0085601 0.045553 0.0060938 0.0095465 0.0087245 0.027468 
0.026646 0.031742 0.019083 0.029441 0.033387 0.020562 0.036675 0.059857 
0.0037921 0.073339 0.044238 0.048348 0.074819 0.032729 0.041278 0.088136 
0.013164 0.06183 0.044731 0.05065 0.020233 0.011684 0.026481 0.069886 
-0.0004827 0.045718 0.067585 0.043087 0.0051074 -0.0019624 0.032071 0.090931 
0.004943 0.033387 0.051801 0.016123 0.032729 0.0087245 0.00297 0.085012 
0.0088889 0.03536 0.031907 0.027468 0.0085601 -0.0026201 0.0069159 0.1008 
0.029112 0.080902 0.046868 0.00099702 0.026974 -0.0024557 0.02122 0.066763 
0.017932 0.053281 0.050814 0.024508 0.02681 0.018425 0.035853 0.026974 
0.015794 0.045553 0.046211 0.050157 0.034209 0.036839 0.019576 0.01974 
0.014643 0.054103 0.053445 0.029605 0.024015 0.036182 0.028619 0.011684 
0.040785 0.022371 0.083697 0.018754 0.036017 0.034373 0.037497 0.060186 
0.026481 0.029441 0.035853 0.021878 0.038319 0.039141 0.055911 0.071202 
0.030592 0.046046 0.033222 0.037661 0.035853 0.025166 0.058377 0.12431 
0.034209 0.035853 0.0051074 0.034537 0.015465 0.018096 0.016945 0.13532 
0.0324 0.0421 -0.0022913 0.01004 0.020727 0.0065871 0.011684 0.075641 
0.0098754 0.01152 -0.011992 0.0021479 0.015794 0.010862 0.015794 -0.01676 
0.021384 0.038483 -0.032872 0.01563 0.0023123 0.013328 0.026481 -0.052931 
0.027632 0.039141 0.0060938 0.01563 0.02533 0.004943 0.030263 0.013986 
0.042265 0.047855 0.033222 0.032071 0.046375 0.011848 0.038812 0.027632 
0.062488 0.069722 0.037661 0.050157 0.023522 0.057884 0.030263 0.049828 
0.047362 0.049006 0.035195 0.044896 0.04917 0.082546 0.071202 0.046375 
0.022206 0.06035 0.033551 0.032564 0.039305 0.06594 0.031085 0.062981 
0.038648 0.050157 0.063474 0.049828 0.018096 0.026317 0.025988 0.047526 
0.070544 0.064296 0.08567 0.026317 0.037497 0.01711 0.025988 0.05213 
0.059035 0.075641 0.044567 0.026481 0.050979 0.030756 0.059035 0.040621 
0.056898 0.060515 0.025166 0.03388 0.023028 0.013328 0.054267 -0.013471 
0.052787 0.062981 0.015959 0.025166 0.022206 0.00066819 0.015465 0.01415 
0.023028 0.023851 0.011191 0.021549 0.0019835 -0.00031829 0.020562 0.058871 
0.012013 -0.008539 0.019905 0.03092 0.012342 -0.013307 0.017274 0.088465 
0.0075736 0.0092177 0.024015 0.032893 0.024015 -0.026624 0.018589 0.06594 
0.020727 0.012835 -0.014622 0.025166 0.039141 -0.019061 0.023851 0.076956 
0.021549 0.0324 -0.010348 0.046046 0.044896 0.01974 0.016616 0.061995 
0.020398 0.05624 0.021713 0.028125 0.050979 0.053116 0.050979 0.015137 
0.007738 0.081067 0.037332 0.030592 0.045553 0.074819 0.053609 -0.0014692 
0.0047785 0.058213 0.026317 0.04358 0.016123 0.067585 0.03799 -0.020377 
0.01415 0.027796 0.013986 0.0024767 0.031742 0.066927 0.026317 -0.026296 
0.015465 0.033387 -0.0073881 0.0018191 0.022864 0.046375 0.0088889 -0.05178 
0.01974 0.027796 -0.036489 0.023851 0.0034632 0.062817 0.017274 -0.066248 
0.023686 0.055582 -0.048492 0.012506 0.018096 0.013492 -0.018075 -0.038462 
0.053938 0.036675 -0.041751 0.03536 0.026152 0.031578 0.0028056 -0.004593 
0.055254 0.037826 -0.027447 0.029605 0.03947 -0.018733 0.044238 0.032729 
0.068736 0.038483 0.026317 0.010533 0.023193 -0.026624 0.040128 0.028125 
0.11247 0.06183 0.039634 0.05772 0.020727 -0.034023 0.014972 0.034044 
0.11115 0.043087 0.014315 0.021713 0.010697 -0.021692 -0.0016336 0.051965 
0.061995 0.0072447 0.020233 0.031578 0.015137 -0.021363 0.017274 0.085506 
-0.0040998 0.0080668 0.016616 0.037004 0.0042853 -0.022185 0.020069 0.046211 
-0.021363 0.046046 0.031907 0.026152 0.031414 0.022371 0.019411 -0.00081153 
-0.048327 0.052952 0.11099 0.021549 0.042429 0.041114 0.019247 -0.032708 
-0.033859 0.057555 0.14798 0.066105 0.041443 0.045389 0.020233 -0.047669 
-0.0083746 0.073175 0.091753 0.027468 0.030263 0.03947 0.044896 -0.0011404 
0.022371 0.08715 0.031578 0.028619 0.036675 0.073668 0.056569 -0.0077169 
0.070051 0.045718 -0.071838 0.023686 0.030756 0.053774 0.017438 0.0087245 
0.049992 0.01152 -0.060823 0.011026 0.031414 0.022535 0.0032988 0.0056006 
0.057555 0.045389 -0.048656 -0.0083746 0.065612 0.035195 0.044402 0.035524 
0.055911 0.045882 0.0056006 0.044896 0.043745 0.04358 0.097508 0.061501 
0.050157 0.03947 0.031907 0.034209 0.028619 0.025001 0.072846 0.033551 
0.038483 0.0324 0.031249 0.042758 0.031249 0.031742 0.035195 0.046046 
0.0023123 0.036675 0.019576 0.072517 0.027303 0.041443 0.015465 0.011355 
0.01563 0.027961 0.018918 0.043745 0.029441 -0.0029489 0.012342 0.024508 
0.035195 0.029769 0.012999 0.028783 0.031907 -0.011827 0.0065871 0.050157 
0.04506 0.060186 0.026646 0.029441 0.0095465 -0.013471 -0.0072237 0.066105 
0.033222 0.058049 0.065776 0.015959 -0.0047575 -0.02794 -0.0047575 0.059528 
0.022535 0.034209 0.047033 0.011026 -0.0027845 -0.012485 0.020069 0.036839 
0.019083 0.052623 0.052787 0.025824 0.0080668 0.022206 0.03947 0.049335 
0.027632 0.075312 0.062488 -0.0054151 0.020727 0.063145 0.050979 0.042923 
0.026481 0.055418 0.039799 0.026481 0.04095 0.067091 0.04095 0.059528 
0.032071 0.0421 0.031249 0.041772 0.011684 0.054432 0.061666 0.07449 
0.046704 0.054267 0.054925 0.023028 0.035524 0.069229 0.076792 0.11346 
0.050321 0.027139 0.083697 0.052459 0.044896 0.091425 0.065776 0.08863 
0.031249 0.028125 0.027961 0.028947 0.031414 0.027468 0.020727 0.042429 
0.043416 0.046211 0.032729 0.047362 0.056569 0.016288 -0.0098543 -0.029255 
0.053445 0.059364 0.031085 0.054432 0.05213 0.031742 0.0046141 -0.19022 
0.061172 0.042594 0.039963 0.03092 0.016452 0.029441 -0.025802 -0.29873 
0.044238 0.043087 0.045718 0.030098 0.014479 0.015137 -0.031392 -0.21965 
0.048348 0.061995 0.054596 0.037168 0.011355 0.023357 0.026481 0.012506 
0.032893 0.056569 0.020891 0.0092177 0.02533 0.034702 0.069886 0.13943 
0.029769 0.030592 0.047033 0.0018191 0.048677 0.00033937 0.059693 0.18744 
0.023686 0.053938 0.054103 0.028783 0.0324 -0.012156 0.04654 0.17593 
0.038648 0.063145 0.097837 0.009711 0.025166 0.0098754 0.039305 0.14042 
0.039799 0.059693 0.10145 0.036839 0.011026 0.034044 0.057062 0.062817 
0.0421 0.081067 0.11362 0.056569 0.015301 0.027468 0.034702 -0.047998 
0.05476 0.059693 0.030756 0.018589 0.032236 0.047033 0.026974 -0.0090322 
0.038812 0.01415 0.0042853 0.034209 0.034044 0.049499 0.044731 0.079422 
0.024673 -0.0098543 -0.006566 0.052623 -0.0027845 0.043909 0.089123 0.13384 
0.029769 0.044896 -0.011827 0.032893 0.029605 0.021384 0.026974 0.083204 
0.035853 0.048184 0.016288 0.010369 0.032893 -0.0011404 -0.033037 0.04095 
0.034209 0.051143 0.027961 0.047362 0.022535 -0.038298 -0.041257 0.047033 
0.046868 0.078929 0.08156 0.01267 0.041936 -0.018239 -0.0083746 0.077285 
0.046868 0.044238 0.043909 0.01974 0.029441 0.0079024 0.046375 0.097344 
0.035031 -0.0036066 -0.023501 0.010862 0.016945 0.032564 0.025001 0.040785 
0.017603 -0.035503 -0.055232 -0.0047575 0.0080668 0.03947 0.015301 -0.073318 
0.010697 -0.014951 -0.0138 0.023357 0.0031344 0.01826 -0.0080457 -0.21619 
-0.011498 0.018918 0.06035 0.018754 0.029441 0.018425 0.0034632 -0.25532 
0.020891 0.062488 0.077449 0.012177 0.036182 0.014972 0.013492 -0.065097 
-0.0060728 0.10885 0.064461 0.043745 0.069886 0.0090533 0.056076 0.095535 
-0.051287 0.093562 0.11132 0.043745 0.03947 0.029605 0.042758 0.14765 
-0.056383 0.079587 0.13516 0.03947 0.031578 0.045224 0.051801 0.11773 
0.0031344 0.0689 0.084848 0.037168 0.012342 0.038319 0.046211 0.077449 
0.032564 0.053116 0.047526 0.029769 0.009711 0.033222 0.049335 0.056733 
0.056076 0.040128 0.020069 -0.004593 0.012177 0.02122 0.033715 0.057391 
0.029276 0.03651 0.033058 0.060679 0.0059294 0.024837 0.019576 0.045389 
0.04095 0.055747 -0.014787 0.0227 0.015137 0.016781 0.021056 0.036675 
0.048677 0.044238 -0.0077169 0.027468 0.0072447 0.010204 -0.0004827 0.047526 
0.034702 0.034044 0.0070803 0.06742 0.017767 0.0031344 0.0056006 0.029441 
0.0072447 0.049499 0.032236 0.055911 0.044402 0.034866 0.010533 0.038483 
-0.0096899 0.01004 0.017932 0.039799 0.043909 0.021384 0.018589 0.031414 
0.014479 -0.040435 -0.018733 0.06479 0.050321 0.015959 0.027796 0.030263 
0.020233 -0.05589 -0.066248 0.0046141 0.022206 0.035031 0.044731 0.045718 
0.036675 -0.010183 -0.049478 0.011848 0.036346 0.08863 0.063968 0.048348 
0.053609 0.015301 -0.014458 0.033222 0.044567 0.10852 0.1026 0.086821 
0.079751 0.056569 0.028619 0.033058 0.034537 0.077285 0.076463 0.072024 
0.064296 0.092082 0.069886 0.0024767 0.043745 0.063639 0.056569 0.074983 
0.025659 0.098823 0.13664 0.044402 0.02829 0.030098 0.014315 0.042429 
-0.011827 0.075641 0.1396 0.017932 0.01267 -0.018404 0.027796 0.01563 
-0.0060728 0.073997 0.036839 0.016945 -0.0004827 -0.025802 0.022206 -0.0034422 
0.020233 0.063803 -0.0057439 0.037168 0.0059294 0.00099702 0.024344 1.0539e-005 
0.030756 0.059364 -0.011663 0.0019835 0.0095465 0.0028056 0.014808 0.0034632 
0.052459 0.014808 0.016781 0.057227 0.058377 -0.12396 0.013657 -0.026296 
0.053116 0.072024 0.01826 0.026317 0.029769 -0.065262 -0.0091966 0.012342 
0.0013258 0.035195 0.010697 0.053609 0.016123 -0.0040998 -0.0060728 0.061172 
0.029934 0.057391 -0.00081153 0.035853 0.01004 -0.049478 -0.028433 0.13976 
0.04506 0.090767 0.053774 0.027961 0.010533 -0.018239 0.01711 0.17462 
0.046704 0.067091 0.074654 0.0060938 0.021549 0.038483 0.083862 0.20717 
0.079094 0.050979 0.10639 0.041443 0.046375 0.087643 0.085999 0.12201 
0.058706 0.026317 0.090438 0.030427 0.015959 0.079094 0.08008 0.081724 
0.053938 0.03947 0.09422 0.0421 0.029934 0.091918 0.071695 0.04654 
0.050486 0.042265 0.066763 0.021549 0.030263 0.10819 0.080573 0.0064227 
0.039799 0.023193 -0.024323 0.027139 0.04095 0.060186 0.049992 -0.0047575 
0.035524 0.072846 -0.051287 0.019411 0.041607 0.023028 0.039141 -0.01232 
0.023028 0.049499 -0.03057 0.054596 0.039305 0.0036276 0.0047785 -0.031228 
0.018425 0.065118 0.0023123 0.034866 0.0046141 0.016781 0.027468 -0.041422 
0.056404 0.055911 0.055418 0.013986 0.014643 0.014972 0.00083261 -0.010841 
0.092082 0.064132 0.061995 0.032729 0.0054362 -0.010183 -0.010512 -0.017746 
0.049664 0.021549 0.014643 -0.00031829 0.01563 0.01152 -0.0040998 -0.034188 
0.038319 0.0031344 -0.039449 -0.0034422 0.026646 0.027139 0.027139 0.0067515 
0.058871 0.036182 -0.036489 0.040128 0.048677 0.024015 0.032893 0.037497 
0.073339 0.038977 0.0019835 0.025166 0.042429 0.018754 0.017603 0.055089 
1.0539e-005 0.066105 0.060515 0.032729 0.01415 0.015137 0.0014903 0.036675 
-0.035667 0.096686 0.10014 0.053609 0.01563 0.011684 0.015465 0.027468 
-0.014622 0.080738 0.065447 0.028947 0.04358 -0.0016336 0.03651 0.037004 
0.043745 0.053445 0.040456 0.028125 0.037004 -0.004593 0.023028 0.045718 
0.061501 -0.0083746 0.01974 0.051143 0.041114 0.0098754 0.018425 0.047033 
0.062488 -0.0019624 -0.046847 0.028454 0.031742 0.0092177 0.015301 0.02829 
0.045389 -0.011827 -0.063618 0.0092177 0.035853 0.0095465 0.048677 0.033551 
0.051965 0.0032988 -0.021528 0.037168 0.027961 0.02681 0.035853 0.025001 
0.042594 0.081395 0.056898 0.026317 0.023193 0.042923 0.04917 0.025495 
0.037168 0.084519 0.10721 0.012506 0.029605 0.011355 0.021713 0.00099702 
0.049335 0.095371 0.1026 0.033058 0.011848 0.0011614 0.039799 0.0032988 
0.03388 0.066598 0.080902 0.027796 0.013986 0.041114 0.021549 -0.0027845 
0.024673 0.022371 0.0039565 0.027961 0.020727 0.035853 0.01974 0.00099702 
0.0021479 0.01415 -0.0052507 0.026317 0.019247 0.020069 0.023357 0.022371 
0.014972 0.034537 0.020398 0.012342 0.037004 0.025988 0.023686 0.0082312 
-0.0039354 0.052623 0.0065871 0.029605 0.041607 0.036675 0.028125 0.0031344 
0.0044497 0.043909 0.036839 0.032564 0.01415 0.024673 0.019411 0.01415 
-0.010019 0.019083 0.084355 0.015959 -0.017582 -0.0052507 0.0072447 0.017767 
-0.0070593 0.042923 0.03651 0.050814 0.031578 0.044402 0.033715 0.041607 
-0.001798 0.050321 0.013492 0.024508 0.027303 0.059693 0.042594 0.05624 
0.0082312 0.01974 -0.010676 0.020891 0.055747 0.046046 0.026481 0.074654 
0.04917 -0.017417 -0.0068948 0.05476 0.087314 0.043416 -0.016102 0.033222 
0.038319 0.035524 -0.013307 0.023193 0.027303 0.055582 0.0034632 0.010369 
0.045553 0.06331 0.0028056 0.035853 0.0044497 0.019411 0.070215 -0.047998 
0.055911 0.052787 0.034373 0.054925 0.034702 0.033715 0.03947 -0.0095255 
0.030263 0.064132 0.054596 0.031907 0.029605 0.041278 0.049828 0.031414 
0.02122 0.046375 0.066598 0.036346 0.036346 0.040292 0.023357 0.025001 
-0.0026201 -0.0031133 0.016616 0.046046 0.018918 0.017438 0.03651 0.041443 
-0.0016336 -0.0026201 -0.031064 0.0019835 0.0031344 -0.023172 0.032236 0.0013258 
0.020891 -0.0042642 0.0024767 0.024015 0.01004 0.022206 0.03947 0.056569 
0.031085 0.029605 0.050814 0.025659 0.015465 0.059528 0.046211 0.073997 
0.052459 0.062981 0.063639 0.019576 0.018096 0.041114 0.060844 0.07449 
0.058706 0.093891 0.065283 0.01974 0.034209 0.020891 0.025001 0.02122 
0.049335 0.066434 0.083697 0.052952 0.045389 0.013492 0.012999 -0.035174 
0.04506 0.062652 0.082875 0.055582 0.041443 0.0074092 0.00033937 -0.14846 
0.00297 0.083862 0.054925 0.047691 0.028125 -0.01232 -0.030077 -0.22014 
0.0083956 0.047855 0.04358 0.028619 0.024508 -0.0057439 -0.0070593 -0.093212 
0.026317 0.043251 0.036017 0.024508 0.027303 0.0051074 0.017932 0.090767 
0.028454 0.044073 0.017767 0.020727 0.021878 0.0046141 0.0098754 0.19862 
0.036017 0.07038 0.041114 0.017603 0.0087245 0.012342 0.04506 0.1784 
0.056898 0.048184 0.027961 0.0032988 0.010533 0.062159 0.088958 0.14371 
0.049828 0.050979 0.018425 0.012177 0.0088889 0.08008 0.077449 0.12414 
0.055911 0.07597 0.032893 0.026317 0.022535 0.071202 0.081724 0.097179 
0.055089 0.0592 0.037332 0.018589 0.046704 0.04095 0.066763 0.086985 
0.058213 0.068736 0.057555 0.054432 0.050321 0.040456 0.067749 0.074161 
0.055418 0.065118 0.10425 0.028125 0.027796 0.0039565 0.029276 0.047855 
0.066434 0.056898 0.12464 0.024673 0.01267 -0.0078813 -0.026624 -0.010183 
0.045718 0.012177 0.063145 0.062159 0.024344 -0.031392 -0.060165 -0.087458 
0.017603 -0.0042642 -0.010676 0.036017 0.041114 -0.0050863 -0.051451 -0.1552 
-0.010512 0.016616 -0.054082 0.0227 0.03651 -0.0095255 -0.044381 -0.18545 
-0.021034 0.013164 -0.0034422 0.030756 0.034209 -0.004593 -0.046683 -0.15536 
0.015137 -0.004593 0.024508 0.02533 0.0069159 -0.034845 -0.05737 -0.082525 
0.046868 0.073504 0.051308 0.022864 0.0016547 -0.055726 0.015137 0.064625 
0.064461 0.083368 0.074654 0.059857 0.0016547 -0.038462 0.059528 0.15374 
0.068242 0.086492 0.077614 0.020727 0.024344 -0.0029489 0.081724 0.16278 
0.052294 0.064461 0.08304 0.032729 0.053609 0.030756 0.096686 0.1271 
0.021878 0.073668 0.075476 0.050979 0.053116 0.040456 0.070708 0.047691 
0.0024767 0.035853 0.035853 0.015465 0.020398 0.011684 0.05213 0.034702 
0.027632 0.039305 0.012506 0.011355 0.021056 0.014479 0.032071 0.017603 
0.043087 0.062488 0.0014903 0.018918 0.02122 0.048841 0.035688 0.020562 
0.029769 0.035688 -0.036654 0.0021479 0.020398 0.03388 0.042923 -0.011827 
0.019411 0.029769 0.0032988 0.0042853 0.038319 0.028454 0.051472 0.020233 
0.016452 0.060515 0.039963 0.052294 0.04358 0.016452 0.042923 0.0421 
0.023686 0.041936 0.044402 0.031907 0.034866 0.063803 0.023357 0.037332 
0.013492 0.0026412 0.0065871 0.049335 0.031578 0.065283 -0.00064712 0.011848 
0.018425 -0.011005 0.019411 0.035688 0.042265 0.038155 0.024015 0.030427 
0.0324 -0.0004827 -0.010676 0.016123 0.058542 0.019083 0.018425 0.042758 
0.009711 0.011848 0.0041209 0.038977 0.033551 -0.0039354 0.029769 0.019411 
-0.0059084 0.058542 0.030098 0.041114 -0.011992 -0.0049219 0.026481 0.038319 
0.00066819 0.08863 0.048841 0.0028056 0.015465 -0.0019624 0.014643 0.032564 
0.026481 0.058871 0.031085 0.037826 0.01415 0.014972 0.045389 0.070708 
0.034537 0.044238 0.046375 0.023686 0.01563 -0.0044286 0.012013 0.021549 
0.047691 0.032236 0.066763 0.039141 0.024179 -0.010512 0.0079024 -0.025967 
0.067913 0.049006 0.030756 0.060186 0.04917 -0.016266 0.00050378 -0.026131 
0.094877 0.020069 0.022042 0.029934 0.027961 0.0013258 0.029769 0.056898 
0.06594 0.038648 0.013492 0.025988 0.01267 0.01711 0.050486 0.16755 
0.024673 0.067256 0.0093821 0.036675 0.0088889 0.040292 0.052787 0.15407 
-0.0059084 0.043087 -0.0013048 0.010204 0.011848 0.081067 0.072681 0.11428 
-0.0059084 0.034702 0.013821 0.0028056 0.033222 0.08567 0.077943 0.052952 
0.013164 0.048513 0.0059294 0.049006 0.034209 0.064625 0.056898 0.03388 
0.0052718 0.042923 -0.0011404 0.014479 0.015794 0.062817 0.034373 0.036182 
0.044402 0.030756 0.012177 0.023028 0.024837 0.071859 0.045224 0.074983 
0.051636 0.037826 0.010533 0.03947 0.021713 0.047855 0.058213 0.12118 
0.0421 0.059857 0.020069 0.016288 0.024344 0.030263 0.062488 0.08304 
-0.029584 0.03092 0.027468 0.020069 0.039634 0.038155 0.029112 0.025001 
-0.060987 0.015137 0.049335 0.04654 0.044896 0.030756 0.019576 -0.018568 
0.0054362 0.048677 -0.00064712 0.012013 0.030427 0.011355 0.025659 -0.016924 
0.076134 0.058706 -0.012978 0.029769 0.03651 0.00099702 0.029605 -0.0029489 
0.089452 0.052952 -0.0095255 0.028783 0.036017 0.026481 0.020233 0.027468 
0.08419 0.038319 -0.020541 0.01004 0.037826 0.0059294 0.0036276 0.050979 
0.054103 0.051143 -0.0024557 0.01711 0.041443 0.00066819 0.012506 0.053609 
0.011355 0.047362 0.035688 0.018754 0.02122 0.0090533 0.012342 0.066434 
0.0421 0.031907 0.040456 0.019411 -0.01528 0.018589 -0.017911 0.012177 
0.055747 0.053281 0.044731 0.039634 -0.010019 -0.01939 -0.010183 0.029441 
0.027632 0.014972 0.020398 0.037168 0.026317 0.00297 0.017603 0.04358 
0.053774 0.020069 0.019905 0.035524 0.034373 0.04358 0.066927 0.050486 
0.028783 0.020233 0.034373 0.062981 0.045389 0.063145 0.053445 0.061337 
0.047362 0.058542 0.093069 0.036839 0.027303 0.052952 0.0421 0.062323 
0.062652 0.052459 0.093398 0.036017 0.025659 0.085177 0.056404 0.076627 
0.049664 0.040456 0.030592 0.054925 0.033551 0.095042 0.093562 0.088794 
0.050157 0.073339 -0.023501 0.03651 0.013986 0.061501 0.065447 0.091425 
0.062817 0.046046 0.036839 0.010533 0.032236 0.040621 0.036017 0.081395 
0.058871 0.032071 0.053609 0.053281 0.059693 -0.011498 0.0093821 0.074983 
0.016452 0.052787 0.014643 -0.0026201 -0.012156 -0.012156 -0.0067304 -0.0044286 
0.022864 0.066269 0.023357 -0.013636 0.028454 -0.012978 -0.008539 -0.029584 
0.016452 0.027796 -0.022843 0.043251 0.018589 -0.012156 -0.034845 -0.021034 
0.017603 0.021549 -0.029913 0.028454 0.027632 0.0056006 -0.01232 0.016945 
0.02533 0.066927 -0.011992 0.037004 0.047197 0.030592 0.017932 0.03651 
0.036182 0.06035 0.012999 0.062488 0.046211 0.041607 0.055911 0.020727 
0.044896 0.05065 0.060186 0.044731 -0.010676 0.040292 0.040128 0.02681 
0.031085 0.057555 0.073668 0.041936 0.028454 0.058049 0.041278 0.020069 
0.0075736 0.0093821 0.064296 0.066763 0.024015 0.023851 0.02829 0.010862 
0.012342 -0.00015387 0.052952 0.023851 0.027632 -0.0068948 0.027961 0.0034632 
0.020233 0.021056 0.062652 -0.00064712 0.025824 0.01004 -0.010348 -0.0011404 
0.011191 0.022864 0.062981 0.039963 0.029769 0.020233 -0.001798 -0.024816 
0.015959 0.034537 0.077778 -0.0050863 0.026317 0.0067515 0.0011614 -0.061645 
0.027961 0.055089 0.092904 0.013821 0.01974 0.0082312 0.024837 -0.035338 
0.031578 0.11444 0.1031 0.038483 0.033222 0.031249 0.029112 -0.0095255 
0.031414 0.054596 0.053281 0.038155 0.034866 0.056733 0.019905 -0.081703 
0.025166 0.038155 0.018425 0.04917 0.035853 0.041443 -0.018897 -0.21537 
0.010204 0.034044 0.0032988 0.04654 0.026317 0.0098754 -0.016595 -0.18101 
0.019083 0.036839 0.022535 0.034044 0.015959 0.018754 0.031085 0.075148 
0.039799 0.045882 0.038648 0.032893 0.042594 -0.017911 0.053116 0.21408 
0.036675 0.053116 0.065612 0.010204 0.040128 0.018096 0.064132 0.19796 
0.052623 0.078436 0.030592 0.017438 0.032236 0.030098 0.053445 0.10819 
0.037661 0.066598 0.0075736 0.039799 0.037661 0.016781 0.043416 0.029605 
0.0062583 0.02681 0.01563 0.010697 -0.0050863 -0.014787 0.025824 -0.012978 
-0.021363 0.057555 0.031742 0.012999 -0.0011404 0.007738 0.032071 -0.016924 
-0.0080457 0.041772 0.052787 0.063474 0.0092177 0.021713 0.023522 0.0037921 
0.011848 0.041607 0.06331 0.052459 0.012835 0.034537 0.050979 0.0095465 
0.038812 0.061172 0.040292 0.055254 0.036839 0.030098 0.030263 0.039799 
0.030756 0.049006 0.038319 0.065612 0.066434 0.0042853 0.0026412 0.015959 
0.051308 0.032729 0.034537 0.023522 0.032729 -0.014293 -0.041422 0.0037921 
0.014972 0.01563 0.051636 0.012835 0.021384 -0.0077169 -0.015609 -0.022843 
0.013986 0.0090533 0.0024767 0.05476 0.014643 0.011026 -0.0039354 -0.018404 
0.0041209 -0.0004827 0.012013 0.017767 0.028619 0.025001 0.009711 0.0090533 
0.0016547 1.0539e-005 0.067749 0.022206 0.052787 0.06035 0.014315 0.0227 
0.020727 0.043087 0.056569 0.055747 0.033551 0.052787 0.03799 0.035524 
0.039634 0.068736 0.034373 0.026481 0.033387 0.036017 0.035688 0.030098 
0.053445 0.080573 0.022042 0.055089 0.034209 0.041114 0.053609 0.058049 
0.037826 0.069229 0.041278 0.061337 0.045224 0.041936 0.057062 0.025824 
0.0064227 0.091918 0.032729 0.035853 0.098494 0.069229 0.079916 0.047033 
0.0065871 0.052952 0.038483 0.0087245 0.024179 0.013657 0.072353 0.016781 
0.00066819 0.018096 0.027961 0.01267 0.0016547 -0.03353 0.036675 0.024673 
0.0062583 0.014972 -0.046519 0.0093821 -0.004593 -0.028104 0.01415 -0.017253 
0.010204 0.019576 -0.021856 0.0060938 -0.0067304 -0.034516 -0.0072237 0.0074092 
0.029276 0.012342 -0.013636 0.026481 0.015465 -0.019061 0.02533 0.051636 
0.04095 0.046704 -0.019884 -0.0062372 0.034209 -0.010512 0.020727 0.097015 
0.054432 0.03092 0.0046141 0.01711 0.047362 -0.03353 -0.0022913 0.13894 
0.073339 0.010533 0.073175 0.025659 0.046211 0.010369 0.012177 0.12085 
0.06035 0.034702 0.080738 0.0095465 0.014479 0.055582 0.025001 0.11576 
0.0592 0.072024 0.069722 0.038812 0.021713 0.030756 0.0074092 0.10392 
0.05624 0.054432 0.071859 0.031907 0.032729 0.0074092 -0.014129 0.10063 
0.04917 0.044402 0.077943 0.032893 0.047526 0.02533 0.026317 0.07597 
0.0093821 0.063803 0.092576 0.045553 0.076299 0.065118 0.038319 -0.014951 
0.048841 0.071859 0.092082 0.028454 0.047855 0.062159 0.029934 -0.11771 
0.057555 0.07597 0.05476 0.016123 0.037332 0.053281 -0.0044286 -0.23099 
0.031907 0.0592 0.013328 0.031907 0.0083956 0.013328 -0.015116 -0.18167 
0.02681 0.067585 -0.017746 0.017767 0.0051074 -0.0024557 0.0088889 -0.08384 
0.051801 0.043416 -0.02498 0.0072447 0.016123 -0.00081153 0.053938 0.097344 
0.052294 0.049006 -0.046354 0.039799 0.054596 0.024673 0.067913 0.23594 
0.030592 0.063145 -0.020706 0.016781 0.030592 0.034373 0.068407 0.20158 
0.016123 0.04506 0.013821 0.02829 0.010697 0.039634 0.05476 0.17429 
0.026481 0.018096 -0.0078813 0.039141 0.014808 0.030263 0.062488 0.095371 
0.05772 0.031907 0.0051074 0.017438 0.013328 0.036839 0.0324 0.08156 
0.047526 0.020727 0.030756 0.030756 0.033222 0.033715 0.024508 0.050979 
0.020562 -0.010183 0.039305 0.055582 0.049006 0.020891 0.013657 0.015465 
-0.0078813 -0.036325 0.040621 0.03651 0.024508 0.021878 0.023357 -0.017253 
-0.0024557 -0.02087 -0.017911 0.019083 0.016616 0.019576 0.015301 -0.019555 
0.01004 0.0070803 -0.073318 0.028125 0.019083 0.0227 -0.018075 0.011684 
0.054925 0.043416 -0.018897 0.0082312 0.015794 0.017438 0.024837 -0.0004827 
0.070051 0.12529 0.0227 0.01267 0.051965 0.012177 0.066927 0.029441 
0.065447 0.11115 0.03092 0.033715 0.036346 0.045882 0.035195 0.019083 
0.064296 0.10458 0.047691 0.024015 0.011684 0.028454 0.014315 0.022864 
0.056569 0.1003 0.070708 0.031085 0.019905 -0.024816 -0.0014692 0.026152 
0.060186 0.073668 0.080902 0.02533 0.018425 -0.021034 -0.0032777 0.058871 
0.047197 0.024673 0.037661 0.0072447 0.015794 0.016452 0.017932 0.12562 
0.020562 0.013821 0.049335 0.022371 0.01563 0.051965 0.0324 0.081724 
-0.0016336 0.032236 0.055747 0.024508 0.014315 0.084355 0.060186 0.012999 
-0.011498 0.037004 0.085012 0.025988 0.01563 0.11132 0.068078 -0.018897 
-0.010676 0.054103 0.10885 0.051143 0.028125 0.092247 0.062981 -0.028269 
0.013492 0.082875 0.1179 0.031742 0.030263 0.046868 0.043745 0.0019835 
0.046375 0.095864 0.055747 0.049335 0.039305 0.00083261 0.030263 0.045389 
0.040621 0.05213 0.043909 0.064296 0.062159 0.03651 0.02681 0.074819 
0.043416 0.0082312 0.061172 0.02122 0.034044 0.021384 0.054596 0.052294 
0.023193 0.025001 0.0090533 0.030098 0.0028056 0.0060938 0.027796 0.041114 
0.020727 0.014972 -0.051944 0.028783 0.015301 0.0046141 0.011191 0.022042 
0.024673 0.007738 -0.021692 0.007738 0.021384 -0.028433 -0.0044286 0.051636 
0.038319 0.045389 -0.022843 0.024015 0.0227 -0.080881 0.0044497 0.076792 
0.034537 0.052952 -0.015116 0.054596 0.030592 -0.06444 -0.02235 0.066434 
0.02122 0.049828 0.010533 0.025659 0.011026 0.0041209 0.011684 0.096193 
0.011191 0.044238 -0.0022913 0.019905 0.031085 0.050814 0.046375 0.078107 
0.019905 0.042429 0.027632 0.016288 0.040456 0.08567 0.078436 0.071695 
0.0051074 0.03092 0.06331 0.0032988 0.022371 0.093069 0.066269 0.045882 
0.032071 0.029934 0.11642 0.0052718 0.026317 0.099316 0.050814 0.042429 
0.034866 0.069722 0.080244 0.03536 0.035195 0.077285 0.048677 -0.0052507 
0.025166 0.048019 0.059693 0.021549 0.0075736 0.046375 0.050321 -0.066084 
0.029112 0.021878 0.036017 0.037332 0.025166 0.033715 0.060022 -0.079566 
0.022535 0.056569 0.066927 0.051472 0.024837 0.044402 0.037168 -0.041586 
0.01711 0.065612 0.098494 0.043251 0.019247 0.028783 0.038648 0.024344 
0.033222 0.046046 0.082546 0.036839 0.042265 0.012999 0.014808 0.030756 
0.03947 0.047855 0.032236 0.038977 0.040621 0.021713 0.021056 0.063968 
0.038155 0.068736 0.0060938 0.016781 0.0095465 0.0042853 0.019247 0.10458 
0.019411 0.023357 -0.0057439 0.020398 0.0069159 -0.02498 0.0079024 0.1567 
-0.0013048 0.0095465 -0.0096899 0.010369 0.00033937 -0.030077 -0.0047575 0.14256 
0.018589 0.043745 0.0046141 0.007738 0.0093821 0.0090533 0.022371 0.053116 
0.0227 0.039305 0.029441 0.028619 0.017932 -0.0042642 0.018425 -0.011005 
0.062652 0.051308 0.059693 0.036675 0.026152 0.0037921 0.019083 -0.040271 
0.057227 0.048677 0.025495 0.031414 0.033058 -0.008539 -0.0013048 -0.053095 
0.045718 0.050979 0.024673 0.056898 0.015465 -0.013307 0.025001 -0.036983 
0.052952 0.039634 0.034209 0.024344 0.01415 0.00297 0.035031 0.051472 
0.088136 0.048184 0.030098 0.013328 0.023851 0.010369 0.010533 0.063968 
0.078929 0.066105 0.035031 0.056898 0.033715 0.038319 0.015301 0.047362 
0.058377 0.054432 0.050321 0.03092 0.037661 0.045718 0.030592 -0.019884 
0.023193 0.035853 0.034209 0.0095465 0.012342 0.054267 0.041772 -0.037147 
0.037168 0.059364 0.021713 0.055582 0.036675 0.041278 0.044896 -0.0014692 
0.033551 0.090109 0.030263 0.050814 0.044238 0.075312 0.031907 0.0098754 
0.053116 0.062817 0.027961 0.034702 0.050486 0.03947 0.030263 0.034044 
0.051472 0.037826 0.022042 0.055747 0.059364 0.015794 0.055089 0.017603 
0.024344 0.057391 0.049992 0.016123 0.030098 0.020727 0.042758 0.050157 
0.084848 0.062488 0.027632 0.074326 -0.0070593 0.071695 0.034209 0.050814 
0.019411 0.016452 -0.0090322 0.024508 0.016452 0.050814 0.041936 0.0324 
0.024344 0.069558 0.012177 -0.015444 0.009711 0.08715 0.0093821 0.01826 
-0.024652 0.026152 -0.0068948 0.0062583 0.020233 0.033222 0.013657 -0.016266 
-0.048327 0.010697 -0.015938 0.036346 0.058213 0.029934 0.017932 0.004943 
0.011684 0.032564 0.029769 0.0060938 0.032893 0.022864 0.031414 0.02533 
0.049992 0.057227 0.052459 0.01152 0.030263 0.0041209 0.037826 0.044402 
0.06742 0.04358 0.022371 0.051472 0.0090533 0.021713 0.042265 0.023851 
0.058542 0.030592 0.02829 0.016616 0.025001 0.01826 0.01826 0.037168 
0.01152 0.073997 0.077121 0.0324 0.037332 0.029112 0.026152 0.082875 
-0.040106 0.048348 0.08978 0.058213 0.048348 0.0090533 0.040456 0.069722 
-0.010676 0.033222 0.07449 0.069886 0.033058 0.027796 0.026974 0.051801 
0.012342 0.050157 0.03536 0.059364 0.020233 0.0052718 -0.0032777 -0.0087034 
0.026152 0.046046 -0.011827 0.017767 0.0039565 -0.023829 -0.022185 -0.036983 
0.057227 0.030756 -0.059836 0.0069159 0.020562 -0.012814 -0.0027845 -0.12577 
0.069722 0.042429 -0.017088 0.037332 0.055254 0.014808 0.0064227 -0.18857 
0.050486 0.056076 0.0074092 0.024179 0.061666 0.033058 0.017438 -0.13563 
0.051472 0.047691 0.038483 0.033551 0.052952 0.013986 0.019576 0.074654 
0.040456 0.025166 0.037168 0.04095 0.013492 0.038155 0.050157 0.19731 
0.033222 0.017767 0.019083 0.011355 0.0019835 0.016452 0.0689 0.20882 
0.027468 0.0037921 -0.030077 0.013657 0.0059294 0.024015 0.061337 0.17412 
0.0083956 -0.00081153 -0.016431 0.043909 0.026317 0.016781 0.036182 0.063639 
0.012999 0.02829 0.012999 0.012506 0.027303 0.029934 0.0082312 -0.0047575 
0.0069159 0.054925 0.090274 0.040621 0.013986 0.0093821 0.025988 -0.011334 
0.0014903 0.06183 0.10589 0.041278 0.021549 -0.017582 0.020069 0.0324 
-0.023501 0.054432 0.095371 0.023357 0.030098 0.014315 0.029769 0.081889 
-0.031886 0.068242 0.028783 -0.0034422 0.0046141 0.01974 0.046211 0.082382 
-0.033859 0.035853 0.027303 0.045389 0.033715 0.045389 0.056898 0.046375 
-0.01232 0.014315 0.03651 0.018425 0.032729 0.053116 0.051636 -0.0024557 
0.010697 0.028783 0.041114 0.017603 0.032564 0.039305 0.019411 -0.015444 
0.051965 0.030592 0.049499 0.037004 0.051636 -0.0016336 -0.010512 -0.013143 
0.048184 0.020891 0.061008 0.033222 0.032564 -0.028597 -0.024487 0.0059294 
0.026481 0.0072447 0.037497 0.018754 0.03092 -0.016924 0.012506 0.036675 
0.049335 0.038648 0.004943 0.040785 0.04358 0.0067515 0.026974 0.063145 
0.046375 0.031085 0.0014903 0.020891 0.025988 0.010533 0.036182 0.067256 
0.015301 0.024015 0.0067515 0.023193 0.017767 0.019083 0.05772 0.042594 
0.0013258 0.055089 -0.0091966 0.023193 0.032236 0.043251 0.048019 0.032071 
0.028125 0.044896 -0.008539 0.039963 0.021384 0.039305 0.033387 0.045553 
0.061337 0.038977 0.037497 0.028619 0.030263 0.034537 0.027961 0.058377 
0.07449 0.066598 0.040785 0.012835 0.047855 0.049499 0.041114 0.087643 
0.090274 0.071037 0.047855 0.01826 0.023522 0.058213 0.052623 0.068407 
0.10721 0.027961 0.040128 0.046211 0.010204 0.052623 0.053938 0.13549 
0.067256 0.052787 0.0088889 0.030263 0.016781 0.029934 0.017438 0.039141 
0.10376 0.095864 0.0227 -0.00031829 0.044402 0.050486 0.0070803 0.07597 
0.062817 0.035031 0.01974 0.039305 0.040128 0.018918 1.0539e-005 -0.0036066 
0.057884 0.020562 0.018425 0.027303 0.02122 -0.00031829 -0.064768 -0.045039 
0.0085601 0.040292 0.012013 0.016781 -0.0057439 -0.012814 -0.074633 -0.17394 
0.0227 0.019411 0.01152 0.054596 0.029441 -0.028762 -0.1039 -0.25023 
-0.0024557 0.028619 0.02681 0.009711 1.0539e-005 -0.0096899 -0.026296 -0.15339 
0.03947 0.030263 0.061995 0.0060938 0.013164 -0.03205 0.058377 0.087972 
0.070708 0.077449 0.084684 0.046211 0.024673 -0.0042642 0.074161 0.29546 
0.058542 0.068571 0.085999 0.026974 0.047855 0.009711 0.057555 0.26077 
0.042429 0.04654 0.025824 0.039305 0.021549 0.011684 0.0592 0.159 
0.034044 0.060515 0.036675 0.039141 0.03536 0.041607 0.050814 0.053774 
0.04506 0.049664 0.054103 0.026646 0.033222 0.093726 0.051801 0.015794 
0.053774 0.056898 0.059857 0.033551 0.03388 0.11411 0.072188 0.012835 
0.072024 0.05213 0.055911 0.071202 0.032564 0.081395 0.04654 0.030592 
0.055254 0.073175 0.074161 0.029769 0.016452 0.0069159 0.058871 0.034044 
0.030592 0.063968 0.050486 0.0032988 0.016452 -0.012978 0.026974 0.015959 
0.024344 0.04917 0.03388 0.0039565 0.004943 -0.018075 -0.017417 0.020398 
0.016123 0.058377 0.0039565 0.017932 0.00297 -0.0078813 -0.025802 0.015794 
0.035853 0.046375 -0.014458 0.021713 0.021713 0.015465 -0.0072237 0.01563 
0.049006 0.043251 -0.0034422 0.04358 0.049006 0.057884 0.028619 0.025001 
0.042429 0.069722 -0.0055795 0.042594 0.050814 0.064296 0.039305 0.037497 
0.06183 0.056569 0.024344 0.063968 0.061995 0.0421 0.041114 0.0060938 
0.022864 0.040456 0.01415 0.035524 0.043416 0.034044 0.035524 -0.02235 
0.020069 0.026317 0.020398 -0.0088678 0.01974 0.047197 0.050486 -0.036983 
0.0079024 0.030098 -0.019555 0.0019835 0.0065871 0.004943 0.021056 -0.014293 
0.016616 -0.003771 -0.030406 -0.014622 0.016781 0.010697 0.024015 0.020891 
0.030427 0.0039565 -0.001798 -0.023007 0.01415 0.025659 0.034866 0.042265 
0.05065 0.059364 0.087314 0.055582 0.03651 0.057062 0.060186 0.053774 
0.068736 0.064132 0.10935 0.046046 0.052459 0.071037 0.043745 0.03388 
0.058213 0.051308 0.072353 0.036182 0.041772 0.04506 0.034702 0.051965 
0.051143 0.068407 0.089123 0.066763 0.05065 0.051472 0.03799 0.076299 
0.020398 0.084519 0.10228 0.040128 0.043909 0.020562 0.048841 0.068078 
0.016123 0.068242 0.082711 0.012342 0.018918 -0.0090322 0.041936 0.065612 
-0.020377 0.026317 0.065776 0.037332 0.00066819 -0.031228 0.012999 0.046046 
-0.018733 0.050486 0.033551 0.017767 -0.0057439 0.0023123 -0.012156 0.036346 
-0.012814 0.023686 0.010369 0.0044497 0.010697 -0.023172 0.018096 0.057555 
-0.015444 0.03092 -0.0095255 0.0227 0.0046141 -0.058192 -0.010019 0.11099 
-0.016102 0.027303 -0.024816 -0.0090322 0.019247 -0.026624 -0.019719 0.099481 
0.055582 0.017767 -0.041422 0.012999 0.0064227 -0.0019624 0.0052718 0.059693 
0.024344 0.030427 -0.031721 0.046375 0.053281 0.036017 0.03799 0.0062583 
0.019576 0.029769 0.014643 0.02681 0.035524 0.052459 0.067913 -0.083183 
0.011026 0.027796 -0.024816 -0.012649 0.029769 0.071037 0.034866 -0.071345 
0.0090533 0.029769 -0.027282 0.037004 0.035853 0.060844 0.031414 -0.035667 
0.01711 0.0028056 -0.033201 0.03092 0.038977 0.066269 0.061995 -0.0031133 
0.03388 0.045882 -0.0004827 0.034702 0.024673 0.050157 0.058377 0.023357 
0.05213 0.053281 0.053281 0.031742 -0.0072237 0.048348 0.041278 0.027961 
0.036346 0.061172 0.12595 0.015959 0.021878 0.039634 0.027303 0.058377 
0.056898 0.087643 0.12414 0.023193 0.0421 0.017603 0.033058 0.13878 
0.069064 0.08419 0.080409 0.026152 0.036017 0.021878 0.046046 0.23578 
0.04095 0.040621 0.06331 0.025166 0.034702 0.011355 0.03388 0.18563 
0.010697 0.029769 0.041772 0.043909 0.024344 0.020398 0.014808 0.041772 
0.0095465 0.044896 0.027961 0.029769 0.048348 0.023193 0.013492 -0.047998 
0.0090533 0.04358 0.046046 0.024673 0.020891 0.025001 0.041114 -0.063618 
0.032729 0.029441 0.055747 0.048677 0.038977 0.018589 0.034373 -0.036654 
0.039634 0.023686 0.0064227 0.0074092 0.047362 0.019905 0.015959 -0.048327 
0.040292 0.0046141 -0.027611 0.0098754 0.014479 0.018425 0.023028 0.0072447 
0.042265 -0.00064712 -0.051287 0.035853 0.030592 0.040785 0.039141 0.02533 
0.043745 0.022206 -0.028926 0.018425 0.026974 0.079916 0.073175 0.034373 
0.043087 0.0592 0.0227 0.025001 0.041936 0.087643 0.069229 0.041772 
0.050157 0.067913 0.057391 0.065447 0.04506 0.045718 0.048677 0.047691 
0.04654 0.064625 0.057062 0.036182 0.039963 0.033222 0.041607 0.013164 
-0.010019 0.075148 0.086492 0.025166 0.02681 0.014972 0.017603 0.014972 
-0.037969 0.040621 0.082875 0.047526 0.011848 -0.0073881 -0.00031829 0.015465 
-0.0087034 0.027961 0.041278 0.019411 0.011684 0.0013258 -0.017746 0.0079024 
0.032564 0.041772 0.025824 0.01563 -0.0029489 -0.0011404 -0.00031829 0.039305 
0.049499 0.055254 0.0082312 0.03651 0.030263 -0.00031829 0.010697 0.021713 
0.056404 0.042429 0.012999 0.020233 0.032071 0.028619 0.030263 0.039634 
0.04917 0.038155 0.035031 0.01974 0.0032988 0.032893 0.027468 0.021056 
0.060022 0.082217 0.059528 0.046046 0.012013 0.004943 0.036839 0.019247 
0.051801 0.064132 0.064132 0.018589 0.037497 -0.015938 0.083862 0.042265 
0.052952 0.056569 0.047855 0.049499 0.052787 0.059035 0.097672 0.037004 
0.037497 0.079422 0.048677 0.041936 0.054925 0.093562 0.064461 0.050157 
0.013986 0.046868 0.039634 0.020891 0.050157 0.0592 0.042923 0.026646 
-0.010019 0.042923 0.0028056 0.023357 0.047526 0.018754 0.053281 0.038812 
-0.003771 0.026646 0.031742 0.00066819 0.0087245 0.0037921 0.021056 0.033058 
0.0054362 0.078272 0.052623 -0.0054151 0.009711 0.01004 0.012506 0.048184 
0.028619 0.068078 0.058377 0.020727 0.0083956 1.0539e-005 0.00083261 0.047033 
0.04917 0.058213 0.080573 -0.026131 -0.028926 -0.037476 -0.038462 0.036839 
0.036346 0.084026 0.054432 0.027303 0.020562 0.0064227 0.0079024 0.038483 
0.065118 0.057391 0.0046141 0.024673 0.043909 0.035031 -0.010183 0.05624 
0.052459 0.059857 -0.018239 0.017932 0.017767 1.0539e-005 0.0062583 0.020562 
0.023522 0.064132 -0.0019624 0.014972 0.036346 0.037661 0.007738 -0.02646 
0.037004 0.053116 0.013657 0.050321 0.033222 0.02533 0.033387 0.0069159 
0.037661 0.036017 0.04654 0.041936 0.056898 0.026481 0.03947 0.057227 
0.043251 0.025659 0.02533 0.02829 0.049006 0.048513 0.068407 0.057391 
0.03651 0.017603 0.0060938 0.049828 0.016781 0.0592 0.040785 -0.065426 
0.041607 -0.010348 0.00050378 0.040456 -0.0019624 0.027632 0.0018191 -0.2328 
0.018918 -0.028104 0.027961 0.026152 0.025824 0.0083956 -0.028269 -0.23773 
0.0090533 0.031578 0.067749 0.041443 0.055254 0.0062583 -0.030899 -0.13432 
-0.0032777 0.02681 0.070873 0.035524 0.04654 0.012506 -0.0091966 0.045882 
0.019247 0.047033 0.076792 0.054267 0.023851 -0.009361 -0.0013048 0.20684 
0.02829 0.060844 0.084026 0.043416 0.0088889 -0.0026201 0.050157 0.22279 
0.0098754 0.10672 0.045553 0.024344 0.023686 0.0023123 0.052459 0.19254 
0.035524 0.080244 0.024179 0.0070803 0.02122 0.012342 0.0421 0.12266 
0.051308 0.058871 -0.0019624 0.037497 0.032236 0.0080668 0.027961 0.071531 
0.045389 0.077614 0.017603 0.022042 0.049006 0.0028056 0.044402 0.031742 
0.059364 0.058706 0.010697 0.027139 0.018754 0.051308 0.048513 0.01826 
0.066927 0.039963 0.012835 0.045553 0.019083 0.026152 0.019247 -0.03353 
0.061008 0.05065 0.025988 0.019247 0.013164 0.00033937 -0.0096899 -0.073976 
0.045389 0.073997 0.020727 0.0052718 0.020891 -0.0034422 -0.011498 -0.10193 
0.039799 0.03536 0.05624 0.047362 0.0324 0.0092177 -0.0138 -0.080059 
0.046046 0.013492 0.0421 0.037004 0.038155 0.029769 -0.018404 -0.030242 
0.034044 0.035195 0.0324 0.025824 0.01974 0.032236 0.013986 0.016123 
0.0095465 0.023686 0.016781 0.025001 0.024837 0.081231 0.077778 0.051965 
-0.03205 0.007738 0.03388 0.016616 0.037004 0.10178 0.076299 0.056898 
-0.0034422 0.033715 0.054925 0.069064 0.03651 0.083204 0.086821 0.071037 
0.041607 0.063639 0.043251 0.052294 0.049992 0.053774 0.0689 0.057884 
0.08156 0.04358 0.02122 0.047033 0.026974 0.030592 0.051801 0.049992 
0.094877 0.01826 -0.0068948 0.039634 -0.0004827 0.010533 0.023851 0.054596 
0.099974 0.016288 -0.040435 -0.0014692 -0.0034422 0.0014903 -0.0011404 0.0075736 
0.08715 -0.0022913 -0.016431 -0.009361 0.014808 0.0059294 -0.0098543 -0.0138 
0.058049 -0.013471 -0.029091 0.035688 0.020727 0.0018191 -0.018404 -0.025802 
0.031907 0.016288 -0.01676 0.0051074 0.02829 -0.017088 0.0032988 0.041278 
0.021056 0.030263 0.020233 0.0064227 0.029934 -0.0095255 0.0067515 0.13549 
0.015137 0.029276 0.042594 0.030427 0.032893 0.007738 -0.034352 0.098659 
-0.01528 0.055582 0.040128 0.017932 0.020233 -0.03912 -0.061316 -0.039284 
-0.011827 0.065447 0.04654 0.034209 0.015301 -0.041586 -0.063618 -0.1473 
-0.011334 0.046046 0.063968 0.066763 0.04358 -0.0022913 0.032236 -0.027447 
0.10376 -0.006566 0.011191 0.046211 0.062817 0.090274 0.11198 0.10195 
0.034702 0.037661 0.054925 0.046375 0.06183 0.1202 0.14782 0.17495 
0.030098 0.040785 0.081395 0.058871 0.078107 0.099481 0.14009 0.19287 
0.026646 0.04506 0.076956 0.03092 0.034537 0.070051 0.13121 0.14815 
0.013821 0.10655 0.10589 0.0036276 0.023686 0.024837 0.065283 0.15127 
0.029769 0.092247 0.12349 0.029276 0.024179 -0.0021268 0.012835 0.084684 
0.055582 0.050979 0.050157 0.029769 0.018589 -0.044381 0.024344 0.077778 
0.067913 0.031742 -0.022514 0.017603 0.020562 0.0041209 0.0044497 0.013492 
0.10359 0.042265 -0.051287 0.012835 0.0036276 0.017274 -0.01232 0.0046141 
0.082875 0.015794 -0.032543 0.0023123 0.0042853 -0.006566 -0.0073881 -0.037805 
0.055747 0.049664 0.0023123 0.018754 0.011191 -0.013965 0.017932 -0.011663 
0.0052718 0.068407 0.04506 0.023193 0.012177 -0.014787 0.039634 0.00297 
-0.0082102 0.040128 0.059693 0.0080668 0.032729 0.01152 0.014808 0.06331 
0.0093821 0.0079024 0.0034632 0.038483 0.021878 0.036839 0.0070803 0.091589 
0.010204 0.009711 0.012342 0.023028 0.020233 0.037661 0.01711 0.071202 
0.011848 0.022206 0.025495 -0.001798 0.01826 0.025001 0.02122 0.076299 
0.035195 0.027303 0.031414 0.049335 0.025988 -0.0021268 0.032729 0.058377 
0.044896 0.025824 0.029605 0.019576 0.048348 0.0065871 0.025495 0.049828 
0.033715 0.081067 0.086492 0.027139 0.051965 0.022206 0.018425 0.03651 
0.026974 0.071531 0.089123 0.027139 0.030756 0.017274 0.044402 0.018589 
0.012177 0.049006 0.060515 0.0011614 0.014808 0.015794 0.021384 -0.0096899 
0.0013258 0.059693 0.034537 -0.0004827 0.010533 0.038812 0.029276 -0.0080457 
-0.0059084 0.054925 -0.009361 0.034044 0.023193 0.032071 0.026152 0.01152 
0.0042853 0.048348 0.0070803 -0.00031829 0.041607 0.027796 0.055911 0.0079024 
0.00033937 0.044238 0.026646 0.015465 0.04358 0.024508 0.033715 0.016616 
-0.0014692 0.061501 0.032071 0.046704 0.022535 0.025659 0.030427 0.01267 
0.013986 0.036839 0.039634 0.038648 0.034866 0.053609 0.051472 0.0098754 
0.033387 0.032729 0.026974 0.015137 0.020562 0.023522 0.048019 0.015301 
0.042265 0.0421 0.038483 0.044567 0.027139 0.018096 0.048348 0.023028 
0.043251 0.021549 0.028454 0.033715 0.043087 0.030756 0.035195 0.038319 
0.0421 0.0052718 0.01004 0.049006 0.056898 -0.006566 0.011026 0.064625 
0.039799 0.026152 0.024015 0.062159 0.027139 -0.028433 -0.0014692 0.069558 
0.044402 0.058213 0.037168 0.0324 0.021384 -0.03501 0.0083956 0.080738 
0.016781 0.030263 0.039634 0.014808 -0.0039354 -0.0070593 0.025659 0.063145 
0.01152 0.023193 0.040456 0.017274 0.013821 0.034044 0.012177 0.030427 
0.016123 0.034044 0.029112 0.01711 0.037497 0.062488 0.019083 -0.045203 
0.027468 0.032893 0.018918 0.0047785 0.037497 0.092247 0.020069 -0.07825 
0.046704 0.060022 0.047197 0.025495 0.019905 0.061501 0.028454 -0.049149 
0.057227 0.099316 0.049006 0.023851 0.012342 0.045389 0.052952 0.054103 
0.060186 0.078107 0.043909 0.027303 0.0041209 0.02533 0.05476 0.00083261 
0.066105 0.066598 0.025495 0.0098754 0.018754 0.030098 0.051636 0.027796 
0.019576 0.048841 0.019411 0.01415 0.0064227 0.028619 0.0028056 -0.10587 
0.018589 0.061172 0.033387 0.065283 0.032236 0.005765 0.0031344 -0.11985 
0.015959 0.035195 0.038155 0.02533 0.019083 0.025166 0.014479 -0.10028 
0.013821 0.034702 0.048677 0.037661 0.042594 0.044731 0.022206 -0.0091966 
0.022864 0.058049 0.026152 0.058049 0.0421 0.050157 0.072846 0.10458 
0.047691 0.042265 0.020069 0.03388 0.047691 0.030756 0.059857 0.13286 
0.050321 0.031414 0.00297 0.049499 0.054103 0.060186 0.039141 0.12135 
0.044073 0.038155 0.014972 0.046046 0.0227 0.045718 0.029276 0.071202 
0.041114 0.041278 0.0034632 0.025659 0.0085601 0.047033 0.057062 0.058542 
0.039963 0.023193 0.027632 0.016781 0.0083956 0.055254 0.030592 0.034537 
0.033222 0.013164 0.018589 0.04917 0.030756 0.092576 0.039799 0.02533 
0.031907 0.050979 0.00050378 0.018096 0.038648 0.053938 0.033058 0.035524 
0.032564 0.039305 0.020233 0.00050378 0.045389 0.0069159 0.034373 0.030263 
0.0031344 0.0088889 0.015465 0.0324 0.013821 -0.031392 -0.021856 0.020398 
0.014315 0.054596 0.02829 0.011191 0.0095465 -0.039942 -0.060823 -0.0090322 
0.0056006 0.053609 0.054925 0.04506 0.039634 -0.061316 -0.061809 -0.082196 
0.0014903 0.054925 0.044896 0.046704 0.020562 -0.043066 -0.037805 -0.20156 
0.013164 0.046375 0.00050378 0.01974 0.022206 0.011191 -0.015609 -0.22622 
0.024508 0.059035 0.023686 0.026974 0.021549 0.051965 0.036346 -0.035667 
0.056733 0.059035 0.059693 0.041114 0.028783 0.065612 0.057391 0.13664 
0.064461 0.050486 0.082217 0.038319 0.024837 0.052787 0.085012 0.20997 
0.047855 0.03799 0.057062 0.049664 0.032893 0.062323 0.092082 0.16492 
0.019083 0.023851 0.035853 0.034209 0.037661 0.037004 0.066434 0.12118 
0.023193 -0.0026201 -0.010512 0.014972 0.048348 0.012177 0.02829 0.078272 
0.024015 0.032071 -0.0096899 0.024344 0.025001 0.01826 0.0074092 0.036839 
0.027796 0.050814 0.029934 0.015959 0.0054362 0.027468 0.022535 -0.0029489 
0.047033 0.046375 0.035195 0.011684 0.01826 0.012342 0.024508 -0.003771 
0.076299 0.048841 0.039963 0.047362 0.014643 0.014315 0.015137 -0.01117 
0.090767 0.072846 0.056569 0.027139 0.028454 0.022042 -0.008539 -0.02646 
0.082053 0.056404 0.048513 0.022371 0.054103 0.031742 0.030592 0.0093821 
0.039141 0.055747 0.064132 0.042758 0.03388 0.064296 0.071859 0.012835 
0.021713 0.070051 0.079422 0.014643 0.025988 0.05624 0.072681 0.074654 
0.0067515 0.068736 0.072188 0.011848 0.037497 0.034537 0.047526 0.09833 
-0.0036066 0.049335 0.021384 0.04654 0.025824 0.022535 0.058049 0.10836 
0.024179 0.040128 0.028454 0.01415 0.020233 0.0037921 0.05065 0.1179 
0.022371 0.053938 0.027961 0.023193 0.041114 0.012506 0.0090533 0.070544 
0.014479 0.031085 0.007738 0.04358 0.014315 0.0083956 -0.015773 0.031742 
0.010697 0.023193 0.0054362 0.028947 0.011191 0.0052718 0.0062583 -0.037147 
0.025495 0.061995 0.0024767 0.031249 0.031742 -0.01117 -0.021528 -0.026296 
0.021549 0.04358 0.030263 0.062488 0.017932 1.0539e-005 0.020069 0.01974 
0.013986 0.039141 0.081231 0.037004 0.046868 0.013328 0.01004 0.06331 
0.021549 0.031249 0.031742 0.020233 0.036182 0.027796 -0.0013048 0.038648 
0.021384 0.014808 0.019576 0.027796 0.049006 0.0087245 0.024837 -0.069701 
0.019247 0.0085601 0.020891 0.017274 0.031249 0.056076 0.00297 -0.16934 
0.043745 0.014479 0.041772 0.026646 0.027632 0.015959 -0.012156 -0.15405 
0.041114 0.061008 0.037332 0.031085 0.02829 -0.066248 -0.024652 0.019905 
0.045553 0.041936 0.011355 0.027139 0.031742 -0.0049219 0.071531 0.17774 
0.08304 0.049828 0.034209 0.02122 0.027303 0.011848 0.094384 0.23364 
0.055582 0.076627 0.059364 0.024344 0.016452 0.038483 0.064461 0.19764 
0.063803 0.076627 0.03388 0.0072447 0.013986 0.01004 0.029769 0.14601 
0.058049 0.062159 0.034209 0.0037921 0.025495 0.042594 0.040621 0.11872 
0.062323 0.066927 0.051801 0.015301 0.035524 0.02829 0.033387 0.070051 
0.066598 0.092411 0.053445 0.02681 0.058871 0.032729 0.036675 0.047362 
0.058871 0.064625 0.039799 0.033058 0.031578 0.046704 0.061008 0.0083956 
0.0227 0.035195 0.049006 0.039963 0.0019835 0.059693 0.048513 -0.020541 
-0.00015387 0.013821 0.017932 0.038483 -0.019061 0.031249 0.037168 -0.076606 
0.0018191 0.015301 0.00033937 0.058542 0.013986 0.0019835 0.017767 -0.073482 
0.024508 0.010697 -0.017911 0.031578 0.029112 0.01563 0.013492 -0.062138 
0.018096 0.0070803 -0.026624 0.039141 0.047362 0.036346 0.0037921 -0.022185 
0.019905 0.04506 0.005765 0.058871 0.032729 0.010533 0.0014903 -0.020541 
0.032236 0.036839 0.05476 0.0093821 -0.021856 -0.0096899 -0.02646 0.013986 
0.044402 0.037497 0.051636 0.009711 -0.0054151 -0.024158 -0.013471 0.10359 
0.072353 0.05772 0.011191 0.046211 0.0088889 -0.016431 0.013492 0.15357 
0.047526 0.040456 0.0023123 0.014479 0.045882 -0.0013048 0.050814 0.12612 
0.031907 0.042594 0.053609 0.02533 0.048019 0.01974 0.039634 0.065776 
0.014315 0.058049 0.086657 0.04506 0.033715 0.026974 0.033551 0.046046 
0.025166 0.068078 0.12497 0.029934 0.033058 0.048019 0.030263 0.030756 
0.0085601 0.053938 0.097344 0.021878 0.024837 0.030098 0.048184 0.0087245 
0.0036276 0.047362 0.016452 0.057884 0.005765 0.029934 0.04095 0.019247 
-0.00081153 0.03947 -0.0004827 0.01004 0.027139 0.0227 0.025495 -0.003771 
0.00297 0.025001 0.005765 0.03947 0.034044 0.020727 0.037332 -0.0021268 
0.011191 0.011684 -0.0011404 0.047362 0.029769 0.032236 0.04358 0.0023123 
0.020398 0.048184 -0.016102 0.027139 0.016288 0.041772 0.047362 0.0092177 
0.017438 0.038648 0.012506 0.03388 0.027139 0.0069159 0.023851 0.014315 
0.034373 0.064132 0.01974 0.040785 0.038483 -0.0021268 0.0062583 0.013328 
0.035688 0.076792 -0.0019624 0.014972 0.012506 0.00297 0.013986 0.029605 
0.036675 0.051472 -0.019061 0.017767 0.03536 0.022864 0.038648 0.022864 
0.02122 -0.00097594 -0.01117 0.0021479 0.0065871 0.021878 0.023851 0.037004 
0.0014903 0.0026412 0.023193 0.0054362 0.027961 0.0090533 0.0082312 -0.0068948 
0.022371 0.025495 0.078272 -0.0080457 0.090931 0.049992 0.021878 0.022864 
0.022371 0.075312 0.088136 0.041607 0.037661 0.050486 0.013492 0.02533 
0.045224 0.058377 0.06183 0.031578 0.058871 0.046046 0.020562 0.021713 
0.030263 0.082711 0.083697 0.061008 0.024508 0.016452 0.017274 0.03536 
0.054267 0.080409 0.1202 0.052459 0.019576 0.045553 0.018918 0.044731 
0.041607 0.052952 0.11444 0.046375 0.031578 0.033551 0.044402 0.041443 
0.049664 0.043251 0.1054 0.082875 0.019576 0.030098 0.037332 0.013492 
0.046868 0.0324 0.067256 0.050321 0.0324 0.029934 0.05213 0.027632 
0.062652 0.010697 0.0092177 0.018918 0.044073 0.037168 0.037497 0.027139 
0.018589 0.0062583 -0.015444 0.019576 -0.0090322 0.023193 0.03388 0.033222 
0.02681 0.052459 -0.018897 -0.02794 -0.016595 0.01974 0.021549 0.026152 
0.0098754 0.060679 -0.031721 -0.013636 -0.00031829 0.024508 0.022535 0.0065871 
0.0044497 0.070051 -0.014951 0.035688 0.026152 0.032729 0.020891 0.014479 
0.024673 0.082546 0.0044497 0.019411 0.065447 0.056898 0.009711 0.025495 
0.030427 0.089452 0.027139 0.035195 0.069558 0.065283 0.046046 0.035524 
0.01711 0.073339 -0.042079 0.068407 0.053445 0.07449 0.04095 0.0324 
0.03536 0.029112 -0.026131 0.0421 0.044896 0.055418 0.021878 0.01152 
0.02681 0.037826 0.020398 0.02681 0.054596 0.027303 0.017767 0.0090533 
0.027961 0.02122 0.051965 0.047362 0.02122 0.0085601 0.059857 0.038648 
0.058049 0.005765 0.049992 0.042923 0.026481 0.01563 0.071531 0.079422 
0.067585 1.0539e-005 0.034373 0.026152 0.041278 0.012013 0.060679 0.081395 
0.07449 0.018589 0.00033937 0.04095 0.022535 0.030427 0.049992 0.098988 
0.068242 0.0324 0.035031 0.03388 0.028947 0.01826 0.062817 0.10491 
0.06594 0.062323 0.059857 0.020398 0.021384 0.0098754 0.036182 0.10737 
0.034209 0.072024 0.034866 0.019576 0.013821 0.0036276 0.010533 0.051801 
0.013657 0.047691 0.042429 -0.0004827 0.012835 -0.013143 -0.0078813 0.047691 
-0.055397 0.025659 0.065776 0.025001 0.01563 0.016452 0.0051074 0.083204 
-0.030735 0.06183 0.088136 0.020233 0.0075736 0.034044 0.023686 0.084026 
0.050814 0.08156 0.052459 0.028125 0.019247 0.059035 0.039799 0.046868 
0.09685 0.073175 0.027632 0.05065 0.025166 0.033715 0.012999 -0.096007 
0.097508 0.084848 0.019247 0.01267 0.036017 0.042265 0.0075736 -0.20633 
0.084519 0.067091 0.021384 0.024179 0.038319 0.023522 -0.001798 -0.26502 
0.07449 0.077449 0.034044 0.059528 0.029769 0.0031344 -0.0060728 -0.093048 
0.065447 0.04358 0.052459 0.035524 0.027632 0.016945 0.012835 0.10556 
0.052787 0.074983 -0.0016336 0.020562 0.0060938 0.019576 0.046375 0.1807 
0.041936 0.040785 -0.014622 0.038812 0.029769 0.020398 0.072353 0.14552 
0.045224 0.047691 0.016616 0.01563 0.020562 0.019576 0.056733 0.063145 
0.015465 0.044567 0.044238 0.014972 0.035853 0.0092177 0.024837 -0.0050863 
0.009711 0.031907 0.056076 0.036017 0.02681 -0.0036066 0.019247 -0.022679 
-0.011992 -0.020541 0.016616 0.00017495 0.0023123 -0.014458 0.016123 0.029276 
-0.0064016 -0.010019 -0.02794 0.0037921 0.0070803 -0.0036066 0.011355 0.049006 
0.017438 0.019247 -0.089759 0.0324 0.020069 0.017603 0.024673 0.052294 
0.034537 0.03947 -0.031886 0.020562 0.025988 0.028783 0.013164 0.088136 
0.041443 0.060515 0.027303 0.018425 0.012177 0.0080668 0.022864 0.048019 
0.019576 0.075641 0.053609 0.023686 0.01563 0.036182 0.045882 0.025001 
0.014315 0.054103 0.072517 -0.01939 0.007738 0.016452 0.031578 0.0044497 
0.02122 0.06479 0.091589 0.041443 0.01152 0.027303 0.012342 0.0051074 
-0.0095255 0.048841 0.020233 0.032071 0.017603 0.033387 0.037004 -0.022185 
0.023193 0.03799 -0.01232 0.025166 0.03092 0.039305 0.043416 0.018754 
0.035195 -0.012649 -0.0013048 0.034537 0.045389 0.0080668 0.029276 0.047362 
0.030098 0.025166 0.051472 0.020727 0.023193 0.0074092 0.0042853 0.022864 
0.039963 0.077614 0.10343 0.038483 0.012342 0.00297 -0.0055795 0.037332 
