0.031578 0.039799 0.057062 0.048184 0.027468 0.013328 -0.011992 0.031907 
0.037168 0.044073 0.037332 0.03651 0.041772 0.0016547 -0.00015387 0.049992 
0.01267 0.051472 0.020069 0.015465 0.04917 0.0018191 0.0026412 0.032893 
0.013164 0.054267 0.0034632 0.054103 0.050814 0.032236 0.014643 0.03651 
0.012506 0.019411 0.025001 0.019411 0.046046 0.029112 -0.008539 0.022042 
0.023851 0.047197 0.046704 0.024508 0.048841 -0.0047575 -0.011827 0.021549 
0.0059294 0.059857 0.049499 0.039963 0.033715 0.016288 -0.0052507 0.034537 
0.029441 0.051143 0.066598 0.020562 0.040292 0.029441 0.016123 0.028454 
0.016781 0.032236 0.014479 0.025001 0.042923 0.037004 -0.00031829 0.03799 
0.029934 0.066927 0.025495 0.037497 0.06035 0.016288 -0.0077169 0.020069 
0.042265 0.051801 0.0227 0.051636 0.035195 0.045224 0.0070803 0.036839 
0.063968 0.043909 0.020891 0.040621 0.050157 0.041278 0.032893 0.030592 
0.078272 0.062652 0.040128 0.044073 0.039634 0.039799 0.011026 0.042429 
0.076463 0.066269 0.03536 0.033715 0.048348 0.044731 0.020562 0.063803 
0.062981 0.044402 0.053116 0.036017 0.057062 0.041772 0.027139 0.030756 
0.03651 0.041772 0.033551 0.019905 0.05624 0.026152 0.028619 0.038155 
0.019576 0.026481 0.014315 -0.019061 0.0324 -0.047669 -0.015444 -0.00015387 
0.005765 0.019247 0.016945 0.049335 0.044567 0.036017 0.017603 0.015794 
0.013986 -0.012814 0.041278 0.047855 0.04358 0.04358 0.055418 0.017767 
0.0041209 0.050157 0.034537 0.035688 0.034209 0.029934 0.0324 0.012013 
0.0044497 0.053609 0.10425 0.031085 0.060515 -0.011498 0.018096 0.025824 
0.029934 0.05476 0.034866 0.025001 0.045553 0.04654 0.017274 0.018918 
0.03092 0.056733 0.013986 0.012177 0.037661 0.03388 0.013657 0.037497 
0.036675 0.035195 -0.0095255 0.043909 0.025001 0.049499 0.058213 0.016123 
0.029769 0.011355 0.0072447 0.018096 0.048677 0.035688 0.038648 0.029934 
0.020727 0.04506 0.036346 0.040456 0.040128 0.046211 0.033387 0.032893 
0.050321 0.083862 0.073832 0.062488 0.062159 0.048348 0.043745 0.051308 
0.042594 0.091918 0.083862 0.032236 0.062981 0.049499 0.051308 0.0421 
0.045718 0.088958 0.0421 0.043087 0.033551 0.052952 0.074819 0.04917 
0.036182 0.071695 0.030098 0.039141 0.034044 0.037661 0.040785 0.056076 
0.021384 0.04358 0.026974 0.013986 0.03092 0.035195 0.026481 0.016452 
0.044731 0.044402 0.020891 0.01826 0.042758 0.024179 0.040292 0.03799 
0.037332 0.054925 0.031249 0.029276 0.0324 0.033222 0.050979 0.016288 
0.046046 0.051472 0.052294 0.011191 0.022864 0.031907 0.046375 0.029605 
0.025988 0.031578 0.041443 0.031249 0.026152 0.016288 0.025166 0.029934 
0.011355 0.026646 0.031742 0.042758 0.019576 0.038648 0.036182 0.026152 
0.016288 0.039799 0.023522 0.026481 0.023193 0.035688 0.054267 0.034866 
0.016616 0.024344 0.034866 0.038648 0.02829 0.019576 0.046704 0.014808 
0.0074092 0.034866 0.0067515 0.0095465 0.042594 0.053938 0.028619 0.033058 
0.01974 0.059693 0.035031 0.02533 0.051472 0.036675 0.036017 0.033715 
0.034209 0.038648 0.051143 0.057884 0.0095465 0.03388 0.062981 0.027303 
0.031249 0.037004 0.039141 0.024837 0.022042 0.019083 0.045718 0.023028 
0.020069 0.077285 0.029934 0.00083261 0.013492 0.023028 0.029441 0.028783 
0.018918 0.061501 0.024837 0.053445 0.029112 0.038977 0.027139 0.03388 
0.025495 0.022042 0.030098 0.012999 0.039634 0.028125 0.050814 0.038319 
0.018754 0.037826 0.026481 0.019411 0.051308 0.026152 0.049335 0.046868 
0.03799 0.06331 0.045553 0.047197 0.0069159 0.051965 0.034209 0.032564 
0.036017 0.027303 0.057555 0.035853 0.017603 0.030756 0.02533 0.039634 
0.019576 0.014479 0.026317 0.010533 0.0023123 0.019576 0.034044 0.03947 
0.020398 0.065447 0.028783 0.032564 0.020562 0.016288 0.04506 0.019247 
0.03651 0.038812 0.042429 0.00066819 0.029769 0.025659 0.049006 0.03092 
0.036182 0.030427 0.0227 0.0041209 0.035688 0.023357 0.025495 0.025824 
0.037332 0.050814 0.029441 0.024179 0.0075736 0.012177 0.018918 0.043416 
0.043416 0.06183 0.045718 0.0056006 0.030592 0.022042 0.038648 0.04095 
0.041772 0.034209 0.030427 0.028454 0.023028 0.017932 0.019083 0.034866 
0.053609 0.025166 0.017603 0.034537 0.03092 -0.00015387 0.004943 0.039963 
0.048841 0.071859 0.014808 0.017274 0.052294 -0.0075525 0.0060938 0.022206 
0.082546 0.040621 0.01974 0.052294 0.036017 0.0093821 0.065612 0.045553 
0.057227 0.038155 0.025166 0.021384 0.031085 0.028125 0.026974 0.027961 
0.0421 0.038648 0.026317 0.023357 0.031249 0.035688 -0.0016336 0.030592 
0.037004 0.021549 0.062159 0.060844 0.019905 0.024015 0.033387 0.02122 
0.020233 0.022206 0.045224 0.043251 0.012013 0.027632 0.038483 0.062159 
0.0324 0.03651 0.027303 0.022535 0.030592 0.013328 0.027796 0.026317 
0.054103 0.034537 0.01415 0.04654 0.026317 0.010697 -0.0014692 0.034702 
0.039799 0.012999 0.00033937 0.0070803 -0.013965 0.021384 0.0079024 0.027961 
0.033551 0.040785 0.016452 -0.018897 0.00066819 0.00297 0.034373 0.02533 
0.026481 0.053445 0.046704 0.039799 0.016452 0.0031344 0.024344 0.038977 
0.00099702 0.032236 0.046211 0.022535 0.01415 0.0083956 0.02681 0.016945 
-0.0042642 0.024673 0.0042853 0.022371 0.021713 0.015794 0.013164 0.027303 
0.021549 0.044238 0.0060938 0.032893 0.015301 0.0013258 0.018754 0.013821 
0.034702 0.049006 0.03388 0.028947 0.016452 0.024344 0.028125 0.033551 
0.051801 0.045882 0.026317 0.024837 0.023357 0.036346 0.019083 0.032071 
0.052787 0.01826 0.038319 0.052952 0.013164 0.019905 0.020891 0.038319 
0.043251 0.06331 0.062652 0.034044 0.025001 0.022371 0.038812 0.034702 
0.030592 0.054267 0.048348 0.039141 0.044402 0.023193 0.045553 0.019411 
0.016288 0.042758 0.028454 0.038812 0.027632 0.036839 0.023193 0.036346 
0.042594 0.070708 0.038648 0.032564 0.01415 0.018425 -0.00081153 0.024344 
0.034537 0.06035 0.020891 0.042923 0.0054362 0.0065871 0.011684 0.026152 
0.039963 0.044073 0.012999 0.024344 0.009711 0.023357 0.034537 0.026481 
0.015137 0.031578 0.033222 0.01974 0.012999 0.028454 0.023357 0.029769 
0.020398 0.031249 0.049664 0.050157 0.046211 0.0047785 0.017603 0.027632 
0.0032988 0.004943 0.019576 0.01152 0.023357 0.012999 0.012835 0.0067515 
0.01563 0.028125 0.021713 0.01826 0.017767 0.027303 0.040456 0.023028 
0.039305 0.04917 0.015959 0.055747 0.009711 0.0085601 0.019247 0.0054362 
0.032236 0.05065 0.034209 0.02681 0.020891 0.019576 0.034373 0.023851 
0.030263 0.028619 0.031249 0.00050378 0.020398 0.03536 0.0227 0.021056 
0.013164 0.061995 0.048513 0.027303 0.024508 0.029605 0.035031 0.010204 
0.019247 0.043087 0.049006 1.0539e-005 0.016452 0.017932 0.0095465 0.02681 
0.036346 0.052787 0.016452 0.020069 0.018754 0.012506 0.0034632 0.018918 
0.046704 0.054925 0.033715 0.03799 0.016616 0.048513 0.013164 0.033715 
0.05772 0.069886 0.028947 0.032564 0.02122 0.031414 0.044238 0.036017 
0.053445 0.06742 0.041443 0.060515 0.034044 0.031085 0.029441 0.04358 
0.018754 0.057555 0.056076 0.028454 0.02829 0.021384 0.032564 0.01711 
0.032236 0.058542 0.050979 0.024344 0.035524 0.023686 0.038155 0.034866 
0.028125 0.037826 0.030756 0.038977 0.01415 0.015465 0.037004 0.027139 
0.049992 0.036346 0.021549 0.030263 0.024179 0.0074092 0.015137 0.01267 
0.029112 0.056898 0.018918 0.028454 0.041772 0.02533 -0.00015387 0.03092 
-0.015938 0.066598 -0.0004827 0.047855 0.030756 0.019083 0.0041209 0.019247 
0.0083956 0.043416 0.024015 0.028619 0.034209 0.013492 0.032236 0.0080668 
0.032729 0.054103 0.054432 0.025001 0.026974 0.0032988 0.027303 0.01711 
0.010369 0.091753 0.0016547 0.051472 0.012835 0.024673 0.042923 0.022042 
0.03388 0.044238 0.0088889 0.021713 0.013657 0.026481 -0.023007 0.030098 
0.042594 0.055911 0.014808 0.03536 0.012835 0.022206 -0.028762 0.050814 
0.038155 0.055582 0.032071 0.049664 0.036675 0.023522 0.0067515 0.042429 
0.05476 0.027632 0.038648 0.023686 0.040128 0.04095 0.044896 0.018096 
0.034044 0.042758 0.025495 0.012013 0.0080668 0.03092 0.072846 0.0421 
0.035524 0.042429 0.045389 0.031742 0.015137 0.029605 0.09685 0.048184 
0.02681 0.044896 0.037497 0.017603 0.0042853 0.055911 0.10293 0.026152 
0.035688 0.037332 0.027961 0.019411 0.029276 0.032893 0.028783 0.044238 
0.032893 0.027796 0.020727 0.038319 0.039305 0.0054362 -0.084334 0.027961 
0.027139 0.037004 0.010204 0.028454 0.054596 -0.019226 -0.1016 0.04358 
0.021384 0.020727 0.012177 0.031414 0.055582 0.00033937 0.0062583 0.01826 
0.012835 0.038648 0.048513 0.016781 0.047855 0.0069159 0.13023 0.029112 
0.014643 0.071531 0.057555 0.009711 0.035031 0.028619 0.1927 0.024015 
0.026646 0.037661 0.022371 0.028783 0.042429 0.050814 0.15604 0.044238 
0.030098 0.054103 0.029769 0.013164 0.049664 0.040128 0.083533 0.069393 
0.039141 0.063968 0.035195 0.026152 0.074819 0.043416 0.0065871 0.052952 
0.037332 0.040785 0.029769 0.06331 0.072681 0.034537 0.047855 0.057884 
0.027468 0.029276 0.030427 0.032071 0.066105 0.043416 0.12003 0.031249 
0.022371 0.049992 0.051143 0.024837 0.027303 0.0324 0.13779 0.040292 
0.019247 0.047033 0.045553 0.045389 0.010533 0.017767 -0.0031133 0.0026412 
-0.0027845 0.03536 0.007738 0.031249 0.0067515 0.050321 -0.14007 -0.0060728 
0.017603 0.030427 0.015794 0.011026 -0.0040998 0.035031 -0.23083 -0.014458 
0.021878 0.053774 0.016288 0.037004 -0.014293 0.022042 -0.19071 0.01267 
0.026646 0.028454 0.012999 0.016452 -0.013636 -0.080059 -0.12231 0.034866 
0.02533 0.032071 0.020233 -0.0011404 -0.0096899 -0.13316 -0.098144 0.041936 
0.041936 0.053938 0.042923 0.039634 0.0028056 -0.16177 -0.095678 0.0689 
0.025166 0.035031 0.038812 0.027139 0.024673 -0.12198 1.0539e-005 0.070873 
0.029112 0.024344 0.020562 0.014808 0.013492 -0.022843 0.17265 0.066269 
0.018096 0.020562 0.020398 0.02829 0.00033937 0.092904 0.29497 0.047691 
0.015959 0.045389 0.024837 0.027632 -0.021199 0.15752 0.2976 0.024015 
0.034866 0.050486 0.033715 0.044402 -0.015116 0.18909 0.21227 0.027139 
0.035688 0.060679 0.041607 0.027961 0.010697 0.24186 0.11609 0.0074092 
0.051472 0.056898 0.043909 0.0064227 0.037826 0.2463 0.0079024 0.024179 
0.019411 0.041114 0.026646 0.037497 0.062652 0.22361 -0.030242 0.0075736 
0.013657 0.027961 0.021384 0.025988 0.065447 0.17051 -0.027447 0.0092177 
-0.0011404 0.058377 0.03947 0.0098754 0.12299 0.13467 -0.018075 -0.025967 
0.0065871 0.035853 0.027139 0.055254 0.097344 -0.0080457 -0.022514 0.012835 
0.013657 0.043251 0.029276 0.030263 0.078765 -0.093376 -0.041422 0.023193 
0.046868 0.038483 0.045882 0.030098 0.080738 -0.16539 -0.01939 0.013657 
0.021384 0.071366 0.069886 0.087479 0.084355 -0.21323 0.031085 0.01974 
0.063968 0.047197 0.02122 0.0092177 0.068242 -0.18907 -0.0088678 0.01563 
0.058871 0.048184 0.023851 0.021878 0.055747 -0.090253 -0.045696 0.032236 
0.048513 0.066927 0.023522 0.03947 0.043909 0.019576 -0.048327 0.012177 
0.053609 0.048513 0.02533 0.033551 0.046046 0.073175 -0.0082102 0.032071 
0.056569 0.078929 0.064461 0.070873 0.038319 0.053609 -0.0022913 0.053281 
0.064954 0.05772 0.057555 0.072517 0.031085 0.0087245 0.029769 0.0324 
0.04358 0.063474 0.03799 0.042758 0.012506 0.03536 0.095864 0.03947 
0.034866 0.04358 0.021713 0.031578 -0.010348 0.075476 0.15834 0.020562 
0.03388 0.0082312 0.024508 0.032236 -0.028104 0.14239 0.21375 0.031742 
0.023851 0.049335 0.018589 0.0026412 -0.059014 0.11855 0.15916 0.03092 
0.014808 0.032729 0.023686 0.012013 -0.023007 0.11115 0.11822 0.039963 
0.011026 0.018918 0.035524 0.0079024 -0.00064712 0.068078 0.031907 0.031414 
0.017438 0.055911 0.051965 0.021713 0.031249 0.0024767 0.0083956 0.020727 
0.029769 0.050486 0.019411 0.03092 0.023028 -0.0044286 -0.042408 0.01826 
0.026481 0.049006 0.015959 0.0065871 0.013328 -0.025967 -0.13777 -0.010512 
0.030427 0.054432 0.015794 0.0075736 0.038319 -0.016266 -0.18791 0.02681 
0.027303 0.05624 0.029605 0.050979 0.046375 0.071366 -0.067564 0.021713 
0.045718 0.040128 0.041114 0.027961 0.094548 0.14634 0.0013258 0.047855 
0.039963 0.035524 0.063639 0.038483 0.10803 0.023193 0.057555 0.032071 
0.020727 0.07449 0.056733 0.059035 0.064954 -0.10176 0.056404 0.034866 
0.021713 0.050814 0.031578 0.045882 0.04506 -0.13136 0.013164 0.038812 
0.036839 0.061666 0.035031 0.04917 0.044731 -0.1182 0.011026 0.021056 
0.036182 0.060679 0.034373 0.059528 0.031742 -0.058521 0.026974 0.048841 
0.021384 0.047691 0.023686 0.02829 0.020069 -0.01232 0.054925 0.020069 
0.0024767 0.018096 0.037168 0.024344 0.023686 0.070215 0.10129 0.020398 
0.0016547 0.044402 0.050814 0.016616 0.0072447 0.075805 0.10622 0.010862 
0.012177 0.039963 0.027632 0.0082312 0.0056006 0.079751 0.11674 0.012999 
0.022864 0.03536 0.02533 0.02533 0.0013258 0.088794 0.11921 0.042429 
0.011026 0.025001 0.025659 0.0227 0.0031344 0.083204 0.1516 0.0087245 
0.0036276 0.040456 0.024837 0.0031344 0.00297 0.079751 0.15768 0.021056 
0.0056006 0.023851 0.020891 0.025001 0.012835 0.061666 0.12595 0.01267 
0.023193 0.038319 0.049828 0.031578 0.016945 0.056569 0.087643 0.027961 
0.027632 0.06331 0.06035 0.012013 0.022206 0.022864 0.066598 0.052787 
0.047855 0.061995 0.027961 0.049499 0.045718 0.0011614 -0.0050863 0.032564 
0.06035 0.060022 0.0037921 0.02829 0.035031 -0.048327 -0.065097 0.023686 
0.056569 0.049664 0.042758 0.017767 0.037497 -0.033859 -0.085813 0.01004 
0.033715 0.062159 0.023686 0.0421 0.015959 -0.05737 -0.065426 0.035853 
0.04095 0.036675 0.032729 0.025824 -0.0019624 -0.047669 -0.046519 0.01563 
0.03388 0.029769 0.035524 -0.004593 -0.015116 0.0047785 -0.0062372 0.056898 
0.0065871 0.044896 0.039963 0.042429 -0.00015387 -0.012156 -0.014293 0.026974 
-0.014293 0.024015 -0.014293 0.016288 -0.0047575 -0.0090322 -0.0016336 0.048019 
0.025166 0.021549 0.010697 0.0039565 0.024508 0.021713 0.049499 0.045389 
0.055089 0.055911 0.0072447 0.033387 0.020727 0.055582 0.046375 0.049664 
0.044731 0.033715 0.023193 0.012999 0.010369 0.061337 0.048677 0.034866 
0.044073 0.032236 0.049992 -0.00031829 0.013821 0.045882 0.028125 0.012506 
0.039634 0.051308 0.055089 0.028619 0.010697 0.04654 0.058542 0.023357 
0.052952 0.076299 0.029769 0.021713 0.024344 0.04506 0.059693 0.0085601 
0.044073 0.039799 0.01152 0.025988 0.038977 0.052787 0.043909 0.018589 
0.041114 0.04095 0.019576 0.042594 0.02122 0.041278 0.024673 0.016452 
0.036675 0.054432 0.019576 0.028619 0.027632 0.048677 0.053281 0.011848 
0.039305 0.042923 0.046375 0.038319 0.021878 0.039963 0.048513 0.04506 
0.048184 0.041114 0.067091 0.025988 0.014972 0.033715 0.025988 0.028454 
0.043416 0.059857 0.069064 0.021384 0.033551 0.03651 0.026974 0.032893 
0.032893 0.032729 0.042265 0.052623 0.063639 0.039963 0.045882 0.019411 
0.020891 0.02681 0.028783 0.027796 0.02122 0.023193 0.023028 0.024673 
0.031578 0.027468 0.046211 0.046868 0.024673 0.0031344 0.0031344 0.0098754 
0.042758 0.053116 0.025824 0.045389 0.017932 0.032729 -0.0022913 0.01711 
0.032893 0.052459 0.022371 0.0092177 0.01826 0.021056 0.0090533 0.046046 
0.0052718 0.051636 0.035853 0.014808 0.029605 0.019411 0.015137 0.017438 
0.0037921 0.050979 0.0324 0.042758 0.048184 0.0031344 0.0085601 0.036346 
-0.0039354 0.031249 0.011355 0.023522 0.030756 0.029112 0.0013258 0.013492 
0.023522 0.037004 0.0324 0.017438 0.021549 0.018754 0.0067515 0.024837 
0.03536 0.06479 0.020562 0.047691 0.032564 -0.0047575 0.015465 0.041278 
0.048513 0.060679 0.035853 0.02829 0.03947 0.034209 0.0016547 0.052623 
0.030756 0.062488 0.048677 0.025824 0.048019 0.0067515 -0.0068948 0.055418 
0.037004 0.049828 0.058871 0.028125 0.048184 0.017767 -0.0014692 0.03388 
0.023851 0.05065 0.034537 0.0044497 0.054596 0.0069159 0.026481 0.049499 
0.024508 0.03536 0.015794 0.011848 0.01267 0.013328 0.00066819 0.021713 
0.014479 0.029112 0.01152 0.041278 0.025659 0.0056006 -0.031392 0.0324 
0.0227 0.054596 0.011026 0.012999 0.035031 1.0539e-005 -0.013143 0.023357 
0.040621 0.037168 0.024344 0.018425 0.0592 0.01267 0.028619 0.042594 
0.028454 0.045553 0.049499 0.042923 0.074161 0.027303 0.0051074 0.051965 
0.028783 0.059528 0.067256 0.049992 0.062159 0.024179 0.0065871 0.038155 
0.014479 0.055254 0.032071 0.066927 0.049006 0.016123 -0.004593 0.032893 
0.0016547 0.024837 0.034373 0.046211 0.042594 0.048348 0.015465 0.013164 
-0.037311 0.014808 0.017767 0.020727 0.050979 0.03536 0.0088889 0.025495 
-0.039449 0.0044497 0.0059294 0.044731 0.047362 0.026974 0.01711 0.022206 
-0.0059084 0.0042853 0.036675 0.018589 0.049006 0.022864 -0.0049219 0.022864 
0.0062583 0.0018191 0.04506 0.025166 0.037497 0.019247 0.034044 0.046868 
0.026974 0.049335 -0.0064016 0.021384 0.042758 0.031249 0.071859 0.0324 
0.03092 0.047855 0.0083956 -0.0067304 0.010862 0.010862 0.035031 0.037661 
0.046704 0.048841 0.018096 -0.030406 0.010204 0.0011614 0.048841 0.01826 
0.053281 0.071695 0.023357 0.018918 0.033387 0.0013258 0.054432 0.026646 
0.077778 0.051472 0.033058 0.0087245 0.04654 0.021056 0.056569 0.037168 
0.07038 0.029441 0.039634 0.022371 0.032893 0.011191 0.023193 0.037332 
0.042758 0.016123 0.047033 0.038155 0.029769 0.021713 0.0046141 0.048513 
0.030592 0.054596 0.028947 0.031907 0.02681 0.021056 -0.0013048 0.035688 
0.022206 0.033058 0.017603 0.046211 0.052623 0.032564 0.011026 0.047691 
0.048677 0.043416 0.026646 0.049006 0.061008 0.04358 0.019411 0.031085 
0.067749 0.072188 0.045389 0.020398 0.0592 0.057062 0.037332 0.041114 
0.050486 0.046211 0.033715 0.035524 0.025659 0.038155 0.041114 0.026481 
0.034537 0.040621 0.059528 0.012999 0.023851 0.026152 0.063474 0.029605 
0.031085 0.027632 0.03651 0.0074092 0.037826 0.039799 0.030427 0.038483 
0.021384 0.036346 0.012013 0.034537 0.016123 0.038483 0.039634 0.021549 
0.013492 0.017767 0.038977 0.00050378 0.02533 0.020562 0.055254 0.032729 
0.01826 0.023851 0.012013 0.027632 0.019411 0.013328 0.054432 0.023522 
0.031907 0.049664 0.030592 0.0421 0.024837 0.034373 0.029769 0.027961 
0.03388 0.034373 0.043745 0.036017 0.026481 0.030098 0.033551 0.022042 
0.044402 0.041114 0.052952 0.045718 0.036182 0.02829 0.042429 0.023686 
0.029605 0.057062 0.019576 0.048348 0.025166 0.037004 0.0421 0.026481 
0.038812 0.043087 0.013986 0.011026 0.019083 0.03092 0.037168 0.050486 
0.044731 0.038483 0.009711 0.029769 0.038155 0.022535 0.033715 0.041278 
0.034044 0.05476 0.016616 0.028947 0.027632 0.012013 0.029112 0.035853 
0.034866 0.050979 0.02681 0.02829 0.015959 0.038319 0.050979 0.045224 
0.045718 0.05065 0.060022 0.034537 0.032893 0.024508 0.042758 0.029605 
0.046704 0.054925 0.064132 0.054925 0.026646 0.021878 0.035853 0.028125 
0.024673 0.071531 0.056076 0.045224 0.048184 0.025659 0.049664 0.014315 
0.035853 0.06183 0.02829 0.042594 0.019083 0.021878 0.026974 0.031414 
0.042758 0.057391 0.028454 0.043745 0.009711 0.014972 0.055911 0.036675 
0.012506 0.077121 0.043251 0.013657 0.0023123 -0.0011404 0.036346 0.016945 
0.036346 0.063639 0.025988 0.043745 -0.00064712 0.022371 -0.015609 0.027796 
0.038319 0.052952 0.05065 0.033551 0.0098754 0.018425 -0.036325 0.020562 
0.036839 0.035853 0.039141 0.027139 0.031742 0.027303 -0.03353 0.033058 
0.018754 0.044238 0.026317 0.055089 0.047526 0.036675 -0.048492 0.041607 
0.021713 0.046046 0.037497 0.02829 0.029441 0.045718 -0.064275 0.036675 
0.026481 0.034702 0.046211 0.046046 -0.032215 0.0062583 -0.035996 0.062488 
0.038155 0.057391 0.023028 0.056569 0.0051074 0.022371 0.07301 0.010862 
0.01415 0.043745 0.044896 0.039634 -0.010348 0.039634 0.17232 0.025495 
0.029605 0.02829 0.049006 0.018754 0.015794 0.035853 0.21671 0.030592 
0.022535 0.013164 0.0095465 0.034044 0.032729 0.032236 0.17084 0.043745 
-0.004593 0.021878 0.015465 0.0051074 -0.0011404 0.049992 0.13023 0.031085 
-0.0040998 0.040456 0.011848 0.011026 0.0042853 0.063474 0.15259 0.021878 
0.014643 0.023193 0.026481 0.038977 -0.0050863 -0.017088 0.26899 0.044567 
0.038977 0.049006 0.031414 0.01826 0.021384 -0.093376 0.20783 0.037332 
0.077121 0.051472 0.087314 0.0098754 0.050814 -0.094692 0.041278 0.033715 
0.071531 0.056404 0.070708 0.053116 0.065612 -0.11524 -0.20468 0.019247 
0.071202 0.08419 0.036346 0.029441 0.036346 -0.15141 -0.41415 0.013164 
0.062817 0.062488 0.030427 0.012835 0.020069 -0.17706 -0.48633 -0.0075525 
0.065118 0.064625 0.029112 0.022535 -0.018568 -0.1016 -0.32734 0.0088889 
0.058213 0.045718 0.025988 0.017767 -0.067892 0.038977 -0.050793 0.016288 
0.042923 0.051801 0.039963 0.039634 -0.085485 0.17939 0.13121 0.015137 
0.030592 0.048513 0.04654 0.026646 -0.13037 0.25403 0.18383 0.058706 
0.031907 0.029441 0.034044 0.020233 -0.21274 0.2851 0.16229 0.014643 
0.021549 0.061008 0.031742 0.037661 -0.23642 0.27573 0.14075 0.023851 
0.03947 0.071366 0.015959 0.026152 -0.16934 0.23364 0.1562 0.030098 
0.018754 0.038319 0.024344 0.031578 -0.051122 0.22904 0.21769 0.051472 
0.029605 0.042594 0.025495 0.058871 0.057391 0.1179 0.20175 0.034866 
0.029441 0.035688 0.037168 0.029769 0.097837 -0.14977 0.20175 -0.02794 
0.035688 0.035524 0.051965 0.020069 0.11444 -0.59763 0.11987 0.044073 
0.037332 0.034209 0.022371 0.041278 0.14897 -0.95474 0.050979 0.01974 
0.019905 0.044567 0.0019835 0.013328 0.19961 -1.0113 0.097508 -0.0059084 
0.02681 -0.0024557 0.0023123 0.0047785 0.2389 -0.69151 0.2024 -0.0059084 
0.025001 0.0034632 0.004943 0.028947 0.24647 -0.078415 0.34396 0.046704 
0.02681 0.016945 0.013164 -0.0022913 0.24959 0.45774 0.29826 0.073832 
0.01974 0.018589 0.038648 0.0028056 0.27179 0.78936 0.0039565 0.054267 
0.041443 0.040128 0.0421 0.037497 0.27343 0.94687 -0.27966 0.043745 
0.037004 0.068242 0.024837 0.036017 0.24236 0.91793 -0.51395 0.04506 
0.022864 0.05065 0.024344 0.054596 0.22 0.69976 -0.61194 0.058377 
0.015794 0.042429 0.021384 0.056076 0.1904 0.56132 -0.58432 -0.011334 
0.015465 0.042429 0.022371 0.044402 0.15094 0.47369 -0.36828 -0.071345 
0.015959 0.050486 0.037826 0.037661 -0.0034422 0.3461 0.017603 -0.068714 
0.032564 0.033715 0.077449 0.011848 -0.12807 0.17873 0.39674 -0.0032777 
0.038319 0.047526 0.03388 0.023686 -0.1963 -0.066084 0.53781 0.045718 
0.045389 0.073832 0.040456 0.061337 -0.18002 -0.31862 0.52663 0.085012 
0.052623 0.063145 0.022535 0.029605 -0.11146 -0.63824 0.35038 0.11444 
0.040785 0.043416 0.037004 0.0079024 -0.073482 -0.77832 0.2098 0.078107 
-0.0027845 0.057391 0.050979 0.012506 -0.109 -0.69694 0.058706 0.05213 
0.023028 0.02681 0.050157 -0.026624 -0.069536 -0.41448 -0.12264 0.015794 
-0.0047575 0.021549 0.010204 0.013821 -0.053588 -0.11196 -0.25795 0.010862 
0.0014903 0.030263 0.012013 0.026317 0.035031 0.13121 -0.20781 0.052952 
0.029276 0.072353 0.025166 0.031085 0.092904 0.33114 -0.073811 0.027468 
0.025659 0.0324 0.025824 0.023686 0.11987 0.45396 0.019083 0.057391 
0.023193 0.022042 0.031085 0.019411 0.14305 0.48437 -0.0027845 0.032236 
0.01563 0.043416 0.033387 0.013657 0.15489 0.47993 -0.087786 0.038155 
0.019247 0.01974 0.049335 0.015137 0.18103 0.49243 0.0018191 0.014315 
0.010862 0.0065871 0.028947 0.038155 0.17791 0.39756 0.066598 -0.023994 
0.0092177 0.035688 0.011848 0.018589 0.16722 0.24926 0.12809 0.012999 
0.042265 0.037332 0.0026412 0.016616 0.14733 0.048184 0.12349 0.055911 
0.054925 0.040621 0.023522 0.032236 0.11872 -0.064275 0.06479 0.068242 
0.046868 0.038812 0.054267 0.013821 0.12875 -0.16901 -0.10702 0.079094 
0.064461 0.066105 0.072681 0.062323 0.08008 -0.4125 -0.25713 0.067585 
0.060844 0.062488 0.057062 0.035195 0.035031 -0.50967 -0.26387 0.038812 
0.049499 0.040292 0.021549 0.024015 0.0026412 -0.38653 -0.17394 0.027796 
0.051636 0.066105 0.022371 0.055747 -0.029584 -0.17114 -0.08532 -0.014951 
0.023522 0.048019 0.024837 0.028619 -0.11031 0.016616 0.022535 -0.016924 
0.03536 0.021549 0.01711 0.030427 -0.17065 0.13861 0.082382 -0.006566 
0.01563 0.053938 0.028125 0.035031 -0.19893 0.19287 0.12924 -0.015938 
0.025659 0.038155 0.051143 -0.0067304 -0.2134 0.26833 0.18481 0.039634 
0.04358 0.040785 0.048019 0.0034632 -0.24283 0.31371 0.32226 0.056076 
0.04506 0.061008 0.031414 0.029276 -0.19992 0.30253 0.40841 0.078272 
0.023686 0.040456 0.018425 0.0011614 -0.16868 0.22526 0.45346 0.079751 
0.0088889 0.017438 0.034866 0.0021479 -0.055561 0.12513 0.35958 0.034209 
0.026974 0.0324 0.021713 0.055582 0.050321 0.0093821 0.14371 -0.0088678 
0.040128 0.071202 0.050979 0.048677 0.047033 -0.1284 -0.010348 0.0026412 
0.03092 0.04506 0.068242 0.047855 -0.0027845 -0.34838 -0.18298 0.0689 
0.029605 0.034537 0.055747 0.04654 -0.020541 -0.46232 -0.31139 0.086985 
0.024673 0.061008 0.038648 0.01267 -0.0039354 -0.33556 -0.54338 0.083533 
0.020891 0.0421 0.017767 0.0051074 0.072517 -0.1621 -0.56541 0.023851 
0.018425 0.0051074 0.034702 0.0095465 0.061337 -0.12346 -0.42122 -0.040764 
0.010369 0.025824 0.019083 -0.0082102 0.033551 -0.096994 -0.21981 -0.10357 
-0.0090322 0.04917 0.02533 0.019083 0.0075736 -0.133 -0.16588 -0.14517 
0.0080668 0.038483 0.049499 0.019083 0.012342 -0.182 -0.12297 -0.083018 
0.023193 0.049499 0.012506 0.036346 0.064296 -0.12692 0.16919 -0.015444 
0.0047785 0.063145 0.0324 0.0689 0.085177 -0.028269 0.47681 0.068242 
0.013328 0.062981 0.030427 0.068407 0.062817 0.018918 0.51759 0.098659 
0.041278 0.058542 0.045882 0.042265 -0.011992 0.02122 0.42979 0.10293 
0.050157 0.079094 0.050979 0.082711 -0.080881 0.019083 0.3683 0.079751 
0.067585 0.073175 0.06594 0.045553 -0.1011 -0.0029489 0.28067 0.05772 
0.057227 0.067749 0.062159 0.030592 -0.10883 0.015465 0.20158 0.050157 
0.035195 0.014479 0.00050378 -0.0013048 -0.088937 0.042923 0.17495 0.037332 
0.0059294 0.013986 -0.011334 -0.003771 -0.09091 0.025166 0.094548 0.041772 
-0.046354 -0.031064 0.011848 -0.004593 -0.076771 0.010204 -0.025967 0.042265 
-0.070687 -0.008539 -0.016266 0.016288 -0.058521 -0.0072237 -0.079072 0.026152 
-0.023665 0.081395 0.011355 0.00297 0.0065871 -0.014293 -0.099789 0.026974 
0.029934 0.07038 0.061666 0.022371 0.040785 0.028454 -0.15224 0.0098754 
0.053938 0.06479 0.038648 0.055911 0.088136 0.017932 -0.15207 0.0056006 
0.050979 0.045389 0.017932 0.029769 0.088301 -0.013143 -0.10341 -0.0077169 
0.066105 0.082875 0.028783 0.0592 0.081231 -0.014787 -0.047012 0.01415 
0.076134 0.078929 0.061501 0.068078 0.10014 -0.035338 0.032564 0.017274 
0.076792 0.077614 0.046375 0.057555 0.11346 -0.025309 0.069064 0.030098 
0.04917 0.063803 0.05065 0.060515 0.10803 0.025988 0.083862 0.029441 
0.031742 0.027796 0.024508 0.018425 0.10852 0.089452 0.10129 0.022042 
0.027961 0.011026 -0.0039354 -0.0004827 0.083533 0.095042 0.15209 0.021549 
0.027303 0.032729 -0.015444 0.0060938 0.064954 0.10622 0.13927 0.018589 
0.0080668 0.023522 -0.017417 0.01267 0.096193 0.14075 0.073175 0.018589 
0.018754 0.0023123 -0.0062372 -0.0050863 0.11362 0.14946 0.04917 0.0052718 
0.0095465 0.029441 0.028454 0.053938 0.12497 0.11181 0.03092 0.010862 
0.030756 0.064625 0.06183 0.045553 0.14979 0.062652 -0.01528 0.028454 
0.071531 0.054103 0.077943 0.031742 0.14897 0.038812 -0.056383 0.049992 
0.054596 0.066763 0.046704 0.062159 0.12184 -0.013636 -0.044546 0.069229 
0.060186 0.065776 0.024837 0.029276 0.098166 -0.034023 -0.0013048 0.04654 
0.032236 0.027796 0.012835 0.015465 0.075148 0.00050378 0.038648 0.038319 
0.020727 -0.009361 0.010204 0.036346 0.036839 0.051143 0.098001 0.019576 
0.01826 0.024344 0.036346 0.029112 -0.0138 0.039634 0.18678 0.012999 
0.034537 0.02681 0.042758 0.031578 -0.060658 0.017603 0.20849 0.042265 
0.057227 0.027796 0.019411 0.045389 -0.075784 0.045389 0.11428 0.083862 
0.061337 0.055582 0.040128 0.026646 -0.084169 0.07301 0.045224 0.099645 
0.053938 0.053609 0.02122 0.021713 -0.055232 0.078765 -0.0054151 0.061995 
0.027961 0.020891 0.018754 0.025988 -0.029748 0.067256 0.0087245 0.066927 
0.028454 0.0054362 0.040785 1.0539e-005 0.0047785 0.08156 -0.0095255 0.0069159 
0.036182 0.048019 0.047033 0.031742 0.058542 0.088301 -0.075949 0.030098 
0.036839 0.047526 0.066927 0.020069 0.12957 0.074654 -0.10094 0.042758 
0.053445 0.05065 0.031249 0.014972 0.16623 0.096357 0.022042 0.032236 
0.033222 0.073668 0.017438 0.055582 0.19254 0.098001 0.14371 0.053774 
0.051472 0.056404 0.024344 0.024015 0.17067 0.086821 0.15801 0.034209 
0.034373 0.032236 0.014808 -0.018733 0.15094 0.051636 0.053774 0.04358 
0.0037921 0.0028056 0.00050378 0.037497 0.16574 0.10244 0.070215 0.01267 
0.0062583 0.036182 0.016288 0.032564 0.15308 0.056898 0.029276 0.046375 
0.018425 0.041114 0.038812 0.021056 0.1202 0.093891 -0.012156 0.012506 
0.070544 0.064296 0.034702 0.050486 0.12875 0.093069 -0.087786 0.05213 
0.038319 0.075476 0.018918 0.020398 0.10178 0.068571 -0.25598 0.023851 
0.047033 0.047526 0.029441 0.019247 0.098166 0.06479 -0.28327 0.019905 
0.020398 0.048348 0.025824 0.057555 0.08419 0.059528 -0.11048 0.068736 
0.028454 0.048841 0.033222 0.033551 0.077778 0.074983 0.040621 0.029769 
0.032564 0.047033 0.068242 0.036017 0.068571 0.037497 0.11905 0.037332 
0.036675 0.030592 0.024837 0.028947 0.065447 0.048348 0.098988 0.040128 
0.0065871 0.02122 0.032893 0.0090533 0.059693 0.047362 0.049499 0.04917 
0.039305 0.069064 0.020398 0.023851 0.054432 0.054267 0.03651 0.050486 
0.027632 0.069393 0.020891 0.032564 0.060679 0.044567 0.04506 0.063474 
0.036346 0.046046 0.048019 0.021384 0.074654 0.03651 0.072681 0.070544 
0.061337 0.075312 0.054103 0.051472 0.11461 0.039305 0.07038 0.074654 
0.049006 0.046868 0.067091 0.039634 0.072517 0.032893 0.031578 0.053281 
0.034866 0.059528 0.057555 0.034209 0.027796 0.038977 -0.011498 0.0324 
0.023357 0.058706 0.0028056 0.037004 0.0227 0.017274 -0.017582 -0.003771 
0.010862 0.050814 0.023028 0.0047785 0.014808 0.027303 -0.052437 -0.014458 
0.018754 0.051308 0.01974 0.024673 0.032893 0.0037921 -0.071838 -0.0083746 
0.022206 0.053116 0.03799 0.046046 0.042923 0.012013 -0.067564 0.019083 
0.048184 0.042429 0.032729 0.017603 0.055582 0.042758 -0.066248 -0.023665 
0.056404 0.029605 0.028783 0.015959 0.035524 0.049335 -0.021692 0.021384 
0.052294 0.0024767 0.03799 0.031742 -0.043395 0.048348 -0.0082102 0.018754 
0.041114 0.059364 0.024837 -0.0052507 -0.091732 0.017438 0.013657 0.032729 
0.027468 0.067091 0.028783 0.024508 -0.11722 0.0082312 0.023357 0.044567 
0.028454 0.057062 0.041607 0.022206 -0.09239 0.01826 0.038155 0.013986 
-0.0036066 0.057555 0.045718 0.018754 -0.033201 0.024837 0.033387 0.019905 
-0.012814 0.062817 0.050321 0.0324 -0.01676 0.0023123 0.048348 0.016945 
0.004943 0.049664 0.029441 0.048348 0.013657 0.01974 0.12398 0.034866 
0.014808 0.031085 0.026481 0.049335 0.037168 0.02533 0.17215 0.033551 
0.023028 0.065283 0.031249 0.056898 0.040785 0.037168 0.1442 0.032236 
0.0090533 0.034866 0.022206 0.03651 0.036839 0.040128 0.049499 0.011848 
0.0227 0.016781 0.02681 0.039634 0.01267 -0.0138 -0.0090322 0.0042853 
0.039799 0.057062 0.038812 0.038977 -0.018239 -0.093376 -0.031557 0.013986 
0.035688 0.061008 0.054596 0.013328 -0.026789 -0.11376 -0.096829 0.0082312 
0.041772 0.047033 0.03092 0.010204 -0.01939 -0.069865 -0.16309 0.011191 
0.023193 0.041443 0.021056 0.050814 0.0092177 -0.043888 -0.18841 -0.0077169 
0.0085601 0.054267 -0.00015387 0.016288 0.0021479 0.014972 -0.12215 0.0016547 
0.012835 0.054925 0.030427 0.037497 -0.016431 0.07038 0.048677 -0.001798 
0.049499 0.016288 0.07597 0.025988 -0.069043 0.065776 0.18218 0.027632 
0.031907 0.064132 0.065118 0.021549 -0.11705 0.1202 0.17643 0.055911 
-0.014458 0.029276 0.066269 0.044896 -0.12511 0.13417 0.18465 0.056733 
-0.026953 0.023028 0.0227 0.018589 -0.10867 0.068571 0.23923 0.035195 
0.0018191 0.081231 -0.00097594 -0.0036066 -0.069536 0.055254 0.24384 0.055089 
0.025495 0.033058 0.0060938 0.0051074 -0.020377 0.020891 0.20799 0.045882 
0.051308 0.015465 0.026317 0.035853 -0.0082102 -0.02942 0.15538 0.070544 
0.055418 0.037332 0.056898 0.032071 -0.010019 -0.059836 0.034702 0.033222 
0.054103 0.050814 0.067091 0.026646 -0.021692 -0.15306 -0.045203 0.036017 
0.01826 0.016945 0.028619 0.048184 -0.028269 -0.23855 -0.063618 0.0095465 
0.0037921 0.017767 0.02681 0.017932 -0.0095255 -0.2665 -0.060823 0.018096 
-0.0031133 0.053116 0.016781 0.025988 -0.023501 -0.3178 -0.081868 -0.011827 
-0.011498 0.043416 0.020069 0.007738 -0.017911 -0.26075 -0.23444 -0.0034422 
0.010697 0.03536 0.027468 -0.020377 -0.020706 -0.030735 -0.2647 0.019411 
0.041936 0.064625 0.05624 0.049828 0.079751 0.22542 -0.089759 0.038155 
0.04506 0.057391 0.030098 0.03799 0.07038 0.35514 0.2486 0.052294 
0.049664 0.047691 0.023028 0.01974 0.062652 0.414 0.54718 0.055089 
0.033387 0.050321 0.02681 0.038155 0.029934 0.47352 0.53156 0.061666 
0.041278 0.058871 0.027468 0.029769 0.018589 0.47336 0.19451 0.025824 
0.056569 0.064954 0.044731 0.049828 0.029276 0.37027 -0.13991 -0.0080457 
0.077614 0.058049 0.061008 0.059364 0.0074092 0.2075 -0.28196 -0.023829 
0.087808 0.078929 0.077449 0.043087 -0.0022913 -0.092554 -0.22968 0.031085 
0.055911 0.028454 0.041443 0.0227 0.014315 -0.44045 -0.098967 0.060679 
0.044238 0.027139 0.037168 0.051965 -0.017582 -0.48008 -0.01676 0.06742 
0.041278 0.036017 0.025166 0.027303 -0.046519 -0.27818 0.020891 0.048184 
0.052952 0.032893 0.046868 0.02533 -0.050958 -0.088608 0.16442 0.050157 
0.051308 0.016452 0.03388 0.043087 -0.044546 -0.027282 0.25567 0.069558 
0.03092 0.0067515 0.056569 0.028454 -0.036325 -0.0047575 0.29168 0.048348 
0.025824 0.041278 0.031414 0.0075736 0.0062583 0.0095465 0.25123 0.02681 
0.024015 0.041114 0.020727 0.017438 0.0092177 0.070544 0.24466 0.0075736 
0.02122 0.01004 0.011191 -0.02646 0.019083 0.096686 0.14617 0.0042853 
0.032071 0.041772 -0.020541 0.0028056 -0.0016336 -0.0075525 -0.13941 0.0042853 
0.010533 0.011684 -0.014622 0.0024767 0.0046141 -0.13645 -0.38439 -0.021528 
0.037332 0.037826 0.030098 0.016781 0.04358 -0.18611 -0.39491 -0.014951 
0.055582 0.093233 0.080902 0.068242 0.087643 -0.15454 -0.32602 -0.019555 
0.072846 0.090603 0.074654 0.046046 0.10376 -0.076113 -0.2111 0.0052718 
0.073832 0.082217 0.054432 0.063639 0.093233 0.037661 -0.12807 0.070708 
0.046704 0.020891 0.034702 0.081067 0.073175 0.053116 -0.10373 0.093891 
0.012999 0.021713 0.010369 0.032071 0.045882 0.15834 0.015794 0.1031 
0.0054362 0.00017495 0.0088889 0.010369 0.0095465 0.32078 0.15423 0.069722 
-0.004593 0.019905 -0.0070593 0.0023123 0.010204 0.44722 0.24926 0.09833 
0.013328 0.059693 0.049664 -0.0040998 -0.009361 0.50246 0.27507 0.075805 
0.018589 0.049499 0.036346 0.012999 -0.01528 0.48207 0.47878 0.022206 
0.03388 0.050486 0.029112 0.059528 0.022206 0.39559 0.57447 -0.027447 
0.013164 0.024508 0.016945 0.020562 0.028619 0.088794 0.45511 0.0051074 
-0.0050863 0.0098754 0.014808 0.0042853 0.074654 -0.18101 0.12085 0.0085601 
0.011684 0.015301 0.019905 0.042594 0.17018 -0.33112 -0.19909 0.0060938 
0.03799 0.040128 0.063968 0.032729 0.19287 -0.37502 -0.36334 0.01826 
0.022371 0.060022 0.06479 0.039305 0.13762 -0.3275 -0.37748 -0.0090322 
-0.0026201 0.044731 0.016616 0.03388 0.028947 -0.21685 -0.37008 -0.018404 
0.007738 0.02829 0.015301 0.0031344 -0.087786 -0.096994 -0.26404 -0.0054151 
0.01974 0.067091 0.03536 0.0083956 -0.071838 -0.045203 -0.16523 0.049992 
0.055089 0.053774 0.035195 0.025001 0.046375 -0.035996 0.012999 0.12184 
0.059528 0.0592 0.053609 0.037168 0.17807 0.0087245 -0.017088 0.12036 
0.056404 0.059857 0.070051 0.081067 0.24515 0.07038 -0.073811 0.11543 
0.038483 0.044567 0.066434 0.054103 0.21967 0.089452 -0.0021268 0.049992 
0.01415 0.04358 0.021549 0.046046 0.11937 0.0786 0.10754 0.013328 
0.0023123 0.027468 0.010697 0.047362 0.044402 0.12431 0.22213 0.0064227 
0.016452 0.065118 0.01974 0.0028056 -0.02942 0.084684 0.23315 0.017932 
0.038483 0.039141 0.023522 0.0028056 -0.06855 0.037826 0.23167 0.030592 
0.024344 0.031578 0.032236 0.042923 -0.051615 -0.0049219 0.30187 0.021878 
0.018754 0.044073 0.049335 0.013164 0.010369 0.025988 0.34775 0.0036276 
0.01974 0.031414 0.031085 0.021056 0.030756 0.0034632 0.27014 -0.023994 
0.037332 0.021384 0.020233 0.02681 0.050814 0.0013258 0.10803 0.014808 
0.0592 0.053774 0.018425 0.0016547 0.087479 0.035524 -0.16917 0.070544 
0.042429 0.050157 0.0013258 0.0039565 0.079094 -0.022679 -0.44292 0.066434 
0.04095 0.047526 0.028619 0.025988 0.057227 -0.12971 -0.46429 0.079587 
0.049992 0.042429 0.046046 0.018096 0.069064 -0.16818 -0.25039 0.06035 
0.037332 0.046211 0.042923 0.052294 0.057555 -0.17345 -0.014787 0.039634 
0.025659 0.032893 0.019247 0.037004 0.06035 -0.15273 0.14617 1.0539e-005 
0.011848 0.025824 0.023028 0.026152 0.042923 -0.090253 0.13023 0.011684 
0.014972 0.041278 0.019905 0.031907 -0.056877 -0.080552 0.051472 0.0034632 
0.021878 0.03799 0.027961 0.013164 -0.16046 0.005765 0.0059294 0.0062583 
0.040456 0.058049 0.039799 0.0034632 -0.16605 0.2708 0.03651 -0.023994 
0.045389 0.069886 0.055747 0.032071 -0.13464 0.45955 0.1128 -0.0060728 
0.034209 0.065118 -0.0090322 0.010533 -0.067399 0.52778 0.21506 -0.008539 
0.05065 0.05065 0.011684 0.015794 0.026152 0.47007 0.33985 -0.018239 
0.050321 0.046046 0.033715 0.026317 0.15226 0.31914 0.30319 0.0031344 
0.052294 0.075805 0.027303 0.039634 0.26751 -0.056712 0.14404 0.0041209 
0.064132 0.068078 0.023193 0.0689 0.2583 -0.31994 -0.011992 0.053445 
0.063968 0.06331 0.072353 0.09422 0.21934 -0.28459 0.085012 0.062981 
0.063474 0.073668 0.10195 0.055747 0.18185 -0.23148 0.046211 0.049664 
0.022371 0.077285 0.049006 0.03536 0.17824 -0.29725 -0.29939 0.055582 
0.023851 0.05213 0.014479 0.034373 0.11872 -0.34213 -0.76583 0.01004 
0.019411 0.0051074 0.0021479 0.013164 0.05065 -0.27472 -0.73854 0.015465 
0.013821 -0.0054151 -0.025967 -0.0091966 0.073175 -0.10127 -0.19778 0.035195 
0.029441 -0.02087 -0.020212 -0.0091966 0.10228 0.18909 0.4122 0.091096 
0.036675 0.019576 0.039141 -0.008539 0.015959 0.36682 0.77046 0.11855 
0.013986 0.064954 0.050157 -0.014293 -0.18643 0.41269 0.85135 0.092082 
0.0080668 0.053609 0.01974 -0.016595 -0.29791 0.35103 0.66934 0.037168 
-0.015444 0.049992 0.017603 -0.014458 -0.28081 0.33805 0.44524 -0.025309 
0.010697 0.069886 0.049006 0.024673 -0.18874 0.14864 0.11329 -0.073154 
0.037826 0.034702 0.025659 0.038155 -0.05885 -0.085813 -0.1187 -0.11755 
0.030592 0.017603 0.040621 0.020398 0.033222 -0.17525 -0.2185 -0.063946 
0.053938 0.047033 0.053609 0.059528 0.066269 -0.072167 -0.47219 -0.044546 
0.007738 0.030263 0.022535 0.023522 0.013657 0.0060938 -0.65551 0.020233 
-0.051287 0.014643 0.010204 0.012506 -0.026131 0.095042 -0.50457 0.030427 
-0.024323 0.012835 0.010204 0.053445 -0.058192 0.10458 -0.3349 0.020727 
0.0021479 0.052459 0.028947 0.031578 -0.045368 0.0074092 -0.15783 0.037661 
0.037332 0.053938 0.043251 0.069393 0.015301 -0.08384 -0.030899 0.053281 
0.062323 0.05065 0.064461 0.095042 0.051143 -0.13826 0.093726 0.092247 
0.066434 0.071202 0.083533 0.046704 0.02829 -0.17098 0.16853 0.089945 
0.079916 0.081067 0.043416 0.0064227 -0.0014692 -0.21932 0.23594 0.083697 
0.070215 0.058213 0.01415 0.0092177 0.047197 -0.16588 0.26143 0.047033 
0.078929 0.039963 0.03388 0.026152 0.11773 -0.0036066 0.21901 0.050814 
0.061172 0.053774 0.031742 0.046868 0.14683 0.15801 0.26554 0.096686 
0.0092177 0.020891 0.036346 0.040621 0.15374 0.24219 0.29382 0.055582 
-0.024652 0.023028 0.044402 0.012835 0.10737 0.36567 0.18909 -0.0067304 
-0.027775 0.026317 0.018589 0.010369 0.050157 0.44804 0.029276 -0.071509 
-0.0044286 0.019905 0.00066819 -0.0027845 0.0014903 0.28675 -0.088115 -0.05441 
0.0093821 0.012177 0.0023123 -0.012649 -0.052437 0.12283 -0.13629 -0.043724 
0.013164 0.035853 0.027139 0.019411 0.011026 0.10803 -0.061316 0.0028056 
0.061008 0.06331 0.026317 0.020233 0.065447 0.14042 0.00033937 0.048348 
0.087479 0.070873 0.057555 0.022206 0.015959 0.051965 0.018589 0.026481 
0.074326 0.051636 0.081067 0.077285 -0.093376 -0.1552 -0.038462 0.057884 
0.052459 0.058377 0.041607 0.053938 -0.10653 -0.26996 -0.015116 0.061008 
0.017932 0.010204 0.020398 0.033551 -0.055232 -0.29182 -0.054575 0.064954 
0.015301 0.0046141 0.0083956 0.034044 -0.022021 -0.24529 -0.12642 0.018425 
0.0054362 0.028783 0.0069159 -0.009361 1.0539e-005 -0.17591 -0.11853 0.016945 
0.019411 0.032893 0.023193 0.0059294 0.085012 -0.10587 -0.043724 0.032729 
0.04506 0.059364 0.11017 0.07301 0.15078 -0.0032777 0.022864 0.045389 
0.047033 0.080738 0.077943 0.049664 0.13121 0.11937 0.080409 0.080573 
0.020398 0.066927 0.0047785 0.037168 0.21441 0.15472 -0.0014692 0.090109 
0.060844 0.083533 0.03799 0.0592 0.1784 -0.034352 -0.1353 0.040785 
0.037332 0.099645 0.061172 0.056569 0.072024 -0.23938 -0.18578 -0.0050863 
0.023193 0.062817 0.037497 0.027468 -0.1039 -0.35183 -0.075455 0.033387 
0.028125 0.051801 0.038977 0.022535 -0.22787 -0.29314 0.078436 0.029934 
0.027632 0.035853 0.053938 0.018096 -0.16523 -0.18249 0.2565 0.02122 
0.0028056 0.041936 0.043251 0.019411 -0.047998 -0.0075525 0.46284 0.032564 
-0.020212 0.023028 0.004943 -0.0047575 0.024015 0.2514 0.47632 -0.013965 
-0.018733 0.035853 0.0018191 -0.001798 0.087643 0.46168 0.31799 -0.018733 
0.0044497 0.037497 0.016123 0.022371 0.11526 0.66276 0.073997 -0.030242 
0.037826 0.062817 0.0064227 -0.014951 0.11148 0.81764 0.076299 0.016781 
0.063474 0.051308 0.013328 -0.039449 0.13565 0.88308 0.081395 0.045224 
0.082711 0.069064 0.038155 0.026317 0.18432 0.59239 -0.20995 0.085341 
0.041114 0.085012 0.036346 0.048677 0.22559 0.0075736 -0.34082 0.1174 
0.035853 0.047033 0.035853 0.10408 0.15028 -0.51954 -0.17558 0.08419 
0.012013 0.0082312 0.061995 0.13203 0.041278 -0.68576 -0.025145 0.048348 
-0.022679 0.005765 0.039963 0.094548 0.0088889 -0.53483 0.075641 -0.0044286 
0.0019835 0.040621 0.050814 0.06035 0.083533 -0.27505 0.12316 0.00050378 
0.037497 0.044402 0.065776 0.055911 0.09274 -0.059014 0.15867 0.010369 
0.061995 0.063639 0.074326 0.056404 -0.012156 0.050814 0.13828 0.043416 
0.060679 0.085835 0.047197 0.01711 -0.067235 0.098823 0.08567 0.04358 
0.045553 0.057884 0.049499 0.037332 -0.042737 0.044402 0.00297 0.026152 
-0.010348 0.027468 0.0051074 0.013821 0.0028056 -0.015938 -0.083183 0.0016547 
-0.020541 0.03651 -0.010512 0.0037921 0.065776 -0.053917 -0.13678 -0.017746 
-0.010841 0.013657 0.0051074 0.0019835 0.12135 -0.062467 -0.088773 0.0039565 
0.028619 0.017767 0.018425 -0.0083746 0.1539 -0.07825 0.0592 0.0080668 
0.052459 0.053938 0.0069159 0.034702 0.12414 -0.10456 0.25189 0.039799 
0.079422 0.071531 0.018096 0.020891 0.088794 -0.062302 0.34183 0.080244 
0.082875 0.073997 0.019083 0.024837 0.074161 0.10606 0.31848 0.059528 
0.058213 0.0592 0.027139 0.04917 0.11757 0.34561 0.24696 0.076627 
0.065447 0.073832 0.041772 0.038319 0.10935 0.51611 0.22164 0.078929 
0.080738 0.042429 0.061995 0.061008 0.1031 0.58023 0.09274 0.085012 
0.061172 0.024179 0.077121 0.085177 0.13138 0.48865 -0.044546 0.083533 
0.040128 0.048513 0.03651 0.034209 0.0093821 0.24647 -0.20501 0.04917 
0.024837 0.042429 0.036346 0.024673 -0.074798 -0.058521 -0.27029 0.021713 
0.012506 0.042758 0.020069 0.047197 -0.14533 -0.20074 -0.20452 -0.0090322 
0.011191 0.060515 0.024344 0.019905 -0.1741 -0.1187 -0.10554 -0.0019624 
0.026481 0.017767 0.022535 0.013328 -0.21323 -0.062467 -0.012156 -0.01528 
0.004943 0.0016547 0.053938 0.029441 -0.17723 -0.14007 -0.027118 0.0056006 
0.0028056 0.01826 0.026646 -0.0078813 -0.10176 -0.22803 -0.016431 -0.0011404 
0.0085601 0.055089 0.0095465 -0.0054151 -0.021034 -0.20732 -0.018568 0.024344 
-0.0040998 0.04654 0.032564 -0.001798 0.053938 -0.14319 -0.00015387 0.02681 
-0.0019624 0.046704 0.025495 0.017438 0.081889 -0.10702 0.045389 0.0047785 
0.0021479 0.041114 0.052787 0.023028 0.06479 -0.1256 -0.10571 0.017274 
0.010533 0.038977 0.03947 0.039305 0.060022 -0.14007 -0.23066 -0.015444 
0.041607 0.053938 0.051472 0.01267 0.068078 -0.064933 -0.077593 0.020069 
0.041114 0.041443 0.031414 0.041936 0.087479 0.041607 0.20651 0.026646 
0.052294 0.026317 0.048841 0.045553 0.14848 0.23907 0.41088 1.0539e-005 
0.037332 0.04358 0.01711 0.044402 0.17445 0.34413 0.51923 0.01415 
0.049992 0.066105 0.045224 0.068571 0.15423 0.25551 0.85875 0.045224 
0.050321 0.073339 0.023851 0.027961 0.084519 0.017767 0.99422 0.067749 
0.032564 0.031085 0.023851 0.02533 -0.025474 -0.2379 0.51282 0.037004 
0.035688 0.018096 0.036017 0.036182 -0.16309 -0.42993 -0.087129 0.01711 
0.012835 0.06479 0.023686 0.0227 -0.25582 -0.41957 -0.53713 0.0044497 
-0.0019624 0.040128 0.013492 -0.00064712 -0.22507 -0.21291 -1.0134 0.019576 
0.01152 0.036017 0.019083 0.013986 -0.12363 0.00297 -1.2275 0.04095 
0.021549 0.035195 0.018589 -0.014787 -0.10439 0.2126 -1.0818 0.071202 
0.027303 0.047855 0.029112 -0.011827 -0.11294 0.3586 -0.63101 0.09833 
0.013821 0.027961 0.040128 0.0074092 -0.12889 0.33887 -0.17624 0.086328 
0.029441 0.044402 0.039799 0.030756 -0.047012 0.094877 0.19944 0.069886 
0.025166 0.072188 0.010862 0.036017 0.10326 -0.049149 0.46481 0.042923 
0.020069 0.059035 0.026481 0.059693 0.13056 -0.13843 0.57858 0.010862 
0.032236 0.054267 0.041114 0.051965 0.095864 -0.27752 0.60325 -0.024158 
0.03947 0.087314 0.045718 0.039799 0.13828 -0.33408 0.42716 -0.0075525 
0.030263 0.072681 0.059528 0.032564 0.18465 -0.15355 0.14634 0.0037921 
0.035524 0.041936 0.046046 0.0013258 0.12875 0.10556 -0.10867 -0.040928 
0.0042853 0.014643 0.021384 0.023851 0.059857 0.29102 -0.13152 -0.048163 
0.0052718 0.0082312 -0.0057439 0.0054362 0.070215 0.36978 -0.030242 -0.052766 
0.027139 0.00297 0.0024767 0.023851 0.082875 0.12003 -0.096829 -0.018404 
0.051636 0.064461 0.03947 0.071859 0.093726 -0.25927 -0.2568 0.016945 
0.059693 0.087643 0.057555 0.036182 0.040128 -0.40067 -0.15783 0.055418 
0.053281 0.038812 0.069393 0.0095465 -0.073154 -0.1889 0.05476 0.061501 
0.0026412 0.0060938 0.041278 0.025659 -0.21093 0.16508 0.18152 0.04917 
0.0023123 0.039141 -0.006566 -0.014622 -0.23461 0.34347 0.0013258 0.063968 
0.018096 0.017603 0.00083261 -0.01528 -0.13727 0.33048 0.007738 0.062981 
0.053938 0.019905 0.0324 0.055747 -0.0016336 0.21868 0.1567 0.10343 
0.07038 0.030592 0.047526 0.023357 0.13467 0.014808 0.14519 0.056898 
0.069722 0.055582 0.06035 0.034373 0.21835 -0.34937 -0.063946 -0.034023 
0.069558 0.060022 0.069886 0.061008 0.17396 -0.39656 -0.1935 0.062652 
0.046375 0.090767 0.019247 0.026646 0.16558 -0.12626 -0.17049 0.040456 
0.033058 0.066598 0.030592 0.020233 0.19122 0.17676 -0.17953 0.027303 
0.037004 0.059528 0.05065 0.046868 0.21671 0.4579 -0.26782 -0.014787 
0.037004 0.045718 0.048184 0.059035 0.27524 0.67329 -0.27522 0.025659 
0.038319 0.077449 0.052787 0.079094 0.15341 0.64632 -0.096829 0.037826 
0.040128 0.055582 0.051308 0.074326 -0.018404 0.30944 0.28165 0.074819 
0.03799 0.0421 0.061172 0.046046 -0.15799 0.040456 0.58631 0.037168 
0.042429 0.05624 0.060679 0.068571 -0.21866 0.020727 0.45363 0.0080668 
0.027796 0.05065 0.023193 0.019576 -0.24069 -0.031721 0.063145 0.0018191 
-0.009361 0.0051074 0.037497 -0.0031133 -0.24924 -0.20748 -0.11278 -0.004593 
-0.034681 -0.010348 0.0034632 -0.012978 -0.16128 -0.41053 -0.11623 -0.014951 
-0.059014 -0.011827 -0.015938 -0.051451 0.015959 -0.52348 -0.20173 -0.050793 
-0.053588 -0.015609 0.01563 -0.045696 0.21983 -0.49553 -0.12133 -0.022679 
-0.00031829 0.0079024 0.050814 0.031742 0.29892 -0.31862 0.18744 -0.0057439 
0.028947 0.045882 0.040456 0.026152 0.17363 -0.10012 0.15538 -0.049642 
0.041936 0.072846 0.042429 0.050814 0.089945 0.12612 0.050486 -0.043724 
0.07301 0.049499 0.030263 0.047526 0.072681 0.53304 0.19665 0.027468 
0.082875 0.056898 0.026317 0.038155 0.15999 1.0391 0.42091 0.14108 
0.070873 0.088301 0.054267 0.065447 0.25189 1.2685 0.57398 0.18383 
0.060186 0.071202 0.070051 0.097837 0.39049 1.0044 0.48536 0.18859 
0.075805 0.056569 0.057391 0.084026 0.41647 0.26505 0.25518 0.15851 
0.057884 0.081724 0.032236 0.064954 0.30467 -0.22392 0.086163 0.11658 
0.048513 0.036017 0.03388 0.055089 0.15801 -0.39409 0.012506 0.039634 
-0.0082102 0.0324 0.026974 -0.003771 -0.050136 -0.43306 -0.046683 -0.016431 
-0.026131 0.033715 0.016123 -0.010348 -0.25204 -0.35249 -0.12001 -0.016266 
-0.032872 0.022864 0.021549 -0.027775 -0.30103 -0.24382 -0.194 -0.08269 
-0.020706 0.020727 0.03092 -0.025967 -0.27275 -0.16572 -0.078908 -0.11952 
0.0019835 0.028947 0.016288 0.027139 -0.20666 -0.14254 0.21671 -0.12478 
0.030592 0.057227 0.03651 0.036839 -0.21011 -0.17377 0.38901 -0.058356 
0.0689 0.053774 0.035031 0.032893 -0.084663 -0.1644 0.41039 0.0082312 
0.090931 0.041607 0.022864 0.066434 0.023193 -0.12297 0.40167 0.052623 
0.068571 0.074326 0.018589 0.016616 0.087314 -0.12363 0.37553 0.073668 
0.065283 0.06035 0.044731 0.024673 0.13943 -0.1136 0.28773 0.081889 
0.05476 0.037497 0.048019 0.062488 0.13647 0.042265 0.17297 0.13302 
0.056898 0.045553 0.027961 0.029276 0.10129 0.20602 -0.16506 0.12168 
0.037004 0.039963 0.0016547 0.016945 0.0064227 0.33311 -0.55209 0.10096 
0.02533 0.032729 0.018918 0.045224 -0.043559 0.43998 -0.63413 0.08978 
0.01826 0.052294 0.035195 0.04506 -0.025967 0.3951 -0.54683 0.094877 
0.019905 0.075641 0.047362 0.036675 0.0054362 0.094877 -0.39244 0.05476 
0.041607 0.064625 0.10507 0.010204 -0.016924 -0.11426 -0.091404 -0.027282 
0.037332 0.071531 0.060515 0.01711 0.027139 -0.18315 0.13845 -0.042408 
0.039799 0.072846 0.042594 0.0324 -0.0032777 -0.19334 0.2223 0.027796 
0.055418 0.061666 0.0090533 0.04917 -0.012649 -0.19466 0.18613 -0.034352 
0.037497 0.041443 0.00033937 0.025824 -0.020377 -0.19646 0.17971 -0.058192 
-0.0016336 -0.0040998 -0.028597 0.0028056 -0.014129 -0.20238 0.089287 -0.079895 
0.043087 0.00297 -0.0095255 0.0041209 0.024673 -0.25434 -0.10324 0.017767 
0.04506 0.036182 0.03388 0.009711 0.073504 -0.33852 -0.20288 0.08567 
0.061008 0.071366 0.043416 0.063474 0.24712 -0.37124 -0.1233 0.14765 
0.046211 0.076956 0.030263 0.09126 0.31256 -0.44654 0.026974 0.12135 
0.01004 0.044896 0.033551 0.089616 0.20882 -0.46906 0.14042 0.053609 
-0.0031133 0.037004 0.034044 0.092247 -0.039449 -0.48271 0.19517 0.015794 
-0.0036066 0.060515 0.039799 0.029934 -0.23527 -0.21422 0.12628 -0.0042642 
0.023028 0.083697 0.052952 -0.038462 -0.24135 0.2565 0.058377 0.038319 
0.069393 0.078929 0.063639 0.00099702 -0.13875 0.74119 0.026481 0.055089 
0.079258 0.071037 0.0083956 0.0060938 -0.035832 1.0523 0.081889 0.085341 
0.037826 0.039963 -0.0050863 -0.0024557 0.048348 1.1175 -0.001798 0.064461 
0.014808 0.01711 -0.014458 0.0047785 0.12381 0.95789 -0.30498 0.023686 
0.012013 0.01004 0.0046141 0.016781 0.19632 0.63662 -0.47153 0.0018191 
0.010862 0.032236 0.038483 0.031742 0.13417 0.13582 -0.28163 0.0088889 
-0.015116 0.01563 0.051801 0.050157 0.03947 -0.30974 -0.043395 0.032893 
0.0074092 0.0056006 0.031085 0.021384 -0.11574 -0.61588 0.082875 0.060022 
-0.00081153 0.031414 0.011848 -0.0036066 -0.25368 -0.7678 0.029276 0.0786 
-0.01528 0.026317 0.010697 0.0021479 -0.22326 -0.73821 -0.03205 0.081231 
0.0065871 0.019576 0.043087 0.018096 -0.066413 -0.52217 -0.049478 0.080573 
0.029934 0.027468 0.060186 0.0689 0.0051074 -0.24069 -0.043066 0.060022 
0.029112 0.079422 0.0786 0.08008 -0.013636 -0.0073881 -0.088444 0.00033937 
0.035853 0.062159 0.058706 0.047197 -0.038956 0.096521 -0.13925 -0.070194 
0.072353 0.062159 0.041607 0.038483 0.012342 0.1197 -0.10784 -0.06296 
0.062488 0.072353 0.0324 0.026152 0.059364 0.17544 0.0421 -0.03057 
0.067913 0.067749 0.02681 0.033058 0.087479 0.25156 0.14519 -0.031392 
0.054103 0.034866 0.012013 0.04358 0.085012 0.24203 0.1567 0.030427 
0.053774 0.035031 0.019083 0.0024767 0.079916 0.27754 0.2537 0.071859 
0.01415 0.028125 0.041443 0.0060938 0.052459 0.23775 0.34692 0.046868 
-0.0011404 -0.01232 0.019411 0.02829 0.043909 0.171 0.28461 0.035195 
-0.0096899 -0.0077169 0.011191 0.0052718 0.013328 0.088465 0.1345 0.02681 
-0.023665 0.024015 0.00297 0.0067515 0.031907 0.060679 -0.020706 0.061008 
0.01563 0.02122 0.0083956 0.046375 0.035688 0.097015 -0.12034 0.067749 
0.061172 0.035688 0.03536 0.046211 0.018096 0.085341 -0.23592 0.077285 
0.095206 0.089616 0.072681 0.047362 -0.0039354 0.030098 -0.21702 0.047691 
0.10819 0.092411 0.10441 0.074983 0.020233 0.054267 0.09981 0.04358 
0.10606 0.086821 0.063145 0.072846 0.034702 0.10425 0.33624 0.053609 
0.079751 0.06742 0.063803 0.045718 0.015301 0.11724 0.32177 0.020727 
0.047526 0.058377 0.00066819 0.02681 0.0070803 0.062159 0.091918 0.04654 
-0.021034 -0.0027845 -0.0067304 -0.020212 -0.03057 0.01267 -0.042408 0.0065871 
-0.039778 -0.015609 -0.0067304 -0.02498 -0.063453 -0.022185 0.057391 0.024179 
-0.040271 0.0059294 -0.010512 -0.012156 -0.06444 -0.013636 0.20125 -0.04619 
-0.025967 0.0079024 0.016616 -0.024158 -0.11212 -0.0049219 0.22789 -0.077593 
0.018589 0.034044 0.013821 0.036182 -0.016595 0.029605 0.25271 -0.040106 
0.059857 0.074654 0.0689 0.074326 0.12875 0.0090533 0.26636 0.014643 
0.052459 0.065283 0.069229 0.07301 0.28642 -0.014129 0.3535 0.065283 
0.026974 0.048348 0.068571 0.098001 0.33887 -0.0072237 0.3392 0.047197 
0.030263 0.04654 0.053774 0.034866 0.09274 -0.062138 -0.0068948 0.052459 
0.02681 0.046704 0.070544 0.012342 -0.14122 -0.13185 -0.58612 0.049992 
0.010697 0.027632 0.038155 0.025166 -0.13021 -0.15552 -0.93813 0.030098 
0.029441 0.016945 0.013328 -0.0036066 -0.019226 -0.090088 -0.6754 0.049992 
0.036675 0.032893 0.023686 0.025824 0.092576 -0.027775 -0.23329 0.050979 
0.023193 0.02681 0.018918 0.034044 0.078436 -0.043724 0.10507 0.092411 
-0.0060728 0.044731 0.0013258 0.0054362 0.012835 -0.049642 0.32802 0.026646 
0.029769 0.077449 0.032893 0.0083956 -0.021034 -0.03353 0.53896 -0.042737 
0.060679 0.079916 0.058542 0.068736 0.02681 0.045553 0.69828 -0.060494 
0.062817 0.09274 0.051143 0.056076 0.025495 0.11494 0.81139 -0.081045 
0.064132 0.066269 0.02829 0.024344 0.044402 0.18596 0.70814 -0.079895 
0.030098 0.063968 0.024837 0.028454 0.097672 0.20125 0.26077 -0.030242 
0.011684 0.026481 0.024179 0.035031 0.13779 0.15292 -0.24316 0.019247 
0.0056006 0.036675 0.038319 0.052294 0.14354 0.080409 -0.54173 0.06183 
0.014972 0.0592 0.052787 0.052623 0.14996 -0.11755 -0.644 0.15571 
0.03799 0.024344 0.026974 0.028454 0.14552 -0.26124 -0.54305 0.2218 
0.087479 0.046868 0.027961 0.044567 0.15719 -0.23181 -0.23017 0.2195 
0.09274 0.066763 0.023357 0.050979 0.21819 -0.072003 0.12151 0.12316 
0.08156 0.072024 0.044073 0.043251 0.23775 0.042758 0.32588 0.084026 
0.01415 0.066598 0.058213 0.033551 0.14354 -0.011827 0.28839 0.040785 
-0.023501 0.048841 0.064132 -0.0019624 0.013492 -0.014951 -0.013143 -0.035174 
-0.067399 0.055418 0.042265 0.01711 -0.11376 0.013821 -0.41628 -0.060987 
-0.015609 0.031249 0.015137 0.031085 -0.1182 0.068078 -0.51822 -0.092719 
0.023686 0.047033 0.0042853 0.026317 -0.039613 0.1881 -0.12642 -0.032872 
0.048348 0.048348 0.014972 0.037826 0.026317 0.14058 0.20914 -0.039942 
0.073997 0.03536 0.017932 0.073504 0.011191 -0.052273 0.15916 -0.033037 
0.10129 0.05624 0.025001 0.051801 0.023522 -0.10094 0.016288 0.012999 
0.10524 0.099974 0.050814 0.06479 -0.033037 -0.042737 -0.010348 0.022864 
0.092904 0.079258 0.066269 0.059693 -0.06444 0.066269 0.087479 0.10819 
0.034373 0.034866 0.03651 0.039141 0.036017 0.045718 0.041936 0.08419 
0.034044 0.042923 0.037332 0.030756 0.060515 0.11477 0.052952 0.10376 
0.031085 0.065612 0.017274 0.07449 0.12151 0.27162 0.077285 0.058871 
-0.0022913 0.03536 0.0085601 0.047691 0.12743 0.32358 -0.056055 0.03536 
0.013164 0.040785 0.020727 0.060186 0.081231 0.11872 0.14881 0.011026 
0.0088889 0.041772 0.032893 0.021384 0.086821 -0.1182 0.378 0.032893 
0.00050378 0.0060938 0.018754 -0.012156 0.13878 -0.18002 0.2611 0.074654 
0.013492 0.0024767 0.0023123 -0.027447 0.14338 0.020233 0.37027 0.12612 
0.032893 0.040621 0.015794 -0.014787 0.068736 -0.049149 0.43094 0.11099 
0.047362 0.076299 0.057391 0.021713 0.13351 -0.23625 0.05476 0.025166 
0.026974 0.055254 0.039799 0.055911 0.21062 -0.30202 -0.66241 -0.053588 
0.024344 0.033058 0.028454 0.025495 0.13023 -0.16473 -0.78885 -0.060987 
0.027961 0.060679 0.045389 0.03388 0.012342 0.16952 -0.22803 0.0062583 
0.039634 0.043087 0.04095 0.097672 -0.045861 0.44837 0.15505 -0.0090322 
0.061008 0.035688 0.03092 0.055089 -0.13727 0.62347 0.077778 0.02122 
0.058213 0.063968 0.016616 0.026317 -0.21767 0.4875 -0.093212 0.090603 
0.036017 0.028454 0.020727 0.055418 -0.2157 0.13286 -0.18216 0.087972 
0.017274 0.02533 0.03799 0.03092 -0.15405 0.10491 -0.10127 0.024344 
0.0065871 0.058049 0.052952 0.025001 -0.098638 0.14552 0.086492 -0.042244 
0.023193 0.081889 0.054596 0.041114 0.0016547 -0.012485 0.21457 -0.0040998 
0.034209 0.071531 0.015794 0.018754 0.060186 -0.24513 0.14354 0.042923 
0.035031 0.043251 0.027961 0.021713 0.046375 -0.31862 0.037004 0.04095 
0.0069159 0.035031 0.028783 0.035524 -0.05589 -0.30498 0.011191 0.025659 
-0.00097594 -0.00015387 -0.0031133 -0.013471 -0.12149 -0.28311 0.11855 0.012342 
-0.042408 -0.015609 -0.013143 -0.017417 -0.094527 -0.27719 0.18514 0.026974 
-0.029584 0.0018191 0.0034632 -0.026789 -0.047505 -0.26141 0.037168 -0.018897 
-0.018568 -0.0067304 0.0065871 -0.022679 0.070544 -0.1672 0.054103 -0.032215 
-0.010676 0.0046141 -0.011663 0.039634 0.20553 -0.037311 0.28083 -0.011498 
0.027961 0.054596 0.042923 0.078436 0.21917 0.36386 0.27409 0.01004 
0.066434 0.081395 0.074161 0.061337 0.077778 0.69285 -0.0138 0.076134 
0.082053 0.11362 0.096521 0.047855 -0.018239 0.90149 -0.27209 0.062323 
0.071366 0.084848 0.077943 0.014479 0.0013258 0.69729 -0.10653 0.057062 
0.034373 0.053938 0.049664 0.012342 0.023028 0.14535 0.22131 0.06183 
-0.02646 -0.013307 -0.010183 0.033387 0.046211 -0.23214 0.3364 0.092411 
-0.021528 -0.0064016 0.014315 0.007738 -0.029091 -0.14829 0.20388 0.12201 
0.025988 0.062981 0.00050378 0.0083956 -0.14106 0.14634 0.077285 0.11987 
0.064625 0.053938 0.021713 0.029112 -0.1108 0.018918 0.10211 0.058377 
0.040456 0.033058 -0.0022913 0.01415 -0.063618 -0.25812 0.098494 -0.011663 
0.054596 0.035524 0.016452 0.023522 0.012013 -0.33408 -0.018568 -0.052931 
0.036839 0.049992 0.0088889 0.083862 0.13401 -0.12264 -0.27653 -0.10982 
0.0070803 0.023851 -0.0026201 -0.0011404 0.26866 -0.05737 -0.10719 -0.14698 
-0.01676 0.037826 -0.006566 -0.01117 0.22509 -0.060494 0.062323 -0.10538 
0.029605 0.049335 0.0062583 -0.028597 0.064132 -0.10686 -0.014787 -0.047669 
0.046868 0.072681 0.020891 0.014315 -0.036489 -0.051287 -0.029091 0.061666 
0.066105 0.066105 0.046868 0.044731 -0.17427 0.057062 0.088465 0.079094 
0.0011614 0.047855 0.03947 0.020727 -0.23099 0.14667 0.11592 0.095864 
-0.040435 0.0018191 0.020562 -0.03764 -0.20781 0.12595 0.24005 0.08419 
0.0028056 0.023028 0.029934 0.028125 -0.091568 0.08419 0.19435 0.10162 
0.084684 0.062323 0.041443 0.059364 0.030098 0.19287 0.13056 0.18021 
0.13401 0.10787 0.068571 0.085506 0.045224 0.32851 0.022206 0.20997 
0.12036 0.080573 0.066927 0.080409 -0.025309 0.12579 -0.052437 0.19599 
0.061172 0.055418 0.051308 0.026974 -0.096007 -0.19942 -0.13497 0.054103 
0.0044497 0.072188 0.041278 0.026152 -0.13678 -0.2619 -0.024652 -0.055068 
0.015465 0.034537 0.019083 0.027632 -0.14352 -0.17838 0.28806 -0.094034 
0.010204 0.01711 0.0052718 -0.023172 -0.082854 -0.080881 0.51397 -0.084169 
0.012342 0.040128 0.01826 -0.0064016 -0.010019 -0.036983 0.52433 -0.076113 
0.012835 0.047691 0.024344 0.023193 0.019247 -0.091404 0.39066 -0.038462 
0.015959 0.034537 0.033715 0.018096 0.10359 -0.1769 0.23315 0.0046141 
0.022206 0.021713 0.044567 -0.00015387 0.30977 -0.21077 0.014808 0.0079024 
0.00017495 0.030263 0.01711 0.011848 0.49325 -0.25467 -0.60109 0.0082312 
-0.024652 0.0075736 -0.010019 -0.0083746 0.5069 -0.14615 -1.2492 -0.0098543 
0.0064227 0.024508 0.017603 0.037004 0.38573 -0.01676 -1.0064 0.034537 
0.043087 0.060515 0.024673 0.066105 0.21128 0.41631 -0.43355 0.099152 
0.057555 0.046046 0.039799 0.071037 0.12644 0.98025 -0.055397 0.10672 
0.042594 0.038977 0.05065 0.077121 0.049828 0.83573 0.088958 0.086821 
0.030098 0.069886 0.084848 0.04654 -0.12264 0.13582 0.14042 0.0026412 
0.021713 0.093233 0.054267 0.010369 -0.36844 -0.24398 0.11773 -0.015116 
0.025166 0.077614 0.033058 0.031249 -0.45837 -0.47219 0.063803 -0.0091966 
0.017438 0.07449 0.03536 0.016123 -0.39606 -0.69398 -0.022185 0.0021479 
0.030098 0.084684 0.038483 0.035031 -0.28788 -0.70828 0.091589 0.023357 
0.032071 0.051965 0.024344 0.055911 -0.1963 -0.67409 0.33147 0.064954 
0.038155 0.010697 0.026481 0.024179 -0.065097 -0.39656 0.52531 0.085341 
0.066105 0.033058 0.048019 0.035195 0.15801 0.078436 0.4653 0.097179 
0.077614 0.0051074 0.023851 0.068078 0.34725 0.49046 0.36863 0.12003 
0.07038 0.013328 0.0098754 0.029276 0.39756 0.682 0.29875 0.074161 
-0.03205 0.028947 -0.0024557 0.023193 0.48569 0.66605 0.058871 -0.015773 
-0.08828 0.016781 0.014315 0.070708 0.59963 0.52104 -0.080059 -0.14056 
-0.10521 0.034044 0.06035 0.083204 0.49671 0.24532 0.14585 -0.1644 
-0.020212 0.044896 0.068078 0.08156 0.36419 -0.24201 0.059857 -0.14862 
0.041114 0.087808 0.06035 0.099481 0.39115 -0.59747 -0.29297 0.0083956 
0.12891 0.057884 0.056733 0.087643 0.24499 -0.59418 -0.38899 0.13598 
0.10014 0.056898 0.05624 0.074819 -0.13645 -0.33687 -0.2984 0.19106 
0.082875 0.079422 0.081889 0.016452 -0.40527 0.10984 -0.17953 0.22 
0.097837 0.081231 0.045718 0.013328 -0.38669 0.8109 -0.08828 0.159 
0.085177 0.067256 0.049335 0.024015 -0.26239 1.1147 -0.089431 0.088136 
0.071366 0.050321 0.041936 1.0539e-005 -0.16407 0.44952 -0.15437 -0.0032777 
0.049499 0.016288 0.020069 -0.0083746 -0.092883 -0.21077 -0.099131 -0.03616 
0.031907 -0.0016336 0.0067515 0.019576 -0.021856 -0.44407 -0.038133 0.0019835 
0.018425 0.00050378 0.0019835 0.011848 0.0227 -0.40806 0.0016547 -0.0014692 
-0.018239 0.034044 0.0023123 -0.0011404 0.025659 -0.25154 0.029934 -0.0022913 
-0.015609 0.015794 0.0039565 0.012506 0.055911 -0.11886 0.090109 -0.038462 
0.016123 0.022371 0.012999 -0.0024557 0.071037 0.026646 0.17659 -0.032215 
0.0074092 0.043909 0.034537 0.026646 0.10129 0.18958 0.3563 -0.022021 
0.0080668 0.026152 0.025166 0.085177 0.14815 0.31486 0.44163 0.011848 
0.012506 0.048348 0.042923 0.084848 0.171 0.25271 0.36665 0.03799 
0.034209 0.069558 0.047197 0.063474 0.1687 0.18202 0.21819 0.047197 
0.06331 0.10014 0.055418 0.060515 0.090603 0.10524 0.094548 0.066598 
0.078272 0.064954 0.063803 -0.0040998 -0.052273 0.044402 0.09833 0.072681 
0.077449 0.059364 0.06331 -0.0082102 -0.14517 0.04095 0.1322 0.10573 
0.071202 0.070708 0.025001 0.023686 -0.16144 0.027139 0.096686 0.072353 
0.024344 0.023357 0.021056 0.026317 -0.12067 0.041772 0.017274 0.025824 
0.012013 0.0056006 0.017932 0.065118 -0.074798 0.037661 -0.076113 -0.0004827 
-0.0047575 0.031414 0.024837 0.039799 -0.061151 0.034209 -0.18874 -0.037969 
-0.0064016 0.026646 0.021056 0.0074092 -0.059836 -0.0039354 -0.21882 -0.0054151 
0.0085601 0.026152 0.025659 0.018096 -0.042244 -0.038133 -0.10768 0.0090533 
-0.0096899 0.0080668 0.035195 0.0011614 0.059364 -0.031064 0.084848 0.036182 
-0.006566 0.017932 0.0013258 -0.0013048 0.08978 -0.016266 0.18366 0.036839 
0.012013 -0.001798 0.0024767 0.025166 0.080409 -0.03205 0.26685 0.031578 
0.053116 0.040292 0.027796 0.012342 0.089123 -0.083183 0.40513 0.063803 
0.092082 0.10211 0.039305 0.022042 0.079422 -0.058521 0.48158 0.055089 
0.076792 0.085012 0.054267 0.069886 -0.051944 -0.056219 0.28099 0.058213 
0.049006 0.052459 0.061666 0.03092 -0.12971 -0.049642 -0.079895 0.0080668 
-0.0019624 0.040456 0.042594 -0.0059084 -0.22968 -0.053095 -0.41431 -0.0013048 
-0.046025 0.012013 -0.010019 0.028454 -0.18495 -0.0059084 -0.49405 -0.022514 
-0.042408 -0.029091 0.01826 0.03092 -0.089431 0.06742 -0.32487 -0.027282 
-0.027775 0.018754 0.02533 0.021384 0.0062583 0.20109 -0.067399 -0.014951 
0.025001 0.070708 0.052787 0.038155 -0.015609 0.41894 0.053116 -0.0072237 
0.048184 0.064625 0.07301 -0.0083746 -0.045039 0.36435 0.077778 0.022535 
0.070544 0.057555 0.073668 -0.029748 -0.077922 -0.00064712 0.042923 0.0098754 
0.036346 0.061995 0.016616 -0.0060728 0.0028056 -0.26141 0.075148 0.010369 
0.046704 0.061501 0.02533 0.025988 0.19336 -0.25154 0.059528 0.029769 
0.074161 0.056733 0.020069 0.0324 0.24153 -0.17854 0.079094 0.08419 
0.068407 0.074819 0.01415 0.019411 0.066434 -0.14073 0.12891 0.1179 
0.070544 0.051472 0.024673 0.020069 -0.083347 -0.14155 0.12792 0.090109 
0.055418 0.0324 0.030263 0.014315 -0.20649 -0.20567 0.03947 0.030756 
0.032071 0.014643 0.031578 0.0079024 -0.1182 -0.16457 -0.14089 -0.023336 
0.037497 0.056898 0.017274 0.018096 0.089616 -0.011663 -0.28015 -0.021199 
0.031085 0.034866 0.023193 0.058871 0.13417 0.065118 -0.20879 -0.04882 
0.049499 0.042429 0.021056 0.025988 0.13861 -0.029584 -0.10784 -0.01117 
0.039963 0.065612 0.029276 0.04358 0.15357 -0.15618 -0.042737 0.01267 
0.0052718 0.019411 0.038812 0.057391 0.088465 -0.16473 -0.041093 0.07301 
-0.00015387 0.01826 0.050157 0.034866 0.074161 0.033222 0.15193 0.055089 
-0.0039354 0.042758 0.054925 0.041607 0.1368 0.22723 0.23594 0.037826 
0.049828 0.05624 0.020727 0.054925 0.13384 0.23578 0.012342 0.059857 
0.056569 0.052952 0.024673 0.038319 0.18498 0.21161 -0.23198 0.0046141 
0.083862 0.048677 0.0018191 0.014479 0.21309 0.3415 -0.25894 -0.023501 
0.077614 0.071859 0.033387 0.026317 0.16673 0.47517 -0.011334 -0.0075525 
0.073832 0.055254 0.067585 0.028619 0.10935 0.2371 0.28412 0.014643 
0.03947 0.05065 0.084684 0.043745 0.16919 -0.084991 0.37241 0.042265 
-0.0019624 0.056404 0.042758 0.066105 0.17758 -0.11508 0.28247 0.033387 
-0.039942 0.012835 0.01974 -0.0060728 0.05213 -0.036654 0.15768 0.064461 
-0.009361 -0.0022913 -0.025474 -0.0055795 -0.072167 -0.021363 0.015137 0.070873 
-0.01117 0.013492 -0.033365 -0.048492 -0.18117 -0.10258 -0.45065 0.065776 
0.0041209 0.017767 -0.019719 -0.061645 -0.2425 -0.26881 -0.76681 0.041607 
0.020233 0.034044 0.021713 0.013328 -0.19038 -0.29791 -0.50063 0.059693 
0.071531 0.054432 0.073668 0.029112 -0.089759 -0.20501 0.016288 0.12644 
0.080573 0.095864 0.062159 0.037661 -0.0021268 -0.097651 0.33854 0.12053 
0.048184 0.05476 0.038648 0.062981 0.078272 -0.032543 0.35334 0.093398 
-0.0050863 0.049992 0.039963 0.013657 0.12842 0.0064227 0.1516 0.027961 
0.010862 0.062488 0.037826 0.032893 0.15078 0.088136 -0.00081153 -0.039942 
0.019083 0.040785 0.046375 0.077121 0.13499 0.26192 0.13302 -0.10604 
-0.010512 0.037168 0.068736 0.050814 0.12283 0.49605 0.32177 -0.057699 
0.020562 0.059528 0.0689 0.044731 0.10014 0.57579 0.39082 0.10622 
0.051965 0.067585 0.038483 0.0592 0.15078 0.41696 0.24088 0.14667 
0.053609 0.042758 0.025495 0.036017 0.1271 0.15324 0.010533 0.12529 
0.042429 0.043087 0.02122 -0.013636 -0.026624 -0.10094 -0.12741 0.070708 
0.026481 0.072188 0.01152 0.017274 -0.057863 -0.11278 0.12217 0.064296 
0.051801 0.059857 0.035195 0.033715 0.046046 -0.077922 0.36254 0.057062 
0.042265 0.044896 0.048677 0.033222 0.12003 -0.093212 0.43357 0.03947 
0.038319 0.052952 0.048184 0.042758 0.17889 -0.13991 0.15012 0.036017 
-0.0022913 0.020233 0.011355 0.03388 0.14124 -0.10456 -0.41826 -0.053753 
-0.041586 0.0051074 0.047197 0.049664 0.024673 -0.096007 -0.92827 -0.16276 
-0.052602 0.0047785 0.0014903 -0.014129 -0.14846 -0.15914 -1.2088 -0.26864 
-0.035832 0.013821 0.01267 -0.037311 -0.17936 -0.14336 -0.88536 -0.11113 
0.013328 0.044073 0.046704 0.054432 -0.12741 -0.047669 -0.039284 0.075476 
0.10556 0.083204 0.10277 0.067749 -0.066248 0.11198 0.5942 0.2149 
0.12694 0.086985 0.035031 0.061501 -0.1256 -0.058028 0.67805 0.28198 
0.11543 0.074654 0.02533 0.047691 -0.21817 -0.30037 0.45609 0.27228 
0.10935 0.061501 0.037826 0.0011614 -0.16029 -0.21159 0.34232 0.18087 
0.091425 0.094713 0.051143 0.026317 0.024344 0.083368 0.40365 0.046868 
0.051143 0.055747 0.057884 0.039141 0.24022 0.45823 0.34906 -0.043888 
-0.0083746 0.013328 0.044567 0.0079024 0.35251 0.59141 0.1733 -0.085978 
-0.029255 0.013821 0.033551 0.011684 0.24153 0.30681 0.19813 -0.05326 
0.020233 0.03536 0.0065871 0.051801 0.038812 0.060844 0.48174 -0.03501 
0.018425 0.041278 0.010204 0.026317 -0.088608 0.10556 0.45133 -0.07414 
-0.015773 0.010369 0.0095465 0.01415 -0.012156 0.26061 -0.16818 -0.090581 
-0.025309 0.014972 0.013164 0.0082312 0.17133 0.17034 -0.59385 -0.13941 
-0.0075525 0.030263 0.031907 0.025659 0.33032 0.0046141 -0.21981 -0.028269 
0.051965 0.054432 0.060679 0.053938 0.32687 -0.14829 0.068407 0.086328 
0.061008 0.083697 0.049828 0.06035 0.049499 -0.24661 -0.060165 0.1636 
0.060515 0.079751 0.033715 0.034702 -0.19285 -0.30942 -0.11541 0.1322 
0.059528 0.047526 0.021713 0.035195 -0.19367 -0.20419 0.004943 0.082053 
0.049335 0.041936 0.0065871 0.012506 -0.10291 0.071695 0.22 0.056076 
0.060679 0.058213 0.017932 0.018754 -0.0090322 0.25419 0.37833 0.0098754 
0.056569 0.03799 0.027303 0.04506 0.011191 0.18563 0.31289 0.0087245 
0.01152 0.052294 0.040621 0.0062583 -0.026789 0.085012 0.14223 -0.044874 
0.02681 0.061995 0.0069159 0.0067515 -0.036818 -0.096172 0.02681 -0.067235 
0.026317 0.02829 0.034209 0.049828 0.031414 -0.15602 -0.041751 -0.048327 
0.0079024 0.023522 0.031907 0.04358 0.11296 -0.028597 -0.081539 0.0095465 
-0.0040998 0.046375 0.057884 0.041443 0.2052 0.10096 -0.10341 0.016616 
0.0083956 0.05624 0.054103 0.068571 0.19796 0.15851 -0.07825 -0.0057439 
0.0070803 0.018589 0.032893 0.028454 0.12579 0.10425 0.045718 0.01267 
0.016288 0.011848 0.029934 0.020562 0.053445 0.071859 0.18629 -0.0090322 
0.028454 0.031907 -0.015444 0.035031 0.025166 0.059364 0.27705 0.028947 
0.0227 0.030756 0.015465 0.020398 -0.073811 0.060515 0.2588 0.062652 
-0.0014692 0.039634 0.029605 0.0054362 -0.1062 0.028619 0.033387 0.10688 
-0.0032777 0.051801 0.02533 0.0024767 -0.088444 0.01004 -0.28278 0.11 
0.0034632 0.050979 0.043416 -0.0036066 -0.034188 0.016781 -0.43486 0.026974 
0.01563 0.051472 0.066105 0.027632 0.03388 0.030592 -0.21998 0.024344 
0.044238 0.07597 0.043251 0.05476 0.059693 0.040785 0.1054 0.012999 
0.026481 0.10951 0.014643 0.072517 0.03536 0.032729 0.27672 0.043745 
0.079751 0.070544 0.033222 0.047362 0.0085601 -0.012485 0.32506 0.021878 
0.093233 0.034044 0.036839 0.029441 -0.031557 -0.10291 0.23956 0.00297 
0.041443 0.068407 0.038977 0.026974 -0.043559 -0.16588 0.12299 0.025495 
0.047197 0.024015 0.042265 0.06742 0.016616 -0.22277 -0.0032777 0.046868 
0.042758 -0.0070593 0.041772 0.034209 -0.0040998 -0.31369 -0.10078 0.054103 
0.02122 0.024837 0.026152 0.046704 -0.012978 -0.36055 -0.063946 0.0052718 
0.013821 0.01152 0.0044497 0.045224 0.004943 -0.24431 -0.0013048 0.0059294 
0.0013258 0.00050378 -0.0059084 0.016945 -0.010019 0.043251 0.0047785 -0.021034 
-0.011992 0.014315 -0.0024557 0.010204 -0.023994 0.33377 -0.0026201 -0.031557 
0.029276 0.066434 0.043416 0.033551 0.014972 0.72327 0.0072447 0.004943 
0.055582 0.067585 0.078436 0.02533 0.043416 1.0218 0.0092177 0.027632 
0.094548 0.086492 0.064954 0.02122 -0.0080457 0.75582 -0.07003 0.072517 
0.09685 0.091753 0.028947 0.013821 -0.062467 -0.097651 -0.12544 0.074819 
0.076463 0.060022 0.011191 -0.014951 -0.097816 -0.65732 -0.13464 0.087643 
0.060844 0.035853 -0.010183 -0.017088 -0.093048 -0.67968 -0.090253 0.051965 
0.046868 0.0034632 -0.016266 0.0092177 -0.133 -0.55982 -0.049971 0.041443 
0.021549 -0.025638 0.017932 0.018589 -0.17624 -0.38422 -0.011498 0.039141 
0.027632 0.013492 0.08419 0.066434 -0.18611 -0.14615 -0.011663 0.045718 
0.0085601 0.072024 0.097344 0.094713 -0.11557 0.030098 -0.029255 0.040621 
0.00099702 0.10359 0.073339 0.072517 -0.012978 0.094713 -0.059507 0.020562 
-0.0022913 0.070708 0.04506 0.058706 0.0592 0.16706 -0.0029489 0.022864 
0.011026 0.046211 0.0042853 0.0060938 0.11642 0.21506 0.16673 -0.043066 
0.033222 0.039305 0.0059294 -0.017088 0.16146 0.15637 0.44212 -0.037147 
0.053281 0.034209 0.023357 -0.004593 0.15078 0.031085 0.50147 1.0539e-005 
0.079916 0.022371 0.032236 0.0018191 0.20914 -0.0138 0.34479 0.036017 
0.058049 0.050486 0.010204 0.019411 0.25321 -0.01232 -0.02646 0.054925 
0.043745 0.028619 0.016123 0.062488 0.21901 0.017603 -0.4661 0.039305 
0.018425 0.0080668 -0.014787 0.027961 0.12464 0.014315 -0.96888 0.040621 
-0.031228 -0.00015387 0.01711 -0.0013048 0.0095465 -0.011005 -1.189 0.011191 
-0.035832 0.044402 0.044896 0.010204 -0.10784 0.049828 -0.8459 0.041772 
0.013657 0.063968 0.095371 0.046375 -0.068057 0.14387 0.043087 0.093726 
0.047691 0.065283 0.068078 0.098001 -0.07414 -0.0095255 0.74086 0.10935 
0.05065 0.073997 0.029441 0.071366 -0.18249 -0.17147 0.73659 0.088465 
0.022042 0.047362 0.010862 -0.011005 -0.19235 -0.12708 0.61541 0.033715 
0.010697 0.015137 0.0085601 -0.025145 -0.070194 0.13993 0.4413 0.042923 
-0.014458 0.034866 0.0019835 -0.004593 0.061666 0.55293 0.19796 0.068078 
0.012999 0.027796 0.023522 -0.0034422 0.14256 0.51282 -0.14402 0.047691 
0.032729 0.024508 0.054267 0.04506 0.071695 0.097508 -0.26618 0.032564 
0.044731 0.061172 0.050814 0.052294 -0.026296 -0.16917 -0.15947 0.0046141 
0.04654 0.072681 0.027139 0.037332 0.00066819 -0.11327 0.02122 0.0052718 
0.031414 0.065118 0.036346 0.042429 0.11822 0.039799 0.16311 0.004943 
0.01563 0.044567 0.017932 0.038319 0.27409 0.060844 0.15555 0.024344 
0.00050378 0.051472 0.038155 0.06479 0.35712 0.041114 0.02122 0.0085601 
0.031249 0.048184 0.056898 0.067585 0.39756 0.015301 -0.067564 0.040128 
-0.0013048 0.0046141 0.032071 0.022535 0.25995 -0.12182 -0.05326 0.040292 
0.015794 0.04358 0.0013258 -0.0024557 0.11559 -0.22951 -0.058685 0.033058 
0.0090533 0.038648 0.016945 0.026974 0.18317 -0.1718 -0.080223 0.023357 
0.02533 0.032893 0.027961 0.033222 0.366 -0.044381 -0.13464 0.034702 
0.022206 0.055089 0.051472 0.073504 0.39345 0.084848 -0.05589 0.066269 
0.055254 0.091425 0.08978 0.084684 0.065447 0.026317 0.043087 0.051472 
0.061501 0.066763 0.10113 0.018096 -0.39869 -0.073647 0.088958 -0.00015387 
0.050979 0.055911 0.028619 -0.034352 -0.59862 -0.019555 0.21704 -0.02646 
0.049499 0.0689 0.0069159 -0.02235 -0.46791 -0.11919 0.32818 -0.046354 
0.029934 0.033715 -0.0021268 -0.0013048 -0.22343 -0.18397 0.29135 -0.075291 
0.02829 0.037004 0.0041209 0.037826 0.041114 0.078272 0.22542 -0.072989 
0.02122 0.032071 0.029769 0.068407 0.2851 0.52663 0.18103 -0.018075 
0.013328 0.038483 0.048184 0.06742 0.48733 0.77752 -0.0406 0.059693 
0.0069159 0.023357 0.048677 0.062159 0.44738 0.71423 -0.23954 0.25896 
0.035853 0.01415 0.017438 0.038977 0.23841 0.4311 -0.24283 0.30253 
0.050321 0.056404 0.033715 0.014479 0.066598 -0.09946 -0.026624 0.21654 
0.083204 0.050814 0.03536 0.023686 0.018754 -0.58168 0.13335 0.094384 
0.11181 0.065283 0.061666 0.055254 0.11806 -0.5174 0.1419 0.011355 
0.078929 0.092411 0.080244 0.083533 0.090931 -0.22787 0.19862 -0.039778 
0.036839 0.055089 0.075476 0.089452 -0.013636 -0.10604 0.23956 -0.082361 
-0.010841 0.025166 0.031414 0.022042 -0.10916 -0.096665 0.17577 -0.11212 
-0.010841 0.037661 -0.010512 -0.018239 -0.13925 -0.031557 -0.10012 -0.12264 
-0.0029489 0.053938 0.0041209 -0.0024557 -0.066413 0.1784 -0.10406 -0.056219 
0.009711 0.030098 -0.0027845 0.0098754 0.066269 0.28675 0.11872 0.025166 
0.028619 0.059364 0.044073 0.019083 0.15094 0.20931 0.20964 0.068407 
0.076627 0.061995 0.060844 0.060022 0.12924 0.024508 0.16689 0.072188 
0.043087 0.04095 0.044731 0.034866 0.059364 -0.11919 0.13286 0.027632 
0.0421 0.01267 0.01415 0.022535 -0.01117 -0.10867 0.11247 0.012506 
0.019411 0.071859 0.020727 0.054596 -0.041093 -0.015609 0.09833 -0.035832 
0.0013258 0.048019 0.02533 0.018425 -0.12018 0.062652 0.084026 0.018918 
0.01152 0.032564 0.02122 0.01415 -0.21126 0.21917 0.068571 0.021878 
0.024673 0.045224 0.029276 0.022371 -0.22244 0.26357 0.051143 0.085177 
0.037661 0.051636 0.045718 0.0024767 -0.18167 0.10376 0.0070803 0.066105 
0.022535 0.045882 0.038155 0.028125 -0.15405 -0.035174 0.060844 0.048677 
0.013821 0.031742 0.034209 0.023851 -0.0965 -0.018404 0.074983 0.059528 
0.032893 0.069886 0.013986 0.0095465 0.036182 -0.047998 0.12085 0.031578 
0.022371 0.035524 0.0064227 0.049335 0.26209 -0.0026201 0.075805 0.099645 
0.043745 0.042758 0.034702 0.049992 0.24795 -0.019555 -0.0059084 -0.0027845 
-0.017746 0.036839 0.05476 0.05213 0.1493 -0.0771 -0.049971 -0.051615 
0.021549 0.022864 0.063639 0.054267 -0.027118 -0.13448 -0.19959 -0.022679 
0.048677 0.0044497 0.04654 0.023193 -0.087129 -0.070194 -0.068386 0.019083 
0.033551 0.020727 0.054596 0.055911 -0.07266 0.11115 0.256 0.050157 
0.027303 0.067749 0.062981 0.071202 -0.063453 0.28132 0.61558 0.012177 
-0.059178 0.046868 0.023193 0.010369 0.027468 0.23479 0.62133 -0.053095 
-0.08269 0.022535 -0.028597 0.0026412 0.10425 0.1664 0.35038 -0.099953 
-0.048492 0.01974 -0.02646 -0.010183 0.039799 -0.048492 -0.030735 -0.042244 
0.0013258 0.018754 -0.0068948 -0.056548 -0.012814 -0.34065 -0.31649 0.022371 
0.029112 0.017438 0.0065871 -0.039778 -0.043724 -0.3058 -0.82189 0.0023123 
0.088958 0.060844 0.020562 -0.0067304 0.075312 0.0032988 -1.3791 0.077943 
0.14141 0.093891 0.036839 0.04917 0.28198 0.31832 -1.0922 0.244 
0.16426 0.067749 0.082217 0.1031 0.21539 0.31536 -0.29774 0.30714 
0.1197 0.063968 0.099645 0.11691 0.042594 -0.022843 0.18794 0.22526 
0.074983 0.062488 0.072517 0.066105 -0.086964 -0.25812 0.22526 0.057555 
0.034209 0.023851 0.037497 0.044238 -0.18676 -0.22606 0.20487 -0.12231 
-0.0077169 0.0034632 -0.0047575 -0.0036066 -0.23494 -0.18035 0.26291 -0.16588 
-0.046025 0.026152 -0.0073881 -0.03616 -0.24431 -0.02235 0.29661 -0.13021 
-0.067564 0.0042853 -0.023501 -0.025145 -0.27242 0.24071 0.27425 -0.087129 
-0.031228 0.010369 -0.0036066 -0.010019 -0.27078 0.26883 0.32703 -0.040764 
0.01563 0.059693 0.039799 0.028454 -0.10916 0.16492 0.35778 0.049992 
0.050321 0.063639 0.084684 0.10096 0.099645 0.018425 0.25337 0.14256 
0.063968 0.069558 0.062159 0.088301 0.20816 -0.10867 0.1396 0.10408 
0.067091 0.059693 0.037826 0.061995 0.256 -0.23872 0.029605 0.06035 
0.037168 0.055911 0.013657 0.042265 0.18333 -0.24973 -0.037969 -0.019719 
-0.001798 0.0075736 -0.015938 -0.028433 0.079587 -0.15569 -0.17986 -0.039942 
0.014808 -0.011005 -0.0013048 -0.015444 0.067749 -0.0040998 -0.28886 0.0088889 
0.036839 0.033715 0.027961 0.025495 0.054925 0.07449 -0.3109 -0.0036066 
0.070708 0.054267 0.047197 0.053281 0.037332 0.01415 -0.26831 0.013492 
0.085999 0.07449 0.037497 0.048513 0.051308 -0.25598 -0.25023 0.03947 
0.073504 0.088136 0.046375 0.058377 0.048019 -0.55554 -0.17164 0.08419 
0.02829 0.061337 0.022206 -0.0062372 -0.011334 -0.58053 -0.1187 0.07301 
-0.026624 0.019083 0.013492 -0.032872 -0.014129 -0.30465 -0.036654 0.021384 
-0.034681 0.0098754 0.02122 -0.0036066 0.057227 0.44113 0.14239 0.020398 
-0.0040998 0.057884 0.047526 0.033715 0.18498 1.4617 0.29892 0.06594 
0.028619 0.051308 0.032071 0.089287 0.35021 1.5751 0.31141 0.1276 
0.064954 0.051965 0.026481 0.072353 0.41581 0.67066 0.22033 0.11707 
0.043416 0.087643 0.011026 0.069558 0.26998 -0.16966 0.098494 0.084026 
0.047033 0.048019 0.029605 0.050486 0.029934 -0.50786 0.034866 0.032564 
0.049828 0.059528 0.050979 0.011684 -0.19235 -0.53499 0.025495 1.0539e-005 
0.029276 0.052294 0.071366 -0.013143 -0.31599 -0.43273 -0.059178 -0.037969 
-0.0064016 0.044238 0.09422 0.034537 -0.31122 -0.34361 -0.14484 -0.045696 
0.0016547 0.05065 0.052294 0.020562 -0.20337 -0.20945 -0.078086 0.007738 
0.017932 0.063803 0.023851 0.046868 -0.083347 -0.049149 0.1003 0.060186 
0.033222 0.06594 0.013328 0.058542 -0.011498 0.08008 0.22986 0.079916 
0.026481 0.035688 -0.00081153 0.025495 0.013492 0.15637 0.28971 0.048677 
0.016781 0.012177 0.010533 -0.0013048 0.020233 0.18777 0.1978 0.0023123 
0.014315 0.051472 0.041278 0.018425 0.090767 0.16212 0.087972 -0.0024557 
0.045389 0.061666 0.054432 0.030592 0.17955 0.11231 0.021549 -0.010183 
0.056076 0.067749 0.033715 0.044896 0.17725 0.017438 0.050814 0.014808 
0.05772 0.077943 0.026646 0.081889 0.22657 -0.02498 0.12201 0.033387 
0.074819 0.086163 0.052952 0.062159 0.27327 0.067749 0.1516 0.068078 
0.091589 0.052623 0.032071 0.065776 0.16048 0.052294 0.12595 0.060844 
0.058871 0.027139 0.047855 0.042265 0.12003 0.059035 0.1955 0.056898 
0.020562 0.028947 0.034537 0.0014903 0.097508 0.10047 0.27261 0.052459 
0.010862 0.01711 0.029276 0.0062583 0.028619 0.087479 0.31585 0.062981 
0.017438 0.04095 0.016616 0.0082312 -0.035338 0.088136 0.28576 0.069886 
0.038812 0.079094 0.02122 -0.0055795 -0.12725 0.039799 0.13056 0.046046 
0.049499 0.072517 0.019411 0.037826 -0.1917 0.0042853 -0.027118 0.075476 
0.037826 0.037168 0.020727 0.016616 -0.15339 -0.040928 -0.086964 0.069064 
0.038648 0.03388 0.047526 0.018425 0.016452 -0.0083746 -0.10784 0.038977 
0.048513 0.060186 0.072846 0.061337 0.14453 0.01152 -0.18348 -0.053095 
0.054267 0.056898 0.056404 0.037168 0.10622 -0.042079 -0.21586 -0.082196 
0.036017 0.030592 0.025824 0.0227 0.0079024 -0.076771 -0.080717 -0.032379 
0.0087245 0.039305 -0.00031829 0.042758 -0.08121 -0.072825 0.068407 -0.009361 
-0.053424 0.0080668 0.016452 0.020398 -0.060329 -0.022679 0.18481 0.020891 
0.0044497 0.019905 0.045882 0.027961 0.078436 0.054925 0.11346 0.038648 
0.059693 0.077449 0.08567 0.068736 0.1756 0.13072 0.049664 0.062159 
0.079422 0.068078 0.061172 0.069064 0.21605 0.15851 0.03536 0.094548 
0.06331 0.029276 0.016781 0.052952 0.12184 0.12102 -0.093705 0.078929 
0.031742 0.023357 0.013328 0.021878 0.044567 -0.016595 -0.11886 0.05624 
0.020727 0.04654 0.01152 -0.0042642 0.03947 -0.069536 0.22 0.016616 
0.0067515 0.011191 0.025495 -0.003771 0.013821 0.075148 0.50969 -0.0016336 
-0.00081153 -0.006566 0.053445 0.023193 -0.021199 0.3267 0.52729 -0.076277 
0.0054362 0.039634 0.056898 0.029934 0.0019835 0.28593 0.20619 -0.10669 
0.015301 0.02533 0.024837 0.029934 -0.01117 0.0085601 -0.32767 -0.03912 
0.030756 0.035195 0.017603 0.037826 -0.018239 -0.24579 -0.75169 0.076792 
0.06035 0.072517 -0.0016336 0.016452 0.017603 -0.32816 -0.61588 0.11115 
0.036675 0.041278 0.01974 0.037661 0.087643 -0.267 -0.25072 0.05476 
0.031742 0.05065 0.037168 0.012506 0.13713 -0.11738 -0.046354 0.06742 
0.048677 0.046375 0.07449 0.0075736 0.16048 -0.018075 0.076134 0.079916 
0.012177 0.058377 0.047526 0.064296 0.12595 -0.062631 0.29974 0.10704 
0.00017495 0.024015 -0.003771 0.024179 -0.063618 0.0093821 0.37471 0.048019 
0.01267 0.024344 0.0018191 0.032893 -0.13021 0.25551 0.15324 0.0093821 
0.030592 0.059857 -0.0021268 0.060022 -0.13859 0.21046 -0.067564 0.012999 
0.014972 0.03651 0.031907 0.01826 -0.12248 -0.063946 -0.17312 -0.026296 
-0.016102 0.029112 0.0421 0.0064227 -0.086142 -0.1769 -0.15273 -0.038298 
-0.030406 0.023851 0.043087 0.020727 0.012177 -0.080388 -0.077593 -0.058028 
-0.00015387 0.047033 0.03947 0.00017495 0.14585 0.13779 -0.071674 -0.048656 
0.020891 0.047197 0.022535 0.013164 0.16327 0.28313 0.013657 -0.027611 
-0.011005 0.01415 -0.014622 0.020727 0.17906 0.30335 0.36501 0.011191 
0.021056 0.03092 -0.0039354 0.0059294 0.12628 0.33607 0.60292 0.073832 
0.079422 0.035524 0.024673 0.045224 0.042265 0.20388 0.33525 0.15357 
0.10688 0.066598 0.058377 0.060679 -0.063782 -0.062796 -0.030242 0.21967 
0.087479 0.096193 0.066105 0.044402 -0.18742 -0.16062 -0.28969 0.14338 
0.076792 0.052787 0.022371 0.023028 -0.22573 -0.2448 -0.60799 0.027961 
0.034537 0.031742 0.016288 -0.0052507 -0.11146 -0.2374 -0.72357 -0.078415 
0.03092 0.044896 0.016781 0.0054362 0.026317 -0.05737 -0.24924 -0.14237 
0.047362 0.076134 0.032071 0.040621 0.14157 0.25403 0.14321 -0.06707 
0.076134 0.067585 0.040292 0.036839 0.16738 0.23381 0.038483 0.03388 
0.04095 0.031085 0.041443 0.026152 0.092082 0.1373 -0.25253 0.047362 
0.0023123 0.02122 0.045389 0.017603 0.072188 0.17708 -0.13612 -0.016595 
-0.027282 -0.0016336 -0.0078813 0.0036276 0.13088 0.031742 0.28165 -0.03501 
-0.019555 -0.0021268 -0.0067304 0.037004 0.13828 -0.080059 0.68216 0.016781 
0.025988 0.039305 0.017767 0.071037 0.025166 -0.12116 0.63942 0.1271 
0.070544 0.044402 0.022206 0.062981 -0.089266 -0.15848 0.29875 0.19961 
0.065776 0.052623 0.039963 0.009711 -0.14369 -0.037805 0.12908 0.17906 
0.061501 0.062981 0.045718 -0.012814 -0.14698 0.22756 0.059857 0.13532 
0.064625 0.072188 0.020891 -0.010841 -0.050629 0.086492 -0.11853 0.074654 
0.071695 0.078436 0.022371 0.025495 0.044567 -0.2083 -0.24069 0.036675 
0.072353 0.080902 0.04095 0.070051 0.16886 -0.16539 -0.12166 0.049992 
0.077778 0.093726 0.039634 0.067585 0.18777 0.12924 0.074326 0.041772 
0.041607 0.070708 0.039141 0.051801 0.099152 0.26998 -0.072167 -0.077757 
-0.0004827 0.016123 0.023028 0.024015 -0.034845 0.23923 -0.27834 -0.18035 
-0.0072237 0.049992 0.022864 -0.0059084 -0.12116 0.20454 -0.20008 -0.12774 
0.013328 0.034209 0.0093821 0.01563 -0.11639 0.25255 0.10195 -0.033037 
0.037004 0.048348 0.033715 -0.0078813 -0.082032 0.32292 0.26061 0.11444 
-0.00031829 0.044731 0.019247 0.015137 -0.13481 0.064954 0.22838 0.050157 
-0.030077 0.10293 0.03092 0.095864 -0.018568 -0.29314 0.16985 0.13713 
-0.0049219 0.025495 0.016616 0.03092 0.13582 -0.40971 0.053281 0.12677 
0.021713 0.011191 0.016123 0.049335 0.17232 -0.42483 -0.14862 0.073175 
0.017767 0.053774 0.045389 0.052459 0.1026 -0.31665 -0.2037 0.044896 
0.017438 0.079094 0.027139 0.014315 0.041278 0.0042853 0.021713 0.033058 
0.053938 0.071531 0.025001 -0.018897 0.026152 0.36238 0.16475 0.045882 
0.08419 0.076792 0.025659 0.0039565 0.035524 0.43275 0.24071 0.051308 
0.09274 0.028783 0.0013258 0.0034632 0.052787 0.25206 0.17232 0.06331 
0.079751 0.010862 0.028125 0.04358 0.050321 0.027139 0.10836 0.036182 
0.024508 0.01004 0.037497 0.092082 0.049006 -0.082854 0.11231 -0.010841 
-0.045696 0.049828 0.040785 0.055911 0.093726 -0.1113 0.085835 -0.033201 
-0.061809 0.081395 0.0324 0.045718 0.23167 -0.10193 -0.052109 -0.081868 
-0.048492 0.058542 0.016452 0.0056006 0.19517 -0.069043 -0.092554 -0.072825 
-0.044381 0.05476 0.01563 -0.016102 0.030427 -0.089759 -0.010348 -0.0024557 
0.01826 0.0072447 1.0539e-005 0.00017495 -0.080388 0.029934 -0.011005 0.059364 
0.069229 0.012999 0.020233 0.022864 -0.092719 0.079916 -0.18824 0.061501 
0.094548 0.077778 0.062652 0.061172 0.028454 0.0090533 -0.29725 0.071366 
0.093069 0.099481 0.048513 0.1128 0.1202 -0.13629 -0.22113 0.099481 
0.086657 0.072024 0.048348 0.054925 -0.071674 -0.29166 -0.10554 0.065283 
0.043087 0.056733 0.040128 0.018589 -0.28295 -0.44884 -0.082361 0.05624 
-0.027282 0.027796 0.0037921 0.0039565 -0.28821 -0.57363 0.075312 0.019411 
-0.037311 0.0028056 0.014479 -0.028104 -0.1284 -0.34674 0.49588 -0.0054151 
-0.023994 0.027303 0.055582 0.019411 0.12299 0.26702 0.86647 -0.050958 
0.035853 0.043251 0.036675 0.042265 0.31552 1.0235 0.74004 -0.015938 
0.03799 0.0421 0.0016547 0.013492 0.33229 1.1351 0.2782 0.049828 
0.069393 0.039799 0.018425 0.0016547 0.27047 0.35301 -0.18463 0.044731 
0.072024 0.059693 0.053281 0.062323 0.18284 -0.2642 -0.42911 0.0592 
0.097015 0.073997 0.085341 0.10425 0.13993 -0.32832 -0.43141 0.090603 
0.11642 0.064461 0.088136 0.11839 0.18021 -0.17262 -0.24382 0.10178 
0.061008 0.035195 0.088465 0.090931 0.12924 -0.069865 -0.048985 0.043087 
-0.0032777 0.035688 0.038319 0.033058 0.014479 -0.066248 0.041443 -0.020706 
-0.056219 -0.0062372 0.0024767 -0.012649 -0.099295 -0.11179 0.022371 -0.055726 
-0.059343 0.0014903 -0.012978 -0.01528 -0.16342 -0.068386 0.050979 -0.06707 
-0.034352 0.036839 -0.011498 -0.032708 -0.11212 0.034866 0.14897 -0.033694 
0.0032988 0.03947 0.01004 0.00033937 -0.02087 0.051308 0.15028 -0.0078813 
0.01974 0.038977 0.035195 0.0016547 0.056076 0.015301 0.058049 0.038319 
0.060022 0.064132 0.054267 0.015137 0.041443 -0.10554 -0.036983 0.051472 
0.061501 0.052294 0.05065 0.071531 -0.08532 -0.25072 -0.034188 0.036675 
0.059035 0.031578 0.034866 0.038319 -0.29215 -0.35085 0.028947 0.044073 
0.019411 -0.00031829 0.038483 -0.0047575 -0.34329 -0.30728 0.02533 0.036839 
0.0062583 0.025001 0.020398 0.048348 -0.19318 -0.18989 0.028783 0.029769 
0.01152 0.020069 0.051472 0.053609 -0.010512 0.27524 0.12201 0.00099702 
0.03947 0.051636 0.069064 0.05213 0.13532 0.78525 0.37044 0.042429 
0.082382 0.10458 0.067091 0.081231 0.25502 0.68644 0.79923 0.097344 
0.070873 0.071202 0.038648 0.03388 0.27277 0.32506 1.0047 0.083697 
0.054925 0.082875 0.06183 0.021549 0.35975 0.20635 0.83967 0.031249 
0.020727 0.042923 0.036182 0.038483 0.36994 0.23529 0.40217 0.021713 
0.010533 0.022864 0.021384 0.0083956 0.38507 0.027961 -0.66373 0.041443 
-0.043559 -0.013965 0.01563 0.0065871 0.34577 -0.20353 -2.1145 -0.022021 
-0.024158 -0.0004827 0.045553 0.023028 0.10096 -0.26322 -2.2654 -0.070852 
0.014808 0.053938 0.024344 0.020233 -0.17986 -0.16588 -0.55078 -0.028104 
0.059693 0.039634 0.019576 0.020398 -0.30547 -0.045861 0.85891 0.020727 
0.058213 0.057391 -0.016431 0.0069159 -0.33293 -0.0040998 0.97351 0.147 
0.083862 0.083862 0.020891 0.0079024 -0.31073 -0.013471 0.61015 0.2223 
0.084848 0.074654 0.043251 0.047691 -0.19104 -0.047341 0.22328 0.18037 
0.061172 0.06331 0.080738 0.051636 -0.14961 -0.05589 -0.037147 0.03799 
0.047691 0.046046 0.070051 0.03388 -0.12873 -0.034188 -0.12889 -0.032379 
0.0072447 0.05213 0.031249 0.057555 -0.043888 0.0092177 -0.079566 -0.087951 
0.0031344 0.017603 0.0079024 0.029441 0.046375 0.022535 0.18136 -0.038627 
-0.023994 0.0056006 0.0032988 -0.012978 0.11017 -0.0034422 0.36304 -0.0091966 
-0.0014692 0.040621 -0.0004827 0.014972 0.17363 -0.020048 0.35778 0.012835 
0.039141 0.034537 0.030592 0.0047785 0.1641 0.01711 0.20553 0.027796 
0.045553 0.05213 0.058213 0.018096 0.18596 0.17774 0.0087245 0.02681 
0.038155 0.081889 0.055911 0.07301 0.28823 0.43932 -0.36893 0.0227 
0.026974 0.060186 0.034866 0.057555 0.2486 0.5388 -0.77832 -0.0057439 
0.012342 0.049664 0.020727 0.031907 0.090603 0.29069 -0.75235 0.0023123 
0.033222 0.042594 0.010533 0.034537 0.013821 0.0062583 -0.3908 0.037497 
0.061172 0.061008 0.047197 0.020069 -0.029748 -0.14303 -0.12544 0.082875 
0.09833 0.056404 0.036017 0.027303 -0.063289 -0.2813 0.050321 0.097015 
0.10441 0.058706 0.055254 0.029934 -0.061151 -0.25236 0.18119 0.037004 
0.098494 0.081724 0.022864 0.026317 -0.075127 -0.1358 0.24811 0.037661 
0.065612 0.027303 0.046046 0.041278 -0.084169 -0.23905 0.29086 0.016945 
0.019905 -0.0072237 0.032893 0.022864 -0.090253 -0.3931 0.33772 0.02829 
-0.033694 0.016616 0.020562 0.0079024 -0.089924 -0.36038 0.33196 0.0227 
-0.033859 0.028947 0.020562 0.042594 -0.11163 -0.1455 0.25535 0.0034632 
-0.036818 0.055254 0.038812 -0.003771 -0.18759 0.16344 0.090931 -0.03057 
-0.02235 0.049664 0.031578 -0.012485 -0.19548 0.13171 -0.12462 -0.051122 
0.0065871 0.070215 -0.00081153 0.016781 -0.13727 0.18465 -0.2157 0.072188 
0.055911 0.038648 0.018589 0.0227 0.00017495 0.58763 -0.3206 0.25206 
0.11411 0.046375 0.032729 0.053938 0.16377 0.94046 -0.279 0.23249 
0.12365 0.090438 0.037168 0.065118 0.22657 0.95493 -0.054575 0.16853 
0.098659 0.076299 0.062323 0.040292 0.30483 0.3392 0.13713 0.079916 
0.086492 0.058542 0.065283 0.058049 0.38671 -0.40099 0.24877 -0.0029489 
0.025659 0.081395 0.029441 0.056733 0.32128 -0.56853 0.28001 -0.083512 
-0.023007 0.035688 0.0062583 0.012999 0.12809 -0.44966 0.3341 -0.093376 
-0.0406 0.018754 0.027796 0.0051074 0.11165 -0.31632 0.20569 -0.010512 
-0.014622 0.029112 0.016123 0.032893 0.17265 -0.18874 -0.027611 0.050814 
0.011026 0.049992 0.033222 0.032071 0.059364 0.0056006 -0.098309 0.034209 
0.030592 0.047033 0.06331 0.04095 -0.17016 0.17528 0.049992 0.011026 
0.0037921 0.045882 0.046211 0.0093821 -0.27916 0.15357 0.2121 -0.013471 
0.0037921 0.08156 0.018096 -0.0070593 -0.20123 0.030263 0.2343 -0.0070593 
0.01563 0.035853 0.016288 0.04095 -0.077757 -0.0077169 0.043909 -0.03205 
0.045882 0.026481 0.027303 0.035195 -0.0013048 0.0067515 -0.27094 -0.03205 
0.048019 0.016616 0.022371 0.022042 0.025495 0.053774 -0.30399 0.013164 
0.031085 0.020562 0.041772 0.058213 0.075148 0.10211 -0.087786 0.039141 
0.025988 0.040128 0.066927 0.050157 0.079587 0.13746 0.073832 0.08156 
0.011684 0.048019 0.049499 0.041936 0.064296 0.12579 0.20569 0.058377 
0.013657 0.0592 0.0090533 0.034537 0.043745 0.13746 0.33772 0.024179 
-0.0077169 0.051801 0.023357 0.013986 0.0014903 0.056733 0.43604 0.034209 
0.004943 0.028783 0.017932 -0.0078813 -0.06707 -0.13399 0.34331 0.020891 
-0.0080457 0.016452 0.00033937 0.020398 0.024015 -0.14089 0.24795 0.024179 
-0.00097594 0.0056006 0.024344 0.0072447 0.1641 0.015959 0.38342 0.045224 
0.023028 0.014479 0.049335 0.012013 0.22805 0.15176 0.31799 0.03799 
0.075312 0.067256 0.025166 0.062323 0.20355 0.049664 0.066598 0.10376 
0.088958 0.10244 0.022535 0.040456 0.13549 -0.011827 -0.14139 0.13631 
0.092082 0.067091 0.031907 0.05065 0.058871 0.060679 -0.29445 0.086985 
0.08304 0.069064 0.035031 0.037004 0.0324 0.11214 -0.31418 0.025824 
0.050321 0.073668 0.053938 0.022206 0.048019 0.041443 -0.24809 0.016288 
0.040785 0.047197 0.045553 0.036017 0.10178 -0.015444 -0.10045 -0.026131 
0.046211 0.053116 0.049664 0.03092 0.17692 0.051472 0.074326 -0.018568 
0.041936 0.071366 0.0227 0.032564 0.14223 0.11132 0.14946 0.0034632 
0.044896 0.037332 0.033387 0.05624 0.016123 0.047855 0.08978 -0.0072237 
0.032236 0.012506 0.01563 0.034537 -0.040271 0.020727 0.064461 0.016123 
0.012506 0.005765 0.0098754 0.018096 -0.015609 -0.0011404 0.019576 0.029769 
-0.0013048 0.0227 0.013492 0.050157 0.0092177 -0.030899 0.025495 0.014643 
-0.021528 0.012342 0.050486 0.041278 0.004943 -0.082854 0.030756 -0.053588 
-0.01676 0.029769 0.038812 0.011684 -0.10143 -0.10489 0.05772 -0.038133 
0.019083 0.053609 0.014643 0.02829 -0.16259 -0.13629 0.07038 -0.01528 
0.029934 0.044731 0.010369 -0.010019 -0.14582 -0.10883 0.067749 0.027796 
0.060844 0.049992 0.010369 0.0018191 -0.17756 -0.1136 -0.033859 0.019905 
0.054925 0.070544 0.016452 0.0092177 -0.19975 -0.19663 -0.16095 0.0074092 
0.070708 0.039634 0.038319 -0.0024557 -0.20912 -0.1649 -0.13218 0.093726 
0.086985 0.019247 0.04917 0.0082312 -0.11475 -0.022185 -0.018568 0.12201 
0.062817 0.043251 0.036346 0.053938 0.034209 0.09981 0.043251 0.10425 
0.034373 0.073175 0.037661 0.058871 0.20717 0.065776 0.031414 0.042758 
0.041936 0.061008 0.050157 0.082217 0.33476 -0.029584 0.035524 0.01415 
0.032071 0.053938 0.028947 0.043909 0.29596 -0.0024557 0.016781 0.0098754 
0.032729 0.082546 0.032729 -0.0042642 0.21983 0.12118 0.082546 0.023686 
0.020891 0.072846 0.055089 0.025824 0.25798 0.10063 0.094384 0.056733 
-0.017911 0.05476 0.036346 0.014972 0.35268 0.10869 0.15653 0.076627 
-0.043724 0.025495 -0.0090322 0.021549 0.35169 0.038155 0.18662 0.061666 
-0.078579 -0.021528 -0.014458 0.038155 0.075641 -0.053424 0.048677 -0.047012 
-0.070359 -0.00031829 -0.010676 0.0088889 -0.27752 -0.12264 -0.19679 -0.14007 
-0.009361 0.039141 0.012835 0.0060938 -0.45278 -0.11146 -0.33572 -0.14056 
0.04506 0.063968 0.049664 0.042594 -0.43125 -0.10784 -0.33506 -0.023007 
0.080902 0.054432 0.078765 0.031085 -0.29906 -0.033201 -0.25368 0.11625 
0.12365 0.07038 0.058213 0.04095 -0.1016 0.24252 -0.15076 0.13647 
0.13302 0.096028 0.064296 0.071366 0.062159 0.30335 0.13056 0.10951 
0.11444 0.063803 0.041278 0.04095 0.11592 0.12085 0.41943 0.034044 
0.080573 0.040785 0.029934 0.014479 0.07597 -0.034023 0.56855 0.070215 
0.0324 0.031907 0.027961 0.0052718 0.055747 -0.061151 0.49966 0.048348 
-0.019555 0.0070803 0.038155 0.022864 0.069886 -0.059014 0.36731 0.057062 
-0.013965 -0.0087034 0.05772 0.024508 -0.0072237 -0.066413 0.072188 0.024837 
-0.027447 0.052952 0.011191 0.007738 -0.073811 -0.030735 -0.44752 -0.02498 
0.00017495 0.069886 -0.0064016 0.00083261 -0.074633 -0.028762 -0.7775 -0.0096899 
0.017932 0.011848 0.0060938 0.0088889 -0.042737 0.0016547 -0.42155 -0.02942 
0.0069159 -0.0060728 0.021549 -0.029584 0.021878 0.0060938 0.080902 -0.033859 
0.0085601 0.039963 0.044238 -0.0004827 0.10063 0.020233 0.35136 -0.059178 
0.034373 0.06331 0.090767 0.070544 0.24482 0.01415 0.28099 0.009711 
0.073668 0.066269 0.074983 0.08304 0.28247 -0.028762 -0.060494 0.09126 
0.067256 0.067091 0.055254 0.072517 0.1807 0.05065 -0.21636 0.14091 
0.055089 0.048184 0.040456 0.059528 0.032236 0.12546 -0.109 0.11214 
0.040292 0.023851 0.020069 -0.010348 -0.00081153 0.20323 0.10425 0.063968 
0.031907 -0.0090322 0.01004 0.022206 0.094548 0.25929 0.19879 0.067091 
0.036017 0.044567 0.048513 0.079916 0.2514 0.26833 0.10704 0.0592 
0.042429 0.053609 0.055254 0.050814 0.22887 0.096028 -0.11015 0.052459 
0.030756 0.056898 0.037497 0.042265 0.0021479 -0.10949 -0.15816 0.01711 
0.038155 0.068078 0.034044 0.025001 -0.12774 -0.18874 0.034373 -0.015116 
0.043909 0.033222 0.010533 -0.0036066 -0.15322 -0.1575 0.38375 0.026481 
0.072517 0.043251 0.029276 0.026317 -0.098638 0.14535 0.69039 0.020562 
0.037826 0.056733 0.046046 0.016945 -0.022021 0.46333 0.84165 0.047033 
0.032564 0.095864 0.018754 -0.015609 -0.036489 0.39608 0.77243 0.017274 
-0.0054151 0.032564 0.037332 -0.0014692 -0.11196 0.027632 0.18991 -0.029091 
0.00033937 0.022535 0.0064227 0.00083261 -0.10702 -0.2499 -0.84902 -0.11442 
-0.004593 0.043087 0.025824 0.024015 -0.050793 -0.31287 -1.3104 -0.1187 
0.03947 0.035524 0.0421 0.039799 -0.017746 -0.16243 -0.8043 0.005765 
0.069722 0.0324 0.026152 0.042758 1.0539e-005 -0.040928 -0.29018 0.14223 
0.077943 0.075148 0.037332 0.0019835 0.038977 0.0019835 -0.08532 0.22871 
0.070708 0.051472 0.056076 0.035853 0.086821 0.047033 -0.05178 0.21293 
0.035853 0.040292 0.042594 0.029276 0.12513 0.30187 0.10951 0.13598 
-0.0077169 0.054925 0.023028 0.039305 0.15571 0.39658 0.35219 0.054267 
-0.026624 0.030427 0.0044497 0.0592 0.12743 0.15587 0.41861 -0.018733 
-0.009361 0.048184 0.014643 0.020891 0.073832 -0.053424 0.30089 -0.049149 
0.0039565 0.027632 0.034044 0.029112 -0.020212 -0.028597 0.18087 -0.046025 
0.029441 0.071202 0.050814 0.054925 -0.037805 0.019576 0.047197 0.016781 
0.035853 0.058542 0.067091 0.044073 -0.054246 0.020398 -0.02646 0.00066819 
0.013164 0.069886 0.023686 0.035524 -0.037147 -0.035174 -0.028269 -0.019061 
0.033715 0.078272 0.035031 0.044238 0.0072447 -0.089595 -0.018733 -0.050958 
0.045553 0.046868 0.022864 0.015301 -0.0050863 -0.053917 0.015794 -0.022514 
0.016781 0.024508 0.01004 -0.0082102 -0.098967 -0.0072237 0.094548 -0.0011404 
0.014479 0.0227 0.0056006 -0.024487 -0.2106 0.056569 0.20471 -0.0049219 
0.02533 0.037497 0.026152 -0.03205 -0.17525 0.13713 0.18152 0.055254 
0.037497 0.012835 0.028125 0.0036276 -0.044874 0.18942 -0.043559 0.038648 
0.032729 0.024015 0.018425 0.0092177 0.073339 0.15818 -0.15487 0.088465 
0.020069 0.044731 0.011848 0.0039565 0.12809 -0.082854 -0.11491 0.083697 
0.019905 0.042758 0.01004 0.03388 0.095699 -0.37551 0.019411 0.07597 
0.022042 0.050157 0.018589 0.033058 0.10885 -0.43634 0.19385 0.057555 
0.05213 0.085012 0.039634 0.031742 0.2006 -0.21291 0.27195 -0.0055795 
0.042594 0.048348 0.061337 0.076627 0.30286 0.077285 0.19599 0.0019835 
0.032893 0.048348 0.036346 0.058871 0.28149 0.26998 0.0085601 -0.031064 
0.029769 0.041114 0.029441 0.054925 0.24071 0.38984 -0.25187 -0.025309 
0.052459 0.05213 0.035195 0.078107 0.31092 0.5605 -0.3663 -0.011005 
0.072517 0.049992 0.03092 0.03092 0.21046 0.37126 -0.23543 0.031907 
0.087643 0.040621 0.047033 0.044731 -0.07414 -0.088773 -0.0087034 0.031578 
0.070544 0.091589 0.06742 0.055418 -0.30448 -0.29248 0.068242 0.046375 
0.038319 0.047691 0.055582 0.025824 -0.36959 -0.19926 0.10935 0.10819 
0.020069 0.0093821 -0.0068948 0.0079024 -0.27637 0.11905 0.17314 0.097179 
0.0042853 0.016945 -0.0098543 0.014315 -0.194 0.20043 0.15752 0.079094 
-0.030406 0.013821 -0.0049219 -0.0088678 -0.12018 -0.42862 0.068571 0.0054362 
-0.018239 0.0227 0.013328 -0.008539 -0.0075525 -0.90443 0.061666 -0.0083746 
0.012013 0.079916 0.047526 -0.0138 0.11674 -0.81006 0.16097 0.0047785 
0.049992 0.073997 0.059364 0.035031 0.21885 -0.12675 0.28149 0.0062583 
0.055254 0.016781 0.03799 0.026152 0.30352 0.60571 0.22608 0.031085 
0.040128 0.02829 0.015465 0.030756 0.29201 0.70469 -0.12626 -0.01528 
0.047033 0.049828 0.043251 0.05772 0.20355 0.7088 -0.28722 0.011848 
0.052787 0.055582 0.039634 0.069064 0.20783 0.85825 -0.033037 0.031085 
0.065612 0.066105 0.034373 0.038319 0.25798 0.73264 0.17873 0.031085 
0.036182 0.048019 0.030756 0.025824 0.027632 -0.049478 0.13302 0.018754 
0.027632 0.036346 0.0056006 0.02122 -0.23609 -0.67721 0.057391 0.013164 
0.035688 0.01826 -0.010676 -0.025309 -0.27045 -0.59747 0.066269 0.03388 
0.052294 0.054596 0.010697 0.0019835 -0.13563 -0.15947 0.12513 0.046375 
0.051308 0.09981 0.028619 0.059857 0.066598 0.2634 0.082382 0.08304 
0.045553 0.063803 0.021384 0.054925 0.20339 0.36912 -0.035503 0.045553 
0.034373 0.031578 0.031742 0.055747 0.28938 0.016288 -0.14484 0.022206 
0.018096 0.023028 0.023686 0.056404 0.28083 -0.35299 -0.10324 0.0085601 
-0.021856 -0.0050863 0.027139 0.037661 0.18695 -0.39442 0.12908 0.030427 
0.011848 0.023357 0.041607 0.045718 0.21161 -0.081703 0.48585 0.045718 
0.038977 0.089616 0.041607 0.090109 0.24022 0.35712 0.57809 0.060679 
0.042594 0.072681 0.058213 0.04917 0.1128 0.44393 0.41137 0.071037 
0.048841 0.042265 0.035688 0.034209 -0.058521 0.25107 0.097672 0.073504 
0.035853 0.047691 0.029276 0.027468 -0.18923 0.060515 -0.23905 0.041936 
0.031578 0.043909 0.034209 0.00017495 -0.2693 -0.0771 -0.62509 -0.019226 
-0.016266 0.012506 0.0064227 -0.017911 -0.3423 -0.17476 -0.79411 -0.047834 
-0.032543 -0.0021268 -0.017417 -0.045368 -0.24447 -0.18742 -0.6292 -0.023829 
-0.015116 0.038977 -0.00064712 -0.029091 -0.023994 -0.03912 -0.29577 0.026974 
0.035524 0.037004 0.035853 0.036675 0.13615 0.077614 -0.0021268 0.045553 
0.056076 0.055747 0.046868 0.066598 0.19106 0.031742 0.30418 0.062817 
0.059528 0.089616 0.070051 0.097508 0.17774 0.096028 0.50969 0.069722 
0.040785 0.071859 0.077778 0.084355 0.15472 0.20109 0.57464 0.028619 
0.041443 0.04917 0.038977 0.038812 0.18136 0.20799 0.42502 0.038483 
0.044402 0.031742 0.018589 0.017767 0.14815 0.074819 0.14174 0.074161 
0.058542 0.050157 0.0227 0.040292 0.018425 0.031249 0.07038 0.10688 
0.043251 0.039634 -0.0029489 -0.011992 -0.12429 -0.037805 0.12036 0.086985 
0.04917 0.024673 0.033222 0.019576 -0.22836 -0.066577 0.069229 -0.041751 
0.06479 0.058049 0.0689 0.053609 -0.22293 -0.076442 -0.034188 -0.11574 
0.046704 0.031414 0.063968 0.031085 -0.17114 -0.11903 -0.081539 -0.10669 
0.050814 0.0054362 0.027961 0.030756 -0.14467 -0.19663 -0.07266 0.011355 
0.054596 0.033715 0.027468 0.041607 -0.051451 -0.16342 -0.11327 0.10606 
0.035688 0.027961 0.019083 0.0090533 -0.011334 -0.089759 -0.25187 0.057062 
0.021384 0.020069 0.0056006 -0.0064016 0.0044497 -0.022679 -0.29232 0.037661 
0.023357 0.063474 0.061501 0.0098754 0.018096 -0.054575 -0.25976 -0.05737 
0.023028 0.075805 0.056404 0.0021479 0.15012 -0.12988 -0.17838 -0.014293 
0.01974 0.033715 0.036839 0.051965 0.17889 -0.17904 -0.15552 0.0023123 
1.0539e-005 0.014479 0.022371 0.032236 0.18366 -0.16309 -0.0021268 0.010204 
-0.019719 0.023851 0.01152 0.031578 0.13713 -0.042901 0.1539 0.015301 
-0.02087 0.034702 0.022371 0.073668 -0.050793 0.14108 0.24038 0.032564 
-0.0036066 0.036839 0.034044 0.024673 -0.19252 0.46037 0.26422 0.062323 
0.034044 0.05476 0.049664 0.03092 -0.17065 0.56823 0.21046 0.083862 
0.080244 0.091918 0.069229 0.060844 -0.1501 0.24236 0.16377 0.099645 
0.095042 0.099974 0.077449 0.030098 0.004943 -0.1524 0.15193 0.072353 
0.073997 0.074983 0.052459 0.056404 0.2098 -0.34608 0.19994 0.054925 
0.051636 0.10458 0.051965 0.072846 0.26718 -0.37173 0.073339 0.038977 
0.035524 0.056569 0.038483 0.023028 0.13039 -0.33852 -0.0082102 0.0014903 
0.036839 0.030427 0.014808 -0.0059084 -0.018897 -0.24677 -0.076442 -0.027282 
-0.020706 0.0090533 0.019411 0.0047785 -0.12067 -0.030735 -0.15947 -0.071016 
-0.02235 -0.020377 0.011026 -0.0042642 -0.1205 0.10096 -0.089431 -0.072825 
-0.0040998 -0.010183 -0.017911 -0.0080457 -0.084169 0.088958 0.1442 -0.028597 
-0.010676 0.05065 0.013986 0.010862 -0.022679 0.040785 0.031907 0.025659 
-0.019226 0.064132 0.0031344 0.01004 0.027632 0.01826 -0.3765 0.042429 
0.0095465 0.053116 0.020398 0.04095 0.050814 0.036839 -0.48238 0.0062583 
0.074161 0.054103 0.043251 0.071531 0.037332 0.098823 -0.19466 0.090438 
0.081724 0.089123 0.084355 0.068242 0.016781 0.16048 0.082875 0.15078 
0.082053 0.066269 0.085177 0.077778 0.019576 0.1927 0.20816 0.13549 
0.02681 0.050979 0.033222 0.049828 0.10195 0.16985 0.23331 0.078929 
0.0024767 0.047197 0.0075736 0.027632 0.23989 0.12168 0.18235 0.03651 
0.0056006 0.037497 0.012177 0.03388 0.25452 0.043745 0.14009 -0.022514 
0.023522 0.033551 0.014972 0.03092 0.13549 0.022864 0.090603 -0.021692 
0.03092 0.044073 0.028783 0.011355 -0.049642 -0.023172 0.02122 -0.0095255 
0.05624 0.049335 0.029769 0.047197 -0.17065 -0.10768 0.0031344 0.0067515 
0.059528 -0.00064712 0.00297 -0.016595 -0.18134 -0.11031 0.035524 0.01826 
0.038483 -0.020706 0.0060938 0.021384 -0.076277 -0.014293 0.034537 0.017767 
-0.021363 0.032893 0.013657 0.049664 0.0064227 0.089123 0.048841 0.0042853 
-0.029584 0.054925 0.018918 0.023193 0.046211 0.11115 0.051636 -0.0087034 
-0.023336 0.048677 0.032564 0.01267 0.069558 0.11 0.11658 -0.0021268 
0.036839 0.07301 0.043251 0.038648 0.10129 0.24301 0.12135 0.018754 
0.056898 0.061501 0.04358 0.0072447 0.10704 0.26669 0.024508 0.0070803 
0.068078 0.043745 0.013986 0.017932 0.078107 0.058706 -0.1016 0.027632 
0.090603 0.047691 1.0539e-005 0.042758 0.077943 -0.074304 -0.18134 0.044731 
0.089616 0.061337 0.023522 0.012999 0.063968 0.01974 -0.063289 0.10162 
0.07597 0.056569 0.03651 0.059693 0.10228 0.094548 0.1031 0.084026 
0.073504 0.051143 0.055254 0.03536 0.040456 0.11329 0.29661 0.048348 
0.063474 0.059528 0.097837 0.0075736 -0.025309 0.047197 0.28839 0.013986 
0.053116 0.056076 0.040621 0.041114 -0.073976 -0.017417 0.022864 -0.024158 
0.042265 0.014479 0.026481 0.034866 -0.041915 -0.069536 -0.21488 -0.031557 
0.015137 0.05065 0.016616 -0.0024557 0.03947 -0.050136 -0.22392 -0.068714 
0.0227 0.041278 0.030263 0.060022 0.029605 0.013821 -0.0077169 -0.058521 
0.034044 0.032729 0.057555 0.041936 -0.17953 0.018425 0.15653 -0.0072237 
0.047197 0.024179 0.05065 0.030098 -0.29955 0.0088889 0.1733 0.084519 
0.03536 0.030427 0.043251 0.053281 -0.23132 0.084355 0.13286 0.10145 
0.0083956 -0.0055795 -0.0087034 0.018589 -0.074304 0.19813 0.016945 0.14519 
-0.0032777 -0.031392 -0.00015387 0.022206 0.13417 0.12184 -0.19334 0.16969 
0.0079024 0.021878 0.00099702 0.02829 0.29316 -0.056877 -0.30498 0.17741 
0.037332 0.023686 0.015137 -0.0054151 0.29809 -0.15898 -0.31287 0.1197 
0.033715 0.051636 0.035853 -0.021199 0.32933 -0.087293 -0.15454 0.033715 
0.0324 0.05772 0.052952 0.046375 0.46991 0.14469 0.11066 -0.0070593 
0.067913 0.084355 0.070544 0.08978 0.67049 0.28905 0.45609 -0.017417 
0.056898 0.056898 0.040292 0.10754 0.61081 0.30023 0.8571 -0.021528 
0.03651 0.050979 0.036839 0.090438 0.13302 0.24729 0.96857 -0.046683 
0.037004 0.055418 0.030756 0.030098 -0.29232 0.16015 0.67921 -0.042737 
0.01415 0.040621 0.028454 0.0059294 -0.44456 -0.020212 0.057884 -0.044217 
0.0021479 0.036675 0.047033 -0.016595 -0.48517 -0.18824 -0.39491 -0.053588 
-0.0060728 0.05065 0.05772 -0.022185 -0.48205 -0.25828 -0.71552 -0.026624 
0.027796 0.045389 0.040456 0.010533 -0.35792 -0.32092 -0.83176 0.030592 
0.033551 0.042429 0.021878 -0.0054151 -0.1501 -0.25056 -0.64022 0.15719 
0.050979 0.039799 0.016616 0.013492 0.043251 -0.14089 -0.20896 0.23151 
0.037332 0.058049 0.0024767 0.046868 0.1807 0.11559 0.11609 0.20191 
0.024508 0.047855 0.015959 0.017932 0.27738 0.34281 0.21654 0.14272 
0.034702 0.051636 0.072681 0.013492 0.33048 0.30187 0.1493 0.057062 
0.03651 0.065776 0.058377 0.048184 0.30056 0.10326 0.1391 -0.0032777 
0.048513 0.032564 0.01974 0.018589 0.2657 0.069064 0.28527 -0.046683 
0.030427 0.031907 0.020398 0.048677 0.22328 0.10639 0.47336 -0.06148 
0.027796 0.0689 0.02681 0.069886 0.15127 0.061008 0.46349 -0.022514 
0.039799 0.053445 0.042429 0.036017 0.029441 -0.016595 0.17412 0.031742 
0.020233 0.048841 0.042923 0.038155 -0.041915 -0.056219 -0.09239 0.043416 
0.016945 0.038155 0.064625 0.03651 -0.077264 -0.15388 -0.19811 0.0082312 
-0.0024557 0.055747 0.045389 0.0037921 -0.077757 -0.22063 -0.16983 0.0080668 
0.030756 0.023193 0.014808 0.022042 -0.040764 -0.2014 -0.023501 0.0080668 
0.042594 0.036017 0.01563 0.042758 -0.043559 -0.15668 0.059857 0.017438 
0.063145 0.06479 0.014315 0.0088889 -0.02235 -0.047505 0.031578 0.037497 
0.059364 0.039634 0.020562 0.048184 0.041772 0.10803 0.054432 0.0037921 
0.089616 0.025659 0.04506 0.042923 0.090603 0.25206 -0.0022913 0.034373 
0.04095 0.062817 0.056733 0.036675 0.051308 0.52745 -0.089431 -0.0013048 
0.029769 0.06183 0.011848 0.0087245 -0.016924 0.35317 -0.21356 0.042429 
0.013821 0.01974 0.033551 0.014315 -0.047834 -0.056548 -0.1233 0.0064227 
0.024344 0.048184 0.049335 0.021713 0.022042 -0.23576 0.058213 0.058706 
0.02829 0.07038 0.048841 0.038812 0.14568 -0.20288 0.095864 0.056898 
0.039634 0.069064 0.049992 0.027468 0.12069 -0.1016 -0.058356 0.049006 
0.025988 0.043909 0.055089 0.029441 0.00099702 -0.08384 -0.078744 0.075148 
0.0051074 0.04095 0.015465 0.072681 -0.07414 -0.07266 0.10688 0.034537 
-0.02942 0.00099702 -0.030899 0.0056006 -0.082196 -0.0062372 0.35646 -0.017253 
1.0539e-005 -0.0083746 -0.029913 0.010204 -0.040928 -0.0088678 0.23742 -0.0070593 
0.01826 0.058542 0.011684 0.0324 -0.082032 -0.077757 -0.12938 0.027303 
0.067585 0.080738 0.024015 0.016452 -0.17443 -0.012814 -0.17114 0.054432 
0.087314 0.066927 0.04654 0.034702 -0.14023 0.12316 -0.066906 0.07301 
0.085999 0.065118 0.060515 0.052294 -0.044546 0.26587 0.024673 0.043745 
0.064625 0.068242 0.025988 0.03388 -0.0019624 0.29793 0.10819 -0.020706 
0.028454 0.041443 0.022042 0.0227 -0.014622 0.13417 0.14206 -0.025309 
-0.037476 0.04506 0.011191 0.0054362 -0.021199 -0.086471 0.15061 -0.01528 
-0.05885 0.033387 0.00050378 -0.015444 -0.016266 -0.29561 0.070873 -0.028104 
-0.043724 0.012013 0.015301 0.0042853 0.044402 -0.20189 -0.028104 -0.046683 
-0.013143 0.019905 0.035853 0.024673 0.14469 0.062652 -0.04882 -0.023994 
0.031578 0.059035 0.065447 0.049006 0.16097 0.18432 -0.041422 0.030427 
0.062488 0.084848 0.056404 0.10047 0.12529 0.11247 -0.051615 0.033058 
0.054432 0.081067 0.05772 0.075476 0.0034632 0.032729 -0.023665 0.044073 
0.055582 0.051636 0.034209 0.018754 -0.050793 -0.093376 -0.023829 0.041443 
0.028454 0.032236 0.012506 0.030756 -0.027447 -0.089759 -0.032379 0.040785 
0.015794 0.0039565 0.032071 0.0046141 -0.009361 -0.064933 0.039963 0.037661 
0.012013 0.029441 0.0421 0.0074092 0.0056006 0.091096 0.11691 0.035195 
0.014643 0.058049 0.036839 0.049335 -0.044874 0.20635 0.16804 0.056733 
0.022206 0.043251 0.018918 0.0093821 -0.12034 0.15061 0.15686 0.034044 
0.030263 0.038319 0.00033937 0.0028056 -0.15158 0.042758 0.098823 0.053609 
-0.0029489 0.038155 -0.0036066 0.017603 -0.048163 0.033715 -0.02794 0.037497 
0.00297 0.037826 0.00083261 -0.0096899 0.052787 -0.14517 -0.12018 0.039305 
0.030592 0.046704 0.041936 0.028125 0.098166 -0.31616 -0.066906 0.049006 
0.036182 0.036839 0.05476 0.048841 0.086492 -0.29774 0.022371 0.071695 
0.030592 0.058377 0.021384 -0.0013048 0.13154 -0.12626 0.036675 0.07301 
0.044402 0.034866 0.017767 0.018425 0.24663 0.06479 0.20405 0.06035 
0.055582 0.044567 0.028947 0.048677 0.34298 0.29809 0.48996 0.1026 
0.079258 0.076627 0.023686 0.041936 0.42124 0.74366 0.47714 0.031742 
0.046375 0.061995 0.045389 0.065612 0.39411 0.73659 0.14568 -0.033201 
0.039141 0.029112 0.042429 0.012342 0.10787 0.22476 -0.16473 -0.088773 
-0.0080457 0.00099702 0.052294 0.017274 -0.11261 0.043251 -0.46758 -0.067892 
-0.023994 0.0054362 1.0539e-005 0.031414 -0.17246 0.10918 -0.71075 -0.0026201 
-0.00097594 0.01152 -0.0090322 0.0090533 -0.14106 -0.014293 -0.59846 0.025495 
0.045389 0.044238 0.013492 0.029605 -0.10242 -0.21652 -0.046847 0.017767 
0.058377 0.070708 0.016945 0.051472 -0.037805 -0.32421 0.34314 -0.0057439 
0.10244 0.05624 0.045553 0.028125 0.00033937 -0.31172 0.37159 0.1105 
0.10573 0.06035 0.065447 0.0085601 0.021549 -0.23411 0.22115 0.10852 
0.083533 0.079258 0.063639 0.028783 0.009711 -0.062302 0.15505 0.053281 
0.065447 0.053609 0.019083 0.0016547 -0.0021268 0.00017495 0.16196 0.022042 
0.029112 0.051965 -0.0031133 -0.0073881 0.0069159 0.0079024 0.076134 -0.023829 
0.0070803 0.048513 0.015794 0.0062583 0.0036276 0.062488 0.031414 -0.00081153 
0.0095465 0.050814 0.028619 0.0059294 -0.015773 0.17676 -0.00081153 0.046211 
-0.035338 0.025495 0.018425 0.010204 -0.067728 0.099481 0.017932 0.078929 
-0.036489 -0.0011404 0.044731 0.048019 -0.11409 0.00083261 0.016452 0.017274 
-0.0091966 0.05213 0.059035 0.043416 -0.048656 -0.17098 -0.0011404 0.013986 
-0.010019 0.055911 0.059693 0.053938 0.074326 -0.31205 -0.034023 0.016123 
0.013492 0.052787 0.059035 0.053445 0.095371 -0.21159 -0.047998 0.01267 
0.027961 0.062488 0.037497 0.014315 0.085012 0.013657 -0.024487 0.025166 
0.051636 0.040456 0.022042 0.014643 0.14486 0.2052 0.038812 0.018425 
0.052294 0.058706 0.051965 0.024508 0.21243 0.59404 0.084684 0.070708 
0.070051 0.07038 0.079916 0.038812 0.20717 0.98058 0.045553 0.058706 
0.08008 0.076792 0.050979 0.075476 0.244 0.66737 0.012342 0.055254 
0.044567 0.042758 0.020069 0.028125 0.20898 -0.035667 0.086163 0.0031344 
0.034044 -0.0004827 0.0018191 -0.0021268 0.020233 -0.3788 0.14174 -0.0019624 
0.021056 0.023193 0.0051074 0.0227 -0.10637 -0.37979 0.18596 0.01563 
0.040785 0.032236 0.025824 -0.0057439 -0.23346 -0.32076 0.24564 -0.011498 
0.014808 0.023686 0.029112 -0.016102 -0.28623 -0.29002 0.12875 0.0047785 
-0.0052507 0.041936 0.012506 0.01826 -0.22852 -0.20288 -0.18331 -0.0042642 
-0.00081153 0.038812 0.01415 0.013986 -0.15273 -0.084663 -0.6389 0.064461 
0.0095465 0.037497 0.03947 0.031085 -0.089595 -0.0022913 -0.7068 0.14305 
0.013986 0.038319 0.047362 0.064296 0.062817 -0.12215 -0.37222 0.15094 
0.031578 0.053116 0.051143 0.079094 0.25173 -0.17147 0.11428 0.074654 
0.024015 0.042265 0.063803 0.076134 0.32144 -0.083676 0.44574 -0.023172 
0.034044 0.029112 0.061666 0.055418 0.19484 -0.010019 0.49062 -0.0096899 
0.044073 0.064132 0.0052718 0.0041209 0.12299 0.13664 0.28971 0.0087245 
0.060844 0.062323 0.0059294 0.014315 0.15472 0.28264 -0.037476 0.018589 
0.062981 0.040785 0.012999 0.034209 0.18103 0.45248 -0.14319 -0.0011404 
0.044238 0.033058 0.011848 0.042265 0.06035 0.43357 -0.083676 -0.010841 
0.029276 0.020233 0.026646 0.048019 -0.0031133 0.12529 0.032236 0.059528 
0.042594 0.024508 0.057884 0.054267 -0.06707 -0.20896 0.293 0.094384 
0.048184 0.034044 0.074819 0.065447 -0.22162 -0.31303 0.49177 0.087808 
0.076956 0.09422 0.061337 0.039141 -0.25615 -0.21291 0.46563 0.092082 
0.046375 0.074161 0.040456 -0.016924 -0.21356 -0.109 0.33015 0.066269 
0.028125 0.055911 0.018096 -0.021528 -0.13103 -0.011992 0.21013 0.046704 
0.048184 0.073339 0.0092177 0.038483 0.0098754 0.074161 0.061666 0.061995 
0.039963 0.0028056 0.026974 0.035031 0.10178 0.037004 0.0059294 0.10622 
0.0080668 -0.041915 0.037332 0.035853 0.15719 -0.079401 -0.084663 0.085506 
-0.024487 -0.046519 0.018918 0.051965 0.19007 -0.080881 -0.35447 0.032893 
-0.023007 -0.037805 -0.0055795 0.029934 0.23101 -0.034188 -0.67885 -0.038133 
-0.0070593 0.0016547 0.019411 1.0539e-005 0.25946 0.070873 -0.62706 -0.062138 
0.0052718 0.056404 0.018918 0.043909 0.2006 0.073175 -0.16654 -0.059672 
0.044896 0.083533 0.024344 0.022206 0.025495 0.16853 0.26324 0.0021479 
0.083862 0.056733 0.030756 -0.00097594 -0.044874 0.21868 0.36337 0.057884 
0.093233 0.056076 0.036346 0.020562 -0.10324 0.087972 0.074654 0.085341 
0.062981 0.096521 0.038155 0.029276 -0.069372 -0.13711 -0.035503 0.070215 
0.059528 0.079751 0.041278 0.051801 -0.050136 -0.22557 0.025824 -0.020212 
0.054103 0.072188 0.031578 0.026317 0.040292 -0.14122 0.093562 -0.049642 
0.036675 0.074161 0.041114 0.033058 0.0095465 -0.059672 0.18235 0.0013258 
0.040621 0.038977 0.024837 0.031907 -0.035996 0.017438 0.19731 0.091096 
0.022371 0.0062583 0.035688 0.0092177 0.028619 -0.010841 0.21194 0.1391 
0.00099702 0.014808 0.040128 0.02681 0.10293 -0.021528 0.20175 0.12135 
-0.014458 0.040785 0.017274 0.054596 0.069558 0.05065 0.1225 0.080244 
0.00033937 0.040621 0.023193 0.0059294 0.014479 0.08156 0.057227 0.041772 
0.028125 0.0421 0.022206 0.017438 -0.078744 0.26981 0.010697 0.016616 
0.047691 0.065776 0.048184 0.062323 -0.12511 0.51611 -0.043724 -0.030406 
0.040456 0.059693 0.054267 0.022206 -0.071509 0.32917 -0.090417 -0.031228 
0.031907 0.044896 0.057884 0.015465 0.020398 -0.058356 -0.084827 -0.037805 
0.0044497 0.054925 0.03536 0.028947 0.068078 -0.1866 -0.049807 -0.019061 
-0.019884 0.030263 0.016616 0.020398 0.13549 -0.1746 -0.0091966 0.010697 
-0.0406 0.013328 0.00017495 0.021878 0.084848 -0.15092 -0.033365 -0.028762 
-0.013143 0.023357 -0.00064712 0.036675 0.014808 -0.145 -0.061645 -0.0019624 
0.025988 0.070873 0.023851 0.02122 0.056404 -0.08269 -0.014293 0.018918 
0.041278 0.067749 0.062323 0.032071 0.0051074 0.073504 0.069064 0.048348 
0.051308 0.051636 0.063803 0.045553 -0.090088 0.24729 0.11592 0.042594 
0.065776 0.078929 0.043251 0.012342 -0.10489 0.29612 0.12562 0.049499 
0.056569 0.065118 0.01974 0.036675 -0.047505 0.19501 0.090767 0.028619 
0.041607 0.034702 0.0080668 0.023851 0.043251 0.032729 0.0075736 0.01415 
0.0032988 0.037004 -0.0042642 -0.024652 0.051143 -0.046025 -0.038462 -0.018239 
0.020069 0.048513 0.023028 0.0324 0.033222 -0.029913 -0.02942 -0.0068948 
0.031414 0.039305 0.058049 0.012342 -0.037311 -0.014129 0.067091 0.027961 
0.0095465 0.054267 0.044073 0.015794 -0.060987 -0.04882 -0.033037 -0.037805 
-0.0026201 0.078436 0.030756 0.060022 -0.060494 -0.088444 -0.21603 -0.047505 
0.075476 0.046046 0.026646 0.038319 -0.014458 -0.13925 -0.25516 0.0046141 
0.087972 0.038648 0.032236 -0.0073881 0.029769 -0.17443 -0.14122 0.033222 
0.06742 0.03651 0.012506 0.043087 0.049006 -0.19186 0.013492 0.040292 
0.004943 0.031249 0.032893 0.0069159 0.0059294 -0.089595 0.1807 0.011191 
0.0090533 0.052787 0.048513 0.004943 -0.029584 0.21539 0.2463 0.022535 
0.0092177 0.07301 0.029769 0.03388 -0.059836 0.38474 0.23792 0.018918 
0.010862 0.07038 0.025988 0.015959 -0.047505 0.35909 0.11395 0.020233 
0.042758 0.040456 0.023357 0.026974 0.077285 0.30286 -0.023172 0.0227 
0.039963 0.065118 0.042923 0.064625 0.12365 0.1636 -0.037476 0.018754 
0.053445 0.083533 0.051143 0.050321 0.13483 0.058706 0.03092 0.051965 
0.047855 0.065283 0.068078 0.045718 0.12447 0.08156 0.11132 0.020562 
0.058213 0.047362 0.068736 0.051965 0.20569 0.072188 0.1784 0.044731 
0.057062 0.066763 0.037168 0.01563 0.35317 -0.052766 0.16558 0.058049 
0.045882 0.049828 0.023193 0.054267 0.27984 -0.14122 0.14864 0.044402 
0.012835 0.024508 0.012835 0.01711 0.029605 -0.14911 0.068571 0.054267 
0.0042853 0.0098754 0.0018191 -0.019226 -0.12083 -0.044381 -0.027282 0.041114 
0.017603 0.024179 0.026974 0.037497 -0.075949 0.21638 -0.13991 0.011026 
0.039305 0.026974 0.060515 0.030427 -0.083183 0.256 -0.10702 -0.0064016 
0.051472 0.050979 0.061172 0.059528 -0.15207 0.061337 0.1345 0.036839 
0.053116 0.077121 0.03536 0.059035 -0.13925 -0.097651 0.31848 0.062159 
0.023193 0.028619 0.026646 0.0016547 -0.10341 -0.20649 0.28478 0.067913 
0.017767 0.023193 -0.00015387 -0.0039354 -0.16292 -0.21323 0.12365 0.02122 
-0.0013048 0.01152 -0.0040998 0.016452 -0.24382 -0.15898 -0.085978 0.020891 
-0.031228 0.013164 0.0075736 -0.029255 -0.22293 -0.20978 -0.38768 -0.011498 
-0.051287 0.010369 0.038319 -0.010512 -0.071345 -0.27785 -0.50951 -0.014293 
-0.029091 0.0093821 0.029934 0.018918 0.094713 -0.11261 -0.30794 0.043251 
0.030427 0.049664 0.033551 0.038155 0.29004 0.12381 -0.13021 0.048513 
0.07449 0.015465 0.025495 0.051308 0.43784 0.16031 -0.038298 0.060679 
0.065776 0.039141 0.042923 0.073504 0.49687 0.20553 0.089123 0.052459 
0.046046 0.073339 0.046046 0.044731 0.39411 0.30286 0.11198 0.06183 
0.066763 0.080244 0.069722 0.071202 0.37422 0.45412 0.22509 0.08304 
0.06331 0.081395 0.094055 0.10343 0.45741 0.66145 0.34265 0.10096 
0.035031 0.083862 0.034866 0.087314 0.28823 0.54258 0.31914 0.067256 
-0.0075525 0.047033 0.011191 0.064296 -0.069043 0.07301 0.1978 -0.0095255 
-0.028433 0.01826 0.0067515 0.020562 -0.28969 -0.29149 0.12908 -0.043724 
-0.037311 -0.0022913 0.017932 -0.0047575 -0.27308 -0.33293 0.063803 -0.023336 
-0.0036066 0.032893 0.033058 0.021878 -0.24941 -0.28377 -0.0077169 0.004943 
