-0.079895 0.13269 0.051965 -0.018404 0.0074092 0.016123 0.010533 -0.035338 
-0.13086 -0.031886 0.017767 0.018096 0.0080668 -0.009361 0.0016547 -0.073976 
-0.13464 -0.31681 -0.013965 -0.0027845 0.022042 -0.0072237 -0.00097594 -0.056219 
-0.1159 -0.61588 -0.0032777 0.017438 0.028454 0.018425 0.021056 -0.028597 
-0.085978 -0.55489 -0.029913 0.019905 0.0090533 0.013328 0.026481 0.038319 
0.014972 -0.27078 -0.039942 0.016781 0.018754 0.013657 0.029605 0.051143 
0.057555 -0.1381 -0.076935 0.025824 0.028783 0.035853 0.024015 0.080244 
0.069558 -0.16703 -0.062467 0.032236 0.033551 0.0083956 0.053938 0.053938 
0.027632 -0.30054 -0.013471 0.0032988 0.0037921 0.0034632 0.0227 0.037168 
0.055089 -0.16111 0.037661 0.038977 0.031085 0.044567 0.01415 0.037332 
0.099645 0.11165 0.0786 0.030756 -0.01117 0.016288 0.032893 0.056404 
0.15407 0.23512 0.049499 0.026481 -0.0047575 0.016452 0.032564 0.044238 
0.1465 0.21753 0.020891 0.00033937 -0.004593 0.034537 -0.004593 0.038155 
0.088794 0.1955 0.023851 0.0075736 0.012013 0.028619 0.020398 0.021056 
0.044402 0.15522 0.048184 0.037497 0.032564 0.030427 0.042594 0.036017 
-0.0080457 0.13368 0.05624 0.028947 0.034537 0.011684 0.022864 0.0095465 
-0.001798 0.064954 0.094877 0.056569 0.039963 0.0072447 0.039141 0.0069159 
-0.0050863 0.041936 0.064461 0.044073 0.03092 0.010204 0.023686 0.0059294 
-0.044381 0.050814 -0.0087034 -0.018075 0.022535 0.018096 0.023686 -0.0026201 
-0.03205 0.071531 -0.01232 0.03388 0.0039565 0.048677 0.022042 0.013492 
-0.027118 0.14848 0.05213 0.023686 0.015959 0.029769 0.015301 0.0072447 
-0.051287 0.15604 0.053938 0.0075736 0.01152 0.020562 0.04506 -0.0077169 
-0.034516 0.11707 0.029605 0.033222 0.0083956 0.0095465 0.022535 0.025824 
0.024508 0.12135 0.088958 0.017932 -0.0049219 0.016945 0.027632 0.024673 
0.079094 0.10293 0.047526 0.024837 0.044402 0.018425 0.020562 0.064296 
0.077943 0.012999 0.045718 0.039305 0.051801 0.027468 0.041607 0.065447 
0.063803 -0.069208 0.041936 0.036346 0.030098 0.03651 0.037004 0.059857 
0.011684 -0.096829 0.028454 0.056404 0.029769 0.0083956 0.043251 0.043251 
-0.029091 -0.078086 0.013657 0.033058 0.024508 0.019247 0.028783 0.0016547 
-0.00064712 0.0324 0.027303 0.038977 0.014643 0.054103 0.044567 0.014643 
0.052294 0.20783 0.025495 0.048677 0.03536 0.020562 0.03536 0.029605 
0.069722 0.19024 0.017274 -0.0087034 0.034373 0.0079024 0.028783 0.062159 
0.021384 -0.033365 0.021384 0.027303 0.032893 0.028125 0.048841 0.056404 
-0.071016 -0.12757 0.011355 0.027961 0.005765 0.0064227 0.03092 0.032564 
-0.029255 -0.12494 0.019083 0.0080668 0.0060938 0.011026 0.012342 0.031578 
0.067091 0.10556 0.067585 0.059364 0.012177 -0.011334 0.016945 0.027468 
0.14223 0.27475 0.10754 0.049006 0.033222 0.031742 0.031907 0.030427 
0.14289 0.27836 0.13368 0.062323 0.051801 0.038483 0.0421 0.048677 
0.17955 0.31552 0.12694 0.0786 0.055418 0.037497 0.051308 0.029112 
0.17067 0.3849 0.095864 0.053116 0.048348 0.040292 0.036675 0.069722 
0.12924 0.31634 0.056733 0.049992 0.020398 0.018918 0.048841 0.038155 
0.07597 0.20438 0.033058 0.019083 0.027796 0.019247 0.033551 0.047526 
-0.012485 0.12283 0.0056006 0.01004 0.02122 0.045389 0.0093821 0.023686 
-0.075291 0.014479 -0.028762 0.053445 0.032236 0.037332 0.04506 0.022371 
-0.077757 -0.042244 0.0065871 0.025824 0.041607 0.020233 0.033715 0.036017 
-0.046847 -0.036489 0.047526 0.010862 0.031578 0.03651 0.022864 0.0095465 
-0.031557 -0.055726 0.034866 0.025166 0.072188 0.062159 0.020398 0.0088889 
-0.02235 0.016945 -0.0078813 -0.017746 0.028454 0.00099702 0.026646 -0.009361 
0.018918 0.14075 -0.016102 0.0011614 -0.0034422 0.043745 0.029769 0.01826 
0.079751 0.19599 0.058871 0.018425 0.017274 0.025824 0.035524 0.049992 
0.097837 0.16525 0.067585 0.029276 0.011848 0.031742 0.060679 0.056404 
0.075148 0.090767 0.017932 0.061995 0.040785 0.01711 0.052459 0.055582 
0.046868 -0.0004827 0.0054362 0.064461 0.033715 0.025659 0.024673 0.040128 
0.010369 -0.060987 0.01826 0.0324 0.030263 0.021713 0.025166 0.037826 
0.03536 -0.003771 0.037826 0.029605 0.040292 0.032893 0.042594 0.050486 
0.088465 0.043745 0.054432 0.019411 0.015959 0.0082312 0.040621 0.054596 
0.098659 0.077614 0.05476 0.049006 0.018918 0.029605 0.018425 0.043087 
0.067749 0.12365 0.044402 0.017603 -0.010841 0.032893 0.027139 0.020233 
0.053609 0.15259 0.060022 0.00083261 0.013328 0.022535 0.045224 0.019083 
0.043251 0.15094 0.067256 0.051308 0.012013 0.034373 0.025824 0.055418 
0.050321 0.1539 0.085506 0.030592 0.032729 0.021056 0.014479 0.024344 
0.061172 0.11576 0.037661 0.033222 0.037004 0.027961 0.038155 0.046046 
0.053116 0.059857 0.020891 0.017603 0.045882 0.05065 0.040456 0.034537 
0.021056 0.025659 -0.034681 0.0088889 0.065447 0.028125 0.03388 0.01004 
-0.082196 -0.057041 -0.054246 0.047691 0.039963 0.021056 0.013821 0.00017495 
-0.12905 -0.17345 -0.04323 0.037826 0.024508 0.028783 0.023028 -0.014951 
-0.12494 -0.31862 -0.029748 0.024508 0.0056006 0.017603 -0.0021268 -0.006566 
-0.0868 -0.51362 -0.0064016 0.024508 0.011684 0.0052718 -0.0026201 -0.014951 
-0.036325 -0.65485 0.020233 0.0067515 0.0039565 0.0032988 0.0016547 0.0064227 
0.015794 -0.51197 0.024508 0.017438 0.012835 0.021713 0.032893 0.030756 
0.18333 -0.19696 0.021056 -0.023007 0.0039565 0.0051074 0.010369 0.030592 
0.31486 0.10524 0.054432 -0.0059084 0.01974 0.011355 0.014808 0.059693 
0.341 0.30138 0.077943 0.056733 0.015794 0.042758 0.058049 0.04917 
0.31618 0.31453 0.071037 0.052623 0.04917 0.03536 0.053609 0.06035 
0.10458 0.19583 0.026974 0.047855 0.04654 0.053281 0.048184 0.061501 
-0.088115 0.031085 0.0052718 0.052294 0.064461 0.032729 0.041114 0.048184 
-0.17969 0.095042 0.017603 0.042923 0.061666 0.035688 0.052787 0.03799 
-0.20074 0.28231 0.039141 0.057555 0.051636 0.036182 0.033387 0.016452 
-0.24184 0.36189 0.050979 0.023686 0.022206 0.0083956 -0.00015387 0.027139 
-0.32652 0.31338 0.061666 0.01004 0.012506 0.015137 0.0083956 0.029769 
-0.39392 0.13861 0.059035 0.037332 0.01711 0.012835 0.047033 0.027961 
-0.20995 0.00033937 0.009711 0.034702 0.020727 0.0056006 0.010204 0.023686 
0.26406 -0.085813 0.020891 -0.0052507 0.031085 0.025659 0.013164 -0.00081153 
0.61344 -0.23658 0.040456 0.024837 0.055582 0.025659 0.013328 0.048348 
0.59568 -0.3446 0.049992 0.031742 0.029276 0.019576 0.027796 0.049335 
0.34298 -0.35183 0.021878 0.056569 0.022206 0.043909 0.012999 -0.011005 
0.095042 -0.28673 0.033715 0.016288 0.013492 0.015465 -0.0052507 -0.041422 
-0.077757 -0.19449 0.020069 0.015794 0.009711 -0.015773 -0.010841 -0.024652 
-0.15191 -0.025967 0.016616 0.010204 0.01004 -0.021199 -0.0082102 0.010369 
-0.11228 0.090931 0.027303 0.0059294 0.0024767 0.012013 0.015137 0.02122 
-0.041915 0.20043 0.019411 -0.011663 0.037661 0.013492 0.012506 0.034044 
-0.033037 0.30039 0.046211 -0.0040998 0.030592 0.019905 0.027796 0.046704 
0.03651 0.3632 0.066598 0.0092177 0.019905 0.017767 0.015794 0.0088889 
0.082382 0.38194 0.078436 0.055254 0.037004 0.025988 0.01152 -0.017417 
0.078929 0.35531 0.079751 0.058049 0.037332 0.028619 0.0421 0.0044497 
0.013328 0.24564 0.08156 0.085835 0.071366 0.053116 0.066598 0.043251 
-0.016924 0.19649 0.060844 0.085999 0.059364 0.032893 0.053445 0.071859 
0.021549 0.18613 0.061172 0.062488 0.075312 0.033222 0.051308 0.083204 
0.019905 0.055089 0.04358 0.081231 0.050486 0.0421 0.051801 0.097015 
-0.059672 -0.12692 0.0227 0.036839 0.0087245 0.012506 0.027961 0.086163 
-0.13053 -0.19663 -0.043559 -0.012649 -0.0021268 -0.00015387 0.01415 0.055911 
-0.16177 -0.1455 -0.088115 0.010204 0.0023123 0.024344 0.044073 0.038483 
-0.27308 -0.030242 -0.055232 -0.010512 0.017932 0.020069 0.033551 0.019576 
-0.073647 0.059857 0.068078 0.0051074 0.025988 0.014808 0.024837 0.03536 
0.21391 0.14486 0.15144 0.033715 0.030098 0.014972 0.014315 0.0044497 
0.36583 0.19698 0.15949 0.025988 0.038648 0.027632 0.025495 0.012342 
0.34594 0.26866 0.091425 0.044731 0.0088889 0.021384 0.046375 0.0082312 
0.2126 0.32802 -0.067235 -0.0091966 0.0054362 0.016452 0.0083956 -0.017088 
0.069722 0.28231 -0.12609 -0.032872 0.0074092 0.0062583 -0.011498 -0.018239 
-0.11491 -0.10883 -0.11952 -0.0059084 -0.026624 -0.00081153 0.016616 0.0052718 
-0.2762 -0.48468 -0.062796 -0.0059084 0.014643 -0.0078813 0.025988 0.026481 
-0.29117 -0.34312 0.045718 0.048513 0.033222 0.032893 0.026646 0.041114 
-0.18052 -0.02646 0.066269 0.076956 0.065447 0.049664 0.051143 0.012999 
-0.089924 0.067749 0.033715 0.055254 0.051636 0.029276 0.055582 0.015794 
-0.023336 0.14272 0.052294 0.095206 0.035195 0.037168 0.058706 0.031085 
0.08156 0.3295 0.097837 0.071202 0.047691 0.055747 0.049992 0.073504 
0.21737 0.43669 0.098001 0.044567 0.030263 0.050814 0.046704 0.080573 
0.18169 0.32785 0.013657 0.0046141 0.019576 0.02122 0.0324 0.016288 
0.13565 0.15686 -0.10324 -0.016431 0.0074092 -0.018075 -0.0095255 -0.023172 
0.17676 0.038977 -0.18463 -0.011992 0.0054362 -0.011005 -0.013471 -0.040271 
0.07449 0.029934 -0.10965 -0.024652 -0.0014692 -0.0067304 -0.011005 -0.078744 
-0.082196 0.12217 0.01974 -0.022514 -0.026953 -0.0067304 -0.00081153 -0.094527 
-0.15322 0.21293 0.091753 0.029112 -0.013307 0.014643 0.0021479 -0.037476 
-0.15322 0.23019 0.09422 0.061337 0.029605 0.044402 0.040785 0.097672 
-0.009361 0.15587 0.038977 0.072024 0.039305 0.060679 0.079258 0.16212 
0.24104 0.041772 0.038977 0.095699 0.083862 0.10885 0.039963 0.18498 
0.30681 -0.10045 0.088136 0.072846 0.072024 0.054432 0.075641 0.1858 
0.22674 -0.15388 0.12283 0.13253 0.1105 0.061995 0.063639 0.12891 
0.15078 -0.24529 0.078436 0.04654 0.063145 0.057391 0.075148 0.11165 
0.055911 -0.206 0.073175 0.015137 0.017438 0.021713 0.029934 0.038648 
0.029769 -0.13875 0.14782 0.027303 0.0031344 0.0079024 0.013328 -0.023007 
0.018589 -0.020706 0.14371 -0.045039 -0.0091966 -0.0075525 0.022371 -0.022185 
0.0032988 0.082053 0.059693 -0.012814 0.0067515 0.018425 -0.0022913 -0.013143 
-0.034681 0.31108 0.0074092 0.0095465 0.024508 0.033387 0.015959 0.036675 
-0.17887 0.3484 0.031578 0.039305 0.04506 0.021384 0.020727 0.04095 
-0.43059 0.019576 0.054103 0.097672 0.033222 0.0324 0.035524 -0.0050863 
-0.49011 -0.29002 0.029276 0.041772 0.014808 0.0047785 -0.0021268 -0.053753 
-0.14944 -0.29626 -0.042901 0.010204 0.0056006 -0.012649 -0.03057 -0.073154 
0.13351 -0.15273 -0.071674 0.0098754 -0.013965 0.0026412 -0.022679 -0.010183 
0.3438 -0.064933 -0.013471 0.017274 0.035195 0.023522 0.029769 0.024344 
0.58911 -0.21586 0.026646 0.03388 0.030592 0.02681 0.043416 0.079916 
0.69663 -0.33227 0.0056006 0.015465 0.064461 0.057227 0.039799 0.12201 
0.63498 -0.12363 0.0075736 0.0024767 0.048019 0.041278 0.060679 0.10704 
0.36912 0.086328 0.034866 0.031907 0.023851 0.020398 0.036182 0.03799 
-0.0042642 0.15061 0.016452 0.0074092 0.0032988 0.032564 0.016123 -0.054904 
-0.24497 0.026481 0.02122 -0.0088678 0.005765 0.011848 -0.0019624 -0.073976 
-0.31649 0.0013258 0.02829 0.026481 0.0026412 0.0047785 -0.011005 -0.03616 
-0.24003 0.31601 0.10852 0.022864 0.0088889 -0.0077169 0.0011614 -0.0090322 
-0.17377 0.56987 0.15472 0.068571 0.041443 0.027139 0.022042 0.043416 
-0.34427 0.47911 0.17051 0.035853 0.049006 0.023028 0.01974 0.075148 
-0.28229 0.17199 0.18958 0.025988 0.037826 0.041936 0.044402 0.072024 
0.089616 -0.040764 0.19484 0.049828 0.026974 0.040621 0.042429 0.081395 
0.2925 -0.097322 0.19435 0.064625 0.038648 0.034866 0.047855 0.082217 
0.34265 -0.17427 0.12727 0.057062 0.041114 0.03388 0.063968 0.07301 
0.31536 -0.23 0.041443 0.068571 0.047526 0.036675 0.042429 0.048841 
0.2948 -0.1815 0.026974 0.08008 0.064954 0.01974 0.032893 0.047526 
0.25732 -0.13086 0.033715 0.11165 0.058049 0.023851 0.031907 0.050814 
0.15456 -0.11903 -0.054904 0.058049 0.062817 0.029112 0.037168 0.029769 
0.054103 -0.056712 -0.080881 0.025659 0.015959 0.032236 0.019576 0.011848 
-0.040764 0.058542 -0.060987 0.011191 -0.001798 0.0069159 0.0074092 -0.02235 
-0.13399 -0.031886 -0.14171 -0.022843 -0.0019624 0.00017495 -0.0029489 -0.06148 
-0.15421 -0.043724 -0.19564 -0.045203 -0.01676 0.011191 0.0060938 -0.037805 
-0.046025 0.17889 -0.12034 -0.016595 -0.00031829 0.012342 0.019905 1.0539e-005 
0.034866 0.33903 0.046868 0.0227 0.030263 0.032729 0.047033 0.066763 
0.016288 0.49325 0.1761 0.069064 0.041114 0.031578 0.046375 0.058542 
-0.074469 0.54406 0.21391 0.029934 0.071366 0.00050378 0.074161 0.016452 
-0.052109 0.50049 0.15423 0.0067515 0.01711 0.020562 0.01004 0.024508 
0.047033 0.30039 0.059693 0.0023123 -0.034681 0.02533 0.02681 0.025659 
0.079916 0.058871 -0.022514 -0.029584 0.0024767 0.0085601 0.032564 0.08156 
0.099316 -0.18857 -0.046683 0.042429 0.035853 0.016123 0.03947 0.086657 
0.28198 -0.36614 -0.0024557 0.052952 0.059857 0.041607 0.056569 0.12299 
0.68463 -0.40494 0.01826 0.0689 0.072681 0.061995 0.069393 0.10293 
0.8474 -0.4883 0.033058 0.05065 0.082053 0.069229 0.061666 0.030427 
0.4579 -0.38751 -0.033694 0.031907 0.018096 0.01563 0.030427 -0.045039 
-0.1376 -0.12922 -0.10439 -0.0050863 0.00099702 0.014808 -0.0031133 -0.099789 
-0.51033 0.20323 -0.12067 -0.009361 -0.01117 -0.0027845 -0.004593 -0.080552 
-0.70911 0.64106 -0.058521 -0.022679 -0.018404 -0.0082102 -0.010183 -0.063124 
-0.81992 0.86236 -0.040764 0.011848 -0.00097594 -0.01528 -0.019884 -0.008539 
-0.88059 0.78262 -0.02498 0.009711 0.02533 0.022206 -0.0004827 0.01415 
-0.96411 0.66424 0.033715 0.047033 0.05213 0.017438 0.038155 -0.015773 
-1.0179 0.52811 0.12513 0.08304 0.066927 0.042758 0.051143 0.026152 
-0.6172 0.034373 0.10556 0.050321 0.045553 0.04506 0.044073 0.041772 
0.29102 -0.23362 0.10425 -0.004593 0.024344 0.016945 0.025988 0.040292 
0.998 -0.0072237 0.097837 0.038319 0.043909 0.0324 0.085506 0.099645 
1.0927 0.18909 0.055747 0.061995 0.067585 0.1054 0.09833 0.11296 
0.84806 0.19895 -0.024816 0.083533 0.065283 0.062488 0.068407 0.12875 
0.48487 -0.19844 -0.069372 0.0031344 0.035688 0.026152 0.050979 0.069886 
0.075476 -0.95309 -0.14977 -0.060329 -0.023336 -0.0021268 0.0090533 -0.0040998 
-0.18101 -1.1874 -0.19827 -0.042901 -0.047176 -0.011663 -0.033694 -0.067728 
-0.17098 -0.48633 -0.086142 0.0039565 -0.028926 -0.0088678 -0.015116 -0.058685 
-0.042408 0.26932 0.048841 0.044402 0.0011614 0.011026 0.024508 0.0054362 
-0.036654 0.47714 0.1493 0.094713 0.048019 0.056733 0.045224 0.058377 
-0.15306 0.30648 0.22394 0.11247 0.08304 0.060679 0.062488 0.067091 
-0.2665 0.10885 0.26406 0.16426 0.1031 0.057884 0.069393 0.062488 
-0.32487 -0.0095255 0.2708 0.13006 0.076463 0.060679 0.059035 0.0324 
-0.3617 -0.17065 0.12677 0.048184 0.025495 0.027468 1.0539e-005 0.018096 
-0.37124 -0.42187 -0.040106 0.00033937 -0.0055795 0.0016547 -0.001798 -0.017088 
-0.25861 -0.41661 -0.13382 -0.039613 -0.0034422 0.015959 0.013164 -0.010183 
-0.061151 -0.039942 -0.11426 -0.035996 0.012177 0.020069 0.030592 0.01004 
0.10343 0.49638 -0.029584 -0.04471 0.023686 0.0021479 0.031414 0.024015 
0.1784 0.50591 0.0026412 -0.038298 0.019905 0.018425 0.027468 0.048513 
0.36945 0.30664 0.019247 0.0013258 0.018096 0.039963 0.038812 0.025659 
0.65487 0.15456 -0.0073881 -0.019884 0.0028056 0.012506 0.0070803 0.047197 
0.66605 0.052787 0.016616 0.0013258 0.0065871 0.013492 -0.0011404 0.05476 
0.35498 -0.13316 0.078272 0.070051 0.034537 0.029605 0.0056006 0.032893 
0.0069159 -0.29856 0.10524 0.06742 0.044073 0.022864 0.051801 0.039305 
-0.20403 -0.17739 0.10392 0.063474 0.027303 0.015794 0.057062 0.043909 
-0.30974 0.011684 0.065776 0.038319 0.042758 0.034209 0.026646 0.045389 
-0.34427 0.022535 0.04917 0.00033937 0.036017 0.01974 0.011848 0.034866 
-0.23296 -0.056055 -0.01528 0.022042 0.0051074 0.0070803 0.030427 -0.0047575 
0.0085601 -0.091732 0.0051074 -0.0027845 0.053938 0.016288 0.030098 0.069393 
0.27277 0.0074092 0.099316 0.040621 0.030592 0.037661 0.051965 0.10967 
0.43752 0.13549 0.17347 0.03651 0.064625 0.014479 0.090603 0.12151 
0.39559 0.068078 0.13828 0.057884 0.054267 0.033222 0.065612 0.12299 
0.2371 -0.071838 0.041607 0.090767 0.081724 0.077778 0.056076 0.10096 
0.10507 -0.13678 0.0070803 0.042923 0.082546 0.0324 0.027796 0.044731 
-0.051451 -0.17673 0.053445 0.061501 0.069886 0.01826 0.027139 -0.032543 
-0.099131 -0.16621 0.11691 0.039141 0.0011614 0.012999 -0.0013048 -0.084169 
-0.0095255 -0.072003 0.067091 0.0064227 -0.027282 -0.010348 -0.038956 -0.089431 
0.20142 0.011026 -0.016431 0.03092 -0.0032777 -0.011827 0.00297 -0.016102 
0.31799 -0.054082 -0.065591 0.0088889 0.022864 -0.0040998 0.034866 0.051801 
0.40167 -0.0011404 -0.035996 -0.019061 0.0093821 0.023851 0.040292 0.078929 
0.57283 0.26702 0.042594 0.033222 0.031249 0.023686 0.022535 0.10326 
0.65306 0.61673 0.060186 0.036839 0.037168 0.011355 0.055747 0.084519 
0.59157 0.87568 0.086821 0.027303 0.04506 0.038483 0.038319 0.079094 
0.45494 0.93273 0.085835 0.042923 0.033715 0.044238 0.041443 0.1008 
0.087314 0.81978 0.072846 0.022371 0.027139 0.040292 0.04095 0.092904 
-0.32569 0.65487 0.069393 0.034537 0.017767 0.028125 0.04358 0.061995 
-0.51082 0.36567 0.088465 0.030263 0.019576 0.030592 0.027632 0.024508 
-0.49455 -0.023829 0.084519 0.024015 0.024837 0.0059294 0.03092 0.012999 
-0.61506 -0.32635 0.031907 0.06035 0.028125 0.018918 0.031085 -0.020706 
-0.83373 -0.47317 -0.026296 0.0062583 0.016616 0.013164 -0.0047575 -0.080388 
-0.68313 -0.55258 -0.095843 -0.031392 -0.004593 -0.023994 -0.043724 -0.095185 
-0.07825 -0.64219 -0.16358 -0.0406 -0.013636 -0.014622 -0.058356 -0.036983 
0.29415 -0.73492 -0.1478 -0.052931 -0.027775 -0.004593 -0.013471 -0.0070593 
0.52071 -0.55538 -0.058521 -0.0073881 0.00033937 -0.0075525 -0.00097594 0.0074092 
0.77868 0.11198 0.0088889 -0.0095255 -0.0067304 -0.011663 -0.0057439 0.01152 
0.82093 0.64682 0.079916 0.032071 0.027961 0.039634 0.03092 0.083697 
0.51857 0.86828 0.16969 0.091096 0.066269 0.072517 0.058213 0.13516 
0.25074 0.80646 0.17445 0.091425 0.053281 0.041278 0.051636 0.070544 
0.11724 0.58319 0.15028 0.10754 0.043745 0.055089 0.016616 0.0074092 
-0.022679 0.30401 0.10507 0.082546 0.018754 0.026152 0.027139 -0.024816 
-0.25105 0.086492 0.057062 0.061501 0.024179 0.026317 0.035031 0.015301 
-0.54107 -0.05326 0.014479 0.067749 0.032893 0.032564 0.049006 0.017603 
-0.67721 -0.096007 -0.03057 0.018754 0.037661 0.028783 0.037004 -0.03764 
-0.61276 -0.20386 -0.092719 -0.0062372 0.018589 0.0070803 0.0051074 -0.089924 
-0.34427 -0.15914 -0.073976 0.07597 -0.031557 0.032071 -0.018733 -0.10949 
-0.05737 -0.073976 -0.016266 0.029112 0.030756 0.028947 0.019411 0.015959 
0.12184 -0.060658 0.086821 0.069064 0.039963 0.033222 0.031578 0.07301 
0.15735 -0.045861 0.052294 0.01974 0.027468 0.010697 0.049828 0.095371 
0.12217 -0.051944 0.048513 -0.003771 0.015465 0.032893 0.037332 0.082382 
0.081395 -0.037311 0.022206 0.023686 0.024179 0.017767 0.013328 0.044402 
0.067585 0.010533 0.037332 0.0065871 0.037497 0.01267 0.01711 0.039963 
0.0592 0.023851 0.0689 0.0092177 0.0079024 0.0093821 0.014643 -0.0004827 
0.045882 -0.0096899 0.058871 0.013986 -0.0040998 0.013986 -0.013471 0.014479 
-0.006566 -0.063453 0.027632 -0.0049219 -0.009361 0.016452 -0.016431 0.023028 
-0.021363 -0.058192 -0.012978 0.019083 0.021549 0.010369 0.030756 0.019576 
0.020069 0.020727 0.01415 0.012835 0.035524 0.037661 0.023357 0.044731 
0.10096 0.1202 0.072681 0.050814 0.048677 0.029441 0.020069 0.075641 
0.15357 0.13943 0.05772 0.075148 0.071037 0.034373 0.034702 0.093726 
0.1031 0.089945 0.0032988 0.066763 0.073997 0.056569 0.066927 0.081889 
0.010697 0.038648 0.0052718 0.0592 0.051801 0.025988 0.040456 0.0088889 
-0.041422 0.11329 -0.016431 0.029934 0.032893 0.014808 0.013986 -0.018404 
-0.061645 -0.038298 -0.045039 0.016123 0.0060938 0.02533 0.02533 -0.061973 
-0.05178 -0.23675 -0.015609 0.051143 0.03536 0.04358 0.027468 0.0047785 
0.087972 -0.11064 0.040456 0.043416 0.036346 0.049664 0.041936 0.075805 
0.18876 0.03536 0.086492 0.052787 0.062323 0.045553 0.062323 0.099481 
0.20471 0.0046141 0.090438 0.081724 0.08008 0.072846 0.098494 0.085177 
0.11855 -0.095349 0.0014903 0.0047785 0.031085 0.019083 0.038812 -0.014622 
-0.071674 -0.22787 -0.016102 -0.038133 -0.0087034 0.0064227 -0.0014692 -0.10373 
-0.18759 -0.26798 0.01267 -0.043066 -0.008539 0.0065871 -0.019719 -0.12922 
-0.068386 -0.034845 0.068736 -0.0062372 0.011026 0.0044497 0.026317 -0.025309 
0.11855 0.24055 0.090603 0.052952 0.010862 0.029605 0.033058 0.068571 
0.12398 0.37833 0.07038 0.055418 0.042429 0.035853 0.036839 0.088794 
0.044731 0.36846 0.09833 0.061172 0.049664 0.051143 0.070215 0.10754 
0.031249 0.27836 0.10836 0.08863 0.059364 0.047691 0.074819 0.087808 
0.048184 0.13351 0.03799 0.044567 0.04654 0.037168 0.063639 0.074983 
-0.02794 -0.11409 -0.033694 0.033551 0.01004 0.042265 0.039634 0.07038 
-0.13464 -0.44424 -0.067892 -0.01232 0.019247 0.031249 0.03947 0.061995 
-0.065097 -0.39491 -0.036654 0.0026412 0.018589 0.020398 0.033387 0.099481 
0.1299 0.084026 0.034537 0.044402 0.026317 0.045718 0.018425 0.12957 
0.27573 0.44574 0.087314 0.043416 0.054925 0.041114 0.051636 0.071202 
0.30105 0.50361 0.098988 0.062981 0.061995 0.025495 0.062817 0.051472 
0.20947 0.33985 0.080573 0.049335 0.030592 0.050321 0.049499 0.020727 
0.09685 0.0689 0.053609 0.046375 0.030263 0.035688 0.050321 0.0075736 
0.094384 -0.25072 0.0082312 0.054925 0.016616 0.013986 0.052623 0.016616 
0.23923 -0.27999 0.04654 0.058377 0.026152 0.025988 0.052787 0.028619 
0.31042 -0.099131 0.079751 0.034866 0.020398 0.030098 0.0095465 0.054432 
0.23167 -0.028762 0.044402 0.028454 0.037004 0.01152 -0.0026201 -0.02087 
0.15193 -0.076442 -0.0060728 -0.0022913 0.018589 -0.01676 0.0031344 -0.023994 
0.14486 -0.12889 0.032071 -0.0064016 0.011684 0.0042853 -0.00064712 -0.032543 
0.2782 -0.072332 0.10507 -0.030077 0.012342 0.0037921 0.017274 -0.040435 
0.32769 0.050814 0.12102 0.014315 0.016781 0.028619 0.021878 0.040785 
0.028783 0.22855 0.018918 0.053116 0.048677 0.033387 0.038155 0.033222 
-0.57116 0.30746 -0.05737 -0.0027845 0.015959 0.032893 0.033058 0.020398 
-0.8699 0.33722 -0.10061 -0.011005 1.0539e-005 0.016945 -0.017746 0.0037921 
-0.95211 0.26833 -0.13399 0.0079024 0.016452 0.0087245 0.0088889 -0.0029489 
-1.1629 0.086328 -0.13399 -0.0027845 0.038483 0.031742 0.0069159 0.056076 
-1.1675 -0.3275 -0.07003 0.034209 0.019083 0.012506 -0.017582 -0.015444 
-0.84064 -0.7627 0.027139 0.0052718 -0.00031829 0.0032988 -0.0064016 -0.038956 
-0.35874 -0.93485 0.023028 0.009711 0.023193 0.016123 0.012999 -0.034681 
0.51594 -0.5128 0.069722 0.031907 0.040785 -0.00097594 -0.0062372 -0.012814 
1.1068 0.13878 0.14568 0.0021479 0.022371 -0.0068948 -0.020377 -0.0095255 
1.1304 0.51232 0.24153 0.025988 0.016123 0.0090533 -0.0096899 -0.023994 
0.84066 0.61311 0.31815 0.068407 0.047033 0.023193 0.016616 0.057555 
0.62741 0.59108 0.35482 0.060844 0.045553 0.031249 0.024837 0.10359 
0.49736 0.47221 0.28773 0.079422 0.040128 0.028619 0.038319 0.090931 
0.34873 0.3415 0.1128 0.046868 0.047855 0.037826 0.042265 0.10787 
0.13779 0.25419 -0.028597 0.066763 0.053938 0.047197 0.035195 0.091589 
-0.14582 -0.023501 -0.074469 0.063968 0.036182 0.029112 0.020891 0.049992 
-0.41892 -0.37715 -0.15437 0.032071 0.022535 0.034044 -0.006566 0.01974 
-0.50293 -0.44078 -0.33638 0.015137 0.027796 0.014315 0.032893 -0.019555 
-0.40247 -0.27012 -0.42319 0.013328 0.014479 0.0060938 0.01267 0.010862 
-0.26157 0.00066819 -0.38242 0.01152 0.018096 0.020562 0.011848 0.00050378 
-0.21011 0.28132 -0.2208 0.0069159 0.050814 0.016123 -0.0040998 0.031249 
-0.23658 0.37339 0.062817 -0.043888 0.031249 0.0041209 0.012835 0.013164 
-0.20682 0.40381 0.35169 -0.028269 0.021713 0.035853 0.012835 0.019247 
-0.065097 0.37619 0.54784 0.021056 0.046868 0.02533 0.0046141 0.03799 
0.042429 0.27195 0.60045 0.043416 0.068242 0.029276 0.018425 0.023028 
0.097344 0.12677 0.52531 0.079422 0.049664 0.029112 0.01974 0.024344 
0.10606 0.049335 0.35103 0.064461 0.015301 0.026481 0.00083261 0.0019835 
0.1613 -0.059836 0.11444 0.07301 -0.003771 -0.0068948 -0.010348 -0.0083746 
0.256 -0.23066 -0.10702 0.095535 0.012342 0.0023123 0.029934 0.055089 
0.30697 -0.29413 -0.25319 0.06035 0.030756 0.032236 0.016945 0.067913 
0.32621 -0.24069 -0.28854 0.030592 0.03388 0.031907 0.03388 0.097015 
0.2514 -0.23362 -0.29972 -0.0054151 0.037497 0.025659 0.047362 0.039963 
0.12381 -0.0049219 -0.19054 0.0051074 0.068736 0.050814 0.060186 0.034866 
0.24186 0.17051 -0.16227 -0.011005 0.010697 0.031907 0.052459 0.051308 
0.29941 0.35317 -0.059343 -0.054904 0.0064227 0.0083956 0.01563 -0.029913 
0.1026 0.39329 0.047691 -0.04882 -0.035174 0.025659 -0.014951 -0.033365 
-0.09946 0.29135 0.17856 0.058871 0.0074092 0.007738 0.0088889 -0.022679 
-0.1455 0.18004 0.24926 0.098659 0.041114 0.032071 0.0056006 -0.011663 
-0.076277 0.085012 0.1756 0.10606 0.036675 0.011191 0.0031344 -0.00064712 
0.075476 0.028947 0.063474 0.058542 0.017932 0.016452 0.054103 0.02829 
0.17774 0.016616 -0.036818 0.039305 0.026481 0.039799 0.067091 0.08978 
0.24532 0.079422 0.015465 0.073832 0.026481 0.025001 0.067913 0.12776 
0.29579 0.18465 0.11099 0.044073 0.027961 0.062981 0.069229 0.14667 
0.28773 0.1881 0.18942 0.044402 0.037168 0.047197 0.087479 0.14387 
0.27146 0.13762 0.17626 0.060515 0.045718 0.02533 0.087808 0.10014 
0.23463 0.10425 0.15867 0.0021479 0.023357 0.022206 0.031578 0.036675 
0.24153 0.11592 0.13072 0.017438 0.023028 0.030427 0.037826 0.014972 
0.25995 0.13615 0.052623 0.038483 0.039305 0.021878 0.054267 0.022042 
0.19533 -0.00031829 -0.0004827 0.047855 0.026974 0.031742 0.055911 0.052459 
0.14354 -0.15914 -0.066741 0.045553 0.021549 0.029769 0.034537 0.024015 
0.2297 -0.18315 -0.17345 -0.025309 0.0039565 0.018425 0.047526 0.063968 
0.26192 -0.14944 -0.19564 -0.018897 -0.0021268 0.007738 0.041278 0.063474 
0.045224 -0.13415 -0.18824 0.0098754 0.0051074 0.030756 0.035524 0.026481 
-0.22524 -0.0087034 -0.14369 -0.0060728 0.0018191 0.0095465 0.018589 -0.032215 
-0.2864 0.12661 -0.090253 0.037332 0.005765 -0.0040998 0.029112 -0.031064 
-0.21208 0.049828 0.0036276 0.010533 -0.0032777 0.015137 0.026481 0.030098 
-0.13974 0.030263 0.098988 0.027468 0.0095465 0.029605 0.037661 0.09126 
-0.093376 0.095042 0.040292 0.057227 0.013657 0.023357 0.058542 0.084684 
-0.044546 0.0786 -0.11097 0.0062583 -0.0029489 0.010204 0.03092 0.0421 
0.0098754 0.11658 -0.15668 -0.03057 -0.014787 0.00033937 -0.017253 -0.082525 
0.028947 0.24762 -0.071345 -0.032215 -0.0049219 -0.024816 -0.044217 -0.1016 
0.11066 0.34462 0.11757 0.0095465 0.015137 -0.02235 0.031414 -0.013965 
0.13697 0.21358 0.22279 0.068571 0.044896 0.045718 0.077614 0.079751 
0.066763 -0.0029489 0.18876 0.048184 0.04358 0.060679 0.089616 0.10441 
0.0034632 -0.16325 0.12595 0.041772 0.056076 0.050814 0.078107 0.077943 
-0.049642 -0.23313 0.093726 0.061008 0.075476 0.078107 0.10096 0.083697 
-0.044874 -0.1667 0.086328 0.050157 0.039634 0.045224 0.050321 0.034209 
-0.015609 -0.1501 0.040128 0.062159 0.039963 0.039141 0.042594 0.031578 
-0.027447 -0.2476 -0.028762 0.040456 0.023028 0.015465 0.015465 0.028619 
-0.072989 -0.30958 -0.063782 -0.0026201 0.015794 0.017767 0.024344 -0.02087 
-0.15503 -0.32027 -0.11393 0.022535 -0.012814 0.0095465 0.0080668 -0.023665 
-0.1085 -0.10324 -0.13514 -0.0022913 0.041114 0.034209 -0.0083746 -0.05441 
0.11576 0.27557 -0.11837 -0.045696 -0.023994 0.0093821 -0.0021268 -0.056877 
0.23644 0.32933 -0.093212 -0.054739 -0.026296 -0.0070593 -0.02646 -0.05885 
0.048513 0.27886 -0.035996 -0.029748 0.0042853 -0.015116 -0.0054151 -0.054904 
-0.13662 0.24597 0.029441 0.034044 0.036839 0.031249 0.017603 0.028619 
-0.17805 0.18563 0.04654 0.026317 0.032071 0.024673 0.075805 0.057062 
-0.20764 0.055089 0.047033 0.023357 0.014315 0.02533 0.043745 0.07038 
-0.26338 -0.031392 0.036675 0.014808 0.035688 0.028947 0.056404 0.063803 
-0.40461 -0.087129 0.039305 0.040621 0.063968 0.041278 0.033058 0.036346 
-0.68724 -0.12412 0.030427 0.049664 0.055418 0.025988 0.035524 0.038483 
-0.55735 -0.026789 0.046704 0.0421 0.042923 0.017932 0.020069 0.0087245 
0.01415 0.10507 0.084519 0.022206 0.018096 0.025824 0.030592 0.042758 
0.41335 0.21194 0.10737 0.065118 0.047197 0.037332 0.061008 0.079751 
0.50049 0.19188 0.093726 0.033222 0.058377 0.050979 0.047362 0.074161 
0.32489 0.058871 0.046868 0.016123 0.037004 0.046704 0.033222 0.024837 
0.13845 -0.07562 0.024508 0.029605 0.043087 0.032729 0.010862 -0.006566 
0.083862 -0.026624 0.042429 0.032893 0.044402 0.022535 0.02533 0.018918 
0.095206 0.022535 0.055089 0.045389 0.025166 0.031578 0.013657 0.010862 
0.066927 -0.012814 -0.00081153 -0.00097594 0.021056 0.018096 0.012999 -0.010019 
0.015137 -0.048327 0.00297 -0.027611 0.052623 0.0019835 0.0054362 0.0083956 
-0.089759 -0.056383 0.040292 0.047362 0.028947 -0.0083746 0.0083956 -0.0082102 
-0.10176 0.024015 0.10967 0.03388 0.013492 0.020233 -0.00064712 0.013821 
-0.0080457 0.17133 0.11872 0.06035 0.021056 0.0018191 0.045389 0.089123 
0.083204 0.2394 0.13039 0.068078 0.041278 0.035031 0.056733 0.096357 
0.046375 0.19632 0.0786 0.067585 0.031907 0.029605 0.040456 0.08008 
-0.073154 0.11806 0.033058 0.045389 0.038483 0.027468 0.017932 0.025001 
-0.083347 0.068736 0.026974 0.016123 0.048184 0.034537 0.0023123 -0.0026201 
0.0026412 0.03536 0.041114 0.028947 0.057062 0.032564 0.009711 -0.037805 
-0.11376 0.027796 0.059693 0.060679 0.054925 0.022535 -0.0054151 -0.025802 
-0.15207 0.070215 0.10195 0.045553 0.041278 0.017932 0.0031344 0.0016547 
0.18678 0.087479 0.12677 0.045882 0.042265 0.021549 -0.0034422 -0.011827 
0.40233 0.06331 0.084355 0.04358 0.02829 0.037661 0.033222 0.065776 
0.27129 0.033222 0.09422 0.050814 0.05065 0.042758 0.046046 0.086328 
0.048677 0.035031 0.065447 0.055089 0.04654 0.034537 0.03388 0.1054 
-0.07414 0.035524 0.023193 0.028125 0.038648 0.048841 0.027632 0.11132 
-0.10916 0.068242 -0.013636 0.019083 0.052459 0.031578 0.033387 0.061337 
-0.076113 0.079916 0.034209 0.039305 0.035195 0.018096 0.021713 0.054267 
-0.080552 0.12085 0.11477 0.023357 0.032236 0.020727 0.01563 0.030098 
-0.0068948 0.13335 0.12102 0.059857 0.016781 0.022371 0.038155 0.019247 
0.11773 0.10293 0.088301 0.060679 0.016123 0.013986 0.021713 0.038648 
0.20586 0.056898 0.078107 0.045718 0.033058 0.013986 0.0062583 0.032564 
0.29069 -0.017911 0.007738 0.029441 0.0324 0.034702 0.022206 0.040456 
0.28658 0.023028 -0.083183 0.0065871 0.040785 0.0070803 0.022535 0.03799 
0.29563 0.17166 -0.10965 -0.031557 0.017603 0.0032988 0.011848 0.053774 
0.20388 0.17133 -0.084827 0.0082312 0.020727 0.024837 -0.018568 0.027303 
0.10228 0.13532 0.055747 0.0080668 0.042429 0.034209 0.0026412 0.023686 
0.38014 0.077449 0.079258 0.051636 0.04358 0.016288 0.015959 0.049499 
0.77226 0.14272 0.089287 0.020233 0.051636 0.033222 0.035524 0.073997 
0.80712 0.19616 0.11181 0.03947 0.038812 0.026974 0.035195 0.082711 
0.41927 0.22115 0.15472 0.10129 0.057555 0.049664 0.051636 0.081067 
-0.23165 0.082546 0.17396 0.058213 0.061172 0.050157 0.036839 0.06183 
-0.90788 -0.095021 0.13384 0.03799 0.05213 0.043909 0.040292 0.052952 
-1.266 -0.26404 0.034044 0.023028 0.017274 0.013986 0.015301 0.011848 
-1.2344 -0.26387 -0.043724 -0.014622 0.004943 -0.0034422 0.0075736 -0.025638 
-1.066 -0.20288 -0.024652 0.029769 0.026481 0.017603 -0.0040998 -0.079237 
-0.61144 -0.20584 0.031742 0.038977 0.049992 0.016123 -0.0014692 -0.046354 
0.2731 -0.41892 -0.0095255 0.081724 0.035195 0.012342 0.064132 0.034537 
0.852 -0.57544 -0.056877 0.03388 0.026481 0.040785 0.020891 0.0016547 
0.92944 -0.23444 -0.11639 -0.01939 -0.0075525 0.016945 0.0085601 -0.011663 
0.80252 0.19665 -0.022021 0.0026412 -0.0096899 -0.018568 -0.015609 0.0037921 
0.70617 0.39 0.047197 0.0054362 -0.010183 -0.012485 0.0092177 0.036182 
0.7578 0.45609 0.026152 0.015137 0.0064227 0.0059294 0.0021479 0.10556 
0.69071 0.49079 -0.019719 0.030592 0.043087 0.027303 0.022371 0.11198 
0.41368 0.33903 -0.020048 -0.00081153 0.039305 0.031249 0.02829 0.047033 
0.068736 0.21539 -0.045368 -0.016431 0.048841 0.029276 0.021549 -0.00031829 
-0.21521 0.23216 -0.074962 -0.0032777 0.015301 0.023357 0.012506 -0.025802 
-0.37156 0.2759 -0.032543 0.030263 0.038319 0.015301 0.021549 0.019083 
-0.43355 0.21112 0.069229 0.048019 0.027303 0.029112 0.053445 0.025495 
-0.47219 0.0059294 0.13335 0.034702 0.022206 0.0064227 0.039799 0.0036276 
-0.76632 -0.16901 0.18087 0.035688 0.0064227 -0.0039354 0.012835 -0.040106 
-0.81088 -0.23543 0.15324 0.073668 0.032729 0.020891 0.016945 -0.039613 
-0.30333 -0.19252 0.11132 0.051472 0.068736 0.036182 0.051472 0.04095 
0.19155 -0.13974 0.14453 0.047691 0.031414 0.032236 0.041114 0.073832 
0.32522 -0.14385 0.14585 0.03799 0.020069 0.0070803 0.012506 0.088794 
0.29332 -0.21438 0.078929 0.018754 -0.0039354 0.027796 0.0324 0.059693 
0.18942 -0.50474 -0.021856 0.023686 -0.004593 0.0069159 0.043251 0.04506 
0.11378 -0.57642 -0.077593 -0.038298 -0.0040998 0.007738 0.016945 0.022042 
0.091589 -0.20518 -0.052437 -0.041257 1.0539e-005 0.023193 0.015137 0.0062583 
0.10573 0.21737 0.070544 -0.0013048 0.016781 0.01267 0.02122 0.028454 
0.089452 0.39921 0.1641 0.0324 0.041443 0.023028 0.019905 0.033715 
0.0786 0.37274 0.042758 0.034209 0.014315 0.021878 0.010204 -0.0067304 
0.077121 0.26965 -0.065755 0.06035 0.04506 0.01563 0.020069 -0.016431 
0.035195 0.097672 -0.10489 0.019905 0.0079024 0.018754 0.033222 -0.011827 
0.075312 -0.1187 -0.10045 0.043251 0.051308 0.049499 0.02681 0.038977 
0.073504 -0.037476 -0.12708 0.043251 0.041772 0.027139 0.03799 0.031907 
0.00017495 0.11543 -0.15372 0.033715 0.027632 0.00033937 0.032893 -0.018733 
0.058213 0.19353 -0.11853 0.02829 0.023193 0.0067515 0.028454 -0.006566 
0.14124 0.24301 0.0095465 0.0021479 0.015794 0.024015 0.024837 0.017932 
0.13121 0.19188 0.15653 0.033551 0.030756 0.01152 0.014808 0.050814 
0.044567 0.16377 0.24055 0.039305 0.024015 0.022206 0.053609 0.067256 
-0.028433 0.15209 0.22049 0.045389 0.015794 0.026152 0.044402 0.06035 
0.13335 0.096686 0.2006 0.050321 0.016123 0.038483 0.045882 0.079916 
0.35071 0.037661 0.13762 0.010533 0.027303 0.015794 0.028783 0.074819 
0.46415 0.055911 0.067913 0.021878 0.042758 0.040456 0.06035 0.072024 
0.34906 0.041772 0.025659 0.026152 0.044567 0.042923 0.059035 0.077449 
-0.0026201 0.032236 -0.0070593 0.022206 0.016452 0.016616 0.043251 0.05065 
-0.24973 0.026317 -0.031557 0.045718 0.035853 0.018754 0.044731 0.047197 
-0.3206 -0.022843 -0.055232 0.01152 0.022864 0.025824 0.04506 0.011684 
-0.39623 -0.0057439 -0.080552 0.028454 0.04358 0.025988 0.027961 -0.0054151 
-0.56853 0.053938 -0.029255 0.065447 0.040456 0.017932 0.02533 -0.0050863 
-0.42533 0.070873 0.026317 0.033715 0.052787 0.042265 0.045224 0.040292 
-0.1552 0.068736 0.028125 0.032893 0.039963 0.029112 0.052623 0.078107 
0.0044497 0.10803 0.033551 0.049006 0.027961 0.030756 0.044731 0.060186 
0.082382 0.068407 0.0034632 0.041772 0.01711 0.051965 0.033715 0.051308 
0.29727 0.012342 0.0051074 0.037332 -0.0026201 0.025166 0.037168 0.054103 
0.50328 0.053445 0.06479 0.020562 0.043416 0.010204 0.019247 0.051801 
0.585 0.096193 0.089616 0.0324 0.034209 0.023193 0.021056 0.072188 
0.512 0.14338 0.033387 0.05476 0.051143 0.052294 0.022864 0.075805 
0.33673 0.17824 -0.017088 0.030592 0.041114 0.031414 0.044567 0.030427 
0.13516 0.1641 -0.051944 0.019905 0.029112 0.059857 0.045882 -0.0019624 
-0.061151 0.20175 -0.018239 0.012835 0.014808 0.038483 0.020562 -0.01939 
-0.21932 0.26833 -0.0098543 -0.0029489 0.0011614 0.017274 0.056404 -0.014787 
-0.33046 0.24022 0.014479 0.034044 0.017932 0.019083 0.0227 -0.054082 
-0.26798 0.17626 0.0051074 -0.0096899 0.028125 0.026317 -0.027775 0.0090533 
-0.17838 0.13483 0.010697 -0.0068948 0.028619 0.007738 -0.01117 0.018754 
-0.17114 0.11757 -0.042737 0.018589 0.056569 0.0088889 0.018096 0.018096 
-0.13399 0.019905 -0.014129 0.040785 0.028619 0.031742 0.028947 0.0592 
-0.0068948 -0.088608 0.0689 0.098988 0.048348 0.059693 0.04654 0.079422 
0.17281 -0.13086 0.077943 0.098166 0.056898 0.053281 0.052952 0.094548 
0.36435 -0.12231 0.0095465 0.076627 0.053938 0.04358 0.061172 0.073832 
0.44771 -0.12001 -0.019226 0.048019 0.03388 0.04654 -0.0024557 0.027961 
0.060515 -0.14336 -0.043724 -0.026624 0.015301 0.010862 0.0024767 -0.003771 
-0.41744 -0.16786 -0.056055 -0.051944 0.038812 -0.0049219 0.064625 -0.024816 
-0.48221 -0.029255 -0.06296 -0.013307 0.035524 0.031578 0.026974 -0.0090322 
-0.17871 0.23989 -0.083676 -0.0050863 0.033058 0.029605 0.012999 0.019411 
0.071531 0.38869 0.0041209 0.058213 0.035853 0.019905 0.031249 0.040785 
0.19484 0.39625 0.12283 0.026317 0.022864 0.057062 0.038977 0.041278 
0.1955 0.37044 0.21917 0.036346 0.011026 0.023522 0.027632 0.040292 
0.19385 0.29793 0.24351 0.062652 0.031249 0.014808 0.011684 0.039634 
0.13828 0.17791 0.22805 0.033058 0.023522 0.021549 0.017438 0.021056 
0.11198 0.0098754 0.13286 0.063639 0.036346 0.025659 0.013164 0.0052718 
0.03799 -0.1598 0.01563 0.044567 0.020562 0.013164 -0.006566 0.016781 
-0.024487 -0.25582 -0.087622 0.03799 0.02829 0.0014903 0.0082312 -0.0057439 
-0.045203 -0.26683 -0.085156 0.064625 0.025495 0.020727 0.010204 -0.011005 
-0.0090322 -0.24628 -0.051944 0.027468 0.026974 0.0011614 0.02122 0.0090533 
0.015137 -0.15585 -0.017088 0.0042853 0.017438 0.017767 0.014808 0.048019 
0.052294 -0.082032 0.047526 0.028125 0.032071 0.031249 0.015465 0.084519 
0.033058 -0.052602 0.065447 0.017438 0.04506 0.026152 0.032564 0.040785 
0.030263 -0.027611 0.082875 0.047033 0.035524 0.02681 0.030427 0.00050378 
0.017603 0.05476 0.10228 0.038319 0.011026 0.037004 0.021549 -0.037969 
0.068736 0.13368 0.11231 0.041607 0.019247 0.027632 0.011684 -0.02498 
0.12069 0.15555 0.10754 0.093069 0.019247 0.027796 0.019083 0.0079024 
0.17067 0.147 0.11707 0.052459 0.027961 0.0059294 0.021713 0.035853 
0.13746 0.04506 0.059035 0.0095465 0.037497 0.024673 0.0093821 0.047526 
0.096028 -0.010676 0.010862 0.040621 0.042429 0.011684 0.045224 0.041772 
0.059364 -0.04882 -0.017746 0.023686 0.041443 0.0079024 0.024344 0.057227 
0.034373 -0.11294 -0.038462 0.054925 0.03536 0.049006 0.024179 0.0689 
-0.015938 -0.15503 -0.03616 0.012342 0.020562 0.024015 0.046375 0.08567 
-0.14862 -0.19498 -0.018075 0.0070803 0.014479 0.012506 0.020069 0.070215 
-0.094199 -0.21882 -0.0072237 0.034209 0.023522 0.035031 -0.0067304 0.007738 
0.020398 -0.10784 0.027961 0.036346 0.031742 0.024673 0.0095465 0.0047785 
0.032236 -0.0013048 0.055254 0.0098754 0.061172 0.013986 0.041936 0.0056006 
0.043087 0.036182 0.049992 0.0028056 0.03388 0.018096 0.04506 -0.0044286 
0.10704 0.079258 -0.009361 0.00033937 0.0227 0.01826 0.037004 0.022535 
0.22937 0.11855 -0.010348 0.039963 0.018589 0.00297 0.0082312 0.037497 
0.43209 0.14996 0.078107 0.041278 0.029112 0.023193 0.042758 0.083533 
0.49917 0.2029 0.14881 0.054925 0.042429 0.051143 0.029112 0.10918 
0.34298 0.22164 0.14848 0.056569 0.031414 0.031578 0.027303 0.082875 
0.0324 0.15703 0.1294 0.013657 0.029934 0.031578 0.010862 0.046868 
-0.19794 0.11954 0.10162 0.023522 0.032236 0.035688 0.025988 -0.0040998 
-0.30169 0.12266 0.099481 0.010204 0.026974 0.0031344 0.0059294 0.011684 
-0.38472 -0.035832 0.082217 0.020891 0.031907 0.013164 0.010862 -0.0072237 
-0.51921 -0.27472 0.044896 0.075641 0.037661 0.019247 1.0539e-005 -0.017417 
-0.72966 -0.31238 0.013492 0.033387 0.01826 0.020398 0.028125 -0.0011404 
-0.49652 -0.16786 -0.052109 0.0047785 0.022535 -0.011498 0.029441 -0.019061 
0.025659 0.019411 -0.054575 0.021549 0.018425 0.012999 0.022535 0.037826 
0.36221 0.089945 -0.076935 -0.0016336 0.026481 0.035195 0.055582 0.074161 
0.37191 0.10293 -0.05737 0.034044 0.04506 0.027961 0.031249 0.04917 
0.36485 0.054432 0.015465 0.029605 0.0324 0.023357 0.028125 0.044896 
0.45741 0.052952 0.026317 0.02122 0.029769 0.038977 0.036182 0.020233 
0.4436 0.04506 0.023851 0.017767 0.011191 0.011191 0.02681 0.018425 
0.33772 0.086492 -0.018897 -0.018897 -0.029913 0.011355 -0.012978 -0.031228 
0.2708 0.16952 0.0087245 -0.011498 0.019247 0.01415 -0.0068948 -0.017088 
0.25074 0.1299 0.042429 0.015301 0.030427 0.036839 -0.00097594 0.023028 
0.16344 0.11214 0.017603 0.037661 0.065283 0.036839 0.053116 0.04358 
-0.12314 0.057062 -0.020048 0.068242 0.032071 0.035031 0.056404 0.023686 
-0.41119 0.065283 0.0079024 0.025001 0.029605 0.039141 0.035195 -0.024487 
-0.63068 0.17462 0.068242 0.02533 0.03388 0.020069 0.04095 -0.00015387 
-0.68822 0.35021 0.065118 0.038319 0.025166 0.021878 0.026317 0.035688 
-0.53105 0.37372 0.016288 -0.0026201 0.022206 0.011191 0.0064227 0.059857 
-0.2744 0.23907 0.01826 -0.0029489 0.014315 0.0036276 0.013164 0.078765 
-0.14139 0.25896 0.04917 -0.0095255 0.028619 -0.017911 0.011026 0.047855 
-0.061151 0.1271 0.054267 -0.0138 0.029112 0.024837 0.005765 0.00017495 
0.2052 -0.37929 0.027632 0.017274 0.010533 0.041114 0.023522 0.013986 
0.38688 -0.4518 0.052459 0.0014903 0.011191 0.018425 0.027468 0.0085601 
0.37931 -0.010676 0.090931 0.007738 0.013986 0.021384 0.051636 0.030098 
0.30549 0.30812 0.071366 0.027961 0.025001 0.01974 0.032893 0.046046 
0.19665 0.34216 0.033551 0.0324 0.036182 0.020398 0.035031 0.032729 
0.11346 0.22148 0.0026412 0.054596 0.053774 0.033222 0.045389 0.044238 
0.1026 0.036675 -0.0039354 0.061337 0.061172 0.049499 0.052623 0.035688 
0.091425 -0.10916 0.058049 0.069064 0.031085 0.036675 0.065447 0.035031 
0.035524 -0.32043 0.085012 0.074326 0.023028 0.016452 0.031742 0.011355 
0.061666 -0.47071 -0.017746 0.035524 0.021056 0.013328 0.039963 0.0019835 
0.039799 -0.35808 -0.069865 0.019905 0.0093821 0.016616 0.018425 0.040456 
0.03651 0.044567 -0.036325 0.036017 0.0083956 0.024179 0.044896 0.049499 
-0.0019624 0.38951 0.009711 0.0023123 0.032893 0.03388 0.056076 0.097344 
-0.080552 0.53353 0.044402 0.01415 0.058706 0.034702 0.052623 0.065612 
-0.11607 0.54669 0.047033 0.0079024 0.054103 0.029605 0.031085 0.040785 
0.01267 0.47352 0.044731 0.032893 0.059857 0.034537 0.039305 0.069722 
0.11378 0.33936 0.057062 0.061008 0.030098 0.046375 0.050157 0.061501 
0.22328 0.16327 0.021384 0.026646 0.032564 0.020562 0.043416 0.03388 
0.31618 0.047855 0.016616 0.041936 0.01826 0.018425 0.01974 -0.0098543 
0.18202 -0.031721 -0.032708 0.038648 0.026317 0.025495 0.0013258 -0.11212 
-0.071016 -0.19696 -0.023501 0.023851 0.032236 -0.0032777 -0.0029489 -0.18134 
-0.20879 -0.37173 0.064132 0.042758 0.025166 0.0059294 -0.0044286 -0.11228 
-0.15437 -0.58481 0.089616 0.037661 0.023028 0.044731 0.0042853 0.056569 
-0.027611 -0.64811 0.089123 0.026974 0.013986 0.016616 0.025824 0.12332 
0.049992 -0.46084 0.12431 0.035853 0.0011614 0.025166 0.047362 0.16031 
0.14371 -0.082032 0.058542 0.017932 0.01711 0.024508 0.048348 0.1493 
0.19829 0.20438 0.049335 0.05065 0.023851 0.029769 0.03799 0.086163 
0.21983 0.33081 0.067585 0.034044 0.029605 0.0088889 0.038648 0.0421 
0.20635 0.31766 0.049992 0.040785 0.033387 0.0047785 0.0227 0.0056006 
0.16771 0.2708 0.038483 0.058049 0.034209 0.040621 0.025824 0.0054362 
0.10458 0.15357 0.0082312 0.01152 0.049664 0.039634 0.023851 0.039634 
0.078765 0.087314 0.041772 0.016781 0.037497 0.033058 0.06331 0.041772 
0.070708 0.14897 0.073504 0.042758 0.021056 0.047691 0.03947 0.051965 
0.082382 0.20536 0.038155 0.064132 0.036346 0.023851 0.021384 0.027303 
0.053938 0.19501 -0.062302 0.065776 0.050486 0.023028 0.021713 0.0062583 
-0.017253 0.10737 -0.091404 0.020727 0.054596 0.018754 0.019905 -0.010183 
-0.016266 -0.0050863 -0.057699 0.00017495 0.034373 0.026317 0.010862 -0.0042642 
-0.069043 -0.04619 -0.018568 0.044731 0.01563 0.032071 0.031085 0.03947 
-0.14221 0.018918 0.0087245 0.031578 0.024508 0.03092 0.040128 0.040785 
-0.10242 0.12003 0.076956 0.023193 -0.0026201 0.036839 0.03651 0.045389 
-0.020212 0.11428 0.10129 0.025988 0.026317 0.01711 0.02829 0.04654 
0.15867 0.061501 0.088301 -0.0044286 0.032236 0.035195 0.027139 0.069064 
0.32489 -0.012814 0.082546 0.041443 0.035853 0.029276 0.031085 0.082711 
0.25699 -0.10028 0.088465 0.013986 0.040456 0.017932 0.014972 0.023522 
0.16311 -0.13843 0.086657 0.014643 0.015137 0.0046141 0.0018191 -0.0068948 
0.20339 -0.1455 0.022864 0.033222 0.022206 0.005765 0.0095465 0.01711 
0.30401 -0.088773 0.080738 0.032071 0.03799 0.022864 0.045224 0.074161 
0.39592 0.0075736 0.10589 0.059364 0.058542 0.033715 0.064132 0.11724 
0.44804 0.051472 0.039305 0.016945 0.04506 0.0227 0.026317 0.046868 
0.40874 0.079094 -0.037969 -0.015938 0.031085 0.0088889 0.00066819 -0.063946 
0.19303 0.14519 0.00033937 0.039141 0.028783 -0.015116 -0.025802 -0.15881 
-0.29676 0.24088 -0.016924 0.020069 0.01563 -0.011334 -0.040928 -0.17082 
-0.67918 0.36649 -0.020706 0.03799 -0.012814 0.0079024 -0.017088 -0.073811 
-0.80299 0.34133 0.0032988 0.058213 -0.0026201 0.00297 0.017438 0.024837 
-0.73163 0.15357 -0.014458 0.065283 0.016452 0.023357 0.014315 0.1026 
-0.80266 -0.045861 -0.10308 0.0592 0.017767 0.039141 0.034044 0.10852 
-0.93879 -0.1381 -0.15043 0.024344 0.041443 0.030263 0.036346 0.07597 
-0.46709 -0.10867 -0.08384 -0.0004827 0.046868 0.020069 0.035195 0.06035 
0.37142 -0.031228 0.047197 0.0018191 0.039799 0.0064227 0.045882 0.044238 
0.77013 0.11181 0.1636 -0.015609 0.01267 0.036346 0.018589 0.092576 
0.7989 0.24762 0.23397 0.0021479 0.011684 0.023686 0.069393 0.11543 
0.61854 0.22246 0.2103 0.038812 0.028619 0.017274 0.048677 0.066927 
0.37718 0.11658 0.11954 0.023522 0.03388 0.014479 0.060844 0.029769 
0.18021 0.014479 0.0037921 0.035688 0.029934 0.037497 0.02829 0.0016547 
0.0090533 -0.079401 -0.012649 0.026317 0.042923 0.04654 0.045882 -0.013143 
-0.072003 -0.11491 0.0016547 0.04654 0.035195 0.029276 0.023028 -0.019061 
-0.099295 -0.10982 0.019576 0.087972 0.017932 0.026481 0.023357 0.00297 
-0.11146 -0.054904 -0.013965 0.060515 0.0054362 0.0072447 0.0088889 0.034537 
-0.098967 0.022206 -0.033365 0.04095 0.014315 0.004943 0.044238 0.027961 
-0.053095 0.10704 -0.065755 0.014972 0.015794 0.012013 0.024673 0.048841 
-0.037969 0.13549 -0.029913 0.0037921 0.019576 0.021549 0.019905 0.045553 
-0.062796 0.19879 0.071859 0.040456 0.010533 0.023851 0.0421 0.04358 
-0.075784 0.26209 0.14897 0.013657 0.0227 0.037168 0.032236 0.0421 
-0.064604 0.22279 0.14568 0.0092177 0.043087 0.0088889 0.032236 0.010369 
-0.044052 0.11642 0.13532 0.056898 0.036346 0.024015 0.029112 0.030263 
0.033222 0.084848 0.14174 0.055418 0.043087 0.053774 0.065447 0.043745 
0.020069 -0.0064016 0.072024 0.031907 0.03092 0.023522 0.037661 0.030427 
-0.028926 -0.11426 -0.044052 0.007738 -0.010841 -0.004593 0.028947 0.05772 
-0.067728 -0.16095 -0.074633 -0.034188 -0.014787 0.0014903 0.015137 0.0023123 
-0.089431 -0.24497 -0.085813 0.0014903 0.013328 0.020233 0.03651 0.013164 
-0.087458 -0.2397 -0.080552 0.0083956 0.053609 0.018425 0.030098 0.038319 
-0.029584 -0.080881 -0.061645 0.016123 0.063474 0.046211 0.030263 0.049006 
0.044238 0.026646 -0.013307 0.025988 0.049992 0.033551 0.037826 0.041278 
0.20586 0.11642 0.073668 0.073832 0.055089 0.02122 0.037826 0.013986 
0.25206 0.15834 0.13187 0.069722 0.025166 0.0079024 0.024508 -0.011827 
0.016123 0.033387 0.11658 0.048019 0.015959 0.028125 0.031578 -0.03501 
-0.11787 -0.053095 0.11296 0.03799 0.020891 0.023851 0.053116 -0.015773 
0.005765 0.20027 0.095206 0.04654 0.048841 0.022535 0.043416 0.046211 
0.1567 0.4584 0.076134 0.025166 -0.0083746 0.036839 0.016123 0.078765 
0.2925 0.5046 0.061337 0.017603 0.032071 0.033387 0.040785 0.11263 
0.26422 0.44952 0.047855 0.034702 0.021056 0.027632 0.064954 0.1225 
0.076299 0.25354 -0.042408 -0.012156 0.023028 0.014972 0.021384 0.061172 
-0.0072237 -0.0027845 -0.16605 -0.03205 0.021384 0.0016547 -0.0040998 0.0080668 
-0.058356 -0.1935 -0.24628 -0.030899 0.028947 0.00017495 -0.0055795 -0.030242 
-0.21554 -0.46396 -0.15405 0.00297 0.033387 0.020562 -0.0072237 -0.042244 
-0.19794 -0.55258 -0.0064016 0.042265 0.014972 0.021384 -0.0042642 -0.024158 
-0.1113 -0.55834 0.15538 0.041114 0.036182 0.0227 0.022864 0.020562 
-0.067892 -0.70598 0.183 0.029112 0.024015 0.026481 0.04654 0.057555 
-0.028433 -0.62065 0.18119 -0.0014692 0.017603 0.057391 0.04506 0.068078 
0.17692 0.00066819 0.19057 0.0087245 0.0046141 0.011684 0.026317 0.061172 
0.44541 0.52087 0.17659 0.078436 0.038812 0.02122 0.049499 0.035031 
0.43768 0.6774 0.13319 0.064625 0.067913 0.035031 0.053609 0.052459 
0.31897 0.65241 0.081889 0.090274 0.055747 0.0421 0.044731 0.044731 
0.13302 0.40266 0.03536 0.082382 0.048019 0.020562 0.047526 0.045882 
0.010697 0.26554 -0.011005 0.039799 0.025824 0.022371 0.035524 0.012342 
-0.054246 0.17462 -0.070523 0.015794 0.042429 0.0021479 0.010204 -0.029255 
-0.086142 0.057555 -0.066577 0.00297 0.016616 0.01152 -0.0036066 -0.025309 
-0.12034 -0.024816 0.063474 0.029441 0.024508 -0.0032777 0.012999 -0.0087034 
-0.11524 -0.13399 0.12332 0.046868 0.019247 0.018096 0.023851 -0.019226 
-0.049971 -0.41809 0.047362 0.0095465 0.00099702 -0.0052507 -0.0059084 0.018425 
0.031578 -0.53433 -0.109 -0.0083746 0.0037921 -0.0011404 0.0072447 0.026481 
0.10819 -0.21537 -0.13103 0.0059294 0.01974 0.034537 0.042594 0.044402 
0.087314 0.074983 -0.065591 -0.0013048 0.013657 0.021056 0.035524 0.047691 
0.054103 0.11313 -0.035503 0.024837 0.034373 0.024837 0.01974 0.021384 
0.06742 0.14321 -0.02646 -0.0026201 0.020891 0.023686 0.012835 0.058377 
0.12529 0.19007 0.013164 0.047033 0.02533 0.032236 0.040785 0.075476 
0.30286 0.17791 0.0689 0.085177 0.046046 0.027303 0.034209 0.073175 
0.50657 0.15933 0.13154 0.064296 0.048348 0.036182 0.037004 0.079422 
0.3849 0.07301 0.092247 0.023028 0.022206 0.037332 0.022206 0.038977 
0.1202 -0.010183 0.039799 0.0019835 0.017603 0.022206 0.031578 0.012177 
0.016781 0.018425 0.078436 0.0046141 0.027303 -0.0088678 0.015301 -0.017746 
-0.085156 0.095535 0.10145 0.06331 0.029276 0.034537 0.015794 0.0052718 
-0.32553 0.10573 0.16475 0.061172 0.036675 0.040128 0.024015 0.017932 
-0.66077 0.11839 0.14798 0.070215 0.058871 0.027632 0.04095 0.014972 
-0.76501 0.084519 0.066598 0.098659 0.073997 0.041607 0.036017 0.034537 
-0.4125 0.045718 0.032071 0.042758 0.031249 0.017438 0.029769 0.027796 
-0.019061 0.029934 -0.012978 0.025001 0.0072447 -0.0057439 0.034373 0.022206 
0.08419 0.02681 -0.045203 0.00033937 -0.0060728 0.015959 0.017603 0.015301 
0.08419 0.10935 -0.041422 0.020233 0.013328 0.025495 -0.0055795 0.03799 
0.33443 0.21474 0.033058 0.06742 0.035195 0.032564 0.03092 0.08567 
0.69976 0.33739 0.10655 0.037661 0.066598 0.045718 0.050979 0.085177 
0.72146 0.32095 0.084684 0.0592 0.066105 0.049828 0.034537 0.099645 
0.42962 0.23085 0.033715 0.043416 0.026974 0.033058 0.015465 0.055089 
0.058871 0.10902 -0.014787 -0.0027845 0.0070803 0.013821 0.016781 -0.00031829 
-0.15964 -0.028433 -0.069865 0.0051074 -0.006566 -0.0039354 0.022371 -0.029913 
-0.10801 -0.11623 -0.13415 -0.042244 -0.010019 0.0032988 0.016781 -0.050958 
0.062159 -0.12971 -0.12281 -0.02087 0.00099702 -0.00015387 0.0065871 -0.014129 
0.17166 -0.084169 -0.018733 0.045718 0.038483 0.051801 0.01267 -0.0068948 
0.10951 -0.1358 0.065447 0.0421 0.06742 0.03388 0.019905 0.045718 
-0.037969 -0.12067 0.14157 0.059857 0.036839 0.046375 0.02829 0.095864 
-0.10045 0.11526 0.20109 0.051965 0.021713 0.029769 0.041278 0.049499 
-0.11853 0.29398 0.17018 0.012835 0.0079024 0.013492 0.0592 0.032236 
-0.13908 0.30993 0.14798 0.05772 0.039634 0.029441 0.041772 0.0016547 
-0.09239 0.3101 0.15111 0.040785 0.027139 0.016288 0.052294 0.024837 
-0.035338 0.25584 0.095864 0.039634 0.032893 0.045882 0.043745 0.0592 
-0.048492 0.26505 0.065612 0.028125 0.04095 0.043745 0.028125 0.03536 
-0.03912 0.17856 -0.040928 -0.0024557 0.023193 0.026974 0.013492 0.05476 
-0.076277 0.049828 -0.12379 -0.00015387 0.021384 0.027796 0.0227 0.035524 
0.028783 0.024344 -0.13399 0.014479 0.011684 0.029769 0.034537 0.04095 
0.14239 -0.0013048 -0.10258 0.014479 -0.0062372 0.012013 0.03947 0.029112 
-0.080223 -0.050464 -0.027447 0.044073 0.016288 0.013492 0.016123 0.01004 
-0.40691 -0.024652 0.050321 0.0087245 0.018918 0.019247 0.0056006 0.012342 
-0.23888 -0.022021 0.07597 0.015959 0.024673 0.0054362 0.038319 0.024344 
0.11707 -0.024652 0.063639 0.027468 0.033551 0.0092177 0.036675 0.047362 
0.21194 -0.055561 0.045224 -0.0013048 0.0026412 0.053281 0.01826 0.041443 
0.25008 -0.11097 0.0088889 0.034209 0.004943 0.0052718 0.0052718 -0.037476 
0.22855 -0.060494 0.025824 0.0060938 0.00050378 -0.022514 0.0044497 -0.028104 
0.10819 0.020398 0.061008 0.018589 0.015137 0.01974 0.016452 -0.018075 
0.023851 0.011355 0.084684 0.046704 0.013164 0.010697 0.035031 0.00099702 
0.033551 0.0044497 0.10408 0.028125 0.051801 0.020069 0.036346 0.039141 
0.037168 0.039963 0.095699 0.033551 0.045553 0.028783 0.05476 0.023686 
0.025824 0.035031 0.047197 0.036839 0.030756 0.034373 0.033715 0.043251 
0.057884 0.050321 0.01974 0.046704 0.043416 0.017603 0.049335 0.045389 
0.068407 0.067749 0.085999 0.051801 0.035853 0.014479 0.049992 0.046868 
0.029276 0.061995 0.093233 0.027303 0.029276 0.043745 0.051308 0.052952 
0.0080668 -0.027118 -0.0059084 0.029605 0.030756 0.01974 0.023686 0.026646 
0.011848 -0.026296 -0.077428 0.025001 0.028619 0.022206 0.011355 0.040785 
0.02533 0.014643 -0.06444 -0.00064712 0.031578 0.040456 0.034373 0.030756 
0.037332 0.083862 -0.0044286 -0.0068948 0.030756 0.025659 0.028619 0.047362 
0.051472 0.097837 0.051636 0.018589 0.014808 0.016781 0.022864 0.079094 
0.052623 0.079422 0.054432 0.01267 0.024179 0.031249 0.035524 0.040621 
0.039141 0.0088889 0.028454 0.012342 0.026481 0.044402 0.013164 0.030263 
-0.02498 -0.0073881 0.025166 0.013657 0.032893 0.016781 0.013164 -0.0019624 
-0.072003 -0.008539 0.048184 0.044073 0.038483 0.015301 0.013164 -0.00015387 
-0.10193 -0.050958 0.070708 0.090767 0.0421 0.032729 0.040456 0.02533 
-0.11146 -0.067399 0.047197 0.069064 0.044567 0.034702 0.045718 0.023851 
-0.081045 -0.076277 0.052294 0.052459 0.0227 0.017767 0.036839 0.053116 
-0.0057439 -0.064768 0.02681 0.014315 0.013492 0.027303 0.031742 0.012506 
0.05065 -0.13612 -0.015444 0.0082312 0.021549 0.010862 0.029441 -0.0013048 
0.10293 -0.21586 -0.063946 0.056733 0.039634 0.027632 0.0074092 -0.0047575 
0.2634 -0.10587 -0.033859 0.014808 0.029605 0.035031 0.036675 0.027468 
0.37931 0.21704 -0.055232 -0.010183 0.034044 0.037497 0.052952 0.043909 
0.28494 0.41368 -0.013143 0.042923 0.041114 0.024673 0.032071 0.055254 
0.15867 0.42666 -0.015444 0.020562 0.025988 0.038483 0.0324 0.020069 
0.10211 0.37915 0.009711 0.032729 0.014315 0.029441 0.027468 0.01711 
0.080409 0.33887 -0.0095255 0.017767 0.0072447 0.022864 0.037332 0.029441 
0.024344 0.21391 0.047197 0.019576 0.0090533 0.01267 0.030427 0.065776 
-0.11228 0.060186 0.081395 0.048019 0.032729 0.046211 0.031085 0.061666 
-0.17147 -0.032543 0.12447 0.040621 0.015137 0.038155 0.021549 0.058542 
-0.26354 -0.20271 0.077614 0.013821 0.052623 0.029934 0.031414 0.021713 
-0.31616 -0.40132 -0.0090322 0.0087245 0.036182 0.0080668 0.0064227 -0.010676 
-0.31205 -0.58662 -0.094199 -0.016595 0.0090533 -0.0034422 -0.013471 -0.045039 
-0.22885 -0.52743 -0.076442 0.022371 0.0083956 -0.014129 0.0062583 -0.027447 
0.03651 -0.1381 -0.0014692 0.0023123 0.012835 0.022535 0.017603 0.011355 
0.3364 0.25469 0.073175 0.04095 0.043087 0.019411 0.045553 0.092904 
0.56362 0.41532 0.12316 0.082382 0.062981 0.036182 0.059364 0.12694 
0.48207 0.45938 0.20964 0.085012 0.076956 0.039799 0.067585 0.09685 
0.26258 0.4025 0.12398 0.073339 0.051472 0.037826 0.03651 0.047197 
0.020727 0.27047 0.0095465 0.01415 0.013821 -0.0055795 0.011848 -0.0042642 
-0.071181 0.26307 0.0047785 -0.021528 -0.010676 0.0067515 -0.0016336 -0.041751 
0.23167 0.29415 0.047197 0.02533 0.0014903 0.027303 0.024508 -0.024158 
0.40332 0.13878 0.07038 0.0092177 0.015465 0.016123 0.021878 -0.066248 
0.013164 0.021056 0.038812 0.011191 0.027796 0.013657 0.0065871 -0.12116 
-0.32405 -0.023172 -0.040435 0.020398 0.02829 0.0037921 0.026152 -0.02235 
-0.31632 -0.10554 -0.095843 0.0023123 0.038812 0.026646 0.019576 0.060186 
-0.13727 -0.19005 -0.087786 0.029112 0.037332 0.027139 0.022042 0.10589 
-0.077593 -0.26223 -0.080388 0.0421 0.027139 0.02533 0.024508 0.11822 
-0.068386 -0.37304 -0.066084 0.023193 0.017274 0.046375 0.055747 0.08419 
-0.22228 -0.30087 0.032236 0.040456 0.016288 0.023028 0.036017 0.062981 
-0.43125 -0.34855 0.065776 0.0056006 -0.0011404 0.0093821 0.030263 0.023028 
-0.067235 -0.53269 0.057555 0.013986 0.0067515 0.029441 0.0074092 -0.0016336 
0.40414 -0.19466 0.080573 0.032729 0.04358 0.007738 0.031249 0.03799 
0.41581 0.40957 0.093233 0.012506 0.028125 0.0088889 0.016123 -0.010676 
0.1955 0.63235 0.10524 0.0087245 0.0062583 0.028619 0.009711 -0.019226 
0.076134 0.56 0.063968 -0.022514 0.012999 0.027303 0.024015 0.00050378 
0.014972 0.44837 0.021878 0.017932 0.020891 0.025001 0.053445 0.029276 
0.022864 0.36271 -0.0073881 0.05213 0.033551 0.025988 0.037168 0.053281 
-0.02087 0.30089 -0.042901 0.045882 0.035524 0.033387 0.034537 0.038812 
-0.077922 0.22592 0.025001 0.047197 0.02829 0.013657 0.053938 0.024508 
-0.051944 0.10984 0.11461 0.029934 0.028125 0.01415 0.0067515 0.00050378 
-0.00097594 -0.11935 0.075148 -0.017417 0.04095 0.052459 -0.030735 -0.025638 
0.023851 -0.2744 0.073339 0.094055 0.058049 0.029441 0.018096 0.027796 
0.020069 -0.32553 0.13664 0.13894 0.063639 0.055418 0.091918 0.10869 
-0.02794 -0.29297 0.1442 0.093069 0.055089 0.038155 0.048184 0.05213 
-0.0034422 -0.19104 0.070873 0.032071 -0.016431 0.00017495 0.012835 0.028783 
0.057062 -0.090746 0.0227 -0.015773 -0.0042642 -0.017582 0.0051074 0.030427 
0.1419 -0.085649 -0.027775 0.0088889 0.02533 -0.020048 0.028783 0.052952 
0.16344 -0.10308 -0.096336 -0.014129 0.020891 0.019247 0.025988 0.050157 
0.052623 -0.037805 -0.078908 0.0011614 0.031249 0.020562 0.036017 0.048841 
-0.09387 0.12398 -0.0057439 0.043251 0.031249 0.037497 0.054925 0.0080668 
-0.16342 0.26373 0.079587 0.044567 0.024837 0.036675 0.034373 0.010533 
-0.086307 0.29086 0.089452 0.019576 0.019411 0.024673 0.018096 0.01826 
0.086657 0.27228 0.014315 0.036182 0.035524 0.020398 0.024673 0.017603 
0.16163 0.17166 -0.017088 0.023357 0.03651 0.024344 0.05065 0.057062 
0.20898 0.1613 0.049664 0.059035 0.032236 0.022206 0.044896 0.084519 
0.28001 0.19172 0.12118 0.011355 0.028947 0.012342 0.025001 0.085177 
0.37224 0.1978 0.10178 0.0056006 0.018589 0.026974 0.032893 0.079916 
0.25206 0.15719 0.057884 0.031249 0.02533 0.017767 0.036017 0.085506 
-0.079072 0.031742 -0.018239 0.015301 0.0227 0.0037921 0.015465 0.043745 
-0.23198 -0.098638 -0.060823 0.031085 0.023522 0.0011614 0.014315 0.015794 
-0.23987 -0.1159 -0.053753 0.036017 0.028947 0.021549 0.028125 0.02681 
-0.19137 -0.034352 0.00066819 0.041607 0.047855 0.01711 0.018918 0.038648 
-0.065919 0.071202 0.028454 0.060022 0.0324 0.01826 0.036346 0.044731 
0.04654 0.1465 0.044731 0.032071 0.046375 0.034866 0.035688 0.084848 
0.13368 0.14568 0.042429 0.019247 0.026481 0.038648 0.042429 0.04358 
0.083368 0.13713 0.055254 0.026481 0.038812 0.0080668 0.0024767 -0.010841 
-0.098638 0.15999 0.08156 0.00066819 0.027468 0.00083261 0.004943 -0.028762 
-0.15322 0.17445 0.088465 0.04506 0.028619 0.022371 0.013164 -0.00097594 
-0.085485 0.16886 0.049006 0.02533 0.053445 0.0092177 0.044731 0.050814 
-0.037476 0.15275 0.011191 0.020069 0.064625 0.021713 0.034044 0.07038 
-0.07562 0.090603 0.043251 0.077121 0.037168 0.040456 0.034209 0.050321 
0.0060938 0.053609 0.091589 0.047691 0.031414 0.017932 0.046704 0.023357 
0.2759 0.10113 0.13203 0.016616 0.012835 0.013328 0.033715 -0.024487 
0.39411 0.078436 0.1756 0.024508 0.010697 0.019083 0.020398 0.0021479 
0.30187 -0.023007 0.14042 0.021878 0.022864 0.019905 0.02829 0.016945 
0.1419 -0.065426 0.0065871 0.029934 0.044731 0.004943 0.027632 0.047362 
0.04506 -0.05589 -0.058356 0.017603 0.054267 0.044567 0.016123 0.046704 
-0.051122 -0.02235 -0.059672 0.025824 0.028947 0.036839 0.041936 0.032893 
-0.10521 -0.03353 -0.039284 0.0024767 0.013492 -0.012156 0.0023123 0.043087 
-0.086307 0.019247 -0.065755 -0.0073881 0.0046141 0.0016547 0.022042 0.0082312 
-0.028597 0.099152 -0.046354 -0.014951 0.0031344 0.023028 -0.0070593 0.016452 
-0.010183 0.14157 -0.0026201 0.005765 0.019247 0.0052718 0.020891 0.04358 
0.062817 0.14026 0.018918 0.014479 0.023357 0.031907 0.044896 0.049006 
0.086163 0.10902 0.051143 0.041114 0.032236 0.041772 0.022864 0.056569 
0.093891 0.14617 0.048348 0.013821 0.025166 0.028619 0.03092 0.0074092 
0.096521 0.17577 -0.0098543 0.022371 0.0085601 0.020233 0.010862 0.0032988 
0.051143 0.171 -0.082361 0.037332 0.019083 0.04506 0.037332 0.014808 
0.026481 0.18366 -0.071838 0.044073 0.041114 0.041114 0.038319 0.01152 
0.013492 0.11658 -0.014458 0.048184 0.043087 0.017767 0.029441 0.020233 
-0.0019624 0.010204 0.1003 0.028783 0.030592 0.0044497 0.0074092 -0.0014692 
-0.017582 -0.031064 0.17791 0.037497 0.031414 0.015465 0.029112 -0.0029489 
0.01711 -0.076277 0.11707 0.057555 -0.006566 0.017438 0.020562 0.0019835 
0.027139 -0.11771 0.10918 0.027468 0.011684 0.0059294 0.016781 0.011848 
-0.045039 -0.16934 0.10145 0.036839 0.014808 0.033222 0.014808 -0.0032777 
-0.11261 -0.26568 0.1391 0.020727 0.015301 0.019576 0.020398 -0.036654 
-0.094363 -0.33211 0.12562 0.0021479 0.026974 0.022042 0.0054362 0.0059294 
-0.04882 -0.32323 -0.068386 0.033715 0.030592 0.030263 -0.0011404 0.054432 
0.065118 -0.1695 -0.20025 0.018754 0.053116 0.03799 0.048348 0.091918 
0.147 0.037826 -0.16046 0.034702 0.047033 0.038812 0.041772 0.11083 
0.13467 0.159 -0.056877 0.047526 0.031249 0.053938 0.043251 0.050321 
0.099645 0.17084 0.010204 -0.0042642 0.013164 0.020562 0.031742 0.0019835 
0.19484 0.1784 0.10376 -0.017088 0.0026412 -0.0052507 0.040128 -0.00097594 
0.50164 0.12957 0.1396 0.012342 -0.013965 0.0044497 0.010533 0.015137 
0.70929 0.043416 0.13154 0.027961 0.017767 0.033551 0.018754 0.066763 
0.61081 0.013821 0.18498 0.08978 0.048348 0.033551 0.053938 0.017274 
0.2297 0.11658 0.20882 0.076956 0.048184 0.019411 0.024673 -0.064275 
-0.26322 0.15587 0.14206 0.05476 0.03651 0.034373 0.0060938 -0.11376 
-0.58563 0.08419 0.039141 0.046046 0.016781 0.016452 0.0060938 -0.064604 
-0.70697 0.11576 -0.018404 0.031742 0.021384 0.017767 0.057062 0.021384 
-0.80299 0.10672 -0.084169 0.026974 0.023028 0.044731 0.030592 0.072846 
-0.92728 -0.051451 -0.052273 -0.0026201 0.01974 0.040456 0.033058 0.087479 
-0.60618 -0.18397 -0.033365 0.00099702 0.021384 0.023522 0.03388 0.09126 
0.2999 -0.22425 -0.026296 0.040128 0.035853 0.031578 0.052459 0.12529 
0.9786 -0.29922 0.0080668 0.031578 0.040292 0.058871 0.051472 0.13467 
1.0957 0.0088889 0.073668 0.048677 0.015794 0.035195 0.032236 0.098823 
0.82225 0.38063 0.10819 0.031249 0.0088889 0.017438 0.046704 0.053281 
0.36024 0.16886 0.082875 0.023686 0.012835 0.031742 0.020727 0.025659 
-0.015444 -0.3104 -0.026624 0.020398 0.012835 0.017438 0.0047785 0.01415 
-0.12067 -0.28706 -0.079895 -0.019555 -0.0040998 -0.02498 0.020069 0.022206 
-0.20847 -0.091732 -0.069536 -0.01939 0.0088889 0.012342 -0.00081153 -0.048985 
-0.40954 0.093562 0.011848 0.01004 0.033058 0.01267 -0.0004827 -0.06855 
-0.26946 0.17199 0.056076 0.046868 0.055089 0.0075736 0.0011614 -0.034188 
-0.1381 0.18399 0.097508 0.057391 0.031578 0.02533 0.00083261 -0.04619 
-0.17657 0.18383 0.10359 0.045553 0.029769 0.01974 0.017274 -0.047669 
-0.12018 0.15703 0.098166 0.019576 0.011684 0.011684 0.023357 0.027632 
-0.025967 -0.031228 0.080738 0.019247 0.033715 0.0064227 0.0421 0.087643 
0.023193 -0.1136 0.069722 0.039305 0.051965 0.04917 0.066927 0.067913 
0.044073 0.01267 0.049499 0.049828 0.063639 0.021384 0.020069 0.031414 
0.015465 0.12118 -0.0098543 0.042429 0.04917 0.0085601 0.010862 0.024015 
0.034702 0.21917 -0.017746 0.027468 0.027303 0.053609 0.038977 0.043087 
0.062159 0.27179 -0.032872 0.036839 0.024508 0.040621 0.060515 0.074819 
0.075148 0.19879 -0.03764 0.01152 0.031578 0.036182 0.064954 0.044731 
0.075148 0.11231 -0.011498 0.025001 0.029276 0.026974 0.041607 0.068736 
0.069886 0.089287 0.028619 0.057555 0.045553 0.024508 0.013986 0.08008 
0.047855 0.047033 -0.0062372 0.013492 0.045389 0.011355 0.039963 0.04506 
0.025824 0.032071 -0.016431 0.0095465 0.058213 0.0056006 0.04358 0.053445 
-0.028597 0.060515 0.0092177 0.010204 0.0093821 0.029276 0.022864 0.031907 
-0.065591 0.062652 0.045389 0.0079024 0.023357 0.024837 0.035031 0.042758 
-0.056219 0.040292 0.076299 0.03947 0.030263 0.022371 0.0064227 0.046375 
-0.065591 0.04654 0.066105 0.02681 0.030263 0.035853 0.01563 0.022371 
-0.01528 0.014808 0.078107 0.044073 0.033551 0.021384 0.036839 0.02122 
0.075312 -0.013471 0.054432 0.032564 0.032564 0.00017495 0.021056 0.011191 
0.1858 0.0016547 -0.017088 -0.0039354 0.038812 0.026152 0.038483 0.019576 
0.28099 0.078765 -0.045368 0.026481 0.018754 0.034866 0.022371 0.051801 
0.35482 0.14634 -0.052273 0.029276 0.035524 0.019247 0.0023123 0.03651 
0.41631 0.18317 -0.060165 0.0056006 0.012506 0.0024767 0.0016547 -0.003771 
0.30451 0.13976 -0.033201 0.043416 0.020562 0.019576 -0.008539 -0.032379 
-0.072989 0.033551 0.011026 0.023522 0.011684 0.010862 -0.001798 -0.046683 
-0.38406 -0.017417 0.034866 0.024673 0.022864 0.023357 0.03092 -0.0039354 
-0.40083 0.046211 0.066598 0.030427 0.03651 0.037826 0.031742 0.027961 
-0.17345 0.14157 0.085012 0.01415 0.03388 0.022042 0.037004 0.077943 
0.068242 0.20306 0.070215 0.04358 0.029605 0.031249 0.042758 0.077614 
0.12398 0.19977 0.10474 0.062981 0.051143 0.066434 0.072681 0.1054 
0.14617 0.18432 0.085999 0.043745 0.040621 0.034044 0.049664 0.09981 
0.13993 0.15012 0.062159 0.065612 0.042265 0.03092 0.038648 0.06035 
0.15374 0.095206 -0.0047575 0.018096 0.021056 0.032893 0.051143 0.049335 
0.21342 0.086821 -0.022514 0.014643 0.022206 0.035031 0.052294 0.036346 
0.25584 0.078436 -0.0022913 0.033387 0.026317 0.051472 0.010204 0.038155 
0.15752 0.056404 0.051965 0.012506 0.0095465 0.0093821 0.011684 0.019247 
0.060515 -0.034681 0.068078 0.013492 0.018589 0.031907 0.009711 0.033058 
0.085177 -0.024816 0.009711 0.0072447 0.019411 0.0054362 0.023028 0.03651 
0.19747 0.0047785 0.064461 0.0087245 0.027796 0.027139 0.018096 0.028125 
0.070051 0.10918 0.10918 0.045389 0.028783 0.024344 0.015465 0.022042 
-0.024323 0.20109 0.15193 0.036182 0.018918 0.012835 0.036839 -0.011992 
-0.058028 0.21408 0.12398 0.029769 0.040621 0.013986 0.020727 0.0227 
-0.052437 0.1276 0.066269 0.051965 0.035031 0.033058 0.031578 0.060022 
-0.059014 0.0041209 0.051636 0.033387 0.029276 0.033222 0.028619 0.04095 
-0.032708 -0.074633 0.047197 0.072681 0.023522 0.030098 0.036839 0.015794 
0.012177 -0.096007 0.02681 0.036346 0.01415 0.039963 0.030592 0.0028056 
0.075148 -0.058028 -0.026296 0.042429 0.030592 0.04506 0.035853 0.022042 
0.21704 -0.017746 -0.1016 0.049664 0.032071 0.014643 0.050979 0.066598 
0.53534 -0.025309 -0.10604 0.0059294 0.040785 0.015465 0.038155 0.069393 
0.6501 -0.12248 -0.020048 0.0054362 0.050321 0.033058 0.020562 0.063639 
0.36846 -0.35134 0.057884 0.005765 0.02533 0.034702 0.045718 0.024179 
-0.028597 -0.34789 0.083697 -0.0014692 0.018425 0.0079024 0.053116 0.013328 
-0.28689 0.044073 0.1368 0.014972 0.010862 0.02829 0.014315 -0.0075525 
-0.37535 0.44738 0.14864 -0.011005 0.01711 0.0046141 -0.018239 -0.00031829 
-0.40067 0.43258 0.13401 -0.00015387 0.021878 -0.010841 -0.0088678 0.030263 
-0.56804 0.15472 0.14782 0.060515 0.028619 -0.0026201 0.013164 -0.0004827 
-0.88322 -0.080059 0.11263 0.074819 0.045718 0.014479 0.017932 -0.037476 
-0.77323 -0.25483 0.073668 0.096521 0.034044 -0.0067304 0.0079024 -0.04471 
-0.30531 -0.32142 -0.032215 0.087972 0.024344 0.013492 0.02122 -0.052766 
0.18383 -0.30152 -0.1182 0.057227 0.019083 0.022371 0.0037921 -0.028433 
0.45133 -0.26256 -0.1062 0.047033 0.015137 0.021878 0.0036276 0.0069159 
0.55063 -0.15421 -0.037805 0.0070803 0.026646 0.036017 0.043745 0.051636 
0.61689 -0.01232 0.025824 -0.0022913 0.048677 0.044073 0.054267 0.063145 
0.56592 0.11609 0.12381 0.017603 0.049499 0.0090533 0.040621 0.056569 
0.38803 0.15768 0.12168 0.0074092 0.021056 0.016123 0.036182 0.066105 
0.10474 0.16656 0.082053 0.032893 0.0052718 0.025988 0.04095 0.062652 
-0.12248 0.11083 0.058377 0.0085601 0.0075736 0.020069 0.023357 0.064132 
-0.28327 0.15555 0.033551 0.0070803 0.0095465 0.01152 0.013657 0.05624 
-0.3497 0.22164 0.04917 0.016945 0.0065871 0.0037921 0.010862 0.032729 
-0.559 0.10359 0.10425 0.018425 0.020891 0.013821 0.022535 0.0052718 
-0.63545 -0.082361 0.013986 0.011848 0.036839 0.016452 0.01267 0.010204 
-0.28804 -0.17361 -0.079566 0.03651 0.037168 0.016616 0.027139 0.038483 
0.19583 -0.14254 -0.031064 0.045389 0.042429 0.035031 0.024837 0.057062 
0.42091 -0.072332 -0.02942 0.075805 0.035524 0.017438 0.043745 0.032236 
0.36485 0.01004 -0.066741 0.04095 0.031249 0.014479 0.012506 -0.027611 
0.09274 0.028125 -0.069372 0.040621 0.027961 0.029934 0.00083261 -0.090088 
-0.076442 -0.02646 -0.03501 0.053116 0.032893 0.046211 0.040456 -0.077264 
-0.15306 0.0041209 0.055747 0.014479 0.03651 0.021056 0.015137 -0.0031133 
-0.14139 0.010369 0.073175 0.034702 0.017767 0.037168 0.00066819 0.01415 
-0.024158 0.058213 0.054432 0.0046141 0.013657 0.023522 0.024179 0.034044 
0.018096 0.13434 0.034044 0.0046141 0.0085601 -0.0042642 0.023357 0.040785 
0.040128 0.14848 0.06183 0.030427 0.0046141 0.013821 0.014643 0.042594 
0.043416 0.11461 0.052459 0.020233 0.023193 0.036346 0.037661 0.067256 
0.04358 0.12332 0.04654 0.047033 0.038648 0.02533 0.044402 0.10902 
0.089123 0.13927 0.00066819 0.069229 0.03799 0.035031 0.061666 0.11592 
0.1659 0.099316 -0.010019 0.054267 0.038648 0.048513 0.031249 0.10984 
0.1493 0.11855 0.035853 0.058049 0.053116 0.034537 0.028125 0.073668 
0.10984 0.10556 0.051472 0.00083261 0.023522 0.015794 0.024179 0.069229 
0.091425 0.083533 0.031742 0.0034632 0.022864 0.023028 0.036182 0.029605 
0.11411 0.090438 0.011684 0.028783 0.02122 0.022864 0.026974 0.036675 
0.171 0.13319 0.0060938 -0.00097594 0.0079024 -0.0054151 0.015794 0.0026412 
0.21194 0.14453 0.021384 0.020727 0.0079024 0.0046141 0.048184 0.0098754 
0.17676 0.13582 -0.012485 0.023193 0.042594 0.034702 0.036017 0.052623 
0.00017495 0.16558 -0.0016336 0.03536 0.047526 0.029605 0.03651 0.016123 
-0.15816 0.1756 0.07597 0.063639 0.041278 0.023686 0.021549 -0.0042642 
-0.087786 0.22822 0.13615 0.055582 0.050814 0.054596 0.040292 0.042923 
0.016123 0.24367 0.057062 0.023028 0.020562 0.034044 0.032729 0.082053 
0.27031 0.20273 -0.031064 0.010697 0.0085601 0.017603 0.014315 0.055911 
0.66096 0.14174 -0.068386 -0.024323 -0.00031829 0.017603 0.0028056 -0.003771 
0.75418 0.080409 -0.043559 0.0059294 0.022864 0.020398 0.00033937 -0.0047575 
0.38293 -0.00031829 0.018918 0.067256 0.045882 0.041443 0.01152 0.039963 
-0.008539 -0.059507 0.074654 0.073668 0.044896 0.038483 0.057555 0.089945 
-0.21948 -0.055068 0.053609 0.074654 0.0083956 0.048019 0.098988 0.10885 
-0.22836 -0.0032777 0.01267 0.024179 0.0098754 0.020891 0.048184 0.049992 
-0.43289 0.053116 -0.021692 -0.045861 0.012177 0.0064227 0.0056006 -0.032543 
-0.73722 0.038812 0.0087245 -0.038956 -0.015444 -0.01117 -0.0406 -0.16144 
-0.49701 -0.00064712 0.0592 -0.014293 -0.0036066 -0.016924 -0.036983 -0.1667 
0.023851 0.070215 0.053774 0.038812 0.03092 0.0024767 -0.012814 -0.047341 
0.36156 0.15933 0.064461 0.066434 0.079587 0.062323 0.045553 0.10228 
0.40792 0.11576 0.014972 0.049664 0.053774 0.060186 0.074819 0.15292 
0.39132 0.10277 0.035688 0.053938 0.028619 0.030263 0.06479 0.10639 
0.33229 0.083697 0.0592 0.00083261 0.011026 0.023686 0.03799 0.10047 
0.244 0.01826 0.082875 -0.028433 -0.0072237 0.014479 0.0324 0.078765 
0.17001 -0.03912 0.047855 0.01152 -0.0013048 0.011355 0.038648 0.069229 
0.10556 -0.014787 0.11165 0.02122 0.020398 0.011355 0.039141 0.066763 
0.021549 -0.0026201 0.096028 0.045718 0.025659 0.069393 0.0036276 0.024344 
-0.044052 -0.021692 0.011848 0.024508 0.035524 0.016781 0.026481 0.017438 
-0.052766 0.032071 -0.028104 0.049499 0.031742 0.037826 0.048019 -0.024158 
-0.043395 0.033387 0.039963 0.072681 0.041278 0.048184 0.020727 -0.0082102 
-0.018404 0.0083956 0.0324 0.023522 0.040128 0.015959 0.0031344 0.012506 
-0.035667 0.01826 0.020069 0.017274 0.017274 0.0036276 0.0064227 -0.0077169 
-0.048985 0.023357 0.027303 0.014808 0.063474 0.021549 0.034373 0.03651 
-0.035832 0.049335 0.066598 0.013328 0.037168 0.027632 0.011026 0.04654 
-0.033037 0.11428 0.1197 0.035853 0.023357 0.01826 0.020727 0.070215 
-0.016595 0.079587 0.053281 0.0032988 0.009711 0.0085601 0.040621 0.058706 
0.011355 0.045224 -0.01117 0.017603 0.015301 0.018754 0.02681 0.01267 
0.05476 0.023686 0.016616 0.034373 0.024179 0.018589 0.019411 0.0031344 
0.091425 -0.050793 0.061172 0.027796 0.030427 0.035031 0.038319 0.0087245 
0.047362 -0.075455 0.074819 0.049992 0.056076 0.047362 0.030098 -0.023501 
-0.12264 -0.046025 0.022042 0.050814 0.073832 0.026317 0.026646 -0.019226 
-0.23198 -0.012978 -0.027282 0.024344 0.065776 0.019905 0.028619 -0.0083746 
-0.19597 0.071202 -0.10554 0.035524 0.026152 0.029769 0.01711 0.017603 
-0.072003 0.1733 -0.075784 0.0092177 0.039634 0.013492 0.042265 0.047855 
-0.006566 0.19533 0.075805 0.036675 0.025824 0.0074092 0.03536 0.045882 
0.033058 0.10721 0.13351 0.059035 -0.0064016 0.012506 0.025659 0.06594 
0.062159 0.094548 0.16804 0.0024767 -0.00031829 0.010862 0.028125 0.054103 
0.082382 0.048348 0.15061 0.049992 0.026152 0.0087245 0.021056 0.096521 
0.1345 -0.012649 0.14223 0.027961 0.056569 0.028454 0.044238 0.10063 
0.091589 -0.00064712 0.052294 0.025001 0.041114 0.050979 0.049335 0.092082 
0.14815 -0.015609 -0.067728 0.066598 0.051472 0.029934 0.04917 0.062981 
0.27244 -0.11179 -0.11557 0.051143 0.053938 0.035195 0.057391 0.048677 
0.2297 -0.36137 -0.15339 0.047691 0.037661 0.047033 0.03947 0.036346 
0.028783 -0.54617 -0.1792 0.039305 0.035688 0.021056 0.054432 0.028947 
-0.12609 -0.39195 -0.092061 0.013657 0.05065 0.01826 0.043745 0.0034632 
-0.16276 -0.087458 0.040128 0.036182 0.049335 0.02829 0.032071 0.011026 
0.030263 0.073832 0.21243 0.023193 0.027796 0.033715 0.016452 0.021713 
0.10803 0.01152 0.30105 0.012177 -0.0032777 0.0047785 0.013821 -0.018404 
-0.14977 -0.03764 0.1544 0.013821 -0.0098543 -0.015938 -0.0090322 -0.052602 
-0.303 0.090767 -0.0029489 -0.021199 -0.006566 0.0056006 -0.004593 -0.0039354 
-0.12116 0.22279 -0.065262 0.0090533 0.016781 0.0069159 0.023028 0.080244 
0.09833 0.33098 -0.0080457 0.060844 0.054267 0.037004 0.070873 0.096193 
0.12661 0.36928 0.014643 0.077943 0.068242 0.071859 0.031414 0.094713 
-0.12297 0.31108 0.0021479 0.096521 0.063639 0.049992 0.04095 0.031578 
-0.2374 0.24038 -0.076771 0.026317 0.018589 0.023686 0.048184 0.044731 
0.0064227 0.20158 -0.10176 -0.0095255 0.0070803 0.018096 0.034537 0.080738 
0.30845 0.091425 -0.06707 -0.00031829 0.0090533 0.013328 -0.0029489 0.0592 
0.20191 0.046375 -0.0078813 -0.0042642 0.005765 0.014643 0.01152 0.076134 
0.17018 -0.078086 0.12118 0.039634 0.012506 0.0072447 0.057062 0.046211 
0.44048 -0.18709 0.10524 0.023851 0.034537 0.02533 0.042923 0.054103 
0.60078 -0.25105 0.17676 0.051801 0.040292 0.03388 0.004943 -0.031557 
0.29382 -0.18907 0.21835 0.062981 0.012177 0.0059294 -0.0040998 -0.07562 
-0.14319 -0.11113 0.19862 0.019411 0.01711 0.044238 -0.0072237 -0.10834 
-0.48221 -0.034845 0.16294 -0.0027845 0.0028056 -0.021034 -0.038791 -0.089266 
-0.559 0.052294 0.020562 -0.015609 -0.037147 -0.030406 -0.038133 -0.062138 
-0.38258 0.088465 -0.13859 -0.051287 -0.023665 -0.014787 -0.020377 -0.018568 
-0.22441 0.29201 -0.11311 -0.0059084 -0.0091966 0.01004 0.026974 0.019083 
-0.18298 0.41433 -0.021363 0.040292 0.04506 0.042758 0.028454 0.10573 
-0.026131 0.21539 0.0072447 0.089452 0.063968 0.053609 0.067913 0.13236 
0.22164 -0.091404 -0.084005 0.073668 0.058706 0.074326 0.077121 0.081395 
0.28954 -0.17706 -0.041093 0.044731 0.061172 0.022206 0.032729 -0.019061 
0.16541 -0.19975 0.065612 0.043745 0.045553 0.01267 0.012013 -0.056219 
0.083368 -0.084169 0.11494 0.035688 0.022864 0.037168 0.013821 -0.006566 
0.080902 0.067256 0.10852 0.018754 0.038812 0.033222 0.053116 0.020069 
0.079258 0.060515 0.041936 0.022042 0.037497 0.025495 0.026974 0.047691 
0.077285 -0.1108 -0.032872 -0.0080457 0.021549 0.035195 0.012835 0.045718 
0.063474 -0.030242 -0.053917 -0.0019624 -0.008539 0.012013 0.0034632 0.034537 
0.073668 0.26439 0.0098754 0.063803 1.0539e-005 0.0080668 0.01152 0.045224 
0.060515 0.3752 0.03536 0.03947 0.0082312 0.018096 0.0047785 0.0227 
0.029605 0.16722 0.047691 0.034537 0.026974 0.028454 0.022535 0.044731 
-0.017253 -0.13136 0.04917 0.024015 0.02681 0.022371 0.029605 0.023357 
0.0041209 0.060844 0.10787 0.028454 0.035195 0.01974 0.018425 0.0090533 
0.0592 0.50821 0.12595 0.04654 0.027796 0.022535 0.016123 0.021056 
0.11214 0.71817 0.18662 0.021384 0.0059294 0.01974 0.012013 0.0059294 
0.12365 0.63498 0.18333 0.015794 0.037661 0.024837 0.014808 0.018754 
0.085341 0.43225 0.10113 0.045882 0.031578 0.042429 0.031907 0.024673 
0.05065 0.042758 0.0052718 0.01152 0.033551 0.018589 0.0065871 0.032893 
-0.014951 -0.4421 -0.075455 0.033058 0.048677 0.013328 0.044402 0.042923 
-0.0059084 -0.534 -0.063453 0.041278 0.053774 0.034702 0.049992 0.015137 
0.053609 -0.39721 0.0014903 0.023357 0.036839 0.028619 0.025659 0.036182 
0.080409 -0.26881 0.0088889 0.032729 0.033715 -0.003771 0.026481 0.042429 
0.078929 -0.17838 -0.054082 0.02122 0.017767 0.017438 0.026481 0.025001 
0.12299 0.046704 -0.064768 0.033222 0.0070803 0.035688 0.032729 0.037332 
0.13039 0.24597 0.028619 0.036017 0.044567 0.025988 0.017274 0.028947 
0.091753 0.31355 0.079916 0.0324 0.051472 0.027303 0.029769 0.058871 
0.062652 0.27984 0.10721 0.051308 0.043251 0.050979 0.066598 0.04358 
-0.019226 0.17051 0.07597 0.053281 0.053281 0.0032988 0.041772 0.013986 
-0.072332 0.050814 0.029769 0.051472 0.055747 0.013657 0.041443 0.032893 
-0.053095 -0.0095255 -0.016102 0.062159 0.034537 0.029605 0.037168 0.02829 
0.027303 -0.02794 -0.014787 0.026646 0.031742 0.031578 0.041278 0.037497 
0.11247 0.0056006 0.0032988 0.029605 0.019576 0.01711 0.035195 0.07597 
0.2634 -0.0039354 -0.032872 0.025001 0.012506 -0.008539 0.020233 0.063968 
0.45527 -0.066248 -0.06707 -0.0050863 0.0019835 0.014643 0.036182 0.042265 
0.51841 -0.063618 -0.041586 0.0036276 0.034044 0.0044497 0.03947 0.021056 
0.52235 0.025988 -0.019061 -0.0054151 0.037826 0.020233 0.026481 0.06183 
0.26192 0.12365 -0.016924 0.0054362 0.065283 0.035031 0.0064227 0.059364 
-0.14599 0.22641 -0.0064016 0.045389 0.037826 0.027468 0.027796 0.034044 
-0.35595 0.25551 -0.029913 0.037168 0.044073 0.027632 0.014972 0.027961 
-0.29643 0.14913 0.010697 0.04506 0.040785 0.042429 0.018425 -0.00031829 
-0.32323 0.0019835 0.092576 0.018096 0.036017 0.034209 0.037004 -0.0024557 
-0.41464 -0.12741 0.13138 -0.0052507 0.015465 0.009711 0.013657 -0.043395 
-0.34263 -0.2032 0.13746 0.016781 0.017438 0.020233 0.01711 -0.042573 
-0.092061 -0.19745 0.15456 0.018754 0.024673 0.024179 0.015959 0.010533 
0.1641 -0.14254 0.15719 0.058213 0.0065871 0.035853 0.068571 0.059364 
0.317 -0.11705 0.12118 0.057884 0.029934 0.020562 0.055911 0.096521 
0.20619 -0.10883 0.055418 0.035195 0.01267 0.029605 0.018096 0.059364 
-0.218 -0.028762 -0.03912 0.031085 0.00083261 -0.0036066 0.0016547 0.0060938 
-0.38274 0.087972 -0.046025 0.017274 0.0069159 0.016123 0.020233 0.037661 
0.012506 0.21967 -0.06 0.026646 0.032564 0.023851 0.011026 0.012999 
0.36221 0.3387 -0.040435 0.054925 0.03947 0.031742 0.025824 0.037826 
0.41729 0.27228 -0.065262 0.017274 0.026646 0.032564 0.019247 0.043909 
0.3022 0.18119 -0.017417 0.0072447 0.016452 0.039305 0.041114 0.029769 
0.16344 0.13121 -0.0047575 0.015465 0.013821 0.036839 0.029441 0.013986 
0.0064227 0.069558 0.053281 0.0062583 0.00033937 0.0014903 0.012999 -0.0016336 
-0.14648 0.088794 0.12595 0.069229 0.015137 0.0088889 0.038812 0.019083 
-0.23411 0.11263 0.14289 0.061666 0.041443 0.020233 0.043416 0.047197 
-0.21258 -0.045532 0.10639 0.022864 0.051308 0.012999 0.040292 0.059528 
-0.16934 -0.29166 0.022864 0.036675 0.018589 0.018918 0.035031 0.035853 
-0.12133 -0.28886 -0.02942 0.021384 0.004943 0.028783 0.024179 -0.01939 
-0.064275 -0.095514 -0.011334 0.01711 0.0034632 0.007738 0.0042853 -0.013471 
0.03388 0.070051 0.050157 0.028125 -0.018568 0.0018191 -0.0044286 -0.009361 
0.21967 0.19501 0.081067 0.02533 0.01267 0.025824 0.0083956 0.037168 
0.35251 0.23052 0.074161 0.063145 0.039141 0.018096 0.022864 0.054432 
0.26044 0.18037 0.037497 0.044567 0.060515 0.01152 -0.009361 0.052294 
-0.01528 0.14042 0.061337 0.047855 0.048348 0.033058 0.01563 0.017438 
-0.2203 0.048019 0.062159 0.034702 0.005765 0.03388 0.028783 -0.015116 
-0.27292 0.026646 0.087808 0.00033937 -0.0075525 -0.0036066 0.019247 -0.014458 
-0.16473 0.098659 0.095535 0.020727 -0.03205 0.01711 0.029441 0.065283 
-0.1159 0.030756 0.05624 0.013657 0.017932 0.036346 0.04654 0.04506 
-0.08384 -0.034681 0.049499 0.00297 0.07449 0.047855 0.034209 0.020069 
-0.0016336 -0.051944 0.056733 0.077121 0.051801 0.029934 0.037497 0.028454 
0.10392 -0.046683 0.073175 0.057555 0.039634 0.062981 -0.0062372 0.038483 
0.13697 -0.02794 0.033222 0.0421 0.020891 0.024179 0.036017 0.051143 
0.15176 0.0060938 -0.028104 0.04506 0.0082312 0.027961 0.043909 0.034209 
0.16327 0.047362 -0.03764 0.0098754 0.024344 0.020891 0.029769 0.066598 
0.16969 0.021056 -0.039449 0.031578 0.029605 0.038648 0.044896 0.043416 
0.086328 0.022864 -0.02087 0.0072447 0.025988 0.023686 0.051143 0.028783 
0.029605 0.063803 0.047691 -0.0024557 0.027632 0.018096 0.03388 0.017438 
0.077614 0.08419 0.098166 0.041278 0.043745 0.03799 0.031249 0.021549 
0.18218 0.1493 0.13384 0.041772 0.040292 0.036675 0.039141 0.025988 
0.20076 0.15522 0.089452 0.056076 0.024837 0.038977 0.075476 0.010369 
0.14075 0.1225 0.043087 0.047033 0.036017 0.046375 0.037332 0.045389 
-0.046519 0.072188 -0.035832 0.021056 0.0087245 0.024673 0.011848 0.01004 
-0.10554 0.058049 -0.026624 0.047033 0.025001 0.010369 0.01826 -0.018239 
-0.12067 0.04506 0.0036276 0.0065871 0.023522 0.017603 0.013492 -0.032379 
-0.16506 0.045553 0.011191 -0.0029489 0.032236 0.0079024 -0.0031133 -0.063618 
-0.10784 0.061995 0.026974 0.027468 0.038812 0.0031344 0.005765 -0.020212 
-0.046354 0.037004 0.025659 0.015959 0.020233 0.013821 0.037826 0.043909 
0.055089 -0.02235 0.0069159 0.024508 0.030592 0.032893 0.023357 0.064132 
0.12151 -0.03501 0.030756 0.014479 0.010862 0.019247 0.020891 0.077449 
0.18448 -0.065262 0.079751 0.016288 0.0085601 0.012013 0.022864 0.076299 
0.20224 -0.045039 0.022042 0.049664 0.027796 0.049006 0.047526 0.084684 
0.25304 0.027468 -0.027775 0.026646 0.042758 0.027139 0.049992 0.095371 
0.27787 0.050979 -0.016595 0.047033 0.055089 0.015794 0.035195 0.074326 
0.21605 0.077614 0.016452 0.042758 0.038977 0.041936 0.044073 0.054267 
0.031085 0.10474 0.033551 0.016123 0.012835 0.029276 0.034537 -0.029748 
-0.13908 0.066269 0.027961 0.03388 0.00033937 0.015137 0.02122 0.0016547 
-0.27078 0.03092 -0.025802 -0.0029489 0.03651 0.034373 0.014808 0.0018191 
-0.1843 0.013986 -0.029584 -0.0057439 0.032564 0.045553 0.027961 0.0098754 
0.037332 0.026481 0.013821 0.0082312 0.026481 0.0083956 0.0082312 0.031414 
0.097015 0.066269 0.037332 -0.0098543 0.020727 -0.0087034 -0.014951 0.0044497 
-0.022021 0.15308 0.033222 0.024344 0.0098754 0.012342 -0.014787 -0.01676 
-0.074469 0.14289 0.024837 0.040292 0.031907 0.016616 0.046375 -0.0054151 
-0.001798 0.056076 0.03092 0.059857 0.043909 0.040456 0.057391 0.046375 
0.32802 0.0062583 0.072517 0.10787 0.059857 0.061172 0.065612 0.098988 
0.59322 -0.068057 0.11592 0.11033 0.047197 0.049664 0.077614 0.1031 
0.36106 -0.094692 0.092247 0.090274 0.06742 0.02829 0.069558 0.060515 
-0.054739 -0.055726 0.10343 0.053938 0.049664 0.055254 -0.048492 -0.018239 
-0.31155 -0.07414 0.024015 0.016452 0.032236 0.022864 -0.010019 -0.03353 
-0.12626 -0.073482 -0.046847 0.013328 0.014315 0.0021479 0.035031 0.018096 
0.13088 0.018589 -0.10686 -0.035338 0.015301 0.0042853 0.0028056 0.023028 
-0.20584 0.061501 -0.094199 -0.053588 -0.0011404 0.00083261 -0.024323 -0.02498 
-0.75465 0.094548 -0.018075 -0.023007 0.0082312 -0.010676 -0.013965 -0.076935 
-0.70878 0.16196 0.042594 -0.0016336 0.014643 0.0031344 0.0042853 -0.063782 
-0.093541 0.27327 0.095042 0.037661 0.0227 0.022042 0.018096 0.069064 
0.35876 0.36205 0.11132 0.078436 0.054925 0.047855 0.044896 0.12217 
0.50838 0.23298 0.044073 0.050979 0.057062 0.030592 0.045882 0.13056 
0.18892 -0.033201 0.0069159 0.052459 0.023686 0.026974 0.023028 0.054925 
-0.27768 -0.13316 -0.0034422 -0.0064016 0.0046141 0.00033937 -0.017911 -0.033037 
-0.26502 -0.0406 0.041443 -0.01676 -0.0072237 0.0087245 -0.011663 -0.035174 
0.038483 -0.035832 0.060186 0.021056 0.019576 0.01974 0.039634 0.0051074 
0.1738 -0.083183 0.031578 0.0227 0.03799 0.031414 0.047197 0.067585 
0.17133 0.024673 0.07038 0.066269 0.048184 0.025001 0.049664 0.086328 
0.15818 0.14601 0.08567 0.049992 0.039305 0.023686 0.041607 0.080902 
0.21868 0.16245 0.083533 0.0324 0.032729 0.044896 0.040785 0.072024 
0.21178 0.19188 -0.012485 0.013657 0.022864 0.015137 0.01826 0.010204 
0.072353 0.27327 0.01711 0.020727 0.025166 -0.0049219 0.016452 0.029934 
-0.033037 0.29596 0.091096 0.066763 0.034209 0.028125 0.032564 0.031414 
-0.095843 0.21358 0.1756 0.094713 0.026317 0.034209 0.032729 0.029605 
-0.12511 0.023193 0.17265 0.072846 0.026974 0.026974 0.018096 0.032729 
-0.13629 -0.14402 0.040128 0.045389 0.031742 0.015137 0.01415 0.030427 
-0.06855 -0.18298 -0.085156 0.0093821 0.0054362 0.024837 0.056404 0.047526 
0.061337 -0.077264 -0.080552 -0.015444 0.016616 0.017767 0.024344 0.020398 
0.159 0.014972 -0.033694 0.0042853 0.0227 0.010697 0.014972 0.0069159 
0.24712 0.087808 -0.010841 -0.016924 0.010697 0.023686 0.014315 0.033387 
0.24088 0.0013258 0.011684 -0.010512 0.021384 0.019576 0.024344 0.016616 
0.016616 -0.22343 -0.0082102 -0.012485 0.01267 -0.0011404 0.0072447 0.018096 
-0.1889 -0.29774 0.014808 -0.024816 0.018096 0.010862 0.01711 -0.022843 
-0.22507 -0.10472 0.071531 0.020233 -0.0031133 0.016781 0.020891 -0.018239 
-0.16654 0.13417 0.059035 0.028947 1.0539e-005 0.00083261 0.020069 0.020233 
-0.068221 0.21276 0.061337 0.029276 0.0031344 0.0098754 0.024673 0.043251 
0.08978 0.16952 0.029605 0.076792 0.051308 0.030098 0.027139 0.068736 
0.17297 0.061666 -0.031721 0.034373 0.036017 0.040621 0.054267 0.068242 
0.2195 0.031578 -0.0055795 0.035195 0.049664 0.040292 0.055582 0.07597 
0.23775 -0.13432 0.091589 0.047033 0.050486 0.06479 0.049499 0.066105 
0.16294 -0.34279 0.10556 0.027961 0.026152 0.030263 0.024673 0.053609 
0.12151 -0.13366 0.0060938 0.09422 0.06183 -0.0021268 0.029769 0.032564 
0.14223 0.30977 -0.039942 -0.021199 -0.0027845 0.021713 0.005765 0.025659 
0.1276 0.52581 0.086328 -0.004593 0.016452 0.029276 0.037661 0.056076 
0.12891 0.38014 0.18958 0.058871 0.039963 0.019247 0.051472 0.073832 
0.025001 0.1978 0.17396 0.055582 0.03651 0.0083956 0.069393 0.062159 
-0.083512 0.0070803 0.11954 0.029934 0.044567 0.027632 0.022206 0.03092 
-0.081539 -0.0013048 0.10951 0.024673 0.041114 0.01267 0.018754 -0.033859 
0.049499 -0.046519 0.047691 0.032893 0.012177 0.017603 0.031085 -0.014622 
0.18465 -0.11393 -0.0503 0.057884 0.010533 0.020069 0.027961 -0.022514 
0.26537 -0.21422 -0.15503 0.0093821 0.016945 0.011191 0.017438 -0.038133 
0.18695 -0.25976 -0.19597 0.0031344 0.032564 0.0090533 0.010204 -0.041257 
0.094548 -0.31353 -0.18463 -0.00031829 0.016452 0.048348 0.028947 -0.047834 
0.12776 -0.22228 -0.089266 -0.013636 0.018589 0.012013 0.027139 0.0026412 
0.21589 -0.029584 0.0060938 0.032564 0.035524 0.011355 0.028783 0.064625 
0.18152 0.082217 0.10672 0.047033 0.04506 0.032236 0.050486 0.10145 
0.082546 0.17873 0.11937 0.043416 0.038319 0.031249 0.081231 0.13368 
-0.0054151 0.1442 0.10228 0.044731 0.040456 0.023851 0.040128 0.066763 
-0.075291 0.0018191 0.074983 -0.027611 0.023357 0.036346 0.016452 0.07597 
-0.11031 0.0080668 0.084026 0.0037921 0.010369 0.036182 0.030592 0.036839 
-0.055726 0.086492 0.076299 0.030756 0.0031344 1.0539e-005 0.0324 0.033715 
-0.008539 0.11477 0.071695 0.047197 0.044238 0.01563 0.026646 0.038648 
0.041114 0.1641 0.089452 0.078765 0.070544 0.043745 0.023193 0.038812 
0.10425 0.1955 0.074654 0.054432 0.034373 0.025824 0.038812 0.010533 
0.056733 0.14979 0.073668 0.03947 0.031578 0.017274 0.015301 -0.021528 
0.019247 0.076792 0.054596 0.048841 0.020727 0.027468 0.022371 -0.020377 
0.049006 0.089452 0.059364 0.048677 0.024015 0.0056006 0.014315 -0.0019624 
0.064954 0.10211 0.023028 0.026481 0.04095 0.0095465 0.012342 0.0013258 
0.088136 0.16558 -0.0039354 0.018589 0.037826 0.026974 0.005765 0.011684 
0.13384 0.2565 -0.015444 0.011848 0.031414 0.031907 0.015137 0.0052718 
0.053938 0.27672 0.00033937 0.041114 0.012506 0.038155 0.047855 0.029605 
-0.05737 0.244 -0.014787 0.033387 0.024344 0.015959 0.042429 0.057062 
-0.10637 0.2269 0.017438 0.034702 0.025659 0.034044 0.027632 0.055911 
-0.12511 0.025824 0.038319 0.040128 0.029112 0.035853 0.027468 0.092082 
-0.15931 -0.25302 0.025001 0.017767 0.034373 0.011355 0.032236 0.048677 
-0.18709 -0.19959 0.020069 0.018425 0.050321 0.05213 0.027796 0.029276 
-0.059343 -0.044217 0.057391 0.029769 0.047691 0.028125 0.037497 0.064132 
0.055254 0.067749 0.048348 0.031249 0.035031 0.022864 0.046211 0.053281 
0.11937 0.078272 0.0421 0.054103 0.0098754 0.022206 0.045224 0.051965 
0.11921 0.01415 -0.029091 -0.0021268 0.018589 0.024015 0.013657 0.042265 
0.069229 0.032236 -0.073811 0.015465 0.033551 0.0227 0.013492 0.014643 
-0.047012 0.13845 -0.073482 0.023522 0.051636 -0.026953 -0.067399 -0.033201 
-0.087951 0.2491 0.014315 -0.0036066 0.0024767 -0.0049219 -0.027447 -0.093541 
0.044731 0.32555 0.13565 0.027303 0.03536 0.00017495 -0.045861 -0.033694 
0.1493 0.39296 0.18728 0.015959 0.03947 0.012013 0.017274 0.069886 
0.16574 0.31618 0.11822 0.0028056 0.078929 0.022864 0.066434 0.15045 
0.032236 0.17544 0.035853 0.068407 0.058706 0.047855 0.045882 0.12381 
-0.20436 0.10967 0.075476 0.071859 0.062981 0.040621 0.043087 0.052623 
-0.21817 0.061172 0.17297 0.08304 0.043251 0.059035 0.053609 0.037332 
-0.17657 -0.024487 0.15094 0.055582 0.030098 0.032893 0.046211 0.0069159 
-0.18857 -0.068057 0.10836 -0.0016336 0.028783 -0.033201 0.0024767 -0.017911 
-0.18759 -0.014129 0.1003 0.030592 0.033058 0.011848 -0.0039354 0.0064227 
0.11083 -0.061645 0.0324 0.027961 0.014479 0.021713 0.026974 -0.0068948 
0.47254 -0.18397 0.028125 0.055089 0.027139 0.016945 0.033551 -0.0014692 
0.46744 -0.29445 -0.020377 0.086821 0.039305 0.023851 0.039305 0.0039565 
0.18925 -0.13777 -0.069208 0.049335 0.033222 0.030263 0.024179 0.036839 
-0.033365 0.11411 -0.11426 0.036182 0.010533 0.011684 0.045553 0.044731 
-0.18939 0.15538 -0.18907 -0.017746 0.024015 0.0034632 0.016123 0.057391 
-0.29709 0.066269 -0.1986 -0.020706 0.04358 0.027468 0.013164 0.047691 
-0.486 0.037826 -0.089102 0.011684 0.022206 0.01711 0.016781 0.02681 
-0.61588 0.088794 0.027468 -0.019226 0.0014903 0.012506 0.015137 0.031085 
-0.36614 -0.049314 0.085341 -0.0036066 0.0054362 0.015959 0.00099702 0.030592 
0.051965 -0.23494 0.063145 0.026646 0.0090533 0.032071 0.034209 0.021384 
0.27458 -0.23691 0.023028 0.016288 0.024508 0.023357 0.025824 0.013986 
0.29776 -0.071674 0.09833 0.079094 0.033222 0.029112 0.024015 0.0026412 
0.26866 0.11231 0.19188 0.046046 0.037826 0.032893 0.010533 -0.010019 
0.23529 0.21013 0.16837 0.038812 0.042923 0.009711 0.026317 0.016616 
0.17741 0.13286 0.084519 0.056404 0.035524 0.021549 0.032893 -0.0059084 
0.1276 0.065612 0.095371 0.047197 0.024508 0.043251 0.043745 0.03947 
0.084026 0.080902 0.14174 0.067913 0.026317 0.01415 0.023686 0.051143 
0.0036276 0.049992 0.10836 0.080244 0.036675 0.01711 0.032071 0.027796 
-0.015938 0.085341 0.055911 0.050486 0.034702 0.034866 0.029112 0.048513 
-0.031721 0.11872 0.00050378 0.060515 0.039305 0.036346 0.023193 0.017603 
-0.1136 -0.012156 -0.1205 0.018425 0.039963 0.020562 0.025166 0.02829 
-0.17114 -0.2397 -0.20929 -0.013143 0.0070803 0.015301 0.019247 -0.0049219 
-0.17279 -0.23066 -0.18874 0.0075736 -0.015938 0.028125 0.023522 0.014643 
-0.078579 -0.11804 -0.056383 0.022864 0.020398 0.02533 0.041772 0.061172 
0.11231 0.02829 0.053281 0.043087 0.046375 0.042923 0.048513 0.088136 
0.53501 0.13236 0.12612 0.014315 0.032236 0.044073 0.063145 0.12233 
0.91218 0.1442 0.070873 0.0011614 0.050814 0.017438 0.04358 0.11461 
0.79117 0.082382 0.032564 0.038155 0.03947 0.01267 0.027303 0.071202 
0.42666 0.026646 0.047033 0.032236 0.023193 0.036839 0.026481 0.025001 
-0.049314 -0.012485 0.029441 0.023686 0.010862 0.012177 0.024837 -0.0070593 
-0.51592 -0.021856 0.030427 0.031249 0.0085601 0.019247 0.0072447 0.0041209 
-0.87993 0.024508 0.010204 0.046704 -0.00097594 0.047526 0.031414 -0.019555 
-0.93106 0.051965 0.021713 0.023851 0.027632 0.017603 0.027139 -0.018239 
-0.74051 0.06183 0.047197 0.010697 0.037332 0.017274 0.027303 -0.015938 
-0.24825 0.086657 0.038648 0.01152 0.030756 0.0095465 0.028125 0.044073 
0.34955 0.10293 -0.0032777 0.03947 0.0042853 0.065283 0.041443 0.063968 
0.71357 0.1419 0.03651 0.013328 0.00017495 0.014808 0.034209 0.012835 
0.66194 0.13943 0.0069159 0.01267 0.011684 0.0098754 0.012177 -0.022185 
0.46119 0.1322 -0.046354 0.01563 0.00099702 0.018096 0.0034632 -0.011827 
0.29579 0.079916 -0.017253 0.005765 0.024179 0.028454 0.036675 0.028125 
0.20964 0.10967 0.034702 0.060186 0.025824 0.028125 0.06742 0.082875 
0.13615 0.093891 0.072846 0.037332 0.040621 0.040785 0.052787 0.089287 
0.064132 0.037826 0.080573 0.038319 0.034537 0.027796 0.041936 0.055254 
0.0054362 -0.040435 0.044567 0.050321 0.046375 0.023028 0.038155 0.029112 
-0.025967 -0.074798 0.031578 0.038155 0.028454 0.025659 0.029112 0.046046 
-0.056383 -0.12149 0.027303 0.03536 0.025495 0.032236 0.03651 0.0592 
-0.093212 -0.15914 0.031414 0.0095465 0.0019835 0.029276 0.0070803 0.029276 
-0.040435 -0.059507 0.031085 0.0019835 0.01415 -0.00064712 0.036675 0.044073 
0.072517 0.10836 -0.0068948 0.045389 0.027139 0.012999 0.016452 0.05476 
0.13368 0.24515 0.010369 0.030756 0.050321 0.019905 0.022864 0.046704 
0.08008 0.28609 0.024673 0.024015 0.050321 0.01974 0.04095 0.041772 
0.016452 0.24153 0.054925 0.027303 0.03536 0.024837 0.040456 0.0034632 
0.03092 0.21983 0.092904 0.034537 0.034209 0.015465 0.01711 0.0074092 
0.15686 0.25814 0.10655 0.050486 0.018425 0.011191 0.031085 0.014315 
0.19895 0.19846 0.12661 0.029441 0.039305 0.022535 0.053281 0.030263 
0.10392 0.11296 0.076463 0.038319 0.047362 0.036346 0.03536 0.0036276 
-0.08828 0.051965 0.052952 0.064461 0.042265 0.024673 0.01974 -0.01528 
-0.15174 -0.021034 0.028454 0.0079024 0.038155 0.0044497 0.01004 -0.022843 
-0.16457 -0.15026 0.032729 -0.006566 -0.0032777 0.013821 0.038483 -0.013307 
-0.11163 -0.24266 -0.050958 -0.011334 -0.001798 0.0016547 -0.0087034 -0.018239 
0.0075736 -0.12133 -0.069208 1.0539e-005 0.0059294 0.0018191 -0.0055795 0.040292 
0.11724 0.18119 0.00083261 0.043416 0.0093821 0.023851 0.0093821 0.067091 
0.22098 0.42009 0.064296 0.02829 0.020233 0.031742 0.052459 0.097508 
0.1835 0.34068 0.07301 0.02533 0.027796 0.0093821 0.0324 0.075641 
0.072681 0.082382 0.013986 0.054596 0.057062 0.034537 0.015465 0.025166 
-0.013143 -0.10357 0.018754 0.041114 0.078765 0.063474 0.049006 0.019247 
-0.13382 -0.21455 0.053938 0.038648 0.066598 0.040621 0.062159 -0.030242 
-0.19416 -0.17065 0.055582 0.026646 0.039305 -0.003771 0.033222 -0.06148 
-0.072825 -0.0072237 0.086821 0.019411 0.033058 0.020069 0.011355 -0.047341 
0.086328 0.036182 0.064954 0.059693 0.0034632 0.0079024 0.021056 0.014972 
0.1807 0.088301 0.051965 0.025166 0.027796 0.029441 0.028454 0.087972 
0.13894 0.13779 0.0039565 0.0046141 0.048348 0.034044 0.04506 0.054432 
0.028619 -0.19877 -0.013965 0.027632 0.01711 0.01004 -0.0019624 0.035853 
-0.13859 -0.48337 -0.017417 0.007738 0.029112 -0.0050863 0.044567 0.032729 
-0.17114 -0.25664 -0.0011404 0.028783 0.023028 0.017932 0.015959 0.037826 
-0.11048 0.14798 0.064954 0.020562 0.04358 0.011848 0.013657 0.052787 
0.0026412 0.41121 0.093562 0.01826 0.024179 0.020562 0.041607 0.033387 
0.10474 0.44738 0.077285 0.036182 0.029934 -0.00015387 0.029769 0.051143 
0.10704 0.3466 0.046211 0.016123 0.040292 0.02681 0.01974 0.059857 
0.22279 0.23167 0.0075736 0.035853 0.032893 0.024508 0.034373 0.082546 
0.44097 0.1853 -0.035174 0.046704 0.025495 0.0090533 0.034866 0.094055 
0.43357 0.086492 -0.047012 0.03947 0.025166 0.052623 0.046375 0.019247 
0.22312 -0.012485 -0.040271 0.080244 0.045389 0.020562 0.0062583 -0.083183 
0.098494 -0.073482 0.027961 0.020233 0.020891 0.0032988 -0.024816 -0.10571 
0.097672 -0.054904 0.10655 0.042594 0.048184 0.013821 0.049664 0.032071 
-0.073647 0.0026412 0.16393 0.047033 0.053281 0.03092 0.027139 0.068736 
-0.30399 0.060186 0.12661 0.0044497 0.03536 0.022206 0.012013 0.042265 
-0.29988 0.11181 0.086492 0.0090533 0.024673 0.0069159 0.0088889 0.05624 
-0.24661 0.11395 0.019411 0.040456 -0.0083746 0.009711 0.013986 0.070708 
-0.39475 0.063968 -0.012156 0.019411 0.0088889 -0.0011404 -0.0034422 0.063968 
-0.48369 0.062981 0.028783 0.065612 0.0016547 0.0013258 0.0067515 0.041278 
0.020891 0.085177 0.048184 0.034209 0.020233 0.025988 0.030263 0.0056006 
0.49753 0.020727 0.047197 0.015465 0.031085 0.046046 0.03388 0.043416 
0.55754 -0.098802 0.033715 0.02681 0.021549 0.030263 0.049499 0.048677 
0.31437 -0.255 0.011355 0.0093821 0.029276 0.057555 0.039799 0.056404 
0.010862 -0.56196 -0.063782 0.043909 0.040621 0.037661 0.058213 0.034373 
-0.22803 -0.59977 -0.067728 0.091096 0.068736 0.031578 0.039305 0.0067515 
-0.27308 -0.44177 -0.042737 0.049828 0.052952 0.036675 0.026317 0.02122 
-0.22211 -0.32092 -0.03764 0.031578 0.020233 0.030098 0.034702 -0.0054151 
-0.036325 0.1008 0.062981 0.012999 -0.00081153 -0.0014692 0.022206 0.016452 
0.29842 0.54537 0.13368 0.0019835 0.015137 0.012999 0.021713 0.04917 
0.40874 0.65997 0.1054 0.01826 0.018918 0.036182 0.0090533 0.057391 
0.25946 0.51956 0.053116 0.01826 0.0052718 0.011684 0.026646 0.081231 
0.053774 0.32637 0.028619 0.067749 0.031249 0.037168 0.027303 0.058706 
-0.21948 0.1544 -0.017088 0.041278 0.035524 0.05772 0.035688 0.043745 
-0.65107 0.012506 -0.047176 0.022042 0.034373 0.037168 0.03388 0.009711 
-0.63002 -0.12626 -0.054246 0.045389 0.038155 0.0085601 0.019247 -0.030242 
-0.12363 -0.2767 -0.056383 0.013328 0.0052718 0.016616 -0.00064712 -0.0090322 
0.16607 -0.22935 -0.065919 -0.011498 0.0051074 -0.00081153 -0.013636 -0.023007 
0.27425 -0.0060728 0.055254 0.061172 0.0324 -0.0032777 -0.0059084 0.0098754 
0.26521 0.13664 0.1544 0.028454 -0.0050863 -0.0011404 0.045224 0.035853 
0.23282 0.22328 0.15703 0.068407 0.007738 0.020891 0.035853 0.041607 
0.12003 0.11526 0.085506 0.016616 0.029934 0.011355 0.016123 0.036017 
-0.024158 -0.023007 0.020398 0.023686 0.046211 0.028783 0.043087 -0.011827 
-0.0771 -0.064111 -0.0026201 0.077121 0.053938 0.06035 0.046704 -0.017582 
-0.028104 -0.07003 0.033222 0.06479 0.072846 0.043251 0.017274 0.0093821 
0.040785 -0.062138 0.065447 0.074983 0.046375 0.024508 -0.0067304 0.037004 
0.049664 0.014643 0.079258 0.0421 0.014479 0.034209 0.045718 0.061995 
0.060022 0.009711 0.072188 0.0013258 0.016616 0.025659 0.041936 0.058542 
0.046046 0.022042 0.038319 0.048019 0.017603 0.015465 0.031249 0.072188 
0.060844 0.0689 -0.033694 0.012013 0.021384 0.031742 0.029934 0.056404 
0.027796 0.074654 -0.082854 -0.010183 0.01711 0.021384 0.046375 0.04095 
-0.012814 0.14009 -0.069208 0.030427 0.011848 0.027961 0.0227 0.038977 
-0.042573 0.26274 -0.02942 0.013986 0.034209 0.0079024 0.011026 -0.0031133 
-0.03353 0.26126 -0.014622 0.025988 -0.011992 0.033715 0.029112 0.0082312 
-0.017911 0.17659 -0.056219 -0.0072237 -0.00015387 0.017767 0.029605 0.0083956 
-0.004593 0.12233 -0.08121 0.0079024 0.012013 0.0324 0.023028 0.015137 
-0.011663 0.096193 0.049992 0.039799 0.024673 0.039305 0.0227 0.03799 
0.024344 0.10491 0.14354 0.025001 0.032564 0.018918 0.0421 0.030263 
0.07038 0.12513 0.11395 0.01415 0.030098 0.0092177 0.011848 0.0092177 
0.15489 0.12513 0.075148 0.012177 0.044402 0.020398 0.01563 0.015301 
0.48569 0.16475 0.078929 0.00297 1.0539e-005 0.0037921 0.018425 0.019411 
0.81287 0.19254 0.159 0.052787 0.01826 0.012013 0.031085 0.058871 
0.82981 0.099645 0.16788 0.06742 0.029441 0.022864 0.0227 0.070708 
0.41581 -0.063453 0.12513 0.063145 0.021549 0.050157 0.041607 0.080902 
-0.10982 -0.089102 0.049499 0.090767 0.038483 0.043745 0.063474 0.066434 
-0.39327 -0.05737 -0.048327 0.065118 0.055418 0.041772 0.058871 0.071366 
-0.48353 0.077943 -0.10653 0.02829 0.066269 0.05065 0.041114 0.028125 
-0.72883 0.13516 -0.089924 -0.0075525 0.037168 0.012999 0.00083261 -0.086307 
-0.82337 0.14354 0.01974 -0.037311 -0.00031829 -0.011498 0.0036276 -0.098638 
-0.25615 0.078107 0.11674 0.024015 0.014643 0.011848 -0.008539 -0.071838 
0.18613 0.094548 0.09685 0.03536 0.0072447 0.018425 0.0013258 -0.028433 
0.147 0.063474 0.045553 0.031907 0.029934 0.016781 0.039963 0.034209 
-0.10521 0.040128 0.058213 0.05065 0.030756 0.029934 0.041114 0.066105 
-0.084169 0.12349 0.079094 0.0037921 0.02533 0.023851 0.019083 0.072353 
0.14058 0.16492 0.081067 0.011026 0.02122 0.0074092 0.0088889 0.05213 
0.36994 0.1391 0.078929 0.0019835 0.0016547 0.0021479 0.019576 0.065283 
0.45281 0.058049 0.033387 0.01415 0.0070803 0.033387 0.023522 0.062652 
0.47418 0.023522 -0.059836 0.058049 0.010862 0.025001 0.025166 0.020069 
0.46596 -0.078908 -0.10423 -0.01528 0.009711 0.00033937 -0.00015387 0.015959 
0.35564 -0.053588 -0.07825 -0.020048 -0.0064016 0.00297 0.0036276 -0.014293 
0.27162 0.034866 0.004943 0.0019835 0.020727 -0.0011404 0.0032988 -0.0042642 
0.077121 0.046046 0.054596 0.01267 0.065447 0.01711 0.0034632 0.04654 
-0.095349 0.091918 0.11296 0.073668 0.070215 0.045224 0.056733 0.059528 
-0.17542 0.11017 0.099481 0.086163 0.062817 0.053281 0.070544 0.078272 
-0.23346 0.070051 0.10935 0.081067 0.051801 0.031907 0.039305 0.032071 
-0.25006 0.0065871 0.038648 0.085012 0.059035 0.043909 0.035853 0.017603 
-0.22244 -0.019719 0.01415 0.041114 0.031742 0.028125 0.048677 0.005765 
-0.18561 -0.074962 0.028619 0.016781 0.016945 0.01826 0.011191 0.0051074 
-0.13316 -0.14665 -0.0036066 0.020069 0.013657 -0.00064712 0.0088889 0.022535 
-0.045368 -0.16013 -0.0022913 0.0011614 0.023686 0.0064227 0.012342 0.024673 
0.0095465 -0.14089 -0.001798 0.01563 0.0075736 0.012177 0.037826 0.019411 
0.028783 -0.10078 -0.037805 -0.0087034 0.0062583 -0.0024557 0.015959 0.023851 
0.023028 -0.019061 -0.028762 -0.018733 -0.03205 0.034044 0.0072447 -0.021199 
0.019247 0.039141 0.036017 0.025166 0.01415 0.017438 0.0227 0.020562 
0.037826 0.051965 0.055582 0.031742 0.033387 0.016945 0.028947 -0.022514 
0.061337 0.093891 0.10507 0.032071 0.050814 0.029605 0.023193 0.02681 
0.093562 0.051636 0.10178 0.047526 0.068407 0.041772 0.032564 0.038155 
0.087314 0.038812 0.093398 0.043909 0.052787 0.02681 0.035195 0.032729 
0.073997 0.054103 0.063474 0.075312 0.0087245 0.034044 0.027632 0.026152 
0.088958 0.078107 0.026646 0.02681 0.034044 0.029605 0.014808 0.025659 
0.14371 0.11296 -0.023336 0.022042 0.014479 0.018589 0.023851 0.069229 
0.14174 0.075312 -0.063289 0.027961 0.0069159 0.007738 0.053609 0.068078 
0.05065 -0.023829 -0.073154 0.037826 0.025824 0.03651 0.044073 0.047197 
-0.030735 -0.088937 -0.10275 0.043251 0.040456 0.028454 0.040785 0.026152 
-0.032215 -0.045696 -0.084169 0.007738 0.053281 0.0080668 0.058049 0.023522 
0.015465 0.0079024 0.007738 0.009711 0.01267 0.023686 0.044402 0.044896 
0.10589 0.10441 0.11642 0.05213 0.014808 0.0324 0.036839 0.05065 
0.099481 0.15555 0.15818 0.032236 0.023851 0.037497 0.041278 0.044402 
0.031907 0.13401 0.10704 0.019083 0.025495 0.037826 0.035031 0.034702 
0.030098 0.17593 0.076134 0.0324 0.032729 0.0075736 0.041772 0.038648 
0.17445 0.27047 0.030098 0.01711 0.038319 0.019411 0.031414 0.072846 
0.31519 0.22838 0.0324 0.059857 0.073339 0.030263 0.034537 0.10737 
0.25239 0.10425 0.048348 0.037826 0.043416 0.047362 0.055911 0.099481 
0.17199 0.023193 0.063803 0.022371 0.053445 0.023851 0.028783 0.083862 
0.12316 -0.055726 0.10096 0.046375 0.028783 0.023193 0.02122 0.034209 
-0.040928 -0.10965 0.10096 0.039799 0.031085 0.03947 0.050321 0.02681 
-0.43174 -0.11639 0.083862 0.057391 0.030427 0.034044 0.02122 -0.018239 
-0.59319 -0.20025 0.041278 0.068407 0.10852 0.07597 -0.0070593 -0.03501 
-0.27653 -0.21044 -0.01528 0.029276 0.043087 0.012013 -0.0090322 -0.008539 
0.048841 -0.094199 -0.0004827 0.050321 0.047362 0.059693 0.01826 0.032071 
0.13154 -0.076277 -0.030899 0.0059294 0.021713 0.025166 0.015794 0.01004 
0.20125 0.08978 0.023193 0.015465 0.011026 0.033222 0.029441 0.028125 
0.32588 0.27162 0.041278 0.0093821 -0.0029489 0.026317 0.021384 0.039141 
0.41384 0.21046 0.046211 0.0016547 -0.0016336 0.0019835 0.020398 0.021384 
0.34183 0.18925 0.0083956 0.020891 0.035031 -0.0024557 -0.0078813 -0.060823 
0.11231 0.37603 0.0036276 0.036346 0.061337 0.034209 0.0032988 0.0039565 
-0.076606 0.43949 0.0324 0.057884 0.050814 0.040292 0.035688 0.043745 
-0.16309 0.11346 0.016288 0.072024 0.033715 0.022042 0.037004 0.059528 
-0.20847 -0.36055 -0.14171 0.0087245 0.044073 0.04917 0.029276 0.072846 
-0.25697 -0.40642 -0.18084 0.0090533 0.01267 0.023357 0.013986 0.00033937 
-0.18627 -0.065755 -0.049971 0.029605 0.013164 0.016945 0.020233 -0.014129 
-0.026624 0.24597 0.12579 0.038155 0.025001 0.010204 0.0054362 0.02681 
0.038648 0.29957 0.19846 0.056569 0.037168 0.016452 -0.001798 0.049006 
0.042758 0.05476 0.1687 0.0072447 0.040292 0.012342 0.023522 0.057391 
0.044731 -0.20551 0.085835 -0.015938 0.035195 0.018589 0.025495 0.038812 
-0.015773 -0.40182 0.074326 0.034702 0.026646 0.032564 0.007738 0.022042 
-0.10324 -0.59369 0.009711 0.027961 0.029441 0.0090533 0.024179 -0.0075525 
-0.14517 -0.42434 -0.025802 0.037497 0.011355 0.0046141 0.012999 -0.022185 
-0.042737 0.065612 -0.006566 0.012835 -0.0036066 0.022042 0.007738 -0.018733 
0.10195 0.39526 0.00050378 0.010369 0.022206 0.018589 0.0046141 -0.0080457 
0.16853 0.48684 0.029112 0.045389 0.044238 0.0093821 0.019247 0.053774 
0.13384 0.40841 0.06479 0.022371 0.040292 0.0227 0.055089 0.027961 
0.041936 0.20619 0.041607 0.019411 0.021056 0.023851 0.024179 0.051636 
-0.026624 0.094055 0.0069159 0.025659 0.0046141 0.028947 0.01152 0.026974 
-0.040106 0.066598 -0.030077 0.0013258 0.014643 0.0064227 0.010369 -0.019884 
-0.044381 0.02681 -0.037476 0.025988 0.018096 0.031249 0.027303 -0.020048 
-0.055397 -0.02646 -0.00097594 0.016452 0.030263 0.016288 0.022042 0.0047785 
-0.030735 -0.05178 0.031085 0.02122 0.044073 0.016945 0.024344 0.040456 
0.070215 -0.025309 0.042923 0.05476 0.039141 0.032071 0.056404 0.08567 
0.20043 0.013164 0.062981 0.032729 0.013821 0.022535 0.045553 0.076792 
0.24976 0.038319 0.038977 0.015301 -0.0019624 0.015301 0.03388 0.073339 
0.23134 0.051636 0.023686 0.031578 0.00066819 0.035524 0.027796 0.068242 
0.43209 0.094877 0.05065 0.02829 0.026152 0.027139 0.056898 0.11132 
0.66359 0.15472 0.068407 0.063474 0.046211 0.037004 0.052294 0.11954 
0.59289 0.10458 0.045553 0.021878 0.028783 0.0092177 0.037004 0.073175 
0.12628 0.11872 0.067091 0.018754 0.034209 0.023028 0.038155 0.053281 
-0.57938 0.11329 0.093069 0.073504 -0.0022913 0.019576 0.039634 -0.021692 
-0.83669 0.068571 0.093233 0.035195 -0.011663 -0.00081153 0.019083 -0.08828 
-0.4883 0.034044 0.042923 0.011355 0.0062583 0.025166 0.0074092 -0.056877 
-0.31632 0.012835 -0.044874 0.010369 0.054596 0.015137 0.026974 -0.034188 
-0.449 -0.02646 -0.057699 0.0028056 0.087808 0.068078 0.024508 -0.055561 
-0.39228 0.10162 0.061172 0.0689 0.070051 0.049335 0.0090533 -0.052437 
0.036346 0.24696 0.11231 0.056898 0.053609 0.028454 0.032071 -0.012814 
0.39296 0.22098 0.089287 0.051472 0.030592 0.022864 0.053281 0.076299 
0.53995 0.17117 0.06742 0.079094 -0.024158 0.0019835 0.075148 0.14354 
0.44327 0.15324 -0.022843 0.004943 -0.0004827 0.0075736 0.040456 0.14305 
0.1271 -0.034516 -0.066248 -0.015116 0.0054362 -0.010348 0.046375 0.080902 
-0.1621 -0.12692 -0.018568 -0.013143 -0.011005 1.0539e-005 0.022535 0.034866 
-0.26387 0.014972 0.029769 -0.0022913 0.0024767 0.033058 0.0056006 0.035031 
-0.20008 0.10474 0.079258 0.070873 0.057391 0.039305 0.03388 0.026974 
0.10145 0.023357 0.086821 0.056076 0.066105 0.016288 0.083533 0.053774 
0.3147 -0.23527 0.034537 0.024179 0.034209 0.046868 0.031578 0.035853 
0.37652 -0.18512 0.096357 0.031249 0.034866 0.037168 0.0098754 0.01415 
0.40694 0.18909 0.18958 0.030427 0.029769 0.028783 0.020398 0.0079024 
0.34199 0.47254 0.18514 0.074819 0.049499 0.044567 0.052294 0.026646 
0.092576 0.43291 0.12431 0.021384 0.0074092 0.046046 0.034702 0.047197 
-0.11541 0.26653 0.043251 0.019905 0.033058 0.013492 0.032236 0.021384 
-0.19646 0.11691 -0.00097594 0.02829 0.034702 0.016781 0.036182 0.013164 
-0.12823 0.047691 -0.063946 -0.00015387 0.017603 0.027796 0.026481 0.014972 
-0.11442 0.0092177 -0.061151 0.0037921 0.024344 0.02829 0.0070803 0.0083956 
-0.11755 0.017274 -0.056548 0.014808 0.019083 0.0074092 0.010204 0.0034632 
-0.082525 -0.04323 -0.051451 -0.0072237 0.024508 0.035853 0.022535 -0.028597 
-0.020048 -0.1187 -0.025967 0.060186 0.033715 0.020069 0.017603 0.0079024 
-0.0054151 -0.11952 0.02533 0.034866 0.049828 0.024673 0.0047785 0.0052718 
-0.050136 -0.16884 0.074983 0.016616 0.03651 0.025495 0.0067515 0.0092177 
-0.061151 -0.18594 0.062817 0.035195 0.043251 0.037004 0.044402 0.042429 
-0.017253 -0.091075 0.06594 0.02122 0.028619 0.01563 0.022042 0.025495 
0.023686 0.040128 0.066105 0.056404 0.032564 0.024015 0.037661 0.026152 
-0.018239 0.06035 0.024673 0.041278 0.03536 0.0324 0.034373 0.026974 
-0.008539 0.085506 0.007738 0.015465 0.019905 0.023028 0.037826 0.030263 
0.099316 0.098001 0.01974 0.036675 0.020398 0.00017495 0.013986 0.031414 
0.17824 0.13417 0.088465 0.0054362 0.032564 0.033222 0.015794 0.039305 
0.23381 0.15933 0.09833 -0.0004827 0.031742 0.024673 0.042923 0.05213 
0.24597 0.13467 -0.028104 0.023357 0.016123 0.02122 0.024344 0.051472 
0.16558 0.095535 -0.15766 -0.00097594 0.022206 0.031249 0.027632 0.04095 
0.11083 0.1077 -0.13218 0.021549 0.01004 0.019905 0.013164 0.04358 
0.074654 0.10211 -0.014129 0.016945 0.032893 0.022864 0.043087 0.039963 
0.035688 0.015465 0.10458 0.020233 0.036346 0.020562 0.039634 0.056898 
-0.0075525 -0.15651 0.19961 -0.013307 0.048677 0.021878 0.023193 0.0074092 
0.0019835 -0.24332 0.061501 0.028125 0.033551 0.0042853 0.021056 -0.003771 
0.078272 -0.19926 -0.021692 0.061995 0.0046141 0.01004 0.088794 0.017603 
0.1345 -0.098638 0.01267 0.06594 0.0324 0.033387 0.012835 0.020069 
0.16607 -0.0073881 0.14733 0.062159 0.052952 0.015137 0.037826 0.037004 
0.076463 -0.096007 0.14338 0.084848 0.032236 0.021384 0.046704 0.026317 
0.011355 -0.20518 0.058213 0.050321 0.030098 0.079422 0.042429 0.034537 
0.060186 -0.051615 -0.0032777 0.033387 0.041114 0.040292 0.039141 0.07038 
0.098494 0.11494 0.067913 0.051472 0.056404 0.030592 0.020562 0.05624 
0.1391 0.22953 0.10524 0.0016547 0.025166 0.027139 0.051636 0.064954 
0.1396 0.27294 0.071859 -0.023829 0.010204 0.019411 0.0093821 0.056733 
0.060022 0.20076 -0.009361 -0.027611 1.0539e-005 -0.00064712 0.0047785 0.032236 
-0.028926 0.16146 -0.076771 -0.021363 0.0067515 -0.0036066 0.025001 0.022864 
-0.015773 0.1539 -0.10423 -0.012485 -0.014129 0.0083956 0.044073 0.01415 
0.039963 0.14831 -0.11064 -0.0067304 0.011684 0.0088889 0.026317 0.053774 
0.13302 0.15916 -0.061973 0.0051074 0.017932 0.023028 0.031742 0.06035 
0.1322 0.1276 0.030098 0.032071 0.049335 0.038812 0.049664 0.072846 
0.10885 0.029276 0.15949 0.040621 0.033715 0.027796 0.045553 0.049499 
0.052623 -0.050136 0.22378 0.092411 0.041772 0.025824 0.034209 0.027796 
-0.047176 -0.071509 0.27968 0.1054 0.035031 0.05065 0.028619 0.039799 
-0.12034 -0.080552 0.26094 0.10211 0.03947 0.038483 0.050157 0.031907 
-0.13711 -0.087786 0.10524 0.11329 0.044567 0.035524 0.029934 0.030098 
-0.1136 -0.040435 -0.041586 0.056569 0.048184 0.029934 0.02533 0.010369 
-0.017088 -0.03616 -0.13908 0.027139 0.027139 0.036839 0.027468 0.0026412 
0.12792 -0.0075525 -0.15552 0.0059294 0.025659 0.013328 0.02533 0.018754 
0.10622 0.066598 -0.085485 -0.013307 -0.0078813 -0.00064712 0.0028056 -0.029748 
-0.050136 0.088794 -0.022843 0.013986 0.012999 0.0085601 -0.02646 -0.083676 
-0.086307 0.079587 0.013492 -0.019061 0.0085601 0.0028056 -0.0031133 -0.076606 
0.027961 0.10244 0.051143 -0.0059084 0.024837 -0.0072237 -0.0016336 -0.052109 
0.23858 0.027303 0.049664 0.029276 0.022042 0.026317 0.0090533 0.040456 
0.29398 0.0026412 0.063145 0.048019 0.044896 0.021878 0.03388 0.074983 
0.17281 0.070051 0.097015 0.062323 0.037497 0.020069 0.056733 0.08715 
-0.0083746 0.12825 0.08863 0.054432 0.0039565 0.039963 0.041443 0.10573 
-0.097487 0.10672 0.064625 0.021878 0.0032988 0.033551 0.036839 0.08304 
-0.20748 0.06742 0.054267 0.011191 0.034537 0.0090533 0.039963 0.053445 
-0.24266 0.077778 0.053281 -0.023994 0.025495 0.013986 0.038319 0.025166 
-0.3857 -0.0014692 -0.032872 -0.0029489 0.0324 0.022371 0.0016547 -0.01117 
-0.6412 -0.031557 -0.11574 0.0023123 0.0324 0.011355 -0.0019624 -0.0503 
-0.40445 0.11313 -0.083347 -0.0083746 0.028125 0.0024767 0.030427 -0.020706 
0.13171 0.33854 0.04506 0.053774 0.022535 0.04095 0.034537 0.038977 
0.35876 0.35876 0.16541 0.055089 0.039141 0.030098 0.039799 0.05065 
0.2976 0.20273 0.16903 0.040128 0.03388 0.034044 0.02681 0.0021479 
0.18432 -0.069536 0.081231 0.066598 0.040621 0.040621 0.031249 -0.013471 
0.11757 -0.23165 -0.065262 0.020069 0.030427 0.035524 0.022206 -0.02646 
0.14568 -0.22277 -0.096172 0.00083261 0.029769 -0.0040998 0.00099702 0.01826 
0.13647 -0.10225 -0.020212 0.037332 0.035195 0.00033937 0.025001 0.02533 
-0.0062372 0.042594 0.087972 0.065283 0.025001 0.033387 0.034209 0.040292 
-0.13349 0.089287 0.03536 0.097508 0.042758 0.0080668 0.033715 0.061172 
-0.15322 0.0034632 -0.11343 0.034866 0.021384 0.031907 0.027468 0.042923 
-0.11179 -0.032872 -0.31451 -0.0047575 0.037661 0.039141 0.04654 0.045882 
-0.025309 0.10573 -0.2716 0.0032988 0.04358 0.028947 0.031085 0.018425 
0.063639 0.26948 -0.0075525 -0.018568 0.037661 0.01267 0.012177 0.022042 
0.074819 0.32506 0.22509 -0.00031829 0.033387 0.017274 0.012342 0.0227 
0.10556 0.2833 0.31947 0.0011614 0.021713 0.0074092 0.021384 0.022206 
0.14716 0.20438 0.26077 -0.0050863 -0.0055795 -0.0016336 0.017438 0.020069 
0.13828 0.10589 0.11674 0.029769 0.017438 0.012835 0.016616 0.00017495 
0.1197 0.0024767 0.084519 0.026317 0.031085 0.016781 0.034537 0.0082312 
0.016452 -0.12116 0.14864 0.035688 0.042265 0.021549 0.03651 0.0090533 
-0.10209 -0.29659 0.11954 0.042594 0.035031 0.037004 0.053281 -0.0062372 
-0.14846 -0.37008 0.0062583 0.034702 0.049992 0.050321 0.012177 0.035853 
-0.094199 -0.25368 -0.1478 0.024673 0.030263 0.01267 0.041936 0.053116 
0.023851 -0.027775 -0.19614 0.030592 0.034044 0.023522 0.035195 0.062323 
0.085506 0.11378 -0.15931 0.06594 0.034537 0.034866 0.049006 0.087808 
0.098659 0.11395 -0.038462 0.065447 0.035688 0.029441 0.047033 0.06742 
0.10721 0.028125 0.045224 0.02533 0.017438 0.027303 0.058213 0.081231 
0.050321 -0.062796 0.10096 0.019576 0.020727 0.013986 0.034537 0.017603 
0.033058 -0.035832 0.093398 0.023357 0.0098754 0.022042 0.0064227 -0.0047575 
0.053609 0.16837 0.14338 0.027468 0.042758 0.013328 0.037497 -0.0080457 
0.15341 0.33689 0.19336 0.08008 0.04917 0.026646 0.054103 0.065612 
0.20931 0.28034 0.19517 0.048513 0.038155 0.047691 0.043909 0.089452 
0.17265 0.13269 0.11165 0.043251 0.040785 0.029276 0.041607 0.060022 
0.080902 0.077614 0.013821 0.062323 0.026974 0.032071 0.058049 0.03947 
0.019083 0.0421 -0.012485 0.057884 0.035031 0.038648 0.032071 0.0037921 
0.06183 0.069393 0.048513 0.050321 0.027796 0.015465 0.023357 0.01974 
0.099316 0.082382 0.090109 0.054432 0.031249 0.0093821 0.031085 0.057391 
0.10425 0.026481 0.11839 0.016781 0.019247 0.029112 0.028783 0.041772 
0.10458 -0.040106 0.091425 0.025824 0.012013 0.027139 0.01826 0.03947 
0.038319 -0.1182 -0.0047575 -0.0067304 0.021549 0.017438 0.035031 -0.0075525 
0.0069159 -0.14813 -0.011005 -0.010841 0.015959 0.032071 0.059035 -0.018897 
0.053281 -0.10357 0.012342 0.031414 0.0069159 0.044896 0.046046 0.038812 
0.059528 -0.054904 -0.0040998 0.02681 0.018918 0.012013 0.010204 0.020398 
-0.014293 -0.039778 -0.074304 0.043745 0.01415 0.025824 -0.010841 0.034044 
-0.084663 0.074654 -0.094034 0.027796 0.021878 0.02122 0.024015 0.032071 
-0.064933 0.24976 -0.061151 -0.021692 0.056404 0.0014903 0.033551 0.044567 
0.030756 0.27869 0.069393 0.046375 0.026646 0.01974 0.034537 0.096357 
0.084684 0.19944 0.15949 0.055911 0.032893 0.036017 0.047362 0.11691 
0.17758 0.13187 0.17955 0.056898 0.026317 0.036017 0.044896 0.10376 
0.33246 0.095535 0.15522 0.032236 0.03651 0.0019835 0.031578 0.028783 
0.31881 0.029441 0.079258 -0.0022913 0.015465 0.025001 0.013492 0.014972 
0.2218 0.00033937 -0.047176 -0.048492 0.016616 0.015301 0.023522 0.020727 
0.081395 -0.049642 -0.071181 -0.021528 0.026974 0.0059294 0.0067515 0.029276 
-0.033201 -0.15076 -0.071838 0.0028056 0.042923 0.01152 0.00066819 0.028619 
-0.1621 -0.14763 -0.040764 0.042429 0.029934 0.0054362 -0.012978 -0.051451 
-0.27078 -0.078579 0.0075736 0.021384 -0.0073881 -0.013471 -0.02646 -0.1815 
-0.32865 0.029605 0.03536 0.051636 -0.023007 -0.02794 -0.045696 -0.17756 
-0.46923 0.24071 0.059528 0.050157 0.015137 0.027961 -0.0050863 -0.071181 
-0.39129 0.293 0.076299 0.065118 0.042923 0.033058 0.05624 0.070051 
-0.06296 0.23923 0.023686 0.052787 0.054267 0.043251 0.058706 0.096686 
0.20832 0.21983 -0.0019624 0.03536 0.016616 0.073504 0.046704 0.12858 
0.16541 0.21769 -0.030899 -0.0013048 0.042758 0.0324 0.034209 0.12694 
0.080409 0.17363 -0.045861 0.024673 0.044402 0.007738 0.021878 0.070708 
0.085177 0.16015 -0.035667 0.0036276 0.011355 0.010533 0.016452 0.072188 
0.1636 0.13056 0.020562 0.0028056 0.025659 0.015794 0.0065871 0.051308 
0.24548 0.093562 0.036182 0.029934 0.040128 0.023357 0.025988 0.064954 
0.42124 0.035853 0.045553 0.01826 0.045553 0.025495 0.051965 0.082546 
0.57151 -0.017417 0.037661 0.051965 0.016288 0.031578 0.030263 0.055254 
0.55343 -0.32865 -0.019719 0.0070803 -0.0011404 -0.00097594 0.010697 0.026646 
0.3826 -0.54782 -0.027611 -0.0055795 0.0087245 0.0059294 0.0082312 -0.023665 
0.01004 -0.28673 -0.028926 0.030756 0.040292 0.030592 0.013328 -0.031228 
-0.40461 -0.047998 -0.016102 0.037332 0.029276 0.01152 0.031085 -0.013143 
-0.67606 0.054267 0.040128 0.050486 0.078436 0.043909 0.027139 -0.014622 
-0.80693 0.21194 0.088301 0.076792 0.076463 0.039963 0.020233 -0.061151 
-0.79526 0.28099 0.081724 0.041772 0.031414 0.023193 -0.001798 -0.087293 
-0.24661 0.26176 0.081395 0.054925 0.00083261 0.012342 0.0047785 -0.015444 
0.3683 0.19369 0.031907 0.011026 -0.0062372 0.01152 0.030756 0.050814 
0.48832 0.12332 -0.012978 -0.012485 -0.0075525 0.022042 0.038977 0.070215 
0.35794 0.037497 -0.025638 0.01563 0.00033937 0.010697 0.027303 0.10129 
0.13615 -0.00064712 -0.020706 0.0069159 0.030427 0.012177 0.024837 0.081231 
-0.19433 -0.012649 0.0062583 0.034866 0.042594 0.030756 0.030756 0.022535 
-0.38242 -0.010841 0.0014903 0.033222 0.037004 0.017767 0.029605 0.0093821 
-0.29232 -0.021199 0.017274 0.015465 0.034537 0.013164 0.0082312 -0.0021268 
-0.11475 0.0016547 0.082382 0.029934 0.040292 0.055911 0.0039565 0.029605 
0.20536 -0.0080457 0.11099 0.042758 0.028454 0.032893 0.063145 0.075148 
0.42239 -0.016102 0.091096 0.05772 0.016781 0.0095465 0.029934 0.09833 
0.54685 -0.049314 0.034537 0.0092177 0.0052718 0.012999 -0.010183 0.05476 
0.55063 -0.08532 0.0074092 0.01152 -0.0014692 -0.0004827 -0.018897 -0.042079 
0.26554 -0.037147 0.030098 0.058377 0.017767 -0.023994 -0.010183 -0.074962 
