0.055254 0.017932 0.057062 0.028454 -0.0082102 0.034702 0.038319 0.030098 
0.22838 0.072681 0.054925 0.019576 0.012999 0.0042853 0.04358 0.027632 
0.33147 0.067749 0.040456 0.038977 0.01152 0.029934 0.063474 0.048184 
0.34331 0.071202 0.018589 0.018096 0.013986 0.010533 0.043087 0.038648 
0.29201 0.11658 0.0092177 0.040128 0.016123 0.015959 0.031742 0.037168 
0.244 0.083533 0.02122 0.04358 0.028454 0.011191 0.030263 0.044073 
0.13088 0.050814 0.016288 0.013821 0.021549 0.019905 0.053116 0.018589 
-0.027282 0.048019 0.027468 0.027139 -0.018239 -0.0067304 0.025001 0.007738 
-0.12133 0.02533 0.046704 0.024673 0.0047785 -0.0091966 0.030756 0.0034632 
-0.10998 0.027139 0.041278 0.0080668 0.0060938 0.01563 0.012013 0.015959 
-0.19778 0.031907 0.034209 0.048841 0.024673 0.0051074 0.04506 0.018096 
-0.23494 0.012835 -0.0011404 0.017603 0.029112 -0.0031133 0.015137 0.0041209 
-0.044874 0.034044 0.013657 0.014808 0.025001 0.025824 0.029769 0.025824 
0.10343 0.067585 0.015465 0.0421 0.017932 0.014643 0.038977 0.025659 
0.13845 0.079422 0.032893 0.023193 0.0046141 0.022206 0.025001 0.016123 
0.091918 0.03092 0.024673 0.030098 0.016288 0.020891 0.03092 -0.0080457 
0.055582 0.032071 0.033715 0.0227 0.031414 0.027468 0.021056 0.0082312 
0.021878 0.042758 0.053281 0.01415 0.029769 0.015794 0.040292 0.039305 
0.0079024 0.039305 0.044073 0.040128 0.031578 0.0060938 0.024344 0.021713 
0.020069 0.036346 0.023522 0.024179 0.030427 0.024179 0.018096 0.037826 
0.045553 0.046375 0.02533 0.02533 0.032564 0.028619 0.0092177 0.031249 
0.095864 0.027139 0.018096 0.051143 0.032893 0.025495 0.024508 0.025001 
0.019905 0.018589 0.0098754 0.025001 0.021384 0.035853 0.0059294 -0.0055795 
-0.058685 0.014315 0.01267 0.025495 0.017274 0.027632 -0.009361 -0.026624 
-0.04882 0.016781 0.041607 0.034702 0.031907 0.013164 0.013657 -0.011663 
0.041607 0.016781 0.0592 0.020562 0.041607 0.024344 0.035853 0.0227 
0.16771 0.058213 0.033551 0.0421 0.024179 0.043909 -0.0044286 0.062159 
0.13105 0.027468 0.0079024 0.011848 0.027632 0.023193 0.01267 0.064461 
0.12332 0.041443 0.01711 0.01826 0.040621 0.013492 0.054596 0.038155 
0.066434 0.061337 0.015465 0.040456 0.015465 0.024344 0.026974 0.04506 
-0.043395 0.050814 0.044073 -0.033037 0.039141 0.020233 -0.014787 0.013821 
-0.054904 0.04917 0.018918 0.013657 0.036675 0.0095465 -0.010183 0.020727 
0.053116 0.10819 0.023851 0.030098 0.062652 0.047362 -0.032543 0.032071 
0.10984 0.097837 0.06035 0.032729 0.075641 0.022371 -0.012156 0.026481 
0.1054 0.070544 0.07449 0.062981 0.065447 0.048841 -0.021528 0.022206 
0.037826 0.012013 0.013821 0.010369 0.03092 0.035524 0.00033937 0.005765 
0.0324 -0.0040998 -0.0082102 -0.012649 0.023686 0.045882 0.01267 0.018096 
0.025495 0.011848 0.012342 0.044567 0.012835 0.022206 0.0031344 0.01974 
0.048348 0.047691 0.020233 0.033222 0.0023123 0.024344 -0.0011404 0.026152 
0.030427 0.047197 0.029934 0.035688 0.011355 0.046211 0.039634 0.029934 
0.042758 0.03799 0.04917 0.021056 0.004943 0.016123 0.049992 0.017767 
0.026974 0.03947 0.068078 0.0085601 0.018096 0.01152 0.028125 0.042594 
0.039141 0.049499 0.041607 0.041278 0.04095 0.05065 0.016616 0.013328 
0.079258 0.040621 0.012177 0.025001 0.071202 0.061172 0.04358 0.031414 
0.11 0.057062 0.027468 0.025824 0.074654 0.10129 0.06742 0.042923 
0.12924 0.055254 0.036017 0.041443 0.057884 0.062981 0.061666 0.052459 
0.044896 0.055418 0.023522 0.025166 0.077943 0.0039565 -0.001798 0.060515 
-0.043559 0.034866 0.034866 0.03799 0.10014 -0.042079 0.0083956 0.042923 
-0.071345 0.052459 0.041443 0.022042 0.063474 -0.01232 -0.0096899 0.085999 
-0.012156 0.060515 0.058213 0.031249 0.048019 0.036017 0.0083956 0.093726 
0.024508 0.055582 0.067749 0.050979 0.052787 0.046375 0.024015 0.048677 
-0.087458 0.028454 0.020069 0.010204 0.062817 0.043745 0.049992 0.028783 
-0.13004 -0.0096899 0.013492 0.0088889 0.016288 0.047855 0.025166 -0.0011404 
0.012835 0.012835 0.024015 0.045553 -0.02087 0.02122 0.047526 0.00033937 
0.25008 0.037168 0.0067515 0.025659 -0.0077169 0.0024767 0.053116 -0.0073881 
0.4145 0.046704 0.021549 0.02829 -0.025638 0.010862 0.040785 0.017603 
0.37191 0.042594 0.027468 0.0227 0.034044 0.023851 0.029605 0.034373 
0.069393 0.058049 0.055254 0.024837 0.022371 0.0095465 0.0065871 0.010533 
-0.27374 -0.0047575 0.055089 0.055911 0.03947 -0.0070593 0.028454 -0.024158 
-0.36417 -0.0090322 0.029112 0.018754 0.050979 0.023193 0.0093821 -0.013471 
-0.21027 0.044402 0.021549 0.015137 0.031249 -0.0014692 0.017932 0.010697 
-0.040435 0.053116 0.031414 0.042265 0.042429 0.023193 0.043745 0.070051 
0.015465 0.049992 0.039799 0.0095465 0.012013 0.050814 0.077121 0.066927 
0.05772 0.088958 0.029934 0.01711 0.01563 0.042594 0.031085 0.051801 
0.093069 0.079751 0.052952 0.028947 0.012506 0.016781 0.030098 0.04506 
0.076463 0.059528 0.041114 0.026646 -0.0095255 0.014479 0.022864 0.046375 
0.082711 0.084684 0.061337 0.056898 -0.035667 0.025988 0.039141 0.061501 
0.16426 0.05772 0.018096 0.01563 -0.050629 0.01826 0.053774 0.021056 
0.24696 0.031578 -0.0068948 0.026152 -0.035832 -0.0054151 0.064296 0.024508 
0.18169 0.04095 0.010369 0.043909 -0.024816 0.025166 0.048513 0.0036276 
-0.031064 0.018425 0.020891 0.021713 0.021549 0.0069159 -0.022514 0.01267 
-0.35167 -0.015938 0.026646 0.018589 0.037661 -0.049478 -0.14007 0.0060938 
-0.44555 -0.014293 0.025988 0.0075736 0.038648 -0.036325 -0.17887 0.010204 
-0.18084 0.050321 0.0032988 -0.0036066 0.022042 -0.091075 -0.14648 0.0070803 
0.082382 0.065283 0.057227 0.057884 0.063145 -0.039449 0.0064227 0.034373 
0.19106 0.048019 0.054267 0.036182 0.15966 0.08156 0.12217 0.029934 
0.24893 0.067091 0.036182 0.050814 0.18481 0.14256 0.20158 0.051965 
0.19764 0.058213 0.028454 0.073832 0.16771 0.12562 0.34725 0.037332 
0.10408 0.043745 0.023686 0.035853 0.10688 0.1077 0.39855 0.044073 
0.010697 0.03799 0.029934 0.047197 0.0324 0.083204 0.27047 0.015137 
-0.0032777 0.032236 0.027303 0.0064227 -0.018404 0.059035 -0.041915 0.010369 
-0.016431 0.028619 0.031414 0.0046141 -0.062467 0.053609 -0.20682 0.0028056 
-0.025638 0.061337 0.061172 0.045389 -0.084991 0.028125 -0.14517 0.013164 
-0.016924 0.042923 0.052459 0.040128 -0.071345 0.0067515 -0.097651 0.057062 
0.0080668 0.05213 0.020727 0.039963 -0.03205 -0.0098543 -0.11804 0.060022 
0.010697 0.06479 0.014972 0.048677 -0.00015387 -0.014293 -0.10275 0.052952 
0.040456 0.036675 0.011684 0.019905 0.017274 -0.012978 -0.028269 0.032564 
0.080738 0.033058 0.020069 0.023028 0.055747 -0.044381 0.037332 0.02122 
0.11329 0.061666 0.028619 0.005765 0.060679 -0.045696 0.099481 0.023522 
0.10524 0.03651 0.036182 0.016616 0.060844 -0.0138 0.08008 -0.00015387 
0.057227 0.033551 0.041114 0.020891 0.034373 -0.028104 0.087479 -0.00064712 
0.03092 0.063639 0.047197 0.0019835 0.028454 -0.0011404 0.058542 0.015137 
0.0042853 0.050814 0.024673 0.029769 0.061172 0.051801 0.06479 0.024508 
-0.17082 0.056404 0.024508 0.049499 0.044567 0.09422 0.059857 0.0093821 
-0.20123 0.061501 0.012999 0.041443 0.0021479 0.093069 0.076299 -0.025474 
-0.048985 0.04358 0.021878 0.032236 -0.056548 0.03536 0.064296 -0.0044286 
0.089616 0.038812 0.030263 0.017603 -0.072167 0.0028056 0.058049 0.03388 
0.12957 0.063145 0.043745 0.0095465 -0.054575 -0.0049219 0.015959 0.080738 
0.14174 0.051636 0.057227 0.038483 -0.008539 0.032236 -0.0060728 0.10556 
0.11033 0.035524 0.059364 0.017438 0.064461 0.047691 0.0034632 0.070873 
0.091918 0.063474 0.028125 -0.003771 0.12316 0.038155 0.019411 0.048019 
0.050814 0.054925 0.012013 0.032564 0.14733 0.018096 -0.0036066 0.033058 
0.02681 0.03799 0.021384 0.021878 0.13861 -0.00015387 0.012342 0.022864 
0.020069 0.042594 0.021878 0.0047785 0.10935 -0.026789 0.019083 0.033715 
0.01563 0.039634 0.018754 0.026481 0.086163 0.018918 0.039799 0.0324 
0.023522 0.053445 0.032893 0.022206 0.06742 0.10326 0.04358 0.029276 
0.08304 0.058213 0.069229 0.048348 0.077943 0.1105 0.030263 0.024673 
0.10392 0.08008 0.05772 0.018589 0.057391 0.076299 0.040292 0.018589 
0.099316 0.036182 0.012999 0.031907 -0.0034422 0.038319 0.05065 0.027468 
0.091425 0.028454 0.016781 0.034209 -0.06 0.0088889 0.082053 0.043909 
0.076463 0.06331 0.013821 0.028783 -0.093212 -0.021528 0.076627 0.042758 
0.071531 0.023851 0.016781 0.030098 -0.10801 -0.047176 0.066105 0.025659 
0.01267 0.024673 0.011355 0.035195 -0.063453 0.023193 0.032729 0.0067515 
-0.12182 0.087808 0.030756 0.037661 -0.04882 0.017767 -0.0057439 -0.011663 
-0.28278 0.046211 0.034866 0.03947 -0.00064712 0.0059294 -0.029091 -0.0067304 
-0.21636 0.062159 0.034866 0.01826 0.0024767 0.024673 -0.056383 -0.020541 
-0.076442 0.051308 0.026646 0.02829 0.033715 0.019411 -0.0868 -0.030899 
0.056898 0.023851 0.034537 0.048841 0.040621 -0.024487 -0.054575 -0.0054151 
0.12579 0.015465 0.023028 0.0059294 0.041936 -0.084663 0.01004 0.065447 
0.12398 0.047362 0.020069 0.021549 0.046868 -0.016102 0.029441 0.049335 
0.09981 0.026646 0.034209 0.029605 0.066763 0.057884 0.021384 0.075312 
0.12562 0.025824 0.029934 0.027303 -0.017088 0.030427 0.053609 0.06742 
0.15785 0.043087 0.047526 0.051143 -0.086964 -0.028597 0.089287 0.063145 
0.17429 0.049006 0.058706 0.029605 -0.11015 -0.015116 0.078765 0.046704 
0.18152 0.084848 0.02681 0.016945 -0.075291 0.0051074 0.047362 0.02829 
0.14321 0.074326 0.026646 0.043416 -0.017253 0.024837 0.010862 0.051801 
0.048513 0.053445 0.024179 0.021384 0.039799 0.01415 0.019247 0.018589 
-0.036654 0.026646 0.010862 0.02829 0.083204 0.0023123 0.0093821 0.021878 
-0.028433 0.054432 0.019576 0.039141 0.14815 0.030756 0.018918 -0.0083746 
0.013657 0.030427 0.031414 0.018918 0.13943 0.06479 0.027303 -0.0059084 
-0.011498 0.0037921 0.041772 0.049499 0.13894 0.015959 0.035524 0.017932 
-0.035667 0.01004 0.051801 0.0034632 0.14502 -0.039449 0.026974 0.0041209 
0.16294 0.050157 0.038319 0.0088889 0.18695 0.047526 0.013657 0.026317 
0.32884 0.082875 0.028619 0.049992 0.15587 0.12135 0.065118 0.040456 
0.28823 0.093398 0.020233 0.029112 0.03947 0.092576 0.13532 0.024837 
0.015959 0.050814 0.01711 0.037826 -0.045532 0.050321 0.11477 0.029276 
-0.3012 0.0079024 0.011355 0.01826 -0.10012 0.022535 0.0592 0.025659 
-0.36121 0.026317 -0.0036066 0.017274 -0.07266 -0.003771 0.01711 0.06331 
-0.2476 0.048184 0.040785 0.041443 -0.029584 -0.0032777 -0.050464 0.04506 
-0.32931 0.0028056 0.054925 0.018589 -0.017417 0.025824 -0.096994 -0.025802 
-0.38488 -0.02646 0.040785 0.015959 -0.026789 0.012342 -0.059836 -0.055726 
-0.068057 0.007738 0.015465 0.038648 -0.011827 0.029276 -0.017088 -0.02794 
0.24778 0.041278 0.017603 0.015959 0.01415 0.020727 -0.022514 0.029769 
0.33377 0.061995 0.022371 -0.0049219 0.041936 0.044238 -0.049149 0.03947 
0.3022 0.08567 0.028619 0.016781 0.044731 0.026481 -0.083347 0.042429 
0.31569 0.11247 0.049664 0.03651 0.06183 0.0056006 -0.028597 0.0786 
0.29004 0.11576 0.075805 0.046868 0.081067 0.04506 0.064461 0.082875 
0.22444 0.093726 0.073668 0.023522 0.072846 0.028454 0.11115 0.084684 
0.29612 0.038648 0.055582 0.013164 0.059857 0.025001 0.13713 0.044238 
0.29596 -0.010348 0.027468 0.037332 0.056076 0.031907 0.1003 0.037168 
0.20536 -0.023007 0.0067515 0.017767 0.048841 0.023851 0.073832 -0.009361 
-0.055068 -0.065262 -0.0040998 0.017767 0.033551 0.035688 0.037497 -0.043066 
-0.46249 -0.069043 -0.012814 0.0044497 0.067256 0.078107 0.019576 -0.03205 
-0.51691 0.042429 0.023851 0.018425 0.046211 0.060679 0.013328 -0.026953 
-0.22178 0.082711 0.047362 0.028125 0.01415 0.037332 0.014315 0.012013 
-0.066577 0.083533 0.068407 0.022042 0.024015 0.025166 0.0080668 0.023357 
-0.18397 0.083533 0.052294 0.00050378 0.012999 0.031742 0.0072447 0.016616 
-0.14451 0.035853 0.024179 0.031742 0.035031 -0.009361 0.00017495 0.038812 
0.053116 0.058542 0.05065 0.025988 0.045882 -0.037311 0.025495 0.068571 
0.20339 0.099645 0.030263 0.029934 0.049335 0.0064227 0.081395 0.095371 
0.20471 0.079094 0.048348 0.033551 0.049499 0.052952 0.10096 0.08978 
0.16377 0.049335 0.027303 0.021878 0.050321 0.072681 0.10063 0.04506 
0.1174 0.049992 0.048019 0.072024 0.075148 0.03651 0.055418 0.01004 
0.085012 0.049664 0.056569 0.023357 0.059857 0.065612 -0.0095255 0.010369 
0.057884 0.0227 0.050486 0.047197 0.041936 0.046375 -0.059178 0.037332 
0.033387 0.028619 0.020069 0.04506 -0.004593 0.0082312 -0.03501 0.046375 
0.023686 0.048513 0.027303 0.023357 -0.041257 0.009711 -0.014787 0.054925 
0.02829 0.020891 0.017438 0.015137 -0.063782 0.035195 -0.0064016 0.063639 
0.026646 0.032564 0.016781 0.018096 -0.084169 0.063968 0.024837 0.043416 
0.037004 0.060844 0.025988 -0.0072237 -0.04882 0.063968 0.029769 0.029769 
0.013328 0.05065 0.04654 0.050157 -0.0032777 -0.0078813 0.029441 0.026481 
0.010862 0.012177 0.051636 0.033222 0.062817 -0.0072237 0.048841 0.030098 
0.0023123 0.054925 0.048513 0.019905 0.085177 0.0013258 0.045224 0.046868 
-0.00081153 0.04506 0.033387 0.036182 0.052459 0.018754 0.062981 0.047033 
0.0059294 0.044402 0.029934 0.034866 0.021878 0.0080668 0.067913 0.059693 
0.030263 0.055911 0.025824 0.032071 0.015137 0.009711 0.066763 0.018589 
0.01415 0.040292 0.016452 0.025166 0.018918 0.021713 0.046211 0.01267 
0.021549 0.028454 0.026317 0.012999 0.024508 0.012506 0.01711 0.022535 
0.02533 0.058049 0.028947 0.051965 0.018918 0.0079024 0.050979 0.019905 
0.00050378 0.049335 0.040456 0.03799 0.036346 0.043087 0.045224 0.053938 
-0.050464 0.038483 0.049006 0.0227 0.052294 0.037332 0.020891 0.011191 
0.019905 0.080573 0.052294 0.048348 0.053609 0.031414 0.017274 0.024673 
0.062488 0.066434 0.045389 0.019576 0.025166 0.0227 0.059528 0.023028 
0.062159 0.056733 0.034044 0.046046 0.020727 0.027303 0.020398 0.048348 
0.05624 0.085999 0.032071 0.012177 -0.019226 0.0052718 -0.020377 0.034044 
0.088794 0.088958 0.018425 0.015465 0.031085 0.0019835 -0.02646 0.0085601 
0.21145 0.10721 0.036017 0.052623 0.024179 0.0037921 0.010533 0.037661 
0.31996 0.093562 0.054432 0.025659 0.037168 -0.0019624 0.051143 0.069722 
0.2976 0.033387 0.048513 0.018918 0.048019 0.0092177 0.038977 0.05624 
0.15818 0.01415 0.014479 0.031742 0.018754 0.013657 0.043087 0.058706 
0.052952 0.057884 0.039305 0.0090533 -0.05885 0.031085 0.045882 -0.0014692 
0.10277 0.062323 0.028619 0.044896 -0.012814 1.0539e-005 0.030756 0.036675 
0.072517 0.04358 0.026317 0.045224 0.027961 0.025824 0.049006 -0.0060728 
-0.22277 0.019247 0.026646 0.025659 0.024179 0.022371 0.03536 -0.019226 
-0.31912 0.015465 0.0090533 0.014808 0.09126 0.047197 0.019905 0.0067515 
-0.1575 0.016452 0.038319 0.019576 0.069064 0.053938 0.033387 0.040621 
0.031907 0.036839 0.071859 0.049335 0.071531 0.055254 0.034866 0.060844 
0.067256 0.032893 0.040785 0.05065 0.050814 0.043416 0.059857 0.054432 
0.015137 0.0024767 0.015301 0.015465 0.03799 0.0421 0.034373 0.048348 
-0.15257 0.0036276 0.020727 0.023357 0.032236 0.038483 0.032071 0.045553 
-0.3229 0.013821 0.00033937 0.010204 0.049006 0.01415 0.023028 -0.028433 
-0.19466 0.023851 -0.020541 -0.0027845 0.093398 -0.018075 0.040292 -0.046847 
0.12677 0.061501 0.0034632 0.033387 0.073339 0.0083956 0.024837 -0.0083746 
0.32539 0.095535 0.050321 0.010862 0.031578 0.047362 -0.018239 0.031742 
0.37586 0.085341 0.068242 0.028619 -0.016431 0.019247 0.047197 0.033387 
0.2149 0.056076 0.071366 0.036017 -0.035667 -0.00081153 0.10458 0.024673 
0.092576 0.033387 0.02681 0.026152 -0.020541 0.015465 0.09833 0.028454 
0.025988 0.038483 0.0056006 0.039799 0.018096 0.010862 0.057227 0.025495 
0.053774 0.027139 0.03092 0.050157 0.058871 0.014479 0.011684 0.032071 
0.070873 0.051801 0.039963 0.052294 0.061995 0.016616 -0.049971 0.056076 
0.1003 0.039305 0.021549 0.045389 0.0095465 0.014808 -0.11656 0.00033937 
0.031907 0.03799 0.045389 0.013986 -0.036983 -0.010676 -0.17871 -0.019226 
-0.10291 0.071366 0.041936 0.0051074 -0.030899 0.00017495 -0.1011 -0.024323 
-0.10423 0.042265 0.050814 0.013328 0.0098754 0.04917 0.0021479 0.024179 
-0.061151 0.014643 0.017274 0.019905 0.056733 0.051965 0.05065 0.022535 
-0.043724 0.023357 0.020233 0.045553 0.11181 0.041114 0.046211 0.052623 
-0.032379 0.0019835 0.022206 0.016945 0.14289 0.053609 0.069558 0.046704 
-0.021199 0.0075736 0.028783 0.017932 0.09274 0.01152 0.076956 0.046046 
-0.0016336 0.020233 0.031414 0.047691 0.053116 -0.016102 0.091918 0.067585 
-0.015773 0.022042 0.042594 0.014808 0.027468 -0.035174 0.06183 0.0085601 
0.0016547 0.023686 0.069722 0.029112 0.0034632 -0.0088678 0.037332 0.0074092 
0.025495 0.041607 0.046211 0.021713 0.031249 0.050486 0.05476 0.0021479 
0.031249 0.039305 0.045553 0.030756 0.061337 0.11263 0.032236 0.0028056 
0.041443 0.041772 0.028619 0.037332 0.072353 0.10376 0.035031 0.036182 
0.043745 0.049006 0.031742 0.03536 0.051308 0.054432 0.01267 0.012835 
0.021549 0.051143 0.019247 0.026481 0.025659 0.015794 0.0039565 0.033715 
0.037332 0.058377 0.024837 0.046046 -0.0057439 -0.0062372 -0.0026201 0.027139 
0.031249 0.038319 0.026481 0.016945 -0.031392 -0.031886 0.012177 0.030263 
0.043087 0.049664 0.037661 0.028783 -0.018568 -0.023829 0.013328 0.031742 
0.040785 0.034373 0.052623 0.032893 0.016288 0.00066819 0.0018191 0.020891 
0.018425 0.053774 0.013164 0.016123 0.042429 0.04654 0.024179 0.037332 
0.01974 0.036839 0.01415 0.039799 0.0059294 0.025659 0.067585 0.035031 
0.032564 0.048348 0.014808 0.025988 -0.00064712 0.0047785 0.0092177 0.035853 
0.03092 0.02681 0.074654 0.044073 -0.013636 0.021056 0.017438 0.03947 
0.040456 0.067749 0.042265 0.067749 0.035524 0.031578 0.030592 0.043087 
0.063968 0.061172 0.030098 0.029934 0.027632 0.027961 0.052459 0.039963 
0.062488 0.041114 0.03092 0.019576 0.031414 0.029769 0.024673 0.034044 
0.097672 0.071531 0.030427 0.027796 0.037661 0.024673 0.0085601 0.044073 
0.055911 0.051143 0.025824 0.016781 0.042758 0.02829 0.051636 0.054432 
0.017767 0.037497 0.02681 0.03388 -0.011827 0.0023123 0.049335 0.038812 
0.03947 0.064132 0.024508 0.019411 0.0060938 0.01267 0.034702 0.045553 
0.086657 0.058542 0.016616 0.03799 0.041443 0.023357 0.058542 0.025495 
0.087479 0.055582 0.030592 0.048677 0.061008 0.01415 0.052952 0.027961 
0.023193 0.10244 0.035853 0.030756 0.091425 0.045882 0.023686 0.0324 
0.0082312 0.060022 0.039963 0.031742 0.09126 0.031742 0.0039565 -0.0050863 
0.0090533 -0.0029489 0.056733 0.071366 0.037004 0.039305 0.010533 -0.0013048 
-0.079072 -0.025474 0.030756 0.026646 0.025659 0.030098 0.054267 0.017932 
0.014643 -0.03057 0.0011614 0.013328 -0.0019624 -0.0057439 0.085177 0.05624 
0.080573 0.028783 0.0067515 0.01267 -0.012814 0.039141 0.073175 0.075312 
0.027468 0.080409 0.032236 0.03092 0.00017495 0.10491 0.059693 0.042429 
-0.0026201 0.055582 0.022371 0.088136 -0.00015387 0.1054 0.030592 0.052459 
-0.025145 0.052623 0.047526 0.044073 0.027796 0.022206 -0.0039354 0.030427 
0.039305 0.055747 0.055582 0.045882 0.040621 -0.010676 -0.020541 0.043416 
0.14091 0.06183 0.072353 0.044896 -0.0088678 -0.023665 -0.028926 0.035524 
0.13615 0.050157 0.044073 0.028619 -0.04323 -0.079072 -0.10012 0.037661 
0.085835 0.062652 0.0082312 0.035688 -0.060658 -0.097322 -0.096336 0.055254 
0.05476 0.054432 0.0093821 0.015794 -0.022021 -0.026624 -0.029913 0.045882 
0.021549 0.039799 0.022371 0.0056006 0.0059294 -0.0082102 0.090931 0.036839 
-0.054082 0.042758 0.018425 0.037826 0.028454 -0.0042642 0.10852 0.0080668 
-0.062467 0.029441 0.01826 0.0028056 0.033222 0.032729 0.1105 -0.02235 
-0.022514 0.0087245 0.028619 0.0013258 -0.0029489 0.085999 0.074983 -0.0039354 
0.018096 0.027139 0.048841 0.029605 0.014315 0.070215 0.11642 0.00033937 
0.055911 0.05065 0.030756 0.020891 0.025988 0.040128 0.10869 0.028619 
0.071695 0.02533 0.014972 0.0421 0.073175 0.053938 0.063803 0.03092 
0.069886 0.029605 0.022864 0.024179 0.10326 0.041114 0.0069159 0.034537 
0.056404 0.049992 0.011026 0.0072447 0.093891 0.064296 -0.020212 0.04095 
0.03947 0.027468 0.0324 0.056569 0.076792 0.10737 -0.027118 0.026317 
0.025659 0.030263 0.03947 0.0227 0.041772 0.0592 -0.022679 0.036017 
-0.035338 0.040621 0.060844 0.019083 -0.039449 0.0062583 0.0067515 0.034373 
-0.095349 0.033058 0.055089 0.0087245 -0.089595 -0.01232 -0.0083746 0.035524 
-0.091897 0.030263 0.034866 -0.013965 -0.087458 0.013492 -0.0078813 0.010533 
-0.031228 0.066927 0.016452 0.053774 -0.012814 0.034044 -0.098967 -0.0072237 
0.013328 0.025988 0.034044 0.024673 0.072517 0.0032988 -0.11196 0.018754 
0.0047785 0.014972 0.023851 0.034373 0.10606 0.0082312 -0.12725 -0.0031133 
-0.050136 0.060844 0.031742 0.060515 0.097179 0.020891 -0.079566 0.009711 
0.009711 0.042758 0.021713 0.03799 0.04358 0.0082312 0.044896 0.04095 
0.11395 0.054103 0.03799 0.021384 0.048677 0.012999 0.15489 0.013986 
0.25107 0.074326 0.044402 0.036675 0.035195 0.0042853 0.25156 0.044238 
0.29398 0.05624 0.041607 0.032729 0.041772 0.021056 0.2856 0.053938 
0.28247 0.041607 0.017274 0.04095 0.056733 0.026646 0.21523 0.058542 
0.19846 0.056733 0.015465 0.012835 0.032236 0.032893 0.068078 0.036346 
0.15851 0.040128 0.013986 0.017932 -0.0080457 -0.0024557 -0.088444 0.019247 
0.054596 0.038319 0.024673 0.046868 -0.032215 0.0056006 -0.03616 0.0023123 
-0.083676 0.078272 0.03388 0.026974 -0.032543 0.039963 0.12842 -0.01528 
-0.13514 0.061995 0.041278 0.020727 -0.019555 0.036182 0.12233 0.044567 
-0.12873 0.073339 0.051308 0.038483 -0.0019624 0.037004 -0.046354 0.060022 
-0.16095 0.11658 0.055747 0.0026412 -0.010676 0.049664 -0.15947 0.059364 
-0.15618 0.08156 0.03388 0.037004 0.0075736 0.048019 -0.089102 0.049499 
-0.085156 0.051801 0.037332 0.02681 -0.018239 0.029605 -0.014129 0.012342 
0.12727 0.020233 0.030592 0.018918 0.023686 -0.004593 0.030427 0.031907 
0.26965 0.034537 0.036839 0.03092 0.02681 -0.0060728 0.037004 0.045553 
0.29185 0.017438 0.013821 0.012342 0.0421 -0.031557 0.039305 0.043087 
0.28395 0.0037921 0.011355 0.0014903 0.061666 -0.043724 0.035524 0.026317 
0.17939 -0.0013048 0.026974 0.033715 0.056733 -0.0049219 0.048184 -0.012978 
-0.10472 0.0056006 0.047033 0.019083 0.072517 0.054925 0.071366 -0.02646 
-0.19416 0.031907 0.020562 0.030427 0.051801 0.094877 0.079422 -0.0019624 
-0.033037 0.079258 0.014808 0.016616 0.060844 0.10047 0.065447 0.01152 
-0.096007 0.066927 0.0082312 0.012177 0.073175 0.076299 0.056404 0.029605 
-0.47679 0.0056006 0.0039565 0.043251 0.041278 0.038483 0.039141 -0.012649 
-0.54732 -0.0080457 0.016123 0.011355 0.030427 0.016288 0.016288 0.020398 
-0.1473 0.0067515 0.038319 0.01267 0.025495 0.005765 0.02829 0.063474 
0.2999 0.073668 0.056898 0.030427 0.017438 -0.011663 0.027468 0.10688 
0.45807 0.11921 0.06035 0.0069159 -0.0026201 -0.024652 0.025495 0.10047 
0.38918 0.089452 0.045718 0.033222 0.01152 0.03799 0.054596 0.087643 
0.26094 0.061172 0.024179 0.024179 0.00297 0.014479 0.076956 0.066269 
0.10704 0.068736 0.029112 0.012342 -0.028104 0.011684 0.072517 0.055911 
0.0031344 0.035195 0.024508 0.053281 -0.053917 0.0072447 0.077449 0.045224 
0.028125 0.013657 0.022371 0.042594 -0.0406 0.088465 0.039963 0.045882 
0.17708 0.069558 0.027796 0.01267 -0.033037 0.055747 0.0098754 0.038319 
0.33344 0.093398 0.048019 0.034866 0.0059294 -0.023336 -0.028926 0.027139 
0.256 0.076463 0.056898 0.024015 0.035524 -0.028762 -0.077428 -0.06148 
0.19435 0.074326 0.03799 0.050157 0.058049 -0.011827 -0.074798 -0.067728 
0.24038 0.06479 0.037168 0.029769 0.022864 0.02533 -0.044217 -0.035503 
0.14305 0.025495 0.025988 0.019411 0.044567 0.0689 -0.015773 0.044073 
-0.1256 -0.026624 -0.0082102 0.074326 0.077943 0.067913 -0.036983 0.039963 
-0.78342 -0.085156 -0.013636 0.022371 0.1008 0.017438 -0.054082 -0.035503 
-1.3331 -0.11689 -0.008539 0.004943 0.067585 0.02681 -0.048985 -0.013471 
-1.0161 -0.067892 0.033222 0.037332 0.071037 0.027632 0.034044 0.019411 
-0.30498 0.018096 0.08567 0.046868 0.097508 0.042429 0.066927 0.084684 
0.14946 0.066927 0.060186 0.054925 0.09126 0.0421 0.10162 0.11691 
0.29974 0.1077 0.033222 0.042594 0.065776 0.020233 0.079258 0.092411 
0.38852 0.10096 0.016945 0.020891 0.065283 0.0083956 0.082711 0.067091 
0.46103 0.070544 0.027961 0.048677 0.093069 -0.016924 0.032236 0.029112 
0.45609 0.073504 0.024673 0.021056 0.055911 -0.011992 -0.010512 0.011684 
0.43242 0.07597 0.023193 0.036346 -0.0036066 0.012177 0.0019835 0.058049 
0.40102 0.041607 0.037661 0.029934 -0.056055 0.072353 -0.0011404 0.040785 
0.34923 0.061501 0.04654 0.0041209 -0.058028 0.10014 -0.014129 0.0227 
0.2029 0.074326 0.056404 0.044567 -0.012485 0.066927 -0.030242 -0.0070593 
0.007738 0.063639 0.031414 0.031085 0.031578 -0.00064712 -0.019884 -0.0091966 
-0.1233 0.039305 0.044731 0.027139 0.014972 0.0090533 -0.038956 0.0098754 
-0.15503 0.051965 0.031907 0.062981 -0.028269 0.0083956 -0.018239 0.0021479 
-0.1889 0.044073 0.018589 0.032893 -0.013965 0.0054362 0.0064227 0.039141 
-0.18594 0.026646 0.032564 0.024673 0.0051074 0.014972 0.027961 0.010862 
-0.11985 0.060844 0.043909 0.055254 0.042758 0.048677 0.019247 0.027796 
-0.026789 0.046704 0.051636 0.026974 0.068571 0.01974 0.0032988 0.033715 
0.013164 0.038155 0.060022 0.047197 0.10491 0.026974 0.0036276 0.017603 
0.026481 0.055254 0.033551 0.032071 0.11888 0.045224 0.038977 0.0421 
0.040621 0.041607 0.02829 0.0324 0.12365 0.037332 0.016616 0.022864 
0.043909 0.034373 0.029441 0.053938 0.093891 0.019083 0.092411 0.033715 
0.05476 0.061172 0.033058 0.043745 0.051472 0.047691 0.16344 0.035031 
0.0051074 0.039799 0.033222 0.025988 0.033715 0.036182 0.15735 0.040456 
-0.020377 0.036182 0.032893 0.034209 0.0083956 0.028783 0.11839 0.052952 
0.031414 0.05065 0.042758 0.016452 -0.028597 0.013328 0.071366 0.030592 
0.15966 0.023357 0.056733 0.03947 -0.029913 0.068078 0.007738 0.031249 
0.28494 0.038977 0.021549 0.0072447 -0.01117 0.069064 -0.083018 0.018918 
0.23726 0.059857 0.022206 0.028947 0.037168 0.05065 -0.13695 0.0067515 
0.19254 0.067585 0.034537 0.073668 0.058706 0.043909 -0.01939 0.066598 
0.20487 0.060515 0.023522 0.03388 0.040621 0.025824 0.072353 0.047691 
0.14617 0.073339 0.036675 0.039634 0.044402 1.0539e-005 0.052623 0.042265 
0.030427 0.067256 0.01267 0.021056 0.031414 -0.019884 0.022864 0.026317 
-0.071838 0.02829 0.018096 0.036346 0.069722 -0.020212 0.03536 0.00083261 
-0.074798 0.030427 0.037332 0.043087 0.13746 0.025988 0.085012 0.031907 
-0.041586 0.053281 0.031414 0.034373 0.088794 0.10326 0.085341 0.02829 
0.0034632 0.041278 0.045224 0.040128 0.012177 0.098823 0.088465 0.024673 
0.040456 0.053774 0.053445 0.019247 -0.037147 0.04095 0.082875 0.015959 
0.06183 0.076463 0.031907 0.023193 -0.075949 -0.020377 0.037826 0.020727 
0.09685 0.044731 0.03536 0.011026 -0.13316 -0.060329 0.022535 0.023193 
0.10787 0.051472 0.035524 0.019247 -0.17739 -0.11475 0.029769 0.031249 
0.099481 0.057062 0.041772 0.023028 -0.15668 -0.094856 0.050814 0.050321 
0.074819 0.019905 0.052294 0.04095 -0.10998 -0.03616 0.035853 0.044896 
0.047691 0.02122 0.030592 0.018425 -0.016266 0.0031344 0.029112 0.022371 
0.055582 0.036839 -0.0004827 -0.0027845 0.098166 0.012506 0.020398 0.016781 
0.034373 0.025001 0.017603 0.032893 0.16755 0.0036276 0.068242 0.013492 
-0.054082 0.0075736 -0.011498 0.017274 0.21013 0.072024 0.092082 0.033715 
-0.075949 0.034044 0.022371 0.032071 0.25288 0.10622 0.045718 0.022371 
-0.070359 0.036675 0.0421 0.049006 0.24219 0.11526 0.0019835 0.019905 
-0.0059084 0.055747 0.051965 0.028947 0.21112 0.10754 0.025495 0.047197 
0.059528 0.099645 0.065447 0.049499 0.1756 0.087479 0.050814 0.038319 
0.10063 0.062323 0.059693 0.047855 0.080573 0.044896 0.079258 0.020398 
0.095535 0.060844 0.043416 0.02681 -0.074633 0.061337 0.10754 0.005765 
0.027468 0.061501 0.014808 0.014643 -0.17394 0.044073 0.083697 0.012177 
0.0056006 0.0592 -0.0034422 -0.012156 -0.1917 0.043745 0.030098 0.019411 
-0.035338 0.037661 0.014479 0.0087245 -0.1478 0.034209 -0.00081153 0.032564 
0.0024767 0.077285 0.026317 0.017274 -0.07825 0.04654 -0.0067304 0.051801 
0.056569 0.067256 0.052294 0.015959 0.00099702 0.0067515 -0.05737 0.057884 
0.096686 0.062817 0.058871 0.05065 0.071366 0.024015 -0.14007 0.063968 
0.079916 0.046046 0.033715 0.025001 0.13631 0.029276 -0.2106 0.036182 
0.090274 0.021056 0.0095465 0.013328 0.11444 -0.030899 -0.15322 0.017932 
0.10195 0.028125 0.013164 0.02681 0.06594 -0.074633 -0.0965 0.014315 
0.12381 0.023357 0.0079024 0.023522 0.032236 -0.040928 0.0592 0.050814 
-0.11639 -0.0060728 0.0083956 0.0324 0.027961 0.0047785 0.20175 0.066105 
-0.279 -0.030406 0.0019835 0.023851 0.010533 0.00066819 0.21441 -0.0032777 
-0.30531 -0.012978 0.021384 0.027796 0.028454 -0.05441 0.1345 -0.0050863 
-0.30235 0.026152 0.047362 0.047197 0.038319 -0.056219 0.065776 0.019411 
-0.12577 0.056733 0.053938 0.02681 0.031907 -0.0406 0.034044 0.01826 
0.074983 0.10836 0.035853 0.0064227 0.014315 0.024508 0.0080668 0.035195 
0.11362 0.1174 0.031085 0.02681 0.035031 0.12957 0.030756 0.045882 
0.059857 0.085506 0.029276 0.025001 0.035524 0.15423 0.025166 0.063803 
0.074819 0.055911 0.018754 0.044896 0.057227 0.11674 0.04654 0.069393 
0.091425 0.043745 0.017274 0.029605 0.057062 0.089123 0.032729 0.021878 
0.15999 0.012342 0.053609 0.03388 0.051801 0.086163 0.041936 0.034866 
0.25683 0.053774 0.053445 0.051801 0.030098 0.029769 0.028619 0.034866 
0.33443 0.097837 0.052623 0.021384 0.03799 -0.00031829 0.0079024 0.032893 
0.3216 0.070215 0.013821 0.022206 0.0042853 -0.0064016 -0.023994 -0.019061 
0.30549 0.061501 -0.00064712 0.027468 -0.0059084 0.0024767 -0.029913 0.016288 
0.23183 0.11707 0.0093821 0.016452 0.01152 -0.013636 -0.011005 0.010862 
0.06594 0.074326 0.016288 0.041936 0.038483 -0.013471 -0.070523 0.035688 
-0.063946 0.073997 0.057062 0.040621 0.050979 -0.019719 -0.13086 0.044402 
-0.18446 0.041278 0.042429 0.029769 0.027961 -0.022185 -0.13547 0.038977 
-0.2859 -0.0088678 0.05772 0.025988 0.0016547 -0.014293 -0.047834 0.027468 
-0.48156 -0.063618 0.035031 0.0054362 -0.0022913 0.016616 0.052623 0.039305 
-0.72061 -0.087293 0.026974 0.03651 -0.018733 0.0051074 0.1544 0.017932 
-0.76928 -0.092061 0.018425 0.037168 -0.036818 0.044238 0.23463 0.020398 
-0.54009 -0.071509 0.031085 0.012342 -0.031228 0.058706 0.26636 0.0011614 
-0.097816 -0.0047575 0.030263 0.019411 -0.030735 0.039634 0.17741 0.026317 
0.44311 0.032236 0.025988 0.046046 -0.033201 0.004943 0.077285 0.060022 
0.69367 0.074819 0.037332 0.030427 -0.054904 -0.025967 0.0059294 0.029605 
0.6358 0.14601 0.057062 0.053609 -0.037147 -0.014458 0.041772 0.044402 
0.57234 0.15604 0.064461 0.023357 -0.038298 -0.019226 -0.0047575 0.0059294 
0.51742 0.13171 0.029441 0.012177 -0.010512 -0.01528 -0.086471 0.030263 
0.27409 0.08567 -0.015773 0.036839 0.021549 0.0070803 -0.079237 0.019905 
-0.043559 0.058213 0.0016547 0.028125 0.057062 -0.0026201 -0.049971 0.012835 
-0.17969 0.050979 0.022864 0.032564 0.096521 0.039963 -0.025802 0.051965 
-0.16062 0.061995 0.034702 0.043745 0.11905 0.066763 0.009711 0.036182 
-0.069208 0.055747 0.039634 -0.00015387 0.11411 0.051472 0.03651 0.038977 
-0.059672 0.013986 0.047362 0.042594 0.11395 0.019247 0.065776 -0.014951 
-0.10735 -0.011827 0.054103 0.017767 0.11937 0.010862 0.074819 -0.059343 
-0.13662 0.0065871 0.04095 0.020069 0.060679 -0.004593 0.082875 -0.056712 
-0.099624 0.0085601 0.024508 0.049828 0.005765 0.0059294 0.078765 -0.037805 
-0.028926 0.037826 0.030098 0.028125 -0.027611 0.054432 0.062817 0.030098 
0.0046141 0.072188 0.025824 0.029112 -0.02498 0.067256 0.044402 0.059857 
0.0095465 0.030592 0.029441 0.043416 0.014972 0.06331 0.04506 0.037168 
0.00297 0.026152 0.032729 0.045224 0.039799 0.072681 0.11494 0.067749 
0.043416 0.04917 0.045389 0.045718 0.019411 0.0786 0.10228 0.068736 
0.06594 0.031578 0.059364 0.026974 -0.0070593 0.0031344 0.057555 0.082875 
0.078436 0.047197 0.043087 0.024344 -0.009361 -0.037147 0.0079024 0.071859 
0.1008 0.064296 0.0324 0.047855 0.0070803 -0.016102 0.01974 0.054925 
0.10408 0.049664 0.037826 0.0082312 0.033058 0.0090533 -0.010348 0.048677 
0.075476 0.053938 0.024015 0.022206 0.10672 0.029769 0.0037921 -0.0082102 
0.015137 0.067585 0.020069 0.03092 0.12233 0.031414 0.029605 -0.029748 
0.0080668 0.033551 0.029769 0.0056006 0.072024 0.043909 0.018589 -0.021199 
0.06183 0.059364 0.061666 0.054596 0.039141 0.0095465 -0.0029489 -0.014129 
0.10507 0.088794 0.061008 0.0085601 -0.011498 -0.056712 0.0088889 -0.009361 
0.13171 0.080244 0.08715 0.033551 -0.00064712 0.041114 0.024673 0.00017495 
0.13483 0.062323 0.012013 0.050814 0.059035 0.076299 0.020891 0.042265 
0.17117 0.066269 0.023357 0.032564 0.074983 0.094055 0.0075736 0.053445 
0.16311 0.06331 0.020069 0.010862 0.073668 0.062817 0.01563 0.04095 
0.066927 0.057884 0.033058 0.034209 0.092082 0.047362 0.026152 0.037168 
-0.028104 0.070708 0.04506 0.037661 0.098001 0.040456 0.010533 0.032893 
-0.031392 0.046704 0.049499 0.05476 0.063474 0.026152 0.0067515 0.047691 
-0.0059084 0.038155 0.050157 0.021056 0.03651 0.037497 -0.00064712 0.01267 
0.040785 0.048184 0.049664 0.018425 0.019411 0.021549 0.035031 0.031249 
0.063639 0.04654 0.00099702 0.049828 0.005765 0.0069159 0.034209 0.02681 
0.049664 0.034866 0.017932 0.0088889 -0.0064016 0.024015 0.037004 0.015794 
-0.0021268 0.01711 0.03651 -0.0019624 -0.01939 0.016123 0.014972 -0.0024557 
0.037332 0.058542 0.0090533 0.011848 -0.0088678 0.023851 0.0036276 0.025001 
0.17248 0.09274 0.011191 -0.034188 -0.015773 0.020891 0.0072447 0.060844 
0.29464 0.097344 0.050157 0.040128 0.020069 0.039141 -0.0067304 0.06742 
0.28839 0.077778 0.054432 0.013821 0.032729 0.028125 0.0023123 0.059693 
0.20832 0.065776 0.052952 0.020562 0.03947 -0.0057439 -0.019226 0.062323 
0.075805 0.054596 0.040292 0.057227 0.078107 0.0060938 -0.015609 0.073668 
-0.043395 0.057884 0.029441 0.031414 0.095206 0.0079024 -0.0095255 0.068407 
-0.18232 0.011191 0.016452 0.044402 0.073175 -0.0039354 0.011026 0.018754 
-0.50984 -0.030077 0.018918 0.02829 0.028454 0.027468 0.015959 0.016781 
-0.5414 -0.0014692 0.032729 0.0080668 -0.012978 0.016123 0.038648 0.037168 
-0.15405 0.028783 0.025659 0.049335 -0.010841 0.016123 0.040292 0.028783 
0.21819 0.063639 0.050486 0.021384 0.0085601 0.049006 0.066434 0.024015 
0.32999 0.1202 0.044402 0.019411 0.013657 0.047033 0.054103 0.0072447 
0.26965 0.10852 0.026646 0.03388 -0.018239 0.03092 0.021549 0.023686 
0.15571 0.069558 0.00033937 0.031249 -0.0024557 0.0098754 0.016452 0.033222 
0.045553 0.025824 0.0060938 0.016945 -0.0004827 0.00017495 0.018589 0.026317 
-0.056219 -0.05737 0.022371 1.0539e-005 0.0016547 -0.017417 -0.0004827 0.037661 
-0.11755 -0.048163 0.021878 0.0026412 0.0032988 -0.05441 -0.0031133 0.016123 
-0.094856 -0.0034422 0.032236 0.048677 0.028783 -0.01117 0.044731 0.034537 
-0.050793 0.033058 0.050979 0.028619 0.028947 0.03799 0.019905 0.048184 
-0.018075 0.070544 0.066434 0.054267 -0.00081153 0.053938 0.019411 0.041114 
0.044896 0.096357 0.033058 0.041607 0.023686 0.043745 0.010204 0.055582 
0.10573 0.072353 0.026481 0.041607 0.030756 0.057391 0.037332 0.055911 
0.22707 0.057227 0.032729 0.035688 0.020069 0.035195 0.026974 0.052623 
0.27524 0.0689 0.028947 0.049499 0.014972 0.0090533 0.0090533 0.03651 
0.19583 0.050814 0.0095465 0.01004 0.0039565 0.019083 -0.0011404 0.0044497 
0.023193 -0.00015387 0.016781 0.030592 -0.018404 -0.0032777 0.026481 -0.020541 
-0.15668 -0.009361 0.01267 0.0088889 -0.023501 -0.021034 0.0079024 -0.055232 
-0.37452 -0.015444 0.038155 0.012999 0.0034632 0.027303 0.012013 -0.0050863 
-0.34345 -0.0054151 0.046375 0.031578 0.0088889 0.042429 0.066105 0.071202 
-0.23083 0.061995 0.032071 0.039141 0.046046 0.021384 0.053774 0.067091 
-0.073154 0.086985 0.024015 -0.0004827 0.063803 0.025166 0.024837 0.071202 
0.13088 0.078436 0.030427 0.041278 0.055089 0.026152 0.042265 0.059364 
0.329 0.06331 0.027796 0.020398 0.056898 0.01563 0.050157 0.065118 
0.36632 0.063803 0.033715 0.055582 0.0026412 0.0095465 0.048184 0.02681 
0.20701 -0.0042642 0.044402 0.033058 -0.013143 0.021056 0.012342 0.0069159 
-0.072496 -0.049478 0.023028 0.023522 -0.0090322 0.0034632 0.0044497 -0.055726 
-0.30876 -0.018239 0.035031 0.047362 0.0056006 0.0065871 0.024837 -0.095185 
-0.27029 0.028947 0.015301 0.029276 0.048348 0.022864 0.020562 0.0046141 
-0.082854 0.075805 0.035524 0.028454 0.058377 0.027468 0.048019 0.049828 
0.085341 0.089452 0.036346 0.032893 0.051965 0.020069 0.02122 0.051308 
0.1904 0.071037 0.038483 0.033715 0.0079024 0.016123 0.024508 0.050979 
0.18415 0.028947 0.050486 0.054596 0.034537 0.031249 0.026152 0.067585 
0.18728 0.04095 0.054596 0.03092 0.040292 0.025166 0.13483 0.095535 
0.10935 0.034209 0.045882 0.03536 0.053609 0.036182 0.23726 0.067749 
0.011355 0.026974 0.050321 0.050814 0.061337 0.048513 0.19024 0.048841 
-0.051287 0.070708 0.020562 0.032236 0.040128 0.015959 0.11 0.036182 
-0.082032 0.053938 0.013821 0.025001 0.0044497 0.01974 0.00297 0.014808 
-0.04323 0.024837 0.02122 0.027961 -0.015116 0.038155 -0.049149 0.016945 
0.054267 0.084848 0.024179 0.020398 -0.013143 0.022206 -0.19614 -0.019884 
0.15012 0.073832 0.031578 0.059693 -0.0098543 -0.024487 -0.21965 -0.049971 
0.22033 0.069393 0.04095 0.024179 0.009711 -0.0055795 -0.11524 -0.021363 
0.18235 0.061501 0.036675 0.023028 -0.0016336 0.0072447 0.031249 0.025824 
0.082217 0.030263 0.05772 0.046046 -0.012978 -0.0098543 0.056898 0.043745 
-0.024323 -0.0059084 0.024179 0.026974 -0.0073881 -0.060823 0.011684 0.019905 
-0.090253 0.024837 0.017603 0.018918 0.013657 -0.031721 0.019247 0.010533 
-0.098473 0.063968 0.044073 0.034044 0.099645 0.053281 0.083697 -0.016924 
-0.065426 0.035688 0.03651 0.035688 0.13845 0.085012 0.1105 0.019083 
-0.01232 0.044073 0.025988 0.055747 0.14075 0.09833 0.11609 0.03799 
0.043251 0.055911 0.030756 0.019247 0.12579 0.054925 0.12842 0.036839 
0.12431 0.070215 0.066598 0.029276 0.10902 0.053938 0.15916 0.080738 
0.20503 0.086328 0.077121 0.041772 0.066763 0.080244 0.1276 0.081889 
0.2565 0.073504 0.034866 0.015301 -0.00081153 0.11263 0.076956 0.072846 
0.25354 0.036346 0.01415 0.013821 -0.0088678 0.061008 0.088136 0.038977 
0.14404 0.04917 0.018096 0.011355 0.031907 0.011191 0.01415 0.00083261 
0.15752 0.10425 0.007738 -0.019226 0.031414 -0.030077 -0.026953 0.028783 
0.1151 0.056076 0.03388 0.050321 0.007738 -0.085156 -0.084663 0.005765 
0.16426 0.040456 0.074161 0.036675 -0.077593 -0.1866 -0.061973 0.0016547 
0.12957 0.063474 0.03388 0.00083261 -0.043888 -0.22113 -0.069372 0.033387 
0.070544 0.033222 0.044402 -0.0090322 0.018754 -0.058521 -0.025309 0.019411 
-0.013636 0.04917 0.034209 0.0065871 0.072517 0.13664 0.018918 0.048019 
-0.20847 0.050157 -0.0060728 0.034537 0.11526 0.24219 0.069722 0.021878 
-0.54042 0.020398 0.029112 0.036182 0.12102 0.23479 0.033715 0.037661 
-0.69924 -0.042079 0.022042 0.011848 0.095371 0.17363 0.010862 0.0079024 
-0.26223 -0.052766 0.0039565 0.030592 0.054925 0.050814 0.030592 0.01563 
0.33377 -0.024652 0.033058 0.024673 0.039963 0.0032988 0.048513 0.049828 
0.35136 0.027303 0.038648 0.033222 0.0095465 -0.021363 0.028619 0.0023123 
0.12546 0.056404 0.056569 0.038319 -0.0060728 -0.027775 0.035853 0.030098 
0.060022 0.047691 0.061666 0.030263 -0.044052 -0.0059084 0.068571 0.027961 
0.18004 0.074161 0.035195 0.018918 -0.034188 -0.023007 0.052294 0.046868 
0.26011 0.11132 0.042265 0.022864 -0.03057 -0.040271 0.047033 0.063639 
0.26883 0.098988 0.011355 -0.00097594 -0.0049219 -0.006566 0.036346 0.040785 
0.21095 0.056404 0.024344 0.029934 0.029934 0.0070803 0.060186 0.034373 
0.14848 0.053281 0.026152 0.004943 0.010697 -0.0029489 0.017438 0.018096 
0.068407 0.056569 0.04095 0.024508 0.015465 0.012835 -0.00081153 0.019083 
0.050979 0.052294 0.048677 0.052623 0.042758 0.058213 -0.02498 0.019905 
-0.071181 0.058377 0.024015 0.033715 0.09126 0.044073 -0.073482 0.0018191 
-0.3959 0.012835 0.01711 0.038155 0.062817 0.00066819 -0.095843 -0.023336 
-0.39836 -0.0096899 0.021713 0.019905 0.024179 0.031907 -0.10341 -0.022679 
-0.11771 0.029769 0.01563 0.017932 0.0014903 0.056404 -0.0049219 0.0065871 
0.068571 0.056076 0.035524 0.053609 -0.039284 0.062323 0.13368 0.048677 
0.10359 0.039963 0.039963 0.019083 -0.0088678 0.064296 0.22197 0.03536 
0.011026 0.012177 0.039634 0.0031344 -0.010019 0.077285 0.33163 0.024673 
-0.11952 -0.014622 0.050979 0.027303 -0.023007 0.08567 0.414 -0.020048 
-0.145 -0.03353 0.023357 0.0046141 -0.0059084 0.090603 0.31749 0.00033937 
-0.12067 -0.030735 -0.0040998 -0.0091966 0.043416 -0.044217 0.058706 0.10672 
0.0034632 0.048348 0.019576 0.037168 0.14042 -0.11787 -0.17114 0.14568 
0.15505 0.093562 0.021878 0.044238 0.20388 0.036182 -0.21882 0.13532 
0.22098 0.12661 0.033058 0.074654 0.11905 0.057391 -0.30613 0.0786 
0.26077 0.12332 0.051308 0.040128 0.040456 0.045882 -0.28015 0.064625 
0.15966 0.062488 0.052459 0.025659 0.017767 0.021384 -0.13251 0.033387 
0.056076 0.029605 0.060186 0.037497 0.061172 0.034373 0.057884 -0.051287 
-0.03764 0.045882 0.034209 0.017438 0.069886 0.045718 0.12233 -0.066248 
-0.22655 0.028454 0.022371 0.01711 0.038977 0.025659 0.13631 -0.083183 
-0.24151 -0.016595 -0.0070593 0.0042853 -0.0021268 0.022371 0.1294 -0.047669 
-0.11097 0.0013258 -0.026789 0.0092177 -0.0013048 0.052952 0.13795 -0.020541 
0.11296 0.0064227 0.020398 0.042594 -0.026624 0.072681 0.1493 0.021384 
0.17133 0.090438 0.0088889 0.02829 -0.10817 0.04654 0.12612 0.090438 
0.11625 0.055089 0.024179 0.026317 -0.14615 0.036182 0.099645 0.045389 
0.0079024 0.028783 0.056898 0.045553 -0.10357 -0.014129 -0.0031133 0.066434 
0.030098 0.040621 0.092082 0.035853 -0.039778 -0.044217 -0.052766 0.061666 
0.059857 0.079916 0.027303 0.022206 0.007738 -0.025802 -0.056712 0.068571 
0.11231 0.069064 0.023357 0.033715 0.051801 -0.052766 -0.0088678 0.043251 
0.19172 0.073339 0.016616 0.035524 0.063968 -0.041586 0.0095465 0.02533 
0.23183 0.084355 0.019411 0.054925 0.095864 0.0056006 0.036839 0.016288 
0.23578 0.046868 0.015959 0.018425 0.071366 0.041443 0.024508 0.014643 
0.18547 0.057391 0.0062583 0.023851 0.079751 0.027468 0.018589 0.039305 
0.092411 0.059693 0.049006 0.050157 0.096521 0.022042 0.023193 0.044402 
0.020398 0.05213 0.0689 0.039141 0.074654 0.043745 0.016945 0.0090533 
-0.035832 0.03947 0.03092 0.032893 0.061501 0.032071 0.049499 0.019247 
-0.1815 0.066598 0.033058 0.040128 0.041772 0.026974 0.037168 0.019905 
-0.28245 0.065612 0.021878 0.027796 0.037004 0.029605 0.023357 0.055582 
-0.21734 0.045389 0.031249 0.054267 0.037332 0.055089 0.014479 0.069722 
0.0024767 0.038977 0.023357 0.023686 0.047197 0.034373 0.045718 0.046704 
0.24153 0.059035 0.047691 0.021056 0.040456 0.028619 0.025824 0.074326 
0.36008 0.051801 0.052623 0.042923 -0.010512 0.023522 -0.0073881 0.044238 
0.38079 0.049499 0.055582 0.0051074 -0.011498 0.027632 0.0016547 0.03799 
0.26751 0.04358 0.024015 0.013328 -0.016266 0.02533 0.0098754 0.02533 
-0.077922 0.0082312 0.004943 0.018918 -0.030899 0.019247 0.00297 -0.0096899 
-0.35479 -0.031721 0.0034632 0.020562 -0.0091966 -0.0083746 -0.024487 -0.047998 
-0.34707 -0.019884 -0.0042642 0.029934 0.0070803 -0.035832 -0.028433 -0.066413 
-0.17723 -0.0011404 -0.0036066 0.034373 0.039634 -0.026953 0.0069159 0.012999 
0.071366 0.059035 0.03092 0.033715 0.032893 -0.0098543 0.014479 0.050814 
0.20849 0.071531 0.047033 0.066927 0.01415 0.0013258 0.022864 0.077449 
0.22674 0.074819 0.080244 0.044402 -0.013636 -0.0039354 0.046375 0.080738 
0.2246 0.042923 0.047033 0.036675 -0.023829 0.038648 0.037826 0.079094 
0.24499 0.081231 0.026974 0.019411 -0.043559 0.012177 0.011191 0.069886 
0.26505 0.0689 0.027139 0.014972 -0.065919 0.012013 -0.010841 0.047691 
0.23594 0.059528 0.012506 0.034044 -0.034516 0.016452 0.033715 0.015794 
0.1077 0.14354 0.010369 0.02533 0.011026 0.042758 0.050321 0.026974 
-0.17361 0.11263 0.025988 0.026646 0.05065 0.061501 0.033551 0.011355 
-0.27522 0.041772 0.041114 0.038977 0.050157 0.057391 0.041936 0.0087245 
-0.20304 0.022535 0.064296 0.018096 0.054103 0.054432 0.032729 -0.0090322 
-0.12133 -0.013965 0.045553 0.031742 0.040292 0.038155 0.023851 0.021713 
-0.053424 -0.022021 0.03092 0.021713 0.033387 0.032893 0.096193 0.039634 
-0.0077169 0.021878 0.023028 0.013986 -0.024487 0.035195 0.16114 0.018754 
0.0051074 0.015465 0.021384 0.04654 -0.021528 0.011191 0.11806 -0.0075525 
0.028125 0.0075736 0.032071 0.025659 -0.00097594 -0.033037 0.0088889 0.0062583 
0.043416 0.051801 0.0062583 0.027303 0.06479 -0.010348 -0.068221 0.0421 
0.082382 0.041772 0.027632 0.038155 0.071202 -0.0087034 -0.097816 0.039799 
0.055582 0.048677 0.041443 -0.0044286 0.03947 -0.074798 -0.17164 0.021878 
0.020562 0.036839 0.041772 0.017603 0.032071 -0.055397 -0.18824 -0.0060728 
-0.013471 0.047855 0.035853 0.020727 0.075476 0.01711 -0.042408 0.029769 
0.041607 0.044238 0.033387 0.0090533 0.089123 0.038812 0.11872 0.086163 
-0.074304 0.015959 0.0069159 0.030756 0.071695 0.027468 0.14733 0.072517 
-0.12034 -0.001798 0.018096 0.014643 0.049664 0.055254 0.11872 0.03388 
0.028783 0.026152 0.029441 0.020069 0.054925 0.078272 0.086657 0.026974 
0.11872 0.058213 0.057884 0.053281 0.061666 0.092411 0.075476 0.00297 
0.039799 0.086985 0.07597 0.028783 0.041607 0.1539 0.040128 -0.016595 
-0.21406 0.046046 0.042429 0.028125 0.041772 0.11987 0.025495 -0.031064 
-0.18512 0.020069 0.021384 0.022042 0.042265 0.039305 0.018918 -0.022843 
0.027139 0.044238 0.027303 0.019411 0.075641 0.028947 0.043745 0.021384 
0.13927 0.043087 0.038648 0.054925 0.05476 0.043745 0.054596 0.032236 
0.16229 0.031414 0.033551 0.029276 0.055747 0.01563 0.051472 0.067913 
0.16541 0.04917 0.027961 0.034209 0.064954 0.00297 0.050321 0.041278 
0.22707 0.048019 0.03947 0.047855 0.096686 0.012999 0.041443 0.036182 
0.1442 0.049992 0.041443 0.017274 0.089123 -0.02794 0.016288 0.046375 
-0.028104 0.055254 0.053774 0.0021479 0.047691 -0.020377 0.011355 0.01152 
-0.10078 0.029441 0.0062583 0.027468 0.018918 0.00297 0.033551 0.027632 
-0.097816 0.018918 0.004943 0.016945 0.01152 0.037004 0.016123 0.032236 
-0.022679 0.053938 0.021878 0.040128 0.016616 0.034866 0.01004 0.029934 
0.014315 0.048841 0.016945 0.034209 0.042758 0.045718 0.022535 0.051143 
0.025495 0.047033 0.030427 0.02122 0.061501 0.074326 0.041114 0.026646 
0.055911 0.060186 0.034537 0.037661 0.076134 0.06479 0.014479 0.031578 
0.070544 0.047197 0.041443 0.016781 0.080244 0.063474 0.012342 0.034866 
0.081067 0.030592 0.057062 0.020233 0.053609 0.041443 0.023357 0.028125 
0.077943 0.041607 0.0024767 0.038155 0.031742 0.0069159 0.046211 0.024673 
0.060186 0.037497 0.016123 0.020891 0.032071 0.0092177 0.028125 0.020398 
0.029769 0.035524 0.045718 0.054103 0.031907 0.036017 0.032729 0.029934 
0.027796 0.052623 0.029605 0.038319 0.042758 0.023357 0.044402 0.027303 
0.0021479 0.031085 0.031249 0.045718 0.044402 0.01152 0.030263 0.020891 
-0.024487 0.024837 0.025659 0.049335 0.048841 0.027139 0.025659 0.014972 
-0.022843 0.037661 0.049335 0.041443 0.028125 0.052952 0.021878 0.018754 
0.034209 0.045224 0.053938 0.020398 0.013986 0.025495 0.047197 0.035195 
0.10836 0.055747 0.0324 0.030756 0.018425 0.011848 0.032564 0.058049 
0.1419 0.062488 0.010862 0.017603 0.010204 0.040621 0.032729 0.056569 
0.084026 0.074326 0.031742 0.040621 0.005765 0.02533 0.041443 0.041607 
-0.016595 0.03388 0.0039565 0.016616 0.029112 0.017932 0.043909 0.012999 
-0.019884 0.025001 0.016288 0.031249 0.020562 0.028454 0.033551 0.02681 
0.00033937 0.045553 0.01711 0.041936 0.01563 0.034209 0.038483 0.020233 
0.11083 0.054596 0.051965 0.012013 0.0052718 0.010697 0.051965 0.049828 
0.26587 0.049335 0.076627 0.022371 -0.0054151 0.012999 0.05476 0.047691 
0.41302 0.10787 0.037661 0.032729 -0.011498 0.053938 0.032071 0.046868 
0.3438 0.070708 0.040128 0.023686 -0.011498 0.01152 0.023851 0.065612 
0.098659 0.039141 0.020233 0.055747 0.024179 -0.018733 0.028454 0.014808 
-0.15224 0.027303 0.023686 0.049828 0.0095465 -0.017088 0.051636 0.024508 
-0.31024 0.00297 0.0083956 0.045882 -0.0068948 -0.013143 0.026317 0.0052718 
-0.4028 -0.03764 0.01711 0.062817 -0.011992 -0.027118 0.041936 -0.0068948 
-0.55949 -0.043395 0.034537 0.011191 -0.010512 -0.07414 0.03799 0.012342 
-0.41431 -0.079566 0.038483 0.019905 -0.0016336 -0.064933 0.027961 0.029441 
0.0013258 -0.031557 0.022371 0.015959 -0.0054151 -0.00031829 0.011026 0.037332 
0.26373 0.094055 0.0044497 0.044073 0.0023123 0.061666 0.0098754 0.034209 
0.29316 0.12825 0.035195 0.049664 0.031578 0.10836 0.04506 0.025001 
0.28198 0.1128 0.041936 0.048841 0.048019 0.10047 0.067749 0.059693 
0.27787 0.12776 0.034702 0.032564 0.048184 0.088301 0.066763 0.060679 
0.22115 0.074819 0.034866 0.040128 0.027632 0.062817 0.034209 0.056076 
0.1419 0.038977 0.01563 0.016781 -0.010841 0.012835 0.023028 0.041443 
0.11165 0.069722 0.049006 0.011684 -0.022514 -0.026624 0.018096 0.03388 
0.10326 0.066269 0.035524 0.02829 -0.013143 -0.028597 0.0095465 0.037826 
0.050486 0.038648 0.020069 0.015465 -0.0031133 -0.021034 0.025659 0.013657 
-0.055561 0.026481 0.0039565 0.061008 -0.0049219 -0.028433 0.005765 0.012506 
-0.13136 -0.0055795 0.01004 0.0051074 -0.0055795 -0.023007 -0.0052507 0.014315 
-0.18561 0.0052718 0.029441 0.018096 -0.0013048 0.0016547 0.031249 0.037168 
-0.20337 0.027139 0.026974 0.042265 0.020069 0.014643 0.057062 0.035853 
-0.13481 0.046375 0.041443 0.021056 0.033387 0.019083 0.031578 0.051308 
0.064461 0.045718 0.054596 0.017438 0.049664 0.031085 0.01267 0.077778 
0.20783 0.050486 0.050814 0.019576 0.051965 0.050979 -0.019884 0.05213 
0.22871 0.058213 0.029934 0.013328 0.020891 0.022206 0.024673 0.033222 
0.17396 0.063803 0.027468 0.051143 0.01152 0.03536 0.012177 0.00083261 
0.14321 0.053774 0.024508 0.03536 0.029112 0.02829 -0.0054151 -0.0067304 
0.092904 0.053609 0.026317 0.034866 0.043416 0.019247 0.019247 0.007738 
-0.10176 -0.0057439 0.015301 0.038812 0.039963 0.012835 0.016781 -0.011663 
-0.33326 -0.0059084 0.027961 0.0227 0.05065 0.041114 0.016945 -0.0078813 
-0.39738 0.012835 0.063639 0.0095465 0.055911 0.040292 -0.0016336 -0.0050863 
-0.16703 0.039141 0.049006 0.018754 0.045882 0.030756 0.024179 0.053609 
0.14354 0.087808 -0.0057439 -0.031721 0.011026 0.086821 0.0093821 0.030098 
0.31536 0.11839 0.032071 0.037004 0.033058 0.04654 0.016288 0.012177 
0.31108 0.12414 0.010533 0.0032988 0.022864 0.050321 0.00297 0.07038 
0.19681 0.076792 0.033551 0.026317 0.050157 0.020233 0.030427 0.056898 
0.16837 0.067256 0.021056 0.056569 0.027139 0.018918 0.021878 0.07449 
0.063145 0.035195 0.036839 0.0028056 0.038483 0.0051074 0.018754 0.06331 
-0.11245 -0.019884 0.040128 0.026974 0.0227 0.03536 -0.0070593 0.042429 
-0.26157 0.014972 0.031907 0.01004 0.0093821 0.05213 0.031085 0.015301 
-0.18693 0.00083261 0.0019835 0.012342 0.01004 0.061172 0.023028 -0.009361 
-0.0087034 0.024179 0.028454 0.046375 0.0018191 0.027303 0.016945 0.022042 
0.13894 0.060844 0.045882 0.042265 0.027468 0.044567 0.025001 0.034044 
0.17347 0.071202 0.031742 0.020398 0.037004 0.025166 0.023357 0.023522 
0.15982 0.061995 0.027796 0.045718 0.039141 0.0036276 0.021549 0.028783 
0.11855 0.05476 0.031907 -0.0039354 0.040785 0.00066819 0.027303 -0.010512 
0.090438 0.053445 0.044567 0.020562 0.053609 -0.0022913 0.020891 -0.025309 
0.060186 0.049335 0.064461 0.024015 0.050814 -0.055068 0.011848 -0.014129 
0.046704 0.060022 0.046211 0.028619 0.056076 -0.020377 0.010862 0.0088889 
0.025001 0.053609 0.036017 0.05624 0.049992 0.059857 0.022535 0.077121 
-0.029913 0.037004 0.03092 0.020727 0.055911 0.087643 0.04358 0.047855 
-0.040271 0.059693 0.032564 0.029112 0.058542 0.085341 0.0324 0.056076 
-0.014129 0.047362 0.015137 0.060844 0.057062 0.058871 0.020069 0.041936 
0.0051074 0.022371 0.031085 0.046046 0.031249 0.056076 0.02681 0.029276 
0.037661 0.048019 0.03536 0.023522 0.01711 0.017932 0.037168 0.042265 
0.085177 0.066763 0.056898 0.026481 -0.0054151 0.0011614 0.02533 0.036346 
0.1567 0.0421 0.042923 0.023357 -0.0004827 0.021713 0.030427 0.040292 
0.18284 0.033387 0.015959 0.04506 0.019905 0.0095465 0.038155 0.024344 
0.098988 0.035031 0.015137 0.018918 0.0324 -0.0095255 0.026481 -0.0055795 
-0.010183 0.020891 0.019247 0.0036276 0.029112 0.012999 0.019247 0.00297 
-0.056548 0.019083 0.020562 0.026152 0.020891 0.030263 0.016945 0.013986 
-0.038956 0.056733 0.032893 0.013492 0.011848 0.019576 0.030263 0.045553 
-0.027447 0.041607 0.062488 0.00297 0.03651 0.044567 0.030263 0.040621 
1.0539e-005 0.037826 0.054925 0.025988 0.027468 0.054267 0.031249 0.015794 
0.014479 0.070215 0.049499 0.031414 0.062323 0.056569 0.013821 0.018754 
0.017767 0.040128 0.030756 0.05624 0.076627 0.052459 0.061337 0.037332 
0.029276 0.043251 0.021384 0.037004 0.070544 0.058871 0.034866 0.059364 
0.064296 0.0689 0.016452 0.036675 0.063803 0.028619 0.020562 0.034044 
0.10211 0.054267 0.034044 0.054267 0.0042853 -0.012156 0.013164 0.040128 
0.11707 0.039963 0.017438 0.020398 -0.023336 -0.01117 0.037497 0.038319 
0.041607 0.034866 0.023357 0.013164 -0.02942 -0.016924 0.020398 0.018754 
-0.1011 -0.0096899 0.023028 0.0052718 -0.033859 0.018425 0.014808 0.018096 
-0.051287 0.010369 0.029934 0.028454 -0.0029489 -0.0039354 0.016123 -0.010348 
0.06183 0.031907 0.019247 0.041114 0.028125 0.045389 0.038155 0.029605 
0.10458 0.061337 -0.00031829 0.028125 -0.014458 0.01267 0.033058 0.015794 
0.07038 0.038319 0.019083 0.028619 0.032564 -0.0016336 0.034537 0.020398 
-0.023829 0.058542 0.028783 0.059364 0.050814 0.020398 0.048348 0.030756 
-0.098967 0.072188 0.037826 0.041278 0.086985 0.0042853 0.019576 0.059693 
-0.058192 0.073339 0.04917 0.061995 0.085177 0.034373 0.026646 0.065612 
0.016452 0.048841 0.080409 0.074161 0.082711 0.083862 0.015465 0.046375 
0.10672 0.050321 0.056404 0.030263 0.048513 0.042923 0.052623 0.046046 
0.1659 0.024508 0.033551 0.0082312 -0.008539 0.025824 0.043251 0.055582 
0.20602 0.052787 -0.00064712 -0.0091966 -0.029748 0.023357 0.027961 0.049006 
0.22493 0.036675 0.0031344 0.015137 -0.030735 0.016781 0.013821 0.029276 
0.17741 -0.003771 -0.016266 0.02533 -0.013471 0.019576 0.013164 -0.00097594 
0.068242 0.019411 0.011026 0.031085 0.00017495 0.0065871 0.014479 0.01826 
-0.089266 0.042758 0.026974 0.032564 0.020727 0.018096 -0.0073881 0.011026 
-0.22343 0.036839 0.041607 0.01826 0.025659 0.021056 -0.027118 -0.0039354 
-0.19022 0.020891 0.048841 0.019576 0.017767 -0.0036066 0.022206 0.02681 
-0.12445 0.046046 0.013328 0.051308 0.014479 0.027468 0.031742 0.029605 
-0.049314 0.041443 0.017767 0.033715 0.023686 0.017274 0.042265 0.019576 
0.044238 0.016945 0.022206 0.022535 0.024837 0.027468 0.07449 0.038319 
0.12447 0.046211 0.022535 0.043416 0.021878 0.037004 0.075641 0.080244 
0.25567 0.049006 0.036017 0.024508 0.038155 0.037661 0.089452 0.048841 
0.32555 0.054596 0.036182 0.050157 0.040785 -0.0067304 0.076299 0.046046 
0.1562 0.089945 0.038648 0.030756 0.025659 0.011026 0.059693 0.015959 
-0.052437 0.063474 0.033715 0.017438 0.059528 0.029769 0.016781 -0.02794 
-0.23198 0.063145 0.033387 0.048184 0.050979 0.0014903 0.020069 0.019247 
-0.30021 0.047855 0.019411 0.023357 0.03651 -0.0077169 0.01826 0.063474 
-0.23576 0.0227 0.020891 0.025495 0.037004 0.025001 0.007738 0.079587 
-0.056219 0.0014903 0.029441 0.039141 0.021713 0.026152 0.010369 0.12398 
0.043251 0.019576 0.027632 0.024673 0.030263 0.015794 0.019247 0.077121 
0.13171 -0.025309 0.033222 0.0041209 -0.0068948 0.037497 0.030427 0.03651 
0.17856 0.0037921 0.032564 0.029441 -0.07562 0.046704 0.017274 0.021549 
0.15571 0.082875 0.041607 0.025824 -0.11064 -0.0067304 0.00066819 -0.018568 
0.14585 0.11 0.038977 0.046868 -0.066084 -0.063946 -0.013965 -0.0138 
0.096521 0.087643 0.028619 0.023851 0.00066819 -0.04882 0.01415 -0.023829 
0.041607 0.091753 0.0227 0.034373 0.031742 -0.041093 0.024837 -0.0064016 
0.13779 0.08567 0.023193 0.047526 0.030592 -0.0138 0.035524 0.023357 
0.22772 0.0689 0.014808 0.009711 0.012506 0.013986 0.024837 -0.017253 
0.24236 0.056076 0.0227 -0.00097594 0.044238 0.078436 0.053774 0.044073 
0.23479 0.022042 0.049664 0.026481 0.088136 0.083204 0.0324 0.062817 
0.11378 0.018425 0.061995 0.020398 0.097508 0.10787 0.021878 0.054925 
-0.082196 0.011684 0.089287 0.066105 0.12003 0.1299 0.057227 0.057555 
-0.14862 0.015301 0.01415 0.030263 0.1202 0.077121 0.12612 0.03799 
-0.34427 -0.0004827 -0.017911 0.047855 0.069886 0.023357 0.11411 0.019576 
-0.41267 -0.0059084 0.019083 0.056076 0.012177 -0.0064016 0.095371 0.0044497 
-0.15964 0.0092177 0.04654 0.049992 0.016945 0.018096 0.022206 0.0034632 
0.066105 0.047526 0.041772 0.02829 -0.019061 0.031414 -0.065755 0.012013 
0.053774 0.079258 0.031742 0.013164 -0.085485 0.03799 -0.10176 0.027632 
-0.29149 0.062159 0.049006 0.0064227 -0.09387 -0.017088 -0.10406 -0.0022913 
-0.30037 0.00017495 0.034044 0.038155 0.0072447 -0.031064 -0.045696 -0.0138 
0.07449 0.015301 0.016945 0.021384 0.15522 -0.05589 -0.013636 0.046704 
0.32835 0.04654 0.044073 0.021878 0.18432 -0.12889 -0.0013048 0.09422 
0.33657 0.057227 0.020398 0.027961 0.069886 -0.18643 0.048677 0.10491 
0.23019 0.045389 0.017932 -0.0072237 -0.030077 -0.067892 0.1151 0.057884 
0.13483 0.056898 0.028947 -0.026953 -0.0014692 0.15176 0.12118 -0.0068948 
0.092082 0.0689 0.051472 0.031249 0.074654 0.26126 0.15275 0.012177 
0.070708 0.058542 0.092576 0.066927 0.16097 0.27475 0.17199 0.021384 
0.042265 0.085012 0.069722 0.087972 0.17363 0.2001 0.13368 0.029276 
0.011355 0.051636 0.021384 0.041443 0.10129 0.064296 -0.0096899 0.026646 
-0.0022913 0.03536 0.026974 0.029934 0.032236 -0.0406 -0.2111 0.0019835 
-0.013471 0.053938 0.00017495 0.037661 -0.023829 -0.084827 -0.19679 0.013164 
-0.051287 0.030756 0.0016547 0.0087245 -0.039942 -0.052109 -0.01528 0.019576 
-0.040928 0.050979 0.026317 0.028454 0.012013 0.013986 0.066434 0.049664 
-0.018239 0.058049 0.041772 0.032071 0.10507 0.067913 0.059035 0.042758 
0.011026 0.055089 0.056733 0.013986 0.13483 0.097344 0.049499 0.035031 
0.035853 0.038977 0.058706 0.044567 0.028454 0.055747 0.035524 0.031249 
0.21358 0.08419 0.04917 0.020069 -0.046519 0.014808 0.020398 0.018425 
0.31782 0.073668 0.044073 0.022206 -0.068879 0.0037921 0.042594 0.025659 
0.25255 0.054267 0.060844 0.045718 -0.020541 -0.0014692 0.064296 0.043909 
0.012342 0.049335 0.042429 0.031578 0.03799 -0.047834 0.04095 -0.0091966 
-0.096336 0.044567 0.025824 0.021713 0.081395 0.0056006 0.034209 0.058049 
-0.20715 0.052294 0.013657 0.026646 0.099316 0.0036276 0.023686 0.053774 
-0.29363 -0.0042642 0.033551 0.012013 0.06331 0.0032988 0.034702 0.029276 
-0.35183 -0.023994 0.038319 0.040292 0.03799 0.0098754 0.0064227 0.015137 
-0.29939 -0.038133 0.031742 0.031742 0.048513 0.052952 0.0011614 -0.0022913 
0.10441 -0.0021268 0.037826 0.0037921 0.05213 0.033222 -0.014293 0.028619 
0.49391 0.06742 0.041936 0.048841 0.046046 0.02533 -0.0039354 -0.0031133 
0.21901 0.071695 0.032729 0.029934 0.01711 0.027632 -0.0016336 -0.014129 
-0.2032 0.045389 0.025495 0.0037921 0.029934 0.030427 0.024673 0.0026412 
-0.20501 0.056569 0.029769 0.021713 0.013821 0.038977 0.048677 0.047526 
0.039141 0.050321 0.049828 0.029605 0.015137 0.042923 0.094384 0.079751 
0.23496 0.090603 0.063145 0.089287 0.022864 0.022206 0.14716 0.049335 
0.30467 0.062981 0.045389 0.024179 0.0021479 0.0075736 0.12628 0.052623 
0.29908 0.033715 -0.010512 0.017274 -0.012978 0.0014903 0.097508 0.033058 
0.31914 0.028619 0.0064227 0.041772 -0.025638 -0.031721 0.0046141 0.0075736 
0.22641 0.064625 0.016945 0.017932 -0.019226 -0.028269 -0.037311 0.015465 
0.030263 0.035853 0.013986 0.033715 -0.033201 -0.030406 -0.11574 0.016123 
-0.084005 0.040785 0.027961 0.019247 -0.030406 0.066598 -0.14599 0.018754 
-0.089924 0.085177 0.054925 0.0018191 -0.0070593 0.082546 -0.051615 0.042923 
-0.054739 0.056404 0.059528 0.058213 0.032236 0.062159 0.073832 0.04095 
-0.011992 0.031249 0.034044 0.021713 0.016452 -0.00064712 0.091753 0.047362 
-0.017088 0.053609 0.011848 0.026974 -0.0022913 -0.06 0.081231 0.033551 
-0.0016336 0.026974 0.02681 0.039141 -0.011663 -0.10209 0.044402 0.043745 
-0.00081153 0.019083 0.019576 0.012177 -0.0503 -0.014622 0.055418 0.016781 
0.0059294 0.0421 0.013986 0.022864 -0.0503 0.082875 0.071531 0.025001 
0.0087245 0.034044 0.031907 0.025166 -0.016924 0.071695 0.068078 0.028454 
0.0070803 0.023193 0.03947 0.033551 0.027468 0.059693 0.05476 0.0227 
0.033222 0.038812 0.051472 0.045389 0.04654 0.039634 0.027468 0.03536 
0.038319 0.052787 0.033715 0.016616 0.025824 -0.0055795 0.038812 0.02122 
0.02533 0.029441 -0.0021268 0.00297 0.0041209 -0.044381 0.024673 0.023357 
0.01974 0.048841 0.019247 0.025659 -0.0082102 -0.064604 0.0070803 0.033551 
-0.0019624 0.029441 0.014808 0.020233 -0.0014692 -0.022021 0.014643 0.034373 
0.018096 0.013492 0.029112 0.026646 0.030756 0.0227 0.021878 0.060022 
0.041278 0.02681 0.039141 0.03388 0.057062 0.0072447 0.020233 0.033222 
0.063639 0.053774 0.029276 0.015959 0.031742 0.051308 0.011026 0.03536 
0.071859 0.026317 0.048019 0.036839 -0.014951 0.025988 -0.021199 0.034537 
0.10639 0.050321 0.05772 0.021056 -0.018733 -0.01528 -0.0019624 0.027468 
0.14765 0.08978 0.010533 0.013164 -0.035996 -0.010019 0.0023123 0.042594 
0.16574 0.064132 0.032564 0.028783 -0.038627 -0.00064712 0.084355 0.0028056 
0.18054 0.047362 0.030592 0.040292 -0.0004827 0.027632 0.15686 -0.0088678 
0.027139 0.069393 0.017438 0.027961 0.037168 0.038648 0.14371 -0.0027845 
-0.10719 0.063474 0.034866 0.045718 0.09274 0.040456 0.12102 0.014479 
-0.026624 0.040785 0.049499 0.031742 0.12858 0.017932 0.072681 0.059364 
0.058213 0.032893 0.052294 0.0421 0.13171 0.0074092 0.042429 0.057884 
-0.032379 -0.025802 0.038319 0.0028056 0.11987 0.032893 0.010204 0.032893 
-0.14566 -0.085649 0.00033937 0.01152 0.12595 0.035524 -0.023994 0.0088889 
-0.10801 -0.019061 -0.023336 0.029605 0.11609 0.044896 -0.10604 0.021713 
-0.011334 0.029605 -0.0062372 0.019905 0.079258 0.050979 -0.2402 0.03536 
0.073339 0.079751 -0.0072237 0.024508 0.050321 0.034866 -0.2032 0.048513 
0.14552 0.13664 -0.0021268 0.020562 0.075476 0.058377 -0.024652 0.057062 
0.14634 0.097015 0.027468 -0.0138 0.051636 0.04506 0.047197 0.11461 
0.062652 0.070708 0.061172 0.047033 0.0031344 0.053281 0.1391 0.030263 
0.027139 0.066105 0.060022 0.012506 0.025659 -0.040271 0.15653 0.025166 
-0.0078813 0.053774 0.053116 0.038319 0.066763 -0.036654 0.13286 0.035524 
-0.080223 0.061172 0.059693 0.045718 0.050814 0.030427 0.11346 0.028125 
-0.19877 0.050486 0.03536 0.028783 0.039141 0.0075736 0.062981 0.007738 
-0.1963 -0.011334 0.010862 0.033387 -0.028597 -0.011992 0.028619 -0.003771 
0.060022 0.0026412 0.005765 0.014315 0.0054362 0.02533 0.031742 0.018589 
0.25567 0.038483 0.0064227 1.0539e-005 0.012999 0.042758 0.049664 -0.0011404 
0.29365 0.055418 0.039141 0.040621 0.024673 0.037168 0.012999 0.032893 
0.19533 0.063639 0.055089 0.020891 0.025824 0.083533 0.0036276 0.031742 
0.098988 0.09422 0.025988 0.017603 0.018754 0.062323 -0.0042642 0.013328 
0.034044 0.097179 0.0041209 0.037497 0.05213 0.0013258 0.030756 0.033058 
-0.025474 0.06479 0.033058 0.035195 0.080409 0.0036276 0.0083956 0.028947 
-0.071016 0.049335 0.032893 0.048019 0.092247 0.029441 0.012506 0.056898 
-0.082361 0.039305 0.024344 0.040128 0.094384 0.05213 0.027796 0.029276 
-0.084663 0.005765 0.025659 0.021549 0.060515 0.05065 0.00297 0.036182 
-0.03616 -0.00015387 0.011684 0.045224 0.039963 0.05065 0.0013258 0.04654 
0.010369 0.016616 0.04095 0.020562 0.024179 0.052294 0.0074092 0.023357 
0.042429 0.0093821 0.029605 0.032071 0.027139 0.061501 0.03092 0.031907 
0.068571 0.027468 0.032236 0.040785 0.020398 0.055911 0.024179 0.019083 
0.069064 0.059035 0.026152 0.0037921 0.03947 0.066598 -0.017417 0.0092177 
0.04654 0.044238 0.028783 0.029276 0.0021479 0.024837 0.00066819 0.0087245 
-0.10406 0.037826 0.045389 0.015301 0.00297 -0.0059084 0.023686 0.017438 
-0.25286 0.022206 0.026152 0.02122 0.0088889 0.0093821 0.011026 0.0065871 
-0.21323 0.012342 0.051636 0.034209 0.01711 0.018754 0.024508 0.0034632 
-0.024323 0.030427 0.059528 0.020891 0.010204 0.0046141 0.026317 0.029934 
0.19764 0.076299 0.044238 -0.0077169 0.030263 0.018425 0.051143 0.04917 
0.29201 0.093398 0.015794 0.03092 0.037661 0.034866 0.03651 0.052787 
0.27064 0.09274 0.022042 0.029769 0.032071 0.04095 0.046704 0.05065 
0.20257 0.066434 0.029934 0.043745 0.028619 0.026317 0.050486 0.035524 
0.16541 0.017438 0.040292 0.020398 0.018754 0.041443 0.042923 0.043087 
0.11757 0.010862 0.01004 -0.011992 0.00099702 0.028619 0.057884 0.038319 
-0.10669 0.083533 0.049992 0.04506 0.0087245 0.013986 0.037826 0.022535 
-0.2762 0.040785 0.044567 0.015794 0.013657 0.034866 0.042429 -0.0054151 
-0.22228 0.0051074 0.023522 0.0067515 0.01267 0.0069159 0.026974 -0.008539 
-0.052602 0.034209 0.019905 0.033551 -0.0019624 0.007738 0.0052718 0.035031 
0.067256 0.024673 0.01415 0.015465 -0.03057 0.009711 0.01415 0.033387 
0.087314 0.024837 0.0052718 0.024015 -0.026624 0.012177 0.062323 0.020891 
0.082875 0.059364 0.032893 0.045553 -0.02942 -0.0091966 0.031249 0.038812 
0.12003 0.049664 0.033387 0.038483 -0.012814 -0.006566 0.11576 -0.0067304 
0.083533 0.029934 0.04917 0.063474 0.0080668 0.018754 0.036346 0.034866 
0.067585 0.04358 0.070215 0.038648 0.061008 0.037332 0.10869 0.036346 
0.085012 0.043416 0.057884 0.024344 -0.0042642 0.041607 0.030592 0.039141 
0.096193 0.014972 0.035853 0.031414 -0.014951 0.079422 0.028125 0.028947 
0.087479 0.062488 0.024508 0.018918 0.011848 0.048019 0.04654 0.019247 
0.064132 0.03799 0.021549 0.032236 0.056076 -0.025145 0.045882 0.034209 
0.031578 0.0090533 0.026152 0.010697 0.081067 -0.047998 0.05476 0.0064227 
0.010204 0.043087 0.015465 -0.0072237 0.033387 -0.084827 0.034537 0.021713 
-0.039449 0.058871 0.050814 0.030592 -0.0088678 -0.11278 0.038319 0.023028 
-0.10702 0.041607 0.060022 0.029112 0.016781 -0.03764 0.030592 0.0064227 
-0.14566 0.04917 0.035195 0.041936 0.0090533 0.1077 0.0016547 0.011191 
-0.10801 0.057884 0.026646 0.033715 0.0075736 0.17347 0.005765 0.0092177 
-0.029748 0.040292 0.019905 0.036182 0.049992 0.22 0.016288 0.03799 
0.060515 0.042265 0.040292 0.044731 0.11494 0.15456 0.032071 0.02681 
0.082053 0.056569 0.045718 0.037826 0.14913 0.019247 0.029769 0.053938 
0.088136 -0.0059084 0.031907 0.032893 0.095042 -0.037147 0.036675 0.072024 
0.16673 0.0095465 0.056898 0.055418 0.038648 -0.030735 0.050814 0.045882 
0.28099 0.061995 0.055747 0.014808 0.021878 -0.037805 0.014643 0.046046 
0.28379 0.04654 0.056404 0.030427 0.052294 -0.025967 0.0032988 0.019905 
0.25978 0.074326 0.01152 0.016616 0.05476 0.007738 0.020727 -0.0026201 
0.1419 0.099316 0.014643 0.0098754 0.051965 0.04506 0.038483 0.029934 
0.01152 0.087479 0.022535 0.022864 0.033222 0.021384 0.012835 0.022371 
-0.029584 0.057884 0.027468 0.036675 0.013986 0.034866 0.030427 0.046375 
-0.068221 0.052294 0.036839 0.015959 -0.0040998 0.040292 0.03651 0.017438 
-0.089759 0.013657 0.035524 0.039141 -0.022679 -0.00097594 0.020727 0.021549 
-0.121 -0.035667 0.027139 0.0092177 -0.031886 -0.008539 0.012835 0.0052718 
-0.40428 -0.042573 0.03947 0.0080668 -0.0011404 -0.0027845 0.0016547 0.0018191 
-0.44687 -0.071674 0.015794 0.053938 0.030592 -0.0004827 0.020891 0.026974 
-0.02794 0.00066819 0.028619 0.034866 0.04654 0.010533 -0.0047575 0.013328 
0.31059 0.083368 0.047526 0.060022 0.068407 0.024015 -0.0070593 0.072024 
0.30779 0.099481 0.033387 0.02829 0.053774 0.044073 0.010369 0.044896 
0.18876 0.11329 0.033387 0.033387 0.046704 0.03799 0.035031 0.039634 
0.1733 0.10425 0.035031 0.051636 0.063474 0.037004 0.029441 0.050979 
0.16623 0.079587 0.065612 0.031742 0.061008 0.076627 0.02829 0.040456 
0.11313 0.047033 0.035688 0.018425 0.042429 0.046704 0.01826 0.027303 
0.013492 0.039963 0.024015 0.027139 0.050321 0.031414 0.03092 0.018096 
-0.079401 0.024344 0.014808 0.0062583 0.072517 0.029769 0.053938 0.024015 
-0.10275 0.015959 0.023522 0.040785 0.067913 0.0421 0.045553 0.036675 
-0.076442 0.041772 0.027961 0.029769 0.037497 -0.01117 0.016781 0.024673 
0.0083956 0.045389 0.015794 0.0095465 0.022371 -0.0036066 -0.0024557 0.030098 
0.089287 0.039305 0.042758 0.025659 0.027632 0.022206 0.0026412 0.0034632 
0.15587 0.041772 0.049992 0.0095465 0.021384 0.014808 0.0047785 0.029112 
0.22049 0.042594 0.081067 0.061501 0.026974 0.020562 0.039634 0.068736 
0.17791 0.055089 0.032236 0.044238 0.042594 0.054103 0.028454 0.055089 
0.096686 0.09274 0.013986 0.028454 0.035688 0.03536 0.0095465 0.041443 
0.026317 0.097179 0.016288 0.044567 0.026317 -0.0082102 0.00297 0.018918 
0.0098754 0.038155 0.014479 0.029441 0.0092177 -0.03764 0.02681 0.022535 
-0.11113 0.026646 0.022864 0.016123 0.024015 -0.020706 0.02829 0.022535 
-0.17657 0.025495 0.016123 0.033551 0.023193 -0.059836 0.0039565 0.013986 
-0.14467 0.0052718 0.0324 0.015465 -0.0095255 -0.045696 0.014643 0.020891 
-0.069865 0.032236 0.054103 -0.0078813 -0.013965 0.053116 0.034537 0.023686 
-0.031064 0.040621 0.039141 0.031742 -0.011005 0.044567 0.031249 0.039305 
-0.031721 0.016123 0.028619 0.014643 0.020891 0.048513 0.029276 0.040621 
0.033715 0.010697 0.020562 0.052787 0.078272 0.093726 0.051801 0.00083261 
0.17659 0.038483 0.021056 0.032071 0.081067 0.080244 0.044073 0.042758 
0.15292 0.042429 0.012342 0.017767 0.059693 0.058706 0.032893 0.0085601 
-0.0082102 0.053116 0.030263 0.052294 0.014479 0.023028 0.036182 0.00066819 
-0.076606 0.06594 0.037826 0.011191 -0.027282 0.0324 0.056569 0.016945 
-0.051122 0.063474 0.066105 0.023028 -0.040106 -0.01232 0.037004 0.03092 
0.016452 0.063639 0.048841 0.032071 -0.065919 -0.014622 0.025988 0.051965 
0.056404 0.071859 0.023522 0.01826 -0.055397 -0.01232 0.03092 0.03388 
0.14585 0.072517 0.018754 0.029605 -0.022679 -0.003771 0.042594 0.030592 
0.25502 0.06479 0.0044497 0.019247 0.012177 -0.00064712 0.017438 0.029112 
0.24236 0.054103 0.0046141 0.0093821 0.037497 0.029769 -0.0014692 0.020727 
0.21178 0.057555 0.0046141 0.038812 0.046046 0.036182 0.019411 0.00099702 
0.17166 0.060515 0.035853 0.0095465 0.031249 0.041607 0.012835 -0.033365 
0.038648 0.066105 0.035195 0.0018191 0.026152 0.0090533 -0.0098543 -0.012156 
-0.14681 0.034866 0.0421 0.026974 0.053609 0.012177 0.016781 0.032729 
-0.31649 -0.012814 0.020562 0.023851 0.079751 -0.028104 0.060515 0.077943 
-0.30547 -0.01528 0.020233 0.05065 0.11609 -0.024323 0.04654 0.076134 
-0.089759 0.029276 0.012835 0.042265 0.11083 0.047033 0.062652 0.079916 
0.12135 0.048841 0.031907 0.02829 0.087643 0.01415 0.039963 0.053774 
0.16623 0.070708 0.027796 0.053774 0.043909 -0.022185 0.050979 0.030427 
0.016288 0.044073 0.041936 0.025001 -0.00064712 0.054267 0.029605 0.013986 
-0.07825 0.021878 0.065447 0.053609 -0.0040998 0.13286 0.024673 0.02681 
-0.057863 0.01563 0.078272 0.051636 -0.0021268 0.12957 0.0065871 -0.021199 
0.016123 0.045224 0.03651 0.02122 0.017438 0.080902 0.0095465 -0.025967 
0.11329 0.034209 0.029441 0.039634 0.039799 0.050814 0.011026 0.00033937 
0.12513 0.050979 0.020727 0.029605 0.026646 0.021878 0.0054362 0.030592 
-0.0059084 0.059857 0.0024767 0.00050378 -0.0072237 -0.0047575 0.018918 0.025166 
-0.036818 0.029605 -0.011663 0.058377 -0.085978 -0.038791 0.049006 0.016288 
0.14782 0.043909 0.0060938 -0.020377 -0.056055 -0.058521 0.059364 0.063474 
0.25946 0.014808 0.038977 -0.016102 -0.048327 -0.020706 0.082711 0.0421 
0.21769 0.037826 0.059035 0.022206 0.0090533 0.044402 0.0421 0.092576 
0.079587 0.062981 0.059857 0.025001 0.01004 0.048019 0.0031344 0.084848 
-0.060494 0.062981 0.047855 0.053281 0.016288 -0.020048 -0.0068948 0.050321 
-0.087786 0.036346 0.031249 0.028125 0.023522 -0.09239 0.0011614 0.043416 
-0.045203 0.025659 0.014315 0.017438 0.027632 -0.017911 0.052459 -0.011498 
0.019247 0.057555 0.020562 0.051801 0.13697 0.07449 0.01267 -0.0091966 
0.07597 0.047033 0.050321 0.042594 0.18843 0.10293 -0.0090322 0.015301 
0.088136 0.020562 0.049499 0.039963 0.18744 0.094548 -0.009361 0.031085 
0.062323 0.045718 0.053938 0.049828 0.15538 0.06742 0.023028 0.047197 
0.021056 0.039963 0.029112 0.016452 0.061666 0.040292 0.01974 0.028454 
-0.099789 0.042923 0.028454 0.017274 -0.022185 0.039963 0.028947 0.014643 
-0.066577 0.07038 0.030098 0.0072447 -0.039284 0.013492 0.032564 -0.020212 
0.2246 0.071531 0.023028 0.0052718 -0.025802 0.016123 0.046375 0.024673 
0.38737 0.067749 0.022042 0.021878 -0.0019624 0.031742 0.039963 0.061337 
0.30253 0.072024 0.03799 0.011191 -0.0042642 0.026974 0.023193 0.061666 
0.11855 0.040456 0.043909 0.023028 -0.024652 -0.0088678 0.052952 0.072188 
-0.022843 0.0070803 0.053609 0.043416 -0.00064712 -0.0039354 0.044896 0.05213 
-0.17904 0.00017495 0.035853 0.033058 0.024179 0.023686 0.015794 0.041772 
-0.58218 -0.0054151 0.020233 0.037826 0.0044497 0.069064 0.0075736 0.017932 
-0.82058 -0.041586 0.01152 0.010697 0.069886 0.093398 0.012342 -0.023172 
-0.35858 -0.029255 0.0075736 0.025824 0.10655 0.050157 0.014972 1.0539e-005 
0.30187 0.07301 0.066598 0.067256 0.098166 0.014479 0.0083956 0.03092 
0.5896 0.1294 0.035031 0.026974 0.013164 -0.017911 -0.0082102 0.036182 
0.48947 0.10721 0.0421 0.015301 -0.028762 -0.023994 0.051143 0.040621 
0.2343 0.082711 0.038812 0.016945 -0.040106 -0.0062372 0.098659 0.02122 
0.11214 0.062159 0.030427 0.012013 -0.0090322 0.031249 0.11494 0.038155 
-0.05326 0.044073 0.010697 0.045553 0.018425 0.024837 0.086492 0.029441 
-0.32454 0.027139 0.014479 0.028619 0.058706 0.070051 0.019247 0.034866 
-0.27144 -0.037805 0.02829 0.044567 0.055747 0.04506 -0.039942 0.034537 
0.00017495 -0.01117 0.034537 0.09126 0.042265 0.033551 -0.11903 0.024673 
0.19155 0.054925 0.032893 0.039799 0.055089 0.029112 -0.16934 0.025495 
0.21506 0.064461 0.047033 0.010204 0.060844 0.022535 -0.11689 0.0069159 
0.12957 0.060844 0.04654 0.038812 0.007738 0.023522 0.0082312 0.0051074 
0.073997 0.10967 0.045718 0.0227 -0.0022913 0.031742 0.11017 0.036839 
0.046046 0.067749 0.0023123 0.037168 0.00017495 0.048841 0.13105 0.085177 
0.00083261 0.037332 0.0075736 0.030756 0.021384 0.040292 0.13253 0.076134 
-0.03501 0.070873 0.033387 0.031249 0.01826 0.034044 0.13697 0.012506 
-0.040928 0.062652 0.041936 0.050979 -0.0042642 -0.0055795 0.11017 0.010697 
-0.022185 0.027303 0.045224 0.031578 0.0095465 -0.02942 0.10688 0.0074092 
0.0013258 0.036346 0.035031 0.0227 0.0090533 -0.072496 0.022371 0.015137 
0.013492 0.032729 0.042758 0.0421 0.027303 -0.061973 -0.031886 0.020398 
0.026152 0.026646 0.05624 0.029605 0.016452 0.0069159 -0.022185 0.015959 
0.023851 0.071202 0.042429 0.040128 0.015465 0.068078 -0.028104 0.025166 
-0.063618 0.041114 0.022371 0.039963 0.014643 0.093069 -0.029748 0.020727 
-0.093705 0.0062583 0.016781 0.038648 0.011684 0.089452 -0.019719 0.011355 
-0.080881 0.015794 0.016616 0.035853 0.015465 0.067091 0.027303 0.021549 
0.0051074 0.060186 0.023851 0.020562 -0.0034422 0.043745 0.086163 0.017603 
0.089452 0.04095 0.035524 0.01974 -0.045368 0.03536 0.11674 0.056898 
0.159 0.083697 0.081231 0.048348 -0.048985 0.024015 0.1151 0.039799 
0.2297 0.10113 0.07301 0.025166 -0.011005 -0.010512 0.10014 0.050486 
0.27573 0.08715 0.050321 0.040456 -0.0019624 -0.037147 0.050321 0.052294 
0.23611 0.053774 0.018754 0.020398 0.00017495 -0.059507 -0.022021 0.02681 
0.12003 0.047033 0.027303 0.02533 0.038483 -0.051451 -0.079566 0.032071 
-0.19268 -0.0057439 0.035524 0.066927 0.062488 -0.028762 -0.047998 0.042429 
-0.43684 -0.0077169 0.033222 0.023028 0.077614 0.0026412 0.0028056 0.037332 
-0.42549 -0.0022913 0.044731 0.01152 0.056569 0.026152 0.0592 0.058871 
-0.2402 -0.033365 0.047033 0.023851 0.078272 0.072024 0.096028 0.027632 
0.051801 -0.004593 0.052787 0.016781 0.091753 0.11329 0.081889 0.0056006 
0.33032 0.026152 0.024179 0.030263 0.10244 0.079422 0.031578 -0.0050863 
0.46612 0.057391 0.017438 0.041443 0.087972 0.072188 0.011684 0.023522 
0.51463 0.075805 0.0074092 0.017603 0.038977 0.069229 0.017274 0.0095465 
0.64649 0.16804 -0.0039354 0.025988 -0.02942 0.038155 0.028947 0.044402 
0.53666 0.17577 0.007738 -0.004593 -0.088608 -0.0016336 0.03536 0.050157 
0.1562 0.12283 0.031249 0.012506 -0.075949 0.013164 0.023357 0.050157 
-0.23181 0.093562 0.061666 0.037661 -0.014787 0.03799 0.019411 0.063474 
-0.33342 0.033715 0.069064 0.046375 0.074161 0.029769 0.0062583 0.044238 
-0.22885 0.0019835 0.049335 0.047197 0.090438 -0.0090322 0.00050378 0.03092 
-0.086307 0.047526 0.034702 0.038483 0.057227 -0.0059084 0.0072447 0.024179 
0.015137 0.017438 0.019247 0.016616 0.053445 -0.021363 0.03799 0.00033937 
0.068571 0.022864 0.021549 0.043251 0.077778 -0.034023 0.0227 0.032236 
-0.017417 0.0087245 0.015794 0.022535 0.099481 0.010204 0.0324 0.021549 
-0.066906 -0.0095255 0.0090533 0.016781 0.083368 0.073504 0.061666 0.0047785 
0.024179 -0.024487 0.027961 0.041772 0.09126 0.08419 0.13072 0.0036276 
0.13598 0.01711 0.041607 0.026481 0.10589 0.072681 0.18169 0.0065871 
0.22 0.024344 0.027632 0.043909 0.059693 0.040456 0.14305 0.027303 
0.18843 0.037004 0.015137 0.035195 -0.030735 -0.020048 0.017274 0.022206 
0.20569 0.081395 0.026646 0.032729 -0.032215 -0.06148 -0.080223 0.027139 
0.057555 0.073668 0.016288 0.044896 -0.017911 -0.0078813 -0.092061 0.05213 
-0.083018 0.088794 0.040128 0.0088889 0.0075736 0.0018191 -0.050958 0.061172 
-0.21636 0.074819 0.013657 0.01004 0.056733 0.028125 -0.010841 0.033222 
-0.15224 0.065447 0.011848 0.015794 0.10178 0.042758 -0.00015387 -0.010676 
0.037332 0.034044 0.045882 0.004943 0.11822 0.083204 -0.0068948 -0.010676 
0.13664 0.020398 0.026974 0.050321 0.13171 0.093891 0.005765 0.013492 
0.083697 0.04654 0.029112 0.025495 0.093726 0.073668 0.034537 0.016616 
0.015959 0.060844 0.0227 0.025659 0.046211 0.064461 0.037004 0.024837 
0.010369 0.048677 0.024837 0.055582 0.037826 0.017274 0.040456 0.014808 
0.0074092 0.053774 0.0062583 0.020891 0.015794 0.0028056 0.049335 0.061008 
0.039634 0.038977 0.013657 0.014643 0.012999 0.004943 0.044896 0.042923 
0.045553 0.039799 0.03388 0.028454 -0.0082102 -0.021199 0.023851 0.046868 
0.020727 0.054103 0.065776 0.027961 -0.052109 -0.047012 0.0039565 0.040785 
-0.029255 0.042758 0.054596 0.032236 -0.035667 -0.020048 0.037168 0.025001 
-0.030899 0.038319 0.043251 0.016781 -0.011334 -0.0088678 -0.0021268 0.019576 
0.0064227 0.06331 0.02533 0.013164 0.019247 0.0052718 -0.086636 0.021549 
0.024508 0.061666 0.030098 0.042265 0.062159 0.040456 -0.11097 0.020069 
-0.065755 0.035195 0.022535 0.024673 0.066598 0.032893 -0.054246 0.020891 
-0.14434 0.034702 0.029769 0.024673 0.048348 0.035031 0.0039565 0.011848 
-0.098802 0.018589 0.041278 0.032893 0.018425 0.00083261 0.079587 0.023522 
0.029276 -0.014622 0.044073 0.01974 0.00297 0.019247 0.13056 -0.012978 
0.056404 0.0075736 0.046375 0.032236 -0.022185 0.0037921 0.20832 -0.006566 
0.073339 0.012999 0.021056 0.021878 -0.014787 0.02829 0.21572 -0.00064712 
0.16738 0.048184 0.029934 0.014972 1.0539e-005 0.062817 0.16919 0.06479 
0.2269 0.079751 0.031085 0.042923 0.015465 0.055254 0.05213 0.059693 
0.20569 0.08715 0.052787 0.0052718 0.02681 0.010862 -0.0080457 0.048184 
0.075476 0.065776 0.024837 0.016123 0.026481 0.029605 -0.033201 0.048677 
-0.015116 0.027139 0.01974 0.017603 0.034537 0.08567 -0.011827 0.096686 
-0.22557 0.0052718 0.026646 0.020727 0.036346 0.083368 -0.021856 0.097672 
-0.78227 -0.040764 0.012342 0.037332 0.048677 0.053116 -0.0503 0.031578 
-0.85757 -0.0095255 -0.0098543 0.024837 0.069064 0.025001 -0.07266 -0.031557 
-0.26667 0.053938 0.033715 0.033715 0.067585 -0.0087034 -0.043395 -0.012156 
0.3387 0.065283 0.042429 0.04917 0.036839 -0.021199 0.020562 0.025659 
0.59535 0.099645 0.035031 0.038483 -0.0082102 -0.0052507 0.011684 0.060022 
0.53748 0.10408 0.048677 0.020233 -0.037311 -0.0064016 0.030427 0.052787 
0.3512 0.064296 0.04506 0.029441 -0.049642 0.0054362 0.047855 0.01711 
0.17593 0.036017 0.057391 0.012835 -0.055068 -0.0013048 0.058213 0.025659 
0.037332 0.061008 0.070544 0.040292 -0.038462 0.018425 0.042429 0.029605 
-0.068879 0.025988 0.043909 0.028125 -0.023336 0.034373 0.041443 0.036182 
-0.063782 0.037497 -0.0022913 0.030263 -0.019061 0.063803 0.060515 0.040456 
-0.24546 0.05213 0.024673 0.05624 -0.0039354 0.045718 0.074161 -0.0057439 
-0.31583 0.020069 0.021384 0.029441 0.0083956 0.037661 0.0037921 -0.0062372 
-0.2328 0.0069159 -0.012978 0.029605 0.025001 -0.01528 -0.011663 0.024508 
0.018754 0.026481 0.018096 0.03092 0.030263 -0.0095255 0.016616 0.0072447 
0.39 0.050814 0.067256 0.018754 0.015301 -0.057534 0.041114 0.044567 
0.58302 0.06035 0.052952 0.041607 0.019411 -0.095349 0.039799 0.034537 
0.50805 0.07449 0.032236 0.015794 0.024508 -0.080881 0.045718 0.097837 
0.31716 0.059528 0.025166 0.0075736 0.051472 0.027632 0.076299 0.038812 
0.11543 0.041443 0.027468 0.062652 0.08978 0.10852 0.11346 0.062981 
-0.1621 0.08978 0.024015 0.034373 0.11362 0.12398 0.15176 0.071859 
-0.54338 0.031414 0.020069 0.036839 0.099645 0.10458 0.11313 0.016288 
-0.72357 -0.027282 0.013657 0.024508 0.082217 0.083204 0.11494 0.011848 
-0.4929 0.0075736 0.029605 0.0087245 0.11642 0.080573 0.025988 -0.0024557 
0.020398 0.039634 0.065447 0.032564 0.1008 0.082546 -0.036818 0.039963 
0.30368 0.077614 0.057555 0.040292 0.08156 0.049664 -0.06148 0.040456 
0.24005 0.077778 0.038648 0.041772 0.056404 -0.0016336 -0.084498 -0.02087 
0.19287 0.049992 0.027468 0.047691 -0.015773 -0.039942 -0.10078 -0.014458 
0.23035 0.050486 0.025495 -0.0060728 -0.086964 -0.037969 -0.055726 -0.0024557 
0.38441 0.08419 0.025166 0.0072447 -0.093212 0.0024767 -0.0098543 0.038319 
0.50723 0.1248 0.02829 0.041772 -0.036489 0.023851 -0.0004827 0.065612 
0.36402 0.083533 0.043087 0.019083 -0.015609 0.0090533 0.0034632 0.042758 
0.088301 0.047362 0.04358 0.024508 -0.012814 -0.058356 0.007738 0.022535 
-0.084169 0.035031 0.031578 0.023028 0.01152 -0.057205 0.052787 0.052623 
-0.10554 0.035688 0.031578 0.036182 0.023357 -0.030735 0.079258 0.076299 
-0.073976 0.042594 0.045224 0.072024 -0.046519 0.022371 0.10129 0.03947 
-0.026296 0.031085 0.035524 0.024837 -0.10702 0.04654 0.095864 0.026152 
-0.16901 -0.027611 0.011191 0.012999 -0.067399 0.045553 0.075641 0.012177 
-0.31172 -0.049807 0.0032988 0.019083 0.04506 0.044238 0.02829 0.0042853 
-0.23757 -0.02087 0.037168 0.01004 0.098166 0.018589 -0.013636 0.0088889 
0.0056006 0.044073 0.050157 0.031578 0.17593 -0.037969 -0.015444 0.019411 
0.17199 0.062817 0.051472 0.010369 0.17939 -0.11557 0.020727 0.023028 
0.24038 0.073668 0.022042 0.00017495 0.19681 -0.15783 0.078765 0.044731 
0.23183 0.082875 0.021056 0.028783 0.244 -0.015444 0.10162 0.044731 
0.21523 0.10556 0.03651 0.021713 0.25387 0.22904 0.12628 0.066105 
0.19287 0.1128 0.05476 0.021056 0.24121 0.30237 0.063968 0.084355 
0.14239 0.061501 0.045882 0.036346 0.1738 0.26636 -0.038298 0.06183 
0.089287 0.055418 0.051636 0.029769 0.10113 0.21556 -0.13678 0.030263 
0.021878 0.055911 0.056733 0.064461 -0.0098543 0.10047 -0.19202 -0.0091966 
-0.059014 0.021713 0.063968 0.027303 -0.12774 -0.0096899 -0.15158 -0.014622 
-0.12166 -0.0060728 -0.0022913 0.021056 -0.18627 -0.099131 -0.024652 -0.018239 
-0.12248 0.053609 0.012177 0.045553 -0.17147 -0.13004 0.11806 0.0019835 
-0.099953 0.025988 0.023851 0.027961 -0.10784 -0.07003 0.11231 0.01711 
-0.059836 0.042758 0.044567 -0.010019 -0.06444 -0.031392 0.049992 0.044731 
0.021056 0.048184 0.029769 0.02533 -0.022679 -0.0036066 0.060186 0.036017 
0.14371 0.043909 0.034537 0.031249 0.041114 0.004943 0.06479 0.01267 
0.16492 0.066598 0.048184 0.045718 0.058213 0.016616 0.047362 0.021713 
0.16558 0.097179 0.053774 0.014808 0.067256 -0.001798 0.053116 0.066598 
0.14371 0.082546 0.023357 0.015465 0.05772 0.017767 0.054432 0.08978 
0.14289 0.055254 0.030098 0.048348 0.051801 0.053281 0.060186 0.11921 
0.097508 0.059857 0.021384 0.024508 0.053609 0.082875 0.011684 0.052787 
0.039305 0.038319 0.02829 0.021384 0.070051 0.10803 0.01974 0.047197 
0.020727 0.0074092 0.033222 0.042594 0.066105 0.062488 0.036346 0.03651 
0.013821 0.0031344 0.025824 0.025824 0.062652 0.029441 0.051801 0.019576 
-0.069372 -0.016924 0.029441 0.040621 0.055254 -0.00097594 0.01267 0.0088889 
-0.15552 -0.0059084 0.040621 0.0051074 0.064132 -0.051944 0.0023123 -0.023172 
-0.19137 0.023522 0.037004 0.016452 0.051143 -0.098802 -0.0031133 -0.0024557 
-0.12346 0.055418 0.027303 0.048841 0.011684 -0.040435 0.018589 0.0024767 
0.03651 0.08304 0.047526 0.042923 0.061172 0.091589 0.015959 0.01415 
0.1465 0.0786 0.041443 0.043416 0.10293 0.12891 0.0098754 0.0052718 
0.25929 0.092247 0.048019 0.053609 0.045224 0.1031 0.043416 0.056404 
0.31322 0.072188 0.044896 0.035031 -0.042573 0.058871 0.095206 0.08567 
0.26505 0.059693 0.038155 0.042758 -0.10423 -0.0062372 0.078107 0.046375 
0.20224 0.063474 0.031085 -0.0031133 -0.10143 -0.038462 0.070544 0.029112 
0.083533 0.0095465 -0.0052507 -0.0040998 -0.046847 0.0026412 0.055582 0.013986 
-0.094692 0.012177 0.0070803 0.045389 0.007738 0.024344 0.013821 0.0060938 
-0.16243 0.05065 0.018589 0.031907 0.055418 0.032236 0.00099702 0.017274 
-0.098309 0.036839 0.033058 0.017438 0.03799 0.03799 0.01415 0.014479 
0.050486 0.031742 0.0227 0.028783 0.01004 -0.0055795 0.0039565 0.042265 
0.10195 0.049335 0.023851 0.01974 -0.0138 -0.016266 -0.047176 0.044073 
0.12743 0.052952 0.040456 0.037004 -0.0077169 0.012177 -0.069043 0.036839 
-0.060494 0.038155 0.056076 0.019905 0.02122 0.023686 -0.017746 0.043087 
-0.22047 0.042429 0.034702 0.020891 0.038812 0.020398 0.049992 -0.0011404 
-0.12116 0.022535 0.019247 0.044731 0.061172 0.011848 0.069229 0.020727 
0.0421 0.037168 0.019247 0.027303 0.059364 0.045553 0.090274 0.01152 
0.17396 0.087972 0.027632 0.033222 0.034537 0.051801 0.093069 0.040128 
0.19813 0.049006 0.024508 0.032564 0.0227 0.051965 0.085341 0.04654 
0.12562 0.010204 0.025988 0.031578 0.031085 0.052459 0.08156 0.038648 
0.024179 0.041936 0.041443 0.036675 -0.0090322 0.050321 0.10228 0.038812 
-0.11935 0.03536 0.070708 0.022371 -0.021528 -0.0036066 0.096028 0.015959 
-0.25187 0.0054362 0.050486 0.0085601 -0.044052 -0.042737 0.054925 0.021384 
-0.23921 0.0227 0.014479 0.034702 -0.040764 -0.010512 0.0046141 0.026481 
-0.25647 -0.015609 0.011191 0.012835 -0.029913 -0.025474 0.0090533 -0.020706 
-0.072989 -0.011498 0.01415 0.017932 -0.013143 -0.028762 -0.003771 0.017603 
0.24269 0.063968 0.021878 0.044567 0.029112 -0.044052 -0.023829 -0.0055795 
0.39559 0.10852 0.037661 0.0079024 0.0062583 -0.036325 -0.065755 0.026974 
0.27047 0.11 0.03651 0.026152 -0.012156 0.0019835 -0.10028 0.00066819 
-0.053588 0.02829 0.04506 0.027961 0.0095465 0.019083 -0.012814 -0.030899 
-0.14911 0.019905 0.027139 0.023028 0.014972 0.0592 0.096028 -0.0021268 
-0.035503 0.022864 0.020398 0.041607 0.046868 0.055747 0.16755 0.032729 
0.023522 0.016288 0.020562 0.026481 0.054267 0.058542 0.22493 0.042429 
-0.00081153 0.012342 0.0052718 0.022864 0.07597 0.059528 0.1756 0.011684 
-0.0083746 -0.0031133 0.027632 0.035853 0.11707 0.055254 0.080409 0.0093821 
-0.0004827 0.029276 0.027961 0.029934 0.11642 0.073504 0.061172 0.034537 
0.093398 0.080244 0.048184 0.034373 0.11378 0.08863 0.021384 0.035524 
0.16936 0.10096 0.049664 0.02122 0.10556 0.079258 -0.11294 0.015137 
0.16903 0.097672 0.054596 0.035031 0.087314 0.0024767 -0.27785 0.0064227 
0.1026 0.1128 0.034209 0.039634 0.075805 -0.049314 -0.31238 0.068571 
0.00083261 0.094384 0.03092 0.01267 0.050979 -0.035174 -0.14418 0.11066 
-0.088444 0.07597 0.0064227 0.0082312 -0.023007 -0.014458 0.03388 0.067749 
-0.19334 0.050979 0.0090533 0.013986 -0.059014 0.02122 0.14437 0.034702 
-0.49455 -0.02235 0.009711 -0.0087034 -0.063124 0.059857 0.17824 0.0062583 
-0.56985 -0.10357 0.040128 0.038155 -0.035832 0.045389 0.17824 -0.024487 
-0.22343 -0.053588 0.046868 0.044896 -0.0014692 0.034537 0.13993 0.0018191 
0.2006 -0.012814 0.054103 0.034209 0.027796 0.020069 0.098494 0.015959 
0.49325 0.070544 0.039963 0.051965 0.048019 0.019083 0.078107 0.054596 
0.58467 0.12381 0.031907 0.031414 0.054432 0.014643 0.048184 0.038812 
0.42519 0.10836 0.019411 0.035195 0.057884 0.023028 0.013821 0.041936 
0.15752 0.08304 0.026646 0.026152 0.049006 0.03947 0.0095465 0.044238 
-0.012156 0.085999 0.0227 0.014972 0.040456 0.03388 0.010533 0.016123 
-0.10505 0.057884 0.029605 0.044238 0.05065 0.011191 0.0019835 0.024673 
-0.25105 0.018425 0.044073 0.04506 0.049828 0.029605 -0.0031133 0.01974 
-0.44095 -0.0049219 0.042923 0.015137 0.047855 0.010533 -0.02235 0.023522 
-0.39705 -0.014293 0.0082312 0.044896 0.057062 0.022535 0.022042 0.050157 
-0.037969 0.037497 0.015794 0.032071 0.031742 0.036675 0.01563 0.030263 
0.25403 0.085506 0.022864 0.031414 0.047691 0.029276 0.01563 0.063145 
0.34807 0.10293 0.019083 0.024015 0.091425 -0.0068948 0.010369 0.041607 
0.32391 0.092904 0.036182 0.021549 0.068736 0.015465 0.022371 0.057227 
0.24104 0.078765 0.041278 0.041114 0.050157 0.039141 0.01974 0.032893 
0.098494 0.055911 0.053774 0.024344 0.041443 0.029276 0.0065871 0.0227 
-0.020212 0.043745 0.080738 0.06183 0.091096 0.036017 0.03388 0.037332 
-0.059507 0.017603 0.039963 0.041278 0.0064227 0.051636 0.05213 0.020233 
-0.052766 0.03536 0.01826 0.005765 0.016123 0.031085 0.033715 0.032071 
0.0087245 0.046868 0.026317 0.017274 -0.027447 0.016123 0.019247 0.037826 
0.12316 0.048513 0.018918 0.0689 -0.03616 0.0072447 0.055582 0.039305 
0.22509 0.086657 0.0227 0.023028 -0.021692 0.019905 0.030756 0.055911 
0.26587 0.073339 0.053116 0.059035 0.041114 0.0090533 0.044238 0.054267 
0.21276 0.068407 0.039634 0.036675 0.038155 0.02533 0.022535 0.023193 
0.066269 0.061172 0.064461 0.022864 0.029769 0.063639 0.042429 0.0074092 
-0.045861 0.007738 0.026646 0.042265 0.049992 0.016945 0.037332 -0.014787 
-0.063782 0.0051074 -0.0050863 0.0013258 0.048841 0.0227 0.020562 -0.010676 
-0.04619 0.043909 0.013164 0.013986 0.046046 0.025001 0.036182 -0.02087 
-0.053917 0.045882 0.024179 0.038483 0.033222 0.020398 0.048184 0.025824 
-0.052109 0.034702 0.046704 0.015794 0.03651 0.025659 0.043087 0.049828 
0.0021479 0.05624 0.040621 0.050321 0.042429 0.027303 0.027139 0.042594 
0.049664 0.032729 0.061666 0.011026 0.0227 0.03799 0.03536 0.037332 
0.043745 0.045389 0.058542 0.014315 0.0047785 0.024179 0.038812 0.051965 
0.067091 0.079094 0.037004 0.026317 -0.014293 0.022535 0.014479 0.059528 
0.055747 0.075641 0.024015 0.01711 0.0042853 0.020398 0.012506 0.019411 
0.035195 0.052623 0.0088889 0.018096 0.012506 0.01974 0.031249 0.021713 
0.011026 0.08156 0.028947 0.024015 0.01415 0.016781 0.02829 0.031414 
0.0079024 0.063145 0.047362 0.033715 0.020727 0.029934 0.028454 0.037661 
0.053445 0.020891 0.033058 0.042265 -0.021856 0.044896 0.032236 0.040292 
0.1322 0.023193 0.042758 0.029276 -0.028269 0.075476 0.04654 0.045224 
0.18596 0.035195 0.046046 0.029441 -0.042573 0.056733 0.01711 0.047033 
0.22394 0.022535 0.026974 0.047033 -0.013307 0.035031 -0.018568 0.030427 
0.25239 0.029605 0.020233 0.018425 -0.00015387 -0.022185 0.021713 0.010369 
0.34035 0.06594 0.023522 0.009711 0.018754 -0.049642 0.028125 0.024508 
0.31223 0.073832 0.01563 0.0095465 0.014479 -0.019555 0.0062583 0.009711 
0.12299 0.069722 0.021878 0.0013258 0.015959 -0.11327 0.0014903 0.026481 
-0.023665 0.090438 0.0227 0.038977 0.085341 -0.07562 0.032236 0.040621 
-0.14813 0.058049 0.046211 0.042429 0.16311 0.11806 0.053281 0.040456 
-0.15372 0.022042 0.065447 0.041443 0.21112 0.19846 0.037661 0.037004 
-0.089266 0.031907 0.045718 0.058213 0.22887 0.1613 0.02829 0.028947 
-0.22639 -0.012485 0.018589 0.014315 0.15407 0.12168 0.037497 0.016452 
-0.40839 -0.028104 0.023522 0.020069 0.054103 0.071037 0.016945 -0.0057439 
-0.2545 0.017932 0.023028 0.036017 -0.041093 0.0013258 0.007738 0.0062583 
-0.021692 0.0041209 0.028947 0.018096 -0.11311 -0.056383 0.0070803 0.038155 
0.030592 0.0037921 0.034866 0.051965 -0.11639 -0.035996 0.035524 0.044402 
0.13746 0.065776 0.025659 0.027796 -0.063782 -0.02087 0.009711 0.045882 
0.18251 0.10524 0.050979 0.058213 0.063803 0.0072447 -0.0031133 0.038155 
0.16442 0.075148 0.05772 0.044731 0.052787 0.027632 0.031578 0.048184 
0.1613 0.10277 0.037332 0.029605 0.083204 0.025824 0.050321 0.052787 
0.24696 0.088958 0.025495 0.025001 0.040785 0.013986 0.054925 0.041607 
0.32966 0.069558 0.031414 0.024015 0.033058 0.0065871 0.055911 0.056404 
0.27738 0.073339 0.010533 0.020233 0.016781 0.047033 0.064461 0.069886 
0.11198 0.041607 0.022535 0.047526 -0.01117 0.025988 0.039799 0.043745 
-0.035338 0.0028056 0.026481 0.025001 -0.032379 0.014315 0.0044497 0.012999 
-0.18052 0.0013258 0.035688 0.013986 -0.055068 0.01004 -0.0072237 -0.025638 
-0.3571 -0.028926 0.032729 0.059035 -0.021528 -0.0027845 -0.010676 0.0026412 
-0.47038 -0.05441 0.0093821 0.013328 0.018918 -0.017746 -0.024158 -0.024816 
-0.38159 -0.024323 0.012342 0.017274 0.081231 0.0065871 -0.0047575 0.0041209 
-0.17558 0.0227 0.033058 0.028454 0.11115 -0.014293 0.013164 0.014479 
0.1544 0.070215 0.06035 0.042429 0.13368 0.010204 0.070051 0.045224 
0.36485 0.10672 0.037004 0.057884 0.12891 0.073175 0.075641 0.062159 
0.30796 0.10441 0.031578 0.051636 0.13105 0.10573 0.089616 0.052459 
0.15176 0.053445 0.044402 0.029276 0.12168 0.08156 0.03799 0.047197 
-0.011663 0.030263 0.052459 0.045224 0.076956 0.051308 0.043745 0.052952 
-0.02235 0.045718 0.03536 0.029441 0.022042 0.035031 0.011026 0.067091 
0.01826 0.012013 0.020891 0.036839 -0.0021268 0.024344 -0.0062372 0.076299 
0.030263 0.0041209 0.027468 0.022864 -0.038791 -0.05178 -0.0070593 0.022371 
0.072681 0.031414 0.024179 0.011355 -0.019061 -0.089266 -0.014787 0.033551 
0.073997 0.017932 -0.0078813 0.049335 0.010533 -0.032379 -0.02087 0.030427 
-0.11804 0.027796 0.033387 0.024015 0.034537 0.056898 -0.00064712 0.015794 
-0.24266 0.06479 0.038812 0.033551 0.049006 0.11181 0.048513 0.03947 
-0.32882 0.038155 0.031578 0.042265 0.046868 0.12842 0.057062 -0.0064016 
-0.19646 0.039141 -0.010841 0.0092177 0.0592 0.042594 0.032729 -0.0019624 
0.019411 0.046704 -0.006566 0.022864 0.029112 -0.004593 0.044073 0.00017495 
0.1784 0.012177 0.0088889 0.018589 -0.041586 -0.023665 0.067091 0.021549 
0.22937 0.029276 0.014972 0.0083956 -0.098802 -0.047505 0.036675 0.034373 
0.19402 0.057391 0.024837 0.045718 -0.090417 -0.052273 -0.026624 0.01267 
0.12497 0.028947 0.040456 0.0019835 -0.031557 -0.026953 -0.019226 0.027961 
0.029112 0.017932 0.056076 -0.012485 0.052952 0.030756 -0.028104 0.015794 
-0.023501 0.018918 0.041936 0.018589 0.079587 0.031907 -0.059343 0.010204 
0.062159 0.0095465 0.0088889 0.0083956 0.086657 0.040456 -0.057534 0.043416 
0.1202 0.044402 0.021384 0.024015 0.060844 0.074819 -0.011498 0.071366 
0.11642 0.076956 0.019411 0.011355 0.048348 0.084355 0.0098754 0.076134 
0.038319 0.077285 0.034044 0.01711 0.045224 0.059857 0.027632 0.069229 
-0.0013048 0.057884 0.043251 0.069229 -0.0055795 0.016945 0.014808 0.031578 
-0.018404 0.064296 0.046211 0.03947 0.020727 0.014808 0.11329 -0.018239 
0.0069159 0.062652 0.067749 0.028947 -0.0138 -0.01117 0.25074 -0.028597 
0.039634 0.043745 0.06479 0.045389 -0.026953 -0.0022913 0.24203 -0.042737 
-0.03057 0.063968 0.041443 -0.00015387 0.01826 0.031578 0.072517 0.016288 
-0.048656 0.055254 0.034537 0.0014903 0.11822 0.1105 -0.008539 0.028619 
-0.041257 0.027961 0.014972 0.024673 0.07301 0.061337 0.03651 0.039634 
0.020891 0.080244 0.026974 0.041936 0.046868 0.0011614 -0.014129 0.039634 
0.069229 0.097508 0.01267 0.01152 -0.0014692 0.013986 -0.084498 0.040292 
0.062817 0.066105 0.032564 -0.028269 0.00066819 -0.0027845 -0.07414 0.012506 
0.11165 0.022535 0.051308 0.023193 0.015465 0.011684 -0.050958 0.031249 
0.18794 0.026481 0.076956 0.056898 0.035688 0.024179 0.020727 0.050157 
0.23381 0.020891 0.048513 0.043416 0.035853 0.0087245 0.046046 0.051472 
0.2269 0.065118 0.023357 0.053938 0.056404 -0.0050863 0.051143 0.046211 
0.29596 0.11822 0.014643 0.044238 0.041114 0.0065871 0.038648 0.0088889 
0.1784 0.10556 0.030756 0.048677 0.048513 0.031414 0.039634 0.020891 
0.052787 0.048348 0.015959 0.043416 0.037004 0.057062 0.054925 0.021713 
0.11806 0.054103 0.049499 0.015794 0.011191 0.033058 0.051965 0.024508 
0.09274 0.062981 0.059035 0.055089 0.019083 0.050979 0.047526 0.024837 
-0.051122 0.055089 0.062159 0.036346 -0.015938 0.0083956 0.034866 -0.021363 
-0.29363 0.063803 0.029605 0.0093821 -0.054739 0.0036276 0.040292 -0.012649 
-0.5077 0.011684 0.01974 0.042265 -0.047834 0.023028 0.035524 -0.014293 
-0.53647 -0.029255 0.03651 0.057227 -0.017911 0.024837 0.062159 0.022371 
-0.23938 -0.013965 0.036346 0.062159 -0.013965 0.0044497 0.049828 0.059035 
0.12644 0.004943 0.032071 0.053938 0.007738 0.01415 0.060186 0.05065 
0.053774 0.0098754 0.039305 0.0080668 0.021384 0.0044497 0.03799 0.055911 
-0.019226 0.043251 0.043251 -0.029584 0.019411 -0.00097594 0.0098754 0.017274 
0.20273 0.041278 0.064461 0.013492 0.050157 0.0016547 0.038812 0.03799 
0.37718 0.061666 0.078929 0.015137 0.029276 0.030756 0.045224 0.032893 
0.43489 0.11181 0.04506 0.033551 0.035853 0.063639 0.04095 0.026481 
0.38359 0.11839 0.048348 0.0689 0.038155 0.079258 0.026317 0.054267 
0.21358 0.10063 0.046704 0.083697 0.071531 0.064625 0.037661 0.038977 
0.09274 0.094055 0.036182 0.090438 0.063474 0.010862 0.033058 0.037004 
0.046375 0.049335 0.016945 0.027468 0.016288 -0.017417 0.0037921 0.036182 
-0.027611 0.013986 0.03092 -0.020212 -0.0049219 0.0065871 -0.0039354 -0.010841 
-0.098144 0.019905 0.04095 0.013986 0.015465 0.050321 0.015794 -0.0049219 
-0.13333 0.017438 0.052787 0.020398 0.040292 0.02681 -0.0088678 -0.017417 
-0.10373 0.028125 0.039305 0.038812 0.066105 0.028619 -0.017088 0.020727 
-0.044874 0.049335 0.031414 0.056733 0.079587 0.034044 -0.020706 0.047691 
-0.015938 0.061008 0.01826 0.046868 0.10162 0.030756 0.0093821 0.033715 
-0.00015387 0.034537 0.01415 0.062488 0.062323 -0.0075525 -0.0138 0.034209 
-0.0082102 0.031578 0.018425 0.04506 0.050979 0.018425 0.0090533 0.036182 
-0.0026201 0.037004 0.022371 0.050979 0.066269 0.057062 0.029769 0.046211 
0.064132 0.039305 0.050814 0.11296 0.067256 -0.020048 0.018589 0.041443 
0.038483 0.032071 0.058213 0.051143 0.069064 -0.010676 0.030592 0.03651 
0.11757 0.026152 0.047197 0.073339 0.041278 0.034866 0.034209 0.042429 
0.16656 0.024837 0.0074092 0.056404 0.024344 0.035195 0.051965 0.022206 
0.1733 0.034866 0.015794 0.045718 0.0031344 0.019905 0.10178 0.029276 
0.12003 0.087972 0.020069 0.08978 0.018096 0.00297 0.10606 0.014643 
0.020891 0.051965 0.011684 0.057062 0.021056 0.024344 0.06331 0.035688 
-0.12807 0.033222 0.044402 0.052459 0.047033 0.038812 0.03799 0.061337 
-0.13941 0.056569 0.048348 0.027632 0.022206 0.048348 -0.024816 0.085341 
-0.099624 0.044402 0.061501 -0.012649 -0.0078813 0.061172 -0.046683 0.064132 
-0.056712 0.044731 0.019905 -0.019719 -0.0050863 0.060679 -0.059014 0.023851 
0.017274 0.03947 0.0044497 -0.041093 0.032564 0.061337 -0.041586 0.019411 
0.12283 0.021549 0.0046141 -0.024487 0.073504 0.045718 -0.081539 0.0052718 
0.26488 -0.0060728 0.010369 0.016945 0.10491 0.018589 -0.075455 -0.003771 
0.26406 0.044238 0.022535 0.0014903 0.11033 0.0019835 0.010697 0.01415 
0.019905 0.016452 0.030098 -0.0027845 0.069393 -0.046847 0.043745 -0.049971 
-0.05589 -0.0055795 0.01267 -0.010676 0.0011614 -0.1187 0.0060938 -0.053424 
0.01563 0.018096 0.0074092 -0.02235 -0.029091 -0.069372 0.022371 0.036182 
-0.14352 0.025824 0.015794 -0.0077169 -0.006566 0.049335 0.073997 0.078107 
-0.27719 -0.0083746 0.016616 0.013657 0.015794 0.10869 0.077614 0.083533 
-0.09798 0.044073 0.013492 0.030756 0.039963 0.11444 0.03388 0.0092177 
0.13516 0.079587 0.025824 0.085506 0.036346 0.059693 0.05213 0.072024 
0.24252 0.097179 0.058542 0.046211 0.048513 0.03536 0.080738 0.049499 
0.19287 0.11115 0.058213 0.041114 0.020233 0.023028 0.05772 0.045224 
0.069722 0.07038 0.050486 0.04654 0.043416 -0.020048 0.056076 0.064625 
0.029276 0.039141 0.055089 0.023357 0.042758 0.016123 0.027961 0.032564 
0.020398 0.059693 0.045882 0.036017 0.078436 0.0090533 0.050486 0.037004 
0.021549 0.061995 0.014315 0.018589 0.044731 -0.0014692 0.048513 0.017438 
0.048677 0.048019 -0.014951 0.0044497 0.027796 0.0070803 0.037168 0.011191 
0.071859 0.04654 -0.0026201 0.025495 0.022206 0.014315 0.0088889 0.038812 
0.089616 0.040128 0.0065871 0.0011614 0.031249 0.024179 0.0082312 0.027303 
0.078436 0.039141 0.0019835 -0.00015387 0.024508 0.038977 0.0072447 0.038319 
0.063145 0.036675 0.036675 0.032236 0.0060938 0.043416 0.016945 0.02829 
0.020562 0.04654 0.048348 0.01152 -0.015773 0.020562 0.032236 0.012177 
-0.029091 0.036182 0.0072447 0.0079024 -0.065262 -0.030899 0.022535 0.011026 
-0.059014 0.029934 0.0088889 -0.034681 -0.085485 -0.039284 0.0087245 -0.0011404 
-0.076113 0.045224 0.017603 -0.05326 -0.053095 -0.053588 -0.001798 0.011684 
-0.084005 0.021056 1.0539e-005 -0.016266 -0.047012 -0.069865 0.010862 0.0036276 
-0.045861 0.027632 0.023193 -0.042408 -0.07414 -0.038462 0.019411 0.026317 
0.021384 0.04506 0.065612 0.012342 0.016781 -0.037476 -0.037147 0.082875 
0.053774 0.037826 0.067256 0.053116 0.024344 0.009711 0.030756 0.040128 
0.0041209 -0.017911 0.054596 0.067585 0.12135 0.075641 0.063803 0.038648 
0.0062583 0.0062583 0.048348 0.074983 0.086328 0.12217 0.020727 0.018096 
0.077285 0.0095465 0.0054362 0.075805 0.064954 0.086492 0.092904 0.020069 
0.086821 0.042594 0.016945 0.04654 0.06479 0.026646 0.15423 0.025824 
-0.10505 0.069886 0.0065871 0.067091 0.045882 -0.074633 0.19994 0.00066819 
-0.15914 0.010204 0.016288 0.035524 -0.027282 -0.063782 0.256 0.014479 
-0.019884 0.043745 0.018425 0.04095 -0.016595 0.020891 0.28741 -0.0026201 
0.061995 0.075312 0.05213 0.061337 0.054925 0.099645 0.21046 0.05213 
0.064296 0.075476 0.095864 0.053938 0.10392 0.11888 0.055747 0.057555 
0.048184 0.063474 0.050979 0.031907 0.1026 0.093891 -0.13974 0.040128 
0.1128 0.06594 0.034044 0.028783 0.058871 0.060515 -0.28081 0.0041209 
0.14026 0.044402 0.024344 0.020727 0.06035 0.0095465 -0.49389 -0.046683 
0.14617 0.02681 0.026481 0.043745 0.098494 -0.063946 -0.50753 0.016123 
0.17248 0.049828 0.019576 0.011191 0.095699 -0.055397 -0.2448 0.024837 
0.15127 0.099152 0.02681 0.00066819 0.063474 0.030592 0.054267 0.067585 
0.05624 0.093398 0.018589 0.01711 0.033058 0.05065 0.21326 0.048019 
0.016288 0.085506 0.025988 0.0023123 -0.011005 0.05476 0.18974 0.0092177 
0.015794 0.038648 0.03092 0.0098754 0.0065871 0.041936 0.19254 0.049828 
-0.013636 -0.0059084 0.01711 0.04358 -0.016595 0.009711 0.17971 0.051965 
-0.03501 0.013164 0.023686 0.044731 -0.055561 -0.029255 0.16114 0.058706 
-0.0059084 0.03388 0.030098 0.072024 -0.058356 -0.015444 0.13631 0.043745 
0.01563 0.026481 0.019411 0.03092 -0.045039 0.022371 0.12431 0.01267 
0.036182 0.019905 0.034373 0.033387 -0.027611 0.0083956 0.08978 0.01267 
-0.034681 0.028783 0.059857 0.058706 0.024015 0.022535 0.024837 -0.0080457 
-0.11607 0.033058 0.045718 0.036839 0.048348 0.052787 -0.0011404 -0.0032777 
-0.032215 0.023357 0.036017 0.034702 0.081067 0.042923 0.009711 0.0324 
0.091425 0.056898 0.025001 0.026152 0.12118 0.047362 0.0021479 0.023357 
0.076627 0.047855 0.025824 0.037497 0.14469 0.074983 -0.14484 0.020562 
0.025824 0.042265 0.041772 0.070873 0.11954 0.10096 -0.24529 0.012013 
0.073504 0.061337 0.036182 0.040785 0.082382 0.07038 -0.19893 0.042758 
0.10524 0.049499 0.033715 0.019247 0.046868 0.01974 -0.11771 0.029276 
0.21046 0.048019 0.029605 0.050321 0.071531 0.033551 -0.019226 0.041278 
0.24893 0.085999 0.04917 0.0227 0.088465 0.012506 0.095042 0.041278 
0.19073 0.0786 0.039634 0.030756 0.045718 0.020891 0.21556 0.023028 
0.03651 0.048513 0.024179 0.011355 0.014315 0.041772 0.23315 0.040456 
-0.133 0.010862 0.013986 0.010533 -0.013965 0.028125 0.16837 0.016616 
-0.1644 -0.014129 0.025659 0.036017 -0.023007 0.047691 0.12003 -0.014129 
-0.10932 -0.02235 0.0056006 0.016123 -0.0004827 0.079587 0.17511 -0.019719 
-0.036489 -0.0060728 0.030592 0.04654 -0.00081153 0.15522 0.24811 -0.052931 
-0.042244 0.0023123 0.027468 0.055089 0.01711 0.053774 0.10721 0.03651 
-0.076606 -0.0019624 0.055911 0.029769 0.012177 0.022042 -0.057699 0.070708 
0.0052718 0.090109 0.077285 0.025495 0.020069 -0.026953 -0.20008 0.088465 
0.14009 0.11214 0.054103 0.026317 0.021549 -0.084498 -0.1912 0.080902 
0.11411 0.098494 0.026646 0.0042853 -0.015609 -0.019061 -0.099789 0.076956 
0.047362 0.10326 0.025001 0.027303 -0.030735 0.027961 -0.026131 0.023193 
0.027468 0.076299 0.043087 0.033222 -0.035503 0.024344 0.060515 0.0054362 
0.033715 0.026646 0.035195 0.032071 -0.033859 -0.0042642 0.065283 0.004943 
0.07449 0.025988 0.041607 0.054103 -0.069865 -0.0078813 0.076792 0.02122 
0.14009 0.014315 0.038483 0.035853 -0.059836 -0.0090322 0.091753 0.0023123 
0.13187 0.0047785 0.044073 0.031742 -0.037311 0.0023123 0.10688 0.01711 
0.13056 0.030263 0.040785 0.034866 0.010697 0.013657 0.10096 0.011026 
0.13943 0.056404 0.020398 0.017932 0.045718 0.047855 0.08978 0.026974 
0.10096 0.071695 0.011026 0.041936 0.062652 0.024837 0.08419 0.022864 
-0.021528 0.080573 0.023357 0.0031344 0.033715 0.014972 0.064132 0.028125 
-0.080223 0.06594 0.022206 -0.0022913 0.046211 0.059693 0.058213 0.028783 
-0.056877 0.049006 0.04506 0.042265 0.086492 0.15061 0.038812 0.0090533 
-0.018075 0.045882 0.05065 0.012013 0.12677 0.16903 0.090438 0.034373 
0.022535 0.056404 0.045553 0.050157 0.11477 0.072681 0.067913 0.039141 
0.093891 0.055911 0.058871 0.046046 0.045718 -0.011827 0.042923 0.027303 
0.20191 0.044896 0.025988 0.039634 -0.014622 -0.046025 0.0056006 0.042758 
0.18004 0.063968 0.036182 0.061501 -0.064933 -0.027447 0.027303 0.018589 
0.020069 0.044402 0.021384 0.025495 -0.069701 -0.025967 0.024837 0.047855 
-0.15996 0.042923 0.033715 0.022206 -0.040435 -0.03057 0.00033937 0.02122 
-0.24809 0.049006 0.032564 0.035688 -0.010841 -0.014458 0.017438 0.0074092 
-0.22803 0.011848 0.029605 1.0539e-005 0.0018191 0.020233 0.041936 0.013492 
-0.35216 -0.023501 0.037332 0.014479 0.0079024 0.016452 0.0065871 0.0093821 
-0.49126 -0.050464 0.0227 0.03092 0.028783 -0.013965 0.0088889 0.0044497 
-0.18841 -0.043559 0.010862 0.012506 0.029769 0.011191 0.063803 -0.0078813 
0.28182 0.022535 0.0062583 0.057555 0.041114 0.020233 0.059364 0.020891 
0.51643 0.09685 0.020398 0.033222 0.051965 0.034209 0.02122 0.060679 
0.44705 0.1077 0.013492 0.033715 0.086985 0.016452 -0.027282 0.061995 
0.32752 0.11017 0.010369 0.047691 0.064132 0.046375 -0.028433 0.07038 
0.23331 0.13976 0.040292 0.029112 0.047033 0.019083 -0.053588 0.05624 
0.19961 0.11559 0.06479 0.026152 0.057391 0.017274 -0.059178 0.062323 
0.12036 0.098494 0.081067 0.027139 0.041607 0.034537 -0.037969 0.037168 
-0.071838 0.067585 0.032236 0.023851 0.040128 0.010369 -0.017417 -0.006566 
-0.16424 0.025659 0.023028 0.059364 0.052952 0.014479 0.024673 -0.0087034 
-0.10423 -0.0052507 0.021713 0.024508 0.070708 0.022371 0.082711 0.0098754 
-0.054082 0.014972 0.036182 0.022535 0.063803 0.043416 0.11378 0.052623 
-0.25319 -0.088115 0.029605 0.079422 0.060186 0.037826 0.059035 0.034373 
-0.72966 -0.1598 -0.0011404 0.0016547 0.037004 0.0060938 0.0056006 -0.026789 
-0.62246 -0.081868 0.042429 0.039799 0.03092 -0.0036066 -0.041915 -0.010348 
-0.066741 0.029112 0.06183 0.030098 0.043251 0.017274 -0.021528 0.021713 
0.37339 0.09833 0.049006 0.053445 0.062652 -0.0026201 -0.010512 0.038977 
0.50789 0.12266 0.046704 0.072846 0.046704 0.046046 -0.018897 0.040785 
0.5023 0.1271 0.0072447 0.028947 0.026317 0.025001 -0.013965 0.039963 
0.30944 0.086985 0.012835 0.02122 0.013328 -0.0070593 0.011191 0.041607 
0.10754 0.052459 0.03651 0.034044 0.0085601 -0.0050863 0.024179 0.01711 
-0.015773 0.057227 0.030592 0.024015 0.016452 0.0083956 0.01974 0.032564 
-0.088937 0.041278 0.038155 0.024179 0.020398 0.020562 0.033715 0.036346 
-0.072167 0.0093821 0.056898 0.021056 0.028125 0.022371 0.043416 0.028947 
-0.069043 0.036182 0.040456 0.014643 0.048348 0.038812 0.022864 0.034537 
-0.018568 0.02122 0.025988 0.056898 0.04506 0.045718 0.034537 0.032236 
0.0059294 0.023686 0.033715 0.017932 0.028125 0.013657 0.029441 0.036346 
0.024179 0.077943 0.020069 0.034702 0.039799 0.0028056 0.025824 0.0085601 
0.026317 0.039634 0.024344 0.049335 0.024508 0.0052718 0.025824 0.031578 
0.016616 0.027961 0.036182 0.030427 0.01974 -0.016266 0.033058 0.054925 
0.044731 0.058213 0.041278 0.015465 0.017932 -0.00081153 0.04506 0.027468 
0.047526 0.048513 0.053281 0.039141 0.018589 0.023686 0.030592 0.03388 
0.044238 0.042758 0.041278 0.014479 0.020727 0.017438 0.01711 0.023357 
0.059857 0.050814 0.019905 0.056733 0.0067515 -0.0044286 0.012506 0.050979 
0.072846 0.056569 0.021384 0.028454 -0.0077169 0.034537 0.040456 0.039963 
0.06035 0.042758 0.030263 0.027468 -0.013636 0.025824 0.034702 0.053445 
0.080902 0.054103 0.031907 0.044238 -0.013143 0.046375 0.031907 0.042758 
0.11806 0.045224 0.049828 0.019083 0.0039565 0.087643 0.029769 0.0060938 
0.17117 0.02829 0.035195 0.010204 -0.0091966 0.083862 0.038977 0.02829 
0.18432 0.046868 0.049499 0.026317 0.011355 0.092082 0.029605 0.020069 
0.20109 0.063803 0.045224 0.02829 0.034866 0.082875 0.028783 0.020069 
0.25683 0.084684 0.023851 0.046211 0.049828 0.042594 0.063639 0.055582 
0.083368 0.083533 0.0069159 0.019247 0.033715 -0.014951 0.066269 0.019905 
-0.19022 0.052952 0.012177 0.00099702 -0.027282 -0.15141 0.028619 -0.012814 
-0.18117 0.062981 -0.0055795 -0.0026201 -0.012485 -0.19186 0.015137 -0.025145 
-0.023829 0.074161 0.0044497 -0.012814 0.06594 -0.18841 0.013164 0.019576 
0.067749 0.072353 0.021549 0.0082312 0.14272 -0.069043 0.015137 0.079258 
-0.0064016 0.0087245 0.056898 0.038319 0.16229 0.12743 0.065612 0.062652 
-0.25532 -0.0040998 0.05065 0.050979 0.14091 0.19237 0.079916 0.063145 
-0.35019 -0.0027845 0.042429 0.057062 0.12365 0.19484 0.052787 0.013657 
-0.17213 0.033551 0.046046 0.049499 0.086328 0.1345 -0.012485 0.020069 
0.11822 0.062488 0.03388 0.036017 0.021384 0.056569 -0.038791 0.060844 
0.35909 0.077943 0.017932 0.029441 -0.0083746 0.041936 -0.051287 0.04358 
0.5702 0.071037 0.021056 0.014479 -0.041751 0.054596 0.015794 0.059693 
0.65273 0.069558 0.015959 0.0042853 -0.055726 0.069886 0.0054362 0.036017 
0.59782 0.096357 0.031249 0.016945 -0.065755 0.0083956 -0.0059084 0.005765 
0.29908 0.068078 0.044073 0.0088889 -0.11048 -0.01939 -0.025145 -0.015773 
-0.094199 0.030427 0.0046141 0.029934 -0.12396 -0.023665 0.017603 -0.047176 
-0.32471 0.064132 0.0047785 0.0074092 -0.090088 -0.05885 0.078272 0.0065871 
-0.35627 0.060515 0.031414 0.019083 -0.020377 -0.057699 0.15949 0.022371 
-0.27259 0.046375 0.046375 0.042265 0.060679 -0.026789 0.16081 0.060844 
-0.11919 0.041936 0.049828 0.031578 0.075476 0.0016547 0.088794 0.093891 
-0.038462 0.025659 0.039634 0.026317 0.084519 -0.016102 0.015137 0.058213 
0.021878 1.0539e-005 0.041278 0.027632 0.11231 0.018918 0.017767 0.05772 
0.08863 0.037661 0.034373 0.018425 0.14026 0.1003 0.11247 0.051636 
0.093891 0.044402 0.016452 0.03651 0.17084 0.11296 0.15357 0.030263 
0.049006 0.011848 0.011191 0.023028 0.21638 0.13779 0.12283 -0.019226 
0.0069159 0.029441 -0.0044286 0.044073 0.20816 0.1932 0.085506 -0.024652 
0.0075736 0.024837 0.028947 0.061995 0.1276 0.15275 0.041443 -0.0016336 
0.00099702 0.031085 0.029441 0.024179 0.044896 0.075476 -0.047834 -0.011663 
-0.031064 0.034044 0.034537 0.013492 -0.097816 0.0070803 -0.23642 -0.02498 
-0.018404 0.021549 0.044567 0.017274 -0.13908 -0.04323 -0.25352 -0.049314 
0.049992 0.016616 0.053774 0.014643 -0.12429 -0.085156 -0.19696 0.0093821 
0.087479 0.047526 0.024508 0.036346 -0.050958 -0.076935 -0.11804 0.12135 
0.13845 0.05772 0.017767 0.037497 0.020727 -0.0078813 -0.077593 0.15752 
0.14289 0.068242 0.020398 0.02533 0.04506 -0.0055795 0.06331 0.14354 
0.12381 0.071366 0.021713 0.061666 0.059035 1.0539e-005 0.16886 0.038648 
0.048841 0.074326 0.013657 0.029769 0.045553 0.03947 0.25025 -0.0078813 
-0.044546 0.042594 0.010533 0.013164 -0.0024557 0.037168 0.33525 -0.011334 
-0.098967 0.017274 0.033222 0.030756 -0.00097594 0.055089 0.31371 0.014479 
-0.13711 0.054432 0.058542 0.0324 0.028125 0.086328 0.13138 0.043909 
-0.20863 0.038812 0.050321 0.066269 0.062817 0.089945 -0.041257 0.045224 
-0.32191 -0.013965 0.024837 0.03388 0.089452 0.075476 -0.15174 0.023028 
-0.27407 -0.014622 0.01826 0.025001 0.076956 0.037332 -0.19729 -0.042408 
0.011848 -0.0052507 0.023851 0.065612 -0.0068948 0.023193 -0.14878 -0.03616 
0.29628 0.0421 0.025824 0.016945 -0.032215 0.0011614 -0.049807 0.032729 
0.47566 0.085506 0.033715 0.026481 -0.008539 -0.0019624 0.055747 0.052952 
0.45083 0.049335 0.043087 0.018589 -0.014951 0.033715 0.096028 0.04506 
0.1613 -0.0068948 0.036017 0.0052718 -0.0036066 0.039141 0.064625 0.017932 
-0.19975 0.0036276 0.027468 0.034866 -0.0067304 0.023193 0.059857 0.028619 
-0.24299 0.029441 0.026974 0.029441 0.0088889 0.007738 0.065447 0.060022 
-0.12856 0.060844 0.029934 0.057062 0.025824 0.00083261 0.010369 0.0041209 
-0.0054151 0.11296 0.044567 0.05624 0.040621 0.013986 0.022864 0.068571 
0.032893 0.085506 0.061172 0.045389 0.050157 0.01267 0.010862 0.061337 
0.026974 0.062817 0.046046 0.042758 0.068407 0.051636 0.037332 0.035688 
0.032564 0.049828 0.046704 0.013328 0.027961 0.027796 0.030263 0.01267 
0.031742 0.033715 0.064296 0.01152 0.012177 0.0041209 0.0044497 0.011848 
0.03947 -0.019719 0.04095 0.048348 0.019576 0.017767 0.0093821 0.0032988 
0.038155 0.023522 0.013821 0.010862 -0.023172 0.015465 0.038977 -0.0088678 
0.015301 0.01826 0.019576 -0.0004827 -0.050958 0.017767 0.028783 -0.012814 
-0.064768 0.010369 0.010533 0.026481 -0.021692 0.0013258 0.013657 -0.013143 
-0.050136 0.02681 0.021713 0.013328 -0.0077169 0.0037921 0.027961 0.026152 
0.050486 0.047526 0.023522 0.021384 0.011191 -0.034516 0.030756 0.066927 
0.055911 0.057227 0.042758 0.035031 0.0019835 -0.044052 0.01415 0.073997 
-0.064604 0.078107 0.057391 0.028454 0.0056006 -0.035996 0.011191 0.066763 
-0.20189 0.079422 0.058706 0.04917 0.014972 -0.0088678 0.049664 0.0592 
-0.11607 0.037826 0.026481 0.03799 0.012506 -0.0090322 0.0689 -0.03057 
0.05624 0.019247 0.016616 0.02122 0.01711 0.03536 0.036675 0.005765 
-0.0055795 -0.016102 0.0062583 0.0054362 0.012835 0.0026412 0.037661 -0.021034 
-0.20781 -0.052931 0.013164 0.011848 0.031742 0.0011614 0.039634 0.0098754 
-0.121 -0.023501 0.0085601 0.032236 0.017274 0.010204 0.045553 0.054596 
0.24285 0.038319 0.031085 0.042594 0.051636 0.035524 0.045389 0.037332 
0.40184 0.051801 0.059693 0.037661 0.078929 0.024673 0.044731 0.020727 
0.32621 0.09833 0.05624 0.050157 0.047197 0.009711 0.050321 0.0018191 
0.27935 0.12924 0.023851 0.01267 0.0092177 0.03388 0.055254 0.02829 
0.23759 0.087972 0.021549 0.028783 0.026646 -0.011663 0.035524 0.0227 
0.081231 0.060844 0.033387 0.037004 0.032236 -0.013471 0.022535 0.011191 
-0.17476 0.049992 0.024179 0.019083 0.010697 -0.009361 0.040785 0.014808 
-0.38998 0.0421 0.039141 0.031414 0.012506 -0.0027845 0.021713 -0.0055795 
-0.2254 0.045224 0.021549 0.02533 0.014808 0.010204 0.00297 -0.0091966 
-0.019226 0.056404 0.03388 0.0098754 0.025166 0.028783 0.025166 0.028454 
0.10852 0.039305 0.061501 0.041936 0.026317 0.036675 0.0095465 0.056076 
0.12316 0.0421 0.044073 0.027632 0.01826 0.0011614 0.0093821 0.054925 
0.072517 0.045553 0.082382 0.013164 -0.059178 -0.024816 -0.011992 -0.015609 
0.071037 0.046704 0.028454 0.045224 -0.095843 -0.010019 0.0056006 0.0083956 
0.10935 0.032729 0.03799 0.042429 -0.038133 -0.004593 -0.010512 0.053609 
0.095206 0.061337 0.035195 0.029441 0.020562 0.03536 -0.0029489 0.037332 
0.082053 0.035853 0.047362 0.062652 0.068078 0.091425 -0.0016336 0.02681 
0.068078 0.049499 0.051308 0.023193 0.067749 0.068736 0.044567 0.01152 
0.073668 0.074654 0.055418 0.042758 0.088465 0.042265 0.076134 0.10096 
0.076956 0.051143 0.027961 0.016123 0.10162 0.035524 0.08567 0.076134 
0.099974 0.0421 0.015794 -0.0047575 0.13286 0.064954 0.10474 0.095371 
0.041114 0.031907 0.01152 0.0083956 0.17643 0.12776 0.059528 0.020727 
-0.011992 0.028619 0.036675 0.026481 0.19895 0.16738 0.067256 0.021384 
-0.051615 0.035853 0.018589 0.03092 0.23364 0.11066 0.098001 0.022535 
-0.043066 0.057555 0.065447 0.040128 0.19287 0.041114 0.099645 0.004943 
0.14453 0.082546 0.065612 0.035195 0.1003 0.0011614 -0.051287 0.018918 
0.1835 0.066763 0.065447 0.054925 0.013164 -0.016431 -0.1478 0.026646 
0.044731 0.061172 0.03651 0.031414 -0.072167 -0.02646 -0.17262 -0.014787 
-0.061151 0.068078 0.030263 0.026317 -0.091897 -0.01939 -0.0868 0.016452 
0.035524 0.12431 0.025988 0.052623 -0.080223 0.021713 -0.0032777 0.03651 
0.22131 0.071859 0.025495 0.01415 -0.074633 0.072188 0.061666 0.058871 
0.11247 0.012835 0.023193 -0.019884 -0.084169 -0.0014692 0.06742 0.0592 
-0.32257 -0.054575 0.022864 0.035031 -0.03616 -0.028926 0.06479 0.043251 
-0.2573 -0.026953 0.052623 0.044731 0.034702 0.071695 0.055911 0.048348 
0.25567 0.049006 0.059857 0.037497 0.079587 0.10787 0.048348 0.059364 
0.46514 0.086492 0.042265 0.018096 0.084848 0.088794 0.074654 0.064132 
0.28954 0.078765 0.0075736 0.012506 0.11855 0.070873 0.13532 0.021384 
0.088301 0.085835 0.021549 0.063474 0.14338 0.071202 0.08978 0.023028 
0.009711 0.053445 0.020727 0.013821 0.11362 -0.01676 0.015959 0.034044 
0.02122 0.021549 0.017767 0.025824 0.042758 -0.034681 -0.0016336 0.0083956 
0.017932 0.041936 0.023193 0.033387 0.013657 0.0047785 -0.031557 0.022535 
-0.029748 0.019247 0.050979 0.019083 0.0023123 0.024508 -0.023172 0.022864 
-0.060165 0.032564 0.05476 0.055254 -0.00064712 0.040456 -0.0054151 0.025001 
-0.050136 0.041936 0.053281 0.040128 0.010204 0.072517 0.027632 0.042594 
-0.03353 0.010369 0.031085 0.015794 0.018096 0.035031 0.020398 0.038977 
-0.15668 -0.0034422 0.027632 0.05213 0.021384 0.02829 0.025824 0.044238 
-0.11212 0.035195 0.013492 0.026317 0.032236 0.020398 -0.0068948 0.051636 
0.090603 0.051801 0.026481 0.0054362 0.03651 0.035031 0.036839 0.052294 
0.21441 0.073504 0.032236 0.027139 0.045718 0.022206 0.04358 0.073504 
0.23463 0.094548 0.034866 0.020562 0.017932 0.028783 0.04358 0.041278 
0.25419 0.080244 0.045553 0.033387 0.0054362 0.040621 0.05213 0.039305 
0.24433 0.059693 0.031578 0.01711 0.0011614 0.014315 0.035524 0.032071 
0.19303 0.070215 0.019411 0.026152 -0.015609 -0.027611 0.029769 0.034209 
0.13943 0.03651 0.0087245 0.053774 -0.055726 -0.037805 0.023357 0.045882 
-0.044052 0.0070803 0.0095465 0.041114 -0.061645 -0.092061 0.050321 0.023851 
-0.33441 -0.027775 0.0093821 0.031578 -0.12593 -0.093541 0.040456 -0.013965 
-0.57116 -0.069701 0.010533 0.032564 -0.16703 -0.04882 0.027961 -0.02646 
-0.67688 -0.079072 0.022535 0.010697 -0.13892 -0.034845 -0.0083746 -0.024158 
-0.60487 -0.067728 0.042923 0.020562 -0.038462 -0.01117 -0.026131 0.010697 
-0.30514 -0.017088 0.047197 0.016945 0.038483 0.039634 -0.019555 0.043251 
0.12135 0.034702 0.040128 0.036346 0.065447 0.097508 0.076463 0.049828 
0.45527 0.081395 0.027468 0.028783 0.054103 0.03651 0.12792 0.032893 
0.60834 0.11674 0.020233 -0.00015387 0.12546 0.021549 0.17889 0.023686 
0.56198 0.1031 -0.010348 0.0067515 0.27984 0.10211 0.094548 0.048841 
0.44475 0.11132 0.021056 0.045882 0.35366 0.22723 0.029934 0.037332 
0.23512 0.12628 0.053609 0.049335 0.33065 0.20388 -0.042737 0.08304 
0.056076 0.10754 0.062488 0.068407 0.17577 0.11674 -0.10719 0.029441 
-0.07003 0.093562 0.061337 0.043909 -0.050464 -0.014951 -0.021034 0.061666 
-0.14517 0.039141 0.012506 0.025988 -0.20945 -0.10472 0.1345 0.035031 
-0.2374 0.019411 -0.0032777 0.032893 -0.2693 -0.14615 0.15505 0.055254 
-0.24283 -0.0064016 0.0070803 1.0539e-005 -0.24661 -0.15092 -0.1011 0.032564 
-0.15059 0.03799 0.0047785 -0.0042642 -0.14763 -0.11064 -0.16457 0.024344 
-0.077922 0.01152 0.016123 0.026152 -0.082854 -0.089266 -0.05441 0.03388 
-0.045039 0.017767 0.037661 0.026646 -0.0082102 -0.031064 0.034537 0.019905 
-0.00031829 0.038155 0.053445 0.032236 0.036182 0.027468 0.005765 0.0324 
0.068078 0.054432 0.061995 0.028619 0.069558 0.074983 -0.091239 -0.0072237 
0.15242 0.073175 0.033058 0.029276 0.076134 0.11198 -0.10341 0.0023123 
0.18711 0.093891 0.044238 0.062817 0.069886 0.097015 0.0074092 0.045553 
