0.042923 0.04506 0.10803 0.0074092 0.064625 -0.060823 -0.010183 0.08978 
-0.061973 0.0689 0.062323 0.022042 0.047526 0.00050378 -0.012649 0.070051 
-0.14599 0.08978 0.025988 0.020233 0.056076 0.004943 -0.07825 -0.19761 
-0.18956 0.079587 0.025659 0.034209 0.04506 -0.014951 -0.11903 -0.31698 
-0.18512 0.053609 0.022864 0.022206 0.047362 0.033551 -0.056383 -0.096336 
-0.29593 0.0014903 0.017932 0.034537 0.0079024 -0.018897 -0.030406 -0.021856 
-0.41612 0.015465 -0.0022913 0.015465 0.027961 -0.020706 -0.014293 -0.0062372 
-0.33293 -0.018733 0.019247 0.030756 0.044073 0.0052718 0.023193 0.052623 
-0.036983 -0.0095255 0.048841 0.072024 0.020891 0.012835 0.028619 0.1105 
0.22953 0.051965 0.073997 0.018096 -0.0138 0.021878 0.092904 0.29398 
0.29628 0.053445 0.027796 0.023851 -0.1039 0.0072447 0.10113 0.36287 
0.26981 0.051801 0.032893 0.05065 -0.096665 0.022535 0.13878 0.21605 
0.21687 0.087972 0.049992 0.043251 -0.047341 0.020562 0.20487 0.046046 
0.15653 0.082711 0.050979 0.040456 -0.041422 0.059857 0.25781 -0.026789 
0.083533 0.047691 0.029441 0.0047785 -0.029748 0.052623 0.18235 -0.065919 
0.043909 0.053609 0.0227 -0.0049219 -0.031228 0.0062583 0.036346 -0.12462 
-0.026624 0.0024767 0.029441 0.03651 -0.012485 -0.05885 -0.12462 -0.27242 
-0.1279 -0.014129 0.049335 0.010697 -0.0075525 -0.096994 -0.18545 -0.27933 
-0.19992 0.019411 0.027796 0.00066819 0.013657 -0.071345 -0.15207 -0.15421 
-0.16999 0.021713 0.011355 0.04095 0.018096 -0.059507 -0.07825 0.015465 
-0.06444 0.034537 0.027961 0.03651 0.030592 -0.039778 -0.0016336 0.19287 
-0.046847 0.068078 0.034044 0.059528 0.036346 0.020233 0.049335 0.18547 
-0.027118 0.033387 0.033551 -0.0052507 0.023851 0.06742 0.078107 0.13203 
0.064461 0.040292 0.015794 0.00017495 -0.023829 0.058377 0.071366 0.069558 
0.14289 0.08008 0.043087 0.022535 -0.034516 0.071202 0.05065 0.048184 
0.1179 0.086163 0.081724 0.009711 0.00066819 0.063145 0.12135 0.098494 
0.085835 0.08304 0.095371 0.040128 0.024015 0.045882 0.16673 0.091589 
0.020398 0.0592 0.022206 0.037661 0.030592 -0.017417 0.0689 0.03092 
-0.013965 -0.010348 -0.035338 0.010697 0.0047785 -0.073318 -0.045203 0.030592 
-0.013307 -0.013307 -0.030899 0.016781 0.025824 -0.015938 0.00297 0.065283 
0.037497 0.035688 0.0039565 0.010369 -0.003771 0.016452 0.099316 0.081724 
0.021384 0.041443 0.034209 0.019083 -0.017582 0.014643 0.060679 0.038648 
-0.029748 0.042758 0.062981 0.081231 0.026974 -0.0049219 -0.031064 0.016452 
0.00066819 0.062488 0.076627 0.082053 0.025166 0.0227 -0.077264 -0.0004827 
0.065612 0.06742 0.069393 0.047197 0.0227 0.062488 -0.042901 -0.037969 
0.08863 0.054267 0.04917 0.01004 0.018754 0.057062 0.020069 -0.037476 
0.069558 0.062323 0.0083956 -0.0036066 0.034702 0.021384 0.053609 -0.020377 
0.07597 0.05213 0.0032988 0.04358 0.032236 -0.017417 0.040128 0.018096 
0.10556 0.051472 0.017274 0.029934 0.024344 -0.097816 0.036346 0.048841 
0.14354 0.090931 0.033222 0.011191 0.048019 0.013821 0.0075736 0.071695 
0.18859 0.070051 0.053609 0.076463 0.021713 0.077449 0.10178 0.053774 
0.15522 0.038155 0.020562 0.043909 -0.036983 0.096686 0.27096 0.030756 
0.14321 0.036839 0.045718 0.040456 -0.054739 -0.018404 0.31125 0.045224 
0.023028 0.026481 0.050486 0.018096 -0.0055795 -0.025802 0.17166 0.073504 
-0.0082102 0.013492 0.02681 0.01563 0.050979 0.045389 -0.068386 0.031249 
-0.037805 0.037332 -0.0073881 0.045718 0.059364 0.083204 -0.267 0.028783 
0.01267 0.04654 0.010204 0.0062583 0.12069 0.13532 -0.35414 0.069393 
0.056404 0.053116 0.017767 0.034537 0.17495 0.1858 -0.35792 0.08419 
0.080409 0.065776 0.054432 0.048348 0.15818 0.15292 -0.38258 0.042923 
0.045882 0.053609 0.027139 0.0065871 0.10704 0.037826 -0.12198 -0.019226 
0.022206 0.016945 0.021384 0.020891 0.025495 -0.065591 0.22789 0.020727 
0.028783 0.0069159 0.04358 -0.018075 -0.0040998 -0.071838 0.4071 0.056898 
0.041114 0.031742 0.044402 -0.0054151 0.041443 -0.053588 0.41203 0.075476 
0.072188 0.054596 0.033387 0.042923 0.069722 0.030263 0.34791 0.056404 
0.076299 0.08304 0.045718 0.059528 0.14239 0.12677 0.2782 0.012177 
0.078272 0.099481 0.050814 0.08715 0.19057 0.21358 0.18465 -0.045696 
0.06479 0.07301 0.047362 0.079422 0.12053 0.15193 -0.035832 -0.07973 
-0.011992 0.028947 0.0039565 0.024673 0.04095 0.034044 -0.20485 0.027961 
-0.00064712 0.020233 0.0037921 0.02533 -0.032215 -0.037805 -0.13859 0.26998 
0.04095 0.043416 0.049006 0.011191 -0.12215 -0.012485 0.0075736 0.27047 
0.02681 0.069886 0.073997 0.025166 -0.17936 0.0013258 0.020398 0.0421 
-0.039284 0.053774 0.07597 0.036675 -0.10554 -0.055068 -0.076606 -0.26601 
-0.069536 0.030098 0.053445 0.01152 0.025824 -0.07003 -0.13875 -0.34082 
0.0046141 0.028783 0.02122 0.025166 0.15127 0.059364 -0.094034 -0.078744 
0.10392 0.042594 1.0539e-005 0.026646 0.20898 0.11296 -0.055068 0.24055 
0.11231 0.031414 -0.0022913 0.047691 0.14124 0.026317 -0.011992 0.35958 
0.063968 0.045882 0.034866 0.065612 0.082382 -0.00015387 0.024179 0.22394 
0.0032988 0.062981 0.030592 0.020891 0.042923 0.031578 0.064625 0.066105 
-0.020212 0.042265 0.038483 0.021384 0.056404 0.016945 0.046868 -0.030242 
-0.02235 0.040292 0.046704 -0.001798 0.11428 0.052952 0.054432 -0.11804 
0.0028056 0.044896 0.046375 0.011191 0.15144 0.064954 0.084684 -0.083676 
0.020562 0.031085 0.022206 0.0592 0.16656 0.015137 0.22592 -0.015116 
0.04358 0.023357 0.0227 0.0227 0.089287 -0.011992 0.28165 0.094713 
0.089452 0.065118 0.027303 0.0075736 -0.048327 0.0026412 0.18152 0.13187 
0.094055 0.033715 0.013164 0.02681 -0.1524 -0.02942 0.016288 0.069229 
0.092576 0.033058 0.00297 0.022535 -0.1815 -0.011827 -0.078086 -0.014129 
0.022206 0.042265 0.028947 0.053281 -0.072332 0.066105 -0.12478 -0.11228 
-0.0049219 0.049828 0.062652 0.059528 0.097344 0.080244 -0.19498 -0.08828 
0.01974 0.051965 0.068242 0.053445 0.25288 0.091425 -0.303 -0.013471 
0.078272 0.061995 0.02681 0.11214 0.30204 0.12069 -0.27407 -0.048656 
0.094384 0.039799 0.0098754 -0.0039354 0.23446 0.2024 -0.071345 -0.014129 
0.10951 0.011026 -0.044052 -0.013143 0.10589 0.12135 0.13762 0.15357 
0.082875 0.023193 0.00297 0.0044497 0.061501 0.012835 0.19583 0.22263 
-0.24875 -0.023007 0.019411 -0.027282 0.041936 0.051801 0.18909 0.1054 
-0.41678 0.012013 0.031578 0.040292 0.0090533 -0.043395 0.14749 -0.046519 
-0.21208 0.079587 0.039305 0.034866 -0.050629 -0.10949 0.13664 -0.044546 
-0.00097594 0.089123 0.06742 0.0023123 -0.1187 -0.14336 0.068242 -0.018733 
0.096357 0.067749 0.059364 0.038155 -0.15355 -0.13514 -0.043559 -0.032708 
0.14848 0.056404 0.039305 0.014972 -0.15405 -0.14023 -0.052602 -0.09239 
0.20997 0.035031 0.026974 0.032893 -0.12955 -0.098144 -0.0042642 -0.091732 
0.21589 0.0051074 -0.0019624 0.032729 -0.068879 -0.082525 0.038812 -0.0072237 
0.10178 0.04506 0.035853 0.024344 -0.014951 -0.10028 0.066434 0.10145 
0.017274 0.038977 0.01415 0.047691 0.015794 -0.068714 0.12184 0.22986 
-0.014951 0.023686 0.027961 0.027139 0.046046 0.10852 0.14617 0.22641 
0.058049 0.057062 0.047362 0.0421 0.049992 0.18761 0.058377 0.15078 
0.10655 0.033222 0.045224 0.022864 0.082053 0.19681 0.07301 0.17807 
0.1373 0.048019 0.040128 0.031249 0.11099 0.22065 0.1276 0.17824 
0.12398 0.067913 0.0036276 0.047033 0.11083 0.15423 0.082546 0.062488 
0.065283 0.029112 -0.014951 0.041114 0.056569 0.076792 -0.092883 -0.085978 
0.015137 -0.003771 0.0056006 0.030098 0.0090533 -0.011005 -0.24661 -0.21323 
-0.10012 0.038155 0.03651 0.061501 -0.036818 -0.081539 -0.26913 -0.24365 
-0.32652 0.06742 0.033387 0.026481 -0.076606 -0.11278 -0.18035 -0.14385 
-0.43651 0.059857 0.038483 -0.0050863 -0.07266 -0.073811 -0.062631 -0.086142 
-0.3737 0.046704 0.049828 0.012013 -0.035667 -0.029584 0.059364 -0.036818 
-0.16128 0.018754 0.050814 0.03092 0.0075736 0.0021479 0.15966 0.10063 
0.04358 0.031578 0.047855 0.073832 0.023193 0.03947 0.24318 0.20175 
0.1562 0.072846 0.024179 0.052952 -0.013143 0.019576 0.19188 0.15966 
0.25748 0.049006 0.024837 0.037004 -0.015116 -0.045368 0.16196 0.10145 
0.4653 0.050486 0.034209 0.054925 -0.006566 -0.029091 0.12858 0.07597 
0.66885 0.083204 0.036839 0.020891 -0.035174 0.0019835 0.12842 0.060515 
0.66835 0.051472 0.0062583 0.021056 -0.042901 -0.0072237 0.079916 0.0592 
0.38129 0.047855 0.02681 -0.02646 -0.061316 -0.096007 -0.021856 -0.027775 
0.046211 0.046375 0.049006 -0.010841 -0.071345 -0.087786 -0.091732 -0.080388 
-0.13152 0.037168 0.060022 0.060679 -0.038791 0.0060938 -0.098967 -0.097158 
-0.19942 0.03388 0.030427 0.049499 0.026152 0.10162 -0.017911 -0.10949 
-0.45574 0.054432 0.02681 0.048019 0.033387 0.12151 0.016452 -0.012978 
-0.78161 -0.0054151 0.0098754 0.064625 0.04654 0.13483 0.053774 0.092576 
-0.6657 -0.0019624 0.013492 0.034866 0.055254 0.1271 0.069886 0.13417 
-0.16457 0.0324 0.014479 0.046704 0.016288 0.098823 0.11017 0.10967 
0.23529 0.038648 0.014315 -0.013965 -0.079237 0.092082 0.15374 0.041278 
0.34807 0.046211 0.0227 0.0064227 -0.095514 0.015137 0.094055 -0.014129 
0.3216 0.087643 0.050321 0.038319 -0.053588 -0.036983 -0.023007 0.047362 
0.25074 0.094055 0.052623 0.047033 0.013492 -0.045039 -0.07266 0.14798 
0.2006 0.085999 0.023357 0.047691 0.04358 -0.07003 -0.10521 0.1299 
0.15045 0.074654 0.012342 0.020233 0.03947 -0.025474 -0.055726 0.029934 
0.11346 0.068736 0.022864 0.0227 0.074161 -0.0095255 0.078107 -0.0064016 
0.1128 0.040292 0.01826 0.021056 0.11099 0.052952 0.16952 -0.001798 
0.17018 0.090767 0.027303 0.055089 0.13615 0.13927 0.22213 -0.044546 
0.23216 0.077285 0.029441 0.043087 0.14585 0.21506 0.16689 -0.12741 
0.16064 0.032893 0.043251 0.024673 0.11461 0.20306 0.075312 -0.18167 
0.038812 0.00099702 0.071531 0.0052718 0.097508 0.1248 0.070873 -0.041751 
-0.049478 -0.024323 0.0070803 1.0539e-005 0.083697 0.043909 0.017767 0.017932 
-0.10242 -0.051615 -0.0029489 -0.034188 0.02681 -0.017088 -0.08828 -0.065097 
-0.096665 -0.044546 -0.0075525 -0.042408 -0.03912 -0.11968 -0.19367 -0.041257 
-0.20288 -0.030077 -0.0044286 0.034537 -0.053917 -0.093705 -0.14122 0.10852 
-0.53105 -0.020377 0.013657 0.025659 -0.028597 -0.020048 -0.062302 0.17988 
-0.43125 0.027468 0.017274 0.051965 0.021549 0.046211 0.056404 0.19583 
-0.00064712 0.09126 0.042923 0.062323 0.06479 0.11444 0.19501 0.20208 
0.23858 0.10162 0.064954 0.049006 0.099481 0.16294 0.20586 0.16294 
0.22131 0.10754 0.05772 0.046046 0.062323 0.056404 0.08863 0.064954 
0.23414 0.13631 0.035031 0.0039565 0.047855 0.0080668 0.017438 -0.0088678 
0.39247 0.15522 0.062817 0.0060938 0.066434 0.015301 0.031249 0.028619 
0.46991 0.11461 0.038155 0.028783 0.054432 0.010533 0.096028 0.057227 
0.31897 0.068571 0.019576 -0.00031829 0.040292 0.0014903 0.086985 0.061995 
0.14124 0.01415 0.021878 0.02122 0.031742 0.035195 -0.015609 -0.031064 
-0.012978 0.020562 0.021384 1.0539e-005 0.071531 0.039634 -0.036489 -0.1741 
-0.10176 0.041278 0.052623 0.032564 0.11855 0.0074092 -0.0096899 -0.24431 
-0.17377 0.01267 0.074161 0.057391 0.1179 0.015959 0.041443 -0.083018 
-0.26075 -0.0036066 0.047362 0.028783 0.12562 0.011191 0.055747 0.053445 
-0.46265 -0.0024557 0.015465 0.032729 0.12694 -0.0036066 0.046375 0.077943 
-0.60076 -0.051615 0.0028056 0.025495 0.08156 0.019083 -0.00015387 0.071366 
-0.38538 -0.016924 0.0092177 0.016945 0.041936 0.039799 -0.14467 0.055418 
0.053281 0.072188 0.045882 0.058871 0.040785 0.058049 -0.19778 0.15357 
0.35794 0.11592 0.069722 0.058049 0.074983 0.080573 -0.1182 0.34495 
0.37866 0.10918 0.063803 0.049664 0.04506 0.074161 0.070873 0.43275 
0.31947 0.094877 0.065447 0.047691 0.019247 0.062981 0.19221 0.49375 
0.30483 0.070708 0.045718 -0.0060728 0.0052718 0.069064 0.23118 0.32719 
0.33032 0.059857 0.016616 -0.021363 -0.031557 0.059693 0.21474 0.043416 
0.28905 0.041114 -0.0011404 -0.024158 -0.05589 0.054925 0.17971 -0.16029 
0.16821 0.00066819 -0.0060728 -0.038956 -0.038462 -0.042737 0.11773 -0.22392 
0.095206 0.080573 0.013492 0.027303 -0.057534 -0.060658 0.051472 -0.16407 
-0.08269 0.083204 0.023193 -0.0070593 -0.00064712 0.014643 -0.051944 -0.24727 
-0.3765 0.029934 0.037332 -0.015116 0.027961 0.017932 -0.21998 -0.57642 
-0.45114 -0.033365 0.031085 0.040621 0.045224 -0.084663 -0.28196 -0.57478 
-0.26996 0.013328 0.058706 0.05213 0.03799 -0.13645 -0.20501 -0.21866 
-0.080388 0.067585 0.071695 0.10589 0.016123 0.01152 -0.051615 -0.060494 
0.09274 0.10852 0.069229 0.082382 0.037332 0.1733 0.052459 0.10491 
0.21424 0.11839 0.067091 0.06331 0.065776 0.22855 0.066598 0.40874 
0.26439 0.085999 0.048348 0.091425 0.095206 0.18415 0.068407 0.53551 
0.22164 0.065118 0.029441 0.018589 0.041114 -0.026624 0.019905 0.47287 
0.16327 0.069064 0.013986 0.0019835 -0.014787 -0.14073 0.022371 0.34117 
0.15834 0.028619 0.01711 -0.01117 -0.086964 -0.18183 0.082875 0.21062 
0.22559 0.032729 0.055254 0.013986 -0.05441 -0.15174 0.13286 0.078107 
0.2611 0.070051 0.0592 0.07038 0.017274 -0.05178 0.071202 -0.042573 
0.232 0.042594 0.034866 0.038648 0.047855 -0.0029489 0.048019 -0.13547 
0.020727 -0.01117 0.0227 0.015465 0.025659 -0.040435 -0.0039354 -0.13908 
-0.27768 -0.0040998 -0.013143 0.0324 0.07301 0.031578 -0.050464 -0.10784 
-0.45476 -0.036818 0.019905 0.033387 0.07301 0.10984 -0.030242 -0.11409 
-0.34542 -0.033201 0.017438 0.039634 0.047033 0.096193 -0.0013048 -0.063453 
0.046375 0.053116 0.037168 0.031742 0.055911 0.10293 0.054925 0.0592 
0.35745 0.13023 0.082382 0.041607 0.062159 0.16114 0.14042 0.17396 
0.48618 0.16097 0.11839 0.11428 0.12069 0.17807 0.065776 0.069064 
0.41565 0.16755 0.096028 0.063145 0.0786 0.073997 -0.045696 -0.075291 
0.25419 0.098494 -0.00015387 0.0062583 -0.035338 -0.03501 -0.014622 -0.074304 
0.11658 0.031414 -0.0080457 -0.019061 -0.13481 -0.13744 -0.052931 -0.015116 
-0.017582 0.009711 -0.0082102 -0.045861 -0.13415 -0.19729 -0.082032 -0.0031133 
-0.3663 -0.055561 0.0082312 0.025824 -0.071838 -0.18167 -0.016431 -0.056219 
-0.53006 -0.058685 0.026974 0.043745 -0.037147 -0.078908 0.057062 -0.04323 
-0.31977 -0.039613 0.01974 0.025001 -0.033201 -0.018568 0.039963 -0.071345 
-0.067399 -0.069701 0.020233 0.024508 -0.016266 0.065118 -0.10489 -0.17558 
0.079916 -0.033859 0.034866 0.013164 0.042758 0.13302 -0.10604 -0.11393 
0.18218 0.066763 0.041772 0.031414 0.090931 0.17149 0.0421 0.076299 
0.21046 0.093562 0.035853 0.046046 0.11806 0.1151 0.2001 0.25436 
0.1835 0.11263 0.047362 0.052459 0.091096 0.034373 0.1761 0.2292 
0.12842 0.12069 0.045224 0.057555 0.057884 0.031578 0.12579 0.047033 
0.078272 0.065776 0.021713 0.022864 0.046868 0.012506 0.071859 0.10178 
0.054925 0.03799 0.015301 0.019083 0.025659 0.017274 0.023686 0.10935 
0.045389 0.062323 0.032071 0.019411 -0.022021 0.0021479 0.035524 -0.029255 
0.033387 0.049664 0.063145 0.018096 -0.032543 -0.045532 0.077449 0.023851 
0.048019 0.03651 0.07038 0.048019 -0.02235 -0.090581 0.054267 0.14979 
0.061666 0.037168 0.023686 0.018918 -0.0011404 -0.075291 0.081889 0.16903 
-0.0077169 0.014643 0.0098754 0.012835 0.024673 0.0095465 0.0227 -0.069372 
-0.048492 0.014479 -0.027282 0.06742 0.014479 0.11428 -0.087622 -0.43289 
-0.05737 0.040128 0.011848 0.019083 0.046704 0.13023 -0.038462 -0.29791 
-0.08828 0.038977 0.038483 0.039634 0.05065 0.093069 0.059857 0.18317 
-0.068221 0.039963 0.020233 0.0072447 0.018754 -0.001798 0.060679 0.42502 
-0.10406 0.030263 0.032893 0.0037921 0.0047785 -0.069701 0.028125 0.30862 
-0.1353 0.062981 0.056076 0.032564 0.0037921 -0.056548 -0.0026201 0.12579 
-0.12609 0.059035 0.062488 0.02122 0.034373 -0.0016336 0.040292 0.0227 
-0.091075 0.059693 0.031907 0.037826 0.0039565 0.039141 0.071202 -0.030242 
-0.0091966 0.021384 0.026317 0.053116 0.03092 0.099974 0.072188 -0.042737 
0.064625 0.015959 -0.012649 0.034702 0.03092 0.091753 0.070544 -0.044546 
0.1419 0.032236 0.010697 0.044238 0.013492 0.025659 0.042429 0.0082312 
0.22476 0.013328 0.022206 0.015137 -0.025638 -0.025967 -0.01939 0.015794 
0.25206 0.0082312 0.011684 0.011355 -0.024158 -0.023172 -0.074304 -0.082361 
0.21342 0.032893 0.031578 0.041936 0.0059294 0.0069159 -0.045861 -0.067235 
0.10655 0.046375 0.052294 0.019083 0.03799 0.049006 0.043909 0.0227 
0.020891 0.075148 0.027139 0.02829 0.026646 0.051965 0.072353 0.12743 
-0.011992 0.094384 0.029441 0.039799 0.069558 0.10507 0.12217 0.14026 
0.020233 0.086492 0.031249 0.030263 0.093726 0.1613 0.15587 0.10556 
0.026317 0.06594 0.017603 0.069558 0.048348 0.15176 0.13121 0.082382 
0.0046141 0.07449 0.025659 0.03651 0.03092 0.062323 0.043087 0.036675 
0.0041209 0.065118 0.037332 0.026646 0.0093821 -0.082525 -0.079895 0.0018191 
0.045718 0.026974 0.033058 0.037332 0.0062583 -0.10209 -0.10258 -0.048985 
0.073668 0.024179 0.031742 0.0047785 0.012506 -0.056055 -0.040764 -0.10045 
0.055089 0.044238 0.054925 0.025001 0.022206 0.029112 0.0592 -0.08121 
0.013164 0.027961 0.041936 0.036017 0.036182 0.10869 0.088465 0.013328 
-0.10275 0.0093821 0.020233 0.012342 -0.02498 0.060679 0.094877 0.074819 
-0.11919 -0.00097594 0.0021479 0.031907 0.0059294 0.057227 0.10096 0.081889 
-0.089924 -0.0021268 0.014479 0.0014903 0.062323 0.073175 0.063639 0.057391 
-0.010348 0.0069159 0.025988 -0.0040998 0.1077 0.12316 0.08008 0.10129 
0.085341 0.065776 0.041278 0.032071 0.14354 0.13532 0.055582 0.13828 
0.2024 0.091589 0.056898 0.059693 0.18514 0.09126 0.095042 0.15538 
0.29053 0.098166 0.089616 0.10178 0.17182 0.15916 0.20158 0.1733 
0.32736 0.11872 0.078272 0.074326 0.12792 0.20767 0.3124 0.086821 
0.29776 0.084848 0.027468 0.0592 0.080409 0.15094 0.19846 -0.038462 
0.15916 0.027961 -0.0019624 0.05624 0.047033 0.058049 -0.087622 -0.17739 
-0.04882 -0.011498 -0.040106 -0.0021268 0.03651 -0.06148 -0.32273 -0.26338 
-0.26552 -0.037476 -0.041915 -0.018733 0.049828 -0.13168 -0.37584 -0.182 
-0.37189 -0.032708 -0.0013048 -0.024158 0.012835 -0.15569 -0.31616 -0.070687 
-0.24036 0.030263 0.04358 -0.027282 -0.083347 -0.19844 -0.20567 0.013657 
-0.019719 0.045553 0.047526 0.041936 -0.12018 -0.19219 -0.069043 0.076134 
0.24926 0.095371 0.086985 0.061172 -0.051287 -0.061809 0.043745 0.21819 
0.42584 0.12266 0.082382 0.079422 0.021384 0.063968 0.12562 0.24367 
0.38342 0.083697 0.031907 0.03651 0.0085601 0.11395 0.19205 0.16738 
0.25091 0.079916 -0.0036066 -0.034681 -0.0068948 0.088465 0.25765 0.14667 
0.12036 0.087479 0.016123 0.0075736 0.031742 0.12628 0.29678 0.058871 
-0.016595 0.079916 0.025166 0.0075736 0.019576 0.13779 0.34413 -0.023665 
-0.13695 0.022042 0.030592 -0.0070593 0.029112 0.13878 0.27557 -0.053095 
-0.33523 -0.0067304 0.031249 0.04506 0.054432 0.054267 0.043909 -0.062302 
-0.61769 -0.040106 0.050979 0.033551 0.056569 -0.023665 -0.15536 -0.066084 
-0.66997 -0.058685 0.042923 0.041443 0.062981 -0.048327 -0.17821 -0.0021268 
-0.29889 -0.017417 0.015959 0.025001 0.068242 -0.0013048 -0.10587 0.060515 
0.17297 0.0021479 0.019083 0.0079024 0.10606 0.030098 -0.079895 0.12184 
0.41992 0.066434 0.025824 0.052623 0.089452 0.0024767 -0.063946 0.09422 
0.48141 0.12661 0.027468 0.057391 0.072353 -0.0013048 -0.0503 0.068242 
0.37767 0.12612 0.035853 0.027303 0.020398 0.020727 -0.026624 -0.008539 
0.19912 0.099645 0.025166 0.037497 0.025988 -0.0026201 -0.0082102 -0.0047575 
0.070544 0.086821 0.049335 0.022042 0.00050378 -0.028269 -0.009361 -0.016102 
-0.086307 0.055254 0.059693 0.016616 -0.025145 -0.045203 0.033387 0.0016547 
-0.23724 0.0083956 0.0014903 0.0064227 -0.048985 -0.12083 0.0032988 0.017767 
-0.13267 0.027139 0.00050378 -0.017253 -0.069865 -0.14665 -0.011334 0.027303 
0.046046 0.048348 0.032236 0.039305 -0.044874 -0.034845 0.028619 0.059528 
0.10359 0.06183 0.035524 0.02681 -0.0073881 0.048184 0.13105 0.082711 
0.028125 0.03651 0.036675 0.02829 0.015137 0.091918 0.10869 0.08978 
-0.035174 0.022042 0.033222 0.042265 -0.0052507 0.078929 0.064954 0.095864 
-0.05737 0.018754 0.018589 0.0090533 0.0026412 0.035524 0.026646 0.064132 
-0.067728 0.039305 0.030427 0.01711 0.014643 0.0080668 -0.0090322 0.050321 
-0.065426 0.031578 0.032893 0.0093821 0.010204 0.022206 -0.045861 0.025824 
-0.098473 0.017767 0.037004 0.025166 -0.017582 0.018589 -0.026953 -0.034352 
-0.17394 0.023686 0.012506 0.063803 -0.0050863 0.031578 -0.055068 -0.02235 
-0.12166 0.024508 -0.0019624 0.016123 0.029934 0.041936 -0.11459 -0.0036066 
0.078436 0.060022 0.02681 0.033715 0.049335 0.013821 -0.22326 0.019247 
0.26094 0.082875 0.040621 0.048513 0.011684 -0.006566 -0.21389 0.034373 
0.31108 0.052952 0.033715 0.024673 -0.033859 0.020727 0.0032988 0.03651 
0.29168 0.047526 0.041772 0.065612 -0.010348 0.034044 0.18415 0.075805 
0.28494 0.098659 0.08419 0.051965 0.042758 -0.021856 0.26406 0.062488 
0.19846 0.073997 0.076792 0.043087 0.080902 -0.043724 0.34742 0.0087245 
0.14157 0.061172 0.013492 0.039634 0.085506 -0.0013048 0.39608 -0.053753 
0.09685 0.097672 0.025824 0.0080668 0.099316 -0.0044286 0.26077 -0.13333 
-0.0019624 0.080244 0.024344 0.037826 0.072353 -0.031886 0.053938 -0.07562 
-0.27653 0.052459 0.0090533 0.015959 0.06035 -0.023007 -0.14139 -0.16342 
-0.44818 0.007738 0.011026 0.016616 0.051472 -0.036983 -0.30777 -0.14846 
-0.32947 -0.035174 -0.00015387 0.026152 0.01415 -0.028926 -0.18611 0.0024767 
0.010204 -0.0088678 0.023851 0.011026 0.037168 0.040621 -0.059343 0.21769 
0.34512 0.049664 0.059857 0.047526 0.12102 0.23742 0.12809 0.35169 
0.31125 0.042265 0.064625 0.068571 0.11247 0.29152 0.1756 0.31404 
-0.071674 1.0539e-005 0.021549 0.02829 0.013657 0.085341 0.05213 0.20783 
-0.3303 -0.01676 -0.0027845 0.035031 -0.10078 -0.1279 -0.084169 0.063639 
-0.1501 -0.019555 0.0079024 0.00017495 -0.084991 -0.19104 -0.13941 -0.1284 
0.13006 0.044896 0.018589 -0.011663 -0.021034 -0.084498 -0.10637 -0.26864 
0.30549 0.1174 0.032071 0.025001 0.042594 0.011848 0.040785 -0.20255 
0.3022 0.12546 0.05772 0.029605 0.019083 0.048513 0.1978 -0.026131 
0.23578 0.097179 0.069722 0.034209 0.0062583 0.054432 0.25123 0.10967 
0.10392 0.084519 0.054596 0.052952 0.017767 0.047033 0.1909 0.14075 
0.025824 0.051801 0.040621 0.024179 0.024508 0.048677 0.05213 0.15587 
0.030098 0.055911 0.056898 0.05213 0.037168 0.03092 0.026646 0.15752 
0.038483 0.061995 0.035524 0.037497 -0.00064712 0.08419 0.075148 0.080902 
0.015959 0.028125 0.0065871 0.048513 -0.044874 0.13105 0.026481 -0.066413 
0.06742 0.042429 0.030756 0.060022 0.0013258 0.095042 -0.082032 -0.17657 
0.058542 0.072846 0.027303 0.034537 0.043416 0.0085601 -0.15207 -0.1672 
0.019905 0.040785 0.03947 0.044238 0.083697 -0.059178 -0.17641 -0.051287 
0.040456 0.031907 0.039799 0.011026 0.13845 -0.12248 -0.13152 0.24301 
0.079587 0.045882 0.045882 0.016945 0.21819 -0.035667 -0.024816 0.31174 
0.075641 0.036182 0.016781 0.047033 0.24285 0.062159 0.086163 0.13384 
0.028947 0.012999 0.0054362 0.0079024 0.23775 0.03651 0.12529 -0.093541 
-0.039284 0.028125 -0.0042642 0.0064227 0.18432 0.027632 0.12825 -0.12363 
-0.053917 0.058213 0.034537 0.022042 0.10491 0.054432 0.14026 -0.013307 
-0.04882 0.03947 0.036675 0.027139 0.044073 0.08304 0.11724 0.069886 
-0.050793 0.0227 0.035688 0.022206 -0.0055795 0.043745 0.0592 0.09833 
-0.038298 0.007738 0.034702 -0.014951 -0.086964 0.035853 0.065776 0.093233 
0.018425 0.013492 0.041443 0.0067515 -0.11442 0.073339 0.039634 0.066105 
0.11378 0.045718 0.05213 0.052952 -0.10225 0.13943 0.034537 0.048677 
0.15193 0.060844 0.038319 0.010369 -0.094856 0.098494 0.045553 0.083862 
0.13878 0.062159 0.040621 0.044238 -0.038791 0.057555 0.019411 0.093398 
0.076463 0.086492 0.058542 0.068571 0.0095465 -0.0034422 -0.053917 0.066598 
-0.11639 0.086821 0.050979 0.042758 0.01563 -0.031392 -0.06855 0.0016547 
-0.22803 0.023193 0.029441 0.041607 0.034373 -0.031886 -0.040106 -0.03205 
-0.10768 0.0051074 0.0069159 -0.01232 0.034866 0.014315 -0.019555 -0.013636 
0.088958 0.00066819 0.010369 -0.026624 0.078929 0.045389 -0.028104 0.046046 
0.14634 0.042265 0.034537 0.031085 0.096193 -0.0040998 0.010862 0.040621 
0.11428 0.066598 0.057884 0.047197 0.095206 0.0087245 0.047362 0.046211 
-0.018239 0.080409 0.041278 0.052294 0.053938 0.018754 0.035853 0.038319 
-0.11804 0.04506 0.022206 -0.015116 -0.040435 0.036346 -0.008539 0.05065 
-0.075949 0.018096 -0.0040998 -0.04323 -0.053424 0.0067515 0.005765 -0.02087 
0.064132 0.034373 0.0064227 -0.0027845 -0.03205 -0.030406 0.0082312 0.0056006 
0.21654 0.028125 0.012342 -0.0052507 0.011848 0.014479 -0.026296 0.017438 
0.32621 0.037004 0.049828 0.025988 0.063803 0.071531 -0.071016 0.0034632 
0.32177 0.064132 0.070544 0.050157 0.093562 0.098001 -0.032543 -0.12001 
0.31207 0.054432 0.069558 0.0689 0.10951 0.11576 0.026152 -0.21208 
0.27261 0.015465 0.044402 0.059528 0.09685 0.086657 0.12365 -0.12116 
0.15292 0.021056 -0.0064016 0.017438 0.05065 0.082382 0.29234 0.0011614 
-0.018075 0.022371 0.016288 0.011026 0.020233 0.094877 0.36583 0.11263 
-0.17427 0.055911 0.02829 0.066927 0.024508 0.1294 0.22723 0.23348 
-0.23477 0.079258 0.030592 0.067091 0.014808 0.13434 0.0024767 0.32111 
-0.23477 0.04917 0.031578 0.055089 -0.022843 0.00033937 -0.15602 0.19698 
-0.15289 0.040621 0.027139 0.028947 -0.059178 -0.03501 -0.14451 0.013328 
-0.072825 0.046704 0.036017 0.014972 -0.062467 -0.0022913 -0.07003 -0.077428 
0.011355 0.029276 0.022042 0.024673 -0.016266 0.041443 -0.030735 -0.066741 
0.13023 0.033058 -0.0011404 -0.029255 0.0034632 -0.0062372 -0.0032777 -0.051451 
0.23134 0.068736 -0.0039354 -0.045203 0.019247 -0.080717 0.0067515 0.0046141 
0.24417 0.042923 0.0056006 -0.0004827 0.013986 -0.13793 0.047855 0.025988 
0.26077 0.048184 0.048019 0.01267 -0.0090322 -0.087458 0.069886 0.041443 
0.1544 0.078107 0.024179 0.016781 -0.028104 -0.041257 0.12513 0.046704 
0.020069 0.058542 0.040621 0.018754 -0.031886 -0.026296 0.13894 0.010369 
-0.10472 0.034866 0.053281 0.039305 0.011848 0.0016547 0.13154 0.011355 
-0.46298 0.035853 0.047691 0.070051 0.030098 0.061501 0.10622 -0.018568 
-0.71108 -0.054904 -0.0039354 0.030756 -0.0075525 0.13171 0.11642 0.0062583 
-0.40461 -0.060658 -0.017088 0.013657 -0.050629 0.14437 0.1128 0.013821 
0.14881 0.055582 0.022206 0.054596 -0.065919 0.093891 0.053938 -0.083676 
0.44196 0.074654 0.047526 0.048513 -0.041751 0.0085601 -0.029091 -0.19893 
0.42058 0.023851 0.046868 0.078107 0.020562 -0.059836 -0.092554 -0.194 
0.27064 0.030592 0.026646 0.031414 0.049006 -0.050464 -0.058028 -0.0050863 
0.19665 0.018425 0.046046 0.028947 0.061501 0.053609 0.011848 0.1544 
0.29941 0.045389 0.04358 0.047855 0.047855 0.10951 0.0324 0.16475 
0.3609 0.085999 0.054596 0.043087 0.063474 0.12612 -0.017746 0.11198 
0.3752 0.083862 0.028619 0.05476 0.057062 0.044567 -0.037476 0.082875 
0.35334 0.077943 0.03799 0.021878 0.049664 -0.063782 0.022535 0.15308 
0.18136 0.081395 0.010697 -0.0013048 0.022864 -0.16177 0.093233 0.22592 
-0.079072 0.091918 0.0059294 0.017603 0.0021479 -0.1455 0.082711 0.19961 
-0.45295 0.048348 0.027632 0.0037921 0.024673 -0.076442 -0.0062372 0.082711 
-0.64104 0.032071 0.026974 0.0064227 0.048019 -0.025967 -0.049149 -0.035996 
-0.87812 -0.006566 0.050814 0.023851 0.038977 -0.0029489 -0.026953 -0.040764 
-1.0524 -0.034681 0.073339 0.0065871 0.045224 0.016616 0.082217 0.0019835 
-0.70779 -0.0078813 0.017932 0.03651 0.069393 0.067749 0.10441 -0.01117 
0.015959 -0.023829 0.026152 0.044731 0.086492 0.084848 0.098988 0.057555 
0.54817 0.036017 0.016781 0.051472 0.075641 0.099316 0.13269 0.10474 
0.70288 0.11346 0.048348 0.090931 0.055089 0.10293 0.10441 0.062323 
0.57151 0.092082 0.035853 0.074326 0.041772 0.10721 0.099645 0.028125 
0.36271 0.075476 0.028783 0.040292 0.00083261 0.091425 -0.019884 -0.041915 
0.14354 0.050979 0.010862 0.017274 -0.0004827 0.027961 -0.15816 -0.12922 
0.0075736 0.030756 0.031578 -0.0024557 0.017274 -0.012485 -0.1889 -0.1159 
-0.025802 0.045553 0.025824 0.048841 0.073504 -0.00015387 -0.074469 0.047691 
-0.048492 0.085506 0.041114 0.028947 0.086492 0.031742 0.027961 0.13795 
-0.060823 0.066598 0.039305 0.013492 0.053281 0.012013 0.04506 0.12546 
-0.041093 0.055582 0.030098 0.040621 0.023357 -0.020706 0.051801 0.082382 
-0.071181 0.054267 -0.0024557 0.013164 -0.034188 -0.026296 -0.011498 0.035195 
-0.077922 0.011684 -0.0022913 0.01267 -0.015938 -0.078579 -0.086471 0.030263 
-0.020541 0.031085 0.028947 0.043416 0.087643 -0.022185 -0.029584 0.082875 
0.078107 0.076299 0.053281 0.056898 0.14206 0.083533 0.12612 0.10359 
0.16804 0.067256 0.078107 0.091425 0.12579 0.10902 0.1003 0.07449 
0.17708 0.068078 0.074654 0.035853 0.079094 0.1105 0.074654 0.075805 
0.098166 0.075312 0.046375 0.0074092 0.02533 0.086985 0.046868 0.13779 
-0.03764 0.035031 0.032071 -0.00031829 -0.0070593 0.023522 0.048348 0.079751 
-0.082032 0.033058 0.037332 -0.011992 -0.047176 -0.0011404 0.032564 -0.0072237 
-0.023501 0.075476 0.036675 0.037497 -0.026789 0.046211 0.092904 0.013657 
0.010862 0.040292 0.022864 0.020069 0.0024767 0.10902 0.096028 0.01826 
0.0082312 0.021549 -0.003771 0.02681 0.024015 0.029276 -0.0022913 0.0032988 
0.0082312 0.037826 0.0079024 0.032071 0.064461 -0.10258 -0.12823 -0.031228 
0.017932 0.027468 0.038319 0.025659 0.064625 -0.12083 -0.1552 -0.064275 
0.0324 0.03388 0.029934 0.036839 0.071695 -0.065426 -0.045861 -0.0011404 
0.075476 0.054103 0.040621 0.030756 0.096357 -0.0019624 -0.0088678 0.067091 
0.11247 0.068078 0.019576 0.026317 0.12135 -0.051944 0.012835 0.10524 
0.14256 0.065776 0.012177 0.04095 0.10721 -0.044381 0.01152 0.077778 
0.16969 0.077121 0.031742 0.015794 0.098001 0.10754 0.02681 0.03092 
0.19451 0.073339 0.06183 0.031742 0.070051 0.23923 0.0421 0.054103 
0.18152 0.054267 0.060679 0.046046 0.020069 0.22312 0.1299 0.048019 
0.13319 0.077449 0.058049 0.029934 -0.015773 0.17051 0.27935 0.05772 
0.1225 0.055418 0.065776 0.05624 -0.068386 0.20405 0.41598 0.087479 
0.10918 0.045718 0.034537 0.019247 -0.10505 0.15916 0.32276 0.087314 
0.071366 0.021549 0.012342 -0.0068948 -0.10143 -0.001798 0.11066 -0.052931 
0.029934 0.020562 0.0032988 0.02122 -0.050464 -0.16046 -0.16802 -0.15092 
-0.017582 0.033387 -0.00015387 0.018918 0.0075736 -0.30629 -0.30021 -0.053917 
-0.013965 0.026974 0.00099702 -0.0024557 0.0021479 -0.41102 -0.28459 0.029112 
0.026481 0.0421 0.010204 0.0059294 -0.0055795 -0.30777 -0.1935 -0.051944 
0.076463 0.013821 0.0093821 -0.03057 0.059693 -0.056712 -0.10242 -0.045039 
0.12595 0.049006 0.031578 0.040128 0.083368 0.059364 -0.06444 -0.038627 
0.14469 0.042265 0.038648 0.03651 0.092082 0.15834 0.0018191 0.014315 
0.19237 0.038483 0.040456 0.048019 0.086163 0.27392 0.14963 0.08863 
0.24071 0.067913 0.071695 0.11855 0.11083 0.244 0.15818 0.049006 
0.1659 0.11855 0.086821 0.094877 0.074819 0.13253 0.15012 0.0079024 
-0.028269 0.050814 0.036839 0.081889 0.011684 0.077614 0.18826 -0.064111 
-0.27982 -0.0077169 0.018589 0.040456 -0.03205 0.097672 0.24844 -0.076606 
-0.37288 0.023028 0.033058 0.019576 0.018918 0.11198 0.20635 0.026974 
-0.2157 0.055747 0.054925 0.041607 0.032893 0.071037 0.11083 0.11428 
0.013821 0.07597 0.061995 0.034537 0.026646 -0.013307 -0.021034 -0.058028 
0.18136 0.082053 0.01004 0.0028056 0.02681 -0.11294 -0.27341 -0.20222 
0.18662 0.02829 -0.01676 0.0026412 0.014808 -0.20485 -0.44029 -0.11146 
0.092082 -0.018075 -0.015938 0.00050378 -0.00081153 -0.19794 -0.40938 0.012013 
0.031414 0.015465 -0.0004827 0.034537 -0.022514 -0.050958 -0.11311 0.11576 
0.042265 0.036182 0.03651 0.027139 0.005765 0.10277 0.17034 0.23479 
0.035524 0.074654 0.068736 0.053609 0.076463 0.19796 0.30911 0.2195 
0.0054362 0.081889 0.082546 0.10326 0.12809 0.21506 0.30714 0.032236 
-0.018733 0.029276 0.071695 0.02829 0.069393 0.11625 0.24745 -0.15618 
-0.051122 -0.017417 0.024673 -0.0027845 -0.003771 0.005765 0.16212 -0.035667 
-0.0090322 -0.025967 -0.036818 -0.038791 -0.031721 -0.10225 0.11395 0.22164 
0.10967 -0.042573 -0.051122 -0.065591 -0.0503 -0.18463 0.079094 0.2172 
0.18333 0.014315 -0.028269 -0.014622 -0.018075 -0.12873 0.020562 0.13467 
0.096193 0.065447 0.0065871 -0.011827 0.022206 0.04095 -0.001798 0.11165 
-0.010841 0.087314 0.039634 0.029769 0.085177 0.18119 0.0075736 0.070215 
-0.086636 0.085835 0.053938 0.064296 0.10047 0.14321 -0.023994 0.010369 
-0.099953 0.088958 0.068242 0.060515 0.066598 0.064625 -0.10373 -0.13185 
-0.10719 0.031414 0.077614 0.062488 0.016616 0.0088889 -0.1598 -0.32931 
-0.080223 0.011191 0.037004 0.01711 -0.042244 -0.00097594 -0.17049 -0.43749 
-0.041915 0.028125 0.020727 0.012999 -0.037147 0.044238 -0.090417 -0.26716 
-0.011992 0.042429 0.030098 0.06331 -0.00015387 0.089616 0.016452 0.12332 
-0.0004827 0.051472 0.049006 0.048348 0.020069 0.063803 0.090438 0.39937 
-0.049642 0.058706 0.033222 0.043745 0.046868 0.031414 0.10737 0.39641 
-0.079237 0.04917 0.03388 0.04095 0.026317 -0.025638 -0.032872 0.18415 
-0.059672 0.066763 0.043416 0.0069159 0.015137 -0.098309 -0.20518 0.11428 
-0.014129 0.07597 0.07301 0.025824 0.036182 -0.057534 -0.10719 0.1835 
0.070051 0.014315 0.04506 -0.0004827 0.033387 0.033387 0.19977 0.1174 
0.23397 -0.0031133 0.028619 0.021713 -0.010841 0.082217 0.38063 0.047033 
0.32851 0.049992 0.022206 0.0324 -0.0004827 0.075148 0.42584 -0.020706 
0.3295 0.021384 0.0090533 0.028125 0.017767 0.10441 0.4436 -0.065262 
0.26521 0.03536 0.020891 0.047033 0.044402 0.19912 0.32374 -0.097322 
0.12316 0.049006 0.017603 0.030263 0.048677 0.15275 0.054596 -0.16835 
-0.071674 0.05065 0.0070803 0.01563 0.053281 0.035031 -0.1644 -0.088773 
-0.11113 0.034209 0.012342 0.040456 0.024015 -0.0096899 -0.17657 0.20438 
-0.20452 0.066598 0.055089 -0.003771 -0.013307 -0.043395 -0.10669 0.2394 
-0.47153 0.023851 0.041772 -0.0032777 -0.017911 -0.054904 -0.068057 0.12053 
-0.48567 0.00099702 0.0032988 0.023357 0.0036276 -0.047998 -0.057205 0.017932 
-0.19383 0.05213 0.027796 0.00066819 -0.0050863 -0.057699 -0.039942 -0.015444 
0.16475 0.048513 0.026974 0.048348 -0.060658 -0.066413 -0.026789 0.030427 
0.439 0.09833 0.038977 0.033387 -0.062467 0.0013258 0.084848 0.077121 
0.52778 0.13023 0.044402 0.08715 -0.010348 0.11954 0.13812 0.10672 
0.31684 0.07038 0.06331 0.11905 -0.0021268 0.071366 0.083204 0.035524 
0.073504 0.0079024 0.036346 0.041607 0.029112 0.0092177 -0.019226 -0.052437 
-0.084334 -0.022514 0.0056006 1.0539e-005 0.087972 -0.023336 0.0087245 -0.061151 
-0.13727 -0.003771 0.019576 0.010369 0.1562 0.0059294 0.14634 0.012177 
-0.094856 0.00017495 0.026974 0.035688 0.15703 0.12908 0.19073 0.083368 
-0.022679 0.042594 0.010204 0.034373 0.10967 0.16903 0.062652 0.010533 
-0.0014692 0.035195 0.0070803 -0.030242 0.023851 0.012177 -0.071674 -0.034188 
-0.0049219 0.056404 0.01415 -0.029748 -0.010348 -0.081868 -0.14171 0.031907 
0.033222 0.10145 0.030098 0.02533 0.026974 -0.0771 -0.14977 0.028125 
0.070051 0.08156 0.059857 0.047197 0.072846 0.0074092 -0.12725 0.036839 
0.079751 0.051308 0.063803 0.069229 0.057884 0.09274 -0.067892 0.0088889 
0.094877 0.070873 0.062817 0.063639 0.017274 0.090274 0.026646 0.040128 
0.07038 0.080902 0.05772 0.034373 -0.059014 -0.080059 0.04095 0.024344 
0.030098 0.076134 0.02533 -0.00081153 -0.11886 -0.20255 0.1299 -0.0091966 
-0.016924 0.027796 -0.0029489 -0.023007 -0.096336 -0.21208 0.32489 0.020069 
-0.0087034 0.013328 0.0093821 0.018754 -0.037969 -0.068057 0.45642 0.072517 
0.038977 0.0083956 0.033551 0.091425 0.060022 0.12381 0.43045 0.16673 
0.020562 0.066105 0.051965 0.088794 0.091425 0.18761 0.15193 0.12677 
-0.010841 0.049828 0.051308 0.093726 0.090109 0.20454 -0.10735 -0.0052507 
-0.022021 0.028454 0.048184 0.025495 0.092411 0.15209 -0.22392 -0.091568 
0.063639 0.074819 0.056569 0.028125 0.11428 0.12809 -0.22622 -0.094199 
0.097508 0.065118 0.041114 0.081889 0.12842 0.10836 -0.22343 -0.13958 
0.081395 0.0421 0.021713 0.047197 0.12381 0.047362 -0.23083 -0.11935 
0.096686 0.044567 0.031742 0.035195 0.079751 0.01974 -0.13152 -0.029584 
0.10392 0.068078 0.021713 0.03536 0.070544 0.042594 -0.014293 -0.028597 
0.028619 0.035031 0.015959 0.0023123 0.044073 0.045224 0.021713 -0.16786 
0.00017495 0.034537 0.02533 0.0090533 -0.023172 -0.04619 0.066927 -0.080223 
0.0085601 0.03651 0.026646 -0.018239 -0.038462 -0.087786 0.14042 0.16114 
0.0080668 0.037826 0.045718 -0.00081153 -0.011827 -0.063124 0.1835 0.22559 
0.03092 0.0082312 -0.013636 -0.0049219 -0.010841 -0.097816 0.088794 0.1396 
0.027303 0.029276 -0.0014692 -0.0087034 -0.046354 -0.1062 -0.042737 0.19912 
-0.082361 0.010204 0.011684 -0.0070593 -0.042573 -0.075949 -0.022514 0.38934 
-0.08532 0.011355 0.020727 -0.0080457 -0.02794 -0.086307 0.044402 0.32259 
-0.010348 0.027632 0.035195 0.0031344 -0.0057439 -0.040435 0.028454 0.043909 
0.094384 0.047197 0.04506 0.059857 0.038155 -0.03057 -0.084169 -0.1843 
0.16048 0.079422 0.063474 0.062817 0.12727 0.061501 -0.095021 -0.15964 
0.19188 0.074326 0.065776 0.079422 0.18876 0.12135 -0.033037 -0.01117 
0.14683 0.055254 0.067585 0.073668 0.18596 0.13351 0.02122 0.081889 
0.066763 0.065118 0.019411 0.040785 0.082875 0.13368 0.069886 0.04654 
0.068407 0.070708 0.011848 0.026152 -0.067399 0.10984 0.13878 -0.020706 
0.031578 0.046704 0.015137 0.0083956 -0.14352 0.15999 0.18399 -0.12363 
-0.0036066 0.063639 0.02533 0.017767 -0.10028 0.20898 0.20619 -0.096994 
0.030427 0.075805 0.032893 0.060515 0.00083261 0.2098 0.16919 0.015465 
0.075641 0.071202 0.052294 0.055747 0.1077 0.13565 0.093069 0.099316 
-0.06855 0.038812 0.08419 0.059857 0.14009 -0.035503 -0.033365 0.13171 
-0.11393 0.027303 0.048184 0.038483 0.11872 -0.25187 -0.12363 0.13467 
0.10704 0.025495 0.049992 0.021056 0.073504 -0.46232 -0.16868 0.17396 
0.25567 0.034044 0.0036276 0.034209 0.035688 -0.50967 -0.22359 0.1294 
0.22049 0.0421 0.018096 -0.009361 0.0324 -0.23905 -0.26881 -0.081703 
0.16311 0.036017 0.014479 -0.010183 0.045718 0.030263 -0.16029 -0.19877 
0.10672 0.046704 0.040456 0.01826 0.096357 0.20027 0.1225 -0.034516 
0.072846 0.10573 0.062652 0.033058 0.1299 0.29694 0.2149 0.062159 
-0.25368 0.055582 0.093398 0.047691 0.007738 0.20799 0.038648 -0.11804 
-0.82239 -0.035503 0.038155 0.016123 -0.18183 0.13516 -0.062138 -0.16276 
-0.80118 -0.011663 -0.0062372 -0.010348 -0.24825 0.094713 -0.0014692 0.025001 
-0.206 -0.011992 -0.016595 0.016616 -0.15931 0.12924 0.10326 0.1955 
0.28395 0.055911 -0.010183 0.037332 0.023028 0.21605 0.2685 0.26702 
0.4824 0.079587 0.024344 0.048841 0.11855 0.19895 0.30056 0.23249 
0.43521 0.040621 0.034044 0.041278 0.12497 0.086657 0.14979 0.14733 
0.28461 0.026152 0.031742 -0.00097594 0.10162 -0.0503 -0.016102 0.14404 
0.18563 0.047362 0.036017 0.032564 0.1054 -0.12494 -0.12823 0.18794 
0.18415 0.039799 0.067256 0.032729 0.16821 -0.10965 -0.10883 0.12036 
0.15604 0.061008 0.089123 0.054267 0.17182 -0.0868 -0.13793 -0.10637 
-0.021692 0.041278 -0.0088678 0.083368 0.11033 -0.047834 -0.1478 -0.35282 
-0.084827 0.019905 0.0026412 0.038812 0.037497 0.0039565 -0.087786 -0.35364 
0.0082312 0.023357 0.04095 0.051143 -0.010512 0.076463 0.075641 -0.086964 
0.11198 0.11691 0.029934 0.027139 0.038812 0.15275 0.19402 0.15028 
0.13253 0.11066 0.049499 -0.0016336 0.047033 0.14765 0.2195 0.19681 
0.030098 0.063145 0.029605 0.016123 -0.023501 0.0227 0.11 0.087643 
-0.089102 0.040621 0.012835 -0.037311 -0.088773 -0.11327 0.051965 0.036675 
-0.17969 0.016123 0.011191 -0.059178 -0.13152 -0.14665 -0.001798 0.01563 
-0.16424 0.045718 0.059035 0.0067515 -0.060329 -0.041422 0.046868 0.063968 
-0.28936 0.057884 0.038977 0.044567 0.041936 0.086985 0.11066 -0.023336 
-0.36038 -0.042901 0.013821 0.036346 0.055582 0.12727 0.038977 -0.16523 
-0.14599 -0.082854 -0.012649 0.014972 0.054925 0.086492 -0.066413 -0.045696 
0.16048 0.013492 0.01415 0.020891 0.050486 0.072188 -0.026953 0.14831 
0.40052 0.071695 0.04358 0.064625 0.057062 0.13631 0.11214 0.21769 
0.47073 0.1031 0.049664 0.035688 0.070708 0.17774 0.1396 0.15275 
0.34692 0.13121 0.071037 0.0093821 0.027139 0.14206 0.10704 0.0032988 
0.090274 0.059857 0.049335 0.0069159 0.0070803 0.072846 0.039799 -0.094692 
-0.062631 0.0421 0.050321 -0.0082102 0.01826 0.035195 0.024673 -0.17805 
-0.083018 0.058871 0.025166 0.049828 0.05476 0.021549 0.014479 -0.093376 
-0.038462 0.070215 0.047526 0.037168 0.050157 0.012342 0.026646 -0.024652 
-0.034845 0.060844 0.041607 0.048513 0.049664 0.025988 0.11526 0.042758 
-0.10258 0.079916 0.014643 0.03651 0.018096 0.0047785 0.12908 0.11937 
-0.15273 0.033715 0.0087245 0.011684 -0.01528 -0.098309 0.096357 0.10162 
-0.12297 0.0042853 -0.00031829 0.0014903 -0.026789 -0.14533 0.047197 0.097344 
0.0067515 0.03092 0.026152 0.0014903 -0.063289 -0.0868 -0.0088678 0.04654 
0.12612 0.033387 0.041278 0.013821 -0.061151 -0.036489 -0.068057 -0.0049219 
0.23463 0.028947 0.033387 0.024837 -0.022679 0.0054362 -0.12314 -0.04323 
0.35219 0.037497 0.012835 0.019411 -0.01528 0.053281 -0.035338 -0.075291 
0.32193 0.01563 0.012342 0.013164 0.016945 -0.010183 0.031742 -0.076935 
0.23858 0.0013258 0.018754 0.031414 0.028619 0.0059294 0.044073 -0.04619 
0.1008 0.055911 0.028619 0.021549 0.017438 0.095042 0.053281 0.025659 
-0.020048 0.062981 0.044402 0.059857 0.032893 0.1465 0.065776 0.014972 
-0.11163 0.042594 0.059528 0.073997 0.090767 0.10688 0.069722 0.010204 
-0.078579 0.10836 0.079422 0.061172 0.12628 0.025659 0.050486 0.074161 
-0.042737 0.090767 0.086163 0.080409 0.091589 -0.046025 0.0018191 0.12875 
-0.018075 0.047197 0.035524 0.012177 0.032564 -0.13399 -0.00097594 0.21901 
-0.0091966 0.057062 0.01267 0.012177 -0.0087034 -0.066248 0.090931 0.28806 
0.016452 0.047691 0.015959 0.041772 -0.0016336 0.044567 0.23183 0.14124 
0.062652 0.007738 0.015465 0.038648 0.015301 0.049992 0.23085 0.0036276 
0.061008 0.03092 0.014643 0.064461 0.0324 -0.0077169 0.093233 -0.05441 
0.055911 -0.02794 0.0087245 -0.010841 0.10129 -0.065426 -0.057041 -0.034352 
0.03651 0.01563 0.012342 -0.0027845 0.025495 -0.035996 -0.15602 -0.019226 
0.049828 0.020727 0.034044 0.0018191 0.027303 0.065776 -0.18561 -0.018075 
0.075476 0.040456 0.048677 0.0069159 0.024015 0.13006 -0.29117 -0.0070593 
0.058706 0.0070803 0.0041209 0.050979 0.027961 0.092904 -0.23625 -0.046354 
0.059857 -0.004593 -0.015938 0.015301 -0.010676 -0.023501 -0.041915 -0.11755 
0.062323 0.043416 0.004943 0.035031 -0.0032777 -0.064768 0.1003 -0.14582 
0.07038 0.052294 0.024344 0.079751 0.016616 -0.052437 0.1105 -0.063453 
0.01826 0.052623 0.035853 0.028947 0.03388 -0.023665 0.073175 0.20257 
0.013986 0.063968 0.042594 0.029769 0.038319 0.0064227 0.08156 0.29513 
0.01267 0.067256 0.051308 0.024015 0.027303 0.021549 0.060515 0.18925 
-0.0965 0.06594 0.066434 0.01974 0.055582 -0.009361 0.08008 0.17084 
-0.21471 0.065776 0.058871 0.043087 0.041772 -0.019226 0.13203 0.18152 
-0.21241 0.010862 0.027796 0.009711 0.035853 0.031249 0.17084 0.18136 
-0.11031 0.016123 0.024673 0.026317 0.031742 0.071366 0.10737 0.074983 
-0.038462 0.048841 0.024344 0.051143 0.065776 0.061995 0.054596 -0.021528 
0.085177 0.044896 0.029441 0.037004 0.06742 0.056569 0.0051074 -0.093541 
0.25699 0.046211 0.021384 0.059364 0.078107 0.060022 -0.065755 -0.15668 
0.30253 0.073504 0.033551 0.04654 0.08978 0.05065 -0.067235 -0.077264 
0.23923 0.069064 0.054267 0.023522 0.08156 0.061995 -0.045039 0.016781 
0.058706 0.045389 0.049992 0.061008 0.038319 0.040292 -0.015609 0.058049 
-0.032543 0.022042 0.0092177 0.022042 0.0011614 -0.051451 -0.074798 0.060186 
-0.015938 -0.0064016 0.0044497 -0.020212 -0.025309 -0.11393 -0.084334 0.055911 
-0.010183 -0.011992 -0.0080457 -0.010348 -0.014129 -0.048327 -0.024158 0.1003 
-0.1501 0.0082312 0.015794 0.0052718 0.0042853 0.057391 0.040292 0.078436 
-0.33046 0.022371 0.040128 0.044073 0.027632 0.098166 0.068571 -0.0024557 
-0.28443 0.047691 0.047362 0.031907 0.029276 0.10967 0.10573 -0.020541 
-0.054575 0.07301 0.04654 0.049664 0.047362 0.12332 0.11231 0.030592 
0.16492 0.083862 0.073997 0.083204 0.078272 0.11411 0.12776 0.095371 
0.25683 0.10096 0.074654 0.048348 0.051143 0.082546 0.13828 0.1225 
0.23611 0.1026 0.055418 0.071202 0.051472 0.088794 0.16837 0.099316 
0.12431 0.068242 0.040292 0.053938 0.041936 0.038977 0.097344 -0.034023 
-0.011992 0.038483 0.004943 0.026974 0.0088889 -0.009361 -0.04619 -0.18726 
-0.040106 0.024344 0.0074092 0.04095 0.00099702 -0.039778 -0.17608 -0.11656 
-0.046354 0.007738 0.011026 0.011026 -0.019719 -0.0096899 -0.23806 0.095206 
-0.013965 -0.020048 0.0079024 -0.016102 -0.063289 -0.081539 -0.18348 0.19418 
0.0059294 -0.011992 0.018589 -0.013636 -0.097816 -0.076935 -0.15783 0.14733 
-0.040435 -0.017417 0.047362 -0.028269 -0.065591 -0.026296 -0.043066 -0.012649 
-0.011663 0.015959 0.061337 0.048841 0.044402 0.12283 0.19484 -0.09091 
0.051472 0.10376 0.071202 0.10836 0.11855 0.21852 0.35449 -0.016924 
-0.032543 0.1904 0.041443 0.1179 0.090767 0.15587 0.2662 0.021549 
-0.11623 0.090109 0.02122 0.088794 0.08567 0.012835 0.060186 -0.062796 
0.0051074 0.097015 0.024673 0.023028 0.058706 0.0014903 0.040785 -0.03353 
0.10277 0.077943 0.013492 -0.040764 0.050814 0.018754 -0.015116 -0.0021268 
0.18136 0.019083 -0.0068948 -0.024816 0.0046141 -0.019226 -0.043559 -0.10275 
0.1761 0.044731 0.044073 -0.0047575 0.02533 -0.074798 0.19073 -0.080388 
0.12069 0.028783 0.05213 0.019411 0.021384 -0.073811 0.59124 0.1174 
-0.0077169 0.053774 0.073504 0.063474 0.10672 0.10951 0.63383 0.23792 
-0.017253 0.096357 0.086985 0.11033 0.14782 0.20438 0.33426 0.09422 
0.094877 0.090438 0.065447 0.10162 0.033387 0.14815 -0.15964 -0.18989 
0.20816 0.060679 0.039963 0.0051074 -0.053917 -0.0034422 -0.40001 -0.25664 
0.19287 0.035031 0.00083261 -0.023829 -0.099624 -0.087458 -0.3377 -0.03057 
-0.10127 -0.033859 -0.033859 -0.058356 -0.096336 -0.16851 -0.3104 0.14042 
-0.22277 -0.032215 -0.014458 -0.04323 -0.073154 -0.12856 -0.35644 0.16936 
-0.1016 0.035524 0.01826 0.021384 -0.023665 -0.01117 -0.29199 0.082053 
0.098988 0.074654 0.041772 0.028454 0.045553 0.085012 -0.13695 0.076792 
0.28889 0.10425 0.035853 0.051143 0.084684 0.14223 0.048184 0.098001 
0.3558 0.12743 0.058213 0.08008 0.090931 0.14683 0.15966 0.05772 
0.31667 0.081067 0.046704 0.049828 0.075641 0.085835 0.23578 0.047033 
0.27392 0.070051 0.041607 0.047033 0.065118 0.063639 0.29152 -0.0042642 
0.13812 0.080573 0.025495 0.012835 0.053281 0.0324 0.28214 -0.024652 
-0.045203 0.033222 0.016123 0.01415 0.059035 -0.069865 0.18646 -0.0011404 
-0.42779 -0.029091 0.031742 0.021384 0.044567 -0.1108 0.11428 -0.016102 
-0.7803 -0.014129 0.045553 0.01563 0.041114 -0.018733 0.038155 -0.027775 
-0.60931 -0.027282 0.047855 -0.0016336 0.043745 0.023193 0.01826 -0.018733 
-0.087622 0.01563 0.015959 0.015465 0.03947 0.057884 0.0083956 -0.047341 
0.30187 0.080902 0.013657 0.024673 0.053774 0.18202 0.025659 -0.089266 
0.43719 0.0786 0.029605 0.041278 0.031578 0.21523 0.041772 -0.045203 
0.36386 0.059528 0.023851 0.0075736 -0.044546 0.12316 0.040292 0.077614 
0.1955 0.034866 0.012999 -0.023994 -0.11524 0.033387 -0.014622 0.094548 
0.097672 0.022042 0.031085 0.0019835 -0.07003 0.029276 0.0052718 0.08008 
0.10392 0.037826 0.031414 0.0062583 -0.039613 -0.00097594 0.045224 0.19977 
0.21572 0.092082 0.029276 0.011191 -0.0067304 -0.018075 0.024015 0.22608 
0.24828 0.082711 0.010369 0.009711 0.045718 -0.068221 -0.030242 0.1687 
0.19468 0.042265 0.013164 0.0056006 0.1026 -0.17624 -0.10193 0.063474 
0.12628 0.049006 0.024508 0.058213 0.10573 -0.30514 -0.15816 -0.060823 
0.098001 0.059693 0.041114 0.053281 0.085177 -0.31155 -0.15898 -0.016924 
-0.020048 0.065283 0.069886 0.05624 0.099316 -0.098638 -0.12281 0.01152 
-0.1478 0.053774 0.047033 0.069722 0.11461 0.11872 -0.027118 0.091589 
-0.33063 0.005765 0.04095 0.02681 0.10704 0.1784 -0.0036066 0.18794 
-0.64515 -0.025967 0.036839 0.021549 0.069393 0.14058 0.0024767 0.16673 
-0.59089 -0.026953 0.04917 0.011355 0.022864 0.070873 0.066105 0.070544 
-0.15947 -0.0072237 0.04917 0.01563 0.0013258 0.11132 0.12562 -0.033201 
0.23956 0.040456 0.057227 0.057884 -0.05589 0.14864 0.11247 -0.081045 
0.40167 0.048348 0.0088889 0.016452 -0.11524 0.075641 0.076463 -0.10242 
0.35186 0.0060938 -0.012649 -0.029748 -0.024487 -0.0050863 0.020069 -0.077922 
0.25156 0.05065 -0.001798 0.026974 0.067585 0.024673 -0.018733 -0.0406 
0.13368 0.074161 0.041772 0.055418 0.11592 0.035031 -0.035996 -0.012649 
0.0065871 0.034866 0.027632 0.05065 0.12217 0.00066819 0.037497 0.013164 
-0.035174 0.013328 0.059693 0.026974 0.14338 0.043251 0.096028 0.0080668 
-0.016924 0.039141 0.056076 0.061501 0.12875 0.050321 0.0047785 -0.020212 
-0.0073881 0.069064 0.037497 0.073339 0.06331 0.061501 -0.066248 0.010204 
0.031907 0.041443 0.030427 0.046868 -0.020048 0.07449 -0.02087 0.12184 
0.01004 0.053116 0.0421 0.051143 -0.048656 0.046868 0.020727 0.28478 
-0.008539 0.047362 0.044731 0.042429 -0.044052 -0.022843 -0.046025 0.29069 
-0.0138 0.038155 0.043745 0.012013 -0.039613 -0.072496 -0.081374 0.13351 
0.027632 0.052952 0.043087 0.011355 -0.040764 -0.121 -0.045039 0.052623 
-0.0055795 0.024508 0.023357 -0.018568 -0.053095 -0.14993 0.01974 -0.029255 
-0.013965 0.010697 0.022042 -0.030242 0.028619 -0.045532 0.026646 -0.056712 
0.015794 0.040785 0.014479 0.025824 0.11888 0.0421 0.021878 -0.046847 
0.077943 0.088301 0.027961 0.041443 0.16426 0.095699 0.11033 0.0051074 
0.083697 0.071859 0.034373 0.089123 0.13401 0.10326 0.17873 0.059693 
0.066598 0.06594 0.037168 0.032236 0.093069 0.11494 0.20224 0.0047785 
0.03947 0.059528 0.030756 0.038812 0.025495 0.12628 0.15341 -0.016102 
0.030098 0.038483 0.039963 0.050486 -0.0067304 0.09833 0.073668 0.0011614 
0.045389 0.048677 0.049006 0.023357 -0.018568 0.022535 0.0046141 0.0023123 
0.020069 0.040456 0.058213 0.037332 0.032729 -0.0090322 -0.056712 -0.088608 
-0.0059084 0.027961 0.042923 0.031742 0.045553 -0.010512 -0.067235 -0.14813 
0.014315 0.05476 0.01267 0.03536 0.065776 0.0324 -0.0077169 0.0072447 
0.025166 0.064954 0.01004 0.047855 0.011848 0.02533 0.04917 0.15587 
0.010533 0.049992 0.02681 0.0044497 -0.12215 0.01826 0.1151 0.22657 
-0.01939 0.04358 0.037661 -0.018075 -0.1935 -0.03912 0.13368 0.19172 
-0.060658 0.061501 0.020727 0.020891 -0.14615 -0.017253 0.046375 0.067256 
-0.096829 0.040128 0.00050378 0.0021479 -0.067892 0.026974 -0.10538 -0.097651 
-0.043724 0.025988 -0.0019624 0.0072447 -0.02646 0.071531 -0.19449 -0.21948 
0.088301 0.07038 0.029605 0.054267 0.11313 0.090109 -0.067399 -0.14714 
0.23973 0.083368 0.073997 0.075641 0.24367 0.15999 0.084026 -0.039778 
0.33788 0.098166 0.059364 0.069558 0.21342 0.15834 0.16525 0.020562 
0.36205 0.072024 0.049664 0.031742 0.080573 0.056404 0.16245 0.12562 
0.36073 0.030592 0.052787 0.012177 0.041772 0.026646 0.14009 0.13845 
0.34955 -0.0031133 0.024015 0.040128 0.087479 0.023851 0.10145 0.097672 
0.2292 0.014972 -0.0013048 0.0065871 0.13993 0.041936 0.022042 0.082382 
-0.069536 0.01974 0.014643 0.050157 0.076463 -0.0062372 0.015959 -0.022843 
-0.54699 0.043745 0.10622 0.02829 -0.050958 -0.089595 -0.010348 -0.033859 
-0.68346 0.030592 0.064954 0.036839 -0.13086 -0.06707 -0.0072237 -0.056055 
-0.40938 0.024837 0.0051074 0.053609 -0.083512 0.11346 0.043416 -0.037805 
-0.0095255 0.076134 0.0092177 0.037168 0.0046141 0.25847 0.12299 0.052459 
0.25715 0.12661 0.041936 0.052787 0.044567 0.19122 0.10967 0.085506 
0.31766 0.065776 0.035031 0.012342 0.0051074 0.010533 0.018425 0.062652 
0.28593 0.028947 0.034537 -0.0019624 -0.027775 -0.052766 -0.05737 -0.016924 
0.2029 0.051636 0.052459 0.037332 -0.03057 -0.076606 -0.032543 -0.042244 
0.23003 0.032729 0.0421 0.03388 0.0060938 -0.082525 -0.01117 0.0047785 
0.19172 0.0227 0.03947 0.0051074 0.040621 -0.068879 0.0088889 0.04358 
0.11198 0.0093821 0.0069159 0.0075736 0.057062 -0.089759 0.073339 0.078436 
-0.051287 -0.033201 -0.0055795 -0.031228 0.054432 -0.095349 0.09833 0.084519 
-0.19515 0.012999 0.0039565 0.0087245 0.013986 -0.069536 -0.026624 0.028454 
-0.14533 0.076792 0.010862 0.0021479 -0.0014692 0.0095465 -0.05885 0.070544 
-0.035667 0.058706 0.020398 0.030756 0.0019835 0.083368 -0.037147 0.049828 
-0.008539 0.025001 0.024015 0.053774 0.033222 0.052459 -0.071181 -0.0406 
-0.0062372 0.054925 0.020233 0.034044 0.077121 0.042594 -0.13284 -0.14155 
-0.0032777 0.03536 0.056733 0.063803 0.11395 0.054596 -0.051122 -0.1182 
0.034044 0.039141 0.072681 0.080409 0.14371 0.16673 0.085506 -0.080388 
0.091096 0.11411 0.085999 0.084519 0.15801 0.29283 0.28214 -0.0098543 
0.11 0.08419 0.057884 0.083697 0.10688 0.21095 0.48257 0.17445 
0.059857 0.05065 0.024179 0.00050378 0.038812 0.031414 0.48421 0.30829 
0.0036276 0.028125 0.010204 -0.02498 -0.037805 -0.087951 0.22756 0.3027 
0.0036276 0.023028 -0.0059084 -0.058192 -0.061316 -0.18265 -0.065426 0.2343 
-0.010348 0.04358 0.005765 -0.055726 0.024015 -0.18561 -0.20222 0.12677 
-0.028926 0.057062 0.023193 0.047362 0.066763 -0.056055 -0.21455 0.086821 
-0.03205 0.056898 0.062817 0.06183 0.082875 0.026974 -0.13711 -0.052766 
-0.043395 0.032236 0.055582 0.052787 0.037168 0.040128 -0.096172 -0.16687 
-0.034188 0.041772 0.052952 0.069229 -0.014129 0.026646 -0.038627 -0.096336 
0.0018191 0.0324 0.034866 0.013821 -0.020048 -0.028926 0.0018191 -0.046519 
0.057884 0.05772 0.043745 0.0018191 -0.022185 -0.024487 0.051801 0.042429 
0.1225 0.072353 0.029605 0.013328 -0.014293 -0.062302 0.049992 0.095206 
0.23233 0.040128 0.01004 0.013821 -0.0082102 -0.018897 0.042758 0.13993 
0.26077 -0.0047575 0.016123 0.032729 0.025166 0.025659 0.031249 0.2246 
0.20158 0.034537 0.031085 0.042758 0.082875 0.083697 0.071202 0.2297 
0.16081 0.058706 0.064954 0.035853 0.10425 0.14437 0.052294 0.066927 
0.06331 0.040292 0.067256 0.075641 0.072517 0.094713 0.025001 -0.094034 
-0.14204 0.014972 0.01826 0.047855 0.08567 0.099645 0.0034632 -0.05737 
-0.21143 -0.0044286 0.0067515 0.016616 0.023193 -0.006566 -0.0064016 -0.0075525 
-0.34476 0.026646 0.0064227 -0.02498 0.0011614 -0.026953 -0.020377 -0.051615 
-0.51641 0.015301 -0.015609 -0.019061 -0.053917 -0.099624 -0.024816 -0.19975 
-0.36417 0.041772 -0.013965 0.0227 -0.078579 -0.10949 -0.020706 -0.17098 
0.0036276 0.055254 0.035688 0.0046141 -0.0004827 -0.052931 0.057391 0.038977 
0.23858 0.10556 0.059364 0.027303 0.021056 0.024673 0.23726 0.28116 
0.33278 0.094713 0.078765 0.052952 0.068571 0.10228 0.24532 0.32818 
0.26439 0.0689 0.050157 0.047691 0.07449 0.11543 0.13582 0.20799 
0.11017 0.055418 0.041278 0.073175 0.076463 0.10951 0.014643 0.065118 
0.01711 0.027468 0.016123 0.018096 0.050157 0.039141 -0.10686 -0.020212 
0.033058 0.017438 -0.0021268 0.01004 0.030098 -0.034023 -0.20386 -0.098967 
0.068736 0.0689 0.013821 0.033715 0.048184 -0.021363 -0.22754 -0.13744 
0.054267 0.066105 0.019905 0.029934 0.039305 0.055089 -0.14484 -0.094527 
-0.012649 0.032893 0.0227 0.0059294 -0.025145 0.080244 -0.034023 -0.020212 
-0.073318 0.011684 0.041607 0.016123 -0.076442 0.061337 0.087479 0.023193 
-0.031228 0.017767 0.042923 0.040785 -0.0052507 0.029769 0.13467 0.087808 
0.037661 0.044238 0.026152 0.093891 0.084519 0.042429 0.12891 0.1641 
0.052952 0.0421 0.0064227 0.049499 0.11428 0.076792 0.039634 0.15226 
0.048348 0.023357 0.01152 0.0023123 0.095206 0.056076 0.01711 0.048513 
0.023028 0.013821 0.0041209 0.0031344 0.024508 0.032893 0.0056006 -0.041093 
0.034044 0.067585 0.015794 -0.017582 -0.010841 0.010697 0.019576 -0.040435 
0.019247 0.061172 0.029769 0.014315 -0.025145 -0.074633 0.017767 -0.019061 
0.02681 0.035688 0.051143 0.040456 0.015794 -0.10127 0.011191 -0.0022913 
0.042594 0.072517 0.081395 0.055911 0.01826 -0.043888 0.036839 -0.001798 
0.061666 0.085012 0.074161 0.079916 0.024179 0.013328 0.021384 -0.02794 
0.022535 0.064132 0.058377 0.07301 0.05476 0.036839 -0.0011404 -0.02794 
0.00066819 0.050157 0.051636 0.045389 0.030263 0.024015 -0.004593 -0.059507 
0.012506 0.050321 0.019247 0.0093821 -0.0047575 -0.00064712 -0.0075525 -0.014622 
0.079916 0.041443 0.040128 0.0075736 -0.016102 0.055911 0.034209 0.036839 
0.047855 0.056898 0.020562 0.029934 -0.020541 0.12085 0.0421 -0.0406 
-0.051451 0.03799 0.026646 0.0083956 -0.041586 0.11411 -0.0098543 -0.16391 
-0.11919 0.0062583 0.021878 0.0039565 -0.025967 0.095371 -0.037805 -0.16769 
-0.079072 0.0039565 0.025659 0.01152 0.00083261 0.11165 0.01267 -0.063124 
0.0023123 0.035688 0.0060938 -0.00064712 0.031249 0.11921 0.076134 0.030098 
0.084848 0.047855 0.028619 0.048019 0.079094 0.11247 0.13203 0.1054 
0.10063 0.046046 0.021384 0.063474 0.08715 0.098001 0.10819 0.14749 
0.11132 0.08008 0.055911 0.05772 0.10918 0.059857 0.017438 0.08304 
0.099316 0.018589 0.013657 0.055911 0.11707 -0.0088678 -0.073318 -0.031392 
0.077614 0.025001 0.020562 0.016452 0.11033 -0.091075 -0.11689 -0.078908 
0.099316 0.035195 0.05772 -0.047834 0.022371 -0.096172 -0.13875 -0.018404 
0.10935 0.036675 0.023522 -0.0050863 0.0023123 -0.16309 -0.037805 0.11395 
0.13417 0.068736 0.020069 0.00033937 -0.012814 -0.15355 0.041936 0.32966 
0.13499 0.076134 0.0227 0.044567 0.01563 -0.012485 0.12661 0.49835 
0.091425 0.073339 0.016452 0.054925 0.047033 0.12102 0.20503 0.33032 
0.048841 0.072517 0.049499 0.039963 0.019247 0.086657 0.24647 0.12233 
0.025495 0.093726 0.029934 0.036839 -0.014951 -0.053424 0.12842 -0.079401 
0.022206 0.017767 0.012342 0.0042853 -0.031886 -0.080552 -0.0095255 -0.22474 
0.077778 0.020398 0.040621 -0.031721 -0.003771 -0.01676 -0.021856 -0.17838 
0.22328 0.088136 0.046046 0.035853 0.017603 0.074161 0.039799 -0.075784 
0.22641 0.10474 0.079422 0.046375 0.062323 0.16146 0.072024 -0.060494 
0.11674 0.086163 0.051636 0.058542 0.074654 0.15209 0.0024767 -0.21323 
0.10918 0.071531 0.018754 0.014643 0.03947 0.10047 -0.12938 -0.26404 
0.17018 0.014479 0.026152 -0.010019 -0.024323 0.012342 -0.16588 -0.050793 
0.17495 0.0072447 0.0011614 0.0031344 -0.036325 -0.038627 -0.048985 0.2657 
-0.025802 0.026646 0.0054362 0.0032988 0.0046141 0.0023123 0.14749 0.41647 
-0.45722 -0.025309 0.024508 0.036839 0.044731 0.056076 0.23315 0.30056 
-0.51921 0.0024767 0.049335 0.061172 0.083368 0.048513 0.13664 0.066105 
-0.14237 0.065447 0.073832 0.048348 0.094713 0.032893 0.032236 0.035031 
0.23233 0.037826 0.054103 0.050157 0.058049 0.036017 -0.01232 0.12381 
0.171 0.025495 0.016452 0.027303 0.047855 0.021549 -0.0027845 0.098659 
-0.23576 0.015137 0.021549 0.038155 0.028619 -0.018568 -0.011992 0.012999 
-0.39853 -0.023172 0.019411 0.032893 0.024344 -0.0138 0.029934 -0.045368 
-0.12363 -0.028762 0.0051074 0.020891 0.01711 -0.009361 0.026152 -0.028926 
0.21638 0.038319 0.017932 0.041936 -0.0022913 -0.047505 -0.034188 -0.023829 
0.38523 0.055418 0.029276 0.029441 0.013492 -0.070852 -0.036818 0.04654 
0.33262 0.086657 0.049006 0.023851 0.027961 -0.023501 0.0036276 0.08156 
0.24334 0.096193 0.060515 0.046211 0.038319 0.027303 -0.0032777 0.041607 
0.15916 0.064132 0.028619 0.013821 0.027303 0.064296 0.025988 0.03651 
0.10129 0.055418 -0.00097594 0.02681 -0.0004827 0.10359 0.15489 0.075476 
0.047197 0.10014 0.0051074 0.041114 -0.048985 0.18218 0.27228 0.095535 
-0.038627 0.091918 0.039634 0.046704 -0.033859 0.15834 0.29283 0.13138 
-0.11755 0.063474 0.041772 0.062817 0.044567 0.040456 0.11674 0.13417 
-0.15174 0.052623 0.016452 0.011684 0.079422 -0.08121 -0.031228 0.089123 
-0.12215 0.0062583 0.034209 0.027796 0.11872 -0.076606 -0.068879 0.010697 
-0.047998 -0.0068948 0.043909 0.034373 0.14469 0.0227 -0.032872 -0.023994 
-0.0054151 0.012506 0.058706 0.019411 0.10047 0.077614 -0.052602 -0.029091 
-0.084663 0.015959 0.030756 0.039799 0.091918 0.021384 -0.11903 -0.099131 
-0.06148 0.0072447 0.023851 0.023686 0.045553 -0.058685 -0.13941 -0.087458 
0.087972 0.019083 0.019411 0.007738 -0.0036066 -0.029584 -0.1113 -0.058028 
0.15686 0.021549 0.044567 -0.0082102 -0.07562 0.099481 -0.010348 -0.049149 
0.087314 0.035195 0.044567 0.02533 -0.013307 0.15571 0.08567 0.050486 
0.0082312 0.12677 0.064296 0.047362 -0.060987 0.17462 0.18958 0.057391 
-0.053588 0.067585 0.044731 0.010369 -0.091568 0.10556 0.16541 0.015465 
-0.013307 0.039634 0.05213 0.0044497 -0.077922 0.09422 0.10803 -0.045039 
0.058871 0.057555 0.043745 0.049664 -0.035667 0.083697 0.12135 0.00083261 
0.12727 0.07301 0.031249 0.044073 -0.0031133 0.10655 0.11888 0.1761 
0.13138 0.08008 0.041936 0.03388 0.084519 -0.021199 0.063803 0.24532 
0.056733 0.08863 0.027468 0.041772 0.10113 -0.097816 0.049006 0.22476 
-0.030077 0.046046 0.013986 0.037004 0.085999 -0.04619 0.041443 0.12349 
-0.059014 0.0051074 0.0041209 0.042594 0.095206 0.021549 0.0069159 0.082711 
-0.084663 0.016616 0.047855 0.061337 0.094055 0.10408 -0.012649 0.060679 
-0.085813 0.023028 0.05476 0.064296 0.064625 0.10918 -0.040106 -0.058356 
-0.11409 0.007738 0.063639 0.058871 0.01152 0.074161 -0.058356 -0.27193 
-0.091568 0.01267 0.019905 -0.023994 -0.072003 -0.0091966 -0.12708 -0.46265 
0.042265 0.037004 0.00083261 -0.06444 -0.10176 -0.10817 -0.096665 -0.28064 
0.22887 0.061008 0.029112 0.00050378 -0.043066 -0.1113 0.11477 0.052787 
0.35531 0.10754 0.025659 0.036182 0.073175 0.01152 0.18432 0.20454 
0.32571 0.093233 0.029934 0.053281 0.091096 0.11165 0.11707 0.20125 
0.22641 0.057062 0.016616 0.024179 0.057555 0.15686 0.024673 0.026646 
0.16722 0.077943 0.021384 0.034209 0.064132 0.074161 -0.028269 -0.11557 
0.19353 0.086657 0.052952 0.061008 0.067749 0.0090533 -0.031557 -0.02942 
0.17182 0.027139 0.059035 0.048513 0.087808 -0.012156 -0.035503 0.1368 
0.064296 0.00050378 0.022206 0.034702 0.082382 -0.0075525 -0.077922 0.17856 
-0.080717 -0.040271 0.0072447 0.005765 -0.009361 -0.031064 -0.060987 0.08567 
-0.12429 -0.022021 0.005765 0.00033937 -0.028762 -0.044052 -0.00031829 0.044896 
-0.092883 0.029769 0.022864 0.032893 -0.0026201 -0.0040998 0.051308 0.033551 
-0.065591 0.07449 0.024015 0.028454 -0.0014692 0.00099702 0.048677 -0.028269 
-0.042408 0.10589 0.038812 0.048348 0.0087245 -0.035996 -0.074962 -0.049478 
0.022535 0.10556 0.053116 0.053116 -0.0016336 -0.071345 -0.18874 -0.03205 
0.082217 0.084026 0.062817 0.03799 0.0085601 -0.084005 -0.11656 -0.0047575 
0.063639 0.022535 0.047526 0.044402 0.023851 -0.03353 -0.0050863 0.013986 
-0.010512 0.014479 0.01826 0.0227 -0.008539 -0.045696 -0.0049219 -0.043559 
-0.045696 0.01004 0.014479 -0.0054151 -0.031557 -0.079401 0.02829 -0.10225 
-0.018897 -0.0036066 0.036346 0.030098 -0.0042642 -0.031392 0.1807 -0.099295 
0.084848 0.046868 0.065776 0.045553 0.020233 0.076956 0.24893 0.0070803 
0.11773 0.087314 0.054432 0.056076 0.055582 0.1373 0.16952 0.091425 
0.15851 0.054267 0.038977 0.061172 0.044402 0.073832 0.044238 0.11346 
0.17215 0.010862 0.016616 0.011848 0.012342 -0.0042642 0.055418 0.1539 
0.038977 0.029276 0.031414 0.028783 0.0032988 0.031578 0.18103 0.18152 
-0.18857 0.018096 0.039963 0.0085601 0.027139 0.14157 0.23315 0.14272 
-0.18578 0.025988 -0.0019624 0.015137 0.014808 0.15094 0.13927 0.062323 
-0.004593 0.067091 0.019083 0.037826 0.022042 0.084684 -0.014458 0.03799 
0.1294 0.086657 0.009711 -0.00081153 0.070051 0.047362 -0.10094 0.072188 
0.079751 0.072353 0.0098754 0.03092 0.11033 0.10704 -0.18216 -0.040764 
-0.0026201 0.075148 0.022864 0.064625 0.1641 0.10228 -0.20255 -0.23296 
-0.08532 0.0069159 0.023851 0.047691 0.073504 -0.089266 -0.15569 -0.25795 
-0.11541 -0.0070593 0.024344 0.041607 -0.027447 -0.23 -0.042244 -0.039778 
-0.035996 0.015137 0.027303 -0.013965 -0.031721 -0.23296 0.072024 0.22937 
0.042923 0.03388 0.031907 0.028947 0.015794 -0.11376 0.092247 0.18991 
0.037168 0.049992 0.043909 0.041936 0.044402 -0.051615 -0.042408 0.047197 
0.019247 0.052623 0.025166 0.031742 0.077614 -0.035174 -0.17657 0.031249 
-0.020212 0.047033 0.056076 0.069558 0.085506 -0.026953 -0.1843 0.049006 
-0.0078813 0.071366 0.045224 0.04095 0.064461 -0.066084 -0.0073881 0.11263 
0.0065871 0.069064 0.027139 0.015959 -0.0019624 0.060515 0.24696 0.11181 
0.067256 0.055582 0.033058 0.02122 -0.0039354 0.24022 0.40825 0.081395 
0.095699 0.046704 0.050814 -0.010512 -0.046025 0.25485 0.36879 0.025659 
0.047855 0.035524 0.038319 -0.028433 -0.098638 0.083862 0.2195 0.030098 
-0.031557 -0.0029489 -0.029255 -0.014129 -0.097158 -0.070687 0.010862 0.10819 
-0.041751 -0.01117 -0.013965 -0.020541 -0.046025 -0.084498 -0.12511 0.074654 
-0.017253 0.022535 0.0037921 0.034373 0.043745 -0.0062372 -0.096665 -0.0029489 
-0.006566 0.029441 0.027632 0.040785 0.082053 0.041278 -0.036654 -0.0040998 
0.02122 0.057555 0.024673 0.066763 0.14206 0.068407 0.052623 0.0083956 
0.07038 0.086492 0.049828 0.07038 0.16064 0.05624 0.095371 0.026974 
0.072353 0.069064 0.053938 0.034866 0.17018 0.025659 0.05065 -0.00031829 
0.045389 0.06035 0.072024 0.046211 0.11872 0.02122 0.0054362 -0.025638 
0.047033 0.098001 0.076299 0.042758 0.086985 0.12644 0.042594 0.026974 
0.027796 0.075312 0.043416 0.036182 0.0032988 0.25008 0.11313 0.098988 
0.028125 0.060679 0.023193 0.06331 -0.069536 0.22657 0.06479 0.1197 
0.0093821 0.048184 0.011848 -0.0075525 -0.062302 0.058542 -0.066413 0.023028 
-0.003771 0.035195 0.013986 -0.014622 -0.0064016 -0.052437 -0.16062 -0.17575 
0.017767 0.026152 -0.012485 0.0060938 0.0041209 -0.1011 -0.11935 -0.17197 
0.059693 0.043909 0.0026412 -0.0049219 0.0036276 -0.20945 -0.015609 0.057062 
0.060515 0.023193 0.028454 0.024015 0.022535 -0.28623 0.079587 0.19829 
0.052787 0.018425 0.038319 -0.0098543 0.09274 -0.19959 0.1271 0.15193 
0.042758 0.038977 0.037168 0.0070803 0.15883 0.014643 0.076463 0.049828 
0.08008 0.0421 0.030756 0.056569 0.14404 0.21408 0.024015 0.040292 
0.098166 0.061995 0.036839 0.044402 0.13417 0.2172 0.0054362 0.061666 
0.13006 0.10885 0.058542 0.064296 0.097344 0.12957 0.0044497 0.20487 
0.18662 0.06594 0.077285 0.061666 0.043909 0.040128 -0.035996 0.21309 
0.16212 0.048841 0.048513 0.024179 -0.032215 0.0064227 -0.013471 0.078765 
0.12825 -0.0096899 0.034044 0.015959 -0.13349 0.040785 0.030756 -0.0083746 
0.036839 -0.023994 0.011848 -0.024158 -0.16506 -0.050958 0.057555 -0.00097594 
0.011026 -0.044874 0.00099702 -0.011827 -0.086307 -0.11722 0.020562 -0.021856 
-0.03501 0.039634 0.017438 0.051636 0.023851 0.037826 0.06035 -0.13859 
-0.094034 0.060022 0.0019835 0.074983 0.13154 0.19106 0.10984 -0.14878 
-0.26667 0.081231 0.039799 0.075805 0.15127 0.21326 0.14354 -0.073647 
-0.25943 0.11231 0.045224 0.063639 0.18596 0.17133 0.14585 0.024015 
-0.1039 0.063639 0.036675 0.036675 0.13927 0.027303 0.074654 0.0039565 
0.063474 0.035853 0.053609 0.0064227 0.016781 -0.11048 0.023193 -0.031228 
0.16262 0.042429 0.050321 -0.024816 -0.061151 -0.17295 -0.059014 -0.03616 
0.2126 0.014808 0.047362 -0.0078813 -0.050958 -0.065755 -0.082196 -0.00081153 
0.2223 0.024837 0.035031 0.030756 0.024179 0.055089 -0.0070593 0.00033937 
0.19303 0.08304 0.029112 0.050979 0.06742 0.10392 -0.014951 -0.10669 
0.14585 0.070708 0.02122 0.093891 0.084684 0.14026 -0.01676 -0.15076 
0.071366 0.050486 0.028947 0.042594 0.027303 0.097837 0.072188 0.10293 
0.087972 0.051965 -0.0054151 0.020069 -0.044217 0.044073 0.12612 0.36386 
0.097837 0.054103 0.00033937 0.011848 -0.031064 -0.044052 -0.010512 0.3803 
0.06479 0.052294 0.0082312 -0.031886 -0.033037 -0.14319 -0.10078 0.27129 
-0.0021268 0.038812 0.020891 0.010533 -0.0016336 -0.072825 -0.076771 0.085999 
-0.052437 0.0024767 0.020398 0.021384 0.068571 0.072846 0.019905 -0.044381 
-0.11837 -0.0054151 0.028783 0.018425 0.08304 0.16492 0.11378 -0.11228 
-0.11245 0.059528 0.03947 0.070215 0.046211 0.15982 0.2948 -0.081045 
-0.073647 0.082217 0.033551 0.035195 -0.0088678 0.1197 0.35071 -0.0026201 
-0.0052507 0.083697 0.031249 0.018754 -0.030242 0.10376 0.2292 0.051143 
0.074983 0.097344 0.039799 0.036017 -0.0054151 0.071037 0.040456 -0.0044286 
0.19468 0.093891 0.046375 0.018918 0.023357 0.034702 -0.093212 -0.016102 
0.28445 0.067913 0.04917 0.065118 1.0539e-005 -0.01939 -0.072496 0.055089 
0.16689 0.055254 0.064296 0.013986 -0.022185 -0.10686 -0.071345 0.1465 
-0.06707 0.013164 0.068736 0.0075736 -0.022185 -0.11228 -0.13415 0.019411 
-0.17345 -0.029748 0.034373 0.057227 0.0031344 -0.0138 -0.11886 -0.11985 
-0.1427 -0.023665 0.044567 0.019905 -0.003771 0.0013258 -0.089102 -0.13547 
-0.11015 -0.041586 -0.0067304 0.0082312 -0.021528 -0.028926 -0.09091 -0.11376 
-0.027611 -0.034845 -0.0078813 0.018754 -0.056055 -0.026953 -0.062302 -0.008539 
0.032893 0.013328 -0.0034422 0.0074092 -0.058521 0.0064227 0.066763 0.030592 
0.073504 0.069229 0.021056 0.033551 0.00099702 0.062981 0.14206 0.069393 
0.10326 0.10737 0.05065 0.034044 0.065118 0.12398 0.15045 0.07597 
0.086821 0.147 0.094055 0.065118 0.10622 0.16015 0.12266 0.02681 
-0.0022913 0.11987 0.065283 0.069722 0.080573 0.17955 0.11559 0.076134 
-0.064111 0.048348 0.015794 0.0062583 0.024344 0.18284 0.10704 0.12628 
-0.10571 -0.0036066 -0.0078813 -0.009361 0.0032988 0.1636 0.092082 0.089945 
-0.11146 0.047855 0.0013258 -0.031064 -0.010841 0.031578 0.036017 -0.021199 
-0.063946 -0.0016336 -0.026131 -0.017746 0.046046 -0.10456 -0.0044286 -0.07266 
0.059528 0.021713 0.0090533 0.02681 0.071037 -0.07562 -0.0042642 0.039799 
0.16821 0.082875 0.062817 0.033387 0.065118 0.0060938 0.012506 0.1978 
0.33163 0.077614 0.085341 0.079751 0.047691 -0.015444 0.047197 0.20388 
0.39428 0.064461 0.046046 0.068571 0.022371 -0.098967 -0.0503 -0.01117 
0.30056 0.044567 0.029769 0.041278 0.0036276 -0.052437 -0.083676 -0.22441 
0.12825 0.03388 0.0065871 0.039305 0.0070803 0.024673 -0.021363 -0.22425 
0.05624 0.012013 0.011684 0.0072447 0.014808 0.04506 1.0539e-005 -0.20386 
0.047691 0.029276 0.020727 -0.014787 -0.011827 -0.027611 -0.015773 -0.047176 
0.038319 0.026317 0.032893 0.013657 -0.015609 -0.092719 -0.079401 0.17281 
0.038483 0.043416 0.03799 0.0031344 0.0074092 -0.075949 -0.066248 0.27113 
0.050486 0.088136 0.033551 0.017767 0.018754 -0.042901 -0.01528 0.23529 
0.055418 0.049499 0.050321 0.043909 0.060186 0.032564 0.10754 0.14486 
-0.0068948 0.032893 0.041114 0.052623 0.076134 0.085177 0.13549 0.049992 
-0.098802 0.024015 0.011684 0.058213 0.072353 0.12053 0.19829 -0.017088 
-0.12774 -0.0091966 -0.012814 0.021384 0.069064 0.14026 0.21901 -0.037969 
-0.13448 -0.013471 0.004943 0.026974 0.08008 0.15374 0.16919 -0.015938 
-0.39409 0.010533 0.022535 0.057227 0.09126 0.12644 0.064625 0.0047785 
-0.51888 0.028783 0.020069 0.023686 0.085835 0.091918 0.052294 0.01152 
-0.16473 0.03947 0.053281 0.058871 0.094548 0.09422 0.10902 0.058049 
0.30286 0.11477 0.084026 0.065283 0.095864 0.044731 0.1202 0.036017 
0.62955 0.12316 0.062488 0.028125 0.062488 -0.059672 0.022864 0.0024767 
0.70765 0.10524 0.050814 0.04095 -0.00064712 -0.15487 -0.077264 -0.028762 
0.43094 0.072517 0.010204 -0.00031829 -0.013307 -0.182 -0.14254 0.048841 
0.079587 0.0090533 -0.0011404 -0.010512 -0.025967 -0.18216 -0.19153 0.14486 
0.03388 0.021549 -0.040271 0.012013 0.010697 -0.14467 -0.15339 0.14026 
0.080409 0.09833 0.0070803 0.019247 0.070873 0.0082312 -0.084498 0.049992 
0.05065 0.11674 0.052294 0.065447 0.094713 0.20372 0.013986 -0.0026201 
-0.14566 0.10178 0.061666 0.03536 0.096193 0.28379 0.015137 0.017438 
-0.4906 0.04095 0.047855 0.02533 0.058542 0.2121 0.018425 0.013821 
-0.58004 -0.052437 0.051801 0.028619 0.004943 0.018754 0.053938 -0.020212 
-0.33046 -0.042737 0.030592 0.023193 -0.031228 -0.10028 0.13993 0.061666 
-0.22244 -0.029255 0.0042853 0.029276 -0.056055 -0.13399 0.16475 0.039963 
-0.21817 -0.036325 -0.0019624 0.029769 -0.06707 -0.085978 0.030263 -0.11574 
-0.082361 -0.032543 -0.014787 -0.0073881 -0.05885 -0.010676 -0.109 -0.25023 
0.20175 0.068242 0.0079024 0.037004 -0.015773 -0.053095 -0.090417 -0.20781 
0.38129 0.10935 0.035688 0.045718 0.024673 -0.080717 -0.0088678 -0.017253 
0.39937 0.13203 0.085341 0.085835 0.10721 0.022371 0.067749 0.17034 
0.28905 0.16804 0.10589 0.10951 0.11066 0.067749 0.073339 0.21654 
0.14848 0.10195 0.075148 0.062652 0.098001 0.076299 0.085506 0.26406 
0.031578 0.049664 -0.01676 0.032071 0.066763 0.079751 0.11937 0.17676 
-0.020706 0.045882 -0.00015387 -0.041915 -0.010512 0.048184 0.073668 0.11165 
-0.059672 0.043909 -0.00031829 -0.01117 0.067585 0.047855 0.030098 0.052952 
-0.075949 0.034209 0.041278 0.056569 0.13023 0.13171 0.0054362 0.0056006 
-0.065591 0.062652 0.046868 0.026974 0.11559 0.14124 0.018096 0.055418 
-0.072003 0.046211 0.035524 0.039799 0.06331 0.10014 0.059693 0.11231 
-0.082196 0.019905 0.031085 0.038483 0.014972 0.083204 0.092904 0.14141 
-0.11163 0.019247 0.04095 0.013821 -0.054082 0.0059294 0.060022 0.010862 
-0.11393 -0.0019624 0.011355 0.017274 -0.090088 -0.098473 -0.03616 -0.12034 
-0.059836 0.026974 0.013657 0.0042853 -0.064111 -0.17608 -0.10456 -0.21175 
-0.00064712 0.058871 -0.0014692 -0.0031133 -0.033201 -0.19663 -0.084498 -0.23987 
0.03388 0.059528 0.016781 0.0069159 -0.051287 -0.121 -0.038462 -0.12757 
0.053609 0.056898 0.019905 -0.010183 -0.013143 0.022864 0.040456 0.0098754 
0.0592 0.068571 0.038319 0.032564 0.033715 0.12135 0.062159 0.069886 
0.051801 0.06594 0.051965 0.059035 0.064132 0.11313 0.059857 0.1276 
0.039963 0.040785 0.060844 0.064461 0.07038 0.1105 0.0079024 0.28823 
0.031578 0.041607 0.06035 0.056404 0.086492 0.11724 0.010533 0.33985 
0.02533 0.039141 0.021713 0.020233 0.052294 0.092082 0.040785 0.14404 
0.054267 0.028454 0.021713 0.0019835 0.009711 0.032729 0.075805 -0.03501 
0.13976 0.05624 0.029112 0.012177 -0.059507 -0.015116 0.065283 -0.1307 
0.16771 0.06331 0.019411 -0.003771 -0.07825 -0.031392 0.048841 -0.19959 
0.14848 0.071695 0.041936 0.057062 -0.08121 0.009711 0.0689 -0.16851 
0.14387 0.089287 0.046868 0.037497 -0.040764 0.0072447 0.062159 -0.052437 
0.17067 0.078929 0.066763 0.017438 0.021384 0.016781 0.028454 0.10047 
0.18481 0.056569 0.068078 0.052459 0.03388 -0.044052 -0.010512 0.1853 
0.15686 0.046704 0.047197 0.0023123 0.015794 -0.14846 -0.099789 0.10047 
0.058049 0.019576 -0.0004827 -0.0040998 0.038155 -0.12248 -0.18775 -0.0088678 
-0.076935 0.0080668 0.0080668 0.0087245 0.11773 0.028454 -0.08384 0.0052718 
-0.1986 0.0069159 0.005765 -0.0040998 0.13023 0.13302 0.051636 0.032893 
-0.21652 0.0060938 -0.013471 0.051801 0.17281 0.17314 0.19583 0.038483 
-0.13744 0.013492 0.018754 0.044238 0.21506 0.24137 0.35449 0.013986 
0.059528 0.024837 0.039634 0.054267 0.1807 0.19616 0.34347 0.0059294 
0.21128 0.030098 0.051636 0.057884 0.056404 0.05065 0.1442 -0.0090322 
0.20717 0.032729 0.053609 0.015794 -0.047669 -0.0503 -0.094034 -0.02087 
0.17988 0.039634 0.025495 0.0072447 -0.11426 -0.068879 -0.17213 -0.018239 
0.18037 0.073339 0.0059294 -0.003771 -0.13727 -0.11541 -0.14106 0.076627 
0.17955 0.074819 0.032729 0.010697 -0.084005 -0.1159 -0.091239 0.18728 
0.12792 0.035031 0.0095465 0.034702 -0.011992 -0.11771 -0.0055795 0.080244 
0.067091 0.044896 0.01267 0.0083956 0.0227 -0.055561 0.13417 -0.03353 
0.065283 0.038155 0.028783 0.013492 0.048348 0.23627 0.3387 0.035524 
0.050979 0.05065 0.043087 0.0324 0.14075 0.34183 0.28987 0.22444 
0.058542 0.068078 0.067913 0.010369 0.090109 0.22756 0.080902 0.19517 
0.015301 0.044731 0.099152 0.030756 0.12283 0.11132 -0.099953 -0.073318 
-0.063289 0.0083956 0.018096 0.0069159 0.0592 -0.038791 -0.22655 -0.24628 
-0.063289 0.055089 0.017603 -0.0073881 0.016123 -0.14829 -0.17328 -0.091568 
0.034209 0.057555 0.0088889 0.051143 -0.012485 -0.083676 0.087479 0.12644 
0.069064 0.080902 0.042265 0.067913 0.00050378 0.041114 0.27425 0.28313 
0.0421 0.071695 0.034044 0.062652 0.059035 0.083368 0.28198 0.25683 
-0.037805 0.030427 0.037004 0.043745 0.069393 0.071366 0.10063 0.14815 
-0.20123 0.01004 0.035031 -0.0057439 0.031414 0.02829 -0.02646 0.026481 
-0.17904 0.040456 0.038483 0.031414 -0.0013048 0.047033 -0.031228 -0.14944 
-0.11393 0.013986 0.055911 0.028454 0.051801 0.094384 -0.05178 -0.19646 
-0.11985 -0.014129 0.0080668 0.049828 0.10326 0.14157 -0.11113 -0.16786 
-0.093376 -0.00097594 0.0227 0.082875 0.11954 0.097508 -0.10193 -0.15026 
0.053774 0.0044497 0.023028 0.056733 0.10573 0.014315 -0.053917 -0.16243 
0.26357 0.039141 0.042265 0.094713 0.07301 -0.012156 0.024837 -0.091732 
0.5069 0.10047 0.025659 0.0087245 -0.01232 0.016616 0.14256 0.10573 
0.65586 0.10819 0.0092177 -0.046683 -0.084991 -0.020212 0.19879 0.25633 
0.45725 0.070544 0.0060938 -0.038956 -0.11212 -0.060658 0.10639 0.24203 
0.054432 0.046046 0.030098 -0.020706 -0.059343 -0.028269 -0.0019624 0.14371 
-0.24825 0.01711 0.019247 0.020398 0.024508 -0.011992 -0.08121 0.051472 
-0.33276 0.010697 0.026317 0.05213 0.087479 0.0689 -0.065097 0.010533 
-0.31188 0.034866 0.020398 0.062817 0.11346 0.16344 -0.055397 -0.037476 
-0.2277 0.032564 0.040128 0.087314 0.10885 0.14157 0.013657 -0.019555 
-0.095678 0.061666 0.045389 0.058871 0.064461 0.02122 0.12891 0.04358 
0.014972 0.1151 0.062981 0.059035 0.011355 0.019247 0.2486 0.056733 
0.074654 0.09981 0.055911 0.041278 -0.032379 0.053609 0.22312 0.062817 
0.096193 0.084519 0.06594 0.024015 -0.0062372 0.036346 0.077121 0.03651 
0.062652 0.053445 0.061995 0.06742 0.045224 0.039305 -0.025967 0.0069159 
0.0067515 -0.0073881 0.0060938 0.032564 0.040456 -0.023336 -0.061645 0.022535 
0.016945 -0.0011404 0.020233 0.012506 0.016123 -0.11196 -0.091404 -0.0075525 
0.053938 0.048677 0.016781 0.030098 0.0042853 -0.11097 -0.063618 0.018425 
0.074654 0.058377 0.029605 0.021056 0.014479 -0.03501 0.025659 0.036839 
0.033387 0.054267 0.019905 0.012177 -0.040435 -0.022514 0.037168 0.01152 
0.049006 0.049992 0.0090533 -0.0026201 -0.0503 -0.069701 -0.046847 -0.0083746 
0.081067 0.03536 0.025001 0.0062583 0.013328 -0.053588 -0.11952 0.031414 
0.12414 0.010697 0.045553 0.073504 0.077449 -0.0059084 -0.083347 0.1562 
0.13006 0.040128 0.02829 0.042429 0.096521 0.0032988 -0.067564 0.16821 
0.11411 0.062652 0.037332 0.072846 0.041772 0.1003 0.01974 0.063968 
0.096357 0.061501 0.045224 0.088794 0.025659 0.12644 0.097508 0.0034632 
0.12497 0.11411 0.048348 0.04917 -0.026953 0.12743 0.094877 -0.031392 
0.10408 0.061008 0.040292 0.039141 -0.034023 0.075805 0.025001 -0.07414 
0.038483 0.036839 0.01826 0.014479 -0.040764 0.046046 -0.10817 -0.21471 
-0.059343 0.032729 0.027632 -0.0091966 -0.028269 0.044402 -0.081045 -0.2009 
-0.11935 0.025988 0.040128 0.034373 -0.015444 0.0018191 -0.049807 -0.016266 
-0.16917 -0.003771 0.058871 0.004943 0.034209 0.0095465 0.020562 0.11411 
-0.121 0.03947 0.020233 0.017603 0.036675 0.011848 0.065612 0.15818 
-0.081868 0.0087245 0.010697 0.034537 0.06594 -0.0082102 0.040456 0.088794 
-0.069372 -0.00081153 -0.0016336 -0.023172 0.038155 -0.027282 -0.072332 0.016288 
-0.10637 0.017603 0.0041209 0.005765 0.037168 -0.038627 -0.10916 -0.039284 
-0.10784 0.036346 0.048841 0.021713 0.072517 -0.025474 -0.017746 0.0082312 
-0.031392 0.051965 0.074983 0.032071 0.086492 -0.034516 0.080573 0.060515 
0.07449 0.089287 0.070708 0.042265 0.04358 -0.021692 0.10507 0.072846 
0.18021 0.10967 0.084684 0.033551 0.00066819 -0.0077169 0.11806 0.071531 
0.23134 0.076134 0.080573 0.047691 -0.013307 -0.0044286 0.28247 0.079422 
0.24351 0.065776 0.043416 0.047362 -0.0024557 0.045718 0.28182 0.068736 
0.24351 0.020891 0.022371 0.012013 -0.030735 0.0021479 0.14864 0.074819 
0.19813 -0.030899 -0.020706 -0.019555 -0.072496 -0.072003 -0.026296 0.0689 
0.040128 -0.01117 -0.028926 -0.055561 -0.067235 -0.049807 -0.14895 0.061666 
-0.28245 -0.014293 -0.010841 -0.021199 0.01415 -0.00064712 -0.18561 0.07038 
-0.35216 0.0070803 0.023522 0.037497 0.090438 0.035524 -0.11738 0.12973 
0.010204 0.068736 0.070708 0.054925 0.17347 0.16163 0.030263 0.20684 
0.22065 0.10704 0.10228 0.067913 0.17824 0.21737 0.09126 0.097508 
0.27935 0.087643 0.078929 0.022371 0.069722 0.1465 0.063968 -0.079072 
0.2172 0.085506 0.044238 -0.0021268 0.027139 0.069229 0.047197 -0.16555 
0.025988 0.082053 0.051801 0.043909 0.039799 0.047691 0.054596 -0.14829 
-0.20682 0.019411 0.031085 0.0421 0.089123 0.038319 0.020233 -0.07414 
-0.34115 0.01267 0.029769 0.042758 0.086492 0.0031344 -0.0067304 -0.064933 
-0.5151 0.026152 0.023686 0.060844 0.040456 -0.0031133 0.024179 -0.040764 
-0.3834 0.056733 0.041772 0.018918 -0.0055795 -0.040106 0.14996 -0.033201 
0.11609 0.084848 0.054925 0.041936 -0.0032777 0.00297 0.21457 0.011684 
0.47484 0.059528 0.071366 0.024015 0.0034632 0.055089 0.2098 0.073997 
0.58845 0.050814 0.040128 0.0019835 -0.0031133 0.057391 0.15571 0.10014 
0.58976 0.049006 0.017603 0.020727 0.0067515 0.020727 0.079094 0.18465 
0.46086 0.049992 0.029112 0.013492 0.020562 0.0072447 0.025988 0.27113 
0.1932 0.027632 0.021384 0.037332 0.0324 -0.011992 -0.082196 0.19336 
-0.2767 0.014643 0.021878 0.027303 0.029276 -0.040764 -0.17657 0.041936 
-0.69579 -0.023336 0.0059294 -0.0014692 0.028125 -0.02646 -0.23214 -0.089759 
-0.6828 -0.062631 0.022042 0.03388 0.043087 0.013492 -0.15898 -0.11179 
-0.42138 0.0070803 0.041114 0.048513 0.026646 0.0062583 -0.05441 -0.067892 
-0.29297 0.029112 0.051143 0.0075736 0.044238 0.014643 0.022206 -0.055397 
-0.21718 0.0024767 0.03388 0.038319 0.016945 0.076299 0.047197 -0.12675 
-0.0138 0.01152 0.010862 0.020233 0.035195 0.01826 0.028454 -0.13464 
0.31322 0.068407 0.049992 0.026974 0.026974 -0.033859 0.041936 0.020233 
0.50394 0.093069 0.023028 0.014315 0.011684 0.0024767 0.038319 0.18859 
0.51578 0.16048 0.01004 0.018425 0.0018191 0.0088889 0.026152 0.18613 
0.39296 0.1539 0.027468 0.04654 0.0324 0.013821 0.053116 0.040456 
0.24614 0.10326 0.052294 0.03799 0.066269 0.1008 0.19583 -0.051615 
0.11033 0.070873 0.072024 0.05772 0.089945 0.16952 0.32276 0.016288 
0.0090533 0.066927 0.061995 0.072681 0.1031 0.18087 0.25304 0.098001 
-0.053424 0.030098 0.0014903 0.025166 0.06183 0.075641 0.1077 0.083368 
-0.10078 0.013986 -0.006566 0.04506 0.014479 -0.0095255 -0.060987 0.069558 
-0.12182 -0.0082102 -0.029091 0.0085601 0.028619 -0.081045 -0.19761 0.021549 
-0.076442 -0.01676 -0.009361 0.015137 0.040785 -0.026789 -0.12264 -0.053917 
-0.038133 0.035688 0.03092 0.063474 0.052294 0.10228 -0.0040998 -0.18627 
-0.0082102 0.079422 0.052294 0.068078 0.051472 0.12431 -0.034023 -0.22803 
-0.014129 0.046704 0.038155 0.046046 0.029605 0.070708 -0.037476 -0.01117 
-0.008539 0.028619 0.045224 0.030263 0.011026 0.024673 0.0069159 0.21638 
-0.0036066 0.058542 0.043745 0.023193 0.025659 0.018096 0.014972 0.23397 
0.0036276 0.027468 0.034209 0.037004 0.0227 0.017603 0.020069 0.13138 
0.045553 0.054103 0.019905 0.022535 0.029276 0.024673 0.0092177 0.048019 
0.055418 0.06742 0.0062583 0.035031 0.02533 -0.00081153 -0.023007 0.0227 
0.031249 0.056076 0.0082312 0.069558 0.055254 0.023686 -0.17049 0.0014903 
-0.031721 0.041278 0.022206 0.046046 0.076463 0.038155 -0.076606 0.014808 
-0.042737 0.058706 0.011684 0.049006 0.040456 0.057391 0.14338 0.059035 
-0.026953 0.022042 0.030098 -0.013143 -0.03501 0.0090533 0.1932 0.052294 
0.0090533 0.01152 0.039799 -0.017088 -0.068221 -0.03501 0.10622 -0.020048 
0.065118 0.03536 0.02122 0.0023123 -0.075127 -0.012814 0.014972 -0.10982 
0.17297 0.027139 0.017438 0.0095465 -0.034352 0.034373 0.032564 -0.089759 
0.29201 0.02533 -0.0014692 0.031578 0.030756 0.12299 0.11625 -0.021363 
0.40989 0.052787 -0.010676 0.044073 0.062488 0.17363 0.20651 0.029276 
0.44837 0.026317 0.012999 0.017274 0.08863 0.1733 0.17018 0.079258 
0.30039 0.042265 0.025001 0.049499 0.050157 0.050486 0.028619 0.088794 
0.013986 0.11822 0.037661 0.034209 0.017603 -0.059178 -0.06296 0.08419 
-0.12478 0.10359 0.078929 0.040456 -0.009361 -0.027118 -0.015773 0.1225 
-0.054904 0.074654 0.062981 0.058213 -0.025309 0.015794 0.10129 0.13138 
0.071202 0.079587 0.028947 0.032236 -0.018239 0.047362 0.12135 0.097837 
0.077121 0.080409 0.017767 0.037661 0.03092 0.079751 0.034373 0.01563 
0.051636 0.071531 0.022206 0.031907 0.060844 0.040785 -0.015444 0.03092 
0.021384 0.049335 0.015465 0.056898 -0.014951 0.037497 -0.012649 0.15604 
0.012999 0.011848 0.022535 0.077285 0.078107 0.013986 -0.02087 0.21013 
0.094055 -0.006566 0.014808 0.015301 0.044896 -0.0031133 0.0074092 0.12053 
0.17248 0.055418 0.037661 0.004943 0.005765 -0.043395 0.042923 0.012342 
0.19205 0.055582 0.065283 0.049006 0.029441 -0.080881 0.095371 0.0069159 
0.15308 0.066269 0.055911 0.03947 0.031085 -0.063946 0.092576 0.067585 
0.060515 0.077778 0.037826 0.047197 0.024015 0.00050378 0.087314 0.031249 
-0.03616 0.031907 0.016945 0.00099702 0.022371 0.047691 0.061501 -0.037147 
-0.063782 -0.0034422 -0.0019624 -0.014787 0.007738 0.086163 0.071859 -0.053753 
-0.068221 0.027303 0.012999 -0.0068948 -0.046354 0.0083956 0.056076 -0.038133 
-0.063453 0.033058 0.023193 -0.02235 -0.053588 -0.10801 -0.03057 -0.026953 
-0.027282 0.0090533 0.046375 0.00066819 -0.060329 -0.10012 -0.098967 -0.12889 
-0.017911 0.060844 0.064132 0.044896 -0.05178 -0.012649 -0.1279 -0.15865 
0.024179 0.046375 0.093069 0.0592 -0.0052507 0.080738 -0.077757 0.0028056 
0.094548 0.037661 0.043416 0.068571 0.01826 0.10063 0.031085 0.27491 
0.11346 0.076299 0.035853 0.065612 -0.0090322 0.01152 0.14963 0.2925 
0.17182 0.041607 0.032893 0.037168 -0.068221 -0.055068 0.16081 0.17478 
0.25847 0.028947 0.029441 0.038977 -0.093048 -0.0004827 0.1664 0.079422 
0.26439 0.059035 0.021549 0.022042 -0.025802 0.078272 0.16607 0.03651 
0.17758 0.061995 0.025824 0.050814 0.059364 0.076627 0.090109 -0.023665 
0.00066819 0.038648 0.035524 -0.0091966 0.11346 0.033222 -0.012156 -0.066084 
-0.1233 0.040128 0.016288 -0.032543 0.12792 0.069886 -0.067892 -0.056548 
-0.1963 0.027632 0.0079024 0.00083261 0.13269 0.064461 -0.0965 0.010862 
-0.1575 0.017767 0.0023123 0.022371 0.17511 -0.033694 -0.16128 -0.05737 
-0.17558 0.02681 0.010697 0.017932 0.15522 -0.21011 -0.15026 -0.098309 
-0.38768 0.019905 0.020562 0.038155 0.15423 -0.1838 -0.055397 -0.032543 
-0.50605 -0.018239 0.047691 0.056404 0.12776 0.063803 0.013164 0.039963 
-0.31862 0.00033937 0.055582 0.085012 0.099152 0.22378 0.0227 0.0592 
0.0052718 0.041607 0.05065 0.048348 0.025166 0.14913 -0.0040998 0.14042 
0.2902 0.05213 0.060186 0.024015 -0.015444 -0.0031133 -0.0072237 0.24301 
0.40003 0.079094 0.0592 0.048677 -0.02087 -0.10669 0.029276 0.25765 
0.31832 0.095699 0.068078 0.048019 -0.004593 -0.0060728 0.079587 0.1179 
0.12365 0.065612 0.051965 0.077285 -0.0078813 0.069886 0.087479 0.027468 
-0.009361 0.028619 0.02681 0.033715 0.0069159 0.059857 0.075805 -0.025802 
-0.035338 0.046704 0.018096 0.011684 0.037826 0.0064227 0.017932 -0.02794 
-0.02794 0.037168 0.029112 0.033715 0.047691 -0.022514 -0.006566 -0.004593 
-0.0406 0.071037 0.028619 0.01267 0.011848 0.0095465 0.0041209 -0.015116 
-0.062796 0.045553 0.029605 0.012835 -0.0054151 0.051801 0.019576 -0.076113 
-0.11179 0.022206 0.046046 0.02122 -0.010841 -0.013965 -0.064933 -0.34444 
-0.20666 -0.010183 0.034373 0.00083261 -0.041422 -0.13415 -0.21077 -0.53499 
-0.27308 0.00050378 0.018425 0.00033937 -0.032215 -0.15405 -0.15651 -0.30136 
-0.14517 0.010862 0.0037921 -0.023994 0.010533 -0.077428 -0.029091 0.067913 
0.16081 0.01974 0.021878 0.015137 0.09274 0.056733 0.075805 0.23808 
0.35991 0.064625 0.046868 0.042758 0.15341 0.18794 0.17643 0.21835 
0.30335 0.018096 0.038319 0.051472 0.11658 0.22263 0.24005 0.026152 
0.1299 0.0062583 0.028947 0.060515 0.05065 0.087808 0.16821 -0.076442 
-0.022021 0.043416 0.041114 0.025988 0.038483 -0.0016336 0.064954 0.019083 
-0.070194 0.0689 0.045553 0.01826 0.0062583 -0.012978 0.038648 0.19632 
-0.020706 0.061995 0.051143 0.035031 -0.00081153 -0.027775 0.038155 0.26028 
-0.043724 0.085177 0.0075736 0.0088889 0.044731 -0.015938 0.024179 0.24893 
-0.21669 0.048841 0.016123 0.047362 0.070051 0.0023123 -0.10341 0.097015 
-0.52118 0.013164 0.020069 0.042923 0.078436 -0.068057 -0.28163 -0.079237 
-0.51871 0.013986 0.0075736 0.014972 0.083204 -0.088608 -0.34707 -0.12725 
-0.094199 0.042594 0.048348 0.071366 0.098001 0.037661 -0.2282 -0.1182 
0.30664 0.085012 0.073504 0.069393 0.096521 0.16048 0.051143 -0.016266 
0.43291 0.12513 0.10688 0.093726 0.10556 0.30862 0.34972 0.027468 
0.32818 0.094384 0.10672 0.097179 0.14453 0.37504 0.48454 -0.0047575 
0.19418 0.019576 0.037661 0.029769 0.11757 0.28543 0.41433 -0.051615 
0.15111 0.0060938 -0.011663 -0.0091966 -0.055561 0.042923 0.23545 -0.033365 
0.19385 0.004943 -0.011005 -0.037476 -0.14862 -0.1598 0.080902 -0.00015387 
0.19583 0.043416 0.01563 -0.035667 -0.18348 -0.24201 -0.031557 0.042265 
0.1641 0.073339 0.010533 -0.027611 -0.21948 -0.26026 -0.063289 0.040785 
0.089123 0.041114 0.01563 -0.051287 -0.22129 -0.23609 -0.033201 0.069229 
0.09981 0.044896 0.033058 -0.012156 -0.194 -0.078086 -0.02794 0.10162 
0.12151 0.05476 0.053281 0.031085 -0.12363 0.048348 -0.066248 0.12053 
0.070544 0.040292 0.050814 0.040456 -0.045039 0.11822 -0.041915 0.055418 
-0.04882 0.025001 -0.0059084 0.075805 0.063803 0.1465 -0.0057439 -0.023172 
-0.10291 0.03947 0.022864 0.044896 0.14206 0.10606 0.024508 -0.021856 
-0.071181 0.043745 0.024179 0.028783 0.19007 0.024673 0.0098754 -0.026789 
-0.023336 0.020233 0.022535 0.054432 0.14979 0.02829 0.073339 0.021056 
0.014808 0.062159 0.041936 0.045389 0.10343 0.17462 0.1636 0.098659 
-0.016595 0.050814 0.044238 0.055254 0.10754 0.19632 0.19221 0.10704 
-0.026624 0.042429 0.068242 0.064954 0.083697 0.13582 0.1373 0.10211 
0.031578 0.083368 0.073504 0.045882 0.047362 0.066105 0.046704 0.077449 
0.11 0.057227 0.052294 0.066105 0.028619 0.0028056 -0.028104 0.069064 
0.14026 0.069722 0.012506 0.0052718 0.0034632 -0.0050863 -0.013471 0.062652 
0.15012 0.073504 0.0047785 -0.0050863 -0.05441 0.0054362 -0.0042642 -0.058356 
0.11592 0.035031 -0.0019624 1.0539e-005 -0.11952 -0.044052 0.0032988 -0.034023 
0.11362 0.027139 0.0092177 -0.0022913 -0.11343 -0.1159 -0.017417 0.080573 
0.14141 0.06742 0.01152 0.036346 -0.077593 -0.039942 0.026646 0.094548 
0.12332 0.034702 0.020727 0.0032988 -0.053095 -0.0059084 0.11083 0.066269 
0.13368 0.030098 0.029276 0.0098754 0.021713 0.08419 0.14897 0.05476 
0.11477 0.082711 0.069558 0.044073 0.064954 0.17544 0.17741 0.10474 
0.092082 0.065118 0.06035 0.041114 0.089616 0.19237 0.14272 0.097015 
0.036346 0.035524 0.017932 0.027468 0.064625 0.079751 0.10162 0.066269 
0.012177 0.031907 0.022864 0.023028 0.047855 0.047197 0.025001 0.079587 
0.00050378 0.017274 -0.0088678 0.0041209 0.018096 0.00050378 -0.062302 0.076627 
-0.0026201 0.035031 -0.0088678 0.030592 -0.0067304 -0.1011 -0.11064 0.13746 
0.018589 0.048513 0.00033937 0.019247 0.037661 -0.088444 -0.060329 0.19944 
0.0592 0.057884 0.02829 0.064461 0.10425 0.078929 0.044731 0.21704 
0.054925 0.069886 0.056404 0.10721 0.14716 0.1345 0.082546 0.17412 
0.018589 0.10951 0.076299 0.057227 0.14519 0.11313 0.090109 0.072517 
-0.04323 0.038812 0.039963 0.014479 0.079587 0.042923 0.062981 -0.028433 
-0.043066 0.013657 0.018425 -0.0096899 0.016616 0.0075736 0.034044 -0.054904 
-0.028762 0.0090533 0.0088889 0.010533 -0.017253 -0.034845 -0.0091966 -0.065097 
0.011355 0.018425 0.0090533 0.0060938 -0.047998 -0.021363 -0.0868 -0.085649 
-0.048163 -0.0060728 -0.043066 -0.052931 -0.017253 -0.075949 -0.20978 -0.14714 
-0.013636 -0.0054151 -0.0052507 -0.039778 -0.0052507 -0.15076 -0.28558 -0.15816 
0.048019 0.025659 0.037497 0.025166 0.071037 -0.13958 -0.24234 -0.20123 
0.11543 0.051801 0.094713 0.080902 0.20175 0.061172 -0.041257 -0.074469 
0.11592 0.077614 0.092904 0.12431 0.22296 0.17922 0.20372 0.1567 
0.029441 0.067585 0.039141 0.10343 0.13499 0.13993 0.27096 0.25584 
-0.027775 0.027468 -0.014458 0.055911 0.058871 0.071859 0.1853 0.23003 
-0.062467 0.03947 -0.004593 0.058706 -0.014951 0.020233 0.083533 0.10408 
-0.065919 0.061337 0.012999 0.049828 -0.021199 -0.026296 0.01826 0.00017495 
-0.049807 0.047855 0.033222 0.031085 -0.01117 -0.072167 -0.10242 -0.026624 
-0.0022913 0.064954 0.032236 0.025495 -0.010348 -0.041093 -0.1358 -0.050958 
0.030098 0.076627 0.030756 0.024344 0.011191 0.0046141 -0.077264 -0.018404 
0.091096 0.039141 0.046868 0.067091 0.067749 0.068571 -0.0034422 0.071037 
0.1299 0.03388 0.048677 0.04506 0.09422 0.13697 0.040621 0.064461 
0.14733 0.038155 0.047855 0.03092 0.079094 0.047033 0.021549 -0.075455 
0.14174 0.0036276 0.0090533 -0.0019624 0.011848 -0.085156 -0.026131 -0.2739 
0.097508 0.04358 0.011026 -0.036325 -0.047176 -0.13316 0.11707 -0.16424 
-0.029091 0.056076 0.035524 0.0013258 0.0067515 -0.023994 0.27277 0.045553 
-0.14681 0.039634 0.041278 0.017274 0.034209 0.10869 0.26603 0.14502 
-0.1838 0.036182 0.045224 0.018589 0.04358 0.13105 0.095371 0.1733 
-0.11574 0.047197 0.056076 0.045553 0.046868 0.054596 -0.092719 0.11954 
-0.056383 0.026481 0.048019 0.027796 0.077121 0.037497 -0.16095 0.068407 
0.053938 0.036346 0.018425 0.026152 0.075805 -0.012814 -0.17345 0.014479 
0.18646 0.066763 0.018754 0.043909 0.069886 -0.023994 -0.1039 -0.0047575 
0.18185 0.055582 0.031414 0.047526 0.080738 -0.0027845 -0.022843 -0.058685 
0.069886 0.088136 0.021384 0.096521 0.09126 0.085177 0.051801 -0.12725 
-0.0073881 0.053445 0.030592 0.037168 0.060186 0.066763 0.0072447 -0.10768 
-0.016266 0.037661 0.05624 0.040128 -0.0055795 -0.024158 -0.072825 -0.022185 
-0.049149 0.025824 0.057391 0.049992 -0.023172 -0.07973 -0.10406 -0.006566 
-0.034352 0.042265 0.074819 0.0090533 -0.070359 -0.03912 -0.099624 0.0070803 
0.029112 0.037004 0.049335 0.027796 -0.011498 0.011684 0.078436 0.033058 
0.15078 0.056569 0.045553 0.056733 0.026152 0.063145 0.28198 0.065776 
0.13713 0.084848 0.050979 0.031742 0.023686 0.075148 0.41121 -0.004593 
0.068571 0.059693 0.025659 0.020562 -0.0013048 0.046868 0.33985 -0.025309 
0.052459 0.021878 0.0085601 0.00033937 -0.017088 0.033715 0.21523 0.018425 
0.063639 0.047855 0.04095 0.0067515 0.0051074 0.0062583 0.053774 0.061337 
0.069393 0.050814 0.041278 0.009711 0.015301 -0.061809 -0.13695 0.0592 
-0.079566 0.049828 0.03947 0.0051074 0.040456 -0.086636 -0.27029 0.0060938 
-0.060658 0.065447 0.036017 0.024673 0.08304 -0.029748 -0.24727 0.10376 
0.10655 0.056404 0.0031344 0.0034632 0.073339 0.042265 -0.048163 0.15966 
0.19714 0.078107 -0.0027845 0.019576 0.0082312 0.028619 0.074161 0.016616 
0.24976 0.07301 0.0041209 0.030592 -0.049807 0.020727 0.16788 -0.0082102 
0.36337 0.08863 0.0095465 0.023357 -0.035503 0.13417 0.27195 0.29152 
0.37981 0.0786 0.041278 0.070215 0.021713 0.28445 0.28971 0.43143 
0.32506 0.10787 0.058213 0.091918 0.053281 0.24811 0.14617 0.23858 
0.10277 0.04917 0.043416 0.065118 0.024344 0.018754 -0.034845 -0.09387 
-0.53351 -0.046683 0.021713 0.010862 -0.020048 -0.20847 -0.13941 -0.25631 
-0.86908 -0.068386 -0.0034422 -0.041586 -0.021692 -0.21554 -0.11245 -0.27834 
-0.5225 -0.044381 -0.011992 -0.048985 -0.03764 -0.09946 -0.022021 -0.16523 
-0.17246 -0.016431 -0.011498 -0.0031133 -0.021692 -0.022021 -0.0087034 -0.034516 
-0.22211 0.025495 0.030592 -0.016431 0.0080668 -0.060658 -0.062796 -0.023172 
-0.22047 0.012013 0.058871 0.042758 0.034209 -0.012649 -0.05326 -0.10176 
0.10524 0.035195 0.079258 0.068736 0.078765 0.098659 0.069558 -0.048656 
0.34166 0.037661 0.047691 0.055747 0.12316 0.11198 0.13171 0.1368 
0.23134 0.012835 0.017274 0.041278 0.095206 0.078765 0.055254 0.18333 
0.0037921 0.022206 0.019576 0.0098754 0.059857 0.062159 -0.0062372 0.17462 
-0.062631 0.079258 0.052459 0.063803 0.04095 0.085012 0.059528 0.20109 
0.045224 0.10606 0.046046 0.092411 0.030756 0.11855 0.23825 0.18267 
0.13861 0.086985 0.037826 0.048348 0.024344 0.020398 0.23808 0.14749 
0.13664 0.077614 -0.014622 0.018589 -0.015116 -0.049314 0.065447 0.096357 
0.065447 0.036182 -0.033859 -0.036489 -0.069208 -0.071345 -0.073976 0.052294 
0.0065871 0.013657 -0.036983 -0.051287 -0.10423 -0.042573 -0.065919 0.077285 
0.031249 0.045389 0.0016547 -0.020212 -0.069043 0.015794 -0.025638 0.062981 
0.12135 0.045553 0.044402 -0.019884 -0.010512 0.033222 -0.0077169 0.019083 
0.17412 0.045224 0.054596 0.016288 0.073668 0.028947 -0.049149 0.05213 
0.16755 0.063639 0.03536 0.062817 0.10113 0.017603 -0.083512 0.12168 
0.087808 0.02122 0.034373 0.049006 0.10277 0.030098 -0.047998 0.097672 
0.065118 0.012013 0.020069 0.093562 0.078929 0.08863 0.010862 -0.013965 
0.091753 0.01415 0.025988 0.06479 0.068736 0.18678 0.066763 -0.097487 
-0.021199 0.02681 0.019411 0.046211 0.089123 0.18909 0.064296 -0.099953 
-0.27341 0.025001 0.013986 0.062323 0.063145 0.14782 0.039305 -0.089102 
-0.43174 0.037826 0.024508 0.031578 0.029769 0.086163 0.039963 -0.011827 
-0.30876 0.0067515 0.060679 0.029441 -0.0011404 0.026646 0.028947 0.034373 
-0.16292 -0.023665 0.037332 0.0021479 -0.067399 -0.083676 0.0014903 0.018096 
-0.22392 -0.0095255 0.023686 -0.033859 -0.12741 -0.16391 -0.013636 0.049992 
-0.1427 0.0039565 1.0539e-005 -0.0070593 -0.10275 -0.14056 -0.012978 0.076463 
0.10129 0.055582 0.029605 0.018918 0.0064227 -0.023994 -0.029748 0.05476 
0.28478 0.11543 0.040456 0.028783 0.10441 0.077449 -0.025967 -0.074798 
0.31914 0.10145 0.044238 0.047855 0.13516 0.10359 0.00033937 -0.12281 
0.29267 0.072681 0.031578 0.023522 0.084026 0.03536 0.053116 -0.014458 
0.34347 0.11543 0.061666 0.060186 0.047691 0.048677 0.091096 0.061501 
0.38984 0.074983 0.063803 0.041607 0.022206 0.08156 0.083533 0.092411 
0.36353 0.054925 0.039963 0.033222 0.0227 0.085999 0.0592 0.071859 
0.19961 0.082711 0.016616 0.025166 0.052294 0.086657 0.043745 0.057884 
-0.04619 0.062159 0.027796 0.030263 0.08304 0.07038 -0.0026201 0.11855 
-0.19498 0.048348 0.037661 0.051472 0.06479 0.073668 -0.0016336 0.084355 
-0.12708 0.067913 0.020233 0.028125 0.016288 0.01711 0.01563 0.059857 
0.00033937 0.063474 0.010862 -0.0036066 -0.018568 -0.019061 0.0090533 0.024508 
0.072353 0.042429 0.024508 0.039799 -0.025967 -0.01232 -0.040764 -0.028597 
0.10869 0.053774 0.04917 0.024673 -0.021856 -0.032708 -0.0059084 -0.029748 
0.18728 0.061995 0.056404 0.040292 0.027303 0.0069159 0.02829 -0.0138 
0.26143 0.070544 0.046046 0.079916 0.062323 0.080409 0.027139 0.0082312 
0.29694 0.095864 0.0324 0.042265 0.066927 0.082053 0.047855 0.030592 
0.22279 0.099974 0.039963 0.069229 0.053116 0.078765 0.10178 0.074819 
0.080244 0.067585 0.040456 0.054267 0.044238 0.054267 0.1345 0.077449 
0.00297 0.050979 0.022042 0.023686 -0.031228 0.078107 0.071695 0.011848 
-0.042408 0.042758 0.0098754 0.029276 -0.058521 0.046704 -0.025474 -0.026296 
-0.044546 0.042594 0.023193 0.01004 -0.03501 0.028783 -0.089924 -0.042737 
0.0041209 0.073339 0.039963 0.029934 -0.0013048 0.019083 -0.14385 -0.041257 
0.012342 0.082382 0.055747 0.0592 0.079916 0.021713 -0.19515 -0.036325 
-0.025145 0.040292 0.02829 0.03799 0.078107 0.055582 -0.20682 -0.07266 
-0.078415 0.020562 0.027961 0.08008 0.077121 0.10704 -0.034516 -0.074633 
-0.069865 0.029112 0.0065871 -0.0052507 0.033551 0.00099702 0.084355 -0.18824 
0.038648 0.014479 0.0051074 -0.015938 -0.006566 -0.16605 0.30335 -0.070687 
0.10655 1.0539e-005 0.016781 -0.035667 -0.026953 -0.13991 0.43998 0.24055 
0.15505 0.05065 0.057062 -0.0021268 0.038812 -0.14418 0.34117 0.31207 
0.1276 0.043416 0.062817 0.062981 0.054267 -0.039449 0.19385 0.23858 
0.1391 0.039634 0.07597 0.042594 0.058542 0.035195 0.088958 0.084519 
0.24367 0.030756 0.0056006 0.011684 0.031249 0.13615 0.016288 0.066763 
0.25814 -0.0014692 -0.015609 0.018918 -0.0022913 0.17511 -0.13021 0.06331 
0.171 0.028619 -0.010841 0.036839 -0.0064016 0.12217 -0.19383 -0.0050863 
-0.019884 0.084355 0.028619 0.039963 -0.014622 0.053774 -0.058356 -0.023665 
-0.21932 0.082875 0.042265 0.058049 0.017274 0.045718 0.08978 -0.023501 
-0.26601 0.036675 0.039634 0.040785 0.052952 0.0689 0.12398 -0.058521 
-0.15602 0.056733 0.063968 0.071037 0.07449 0.072517 0.023357 -0.14467 
-0.065755 0.030263 0.0421 0.026152 0.046375 -0.072825 -0.025802 -0.10308 
-0.040928 0.009711 0.038155 -0.0098543 -0.0026201 -0.20534 -0.069701 0.0080668 
-0.042079 0.026646 0.0083956 0.018589 0.009711 -0.20666 -0.12823 -0.053753 
0.028783 0.027303 0.013164 0.007738 0.01826 -0.057205 -0.12429 -0.076771 
0.15028 0.0098754 -0.0090322 -0.015609 0.029934 -0.033859 -0.049807 0.059528 
0.25173 0.069558 0.0227 0.036182 0.036839 0.011848 0.08008 0.24071 
0.11395 0.090109 0.025659 0.062488 0.072846 0.10376 0.17445 0.2805 
-0.13645 0.075312 0.058377 0.080409 0.082053 0.12135 0.18794 0.16755 
-0.20386 0.056569 0.071531 0.013657 0.047691 0.0324 0.11231 0.066927 
-0.13514 0.0067515 0.048019 0.0062583 -0.0047575 -0.038791 0.060022 0.024015 
-0.032872 0.014808 0.045553 0.0064227 -0.015938 -0.012485 0.047526 0.023028 
0.076463 0.030427 0.013164 0.0075736 0.016781 0.041936 0.076792 -0.0032777 
0.17824 0.034866 -0.0077169 0.015465 0.027632 0.061008 0.080244 -0.018075 
0.15999 -0.00015387 -0.0036066 0.019411 0.0421 0.061337 0.13351 -0.025309 
0.08978 -0.011334 -0.0138 -0.0059084 0.075148 0.096686 0.25633 -0.015773 
0.017274 -0.011498 -0.0021268 0.016616 0.058213 0.12316 0.25978 0.007738 
-0.043066 0.0039565 0.0093821 -0.0087034 0.017274 0.069722 0.12414 0.05772 
-0.17328 0.063968 0.03388 -0.011334 -0.030735 -0.053095 -0.028433 0.047362 
-0.33178 0.034373 0.062817 0.017767 -0.02794 -0.12083 -0.1427 0.02122 
-0.22359 0.03536 0.049828 0.02533 -0.004593 -0.10982 -0.1963 0.046211 
-0.045203 0.077449 0.047362 0.057884 0.083533 -0.054246 -0.22129 0.034537 
0.044238 0.053774 0.02533 0.049335 0.10047 -0.015116 -0.16457 0.041114 
0.06479 0.035853 0.029769 0.025988 0.031414 0.01267 -0.086964 0.039799 
0.11132 0.041114 0.0031344 -0.0082102 -0.047669 0.014479 0.013821 0.16031 
0.096357 0.042923 0.013821 -0.01676 -0.053753 0.087643 0.079587 0.18481 
0.1077 0.060515 0.049335 0.036017 0.0075736 0.19254 0.14026 0.13647 
0.065118 0.086328 0.061172 0.043087 0.048184 0.15505 0.12661 0.021384 
0.0041209 0.075641 0.086657 0.050486 0.11231 0.094713 0.043251 -0.17986 
-0.060658 0.025166 0.026646 0.077778 0.14963 0.083533 0.031742 -0.33375 
-0.052602 0.027632 0.019905 0.031249 0.10852 0.034866 0.091753 -0.2277 
0.021713 0.031414 0.014643 0.047526 0.080244 0.01974 0.13467 -0.026953 
0.07038 0.09274 0.040621 0.064132 0.094548 0.10425 0.1026 0.14782 
0.11822 0.078107 0.045224 0.041772 0.053938 0.13516 -0.052931 0.20964 
0.085177 0.069558 0.021878 0.044896 0.038648 0.046375 -0.15388 0.21441 
0.094713 0.037661 0.012013 -0.0016336 0.048677 0.0021479 -0.16194 0.17807 
0.1151 0.061995 0.019905 -0.019555 0.028783 -0.012649 -0.039449 0.15949 
0.081231 0.036017 0.024508 0.0052718 -0.041751 -0.13629 0.017603 0.16722 
0.022535 0.021549 0.020398 -0.00064712 -0.065097 -0.15503 0.035524 0.070215 
-0.075784 0.014808 0.01711 0.029605 -0.094199 1.0539e-005 0.055254 -0.015609 
-0.1986 0.05065 0.039141 0.055747 -0.05885 0.15818 0.11757 -0.06148 
-0.2859 0.026481 0.066105 0.051801 -0.037147 0.14963 0.13056 -0.067892 
-0.28804 0.011848 0.018589 0.062488 0.01415 0.047855 -0.014787 -0.0138 
-0.14599 -0.0088678 0.024015 0.045224 0.057062 -0.025309 -0.0965 0.0062583 
0.059364 0.024673 0.041278 0.034866 0.076792 -0.028433 -0.088115 -0.045203 
0.21227 0.086328 0.068242 0.074161 0.12085 0.0054362 -0.020541 -0.085156 
0.19468 0.088301 0.055911 0.045882 0.10672 0.015137 0.018589 -0.073482 
0.15045 0.052294 0.019905 0.025824 0.081889 0.00297 0.029112 -0.025309 
0.13319 0.054267 0.0067515 0.0028056 0.061337 -0.034023 0.060186 0.030756 
0.098988 0.053281 -0.020212 -0.023336 0.012013 0.020562 0.028947 0.13746 
0.016452 -0.001798 -0.0004827 -0.010348 -0.0771 -0.048492 -0.1062 0.12661 
-0.02235 0.011191 0.0070803 -0.04323 -0.11985 -0.14237 -0.17986 0.01415 
0.023357 0.036182 0.01004 -0.060165 -0.1062 -0.1524 -0.093705 -0.050136 
0.11346 0.072024 0.039305 -0.0042642 -0.028926 0.010533 0.11083 0.0082312 
0.20602 0.14535 0.099974 0.093069 0.12727 0.30072 0.32999 0.16327 
0.19106 0.13203 0.11214 0.20405 0.24186 0.45494 0.40447 0.2292 
0.10639 0.079587 0.0786 0.1419 0.19912 0.28823 0.22986 0.10343 
-0.014293 0.040128 0.020562 0.061995 0.086328 0.034044 0.0013258 0.048348 
-0.041257 0.016616 -0.020377 0.01415 -0.023665 -0.11903 -0.10916 -0.02646 
-0.040271 -0.008539 -0.010019 -0.027447 -0.11475 -0.16342 -0.1233 -0.05326 
0.016288 0.013328 -0.0029489 -0.016595 -0.13744 -0.11163 -0.096829 0.015959 
0.057884 0.041114 0.014643 -0.0040998 -0.071838 -0.067399 -0.045532 0.024508 
0.047197 0.044238 0.031742 0.01826 -0.0067304 -0.052602 -0.049642 -0.02498 
0.035853 0.049335 0.035853 0.048184 0.043251 -0.080059 -0.063782 -0.16111 
0.021549 0.031414 -0.006566 0.0065871 0.072353 -0.090088 -0.089924 -0.24645 
0.03536 0.027796 0.0034632 -0.0024557 0.042429 -0.053753 -0.02235 -0.098309 
0.071695 0.024179 -0.0022913 0.014808 0.027632 -0.024652 0.098001 0.071859 
0.069722 0.051965 0.021878 0.005765 0.038648 -0.010512 0.16508 0.15768 
0.069722 0.04358 0.045224 0.035853 0.038648 0.06035 0.18202 0.14026 
0.071695 0.066434 0.052459 0.013986 0.025824 0.14042 0.092082 0.021056 
0.069722 0.075148 0.060186 0.038648 0.029605 0.11691 0.03799 -0.031392 
0.10096 0.06742 0.066598 0.072517 0.012835 0.068078 0.024837 0.073997 
0.080573 0.063968 0.058049 0.037168 0.041443 0.032564 0.08567 0.24893 
0.095206 0.047526 0.048019 0.03947 0.058377 0.023686 0.10573 0.23118 
0.036017 0.0421 0.037004 0.044073 0.058871 0.029112 0.076792 0.12102 
0.034044 0.03799 0.0421 0.020562 0.059857 0.037004 0.020562 0.01711 
0.1179 0.067913 0.029934 0.045224 0.021384 -0.0052507 -0.036489 -0.068057 
0.22361 0.081231 0.030756 0.026974 0.015959 -0.034352 -0.077264 -0.073647 
0.23808 0.080244 0.053445 0.038812 0.0044497 0.046704 -0.10817 -0.062631 
0.20208 0.06742 0.057062 0.077121 0.020727 0.19599 -0.045861 -0.012485 
0.13894 0.045553 0.046046 0.027632 0.056569 0.27064 0.067585 0.015465 
0.13253 0.031085 -0.0064016 0.023686 0.033551 0.29004 0.19961 -0.039778 
0.088465 0.029441 1.0539e-005 0.0092177 0.028125 0.18004 0.24104 -0.02942 
-0.27999 -0.029091 -0.010676 0.004943 0.02681 0.055418 0.15242 -0.040106 
-0.61654 -0.054739 -0.0049219 0.024508 -0.011005 -0.063618 0.03651 -0.01939 
-0.43684 0.015959 0.032071 -0.017417 -0.014293 -0.17904 -0.071016 0.045553 
-0.095185 0.065118 0.047855 -0.0019624 0.0079024 -0.25828 -0.17345 0.072846 
0.15604 0.087314 0.063145 -0.0019624 0.066105 -0.17082 -0.16818 0.070051 
0.24959 0.10326 0.054432 -0.020377 0.11 -0.012485 -0.075291 0.055254 
0.25502 0.065776 0.051801 0.028125 0.092411 0.082875 0.029769 0.066434 
0.18826 0.024179 0.031742 0.0324 0.12332 0.18695 0.13582 0.12168 
0.20536 0.042758 0.060679 0.053281 0.12431 0.24992 0.24088 0.15719 
0.23298 0.037661 0.0786 0.075148 0.078929 0.171 0.329 0.15851 
0.23183 0.011684 0.029934 0.051801 0.0021479 0.054432 0.20438 0.071037 
0.20832 0.033387 0.0062583 0.041443 -0.055232 -0.0039354 0.00297 -0.18298 
0.16969 0.036182 0.0069159 0.021878 -0.050464 0.013986 -0.14385 -0.33112 
0.033222 0.064954 0.046375 0.030427 0.011684 -0.010676 -0.19531 -0.17049 
-0.10752 0.098166 0.087972 0.091425 0.057884 -0.023501 -0.20978 0.075476 
-0.18265 0.057062 0.036839 0.058542 0.064132 0.038977 -0.13941 0.089452 
-0.30054 0.0067515 0.016452 0.041443 0.050979 0.048677 -0.043724 0.054267 
-0.38061 0.019247 0.0092177 0.012013 0.025988 0.017274 0.09685 0.13483 
-0.35463 0.0018191 -0.021363 -0.036983 -0.034188 0.012835 0.29234 0.14469 
-0.11968 0.025166 -0.0072237 -0.0075525 -0.030406 0.038319 0.36813 0.13006 
0.1003 0.071695 0.022206 0.0041209 0.0090533 0.12612 0.3119 0.069722 
0.21408 0.06479 0.045389 0.020398 0.066269 0.14601 0.1054 0.027139 
0.24564 0.041443 0.058871 0.039799 0.095042 0.019411 -0.10094 -0.0050863 
0.31141 0.055911 0.060515 0.022206 0.056569 -0.048327 -0.11886 0.046375 
0.35531 0.03092 0.046211 0.045389 0.038977 -0.001798 0.0087245 0.14798 
0.28395 0.052952 0.042429 0.041443 0.040621 0.025988 0.039634 0.15489 
-0.020706 0.076956 0.057555 0.033387 0.030098 0.0026412 0.0026412 0.021713 
-0.24086 0.013164 0.019905 0.032071 0.0067515 -0.05589 -0.034023 -0.089266 
-0.21504 -0.042737 -0.014951 -0.015444 -0.021692 -0.10341 -0.064604 -0.13251 
-0.1205 -0.0004827 -0.0078813 0.0070803 0.026317 -0.08828 -0.048327 -0.074633 
-0.0083746 0.03651 0.018754 0.043909 0.053116 -0.006566 0.015794 -0.017088 
0.024179 0.054596 0.062488 0.028783 -0.0078813 -0.0013048 0.058871 0.0083956 
-0.001798 0.094055 0.053938 0.035195 0.011355 0.0074092 0.074326 0.058542 
-0.029748 0.041278 0.015959 0.028619 -0.018897 0.00083261 0.072353 0.17462 
0.0075736 0.047526 0.019576 0.012835 0.0031344 0.020891 0.091753 0.27886 
0.047362 0.071695 0.037497 0.037826 0.046704 0.04095 0.09126 0.14174 
0.036182 0.044402 0.043251 0.034866 0.090603 0.086328 0.071531 -0.034681 
0.018425 0.039141 0.021713 0.039141 0.083697 0.058213 0.047526 -0.06 
-0.018404 0.027632 0.0092177 0.04506 0.037826 0.050814 0.038319 -0.01117 
-0.048327 -0.0034422 0.020891 0.023193 -0.0011404 -0.023501 -0.0083746 0.020398 
-0.0075525 0.032236 0.041607 0.05213 -0.0042642 -0.081374 -0.0406 0.038155 
0.05772 0.12875 0.013328 0.045389 -0.03764 -0.089431 -0.029255 0.10787 
0.072681 0.091918 0.027139 0.020562 -0.022514 -0.0771 0.010533 0.14026 
0.062817 0.062159 0.042758 0.048184 -0.012156 -0.038462 -0.026953 0.02829 
0.08715 0.066269 0.037826 0.039634 0.046046 0.0014903 -0.10472 -0.23083 
0.10704 0.024015 0.024837 0.032893 0.064132 0.046046 -0.1182 -0.28574 
0.044731 0.030427 0.023851 0.043909 0.056898 0.10902 -0.023172 -0.070852 
-0.030406 0.044238 0.028783 0.027468 0.04358 0.15472 0.079094 0.12036 
-0.024487 0.040456 0.054267 0.067749 -0.0057439 0.098823 0.16985 0.1562 
0.055747 0.029605 0.053281 0.018754 -0.028926 -0.0083746 0.1641 0.20898 
0.09422 0.053774 0.013164 1.0539e-005 -0.028104 -0.019555 0.091753 0.12743 
0.082875 0.066269 0.023193 0.031742 0.048677 0.061995 0.026317 0.070051 
0.01004 0.027961 0.0059294 0.045718 0.10836 0.087479 0.0031344 0.053445 
-0.063453 0.005765 -0.0052507 0.048184 0.08156 0.007738 -0.033859 0.018096 
-0.057534 0.0072447 -0.0047575 -0.015609 -0.0088678 -0.12609 -0.14106 -0.035503 
0.015301 0.041607 0.0324 -0.038791 -0.06296 -0.1769 -0.17706 -0.037969 
0.034373 0.072681 0.073175 -0.018075 -0.065591 -0.14484 -0.13284 0.048348 
0.046211 0.082053 0.09685 -0.011334 -0.016266 -0.014458 -0.091239 0.11033 
0.013986 0.038483 0.066927 0.0062583 0.02533 0.033715 -0.071838 0.048019 
0.019576 0.042429 0.028619 0.044073 0.070544 0.0011614 -0.06707 -0.040928 
0.065118 0.063968 0.0064227 0.044567 0.06742 0.005765 -0.0044286 -0.038133 
0.12003 0.03092 0.021056 0.063803 0.042265 0.057555 0.079094 0.034866 
0.13483 0.044567 0.031249 0.038648 0.028454 0.086163 0.12628 0.086492 
0.075148 0.044731 0.024508 0.040128 0.014808 0.072846 0.13532 0.078929 
0.031578 0.043909 0.013986 0.061008 0.01415 0.024673 0.11033 0.069393 
-0.004593 0.048348 0.03799 0.026974 0.0079024 -0.0075525 0.088958 0.021384 
0.01974 0.072681 0.062981 0.035688 0.016616 0.0044497 0.082382 -0.0059084 
0.023193 0.050486 0.042265 0.034209 -0.003771 0.067913 0.083697 -0.008539 
0.017274 0.08715 0.04506 0.016945 -0.014622 0.065612 0.027632 -0.020706 
0.045553 0.050814 0.016123 0.041936 -0.022843 0.047033 -0.033201 -0.050136 
0.096357 -0.0036066 0.015301 0.039305 -0.001798 0.073668 -0.033201 -0.015116 
0.081724 0.039963 0.027468 0.014808 -0.0004827 0.015137 0.023193 0.071531 
0.17396 0.054596 0.038483 0.026974 0.024015 -0.0052507 0.042265 0.10737 
0.1391 0.051636 0.045553 0.0082312 0.063803 0.015959 0.026974 0.092411 
-0.02087 0.052623 0.064132 0.046375 0.11198 0.056076 0.084519 0.048677 
-0.16523 0.066105 0.077285 0.059857 0.17478 0.10869 0.052952 0.013821 
-0.16046 0.039634 0.02122 0.029441 0.17774 0.076627 -0.038298 -0.025638 
0.01004 0.025988 0.012506 0.031414 0.13269 0.066105 -0.081539 -0.014622 
0.11559 0.039305 0.014643 0.01004 0.095042 0.066105 -0.047341 -0.033694 
0.18448 0.030263 0.027796 0.03947 0.09422 0.066763 -0.049642 -0.090746 
0.14239 0.034702 0.027468 0.052294 0.066434 0.014808 -0.048985 -0.095843 
0.098823 0.057062 0.034373 0.048019 -0.016924 -0.06 0.059693 0.044402 
0.016123 0.028947 0.04917 0.05476 -0.09798 -0.083676 0.1294 0.15094 
-0.12231 0.016452 0.0421 0.021713 -0.16786 -0.0503 0.09685 0.13319 
-0.14665 0.059528 0.031578 0.0088889 -0.12018 -0.016924 0.11855 0.10852 
-0.02087 0.06331 0.021878 0.045718 -0.018404 0.030427 0.21293 0.11674 
0.033387 0.057884 0.030756 0.041443 0.025166 0.099152 0.22542 0.090274 
0.028947 0.081889 0.053609 0.061666 0.059528 0.17347 0.17363 0.057884 
0.037826 0.047033 0.034209 0.049335 0.074326 0.22707 0.094713 0.0090533 
0.079094 0.023357 0.038155 0.046046 0.11625 0.17725 0.010533 0.0014903 
0.17297 0.069393 0.040128 0.055747 0.12168 0.11 -0.04323 0.0056006 
0.29628 0.015465 0.031085 0.0079024 0.076463 -0.034845 -0.051287 -0.021199 
0.33607 0.01152 0.049335 -0.028926 0.037168 -0.069536 -0.0082102 -0.049642 
0.1853 0.028619 0.012999 0.027632 0.077614 0.040128 -0.01676 -0.093212 
-0.02087 0.007738 0.03092 0.049499 0.12957 0.083368 -0.057041 -0.078579 
-0.15816 0.05065 0.027303 0.077614 0.13532 0.03651 -0.032379 -0.020706 
-0.12182 0.10211 0.021713 0.0324 0.077121 -0.053917 0.049664 0.047526 
-0.046354 0.065283 0.013986 0.025824 0.037168 -0.10554 0.10852 0.071695 
-0.0083746 0.04506 0.024344 0.046046 0.024179 -0.034681 0.1391 0.04358 
-0.035667 0.053938 0.055747 0.026646 0.071037 0.076299 0.11148 0.050157 
-0.077264 0.046704 0.071037 0.049335 0.076956 0.11822 0.086492 0.04358 
-0.068879 0.031742 0.047033 0.029934 -0.013965 0.054432 0.057062 0.085341 
-0.024816 0.047197 -0.0016336 0.018918 -0.089102 -0.023665 0.044896 0.089945 
0.018754 0.015465 -0.019719 0.034209 -0.043559 0.033551 0.10474 0.083697 
0.076299 0.068078 0.020233 0.068571 0.074819 0.21062 0.23808 0.12677 
0.14437 0.11066 0.043745 0.069064 0.073339 0.25419 0.24926 0.095699 
0.23594 0.080573 0.048019 0.056569 0.015794 0.1636 0.11066 0.051308 
0.2588 0.020562 0.035031 0.0016547 -0.028597 0.015959 -0.00015387 0.020562 
0.20684 0.022042 0.042758 -0.0021268 -0.02498 -0.11755 -0.1381 -0.057041 
0.14716 -0.010676 -0.0024557 -0.041422 -0.056219 -0.17558 -0.1381 -0.023007 
0.14141 0.0087245 -0.0040998 -0.022185 -0.068221 -0.22162 -0.12757 0.0052718 
0.13072 0.096193 0.017767 0.015959 0.0227 -0.087622 -0.021363 0.035195 
0.068571 0.083533 0.047691 0.050321 0.095864 0.1174 0.073997 0.05624 
-0.17509 0.046704 0.022042 0.039141 0.098001 0.14387 0.06035 0.01004 
-0.58366 0.013328 -0.0019624 0.032729 0.063639 0.086163 0.034044 -0.038627 
-0.66323 -0.016102 0.0067515 0.0044497 0.0051074 0.0044497 0.0014903 -0.030242 
-0.27407 -0.037969 0.017767 0.0087245 -0.012649 -0.062467 0.012342 -0.017911 
0.20947 0.046704 0.050157 0.028619 0.0060938 -0.020048 0.031907 0.057227 
0.43012 0.089287 0.055254 0.020398 0.01267 0.0075736 0.11444 0.13516 
0.46892 0.12349 0.050321 0.020727 0.016123 0.026646 0.077449 0.20717 
0.29842 0.08567 0.012999 -0.014129 -0.027447 -0.039449 0.025001 0.17708 
0.026152 0.025001 0.014808 0.017767 -0.0096899 -0.066413 -0.0029489 0.035031 
-0.045532 0.010533 0.019576 0.031414 -0.025802 0.016288 0.0054362 0.070544 
0.045882 0.062981 0.016616 0.00033937 -0.010348 0.054103 0.044073 0.12891 
0.082382 0.061501 0.019083 0.034209 0.0013258 0.053774 0.031578 0.085835 
0.055582 0.027632 0.032236 0.0082312 0.0060938 0.013328 -0.0011404 -0.015444 
-0.10965 0.037497 0.061501 0.01415 0.026481 -0.054904 -0.06148 -0.055068 
-0.16687 0.043416 0.062488 0.061501 0.071366 -0.098309 -0.058685 -0.025802 
-0.07973 0.055911 0.010697 0.042594 0.063639 -0.037311 -0.031392 0.018589 
-0.004593 0.058871 0.014808 0.042265 0.071859 0.09833 -0.059672 -0.11738 
-0.0078813 0.030592 0.012342 -0.003771 0.0324 0.12628 -0.10423 -0.23477 
-0.027118 0.010697 0.026152 0.004943 0.046375 0.09126 -0.10982 -0.045532 
-0.010676 0.032071 0.04917 0.058706 0.047855 0.073832 -0.047669 0.17051 
-0.014787 0.06742 0.067913 0.056404 0.03092 0.032564 0.032071 0.12365 
-0.023829 0.034866 0.039305 0.03947 -0.0034422 -0.020541 0.046046 0.01563 
-0.022021 0.023686 0.034702 -0.0052507 -0.074304 -0.051451 0.072024 -0.037147 
0.019083 0.011026 0.00099702 -0.030735 -0.096336 -0.038956 0.23627 -0.061809 
0.043909 0.010369 0.010369 -0.01117 -0.090417 0.029276 0.29628 -0.08121 
0.043251 0.015137 0.03947 -0.01939 -0.036983 0.08567 0.15785 -0.0042642 
0.056898 0.023193 1.0539e-005 0.0052718 -0.0024557 0.09422 -0.02942 0.13105 
0.13384 0.018425 -0.0070593 0.040292 0.049828 0.060844 -0.19548 0.16048 
0.20175 0.073175 0.017274 0.029769 0.090438 -0.060165 -0.28738 0.12036 
0.16344 0.092082 0.039799 0.059857 0.11905 -0.091239 -0.24924 -0.009361 
0.088794 0.08419 0.060679 0.048513 0.14519 -0.035996 -0.082361 -0.048985 
0.1026 0.096521 0.10458 0.0786 0.15028 0.0324 0.10754 0.019905 
0.12102 0.083862 0.047362 0.088794 0.10244 0.019083 0.076463 0.12217 
0.077614 0.059857 0.040621 0.048677 0.030756 -0.060987 -0.046354 0.14667 
-0.018568 0.0070803 0.013328 0.042265 -0.046025 -0.15059 -0.04471 0.10063 
0.017603 0.067749 0.031742 0.017438 -0.072167 -0.11245 -0.011827 -0.021856 
0.022535 0.077121 0.0592 0.04095 -0.0062372 0.04654 0.026974 -0.087293 
-0.011498 0.050321 0.041443 0.05476 -0.01528 0.17445 0.096193 -0.095843 
-0.28031 0.016123 0.082217 -0.0044286 0.013164 0.24976 0.16245 -0.14287 
-0.43289 0.0021479 0.045882 0.022042 0.023851 0.18909 0.096028 -0.17032 
-0.12659 -0.011334 0.054596 0.034044 0.048513 0.11559 0.055582 -0.11426 
0.28971 0.0095465 0.031249 0.017932 0.10836 0.04654 0.11526 -0.00081153 
0.28889 0.015959 0.034537 0.035853 0.15785 0.04358 0.12924 0.13795 
-0.109 -0.013471 0.0014903 0.024179 0.18942 0.058706 0.053281 0.17396 
-0.30843 0.0019835 0.0042853 0.0421 0.16804 0.064296 -0.013636 0.14404 
-0.1381 0.023357 0.012013 0.079094 0.090603 0.034373 -0.026953 0.06479 
0.18103 0.081724 0.047855 0.066434 0.034866 0.031907 0.0039565 0.074983 
0.4071 0.13516 0.063639 0.075476 0.004943 0.051965 0.007738 0.076463 
0.39806 0.10573 0.051636 0.050321 -0.0027845 0.074654 -0.017746 0.061995 
0.23907 0.040621 0.049664 0.0060938 0.030098 -0.0080457 0.020727 0.067585 
0.13615 0.036839 0.031578 0.022535 -0.0062372 -0.078744 0.13532 0.047033 
0.073997 -0.0019624 -0.014787 -0.031557 -0.07973 -0.12593 0.19073 -0.011498 
-0.038462 -0.013471 0.0054362 -0.05326 -0.12873 -0.11919 0.17643 -0.070359 
-0.13432 0.01267 0.0070803 -0.0062372 -0.065426 -0.066413 0.11888 -0.0059084 
-0.13349 0.066269 0.03799 0.01711 -0.0026201 -0.016924 0.045882 0.10606 
-0.038791 0.077449 0.082217 0.044896 0.058213 0.027139 -0.0091966 0.14946 
0.052623 0.10573 0.088794 0.056733 0.063803 0.033715 -0.11113 0.15275 
0.069722 0.073832 0.062981 0.052952 0.090767 0.072024 -0.18249 0.071037 
0.049499 0.049828 0.039141 0.083697 0.11148 0.13516 -0.11064 0.01415 
0.10622 0.032893 -0.0083746 0.04095 0.056898 0.15374 0.065118 0.012342 
0.1853 0.00297 -0.0073881 -0.0087034 0.0082312 0.092082 0.15456 0.01415 
0.22855 0.023686 -0.00015387 0.0060938 -0.037147 0.1225 0.19846 0.044238 
0.18202 0.052294 0.02122 -0.0075525 -0.015116 0.17412 0.21375 0.060679 
0.054925 0.053116 0.045882 0.04506 0.040456 0.091096 0.18892 0.051636 
-0.10521 0.047197 0.067749 0.030756 0.10787 -0.034516 0.10014 0.02533 
-0.18791 0.056733 0.054596 0.018425 0.10063 -0.080388 -0.041257 -0.080059 
-0.20518 0.052294 0.040292 0.058377 0.06183 -0.10834 -0.089102 -0.085156 
-0.21011 0.03536 0.030427 0.038812 0.028125 -0.0062372 -0.010841 -0.0067304 
-0.16818 0.038483 0.00017495 0.030592 0.0041209 0.044731 0.012999 0.092904 
-0.065262 0.013492 -0.0026201 0.028783 -0.014951 0.010204 -0.00081153 0.074654 
0.05772 0.026152 0.015794 0.014643 -0.018239 0.011355 0.026152 0.029769 
0.14404 0.072846 0.017438 0.031249 -0.00031829 0.035031 0.0227 0.049006 
0.19714 0.055582 0.041936 0.024179 0.026646 0.042429 0.038483 0.057884 
0.19714 0.064625 0.063803 0.014479 0.031414 0.020233 0.040785 0.080738 
0.17791 0.099316 0.067091 0.072846 0.00083261 0.010862 0.055418 0.10392 
0.14141 0.048513 0.039634 0.016781 -0.004593 -0.045368 0.053938 0.061172 
0.073997 0.047691 0.005765 -0.013965 -0.038791 -0.084169 0.03651 0.05065 
0.030756 0.039799 -0.0138 0.0080668 -0.019719 -0.001798 0.01974 0.048348 
0.029934 0.030592 -0.04619 0.024344 0.017603 0.11658 0.070873 0.057884 
0.079587 0.060022 0.035195 0.075312 0.061008 0.12168 0.079258 0.041114 
0.13779 0.093233 0.048513 0.051801 0.049006 0.093069 0.050979 0.036182 
0.11247 0.064461 0.042429 0.071531 0.038812 0.080244 -0.0090322 0.08008 
0.050486 0.046704 0.068736 0.056569 0.018754 0.028947 -0.13991 0.055911 
0.0075736 0.04506 0.018425 0.040128 0.024179 -0.0021268 -0.10587 -0.012814 
0.0052718 0.036675 0.01415 0.05065 -0.0091966 0.039305 0.026974 -0.059343 
0.020233 0.058542 0.0056006 0.041278 0.0039565 0.10754 0.15308 -0.069865 
0.013986 0.052952 0.015465 0.042923 0.040785 0.087972 0.15012 -0.033694 
