0.059857 -0.03764 0.032236 0.068736 0.12776 0.21161 0.45889 0.08715 
0.047526 -0.062467 0.0421 0.12365 0.23742 0.28527 0.60045 0.076792 
-0.001798 0.040128 0.054432 0.045718 0.14831 0.064132 0.40496 -0.063453 
0.016616 0.036675 0.05772 -0.0078813 0.041772 -0.036983 0.1054 -0.18348 
0.029605 0.034209 0.014808 0.0082312 -0.0059084 0.079258 -0.086142 -0.21471 
0.011684 0.050814 0.040292 -0.0016336 0.0034632 0.14437 -0.13596 -0.10817 
0.01004 0.055747 0.031578 0.015137 0.027796 0.14897 -0.02646 0.039634 
-0.024323 0.053774 0.02681 -0.006566 0.016288 0.069558 0.097837 0.17955 
-0.009361 0.050321 0.039141 -0.0047575 -0.065426 -0.047341 0.10737 0.26324 
0.014643 0.060844 0.046868 0.016452 -0.085978 -0.11261 0.050321 0.183 
0.026974 0.035195 0.065118 0.0059294 0.013986 -0.018404 0.020727 0.046868 
0.033551 0.033222 0.036839 0.031085 0.090274 0.11428 -0.015773 -0.10439 
0.028783 0.045389 0.020069 0.041114 0.044402 0.13631 -0.040764 -0.17114 
0.020727 0.061995 0.011026 0.037332 -0.010676 0.12102 -0.030077 -0.19235 
0.037332 0.061995 0.015794 0.079751 0.078272 0.24597 0.018096 -0.17756 
0.053774 0.062652 0.019576 0.045553 0.13187 0.48799 -0.01939 -0.16342 
0.050486 0.075805 0.029605 0.010862 0.045718 0.50937 -0.12708 -0.1113 
0.048019 0.026152 0.062159 0.023851 -0.058521 0.22279 -0.20419 -0.02498 
0.068736 0.0054362 0.097344 -0.028433 -0.060658 0.020069 -0.032872 0.078272 
0.079751 0.0069159 0.035688 -0.0032777 -0.055561 -0.19482 0.077943 0.18448 
0.065776 0.033551 0.038812 0.033058 -0.039613 -0.40609 0.11148 0.28132 
0.056404 0.032564 0.013492 0.018754 0.021056 -0.47367 0.171 0.30812 
0.021384 0.067091 -0.00081153 0.053774 0.064461 -0.3326 0.20257 0.23118 
-0.0013048 0.10655 -0.0052507 0.047855 0.063639 -0.10012 0.1835 0.084848 
0.0013258 0.075476 -0.0050863 0.062981 -0.042408 0.038977 0.24647 -0.0062372 
0.031578 0.045718 0.03947 0.057884 -0.13399 0.078929 0.28083 -0.084991 
0.049006 0.028454 0.067256 0.021713 -0.21126 -0.0083746 0.23414 -0.11886 
0.088465 0.0065871 0.060679 -0.016431 -0.22343 -0.072003 0.13236 -0.20797 
0.1248 -0.027447 0.072024 -0.025638 -0.13218 -0.016595 0.13565 -0.22803 
0.11099 1.0539e-005 0.061995 -0.020048 0.067585 0.13401 0.20898 -0.16506 
0.073668 0.044073 0.04917 0.044073 0.27327 0.36008 0.37619 -0.050958 
0.020233 0.062159 0.01711 0.076299 0.46481 0.51134 0.50608 0.081889 
-0.019061 0.088465 -0.014293 0.1026 0.47665 0.52515 0.49753 0.10984 
-0.05589 0.1077 -0.014458 0.13286 0.39493 0.35925 0.42206 0.15933 
-0.061151 0.11543 -0.021363 0.092904 0.34972 0.25354 0.22624 0.14831 
-0.045203 0.068078 0.0087245 0.074819 0.13171 0.18728 0.11592 0.15686 
-0.013636 0.042594 0.048677 0.013821 -0.11163 0.055911 0.16278 0.19698 
0.036182 0.039963 0.034209 -0.091075 -0.3206 -0.15996 -0.055068 0.31437 
0.069393 -0.009361 0.049006 -0.024323 -0.42138 -0.34444 -0.60355 0.36731 
0.10326 0.0095465 0.047362 -0.0077169 -0.2864 -0.48748 -0.81269 0.35071 
0.11033 0.0037921 0.057555 0.00066819 -0.14632 -0.5077 -0.47679 0.23233 
0.055911 0.042265 0.05476 0.066598 0.036017 -0.14895 0.014972 0.039963 
0.044731 0.048348 0.019905 0.0421 0.061995 0.097508 0.2029 -0.16095 
0.0036276 0.055418 0.012177 0.045718 0.094877 0.050814 0.18432 -0.19696 
0.04917 0.055911 0.018754 0.029934 0.027796 -0.09387 0.00083261 -0.24431 
0.07038 0.051143 0.026974 0.013657 0.083862 -0.13908 -0.17213 -0.39064 
0.067091 0.037332 0.017603 0.053774 0.28921 -0.024652 -0.099953 -0.48221 
0.043416 0.06594 0.033222 0.0592 0.45659 0.1031 0.17577 -0.33523 
-0.018404 0.081724 0.034702 0.041772 0.35136 0.10721 0.43768 -0.16013 
-0.058192 0.066598 0.021878 0.059364 -0.009361 0.10589 0.47698 0.060022 
-0.053917 0.055911 -0.0039354 0.02681 -0.36976 -0.015773 0.1909 0.21556 
-0.049149 0.075476 -0.038956 0.047691 -0.37831 0.024837 -0.14336 0.4117 
-0.025802 0.069722 -0.02235 0.067091 -0.20797 0.17708 -0.22474 0.4778 
0.020562 0.046046 0.0011614 0.059035 -0.10571 0.38425 -0.047012 0.42223 
0.06183 0.015465 0.037826 -0.0014692 -0.17443 0.30845 -0.0054151 0.32522 
0.062159 0.055254 0.078272 -0.023501 -0.10308 0.028125 -0.20732 0.28461 
0.064296 0.042265 0.068078 -0.0021268 0.063803 -0.05178 -0.28706 0.24005 
0.067749 0.036839 0.035688 0.024673 0.21227 -0.023665 -0.26946 0.11214 
0.059035 0.03799 0.033715 0.042923 0.41384 -0.014951 -0.16407 -0.012156 
0.05624 0.0013258 0.024344 0.063639 0.66918 0.0026412 -0.038956 -0.14434 
0.052459 -0.016102 0.013328 0.12809 0.81764 -0.0060728 0.027796 -0.16013 
0.0088889 0.013821 -0.028597 0.10244 0.61903 -0.28804 -0.034516 -0.13481 
-0.017582 0.0421 -0.01232 0.082875 0.13269 -0.56705 -0.10637 -0.10373 
0.0041209 0.016452 0.038648 -0.0054151 -0.37173 -0.29297 0.061008 -0.10291 
0.044402 0.018096 0.088136 -0.037476 -0.5511 0.084355 0.42107 -0.096336 
0.051801 0.098823 0.026646 0.028783 -0.43059 0.24301 0.48355 -0.029913 
0.048677 0.12809 0.0075736 0.056404 -0.2647 0.11905 0.17939 0.069722 
0.083697 0.10852 0.022864 0.004943 -0.21488 -0.071345 -0.18019 0.098659 
0.11165 0.048184 0.051965 -0.027447 -0.17493 -0.1718 -0.39968 0.037661 
0.076299 0.028947 0.072846 -0.028433 -0.078415 -0.15454 -0.65238 -0.014951 
0.024015 0.0090533 0.067256 0.012177 0.13417 0.15028 -0.83883 0.0069159 
-0.015773 0.013492 0.0421 0.047362 0.14502 0.29119 -0.81877 0.01415 
-0.039778 0.045224 0.01711 0.045389 0.15456 0.20125 -0.49718 0.071202 
-0.031228 0.00099702 0.022864 0.037332 0.32818 0.19287 -0.064768 0.2001 
-0.029584 0.0037921 0.031907 -0.0067304 0.36189 0.19747 0.36304 0.3096 
-0.014787 0.0095465 0.025659 1.0539e-005 0.25551 0.016452 0.52877 0.17347 
-0.013143 0.065612 0.0067515 0.057391 0.12414 -0.23543 0.42338 -0.084991 
0.051636 0.076956 -0.014458 0.064461 0.071202 -0.28163 0.23266 -0.15257 
0.090438 0.084026 0.014479 0.070544 0.10145 -0.13168 0.040128 -0.08384 
0.083368 0.044731 0.049006 0.046211 0.1978 0.032893 -0.039284 0.04506 
0.050979 0.031742 0.038483 0.020891 0.30894 0.15242 0.051143 0.16163 
0.045882 0.0075736 0.058049 0.066434 0.24482 0.23594 0.1756 0.14568 
0.024508 0.010533 0.036182 0.0026412 0.020398 0.093726 0.19994 -0.015773 
0.024015 0.025988 0.04654 -0.020212 -0.18463 -0.0070593 0.244 -0.13481 
0.033058 0.0023123 0.013492 0.021056 -0.16753 0.095864 0.19961 -0.15322 
0.04654 -0.050464 0.043745 0.0092177 -0.098144 0.099974 0.12677 -0.10094 
0.059857 -0.044381 0.071037 0.030427 -0.13218 -0.10686 0.018918 -0.047176 
0.083862 -0.047834 0.056733 0.022042 -0.17838 -0.27242 0.0037921 -0.031228 
0.11033 -0.053917 0.05065 0.00017495 -0.22655 -0.37535 0.071695 0.027961 
0.053445 -0.00097594 0.057062 0.0080668 -0.17723 -0.38225 0.16114 0.13236 
0.018425 0.099645 0.025166 0.02681 0.037497 -0.10143 0.2366 0.16788 
-0.019719 0.15867 -0.0036066 0.051143 0.20109 0.24762 0.31289 0.16706 
-0.031064 0.15078 0.0095465 0.057555 0.11444 0.35761 0.34068 0.070215 
0.0013258 0.13647 0.048184 0.020891 0.14716 0.40003 0.44261 -0.018404 
0.031907 0.066105 0.074983 0.03799 0.3073 0.40398 0.38342 -0.025309 
0.017932 0.041278 0.043251 0.070873 0.24482 0.3073 0.1105 0.027961 
0.010369 0.053281 0.0074092 0.029605 0.031249 0.066927 -0.1695 0.054103 
0.033058 0.056404 0.0059294 0.047691 -0.12741 -0.088115 -0.12116 0.069558 
0.063474 -0.013636 0.042594 -0.019226 -0.27801 -0.19054 0.011848 0.055089 
0.077285 -0.021856 0.053774 -0.022843 -0.31073 -0.11228 -0.0042642 0.016945 
0.048019 0.014315 0.059528 0.00050378 -0.2545 0.020233 -0.076771 0.016616 
0.0052718 0.028619 0.049664 -0.0029489 -0.24957 0.026974 -0.13316 0.064954 
0.00017495 0.029441 0.049828 0.0072447 -0.23148 -0.026296 -0.17969 0.054103 
0.037332 0.042429 0.014479 -0.0078813 -0.20205 -0.024652 -0.3492 -0.1233 
0.055582 0.064296 0.0041209 0.0062583 -0.17361 0.3951 -0.48189 -0.2859 
0.060515 0.062981 0.02122 0.051308 -0.15174 0.64945 -0.2938 -0.26831 
0.037661 0.029276 0.030263 0.062817 -0.1256 0.51282 0.11395 -0.21093 
-0.0057439 0.064625 0.016781 0.059693 -0.15174 -0.062302 0.20997 -0.10373 
-0.0052507 0.074983 -0.0022913 0.058871 -0.11146 -0.51723 0.12447 0.079587 
-0.014951 0.078272 0.0090533 0.041114 0.043251 -0.57873 0.19303 0.20076 
-0.023994 0.087479 0.00099702 0.04358 0.24696 -0.36104 0.37981 0.17199 
-0.008539 0.10228 -0.0078813 0.05624 0.36041 0.034866 0.4847 0.038648 
0.01152 0.070544 0.0070803 0.093726 0.43505 0.38194 0.5309 -0.063946 
0.01826 0.076299 0.0088889 0.093562 0.23101 0.23085 0.47385 -0.098967 
-0.01528 0.08567 0.032236 0.019576 0.0090533 -0.05737 0.31141 -0.064933 
0.016781 0.087972 0.047033 -0.031064 -0.014293 -0.0026201 -0.023829 -0.09387 
0.066269 0.089287 0.068078 -0.0039354 0.015959 0.19928 -0.38521 -0.058356 
0.065612 0.078436 0.083368 -0.026624 -0.056055 0.3484 -0.45574 0.021384 
0.025988 0.038812 0.041443 0.0062583 -0.019884 0.50049 -0.16079 0.24137 
0.029112 0.015301 0.029769 0.053116 0.0074092 0.5383 0.10441 0.45692 
0.0067515 -0.027282 0.0032988 0.012342 -0.17821 0.27935 0.01974 0.44475 
0.066434 0.032564 0.039799 0.011191 -0.36466 -0.28344 -0.29824 0.16574 
0.060844 0.052294 0.031414 0.0024767 -0.34427 -0.59188 -0.35151 -0.13448 
0.022206 0.085341 0.029112 0.0042853 -0.22096 -0.5414 -0.26979 -0.21241 
-0.021856 0.10376 0.021056 0.081231 0.16853 -0.061151 -0.13086 -0.15585 
-0.063289 0.1294 0.0023123 0.12957 0.58927 0.46464 -0.017253 -0.1205 
-0.03764 0.11132 -0.027447 0.13319 0.60867 0.56707 -0.021856 -0.095843 
-0.028104 0.086492 -0.0062372 0.057884 0.32835 0.23134 0.029934 -0.060823 
-0.020377 0.10754 0.020398 -0.0021268 0.13845 -0.10127 0.042923 -0.06855 
-0.047012 0.10343 0.028125 0.01563 0.030756 -0.2208 0.045553 -0.0027845 
-0.081045 0.086985 0.0046141 0.035031 -0.039449 -0.17936 0.31355 0.14897 
-0.064933 0.023522 0.034537 0.02533 -0.040928 -0.042079 0.61064 0.2588 
0.0072447 -0.030242 0.091918 0.034702 -0.0031133 0.13993 0.58089 0.25419 
0.18448 -0.10571 0.086657 -0.033201 0.097837 0.28379 0.29875 0.13549 
0.38079 -0.12675 0.10984 -0.014951 0.18859 0.2269 -0.040106 0.014808 
0.39987 -0.039778 0.089287 -0.012156 0.19155 0.023357 -0.18282 0.099645 
0.244 0.026481 0.062981 -0.0070593 -0.052766 -0.27818 -0.21685 0.27919 
0.053938 0.054925 0.028947 0.049335 -0.21027 -0.41513 -0.2647 0.34265 
-0.05178 0.031414 0.0092177 0.038648 -0.084334 -0.30596 -0.34888 0.16179 
-0.061316 0.054925 1.0539e-005 0.046704 0.15341 -0.045696 -0.30629 -0.020048 
-0.076442 0.079916 0.0047785 0.088465 0.28149 0.089123 -0.22096 -0.11672 
-0.067235 0.092082 -0.011827 0.059857 0.22526 0.10145 -0.071509 -0.043724 
-0.062467 0.077121 -0.008539 0.057884 0.19369 0.16426 0.11954 0.020727 
-0.027447 0.045224 0.0016547 0.080738 0.27672 0.27705 0.27392 0.048513 
0.013492 0.0021479 0.020233 0.038977 0.28609 0.34824 0.41269 0.05772 
0.06035 -0.012485 0.055582 0.041443 0.24005 0.18892 0.49671 0.04654 
0.072024 0.016452 0.060186 -0.0080457 0.21062 -0.11442 0.40381 0.095206 
0.068407 0.012835 0.065612 0.00297 0.13927 -0.27226 0.36517 0.13483 
0.011684 -0.0042642 0.045553 0.046211 0.072681 -0.059178 0.46991 0.095042 
-0.01117 0.0021479 0.037661 0.014643 -0.11475 -0.003771 0.52646 0.025166 
0.046704 0.028454 0.021384 0.01152 -0.42434 -0.22228 0.33081 0.00066819 
0.086821 0.046704 0.025988 0.03092 -0.49833 -0.30317 -0.15799 0.026481 
0.069064 0.030592 0.026152 0.027468 -0.39919 -0.17164 -0.46265 0.082875 
0.0037921 0.032236 0.029112 0.040785 -0.28114 -0.030242 -0.39656 0.16788 
0.027303 -0.013471 0.061008 -0.022021 -0.15306 0.16114 -0.30991 0.16656 
0.065776 -0.047505 0.076956 -0.025802 0.014315 0.25978 -0.58514 0.14009 
0.086328 -0.015773 0.058213 0.014479 0.21802 0.26258 -0.7581 0.058213 
0.092576 0.010862 0.032729 -0.0067304 0.35827 0.21194 -0.18348 -0.070194 
0.056404 0.0087245 -0.0068948 0.0019835 0.42486 0.074161 0.49703 -0.22869 
0.0056006 0.064954 0.01004 0.051143 0.48158 -0.20419 0.76602 -0.24447 
-0.04323 0.06479 -0.034845 0.050157 0.55441 -0.15109 0.7527 -0.05441 
-0.042901 0.095371 -0.0083746 0.1299 0.49227 0.089616 0.5947 0.053774 
-0.032872 0.072024 0.039141 0.077778 0.085177 0.048184 0.41088 0.062323 
-0.0080457 0.056898 0.018425 -0.01117 -0.39195 -0.22704 0.12891 -0.02087 
0.034209 0.065283 0.025166 -0.018404 -0.6052 -0.32898 -0.34213 -0.091404 
0.052787 0.017603 0.030098 -0.0503 -0.61506 -0.39294 -0.92071 -0.12215 
0.057062 0.023193 0.023028 -0.025309 -0.58563 -0.43569 -1.1788 -0.1256 
0.044567 0.042923 0.019411 0.0082312 -0.43289 -0.31402 -0.82814 -0.10127 
0.046046 0.034702 0.0095465 0.0065871 -0.24546 -0.14204 -0.21356 -0.096007 
0.056733 0.032564 0.020233 0.046046 -0.16046 -0.012649 0.14617 -0.109 
0.036839 0.046046 0.048348 0.016288 -0.13053 0.044238 0.24959 -0.09946 
0.019411 0.065447 0.017603 0.01826 -0.050958 0.10491 0.28543 -0.011992 
-0.019719 0.073339 -0.016266 0.053938 0.042594 0.23479 0.29727 0.067585 
-0.052602 0.055747 -0.039449 0.087808 0.27442 0.52301 0.31141 0.098001 
-0.019719 0.072024 -0.017088 0.068242 0.45527 0.57135 0.28478 0.19369 
0.04358 0.027632 0.014479 0.0786 0.48306 0.22411 0.18432 0.25189 
0.032236 0.014479 0.023357 0.056569 0.40069 -0.10801 -0.045039 0.36879 
0.016288 0.042429 0.062981 0.018918 0.19681 -0.22737 -0.20025 0.32489 
0.040292 0.07597 0.075148 -0.053588 -0.11968 -0.098473 -0.29873 0.15982 
0.038319 0.059857 0.059528 -0.041093 -0.18972 0.11477 -0.47745 -0.059672 
0.026974 0.0689 0.0087245 0.03388 -0.0022913 0.2634 -0.47136 -0.23954 
0.012999 0.088136 0.0095465 0.043087 0.15275 0.21769 -0.20929 -0.39047 
0.0227 0.039799 0.017438 0.019576 0.17807 -0.047012 0.11115 -0.45755 
0.033222 0.037332 0.031742 0.065612 0.29037 -0.22277 0.2833 -0.35183 
0.026646 0.063803 0.014808 0.093562 0.31322 -0.12198 0.25321 -0.1986 
0.0046141 0.044073 0.058049 0.09981 0.1835 0.12365 0.16015 -0.0040998 
0.0034632 0.038812 0.046375 0.035031 0.012177 0.14634 0.054267 0.13368 
0.019083 0.02122 0.034537 0.0090533 -0.094856 0.041114 0.0062583 0.19007 
0.037168 0.040292 0.025659 0.020398 -0.21175 -0.042079 0.03092 0.21424 
0.052294 0.033551 0.037168 -0.0090322 -0.22672 0.016452 0.10408 0.19369 
0.07449 0.012342 0.051965 -0.010183 -0.23083 0.054925 0.12283 0.17067 
0.071037 0.037004 0.053116 -0.0022913 -0.1912 0.06331 0.10441 0.13927 
0.042594 0.068736 0.064954 0.0028056 -0.065097 0.069229 0.059364 0.16393 
-0.0052507 0.093726 0.062652 0.069229 0.11362 0.061172 0.050486 0.19862 
-0.036489 0.090931 0.034537 0.031249 0.18251 0.07449 0.073339 0.21178 
0.004943 0.082053 0.035524 0.024179 0.15768 0.095699 -0.030735 0.1322 
0.015959 0.045553 0.025001 0.037497 0.11806 0.14733 -0.059672 -0.022843 
0.060186 0.0227 0.028125 0.033222 0.12825 0.34923 -0.0032777 -0.15125 
0.079422 0.03651 0.066105 0.051472 0.11773 0.47007 0.055747 -0.19383 
0.085341 0.037004 0.0689 0.011355 -0.06707 0.29579 0.044238 -0.1912 
0.11559 0.0054362 0.11165 -0.024323 -0.17246 0.039141 0.012506 -0.14122 
0.099481 0.028619 0.1031 0.021713 -0.19778 -0.14665 0.0042853 0.08008 
0.08567 0.04358 0.067256 0.00083261 -0.11755 -0.42796 0.051472 0.22871 
0.053445 0.045389 0.027303 0.037004 0.08156 -0.35973 0.094384 0.26143 
0.044402 0.0421 0.033058 0.11526 0.37504 -0.055232 0.17199 0.3022 
0.058377 0.035195 0.02122 0.083533 0.48174 0.072517 0.2149 0.26455 
0.044402 0.056569 0.049664 0.029934 0.31782 0.25025 0.2001 0.22526 
0.025988 0.045718 0.072188 -0.0080457 0.094877 0.51496 0.2001 0.14437 
-0.00064712 0.073997 0.08715 -0.04471 -0.017911 0.47106 0.19632 0.075476 
-0.024487 0.070215 0.064461 0.029441 -0.054082 0.13039 0.14026 -0.00015387 
-0.028433 0.039799 0.038155 0.024344 -0.046354 -0.25812 0.11543 -0.049314 
0.0421 0.035524 0.0227 0.020727 -0.0022913 -0.46018 0.13631 -0.065591 
0.14881 0.070708 0.018589 0.033551 -0.03912 -0.33917 0.14091 -0.10719 
0.16985 0.02533 0.058542 -0.010019 -0.18578 -0.20616 0.13203 -0.078415 
0.14272 0.022206 0.075476 -0.021034 -0.18298 -0.090746 0.095042 -0.031886 
0.050979 0.051965 0.062817 0.065447 0.078107 0.073339 0.076627 0.044238 
-0.014458 0.10589 0.035853 0.086657 0.24071 0.18629 0.040292 0.11658 
-0.043066 0.09274 -0.001798 0.099645 0.054267 0.1784 0.012835 0.17478 
-0.03764 0.06331 0.0095465 0.022864 -0.20945 0.036017 -0.068714 0.17215 
0.013821 0.028783 0.043745 0.007738 -0.27851 -0.079566 -0.12248 0.073175 
0.043416 -0.0064016 0.062159 0.0060938 -0.19367 -0.1113 -0.12725 -0.027282 
0.08978 -0.024158 0.058871 -0.016102 -0.11787 -0.12018 -0.091404 -0.11031 
0.074654 0.01711 0.074654 -0.0080457 -0.10932 -0.11557 -0.050629 -0.1279 
0.079587 0.071531 0.069064 0.0069159 -0.027282 -0.20271 0.020069 -0.088608 
0.017767 0.064296 0.034373 0.021056 0.095535 -0.12429 0.060186 0.0056006 
-0.071181 0.073504 0.013164 0.066598 0.20553 0.06742 0.079258 0.00083261 
-0.072003 0.074654 0.009711 0.060844 0.1927 0.16114 0.076956 0.01004 
-0.0771 0.10787 0.010204 0.044073 0.0051074 0.19188 0.086492 0.08863 
-0.063289 0.077614 0.016781 0.022535 -0.20205 0.13927 0.052459 0.083862 
-0.041751 0.06594 0.013492 -0.02646 -0.35414 -0.012649 0.072024 0.088465 
-0.00031829 0.065118 0.040292 -0.010841 -0.35562 -0.19811 0.056898 -0.0027845 
0.055747 0.055418 0.063639 0.011191 -0.16325 -0.30103 0.14141 -0.088937 
0.029605 0.066105 -0.0044286 0.04506 0.18218 -0.21438 0.24712 -0.12083 
0.0070803 0.10935 -0.015773 0.10639 0.47139 0.053445 0.26143 -0.069043 
-0.027282 0.10293 -0.016102 0.070215 0.55129 0.26833 0.21934 0.055747 
-0.0050863 0.03799 0.016452 0.021878 0.53271 0.28034 0.31716 0.10507 
0.023851 -0.0091966 0.034537 0.054267 0.69318 0.34216 0.24334 0.058706 
0.018589 0.058049 0.0060938 0.077943 0.73955 0.33377 -0.087458 -0.014951 
0.054432 0.007738 0.034373 0.063474 0.30352 0.02533 -0.1501 -0.00081153 
0.071859 0.00099702 0.045718 0.01415 -0.12873 -0.33589 -0.0032777 0.12316 
0.034702 0.038319 -0.0073881 0.018096 -0.1866 -0.43601 0.054267 0.329 
-0.023665 0.083533 0.019411 0.03388 -0.32734 -0.27226 0.077943 0.3313 
-0.039942 0.11214 0.021713 -0.011663 -0.59319 0.11 -0.29873 0.013328 
0.017438 0.093891 0.033058 -0.03205 -0.61621 0.39132 -0.71667 -0.34115 
0.073832 0.083368 0.045882 -0.0040998 -0.35858 0.58434 -0.56327 -0.51378 
0.097672 0.019411 0.038319 -0.0013048 -0.12363 0.60637 -0.12018 -0.4324 
0.07597 0.0044497 0.028619 0.016781 0.10244 0.35597 0.2611 -0.22211 
0.030592 0.05624 0.010862 0.068242 0.18037 -0.18002 0.46366 0.031414 
-0.015609 0.088958 -0.011005 0.074819 0.20799 -0.12856 0.60916 0.18366 
-0.030406 0.083368 -0.0011404 0.081231 0.1641 0.18777 0.30516 0.18235 
-0.03616 0.064461 0.0074092 0.031907 -0.053095 0.095699 -0.20238 0.2149 
-0.018075 0.051308 0.0013258 0.029769 -0.14862 -0.092883 -0.21965 0.19468 
0.007738 0.010533 0.014479 0.065612 0.012835 -0.12018 0.15916 0.2121 
0.0018191 0.034044 0.045224 0.018918 0.1807 -0.21734 0.36912 0.15587 
-0.018239 0.06183 0.057391 -0.020048 0.27705 -0.45229 0.34133 0.022864 
0.004943 0.064296 0.0044497 0.025001 0.38063 -0.45443 -0.0088678 -0.14418 
0.025001 0.064625 -0.018568 0.06035 0.47155 -0.038298 -0.40313 -0.27472 
0.060515 0.056898 -0.0026201 0.09422 0.43784 0.25913 -0.82304 -0.26963 
0.081067 0.06479 0.0039565 0.027139 0.16755 0.33657 -1.2648 -0.073318 
0.035031 0.035524 0.036839 0.013492 -0.10949 0.15242 -1.1603 0.27557 
0.019411 0.040292 0.059528 0.034044 -0.039613 0.1756 -0.17493 0.37274 
0.0065871 0.051636 0.0592 0.020069 0.07301 0.27294 0.8696 0.081724 
0.02122 0.053281 0.032729 0.010697 0.091918 0.31305 1.2793 -0.27818 
0.052459 0.020562 0.040621 0.032729 -0.035996 0.25732 1.1558 -0.35841 
0.066763 -0.010348 0.034866 -0.0068948 -0.22326 0.21243 0.77539 -0.21093 
0.050157 0.01826 0.035853 -0.0022913 -0.4393 -0.031886 0.051308 0.023686 
0.06331 0.013986 0.041114 -0.012649 -0.43947 -0.194 -0.73886 0.15308 
0.055254 0.01974 0.050321 0.00297 -0.095185 -0.0039354 -0.91857 0.19451 
0.060844 0.031907 0.035524 0.055747 0.18021 0.147 -0.47926 0.30253 
0.015301 0.024179 0.067256 0.012999 0.10343 -0.0042642 -0.052602 0.3461 
0.0023123 -0.020541 0.082711 -0.04471 -0.18331 -0.34016 -0.074962 0.27146 
0.0065871 -0.042408 0.091096 -0.02235 -0.15733 -0.63413 -0.037147 0.21408 
0.037661 -0.030077 0.042429 0.026974 -0.0138 -0.7604 -0.027282 0.22887 
0.066763 0.025001 -0.029913 0.10491 0.14848 -0.21866 -0.093376 0.14305 
0.10458 0.086985 -0.044217 0.12118 0.084848 0.13976 -0.2499 -0.049807 
0.11674 0.12973 -0.041257 0.12266 -0.066741 0.037168 -0.25319 -0.078744 
0.051472 0.12184 -0.0080457 0.10688 -0.27325 -0.18364 -0.038791 0.12102 
0.020233 0.043251 0.060186 -0.024487 -0.5539 -0.25121 0.34281 0.16114 
0.033387 0.036182 0.070544 -0.10357 -0.55225 0.1659 0.098659 -0.00081153 
0.0074092 0.15999 0.055582 -0.013636 -0.091897 0.6575 -0.4102 -0.12083 
-0.046683 0.097179 0.034866 0.01974 0.42782 0.56099 -0.39508 -0.011005 
-0.087951 0.023357 0.048348 0.071695 0.98798 0.34528 0.35662 0.1345 
-0.074304 -0.0013048 0.048019 0.051472 1.0654 0.42305 1.0633 0.16179 
0.043909 -0.075455 0.090438 -0.0029489 0.72886 0.34495 1.2382 -0.1455 
0.18251 -0.14303 0.12908 -0.011827 0.35564 0.37438 0.69696 -0.41826 
0.24597 -0.094363 0.090603 -0.036489 -0.028433 0.13269 -0.13349 -0.42977 
0.21358 -0.029913 0.056404 0.012342 -0.30235 -0.32997 -0.61966 -0.21291 
0.16212 -0.010841 0.037826 0.068078 -0.072167 -0.011827 -0.77799 -0.10308 
0.090438 0.007738 0.035688 0.055911 0.20849 0.20898 -0.42056 -0.1667 
0.035853 0.045882 -0.0022913 0.10474 0.22328 -0.52003 0.032729 -0.23231 
-0.030242 0.094384 -0.013307 0.093726 0.16508 -1.0649 0.33887 -0.074633 
-0.075784 0.072188 0.010862 0.065283 -0.010183 -0.80216 0.74546 0.57612 
-0.083676 0.059528 0.023028 0.03651 -0.20156 -0.12363 1.5746 1.1575 
-0.053588 0.08567 -0.0019624 -0.0055795 -0.46232 0.18678 1.6624 1.2175 
0.0074092 0.067913 0.0072447 0.0070803 -0.17673 0.22772 0.67378 0.87387 
0.030098 0.076956 0.01267 0.060186 0.25913 0.18415 -0.81318 0.31766 
0.07597 0.086328 0.016123 0.040292 0.2782 0.19024 -1.9754 -0.21406 
0.099481 0.091753 0.061501 -0.0067304 -0.036818 0.19451 -2.0575 -0.41875 
0.081724 0.086821 0.11937 -0.069865 -0.35085 0.37076 -0.89933 -0.28114 
0.016452 0.045553 0.12825 -0.038298 -0.3959 0.50624 0.090767 -0.1187 
-0.054575 0.045553 0.084848 0.0092177 -0.30465 0.5286 0.094055 -0.1769 
-0.05589 -0.0031133 0.026152 -0.026953 -0.19992 0.35366 -0.37979 -0.43174 
0.044073 -0.02942 0.048513 -0.015444 0.17133 -0.015938 -0.92416 -0.67293 
0.15867 0.0032988 0.051308 0.051308 0.92533 0.0046141 -1.2185 -0.64811 
0.16245 0.044402 0.045718 0.12102 1.352 0.10458 -0.82715 -0.44308 
0.082875 0.067585 0.0036276 0.1493 0.77605 -0.49553 0.24926 -0.099295 
0.0036276 0.064296 -0.0096899 0.092411 0.0082312 -0.98121 1.12 0.17149 
-0.034516 0.11411 0.00017495 0.060186 -0.10423 -0.59204 1.4268 0.25995 
-0.022514 0.087972 -0.016595 0.097837 0.13697 0.042594 1.3605 0.2121 
-0.004593 0.081067 -0.0052507 0.036346 -0.35101 0.10063 0.87568 0.13269 
0.0019835 0.062488 0.041772 -0.039284 -0.99157 -0.072825 0.62413 0.28214 
-0.013307 0.073668 0.035688 -0.058521 -1.4726 -0.0965 0.80778 0.46991 
-0.018404 0.049992 0.055911 -0.062631 -1.179 0.43143 0.87075 0.57414 
-0.018733 0.055418 0.050979 0.0090533 -0.40428 0.93355 0.58549 0.53666 
0.051308 0.055418 0.081067 0.010862 0.12628 0.68874 -0.083347 0.29415 
0.12628 0.025659 0.072188 0.013657 0.28658 -0.077757 -0.85182 -0.26272 
0.17396 0.0019835 0.045389 0.063968 0.43982 -0.40741 -1.2313 -0.68411 
0.11313 0.016452 0.05772 0.06742 0.45889 -0.18249 -1.061 -0.69414 
0.020233 0.093562 -0.020377 0.12464 0.72031 0.13697 -0.74889 -0.36893 
-0.064111 0.15357 -0.012485 0.18399 1.0559 0.22509 -0.37979 -0.0068948 
-0.088608 0.14289 -0.043395 0.16492 0.99307 -0.0039354 0.17906 0.10688 
-0.067399 0.15407 -0.017253 0.08419 0.51545 -0.30991 0.25551 0.097508 
0.013328 0.087972 0.054267 -0.029091 -0.097487 -0.4467 -0.4296 0.082217 
0.069229 0.042265 0.073668 -0.068057 -0.41333 -0.37567 -0.7826 0.09422 
0.096686 -0.00081153 0.093726 -0.060329 -0.2009 -0.16046 -0.12609 0.24269 
0.098659 0.012013 0.087314 -0.037147 0.00033937 -0.16703 0.9985 0.59798 
0.043087 0.020069 0.045389 0.033222 -0.17575 -0.30514 1.5468 0.98403 
-0.0052507 0.046704 0.019576 0.082053 -0.57889 0.1105 1.2736 0.66572 
0.0021479 0.053281 0.018918 0.0039565 -0.91051 0.36369 0.20569 -0.22984 
0.0023123 0.049992 0.060844 -0.0082102 -0.90065 0.29793 -0.69217 -0.84277 
-0.0062372 0.011684 0.075312 -0.035174 -0.62575 0.20865 -0.72538 -0.84277 
-0.030077 0.0098754 0.02681 -0.0059084 0.072024 0.28872 -0.16934 -0.39935 
-0.031392 0.027303 -0.041586 0.095371 0.87617 0.31371 0.46152 -0.026624 
-0.010841 -0.00015387 -0.010183 0.090931 1.0981 0.39082 0.79594 0.067256 
0.01711 -0.039284 0.040785 0.048677 0.74661 0.25978 0.78525 0.058213 
0.067585 -0.019884 0.047855 0.023686 0.22361 -0.20781 0.54471 -0.036325 
0.16607 -0.038791 0.052952 0.029934 0.060515 -0.4661 0.19681 -0.11097 
0.19829 0.063639 0.025988 0.052623 0.0592 -0.11245 -0.34608 -0.12757 
0.04654 0.13828 0.018754 0.043416 -0.092883 0.091425 -0.86628 -0.19219 
-0.05737 0.13171 -0.017088 0.01152 -0.18167 0.028783 -1.0509 -0.10982 
-0.03057 0.099481 0.013328 0.028619 -0.055726 -0.008539 -0.76353 0.15686 
-0.018568 0.063639 0.03388 0.018096 0.079422 0.20388 0.021878 0.34364 
0.015301 0.069722 0.035524 0.011684 0.0032988 0.39773 0.90248 0.31453 
0.012835 0.083862 0.033387 0.038155 -0.12774 0.33509 1.2575 0.040456 
0.0014903 0.10458 0.045718 0.016452 -0.051615 0.18202 1.2057 -0.093541 
-0.026296 0.061995 0.062817 0.028947 0.11888 -0.020706 1.0422 -0.056383 
0.018096 -0.0052507 0.0065871 0.051308 0.22148 -0.15355 0.89722 -0.0042642 
0.075805 -0.039778 0.020398 0.056898 0.17774 -0.25845 0.50838 0.0072447 
0.081395 0.00066819 0.030427 0.047033 0.11592 -0.27686 0.12628 -0.013636 
0.055089 0.044731 0.050157 -0.04619 0.048513 -0.25401 -0.18956 0.063145 
0.043087 0.0090533 0.065447 -0.064275 -0.13119 -0.46396 -0.31238 0.16541 
0.057555 -0.023007 0.073175 -0.031557 -0.20452 -0.36647 -0.36647 0.31963 
0.095042 -0.05441 0.055747 -0.014458 -0.092554 0.054267 -0.38669 0.51035 
0.11198 -0.055397 0.038977 0.02829 -0.087951 0.26455 -0.51296 0.47319 
0.065447 -0.045532 0.013986 0.01152 -0.36762 0.33476 -0.47251 0.25206 
0.018096 0.011191 0.033715 -0.020212 -0.51263 0.41072 -0.18841 -0.042244 
-0.014622 0.10014 0.033222 0.0013258 -0.38406 0.28675 -0.38159 -0.33358 
-0.0059084 0.14239 0.015301 0.045389 0.029441 0.21769 -0.64811 -0.5562 
0.022535 0.14913 -0.020706 0.095371 0.34265 0.19731 -0.29018 -0.46758 
0.02122 0.16821 0.012506 0.10951 0.38573 0.052623 -0.064275 -0.26272 
0.019905 0.15686 0.044731 0.029934 0.41992 0.063145 -0.54206 -0.34329 
-0.0072237 0.095864 0.042923 -0.0021268 0.36353 0.040128 -1.0766 -0.34493 
-0.012485 0.088301 0.042758 -0.0078813 -0.046025 -0.1935 -0.83981 -0.014129 
-0.008539 0.083697 0.047691 -0.0040998 -0.60668 -0.4666 -0.18019 0.34117 
0.070708 0.038812 0.013492 0.0031344 -0.8556 -0.41678 0.36139 0.62939 
0.13171 0.052787 0.026481 -0.023172 -0.81647 -0.20649 0.24532 0.68003 
0.11444 0.057884 0.017932 -0.0039354 -0.4661 0.32621 0.098166 0.26735 
0.04654 0.081231 -0.0098543 0.083368 0.013821 0.72771 0.44031 -0.19416 
-0.056383 0.080244 -0.020377 0.09274 -0.028433 0.39181 0.84773 -0.39919 
-0.055068 0.13253 -0.021199 0.079916 -0.34427 -0.44226 1.192 -0.17361 
-0.03912 0.14141 0.0052718 0.0064227 -0.5396 -1.0891 1.2091 0.14338 
-0.059836 0.07301 0.056569 -0.055726 -0.43914 -1.0156 0.57365 0.17495 
-0.0080457 -0.03057 0.082217 -0.035832 1.0539e-005 -0.19383 -0.3474 0.13006 
0.055418 -0.079566 0.094384 -0.0067304 0.451 0.51841 -0.94603 0.10145 
0.065283 -0.031557 0.095699 0.018918 0.66852 0.65734 -0.80266 0.22197 
0.0065871 0.0054362 0.089945 0.039141 0.70321 0.64418 -0.25582 0.36156 
0.057391 0.055582 0.053116 0.038648 0.70189 0.75599 0.17149 0.35893 
0.078107 0.11888 -0.008539 0.090767 0.6335 0.59798 0.079587 0.19254 
0.055582 0.13138 -0.030735 0.13631 0.23364 0.16426 -0.31172 -0.10094 
-0.014458 0.1345 -0.081539 0.12447 -0.22984 -0.30892 -0.90114 -0.2739 
-0.1113 0.12628 -0.060658 0.10063 -0.49915 -0.64153 -1.1839 -0.2693 
-0.14056 0.16163 -0.028433 0.022042 -0.70121 -0.59073 -0.85231 -0.087293 
-0.13004 0.11395 0.0021479 -0.0072237 -0.58826 -0.21323 -0.2231 0.028783 
-0.044217 0.068736 0.047691 0.014808 -0.21422 0.37471 0.47846 -0.026624 
0.11214 0.04654 0.064461 -0.0078813 -0.046683 0.56083 0.94391 -0.080059 
0.2583 -0.0034422 0.079587 -0.010019 -0.019061 -0.022021 0.97351 -0.10521 
0.28839 -0.043888 0.042758 0.029441 0.21819 -0.25894 0.73428 0.00017495 
0.14848 -0.0062372 0.016616 0.062488 0.54389 -0.1085 0.3997 0.13072 
0.022206 0.041443 0.0042853 0.1202 0.80975 0.09981 0.15242 0.2759 
-0.032215 0.043745 0.0032988 0.089945 0.93586 0.099645 0.048184 0.33377 
-0.064604 0.081067 0.04358 0.053116 0.86253 -0.0087034 -0.06 0.28642 
-0.085649 0.11033 0.039305 0.030756 0.54175 0.085506 -0.17279 0.095371 
-0.044052 0.047197 0.021056 0.014479 0.44804 0.30582 -0.12264 -0.13678 
0.0013258 -0.023829 0.039963 0.023193 0.38688 0.32292 0.0062583 -0.25006 
0.083204 -0.085649 0.069722 -0.011498 -0.048327 -0.0042642 0.049006 -0.25236 
0.16722 -0.075784 0.082217 -0.026624 -0.57396 -0.30547 0.097672 -0.20156 
0.17363 -0.041751 0.062159 -0.0013048 -0.76961 -0.30481 0.026974 -0.20222 
0.14305 0.034537 0.055254 0.0072447 -0.55324 -0.086636 0.10096 -0.11672 
0.03799 0.11444 0.034044 0.035031 -0.28755 0.073175 0.49046 0.16706 
-0.087458 0.11411 -0.024816 0.076299 -0.15191 0.081395 0.75188 0.49046 
-0.11212 0.073339 -0.028433 0.048019 0.0041209 0.070215 0.50312 0.65438 
-0.0503 0.00017495 0.0034632 0.059857 0.38129 0.34988 0.15292 0.40562 
0.027961 0.03388 0.025824 0.071037 0.8964 0.63448 0.10556 0.13335 
0.020727 0.0046141 0.060844 0.057062 1.0212 0.40874 0.12316 -0.14204 
0.091918 -0.039778 0.059693 0.024673 0.69614 -0.18397 0.023193 -0.34098 
0.11954 -0.033859 0.092904 -0.0096899 0.48207 -0.33178 0.0093821 -0.42418 
0.097837 -0.023336 0.06183 0.045882 0.45544 0.086328 0.37438 -0.36055 
0.014479 0.017438 0.0042853 0.098823 0.12661 -0.034023 0.94917 -0.15076 
-0.028926 0.041114 0.010533 0.039799 -0.46199 -0.39984 0.87486 0.13499 
-0.08269 0.076134 0.012342 0.022206 -0.71322 -0.24825 0.52104 0.44656 
-0.11705 0.049335 0.039963 -0.006566 -0.61161 0.071859 0.30598 0.53649 
-0.042901 0.010697 0.082711 -0.052437 -0.50688 0.37323 0.030592 0.39115 
0.092904 -0.072167 0.14996 -0.096829 -0.5756 0.34479 -0.85806 0.17067 
0.23381 -0.15931 0.16936 -0.13053 -0.44654 -0.040435 -1.8503 0.1151 
0.33229 -0.13136 0.11691 -0.02794 -0.012156 -0.33424 -1.8968 0.091589 
0.24252 -0.049314 0.0083956 0.069229 0.28642 -0.28377 -0.58793 -0.045203 
0.053445 0.049006 -0.069043 0.14585 0.56724 0.25551 1.1971 -0.064111 
-0.090417 0.083368 -0.091239 0.20964 0.92336 0.84937 2.3132 -0.0013048 
-0.17377 0.081067 -0.060658 0.1738 0.81961 0.7864 2.3041 -0.15898 
-0.16177 0.093891 -0.02942 0.067585 0.32835 0.39493 1.5317 -0.39951 
-0.092883 0.077121 0.017767 0.080902 -0.13004 -0.0011404 0.50706 -0.27949 
-0.0078813 0.018918 0.066105 -0.0039354 -1.0226 -0.46216 -0.55456 -0.012814 
0.081724 -0.051615 0.11083 -0.061316 -1.7484 -0.5123 -1.1173 0.15933 
0.17528 -0.075949 0.13171 -0.12527 -1.5534 0.068078 -1.2318 0.22624 
0.21342 -0.093048 0.13845 -0.14533 -0.82272 0.32325 -1.0463 0.15078 
0.16311 -0.03616 0.11411 -0.095349 -0.11722 -0.07414 -0.83801 0.17544 
0.059693 0.041607 0.069229 -0.033365 0.49703 -0.83077 -0.98943 0.22312 
-0.030899 0.090767 0.019083 0.066269 1.2456 -0.91035 -1.3273 0.2343 
-0.02794 0.082382 -0.017582 0.18481 1.6835 -0.42566 -0.97661 0.070708 
-0.039449 0.085012 -0.047669 0.26636 2.1215 0.32473 0.11362 -0.065919 
-0.058685 0.11757 -0.063946 0.29563 2.1515 0.91777 0.90396 0.022864 
-0.033201 0.088301 -0.011498 0.13417 1.0948 0.91646 1.0186 0.082053 
0.036017 -0.00015387 0.089123 -0.085156 -0.15848 0.55589 0.65931 0.012999 
0.096357 -0.020706 0.13927 -0.17049 -1.1075 0.0689 0.12036 -0.16029 
0.16196 -0.023007 0.1442 -0.14303 -1.6297 -0.37008 -0.49849 -0.22589 
0.12973 0.024179 0.061172 -0.07003 -1.676 -0.43042 -0.78128 -0.077757 
0.050979 0.079916 0.0026412 0.011026 -1.3789 -0.29758 -0.25779 0.10277 
0.012177 0.10984 -0.028269 0.025659 -0.92531 -0.13678 0.56444 0.12184 
0.028619 0.048513 -0.099624 0.044896 -0.38011 0.048513 0.89245 -0.058685 
0.017274 0.0037921 -0.032708 0.095699 0.084355 0.01563 0.36221 -0.30646 
-0.003771 0.10704 -0.0091966 0.089123 0.33344 -0.017417 -0.38258 -0.31665 
0.031249 0.085177 0.048841 0.011684 0.29349 -0.049642 -0.87796 -0.13021 
0.06594 0.060186 0.075476 0.010369 0.54669 -0.17049 -1.3082 0.088301 
0.053609 0.0026412 0.09274 0.05213 1.1818 -0.16687 -1.4626 0.26126 
0.052459 -0.00064712 0.096686 0.092082 1.2098 -0.12231 -1.2436 0.23956 
0.052294 0.010697 0.055254 0.017603 0.64106 -0.27653 -0.59599 0.11674 
0.0037921 0.066598 0.028619 -0.013965 -0.15766 -0.29643 -0.031721 0.012835 
-0.049478 0.15324 -0.015609 0.058871 -0.60898 0.094877 0.074326 -0.080552 
-0.080552 0.14963 -0.036983 0.049828 -0.50014 0.46695 0.097015 -0.10045 
-0.043724 0.12562 -0.030899 0.059364 -0.38899 0.25551 0.11642 -0.023994 
-0.055068 0.14058 -0.03616 0.0689 -0.37041 -0.68379 0.20586 0.056569 
-0.03764 0.1641 -0.023172 0.070708 -0.17772 -1.6594 0.093562 -0.0072237 
0.033387 0.074654 0.053609 0.034866 0.20898 -1.2903 -0.023172 -0.09946 
0.093562 0.028125 0.05624 0.0054362 0.60801 -0.077757 0.099974 -0.079072 
0.11132 0.050321 0.070215 0.015137 0.74579 0.66326 0.21901 -0.17082 
0.094548 0.098823 0.054596 0.035688 0.45182 0.72014 0.46908 -0.17032 
0.034209 0.071859 0.038319 -0.027282 -0.10225 0.69828 0.99472 -0.066413 
0.028619 0.046375 0.037661 -0.0090322 -0.36992 1.0006 1.2175 0.06594 
0.004943 0.033222 0.028125 0.052294 -0.17394 0.99094 0.7961 0.089616 
0.029276 0.017274 0.043745 0.061337 -0.072003 0.38819 0.25091 0.0036276 
0.066269 0.013986 0.054596 0.027468 -0.42582 -0.3857 -0.45426 0.056404 
0.10178 0.059364 0.021549 -0.064604 -0.77372 -0.85182 -1.543 0.13878 
0.11411 0.047855 0.035688 -0.066413 -0.60799 -0.80808 -2.3523 0.17462 
0.078436 0.049664 0.01152 0.012177 -0.31418 -0.39557 -1.4853 0.064296 
0.041936 0.067585 0.0042853 0.025988 -0.17443 0.25173 0.35498 -0.10456 
-0.019061 0.10655 -0.029748 0.084355 0.17462 0.87075 1.6218 -0.093541 
-0.063124 0.11806 -0.028597 0.17363 0.91415 1.3186 2.0111 -0.050629 
-0.096994 0.15094 -0.048656 0.21737 1.4792 1.6585 2.0817 0.093233 
-0.095185 0.16673 -0.03501 0.17347 1.1558 0.93175 2.0687 0.44245 
-0.060987 0.11115 0.023028 -0.027447 0.2611 -0.29544 1.8658 0.74086 
0.017274 0.062817 0.08419 -0.13695 -0.29725 -1.1328 1.1932 0.42617 
0.17643 -0.02646 0.15094 -0.10686 -0.43158 -1.2487 -0.31073 -0.14287 
0.25436 -0.067235 0.13335 -0.11442 -0.4513 -1.0338 -2.0185 -0.49718 
0.22789 -0.078744 0.10507 -0.023994 -0.15339 -0.71519 -2.9159 -0.6486 
0.12743 -0.0077169 0.052294 0.073997 0.13631 -0.30152 -2.844 -0.64071 
0.038648 0.054432 0.012506 0.044073 -0.04471 -0.032543 -1.6609 -0.37436 
-0.016102 0.038483 0.029769 -0.02942 -0.48287 0.00066819 0.22476 0.23907 
-0.071509 0.047855 0.029605 -0.027118 -0.2203 0.44886 1.5504 0.69285 
-0.18824 0.042265 -0.0072237 0.09981 0.26488 1.2678 1.8683 0.88998 
-0.19531 0.19533 -0.054904 0.16706 0.38441 1.6706 1.6713 0.69417 
-0.17723 0.24795 -0.05589 0.15374 0.14174 1.216 1.1596 0.30401 
-0.10373 0.17511 -0.040106 0.10096 -0.14287 0.34725 0.32687 -0.072003 
0.06479 0.14749 0.037168 0.044402 -0.18397 -0.3372 -0.35726 -0.3178 
0.16064 0.068736 0.077285 -0.01528 -0.01232 -0.29133 -0.54107 -0.38094 
0.12628 0.011026 0.090603 -0.0031133 0.31486 0.38375 -0.19794 -0.28179 
0.00297 0.025001 0.064461 0.014972 0.62429 0.76552 0.3752 -0.082196 
-0.008539 0.047033 0.064296 0.0032988 0.29037 0.30829 0.63942 0.01563 
0.057884 -0.019884 0.095042 -0.024652 -0.23494 -0.49767 0.63958 1.0539e-005 
0.12003 -0.048492 0.10014 -0.017911 -0.0083746 -0.61325 0.68134 0.065118 
0.13286 0.014315 0.059035 0.044731 0.2195 -0.43503 0.47254 0.19698 
0.079751 0.0052718 0.046046 0.063803 -0.051944 -0.44999 0.019576 0.475 
0.040128 -0.03764 0.051636 -0.004593 -0.39244 -0.41168 -0.4855 0.63744 
0.045553 -0.075291 0.045389 -0.0057439 -0.58908 -0.56689 -1.0517 0.51364 
0.046375 -0.05178 0.013657 -0.053095 -0.50852 -0.71141 -1.5877 0.13828 
0.041114 -0.017746 0.00066819 0.012506 -0.051287 -0.52282 -1.2129 -0.10982 
0.0056006 0.0592 -0.02942 0.095206 0.55557 0.37816 0.093233 -0.16818 
-0.042737 0.098001 -0.012485 0.095699 0.7675 1.2081 1.1417 -0.19909 
-0.041422 0.097015 0.022371 0.10984 0.81485 1.0937 1.1759 -0.23083 
-0.030899 0.090931 0.045389 0.1026 0.66391 0.63218 0.65142 -0.24546 
0.016616 0.057062 0.027961 0.024179 0.31914 0.50164 0.38786 -0.16309 
0.10754 0.08156 0.043909 -0.01117 -0.067235 0.12513 0.28856 -0.12905 
0.21786 0.043909 0.061666 -0.070359 -0.303 -0.42286 0.24417 -0.082525 
0.20684 0.022864 0.049006 -0.0091966 0.017438 -0.58958 0.37668 0.13171 
0.071037 0.078272 0.020562 0.11822 0.27212 -0.19433 0.65339 0.22822 
-0.04882 0.082875 0.012342 0.094384 -0.076442 -0.052109 0.49342 0.034702 
-0.067564 0.054596 0.0088889 0.050321 -0.43026 -0.36154 -0.13859 -0.13875 
0.0018191 0.03799 0.014643 -0.0072237 -0.64679 -0.57955 -0.5197 -0.11459 
0.055582 0.051308 0.020562 -0.02646 -0.87697 -0.55932 -0.25861 -0.1718 
0.097508 0.024837 0.011848 -0.0014692 -1.0687 -0.3936 -0.17969 -0.47087 
0.16327 0.026152 0.022535 -0.025967 -0.97957 -0.19729 -0.23411 -0.6583 
0.1391 0.023851 0.047855 -0.014951 -0.61605 -0.023665 0.4824 -0.22474 
0.032564 0.047362 0.02681 0.061501 -0.039942 0.097179 1.3485 0.41516 
-0.070687 0.073997 0.016452 0.063968 0.41368 -0.048163 1.325 0.70485 
-0.078744 0.03799 0.027796 0.064461 0.74004 -0.076606 0.98123 0.6501 
-0.056383 -0.025309 0.034702 0.041772 0.78196 0.082711 0.7818 0.6113 
-0.038462 -0.06148 0.074654 -0.017417 0.41384 0.1493 0.21408 0.7333 
0.041936 -0.062302 0.12464 -0.025802 0.18333 0.039141 -0.80726 0.62281 
0.13746 -0.0503 0.10211 -0.050136 0.069229 -0.13284 -2.0774 0.070544 
0.24104 -0.068057 0.064461 -0.04323 -0.20682 0.098166 -2.782 -0.80923 
0.26899 -0.073482 0.040785 -0.013143 -0.49849 0.56346 -2.3204 -1.4646 
0.15456 0.029441 0.023686 0.01563 -0.72078 0.45675 -1.0369 -1.3312 
-0.083676 0.14371 -0.03616 0.071202 -0.67737 -0.02646 0.33788 -0.4056 
-0.23296 0.19566 -0.10176 0.094548 -0.45147 -0.65814 0.89985 0.49868 
-0.2328 0.17051 -0.087786 0.068571 -0.14369 -0.81778 0.68118 0.73396 
-0.070852 0.15127 -0.044381 0.090109 0.32341 -0.30366 0.14437 0.40891 
0.011848 0.10293 0.00099702 0.039634 0.62593 0.19336 0.10754 -0.025145 
0.062652 0.070873 0.049664 0.031085 0.54241 0.033222 0.33147 -0.24053 
0.059693 0.0013258 0.066598 0.071037 0.72902 -0.14089 0.61788 -0.23559 
0.053445 0.0083956 0.074161 0.10573 1.0843 0.36945 0.70617 -0.02942 
0.055747 0.0028056 0.016452 0.10885 0.96348 0.70551 0.24318 0.23381 
0.075148 -0.015444 0.037004 0.046868 0.39526 0.40299 -0.68625 0.22542 
0.072353 0.00099702 0.069064 -0.043724 -0.33589 -0.29856 -1.3857 0.18235 
0.045224 -0.023829 0.073504 -0.10127 -0.87451 -0.67228 -1.2359 0.24252 
0.027468 0.02829 0.050321 -0.10061 -0.96411 -0.61111 -0.40247 0.18843 
0.040292 0.098823 0.031085 -0.031392 -0.48123 -0.13218 0.35038 0.13746 
0.022864 0.13615 0.02829 0.06479 -0.044052 0.47402 0.804 0.076299 
0.005765 0.071202 0.039963 0.03651 0.054103 0.77407 0.87091 0.10918 
-0.01676 0.035031 0.020891 0.053774 -0.21258 0.73922 0.16114 0.23742 
-0.026953 0.047855 0.053116 0.0079024 -0.34986 0.39773 -1.2158 0.23397 
-0.010841 -0.0042642 0.09126 -0.061809 -0.29051 -0.064604 -2.1354 0.24055 
-0.0049219 -0.038956 0.097344 -0.023007 -0.062796 -0.16161 -1.7614 0.42042 
0.0421 -0.054575 0.050486 0.010862 0.14881 -0.31155 -0.97792 0.50164 
0.079916 0.033551 -0.0013048 0.07301 0.27261 -0.31517 -0.075949 0.3221 
0.038155 0.10228 -0.029584 0.11625 0.27919 -0.18052 0.74727 0.041278 
-0.061316 0.13351 -0.059343 0.13121 0.46991 -0.065591 0.8331 -0.37107 
-0.07825 0.14815 -0.045861 0.16294 0.51052 0.093069 0.30993 -0.59221 
-0.043066 0.10852 -0.034681 0.13286 0.16278 0.01004 0.21375 -0.54042 
-0.013965 0.068078 -0.0052507 0.06742 -0.21159 0.14026 0.77424 -0.39639 
-0.0055795 0.0051074 0.056076 0.0039565 -0.30859 0.56576 0.91613 -0.32388 
0.071202 -0.012156 0.11395 -0.11771 -0.13514 0.70551 0.79084 -0.33852 
0.1368 -0.046683 0.15653 -0.11475 0.10918 0.37323 0.6136 -0.19087 
0.13795 0.01004 0.11526 0.013328 0.59437 0.13335 0.14519 0.087314 
0.085506 0.065118 0.0069159 0.084519 1.105 0.27179 -0.97693 0.36057 
0.056898 0.065447 0.007738 0.062981 0.94884 0.45412 -1.9138 0.58664 
0.037661 0.048677 0.0227 0.021878 0.5041 0.088301 -1.605 0.70946 
0.019905 0.031742 0.030427 -0.024323 0.16377 -0.61177 -0.60322 0.79545 
-0.006566 0.024673 0.052952 -0.010183 0.015959 -0.98499 0.23414 0.706 
-0.072003 0.018589 0.059693 -0.0064016 0.19501 -0.75958 1.1412 0.4408 
-0.12757 0.06331 0.035031 0.10408 0.45609 -0.039778 1.8166 -0.0082102 
-0.072989 0.12431 -0.018568 0.17396 0.35695 0.88456 1.765 -0.97085 
0.011355 0.10902 -0.047505 0.13434 -0.1011 0.94967 1.0557 -1.6177 
0.061172 0.08008 -0.038133 0.064625 -0.57067 0.39641 0.25633 -1.1931 
0.045718 0.062981 -0.012814 0.050814 -0.59007 0.080738 -0.15552 -0.2859 
0.012177 0.087479 0.012506 -0.0091966 -0.36663 -0.047012 -0.16342 0.55326 
0.0028056 0.10326 0.041114 -0.003771 -0.16194 -0.14566 -0.021034 0.82603 
0.042429 0.07449 0.037826 0.0052718 0.056733 -0.0068948 0.28642 0.59864 
0.1174 0.016123 0.038812 0.018425 0.025659 0.11362 0.61903 0.33114 
0.17347 -0.07414 0.051472 0.025495 -0.3275 -0.0096899 0.65027 0.15423 
0.22772 -0.1205 0.061995 -0.027282 -0.42204 -0.18052 0.51397 -0.061973 
0.18646 -0.1085 0.077449 -0.030899 -0.25023 -0.21734 0.36221 -0.28097 
0.11165 -0.062138 0.062323 -0.016431 0.029605 -0.1598 0.11921 -0.36943 
0.071037 -0.056712 0.052294 -0.031064 0.18991 -0.18216 -0.017746 -0.36055 
0.051308 -0.022514 0.041772 0.043745 0.47763 0.056404 0.13746 -0.22655 
-0.012485 0.066434 -0.00081153 0.070544 0.78903 0.41532 0.31371 -0.050136 
-0.035338 0.089945 -0.012978 0.10376 0.731 0.54521 0.27524 0.10178 
-0.023336 0.14864 -0.046683 0.14486 0.43275 0.40529 0.27524 0.28362 
-0.014293 0.16508 -0.015444 0.12398 0.034702 0.24647 0.31305 0.35745 
-0.017911 0.19254 -0.0075525 0.041772 -0.42451 -0.054575 0.35662 0.35153 
-0.0098543 0.14371 0.0031344 -0.023994 -0.82288 -0.47169 0.34643 0.2417 
0.02533 0.071202 0.055254 -0.10784 -0.89539 -0.80035 0.090767 0.096357 
0.07301 0.040292 0.073832 -0.077757 -0.46446 -0.7632 -0.21702 -0.10439 
0.10047 0.0016547 0.065612 -0.026296 0.18267 -0.27094 -0.60964 -0.30481 
0.13023 -0.009361 0.020398 0.069393 0.9666 0.14881 -1.0046 -0.27259 
0.21194 0.0088889 -0.049478 0.19501 1.3462 0.30533 -1.0318 -0.26815 
0.20684 -0.0091966 -0.02942 0.15407 0.83754 0.11822 -0.16572 -0.24316 
0.13927 -0.080552 0.01267 0.096521 0.36221 0.33328 1.0689 -0.082525 
0.033715 -0.088115 0.057391 0.050321 -0.016266 0.46448 2.1415 0.24778 
-0.027775 0.033058 0.039305 -0.020377 -0.67359 0.41137 2.2721 0.47796 
-0.044874 0.11559 0.056569 -0.017582 -1.2208 0.29102 1.0383 0.46284 
-0.016431 0.097015 0.082053 -0.086636 -1.3825 -0.24464 -1.2729 0.24301 
-0.018733 0.029441 0.060186 -0.10571 -1.177 -1.0126 -2.9895 0.16558 
-0.0138 0.013328 0.041607 -0.043888 -0.82863 -1.5271 -2.7475 0.35909 
-0.016595 0.020891 0.01267 -0.013307 -0.44325 -1.1926 -1.1552 0.45133 
-0.028762 0.06183 -0.014293 0.062323 0.10211 -0.099295 0.31157 0.36583 
0.0082312 0.097179 -0.03353 0.098988 0.5115 0.72228 0.92747 0.25222 
0.049664 0.082875 0.015794 0.070708 0.80531 1.0921 1.12 0.29234 
0.022206 0.025659 0.06594 0.060679 0.67312 0.75138 0.92698 0.43554 
0.015959 0.05213 0.0028056 -0.023665 0.56099 0.45429 0.44327 0.37093 
-0.016102 0.10491 0.034702 0.029605 0.73412 0.731 0.14141 -0.02498 
0.04358 0.12908 0.00099702 0.10162 0.925 0.60407 0.16097 -0.38307 
0.056898 0.089616 0.015137 0.067585 0.70699 0.17741 0.04654 -0.55505 
0.11773 0.053938 0.02681 0.031578 0.28132 -0.14796 -0.11755 -0.4735 
0.16294 -0.053424 0.034866 0.024344 -0.29495 -0.3691 -0.39721 -0.35496 
0.16558 -0.044874 0.040621 -0.0060728 -0.80792 -0.46906 -0.55472 -0.14023 
0.07597 0.012835 0.085341 -0.021199 -0.99255 -0.4416 -0.56738 -0.0080457 
-0.023829 0.086657 0.057555 -0.045039 -0.86628 -0.38357 -0.39064 0.073175 
-0.083676 0.14009 0.043416 -0.021856 -0.5511 -0.3109 0.095042 0.086657 
-0.071509 0.21046 -0.042901 0.062488 -0.43141 -0.014129 0.79561 0.21539 
-0.060987 0.20257 -0.090746 0.072517 -0.38883 0.47254 0.89229 0.3928 
-0.02235 0.11822 -0.030406 0.071366 -0.046683 0.75188 0.54323 0.42206 
0.026481 0.01267 0.038155 0.054596 0.30714 0.54932 0.11937 0.29908 
0.055418 -0.053753 0.10195 -0.020706 0.41631 0.015301 -0.31451 0.14502 
0.042758 -0.056877 0.12529 -0.0406 0.26291 -0.64054 -0.80858 -0.059178 
0.049664 -0.052602 0.085177 -0.041915 0.29185 -0.43388 -0.50441 -0.14665 
0.013164 -0.041257 0.085999 -0.0036066 0.41927 0.078272 0.0075736 0.028783 
0.031742 -0.01528 0.068736 0.052787 0.47993 0.067749 -0.28459 0.37981 
0.073668 0.0031344 0.056076 0.029769 0.62446 0.25814 -0.90048 0.60801 
0.040785 0.0324 0.028783 0.054596 0.68003 0.23923 -1.0624 0.49523 
-0.050136 0.091096 -0.0067304 0.064461 0.35843 -0.12149 -1.1959 0.053938 
-0.10341 0.1026 -0.0067304 0.044402 -0.062302 -0.26963 -1.437 -0.29643 
-0.07414 0.063145 -0.026789 0.046046 -0.30432 -0.18956 -0.7147 -0.53269 
0.0072447 0.049006 -0.011498 -0.020541 -0.38833 -0.17591 0.69515 -0.87697 
0.083697 0.086492 -0.0004827 0.020398 0.24926 0.071366 1.521 -0.98285 
0.060515 0.12316 0.0036276 0.14091 0.83293 0.35449 1.5863 -0.59813 
-0.014293 0.14174 0.0072447 0.10869 0.5628 0.41368 1.1782 -0.056877 
-0.064111 0.08156 0.03947 0.014643 -0.20781 0.29842 0.4875 0.10967 
-0.012814 0.030756 0.097344 -0.067564 -0.81022 -0.08532 -0.40954 0.044896 
0.048513 0.038319 0.098494 -0.098309 -0.86267 -0.18528 -1.0904 0.043087 
0.076956 0.10622 0.03651 0.015137 -0.66373 -0.12823 -1.1774 0.26521 
0.073504 0.15045 0.020233 0.040128 -0.50556 -0.16753 -0.63413 0.47352 
0.09833 0.068242 0.047691 -0.010676 -0.32964 -0.1695 -0.014293 0.39247 
0.088136 0.028125 0.068242 0.037168 0.10343 0.010533 0.28741 0.10408 
0.022864 0.02533 0.019576 0.071531 0.27738 0.077778 0.20865 -0.20797 
-0.030899 0.050979 0.018589 0.032893 -0.11574 -0.16884 -0.054575 -0.40971 
-0.011663 0.039799 0.040292 -0.015116 -0.486 -0.083676 -0.0016336 -0.56459 
-0.0088678 0.043745 0.040785 -0.012485 0.090274 0.48668 0.38852 -0.51444 
-0.023665 0.10113 0.0042853 0.12135 1.034 0.70239 1.0718 -0.38422 
0.060844 0.085341 0.011355 0.19796 1.5508 0.68282 1.5975 -0.093048 
0.0069159 0.11165 0.013492 0.13203 1.2662 0.33081 1.3224 0.053445 
-0.00031829 0.048019 0.02829 0.075312 0.56296 -0.17279 0.39148 0.11181 
0.038483 0.0080668 0.046868 -0.021363 -0.0055795 -0.60947 -0.8898 0.20339 
0.10096 -0.067399 0.057555 -0.033037 -0.52891 -0.96592 -2.0742 0.20997 
0.1031 -0.15224 0.084026 -0.011005 -0.80183 -0.91758 -1.7497 0.21062 
0.080573 -0.14139 0.075805 -0.018075 -0.58481 -0.21833 -0.53187 0.071037 
0.11855 -0.15273 0.06479 -0.0004827 -0.40363 0.6307 0.29102 -0.076113 
0.14404 -0.099295 0.064461 -0.055232 -0.38669 1.0439 0.98633 -0.048163 
0.16969 -0.041751 0.084355 -0.042408 -0.24661 0.67378 1.3171 -0.0047575 
0.12891 0.13351 0.031907 0.024179 -0.15536 -0.34181 0.73494 -0.00064712 
-0.011005 0.19451 -0.037147 0.0689 -0.00015387 -0.71535 -0.21998 -0.20797 
-0.10637 0.21901 -0.056219 0.12217 0.21737 -0.16851 -0.54716 -0.37781 
-0.090581 0.20701 -0.040928 0.11839 0.51479 0.54488 -0.34953 -0.4079 
-0.028762 0.18514 0.0079024 0.077285 0.72672 0.62495 -0.47564 -0.20189 
0.012177 0.1853 0.035853 0.049828 0.66046 0.091753 -0.57577 0.089945 
0.0072447 0.11543 0.05624 -0.0082102 0.58878 -0.28229 0.012013 0.18415 
0.018754 0.09422 0.063474 0.01974 0.55228 -0.18216 0.96035 0.15982 
0.049664 -0.00097594 0.059693 0.057062 0.13286 -0.12379 1.3349 0.10655 
0.09422 -0.049149 0.073504 -0.0019624 -0.56261 -0.22557 1.1478 0.089452 
0.099481 -0.025145 0.061995 0.02681 -0.90196 -0.2448 0.8109 0.016452 
0.08567 -0.049971 0.0421 0.028619 -0.91101 -0.093705 0.27261 -0.11343 
0.1368 -0.14007 0.062652 -0.036489 -0.86217 -0.026624 -0.91002 -0.093376 
0.17232 -0.18824 0.12562 -0.069536 -0.74873 -0.13366 -1.5478 0.10408 
0.12053 -0.15158 0.086328 -0.072003 -0.3571 -0.15487 -0.43536 0.19303 
0.020233 -0.066577 0.031085 0.059693 0.66605 0.62002 0.89278 0.088136 
-0.06296 0.009711 -0.017253 0.1733 1.4298 1.1511 1.1078 0.091918 
-0.095843 0.042429 -0.017582 0.16475 1.4776 0.89952 0.69104 0.32292 
-0.09387 0.055254 -0.0026201 0.12381 1.3134 0.29612 -0.068879 0.53025 
-0.041586 0.017438 -0.02087 0.1003 1.0353 -0.15454 -0.56163 0.42403 
0.007738 0.032893 -0.016595 0.034866 0.44574 -0.26256 -0.64909 0.17906 
0.040785 0.071366 0.0062583 0.021384 -0.098967 -0.079072 -0.16095 0.10293 
0.036675 0.068407 0.017438 -0.027118 -0.60306 0.010204 0.60982 0.3729 
-0.015938 0.071859 0.030263 -0.035832 -1.0605 -0.28508 0.98074 0.57645 
-0.066577 0.11872 0.043087 -0.023336 -1.2009 -0.76945 0.74267 0.40694 
-0.087293 0.14601 0.040128 -0.014787 -0.96 -0.61868 0.24367 0.14026 
-0.10193 0.1636 0.021878 0.014808 -0.57494 -0.28475 -0.45377 -0.021363 
-0.054904 0.11937 0.021549 0.019411 -0.29709 -0.21521 -1.2502 -0.14599 
0.049992 0.041772 0.039305 -0.0034422 -0.24266 -0.5031 -1.1923 -0.27999 
0.19895 -0.071509 0.074983 0.0042853 -0.19268 -0.4056 -0.092554 -0.4564 
0.30681 -0.10735 0.092576 0.014479 0.046375 0.10162 1.3148 -0.45229 
0.30944 -0.089595 0.094055 0.015959 0.33114 0.45905 1.9317 -0.16095 
0.22624 -0.053095 0.071531 0.065612 0.52926 0.48289 1.2813 0.34627 
0.1276 -0.014787 0.1008 -0.010019 0.52844 0.31897 -0.4028 0.6695 
0.029112 0.027796 0.044402 -0.0019624 0.54504 -0.033201 -2.4387 0.61262 
-0.036983 0.11609 -0.019719 0.058049 0.77966 0.25962 -2.6791 0.41055 
-0.15043 0.15505 -0.044381 0.069558 0.78525 0.88061 -1.3321 0.3147 
-0.15898 0.16788 -0.052766 0.11773 0.36287 0.90314 0.047855 0.21934 
-0.089431 0.13203 -0.035996 0.08008 -0.14073 0.43521 0.97811 0.041936 
0.018589 0.10228 -0.0039354 0.029441 -0.57511 -0.014787 1.5213 -0.15125 
0.073175 0.063968 0.043909 0.026481 -0.75317 -0.32504 1.6836 -0.35282 
0.05065 0.061172 0.076463 -0.043559 -0.66373 -0.56196 1.2722 -0.41645 
0.0074092 0.093069 0.043909 -0.058192 -0.60125 -0.71387 0.55573 -0.22162 
-0.046847 0.11707 0.0056006 -0.015773 -0.28229 -0.44818 -0.25401 0.075641 
-0.05326 0.15275 -0.018075 0.051636 0.25748 0.10836 -0.91347 0.28543 
-0.0087034 0.17265 0.0034632 0.12053 0.55113 0.329 -1.2319 0.34298 
0.085835 0.13023 0.0046141 0.10014 0.29875 -0.070359 -1.0161 0.25354 
0.10951 0.073339 -0.013143 0.064296 -0.097651 -0.29528 -0.65649 0.14206 
0.052294 0.053116 0.014643 0.069229 -0.084498 -0.040106 -0.024487 0.16064 
-0.023665 0.11526 0.027632 -0.0031133 -0.011827 0.1613 0.96249 0.13335 
0.0039565 0.11954 0.025001 -0.019061 0.082546 0.53962 1.5171 0.10474 
0.058542 0.083368 0.050814 -0.011498 0.069722 0.63268 1.2764 -0.11196 
0.11691 0.034209 0.070873 -0.043724 -0.18693 0.37668 0.94917 -0.4176 
0.19796 -0.060165 0.086163 -0.032215 -0.16128 0.12053 0.46941 -0.5927 
0.25535 -0.057534 0.12085 -0.038627 0.064954 -0.12149 -0.74626 -0.56113 
0.16278 0.028947 0.12644 0.005765 -0.084005 -0.35397 -1.5468 -0.38817 
-0.017088 0.13565 0.066763 0.027303 -0.35036 -0.48353 -1.1777 -0.18561 
-0.1621 0.18942 0.0018191 0.010697 -0.16917 -0.21817 -0.83176 -0.025474 
-0.19844 0.20832 -0.091075 0.076299 0.22263 0.19731 -0.97348 0.075641 
-0.17197 0.19829 -0.09387 0.1105 0.26357 0.42453 -0.47005 0.28478 
-0.027775 0.067913 -0.078086 0.08156 0.1978 0.58236 0.82701 0.44903 
0.16031 -0.025474 0.0059294 0.06594 0.51989 0.87157 1.4689 0.38622 
0.1784 -0.062302 0.075641 0.062981 0.80876 0.8423 1.0324 0.24745 
0.070544 -0.031721 0.10293 0.01974 0.31569 0.14272 0.43094 0.021056 
0.0019835 0.013986 0.099152 -0.0042642 -0.52003 -0.84409 0.26932 -0.16292 
-0.0022913 0.035524 0.025988 -0.018404 -0.93583 -1.5213 -0.054246 -0.37091 
-0.0031133 0.086328 -0.018075 -0.0034422 -0.70664 -1.3648 -0.66307 -0.44111 
-0.014951 0.1008 -0.018733 0.07597 0.08008 -0.64942 -1.0976 -0.34855 
-0.0029489 0.087314 -0.022679 0.084519 0.5485 -0.010348 -1.0371 -0.18019 
0.034044 -0.01117 -0.00097594 -0.02498 0.4293 0.5485 -0.58859 0.046211 
-0.019226 0.076134 0.021384 0.01563 0.39773 1.061 0.048841 0.23759 
-0.022679 0.073832 0.013821 0.052294 0.52959 1.2259 0.56707 0.29201 
0.009711 0.036346 0.034209 0.09685 0.36682 0.81896 0.65569 0.15522 
0.043745 0.011684 0.066269 -0.0080457 -0.0070593 0.38129 0.38869 -0.026789 
0.13368 0.0023123 0.12924 -0.07973 -0.29856 -0.012485 0.19106 -0.17641 
0.16541 -0.058356 0.1003 -0.089924 -0.44062 -0.50934 0.46925 -0.11771 
0.17149 -0.064111 0.077778 -0.054575 -0.42615 -0.90607 0.98929 0.076134 
0.10277 -0.0080457 0.022206 0.050486 -0.051451 -0.67129 1.2117 0.3609 
0.025659 0.048841 -0.023829 0.13697 0.35778 0.013657 0.45116 0.59355 
-0.0034422 0.048841 -0.011827 0.1294 0.36485 0.28494 -0.97414 0.50904 
-0.0088678 0.038648 0.0083956 0.072681 0.16262 0.09685 -1.5251 0.38753 
-0.023665 0.0093821 0.020727 -0.0032777 -0.31418 -0.21291 -0.87631 0.256 
-0.011005 -0.01528 0.046868 -0.028104 -0.80808 -0.42582 0.12858 -0.030406 
-0.014458 -0.011005 0.055254 -0.0073881 -0.9092 -0.31731 1.0468 -0.13612 
-0.037969 0.060186 0.06742 -0.014129 -0.57149 -0.084005 1.2048 0.020891 
-0.013636 0.062323 0.048019 0.031085 -0.1159 0.19994 0.57776 0.13039 
0.030592 0.03799 0.057227 0.019905 0.4704 0.27031 -0.38505 0.14634 
0.077778 0.026974 0.058706 0.062981 1.0924 0.23956 -0.94191 0.22016 
0.053445 0.050814 0.015794 0.16853 1.4792 0.09685 -1.3515 0.030756 
0.040785 0.04506 -0.023994 0.1562 1.5425 -0.061151 -1.9023 -0.40642 
0.054925 0.032236 0.0034632 0.1054 1.0182 -0.12905 -2.131 -0.60273 
0.049992 0.028947 0.039799 -0.0047575 0.23578 -0.17969 -1.1218 -0.23329 
0.035688 0.00297 0.10556 -0.068714 -0.27916 -0.11722 0.57924 0.16853 
0.011355 -0.016266 0.08863 -0.049478 -0.50014 0.10869 1.5154 0.18892 
-0.012649 -0.023336 0.086492 -0.043888 -0.5419 0.19073 1.4171 0.057227 
-0.02794 -0.029255 0.00083261 -0.0034422 -0.56541 0.073832 0.9352 -0.29413 
-0.03353 0.0070803 -0.047341 0.060186 -0.56048 -0.031228 0.59223 -0.40872 
-0.033037 0.051143 -0.052273 0.049335 -0.57412 0.14042 0.56214 -0.11755 
-0.052273 0.051636 -0.014951 0.047526 -0.53433 0.31092 0.71357 0.28806 
-0.080881 0.032236 0.025824 0.013821 -0.51148 0.40694 0.82668 0.50821 
-0.038462 0.018754 0.077285 -0.035338 -0.39705 0.15111 0.55672 0.4288 
0.056404 -0.0060728 0.10639 -0.014951 -0.035338 -0.24168 0.081889 0.29267 
0.12908 -0.014951 0.10984 0.0041209 0.36928 -0.22885 -0.25976 0.12546 
0.16492 -0.023501 0.093233 -0.027447 0.48865 -0.63348 -0.65781 0.01711 
0.20109 0.015301 0.049828 0.018096 0.57382 -1.1527 -1.007 -0.048327 
0.15834 0.090274 0.0079024 0.059528 0.75895 -0.50129 -0.81548 -0.030735 
0.062159 0.046375 0.0039565 0.089452 0.7185 0.66293 -0.020541 0.0098754 
-0.015773 0.053445 0.015301 0.083697 0.47484 1.183 0.61525 -0.054739 
-0.067235 0.085341 0.0031344 0.057555 0.42173 1.1649 0.61886 -0.10768 
-0.13152 0.044238 -0.030899 0.060844 0.16475 0.72639 -0.0019624 -0.11442 
-0.086964 0.10803 0.0085601 0.028619 -0.17147 0.1105 -0.85527 -0.13777 
-0.045532 0.054103 0.025824 0.03388 -0.17098 -0.32438 -0.83768 -0.20189 
0.027632 0.0689 0.014643 0.068242 -0.24151 -0.34723 0.10425 -0.28903 
0.010204 0.059035 0.013492 0.031414 -0.56245 -0.18413 0.79808 -0.2185 
0.014315 0.056733 0.023193 0.012835 -0.69184 -0.15881 0.9135 -0.055561 
0.011684 0.054925 0.02681 0.0075736 -0.42763 -0.3109 0.85529 0.0087245 
0.055582 -0.019719 0.096686 -0.027282 -0.1062 -0.44078 0.72475 -0.22688 
0.085177 -0.053917 0.10918 -0.0049219 0.22723 -0.39047 0.18563 -0.36515 
0.12316 -0.029584 0.02533 0.021713 0.59766 -0.066413 -0.23214 -0.35595 
0.14371 0.015465 -0.00031829 0.03799 0.52679 0.14141 -0.7262 -0.13218 
0.14289 0.009711 0.031907 0.058377 0.014808 -0.13382 -1.3181 0.10902 
0.08715 0.009711 0.03092 0.015794 -0.14928 -0.13349 -1.0897 0.26061 
0.0082312 0.043087 0.067091 -0.011663 -0.3788 -0.015609 0.11954 0.41779 
-0.083512 0.046375 0.091589 -0.063618 -0.78227 0.024673 1.5802 0.44557 
-0.087622 0.005765 0.14568 -0.084169 -0.73541 0.12135 2.3811 0.39395 
-0.090746 0.048513 0.076134 0.0421 0.01826 0.47155 1.9317 0.30385 
-0.039449 0.097015 -0.0057439 0.15785 0.67592 0.97532 0.46596 0.12644 
0.01974 0.098823 -0.037969 0.19221 0.89409 0.93142 -1.3225 -0.095185 
0.068407 0.079751 -0.044052 0.14831 0.62659 0.34133 -2.8177 -0.13497 
0.067256 0.051143 0.0069159 0.01826 -0.076606 -0.20386 -2.5921 0.06035 
0.0062583 0.073339 0.038648 -0.043888 -0.41546 -0.21751 -0.99025 0.21112 
-0.015609 0.094384 0.035524 -0.025145 -0.1963 -0.045861 0.35991 0.17577 
0.023193 0.10211 0.045718 -0.023336 0.087808 -0.049149 0.88094 -0.0042642 
0.11083 0.10589 0.027632 0.013986 0.4168 -0.26371 0.89968 -0.22787 
0.12595 0.094384 -0.011005 0.10836 0.90643 -0.364 0.81846 -0.27522 
0.053445 0.071531 -0.0013048 0.12217 0.93931 -0.29528 0.67197 -0.10801 
0.0034632 0.032564 0.052787 0.058542 0.49523 -0.19038 0.36896 0.052459 
-0.036489 0.0011614 0.063474 0.012013 0.1567 -0.08384 -0.015444 0.16525 
0.0019835 0.049499 0.023028 0.050157 -0.14977 0.11 -0.16128 0.3193 
-0.0042642 0.069558 0.0087245 0.066105 -0.55719 0.22033 0.0689 0.41762 
-0.0032777 0.079916 0.029769 -0.00097594 -0.84113 0.24811 0.36353 0.38441 
0.06035 0.024673 0.044073 -0.015116 -0.85921 0.23693 0.44097 0.22016 
0.096686 -0.023336 0.045553 -0.049149 -0.61572 0.20339 0.20569 0.082546 
0.096521 -0.0011404 0.027796 -0.011827 -0.2762 0.17462 -0.11064 -0.047998 
0.07038 0.044402 0.019247 0.031907 0.012013 0.32604 -0.15289 -0.073647 
0.074326 0.034537 0.0041209 0.011848 0.0028056 0.2537 0.0047785 -0.040106 
0.068571 0.05213 0.0046141 0.033058 -0.020541 0.015959 0.23496 -0.022843 
0.070215 0.092411 0.028125 0.079751 0.086328 0.015465 0.48174 0.067585 
0.054596 0.076299 0.031742 0.040621 0.37011 0.31618 0.61821 0.13154 
0.043416 0.066763 -0.014293 0.02533 0.51002 0.20997 0.18892 0.067749 
0.04358 0.057884 0.023028 0.052623 0.68299 -0.1478 -0.72094 0.044402 
0.035853 0.090603 0.027139 0.094384 0.78492 -0.36466 -1.5185 -0.13711 
0.040621 0.065447 0.015137 0.13006 0.60604 -0.40231 -1.2119 -0.19794 
0.050321 0.099645 0.0041209 0.056569 0.13615 -0.33145 -0.28706 -0.11541 
0.034044 0.094384 0.030427 0.0080668 -0.33622 -0.37452 0.28839 -0.073811 
0.043416 0.063968 0.051636 -0.016266 -0.62706 -0.3617 -0.1062 -0.064933 
0.016288 0.055747 0.034537 -0.022514 -0.6606 -0.15964 -0.7193 -0.05178 
0.00017495 0.067749 0.012835 0.0082312 -0.53368 0.0087245 -0.55275 0.032071 
-0.019226 0.12168 -0.011992 0.029605 -0.27045 0.29628 0.524 0.078765 
-0.047341 0.15472 -0.0088678 0.045389 -0.15552 0.5679 1.5421 0.12036 
-0.032543 0.13302 0.00083261 0.02681 -0.33622 0.44557 1.7798 0.070708 
-0.033859 0.12447 0.043745 -0.039613 -0.36367 0.2491 1.2405 0.090438 
-0.051451 0.084848 0.061172 -0.033037 -0.23132 -0.11278 0.26866 0.068736 
0.0023123 0.055747 0.036346 0.049499 0.17067 -0.14862 -0.41316 -0.095349 
0.1853 0.047362 -0.012485 0.09274 0.82636 0.29661 -0.18907 -0.24727 
0.28313 -0.012156 -0.020212 0.14897 1.1733 0.42239 0.56329 -0.1746 
0.21671 -0.062138 -0.015444 0.1128 0.91169 0.35482 0.97351 0.05065 
0.076134 0.018589 0.0072447 0.054596 0.41417 0.1664 0.51611 0.25041 
0.0082312 0.11707 0.022371 0.045389 -0.039449 -0.092554 -0.089102 0.31305 
-0.10817 0.13664 0.023522 -0.0054151 -0.3686 -0.26733 -0.51477 0.20849 
-0.16144 0.061172 0.06183 -0.03764 -0.64942 -0.42894 -1.6007 -0.054904 
-0.071181 -0.0042642 0.078929 -0.061809 -0.89703 -0.65616 -2.9601 -0.34756 
0.016452 -0.053753 0.082711 -0.078744 -0.92005 -0.51362 -2.0854 -0.3765 
0.054432 -0.040106 0.057884 -0.039284 -0.76007 -0.21159 0.78262 -0.20764 
0.044073 -0.0052507 0.0054362 -0.010348 -0.64877 -0.068386 2.7084 -0.18446 
0.045718 0.020069 0.018754 -0.030735 -0.45985 -0.0062372 2.2933 -0.27801 
0.035524 -0.034352 0.050321 0.022864 -0.022514 0.061172 0.80613 -0.17509 
0.095042 -0.078086 0.10441 -0.010841 0.13351 -0.087951 -0.182 -0.035832 
0.17988 -0.0868 0.13236 -0.021199 0.17955 -0.20682 -1.0016 -0.036654 
0.14338 0.0031344 0.028125 0.066105 0.42305 -0.0406 -1.3585 0.3415 
-0.0011404 0.045718 -0.046683 0.15571 0.9472 0.53551 -0.74528 0.80712 
-0.092226 0.034702 -0.077757 0.19928 1.1327 0.7402 -0.059343 0.75073 
-0.085156 0.070215 -0.027775 0.12875 0.85957 0.26061 -0.071016 0.31059 
-0.074962 0.059528 0.0092177 0.047033 0.55869 -0.085485 -0.45476 -0.1547 
-0.083512 -0.034023 0.056733 0.038483 0.46185 -0.14484 -0.48797 -0.25039 
-0.017088 -0.15832 0.10113 -0.019061 0.21424 -0.21784 0.066269 -0.21882 
0.10935 -0.21455 0.092576 -0.024323 0.01004 -0.026953 0.66391 -0.2037 
0.27261 -0.17032 0.05213 0.023028 -0.20386 0.22361 0.74037 -0.22803 
0.31963 -0.02087 0.042923 -0.0034422 -0.44785 0.26587 0.42255 -0.11442 
0.2394 0.098166 0.047033 -0.031392 -0.94635 0.050486 -0.049807 -0.0091966 
0.12431 0.11691 0.054432 -0.028926 -1.1698 -0.21504 -0.48139 -0.046519 
0.0051074 0.088136 0.084848 -0.058521 -0.9965 -0.070852 -0.41283 0.10392 
-0.10538 0.048348 0.086328 -0.021692 -0.77734 0.014479 -0.088608 0.42239 
-0.1455 0.0019835 0.09422 -0.092719 -0.57297 0.21556 -0.058356 0.81567 
-0.0771 -0.070194 0.046046 -0.053917 -0.16572 0.27327 -0.21586 0.76634 
-0.013471 -0.07414 0.040785 0.013986 0.48388 -0.055726 -0.30383 0.056076 
0.0021479 -0.025309 0.023686 0.051143 1.0781 -0.79197 -0.12149 -0.54831 
0.0065871 0.038977 -0.037147 0.16673 1.5841 -0.66126 0.26702 -0.40379 
0.0026412 0.077778 -0.066413 0.20421 2.0256 0.60686 0.62018 -0.10456 
0.013821 0.10836 -0.044217 0.17511 1.6345 1.0478 0.6409 0.066105 
0.026152 0.06479 0.028947 0.10277 0.51035 0.31832 0.13351 0.12875 
0.039305 0.012342 0.1008 0.023028 0.024837 -0.23411 -0.56508 0.034373 
0.047197 0.0013258 0.085177 0.042758 0.11263 -0.39475 -1.0716 -0.065262 
0.066105 0.0011614 0.067091 0.044731 -0.24743 -0.54995 -0.74149 0.072846 
0.023522 0.01152 0.02829 0.0036276 -0.7604 -0.29478 0.2468 0.2588 
0.0070803 0.018754 0.034209 -0.032215 -0.78983 0.34248 0.96496 0.16804 
-0.004593 0.035524 0.053445 -0.03616 -0.5391 0.55705 0.87815 -0.10998 
0.021878 0.09422 0.073832 -0.035667 -0.4227 0.1544 0.34939 -0.077922 
0.053938 0.11559 0.081231 -0.017417 -0.51822 -0.12577 -0.1159 0.057062 
0.068242 0.16706 0.064954 -0.012814 -0.31616 -0.074304 -0.33375 0.079094 
0.053938 0.21901 0.0227 0.047033 -0.18315 0.13039 -0.55719 0.02681 
0.032236 0.14716 -0.015116 0.11 -0.041586 0.32966 -0.49751 -0.022843 
0.042429 0.08863 -0.025802 0.0689 0.059693 0.26209 0.088136 -0.01939 
0.055911 0.044238 0.010204 0.041936 0.086657 -0.034681 0.37372 0.023028 
0.056898 0.047526 0.038648 -0.031721 0.092411 -0.22639 -0.24365 0.14404 
0.069229 0.04654 0.07301 -0.043559 0.52153 -0.037311 -0.66981 0.18629 
0.043251 0.085835 0.069558 0.06035 1.1958 0.29398 -0.23148 0.16525 
-0.0031133 0.16656 0.021713 0.088958 1.4584 0.16294 0.7476 0.12579 
-0.001798 0.14535 -0.015116 0.047033 1.0314 -0.093541 1.7185 0.053609 
0.035853 0.15193 0.03092 -0.0014692 0.0064227 0.065612 2.0108 -0.11903 
0.032236 0.18925 0.013986 -0.011334 -0.74906 0.34676 1.4312 -0.43651 
-0.0021268 0.1978 -0.0098543 0.041114 -0.93879 0.41565 0.49638 -0.60602 
-0.022843 0.18136 -0.011498 0.074326 -0.79493 0.15719 -0.084169 -0.63775 
-0.040435 0.15587 0.012342 0.061501 -0.67425 -0.86365 -0.086964 -0.31862 
-0.064275 0.13351 0.045389 0.038812 -0.6486 -1.468 -0.32767 0.18087 
-0.032708 0.090931 0.035688 -0.024323 -0.40954 -0.87927 -1.0108 0.55737 
-0.0024557 0.092247 0.021056 0.042758 0.48043 0.29217 -1.2411 0.60768 
0.080738 0.071695 0.033222 0.10425 1.1631 0.93914 -0.93534 0.19977 
0.16015 0.11115 0.0689 0.023193 0.5286 0.61114 -0.29018 -0.19679 
0.10852 0.068242 0.058706 -0.040106 -0.59007 0.096028 0.61985 -0.19844 
-0.0011404 0.084848 0.03536 0.055089 -0.68806 0.36863 0.92632 0.020233 
-0.12708 0.12644 -0.040435 0.1419 -0.2134 0.86138 0.5947 0.19073 
-0.17542 0.11313 -0.049971 0.1539 -0.18298 0.64435 0.21095 0.30944 
-0.12708 0.1105 -0.01676 0.020398 -0.33309 -0.049478 -0.28706 0.22016 
-0.042901 0.077614 0.072681 -0.09798 -0.38373 -0.43634 -0.79427 0.022864 
0.047197 0.035031 0.12973 -0.13366 -0.15931 -0.58119 -0.84376 -0.25763 
0.13861 -0.016431 0.11642 -0.1284 0.30335 -0.60487 -0.30021 -0.41201 
0.24893 -0.069536 0.076792 0.0082312 0.89262 -0.33293 0.30549 -0.26404 
0.34002 -0.087622 0.055089 0.06594 1.1659 -0.14073 0.4316 0.014479 
0.28938 -0.069536 0.049499 0.092576 1.2039 0.10836 0.29678 0.13762 
0.15555 -0.01117 -0.004593 0.18136 1.0912 0.47928 0.29826 0.0059294 
-0.028926 0.077614 -0.053917 0.20914 0.50016 0.76996 0.24795 0.017767 
-0.15322 0.11017 -0.069865 0.13187 -0.24365 0.6797 0.13697 0.25452 
-0.16572 0.051472 -0.017417 0.028454 -0.88552 0.25978 -0.029584 0.42173 
-0.14648 0.016616 0.037004 -0.070687 -1.1887 0.057227 -0.18726 0.37997 
-0.076113 0.066763 0.066434 -0.055726 -0.78243 0.2583 -0.26634 0.036675 
-0.034352 0.044073 0.068571 -0.018897 -0.42878 0.55096 0.048513 -0.15405 
-0.0060728 0.012177 0.071531 -0.03764 -0.4296 0.083368 0.23562 -0.19285 
0.048184 -0.028104 0.066105 -0.05589 -0.47416 -0.93632 0.16344 -0.2277 
0.06479 -0.011827 0.07301 -0.065755 -0.34312 -1.4626 0.048019 -0.16259 
0.034537 0.0018191 0.042594 -0.018897 0.055254 -0.86957 0.20388 -0.017746 
0.017274 -0.00031829 0.01826 0.061008 0.37816 -0.019555 0.26883 0.2394 
0.013328 -0.021692 0.015465 0.060515 0.41598 0.60341 0.19122 0.3803 
0.087643 -0.087129 0.032729 0.062981 0.42403 0.82537 0.16146 0.32835 
0.15472 -0.14747 0.060022 0.045882 0.2394 0.57628 0.027303 0.2223 
0.17363 -0.093705 0.059364 -0.021856 -0.11837 -0.052931 -0.52398 0.18119 
0.11905 0.005765 0.018096 0.0028056 -0.071838 -0.45525 -1.2035 0.10211 
0.010204 0.02681 0.010533 0.044731 0.56461 -0.20337 -1.4289 -0.033859 
-0.034516 0.0085601 0.019576 0.068407 0.88982 -0.17986 -0.80578 -0.031557 
-0.012814 0.034702 0.01826 0.12644 0.88028 -0.027775 0.015794 0.07449 
-0.013471 0.073997 -0.025802 0.17725 0.86779 0.41088 0.29431 0.14585 
0.021713 0.082217 -0.012649 0.1271 0.25107 0.46678 -0.081539 0.10754 
0.029112 0.059528 0.014479 0.058049 -0.51723 0.30714 -0.025638 0.040128 
0.022206 0.03947 0.0039565 -0.009361 -0.89687 0.26718 0.45396 0.013492 
0.022206 0.0034632 0.032893 -0.013965 -0.89012 0.13302 0.66885 0.0065871 
0.0098754 -0.010841 0.050814 -0.063453 -0.70253 -0.060165 1.0067 -0.15832 
0.03536 -0.0077169 0.066927 -0.082032 -0.35545 -0.12856 1.632 -0.58366 
0.084684 -0.066248 0.088958 -0.063618 -0.0039354 0.060844 2.2872 -0.61999 
0.11395 -0.053588 0.098988 -0.07414 0.16952 0.25403 2.2145 -0.092061 
0.029769 0.0082312 0.078272 -0.0029489 0.18284 0.0051074 1.1886 0.53337 
0.01152 0.087808 -0.0050863 0.092904 0.58352 -0.12889 -0.72226 0.76717 
0.0047785 0.06183 -0.017746 0.13713 1.2081 -0.13991 -2.7878 0.76256 
-0.016924 0.087314 -0.041257 0.16475 1.2233 -0.55291 -3.7889 0.54652 
-0.0014692 0.10836 -0.035832 0.092411 0.49062 -0.86924 -2.8036 0.26373 
-0.051615 0.085341 -0.065262 0.065283 -0.18035 -0.4467 -0.63068 -0.003771 
-0.056877 0.031249 -0.0096899 0.057391 -0.61391 0.037826 0.79725 -0.38225 
0.054267 0.010697 0.063968 -0.020706 -0.90689 0.20109 1.4459 -0.79115 
0.1539 0.021878 0.12414 -0.070687 -0.98433 0.16442 1.3425 -0.71716 
0.16673 -0.018733 0.11214 -0.088773 -0.74922 0.11691 0.55573 -0.17114 
0.10852 -0.056383 0.11855 -0.093212 -0.40346 0.015301 -0.35529 0.26702 
0.07449 0.01152 0.067913 -0.0044286 -0.35101 -0.34 -0.63084 0.42847 
-0.0049219 0.088794 0.004943 0.016452 -0.18857 -0.18578 -0.13596 0.3928 
-0.075291 0.10425 -0.038956 0.087314 0.081724 0.42091 0.53041 0.14601 
-0.076935 0.10458 -0.028762 0.15834 0.19649 0.45823 0.64665 -0.17756 
-0.021856 0.11839 -0.018075 0.092411 0.13598 0.16212 0.31651 -0.4587 
0.033387 0.094055 0.034537 0.01711 0.14157 -0.031392 -0.0036066 -0.4786 
0.084026 0.057062 0.026317 0.027303 0.3022 -0.24398 -0.12346 -0.34181 
0.10885 0.036017 0.039799 0.0227 0.3558 -0.35315 -0.18791 -0.24694 
0.099645 0.02533 0.047855 0.060679 0.43604 -0.24891 -0.080552 -0.0068948 
0.075312 0.041443 0.031907 0.034044 0.56362 0.08304 -0.051615 0.24515 
0.043251 0.05213 0.01563 0.033387 0.55573 0.32045 -0.10916 0.48536 
0.012177 0.086657 0.04506 0.03947 0.2634 -0.10143 -0.10801 0.53863 
-0.029913 0.066598 0.08304 -0.016595 -0.25845 -0.61687 -0.068879 0.42486 
-0.044546 0.1105 0.054432 -0.015444 -0.66734 -0.52019 -0.081374 0.1562 
-0.019555 0.13746 0.0018191 -0.0078813 -0.83472 -0.13432 -0.17772 -0.19646 
0.023522 0.11198 -0.01939 0.011355 -0.70286 0.5041 -0.30268 -0.32306 
0.071695 0.076792 -0.023007 0.048184 -0.42303 1.0077 -0.37124 -0.27604 
0.074983 0.042265 0.012177 0.048019 -0.13645 0.94917 -0.035338 -0.12527 
0.041443 0.055089 0.027468 0.023193 -0.13991 0.30566 0.62643 -0.049314 
0.051472 0.047033 0.04506 0.022371 -0.38274 -0.44999 1.0473 -0.045039 
0.047691 0.062488 0.044896 0.040785 -0.11903 -0.65403 1.1386 0.10145 
0.060844 0.095371 0.037004 0.1008 0.44294 -0.42977 0.74678 0.17643 
0.12661 0.037004 0.077943 0.025988 0.50608 -0.41119 -0.37946 -0.026296 
0.17166 -0.010019 0.11378 -0.043724 0.27277 -0.53433 -1.1203 -0.18265 
0.14897 -0.0096899 0.072024 -0.040106 0.033387 -0.36121 -1.1073 -0.048327 
0.074326 0.034537 0.053116 -0.022185 0.23562 0.11921 -0.92597 0.058542 
0.01826 0.15407 -0.0004827 0.068078 0.92254 0.58204 -0.8459 -0.001798 
0.011684 0.22098 -0.023501 0.14716 0.96956 0.84576 -0.44884 0.044567 
-0.034352 0.28214 -0.054739 0.1151 0.40989 0.87848 0.57414 0.17429 
-0.086964 0.26258 -0.060823 0.058213 -0.10341 0.68266 1.293 0.14535 
-0.10916 0.19912 -0.045203 0.012342 -0.49109 0.44031 1.0723 0.012013 
-0.091897 0.076627 -0.032379 0.016288 -0.81581 0.69696 0.96792 0.10967 
-0.11442 0.00297 -0.0091966 0.058377 -0.8801 0.7139 1.3055 0.33837 
-0.042408 -0.052109 0.015137 0.022206 -0.67211 0.23973 1.5028 0.35399 
0.0421 -0.05441 0.077449 0.005765 -0.12379 -0.70746 1.2139 0.13779 
0.095864 -0.057699 0.15489 -0.036818 0.28658 -1.068 0.78443 -0.15898 
0.12053 -0.082032 0.18909 -0.095843 0.30483 -0.71683 0.35366 -0.47251 
0.16508 -0.069865 0.13894 -0.07562 0.62281 -0.37091 -0.28541 -0.64054 
0.1026 -0.01232 0.080902 0.024508 1.0095 -0.72127 -1.542 -0.66652 
0.031249 0.044567 -0.0022913 0.087643 1.0988 -0.87105 -2.8831 -0.54173 
0.040292 0.0046141 -0.03501 0.15028 0.82389 -0.10653 -2.7261 0.023851 
0.10458 -0.044381 -0.049149 0.13138 0.55902 0.75336 -1.0749 0.98962 
0.036839 -0.013471 -0.015938 0.15637 0.59766 1.268 0.57908 1.7851 
-0.13382 0.04917 -0.017582 0.1687 0.28543 1.0473 1.1404 1.4454 
-0.13629 0.11083 -0.006566 0.013821 -0.50408 0.2856 0.95591 0.34906 
-0.049807 0.09833 0.046375 -0.055561 -1.034 -0.17756 0.82011 -0.35956 
-0.025967 0.069722 0.079422 -0.071345 -0.99371 -0.22195 0.74316 -0.59928 
-0.027611 0.004943 0.087808 -0.070523 -0.64449 -0.16786 0.65257 -0.54436 
-0.027282 -0.047012 0.069558 -0.0095255 -0.29314 -0.0004827 0.59355 -0.40823 
0.090438 0.038648 0.011355 0.028125 0.041936 0.08304 0.71439 -0.15306 
0.26011 0.054267 0.0036276 0.032236 0.3489 0.02829 0.87206 0.075148 
0.22131 0.058542 0.0037921 0.092411 0.93454 0.27277 1.0345 0.18481 
0.040621 0.046375 -0.024323 0.10145 1.354 0.32604 1.0726 0.23118 
-0.022679 0.017932 0.032564 0.10655 0.98913 0.14289 0.39049 0.19879 
0.00033937 0.020233 0.039305 0.053116 0.17758 0.12694 -0.92251 0.11674 
0.034866 0.010862 0.030592 0.00066819 -0.44917 0.058871 -2.1441 0.12628 
0.074819 -0.003771 0.080573 -0.025802 -0.68888 -0.25582 -2.4133 -0.087786 
0.11707 -0.071181 0.12349 -0.04619 -0.54469 -0.39409 -1.4651 -0.65337 
0.071531 -0.090417 0.13943 -0.050629 -0.36976 -0.29396 0.073504 -0.82715 
-0.0080457 -0.048163 0.10918 -0.052273 -0.24414 -0.16638 0.84987 -0.26716 
-0.053095 0.042429 0.059035 -0.02646 0.12398 -0.18594 0.21062 0.25107 
-0.0019624 0.08715 0.03388 0.055911 0.66901 -0.22524 -0.81565 0.28954 
0.10293 0.057062 0.014808 0.076956 0.8571 -0.038133 -1.1474 0.20355 
0.14913 0.066105 0.0059294 0.062323 0.82093 0.41976 -0.36499 0.40151 
0.073175 0.051308 -0.029091 0.086985 0.32637 0.53321 0.92336 0.49868 
-0.019061 0.039305 -0.010512 0.048841 -0.36597 -0.07562 1.3033 0.37816 
-0.08384 0.062159 0.036182 0.029276 -0.72571 -0.57593 0.49917 0.26537 
-0.091897 0.063968 0.010533 0.054596 -0.7216 -0.69053 -0.44884 0.17445 
-0.038627 0.036346 0.0070803 0.038977 -0.78079 -0.77898 -0.77339 0.11658 
-0.016595 0.059693 0.011684 0.01826 -0.61654 -0.28492 -0.58168 0.098494 
-0.0060728 0.08715 0.0072447 0.065447 -0.25187 0.29941 -0.39491 0.090274 
0.034866 0.049499 0.049006 -0.008539 -0.21998 0.33377 -0.21932 -0.08384 
0.020727 0.030592 0.082382 -0.028104 -0.22507 0.39575 -0.00031829 -0.24003 
0.0067515 0.090603 0.067749 0.00033937 -0.11985 0.43341 0.093562 -0.26733 
-0.0042642 0.15209 0.025001 0.033551 0.18892 0.36156 0.10902 -0.2476 
0.046375 0.11198 0.0034632 0.083862 0.49013 0.25798 0.050486 -0.2568 
0.051472 0.077285 0.062488 0.071859 0.82685 0.3706 0.073175 -0.33589 
0.082711 0.078272 0.032071 0.047197 0.99159 0.46958 0.44393 -0.2282 
0.044731 0.098494 0.0046141 0.076134 0.82044 0.17478 0.6067 -0.1016 
0.018096 0.089123 0.015794 0.038319 0.29365 -0.38291 0.56214 0.048513 
0.019411 0.069722 0.029769 0.0083956 -0.43519 -0.83998 0.34298 0.13762 
0.041936 0.12924 0.040128 -0.014622 -0.87401 -0.63463 0.23331 0.20816 
0.063803 0.11839 0.01563 -0.0064016 -0.75843 0.027632 0.0074092 0.27212 
0.031742 0.1128 0.011355 0.048019 -0.36663 0.53468 -0.25138 0.20947 
-0.0067304 0.12085 0.013164 0.056898 -0.037805 0.58171 -0.19005 0.16673 
-0.00081153 0.089287 0.027961 0.041443 0.036346 0.37126 -0.097487 0.11609 
0.020398 0.079916 0.070051 0.021384 0.092576 0.14683 -0.047998 0.1276 
0.029769 0.049335 0.055089 0.01974 0.022864 -0.044874 0.050814 0.10343 
0.0098754 0.062817 0.038155 0.03799 -0.071181 -0.1182 0.24548 0.10819 
-0.0049219 0.058871 0.018918 0.0786 -0.019061 -0.085978 0.40677 0.061666 
-0.0026201 0.062652 -0.032708 0.071037 0.0019835 -0.023665 0.33213 -0.06 
0.050979 0.058871 1.0539e-005 0.04358 -0.20173 -0.071674 0.043745 -0.20123 
0.055911 0.039305 0.034702 -0.031557 -0.29429 -0.11393 -0.11886 -0.2471 
0.03947 0.0011614 0.042265 -0.010019 -0.11245 0.18958 0.2297 -0.022514 
-0.0077169 0.032893 0.035853 0.034537 0.11198 0.49259 0.8086 0.18448 
-0.02498 0.070708 0.0028056 0.049828 0.32966 0.63942 0.99916 0.12628 
-0.032215 0.071859 -0.0057439 0.10244 0.45922 0.50805 0.61327 0.018754 
-0.023336 0.079094 -0.021034 0.069229 0.22098 -0.004593 -0.031392 -0.050464 
-0.0013048 0.071531 -0.0059084 0.019576 -0.34953 -0.74215 -0.50277 -0.075784 
0.052623 0.013986 0.042758 -0.036654 -0.72982 -1.0085 -1.1917 -0.084663 
0.11674 -0.03764 0.11181 -0.12478 -0.57215 -0.81499 -1.4575 -0.058356 
0.14913 -0.06707 0.15127 -0.15964 -0.13053 -0.5659 -0.89111 -0.046354 
0.14157 -0.037969 0.1299 -0.089266 0.21358 0.050979 0.064625 0.03388 
0.0085601 -0.00015387 0.035524 0.10359 0.69729 0.89393 1.3053 0.30451 
-0.097158 0.047362 -0.024652 0.29053 1.2741 1.2816 2.2112 0.47139 
-0.050793 0.11461 -0.06855 0.3119 1.4164 1.0378 2.194 0.38934 
0.01974 0.10113 -0.055397 0.20043 1.1632 0.54159 1.3262 0.18744 
0.07597 0.04095 0.0056006 0.096686 0.75927 0.048513 -0.14878 -0.0075525 
0.10113 -0.026953 0.065776 -0.045696 0.14338 -0.34723 -1.4958 -0.1935 
0.13203 -0.074962 0.087643 -0.11935 -0.71141 -0.58843 -1.7477 -0.20107 
0.13335 -0.1233 0.1174 -0.12741 -1.2073 -0.61391 -1.29 -0.22409 
0.12151 -0.09091 0.11165 -0.097816 -1.0718 -0.39261 -0.56228 -0.35447 
0.12612 -0.013471 0.10113 -0.0052507 -0.67589 -0.14878 0.075476 -0.60914 
0.072846 0.030592 0.016781 0.024015 -0.25121 0.10277 0.52022 -0.53285 
-0.017088 0.052623 0.0062583 0.023851 -0.28426 0.30171 0.48125 -0.093705 
-0.072825 0.091096 0.012999 0.013657 -0.56738 0.51956 0.28527 0.27458 
-0.073318 0.090931 0.032729 0.019247 -0.53039 0.56247 0.31421 0.4482 
-0.028433 0.021056 0.009711 0.035853 -0.25878 0.25863 0.41335 0.41927 
0.012177 -0.043559 0.02533 0.012342 -0.21422 -0.25088 0.61755 0.30401 
0.075805 -0.046025 0.063145 -0.021528 -0.14813 -0.68954 1.084 0.17363 
0.13582 -0.012814 0.039634 0.04654 0.4117 -0.56278 1.2971 0.084684 
0.10162 0.012177 0.0046141 0.14782 1.3262 -0.23806 0.51019 -0.0072237 
0.060022 0.08008 -0.032215 0.17643 1.3485 -0.25631 -0.98664 -0.12034 
0.044896 0.1151 0.00066819 0.11214 0.53781 -0.48896 -2.3758 -0.20781 
0.044731 0.047033 0.058377 -0.047012 0.040456 -0.20173 -2.6546 -0.23691 
0.028947 -0.011334 0.090767 -0.023336 0.017603 0.39575 -1.4565 -0.18989 
-0.013143 0.022864 0.067749 0.042594 -0.27456 0.48931 -0.18002 -0.11755 
0.0088889 0.077943 0.029769 0.0227 -0.53351 0.049006 0.12184 -0.1552 
0.080902 0.049992 0.0072447 0.020891 -0.32586 -0.17082 -0.23543 -0.16407 
0.11083 0.0041209 0.0075736 0.0014903 -0.058521 -0.21521 0.0047785 0.030756 
0.12003 -0.017746 0.036839 0.013986 0.061337 -0.21932 0.70452 0.35646 
0.13927 0.0079024 0.059857 0.040292 0.22312 -0.27209 1.2921 0.55129 
0.047691 0.045718 0.064132 0.024673 0.26406 -0.38307 1.3199 0.67921 
-0.036818 0.11872 0.056733 0.060186 0.55787 0.12102 0.96216 0.6233 
-0.076935 0.13368 0.04917 0.063639 0.63991 0.50312 0.56971 0.21901 
-0.012814 0.14239 0.0092177 0.015794 0.21704 0.31897 -0.028269 -0.22458 
0.047691 0.0786 0.0019835 0.01974 -0.18084 0.10606 -0.57823 -0.24809 
0.051472 0.06035 0.023851 0.013328 -0.23198 0.018754 -1.2471 -0.017253 
0.0324 0.045882 0.027139 0.0026412 -0.23428 -0.040928 -1.4123 -0.14895 
0.012999 0.054925 0.010369 0.035853 -0.1917 -0.027611 -0.80496 -0.58251 
-0.003771 0.055747 0.01711 0.038155 -0.076935 -0.034023 -0.011005 -0.91923 
0.011684 0.023028 0.0062583 0.01826 -0.15026 -0.2545 0.48224 -0.75004 
0.0074092 0.037826 0.014315 0.081067 0.053609 -0.29577 0.59009 -0.041915 
-0.011827 0.062652 0.014972 0.093891 0.32835 0.057884 0.5508 0.57825 
-0.054246 0.07597 -0.0088678 0.10589 0.32687 0.57332 0.91103 0.92287 
-0.08532 0.070708 -0.013636 0.067749 0.10244 0.67329 0.9546 0.78147 
-0.069208 0.043416 0.0072447 0.0098754 -0.2425 0.21523 -0.18561 0.3609 
0.015137 0.059528 0.025495 -0.0042642 -0.6001 -0.27357 -1.668 0.043416 
0.067256 0.051801 0.049664 -0.028104 -0.55193 -0.40823 -1.9636 0.051965 
0.11707 0.035688 0.061995 -0.023829 -0.29906 -0.30827 -0.90098 0.14272 
0.17495 -0.001798 0.10129 -0.015773 -0.063124 -0.19745 0.50706 0.12497 
0.21013 -0.032708 0.066598 -0.046354 0.25485 -0.10932 1.314 -0.13678 
0.1465 0.011848 0.089616 0.0056006 0.54652 0.041114 1.3984 -0.33194 
0.054267 0.079258 0.049992 0.060186 0.58269 0.03799 1.2588 -0.13103 
-0.048492 0.13993 0.01267 0.10047 0.66342 -0.047834 0.81534 0.13713 
-0.068221 0.1248 0.0085601 0.09685 0.61755 -0.054739 -0.20995 0.4727 
-0.11376 0.11757 0.017438 -0.019226 0.022535 -0.15092 -1.4069 0.53271 
-0.13596 0.14535 0.012342 -0.023665 -0.4421 -0.21882 -2.0833 0.12118 
-0.076113 0.13631 -0.008539 0.047362 -0.13481 0.55984 -1.4825 -0.37814 
-0.010019 0.045882 -0.052766 0.093233 0.30007 1.5093 -0.07003 -0.54502 
-0.029913 0.01711 -0.047505 0.098001 0.2001 1.397 0.72491 -0.36219 
-0.035832 0.040292 0.0062583 0.016945 -0.25878 0.29694 0.7675 -0.070852 
-0.035832 0.024344 0.025824 -0.053753 -0.49915 -0.6805 0.56099 0.20158 
-0.010019 -0.035832 0.051965 0.0083956 0.024344 -0.46923 0.40036 0.37816 
0.049499 -0.075949 0.091425 0.076299 0.47204 0.18202 0.38145 0.39937 
0.14979 -0.030735 0.066105 0.098494 0.2292 0.12464 0.28494 0.27738 
0.19764 -0.034188 0.073668 0.048019 -0.047834 -0.14846 0.31503 0.15423 
0.17429 0.00066819 0.06183 -0.00015387 0.2029 -0.15207 0.67312 0.031249 
0.084848 0.0592 0.01267 0.041443 0.19599 -0.0029489 0.88259 -0.11722 
0.004943 0.11132 0.0060938 0.026152 -0.19827 0.17824 0.5406 -0.2157 
-0.017746 0.087479 0.030098 0.0092177 -0.46331 0.31207 -0.28097 -0.23 
-0.0042642 0.053609 0.05065 -0.017746 -0.50869 0.28379 -1.0641 -0.194 
-0.0027845 0.058706 0.087808 -0.040928 -0.36022 0.11181 -1.2987 -0.070523 
-0.037805 0.069558 0.080573 -0.023665 -0.18282 -0.11376 -0.74873 0.061666 
0.023522 0.10606 0.028947 0.007738 -0.073976 -0.17476 0.3775 0.12694 
0.055747 0.10178 0.022535 -0.0014692 0.03651 -0.0503 1.2801 0.18777 
0.022042 0.053445 0.016452 0.044073 0.10606 0.098659 1.6701 0.40036 
-0.042079 -0.018897 0.0056006 0.054596 0.17462 0.14667 1.4501 0.40052 
-0.0075525 -0.030406 -0.00097594 0.084355 0.32654 0.23858 0.65438 0.16163 
0.0074092 0.020069 -0.0039354 0.13384 0.32456 0.23381 -0.41596 -0.027282 
0.011848 0.029769 0.02829 0.065118 0.012013 0.064625 -1.1862 -0.026296 
0.024508 -0.013636 0.048348 -0.012978 -0.3349 -0.1575 -1.3429 0.16969 
0.015465 -0.01939 0.071859 -0.020377 -0.40231 -0.31649 -1.0596 0.076463 
0.01563 -0.0055795 0.03947 -0.029748 -0.29232 -0.35726 -0.22885 -0.20649 
0.032564 0.022371 0.012013 0.0041209 -0.18874 -0.206 0.57184 -0.41267 
0.062981 -0.039942 -0.024487 0.016288 -0.011334 0.035853 0.77835 -0.37732 
0.15472 -0.054575 0.015794 0.024344 0.11181 0.31108 0.47928 -0.37436 
0.14157 -0.010676 0.061172 0.051308 0.047197 0.39723 0.12349 -0.3104 
0.084684 0.10639 0.051143 0.026646 -0.029255 0.28067 0.13006 -0.069372 
0.013492 0.22197 0.010369 0.031742 -0.093376 0.18744 0.65191 0.21523 
-0.077757 0.13713 0.041772 -0.0062372 -0.13481 0.072517 0.88555 0.54422 
-0.1113 0.037497 0.071531 0.021878 -0.015444 -0.094692 0.57447 0.59502 
-0.094692 0.045718 0.023193 0.088301 0.25008 0.2491 0.46711 0.56872 
-0.015116 0.12727 -0.027447 0.1031 0.27853 0.36452 0.87042 0.39625 
0.032236 0.13269 -0.01117 0.064132 0.28247 0.058213 1.4383 0.089123 
0.089945 0.093233 0.013657 0.10737 0.47188 -0.33013 1.105 -0.22359 
0.19303 0.0592 0.026974 0.03651 0.50279 -0.53253 -0.21932 -0.51411 
0.24071 -0.02087 0.07038 -0.022021 0.21441 -0.59599 -1.4643 -0.6463 
0.18662 -0.082525 0.084848 -0.041586 -0.091075 -0.86711 -1.4953 -0.60437 
0.069722 -0.030077 0.061995 -0.05737 -0.70894 -1.0881 -0.32158 -0.13974 
-0.084169 0.021549 0.069722 -0.098144 -1.4001 -0.38455 0.95 0.61821 
-0.16523 0.01711 0.077943 -0.076771 -1.352 0.85759 1.5858 1.2496 
-0.12445 0.0090533 0.073832 -0.0044286 -0.55702 1.669 0.99899 0.93701 
0.030263 0.026481 0.094384 0.051143 0.13598 1.3106 -1.2227 -0.22606 
0.23183 0.069393 0.038483 -0.0050863 0.4921 -0.054904 -3.791 -0.98565 
0.35071 0.11263 -0.027282 0.043909 0.83162 -0.77027 -4.2095 -1.0823 
0.31667 0.1465 -0.081045 0.19484 1.5292 -0.43437 -2.0298 -0.90525 
0.14634 0.12349 -0.070194 0.24219 1.7403 -0.31731 0.83967 -0.50342 
-0.009361 0.054925 0.0014903 0.16344 1.0261 -0.38965 2.0891 0.13368 
-0.1182 0.067091 0.046375 0.077778 0.21868 -0.25713 1.6438 0.55639 
-0.090746 0.16426 0.044073 0.00017495 -0.14402 -0.10998 0.70058 0.42617 
-0.073976 0.19007 0.037332 -0.016266 -0.30646 -0.012649 0.041114 0.18218 
-0.096007 0.13828 0.023686 -0.045368 -0.29314 0.22197 -0.21291 0.12431 
-0.10193 0.037332 0.057884 -0.033859 -0.43634 0.34347 -0.090581 0.25518 
-0.050464 -0.0034422 0.032893 -0.0070593 -0.66455 0.17725 0.19336 0.293 
-0.0091966 -0.0068948 0.047691 -0.039284 -0.4855 0.40611 0.17922 0.21062 
0.013657 0.01415 0.054596 -0.020048 -0.17739 0.7647 -0.15421 0.10852 
0.031907 0.014643 0.066105 -0.0059084 -0.11228 0.84773 -0.43207 -0.012649 
0.052952 0.029934 0.074654 0.021878 0.092247 0.29859 -0.29889 -0.10423 
0.069393 0.03092 0.014315 0.093726 0.24236 -0.57659 0.08978 -0.055726 
0.073997 0.040456 -0.028433 0.067749 0.37849 -0.97759 0.25896 0.052294 
0.10754 0.027961 -0.025638 0.08978 0.52153 -0.74807 0.10556 0.0031344 
0.16508 0.0047785 0.037004 0.099974 0.38096 -0.3936 -0.33852 -0.12198 
0.17906 0.0016547 0.068571 0.029934 0.02681 -0.28229 -0.93452 -0.26979 
0.10129 0.024344 0.058377 0.029112 -0.016595 -0.11722 -1.1266 -0.29807 
-0.0138 0.040785 0.030756 0.047033 0.20224 0.06035 -0.705 -0.080717 
-0.069372 0.062323 0.024508 0.04506 0.51167 0.24811 -0.027611 0.12135 
-0.056383 0.079587 0.03947 0.063639 0.62824 0.31174 0.40463 0.16558 
-0.0057439 0.12743 0.01152 0.027139 0.6774 0.39773 0.41614 0.041278 
0.0082312 0.082217 0.01711 0.013328 0.53074 0.53205 0.27343 -0.0096899 
-0.014129 0.06594 0.033222 0.029605 0.40184 0.46514 0.44278 0.048184 
-0.017911 0.085999 0.060022 -0.038791 0.082382 0.088465 0.76388 0.047362 
-0.004593 0.062817 0.064954 -0.017582 -0.45903 -0.2933 0.65389 -0.031064 
0.027468 0.030592 0.068736 -0.0049219 -0.70138 -0.23165 0.39033 -0.058685 
0.10737 -0.032543 0.067585 0.0013258 -0.44571 -0.058685 0.099316 0.11362 
0.14437 -0.028433 0.04506 0.098659 0.10408 -0.023336 -0.39097 0.29924 
0.11378 -0.054904 0.0044497 0.088794 0.31289 -0.032543 -0.45295 0.52877 
0.063474 -0.0032777 -0.014787 0.018754 -0.065755 0.15275 -0.12462 0.73428 
-0.030242 0.010862 0.017274 0.027796 -0.44128 0.39329 0.25206 0.76059 
-0.047834 0.0093821 0.029769 -0.021528 -0.65452 0.12135 0.3022 0.41302 
0.016781 -0.019884 0.029934 -0.015116 -0.73114 -0.5003 -0.33967 -0.18561 
0.11888 -0.038133 0.075476 -0.033365 -0.60224 -0.91972 -0.91183 -0.52151 
0.14749 -0.026953 0.05624 -0.030077 -0.33326 -0.71141 -0.47893 -0.50638 
0.10474 -0.0075525 0.041278 0.041607 0.082217 -0.097158 0.37339 -0.32635 
0.038977 0.032071 -0.012649 0.093891 0.37224 -0.19071 0.8839 -0.28952 
-0.049478 0.12184 -0.029748 0.12036 0.37685 -0.64581 1.2229 -0.16325 
-0.0771 0.14289 -0.025638 0.10836 0.13401 -0.55258 1.464 0.057391 
-0.049478 0.077614 0.021384 0.023522 -0.12198 0.1151 1.3916 0.1687 
0.015465 0.013328 0.071037 -0.072167 -0.48485 0.57266 0.96973 0.081231 
0.089616 0.011026 0.12792 -0.096007 -0.7313 0.72902 0.028947 -0.058028 
0.083204 -0.022843 0.048841 -0.056383 -0.36515 1.1871 -0.68839 -0.052437 
0.023851 0.032893 -0.023336 0.12792 0.41285 1.5368 0.18251 0.22115 
-0.10505 0.076134 -0.072332 0.18563 0.85973 1.415 1.945 0.62544 
-0.14073 0.11083 -0.062467 0.14634 0.85348 1.0639 2.8645 0.72935 
-0.084498 0.0421 0.027632 0.055911 0.75401 0.19649 2.0508 0.56494 
0.059693 -0.041751 0.13795 -0.063618 0.65734 -0.55982 0.018918 0.14026 
0.19796 -0.046519 0.19057 -0.11245 0.22657 -1.0312 -1.9636 -0.43289 
0.23233 -0.066906 0.17807 -0.13218 -0.41612 -1.2264 -2.8233 -0.88404 
0.27392 -0.10768 0.11526 -0.109 -0.86316 -1.0614 -3.0393 -1.2666 
0.21572 -0.11524 0.06331 -0.014129 -0.81762 -0.48731 -2.0014 -1.0583 
0.084684 -0.0032777 0.0023123 0.051636 -0.5807 -0.059672 0.053281 -0.20189 
-0.10867 0.11313 -0.058192 0.067256 -0.61506 -0.27275 0.98617 0.60505 
-0.20436 0.19139 -0.070523 0.082546 -0.96756 -0.53121 0.45807 1.0199 
-0.18101 0.25123 -0.067728 0.055418 -0.91429 -0.24398 -0.4416 0.9694 
-0.11787 0.18678 -0.017746 0.049992 -0.52924 0.17215 -0.6777 0.63629 
-0.061809 0.089123 0.018918 0.041278 0.16656 0.2805 -0.24908 0.3558 
-0.025967 0.081889 0.034866 0.014643 0.74694 0.26389 0.46366 0.41055 
-0.041915 0.098166 0.055911 0.01004 0.86877 0.43308 0.69877 0.50772 
-0.0029489 0.070051 0.064625 0.028783 1.1846 0.52153 0.19944 0.10063 
0.13154 0.10195 0.011355 0.15587 1.6121 0.69976 -0.32832 -0.65156 
0.23101 0.1151 0.00017495 0.17495 1.179 0.70535 -0.17525 -1.4123 
0.16179 0.051636 0.02681 0.039141 -0.063946 0.30023 0.11592 -1.6519 
0.074983 0.054267 0.053445 -0.036654 -1.0675 -0.10209 -0.20584 -0.96115 
-0.014951 0.11757 0.041936 -0.078579 -1.1132 -0.1062 -0.56048 0.16377 
-0.10012 0.14026 0.0421 -0.063618 -0.73475 0.051636 -0.34592 0.86499 
-0.15947 0.15226 0.013821 0.0023123 -0.30366 0.11987 -0.0014692 1.0888 
-0.15158 0.089616 0.024015 0.030756 0.039141 -0.12955 -0.17098 0.94868 
-0.011005 0.038483 0.012835 0.090767 0.36994 -0.59434 -0.57379 0.47402 
0.15045 -0.001798 0.0032988 0.1562 0.81814 -0.61128 -0.76517 0.00099702 
0.16459 0.035195 0.034209 0.081724 1.0072 -0.12379 -0.56672 -0.30942 
0.065283 0.08304 0.057884 -0.00015387 0.68266 0.28675 -0.18545 -0.29856 
0.022042 0.03536 0.067913 -0.062138 0.42617 0.30763 0.34742 -0.23379 
0.030263 -0.080881 0.068078 -0.030735 0.47023 0.34972 0.72672 -0.19564 
0.099316 -0.18627 0.037004 0.055747 0.55474 0.86023 0.78114 -0.11048 
0.17396 -0.1552 0.025988 0.067585 0.34758 0.91054 0.61163 0.043416 
0.13121 -0.026296 0.0024767 0.068078 -0.33424 0.13384 0.009711 0.22509 
-0.010183 0.12464 -0.0055795 0.035195 -0.92482 -0.55423 -0.78523 0.19106 
-0.091075 0.17741 0.0227 -0.027611 -1.0483 -0.69299 -1.3748 0.065118 
-0.11935 0.15785 0.021713 -0.022185 -0.69184 -0.59582 -1.2334 0.082546 
-0.086142 0.12365 0.027961 0.030427 -0.012649 -0.23461 -0.59188 0.19418 
-0.031392 0.086657 0.019411 -0.0016336 0.26718 -0.088608 -0.0060728 0.27096 
0.0013258 0.10063 0.055911 0.005765 0.33903 0.2297 0.36731 0.22016 
-0.0073881 0.087808 0.047362 0.035031 0.64123 0.70962 0.63761 0.097672 
-0.0068948 0.10721 0.016452 0.13384 0.7407 0.58631 0.74859 -0.039284 
0.028619 0.11231 0.016781 0.15176 0.33213 -0.1501 0.63432 -0.17065 
0.090931 0.1179 0.035031 0.052459 -0.145 -0.86152 0.39132 -0.25664 
0.094713 0.1105 -0.0059084 0.026152 -0.34 -0.79033 0.34627 -0.20485 
0.076463 0.071366 0.011191 0.014643 -0.34427 -0.21208 0.48421 -0.060329 
0.028454 0.081724 0.0051074 0.0070803 -0.37748 0.048348 0.60473 0.12891 
0.021384 0.071859 0.0069159 0.040128 -0.31994 0.079916 0.88637 0.38046 
-0.0078813 0.066269 0.053116 0.033222 -0.04323 0.51759 1.2556 0.5143 
-0.02942 -0.034516 0.063474 0.010697 0.28478 0.8548 1.4284 0.39296 
0.028619 -0.091568 0.08419 0.038483 0.54587 0.50937 1.2617 0.11724 
0.13532 -0.10867 0.060515 0.033387 0.55326 -0.13185 0.65356 -0.084169 
0.24236 -0.13152 0.054103 0.034209 0.52515 -0.2328 -0.3737 -0.30103 
0.2218 -0.099789 0.054267 0.019905 0.47813 0.023357 -1.5123 -0.35414 
0.077449 -0.031064 0.041114 -0.041257 0.036675 -0.1307 -1.7824 -0.33095 
-0.017417 0.012835 0.016945 -0.020706 -0.21175 -0.11426 -1.0374 -0.26322 
-0.0013048 0.046704 0.012999 0.023357 0.042265 0.42897 0.098494 -0.027611 
0.045553 0.062981 0.012342 0.084355 0.1026 0.56855 0.73922 0.21342 
-0.038791 0.070215 0.040128 0.12727 -0.21159 -0.020706 0.73856 0.22575 
-0.053588 0.084848 0.027961 0.028619 -0.63052 -0.54617 0.67066 0.049499 
-0.019719 0.10162 0.034702 0.030427 -0.79246 -0.66225 0.87009 -0.02942 
0.034537 -0.034516 0.014479 0.005765 -0.80381 -0.57527 0.95361 -0.012485 
0.087479 -0.071838 -0.00097594 0.020727 -0.62657 -0.22606 0.70798 -0.02646 
0.11543 -0.06444 0.0072447 0.066434 -0.25121 0.26159 0.31322 -0.031886 
0.17741 -0.0406 0.069229 0.046211 0.041607 0.40562 0.34594 -0.10225 
0.2029 -0.038462 0.087479 -0.0057439 -0.073647 0.20438 0.68282 -0.13908 
0.13138 -0.0039354 0.097015 -0.032708 -0.30942 0.3877 0.99274 -0.19515 
0.017603 0.09981 0.053445 -0.043724 -0.15026 0.57349 0.66885 -0.19909 
-0.035996 0.16475 0.030592 -0.011498 0.06183 0.43341 0.21474 -0.0088678 
-0.046683 0.14486 0.029276 -0.021856 0.2708 -0.18972 -0.78046 0.25485 
-0.02794 0.070708 0.09833 -0.048656 0.43373 -0.9674 -2.0778 0.256 
0.013657 0.037826 0.064296 0.029934 0.75549 -0.74495 -1.8791 0.0041209 
0.0018191 0.036182 0.009711 0.084519 0.83786 0.097672 -0.49093 -0.060987 
-0.047834 0.066434 -0.016431 0.14223 0.78196 0.44459 0.23956 0.074161 
-0.05326 0.080573 -0.044052 0.14206 0.47352 0.0227 0.011191 0.293 
-0.070687 0.045389 -0.03616 0.089123 0.062981 -0.31961 -0.33556 0.41861 
-0.030406 0.024508 -0.015609 0.047197 -0.25269 -0.099624 -0.2397 0.41795 
-0.0011404 0.014972 0.0041209 -0.020541 -0.63775 -0.067892 -0.029913 0.23397 
0.025988 0.017603 0.023357 -0.025309 -0.67014 -0.065919 0.13006 -0.012156 
0.0079024 0.0016547 0.043745 0.018096 -0.41448 0.13943 0.16738 -0.17887 
0.007738 0.0069159 0.066269 -0.0055795 -0.091075 0.30122 -0.020377 -0.37469 
0.044073 0.042429 0.074654 -0.009361 0.14108 0.31125 -0.17756 -0.48583 
0.083862 0.014808 0.04095 0.016288 0.068736 0.14075 -0.28459 -0.35923 
0.14272 -0.001798 0.013657 0.0018191 -0.047012 -0.014458 -0.42993 -0.068221 
0.14831 0.00017495 0.030592 0.0065871 0.083204 -0.097651 -0.48633 0.11099 
0.10326 0.058706 0.049992 0.0092177 0.32588 -0.070687 -0.39688 0.10392 
0.03651 0.089616 0.034702 0.0093821 0.32308 -0.04471 -0.31073 0.069722 
0.0016547 0.11099 0.013821 0.062488 0.12184 0.023193 -0.11376 0.051308 
0.0090533 0.16196 0.0019835 0.057391 -0.031228 0.080244 0.044567 0.085835 
0.016945 0.16969 0.010204 0.055254 -0.22458 0.013657 0.18152 0.14634 
-0.033201 0.17067 -0.034352 0.055911 -0.3469 -0.083347 0.25666 0.23364 
-0.043395 0.15703 0.005765 0.033387 -0.24168 -0.11985 0.30862 0.2172 
-0.052766 0.12727 0.023851 0.035031 -0.037476 0.0069159 0.43982 0.21934 
-0.068386 0.08978 0.043087 -0.012814 0.011191 0.012999 0.24285 0.18284 
-0.090088 0.085835 0.036675 -0.033694 0.050979 -0.073482 -0.34855 0.099316 
-0.09946 0.15407 0.035688 0.03651 0.17906 -0.24266 -0.87664 0.010533 
-0.059178 0.040292 0.01563 0.089452 0.44607 -0.046025 -1.0804 -0.14089 
0.083204 -0.020541 0.0021479 0.093562 0.53732 0.34955 -0.4222 -0.37107 
0.22197 -0.02646 -0.010348 0.10704 0.33344 0.44771 1.1971 -0.31386 
0.22739 -0.053753 0.089287 -0.046025 0.18235 0.21589 2.0782 -0.091732 
0.10737 -0.074469 0.13598 -0.095843 0.16327 0.032729 1.1317 0.23446 
0.040456 -0.053753 0.10063 -0.025145 0.035688 -0.051122 -0.79559 0.42157 
0.01004 -0.020212 0.020891 0.0324 -0.094034 -0.036325 -1.9991 0.41417 
0.058871 0.040292 -0.029584 0.14733 0.0059294 -0.19548 -2.1823 0.11757 
0.12069 0.11115 -0.028433 0.12529 0.077778 -0.42566 -1.7507 -0.046519 
0.085835 0.14782 -0.038462 0.065118 -0.057699 -0.4347 -0.75004 -0.11886 
-0.00064712 0.14206 -0.020048 0.05213 -0.25154 -0.14237 0.15851 -0.059014 
-0.10258 0.098988 -0.0055795 0.018589 -0.17377 0.29283 0.73741 0.07449 
-0.12577 0.055254 -0.01676 0.053445 -0.060165 0.56872 0.91202 0.24515 
-0.081539 0.063474 -0.011498 0.079422 0.14798 0.60078 1.144 0.18432 
-0.0026201 0.0421 0.02122 0.050814 0.30944 0.50756 1.3993 -0.091897 
0.05476 0.032236 0.07597 0.037168 0.305 0.57727 1.5633 -0.092883 
0.060022 0.054432 0.11822 -0.028269 0.15785 0.39592 1.6422 0.090274 
0.034373 0.046211 0.11247 -0.073976 -0.035338 -0.10439 0.98863 0.32292 
0.051472 0.010697 0.1197 -0.07003 -0.36893 -0.82436 0.063145 0.56231 
0.043745 -0.011005 0.096357 -0.068879 -0.77717 -1.1565 -0.64433 0.4048 
0.017932 0.026317 0.049499 -0.033694 -0.92449 -0.67343 -1.1834 -0.2111 
0.014643 0.033551 -0.0070593 0.050157 -0.68806 -0.097816 -1.5221 -0.71815 
-0.021528 0.010862 -0.024323 0.065612 -0.52661 0.010369 -1.1797 -0.60635 
-0.029255 0.019576 -0.0090322 0.07597 -0.34822 0.064625 -0.25845 -0.10554 
-0.0004827 0.0056006 0.012835 0.025001 -0.011334 0.2098 0.42502 0.17955 
0.037332 -0.018568 0.0090533 0.046868 0.67033 0.44294 0.63284 0.2833 
0.075312 -0.017746 0.014808 0.13615 1.531 0.89426 0.61919 0.3387 
0.10195 0.0072447 0.022042 0.14848 2.1213 1.1483 0.21506 0.26965 
0.11247 -0.0067304 -0.0068948 0.097837 1.7714 0.86203 -0.46955 0.043745 
0.060679 -0.027118 0.0421 0.0064227 0.45034 0.021384 -0.60289 0.046211 
0.0039565 -0.078086 0.090438 -0.049971 -0.85083 -0.89571 -0.065262 0.094384 
-0.012156 -0.078415 0.095535 -0.0047575 -1.3924 -1.1164 1.0049 -0.13695 
0.024179 -0.0050863 0.01711 0.00099702 -1.4812 -0.80742 1.8125 -0.4033 
0.092082 0.058377 -0.010841 0.046704 -1.1681 -0.11705 1.7134 -0.19564 
0.13598 0.11165 0.041443 0.02533 -0.522 0.70403 0.84905 0.13565 
0.18728 0.070215 0.10967 -0.037147 0.10836 1.1478 -0.46396 0.11329 
0.16048 0.029276 0.12414 -0.072496 0.44656 0.60653 -1.9744 -0.004593 
0.070051 0.01004 0.089945 -0.059014 0.49276 -1.0164 -2.9706 0.10606 
-0.047176 0.031742 0.032236 0.013328 0.63037 -1.407 -2.3613 0.23956 
-0.12511 0.062159 -0.048492 0.18415 1.0667 0.10606 -0.2813 0.2149 
-0.15585 0.10392 -0.079566 0.22427 1.292 1.0442 1.4168 0.24203 
-0.121 0.14091 -0.06707 0.14239 1.0884 0.70403 1.787 0.16541 
-0.060494 0.10474 -0.038956 0.05476 0.61443 0.26472 1.5266 0.021878 
0.00066819 0.10737 0.0044497 -0.024158 0.20734 0.12151 1.4026 0.0047785 
0.024344 0.13615 0.048677 0.049006 0.095042 0.28889 1.434 -0.073318 
0.078765 0.071531 0.096193 0.004943 -0.11097 0.31437 1.4975 -0.20271 
0.091589 0.018589 0.10277 -0.02498 -0.65353 0.085835 0.9227 -0.3395 
0.063145 -0.018404 0.076627 -0.017582 -0.81515 -0.23379 -0.4513 -0.3201 
0.073832 -0.016595 0.053445 -0.028597 -0.64564 -0.43338 -2.1872 -0.24661 
0.13286 -0.057863 0.086328 -0.043724 -0.39294 -0.51822 -2.9746 -0.31122 
0.18054 -0.039613 0.094055 0.0070803 -0.082196 -0.4125 -2.2909 -0.37436 
0.17199 -0.012649 0.039305 0.012835 0.18235 -0.18167 -0.95655 -0.31238 
0.12595 0.044073 -0.014622 0.097344 0.27803 0.05476 0.24811 0.072353 
0.023522 0.098823 -0.018239 0.095864 0.36353 0.23331 0.98781 0.45593 
-0.073647 0.14371 0.0028056 0.087808 0.36123 0.31897 1.3152 0.54488 
-0.085156 0.21671 -0.02235 0.08863 0.23644 0.30253 1.2357 0.37389 
-0.096172 0.16952 -0.010841 0.058706 0.17396 0.21046 0.95674 0.31897 
-0.06707 0.10359 -0.0067304 0.035195 0.3757 0.26028 0.60752 0.40841 
-0.040271 0.066105 0.018096 0.047526 0.42995 0.29924 0.36287 0.30533 
0.0036276 0.046704 0.028454 0.012013 0.11395 0.23446 -0.0026201 0.014479 
0.049828 0.04095 0.042758 -0.0095255 -0.35068 0.11806 -0.32175 -0.25483 
0.068242 0.025659 0.074983 0.00066819 -0.6343 0.01267 -0.26765 -0.39656 
0.071037 0.067913 0.047197 0.013986 -0.59714 -0.024158 0.05213 -0.47926 
0.054432 0.097015 0.011684 0.029276 -0.46101 -0.31057 0.018754 -0.42171 
0.091589 0.067256 0.060515 -0.028104 -0.38274 -0.668 -0.37567 -0.32323 
0.13434 0.029276 0.090109 -0.031886 -0.29692 -0.64449 -0.56672 -0.22096 
0.13023 0.055254 0.056569 0.025659 0.1179 -0.15799 -0.31994 0.00297 
0.075476 0.079094 0.030098 0.052952 0.61788 0.29859 -0.12593 0.13861 
-0.015938 0.11526 0.0052718 0.074161 0.77835 0.35399 0.23858 0.14124 
-0.0054151 0.12924 0.014479 0.06594 0.67641 0.30977 0.82882 0.10277 
0.067256 0.070873 0.038812 0.0092177 0.47023 0.16607 0.76914 0.071037 
0.12464 0.016123 0.07597 -0.0080457 0.089452 -0.065262 0.30944 0.12694 
0.10392 -0.068879 0.080409 -0.039449 -0.5322 -0.30202 0.1807 0.30303 
0.027796 -0.049971 0.063145 -0.014293 -0.85609 -0.24875 0.22361 0.41351 
-0.049149 0.03092 0.00066819 0.033222 -0.87039 -0.16901 -0.061645 0.37668 
-0.05737 0.12644 -0.036654 0.019905 -0.73015 -0.13843 -1.153 0.23973 
-0.070687 0.17396 -0.035667 0.025659 -0.53729 -0.035667 -1.9596 -0.027611 
-0.037969 0.0592 0.004943 0.027139 -0.2841 0.13187 -1.0529 0.044567 
-0.01528 -0.038627 0.025001 0.039963 0.20027 0.30697 0.585 0.29234 
0.022371 -0.036818 0.031578 0.1003 0.35136 0.34495 1.4656 0.36879 
0.052294 0.01415 0.04654 0.046868 0.030263 0.26258 1.2331 0.31388 
0.11444 0.0065871 0.076792 0.005765 -0.36055 0.0021479 0.69318 -0.059507 
0.11115 0.021713 0.054925 -0.008539 -0.42664 -0.13777 0.25337 -0.37798 
0.093562 0.056404 0.050814 -0.0026201 -0.30728 -0.18512 -0.074633 -0.51625 
0.084519 0.023522 0.081067 -0.0027845 -0.27867 -0.26798 -0.4878 -0.42319 
0.072517 -0.052273 0.03388 -0.0016336 -0.31928 -0.51691 -0.64614 -0.19433 
0.049006 -0.070852 0.018589 0.023686 -0.37485 -0.73985 -0.33408 0.10326 
-0.0004827 -0.019555 0.0031344 0.042429 -0.13448 -0.61046 0.15423 0.2759 
-0.011992 0.032893 -0.0050863 0.050157 0.090603 -0.40708 0.21309 0.38721 
-0.037311 0.066105 0.013986 0.03092 -0.076606 -0.31024 -0.13103 0.46037 
-0.048656 0.098659 0.039141 0.02533 -0.031721 0.12085 -0.55768 0.39592 
-0.05441 0.076627 0.057555 0.042429 0.23003 0.79002 -0.63298 0.25387 
-0.032872 0.069064 0.026317 0.05772 0.54734 1.2066 -0.44259 0.063803 
-0.024652 0.054925 -0.0019624 0.042265 0.72162 1.0605 -0.035174 -0.15273 
-0.006566 0.026646 0.041607 0.018425 0.47517 0.38951 0.39428 -0.27472 
0.0069159 -0.044546 0.032236 0.015959 0.10425 -0.061809 0.57809 -0.2134 
0.038155 -0.030077 0.031578 0.032564 -0.02498 -0.28443 0.43867 -0.17608 
-0.01117 0.047362 0.017274 0.065776 0.17314 -0.4176 0.33015 -0.12067 
-0.025967 0.065447 0.0082312 0.10655 0.47221 -0.32142 0.43028 0.16804 
-0.016431 0.040456 0.05476 0.031249 0.46958 -0.2014 0.35202 0.48437 
0.061337 -0.010183 0.095042 -0.01939 0.16196 -0.098967 -0.086471 0.54291 
0.16508 -0.01232 0.082382 -0.03353 -0.12116 0.023193 -0.38965 0.18333 
0.22855 -0.039449 0.061008 -0.017253 -0.14961 0.04095 -0.16736 -0.17262 
0.17445 -0.010841 0.027139 0.061008 -0.00064712 0.093398 0.082546 -0.22688 
0.092411 0.062323 -0.015609 0.086985 0.17412 0.31881 0.082875 -0.17098 
0.0088889 0.084026 -0.033694 0.077285 0.18185 0.37833 -0.10357 -0.053424 
-0.03764 0.071037 0.0037921 0.091918 0.026646 0.012177 -0.28771 -0.060658 
-0.060329 0.068571 0.020727 0.017274 0.012342 -0.2032 -0.14402 -0.090253 
-0.053424 0.080738 0.020562 0.0227 0.063145 -0.074798 -0.0072237 -0.12248 
-0.017088 0.052787 0.018425 0.024179 0.093398 0.10836 0.10096 0.060186 
-0.0004827 0.041607 0.031414 0.012342 0.10885 0.27491 0.23512 0.27343 
0.054267 0.047033 0.029769 0.051636 0.10902 0.43571 0.34314 0.24384 
0.098001 0.024508 0.025824 0.029441 0.015794 0.60259 0.69236 0.22444 
0.083204 0.032564 0.038812 0.013657 -0.13958 0.43817 0.8936 0.30648 
0.037168 0.044731 0.076299 0.0079024 -0.25352 -0.0064016 1.0427 0.40233 
0.042265 0.045224 0.10704 -0.029913 -0.20633 -0.41563 0.70272 0.21835 
0.10819 -0.0024557 0.059528 -0.021692 0.12792 -0.50523 -0.39475 -0.36071 
0.16919 -0.026624 0.065283 -0.0052507 0.3318 -0.40823 -1.8804 -1.1787 
0.22789 0.023522 0.06035 0.009711 0.48717 -0.17542 -2.5956 -1.3827 
0.024015 0.11609 0.00017495 0.12168 0.66885 0.24153 -1.604 -0.57429 
-0.18643 0.1225 -0.041422 0.12431 0.68595 0.59174 0.20487 0.37027 
-0.13415 0.16755 0.0093821 0.12168 0.40546 0.70666 1.5051 0.79857 
-0.076771 0.11017 -0.004593 0.097015 0.099481 0.79561 1.8214 0.76174 
0.066434 0.083204 0.029769 0.064296 0.05065 0.61821 1.3936 0.4362 
0.10589 0.079422 0.025166 0.0011614 0.23298 0.29809 0.43489 0.016616 
0.17084 0.079587 0.013492 0.00033937 0.28182 0.0023123 -0.53844 -0.36548 
0.14223 0.055254 0.06479 -0.012649 -0.097816 -0.62197 -1.1399 -0.44078 
0.095042 0.040785 0.053609 0.033058 -0.38274 -0.77504 -1.0892 -0.16276 
0.067585 0.030756 0.054925 -0.0062372 -0.5733 -0.4763 -0.64466 0.13762 
0.023522 0.049499 0.029112 -0.029748 -0.6976 -0.30991 -0.013636 0.45955 
-0.043724 0.043909 0.030756 0.013821 -0.55916 -0.32092 0.53501 0.75237 
-0.069372 0.073997 -0.046354 0.089452 -0.13284 -0.38242 0.64632 0.62232 
-0.0057439 0.10704 -0.017253 0.10573 0.11296 -0.031557 0.36271 0.083533 
0.11477 0.064461 0.0079024 0.038483 -0.033037 0.19385 0.24597 -0.40543 
0.15028 -0.026789 0.049335 -0.044546 -0.13497 0.12332 0.22345 -0.62312 
0.060515 -0.10143 0.08156 -0.044052 0.16245 0.033387 0.12349 -0.50342 
-0.058192 -0.00015387 0.022864 0.067749 0.85052 0.098494 0.092247 -0.19992 
-0.11541 0.08156 -0.0072237 0.15933 1.2205 0.47336 0.2029 0.090603 
-0.12527 0.12792 -0.011498 0.17232 1.0256 0.35728 0.22345 0.28741 
-0.041422 0.16081 0.0051074 0.09422 0.47303 -0.31714 0.025988 0.28839 
0.033715 0.11937 0.017932 0.016945 -0.09946 -0.64827 -0.32734 0.22657 
0.10047 0.10359 -0.0078813 -0.020706 -0.73097 -0.34312 -0.62065 0.01152 
0.091425 0.045224 0.023851 -0.078415 -1.2716 0.16327 -0.39392 -0.16736 
0.072681 -0.048985 0.10737 -0.11442 -1.5131 0.25189 0.11806 -0.28393 
0.054267 -0.12905 0.14009 -0.0868 -0.96444 0.27771 0.35597 -0.32109 
0.10244 -0.10045 0.10787 0.0069159 -0.19597 0.24384 -0.17575 -0.28031 
0.17511 0.012013 0.032071 0.12973 0.24137 0.0044497 -1.2545 -0.1062 
0.16821 0.068078 -0.016431 0.1031 0.23463 -0.3058 -1.8367 0.053774 
0.11937 0.066763 -0.0054151 0.067913 0.49868 -0.41234 -0.97085 0.092411 
0.0072447 0.060515 -0.0082102 0.081395 1.0309 -0.025967 0.60505 0.19912 
-0.073154 0.096521 0.011355 0.059528 1.1355 0.49259 1.714 0.27212 
-0.15552 0.087314 0.011026 0.034866 0.67049 0.45116 2.1925 0.43028 
-0.20238 0.084355 0.040128 -0.02498 0.13368 0.073832 2.0217 0.48503 
-0.18561 0.071859 0.052294 -0.013471 -0.23822 -0.19219 1.268 0.32128 
-0.069043 0.0088889 0.053774 0.033058 -0.35858 -0.47432 0.26636 0.065118 
0.0088889 0.015301 0.047197 0.017932 -0.35118 -0.51543 -0.46166 -0.03057 
0.040292 0.06594 -0.024652 0.062323 -0.16144 0.011355 -0.93534 0.12003 
0.047197 0.14519 -0.074962 0.10359 -0.023336 0.3558 -1.7073 0.24976 
-0.025802 0.14453 -0.054575 0.061666 -0.13908 0.074654 -1.7688 0.37882 
-0.058028 0.075805 0.01004 0.022864 -0.074962 -0.15717 -1.3635 0.2925 
-0.0095255 -0.028762 0.068078 -0.012156 0.24104 -0.20156 -1.0289 -0.030899 
0.029276 -0.12231 0.11757 0.0080668 0.62824 -0.0044286 0.20668 -0.14895 
0.1299 -0.18726 0.11543 0.025659 0.6529 0.27557 1.8485 -0.055232 
0.15226 -0.20419 0.08419 0.010369 0.30763 0.38425 2.4957 -0.074962 
0.20142 -0.16868 0.12464 -0.032543 -0.14221 0.34775 1.5273 -0.50014 
0.21917 -0.098144 0.11378 -0.048656 -0.33194 0.17133 -0.064275 -0.88158 
0.22296 -0.004593 0.10704 -0.066084 -0.51559 -0.025145 -1.0708 -0.77158 
0.11872 0.14453 0.10326 -0.025638 -0.54979 -0.12988 -0.92695 -0.15355 
-0.043888 0.22279 0.044402 -0.0032777 -0.45426 -0.077922 0.23858 0.39214 
-0.13678 0.22082 -0.0087034 0.025659 -0.37567 -0.11968 1.0845 0.63596 
-0.14171 0.16952 -0.034352 0.051143 -0.21422 0.30763 0.90001 0.54488 
-0.1182 0.15982 -0.03057 0.032893 -0.060658 0.75336 0.14338 0.27294 
-0.039284 0.092411 -0.024487 0.01974 -0.01676 0.69762 -0.44226 0.070708 
0.045718 0.028947 0.03388 0.018589 -0.010841 0.078107 -0.73722 0.031249 
0.094384 0.027303 0.085835 0.0074092 0.12562 -0.49422 -0.68346 0.27343 
0.068736 0.017274 0.072846 0.057884 0.38589 -0.40215 -0.43338 0.54685 
0.040128 0.046868 0.030427 0.09981 0.62676 0.09685 0.090603 0.61804 
0.0056006 0.075805 -0.034188 0.13647 0.48437 0.24795 0.89245 0.42354 
-0.003771 0.076463 -0.03764 0.15176 0.15982 0.14601 1.3864 0.050321 
0.010204 0.033222 -0.0062372 0.082217 -0.094199 0.038483 1.2788 -0.27029 
0.031742 0.060515 0.068078 -0.006566 -0.22261 0.050486 0.51035 -0.44654 
0.051143 0.06183 0.10408 -0.06296 -0.17542 0.031742 -0.70861 -0.5243 
0.15834 0.0023123 0.15505 -0.11426 -0.18528 -0.082196 -1.9318 -0.78474 
0.3022 -0.071674 0.17199 -0.14237 -0.30218 -0.34575 -2.3598 -0.88486 
0.29201 -0.080552 0.14848 -0.10406 -0.12462 -0.45278 -1.6757 -0.47103 
0.11395 0.023357 0.052952 0.0034632 0.3216 -0.0083746 -0.11771 0.42403 
-0.10834 0.090931 -0.0049219 0.13664 0.4482 0.43604 1.1823 1.0825 
-0.1524 0.1539 -0.073811 0.15111 -0.025638 0.49407 1.1627 0.81912 
0.04654 0.23529 -0.07266 0.093233 -0.69793 0.19681 0.22772 0.097672 
0.14864 0.19616 -0.030077 0.025495 -0.98959 -0.13991 -0.33835 -0.34329 
0.092411 0.081889 0.034373 -0.038956 -0.82025 -0.49915 -0.080717 -0.31731 
-0.0034422 0.046704 0.038812 -0.012814 -0.45607 -0.44769 0.25452 -0.059343 
-0.031721 0.07038 0.025824 0.025824 -0.034352 -0.16177 0.30171 0.2149 
-0.027611 0.064132 0.0080668 0.03799 0.42765 0.1909 0.26439 0.43061 
-0.031228 0.038648 0.018425 0.065283 0.7966 0.14305 0.040785 0.37997 
-0.028762 0.10507 0.0031344 0.11543 1.3965 0.15111 -0.40987 0.17495 
-0.023501 0.13483 -0.044874 0.17001 1.3209 0.42042 -0.64449 -0.035338 
0.032236 0.12036 -0.013636 0.11691 0.33739 0.22855 -0.40083 -0.19482 
0.086163 0.082217 0.06331 -0.011827 -0.52513 -0.28837 0.26718 -0.27456 
0.10507 0.066434 0.083368 -0.04323 -0.8043 -0.63923 0.74694 -0.44522 
0.099316 0.043909 0.036346 -0.028104 -0.90574 -0.67441 0.70765 -0.71338 
0.045224 0.040456 0.019905 -0.033694 -0.8459 -0.54897 0.3849 -0.66751 
-0.042573 0.087479 0.0095465 0.017274 -0.43766 -0.19301 -0.025474 0.061337 
-0.12149 0.10688 -0.015938 0.015959 0.022864 0.2902 -0.39261 0.67822 
-0.067399 0.072188 -0.021856 0.068571 0.44393 0.59881 -0.36482 0.70403 
0.041772 -0.01232 0.021878 0.11115 0.74201 0.69959 0.070544 0.41154 
0.11247 -0.035338 0.034537 0.05213 0.73067 0.55474 0.35547 0.12151 
0.092411 -0.059507 0.075641 0.03092 0.54587 0.30187 0.2172 -0.031886 
0.034209 -0.038627 0.045224 0.076134 0.6358 0.15916 0.027139 -0.084498 
0.0324 0.012835 0.025001 0.044567 0.70239 -0.075291 -0.080881 -0.11574 
0.045224 -0.0032777 0.0227 0.042758 0.26077 -0.36713 -0.12955 -0.12873 
0.066598 0.025824 0.02122 0.0016547 -0.28229 -0.51378 -0.29429 -0.067235 
0.04358 0.069558 0.0065871 0.034209 -0.42319 -0.41135 -0.74972 -0.031064 
0.031085 0.086821 0.026646 0.046375 -0.40576 -0.1649 -0.61934 -0.06855 
0.009711 0.041772 0.039799 0.034373 -0.13596 0.092247 -0.032379 -0.0073881 
0.013821 0.030263 -0.015773 0.079587 0.11313 0.16146 0.3563 0.13894 
0.063803 -0.015773 -0.011005 0.031907 0.026481 0.044073 0.42354 0.2024 
0.041772 -0.037476 0.031742 -0.040928 -0.28492 -0.18167 0.43209 0.11905 
0.0070803 0.0062583 0.024673 -0.014787 -0.32701 -0.21422 0.45938 0.040785 
-0.03353 0.02122 0.02681 0.0052718 -0.056548 0.029769 0.62067 0.028947 
-0.049149 0.044402 0.040621 0.028454 0.27853 0.27968 0.91382 0.063968 
-0.018239 -0.00081153 0.070544 0.068407 0.44393 0.42157 1.1272 0.054596 
0.030427 -0.0091966 0.086492 0.044567 0.43982 0.39707 0.98255 -0.028269 
0.017603 0.056076 0.043251 0.087479 0.61245 0.37619 0.59091 0.067091 
0.0064227 0.084684 0.011355 0.1026 0.47977 0.42288 0.17873 0.021384 
0.014479 0.035195 0.032564 0.052623 0.052952 0.50739 -0.31435 -0.18907 
-0.014458 0.01267 0.044073 0.046046 -0.19959 0.22115 -1.0023 -0.38866 
-0.016102 0.049828 0.018589 0.018096 -0.32931 -0.24217 -1.2726 -0.32372 
0.012835 0.0090533 0.056733 -0.038133 -0.52661 -0.82831 -1.2898 -0.077264 
0.061501 -0.0024557 0.09981 -0.054904 -0.53203 -1.2604 -0.70056 0.13121 
0.07301 0.0064227 0.058213 -0.061316 -0.12018 -0.84688 0.50739 0.32522 
0.037168 0.029605 -0.014293 0.069229 0.68973 0.32111 1.351 0.33015 
-0.006566 0.06331 -0.033365 0.15571 1.0288 1.1971 1.3004 0.1756 
-0.027611 0.027303 -0.017582 0.082546 0.72261 1.2954 0.97367 0.10047 
-0.031721 0.018096 1.0539e-005 0.049828 0.087972 0.79413 0.58697 0.066105 
-0.047012 -0.039942 0.030756 -0.011992 -0.34641 0.45133 0.36172 0.14815 
-0.066577 -0.034188 0.032071 -0.030899 -0.30054 0.22213 0.2708 0.2657 
0.021878 -0.00031829 0.0592 0.013164 0.021549 -0.23083 -0.056548 0.20471 
0.10392 0.024673 0.076956 0.029441 0.34199 -0.35858 -0.56623 -0.035832 
0.12875 0.068736 0.052787 0.048841 0.317 -0.28574 -0.82337 -0.13316 
0.14091 0.17314 -0.034845 0.047526 -0.09387 -0.20814 -1.0623 -0.10406 
0.091096 0.17232 0.031414 0.013986 -0.41464 -0.18084 -1.2492 -0.26157 
0.099316 0.061337 0.025495 0.018918 -0.39886 0.0079024 -0.35447 -0.30103 
0.061501 -0.021692 0.041114 0.023851 -0.30383 0.15045 0.97532 -0.0090322 
-0.040106 0.018754 0.073668 -0.003771 -0.40067 0.30253 1.4465 0.19024 
-0.091732 0.037497 0.085999 0.012177 -0.42056 0.32982 0.84395 0.29546 
-0.10028 0.044402 0.077943 -0.022514 -0.27456 0.14371 0.20421 0.40595 
-0.012649 0.019247 0.066763 -0.026296 -0.17049 0.22394 -0.15454 0.1516 
0.11954 0.01415 0.055089 -0.035832 -0.10456 0.098494 -0.87796 -0.18578 
0.22805 -0.011992 0.056898 -0.022185 -0.061809 -0.23921 -1.6888 -0.21488 
0.17626 0.027468 0.048841 0.038483 0.21654 -0.49126 -1.7148 -0.0073881 
0.046046 0.13269 0.005765 0.061008 0.30549 -0.54798 -0.92958 0.10622 
-0.074304 0.17544 -0.021199 0.090767 0.17067 -0.28821 0.037332 0.098494 
-0.067399 0.22296 -0.049314 0.1641 0.31815 0.058871 0.913 0.16114 
-0.037805 0.17988 -0.063453 0.12612 0.50739 -0.15109 1.5753 0.28675 
-0.0014692 0.15867 0.016945 0.094384 0.33114 -0.40083 1.4723 0.41499 
0.044402 0.099316 0.042923 0.026646 0.16673 0.21506 0.82701 0.19418 
0.13187 0.077285 0.04358 -0.0054151 0.22246 0.80548 0.073668 -0.055068 
0.14058 0.032071 0.064461 -0.018733 -0.077757 0.65602 -0.67359 -0.081868 
0.10096 -0.032215 0.11888 -0.1016 -0.54979 -0.13399 -1.1558 0.12908 
0.044402 -0.084005 0.12102 -0.067399 -0.66537 -0.70467 -1.5021 0.20668 
0.017603 -0.088444 0.061008 0.0026412 -0.57116 -0.67458 -1.422 -0.33375 
0.020891 0.01974 0.040128 0.023193 -0.42483 -0.39409 -0.62361 -0.93221 
0.032236 0.071695 0.023851 0.022371 -0.32273 -0.16029 0.19122 -0.80134 
0.1174 0.061501 0.0060938 0.030427 -0.1644 0.17873 0.2417 -0.19581 
0.16426 0.041443 0.016616 -0.0034422 0.023686 0.36846 -0.20074 0.2851 
0.12809 0.014808 0.047033 0.030592 0.21161 0.64501 -0.26765 0.41647 
0.022206 -0.016924 0.071531 0.0041209 0.3729 0.59371 0.11543 0.33081 
-0.057863 -0.049478 0.06183 0.034373 0.61032 0.053774 0.77868 0.27688 
-0.015116 0.0044497 0.011191 0.087314 0.83112 -0.14303 1.6165 0.34429 
0.010862 0.0786 -0.011663 0.066269 0.80942 -0.050958 1.9112 0.35416 
-0.019226 0.14963 -0.0077169 0.11181 0.80153 -0.097816 0.93602 0.26521 
-0.04619 0.10885 0.024508 0.099316 0.66967 -0.24842 -1.0478 0.017438 
-0.028926 0.078765 0.060022 0.019411 0.19714 -0.46413 -2.3006 -0.19893 
-0.0016336 0.016781 0.082053 -0.00064712 -0.2841 -0.61309 -2.1558 -0.31813 
0.014808 -0.0082102 0.059693 -0.018897 -0.65074 -0.6024 -1.45 -0.35364 
0.028619 0.028783 0.03947 -0.025309 -0.85478 -0.42631 -0.99584 -0.19729 
0.020891 0.03947 0.016781 0.0080668 -0.77356 -0.10554 -0.32767 0.025001 
0.0018191 0.043416 0.012506 0.0083956 -0.45624 0.18662 0.5166 0.2463 
-0.014293 0.083697 0.0016547 0.027796 -0.15125 0.30039 1.047 0.30516 
-0.059836 0.098494 -0.0013048 0.059364 0.066269 0.28576 1.231 0.23808 
0.040456 0.061501 0.021878 0.026317 0.23052 0.14979 1.0661 0.058049 
0.10967 -0.014951 0.10655 0.050157 0.34873 0.037004 0.79906 -0.11311 
0.15818 -0.067235 0.065776 0.030098 0.44343 0.089452 0.48569 -0.18134 
0.065776 -0.056877 0.059528 0.049664 0.32111 0.18169 0.3341 -0.19745 
0.041772 -0.0052507 0.059528 0.031907 0.090603 0.13039 0.18415 -0.13152 
0.0092177 0.085999 0.047526 0.0037921 -0.052109 0.14716 -0.054082 -0.041751 
-0.041586 0.11625 -0.0040998 0.0421 -0.0068948 0.19665 -0.20419 0.069558 
-0.027611 0.11987 -0.021034 0.074326 0.072681 0.15423 -0.11886 0.15555 
-0.0082102 0.11872 -0.0082102 0.038483 -0.033859 0.04917 0.073832 0.15144 
0.031907 0.046046 0.051308 0.030427 0.042594 0.051308 0.28626 0.10507 
0.09126 -0.0091966 0.076463 -0.012485 0.35087 0.12727 0.39164 0.098494 
0.16163 -0.01676 0.059035 0.014479 0.36748 -0.16227 0.095699 0.10951 
0.15785 0.021056 0.007738 0.070544 0.21572 -0.2277 -0.19186 0.079916 
0.06035 0.051308 -0.0406 0.10622 0.13631 0.053938 -0.15289 -0.081539 
0.0069159 0.036017 -0.058192 0.12201 0.11888 0.17297 0.046868 -0.28706 
0.0060938 0.01711 0.014315 0.051308 0.044567 0.016781 0.28987 -0.35792 
0.034044 -0.0059084 0.062488 -0.050629 -0.14089 -0.27472 0.45133 -0.194 
0.0095465 -0.010512 0.095042 -0.055232 -0.16194 -0.076935 0.57168 0.052459 
-0.031557 0.018918 0.06742 -0.028926 -0.066248 0.47171 0.60061 0.26389 
-0.050958 0.057555 0.031907 0.022206 0.077285 0.65241 0.41877 0.3198 
-0.075291 0.12825 -0.011992 0.097672 0.16804 0.49177 0.17906 0.3022 
-0.085978 0.13417 -0.032708 0.097179 0.034866 0.39444 -0.032872 0.25715 
-0.050136 0.085506 -0.038462 0.081231 -0.24118 0.22592 -0.13974 0.22937 
0.032071 0.075312 0.012506 0.024673 -0.49685 -0.21669 -0.24562 0.15555 
0.098166 0.028125 0.064296 -0.021363 -0.62575 -0.47219 -0.12889 0.1396 
0.077285 0.01711 0.057062 0.013657 -0.58596 -0.36433 0.1932 0.084355 
0.066763 0.047362 0.019083 0.0051074 -0.50375 -0.038956 0.55507 -0.017088 
0.048184 0.075148 0.00083261 0.022535 -0.42829 0.10228 0.69154 -0.090746 
0.029276 0.079258 -0.0047575 0.024179 -0.30448 0.012506 0.49999 -0.095514 
0.047362 0.071859 0.026974 0.00066819 0.10902 -0.0029489 0.21326 -0.14977 
0.041936 0.058377 0.051636 0.0024767 0.66852 0.1687 0.11461 -0.19811 
0.028947 0.058706 0.059528 0.046046 0.87798 0.3609 0.26768 -0.087293 
-0.012485 0.083204 0.048841 0.11526 1.0452 0.47747 0.54291 0.12694 
-0.020541 0.098166 -0.010512 0.20125 0.99389 0.64303 1.0023 0.24564 
0.015137 0.041772 0.015301 0.10754 0.33509 0.68068 1.0621 0.19353 
0.087972 0.0039565 0.059035 -0.012814 -0.45574 0.38704 0.64731 -0.069043 
0.14617 -0.01676 0.08156 -0.086471 -0.81006 -0.16934 0.097015 -0.36384 
0.1756 0.020562 0.082546 -0.1085 -0.81038 -0.72851 -0.061151 -0.46923 
0.12381 0.007738 0.065776 -0.068221 -0.67441 -0.984 -0.29791 -0.26239 
0.057555 -0.0067304 0.048348 -0.029091 -0.35973 -0.68905 -0.53598 0.29365 
-0.035174 0.039634 0.032236 0.058542 0.30434 -0.11097 -0.71239 0.74908 
-0.03912 0.073339 0.0069159 0.13713 0.61245 0.25419 -1.4222 0.66819 
-0.034845 0.054103 -0.010676 0.087972 0.20553 0.2103 -2.1804 0.26192 
-0.034681 -0.00097594 -0.033859 0.05624 -0.29824 0.25337 -1.5979 -0.040764 
-0.062138 0.033551 0.01152 0.029769 -0.40379 0.80136 -0.11442 -0.11228 
-0.078579 0.017932 -0.0095255 0.011848 -0.55028 0.98584 0.85562 -0.19893 
0.026317 0.056569 0.024344 -0.028104 -0.64219 0.3826 0.86795 -0.29659 
0.12628 0.10425 0.066927 -0.021856 -0.4301 -0.42122 0.6672 -0.20633 
0.11362 0.14535 0.036346 0.019905 0.29119 -0.66406 0.72623 0.0021479 
0.0014903 0.15061 -0.027611 0.13631 0.95657 -0.44654 0.76585 0.096357 
-0.062796 0.13269 -0.014622 0.12431 1.231 -0.38817 0.60982 0.15193 
-0.065755 0.11263 0.0014903 0.1174 1.2334 -0.47975 0.21062 0.13615 
-0.014293 -0.011498 0.046211 0.10754 0.743 -0.52184 -0.26075 0.089616 
0.084026 -0.08384 0.089945 -0.011005 0.19747 -0.37502 -0.77306 0.024837 
0.14946 -0.059178 0.10885 -0.046683 -0.19071 0.12924 -0.93928 -0.023336 
0.14289 0.004943 0.069229 -0.043724 -0.59517 0.48405 -0.34904 -0.050958 
0.093891 0.033715 0.037497 -0.017582 -0.51806 1.0212 0.53962 -0.073318 
0.037332 0.055582 0.0054362 0.078765 0.061008 1.3674 1.2139 -0.036654 
-0.00031829 0.04358 0.042923 0.076956 0.36485 0.91399 1.3872 0.063803 
0.011026 -0.00064712 0.0786 0.023522 0.3073 0.18498 1.1914 0.16031 
0.025001 -0.0021268 0.089123 0.0018191 0.23216 -0.52118 0.11576 -0.0027845 
0.063968 -0.0026201 0.10606 -0.045861 0.1345 -1.0121 -1.3666 -0.303 
0.079258 0.021056 0.12776 -0.054575 0.10195 -1.0568 -3.0844 -0.33605 
-0.0077169 0.057391 0.062488 -0.014787 -0.11985 -0.88075 -3.5459 0.099481 
-0.13021 0.089287 -0.020212 0.0021479 -0.45936 -0.47942 -2.4029 0.63284 
-0.18775 0.092247 -0.052931 0.075148 -0.46725 0.14223 -1.2262 0.70847 
-0.14023 0.039305 -0.055397 0.069064 -0.29774 0.50262 -0.31616 0.52416 
0.036182 -0.022679 0.0034632 0.0060938 -0.27571 0.22805 0.26406 0.30796 
0.13319 -0.012485 0.044896 0.012506 -0.20271 -0.27012 0.53386 0.035688 
0.10672 0.058542 0.024508 0.030263 0.32555 -0.29199 1.0534 -0.19334 
0.031249 0.097344 0.029934 0.10441 0.84378 0.17248 1.6777 -0.36614 
0.0037921 0.061337 -0.017746 0.13943 1.0006 0.52794 1.8147 -0.37222 
-0.019555 0.038812 -0.022021 0.082382 0.90692 0.56494 1.4896 -0.22836 
0.019576 -0.032872 0.017603 0.060679 0.43308 0.33295 0.77522 -0.059507 
0.10655 -0.11228 0.072188 -0.033694 -0.2836 -0.27127 -0.21932 -0.13662 
0.14239 -0.14073 0.11428 -0.076113 -0.71683 -0.85889 -1.2303 -0.32997 
0.096686 -0.059014 0.090767 -0.026789 -0.62509 -0.81186 -1.7097 -0.34904 
0.014972 0.067091 0.040292 0.0088889 -0.4051 -0.30169 -1.5238 -0.16818 
-0.065919 0.16081 -0.0022913 0.052787 -0.27308 0.10524 -0.65567 0.10113 
-0.053917 0.2029 -0.035667 0.044073 -0.15322 0.30598 0.15818 0.14009 
-0.011498 0.12957 0.044238 -0.035996 0.035524 0.27721 0.38934 0.045553 
0.063639 0.09422 0.080738 -0.019719 0.084519 -0.03912 0.536 0.13236 
0.10113 0.019083 0.056733 -0.01939 0.11066 -0.4273 0.65898 0.35613 
0.14223 -0.022021 0.061501 -0.05178 0.24482 -0.27719 0.54915 0.61755 
0.1197 0.00033937 0.07301 0.07301 0.72968 0.46399 0.34512 0.51265 
0.053609 0.036017 0.072024 0.16245 1.061 0.93027 0.2098 0.18909 
0.045389 0.1248 0.0088889 0.14256 0.55129 0.67773 0.11642 -0.073976 
-0.052437 0.16146 -0.037311 0.11625 -0.013307 0.2218 0.0065871 -0.13777 
-0.10965 0.10639 -0.01939 0.040785 -0.29051 -0.10702 -0.10357 -0.16934 
-0.056055 0.026646 0.01826 0.012999 -0.43799 -0.22589 -0.17805 -0.2009 
0.03536 -0.01232 0.033058 -0.037476 -0.30942 -0.18578 -0.082361 -0.26009 
0.081889 -0.072496 0.039963 -0.01117 -0.017417 0.03092 0.075641 -0.25927 
0.08978 -0.070359 0.08304 -0.003771 -0.028104 0.1248 0.22378 -0.17525 
0.075148 -0.0027845 0.10918 -0.047341 -0.20715 0.046375 0.35021 -0.071674 
0.015794 0.0090533 0.061995 -0.024158 -0.41448 -0.13777 0.37307 0.069064 
-0.031392 0.035524 0.028947 0.028125 -0.45574 -0.16046 0.39493 0.26291 
-0.036818 0.038483 -0.0075525 0.072517 -0.27078 0.046868 0.39773 0.46875 
-0.0004827 0.081067 0.014479 0.099152 -0.062796 0.25091 0.329 0.40759 
