0.015465 0.11148 0.014643 0.0093821 0.023686 0.019905 0.012999 0.038483 
0.0092177 -0.018239 -0.011498 0.013986 -0.024816 0.042758 0.020727 0.0227 
0.0082312 -0.13399 -0.00015387 0.022371 0.0067515 0.0052718 0.016123 0.030756 
0.047362 -0.075127 -0.042901 0.018754 0.026317 0.0087245 0.00083261 -0.01528 
0.085835 -0.029748 -0.025474 0.038812 0.022042 -0.011663 -0.02794 -0.020377 
0.11855 0.0051074 -0.0059084 0.020233 0.037661 0.019905 -0.025145 -0.022679 
0.10984 0.17232 0.011026 0.037332 0.045718 0.024015 -0.051944 0.010533 
0.055747 0.28987 0.023686 0.031085 0.025659 0.011848 -0.10094 0.041443 
-0.0080457 0.36123 0.046868 0.029112 0.031742 0.039799 -0.1718 0.044896 
-0.081374 0.40102 0.040292 0.055254 0.03388 0.014972 -0.18857 0.089123 
-0.093376 0.30894 0.015137 0.03799 0.027303 0.034044 -0.085978 0.07301 
-0.078579 0.1003 -0.010183 0.053938 0.041114 0.041443 0.087808 0.08978 
-0.03205 -0.133 -0.033037 0.049499 0.043909 0.070873 0.19862 0.051472 
-0.014951 -0.21998 0.0021479 0.015465 0.03947 0.040621 0.19977 -0.014622 
0.0032988 -0.27538 0.036017 0.034537 -0.0067304 0.024508 0.13335 -0.037969 
0.063968 -0.30991 0.073832 -0.0090322 0.011848 0.020069 0.061995 -0.042737 
0.12135 -0.23231 0.096686 -0.032708 0.023851 0.025659 0.044402 0.0052718 
0.16114 -0.066248 0.086492 0.034866 0.033715 0.0059294 0.035195 0.0079024 
0.11115 -0.12281 0.037497 0.043909 0.051965 0.04506 0.012835 0.031414 
0.091096 -0.25253 -0.014787 0.060679 0.055418 0.032729 -0.0047575 0.048019 
0.051143 -0.36877 -0.040106 0.037661 0.055747 0.015794 -0.0004827 0.070051 
0.01267 -0.38373 -0.055068 0.027796 0.0227 0.025824 0.00099702 0.074819 
-0.034023 -0.17147 -0.056055 0.0592 0.019247 0.022535 -0.013143 0.081889 
-0.074962 0.1373 -0.056877 0.035031 0.041114 0.01974 -0.037969 0.097672 
-0.055397 0.46004 -0.063124 0.087643 0.057555 0.034044 -0.029584 0.082382 
-0.049971 0.6672 -0.083676 0.073175 0.056569 0.045553 0.024179 0.023522 
-0.079895 0.79199 -0.04323 0.07038 0.061008 0.035195 0.01826 0.018918 
-0.075784 0.71521 -0.022185 0.065447 0.052459 0.021713 0.0051074 -0.027282 
-0.0072237 0.38457 0.00099702 -0.00015387 0.049664 0.037826 -0.00031829 -0.020048 
0.032564 0.028947 0.040128 0.018754 0.0092177 0.016288 0.011684 -0.017911 
0.046868 -0.11015 0.058049 0.020562 0.0324 0.016781 0.0046141 0.017274 
0.018096 -0.12675 0.069886 0.019411 0.031907 0.027961 0.013492 0.050486 
0.061666 -0.22145 0.12414 0.033058 0.026646 0.030592 0.039141 0.037826 
0.12431 -0.31895 0.18202 -0.021856 0.020398 0.0026412 0.066763 0.060022 
0.16163 -0.31912 0.21474 -0.026953 0.0032988 0.0019835 0.056404 0.00099702 
0.11411 -0.32635 0.22296 -0.021034 -0.0080457 0.0042853 0.038155 0.00099702 
0.050486 -0.40757 0.15637 -0.0091966 0.0034632 0.020398 0.093398 0.038648 
0.0014903 -0.31846 0.068242 0.051472 0.0036276 0.031249 0.11921 0.086328 
-0.03057 -0.1547 -0.0054151 0.032564 0.030756 0.039141 0.13335 0.086163 
-0.052931 -0.015116 -0.072989 0.018589 0.056076 0.03947 0.11083 0.079422 
-0.02646 0.2218 -0.074633 0.077285 0.065447 0.045718 0.1368 0.066763 
-0.055726 0.42469 -0.080059 0.040128 0.063639 0.06183 0.12957 0.1248 
-0.070852 0.45445 -0.065755 0.079751 0.033715 0.044073 0.10211 0.067091 
-0.050958 0.25387 -0.019061 0.051965 0.036346 0.039963 0.064296 0.08008 
-0.027118 0.11346 -0.014458 0.051472 0.051472 0.01826 0.12612 0.031578 
0.034702 0.10606 0.0026412 0.05624 0.036017 0.024837 0.1271 0.057391 
0.10754 0.15867 0.038319 0.027796 0.028783 0.014808 0.08978 -0.011498 
0.19681 0.21441 0.083697 0.016452 0.023686 -0.0070593 -0.045203 -0.031886 
0.21638 0.2172 0.10556 -0.011992 -0.0080457 -0.010841 -0.18117 -0.056877 
0.22871 0.12792 0.14881 -0.02235 0.0052718 -0.019555 -0.23132 -0.060494 
0.26307 -0.096007 0.15933 -0.0075525 -0.018075 -0.0077169 -0.12905 -0.043559 
0.25041 -0.51378 0.21441 -0.038298 -0.01117 0.010697 0.017767 -0.027775 
0.16393 -0.69595 0.25041 -0.047998 -0.018897 0.015959 0.13286 -0.0031133 
0.049499 -0.58316 0.25271 -0.042408 0.028947 0.034373 0.1641 0.042594 
-0.067235 -0.30087 0.13368 -0.0040998 0.033058 0.033058 0.15587 0.069886 
-0.056055 0.17133 0.0059294 0.047197 0.02122 0.074983 0.16015 0.089123 
-0.0068948 0.54537 -0.072003 0.069064 0.032071 0.059035 0.14881 0.070544 
-0.017582 0.61508 -0.09946 0.08978 0.048677 0.057555 0.088465 0.096193 
-0.049478 0.45692 -0.087129 0.063639 0.046375 0.053774 0.085012 0.090438 
-0.065919 0.28001 0.0013258 0.040128 0.036346 0.036182 0.062323 0.073832 
-0.037969 0.16344 0.049499 0.041114 0.020727 0.025495 0.048184 0.020398 
0.034537 0.068078 0.073997 0.0051074 0.031578 0.024179 0.032893 0.023522 
0.025166 0.098001 0.08008 0.0072447 0.030592 0.048677 0.021384 0.0227 
-0.050629 0.19073 0.040292 0.020069 0.017932 0.0028056 0.010862 0.013986 
-0.086307 0.17166 0.012342 0.011191 0.0080668 -0.0060728 0.0026412 0.021384 
-0.023829 0.071037 0.022371 0.047691 0.020727 0.0092177 -0.036818 -0.0019624 
0.13384 0.0092177 0.030427 0.031414 0.013492 0.013164 -0.039284 0.0034632 
0.15357 0.022042 0.0227 0.017767 0.025824 0.0060938 -0.022514 0.049499 
0.057391 0.047855 0.018589 0.070873 0.041607 0.041278 -0.02235 0.074326 
0.073339 0.020398 0.028783 0.036017 0.022206 0.019247 -0.03501 0.059693 
0.012013 0.036017 0.030592 0.051801 0.024508 0.013164 -0.051287 0.037332 
-0.16177 -0.0095255 0.043745 0.021878 0.016616 0.0059294 -0.02942 0.031085 
-0.07973 0.0037921 0.058542 0.010697 0.029276 0.021713 -0.032543 -0.0039354 
0.092576 -0.081703 0.070215 -0.003771 0.0088889 0.0070803 -0.047176 -0.028269 
0.064625 -0.18282 0.06035 -0.0055795 0.023851 0.036182 -0.033201 0.0095465 
0.078436 -0.17032 0.050979 0.0095465 0.038155 0.043909 -0.0022913 0.012342 
0.1396 -0.0078813 0.031907 0.0062583 0.023686 0.0227 -0.0088678 0.015959 
0.15785 0.066105 0.015959 0.01974 0.014808 0.0087245 -0.0077169 0.0059294 
0.13582 0.040621 0.02681 0.027961 0.013492 0.058871 -0.010841 0.013986 
0.26422 0.10672 -0.0052507 0.047362 0.024673 0.022864 0.028783 0.055254 
0.32621 0.33821 -0.046847 0.074326 0.047362 0.017274 0.06183 0.03947 
0.063145 0.55606 -0.096994 0.085999 0.062981 0.04506 0.095535 0.09685 
-0.16227 0.6552 -0.14287 0.061008 0.05624 0.05065 0.090931 0.068571 
-0.30925 0.59256 -0.10143 0.1202 0.05213 0.035524 0.076627 0.084519 
-0.25943 0.36928 -0.12544 0.056733 0.058542 0.039634 0.035031 0.054596 
-0.18676 0.14371 -0.063782 0.050321 0.043909 0.041772 -0.01528 0.041443 
-0.1159 -0.0082102 -0.024652 0.045224 0.023357 0.019247 -0.024652 0.034537 
-0.073647 -0.17558 0.031578 0.012506 0.017438 -0.0031133 -0.018075 0.047197 
-0.034352 -0.30596 0.11231 0.020727 0.023028 0.0065871 -0.040271 0.017603 
0.047033 -0.47942 0.15785 -0.021692 0.019247 0.0069159 -0.06148 -0.0026201 
0.11165 -0.65633 0.12891 -0.023665 0.0051074 -0.019226 -0.074798 0.0019835 
0.049828 -0.68839 0.086163 -0.00015387 0.031414 0.028454 -0.030406 0.042923 
-0.028269 -0.46249 0.030592 0.018096 0.028947 0.023193 -0.061151 0.038155 
-0.037969 -0.11524 -0.011005 0.079258 0.039305 0.019576 -0.080388 0.053445 
0.030263 0.2634 -0.0064016 0.049335 0.04095 0.0019835 -0.047834 -0.0022913 
0.15259 0.6238 0.0083956 0.035688 0.06594 0.019411 0.039799 -0.012978 
0.22213 0.79939 0.03947 0.0421 0.02681 0.0059294 0.090603 -0.022021 
0.27179 0.6141 0.051965 -0.0044286 0.020233 0.0056006 0.11806 -0.016595 
0.21556 0.2833 0.0098754 0.035853 0.012506 0.028619 0.082053 0.0054362 
0.10277 0.12102 -0.035174 0.03536 0.029605 0.024179 0.058377 0.013986 
0.0421 -0.0078813 -0.028104 0.036839 0.030263 0.020233 0.027632 0.029441 
-0.010512 -0.055232 0.02122 0.053609 0.04095 0.01711 0.019905 -0.00081153 
-0.060494 -0.064111 0.065447 0.016616 0.044567 0.020398 0.013164 -0.0016336 
-0.10456 -0.090253 0.098166 0.0093821 0.035031 0.016781 0.025166 0.0016547 
-0.12774 -0.13629 0.10984 0.0042853 0.013986 0.029112 0.007738 0.025988 
-0.083347 -0.18857 0.10984 0.019247 0.024344 0.039141 0.03092 0.062817 
-0.039613 -0.17624 0.095699 0.04654 0.029769 0.037168 0.049664 0.065776 
0.019411 -0.29281 0.081067 0.026152 0.024837 0.02681 0.046046 0.062159 
0.1031 -0.46298 0.058871 0.019083 0.024344 0.03388 0.028619 0.041114 
0.16442 -0.53992 0.08419 0.010697 0.01974 0.013657 0.027139 0.010862 
0.14239 -0.51082 0.064132 -0.013307 0.014808 0.0082312 0.017438 0.011848 
0.090931 -0.31994 0.021384 0.01563 0.0051074 0.0069159 0.0079024 -0.024487 
0.066105 0.035853 0.0032988 0.0082312 0.0082312 0.018425 0.0044497 -0.011334 
0.061666 0.47402 0.00017495 0.01415 0.01826 0.0092177 0.021384 -0.0077169 
-0.049971 0.73215 0.013986 0.031085 0.035524 0.020398 0.060186 0.018589 
-0.12692 0.7231 0.044073 0.037004 0.042429 0.047526 0.048513 0.049992 
-0.062467 0.4972 0.032071 0.054103 0.055582 0.01974 0.024673 0.044731 
0.061008 0.15949 0.028947 0.034209 0.023357 0.013328 0.036182 0.030592 
0.17692 -0.060494 0.065447 0.031742 -0.038627 0.037168 0.069064 0.032236 
0.20027 -0.17805 0.07038 0.040292 -0.0044286 0.021713 0.036675 0.0074092 
0.20438 -0.17049 0.093069 -0.026296 -0.018733 0.009711 0.029441 0.019411 
0.035031 -0.13629 0.081889 0.010369 0.00083261 0.019083 0.031907 0.038483 
-0.133 -0.045861 0.13664 -0.0022913 0.014315 -0.0036066 0.074819 0.077449 
-0.10406 -0.0406 0.10754 0.0018191 0.035688 0.014315 0.05476 0.056569 
0.0067515 0.028947 0.12694 0.027303 0.0046141 0.025659 0.048841 0.07038 
-0.057863 0.18119 0.074983 0.005765 0.01004 0.058377 0.047197 0.06479 
-0.11853 0.24893 0.043416 0.020233 0.029276 0.045389 0.075805 0.016781 
-0.084498 0.096193 0.024673 0.021713 0.024837 0.026481 0.061172 0.0069159 
0.014643 -0.023007 0.016616 0.059857 0.039963 0.035195 0.048019 -0.020377 
0.15094 0.071366 -0.001798 0.059364 0.053609 0.036017 0.046046 0.0016547 
0.22641 0.34331 -0.014293 0.058049 0.079751 0.019247 0.056733 -0.00081153 
0.2218 0.63317 -0.025145 0.047526 0.036182 0.026317 0.075641 0.014315 
0.12036 0.65224 -0.030735 0.041443 0.047691 0.032071 0.09685 0.0072447 
0.0080668 0.45379 -0.03616 0.042265 0.041607 0.038483 0.10967 0.048184 
-0.049642 0.31585 -0.08828 0.066434 0.050157 0.024015 0.1128 0.060186 
-0.059178 0.24614 -0.077428 0.040292 0.032564 0.029605 0.051636 0.058871 
-0.078908 0.24729 -0.031557 0.039141 0.03651 0.018096 0.01826 0.055582 
-0.045203 0.12957 -0.017582 0.03092 0.045882 0.012013 0.041936 0.025166 
0.088136 -0.14665 0.012999 0.039799 0.035688 0.036839 0.06183 -0.00031829 
0.20668 -0.52825 0.037332 0.050157 0.029441 0.028947 0.069064 0.00297 
0.1151 -0.87138 0.091589 0.021878 0.019083 0.01004 0.066763 0.01152 
0.022535 -0.97233 0.13565 0.013986 0.0074092 0.016945 0.071202 0.028125 
-0.01676 -0.729 0.13351 0.01152 0.027961 0.020562 0.033222 0.016616 
0.0024767 -0.28097 0.062488 -0.00081153 0.038648 0.0018191 -0.047176 0.023686 
0.021713 0.18942 0.026481 0.051472 0.038977 0.01711 -0.12856 0.040621 
0.019247 0.50509 0.013657 0.045882 0.059693 0.051308 -0.19367 0.061995 
0.026974 0.6866 -0.013143 0.04095 0.048513 0.02829 -0.2254 0.083862 
0.049664 0.694 -0.021856 0.044238 0.041607 0.010533 -0.085485 0.019576 
0.088794 0.66539 -0.056383 0.040621 0.040621 0.027468 0.082875 0.030427 
0.12842 0.58565 -0.039613 0.033058 0.021384 0.011848 0.18465 -0.0027845 
0.10688 0.37372 0.02829 0.0067515 0.018096 0.027303 0.18383 0.004943 
0.039634 0.21802 0.048348 0.011684 0.023028 0.03388 0.1391 0.034373 
-0.024323 0.13598 -0.0082102 0.042429 0.025824 0.036839 0.12266 0.033715 
-0.096336 -0.02942 -0.051122 0.041936 0.033222 0.034209 0.14042 0.051308 
-0.14139 -0.2573 -0.069208 0.058871 0.034373 0.022042 0.098001 0.016781 
-0.15996 -0.34838 -0.044874 0.049828 0.047855 0.028619 0.05213 0.02122 
-0.20255 -0.36762 0.0051074 0.026152 0.02681 0.010369 -0.0059084 0.036839 
-0.12511 -0.32208 0.060679 0.0421 0.029441 0.00297 -0.009361 0.035853 
0.019411 -0.28985 0.11954 -0.0004827 0.027961 0.037168 -0.02646 0.042758 
0.18596 -0.2938 0.12118 0.044073 -0.0019624 0.01974 -0.06296 0.070051 
0.22674 -0.34526 0.15127 0.040785 0.019576 0.030427 -0.040435 0.048348 
0.25173 -0.36071 0.14913 0.021056 0.030263 0.056733 -0.019555 0.011355 
0.3563 -0.27357 0.14502 0.010862 -0.0054151 -0.0075525 -0.05737 -0.023829 
0.33936 -0.37502 0.1026 -0.017582 -0.012814 -0.015938 -0.084663 0.0031344 
0.22082 -0.32898 0.068571 -0.024158 0.0056006 -0.0073881 -0.079401 -0.0082102 
0.034044 0.013492 0.01826 -0.0021268 -0.0070593 0.020562 -0.064604 0.034044 
-0.017911 0.23446 0.053116 0.010369 0.0031344 0.019905 -0.089595 0.015137 
-0.027447 0.35301 0.05065 0.041114 0.01826 0.024344 -0.11722 0.024508 
-0.10653 0.42239 0.010533 0.034866 0.028619 0.043416 -0.11113 0.059035 
-0.23855 0.40743 -0.036818 0.049828 0.031742 0.03388 0.0028056 0.081395 
-0.28212 0.24745 -0.063124 0.064625 0.043416 0.033222 0.11707 0.11658 
-0.25697 0.10228 -0.031064 0.039305 0.035688 0.031578 0.16146 0.086657 
-0.18183 -0.0029489 0.0018191 0.05624 0.013821 0.013492 0.15785 0.082382 
-0.068221 -0.092061 0.028783 0.031907 0.017932 0.02533 0.11346 0.045553 
0.00083261 -0.01676 0.051472 0.042758 0.00083261 0.012177 0.032236 0.013821 
0.059857 0.2149 0.086657 0.040456 0.012013 0.030427 0.013328 -0.0029489 
0.10491 0.36731 0.13697 0.016452 0.016781 0.023028 0.0082312 -0.028926 
0.14716 0.31092 0.1835 0.017767 0.016945 0.009711 0.011848 -0.011663 
0.20191 0.0039565 0.16508 -0.015609 0.02122 0.0087245 -0.0036066 -0.0072237 
0.21506 -0.24973 0.076956 -0.025309 0.0026412 1.0539e-005 -0.02235 -0.0042642 
0.13878 -0.255 0.017767 0.016452 0.011191 -0.0060728 -0.015609 0.029441 
-0.027282 0.010533 0.012835 0.0023123 0.0059294 0.01563 -0.011334 0.048513 
-0.11311 0.17807 0.023686 0.0042853 0.025659 0.037661 0.0069159 0.087808 
-0.090253 0.083862 0.026152 0.0095465 0.027961 0.014808 -0.0064016 0.063474 
-0.040106 0.078765 -0.013307 0.014972 0.036346 0.019576 -0.031557 0.055089 
0.0227 0.28708 -0.032379 0.075641 0.039141 0.034209 -0.041422 0.029934 
0.059528 0.35679 -0.023665 0.031414 0.040621 0.042594 0.031249 0.025659 
0.064625 0.26751 -0.00097594 0.06594 0.046704 0.024673 0.089945 0.047526 
0.08978 0.13187 0.012506 0.064296 0.041114 0.043251 0.11658 0.013164 
0.11395 0.01415 0.015465 0.042594 0.027796 0.031414 0.059528 0.013986 
0.15111 -0.11771 0.038319 0.056569 0.029605 0.024673 0.05213 -0.0032777 
0.19846 -0.26387 0.030592 0.01711 0.039799 0.01974 0.048513 -0.012978 
0.10672 -0.18232 0.044073 0.030592 0.046375 0.021549 0.069393 0.012013 
-0.027282 0.13483 0.019576 0.026974 0.022864 0.0028056 0.069393 0.0227 
-0.11228 0.43686 0.0047785 0.035195 0.014808 0.013657 0.077121 0.052459 
-0.16111 0.71488 -0.011992 0.067256 0.029276 0.037661 0.072024 0.023686 
-0.15733 0.69039 -0.02794 0.058213 0.038812 0.028125 0.072024 0.075148 
-0.078744 0.55326 -0.06148 0.055911 0.055747 0.017603 0.058049 0.086821 
-0.0087034 0.59404 -0.056383 0.079094 0.064132 0.027961 0.06183 0.080738 
0.031414 0.55063 -0.023172 0.078107 0.03947 0.048019 0.019247 0.068571 
0.089452 0.2657 0.0013258 0.064461 0.029441 0.013164 0.061995 0.022206 
0.1544 -0.26733 0.035031 0.020069 0.026974 0.032564 0.051801 -0.034352 
0.15653 -0.67195 0.098494 -0.0068948 0.009711 0.0042853 0.019905 -0.014787 
0.15094 -0.94356 0.15308 0.01415 0.0098754 -0.013143 0.01004 -0.023501 
0.19698 -1.0309 0.16442 -0.0044286 0.017274 -0.0064016 -0.014622 -0.056055 
0.14634 -1.0483 0.091753 0.01415 0.023357 -0.0016336 -0.034845 -0.10637 
0.0227 -0.9406 0.036839 -0.0078813 0.026481 -0.010019 -0.03764 -0.12281 
-0.18249 -0.45065 -0.019226 0.017932 0.029441 0.0019835 0.028125 -0.10883 
-0.3224 0.21145 -0.090088 0.035195 0.034044 0.01974 0.052787 0.030756 
-0.37699 0.93454 -0.093705 0.042265 0.047197 0.026481 0.052787 0.14239 
-0.22589 1.4164 -0.089431 0.046046 0.030756 0.025001 0.047691 0.16146 
0.027961 1.4536 -0.072167 0.080902 0.038155 0.03799 0.057555 0.15308 
0.25239 1.2501 -0.059178 0.070708 0.063145 0.044073 0.061995 0.085999 
0.48816 0.68463 -0.018897 0.10754 0.066927 0.042594 0.079258 0.045224 
0.70896 0.020233 -0.0054151 0.059364 0.051308 0.040128 0.078272 -0.035503 
0.78986 -0.61588 0.063145 0.025988 0.022371 0.045389 0.077285 -0.053753 
0.56033 -1.0799 0.075148 0.0079024 0.013821 0.011355 0.048348 -0.046025 
0.1197 -0.91906 0.098988 -0.0034422 0.018918 -0.010183 0.029441 -0.035667 
-0.29265 -0.43125 0.093726 0.00297 0.016288 0.007738 -0.00015387 0.012835 
-0.5317 0.00017495 0.15982 -0.039449 0.012013 0.0036276 0.012999 0.017603 
-0.54568 0.077121 0.2371 -0.060658 -0.0075525 -0.029091 -0.033201 -0.0011404 
-0.4005 -0.10275 0.26077 -0.062796 -0.03205 -0.011005 -0.03764 -0.017582 
-0.21093 -0.34098 0.20257 -0.046025 -0.0034422 -0.0075525 -0.0095255 0.0046141 
0.0095465 -0.60273 0.10408 0.016945 0.024508 0.018589 0.037661 0.076463 
0.19928 -0.77306 0.042758 0.012177 0.027961 0.027796 0.0051074 0.096521 
0.2925 -0.75037 -0.042408 0.056076 0.051636 0.048677 0.027632 0.090931 
0.24038 -0.37387 -0.11508 0.098823 0.055582 0.051472 0.033222 0.075641 
0.049992 0.24729 -0.12823 0.075641 0.06183 0.060679 0.051472 0.0689 
-0.13053 0.72162 -0.088937 0.086657 0.019576 0.067585 0.038977 0.049992 
-0.15585 0.83491 -0.029584 0.055582 0.034866 0.051801 0.038648 -0.060329 
-0.038462 0.67361 -0.011992 0.039305 0.020562 0.058871 0.03388 -0.10193 
0.11905 0.47434 0.024508 0.048841 0.014808 0.018918 0.0227 -0.04619 
0.1909 0.31322 0.037497 0.0056006 0.016616 0.022206 -0.0026201 0.023028 
0.17725 0.22279 0.10458 -0.011498 0.024837 0.0047785 -0.0049219 0.056733 
0.14601 0.1003 0.15357 -0.038791 0.0085601 -0.0078813 0.0023123 0.04917 
0.15176 -0.067399 0.16607 -0.026131 -0.013143 0.016452 0.010369 0.062488 
0.22065 -0.32865 0.12168 0.01415 -0.0080457 0.00066819 0.016288 0.047691 
0.072846 -0.66488 0.050321 0.0039565 0.026317 0.0082312 0.030592 0.070051 
-0.13382 -0.51789 -0.020706 0.052787 0.026152 0.031249 0.063474 0.08008 
-0.23691 0.062323 -0.03205 0.080244 0.031907 0.043087 0.071037 0.081395 
-0.23083 0.59157 -0.024816 0.087643 0.031249 0.048019 0.076627 0.1054 
-0.021692 0.76306 -0.072496 0.099974 0.056076 0.05213 0.085506 0.03651 
0.17528 0.52992 -0.019061 0.025659 0.052459 0.11674 0.051965 0.059035 
0.28675 0.17363 -0.011663 0.039963 0.027139 0.035524 0.0060938 0.051143 
0.27195 -0.012814 0.044402 0.036346 0.021549 0.0021479 -0.012814 0.039963 
0.20487 -0.13892 0.085012 -0.017911 0.011191 0.022042 -0.02087 -0.0036066 
0.17971 -0.43749 0.15867 0.00083261 0.011191 0.0080668 -0.018075 -0.022843 
0.10885 -0.66323 0.16706 -0.015116 0.016452 0.031249 -0.0031133 0.026317 
-0.13958 -0.43338 0.12316 0.020891 0.032236 0.061008 0.026317 0.058049 
-0.36926 0.032893 0.053774 0.053281 0.023686 0.043087 0.036346 0.050321 
-0.48534 0.50509 0.020069 0.026974 0.0059294 0.012835 0.04654 -0.0059084 
-0.48057 0.71143 -0.0004827 0.024673 0.0032988 0.0054362 0.037497 -0.0090322 
-0.39031 0.63432 -0.03616 0.02829 0.0079024 0.027796 0.043416 0.00099702 
-0.27423 0.65191 -0.039778 0.044731 0.04095 0.050157 0.095371 0.0085601 
-0.044217 0.73215 -0.023007 0.05213 0.051143 0.030756 0.12201 0.090438 
0.1465 0.63383 -0.016102 0.023193 0.05624 0.048841 0.11198 0.097837 
0.27442 0.27343 -0.018239 0.07038 0.035195 0.048348 0.097015 0.085177 
0.36846 -0.20025 -0.043395 0.076627 0.041278 0.039963 0.13647 0.061501 
0.43373 -0.5516 -0.058521 0.053445 0.035688 0.043745 0.12743 0.042265 
0.42124 -0.53927 -0.047012 0.070051 0.041443 0.04506 -0.019884 0.074161 
0.31273 -0.24842 -0.0024557 0.045882 0.047855 0.022371 -0.17805 0.030756 
0.20191 -0.035503 0.014479 0.026974 0.048677 0.00083261 -0.2254 0.05624 
0.054596 -0.16391 0.08567 0.0052718 0.0044497 0.019576 -0.15026 0.025988 
-0.05737 -0.42944 0.15078 -0.023665 -0.004593 -0.0054151 -0.05441 0.0067515 
-0.157 -0.36088 0.14437 -0.0098543 -0.026953 -0.008539 0.032236 0.016288 
-0.21241 -0.0027845 0.10162 -0.013636 -0.01232 0.022206 0.082711 0.028947 
-0.2305 0.37487 0.048019 0.0059294 0.017767 0.018589 0.10852 0.027139 
-0.23214 0.54323 0.0051074 0.047033 0.047526 0.029769 0.090767 0.020069 
-0.18726 0.58516 -0.023829 0.057884 0.059693 0.051472 0.062981 0.075641 
-0.13284 0.4995 -0.01232 0.082546 0.052952 0.049664 0.03092 0.055582 
-0.0032777 0.34199 -0.00064712 0.034702 0.035853 0.025166 0.029769 0.017603 
0.1853 0.25863 0.0083956 0.013164 0.029769 0.021713 -0.0039354 -0.042901 
0.22345 0.26685 -0.0049219 0.023357 0.034373 0.0087245 -0.021528 -0.077264 
0.099481 0.26981 -0.019226 0.023357 0.045882 0.0031344 -0.012978 -0.018075 
-0.0075525 0.043087 -0.0013048 0.076134 0.055254 0.017274 0.0098754 0.039141 
0.0069159 -0.39968 0.038812 0.045718 0.053445 0.01267 -0.0057439 0.074326 
0.10014 -0.78161 0.090603 -0.013307 0.010697 -0.0027845 -0.034023 0.059528 
0.11214 -0.64893 0.082217 1.0539e-005 0.00099702 -0.0064016 -0.015938 0.027468 
0.13171 -0.23592 0.051472 1.0539e-005 0.0014903 -0.011827 -0.04323 0.011355 
0.25041 0.025988 0.026152 0.046704 0.022864 0.015137 -0.0027845 0.062652 
0.22115 0.20602 -0.0052507 0.062981 0.060515 0.018425 0.014972 0.07038 
0.13647 0.2828 -0.014622 0.063474 0.057884 0.022042 0.024673 0.024344 
-0.0091966 0.22822 -0.008539 0.050321 0.064296 0.05476 0.0088889 -0.008539 
-0.063618 0.20438 -0.013965 0.044073 0.025166 0.009711 0.00033937 0.0054362 
-0.016431 0.21178 0.0067515 0.041114 0.023686 -0.027775 -0.016102 -0.025145 
0.024179 0.097837 0.04358 0.013328 0.016123 0.020069 0.020891 -0.011334 
0.015301 -0.12001 0.061501 0.010533 0.01974 0.012506 0.0041209 -0.0096899 
-0.042901 -0.364 0.095206 0.025659 0.022371 0.023522 0.0047785 0.020398 
-0.024323 -0.49718 0.079587 0.025495 0.042265 0.056404 0.014479 0.065283 
0.039963 -0.41037 0.09833 0.028454 0.039305 0.022535 0.02533 0.042594 
0.074161 -0.22178 0.12036 0.018918 0.018096 0.0036276 -0.003771 0.0062583 
0.056898 0.034044 0.1197 0.0046141 0.01267 -0.0039354 -0.004593 -0.018239 
0.14321 0.35827 0.081724 0.042594 0.0036276 0.046868 -0.0062372 -0.0019624 
0.1784 0.64238 0.028619 0.046375 0.033715 0.024508 0.045224 0.019247 
0.11083 0.82833 -0.048492 0.081395 0.051965 0.01152 0.067091 0.058213 
0.065447 0.68611 -0.045368 0.06594 0.056569 0.040292 0.09422 0.056733 
0.183 0.16146 -0.034188 0.028125 0.02533 0.01826 0.087808 0.029276 
0.26998 -0.27456 -0.045696 0.070215 0.037826 0.017932 0.089616 0.01415 
0.34873 -0.52233 -0.051122 0.064625 0.049006 0.052787 0.071366 0.035031 
0.42157 -0.62131 -0.058028 0.06183 0.037661 0.045389 0.036017 0.023028 
0.25091 -0.53976 -0.021363 0.058871 0.045553 0.023686 0.031907 -0.0011404 
-0.098144 -0.40313 0.034866 0.020398 0.029769 0.025659 0.054267 -0.03057 
-0.33457 -0.40642 0.098823 0.025001 0.019905 0.01826 0.060679 0.012835 
-0.28788 -0.45574 0.097344 -0.02942 0.0069159 0.010204 0.072846 0.043909 
-0.1478 -0.35611 0.071366 -0.017582 0.0065871 0.018096 0.099974 0.058213 
-0.14566 -0.076771 0.082875 0.022535 0.0016547 0.035524 0.067091 0.075476 
-0.12642 0.41581 0.078107 0.022206 0.014479 0.023522 0.0088889 0.046704 
-0.056877 0.9888 0.092411 0.055911 0.013328 0.01711 -0.089924 0.026152 
0.053938 1.2885 0.0786 -0.004593 0.022535 0.0098754 -0.19153 -0.057205 
0.10852 1.1553 0.08978 0.014808 0.014643 0.0011614 -0.25105 -0.04323 
0.076299 0.71587 0.026317 0.031249 0.019905 0.0039565 -0.13991 -0.0073881 
0.031907 0.21737 0.053281 0.015301 0.014972 0.012177 0.031578 0.024508 
-0.014458 -0.27012 0.11165 0.022206 -0.00015387 0.030592 0.18514 0.031414 
0.0036276 -0.54469 0.11707 0.0016547 -0.0026201 0.025495 0.20602 0.0098754 
0.045553 -0.67721 0.038319 0.016123 0.011684 0.024673 0.16262 0.030427 
-0.04471 -0.57182 -0.035338 0.048019 0.027468 0.038977 0.13746 0.066927 
-0.2009 -0.26256 -0.050958 0.015794 0.029605 0.034702 0.13351 0.10852 
-0.21175 0.089123 -0.0088678 0.010862 0.014315 0.034373 0.066763 0.083204 
-0.018075 0.11642 0.032071 0.01563 0.026646 0.049664 0.046704 0.051472 
0.21457 -0.1113 0.025495 0.01711 0.017767 0.030427 0.067913 0.024179 
0.29234 -0.092883 0.04654 0.036017 0.015137 0.011191 0.03092 -0.024487 
0.32374 0.17281 0.093233 -0.020212 0.0032988 0.020562 0.05772 -0.028762 
0.27935 0.40546 0.10787 0.0011614 0.0079024 0.019905 -0.024816 -0.052437 
0.15489 0.23019 0.1368 0.0056006 0.023357 -0.0047575 -0.051615 -0.041093 
0.053281 -0.1205 0.070051 0.014972 0.0088889 0.020069 -0.0011404 0.017438 
-0.056548 -0.44045 -0.019884 0.065612 0.031742 0.060515 0.01974 0.036182 
-0.21208 -0.39968 -0.099624 0.054267 0.029934 0.044567 0.026646 0.093069 
-0.25911 -0.057863 -0.074962 0.075805 0.048677 0.034044 0.031742 0.10047 
-0.22293 0.23134 -0.020541 0.042265 0.026317 0.044073 0.046704 0.11428 
-0.13284 0.41532 0.04506 0.011848 0.019247 0.015959 0.02681 0.091096 
-0.045039 0.59141 0.073832 0.018754 0.021549 -0.0088678 -0.0022913 0.031742 
-0.030077 0.65783 0.068407 -0.024158 -0.0019624 -0.0059084 0.0070803 0.028454 
-0.060329 0.71554 0.064461 -0.011005 1.0539e-005 0.005765 0.012506 -0.028269 
-0.096336 0.62051 0.046375 0.0064227 0.007738 0.023686 0.058213 0.050157 
-0.064933 0.31059 0.0056006 0.013328 0.039799 0.047033 0.094384 0.048677 
-0.028104 0.08863 -0.036654 0.071859 0.048513 0.0592 0.10211 0.079751 
-0.019884 0.04358 -0.071345 0.062488 0.083533 0.048513 0.10129 0.087314 
0.01152 0.077121 -0.069865 0.064296 0.081889 0.050814 0.053938 0.061337 
0.071366 0.18563 -0.052931 0.088794 0.069393 0.041772 0.022864 0.059528 
0.16853 0.23677 -0.018075 0.055418 0.027139 0.036182 0.012177 0.022371 
0.25715 0.064132 0.072517 0.036017 0.012342 -0.0040998 -0.0055795 -0.017088 
0.29201 -0.29413 0.16492 -0.016924 0.0031344 0.00050378 -0.024323 -0.050136 
0.24334 -0.76731 0.18481 -0.04882 0.0072447 0.0018191 -0.036489 -0.052437 
0.11855 -1.0771 0.1299 0.0018191 0.019411 -0.0004827 -0.006566 0.012177 
-0.023007 -0.99765 0.08156 0.010204 0.026152 0.030263 0.012342 0.03947 
-0.13941 -0.5682 0.079587 0.02122 0.014972 0.040785 -0.0011404 0.044731 
-0.17427 0.13845 0.088958 0.025166 0.026152 0.022535 -0.028269 0.044731 
-0.13136 0.6432 0.053445 0.031578 0.026317 0.0064227 0.0046141 0.048841 
-0.094692 0.72771 -0.060494 0.098659 0.052952 0.020562 0.042429 0.091753 
-0.065755 0.67312 -0.12889 0.067091 0.044238 0.035031 0.10935 0.073832 
-0.056219 0.57562 -0.1182 0.072024 0.07301 0.018589 0.14667 0.093398 
0.014808 0.32358 -0.085978 0.062159 0.068407 0.049828 0.14338 0.078272 
0.183 0.29037 -0.066741 0.0689 0.055418 0.078107 0.097179 0.076299 
0.26603 0.42946 -0.044217 0.085999 0.052787 0.060679 0.045389 0.049499 
0.24022 0.3392 0.030263 0.044896 0.037332 0.038483 0.027468 0.038977 
0.147 0.0021479 0.059693 0.040128 0.037168 0.042758 0.020398 0.049499 
-0.10308 -0.22557 0.025824 0.052294 0.045389 0.02829 0.026974 0.08008 
-0.28656 -0.32536 -0.001798 0.033387 0.052459 0.012506 -0.0011404 0.11263 
-0.23066 -0.31797 0.037332 0.043745 0.03651 0.018096 -0.040764 0.075805 
-0.15405 -0.17197 0.086985 -0.0027845 0.020069 -0.008539 -0.016431 -0.030242 
0.029769 -0.10373 0.15226 -0.022185 0.015137 -0.017253 -0.064604 -0.12231 
0.13499 -0.19416 0.19336 0.004943 -0.016102 0.0031344 -0.06 -0.23527 
0.26061 -0.17197 0.20684 -0.024652 0.012177 0.014972 -0.003771 -0.18742 
0.42058 0.072024 0.10376 0.035853 0.040128 0.019576 0.038812 -0.11541 
0.63021 0.15275 -0.014622 0.047362 0.053445 0.024179 0.01563 -0.0091966 
0.46958 -0.023336 -0.064933 0.039799 0.047197 0.049006 0.036182 0.087643 
0.060022 -0.37436 -0.081374 0.059693 0.026974 0.040785 0.043745 0.16525 
-0.28821 -0.61227 -0.052109 0.045553 0.042594 0.024508 0.054596 0.19632 
-0.43651 -0.58777 -0.021528 0.041278 0.030427 0.031249 0.030592 0.15078 
-0.35989 -0.47268 0.010533 0.051636 0.067256 0.041114 0.023028 0.1276 
-0.1672 -0.39113 0.012177 0.038977 0.046375 0.032071 0.016288 0.062981 
0.061995 -0.47547 0.079916 0.04095 0.043745 0.02533 0.009711 -0.012156 
0.2754 -0.34624 0.14108 -0.027775 0.0085601 0.0072447 -0.022843 -0.056712 
0.29546 0.36041 0.15703 -0.029748 -0.0031133 -0.013143 -0.023007 -0.06855 
0.07038 1.2254 0.13434 -0.01939 -0.0088678 -0.0073881 0.0062583 -0.011005 
-0.05885 1.4543 0.095535 0.010533 0.030427 0.022042 0.038155 0.0016547 
0.043251 0.96709 0.081395 0.039799 0.01563 0.00083261 0.021713 -0.0059084 
0.20832 0.33032 0.097179 0.0021479 0.013328 0.0044497 -0.0027845 -0.03057 
0.11822 -0.2083 0.083533 -0.010348 0.011355 0.023357 0.019411 -0.040435 
-0.058192 -0.40609 0.038155 0.032071 0.035524 0.027468 0.043251 -0.004593 
-0.039942 -0.32372 -0.041093 0.048677 0.035031 0.024508 0.038319 -0.021363 
0.037332 -0.31353 -0.071016 0.086163 0.057227 0.023686 0.035031 -0.0049219 
0.10622 -0.41102 -0.050793 0.045882 0.036346 0.035031 0.029934 0.0016547 
0.13072 -0.62131 0.014479 0.019411 0.029112 0.024673 0.0024767 0.039799 
0.04917 -0.5225 0.025166 0.025001 0.013328 0.021713 -0.036489 0.083697 
-0.074798 0.033387 0.0083956 0.0074092 0.027632 0.031249 -0.033201 0.10819 
-0.085813 0.4533 -0.0059084 0.031085 0.025988 0.0036276 0.056404 0.1179 
-0.012649 0.31799 -0.011827 0.028454 0.021713 0.01415 0.10836 0.099316 
-0.040764 -0.0016336 -0.0095255 0.024508 -0.0077169 0.051143 0.15472 0.097015 
-0.076113 -0.096336 0.015794 0.053445 0.031249 0.04358 0.11707 0.04506 
0.011026 0.099974 0.071202 0.03651 0.034537 0.0080668 0.063639 -0.073647 
0.23151 0.27162 0.1128 0.03092 0.016123 0.011026 0.012835 -0.1085 
0.43439 0.24005 0.11444 0.011684 0.020727 0.011848 0.00017495 -0.11459 
0.4048 0.21095 0.082053 0.019905 0.0034632 0.015301 0.019247 -0.054575 
0.20964 0.21983 0.042758 0.049828 0.038977 0.015959 0.068078 0.01711 
0.16722 0.27721 0.031414 0.035524 0.026481 0.03651 0.031907 0.015301 
0.31947 0.23545 0.068078 0.031414 0.037826 0.023357 -0.0044286 0.00099702 
0.22887 0.037004 0.074819 0.029441 0.026646 0.01004 0.0039565 -0.0014692 
-0.22277 0.016123 0.043909 0.059528 0.049499 0.029769 0.013164 0.05772 
-0.61227 0.35761 0.0037921 0.047197 0.035195 0.026481 0.056404 0.10918 
-0.71979 0.55672 0.030592 0.012177 -0.025638 0.033387 0.073997 0.12283 
-0.53039 0.4459 -0.0060728 -0.0054151 -0.028762 0.0039565 0.10556 0.10244 
-0.21504 -0.0059084 0.037004 -0.0016336 -0.026624 -0.0019624 0.098659 0.090767 
0.030427 -0.2693 0.014972 -0.0091966 0.004943 0.0041209 0.067091 0.079258 
0.1493 -0.30415 -0.00064712 0.023028 0.043087 0.01267 0.016945 0.062981 
0.19632 -0.23116 -0.0098543 0.015959 0.045224 0.035688 0.027796 0.065776 
0.27524 -0.041586 0.0072447 0.029276 0.040456 0.029112 -0.003771 0.036839 
0.26537 0.17791 -0.0032777 0.041443 0.021549 0.010862 -0.012649 -0.012156 
0.088301 0.51693 0.0092177 0.052459 0.04358 0.033551 0.0014903 0.022206 
-0.085649 0.78065 0.03651 0.085506 0.051308 0.036346 0.011848 0.054267 
-0.1815 0.67329 0.050157 0.075641 0.060515 0.03536 -0.0091966 0.072517 
-0.10998 0.29645 0.064954 0.062652 0.034702 0.030098 -0.05326 0.042923 
0.09685 -0.048656 0.021384 0.061995 0.03947 0.02681 -0.069208 0.0047785 
0.15949 -0.19252 0.02533 0.028619 0.034702 0.015301 -0.060165 -0.015609 
0.17133 -0.091897 0.029605 0.023357 0.017274 -0.0014692 -0.082196 -0.017911 
0.13154 0.046211 0.026974 0.01974 -0.003771 0.01415 -0.10949 -0.009361 
-0.088937 0.071037 0.015301 0.016123 0.022535 0.020233 -0.014458 0.013986 
-0.25812 -0.13366 0.048677 0.046046 0.039799 0.016781 0.12085 0.073339 
-0.25417 -0.29462 0.063145 0.016452 0.040128 0.046211 0.16344 0.066105 
-0.054082 -0.18841 0.017274 0.024015 0.04654 0.021878 0.12316 0.022535 
0.17511 0.033058 -0.0095255 0.038648 0.046046 0.010369 0.075805 -0.0072237 
0.33443 0.14026 -0.032215 0.058706 0.042594 0.042923 0.036675 -0.020377 
0.329 0.066763 -0.031064 0.079258 0.048513 0.041772 0.046046 -0.0016336 
0.41236 -0.11837 -0.0060728 0.033387 0.040785 0.02533 0.051965 -0.012649 
0.621 -0.25384 0.061501 -0.014458 0.013821 0.0019835 0.022042 0.022535 
0.4048 -0.012485 0.096028 -0.01939 0.026646 0.017274 0.025495 0.067913 
-0.10653 0.40332 0.08156 -0.0078813 0.038155 0.019576 0.0034632 0.11 
-0.4638 0.5702 0.044896 0.049664 0.058377 0.029769 0.0079024 0.11313 
-0.50556 0.43012 -0.003771 0.01974 0.030592 0.043251 0.023851 0.054103 
-0.33079 0.40036 0.015301 0.032564 0.029276 0.017932 0.039305 0.029441 
-0.29248 0.56395 0.047033 0.0082312 0.017767 0.0098754 0.042923 0.036182 
-0.33654 0.96348 0.078272 -0.0059084 0.037497 0.025824 0.057884 0.053609 
-0.25434 0.93027 0.057884 0.055911 0.046375 0.034209 0.036839 0.06479 
-0.0044286 0.034373 0.053609 0.040456 0.060022 0.026481 0.023357 0.028947 
0.3854 -1.3794 0.065283 0.013657 0.021878 0.015959 -0.060329 0.0052718 
0.61295 -2.3795 0.087314 0.021384 0.0014903 0.017767 -0.16835 -0.031228 
0.36945 -1.8847 0.050321 0.01152 0.0083956 0.01974 -0.22721 0.043416 
0.059364 -0.2859 -0.049478 0.064461 0.041443 0.028454 -0.20699 0.08419 
-0.081045 0.98798 -0.075784 0.076299 0.050979 0.056898 -0.087458 0.11017 
0.11428 1.2629 -0.0054151 0.071202 0.061008 0.07038 0.076134 0.10967 
0.28461 0.61459 0.064132 0.054267 0.058871 0.043745 0.19418 0.055254 
0.40546 -0.14714 0.12332 1.0539e-005 0.01152 0.049335 0.23989 0.025659 
0.33344 -0.39984 0.10688 0.0013258 0.017767 0.024508 0.16508 -0.030899 
0.080738 -0.21734 0.052294 0.017603 0.022535 0.0054362 0.14075 -0.047176 
-0.11327 -0.019884 -0.022185 0.0024767 0.018425 0.03651 0.15489 -0.049807 
-0.055726 -0.030242 0.06594 0.027961 0.022371 0.033222 0.10063 -0.12494 
0.051143 -0.21965 0.11395 -0.017417 0.010369 -0.0070593 0.0070803 -0.13218 
0.2024 -0.078415 0.09274 -0.020048 0.014972 -0.014293 -0.0027845 -0.11097 
0.29053 0.06742 0.0026412 0.0064227 0.0042853 0.017274 0.018589 -0.037805 
-0.075455 0.0069159 -0.083183 0.025001 0.018425 0.033058 0.056898 0.12513 
-0.42599 -0.041093 -0.10308 0.05476 0.032564 0.051801 0.10918 0.21572 
-0.41628 -0.16013 -0.067892 0.045718 0.047033 0.061666 0.082711 0.19747 
-0.19104 -0.39606 -0.028762 0.062323 0.060022 0.065447 0.11461 0.13039 
-0.03501 -0.39869 0.028619 0.070215 0.058049 0.042265 0.097344 0.12562 
-0.029091 0.017438 0.043087 0.064625 0.052294 0.03092 0.063474 0.13368 
-0.02794 0.43028 0.053116 0.071531 0.025166 0.039799 0.0227 0.084848 
0.09126 0.61804 0.093233 0.019576 0.028783 0.015137 0.0083956 0.029112 
0.23101 0.67592 0.08715 -0.0059084 0.0092177 -0.0059084 -0.03501 -0.014293 
0.31026 0.58039 0.065612 0.030427 0.022371 0.018918 -0.1455 0.00033937 
0.18103 0.48125 -0.0011404 0.033058 0.036839 0.018918 -0.23592 0.0011614 
0.054103 0.28987 -0.041915 0.061501 0.041936 0.0016547 -0.24842 0.0095465 
0.15949 -0.032872 0.0074092 0.0098754 0.034044 -0.0067304 -0.14418 -0.0055795 
0.30352 -0.40297 0.12217 -0.017582 -0.0013048 0.00066819 0.0227 -0.050464 
0.13056 -0.7724 0.18432 -0.019884 -0.0040998 0.0011614 0.12233 -0.03057 
-0.20978 -1.3398 0.14897 -0.0091966 0.019247 0.01415 0.22049 0.032564 
-0.3594 -1.4531 0.049499 0.041772 0.03651 0.062817 0.21112 0.079094 
-0.38225 -0.51691 -0.04619 0.065118 0.062817 0.061337 0.16706 0.081231 
-0.42927 0.81222 -0.059343 0.064132 0.060186 0.038977 0.11888 0.074326 
-0.39425 1.5146 -0.016431 0.085341 0.048841 0.053938 0.073668 0.054596 
-0.21373 1.3397 0.037332 0.044896 0.026481 0.025988 0.009711 -0.0087034 
0.030592 0.6238 0.062981 0.030427 0.026974 0.023686 -0.010512 -0.028597 
0.29398 -0.26157 0.082382 0.019411 0.011191 0.024179 -0.023007 -0.042408 
0.53945 -0.85494 0.037004 0.019411 0.018754 0.018589 -0.014787 -0.046847 
0.58417 -1.1479 -0.0014692 0.027796 0.0013258 -0.0016336 -0.037805 -0.052109 
0.46843 -1.0327 0.057227 -0.0087034 0.0036276 -0.02942 -0.056055 -0.077428 
0.28642 -0.50342 0.045553 -0.022679 -0.017746 -0.020048 -0.035174 -0.04323 
-0.026953 0.073339 -0.0022913 -0.00097594 -0.023829 -0.013965 -0.041422 -0.014458 
-0.22113 0.64566 -0.03205 0.017274 0.027796 -0.010183 0.010369 -0.017582 
-0.32882 1.0051 -0.010019 0.061172 0.028947 0.034044 0.0060938 0.082546 
-0.36137 1.1295 0.024344 0.029769 0.033058 0.035524 0.057884 0.1105 
-0.31501 1.058 0.0028056 0.072681 0.059528 0.040128 0.058377 0.15127 
-0.17147 0.83211 -0.032543 0.079258 0.051472 0.039634 0.05065 0.11214 
0.032893 0.26948 -0.01676 0.071037 0.029934 0.032564 0.020562 0.021549 
0.31404 -0.33539 0.030098 0.076463 0.0014903 0.01711 0.048019 -0.027447 
0.53222 -0.51756 0.078272 0.025001 0.020562 0.00066819 0.024508 -0.055561 
0.44771 -0.23263 0.091589 -0.011827 0.01711 -0.0068948 0.016781 -0.031392 
0.10754 0.38277 0.089945 -0.0021268 0.0018191 -0.0036066 0.017603 -0.012156 
-0.27752 0.5822 0.045224 0.0034632 0.01152 0.0016547 0.053774 0.096686 
-0.49685 0.26028 0.040621 0.032071 0.034537 0.059693 0.065776 0.13713 
-0.49438 -0.22293 0.10639 -0.0031133 0.03651 0.051801 0.061501 0.14387 
-0.37502 -0.22737 0.11674 0.0032988 0.017932 0.019905 0.055089 0.078929 
-0.16358 -0.033037 0.048348 0.04654 0.023357 0.021549 0.053774 0.023686 
0.15555 -0.021034 0.02533 0.021549 0.020727 0.026974 0.023851 -0.031721 
0.48191 -0.045696 0.02533 0.023686 0.020069 0.01974 0.0037921 -0.077757 
0.61722 0.16837 0.078765 -0.014622 0.0054362 -0.0026201 -0.027611 -0.1016 
0.68726 0.34018 0.091589 -0.027447 0.019905 0.01004 0.0085601 -0.10669 
0.59141 0.20339 0.05624 0.029276 0.01415 0.0054362 0.0095465 -0.11113 
0.31815 -0.15816 0.0085601 0.022206 0.020891 0.025824 0.0067515 -0.038133 
0.014315 -0.66241 -0.022514 0.016945 -0.017911 0.031907 0.03651 0.0023123 
-0.17723 -0.73377 -0.042408 0.062652 0.034209 0.031907 0.078436 0.09422 
-0.26634 -0.14961 -0.062796 0.055418 0.036346 0.031578 0.069886 0.11674 
-0.28459 0.47369 -0.082361 0.082546 0.039963 0.04358 0.077449 0.13171 
-0.26897 0.80498 -0.097651 0.062159 0.075641 0.052459 0.080573 0.14535 
-0.17427 0.73264 -0.037311 0.055911 0.046046 0.053281 0.080409 0.11099 
-0.24118 0.51643 0.014808 0.051636 0.032071 0.016616 0.062488 0.081724 
-0.24003 0.36649 0.049828 0.017767 0.01415 0.023357 0.024508 0.014808 
0.012506 0.2001 0.094548 0.025988 0.0024767 -0.0057439 0.0087245 -0.019555 
0.17495 -0.11607 0.082053 -0.012978 0.01267 0.0023123 0.022864 -0.039449 
0.19846 -0.19614 0.036017 -0.0032777 0.023357 0.017603 -0.0014692 -0.018239 
0.2223 -0.0078813 -0.013307 0.018096 0.03947 0.015959 0.011191 -0.016266 
0.19007 0.18185 0.014808 0.0092177 0.0014903 -0.0019624 0.017438 -0.0077169 
0.15604 0.18103 0.042429 0.04654 0.011191 0.034044 0.064296 0.036839 
0.11494 0.029605 0.054432 0.02829 0.027796 0.028454 0.075476 0.08304 
-0.015116 -0.096172 0.024508 0.028619 0.029605 0.015959 0.034537 0.08567 
-0.17756 -0.18348 0.044896 0.029441 0.027303 0.01004 0.0041209 0.068736 
0.022206 -0.28459 0.11905 -0.0060728 0.022206 0.0067515 -0.0042642 0.023851 
0.30796 -0.39557 0.16459 0.0075736 0.021713 -0.0060728 -0.018897 0.036346 
0.27507 -0.29955 0.12085 0.011191 0.00033937 0.015959 -0.02942 0.0034632 
0.17149 -0.041422 0.022042 0.057227 0.018754 -0.012649 -0.033037 0.056733 
0.14913 0.30829 -0.056383 0.097508 0.041443 0.031742 -0.052931 0.027303 
0.01152 0.63531 -0.084498 0.07301 0.045718 0.045553 0.016945 0.070544 
-0.12478 0.76043 -0.11755 0.079094 0.045224 0.047033 0.098166 0.10178 
-0.17525 0.60423 -0.12527 0.06183 0.047691 0.041114 0.1396 0.049664 
-0.15569 0.33065 -0.10801 0.034209 0.038319 0.0072447 0.086163 0.02829 
-0.23116 0.12957 -0.089595 0.057555 0.014972 0.0011614 0.016781 -0.020706 
-0.26404 0.067091 -0.048163 0.024508 0.059528 0.025824 0.0051074 -0.017088 
-0.13103 0.0028056 0.027303 0.0085601 0.03092 0.023522 -0.0050863 -0.027118 
-0.039449 -0.41217 0.014315 0.0095465 0.047197 0.036839 -0.0057439 0.0072447 
0.085341 -0.99617 0.016452 0.033222 0.061008 0.039305 0.012999 0.079258 
0.23512 -1.3156 0.066598 0.046375 0.063474 0.013986 0.026646 0.076627 
0.33147 -1.1149 0.17149 0.0059294 0.024015 -0.0021268 0.032071 0.065118 
0.21145 -0.78178 0.2417 -0.01117 0.009711 0.013986 0.026481 0.053938 
0.15489 -0.55669 0.27491 0.00033937 0.017274 0.034044 0.027139 0.055911 
-0.042573 0.13549 0.20503 -0.0059084 0.00099702 0.018096 0.036675 0.070873 
-0.3298 0.93092 0.12118 0.018754 -0.0004827 -0.0026201 0.020562 0.037826 
-0.68181 1.0528 0.046375 -0.010512 0.016452 -0.0021268 -0.0096899 0.068078 
-0.58662 0.72031 -0.014293 -0.01939 0.013492 -0.0090322 -0.0052507 0.027303 
-0.11508 0.38688 -0.05326 0.038319 0.013492 -0.0064016 0.022206 0.013986 
0.42453 0.11132 -0.10275 0.033715 0.029769 0.048348 0.028947 -0.014951 
0.67986 0.17051 -0.09387 0.064132 0.040456 0.020398 0.011848 -0.013143 
0.46086 0.56 -0.095678 0.063803 0.046704 0.027632 0.021549 0.048184 
0.17676 0.58796 -0.060987 0.074326 0.064625 0.069558 0.047526 0.077449 
0.41351 -0.047505 0.0037921 0.083697 0.067091 0.054925 0.029276 0.057062 
0.91399 -0.64679 0.072846 0.036839 0.055089 0.040128 0.0059294 0.0018191 
0.55474 -0.63545 0.065447 0.025001 0.056569 0.027961 0.040128 0.012177 
-0.17525 -0.47482 0.10014 0.017932 0.044402 0.043745 0.090438 0.023851 
-0.45607 -0.36729 0.13713 -0.016595 0.0019835 0.0074092 0.09126 -0.040106 
-0.29265 -0.13333 0.13647 -0.014787 -0.0049219 -0.026789 0.046868 -0.070359 
-0.13103 0.24729 0.097672 -0.0091966 0.018096 0.007738 0.014315 -0.065755 
-0.040271 0.4875 0.028125 0.025166 0.03947 0.027139 0.03388 0.029605 
-0.080059 0.78213 -0.0080457 0.041443 0.066598 0.051472 0.047855 0.1031 
-0.25812 1.109 0.017274 0.022371 0.049828 0.053116 0.038319 0.15456 
-0.40215 1.1149 0.085835 0.046211 0.04506 0.04654 0.058706 0.15916 
-0.37156 0.78032 0.039305 0.03388 0.050814 0.037168 0.066105 0.10145 
-0.18249 0.038648 -0.01117 0.033551 0.039963 0.02681 0.04358 0.033387 
-0.0019624 -0.76336 0.033387 0.0026412 0.0051074 0.01974 0.016945 -0.046683 
0.09685 -1.2201 0.069393 -0.037311 -0.0070593 -0.014293 -0.0029489 -0.11409 
0.16179 -1.5721 0.12201 -0.026624 -0.0019624 -0.032543 -0.024816 -0.12725 
0.22263 -1.4373 0.15012 -0.042244 -0.032379 0.01826 -0.048327 -0.045368 
0.37668 -0.38916 0.15374 -0.016102 0.0082312 0.0034632 -0.056383 0.023686 
0.60456 0.81189 0.15982 0.0051074 -0.0090322 0.0011614 -0.0032777 -0.028104 
0.67953 0.95657 0.11198 0.0041209 0.029441 0.028947 0.10014 -0.014622 
0.51101 0.17988 0.036839 0.051965 0.049335 0.061172 0.12842 0.038977 
0.22953 -0.19219 -0.027282 0.068242 0.065612 0.057555 0.13943 0.061501 
0.054596 0.086657 -0.038956 0.06594 0.054267 0.036017 0.10819 0.068078 
-0.10225 0.6478 -0.089431 0.074654 0.017438 0.036675 0.080738 0.036346 
-0.3834 1.0225 -0.11163 0.062488 0.031249 0.025824 0.038483 0.044731 
-0.49767 0.97416 -0.087293 0.046375 0.043087 0.031742 -0.027775 0.057555 
-0.42122 0.36567 -0.031228 0.051472 0.027961 0.045553 -0.081868 0.07597 
-0.23477 -0.27456 -0.0031133 0.033222 0.02829 0.023357 -0.15947 0.099481 
-0.001798 -0.48172 -0.015773 0.057555 0.023028 0.013492 -0.21554 0.10195 
0.047855 -0.44358 -0.038133 0.035195 0.025824 0.02533 -0.17361 0.12546 
0.044731 -0.54239 0.015301 0.027961 0.0080668 0.016288 -0.032215 0.09274 
0.12694 -0.75333 0.056076 0.0093821 -0.0024557 0.0087245 0.12118 0.028125 
0.23479 -0.6417 0.080573 0.0024767 0.004943 0.0067515 0.18366 -0.012814 
0.11296 -0.14237 0.083533 0.033222 0.015137 0.0227 0.14601 -0.038791 
0.013328 0.49259 0.1368 -0.016924 0.0013258 -0.004593 0.080573 -0.094363 
0.14864 0.91892 0.18284 -0.034681 -0.0054151 -0.011005 0.029605 -0.1672 
0.18432 0.93783 0.13976 -0.0022913 0.017932 0.0064227 -0.018075 -0.133 
-0.18068 0.62561 0.090109 0.021056 0.027632 -0.0078813 -0.017582 0.0056006 
-0.49192 0.038812 0.0021479 0.035853 0.011026 0.017438 -0.017088 0.11937 
-0.48583 -0.49866 -0.063782 0.047362 0.058049 0.052952 0.029934 0.22213 
-0.18907 -0.47054 -0.11442 0.1031 0.072024 0.08419 0.03388 0.22444 
0.087643 -0.1917 -0.11903 0.15111 0.077285 0.06594 0.052294 0.14026 
0.27606 -0.074633 -0.099624 0.11115 0.073339 0.049828 0.046046 -0.026789 
0.35745 -0.32915 -0.047012 0.10359 0.05476 0.053938 0.024015 -0.092061 
0.341 -0.65123 0.047197 0.040621 0.015301 0.023851 0.0065871 -0.096336 
0.22427 -0.88881 0.14946 0.004943 0.010369 0.0056006 -0.013143 -0.034352 
-0.081539 -0.76714 0.16327 0.0046141 -0.0021268 -0.00081153 -0.021856 0.051308 
-0.34674 0.12201 0.068078 -0.011498 0.010862 -0.010676 -0.0040998 0.091918 
-0.39869 1.2436 -0.030406 0.037004 0.028454 0.00297 0.0056006 0.14502 
-0.23576 1.4018 -0.056383 0.035853 0.027796 0.016616 0.013492 0.11921 
-0.01528 0.86746 -0.049478 0.029276 0.037168 0.030263 0.050157 0.10047 
0.18777 0.43801 -0.078908 0.075312 0.055089 0.046211 0.055911 0.084519 
0.39082 0.58089 -0.072989 0.048348 0.027303 0.031742 0.05213 0.055582 
0.28478 0.65882 -0.0021268 0.01826 0.020069 0.038319 0.052952 0.036675 
-0.12001 0.42584 0.059035 0.0075736 0.00099702 0.0070803 0.064625 0.0065871 
-0.46084 0.15226 0.010862 0.042265 0.026481 0.005765 0.067749 0.09126 
-0.29429 -0.04619 -0.025802 0.076463 0.059364 0.05065 0.10392 -0.042079 
-0.20205 -0.22409 -0.018075 0.068736 0.060679 0.04506 0.12381 -0.056055 
-0.10423 -0.56311 0.11411 0.0011614 0.0011614 0.0079024 0.070215 -0.023501 
-0.15026 -1.4352 0.23298 -0.0070593 -0.023007 -0.020377 0.023522 -0.043888 
0.042429 -1.8702 0.25173 -0.026296 -0.016431 -0.022514 0.0042853 -0.044546 
0.48059 -1.3626 0.22953 -0.0095255 -0.014458 -0.027282 -0.010019 -0.034681 
0.76454 -0.094856 0.19435 -0.034845 -0.0091966 -0.0083746 0.012999 0.00050378 
0.6774 1.0064 0.11987 -0.0077169 0.024015 0.018754 0.020562 0.065776 
0.64813 1.3337 0.010697 0.052623 0.036182 0.061172 0.018096 0.08156 
0.37044 0.91662 -0.040764 0.034702 0.034044 0.027468 0.038648 0.086821 
-0.036489 0.24532 -0.025967 0.034866 0.043745 0.024179 0.076627 0.096357 
-0.29084 -0.21734 -0.063124 0.062652 0.043251 0.038648 0.071531 0.11395 
-0.22688 -0.18578 -0.13497 0.082546 0.053445 0.054103 0.072846 0.022371 
-0.31895 0.1978 -0.099624 0.12562 0.073997 0.057555 0.094384 0.0039565 
-0.30169 0.66227 -0.057041 0.093726 0.067913 0.043909 0.11921 0.012506 
-0.033859 0.95279 0.019083 0.064625 0.043909 0.034209 0.088136 0.035853 
0.16985 0.6284 0.061995 0.057391 0.025824 0.020069 0.085177 0.072846 
0.27968 -0.023665 0.059035 0.012506 0.016123 0.038812 0.061172 0.053609 
0.35827 -0.33342 0.026317 0.055254 0.028947 0.018589 0.031414 0.063145 
0.41894 -0.17493 -0.016924 0.01974 0.042594 0.01415 0.025824 0.067585 
0.33706 -0.021692 -0.0011404 0.024673 0.035195 0.043416 0.028454 0.033551 
0.10359 0.010533 0.065776 0.016945 0.029769 0.0079024 0.022042 -0.030735 
-0.11048 -0.033694 0.12349 -0.00081153 -0.014622 -0.037147 -0.0082102 -0.10784 
-0.13908 -0.1935 0.16574 -0.0024557 0.0026412 -0.0022913 -0.031886 -0.13333 
-0.24102 -0.18249 0.1909 -0.013965 0.010862 0.009711 -0.017911 -0.064275 
-0.32767 -0.14106 0.17182 -0.017911 0.016123 0.020069 0.033222 0.026317 
-0.41217 -0.18857 0.14124 0.018918 0.022042 0.02829 0.023193 0.043745 
-0.36811 -0.15273 0.066598 0.0028056 0.015959 0.0085601 -0.015773 0.0023123 
-0.085156 0.15209 -0.051122 0.025495 0.019576 -0.01676 -0.034516 -0.018404 
0.18711 0.82126 -0.10225 0.012506 0.016288 -0.0064016 -0.0027845 0.00033937 
0.2948 1.1121 -0.10291 0.040785 0.030263 0.045882 0.030592 0.10063 
0.29661 0.71143 -0.0039354 0.059857 0.039305 0.042758 0.051308 0.17001 
0.45642 0.15916 0.086492 0.024015 0.034044 0.035031 0.036017 0.11115 
0.78854 -0.045368 0.073668 0.050321 0.037332 0.052459 0.035031 0.029934 
0.80005 -0.17082 0.052787 0.043087 0.051472 0.056076 0.0052718 -0.027611 
0.19895 -0.74215 0.0056006 0.045718 0.091753 0.025824 -0.016102 0.0072447 
-0.33917 -1.6892 -0.02794 0.079258 0.053116 0.049664 0.01826 0.069722 
-0.6047 -2.3748 0.0072447 0.0014903 0.036346 0.03947 0.037332 0.078107 
-0.74051 -2.0552 0.086657 0.0088889 0.024673 0.0023123 0.0032988 0.064625 
-0.72801 -0.42829 0.11822 -0.021034 0.043087 -0.027611 -0.022185 -0.011827 
-0.46051 1.4141 0.069229 -0.023501 0.0013258 0.01415 -0.017088 -0.01232 
-0.014458 2.2558 0.0067515 0.045718 0.01415 0.0046141 0.0028056 0.0059294 
0.41713 1.9342 0.036346 0.0085601 0.03651 0.018918 -0.011005 -0.0013048 
0.48421 1.0192 -0.025967 0.026152 0.0060938 0.025988 -0.0054151 0.027139 
0.25452 0.24071 0.011848 0.0032988 -0.006566 0.0087245 -0.024487 -0.019555 
-0.046354 -0.069536 0.078436 -0.0059084 -0.015938 0.010204 -0.017911 -0.0070593 
-0.27374 0.018918 0.026974 0.035031 0.018096 0.023357 -0.018568 -0.0082102 
-0.12067 0.61262 -0.024158 0.065612 0.058871 0.049828 -0.017911 0.039799 
0.11099 1.2226 -0.0868 0.095535 0.08304 0.068078 0.04095 0.097837 
0.015301 1.0787 -0.079237 0.10573 0.086985 0.050157 0.0592 0.11839 
-0.10801 0.33311 -0.020377 0.063639 0.034866 0.035031 0.019247 0.057884 
-0.043559 -0.38883 0.020562 0.043745 0.020891 -0.0050863 -0.001798 -0.0060728 
-0.010019 -1.0827 0.072846 -0.0090322 0.014479 0.0023123 -0.0040998 0.022864 
-0.23247 -1.4812 0.062817 -0.0077169 0.021549 0.027961 0.024015 0.084026 
-0.2647 -1.5164 0.0088889 0.035524 0.034209 0.03799 0.0324 0.10474 
-0.014787 -1.2185 -0.038462 0.042265 0.041278 0.029441 0.056898 0.12562 
0.39 -0.62542 -0.010183 0.059035 0.031578 0.036675 0.055582 0.054596 
0.6118 0.086821 0.041772 0.024179 0.0082312 0.040621 0.031907 0.039141 
0.54225 0.48224 0.043416 0.0065871 0.0036276 0.020233 0.0095465 0.019083 
0.35958 0.42634 0.01415 0.018918 0.01974 0.016616 0.017932 0.00033937 
0.25683 0.50838 -0.0068948 0.01563 0.019411 0.037661 0.016781 -0.044874 
-0.080881 0.79512 -0.023336 0.063474 0.037168 0.040456 0.024508 -0.0095255 
-0.93435 0.98962 -0.049314 0.069558 0.051965 -0.00015387 0.049664 0.050979 
-1.2975 0.94309 -0.02087 0.060022 0.050321 0.027468 0.027468 0.038155 
-1.0286 0.67378 0.037497 0.019576 -0.0138 -0.0138 0.013328 -0.0039354 
-0.35726 0.2394 0.17791 -0.085485 -0.054904 -0.042079 -0.059014 -0.08532 
0.62807 -0.001798 0.305 -0.14303 -0.077593 -0.048327 -0.074633 -0.13596 
1.46 -0.064275 0.33246 -0.093048 -0.036818 -0.021528 -0.035832 -0.13201 
1.556 -0.2397 0.25206 0.0093821 0.017767 0.00099702 0.037497 -0.063782 
0.98896 -0.76649 0.14437 0.054925 0.046704 0.027139 0.048677 0.047691 
0.30812 -1.4061 -0.013307 0.070708 0.029769 0.047362 0.043745 0.10688 
-0.15257 -1.6283 -0.13284 0.068242 0.035853 0.027303 0.0689 0.14848 
-0.3737 -1.231 -0.17854 0.079916 0.034866 0.041278 0.11395 0.17281 
-0.48764 -0.32536 -0.14895 0.062652 0.049335 0.060844 0.096028 0.15144 
-0.51444 0.65323 -0.077593 0.085012 0.050157 0.049006 0.084848 0.10326 
-0.4153 1.1013 -0.030735 0.069558 0.050486 0.03536 0.052294 0.058377 
-0.035996 0.9717 0.017438 0.074819 0.06742 0.044238 0.058049 0.016288 
0.1225 0.65849 0.071202 0.061995 0.03947 0.045718 0.032893 -0.028762 
-0.22014 0.32522 0.10162 0.037332 0.029112 0.0092177 0.055747 0.0098754 
-0.95589 0.023357 0.053281 0.073504 0.027961 0.019083 0.045882 0.095535 
-1.0978 0.1077 -0.039778 0.066763 0.037661 0.047855 0.093562 0.10655 
-0.44719 0.3854 -0.12609 0.075312 0.053938 0.040128 0.090438 0.14749 
0.33147 0.52646 -0.069043 0.08863 0.07301 0.07597 0.096193 0.11592 
0.76191 0.33295 -0.0082102 0.020069 0.038977 0.015465 0.055747 0.082711 
1.046 0.23841 0.13384 -0.029913 0.011355 -0.00031829 0.026646 -0.028597 
1.44 0.23825 0.24203 -0.080552 -0.037311 -0.043724 -0.036818 -0.14007 
1.8178 -0.096336 0.34643 -0.14993 -0.062302 -0.06148 -0.089266 -0.24217 
1.337 -0.60158 0.35893 -0.10127 -0.075949 -0.061316 -0.091404 -0.30152 
0.13845 -1.0838 0.21654 -0.052931 -0.013143 -0.019884 -0.019884 -0.17049 
-0.91643 -0.80693 0.012835 0.034537 0.036675 0.03388 0.038319 -0.023336 
-1.2094 0.20865 -0.10324 0.10293 0.080244 0.071366 0.066927 0.086657 
-0.77602 0.88094 -0.14944 0.11346 0.0786 0.064625 0.10507 0.083533 
-0.11064 0.90396 -0.14204 0.147 0.061501 0.040785 0.076627 0.025495 
0.061995 0.72689 -0.12412 0.073175 0.03799 0.02681 0.03536 0.015137 
-0.10883 0.75566 -0.10439 0.084684 0.05772 0.047362 0.038977 0.01415 
-0.24414 0.86384 -0.077593 0.11773 0.055089 0.0092177 0.068242 0.066434 
-0.12609 0.53222 -0.02794 0.073339 0.069064 0.04358 0.078765 0.10704 
-0.00081153 -0.17871 0.0085601 0.079422 0.075476 0.053774 0.063803 0.1539 
-0.10998 -0.68921 0.027632 0.039799 0.036346 0.044731 0.073832 0.17478 
-0.14993 -0.86694 0.039963 -0.0032777 0.013164 0.0044497 0.047855 0.14272 
0.060515 -0.9526 0.043087 -0.019061 -0.010019 0.005765 0.01826 0.081231 
0.4362 -0.92416 -0.00097594 -0.030899 0.007738 -0.010512 0.0070803 0.035853 
0.70157 -1.1816 -0.054904 0.00297 0.012506 -0.0022913 0.01152 -0.011663 
0.69581 -0.71174 -0.066413 0.0069159 0.050814 0.032236 0.038977 -0.013636 
0.4607 0.6113 0.014479 0.015959 0.041114 0.025988 0.032071 -0.0080457 
0.24795 1.4293 0.12151 0.024344 0.021056 0.0054362 0.023357 0.0026412 
-0.10341 1.4015 0.14141 -0.010019 -0.006566 -0.0068948 0.0072447 0.0044497 
-0.31386 0.76618 0.18202 0.0080668 0.014643 -0.0054151 -0.02087 -0.0082102 
-0.1455 -0.20288 0.22049 -0.015609 -0.0047575 -0.010841 -0.027775 -0.019555 
0.047033 -0.62986 0.23085 -0.009361 0.018096 0.014972 -0.025145 -0.044052 
0.094055 -0.42401 0.13927 0.0082312 0.022371 0.019905 0.0021479 -0.038956 
-0.085813 -0.10669 0.0046141 0.028947 0.062159 0.034866 0.031742 -0.0072237 
-0.27127 0.36073 -0.13399 0.096686 0.072353 0.043745 0.051636 0.041278 
-0.16259 0.87025 -0.23527 0.13845 0.088794 0.073832 0.046868 0.019576 
-0.049971 0.9985 -0.27801 0.12579 0.079751 0.072024 0.018918 0.018918 
-0.0072237 0.76898 -0.21685 0.13187 0.073504 0.042923 0.06035 0.073668 
-0.058192 0.33673 -0.11508 0.051636 0.051143 0.059364 0.031414 0.092247 
0.14486 -0.29593 -0.02794 0.030756 0.049828 0.036839 0.035524 0.10244 
0.44228 -0.92383 0.040621 0.01267 0.026646 0.0065871 0.01152 0.053445 
0.56132 -0.81203 0.046375 0.018425 0.017603 0.0060938 0.016288 0.035524 
0.46547 -0.41678 0.071695 0.056569 0.026317 0.058871 0.03388 0.049664 
0.079751 -0.56459 0.071366 0.01711 0.033387 0.033387 0.043416 0.0227 
-0.54699 -0.91314 0.09422 -0.00064712 0.005765 0.02829 0.083533 0.043416 
-0.94224 -0.71486 0.065118 0.0034632 0.027632 0.032893 0.053445 0.087479 
-0.6389 -0.19038 0.029934 0.026481 0.042594 0.020891 0.044731 0.12957 
-0.10258 0.53616 0.011026 0.052952 0.038648 0.029934 0.067585 0.15867 
0.17248 1.1249 0.064296 -0.0083746 0.0018191 -0.0027845 0.056076 0.13647 
-0.053917 1.1253 0.21276 -0.048492 -0.025474 -0.032872 -0.039449 -0.06855 
-0.25088 0.62643 0.31914 -0.10061 -0.053424 -0.063618 -0.14467 -0.21866 
-0.14878 0.22855 0.29727 -0.1205 -0.046354 -0.063289 -0.12281 -0.18216 
0.21589 -0.21455 0.30023 -0.039284 0.0016547 -0.0096899 -0.05326 -0.15602 
0.68381 -1.0746 0.20799 -0.026953 0.023357 -0.01232 -0.049314 -0.16753 
0.4214 -1.6566 0.11822 0.012835 0.021056 0.017438 -0.025638 -0.089431 
-0.12725 -1.4562 0.047855 0.0227 0.01152 0.054103 0.035031 0.075312 
-0.4444 -0.63348 -0.049971 0.031907 0.038319 0.069393 0.10277 0.22756 
-0.73262 0.45379 -0.095349 0.085341 0.070215 0.080573 0.13105 0.28297 
-0.50129 1.6123 -0.14648 0.077449 0.094548 0.060679 0.1179 0.2491 
-0.062796 1.8628 -0.12281 0.072846 0.071366 0.064954 0.077943 0.1659 
0.24647 1.093 -0.13629 0.11921 0.075641 0.051636 0.086985 0.13121 
0.30648 0.38753 -0.11853 0.071037 0.041443 0.036346 0.035688 0.091589 
0.14437 0.147 0.0070803 0.045389 0.024508 0.021549 -0.0082102 0.0062583 
0.056404 -0.20222 0.16508 -0.008539 -0.021199 -0.024158 -0.050958 -0.046519 
0.15522 -0.25943 0.27014 -0.075784 -0.04323 -0.029913 -0.038627 -0.09798 
0.15785 -0.077593 0.22476 -0.059343 -0.018568 -0.018075 -0.050464 -0.076606 
0.13631 -0.16095 0.08863 -0.024323 0.0046141 0.015465 -0.0021268 0.007738 
-0.050136 -0.22392 -0.089595 0.066927 0.033222 0.036017 0.037661 0.083862 
-0.23527 -0.017911 -0.18052 0.11263 0.061172 0.046375 0.070708 0.1128 
-0.26371 0.15785 -0.17805 0.10852 0.069722 0.046868 0.06479 0.084519 
-0.14813 0.0021479 -0.044546 0.11674 0.032071 0.01711 0.017603 0.022042 
-0.096994 -0.26239 0.1294 0.01415 0.033551 -0.010841 -0.012156 -0.051944 
-0.18627 -0.40724 0.28083 -0.043559 0.0042853 -0.0083746 -0.040435 -0.09387 
-0.14763 -0.60372 0.34857 -0.075291 -0.014787 -0.031228 -0.066413 -0.097158 
0.27244 -0.81729 0.34791 -0.096007 -0.0138 -0.0091966 -0.053424 -0.10949 
0.40694 -0.17164 0.28741 -0.072003 -0.018568 0.0056006 -0.010183 -0.059343 
0.14815 0.68249 0.17166 -0.043395 -0.012978 0.0082312 0.013164 0.032236 
0.020562 0.79709 -0.042079 0.057884 0.034537 0.020891 0.066105 0.12595 
-0.10587 0.52762 -0.22606 0.15637 0.072353 0.066434 0.09274 0.16245 
-0.36647 0.47632 -0.28854 0.15999 0.096357 0.077449 0.10589 0.15966 
-0.046519 0.39608 -0.21175 0.14108 0.078272 0.052623 0.074326 0.14552 
0.5314 0.2948 -0.15635 0.074326 0.058213 0.03799 0.10145 0.14338 
0.65027 0.43834 -0.097487 0.082711 0.04358 0.06331 0.066105 0.17741 
0.15735 0.80778 -0.054082 0.10178 0.02681 0.041443 0.077121 0.15916 
-0.3224 0.87486 0.029441 0.054925 0.025495 0.0044497 0.024015 0.056733 
-0.1353 0.64155 0.11987 0.045224 -0.004593 0.025166 -0.01232 -0.061316 
0.31273 0.2223 0.14617 -0.0072237 0.0056006 0.0079024 -0.016924 -0.085978 
0.17396 -0.16128 0.19287 -0.052437 -0.01117 -0.015938 -0.020212 -0.13399 
0.15555 -0.78128 0.22739 -0.048492 -0.020706 -0.043395 -0.046519 -0.21784 
0.45659 -1.3416 0.24976 -0.098144 -0.066577 -0.043395 -0.081868 -0.25812 
0.74777 -1.3084 0.15472 -0.070359 -0.040928 -0.039942 -0.041915 -0.19696 
0.48388 -1.0187 0.01711 -0.010348 -0.0024557 -0.0044286 0.026646 -0.059178 
-0.24776 -0.46002 -0.084169 0.048348 0.037826 0.066434 0.070708 0.16377 
-0.77454 0.17577 -0.14188 0.15209 0.09126 0.077614 0.10376 0.2879 
-0.73804 0.53682 -0.18923 0.18448 0.13088 0.066105 0.14535 0.32012 
-0.64038 0.8377 -0.24151 0.2149 0.13943 0.12299 0.16015 0.26669 
-0.56393 0.9837 -0.25204 0.19057 0.083697 0.11313 0.12743 0.19796 
-0.25976 0.51972 -0.14418 0.12201 0.071366 0.070544 0.10688 0.13976 
-0.09239 -0.06 0.0013258 0.08419 0.033222 0.026152 0.053609 0.03388 
-0.11886 -0.024652 0.10787 -0.024323 0.00099702 -0.019226 -0.016924 -0.10291 
0.11691 0.23562 0.16853 -0.082032 -0.020048 -0.061973 -0.094363 -0.21471 
0.71718 0.19994 0.15851 -0.024652 -0.0034422 -0.049314 -0.081045 -0.20616 
1.1126 0.062652 0.14519 -0.020541 0.027468 -0.0016336 -0.017746 -0.1113 
1.008 -0.25072 0.11822 0.016616 0.022206 0.029605 0.023686 -0.057041 
0.62774 -0.49257 0.082053 0.015794 0.018754 0.038155 0.025988 -0.023829 
0.56987 -0.47695 0.052952 0.041114 0.0421 0.047526 0.024015 -0.032872 
0.84181 -0.37633 0.03799 0.090931 0.071202 0.037168 0.064954 0.039305 
0.67855 -0.14796 0.021056 0.068242 0.066763 0.039634 0.088301 0.13894 
0.075641 0.20701 0.079587 0.039963 0.039305 0.040292 0.068078 0.19533 
-0.28081 0.31388 0.10885 -0.03501 -0.016102 0.0051074 0.018589 0.15144 
-0.1792 0.25666 0.095699 -0.06855 -0.018404 -0.0042642 0.015301 0.065283 
0.2828 0.16245 0.025824 0.018754 -0.0022913 0.014479 0.012342 -0.0014692 
0.48257 0.19747 -0.025145 0.034537 0.024673 0.042923 0.035031 -0.034023 
0.1391 0.29152 -0.067892 0.051143 0.055582 0.041443 0.058213 -0.0067304 
-0.38784 0.17922 -0.053588 0.04358 0.056898 0.043909 0.081231 -0.011498 
-0.76764 0.031742 -0.070359 0.048019 0.065118 0.053774 0.050157 -0.033694 
-0.50162 -0.12248 -0.086307 0.073997 0.046868 0.040785 0.018425 -0.022514 
-0.18019 -0.093048 -0.089759 0.030756 0.026646 0.016945 0.0098754 0.022535 
-0.39705 0.32029 -0.12018 0.0421 0.037168 0.042594 0.10392 0.24022 
-1.0072 0.74349 -0.092226 0.050979 0.048348 0.052787 0.10869 0.3706 
-1.0483 0.79249 -0.022843 0.0092177 0.038155 0.033551 0.084684 0.2902 
-0.56245 0.33015 0.086492 -0.01939 0.030427 -0.013143 -0.024816 0.016123 
-0.066413 -0.19038 0.24005 -0.087293 -0.02087 -0.028762 -0.056219 -0.27801 
0.39329 -0.48961 0.35251 -0.13941 -0.064768 -0.07973 -0.16703 -0.41398 
1.1279 -0.49159 0.36073 -0.11574 -0.090088 -0.084334 -0.18512 -0.45344 
1.9924 -0.52874 0.17971 -0.060329 -0.044052 -0.049642 -0.12609 -0.42007 
1.4643 -0.45098 0.012835 0.076134 0.034866 0.024837 -0.014129 -0.21389 
-0.10094 0.012177 -0.072003 0.082382 0.094548 0.058706 0.095042 0.12628 
-1.1968 0.14354 -0.038956 0.09274 0.093726 0.094055 0.159 0.36649 
-1.0545 -0.13941 0.012342 0.10293 0.076463 0.092411 0.14585 0.38112 
-0.27489 -0.27555 0.018589 0.06742 0.067913 0.061501 0.12233 0.30418 
0.43275 0.068242 0.029605 0.028783 0.049992 0.028783 0.07301 0.2269 
0.73938 0.60982 0.016781 0.017767 0.030098 0.037168 0.043416 0.18646 
0.75763 0.80843 -0.050629 0.040128 0.030263 0.033222 0.065612 0.14848 
0.46826 0.76125 -0.11623 0.072353 0.01711 0.013164 0.045224 0.024673 
0.022042 0.82668 -0.16884 0.052294 0.038483 0.02829 0.0065871 -0.09387 
-0.33605 0.85562 -0.072332 0.054267 0.032564 -0.023994 -0.038627 -0.19054 
-0.4199 0.66835 0.075148 0.0062583 0.027796 -0.039778 -0.041915 -0.19137 
-0.67326 0.26587 0.081395 -0.013143 0.016781 -0.0021268 -0.0057439 -0.068221 
-1.1514 -0.7387 0.022535 -0.011827 0.034702 0.034702 0.038155 0.086821 
-1.217 -1.8911 0.015301 -0.051287 0.0083956 0.025001 0.050157 0.17643 
-0.87927 -1.9098 0.047691 -0.056548 -0.0059084 0.035031 0.048677 0.18925 
-0.51789 -0.82419 0.033551 0.020069 0.03947 0.04358 0.057555 0.1909 
-0.15158 0.56691 -0.027118 0.052952 0.063474 0.030592 0.031414 0.12398 
0.66885 1.5287 -0.045368 0.086657 0.041772 0.021713 -0.0029489 1.0539e-005 
1.5644 1.8061 -0.00064712 0.042594 0.023522 0.029276 0.0011614 -0.079237 
1.7834 1.5437 0.073832 0.047691 0.032729 0.039305 0.037004 -0.098473 
0.85907 0.79051 0.13746 0.061172 0.034702 0.047526 0.031249 -0.045039 
-0.063946 -0.25795 0.14535 0.031249 0.0064227 0.017932 0.033222 -0.015938 
-0.69053 -1.1461 0.14437 0.040785 -0.010512 -0.0052507 0.02829 0.034866 
-1.0231 -1.5969 0.16689 0.01415 0.004943 -0.01676 0.022371 0.087972 
-0.9577 -2.0923 0.2759 -0.032872 -0.020541 -0.030077 -0.0047575 0.0080668 
-0.45821 -2.1892 0.29678 -0.048656 -0.031064 -0.011827 -0.05589 -0.096336 
0.45462 -1.1394 0.11444 -0.052109 -0.011992 -0.015609 -0.017582 -0.12873 
0.66079 0.42486 -0.11196 0.04358 0.037004 0.030756 0.018096 0.058049 
-0.10258 1.2769 -0.23461 0.082053 0.077121 0.080573 0.077943 0.2269 
-0.78391 1.2843 -0.17427 0.082053 0.088465 0.090767 0.11148 0.28494 
-0.85231 1.0613 -0.082525 0.095864 0.058871 0.082546 0.11378 0.21013 
-0.41563 0.84937 -0.051944 -0.0064016 0.029934 0.070051 0.047526 0.040128 
0.37635 0.5457 0.037497 -0.075784 -0.028762 -0.00081153 -0.033859 -0.1552 
1.585 0.064954 0.12858 -0.13875 -0.049314 -0.048327 -0.092719 -0.31369 
2.0411 -0.5174 0.1835 -0.080552 -0.025802 -0.038462 -0.046354 -0.23576 
1.2433 -0.26667 0.073668 0.062981 0.063474 -0.008539 0.013821 0.011355 
0.2223 0.47615 -0.0047575 0.099152 0.084026 0.064461 0.059364 0.18383 
-0.032215 0.63317 -0.046354 0.12053 0.12365 0.087479 0.078107 0.24071 
0.052623 -0.096665 0.028454 0.098659 0.03092 0.056569 0.077449 0.13006 
0.06035 -0.92317 0.084026 0.076134 0.0083956 0.046046 0.055582 0.074326 
-0.12149 -1.1042 0.02681 0.13417 0.022535 0.014315 0.053116 0.048513 
-0.5026 -0.77684 -0.035338 0.16015 0.049006 0.053938 0.06594 0.071695 
-0.7877 -0.21817 0.031085 0.16886 0.059857 0.061008 0.084848 0.086985 
-1.4416 -0.065919 0.24943 0.14946 0.087808 0.038155 0.05476 0.086821 
-1.8168 -0.30892 0.38507 0.034866 0.031907 0.0080668 0.020727 0.089123 
-1.6091 -0.29725 0.28428 -0.016431 -0.008539 0.012342 0.0065871 0.073339 
-0.99025 0.30253 0.09274 -0.081374 -0.040764 -0.029091 0.005765 0.1008 
0.13993 0.94835 -0.032379 -0.087293 -0.020048 -0.0044286 -0.015444 0.061501 
1.5404 1.1889 -0.11738 -0.036489 -0.003771 -0.0004827 0.018754 -0.031557 
2.1136 1.2454 -0.13892 -0.073482 0.0031344 0.010697 -0.0070593 -0.089431 
1.8428 1.0684 -0.072167 -0.078579 -0.011827 -0.01117 0.0072447 -0.12675 
1.326 0.93865 -0.028762 -0.060987 0.0098754 0.01974 0.031249 -0.13727 
0.7333 0.74004 -0.040764 0.0083956 0.037168 0.079587 0.090931 -0.14517 
0.031085 0.32785 -0.10209 0.11642 0.067585 0.073175 0.098823 -0.035832 
-0.53516 -0.47794 -0.10341 0.11033 0.036017 0.040128 0.050486 0.047033 
-0.30662 -1.6989 0.047526 0.060515 0.010697 -0.0034422 -0.032215 0.0051074 
-0.1547 -2.6436 0.21523 -0.026789 -0.01232 -0.045368 -0.056219 -0.06707 
-0.66997 -2.0996 0.25485 -0.059836 -0.0077169 -0.037805 -0.048985 -0.060165 
-1.4935 -0.59632 0.19533 0.00033937 0.0028056 0.0013258 -0.0027845 0.034866 
-1.4047 0.49144 0.087314 0.024673 0.042923 0.025659 0.053116 0.15883 
-0.25845 1.0358 -0.038627 0.098166 0.077943 0.05624 0.097344 0.21408 
0.9204 1.3015 -0.069208 0.14881 0.084848 0.067749 0.089945 0.1008 
1.5468 1.4245 0.0036276 0.067913 0.058542 0.042923 0.013164 -0.10193 
1.5698 1.3974 0.042265 0.055089 0.042594 0.01826 -0.0064016 -0.14846 
0.92303 1.1407 0.015959 0.032893 0.035031 0.033387 0.060515 -0.0032777 
0.012999 0.54422 -0.12281 0.04917 0.016452 0.047362 0.071202 0.15999 
-0.77471 -0.10045 -0.17509 0.063145 0.018754 0.0083956 0.052952 0.20569 
-0.9993 -0.48386 -0.1695 0.054596 0.033058 0.014808 0.048184 0.15472 
-0.76912 -0.54749 -0.12445 0.13483 0.059364 0.063968 0.075805 0.11724 
-0.37863 -0.53581 -0.083347 0.11905 0.099152 0.072188 0.11822 0.08419 
0.14979 -0.34 -0.070523 0.090109 0.083697 0.063145 0.080244 0.061995 
0.53814 0.067256 -0.12938 0.075476 0.082546 0.03799 0.03651 0.020069 
0.60982 0.56231 -0.12166 0.032236 0.038483 0.0098754 -0.0021268 -0.045861 
0.3877 0.83606 0.0080668 0.028783 0.015137 -0.035174 -0.023336 -0.08532 
0.20388 0.7573 0.24186 -0.085649 -0.02646 -0.047505 -0.05737 -0.16457 
0.051308 0.55869 0.45346 -0.13349 -0.059343 -0.060823 -0.031228 -0.1621 
-0.21915 0.65964 0.41927 -0.13382 -0.034845 -0.047341 -0.017911 -0.031064 
-0.55028 0.64698 0.093891 -0.06 0.025495 -0.023172 0.024015 0.11658 
-0.3737 -0.013636 -0.18742 0.076627 0.057391 0.045882 0.059693 0.18695 
0.01563 -0.94471 -0.26897 0.13039 0.070051 0.032564 0.060515 0.13894 
0.30467 -1.5953 -0.21603 0.11115 0.066105 0.046375 0.062159 0.15275 
0.10063 -1.4899 -0.10489 0.099645 0.094877 0.034373 0.082875 0.1738 
-0.13514 -0.95901 -0.045039 0.045718 0.048348 0.046704 0.064461 0.1539 
0.11757 -0.70121 -0.025145 0.020562 0.05772 0.047526 0.043909 0.15324 
0.56033 -0.45032 -0.10439 0.039634 0.045224 0.041936 0.057555 0.061666 
0.80383 0.38211 -0.093212 0.0026412 0.053281 0.031578 0.0069159 -0.060329 
0.92517 1.1185 0.021384 0.031742 0.00017495 0.0075736 -0.036325 -0.1746 
1.2297 1.1891 0.15851 -0.017417 -0.0090322 -0.023665 -0.048492 -0.26815 
1.0319 0.88061 0.18054 -0.026789 0.0088889 0.019411 -0.019884 -0.27982 
0.028125 0.69811 0.21868 -0.023665 0.018918 0.028125 0.0028056 -0.13481 
-1.2558 -0.088608 0.28494 -0.03205 0.027303 0.02829 0.023357 0.095699 
-1.761 -1.4139 0.26422 0.0085601 0.028454 0.039141 0.032893 0.20865 
-1.3235 -1.5491 0.10441 0.012342 0.034866 0.053938 0.062652 0.18925 
-0.71174 -0.5368 0.0014903 0.025166 0.030756 0.041772 0.057227 0.16821 
-0.38094 0.53912 0.027961 0.01826 0.015465 0.02829 0.024179 0.17265 
-0.10456 1.0327 0.035853 -0.0027845 0.037497 0.031414 0.039963 0.16492 
0.18695 0.85579 -0.049149 0.079916 0.035524 0.023028 0.062981 0.10063 
0.33476 0.67378 -0.093212 0.067913 0.054267 0.036675 0.050321 0.05213 
0.31634 0.56099 -0.060987 0.042758 0.037004 0.034373 0.018918 -0.029584 
0.25239 0.33788 -0.01676 0.026317 0.0080668 0.0092177 0.0044497 -0.024323 
0.23825 -0.0075525 0.025001 -0.024487 0.00017495 -0.02087 0.013328 -0.01676 
0.19944 -0.15076 0.034209 0.005765 0.0065871 0.014808 0.00297 -0.040271 
-0.052437 0.16327 0.01267 -0.0067304 0.0092177 0.018096 0.012342 0.0098754 
-0.30136 0.46316 0.068571 -0.032872 0.0044497 0.016452 0.01826 0.042758 
-0.32175 0.15176 0.19731 -0.030735 0.009711 0.044402 0.06594 0.064954 
-0.1062 -0.63857 0.25091 -0.01939 0.037497 0.051308 0.048019 0.024673 
-0.044217 -1.3533 0.2149 0.041936 0.03947 0.042429 0.042758 0.030427 
-0.11294 -1.4278 0.1391 0.040785 0.051472 0.044731 0.049664 0.056898 
0.019411 -0.98548 0.08419 0.054267 0.055911 0.066598 0.054103 0.052787 
0.16821 -0.040435 0.054596 0.074819 0.041936 0.044402 0.058213 0.069886 
0.075476 0.80761 0.05772 0.024179 0.025001 0.031742 0.040456 0.093069 
-0.16588 1.0319 0.071695 -0.0077169 0.025824 0.028947 0.030427 0.11263 
-1.0789 0.78936 0.0039565 -0.0070593 0.01152 0.016288 0.042758 0.14683 
-1.7117 0.6404 -0.066248 0.0019835 -0.0078813 -0.013636 0.010862 0.12135 
-1.3411 0.63975 0.00050378 0.06183 0.012342 0.016452 0.012013 0.073339 
-0.38061 0.33278 0.026974 0.021056 0.0060938 0.011026 -0.010183 -0.05885 
0.97647 -0.56771 0.16541 -0.051615 0.0070803 -0.013965 -0.050464 -0.27538 
2.3391 -1.2892 0.1853 -0.045696 -0.058685 -0.053588 -0.10916 -0.4666 
3.1492 -0.81006 0.057884 -0.016924 0.020562 -0.024158 -0.083347 -0.52365 
2.7763 0.37323 -0.062138 0.072517 0.026646 0.0087245 -0.036818 -0.24858 
0.80087 1.2308 -0.044874 0.093233 0.07597 -0.0014692 0.036346 0.12398 
-1.2556 1.219 0.0042853 0.093069 0.087643 0.096357 0.12628 0.37816 
-1.7586 0.61443 0.079094 0.082711 0.076627 0.087808 0.12349 0.34807 
-1.1446 0.077285 0.097344 0.057062 0.048677 0.049992 0.1248 0.21293 
-0.59714 -0.069701 0.00066819 0.076627 0.035688 0.024344 0.086985 0.16969 
-0.30942 -0.069536 -0.14139 0.058871 0.045389 0.034537 0.06742 0.17478 
0.050814 -0.085649 -0.18331 0.095535 0.061666 0.033715 0.058377 0.20701 
0.12579 -0.13563 -0.11903 0.12398 0.058213 0.029112 0.061337 0.13795 
-0.26913 -0.053917 0.046868 0.086328 0.038648 0.023357 0.031907 0.083204 
-0.64581 0.16607 0.2126 0.079751 0.01152 0.0079024 0.019576 0.010204 
-0.39327 0.31059 0.20964 0.0088889 0.0021479 -0.021363 -0.024158 -0.085978 
0.42847 0.2001 0.11231 -0.011992 -0.033201 -0.052273 -0.042901 -0.23954 
0.97252 0.47303 0.063803 -0.01117 -0.042573 -0.057041 -0.090581 -0.35562 
0.16245 1.2267 0.064461 -0.0059084 -0.0082102 -0.0083746 -0.056548 -0.17986 
-0.3982 1.5756 0.0085601 0.10376 0.04506 0.041936 0.051636 0.11806 
0.09981 1.0559 0.038812 0.11872 0.075476 0.075476 0.12776 0.27853 
0.95953 0.12595 0.14108 0.06479 0.039141 0.035853 0.08304 0.20832 
1.1683 -1.0417 0.19303 0.022864 0.023851 0.0075736 0.044238 0.093726 
0.95361 -2.7092 0.062488 -0.0138 0.012835 0.010204 0.021713 0.0324 
0.78821 -3.5895 -0.19942 0.063639 0.061501 0.040292 0.073175 0.025166 
0.57382 -2.4491 -0.4569 0.1396 0.11839 0.069722 0.09126 0.0059294 
0.19418 -0.40182 -0.53631 0.18267 0.10573 0.08863 0.095371 -0.021034 
-0.24316 1.0422 -0.40741 0.16442 0.068571 0.027796 0.03651 -0.072167 
-0.49257 1.3191 -0.08532 0.0047785 -0.0083746 -0.051287 -0.066577 -0.053588 
-0.63463 1.0097 0.24663 -0.12166 -0.071345 -0.078744 -0.10258 -0.044217 
-0.49126 0.89163 0.41302 -0.13201 -0.055726 -0.074304 -0.10982 -0.02235 
-0.06148 0.76092 0.4048 -0.10423 -0.025967 -0.0503 -0.049642 -0.1016 
0.25419 0.46514 0.26521 0.031907 0.032564 -0.0054151 0.024344 -0.096829 
0.16607 0.19484 0.13993 0.061172 0.031578 0.043745 0.056898 0.020562 
-0.1524 -0.060987 0.080573 0.076792 0.056569 0.028947 0.093233 0.1733 
-0.57905 -0.23921 0.064461 0.087972 0.046704 0.054103 0.09126 0.26587 
-0.86069 -0.44769 0.082053 0.051965 0.065447 0.058706 0.076792 0.23512 
-0.79296 -0.59139 0.0064227 0.082217 0.066105 0.062488 0.072188 0.19451 
-0.52332 -0.56787 -0.084991 0.090109 0.08008 0.054596 0.067749 0.13713 
-0.18331 -0.33506 -0.13464 0.08304 0.062817 0.057062 0.095042 -0.0078813 
0.51167 -0.12511 -0.083512 0.047691 0.01974 0.024179 -0.012978 -0.13004 
1.5935 -0.18052 0.0019835 -0.042901 0.026974 -0.041093 -0.066741 -0.26881 
1.8906 -0.21603 0.024015 -0.023829 -0.023665 -0.028926 -0.05589 -0.19318 
1.2436 -0.0047575 -0.0022913 -0.02498 -0.039942 0.026974 0.020233 -0.049971 
0.43719 0.027139 -0.0026201 0.0069159 0.022206 0.035195 0.028783 0.056076 
-0.31139 -0.31468 -0.029091 0.044402 0.043251 0.026152 0.042265 0.14683 
-0.72275 -0.42549 -0.042901 -0.0078813 0.033222 0.043416 0.042265 0.14338 
-0.83735 0.13993 -0.075784 0.015465 0.030592 0.037661 0.066598 0.14206 
-0.72949 0.96611 -0.10258 0.020891 0.029112 0.025659 0.050157 0.12102 
-0.46298 1.0883 -0.075291 0.077614 0.058377 0.048677 0.062159 0.11066 
-0.29445 0.8765 -0.04471 0.096686 0.060844 0.077121 0.054432 0.096521 
-0.34115 0.87502 -0.020377 0.098494 0.093398 0.068571 0.054267 0.061995 
-0.32043 0.81912 0.005765 0.090603 0.069886 0.047033 0.043745 0.064296 
-0.13053 0.57102 0.073832 0.075148 0.038155 0.055747 0.051636 0.086821 
-0.3058 0.19188 0.15176 0.033551 0.03651 0.048348 0.060022 0.13647 
-0.69612 -0.48731 0.21868 0.016945 -0.0052507 0.044567 0.052294 0.15653 
-0.61588 -0.97299 0.25107 -0.073154 -0.049478 0.011848 -0.0059084 0.052787 
0.11362 -1.2801 0.34002 -0.15322 -0.084498 -0.032872 -0.060494 -0.1205 
0.90643 -1.9466 0.44212 -0.19581 -0.10472 -0.082032 -0.13284 -0.28048 
1.2126 -2.1328 0.42272 -0.24776 -0.11311 -0.10538 -0.1547 -0.34756 
1.375 -1.3291 0.23134 -0.17098 -0.10998 -0.053424 -0.14188 -0.34608 
1.1581 0.29283 0.0421 -0.080881 -0.029748 -0.0096899 -0.055068 -0.13514 
0.54241 1.4362 -0.089266 0.028619 0.042429 0.051143 0.04506 0.10655 
-0.021856 1.6964 -0.19038 0.1197 0.078272 0.1128 0.11839 0.18761 
-0.32224 1.5416 -0.29824 0.16853 0.11839 0.10869 0.13812 0.22674 
-0.2208 1.312 -0.2961 0.21457 0.12973 0.10343 0.15472 0.24795 
-0.3007 1.0845 -0.20781 0.17807 0.12595 0.10326 0.14519 0.25847 
-0.59615 0.89344 -0.058521 0.1248 0.067091 0.074654 0.093398 0.22953 
-0.86628 0.72146 0.031249 0.097015 0.043745 0.029769 0.043416 0.13697 
-0.93337 0.40282 0.06594 0.033715 0.026646 0.01004 -0.0011404 0.08008 
-0.80397 -0.056219 0.097672 0.039305 0.029276 0.019576 0.0085601 -0.0016336 
-0.3617 -0.39672 0.10211 0.017932 0.014972 0.005765 0.0093821 -0.023007 
-0.10637 -0.43207 0.083862 0.02533 0.049664 0.04506 0.024344 0.012835 
0.0227 -0.33474 0.053445 0.070051 0.050486 0.069064 0.045389 0.088465 
0.009711 -0.18479 0.060022 0.020069 0.03947 0.036839 0.047033 0.089123 
-0.15618 -0.0965 0.092082 0.009711 0.022864 0.021056 0.026646 0.039141 
-0.026624 -0.062302 0.11066 -0.0029489 0.025166 0.031907 0.029112 0.040292 
0.76075 -0.11409 0.12381 0.005765 0.025659 0.029112 0.023357 0.048019 
0.80663 -0.024487 0.10458 0.019411 0.014808 0.020069 0.035195 0.014315 
0.66145 0.39345 0.066598 -0.009361 0.0095465 -0.0068948 -0.014622 -0.03764 
1.1167 0.62577 0.080409 -0.029091 -0.01232 -0.017911 -0.024158 -0.10916 
1.4385 0.67082 0.11214 -0.042244 -0.016924 -0.024652 -0.036654 -0.2351 
0.80942 0.48306 0.10359 -0.00015387 -0.050793 -0.011005 -0.057041 -0.24645 
-0.30333 -0.079566 0.1179 0.017603 -0.004593 0.004943 -0.021199 -0.15684 
-0.33687 -0.74133 0.038155 0.021878 0.012177 0.01711 0.0072447 -0.026624 
-0.40987 -1.1361 -0.066084 0.062488 0.047033 0.031907 0.044731 0.1031 
-0.91298 -0.87516 -0.15405 0.098001 0.09274 0.026317 0.074654 0.21704 
-1.0575 -0.56705 -0.12067 0.094548 0.075641 0.044567 0.062488 0.22 
-0.56048 -0.45147 -0.051944 0.13861 0.074326 0.061172 0.095864 0.23397 
-0.13366 -0.18068 -0.0021268 0.10951 0.068407 0.060515 0.10556 0.21046 
-0.099131 0.42387 0.05065 0.089945 0.062323 0.077614 0.11099 0.1738 
-0.19778 1.0488 0.026974 0.051636 0.028125 0.026974 0.049006 0.059364 
-0.23625 1.1713 0.068078 -0.019226 0.0019835 -0.025802 -0.027447 -0.14155 
0.16886 0.89475 0.071695 -0.0060728 0.0090533 -0.030406 -0.07266 -0.24431 
0.34364 0.8058 0.0034632 -0.014458 0.024179 -0.024487 -0.026296 -0.15026 
0.092082 0.57036 -0.065919 0.0067515 0.0085601 -0.026296 -0.0075525 -0.045039 
-0.021528 0.15127 0.01152 0.04358 0.016123 -0.0026201 0.017603 0.0087245 
0.34462 -0.32931 0.15883 -0.0073881 -0.0031133 -0.01528 0.0083956 -0.067564 
0.99357 -0.27522 0.1756 0.0079024 0.0088889 -0.011005 0.0092177 -0.066906 
1.0263 0.51397 0.15883 0.0023123 0.024015 0.0069159 0.035853 -0.029913 
0.61969 0.94539 0.070544 0.022371 0.072024 0.063145 0.083533 0.090109 
0.093233 0.52137 -0.079237 0.10458 0.081724 0.069229 0.11707 0.19698 
-0.69546 0.21062 -0.21915 0.13056 0.079422 0.069229 0.13056 0.24334 
-1.1875 0.35975 -0.31649 0.15292 0.065118 0.083368 0.11017 0.24236 
-1.0971 0.32374 -0.27867 0.13203 0.066269 0.051472 0.077121 0.15555 
-0.68461 -0.23576 -0.13991 0.11263 0.054432 0.01267 0.062652 0.051308 
-0.24299 -1.0817 0.0051074 0.068407 0.03092 -0.006566 0.0082312 -0.05178 
0.30204 -1.5006 0.13187 -0.037805 0.022206 -0.025638 -0.023007 -0.12626 
0.87042 -1.3952 0.27787 -0.094199 -0.034516 -0.055726 -0.051122 -0.16769 
1.117 -1.6362 0.37224 -0.14878 -0.041093 -0.076935 -0.023501 -0.14813 
1.0634 -1.9353 0.40365 -0.13497 -0.049149 -0.031886 -0.028762 -0.15635 
0.66227 -1.2178 0.24959 -0.043395 0.0075736 -0.018404 -0.00064712 -0.098473 
0.085999 0.29776 0.050486 0.0044497 0.032236 0.012342 0.03799 0.033715 
-0.25401 1.3157 -0.084498 0.076299 0.055418 0.054432 0.096028 0.12414 
-0.19515 1.3668 -0.12231 0.074983 0.069229 0.03799 0.077943 0.11592 
-0.36022 1.1728 -0.06148 0.053281 0.045224 0.021056 0.046211 0.085341 
-0.99864 1.1351 0.036182 0.040621 0.028125 0.02122 0.0098754 0.02681 
-1.1948 0.96611 0.021384 0.028619 0.013164 0.020069 0.025824 0.056898 
-0.84244 0.47352 -0.060494 0.063639 0.051801 0.029769 0.069886 0.093726 
-0.42401 0.056898 -0.096994 0.10063 0.059693 0.03651 0.090767 0.096193 
0.050814 -0.26683 0.0052718 0.01267 0.021713 0.0080668 0.04917 0.082053 
1.0001 -0.66389 0.083862 0.0069159 0.014643 0.00050378 0.055911 -0.011334 
2.0269 -1.0221 0.12661 -0.008539 0.027468 0.0421 0.0023123 0.011026 
1.9593 -1.0692 0.10754 0.027796 0.049006 0.056569 0.05065 0.077121 
0.97334 -0.78095 0.075148 0.062159 0.020069 0.026317 0.073504 0.1322 
-0.32783 -0.34197 0.064296 0.039799 0.044567 0.038977 0.090274 0.08715 
-1.3358 0.18103 0.033387 0.055747 0.023522 0.047691 0.10524 0.10047 
-1.5036 0.47944 0.0592 0.021384 0.038319 0.034702 0.11066 0.15851 
-0.90163 0.30237 -0.047176 0.028619 0.045389 0.0069159 0.093562 0.16525 
0.090274 0.065283 -0.099131 0.039963 0.0080668 0.0023123 0.065612 0.11115 
0.82159 -0.23444 -0.071345 -0.0091966 -0.020377 -0.00031829 -0.023336 -0.05326 
0.89146 -0.54025 0.061337 -0.067399 -0.055726 -0.061973 -0.14007 -0.22869 
0.35794 -0.3714 0.18284 -0.095843 -0.043888 -0.069536 -0.21981 -0.22047 
-0.17641 0.11428 0.22559 -0.042408 -0.00015387 -0.020706 -0.2374 -0.1233 
-0.45805 0.42946 0.1904 0.038319 0.048019 0.0024767 -0.23231 0.017274 
-0.61407 0.40562 0.044567 0.06594 0.079094 0.025659 -0.17838 0.046211 
-0.55768 0.26669 -0.15668 0.14272 0.067585 0.062981 -0.024487 0.098166 
-0.2762 0.02829 -0.13432 0.11346 0.060515 0.066105 0.086492 0.13319 
0.27557 -0.31533 0.0051074 0.076134 0.04917 0.066598 0.17544 0.13582 
0.76486 -0.39787 0.083533 0.073504 0.034044 0.065447 0.21145 0.12908 
0.62955 -0.08121 -0.030899 0.049006 0.054596 0.066763 0.22328 0.12053 
-0.10143 0.2828 -0.17493 0.070708 0.061666 0.051801 0.16064 0.19205 
-0.86037 0.56609 -0.17427 0.089616 0.073832 0.069393 0.12036 0.25567 
-1.1379 0.88209 -0.093048 0.076792 0.038483 0.083533 0.08863 0.2731 
-0.81548 1.1133 -0.003771 0.095206 0.038319 0.082053 0.088136 0.20487 
-0.36071 1.1733 0.034373 0.049006 0.030098 0.030756 0.0092177 0.013328 
1.2025 0.97926 0.063474 0.010204 0.01267 -0.0034422 -0.077757 -0.21389 
3.2446 0.55392 0.038483 -0.0019624 -0.020212 -0.042573 -0.10784 -0.35726 
3.4381 0.28658 -0.0098543 -0.015609 -0.018733 -0.034188 -0.099295 -0.29199 
1.8469 0.25781 0.015465 -0.029584 -0.042573 -0.022843 -0.10324 -0.13612 
0.10902 0.23282 0.11954 -0.05326 -0.027611 -0.0047575 -0.1062 -0.047998 
-0.89341 0.021878 0.16344 -0.046025 -0.00015387 -0.0013048 -0.067235 0.0026412 
-1.4227 -0.18084 0.15028 0.013821 0.01711 0.012342 -0.02087 -0.03616 
-1.6694 -0.68395 0.10228 -0.0064016 0.025659 0.034209 -0.024323 -0.084827 
-1.7145 -1.8817 0.19385 -0.018568 0.011848 0.013328 -0.043066 -0.16046 
-1.4259 -2.7199 0.19254 -0.023007 0.0093821 0.017932 -0.027282 -0.025145 
-0.99173 -1.7857 0.072517 0.0047785 0.032893 0.048677 0.038977 0.1904 
-0.17986 -0.074798 -0.0080457 0.06331 0.017767 0.070051 0.065776 0.21046 
0.68595 0.94687 -0.014129 0.050157 0.024015 0.062817 0.058706 0.14996 
1.1475 1.3129 -0.0080457 0.036182 0.032564 0.068736 0.092904 0.073997 
0.87732 1.5011 -0.05885 0.085012 0.034373 0.053116 0.070051 0.11083 
0.31585 1.7219 -0.16786 0.061501 0.029441 0.034702 0.11428 0.13236 
-0.053588 1.756 -0.12297 0.09685 0.0592 0.034373 0.040128 0.11148 
-0.12626 1.5524 -0.017911 0.032236 0.052623 0.029934 0.017603 0.062159 
0.027961 0.93421 0.091589 -0.024487 0.0054362 -0.0050863 -0.0050863 -0.067564 
0.17906 0.26883 0.14272 0.026481 0.0024767 -0.025967 0.035853 -0.17723 
0.16245 -0.17279 0.063968 0.039141 0.022206 0.053774 0.083862 -0.19827 
0.11592 -0.63643 0.042923 0.077614 0.03947 0.054267 0.080244 -0.06855 
0.062981 -1.141 0.09126 0.012177 0.019576 0.02533 0.081231 0.044238 
-0.10982 -1.5086 0.15423 -0.0027845 0.020069 0.017603 0.046375 0.066763 
-0.25401 -1.6255 0.096193 0.015794 -0.008539 0.012835 0.030098 0.045882 
-0.29922 -1.0777 0.0028056 0.067749 0.031085 0.023522 0.029441 0.0056006 
-0.21981 -0.19942 0.011684 0.081231 0.033715 0.038977 0.054596 -0.0059084 
-0.14385 0.38869 0.13976 0.01152 0.024179 0.053281 0.047855 -0.0026201 
-0.077757 0.39723 0.1756 -0.038462 0.026974 0.024673 0.034537 -0.022514 
0.25025 0.293 0.082382 -0.019884 0.02122 0.0044497 0.053445 -0.030406 
0.64912 0.32062 -0.025309 -0.017582 0.030263 0.035688 0.054267 -0.031721 
0.67723 0.26406 -0.10505 0.054432 0.040456 0.04654 0.063639 0.027303 
0.20602 0.20931 -0.15585 0.085999 0.077121 0.053116 0.079258 0.09981 
-0.50227 0.40874 -0.25138 0.14108 0.08304 0.053281 0.13828 0.16804 
-0.96132 0.54981 -0.32619 0.18794 0.096521 0.068571 0.12151 0.19237 
-0.9378 0.38129 -0.21702 0.16426 0.084684 0.049992 0.12217 0.18728 
-0.72341 -0.15585 -0.058028 0.12792 0.094384 0.046211 0.12792 0.20306 
-0.3811 -0.83324 0.1835 0.048348 0.05624 0.048348 0.086492 0.12792 
0.073668 -0.98302 0.3831 -0.060987 -0.013143 -0.0098543 0.027961 0.024015 
0.34528 -0.49997 0.475 -0.10982 -0.065097 -0.056712 -0.024816 -0.12659 
0.39937 -0.26026 0.48733 -0.17657 -0.065262 -0.047834 -0.061151 -0.28492 
0.39839 0.065612 0.43932 -0.16144 -0.061316 -0.058685 -0.060165 -0.30169 
0.18991 0.59026 0.23118 -0.091239 -0.033694 -0.044217 -0.028926 -0.12198 
-0.16753 1.1394 -0.026624 -0.032543 0.013986 0.011684 0.040128 0.091918 
-0.44802 1.3717 -0.15372 0.069229 0.075641 0.066269 0.051472 0.18218 
0.11987 1.0024 -0.21077 0.089123 0.058213 0.038648 0.077285 0.159 
0.93421 0.29744 -0.24546 0.11872 0.074326 0.04654 0.075641 0.16722 
0.85217 -0.25072 -0.24398 0.15275 0.075312 0.071859 0.08008 0.15571 
0.22559 -0.24891 -0.145 0.10491 0.082053 0.051308 0.070051 0.11313 
-0.21488 -0.049149 0.0039565 0.047033 0.040128 0.024015 0.046868 0.009711 
-0.39705 -0.42467 0.06183 -0.018404 0.023851 0.018425 0.018754 -0.014787 
-0.30218 -1.4687 0.04506 -0.0026201 0.037826 0.014643 -0.0011404 0.0036276 
0.15801 -1.8519 -0.10423 0.099645 0.064132 0.024344 0.0087245 0.03388 
0.27738 -1.0101 -0.17427 0.11263 0.057555 0.025495 0.051636 0.10869 
-0.12001 0.2759 -0.18348 0.14239 0.059857 0.047526 0.049828 0.1539 
-0.42451 1.2596 -0.051451 0.095864 0.039141 0.036182 0.054103 0.18185 
-0.34822 1.6749 0.11954 0.07038 0.027468 0.018754 0.038977 0.15127 
-0.5613 1.4316 0.1544 0.10458 0.049335 0.019576 0.070215 0.16673 
-1.0942 0.7499 0.11494 0.069393 0.051636 0.018096 0.040292 0.20701 
-1.0365 0.23742 0.084519 0.041278 0.011684 0.03799 0.02829 0.15768 
-0.31303 0.075805 0.077943 -0.011498 0.014643 0.032729 0.0011614 0.029112 
0.82685 -0.32783 0.09126 -0.098802 -0.022185 -0.011005 -0.074798 -0.21258 
1.8849 -0.81647 0.1465 -0.099953 -0.047669 -0.062302 -0.14846 -0.44078 
3.1149 -1.0486 0.10145 -0.093376 -0.038133 -0.063453 -0.14911 -0.49159 
3.2096 -0.81778 0.0052718 -0.028597 0.0036276 -0.0082102 -0.084169 -0.25713 
1.281 -0.0060728 -0.057041 0.055582 0.0592 0.039634 0.0023123 0.080902 
-0.77849 0.64073 -0.038298 0.036017 0.033387 0.049828 0.022371 0.19484 
-1.4698 0.58878 0.10704 0.045389 -0.001798 0.035031 -0.034516 0.1391 
-1.2652 0.071037 0.19353 -0.049642 -0.02498 -0.0075525 -0.026953 0.090603 
-0.9674 -0.11048 0.19632 -0.064275 -0.010019 -0.03501 -0.00081153 0.14321 
-0.86168 0.26948 0.1659 -0.022021 0.0039565 0.037332 0.030592 0.22345 
-0.78474 0.71949 0.19879 -0.011827 0.031742 0.049664 0.061666 0.23068 
-0.50014 0.78065 0.17971 0.030427 0.057555 0.063803 0.079258 0.19928 
0.054925 0.18909 0.056733 0.04917 0.05772 0.089616 0.067913 0.14223 
0.44393 -0.49389 -0.10258 0.097837 0.070544 0.092247 0.063639 0.086328 
0.56559 -0.72209 -0.16128 0.1368 0.069886 0.066927 0.062159 0.067749 
0.94687 -0.91216 -0.10571 0.08156 0.040456 0.018589 0.011191 -0.056877 
1.1182 -0.99157 0.00297 0.06479 0.026152 0.014972 -0.054082 -0.16046 
0.16541 -0.7433 0.039799 0.021713 0.023851 -0.0019624 -0.059672 -0.11705 
-0.74593 -0.40626 0.041443 0.022864 0.0031344 0.0011614 -0.041093 -0.029584 
-0.57429 -0.12166 -0.016102 0.040292 0.0064227 0.014643 -0.0059084 0.00099702 
-0.21175 0.62857 -0.067399 0.029605 0.025988 0.028125 -0.0088678 0.0044497 
-0.17624 1.1427 -0.076935 0.068078 0.030756 0.026317 -0.0060728 0.047691 
0.24959 0.83606 -0.081868 0.064625 0.04506 0.043909 0.034209 0.10819 
1.0799 0.2486 -0.053095 0.05213 0.049499 0.036017 0.066927 0.14354 
1.2196 0.40973 0.011684 0.055089 0.043251 0.047526 0.059364 0.10376 
0.61985 0.64205 0.13401 0.0026412 0.033715 0.022864 0.043909 -0.0021268 
0.3489 0.37405 0.31799 -0.06707 -0.026624 0.0037921 -0.015116 -0.19186 
0.34216 0.17791 0.40858 -0.12527 -0.063946 -0.04619 -0.058192 -0.26815 
-0.38636 0.11806 0.34742 -0.091075 -0.039778 -0.035503 -0.045039 -0.16703 
-0.99058 -0.14829 0.22213 0.024015 0.0024767 0.011355 0.0011614 -0.050958 
-1.0669 -0.34707 0.10803 0.025988 0.020562 0.026317 0.047691 0.076792 
-0.91133 -0.64531 0.11806 0.027139 0.045224 0.021384 0.039799 0.17265 
-0.41941 -0.62558 -0.020541 0.013492 0.027303 0.019247 0.049006 0.18037 
-0.070852 -0.46166 -0.0047575 0.017932 -0.01232 0.055911 0.070215 0.14124 
0.16656 -0.39442 0.024015 0.08419 0.030427 0.042265 0.09126 0.07597 
0.26357 -0.24102 0.01152 0.039634 0.025824 0.032564 0.052952 0.06035 
0.13335 -0.12248 -0.035174 0.063803 0.041772 0.054267 0.055089 0.042265 
0.12694 -0.2277 -0.051615 0.080409 0.038155 0.037168 0.049664 0.035195 
0.14535 0.065283 -0.066084 0.044238 0.03092 0.016452 0.065447 0.040456 
0.13499 0.95559 -0.10883 0.081889 0.039634 0.053774 0.071695 0.018589 
0.30303 1.568 -0.10193 0.072517 0.054596 0.060186 0.06479 0.010697 
0.18185 1.2073 -0.03353 0.03092 0.049992 0.045882 0.060844 0.0087245 
-0.16029 0.20635 -0.0088678 0.067256 0.04095 0.028125 0.066598 0.028125 
-0.42451 -0.44802 -0.0088678 0.068078 0.047855 0.028947 0.063639 0.071202 
-0.47728 -0.67655 -0.0055795 0.065118 0.068407 0.026317 0.064132 0.10474 
-0.5146 -0.60668 -0.021363 0.035688 0.057391 0.0093821 0.044731 0.11609 
-0.61079 -0.40642 0.024179 0.020233 0.021384 0.023851 0.045882 0.0080668 
-0.45657 -0.24612 0.12579 0.024179 0.0085601 -0.018733 -0.00081153 -0.08121 
-0.0034422 -0.074798 0.14913 -0.020541 -0.021363 -0.011992 -0.015773 -0.044217 
0.57957 -0.17493 0.05772 0.0060938 0.00099702 0.011191 0.0054362 -0.0031133 
0.82668 -0.2887 -0.011992 0.018918 0.01152 0.014808 0.031249 -0.053588 
1.1031 -0.13053 -0.001798 -0.0057439 0.0011614 -0.029584 -0.028104 -0.24562 
1.2586 -0.0031133 0.032729 0.01004 0.010204 -0.04471 -0.016266 -0.29133 
0.36041 -0.12116 0.014479 0.024837 0.039305 0.033058 0.024673 -0.12363 
-1.0753 0.035688 -0.11376 0.053281 0.084519 0.047855 0.097344 0.12414 
-1.8852 0.6358 -0.22935 0.12316 0.097179 0.087479 0.13401 0.34183 
-2.0788 1.2479 -0.22787 0.12431 0.077778 0.085999 0.13088 0.31486 
-1.6724 1.2963 -0.091404 0.085177 0.063639 0.027796 0.066434 0.17774 
-0.52151 0.74168 0.015794 0.0092177 0.049499 0.014643 0.040292 0.058049 
1.242 0.10277 0.037661 0.013821 0.038648 0.0095465 0.027632 0.077121 
1.8419 -0.20057 0.059364 0.012177 0.0072447 0.00050378 0.046375 0.13171 
1.0526 -0.21241 0.14404 -0.049149 -0.0077169 0.0026412 0.051472 0.16607 
0.48388 -0.081374 0.13861 -0.016266 -0.00015387 -0.0021268 0.030756 0.10951 
0.44837 0.3295 0.10951 -0.024487 0.01004 0.019083 0.016616 -0.033859 
0.55705 0.58697 0.15966 -0.022021 0.011191 -0.017746 -0.036983 -0.17295 
0.55869 0.26521 0.17363 -0.036654 -0.0047575 -0.03501 -0.047176 -0.2351 
0.15867 -0.58152 0.032893 -0.02087 0.012835 -0.010348 -0.045203 -0.13185 
-0.28015 -1.2464 -0.17295 0.071202 0.02681 0.00066819 -0.011663 0.035031 
-0.34181 -1.2729 -0.26124 0.11395 0.073832 0.033222 0.022206 0.084848 
-0.18907 -0.64202 -0.20567 0.13368 0.091096 0.052459 0.057884 0.095371 
-0.2933 0.50805 -0.17164 0.17297 0.12908 0.097672 0.10655 0.17758 
-0.22491 1.194 -0.18348 0.14075 0.12677 0.08863 0.12792 0.24269 
0.037497 0.88176 -0.090417 0.12447 0.11691 0.086821 0.15028 0.25518 
-0.3206 0.32193 -0.069208 0.054596 0.062652 0.067749 0.11494 0.2611 
-0.83899 0.43193 -0.067728 0.00297 0.0041209 0.017274 0.073175 0.18136 
-0.79098 1.2532 0.041772 0.035853 -0.0004827 -0.0091966 0.029605 0.010697 
-0.20666 1.9099 0.12924 -0.016924 0.0013258 1.0539e-005 -0.021856 -0.17706 
0.50246 1.4691 0.29069 -0.094199 -0.029913 -0.02498 -0.079895 -0.38143 
0.77407 -0.051451 0.50723 -0.13382 -0.0406 -0.060823 -0.12905 -0.47334 
0.97795 -1.9726 0.56658 -0.18117 -0.023007 -0.051451 -0.1524 -0.33211 
1.4771 -3.1937 0.3974 -0.079237 -0.026953 -0.031064 -0.077264 -0.12412 
1.2517 -2.9614 0.065612 -0.0082102 0.026481 0.012506 0.0060938 0.11691 
0.36402 -1.5613 -0.13185 0.074161 0.050157 0.027632 0.023851 0.24811 
-0.25417 0.21572 -0.2106 0.10639 0.043745 0.044238 0.020562 0.22641 
-0.19022 1.4566 -0.22211 0.098988 0.041278 0.024015 0.020069 0.13582 
0.11198 1.8967 -0.17279 0.13039 0.044896 0.038319 0.069393 0.00297 
0.18958 1.5033 -0.030242 0.049828 0.058542 0.062323 0.046046 -0.064111 
0.0085601 0.91711 0.11674 -0.01232 0.029112 0.019905 0.045224 -0.028433 
-0.12692 0.48536 0.23085 -0.047012 0.0028056 0.0034632 0.009711 0.0069159 
-0.084498 0.18432 0.33213 -0.066084 -0.009361 0.014643 0.027139 0.047362 
0.13845 -0.29955 0.32144 -0.061151 -0.028433 0.019411 0.02122 0.034866 
0.28083 -0.93813 0.25321 -0.041751 -0.0027845 0.034209 0.004943 0.034537 
0.10885 -1.5044 0.10589 0.051308 0.043909 0.0421 0.03388 0.03388 
-0.14615 -1.3548 -0.064604 0.14881 0.098166 0.052294 0.058049 0.091918 
-0.40757 -0.34361 -0.1575 0.12595 0.075312 0.050979 0.040128 0.098823 
-0.51411 0.43768 -0.092226 0.12497 0.057884 0.042923 0.013986 0.10113 
-0.37962 0.66194 0.037168 0.031085 0.018425 0.026481 0.020562 0.060679 
-0.1838 0.66802 0.14815 -0.012485 -0.001798 0.0051074 0.012506 0.0047785 
-0.026296 0.76848 0.10392 0.017603 0.0095465 0.00297 -0.0034422 -0.010676 
0.15555 0.89262 0.0032988 0.038155 0.036839 0.024015 0.039963 -0.016102 
0.81518 0.68907 -0.047505 0.061172 0.055254 0.044896 0.06594 0.051636 
0.8668 0.17347 -0.041422 0.083204 0.043251 0.057227 0.093562 0.16146 
-0.00097594 -0.19071 -0.021528 0.070708 0.044402 0.057227 0.098988 0.25239 
-0.98877 -0.22277 -0.016924 0.10507 0.063474 0.076299 0.10063 0.22887 
-1.1361 -0.42401 0.016945 0.059528 0.054596 0.055418 0.09981 0.036182 
-0.67951 -1.1195 0.16541 -0.0067304 0.0080668 0.010204 0.010533 -0.17443 
-0.12412 -1.8306 0.30911 -0.067564 -0.030735 -0.045203 -0.089595 -0.44095 
0.96512 -1.5532 0.30056 -0.11212 -0.042079 -0.070523 -0.10982 -0.55817 
1.7109 -0.18956 0.13697 -0.026131 -0.013636 -0.046683 -0.0098543 -0.33654 
1.1675 0.85842 -0.055068 0.03651 0.036346 0.062652 0.086657 0.061172 
-0.001798 0.90939 -0.18594 0.076134 0.065612 0.082711 0.11033 0.2953 
-0.68872 0.66523 -0.16605 0.079587 0.047855 0.043909 0.050979 0.24088 
-0.98006 0.58236 -0.052273 0.026646 0.0062583 -0.0098543 0.069393 0.17084 
-0.93698 0.4704 0.046375 0.02681 0.016781 0.024837 0.061501 0.19418 
-0.82995 0.65898 0.03092 0.0082312 0.02122 0.047526 0.12151 0.19155 
-0.55505 0.7675 -0.038791 0.032071 0.00066819 0.011848 0.097015 0.24499 
-0.21965 0.70831 -0.073647 0.029441 0.027468 0.031249 0.096686 0.20208 
0.31026 0.4288 -0.013636 0.02829 0.011848 0.016452 0.074326 0.030756 
0.62544 0.25666 0.022535 0.0689 0.047691 0.018096 0.045389 -0.092719 
0.53699 0.39099 -0.0098543 0.06594 0.052623 0.044402 -0.0059084 -0.11672 
0.15472 0.67805 -0.075455 0.076956 0.064132 0.034209 -0.087951 -0.080059 
-0.1376 0.62166 -0.1667 0.099316 0.059364 0.016452 -0.14763 -0.071838 
-0.11475 0.30763 -0.12412 0.053609 0.034537 0.010697 -0.20748 -0.0091966 
-0.15174 0.091096 -0.031228 0.051965 0.024673 0.014808 -0.14714 0.044402 
-0.22754 -0.14336 0.084519 0.026152 0.020727 0.017274 0.0019835 0.12612 
-0.16079 -0.82666 0.12266 -0.0088678 0.004943 0.0070803 0.11559 0.147 
-0.053424 -1.6139 0.1539 0.015959 -0.0032777 0.03536 0.16278 0.1151 
-0.035174 -1.7462 0.14963 -0.025802 0.0052718 0.01415 0.17741 0.047362 
-0.0040998 -1.1686 0.19862 0.0018191 0.013986 0.0079024 0.13828 -0.019719 
0.091589 -0.4199 0.21835 0.0044497 0.011026 0.023028 0.062488 -0.053753 
0.20553 0.37307 0.11839 0.0082312 0.020398 0.0098754 0.010533 -0.038627 
0.14223 1.0084 -0.049478 0.064132 0.036675 0.024344 -0.0044286 0.029276 
0.010204 1.2795 -0.22277 0.079587 0.060515 0.044731 0.033551 0.097015 
-0.1672 1.4372 -0.32619 0.11674 0.06594 0.062323 0.04506 0.11987 
-0.42187 1.5358 -0.35019 0.12233 0.083862 0.043416 0.019411 0.14371 
-0.33934 1.2241 -0.22096 0.056569 0.049992 0.039963 0.046704 0.13762 
-0.32635 0.77489 0.0065871 0.015301 0.0090533 0.026152 0.0065871 0.12431 
-0.47284 0.20997 0.19862 -0.087129 -0.049314 -0.020377 -0.037969 0.047855 
-0.33293 -0.75629 0.37339 -0.15109 -0.057863 -0.06 -0.10176 -0.10801 
0.46563 -1.8182 0.43719 -0.13777 -0.052602 -0.040106 -0.12494 -0.23444 
1.1417 -2.5308 0.39181 -0.11179 -0.035338 -0.048985 -0.11508 -0.27834 
0.7693 -2.0688 0.2486 -0.014622 0.011191 -0.01232 -0.064768 -0.10637 
0.59305 -0.9087 0.096028 0.0421 0.031578 0.032564 -0.0059084 0.053281 
0.81929 0.097837 -0.04619 0.10622 0.055418 0.077285 0.062323 0.14091 
0.70814 0.77703 -0.10521 0.1294 0.0689 0.081889 0.081724 0.16919 
0.38326 0.98633 -0.10982 0.09981 0.079587 0.081395 0.073668 0.159 
-0.035174 1.0046 -0.07266 0.097508 0.064296 0.080244 0.054267 0.10524 
-0.29807 0.98814 -0.057205 0.064461 0.061501 0.037826 0.051143 0.053938 
-0.4079 0.8594 -0.030735 0.04654 0.057884 0.010697 0.03947 0.01563 
-0.49685 0.59009 -0.020048 0.050979 0.029441 0.027632 0.0093821 0.0046141 
-0.54272 0.33032 -0.031064 0.027961 0.028125 0.034702 0.01826 0.0047785 
-0.51691 0.21161 -0.14566 0.037004 0.01004 0.055582 0.064954 0.077614 
-0.72127 0.29464 -0.018239 0.037004 0.027303 0.027139 0.065776 0.16722 
-0.9332 -0.10028 0.11165 0.0087245 0.0067515 0.0056006 0.075148 0.21819 
-0.65682 -1.1504 0.19221 0.0013258 0.017603 0.0088889 0.058706 0.244 
-0.98762 -1.6024 0.22904 -0.02646 0.031578 0.016616 0.10047 0.28034 
-0.88914 -0.86037 0.1881 -0.014622 0.023193 0.041114 0.065612 0.24828 
0.17692 0.11099 0.13467 -0.0068948 -0.0068948 0.016123 0.0088889 0.040128 
1.4076 0.51709 0.094055 -0.019884 -0.019226 -0.021199 0.0042853 -0.22376 
2.4396 0.28116 0.074819 0.00099702 -0.0013048 -0.0013048 -0.022021 -0.40741 
3.4329 -0.21685 0.068078 -0.008539 -0.013307 -0.022185 -0.036325 -0.50227 
3.5909 -0.5317 0.070873 -0.045368 0.015959 -0.018733 -0.040106 -0.44226 
1.8087 -0.42944 0.055254 -0.0087034 0.011355 0.0032988 -0.021856 -0.1866 
-0.43026 0.012342 0.01974 0.042923 0.038812 0.038319 0.029112 0.046868 
-1.8827 0.19172 -0.061151 0.11674 0.058871 0.047197 0.042594 0.2218 
-1.8176 0.0079024 -0.12445 0.13138 0.079587 0.062652 0.081067 0.29924 
-0.88717 0.061501 -0.11179 0.13187 0.090603 0.098659 0.10162 0.30451 
-0.35003 0.53436 -0.071674 0.13582 0.087643 0.086821 0.15768 0.2126 
-0.38521 0.91202 -0.011663 0.11609 0.089452 0.091918 0.15275 0.18892 
-0.49109 0.87815 -0.0032777 0.08978 0.047362 0.066105 0.077121 0.1026 
-0.51033 0.69384 0.020069 0.0072447 0.0075736 0.024179 0.017274 0.056404 
-0.33523 0.47517 0.08978 -0.054082 -0.042737 -0.024652 -0.012485 0.018425 
-0.0083746 0.15719 0.13401 -0.084334 -0.05178 -0.054246 -0.037476 -0.08384 
0.28067 0.05476 0.13861 -0.1062 -0.05326 -0.021692 -0.045039 -0.069865 
0.55507 0.012177 0.14552 -0.080552 -0.029748 -0.031228 -0.012649 -0.068879 
0.73724 -0.13136 0.15949 -0.050629 0.010369 -0.0047575 -0.0014692 -0.0080457 
0.63942 -0.28196 0.092904 0.009711 0.040621 0.058377 0.0062583 0.022371 
0.14749 0.047197 -0.030735 0.11477 0.054925 0.039141 0.055911 0.068571 
-0.34476 0.53238 -0.15437 0.11231 0.065776 0.046211 0.069886 0.10359 
-0.59813 0.65421 -0.19038 0.10392 0.042265 0.055418 0.033058 0.066763 
-0.54321 0.65389 -0.11787 0.071366 0.009711 0.033222 0.010204 0.041114 
-0.70434 0.60522 -0.0080457 0.033058 0.021549 0.010533 0.0072447 0.0421 
-0.82173 0.31667 0.091753 0.012013 0.038155 0.0059294 0.024179 0.032071 
0.35498 -0.47597 0.14453 -0.025967 0.0059294 -0.012156 -0.017088 -0.03616 
1.9894 -1.4838 0.19961 -0.022185 -0.0054151 -0.024487 -0.037969 -0.1233 
2.2699 -1.872 0.2052 -0.0021268 0.019905 -0.0027845 -0.026789 -0.13201 
0.99258 -1.4253 0.12036 0.038483 0.044402 0.054267 0.036839 -0.11179 
-0.38488 -0.60668 0.0067515 0.10737 0.06183 0.070708 0.059857 -0.064604 
-1.0641 0.024179 -0.10012 0.069558 0.069064 0.057062 0.061008 -0.0062372 
-1.0305 0.61492 -0.10669 0.048677 0.033387 0.051143 0.019576 0.068078 
-0.72736 1.2058 -0.088444 0.02122 0.0072447 0.0041209 0.0088889 0.086657 
-0.40099 1.5199 -0.065591 0.012177 -0.017253 -0.010019 -0.017746 0.089452 
0.0028056 1.2696 -0.065591 0.036839 -0.006566 0.0028056 0.0013258 0.12743 
0.30204 0.7213 -0.09239 0.030098 0.0059294 0.045224 0.0227 0.10343 
0.29431 0.019247 -0.082361 0.04095 0.0032988 -0.0064016 0.0092177 0.055418 
0.096686 -0.44358 0.0054362 0.064296 0.037661 -0.014293 0.016945 0.056569 
-0.23066 -0.37567 0.061995 0.029112 0.048348 0.039305 0.011026 0.094548 
-0.522 -0.060658 0.034373 0.06479 0.048184 0.023522 0.046375 0.15275 
-0.52957 0.009711 0.059364 0.053938 0.051965 0.041936 0.038319 0.085012 
-0.40724 -0.24677 0.072024 0.059364 0.043087 0.058049 0.035688 0.076463 
-0.30185 -0.50079 0.073339 0.03947 0.024015 0.028947 0.011684 0.052787 
-0.25319 -0.40954 0.066598 0.0047785 0.014808 0.021384 0.0082312 0.056076 
-0.16999 0.22197 -0.011827 0.032564 0.030592 0.0052718 0.03536 0.073175 
-0.043724 0.8132 -0.061645 0.086821 0.0421 0.046211 0.051636 0.080738 
-0.024323 0.93405 -0.047012 0.054103 0.039799 0.01826 0.036017 0.073832 
0.023028 0.26192 0.046704 0.055747 0.041936 -0.001798 0.031578 0.019411 
0.13088 -0.30103 0.090109 0.013328 0.019576 0.02829 0.023193 -0.023172 
0.18761 -0.47399 0.12332 0.023686 0.020727 0.041114 0.012177 -0.027447 
0.25485 -0.74133 0.20882 0.01415 0.014643 0.013657 0.0062583 -0.039942 
0.23858 -1.4394 0.3022 -0.02794 0.026646 0.024015 0.01826 -0.014622 
0.032564 -1.3671 0.12168 0.047526 0.046046 0.023851 0.0026412 -0.0067304 
-0.014129 -0.41941 -0.081868 0.066105 0.0421 0.022535 0.005765 0.020891 
0.13795 0.42272 -0.099131 0.072846 0.047855 0.049992 0.0088889 0.093233 
-0.023336 0.6312 -0.014458 0.051801 0.029112 0.04654 0.068407 0.089123 
-0.25039 0.52482 0.0013258 0.010369 0.03388 0.046868 0.048677 0.11247 
-0.32586 0.4533 -0.024652 0.05476 0.050979 0.023028 0.044073 0.084848 
-0.25549 0.6215 -0.097816 0.061337 0.070051 0.050157 0.056569 0.11313 
-0.0052507 0.60423 -0.15717 0.066763 0.066105 0.042594 0.068736 0.066598 
0.34347 0.34544 -0.16506 0.055747 0.023193 0.010533 0.029276 0.0082312 
0.50542 0.49473 -0.13399 0.0041209 -0.00097594 0.0069159 0.00099702 -0.03057 
0.19468 0.9934 -0.14402 0.029276 0.0052718 0.00050378 0.0054362 -0.03764 
-0.39097 1.251 -0.069536 0.018425 0.014808 0.011684 0.032893 0.043251 
-0.60865 0.96726 0.053774 0.020398 0.013986 0.035195 0.0062583 0.075641 
-0.19745 0.23858 0.19977 0.033715 0.044238 0.034373 0.020891 0.075476 
0.23216 -0.9674 0.34265 -0.0096899 0.025824 0.038155 0.031578 0.065118 
0.4801 -1.9498 0.35958 0.0085601 0.022206 0.029605 0.076956 0.084355 
0.69844 -1.6581 0.19188 0.074983 0.061008 0.086821 0.08978 0.1322 
0.64155 -0.62147 0.025166 0.11165 0.079422 0.070873 0.10195 0.11198 
0.30894 -0.0026201 0.063639 0.10836 0.036017 0.031907 0.060515 0.012835 
-0.26502 0.013986 0.21687 -0.017417 0.01267 0.012342 0.0047785 -0.1672 
-0.84524 0.08419 0.25633 -0.051944 -0.0022913 -0.025309 -0.063124 -0.29824 
-1.1305 0.26521 0.18613 -0.088773 -0.031392 -0.054246 -0.086142 -0.2938 
-1.0274 0.6552 0.15259 -0.088444 -0.070523 -0.065755 -0.08269 -0.26568 
-0.74199 0.9791 0.058706 -0.049478 -0.027611 -0.026296 -0.053588 -0.11804 
-0.062302 0.74859 -0.099953 0.0070803 0.039305 0.026481 0.049499 0.14782 
0.96825 0.099645 -0.20123 0.095371 0.088958 0.071859 0.14387 0.40989 
1.8031 -0.40527 -0.24464 0.15522 0.11559 0.12036 0.18317 0.45807 
1.4952 -0.69875 -0.19614 0.14864 0.10737 0.098001 0.14848 0.26242 
0.6598 -0.56787 -0.062138 0.12151 0.078765 0.050814 0.0592 0.047526 
0.13943 -0.25483 0.11017 0.023522 0.017932 0.027139 -0.027447 -0.15766 
0.38046 -0.06148 0.24186 -0.051944 -0.014129 -0.033859 -0.045368 -0.28196 
0.69499 0.1419 0.25814 -0.096007 -0.038133 -0.053588 -0.063453 -0.31681 
0.45083 0.49407 0.17034 -0.10702 -0.039778 -0.047998 -0.048492 -0.17049 
-0.27226 0.86286 0.079916 -0.039613 -0.018897 -0.0044286 0.0039565 0.0016547 
-0.84031 1.1642 0.00297 -0.025474 0.0079024 -0.011498 0.034866 0.047033 
-0.97792 1.1041 -0.049314 -0.036654 -0.0052507 0.0014903 0.046868 0.09274 
-0.81614 0.44935 0.0098754 -0.023829 -0.0087034 0.027303 0.032071 0.042594 
-0.38768 -0.40116 0.22049 -0.042079 -0.029748 0.0018191 0.029934 0.0075736 
0.11592 -0.91692 0.28872 -0.010019 0.013492 0.018589 0.047033 0.023357 
0.57661 -0.88223 0.1858 0.051636 0.050157 0.076299 0.07038 0.013821 
0.71834 -0.53779 0.026317 0.11773 0.093398 0.093398 0.055747 0.042758 
0.55721 -0.21882 -0.096172 0.17199 0.10392 0.066927 0.066598 0.062817 
0.26472 -0.084169 -0.15322 0.12628 0.086163 0.052952 0.062981 0.090767 
0.052623 -0.099624 -0.15635 0.10704 0.059857 0.047197 0.0421 0.071859 
0.070215 -0.17082 -0.088937 0.0324 0.029605 0.017767 0.0090533 -0.015773 
0.17955 -0.13859 0.040621 -0.025967 0.0064227 -0.028433 -0.0044286 -0.060658 
0.21342 0.10852 0.13812 -0.038791 -0.015609 -0.023501 -0.016102 -0.091568 
0.15883 0.14206 0.18711 -0.095349 -0.019884 -0.040106 -0.024816 -0.080388 
0.11773 -0.02087 0.16919 -0.065097 -0.011498 -0.035832 -0.014787 -0.067235 
0.31749 0.098001 0.040785 -0.015116 0.014315 0.014972 0.021878 -0.0072237 
0.46333 0.27047 -0.065097 0.046211 0.036017 0.028619 0.058377 0.053116 
0.39756 0.31273 -0.10867 0.11313 0.04358 0.057227 0.063639 0.10392 
0.27113 0.10704 -0.16802 0.11214 0.071859 0.090931 0.089452 0.17051 
-0.029913 0.022864 -0.20551 0.12447 0.087643 0.085506 0.096686 0.19336 
-0.45903 0.13976 -0.19087 0.10343 0.079422 0.059364 0.085012 0.16081 
-0.91314 0.16031 -0.11426 0.069393 0.073832 0.036017 0.048348 0.087972 
-0.79756 0.25535 0.0032988 0.046211 0.042265 0.018425 0.032893 -0.013471 
-0.20403 0.49983 0.085341 -0.0027845 0.014315 0.0036276 0.023357 -0.00097594 
-0.20633 0.8377 0.12217 -0.0073881 1.0539e-005 -0.021692 0.023851 0.0039565 
-0.6486 1.0153 0.14979 -0.019061 -0.026789 -0.018075 -0.0050863 0.05065 
-0.29363 0.93487 0.16969 -0.013965 -0.012978 -0.025145 0.0093821 0.057062 
0.49046 0.48141 0.14585 0.0080668 0.0041209 0.00297 0.026646 0.0080668 
1.0802 -0.182 0.10211 0.019083 0.038648 0.046375 0.017932 -0.072332 
1.2359 -0.4763 -0.014458 0.028783 0.033715 0.044896 -0.0019624 -0.16407 
0.91399 -0.65353 -0.087458 0.082711 0.046704 0.059364 0.030098 -0.073647 
0.44163 -1.1312 -0.080059 0.072517 0.074161 0.054596 0.090438 0.070873 
-0.076277 -1.2313 -0.052437 0.08978 0.069722 0.036839 0.072517 0.1396 
-0.20271 -0.5317 -0.042573 0.032564 0.026646 0.00066819 0.038483 0.11181 
-0.22935 0.61081 0.0092177 0.033715 0.039799 0.0028056 0.043251 0.079422 
-0.44983 1.0965 0.032236 0.058542 0.049664 0.039634 0.085177 0.15094 
-0.72555 0.65356 0.090931 0.023357 0.025001 0.032236 0.058871 0.17708 
-0.86464 -0.096336 0.10852 0.00050378 1.0539e-005 0.01004 0.023522 0.1368 
-0.7244 -0.72834 0.090274 0.00017495 0.0059294 0.0041209 0.0042853 0.037826 
-0.32635 -1.1907 0.050486 0.0072447 0.016616 0.0065871 -0.010676 -0.041422 
0.026152 -0.93764 -0.0034422 0.080409 0.041443 0.013164 -0.043395 -0.076771 
0.02122 0.0098754 -0.11771 0.097179 0.059364 0.053281 0.00297 -0.022185 
-0.17262 0.93947 -0.22951 0.15127 0.074326 0.11214 0.075641 0.11576 
-0.023829 1.3691 -0.20551 0.1544 0.07301 0.084355 0.085012 0.14371 
0.30253 1.1241 -0.032872 0.076792 0.055582 0.04358 0.050486 0.079587 
0.71571 0.3027 0.11181 0.084026 0.036346 0.068078 0.041114 0.0227 
0.91234 -0.59418 0.13795 0.0024767 0.0051074 0.036675 0.029441 -0.0042642 
0.96874 -0.94405 0.067091 -0.0088678 -0.0039354 0.00050378 0.026481 -0.084991 
0.93898 -0.7313 0.08304 -0.025802 -0.011663 -0.029091 -0.020048 -0.13727 
0.30401 -0.3788 0.18991 -0.072496 -0.028104 -0.033859 -0.027611 -0.095185 
-0.53614 -0.013965 0.22164 -0.047669 -0.031064 -0.033859 0.0042853 -0.047998 
-1.0948 0.36156 0.14552 -0.073647 0.0032988 -0.069536 0.0023123 0.031742 
-1.3164 0.51216 0.06183 -0.032215 -0.037147 -0.031886 -0.01232 0.13319 
-1.0662 0.4676 -0.012978 0.038319 -0.010512 -0.035667 -0.035996 0.17807 
-0.38817 0.37652 0.00099702 0.072517 0.020562 -0.019061 0.051801 0.15637 
0.025988 0.28214 0.08008 0.10606 0.032893 -0.0083746 0.063639 0.055911 
-0.15487 -0.095514 0.12497 0.069064 0.029769 0.011191 0.050157 0.080409 
-0.29906 -0.54535 0.12102 0.032071 0.0059294 0.026317 0.015465 0.058542 
-0.094363 -0.8528 0.14338 0.014808 -0.004593 0.036182 0.01415 0.00083261 
0.78953 -1.0241 0.14963 -0.023829 -0.0014692 0.038155 -0.010183 -0.05737 
0.76963 -0.57971 0.057555 0.02533 0.032071 0.013657 -0.038627 -0.15454 
0.080573 0.0075736 -0.034352 0.0592 0.069558 0.029441 -0.013965 -0.092554 
-0.13053 0.57645 -0.16999 0.10819 0.096521 0.099481 0.050486 0.028125 
-0.014458 1.0799 -0.2374 0.13582 0.10803 0.083533 0.076299 0.10441 
-0.095021 1.2476 -0.14287 0.079751 0.059857 0.063803 0.077449 0.15045 
-0.44374 0.8742 0.035195 0.00297 0.027303 0.022535 0.019083 0.074983 
0.4288 -0.10801 0.24581 -0.055561 -0.016924 -0.020541 0.0072447 -0.034188 
1.5547 -0.91331 0.39559 -0.1039 -0.054575 -0.076277 -0.067235 -0.074304 
1.512 -1.2605 0.36764 -0.097487 -0.044381 -0.082196 -0.079895 -0.038133 
0.72804 -1.155 0.22674 -0.082032 0.0056006 -0.05326 -0.07266 -0.041093 
-0.018568 -0.38258 0.065447 -0.038627 -0.031064 -0.051122 -0.023829 -0.037476 
-0.24349 0.76651 0.0095465 0.027632 0.029934 -0.035174 0.01004 -0.030899 
-0.50046 1.2279 -0.091897 0.079094 0.043416 0.043087 0.07449 0.13039 
-1.3709 1.1064 -0.17756 0.15735 0.079751 0.10507 0.11707 0.34775 
-2.3904 0.72804 -0.19729 0.15127 0.12151 0.18021 0.16936 0.44623 
-2.4488 0.42519 -0.13086 0.14338 0.13417 0.23183 0.14798 0.36189 
-1.6369 0.21753 -0.068057 0.14437 0.12003 0.18695 0.096028 0.22115 
-0.75761 0.22131 -0.010841 0.071366 0.061008 0.13351 0.046046 -0.03205 
0.51676 0.31223 0.025988 0.040456 -0.034188 0.062323 -0.029584 -0.36844 
2.2597 0.29513 0.06035 -0.040435 -0.032215 0.0069159 -0.12577 -0.59402 
3.2666 0.13779 0.044238 -0.086142 -0.028762 -0.044217 -0.12905 -0.50178 
2.9038 0.05065 0.032893 -0.0016336 0.0074092 -0.015116 -0.036489 -0.11557 
1.3656 0.094055 0.087808 -0.039778 -0.0016336 0.0075736 0.028454 0.20701 
0.41368 0.1248 0.23101 -0.054904 0.015794 -0.035503 0.030427 0.28987 
-0.055561 0.013986 0.28067 -0.052931 0.00099702 -0.048656 0.024673 0.14239 
-0.60816 -0.40264 0.25567 -0.040435 0.0087245 -0.043066 0.042265 -0.041422 
-0.97595 -0.56787 0.11872 0.017932 -0.018404 -0.030735 0.088136 -0.036489 
-0.81778 -0.54371 -0.0059084 0.025659 -0.015444 -0.027118 0.073997 0.024179 
-0.5636 -0.5174 -0.10719 0.042429 0.0052718 -0.034681 0.078107 0.15571 
-0.364 -0.21833 -0.086636 0.039305 0.023851 -0.00081153 0.080738 0.17824 
-0.28459 0.16804 -0.0503 0.025495 0.060022 0.050814 0.062159 0.15045 
-0.17706 0.3826 -0.0031133 0.06183 0.071037 0.1077 0.024015 0.086163 
-0.023501 0.50673 -0.0075525 0.058049 0.094548 0.15324 0.013164 0.039799 
0.15078 0.45527 -0.017582 0.062159 0.085506 0.13269 0.035688 0.00050378 
0.31388 0.24449 -0.028926 0.065118 0.087808 0.089123 0.038977 -0.031228 
0.51446 -0.14171 -0.060329 0.053281 0.083533 0.08567 0.048184 -0.027118 
0.5388 -0.26256 -0.1108 0.09274 0.07038 0.07038 0.048841 -0.017253 
0.2976 0.23726 -0.1062 0.054103 0.058377 0.032893 0.079916 0.034537 
0.06594 0.71472 0.017932 -0.015116 0.028947 0.01152 0.028783 0.031578 
-0.066248 0.58697 0.094384 0.011191 0.033387 0.012999 -0.035174 0.056076 
-0.12166 0.014315 0.033715 0.015137 0.066927 0.026974 -0.10341 0.098001 
-0.10258 -0.38603 -0.058028 0.084519 0.058213 0.01563 -0.14023 0.11181 
-0.055397 -0.27275 -0.042573 0.059035 0.051801 0.028619 -0.16029 0.11691 
0.1026 0.021878 0.042265 0.034702 0.045389 0.0074092 -0.070194 0.073668 
0.24844 0.1909 0.095535 0.043745 0.037661 0.013657 0.055418 0.038483 
0.39493 0.43489 0.077943 0.023686 0.014808 0.037004 0.17429 -0.045532 
0.49555 0.74579 0.021713 0.010862 -0.0072237 0.0042853 0.16344 -0.16473 
0.32506 0.74925 -0.042737 0.066598 -0.018897 -0.020377 0.098659 -0.14336 
-0.065426 0.38589 -0.059178 0.012177 -0.0040998 -0.0098543 0.069229 -0.088608 
0.031907 -0.050793 0.0054362 0.032564 0.0044497 0.0088889 0.087972 -0.023665 
0.040292 -0.41612 0.073175 0.023028 0.027796 -0.00015387 0.038483 0.095206 
-0.15947 -0.98499 0.13105 -0.0077169 0.012177 -0.027447 0.029934 0.17922 
-0.25319 -1.9656 0.17051 0.0014903 -0.011827 0.0046141 0.02533 0.22575 
-0.80529 -2.6679 0.16755 -0.0091966 -0.015773 -0.024652 0.040128 0.2537 
-1.285 -1.7395 0.21802 0.017603 -0.021856 -0.06 -0.032708 0.14749 
-0.88256 0.24252 0.22855 -0.032215 -0.034023 -0.038462 -0.092554 0.029276 
-0.17197 1.839 0.15144 -0.025967 -0.0095255 -0.046683 -0.05326 0.016288 
-0.014458 2.0687 0.007738 0.020069 0.033715 -0.043395 -0.023665 0.069064 
0.4048 1.1018 -0.14813 0.061501 0.04654 0.0072447 -0.0044286 -0.059507 
1.2436 -0.056055 -0.19614 0.13138 0.071037 0.0324 0.0067515 -0.13711 
1.7588 -0.49635 -0.20879 0.11017 0.063639 0.04358 0.028125 -0.14352 
1.5315 -0.42944 -0.1917 0.10639 0.080573 0.048841 0.056404 -0.006566 
0.37685 -0.1358 -0.14451 0.088794 0.049664 0.051965 0.043745 0.12809 
-0.85856 0.44787 -0.064768 0.034044 0.051801 0.053445 0.050486 0.17166 
-1.2569 0.91481 0.029605 0.030756 0.031085 0.025166 0.050814 0.14108 
-1.131 0.89919 0.12677 -0.021528 0.0037921 0.043416 0.037826 0.068242 
-0.64761 0.59305 0.17708 -0.051615 -0.015938 0.0080668 -0.0138 -0.024816 
-0.2037 0.26653 0.20487 -0.035338 -0.0062372 -0.015609 -0.026789 -0.1136 
-0.067892 -0.089431 0.15308 -0.03912 -0.017911 -0.014787 0.012999 -0.10258 
-0.02794 -0.32898 0.064954 0.0095465 -0.0016336 0.0041209 0.031414 0.0047785 
-0.20584 -0.40165 -0.023829 0.039634 0.011026 0.012342 0.046046 0.12447 
-0.89687 -0.33934 -0.066084 0.06479 0.044731 0.029112 0.096193 0.24992 
-1.275 -0.15552 -0.063124 0.099316 0.04506 0.061501 0.11099 0.28165 
-0.89571 -0.072003 -0.032708 0.082546 0.040785 0.047691 0.11181 0.20092 
-0.06296 -0.034023 0.027468 0.072188 0.059364 0.016288 0.063145 0.030263 
0.79873 0.12233 0.041936 0.038483 0.027139 0.0039565 0.012177 -0.17986 
1.8924 0.13894 0.091096 -0.01117 0.005765 -0.035174 -0.0026201 -0.3377 
2.7944 0.068407 0.14782 0.007738 0.0083956 -0.050464 -0.064768 -0.40954 
2.4636 -0.13711 0.19583 -0.071181 -0.0088678 -0.059507 -0.02498 -0.26108 
1.3857 -0.42911 0.1909 -0.052931 -0.028597 -0.021199 0.007738 -0.052931 
0.10441 -0.571 0.11674 -0.0034422 -0.011005 -0.0016336 0.073339 0.11296 
-0.8168 -0.53861 0.051308 -0.0031133 0.013328 0.025824 0.081724 0.19155 
-1.2627 -0.2231 0.047526 0.04506 0.017767 0.073175 0.091096 0.183 
-1.3663 0.24959 -0.014787 0.037497 0.040292 0.061995 0.10819 0.13647 
-1.2428 0.79232 -0.099295 0.076956 0.067091 0.070708 0.085999 0.031249 
-1.0041 1.1611 -0.18216 0.10458 0.079422 0.079751 0.0689 -0.027611 
-0.55784 1.1054 -0.15816 0.076956 0.058706 0.059528 0.028619 -0.015444 
-0.14369 0.64994 -0.097651 0.11674 0.037661 0.034209 0.056569 0.016452 
0.045882 -0.13004 -0.058192 0.07301 0.037168 0.027139 0.052787 0.082053 
0.16607 -0.73673 -0.020377 0.035524 0.01826 0.0065871 0.042923 0.11181 
0.27129 -0.58514 -0.0054151 0.039799 0.011684 -0.012649 0.081067 0.13746 
0.24351 0.094713 -0.014293 0.057555 0.041114 0.022864 0.066269 0.10326 
0.33048 0.60078 0.055582 0.072353 0.055911 0.047526 0.049499 0.036017 
0.54669 0.61689 0.14486 -0.0050863 0.015959 0.019247 0.023357 -0.018404 
0.87716 0.27261 0.21441 -0.0083746 -0.0059084 0.0031344 -0.014129 -0.11952 
0.7504 -0.28081 0.19944 0.012177 0.018918 0.041278 0.025824 -0.096007 
-0.0078813 -0.85461 0.25551 -0.021692 0.031742 0.020398 0.013164 -0.07266 
-0.55094 -1.2934 0.31322 -0.075291 -0.023007 -0.027118 -0.023665 -0.055726 
-0.55637 -1.4562 0.27343 -0.085649 -0.030735 -0.034845 -0.045532 -0.054082 
-0.22968 -0.82913 0.15686 -0.042737 -0.0042642 -0.0075525 -0.012485 -0.00064712 
0.47122 0.25617 0.014479 0.06479 0.024508 0.027468 0.020398 0.059364 
1.133 0.76602 -0.1085 0.071531 0.037168 0.060679 0.056076 0.06331 
1.0166 0.35383 -0.19482 0.083697 0.062323 0.064625 0.044567 0.12398 
0.25304 -0.14073 -0.26733 0.073997 0.060022 0.050979 0.067585 0.1465 
-0.55045 -0.025967 -0.22968 0.079422 0.063639 0.055582 0.07597 0.16179 
-1.0294 0.54159 -0.14862 0.1026 0.097015 0.096028 0.054432 0.13187 
-1.0702 0.79676 -0.0095255 0.055418 0.060844 0.044567 0.015137 0.022864 
-0.58481 0.75122 0.17889 -0.042901 0.0051074 0.0064227 0.00050378 -0.10341 
0.079422 1.0279 0.33229 -0.062302 -0.033037 -0.0087034 -0.058192 -0.17838 
0.4482 1.4962 0.38934 -0.085649 -0.006566 -0.022185 -0.079072 -0.10587 
0.41384 0.88324 0.34199 -0.02498 -0.00015387 -0.020212 -0.036983 0.0065871 
0.23381 -0.69858 0.30533 -0.022514 0.034373 -0.0064016 0.016616 0.063639 
-0.0026201 -2.0443 0.22213 -0.014787 0.039963 0.029934 0.020727 0.12447 
-0.086142 -2.1454 0.1031 0.019083 0.029605 0.034866 0.036346 0.11329 
0.058049 -1.4159 -0.039449 0.025166 0.030756 0.045389 0.046868 0.081231 
0.22394 -0.42599 -0.18495 0.093069 0.061337 0.077778 0.082875 0.078436 
0.24301 0.40151 -0.25894 0.099974 0.069886 0.086985 0.076956 0.10589 
0.41121 0.81863 -0.22178 0.10425 0.090109 0.088136 0.093233 0.18892 
0.244 0.91366 -0.14944 0.10606 0.080738 0.07597 0.085506 0.2126 
-0.20353 0.91399 -0.055397 0.041278 0.065118 0.055747 0.086328 0.18087 
-0.3908 0.77522 0.054267 0.0051074 0.017438 0.013986 0.0044497 0.061337 
-0.32125 0.38194 0.14667 -0.049642 -0.029255 -0.01528 -0.033037 -0.024652 
-0.45739 -0.2185 0.25189 -0.082196 -0.045696 -0.03764 -0.082032 -0.14846 
-0.12166 -0.70664 0.32785 -0.074304 -0.065755 -0.069701 -0.13037 -0.35282 
0.60407 -0.84096 0.29168 -0.10127 -0.039942 -0.065262 -0.14961 -0.40182 
0.59585 -0.3714 0.159 -0.03912 0.010204 -0.012649 -0.088115 -0.23954 
-0.34279 0.56461 -0.062302 0.059528 0.055418 0.0324 0.021878 0.037332 
-0.93945 1.1317 -0.25467 0.15883 0.097015 0.10326 0.11543 0.29727 
-0.32947 0.99784 -0.29297 0.22378 0.089616 0.10606 0.13894 0.3655 
0.39329 0.60078 -0.20748 0.15505 0.091918 0.11937 0.11592 0.30303 
0.3295 0.48766 -0.075784 0.066269 0.051143 0.072188 0.08567 0.12562 
0.035031 0.49112 0.031907 0.021056 0.010533 0.018589 0.0062583 0.012013 
0.50673 0.44048 0.13582 -0.032543 0.022864 0.0092177 0.011191 -0.070687 
1.203 0.21753 0.11658 0.034373 0.04095 0.02122 0.016452 -0.029748 
0.78443 -0.082196 0.066598 0.01974 0.025988 0.051308 0.050814 0.070215 
-0.11459 0.013657 0.050814 0.029276 0.040785 0.040128 0.01974 0.069722 
-0.41283 0.31223 0.024015 0.01152 0.025001 0.0031344 -0.019719 -0.016266 
-0.10834 -0.025638 0.060515 -0.033694 -0.014951 -0.037311 -0.055232 -0.12642 
0.015465 -0.72029 0.14519 -0.02794 -0.047505 -0.027118 0.00017495 -0.044052 
0.022206 -0.99502 0.20651 -0.083183 -0.032543 -0.02794 -0.027118 -0.013471 
0.15851 -0.80299 0.17215 -0.076277 -0.003771 -0.021363 -0.06 -0.047176 
0.13779 -0.20205 -0.0072237 0.0044497 0.0028056 0.0026412 -0.011005 -0.12889 
-0.068879 0.54521 -0.23033 0.10096 0.047691 0.080409 0.069558 -0.14517 
-0.57971 1.2843 -0.33441 0.1784 0.086163 0.085999 0.09981 0.048513 
-0.72768 1.4312 -0.28525 0.14404 0.086821 0.055747 0.096193 0.16771 
-0.36795 0.82159 -0.1427 0.090274 0.053116 0.055582 0.066105 0.17659 
0.046704 -0.083183 -0.068714 0.082546 0.051801 0.030427 0.066763 0.15555 
0.23381 -0.52546 -0.041586 0.076627 0.058706 0.033551 0.052952 0.12579 
0.28905 -0.109 -0.041915 0.092576 0.039799 0.038319 0.04654 0.12217 
0.27803 0.32752 0.060186 0.055089 0.03092 0.034537 0.0069159 0.061501 
0.3124 0.23331 0.14026 0.030756 0.01415 0.0054362 0.01974 0.044238 
0.46826 -0.145 0.095042 0.039305 0.017274 0.0051074 0.016452 0.0014903 
0.39559 -0.53384 0.070051 0.0088889 0.015465 0.030427 0.046704 -0.039613 
0.21457 -0.9189 0.0786 0.0014903 0.028947 0.026152 0.060022 0.0052718 
0.18054 -0.95605 0.076463 0.0034632 0.03651 0.020891 0.079094 0.040785 
0.072024 -0.47761 0.07038 -0.012649 -0.006566 0.0088889 0.074983 0.050486 
-0.16605 0.050486 0.15094 -0.02942 -0.035174 -0.0034422 0.020069 -0.0036066 
-0.27407 0.1077 0.24433 -0.093376 -0.063782 -0.021034 -0.010512 -0.049149 
-0.38307 -0.1376 0.19747 -0.052602 -0.031228 -0.013471 0.01152 0.029441 
-0.55291 -0.13991 0.072681 0.027961 0.019576 0.038319 0.012835 0.049499 
-0.47202 0.12727 -0.061973 0.037168 0.037004 0.0064227 -0.0057439 0.00017495 
-0.16786 0.47418 -0.11935 0.091918 0.042265 0.020891 0.0079024 -0.034516 
0.029934 0.5383 -0.12889 0.074326 0.02533 0.046868 0.031907 -0.017417 
0.29234 0.22164 -0.10982 0.0421 0.037497 0.038319 0.033058 -0.043066 
0.31815 -0.14632 -0.058356 0.0786 0.045224 0.013986 0.035524 -0.071345 
0.22033 -0.31238 -0.027775 0.038977 0.049335 0.033387 0.091425 0.023028 
0.11115 -0.32586 -0.016266 0.093398 0.060679 0.054596 0.091918 0.10655 
-0.09239 -0.19663 0.029769 0.056569 0.054925 -0.019226 0.10672 0.17067 
-0.30251 0.12546 0.083862 0.042594 0.044402 0.041607 0.087479 0.17363 
-0.3811 0.33147 0.14174 0.010533 0.047362 0.034866 0.057391 0.13993 
-0.25121 0.293 0.12381 0.007738 0.0082312 0.0060938 0.045718 0.093726 
-0.16703 0.2172 0.11674 0.014315 0.0024767 0.014479 0.01004 0.0786 
-0.27653 0.16969 0.085999 -0.01117 -0.0057439 0.0013258 0.0062583 0.064954 
0.051801 0.038319 0.12562 -0.02794 0.018425 0.0013258 0.033715 0.019083 
0.59338 -0.16457 0.14502 -0.023829 -0.0064016 -0.021199 -0.0019624 -0.033859 
0.78854 -0.23559 0.17955 -0.065426 -0.012978 0.019247 -0.0073881 -0.014458 
0.45544 -0.24891 0.17462 -0.049478 -0.01676 0.0098754 0.015465 -0.01117 
0.09685 -0.72703 0.10408 -0.027282 -0.0098543 -0.0075525 0.007738 -0.051944 
-0.0060728 -1.0342 -0.020048 0.015465 0.026974 0.011684 0.0095465 -0.072167 
-0.34608 -0.53285 -0.060658 0.097672 0.043087 0.047691 0.035853 0.049992 
-1.3375 0.19254 -0.023501 0.058871 0.058049 0.041443 0.077121 0.1659 
-1.5925 0.58171 0.0087245 0.052623 0.064132 0.050486 0.096357 0.23989 
-0.75728 0.83063 -0.027611 0.059364 0.037497 0.048184 0.058706 0.19303 
0.40052 0.9865 -0.060494 0.062817 0.040456 0.039305 0.032564 0.098166 
0.98189 0.86318 -0.089102 0.097344 0.039141 0.0098754 0.017932 0.041936 
1.2699 0.77374 -0.057699 0.065776 0.01004 0.0011614 -0.0032777 -0.15224 
1.9141 0.71373 -0.011005 0.077121 0.0072447 -0.013143 -0.048163 -0.30531 
1.9403 0.66753 -0.017417 0.085999 0.024179 0.0032988 -0.017582 -0.26338 
0.74185 0.52597 -0.11311 0.1151 0.062488 0.047526 0.047033 -0.021199 
-1.0292 0.077285 -0.12544 0.16804 0.08156 0.075312 0.084026 0.24877 
-2.3075 -0.39162 -0.074798 0.14141 0.08419 0.084519 0.099316 0.3831 
-3.031 -0.53696 0.047691 0.066763 0.061995 0.061501 0.10737 0.39148 
-2.5206 -0.6976 0.15176 0.0080668 0.024673 0.046046 0.076792 0.28313 
-0.81006 -1.0309 0.25025 -0.077264 -0.013307 -0.014458 0.0090533 0.049006 
0.82356 -1.1565 0.30385 -0.11031 -0.041257 -0.064933 -0.057041 -0.17805 
1.8975 -0.91758 0.37126 -0.1649 -0.063618 -0.072003 -0.15257 -0.37222 
3.1706 -0.27456 0.33081 -0.12757 -0.044217 -0.071838 -0.1358 -0.38833 
3.4493 0.4385 0.14798 -0.036325 -0.017253 -0.0022913 -0.057205 -0.22392 
2.2208 0.88374 -0.10193 0.031578 0.032236 0.055582 0.027961 0.009711 
0.36961 1.1068 -0.17065 0.089287 0.058706 0.075805 0.051801 0.11822 
