0.10589 -0.0055795 -0.052602 0.053281 0.0026412 0.036017 0.055254 0.14798 
0.11872 0.026646 -0.016924 0.027961 -0.013965 0.062981 0.00017495 0.10326 
0.13351 0.0039565 0.0032988 0.023357 0.00099702 0.042265 -0.023336 0.018589 
0.13056 0.011848 0.023028 0.028783 0.012999 0.020891 -0.031721 -0.18808 
0.11724 0.0065871 0.042594 0.039141 0.040785 0.046868 -0.024816 -0.21077 
0.073504 0.02122 0.063474 0.072188 0.065612 0.056076 -0.037476 -0.091732 
0.065118 0.039305 0.082053 0.021549 0.075641 0.094384 -0.050136 -0.087129 
0.088136 0.057227 0.066598 0.013164 0.10113 0.13434 -0.011334 -0.11179 
0.029934 0.090274 0.067585 0.029605 0.099481 0.13401 -0.01117 -0.091404 
-0.026131 0.062159 0.058706 0.014315 0.067749 0.065612 0.0041209 0.032564 
-0.095678 0.05772 0.045553 0.050486 0.04917 -0.01939 0.047197 0.2195 
-0.099131 0.079751 0.029605 0.044073 0.043745 -0.050464 0.048348 0.24992 
-0.034845 0.081067 0.012506 0.046211 0.028454 -0.047341 0.059035 0.21852 
-0.0011404 0.082217 -0.013965 0.066927 0.037661 -0.040106 0.025001 0.053281 
0.041443 0.076956 1.0539e-005 0.055254 0.036346 -0.028762 -0.013636 -0.16194 
0.071366 0.081889 -0.016431 0.072024 0.036346 -0.026953 -0.045696 -0.25582 
0.084519 0.058871 -0.008539 0.027303 0.0013258 -0.042737 -0.038956 -0.22655 
0.092576 0.062652 0.013164 0.0095465 0.020069 0.00066819 -0.051122 -0.098802 
0.089287 0.1151 0.027468 0.02681 0.014479 0.017438 0.004943 -0.063124 
0.074654 0.1026 0.025001 -0.0013048 0.046375 0.090109 0.090767 0.0013258 
0.045389 0.13286 0.024673 0.031249 0.012835 0.14058 0.11526 0.0042853 
0.039141 0.15094 0.037168 0.022535 0.0028056 0.16442 0.11165 -0.076442 
0.018754 0.14387 0.048677 0.014808 -0.0036066 0.092247 0.11888 -0.11491 
0.040128 0.099974 0.058049 0.068078 -0.0026201 0.067913 0.13072 -0.0078813 
0.068078 0.096686 0.037497 0.031907 0.00297 0.073668 0.10458 0.18218 
0.13976 0.11625 0.10918 -0.00097594 -0.0039354 0.047033 0.097672 0.29053 
0.0786 0.051965 0.075641 0.0075736 0.019905 0.020069 0.072353 0.32391 
-0.0078813 0.029112 0.085177 0.0056006 0.027468 0.015465 0.056076 0.25173 
-0.028762 0.083697 0.054103 0.023357 0.043745 0.021056 0.011026 0.1105 
-0.020377 0.071037 0.025001 0.0069159 0.05065 0.0059294 0.061666 0.0080668 
-0.025802 0.076299 0.0051074 -0.0013048 0.014972 -0.049478 0.066434 -0.078415 
-0.031886 0.093562 -0.0078813 0.031578 0.016452 -0.033694 0.06479 -0.0868 
-0.052766 0.035524 -0.059836 0.035688 0.018425 -0.055726 0.0069159 -0.034845 
-0.094856 0.036839 -0.042737 0.062159 0.0093821 -0.034188 -0.019226 -0.040928 
-0.092226 0.063639 -0.026296 0.019411 0.019905 0.020562 -0.027775 -0.033201 
-0.061316 0.064296 -0.008539 0.013657 0.038319 0.009711 0.012177 0.060679 
0.00083261 0.026481 -0.018404 0.024673 0.036675 -0.037969 -0.0029489 0.1271 
0.036839 0.055582 0.017438 0.015959 -0.0067304 -0.04471 -0.064933 0.097015 
0.08715 0.075641 0.041114 0.025495 -0.008539 -0.028269 -0.11985 0.090274 
0.077778 0.055418 0.064296 0.022371 0.00066819 -0.059343 -0.076113 -0.047998 
0.051472 0.031085 0.085999 -0.009361 0.018096 -0.029091 -0.062467 -0.17624 
0.048513 0.085835 0.070708 0.038977 0.037661 -0.0027845 -0.058356 -0.10883 
0.046868 0.087808 0.018096 0.047526 0.023686 0.007738 -0.0026201 0.11822 
-0.010512 0.068736 0.022042 0.050814 0.016123 0.060844 0.081231 0.31503 
-0.027611 0.071366 0.015465 0.030263 0.037497 0.13664 0.15768 0.33443 
-0.07266 0.041772 0.031249 0.022042 0.038155 0.2149 0.19501 0.33278 
-0.0868 0.016781 0.045882 0.047691 0.020233 0.16262 0.16278 0.31914 
-0.071838 -0.0098543 0.022206 0.014643 0.0047785 0.044238 0.10326 0.3609 
-0.047998 0.024344 -0.013471 0.037661 0.015465 -0.0054151 0.013164 0.4362 
-0.031721 -0.01117 -0.0011404 0.034537 0.0044497 -0.023829 -0.041093 0.31947 
-0.0054151 0.018589 0.028947 0.012342 0.004943 -0.0026201 -0.01939 0.013986 
0.029441 0.022042 0.0689 0.036182 0.009711 -0.01528 -0.0078813 -0.29067 
0.071859 0.0036276 0.091753 0.0062583 -0.0031133 -0.057863 0.0011614 -0.46035 
0.080573 0.0059294 0.072681 0.018754 -0.010512 -0.064604 0.0013258 -0.52118 
0.074819 0.034373 0.042594 0.034537 0.02122 -0.030735 0.040621 -0.48304 
0.062652 0.033058 0.020398 0.0021479 0.045389 -0.0019624 0.016123 -0.33178 
0.11148 -0.010512 0.0093821 0.064296 0.042265 -0.0014692 -0.029748 -0.23609 
0.17429 -0.058356 0.063145 0.0031344 0.026152 0.0090533 -0.068879 -0.068714 
0.18744 -0.048327 0.10359 0.0090533 0.0064227 -0.025802 -0.11031 0.13335 
0.20832 -0.079072 0.10524 0.010697 -0.029748 -0.087129 -0.10883 0.293 
0.21358 -0.080223 0.073997 -0.012978 -0.036489 -0.084498 -0.070687 0.36698 
0.15308 -0.013307 0.037168 0.032564 -0.0022913 -0.029748 0.010697 0.30007 
0.11757 0.015959 0.02533 0.038812 0.02533 0.017603 0.10491 0.24778 
0.085506 0.013986 0.034866 0.036346 0.037661 0.042758 0.1636 0.16163 
0.052459 0.01711 0.042923 0.042758 0.021056 0.034702 0.14848 0.071859 
0.032071 -0.025967 0.064296 0.051636 0.015137 0.058213 0.12842 -0.026131 
-0.0064016 0.014972 0.020233 0.04506 0.0324 0.08156 0.039141 -0.16901 
-0.054246 0.037332 -0.034681 0.045553 0.041772 0.066269 0.019576 -0.23954 
-0.015444 0.096193 -0.063289 0.077285 0.059035 0.11428 0.0079024 -0.28311 
0.004943 0.074654 -0.071181 0.077449 0.04358 0.079587 -0.025802 -0.21126 
0.032893 0.052294 0.017438 0.034537 0.026152 0.046704 0.0037921 -0.10521 
0.064954 0.043416 0.080409 0.02533 0.038977 0.078272 -0.010512 0.074161 
0.0421 0.026481 0.079422 0.030756 0.055747 0.11806 -0.017911 0.29217 
-0.032215 0.02533 0.062159 0.041114 0.083533 0.13828 0.025495 0.36534 
-0.042079 0.013492 0.056404 0.049499 0.08156 0.11033 0.026974 0.21769 
0.016616 -0.017582 0.043909 0.014972 0.080409 0.022535 0.032071 -0.088444 
0.060679 -0.021363 0.013821 0.019411 0.082217 -0.070523 0.037332 -0.29725 
0.10885 0.020727 0.027632 0.038648 0.012342 -0.1062 0.03536 -0.31813 
0.13286 0.06594 0.048019 0.0098754 -0.021363 -0.09091 0.023357 -0.22902 
0.1562 0.047197 0.062159 0.025166 -0.035996 -0.091404 0.023357 -0.047176 
0.14881 0.029769 0.069229 0.0036276 -0.057863 -0.12478 0.026317 0.09126 
0.15176 0.043087 0.060515 0.0018191 -0.013143 -0.087951 0.049828 0.15851 
0.070708 0.063639 0.077943 0.045553 0.0052718 -0.052602 0.086657 0.17807 
0.029276 0.063145 0.095042 0.012013 0.015465 -0.019719 0.094055 0.15949 
1.0539e-005 0.083368 0.073832 0.023357 0.0026412 0.053281 0.083533 0.13319 
1.0539e-005 0.047855 0.0083956 0.035524 0.0227 0.060186 0.045718 0.03651 
0.038812 0.040128 0.016616 0.004943 0.032236 0.031414 0.029769 0.048677 
0.025001 0.047691 0.023851 0.045882 0.034537 0.047362 0.0065871 0.069886 
-0.025474 0.061172 0.042758 0.037332 0.047033 0.069393 0.010533 0.13335 
-0.056548 0.073668 0.037332 0.024179 0.057227 0.061172 0.03799 0.14864 
-0.03912 0.094713 0.026317 0.013164 0.063968 0.068242 0.067256 0.11855 
-0.03912 0.11329 0.03799 0.0088889 0.029769 0.048841 -0.0014692 0.067256 
-0.016266 0.089616 0.037826 0.046046 0.028125 0.016452 -0.057205 0.027632 
-0.074962 0.055418 -0.024158 0.016616 0.025988 -0.0040998 -0.095021 0.048348 
-0.11196 0.073668 -0.027611 -0.022843 0.041936 -0.004593 -0.026296 0.085177 
-0.093541 0.091425 -0.040435 0.016123 0.066598 0.036182 0.05065 0.080409 
-0.072989 0.068078 -0.037805 0.017603 0.077121 0.069229 0.064296 0.086328 
0.0088889 0.065118 -0.012814 0.044238 0.07038 0.072024 0.052623 0.074983 
0.11066 0.093069 -0.028926 0.019576 0.062981 0.092411 0.060515 0.066598 
0.11411 0.085835 -0.016431 0.028125 0.060844 0.042265 0.049664 0.079258 
0.066105 0.094548 0.04654 0.05476 0.027303 -0.013307 0.053281 0.15012 
0.042758 0.090438 0.035853 0.014972 0.014643 -0.035503 0.03536 0.15028 
0.041114 0.071202 0.01267 0.023028 0.031578 -0.041586 0.050157 0.11165 
0.033715 0.045718 0.016616 -0.0080457 0.010862 -0.057863 0.011684 0.06331 
0.0069159 0.03799 0.03388 -0.00081153 -0.016102 -0.041915 0.0047785 0.016616 
-0.0078813 0.0024767 0.042758 -0.016266 0.0036276 -0.016595 0.048348 0.020398 
-0.034845 0.0024767 0.071037 0.005765 -0.031392 0.010862 0.031578 0.017932 
-0.06 0.04506 0.058706 0.02533 0.022042 0.068407 0.011848 0.021056 
-0.020706 0.054432 0.086163 0.029441 0.034537 0.13072 0.0047785 0.048677 
-0.052931 0.044402 0.10951 0.029112 0.059364 0.12135 0.083368 0.078272 
-0.018075 0.079587 0.073504 0.042265 0.049828 0.093398 0.062488 0.034537 
-0.025145 0.092576 0.00050378 0.01974 0.067256 0.073668 0.016781 0.0080668 
-0.035832 0.092247 -0.051615 0.016616 0.034537 0.083368 0.0083956 0.031414 
-0.045696 0.098001 -0.044874 0.060186 0.023851 0.063145 0.0079024 0.030098 
-0.015773 0.12069 -0.054904 0.034373 0.049664 0.068571 0.024673 -0.0031133 
-0.0031133 0.12332 -0.037805 0.080902 0.097344 0.10425 0.035031 -0.025967 
0.033058 0.08715 -0.010676 0.043416 0.084355 0.074161 0.035195 -0.083347 
0.091425 0.079094 0.055747 0.0080668 -0.011334 0.036675 0.045882 -0.086964 
0.11839 0.034702 0.097179 0.024015 -0.014622 -0.013471 0.061337 -0.077922 
0.092576 0.018918 0.094055 0.0039565 -0.015609 -0.006566 0.08156 -0.035832 
0.098001 -0.00064712 0.047362 0.035195 0.012506 0.033058 0.083533 0.011355 
0.091918 0.0072447 0.023522 0.0016547 0.036839 0.091589 0.084355 0.054596 
0.071695 0.010697 -0.024816 0.03947 0.059528 0.092082 0.053938 0.10145 
0.045882 0.046704 -0.040271 0.07449 0.073832 0.097837 0.096357 0.068407 
0.023357 0.11066 -0.019884 0.049664 0.046868 0.094055 0.097837 0.04095 
0.037497 0.076463 0.053609 0.049006 0.03651 0.082382 0.10704 -0.04619 
0.049828 0.051472 0.10737 0.016945 0.015465 0.060844 0.044567 -0.22869 
0.023357 0.056898 0.1299 0.0032988 0.013492 0.042923 -0.021199 -0.26322 
0.017274 0.032893 0.09685 0.037497 0.004943 0.010204 -0.067728 -0.18101 
0.0023123 -0.0138 0.10195 0.0087245 0.02533 -0.031392 -0.066084 -0.049807 
-0.0027845 -0.015938 0.1174 0.014972 0.038648 -0.067728 -0.080388 -0.051287 
0.035853 0.0041209 0.10902 0.025988 0.021056 -0.02646 -0.04323 -0.066741 
0.095042 -0.012156 0.093069 0.0098754 0.0083956 0.016123 0.022535 -0.10078 
0.14289 -0.022679 0.083204 0.046211 0.019576 0.0083956 0.076299 -0.062138 
0.10474 0.054925 0.079422 0.029605 0.023357 -0.015773 0.10606 0.041607 
0.03388 0.03799 0.091918 0.013492 0.020891 0.0074092 0.11477 0.097508 
-0.00097594 0.039634 0.099316 0.032729 0.021056 0.039799 0.1003 0.20355 
0.016616 0.045718 0.082711 0.024673 0.015465 0.042923 0.098001 0.18087 
0.048019 0.0018191 0.064132 0.082382 0.02829 0.075312 0.035031 0.10852 
0.064296 -0.017582 0.027468 0.036839 0.031578 0.063639 -0.027775 0.056076 
0.030427 0.018589 -0.034023 0.033715 0.036675 0.045553 -0.037147 0.10704 
-0.032215 0.071202 -0.051122 0.048841 0.040456 0.049499 0.011191 0.17363 
-0.054246 0.10803 -0.033365 0.029769 0.048019 0.074819 0.055911 0.22592 
-0.0032777 0.10129 -0.0054151 0.01563 0.027468 -0.010676 0.059035 0.19698 
0.11855 0.041278 0.062488 -0.0075525 0.026974 -0.093212 0.0024767 0.052952 
0.12957 -0.0027845 0.07301 -0.011005 0.030756 -0.0771 -0.049314 -0.032379 
0.06594 0.044896 0.059364 0.013328 0.050157 -0.096829 -0.082525 -0.09239 
0.048677 0.053445 0.015465 0.036675 0.021713 -0.14402 -0.090088 -0.20271 
0.050979 0.023028 0.0087245 0.041443 0.0023123 -0.16013 -0.025474 -0.18528 
0.0227 -0.0052507 0.012999 0.05213 0.016945 -0.13382 -0.071509 -0.14352 
0.03388 0.00099702 0.0036276 -0.010348 -0.01676 -0.12823 -0.093705 -0.14533 
-0.0014692 0.00083261 -0.013965 0.048841 -0.029748 -0.11278 -0.089266 -0.13859 
0.038648 -0.016431 0.016123 0.033058 -0.027447 -0.084663 -0.035667 -0.15158 
0.0421 -0.018568 0.035853 0.026481 -0.023665 -0.096665 0.030263 -0.12182 
0.023686 0.038483 0.050979 0.0421 0.018096 -0.032708 0.058706 0.049828 
0.037826 0.025659 0.044731 0.023028 0.038155 0.12957 0.12365 0.2389 
0.033715 0.027632 0.045718 0.059364 0.062323 0.27491 0.16475 0.2828 
0.056076 0.052787 0.026974 0.039963 0.056733 0.33574 0.19961 0.31897 
0.029276 0.045718 0.024673 0.028454 0.052459 0.30138 0.183 0.36682 
0.030263 -0.0059084 0.059528 0.013328 0.022042 0.20109 0.09685 0.3535 
0.088136 -0.0073881 0.13351 -0.025967 0.0021479 0.097508 -0.012978 0.3461 
0.084848 0.00033937 0.1322 0.01267 0.01826 0.062159 -0.051122 0.23035 
0.047033 -0.015444 0.10688 -0.00081153 0.039634 0.059857 -0.038791 0.17199 
0.012013 0.024179 0.071695 0.0054362 0.061501 0.072517 0.029934 0.1008 
-0.0070593 0.068407 0.037661 0.06742 0.06035 0.028783 0.029769 -0.15092 
-0.0024557 0.070544 0.012177 0.036346 0.031085 -0.070359 0.027796 -0.39919 
0.024673 0.058213 -0.0091966 0.041936 0.010369 -0.1256 0.041607 -0.42714 
0.045553 0.068242 -0.035667 0.047362 0.019576 -0.10916 0.062652 -0.23642 
0.050157 0.065776 -0.056548 0.04506 0.022042 -0.10225 0.030427 -0.032872 
0.055254 0.04917 -0.032379 0.077614 0.042758 -0.049807 -0.0057439 0.064296 
0.075148 0.028619 -0.033201 0.030756 0.025824 -0.014622 0.037826 0.062981 
0.073832 0.029276 0.00099702 0.024508 0.016945 0.0083956 0.058049 -0.0016336 
0.085835 -0.01939 0.0014903 0.0060938 0.00297 0.03947 0.071531 -0.011005 
0.035853 0.0024767 0.0065871 -0.011827 0.020069 0.10326 0.08978 -0.04619 
0.0059294 0.060515 0.0070803 0.05065 0.019905 0.17051 0.12825 0.0054362 
-0.067564 0.087479 -0.017417 0.064296 0.045882 0.20438 0.16525 0.13023 
-0.077922 0.069722 -0.0022913 0.052787 0.044073 0.19813 0.17873 0.20142 
-0.062467 0.075641 0.050979 0.039141 0.037497 0.16623 0.1442 0.2297 
0.013164 0.013657 0.095699 -0.004593 0.025495 0.14223 0.061501 0.095699 
0.044731 0.023851 0.11148 0.021384 0.033715 0.1054 -0.050136 -0.015938 
0.0065871 0.054925 0.097672 0.0098754 0.050157 0.032071 -0.10012 0.0070803 
-0.046519 0.11296 0.038977 0.025988 0.057227 0.036839 -0.081868 0.26126 
-0.068057 0.092411 0.0013258 0.05065 0.06742 0.0786 -0.0034422 0.63679 
-0.062302 0.08304 -0.0082102 0.032893 0.065447 0.072353 0.037826 0.78986 
0.015794 0.074983 0.035853 0.058049 0.063145 0.061337 0.032071 0.46662 
0.11115 0.050979 0.030756 0.014643 0.015137 0.11296 0.032893 -0.16917 
0.10392 0.1105 0.063639 0.027632 0.011026 0.13664 0.060844 -0.50655 
0.11888 0.083533 0.055747 0.03388 0.010369 0.065776 0.083533 -0.53664 
0.1419 0.056569 0.03651 0.014808 -0.0072237 0.015959 0.069393 -0.34049 
0.09833 0.050321 0.033715 0.014643 -0.010019 -0.041915 -0.0027845 -0.17279 
0.055089 0.043087 0.051965 0.0046141 0.011848 -0.12462 -0.057205 -0.092554 
-0.036489 0.030427 0.053116 -0.010841 0.0037921 -0.15257 -0.084663 0.00297 
-0.022021 -0.0019624 0.016123 0.031742 0.027632 -0.16506 -0.075949 0.046211 
0.037661 0.026974 -0.078579 0.0093821 0.021549 -0.19564 -0.069865 0.081395 
0.055911 0.084684 -0.13168 0.039634 0.0037921 -0.20732 -0.052273 0.082875 
-0.0022913 0.12595 -0.13267 0.052294 0.031085 -0.10554 0.018918 0.1151 
-0.039613 0.14272 -0.092554 0.061008 0.076299 0.080244 0.11839 0.1881 
0.021713 0.13121 -0.026953 0.084355 0.058542 0.085177 0.12825 0.1904 
0.041443 0.065776 0.034866 0.01004 0.01152 -0.0021268 0.10507 0.11642 
0.007738 0.047855 0.07449 0.0044497 -0.016431 -0.068714 -0.009361 0.063145 
-0.023336 0.074983 0.088958 0.039634 0.028125 -0.03353 0.020562 0.17133 
-0.06296 0.14256 0.055418 0.034209 0.039305 0.060186 0.080902 0.28642 
-0.07825 0.13993 0.028125 0.073997 0.069229 0.17824 0.0786 0.20882 
-0.023007 0.10524 0.0059294 0.085341 0.075476 0.13056 0.049006 0.058871 
0.047197 0.060515 0.043909 0.035524 0.033715 0.02681 -0.014293 -0.2716 
0.075476 -0.042244 0.11642 0.016781 -0.006566 -0.074798 -0.091404 -0.42763 
0.057555 -0.094527 0.14848 -0.039449 -0.037147 -0.16818 -0.14402 -0.28475 
-0.02942 -0.037311 0.11954 0.01563 -0.011992 -0.18019 -0.13695 -0.025638 
-0.10209 0.0041209 0.0786 0.073339 0.036346 -0.0965 -0.099295 0.17708 
-0.12001 0.052952 0.030756 0.078436 0.069064 -0.016431 -0.095514 0.171 
-0.080717 0.063145 0.044238 0.04917 -0.0095255 -0.090253 -0.12544 0.058542 
0.065118 0.037497 0.06594 -0.046025 -0.091239 -0.22902 -0.093705 -0.067399 
0.24992 0.0067515 0.041607 -0.056055 -0.096007 -0.22557 -0.075291 -0.12873 
0.31026 0.0090533 0.01152 -0.047176 -0.029748 -0.1062 -0.03353 -0.14533 
0.26751 0.049664 -0.0055795 0.0016547 0.01974 0.06594 0.066105 -0.15635 
0.13351 0.049006 -0.041257 0.072188 0.063145 0.17034 0.21753 -0.014129 
-0.011827 0.090109 -0.052273 0.066105 0.094055 0.18235 0.24778 0.17856 
-0.10078 0.11576 -0.059178 0.063145 0.091589 0.10376 0.12365 0.26307 
-0.076771 0.11773 -0.021034 0.059857 0.076134 0.0689 -0.023007 0.16936 
-0.040764 0.098494 0.014808 0.025824 0.052294 0.032071 -0.081868 -0.0032777 
0.0085601 0.07301 0.041278 0.032893 0.029934 0.014808 0.051801 -0.21323 
0.016288 0.032893 0.029769 -0.0034422 0.040128 0.036675 0.15407 -0.22606 
0.016288 -0.027775 0.028947 0.026974 0.089452 0.10491 0.14387 -0.08269 
0.0013258 -0.032215 0.039799 0.084848 0.12579 0.12381 0.11822 0.026481 
-0.055561 0.0079024 0.038812 0.061501 0.091589 0.041443 0.14831 0.084848 
-0.054904 0.048184 0.054596 0.052459 0.013657 -0.03205 0.17955 0.1202 
0.00083261 0.048677 0.076627 0.010204 0.0034632 -0.037476 0.15423 0.05065 
0.059528 0.076627 0.065447 0.025166 -0.020706 0.01826 0.10589 0.053609 
-0.014622 0.034702 0.08419 0.031414 0.010204 0.1003 -0.010512 0.029276 
-0.020377 0.013821 0.076299 0.00297 -0.0031133 0.10885 -0.06444 0.039634 
0.060844 0.010204 0.11362 0.013821 -0.02646 0.15193 -0.051287 0.076134 
0.14864 0.0067515 0.13565 0.01152 -0.0050863 0.16311 0.038483 0.079258 
0.25584 -0.045203 0.12875 0.0026412 -0.0039354 0.13713 0.0019835 0.14634 
0.29628 -0.037969 0.089123 0.040456 0.013164 0.085999 -0.059507 0.12332 
0.29711 -0.023665 0.090109 0.02829 0.01152 0.0088889 -0.1159 -0.0073881 
0.2805 -0.014129 0.069886 0.031578 0.052952 0.058377 -0.1792 -0.26322 
0.25436 0.0088889 0.061995 0.063474 0.066434 0.097015 -0.23592 -0.32684 
0.1516 0.042923 0.0088889 0.031742 0.06742 0.061172 -0.18397 -0.26075 
0.0072447 0.058706 -0.031392 0.059035 0.082546 0.0039565 -0.04323 -0.11146 
-0.12412 0.067091 -0.028433 0.041114 0.065447 0.0013258 0.11576 0.023851 
-0.25401 0.092576 0.022206 0.035688 0.10836 0.074326 0.2246 0.048184 
-0.2009 0.11444 0.019905 0.047362 0.086657 0.12579 0.17297 0.03092 
-0.078744 0.09685 0.024179 0.0074092 0.061337 0.094877 0.053445 0.047691 
0.022042 0.051636 0.0026412 0.012342 0.06594 0.12184 -0.029584 0.14601 
0.089123 0.025166 0.031578 -0.016595 0.072846 0.1271 -0.038298 0.15571 
0.11576 0.014643 -0.0098543 -0.027775 0.035524 0.12217 0.03536 0.11115 
0.075148 0.0421 -0.032379 0.0098754 0.0018191 0.13861 0.15818 0.11773 
0.004943 0.0786 -0.015444 0.018096 0.015959 0.13582 0.18103 0.028125 
-0.0019624 0.062652 0.017932 0.016616 0.028125 0.11148 0.15127 -0.037147 
0.074161 0.036182 0.059693 0.023193 0.020398 0.059857 0.098988 -0.024487 
0.13401 0.032071 0.057227 0.005765 -0.006566 -0.01528 0.027303 0.023686 
0.14239 0.0039565 0.066269 0.061666 0.0069159 -0.071181 -0.068386 0.065283 
0.10392 0.016945 0.039634 0.028947 0.036017 -0.00097594 -0.17591 0.091589 
0.077449 0.051801 0.033715 0.016123 0.019411 0.073339 -0.22261 0.093233 
0.076134 0.083697 0.054596 0.022864 0.0421 0.063968 -0.17986 0.043251 
0.020891 0.070215 0.021384 0.031578 0.025824 0.042758 -0.08532 -0.0031133 
-0.06296 0.079916 -0.001798 0.08156 0.0018191 0.010697 -0.059507 -0.0090322 
-0.078086 0.088465 0.030756 0.033715 -0.0011404 -0.030077 -0.032379 -0.014458 
-0.037969 0.045389 0.071366 0.0092177 -0.0044286 -0.053424 0.046868 -0.0064016 
-0.032215 0.041607 0.080409 0.027961 -0.03353 -0.040271 0.11132 -0.02794 
-0.004593 0.047526 0.067256 0.014643 -0.0080457 -0.016266 0.066598 -0.0098543 
-0.0026201 -0.0044286 0.063968 0.031085 -0.012649 -0.015938 0.057391 0.035195 
0.018096 0.0064227 0.050157 -0.01232 0.01004 -0.032215 0.079916 0.14042 
0.025166 0.0023123 0.019411 -0.010183 0.0018191 -0.039449 0.097344 0.27409 
0.0042853 0.048513 0.0036276 0.031414 0.01826 -0.15602 0.071037 0.27458 
-0.0059084 0.06183 0.010697 0.050321 0.034702 -0.21389 0.088136 0.20635 
-0.07414 0.089616 0.0014903 0.056569 0.05213 -0.12034 0.15423 0.070708 
-0.034681 0.1294 0.025495 0.054432 0.055911 -0.0016336 0.10935 -0.26519 
0.015794 0.065118 0.00033937 0.051965 0.08978 0.13483 0.08863 -0.47991 
0.041114 0.070215 0.036839 0.073832 0.077449 0.15966 0.049664 -0.38899 
0.029605 0.081889 0.025166 0.010204 0.028783 0.067256 -0.012156 -0.14747 
0.020233 0.061666 0.031249 0.0042853 0.009711 -0.014787 0.011684 -0.032708 
0.020069 0.061008 -0.011827 0.024015 0.0054362 -0.00097594 0.041443 -0.025967 
0.03799 0.085012 -0.036654 0.021384 -0.027775 0.053116 0.091096 -0.094199 
0.025824 0.092576 -0.020377 0.041114 -0.042573 0.053116 0.13335 -0.061809 
-0.010676 0.070708 0.014479 0.01826 -0.0406 0.016123 0.12316 0.081889 
0.0054362 0.040456 0.019411 -0.0019624 -0.013307 -0.068879 0.055747 0.17067 
0.025495 0.055089 -0.0014692 0.022371 -0.0091966 -0.12412 0.0088889 0.29398 
0.01563 0.029605 0.042265 0.019247 0.00017495 -0.19597 0.0013258 0.3558 
-0.044874 0.047033 0.011684 0.0227 0.026152 -0.13053 0.020727 0.36057 
-0.06444 0.073504 0.049828 0.034537 0.034702 0.010862 0.12151 0.36994 
-0.055561 0.063803 0.050979 0.038155 0.080409 0.12398 0.26472 0.36073 
-0.039449 0.03799 0.074819 0.034373 0.0689 0.14798 0.34807 0.26159 
0.014643 0.04095 0.088301 0.0054362 0.063474 0.14453 0.30352 -0.019884 
0.036182 0.046211 0.073175 0.035688 0.081067 0.1419 0.27014 -0.14961 
0.038977 0.039634 0.05624 0.030263 0.082217 0.091096 0.22065 -0.1649 
0.034866 0.067256 0.05213 0.049335 0.06035 0.044731 0.20191 -0.17936 
0.0069159 0.06183 0.035524 0.031907 0.019247 0.017438 0.12365 -0.10949 
-0.034516 0.035524 -0.039284 0.00066819 0.0088889 -0.047998 0.055254 0.041114 
-0.066248 0.029934 -0.028597 -0.0034422 0.02829 -0.032872 0.090931 0.12908 
-0.057205 0.06035 -0.038298 0.013657 0.062323 0.028783 0.10326 0.18383 
-0.021199 0.085835 -0.01939 0.036346 0.068242 -0.019719 -0.0095255 0.20257 
-0.0068948 0.094055 0.0088889 0.067749 0.05065 -0.049149 -0.07973 0.1368 
0.0098754 0.066105 0.0227 0.03388 0.011684 -0.044217 -0.090088 0.21901 
0.029441 0.052459 0.0037921 0.01267 0.005765 -0.044874 -0.083347 0.36961 
-0.0064016 0.023851 0.034209 0.037004 -0.00015387 -0.055068 -0.1187 0.23562 
0.047691 0.014808 0.046375 0.027468 0.03388 -0.03501 -0.11409 -0.056219 
0.08978 0.080244 0.020891 0.08567 0.072846 0.051636 -0.04471 -0.34937 
0.1345 0.055747 0.025495 0.06479 0.091096 0.10293 0.025495 -0.364 
0.16278 0.0024767 0.064625 0.025988 0.04917 0.098494 0.074983 -0.1792 
0.18563 0.0023123 0.090931 0.050486 0.022371 0.1202 0.17412 -0.079566 
0.1613 -0.003771 0.088136 0.037497 0.026481 0.13615 0.15259 -0.090417 
0.1294 -0.006566 0.082546 0.06183 0.045553 0.18218 0.10885 -0.14303 
0.044896 0.009711 0.076792 0.016945 0.041607 0.147 0.023686 0.042265 
-0.046683 0.049992 0.051308 -0.015938 0.013164 0.062323 -0.0016336 0.38704 
-0.14796 0.049006 0.039634 -0.018075 -0.015773 -0.0036066 0.05213 0.72146 
-0.19252 0.06035 0.02122 -0.031064 -0.011334 -0.051944 0.1368 0.84806 
-0.12905 0.051308 0.011848 -0.0013048 -0.001798 -0.024487 0.09422 0.73741 
-0.059507 0.036182 0.018754 0.033387 0.040292 0.10244 0.033715 0.32555 
0.10244 0.024673 0.02122 0.057062 0.066598 0.13401 0.072846 -0.23576 
0.21358 0.053938 0.039141 0.088794 0.041607 0.090274 -0.023501 -0.60125 
0.21013 -0.0011404 0.03651 0.02122 -0.0027845 -0.059836 -0.17427 -0.65041 
0.13236 0.0056006 0.045718 0.0037921 0.0024767 -0.20945 -0.26634 -0.54453 
0.0592 0.066434 0.026646 0.064954 0.016123 -0.1381 -0.1455 -0.32882 
-0.0024557 0.099152 -0.013307 0.065612 0.035688 -0.0027845 0.080573 -0.017746 
0.038648 0.11987 -0.017582 0.11083 0.039634 0.095535 0.14042 0.31322 
0.096686 0.11642 -0.038133 0.068571 -0.0064016 0.045389 -0.11771 0.34709 
0.1927 0.094384 -0.023336 0.038483 -0.030242 -0.060165 -0.37074 0.28297 
0.22328 0.046704 -0.01232 0.0056006 -0.050464 -0.12511 -0.3492 0.31157 
0.17889 0.021056 0.016123 -0.025802 -0.046354 -0.10784 -0.19581 0.34873 
0.087479 0.014479 0.032236 -0.017417 -0.051615 -0.058356 -0.16029 0.31256 
0.057555 -0.013143 0.052787 -0.0073881 -0.036983 -0.022514 -0.17904 0.08715 
0.057391 -0.0138 0.088465 0.018425 0.004943 0.014808 -0.096336 -0.24283 
0.032564 0.019576 0.11724 0.045553 0.038812 0.028783 0.063474 -0.45722 
-0.072003 0.0060938 0.13335 0.021549 0.047855 0.076792 0.12316 -0.54683 
-0.17624 0.0092177 0.12398 0.045224 0.023193 0.085012 0.14108 -0.4564 
-0.13481 0.032071 0.048184 0.037661 0.016781 0.050321 0.14437 -0.23165 
0.018425 0.033058 -0.011334 0.049992 0.00066819 0.045389 0.08156 0.02829 
0.12299 0.021056 -0.023336 0.10704 0.047033 0.021384 -0.010512 0.19468 
0.16558 -0.0059084 -0.035832 0.11083 0.08419 0.016945 -0.0024557 0.36156 
0.23874 -0.025474 0.078272 0.066105 0.080409 -0.03057 -0.014129 0.39411 
0.25025 -0.029913 0.18498 0.022864 0.073997 -0.090088 -0.037969 0.31223 
0.15801 0.0013258 0.18004 -0.020541 0.061501 -0.079401 -0.077428 0.24581 
0.084684 0.052952 0.12118 -0.0096899 0.013328 -0.10176 -0.10587 0.034537 
0.085012 0.065283 0.037661 -0.02942 -0.0503 -0.13037 -0.12034 -0.12412 
0.053281 0.069229 -0.021199 -0.00081153 -0.044217 -0.091075 -0.060987 -0.17295 
0.0067515 0.11691 -0.080059 0.071202 0.022535 0.065283 -0.035338 -0.21044 
0.09126 0.13746 -0.1256 0.090274 -0.0091966 0.23216 -0.016595 -0.41267 
0.13154 0.12053 -0.077922 0.10047 -0.036818 0.28741 -0.016924 -0.42747 
0.034702 0.062817 0.0075736 0.024179 -0.015938 0.17429 -0.0067304 -0.24612 
-0.069208 0.029605 0.064461 0.0041209 -0.040106 0.058049 -0.038627 -0.10489 
-0.063946 -0.0029489 0.066269 -0.00031829 -0.014129 -0.035503 -0.068879 -0.060987 
-0.051944 -0.01232 0.061172 -0.010841 0.017438 -0.048163 -0.01676 0.03799 
-0.10949 0.01415 0.05213 0.013821 0.027139 0.010369 0.081395 0.15735 
-0.079072 0.032236 0.059857 0.0067515 0.065776 0.088465 0.10408 0.27869 
0.031085 0.031085 0.069064 0.0080668 0.091753 0.032729 0.014315 0.17528 
0.17232 0.063639 0.091753 0.018918 0.061172 -0.090417 0.0037921 0.07449 
0.16821 0.010862 0.083862 -0.0026201 0.082711 -0.011334 0.089616 -0.019061 
0.092247 -0.023501 0.087314 0.0039565 0.08419 0.1419 0.16508 0.034209 
0.030098 -0.043888 0.093562 0.019576 0.12792 0.16179 0.12924 0.094384 
-0.062467 -0.014129 0.073832 0.051143 0.17774 0.085012 -0.018897 0.16245 
-0.12412 0.021384 0.047362 0.069722 0.17807 0.020233 -0.082525 0.031414 
-0.075949 0.067913 -0.0016336 0.051143 0.13993 -0.052766 -0.060494 -0.16818 
-0.045861 0.12661 -0.031557 0.046704 0.098494 -0.0068948 0.062488 -0.2573 
-0.0016336 0.12003 -0.058192 0.062981 0.084684 0.10737 0.030098 -0.23658 
0.033715 0.10606 -0.076771 0.044073 0.055747 0.10162 0.030427 -0.19449 
0.10113 0.10787 -0.032215 0.03799 0.030098 0.074983 0.12825 -0.090581 
0.10655 0.079587 -0.0047575 0.0082312 -0.0068948 0.1151 0.27984 0.056404 
0.08978 0.060844 -0.004593 0.014479 0.035853 0.15045 0.32719 0.15933 
0.022371 0.055747 0.0072447 0.040621 0.098166 0.15341 0.26455 0.22657 
-0.053917 0.070873 0.031085 0.031085 0.078929 0.15308 0.13187 0.28214 
-0.12905 0.049992 0.074819 0.019083 0.012013 0.15505 0.1225 0.25189 
-0.21011 0.044567 0.10967 -0.016266 -0.037969 0.098001 0.11543 0.26159 
-0.24316 0.047526 0.07449 -0.0032777 -0.018897 0.08419 0.14009 0.49736 
-0.1866 0.025988 0.06331 0.013821 0.022042 0.14239 0.1368 0.61804 
-0.10209 -0.028597 0.049992 -0.013307 0.039634 0.11905 0.061666 0.54554 
-0.05326 -0.06148 0.085506 -0.0022913 0.028619 -0.0042642 -0.089431 0.071366 
-0.078086 -0.073976 0.12973 -0.057534 -0.046354 -0.089924 -0.19827 -0.62147 
-0.054246 -0.037147 0.1442 -0.038298 -0.018075 -0.11541 -0.22737 -0.86941 
0.053609 0.012506 0.12003 0.024015 0.03651 -0.14204 -0.21258 -0.75761 
0.094713 0.082217 0.047691 0.041607 0.061995 -0.13021 -0.11919 -0.29215 
0.026974 0.10688 -0.020541 0.0786 0.081067 -0.052437 0.073504 0.24186 
0.04506 0.12381 -0.066577 0.081067 0.088465 -0.0011404 0.23364 0.4487 
0.098988 0.13351 -0.090253 0.079422 0.10063 0.019247 0.2657 0.49671 
0.10589 0.10984 -0.097487 0.11494 0.074654 -0.040928 0.16541 0.32818 
0.092576 0.10376 -0.099624 0.071366 0.032236 -0.099295 0.044073 0.062817 
0.07038 0.12908 -0.084169 0.07449 0.018754 -0.06444 0.027961 -0.036325 
0.052623 0.10556 -0.035832 0.038155 0.014808 0.053116 0.078107 0.014643 
0.11198 0.079916 0.0085601 -0.013636 -0.038133 0.12102 0.081067 -0.03057 
0.23562 0.047855 0.073997 0.0028056 -0.054575 0.16081 0.052294 -0.066577 
0.25173 0.034866 0.085341 -0.047669 -0.051451 0.21506 0.027632 0.036675 
0.2417 0.00017495 0.0592 -0.015938 -0.034681 0.30105 0.039799 0.28247 
0.18284 -0.0087034 0.062652 0.020233 -0.0096899 0.28247 0.10918 0.38326 
0.11313 0.0051074 0.064132 0.0098754 -0.012485 0.18678 0.13762 0.33657 
0.042429 -0.020706 0.041772 0.030098 -0.022185 0.099316 0.11461 0.32193 
-0.036818 -0.015116 0.056569 0.015794 0.0098754 0.064132 0.049664 0.21572 
-0.10308 -0.0082102 0.077449 0.0051074 0.009711 -0.049642 -0.03353 0.024673 
-0.14993 0.019247 0.10425 0.020891 -0.021034 -0.15816 -0.063782 -0.038956 
-0.1644 0.044896 0.065776 0.031578 -0.027447 -0.21438 0.040292 -0.057863 
-0.12445 0.090274 0.012999 0.077121 -0.010512 -0.17279 0.07038 -0.095185 
-0.10637 0.12924 -0.031557 0.089123 0.027303 -0.045696 0.01415 -0.25943 
-0.12675 0.10408 -0.011992 0.071037 0.0090533 0.065283 -0.031557 -0.25368 
-0.049478 0.035853 0.06035 0.047362 -0.01528 0.055747 0.037826 0.0079024 
0.044567 0.041607 0.075805 -0.0062372 -0.028104 0.077285 0.011848 0.16377 
0.19977 0.025988 0.041443 -0.024158 -0.020541 0.1294 -0.050629 0.1026 
0.34265 0.042594 -0.011992 0.013164 -0.024487 0.11214 -0.060823 -0.13382 
0.3341 0.088794 -0.030242 0.028125 -0.0049219 0.059035 -0.10127 -0.1963 
0.20684 0.12053 -0.038956 0.085012 -0.016595 -0.02498 -0.16079 -0.19038 
0.13878 0.13286 -0.043559 0.064132 -0.021528 -0.05885 -0.14599 -0.15816 
0.078765 0.10852 -0.014458 0.031085 -0.040764 -0.11787 -0.12067 -0.0406 
-0.046354 0.085177 0.04358 0.036017 -0.018568 -0.15388 -0.038133 0.077285 
-0.083676 0.038977 0.040456 -0.0062372 -0.037805 -0.10768 0.065118 0.1567 
-0.0096899 0.0036276 0.020727 0.026152 -0.0060728 -0.043888 0.10425 0.20668 
0.034373 0.031907 -0.013471 0.03799 0.014643 0.027632 0.10129 0.25748 
0.091425 0.023522 -0.030735 0.057227 0.029605 0.015465 0.083533 0.28034 
0.20964 -0.0072237 0.032236 0.057227 0.022042 -0.0075525 0.083204 0.15193 
0.26685 -0.022679 0.09981 0.025659 0.058706 0.0047785 0.061337 -0.022185 
0.20339 -0.046683 0.060515 0.024179 0.088794 -0.011498 0.011355 -0.27177 
0.088794 -0.033694 0.010204 0.022535 0.088136 0.0016547 0.022864 -0.5613 
-0.037805 0.039634 -0.013965 0.02533 0.074161 -0.051615 0.053445 -0.44884 
-0.1353 0.10178 0.00099702 0.040785 0.032893 -0.10143 0.063968 -0.012814 
-0.10521 0.052294 0.042429 0.0044497 -0.018733 -0.11771 -0.062302 0.19007 
-0.0047575 0.0088889 0.062323 -0.021528 -0.029913 -0.16835 -0.11607 0.041607 
0.036017 0.049335 0.023193 0.0023123 -0.014622 -0.16375 -0.080223 0.02533 
0.00297 0.071037 -0.033037 0.041114 0.055254 0.024673 0.05213 0.1465 
-0.006566 0.064954 -0.063289 0.098823 0.069064 0.23562 0.0088889 0.25929 
0.071202 0.07597 -0.023007 0.062817 0.051801 0.20964 -0.099131 0.42075 
0.11411 0.047033 0.029276 0.052459 0.073668 0.072846 -0.071674 0.69071 
0.066269 0.031907 0.076463 0.027139 0.093233 -0.046354 0.065776 0.90873 
-0.027775 0.043087 0.087643 -0.006566 0.090109 -0.15388 0.12135 0.89196 
-0.18627 0.066598 0.031414 0.034209 0.093069 -0.11705 0.031414 0.41335 
-0.3127 0.058377 0.015465 0.01974 0.070708 0.0060938 -0.072003 -0.4495 
-0.25516 0.041607 0.0324 0.0039565 0.034702 -0.010841 0.027961 -1.1823 
-0.063946 0.017274 0.052459 0.0014903 0.0083956 -0.0057439 0.16985 -1.5221 
0.057391 -0.030406 0.053609 -0.0091966 -0.0022913 0.16278 0.31996 -1.2375 
0.074161 0.0036276 0.015301 0.048841 0.057884 0.2634 0.48503 -0.51904 
0.022535 0.079422 -0.030242 0.061008 0.089616 0.21474 0.6039 0.13647 
-0.08269 0.10721 -0.028926 0.065118 0.047362 0.080244 0.49342 0.53057 
-0.10094 0.15275 -0.02235 0.086328 0.010862 -0.16309 0.18037 0.60538 
-0.045696 0.15176 -0.0138 0.041772 0.027139 -0.30761 -0.022021 0.63909 
0.0093821 0.1225 0.052623 0.013821 -0.0088678 -0.39212 -0.18972 0.64862 
0.10984 0.042265 0.081231 -0.014293 0.01004 -0.34493 -0.30481 0.42946 
0.16377 0.0051074 0.090931 -0.036818 0.029769 -0.17443 -0.32635 0.10063 
0.1641 0.0026412 0.058049 0.0069159 0.07038 -0.024816 -0.2425 -0.26223 
0.17297 -0.081374 0.053609 0.0067515 0.049664 0.0227 -0.206 -0.30728 
0.27507 -0.17805 0.088301 -0.023172 0.010862 0.00017495 -0.17131 -0.2254 
0.26389 -0.1136 0.090274 -0.010512 0.036182 0.0786 -0.071838 -0.12363 
0.1202 0.0028056 0.063474 0.015301 0.11395 0.28346 0.074326 0.16196 
-0.0087034 0.10063 0.036346 0.058049 0.16689 0.47023 0.23348 0.47007 
0.03947 0.13105 0.028619 0.078765 0.18383 0.50032 0.3438 0.36172 
0.29332 0.08567 0.075641 0.081889 0.16344 0.46349 0.30977 -0.11886 
0.38507 0.027632 0.066927 0.064132 0.12661 0.47319 0.28428 -0.36038 
0.19205 0.02122 0.044402 0.053774 0.039963 0.3558 0.2976 -0.075127 
-0.13481 0.047855 0.083533 0.065447 -0.021363 0.10145 0.25946 0.0092177 
-0.20584 0.016123 0.18843 -0.0049219 -0.060987 -0.12396 0.15144 -0.02646 
-0.15536 -0.0031133 0.27672 -0.046683 -0.05178 -0.1473 -0.082525 -0.010676 
-0.14681 0.039141 0.28099 -0.02794 -0.021363 -0.15733 -0.26091 -0.080388 
-0.16786 0.028454 0.21178 -0.054739 -0.0091966 -0.16736 -0.13037 -0.096829 
-0.1182 0.0024767 0.12184 -0.023007 -0.013143 -0.11771 0.020069 -0.091404 
-0.037147 0.020891 -0.014622 0.012999 0.0044497 -0.012156 -0.028597 -0.009361 
-0.017088 0.074654 -0.14418 0.054596 0.013821 0.15604 -0.0031133 0.18563 
-0.02646 0.088794 -0.20123 0.10441 0.074983 0.18974 0.11444 0.41943 
0.018096 0.087972 -0.13415 0.056569 0.077943 0.071037 0.070051 0.35925 
0.069558 0.059693 -0.034845 0.019411 0.044238 -0.028433 -0.023007 0.12661 
0.17873 0.019411 0.056733 -0.012156 0.0059294 -0.061316 -0.094692 -0.090417 
0.20569 0.019247 0.090767 -0.014787 -0.0064016 -0.048656 -0.1843 -0.32898 
0.2417 0.092904 0.096193 0.044896 -0.0011404 -0.042737 -0.22737 -0.35134 
0.26422 0.077285 0.082382 0.028783 0.0324 -0.026296 -0.19531 -0.11837 
0.17889 0.025988 0.086163 0.040292 0.049664 0.032236 -0.13004 0.15719 
0.058542 0.0026412 0.07038 0.039634 0.059693 0.1031 -0.0503 0.2463 
0.0064227 -0.00064712 0.075312 0.015137 0.049992 0.16525 0.0037921 0.18481 
-0.014951 -0.003771 0.088958 0.039141 0.032564 0.14535 0.037332 0.14091 
-0.063618 0.0018191 0.089452 -0.0080457 -0.026624 0.080409 0.043745 0.078107 
-0.098802 0.068407 0.093069 -0.026131 -0.027775 0.061008 0.1008 0.12447 
-0.066413 0.10376 0.076299 0.027961 -0.037969 0.082382 0.16952 0.22394 
0.0093821 0.11083 0.06742 0.0032988 -0.042408 0.15078 0.14913 0.25535 
0.018589 0.14058 0.043416 0.051472 -0.014458 0.14979 0.17774 0.27688 
-0.03205 0.08978 -0.0040998 0.063639 0.057062 0.037004 0.098659 0.031578 
-0.076771 0.0227 -0.040271 0.058213 0.085177 0.023522 -0.073647 -0.18989 
-0.070687 0.011684 -0.05737 0.053281 0.093069 -0.023829 -0.16473 -0.24151 
0.14058 0.0072447 -0.014787 -0.028926 0.02829 -0.18693 -0.20978 -0.40823 
0.35925 -0.061809 -0.0064016 -0.047669 -0.044217 -0.43799 -0.38274 -0.58185 
0.37159 -0.094527 -0.00081153 -0.03353 -0.053753 -0.54502 -0.44128 -0.37666 
0.12562 0.01152 -0.034023 -0.017253 -0.01117 -0.45805 -0.35216 0.041278 
-0.13514 0.09422 -0.066741 0.089452 0.033058 -0.34674 -0.14287 0.38425 
-0.24316 0.18974 -0.041915 0.09833 0.053938 -0.28393 0.056898 0.64418 
-0.27916 0.20487 -0.0044286 0.088301 0.038319 -0.18791 0.14354 0.63481 
-0.28673 0.17347 0.013821 0.091753 0.036182 -0.012814 0.13253 0.46136 
-0.21767 0.091425 0.036839 0.06479 0.022206 0.14946 0.091753 0.28099 
-0.14336 0.051308 0.09126 0.045389 0.031249 0.17445 0.12743 0.19977 
-0.13037 0.061008 0.072188 0.022864 0.06479 0.29431 0.20142 0.2486 
-0.099624 0.089287 0.051308 0.040785 0.11625 0.51874 0.2024 0.21178 
0.059693 0.079094 0.025166 0.052459 0.05624 0.5337 0.14963 -0.23559 
0.15111 0.050814 -0.018733 -0.024323 -0.014129 0.37767 0.09685 -0.76714 
0.15571 0.026974 -0.083512 -0.010841 -0.049314 0.15357 0.062488 -0.85165 
0.035688 0.052623 -0.12741 -0.023172 -0.092554 0.12825 0.092411 -0.49405 
-0.048656 0.10063 -0.14434 -0.026131 -0.12692 0.11674 0.16459 -0.044874 
0.013164 0.11346 -0.078908 0.01563 -0.060987 0.0023123 0.10392 0.25222 
-0.01232 0.13615 -0.052602 0.056404 0.025495 -0.1718 0.040128 0.25551 
-0.059836 0.11247 -0.056383 0.090109 0.1003 -0.23444 0.044567 0.19073 
-0.038133 0.01004 -0.061316 0.090438 0.16212 -0.19926 0.16656 0.24663 
0.15423 -0.044546 -0.030242 0.091425 0.13302 -0.13251 0.20125 0.12825 
0.41302 -0.074304 0.042265 0.099481 0.12694 -0.13826 0.2001 -0.1404 
0.28379 -0.051122 0.083204 0.052623 0.094384 -0.12955 0.25091 -0.24299 
-0.12198 -0.031064 0.099974 0.069064 0.047691 -0.044874 0.19221 -0.35644 
-0.34033 0.024508 0.13993 0.038648 0.022042 0.11707 0.10819 -0.43306 
-0.2767 0.087808 0.18267 0.010533 0.038155 0.23282 0.030592 -0.27933 
-0.025802 0.078272 0.20619 0.037497 0.089616 0.2463 -0.010676 -0.0503 
0.19237 0.024015 0.26932 0.0067515 0.098823 0.08304 -0.11015 0.15522 
0.28313 0.026974 0.21013 -0.0036066 0.095864 -0.062302 -0.23411 0.16656 
0.30122 0.019411 0.071037 0.014643 0.10589 -0.087622 -0.26881 0.1853 
0.24417 -0.00097594 -0.018075 -0.00015387 0.073832 -0.042901 -0.24036 0.45494 
0.14667 0.0019835 -0.050958 0.033058 0.017438 0.11757 -0.074304 0.61623 
0.064461 0.06035 -0.087951 -0.011334 -0.084334 0.15407 0.1909 0.61097 
0.043416 0.0013258 -0.099295 0.012177 -0.12067 0.21194 0.46612 0.57168 
0.1003 -0.017417 -0.048327 0.023851 -0.098144 0.23463 0.49983 0.22246 
0.12085 0.014315 -0.013143 -0.032215 -0.035832 0.22065 0.3826 -0.26749 
0.15587 0.009711 0.054596 0.011355 -0.014129 0.16377 0.28954 -0.63578 
0.10392 0.080244 0.086821 0.010369 0.077449 0.059857 0.19287 -0.6514 
0.08863 0.10129 0.10836 0.053281 0.081067 0.10655 0.20701 -0.36022 
0.085835 0.084684 0.11181 0.090109 0.094877 0.21802 0.13993 -0.0073881 
-0.01232 -0.014129 0.12085 0.059528 0.08978 0.2828 -0.16539 0.22263 
-0.075949 -0.067892 0.073339 0.043745 0.045224 0.19205 -0.41464 0.26554 
-0.0771 -0.048985 0.029112 0.027139 0.010697 -0.078744 -0.4541 0.083368 
0.062817 -0.025145 0.023193 0.03536 0.024508 -0.14155 -0.26913 -0.14352 
0.11017 0.021878 0.025659 0.06183 0.042429 -0.025309 -0.075291 -0.096172 
0.15703 0.076463 0.042265 0.019576 -0.034516 0.043416 0.025824 0.022042 
0.24203 0.036182 0.064954 -0.0047575 -0.095021 -0.043395 0.00297 -0.031721 
0.23529 0.039141 0.067749 0.01563 -0.063124 -0.031228 0.04654 -0.096994 
0.17889 0.049992 0.02681 0.02533 0.016781 -0.081045 0.046211 -0.040928 
0.15292 0.039305 0.0056006 0.05772 0.023028 -0.32076 -0.016595 0.044731 
0.13039 -0.0036066 -0.00031829 0.02533 0.0095465 -0.37058 -0.027447 0.16771 
0.12102 0.0421 0.046375 0.018918 0.00033937 -0.16111 0.11937 0.37044 
0.14601 0.056076 0.056569 0.025988 -0.021692 0.010862 0.2394 0.51824 
0.13927 0.036675 0.038483 1.0539e-005 -0.011827 0.053281 0.20175 0.42173 
0.093398 0.058049 -0.013471 0.024015 0.015959 0.14387 0.073668 0.17396 
0.028454 0.099974 0.0046141 0.0085601 0.0324 0.28083 -0.067235 -0.024816 
-0.078579 0.10672 0.018425 0.013492 0.074161 0.31996 -0.12346 -0.085978 
-0.14648 0.11 0.009711 0.048513 0.097344 0.17939 -0.10719 -0.09239 
-0.12133 0.099974 -0.021199 0.021384 0.070051 0.066105 -0.06444 -0.099624 
-0.062631 0.042758 -0.0062372 0.010697 0.062817 -0.034023 -0.037969 -0.073976 
-0.09946 0.027632 0.01563 1.0539e-005 0.091589 -0.035338 -0.057699 -0.012814 
-0.15322 0.047362 0.00017495 -0.016102 0.061501 0.00017495 -0.044052 0.10639 
-0.21241 0.090109 -0.048163 0.024837 0.023522 0.012342 -0.089102 0.27376 
-0.21882 0.046704 -0.080059 0.0074092 -0.052602 -0.035996 -0.25023 0.29826 
-0.10587 0.053938 -0.047998 0.0421 -0.084663 -0.13021 -0.28459 -0.015938 
0.016452 0.080738 0.011355 0.047197 -0.093048 -0.16161 -0.10193 -0.56574 
0.092576 0.041443 0.079422 0.0034632 -0.077264 -0.1741 0.034866 -0.7849 
0.10721 0.034866 0.08419 0.027139 -0.06444 -0.10209 0.088958 -0.41217 
0.034373 0.097837 0.065612 0.014808 0.014479 0.026317 0.10556 0.23167 
0.019083 0.085506 0.034537 0.042429 0.048677 0.01563 0.1761 0.62692 
0.13927 0.060515 -0.0004827 0.067749 0.089945 0.026974 0.22444 0.64632 
0.1904 0.07449 -0.020377 0.087643 0.099316 0.047691 0.14108 0.56132 
0.057391 0.098001 -0.014458 0.084026 0.069886 0.04917 0.041114 0.38622 
-0.21636 0.090438 0.032071 0.035524 0.073997 0.01004 -0.077593 0.063803 
-0.28886 0.020727 0.054596 0.037332 0.039634 -0.017417 -0.013471 -0.32635 
-0.21603 0.06183 0.054925 0.029441 0.066763 0.0421 0.038319 -0.39113 
-0.067892 0.050321 -0.019719 0.017274 0.10474 0.16081 0.079094 -0.19564 
-0.032708 0.088301 -0.016431 0.018589 0.073832 0.16607 0.040621 -0.097158 
-0.011827 0.078107 -0.012814 -0.0059084 0.026481 0.063639 -0.0016336 0.029934 
-0.1159 0.027303 0.025824 -0.06855 -0.040271 -0.1427 -0.00081153 0.29776 
-0.18989 -0.017582 0.065776 -0.018733 -0.070523 -0.2522 -0.0052507 0.58253 
-0.20156 0.014315 0.087479 0.0060938 -0.035996 -0.15421 0.0028056 0.57941 
-0.21192 0.068407 0.064954 0.025659 -0.012814 -0.0868 0.017767 0.012342 
-0.13941 0.11855 0.01974 0.048677 0.024673 -0.082196 0.043087 -0.41546 
-0.14665 0.14996 -0.054904 0.08419 0.076299 0.041443 0.14913 -0.31155 
-0.15076 0.19007 -0.065755 0.15193 0.12513 0.19172 0.24745 0.097015 
-0.10357 0.16245 -0.030242 0.12217 0.13203 0.15966 0.30615 0.38063 
-0.013307 0.061008 0.056898 0.04917 0.08978 0.052459 0.22805 0.48717 
-0.022021 -0.015609 0.13993 -0.014951 0.01563 -0.019884 0.056733 0.51545 
-0.058192 -0.099953 0.1659 -0.017088 0.019247 -0.020377 -0.013143 0.50394 
0.044896 -0.13415 0.16558 -0.0095255 0.026481 0.051965 -0.00081153 0.38688 
0.21128 -0.10193 0.17971 -0.035832 -0.018404 0.0095465 -0.039284 0.23627 
0.39247 -0.075949 0.14733 -0.0029489 -0.033694 -0.098473 -0.13958 0.047855 
0.52844 -0.019061 0.06742 0.049335 0.01415 -0.11442 -0.22935 -0.18824 
0.48733 0.0227 0.044567 0.10162 0.025988 -0.26946 -0.41908 -0.60158 
0.31947 0.056076 0.071037 0.074654 0.01152 -0.51543 -0.77208 -0.87335 
0.16294 0.053281 0.048841 0.026152 0.0098754 -0.3954 -0.76698 -1.0144 
-0.02235 0.081395 0.042758 0.024015 0.020562 -0.18084 -0.39951 -0.92514 
-0.10489 0.10589 0.035195 0.012013 -0.0024557 -0.16654 0.15094 -0.50244 
-0.026789 0.07597 0.037826 0.0013258 -0.070194 -0.25828 0.29924 0.0018191 
0.060186 0.057227 0.034373 0.056404 0.0072447 -0.0014692 0.19205 0.43752 
0.03536 0.069558 -0.011992 0.072353 0.042265 0.31585 0.13549 0.65158 
-0.12182 0.064296 0.021713 0.030263 0.017274 0.47895 0.29875 0.67033 
-0.32323 0.010533 0.045389 0.025495 -0.018075 0.50114 0.58467 0.56346 
-0.26552 -0.047834 0.088301 -0.028762 -0.025474 0.35202 0.70716 0.31552 
0.041936 -0.076771 0.07597 -0.031557 -0.047669 0.027961 0.42798 0.050157 
0.37833 -0.064604 0.059528 -0.026953 -0.019061 -0.14648 0.12809 -0.034845 
0.44574 -0.012485 0.0019835 0.022535 -0.0052507 0.029769 0.085835 0.10836 
0.20865 0.09274 0.0070803 0.087479 0.049664 0.28149 0.20651 0.3752 
-0.019226 0.1322 -0.02646 0.097672 0.078929 0.33969 0.28478 0.3951 
0.0324 0.098988 0.0074092 0.061501 0.074654 0.16985 0.11099 -0.0027845 
0.25814 0.024015 0.085012 0.013328 0.069722 -0.060823 -0.16325 -0.6098 
0.42683 -0.027282 0.10721 -0.0055795 0.036346 -0.14878 -0.2573 -0.98154 
0.41499 -0.001798 0.061501 0.04095 0.017438 -0.16062 -0.18989 -1.007 
0.28379 0.066927 0.02122 0.052459 -0.0027845 -0.12889 -0.095185 -0.75136 
0.082546 0.058049 0.018754 0.012013 -0.041422 -0.098473 -0.1016 -0.45591 
0.12431 0.0056006 0.079587 -0.0083746 -0.041915 -0.094363 -0.2203 -0.3594 
0.39148 -0.07266 0.092411 -0.055726 -0.023172 -0.030735 -0.30728 -0.32783 
0.52071 -0.040764 0.071531 -0.021856 0.094384 0.2006 -0.23888 -0.11886 
0.28214 0.03388 0.021878 0.0067515 0.19846 0.38441 -0.058521 0.12891 
-0.099624 0.085835 -0.026789 0.061337 0.30746 0.48651 0.14683 0.43587 
-0.38669 0.18185 -0.026296 0.10441 0.29694 0.45182 0.30007 0.59601 
-0.4518 0.13795 -0.042737 0.061666 0.18432 0.32637 0.32128 0.53485 
-0.33128 0.12201 -0.08532 0.085506 0.12447 0.38967 0.3974 0.33509 
-0.081045 0.12546 -0.061316 0.089287 0.09833 0.439 0.38638 0.0067515 
0.21046 0.095042 -0.048163 0.064296 0.028947 0.20882 0.31963 -0.24793 
0.26094 0.03799 0.013328 0.036182 -0.058356 -0.25746 0.1493 -0.33391 
0.12233 0.015301 0.040456 -0.018897 -0.090253 -0.51937 -0.034023 -0.36696 
0.00017495 0.024179 0.035195 -0.01528 -0.079895 -0.40412 -0.1085 -0.21998 
-0.12149 0.051801 0.03092 0.0064227 -0.050136 -0.16046 0.042923 -0.040271 
-0.19235 0.09981 -0.050136 0.028783 0.018918 0.12316 0.2537 0.03651 
-0.20995 0.17248 -0.081539 0.066598 0.04358 0.34512 0.341 0.1664 
-0.1524 0.1179 -0.028597 -0.013471 0.0032988 0.59223 0.22493 0.32276 
-0.07973 0.062652 0.020398 -0.001798 0.00297 0.67937 0.17067 0.25699 
0.025824 0.017932 0.053116 0.020891 0.087314 0.61015 0.1026 -0.00031829 
0.17199 -0.046847 0.089616 0.038812 0.080573 0.40019 0.11954 -0.10702 
0.26817 -0.08384 0.087314 0.070708 0.079587 0.23266 0.22378 -0.084498 
0.29332 -0.011827 0.04654 0.082546 0.13598 0.082875 0.28132 -0.070194 
0.32012 0.075312 0.018425 0.10195 0.12924 -0.3589 0.021713 -0.011827 
0.32193 0.066434 0.011191 0.089287 0.03947 -0.74445 -0.27653 0.2024 
0.24466 0.039963 0.049499 -0.01676 -0.049149 -0.75399 -0.3742 0.55672 
0.086492 0.026481 0.092411 -0.044052 -0.039613 -0.38653 -0.27045 0.74744 
-0.085485 0.00099702 0.10556 -0.029748 -0.0047575 0.00017495 -0.17016 0.57661 
-0.19235 -0.011498 0.13253 -0.018733 0.024837 0.097179 -0.25072 0.22361 
-0.29281 0.015465 0.15604 0.023193 0.037826 0.19566 -0.38718 0.06594 
-0.38455 0.0079024 0.12595 -0.016924 0.09274 0.52794 -0.27982 0.08715 
-0.27736 0.014808 0.086657 0.02122 0.1202 0.67312 0.020562 -0.21307 
-0.091732 0.052952 0.023028 0.014643 0.10819 0.40529 0.15653 -0.47745 
-0.098967 0.10672 -0.069043 0.045389 0.06331 0.10902 0.18202 -0.17821 
-0.19022 0.17692 -0.15799 0.11773 0.11395 -0.066741 0.27557 0.42535 
-0.24151 0.20668 -0.17723 0.15407 0.15176 -0.22655 0.3295 0.60884 
-0.23181 0.25502 -0.1187 0.13713 0.078929 -0.37765 0.23792 0.41548 
-0.20616 0.16755 -0.034845 0.07597 -0.076771 -0.32356 0.066598 0.37142 
-0.26404 0.071531 0.039305 -0.0016336 -0.21126 -0.33178 -0.047669 0.53797 
-0.26782 0.065447 0.09274 -0.015444 -0.26223 -0.51378 -0.21734 0.57414 
-0.11031 -0.029255 0.14979 -0.075127 -0.24612 -0.4883 -0.28377 0.29645 
0.074654 -0.072167 0.11609 -0.040271 -0.12593 -0.39014 -0.33079 0.011026 
0.2514 -0.046847 0.1026 0.048348 -0.033694 -0.30909 -0.4319 -0.17641 
0.46728 -0.05441 0.11642 0.03651 0.015465 -0.39984 -0.47301 -0.33622 
0.63925 -0.086636 0.14453 0.016452 0.02533 -0.47021 -0.38044 -0.38899 
0.64895 -0.10357 0.096357 -0.02235 0.0324 -0.5243 -0.31961 -0.36795 
0.5337 -0.065426 0.040621 -0.0036066 0.00297 -0.40116 -0.20879 -0.26996 
0.37159 -0.029913 -0.0032777 0.048841 -0.0050863 -0.16966 -0.036654 -0.097322 
0.08567 0.044402 -0.042573 0.060022 -0.0080457 0.011684 0.1031 0.12349 
-0.20238 0.12924 -0.03912 0.079094 0.0060938 0.32243 0.36632 0.28938 
-0.31846 0.1391 -0.040764 0.036346 0.041443 0.55425 0.57135 0.16212 
-0.32306 0.11822 0.023357 -0.025474 0.026152 0.59322 0.5217 -0.037805 
-0.33572 0.12151 0.063145 -0.023336 0.019411 0.52614 0.30105 0.053116 
-0.34657 0.13812 0.09833 -0.01939 0.025495 0.44689 0.20914 0.26718 
-0.32142 0.1174 0.15374 -0.0138 0.0592 0.44459 0.34396 0.42847 
-0.23592 0.057555 0.15719 0.021713 0.11806 0.66408 0.49342 0.40546 
-0.15536 0.036182 0.09274 0.035688 0.20651 0.80515 0.39345 0.097508 
-0.10176 0.015137 0.041772 0.10063 0.22822 0.5942 0.16755 -0.16046 
-0.038133 0.0036276 -0.0087034 0.07597 0.15259 0.12118 0.042429 0.015794 
0.0056006 -0.03205 -0.01676 0.063803 0.054432 -0.20304 -0.070523 0.17741 
0.10869 -0.018239 -0.028926 0.058871 -0.038627 -0.50984 -0.23181 0.093562 
0.12497 0.036675 -0.045696 0.03651 -0.060987 -0.68707 -0.2208 0.082875 
0.058377 0.15489 -0.063782 0.074654 -0.05441 -0.58267 -0.058521 0.1151 
0.11888 0.17051 -0.028762 0.039634 -0.070194 -0.52562 -0.026624 -0.025474 
0.24384 0.06331 0.024015 0.024179 -0.11261 -0.54272 -0.30876 -0.39392 
0.32999 -0.012156 0.085341 0.023028 -0.11245 -0.40494 -0.52299 -0.58612 
0.31634 -0.008539 0.066269 0.03947 -0.022021 -0.02235 -0.45509 -0.63463 
0.2098 -0.019884 0.044238 0.059857 0.068242 0.47287 -0.13645 -0.66948 
0.086492 0.0024767 0.087643 0.010204 0.078765 0.67345 0.34035 -0.58892 
0.051472 0.016452 0.12579 -0.038298 0.059693 0.57628 0.86795 -0.39623 
0.087314 0.033551 0.15259 -0.058521 0.045389 0.44985 1.0608 -0.29396 
0.057227 0.030263 0.15653 -0.071345 0.031249 0.33065 0.75878 -0.11343 
-0.091075 0.050157 0.16048 -0.016595 0.080902 0.21342 0.4048 0.14108 
-0.010348 0.007738 0.079916 0.044731 0.12349 0.015465 0.07449 0.20043 
0.16459 -0.05589 0.024508 0.060844 0.12381 -0.057205 -0.23362 0.19895 
0.15308 -0.069372 -0.039942 0.078272 0.077285 -0.033201 -0.41596 0.3221 
0.0087245 0.050157 -0.097158 0.080902 0.090438 0.15061 -0.3497 0.50937 
-0.17065 0.1345 -0.11639 0.099152 0.13647 0.30253 -0.072989 0.72886 
-0.24941 0.18267 -0.14221 0.1179 0.15472 0.27672 0.095042 0.77095 
-0.22014 0.17396 -0.095514 0.08978 0.159 0.17708 0.078272 0.47171 
-0.17558 0.072188 0.031907 0.011848 0.034537 -0.014129 0.00033937 0.063968 
-0.11639 -0.090417 0.16163 -0.098144 -0.092226 -0.15947 -0.010019 -0.14336 
-0.041586 -0.044052 0.15275 -0.10883 -0.13629 -0.18265 0.11329 -0.15816 
0.079751 0.051636 0.057884 -0.032215 -0.089266 -0.074469 0.19862 -0.29659 
0.2292 0.1026 -0.021528 0.024508 0.0080668 -0.0075525 0.16673 -0.47975 
0.33262 0.12036 -0.017911 0.093233 0.055418 -0.041586 0.010204 -0.51099 
0.35186 0.056569 0.03388 0.077943 0.076792 -0.082525 -0.17723 -0.50885 
0.32884 0.016945 0.03651 0.096686 0.094055 -0.20173 -0.18824 -0.559 
0.25091 0.027303 0.029769 0.1174 0.088136 -0.24234 -0.21636 -0.46035 
0.13647 0.086657 0.061501 0.077121 0.053116 -0.20781 -0.22277 -0.21521 
0.051143 0.065283 0.046375 0.050486 -0.016266 -0.091075 -0.22293 0.14634 
-0.0087034 0.032893 -0.026789 0.014479 -0.059014 0.077778 -0.038133 0.40726 
-0.020048 0.03536 -0.087293 0.017603 -0.068057 0.021384 0.016945 0.49013 
0.037661 0.0041209 -0.1256 0.040292 -0.068057 -0.1279 -0.13333 0.5531 
0.11855 -0.046354 -0.036325 -0.010348 -0.079237 -0.19367 -0.33293 0.68036 
0.16146 -0.068386 0.062159 -0.01117 -0.039284 -0.33424 -0.42335 0.51594 
0.12792 -0.0013048 0.11559 0.014808 0.028619 -0.4735 -0.41481 0.14897 
0.065118 0.038155 0.087479 0.067256 0.075476 -0.49734 -0.40297 -0.0014692 
-0.0083746 0.060186 0.060844 0.086492 -0.0049219 -0.76747 -0.48994 -0.17147 
0.0037921 0.12612 0.015465 0.0421 -0.063946 -0.91972 -0.57889 -0.28738 
0.0062583 0.17626 -0.041257 0.05624 -0.049642 -0.57807 -0.52167 -0.17065 
-0.072989 0.16952 -0.084663 0.066269 0.00050378 -0.1769 -0.30268 0.063474 
-0.12133 0.12266 -0.061973 0.049664 0.0324 0.096193 -0.060658 0.21326 
-0.02942 0.038319 0.00050378 0.068571 0.069393 0.29941 0.078107 -0.10505 
0.10556 -0.014787 0.06742 0.032564 0.10441 0.50575 0.34906 -0.35989 
0.18892 -0.0064016 0.13713 0.028783 0.063145 0.53025 0.71571 -0.17164 
0.19632 -0.0060728 0.11872 0.020727 0.0070803 0.44787 0.78525 0.17643 
0.081724 0.01152 0.099316 -0.025309 -0.0060728 0.52022 0.67838 0.36041 
-0.096336 0.060186 -0.064933 -0.0027845 0.029934 0.62593 0.60242 0.4949 
-0.17312 0.11839 -0.10587 0.01152 0.050979 0.60505 0.41894 0.35202 
-0.067728 0.094548 -0.077428 0.010862 0.034044 0.49062 0.14815 -0.05885 
0.086492 -0.0098543 0.019411 -0.0050863 0.021056 0.33443 -0.19531 -0.2596 
0.13187 -0.072496 0.1026 -0.036325 -0.009361 0.30582 -0.36351 -0.091732 
0.044402 0.021384 0.066434 0.023686 0.046704 0.11395 -0.14089 0.12973 
-0.0073881 0.14206 -0.017582 0.12858 0.15423 -0.12955 0.15176 0.16508 
0.026481 0.15834 -0.042244 0.12924 0.18826 -0.23855 0.23414 0.017438 
0.01563 0.15045 -0.025145 0.14223 0.17034 -0.27242 0.12891 -0.01676 
-0.01528 0.069393 -0.0062372 0.070215 0.11362 -0.22639 -0.094199 -0.095021 
-0.010348 -0.062302 0.043416 -0.0013048 -0.047998 -0.22968 -0.21965 -0.10817 
0.0060938 -0.023665 0.090274 -0.069701 -0.1358 -0.30547 -0.15306 0.0024767 
0.014972 0.0093821 0.08008 -0.063289 -0.13711 -0.21718 0.022535 0.091918 
0.031742 0.025659 0.10754 -0.028104 -0.093048 0.043909 0.14026 -0.0047575 
0.064461 0.036017 0.096357 -0.029913 -0.027282 0.22575 0.16903 -0.24497 
0.12349 0.027796 0.090109 0.021384 0.10655 0.44327 0.1442 -0.30711 
0.15407 0.046868 0.05065 0.10984 0.31749 0.6866 0.19369 -0.24546 
0.12792 -0.013965 0.045389 0.11576 0.34742 0.73922 0.25469 -0.04619 
0.073997 -0.047834 0.10573 0.03536 0.12036 0.5411 0.38359 0.25271 
-0.067728 -0.048492 0.16344 -0.12757 -0.11409 0.37208 0.58746 0.45774 
-0.23313 -0.0029489 0.16015 -0.12609 -0.16457 0.32769 0.68085 0.57299 
-0.29133 0.069886 0.074654 -0.047176 -0.037147 0.46382 0.56329 0.43604 
-0.25121 0.10754 0.02533 0.0059294 0.081889 0.58056 0.50509 0.26669 
-0.12741 0.10392 -0.018404 0.092082 0.14091 0.43686 0.42814 0.21161 
0.06331 0.10721 -0.022843 0.075476 0.11642 0.13236 0.35136 0.091753 
0.10441 0.090438 -0.010512 0.058213 0.061666 -0.065919 0.18251 0.025988 
0.017767 0.053609 0.012177 0.079916 0.00017495 -0.17542 -0.046354 -0.04323 
-0.089595 -0.018897 0.020727 0.011191 -0.056877 -0.2665 -0.34033 -0.22557 
-0.094363 -0.0060728 0.092576 -0.028104 -0.06444 -0.31912 -0.36055 -0.46035 
-0.010348 -0.023172 0.066105 -0.023501 -0.02794 -0.26502 -0.20962 -0.45525 
0.025495 0.019411 0.025495 0.0070803 0.027632 -0.19054 -0.17147 -0.15289 
0.094548 0.10178 -0.0019624 0.049006 0.038648 -0.18512 -0.19811 0.029112 
0.18646 0.10458 0.007738 0.024837 0.064625 -0.080388 -0.087129 -0.017746 
0.27261 0.067749 0.023851 0.037661 0.076299 0.10063 0.083862 -0.10045 
0.2195 0.035688 0.0037921 0.063145 0.03651 0.21161 0.17824 -0.0040998 
0.090767 0.017932 -0.019226 0.054596 -0.0040998 0.15834 0.1373 0.22361 
-0.075455 0.032564 -0.0019624 0.034373 -0.0138 0.033715 0.071202 0.40282 
-0.24628 0.060515 0.02122 0.0036276 0.034209 -0.061809 -0.094034 0.4681 
-0.32257 0.13762 0.027303 0.010204 0.072188 -0.082361 -0.17838 0.40052 
-0.25088 0.11444 0.025988 0.043416 0.093562 -0.12511 -0.10965 0.26291 
-0.10784 0.079258 0.03799 0.019083 0.053938 -0.25746 -0.11475 0.011848 
-0.017746 0.063968 0.048513 0.057391 0.0070803 -0.36515 -0.24891 -0.13316 
0.020069 -0.0027845 0.047855 0.041278 0.0064227 -0.27472 -0.26272 -0.11771 
0.10376 -0.064111 0.068736 0.033222 0.0041209 -0.2522 -0.20074 -0.15536 
0.14519 -0.030406 0.047855 0.03799 -0.012978 -0.37781 -0.085485 -0.1039 
0.16146 0.034209 0.044896 0.034044 -0.012814 -0.31829 -0.031228 0.076463 
0.20849 0.087808 0.025659 0.055582 0.014315 -0.062631 -0.11491 0.22164 
0.21687 0.12316 0.023193 0.047691 0.037661 0.039305 -0.13875 0.10458 
0.25321 0.10951 0.022371 0.049828 0.034866 -0.16884 -0.20616 -0.11343 
0.25617 0.041278 0.046704 0.028783 -0.017582 -0.32208 -0.40938 -0.1838 
0.20882 0.004943 -0.0057439 0.024508 -0.051122 -0.36186 -0.63742 -0.2157 
0.19829 0.033551 0.023686 0.037004 -0.089431 -0.31583 -0.70154 -0.17953 
0.15324 0.053774 -0.0029489 0.069229 -0.093541 -0.27209 -0.68675 -0.11639 
-0.0019624 0.07301 -0.053095 0.097672 -0.029748 -0.27111 -0.50227 0.063968 
-0.22737 0.073832 -0.0091966 0.10967 -0.012156 -0.20288 -0.17542 0.25502 
-0.41217 0.02681 -0.00097594 0.077614 0.068242 -0.084498 0.095371 0.40299 
-0.35019 -0.083183 0.018589 0.065118 0.088794 -0.21471 0.14749 0.34347 
-0.025967 -0.094363 0.053281 0.038319 0.064461 -0.24891 0.14996 -0.0090322 
0.29283 -0.0091966 0.086985 0.043745 0.085835 0.074983 0.085835 -0.56541 
0.21868 0.06183 0.048184 0.06331 0.072353 0.30451 0.029769 -0.8824 
-0.0095255 0.12332 0.032236 0.024179 0.048348 0.10704 0.02122 -0.51247 
-0.058028 0.12924 0.025495 0.0067515 -0.01117 -0.051615 0.063803 0.11346 
0.1493 0.039963 0.050486 0.0042853 -0.098473 -0.089266 0.0047785 0.42042 
0.29941 -0.023665 0.083368 -0.044874 -0.12297 -0.28443 0.033715 0.46185 
0.24976 -0.009361 0.08863 0.0031344 -0.023172 -0.21471 0.21983 0.2999 
0.10244 0.025495 0.04917 0.038319 0.10704 0.34364 0.54619 0.076627 
0.030098 0.097508 -0.022843 0.10047 0.25189 0.77078 0.70962 -0.054904 
0.024837 0.12349 -0.037476 0.14749 0.27968 0.8086 0.66112 -0.12133 
0.08156 0.13401 -0.037805 0.095535 0.22986 0.66704 0.53271 -0.2499 
0.16212 0.099316 0.0072447 0.037168 0.12085 0.50065 0.36632 -0.58251 
0.17593 0.086328 0.027632 -0.013636 0.0227 0.40102 0.22312 -0.69414 
0.086821 0.049828 0.066927 -0.042079 -0.041422 0.11313 0.039799 -0.36351 
0.024344 -0.010512 0.076956 -0.010019 -0.084827 -0.052931 -0.25434 0.021549 
0.0044497 -0.030899 0.065612 -0.037147 -0.012485 -0.064768 -0.46561 0.24762 
0.074819 -0.040764 0.064461 0.004943 0.11444 -0.14221 -0.5613 0.33591 
0.12102 -0.1358 0.055582 0.00033937 0.1202 -0.26585 -0.41563 0.49144 
0.053609 -0.10489 0.077614 -0.012978 -0.012978 -0.2185 -0.14122 0.5457 
0.011026 -0.025145 0.089945 0.029769 -0.10554 -0.16276 0.021056 0.49292 
0.0080668 0.019083 0.048184 0.0421 -0.13991 -0.24677 0.10425 0.43094 
-0.09798 0.067913 0.0079024 0.050157 -0.11837 -0.14665 0.30023 0.20175 
-0.2009 0.12332 0.00017495 0.032236 -0.083512 0.047362 0.62281 -0.16358 
-0.206 0.18432 -0.00081153 0.026646 -0.047505 0.12332 0.57069 -0.42335 
-0.069865 0.14996 -0.02235 0.058213 0.031085 0.27113 0.32423 -0.44095 
0.035688 0.10852 -0.01939 0.053281 0.12957 0.55557 0.24811 -0.26782 
0.11839 0.090109 -0.024652 0.054596 0.14239 0.67888 0.27672 -0.058356 
0.088136 0.079587 0.0024767 0.038155 0.065447 0.48881 0.36452 0.14864 
0.079751 0.026317 0.058213 -0.028597 0.04917 0.40332 0.43324 0.12875 
0.10228 0.023686 0.08863 -0.026624 0.10178 0.52614 0.56066 0.047362 
0.11411 0.01711 0.089123 -0.041422 0.14634 0.57727 0.72672 0.039141 
0.13565 -0.020048 0.054925 0.013164 0.27688 0.78509 0.93569 0.19205 
0.080573 -0.0016336 0.01826 0.092904 0.34035 0.87716 1.0444 0.28067 
0.0013258 0.080409 0.0095465 0.08304 0.28954 0.62347 0.9495 0.033551 
0.0087245 0.11411 0.0056006 0.025166 0.067585 0.0023123 0.42519 -0.21652 
0.028947 0.083533 0.044238 -0.0064016 -0.12462 -0.437 -0.23461 -0.15865 
-0.065591 0.13302 0.031578 0.0087245 -0.17789 -0.55521 -0.61095 0.20898 
-0.13251 0.060679 0.048019 0.032893 -0.15405 -0.57741 -0.69595 0.3928 
-0.098309 0.0036276 0.078107 -0.039778 -0.18956 -0.75415 -0.90229 0.31848 
-0.089266 0.02829 0.097344 -0.043724 -0.21521 -0.61473 -1.0854 0.22 
-0.10456 0.091096 0.030263 -0.006566 -0.1912 -0.41711 -0.93945 0.27146 
-0.027447 0.091589 0.0039565 -0.0072237 -0.12757 -0.30794 -0.69809 0.41959 
0.068242 0.048677 0.017438 0.040456 -0.092883 -0.35167 -0.55554 0.42601 
0.19599 -0.0022913 0.027961 0.030263 0.014808 -0.32323 -0.37272 0.34298 
0.34199 -0.080388 0.069393 0.017438 0.066927 -0.20649 -0.089924 0.18662 
0.26932 -0.09091 0.092082 0.044238 0.062488 0.021384 0.12168 -0.062631 
-0.078086 -0.016102 0.056733 0.028619 0.13434 0.29711 0.10935 -0.30629 
-0.35266 0.071202 0.013164 0.073832 0.2103 0.55392 0.24038 -0.38899 
-0.4661 0.13762 0.02533 0.058213 0.24417 0.61854 0.47665 -0.30876 
-0.36334 0.11921 0.031742 0.02829 0.19435 0.47648 0.4362 -0.29215 
-0.20748 0.099152 0.00033937 0.081889 0.23677 0.26521 0.29119 -0.37584 
-0.16013 0.094713 -0.015116 0.073997 0.28379 0.17166 0.21572 -0.39376 
-0.11146 0.08304 -0.026296 0.075312 0.23644 0.15176 0.17248 -0.13464 
-0.031064 0.10392 -0.024652 0.083204 0.12743 -0.093541 0.063639 0.3295 
0.082382 0.077121 -0.016595 0.06594 -0.065097 -0.41612 -0.092719 0.66901 
0.17495 0.089616 -0.0060728 0.056898 -0.19909 -0.62147 -0.3229 0.83359 
0.19698 0.11428 -0.0040998 -0.023336 -0.21948 -0.5682 -0.35036 0.59059 
0.17445 0.065283 0.039963 -0.040435 -0.21274 -0.41645 -0.20518 0.085012 
0.051308 0.034044 0.06035 -0.053095 -0.15355 -0.2037 -0.091568 -0.15536 
-0.061151 -0.033201 0.09685 -0.024816 -0.069536 0.05476 -0.18216 -0.17673 
0.078929 -0.095021 0.072353 0.047691 0.024673 0.15028 -0.29199 -0.23247 
0.40398 -0.07973 0.047691 0.052294 0.034373 0.14535 -0.47169 -0.3469 
0.62215 -0.021692 0.045718 0.060679 0.050157 0.031414 -0.6412 -0.32915 
0.51315 0.012999 0.068736 0.046046 0.0085601 -0.1547 -0.62361 0.0032988 
0.19747 0.0090533 0.064296 0.011355 -0.0022913 -0.21488 -0.54979 0.49325 
-0.20468 0.04358 0.058049 0.047526 0.014479 -0.24464 -0.51049 0.90215 
-0.45558 0.082875 0.051143 0.031578 0.05065 -0.26354 -0.27785 0.77029 
-0.56031 0.05476 0.044896 0.013328 0.08156 -0.15733 0.041936 0.3318 
-0.50211 0.059035 0.033387 0.047855 0.070708 0.14091 0.34051 -0.15273 
-0.29676 0.081724 0.012013 0.010697 0.0042853 0.3923 0.58697 -0.5003 
-0.049478 0.086492 -0.0055795 0.025166 -0.021363 0.4191 0.84362 -0.66225 
0.13171 0.088301 0.0087245 0.012177 -0.03616 0.37948 0.9107 -0.62657 
0.21687 0.080738 0.03947 0.032071 -0.032543 0.33706 0.6598 -0.37008 
0.2223 0.0062583 0.018754 0.0421 -0.041257 0.49835 0.25321 -0.12462 
0.33821 -0.10719 0.026317 0.0051074 -0.017253 0.5577 -0.18183 -0.17904 
0.55935 -0.099131 -0.0082102 0.059857 0.052952 0.17347 -0.39573 -0.15569 
0.55195 -0.030899 -0.016924 0.049992 0.051636 -0.22113 -0.34756 0.032893 
0.27984 0.025166 0.038155 0.031249 -0.00097594 -0.4125 -0.13218 0.26751 
-0.041257 0.1174 0.026152 0.051965 -0.044874 -0.79509 0.034866 0.414 
-0.23642 0.16788 0.031414 0.0075736 -0.041915 -1.0072 0.010533 0.46547 
-0.27275 0.15374 0.044896 0.047691 -0.023007 -0.95162 -0.060823 0.42387 
-0.26322 0.088465 0.014643 0.084026 0.042429 -0.60289 -0.17328 0.22361 
-0.18824 0.047362 -0.031228 0.094713 0.15374 -0.0054151 -0.29495 -0.12577 
-0.0059084 0.009711 0.014972 0.090274 0.23825 0.31042 -0.40593 -0.31254 
0.21046 -0.095021 0.10145 -0.014458 0.12201 0.24597 -0.27275 -0.28969 
0.25502 -0.10143 0.1567 -0.066741 0.023028 0.31404 -0.073154 -0.1039 
0.20569 -0.0031133 0.14272 -0.004593 -0.0406 0.53501 0.16327 0.072681 
0.062159 0.064625 0.083862 0.039799 -0.069372 0.6506 0.54471 0.039141 
-0.088115 0.12661 0.0080668 0.071366 -0.033859 0.72705 1.0225 -0.15552 
-0.10998 0.14305 -0.037476 0.04358 -0.0138 0.88094 1.3929 -0.22984 
-0.051615 0.11247 -0.037311 0.029605 0.00297 0.87157 1.2451 -0.1353 
0.026974 0.026646 -0.030899 0.0047785 0.015465 0.52087 0.73215 -0.034188 
-0.0095255 -0.01232 -0.068386 -0.03912 0.033058 0.079094 0.31059 0.13894 
0.033058 0.035853 -0.046354 -0.018568 0.068571 -0.16243 0.12875 0.26061 
0.34561 0.062652 -0.018897 0.017767 0.096028 -0.21734 0.090767 0.090438 
0.62117 0.052952 -0.0062372 0.04095 0.055747 -0.26486 0.071859 -0.2596 
0.69943 0.092904 0.0074092 0.089452 0.058542 -0.28344 -0.18939 -0.39392 
0.54093 0.071531 0.033222 0.055582 0.025001 -0.27916 -0.42434 -0.2448 
0.12217 0.024508 0.10524 0.029441 0.012342 -0.32997 -0.27719 0.034044 
-0.29561 0.015959 0.10524 0.039141 0.020233 -0.42171 0.0070803 0.20651 
-0.44637 0.026481 0.091589 0.040456 0.0324 -0.5026 -0.043724 0.27524 
-0.30004 0.065776 0.040128 0.080244 0.048184 -0.44062 -0.26683 0.27064 
0.044402 0.087972 0.054103 0.029605 0.060186 -0.27275 -0.29528 0.018589 
0.23101 0.048184 0.056076 0.01415 0.051636 -0.056219 -0.12577 -0.10702 
0.16459 0.049664 0.053609 0.033551 0.060186 0.083204 0.0227 -0.28771 
0.066434 0.058213 0.048348 0.03651 0.044402 0.13434 0.068571 -0.50605 
-0.012485 0.14371 0.054432 0.08567 0.077285 0.17692 0.13516 -0.37863 
-0.084663 0.13253 0.069722 0.065118 0.08978 0.24252 0.1641 -0.10587 
-0.1792 0.11115 0.03092 0.066763 0.077943 0.27787 0.17084 0.070708 
-0.10341 0.10672 -0.025967 0.053774 0.070708 0.28658 0.20405 -0.12971 
0.066105 0.09422 -0.076606 -0.0044286 0.022864 0.23035 0.21852 -0.32372 
0.098988 0.073504 -0.10291 -0.0057439 -0.018733 0.17215 0.1756 -0.18117 
-0.049478 0.065612 -0.065097 -0.021856 -0.040764 0.099481 0.047526 0.37882 
-0.10489 -0.03353 0.028125 -0.019719 -0.045696 0.047362 -0.01232 0.78657 
-0.068221 -0.096336 0.17396 -0.0055795 -0.0049219 -0.011498 0.0098754 1.0509 
-0.061809 -0.13037 0.28938 -0.018568 0.038812 0.14486 0.244 1.0278 
-0.15141 -0.027282 0.25781 0.0075736 0.13434 0.45198 0.41121 0.7236 
-0.18528 0.0088889 0.11132 0.053938 0.17265 0.47303 0.32012 0.19402 
0.009711 0.048348 0.0028056 0.045553 0.12513 0.32226 0.16919 -0.39475 
0.26159 0.10162 -0.037147 0.060515 0.08008 0.13697 0.011355 -0.74856 
0.37208 0.097179 -0.048656 0.041443 0.023686 -0.10028 -0.29182 -0.7604 
0.27655 0.10343 -0.025309 0.024344 -0.035174 -0.27571 -0.40806 -0.50852 
0.18152 0.10392 0.026481 0.0072447 -0.076771 -0.34263 -0.31057 -0.13925 
0.066598 0.08156 0.068242 -0.0021268 -0.090253 -0.3229 -0.22359 0.20734 
-0.12133 0.0324 0.095042 0.03092 -0.062138 -0.24562 -0.21241 0.48026 
-0.20485 0.041114 0.074654 0.015137 -0.059343 -0.1912 -0.20288 0.52548 
-0.18742 0.097015 0.047033 -0.0004827 -0.028269 -0.16687 -0.18101 0.40118 
-0.26108 0.092411 0.025495 0.045718 -0.017911 -0.16818 -0.17049 0.23348 
-0.31665 0.061172 -0.0032777 0.029934 0.0026412 -0.17328 -0.22885 0.057555 
-0.19614 0.031578 0.0021479 0.078929 0.025166 -0.10916 -0.2476 -0.038791 
0.036346 -0.026953 0.0095465 0.052623 0.024508 -0.026953 -0.20501 -0.0077169 
0.16048 -0.046354 0.032236 0.03536 0.0032988 0.061666 -0.087458 0.16262 
0.10622 -0.047505 0.0786 0.009711 -0.02235 0.067585 -0.11146 0.28626 
0.035524 -0.033201 0.067091 -0.0078813 0.027796 0.08567 -0.18594 0.32128 
0.015301 -0.07973 0.026646 0.025001 0.0421 0.12332 -0.17246 0.25847 
0.11658 -0.10324 0.023193 0.019083 0.043909 0.11099 -0.13711 0.13779 
0.25074 -0.095349 0.076792 -0.01232 0.036017 0.060844 -0.12248 0.18202 
0.32243 -0.01676 0.097015 0.022042 0.050979 0.13286 -0.022843 0.2953 
0.24548 0.14568 0.053445 0.012506 0.065447 0.10589 0.10902 0.28379 
0.0028056 0.23216 -0.0083746 0.024673 0.0421 -0.025145 0.09422 0.026317 
-0.19909 0.159 -0.068221 0.066269 0.064625 -0.15437 -0.12297 -0.31139 
-0.18348 0.08715 -0.1039 0.089287 0.080902 -0.072332 -0.27029 -0.39014 
-0.049149 0.066269 -0.10373 0.13121 0.064296 0.10047 -0.15076 -0.40067 
-0.11541 0.10162 -0.11968 0.0786 0.039305 -0.001798 -0.073647 -0.2374 
-0.33326 0.12151 -0.067235 0.035524 -0.020048 -0.15996 -0.1159 0.0042853 
-0.39688 0.095206 -0.023829 -0.013636 -0.071345 -0.18956 -0.16572 -0.038791 
-0.14895 0.0062583 0.069229 -0.084663 -0.15306 -0.23806 -0.071674 -0.57511 
0.20865 -0.13333 0.13499 -0.061645 -0.15766 -0.24776 0.0023123 -0.89243 
0.33443 -0.12133 0.092576 0.00066819 -0.051944 -0.082032 -0.05885 -0.4952 
0.19862 -0.0027845 0.041443 0.056404 0.029605 0.11987 -0.0075525 0.11494 
0.098988 0.074654 0.034044 0.092576 0.10162 0.23249 0.14223 0.64747 
-0.0049219 0.14371 0.0054362 0.069393 0.1419 0.26028 0.31092 0.95887 
-0.13037 0.22279 -0.068879 0.068078 0.1761 0.31388 0.38014 0.83359 
-0.13267 0.21917 -0.042244 -0.017746 0.10129 0.25863 0.17725 0.55425 
-0.15816 0.19007 -0.011334 -0.043724 0.041936 0.15801 -0.033201 0.25551 
-0.15026 0.11526 -0.02942 -0.0019624 0.048019 0.016616 -0.082196 -0.16638 
0.012177 0.083862 -0.034352 0.01415 0.10359 0.023357 -0.0032777 -0.60799 
0.15193 0.0032988 0.013328 -0.004593 0.13187 -0.00064712 0.056569 -0.80447 
0.2634 -0.021692 0.10606 -0.0054151 0.13154 -0.060494 0.256 -0.67343 
0.35334 0.062981 0.04654 0.037826 0.22065 0.16837 0.37076 -0.41776 
0.41647 0.079587 -0.03353 0.14667 0.34495 0.72754 0.28971 -0.17575 
0.52794 0.048841 -0.080881 0.12579 0.25156 0.65471 0.20043 0.074326 
0.68184 -0.018568 -0.010183 0.034537 0.012999 -0.0073881 0.29398 -0.0016336 
0.54587 -0.010348 0.034209 0.010862 -0.13415 -0.57379 0.19912 -0.21586 
0.10441 0.079751 0.0079024 0.037332 -0.16786 -0.70565 -0.0022913 0.013657 
-0.25795 0.14026 -0.019555 0.082053 -0.19531 -0.41924 0.02533 0.60374 
-0.39902 0.15275 0.06183 0.023522 -0.22441 -0.099953 0.17462 0.65602 
-0.49635 0.085835 0.1197 -0.024487 -0.23559 0.018096 0.17018 0.32259 
-0.50967 0.027796 0.10935 -0.0070593 -0.12429 0.27919 -0.053753 0.071859 
-0.2351 -0.012978 0.080244 0.00017495 -0.029091 0.34627 -0.26601 -0.34033 
0.20175 -0.064604 0.1151 -0.0060728 -0.026296 0.05065 -0.28508 -0.73525 
0.46086 -0.071509 0.13746 -0.033201 0.045553 -0.0044286 -0.063946 -0.74495 
0.42321 -0.052602 0.12266 -0.025474 0.1756 0.47878 0.52548 -0.39031 
0.27425 0.0011614 0.081231 0.0093821 0.30385 0.95871 1.059 -0.082361 
-0.023665 0.0592 0.014808 0.040456 0.3198 1.013 0.99159 0.052952 
-0.16079 0.13943 -0.034023 0.06331 0.31749 0.77243 0.62676 0.17971 
-0.16983 0.17462 -0.0095255 0.062652 0.22213 0.33163 0.4584 0.38721 
-0.13497 0.11691 0.013328 0.04358 0.15226 0.032893 0.58746 0.73428 
-0.10604 0.038483 0.02829 0.064954 0.072024 -0.060987 0.60884 0.84888 
-0.044546 0.037661 0.060515 0.047526 0.024837 -0.17986 0.18662 0.6307 
-0.014951 0.023522 0.052787 0.077943 0.038319 -0.4033 -0.40675 0.33048 
-0.056548 0.034044 0.059035 0.10606 0.034702 -0.75563 -0.60717 0.24088 
-0.11557 0.065118 0.021713 0.07038 0.023357 -0.82354 -0.67836 0.17922 
-0.11376 0.068407 0.021384 0.091096 -0.080881 -0.67195 -0.7775 0.057884 
0.073832 0.042429 0.083204 -0.026131 -0.2476 -0.71815 -0.78753 -0.12807 
0.36221 -0.00031829 0.17412 -0.11311 -0.3372 -0.65633 -0.71026 -0.39277 
0.59815 -0.034188 0.19237 -0.11327 -0.24908 -0.18232 -0.43519 -0.55209 
0.6598 -0.058028 0.14437 -0.066084 0.026646 0.63432 0.046704 -0.47531 
0.54044 -0.069536 0.058706 0.064954 0.25567 1.1379 0.65569 -0.42796 
0.37405 -0.060494 0.013328 0.068736 0.22838 1.0838 1.0258 -0.19548 
0.22411 -0.035174 0.0064227 0.04358 0.060844 0.58894 1.1392 0.14321 
-0.0098543 0.014808 -0.0091966 0.042265 -0.07266 0.19895 1.0641 0.42009 
-0.31451 0.10935 -0.015116 0.065118 -0.063124 -0.029913 0.67016 0.52794 
-0.42237 0.12957 -0.011992 0.053281 -0.081374 -0.1039 0.11494 0.41959 
-0.30004 0.11181 0.049992 0.060679 -0.031886 -0.28295 -0.47186 0.040128 
-0.14714 0.070544 0.031085 0.062981 0.06479 -0.35956 -0.70549 -0.30794 
-0.10768 0.14371 0.066927 0.083697 0.21868 -0.090581 -0.69727 -0.27736 
-0.18495 0.13401 0.0064227 0.098166 0.2565 0.060515 -0.63545 0.014643 
-0.20255 0.11461 -0.0014692 0.0324 0.14568 -0.016102 -0.4564 0.36238 
-0.23017 0.057391 0.081889 -0.011663 0.056733 0.15587 -0.053753 0.70847 
-0.23872 -0.010019 0.070051 0.016288 0.069558 0.47566 0.28313 0.91185 
-0.18561 -0.032872 0.068078 0.072681 0.14108 0.46349 0.5896 0.87765 
0.040292 -0.035667 0.08008 0.058377 0.14272 0.23726 0.68266 0.52844 
0.16196 -0.058356 0.092576 0.0324 0.0090533 0.024015 0.53156 0.17462 
0.14174 -0.034516 0.088465 0.0051074 -0.13218 -0.16588 0.2662 -0.11426 
0.016123 0.026317 0.03388 0.010862 -0.20156 -0.26239 0.10113 -0.12429 
-0.0049219 0.089287 -0.018568 0.040292 -0.16375 -0.25335 -0.13168 -0.0022913 
0.15423 0.047033 -0.01528 0.016945 -0.14171 -0.32947 -0.58201 -0.28081 
0.32078 -0.015444 0.015301 0.0026412 -0.14846 -0.57297 -1.1959 -0.49619 
0.3101 0.011191 0.04506 0.015301 -0.12133 -0.60141 -1.5027 -0.68527 
0.15933 0.078272 -0.00081153 0.070051 -0.03353 -0.36384 -1.1895 -0.63611 
0.062817 0.096686 0.0032988 0.095699 0.043745 -0.28344 -0.62641 -0.2813 
-0.041915 0.13006 0.0041209 0.082053 0.11494 -0.26519 -0.13021 0.16294 
-0.086142 0.10326 -0.03353 0.091096 0.1613 -0.20962 0.044402 0.36945 
-0.04882 0.090931 -0.067235 0.10639 0.18004 -0.069701 0.015301 0.23841 
-0.10719 0.097344 -0.034516 0.051472 0.12447 0.056569 0.062159 0.024673 
-0.15059 0.071531 0.0080668 0.0072447 0.062323 0.17429 0.047855 0.0069159 
-0.098309 0.025495 0.027961 -0.0078813 0.022535 0.30664 0.11066 0.15144 
0.037497 -0.026624 0.085506 -0.014129 0.034209 0.18021 0.19451 0.18596 
0.028125 -0.03912 0.12842 0.026646 0.074654 0.18185 0.16393 0.072681 
0.046046 -0.070687 0.14913 -0.014787 0.041443 0.19106 0.027961 -0.034681 
0.048841 -0.038956 0.088136 0.010204 -0.0029489 0.069229 -0.068057 -0.14681 
-0.074633 0.042758 0.039141 0.035688 -0.0098543 0.062652 -0.081374 -0.23 
-0.094856 0.067256 0.023686 0.032729 0.0051074 0.082382 -0.001798 -0.18495 
0.073997 0.051143 0.034209 0.023851 -0.00031829 0.00099702 0.053609 -0.145 
0.21638 0.056076 0.036346 -0.026789 -0.029584 0.044567 0.1641 -0.009361 
0.11625 0.10425 -0.0078813 -0.015773 -0.10735 0.12694 0.085999 0.12349 
-0.035996 0.094055 -0.021363 -0.00031829 -0.17936 -0.021199 -0.036983 0.21062 
-0.012978 0.062981 0.023686 -0.042737 -0.17657 -0.22359 -0.03912 0.17281 
0.054103 0.046211 0.072024 0.009711 -0.037147 -0.13284 0.20092 -0.031557 
0.050814 0.049664 0.028125 0.039305 0.11937 0.18892 0.32144 -0.17246 
-0.080059 0.090603 -0.013143 0.12447 0.22953 0.24203 0.33673 -0.017253 
-0.21258 0.1368 -0.059343 0.15637 0.25107 0.1151 0.32785 0.27343 
-0.13349 0.083533 -0.028269 0.075148 0.21408 -0.02646 0.34594 0.3581 
0.026152 0.036839 0.034373 0.044238 0.022864 -0.37222 0.06479 0.062488 
0.15423 0.034866 0.10935 -0.015773 -0.12314 -0.60339 -0.31073 -0.42286 
0.20717 -0.0022913 0.11247 -0.042079 -0.092226 -0.49076 -0.36745 -0.64054 
0.20717 -0.013471 0.081889 0.018589 0.076134 -0.18117 -0.25795 -0.54749 
0.14634 -0.055232 0.069064 0.0019835 0.12825 -0.02794 -0.19071 -0.3469 
0.28872 -0.10094 0.058377 -0.012814 -0.076442 -0.087293 -0.17295 -0.019555 
0.51824 -0.15076 0.05772 -0.038298 -0.23855 -0.096994 -0.10045 0.13154 
0.36994 -0.084827 0.030756 -0.02794 -0.22047 0.077943 0.086657 0.18004 
-0.049149 0.090603 -0.015938 0.059035 -0.050629 0.26077 0.25469 0.19879 
-0.30481 0.18448 -0.050793 0.072024 0.14009 0.46037 0.32111 0.21737 
-0.31254 0.19336 -0.073811 0.089945 0.26899 0.53551 0.18399 0.15818 
-0.18348 0.17528 -0.032872 0.10589 0.2611 0.28461 -0.0011404 0.057227 
-0.07003 0.12562 0.046704 0.044238 0.16952 -0.047834 -0.14517 -0.062467 
-0.016595 0.041114 0.081889 0.00050378 0.054432 -0.26667 -0.039613 -0.17443 
0.036017 0.030592 0.085506 -0.062796 -0.015116 -0.279 0.24762 -0.24135 
0.15982 0.073339 0.02829 -0.056219 0.0016547 -0.10045 0.32456 -0.29643 
0.34544 0.10211 -0.031064 0.03947 0.0088889 0.073504 0.18399 -0.46594 
0.38162 0.070544 -0.022514 0.00033937 -0.020048 0.22263 0.17182 -0.57659 
0.20569 0.055747 0.033387 -0.01676 0.005765 0.22296 0.43604 -0.39688 
-0.081045 0.052294 0.03388 0.024508 0.10869 0.1026 0.4653 0.01826 
-0.16917 0.067585 -0.071181 0.083862 0.20142 0.13286 0.23825 0.29513 
-0.13103 0.11954 -0.1353 0.12069 0.1197 0.039141 0.25946 0.37997 
-0.10521 0.1659 -0.20797 0.097179 -0.03912 -0.37962 0.24433 0.4556 
-0.058028 0.12464 -0.15289 0.045389 -0.18232 -0.56985 0.24959 0.53436 
-0.044874 0.088136 -0.026953 0.024179 -0.14434 -0.025967 0.30303 0.60752 
-0.018239 0.012835 0.12201 -0.042244 -0.072003 0.42173 0.20816 0.28773 
0.10063 -0.10127 0.27573 -0.062467 -0.054904 0.29727 -0.1912 -0.068221 
0.25962 -0.18019 0.30286 -0.15339 0.019411 0.40332 -0.47547 -0.022843 
0.31667 -0.14878 0.22624 -0.10571 0.22 1.0973 -0.20041 0.42009 
0.15999 -0.065755 0.1031 0.036346 0.46251 1.5598 0.42535 0.70699 
-0.26486 0.14124 -0.055561 0.17051 0.54734 1.4214 0.92517 0.82964 
-0.6777 0.3101 -0.21011 0.22509 0.35761 0.78098 1.0452 0.67049 
-0.7923 0.32358 -0.18808 0.14404 0.05213 -0.11097 0.81682 0.23562 
-0.66438 0.23742 -0.054904 0.048348 -0.19992 -0.84656 0.25666 0.0062583 
-0.22145 0.10047 0.087808 0.0079024 -0.25993 -1.0203 -0.21965 -0.24217 
0.50082 -0.017417 0.18547 0.012177 -0.16292 -0.75531 -0.4416 -0.60717 
1.036 -0.11722 0.15834 0.049664 -0.08121 -0.45525 -0.40823 -0.72061 
1.1557 -0.1501 0.08567 0.091425 -0.026296 -0.090417 -0.36285 -0.62016 
0.78723 -0.13382 0.051143 0.092411 0.00083261 0.13401 -0.2933 -0.37304 
0.26916 -0.11245 0.050157 0.13499 0.034044 0.2805 -0.053588 -0.10045 
-0.16572 -0.024487 0.12036 0.060844 0.051143 0.34561 0.16064 0.14338 
-0.33309 0.07301 0.2685 -0.020706 0.0088889 0.2514 0.2075 0.37734 
-0.33671 0.033715 0.38014 -0.057205 0.047855 0.19698 0.19747 0.66375 
-0.27555 0.052294 0.33328 -0.05885 0.095042 0.26718 0.12694 0.76421 
0.059857 0.08419 0.1202 0.0062583 0.075312 0.19977 -0.013636 0.40381 
0.51594 0.066105 -0.074633 0.0018191 0.046211 0.01826 -0.16966 -0.06444 
0.71603 0.0023123 -0.14895 0.042923 0.045389 -0.015116 -0.17065 -0.24793 
0.41581 -0.039778 -0.11261 0.069886 0.011684 0.016616 -0.096994 -0.21027 
-0.14599 0.021056 -0.069208 0.025659 -0.033859 -0.045039 0.027139 -0.031064 
-0.43618 0.065283 -0.00064712 0.051472 -0.043395 -0.033859 0.060022 0.13286 
-0.25088 0.10014 0.017274 0.021713 -0.042408 0.024344 0.11526 0.25206 
0.086657 0.091425 0.058706 0.023851 -0.02498 -0.021199 0.15538 0.22394 
0.29119 0.013164 0.058213 0.03799 -0.038133 -0.071345 0.14174 0.077121 
0.14946 -0.008539 0.081067 0.036182 -0.045532 -0.067564 0.14913 0.098988 
-0.13596 0.045718 0.13236 0.045718 -0.0062372 -0.027118 0.049992 0.015959 
-0.26141 0.11148 0.14289 0.035853 0.0324 0.027632 -0.121 -0.27078 
-0.29248 0.082382 0.14075 0.061172 0.067585 0.16114 -0.1746 -0.49586 
-0.29034 0.04654 0.10836 0.074326 0.060844 0.25978 -0.031064 -0.32487 
-0.20337 0.057227 0.079094 0.049335 0.027961 0.1641 0.22164 -0.003771 
-0.014458 0.04917 0.027303 0.048513 -0.021199 -0.098309 0.31059 0.064461 
0.18037 0.0079024 0.031249 -0.0014692 -0.094199 -0.30761 0.17001 0.058542 
0.25765 0.0047785 0.038155 -0.016595 -0.10242 -0.44539 -0.062302 0.050486 
0.31618 -0.029748 0.039141 0.0044497 -0.10637 -0.5391 -0.25976 0.027961 
0.3609 -0.031886 0.039141 -0.016924 -0.072003 -0.4809 -0.36745 0.20816 
0.36468 -0.011334 0.035195 0.0019835 -0.028926 -0.25615 -0.35249 0.50673 
0.23825 0.049006 -0.030735 0.050157 0.051636 -0.049314 -0.40593 0.71143 
0.24038 0.032071 -0.057041 0.039963 0.069229 -0.048656 -0.41678 0.39428 
0.38063 0.025659 -0.036818 0.054925 0.018425 -0.1889 -0.5128 -0.46939 
0.32095 0.049006 -0.021692 -0.0062372 -0.051287 -0.39097 -0.69513 -1.0595 
-0.13497 0.027303 -0.033859 -0.012814 -0.050958 -0.50803 -0.80512 -0.98779 
-0.53499 0.0051074 -0.02087 0.0047785 -0.082525 -0.53844 -0.73574 -0.54864 
-0.43667 0.014808 0.0021479 -0.021034 -0.13053 -0.52463 -0.45295 -0.13547 
-0.27555 0.038155 0.030263 0.022864 -0.073154 -0.18397 -0.043066 0.29826 
-0.30679 0.0689 0.009711 0.027961 0.015137 0.21753 0.042758 0.55869 
-0.3007 0.075476 -0.01676 0.037332 0.092082 0.25239 -0.033037 0.44409 
-0.3035 0.081724 -0.049478 0.015959 0.072188 0.17906 0.1322 0.19501 
-0.21767 0.15653 -0.062302 0.016945 0.14338 0.34232 0.48651 0.10556 
-0.025474 0.19172 -0.076113 0.062652 0.11411 0.33558 0.49966 0.12776 
0.16525 0.2052 -0.066906 0.067256 -0.0095255 -0.0055795 0.26505 -0.036818 
0.24976 0.1664 -0.033201 0.070215 -0.046025 -0.21258 0.12168 -0.093212 
0.26685 0.12644 -0.025638 0.064461 -0.052931 -0.085649 0.12677 -0.16835 
0.13384 0.087972 0.0064227 0.010369 -0.04323 0.06479 0.090109 -0.17756 
-0.092883 -0.018404 0.00033937 -0.02646 -0.046354 -0.024487 0.030427 -0.059507 
-0.34115 -0.0042642 -0.077593 -0.047341 -0.032543 -0.13086 -0.044052 0.33163 
-0.33441 0.072188 -0.12609 -0.035338 0.016616 -0.10784 -0.08384 0.60061 
-0.20205 0.10063 -0.13908 0.027468 0.11757 0.039799 0.080409 0.51841 
-0.15881 0.090274 -0.13251 0.048841 0.22279 0.14289 0.1664 0.3267 
-0.14007 0.072517 -0.12955 0.073504 0.23611 0.16508 0.014808 -0.0022913 
0.11247 0.046868 -0.083183 0.095535 0.25403 0.19944 -0.26371 -0.49422 
0.3466 0.038483 -0.05589 0.098001 0.33246 0.23085 -0.3908 -0.83998 
0.40266 0.047033 0.011848 0.099645 0.32851 0.17149 -0.33441 -0.8459 
0.44327 -0.049478 0.13664 -0.046683 0.17939 0.011848 -0.17789 -0.41415 
0.47451 -0.19022 0.20158 -0.10883 -0.018568 -0.19663 -0.17098 -0.0054151 
0.25189 -0.15964 0.13088 -0.056877 -0.10423 -0.11097 0.035195 0.19566 
-0.13678 0.0047785 0.091096 -0.042737 -0.10258 0.13302 0.29086 0.39378 
-0.41053 0.14305 0.029769 0.033551 -0.038462 0.33213 0.42946 0.55655 
-0.45542 0.20043 -0.042901 0.090274 0.028947 0.23266 0.38786 0.67082 
-0.43733 0.17067 -0.098473 0.13335 0.033715 -0.081868 0.31585 0.71538 
-0.30547 0.14946 -0.08532 0.12102 0.0060938 -0.40132 0.2394 0.45938 
-0.12067 0.085999 -0.077922 0.068736 0.023357 -0.48139 0.37833 -0.013471 
0.13713 0.025166 -0.052931 0.011355 0.045718 -0.35759 0.43423 -0.57445 
0.28017 0.070708 -0.0138 -0.0082102 0.071366 -0.15076 0.34216 -0.77092 
0.0019835 0.11181 -0.012156 -0.0049219 0.092904 0.098166 0.34627 -0.76583 
-0.30021 0.14667 -0.082361 0.030098 0.098823 0.45018 0.49194 -0.54946 
-0.05885 0.098823 -0.1182 0.019576 0.1202 0.87437 0.48816 -0.11327 
0.47155 0.01826 -0.0095255 -0.010512 0.14042 0.98765 0.35498 0.47319 
0.78098 -0.047012 0.14815 0.023357 0.17445 0.85266 0.30516 0.78509 
0.62018 -0.047669 0.23594 0.032071 0.22542 0.69285 0.32851 0.94638 
0.25502 0.017932 0.20964 0.11346 0.23825 0.4875 0.20586 0.86072 
0.15883 0.059364 0.10885 0.093069 0.23019 0.47878 0.11148 0.16262 
0.31322 0.092904 0.050486 0.078272 0.15538 0.47993 0.1516 -0.37107 
0.21885 0.17084 0.11313 0.047526 0.024179 0.20701 0.2463 -0.37765 
-0.17772 0.12003 0.22394 -0.041422 -0.087458 -0.20452 0.14009 -0.25795 
-0.4878 0.017438 0.31207 0.0011614 -0.085485 -0.38603 -0.10324 -0.23822 
-0.44999 -0.10061 0.33788 -0.036818 0.01004 -0.25434 -0.28508 -0.22211 
-0.24809 -0.20518 0.33196 -0.0095255 0.050814 -0.14813 -0.23921 -0.22836 
0.0019835 -0.20189 0.29464 -0.0073881 0.056404 -0.13267 -0.17904 -0.31649 
0.2218 -0.11475 0.20668 0.0056006 0.041443 -0.24513 -0.21866 -0.27472 
0.30401 -0.018075 0.069229 0.069886 -0.026789 -0.26963 -0.21833 -0.14023 
0.23414 0.060186 -0.05885 0.08304 -0.014129 -0.21159 0.039634 0.10096 
0.088794 0.18366 -0.044217 0.027139 -0.024816 -0.1039 0.37635 0.47007 
0.076956 0.19879 -0.031886 0.043087 -0.075949 -0.031064 0.34298 0.64271 
0.10754 0.13976 -0.013636 -0.015116 -0.093705 -0.052766 0.092247 0.64123 
0.1026 0.074654 0.047526 -0.034188 -0.091897 -0.055561 -0.039613 0.31667 
0.046211 0.038483 0.087972 -0.038298 -0.013636 0.049335 -0.0049219 0.029112 
-0.071674 0.056898 0.099316 -0.011005 0.0026412 0.14617 -0.047669 -0.059178 
-0.10505 0.088958 0.082217 0.035031 0.021384 0.25008 -0.082032 0.0592 
-0.04882 0.053938 0.056733 0.018754 0.012342 0.32111 -0.18052 0.27261 
0.10589 0.054267 0.085341 0.02122 -0.014787 0.31996 -0.30958 0.14141 
0.20635 0.06479 0.092904 0.023193 -0.014622 0.23167 -0.22277 -0.12149 
0.070544 0.063968 0.14174 0.024673 0.020069 0.36172 0.023193 -0.1815 
-0.085156 0.074326 0.1756 0.045553 0.0069159 0.54291 0.26817 -0.22409 
-0.058521 0.034702 0.14091 0.064625 -0.013471 0.4339 0.33525 -0.35759 
0.080738 -0.037147 0.11099 0.1225 0.0082312 0.19385 0.244 -0.44144 
0.16952 0.0085601 0.1345 0.12118 0.017932 0.1396 0.40019 -0.22704 
0.19813 -0.0062372 0.10951 0.019247 0.0046141 0.1031 0.41943 -0.038462 
0.28773 -0.03764 0.1008 -0.010183 -0.01117 -0.12757 0.15324 0.042758 
0.15966 -0.022843 0.088136 -0.031064 0.010533 -0.27686 -0.14073 0.14453 
-0.069865 -0.0032777 0.08715 -0.0067304 0.015137 -0.21438 -0.21389 0.15341 
-0.1672 -0.011992 0.090603 0.036017 0.042429 -0.20682 -0.18101 0.21802 
-0.22228 -0.052437 0.12069 0.026481 0.015959 -0.14747 -0.14385 0.42173 
-0.23165 0.021713 0.10573 0.03092 -0.023665 -0.12889 -0.22606 0.67773 
-0.17443 0.039305 0.037661 0.016945 -0.083676 -0.32405 -0.32487 0.71275 
-0.1598 0.067256 -0.0047575 -0.015116 -0.13991 -0.55538 -0.41382 0.60078 
-0.16161 0.089287 -0.026624 -0.051615 -0.20123 -0.81565 -0.7512 0.095699 
0.00099702 0.10967 -0.043724 -0.052602 -0.22803 -0.7438 -0.91643 -0.57741 
0.13072 0.098001 -0.078086 0.0065871 -0.16473 -0.37354 -0.57182 -0.76303 
0.064954 0.11132 -0.092554 0.071202 -0.017088 0.16278 -0.00031829 -0.54025 
-0.011498 0.096686 -0.10669 0.086163 0.1105 0.59157 0.35514 -0.25105 
-0.028104 0.095206 -0.1039 0.11987 0.1807 0.54932 0.34627 -0.11294 
-0.0087034 0.075805 -0.11278 0.10524 0.20964 0.21079 0.27064 -0.050464 
0.045718 0.097672 -0.090253 0.099974 0.19385 -0.00064712 0.16623 0.10474 
0.088794 0.058213 -0.077593 0.070873 0.14272 -0.064933 0.063474 0.21589 
0.12069 0.071366 -0.098144 0.027796 0.017603 -0.11015 0.048677 0.21441 
0.22641 0.079751 -0.081868 0.022864 -0.077264 -0.15043 0.072353 -0.086307 
0.36912 0.05065 -0.040106 -0.038462 -0.071345 -0.24086 -0.012156 -0.45213 
0.36106 -0.031721 -0.022021 -0.035667 -0.047669 -0.36565 -0.083347 -0.50425 
0.22345 -0.034188 -0.037476 0.0011614 0.062159 -0.32306 -0.083676 -0.11343 
-0.052931 0.0036276 -0.047834 0.012506 0.065283 -0.092061 -0.046847 0.50345 
-0.29002 0.018589 -0.065097 0.051308 0.022535 0.041936 -0.1723 0.71718 
-0.26354 0.034209 -0.032543 0.033551 -0.063946 -0.16046 -0.376 0.60785 
-0.10982 0.02681 -0.018733 0.0034632 -0.11459 -0.54979 -0.59681 0.26357 
-0.17328 0.052459 -0.055561 0.05624 -0.088444 -0.55883 -0.64942 -0.04619 
-0.17197 0.12497 -0.10242 0.089945 0.015959 -0.35545 -0.3492 -0.17887 
0.17166 0.13171 -0.10127 0.076627 0.12924 -0.2305 -0.046519 -0.34641 
0.58417 0.009711 -0.035174 0.041278 0.13631 0.024673 0.021549 -0.55505 
0.73313 -0.06148 -0.0016336 0.031085 0.1539 0.28165 0.22279 -0.49208 
0.46793 -0.040435 0.040621 0.0075736 0.17248 0.53485 0.58993 -0.022185 
0.095371 -0.0062372 0.051308 -0.011334 0.17281 0.77259 0.93487 0.34594 
-0.24151 0.03651 0.064625 -0.0034422 0.19632 0.69762 1.1118 0.42913 
-0.34279 0.082875 0.070215 0.0013258 0.21227 0.45642 0.9643 0.26899 
-0.3109 0.099481 0.044073 -0.0060728 0.17347 0.26965 0.74086 0.19928 
-0.30415 0.1031 -0.0049219 0.036346 0.18037 0.11937 0.42107 0.12447 
-0.28821 0.16459 -0.078579 0.077121 0.18695 -0.0070593 0.1641 0.038648 
-0.32339 0.24433 -0.10834 0.091096 0.1659 0.024673 0.066598 0.23463 
-0.34871 0.22033 -0.11031 0.12825 0.10293 0.12349 0.012342 0.48996 
-0.24562 0.15982 -0.063124 0.12677 0.077614 0.060515 -0.157 0.49095 
0.047526 0.093891 -0.0067304 0.097015 -0.019061 -0.26124 -0.36696 0.29431 
0.32769 -0.013143 0.095699 0.00099702 -0.12889 -0.54666 -0.49816 0.08978 
0.40578 -0.089595 0.1368 -0.04471 -0.15816 -0.49109 -0.50984 -0.091897 
0.39395 -0.10505 0.13335 -0.01939 -0.1085 -0.12067 -0.40165 -0.36334 
0.58171 -0.1136 0.12381 -0.039778 -0.028926 0.031907 -0.30695 -0.43026 
0.76355 -0.15881 0.12349 -0.013307 -0.019555 -0.24234 -0.3178 -0.10719 
0.65882 -0.11755 0.055747 0.013328 -0.033037 -0.42237 -0.21521 0.034537 
0.42765 -0.024652 0.032729 0.016123 0.005765 -0.25483 -0.09798 -0.59319 
0.244 -0.034023 0.048184 0.047855 0.03092 0.0064227 -0.016924 -1.1617 
-0.018239 -0.013471 0.082382 0.011355 -0.0014692 0.17939 0.092576 -0.96066 
-0.2305 0.074326 0.087972 0.0088889 -0.021199 0.35498 0.3124 -0.30185 
-0.33671 0.15111 0.0786 -0.0016336 -0.021034 0.4482 0.63925 0.23989 
-0.26174 0.13878 0.1197 -0.052766 -0.041422 0.46793 0.78575 0.56362 
-0.12166 0.074983 0.13154 -0.016266 -0.011498 0.55376 0.74727 0.72475 
-0.03205 0.062323 0.11395 0.0062583 0.20964 0.93405 0.57858 0.6991 
-0.032872 0.079916 0.065776 0.069558 0.3974 1.1119 0.34364 0.48092 
-0.048163 0.10491 0.038155 0.10902 0.34002 0.81814 0.27179 0.12562 
0.049992 0.15308 0.040292 0.069886 0.11231 0.23677 0.21786 -0.26322 
0.12332 0.1276 0.037168 0.082875 -0.095843 -0.30284 0.21556 -0.34986 
0.085835 0.10951 0.031742 0.026317 -0.15059 -0.62427 0.22098 0.06183 
-0.056383 0.11 0.062323 0.0085601 -0.089759 -0.63512 0.11033 0.46201 
-0.27867 0.094384 0.055747 0.0075736 -0.29281 -0.38488 0.11576 0.56 
-0.38011 -0.01232 0.10819 -0.037311 -0.35923 -0.085485 0.066927 0.33426 
-0.33424 -0.11097 0.081231 -0.019555 -0.29018 0.17166 -0.16342 0.069886 
-0.12116 -0.048985 0.066763 0.038977 -0.025145 0.37866 0.027961 -0.055726 
0.12085 -0.0057439 0.038155 0.09981 0.17971 0.39904 0.4436 -0.12889 
0.2611 0.029441 0.036182 0.14782 0.30977 0.39066 0.81633 -0.16407 
0.30204 0.058542 0.043087 0.10951 0.37093 0.2976 0.60325 -0.11837 
0.29809 -0.0075525 0.08715 0.025495 0.34314 0.10491 0.10408 -0.22293 
0.10244 -0.069372 0.1174 -0.010676 0.20273 -0.13218 -0.36301 -0.26239 
-0.16966 -0.047012 0.11083 -0.021692 0.10787 -0.20353 -0.68148 -0.24266 
-0.30004 -0.0062372 0.083533 -0.0011404 0.040456 -0.1866 -0.81038 -0.19696 
-0.11459 0.052459 0.046211 0.016781 -0.01939 -0.11031 -0.81088 -0.25352 
0.12562 0.089945 0.029769 0.029605 -0.11409 -0.08384 -0.89555 -0.38044 
0.22509 0.12792 0.029769 0.045224 -0.15684 -0.035503 -0.90328 -0.40264 
0.24137 0.091096 0.042923 0.030263 -0.084005 0.072024 -0.6948 -0.2157 
0.1345 0.089123 0.044073 0.055254 -0.031228 0.10655 -0.36351 0.16492 
0.0090533 0.09981 0.029441 0.0067515 -0.030899 0.076792 -0.050793 0.46103 
-0.14303 0.095042 0.037332 0.00066819 -0.081539 0.18169 0.20487 0.62248 
-0.29495 0.070215 0.029605 0.027303 -0.035174 0.16558 0.34396 0.61656 
-0.39097 0.089123 0.012999 0.038812 0.025988 0.062488 0.42995 0.53567 
-0.33227 0.039799 0.009711 0.037332 0.0031344 -0.2203 0.37635 0.41581 
-0.17114 0.0037921 0.037332 0.030263 -0.028762 -0.34181 0.28017 0.26784 
-0.067564 0.0054362 0.05476 0.043087 -0.042901 -0.29462 0.023357 0.11592 
0.041443 0.011191 0.08567 0.019247 -0.026296 -0.34888 -0.42434 0.00050378 
0.076299 -0.0042642 0.067913 0.01711 0.012342 -0.41135 -0.68477 -0.096172 
0.033551 0.023193 0.028783 0.025495 0.084684 -0.53417 -0.55143 -0.10571 
0.069886 0.090767 0.019905 0.045718 0.11198 -0.67129 -0.46298 -0.0021268 
0.13828 0.075805 -0.034352 0.077614 0.13779 -0.38833 -0.32027 0.030592 
0.21112 0.05772 -0.056877 0.14683 0.15111 0.15489 -0.021199 0.019083 
0.25107 0.048677 -0.047176 0.10622 0.18004 0.47615 0.36912 -0.026953 
0.28576 0.028125 0.017274 0.019905 0.13368 0.69696 0.54027 -0.17558 
0.17922 -0.0031133 0.083862 -0.012978 0.050486 1.0861 0.56839 -0.29692 
-0.003771 -0.013307 0.098494 -0.03616 0.055911 1.1491 0.79216 -0.182 
-0.09946 0.054432 0.041443 -0.014293 0.065118 0.84378 0.98748 -0.0095255 
-0.1649 0.077943 0.040292 -0.043724 0.06331 0.49802 0.83491 0.17445 
-0.35151 0.15653 0.017438 -0.047505 0.069722 0.23989 0.28149 0.3244 
-0.31402 0.15949 0.0093821 -0.031721 0.039141 -0.022843 -0.35233 0.35153 
-0.017253 0.043745 0.033551 -0.036325 -0.015116 -0.31895 -0.94159 0.20092 
0.090438 -0.061645 0.045553 0.012177 -0.080717 -0.70434 -1.5078 0.10491 
0.048841 -0.091404 0.032236 0.037497 -0.079072 -0.8944 -1.4807 0.22279 
0.066434 -0.022843 -0.0082102 0.097508 0.0085601 -0.67474 -0.88519 0.30697 
0.10885 0.066927 -0.035174 0.15324 0.07597 -0.50425 -0.21192 0.26143 
0.10228 0.059693 -0.022185 0.10195 0.058871 -0.46923 0.10984 0.010862 
0.071531 0.04654 -0.024487 0.028125 -0.0032777 -0.47991 0.21112 -0.076277 
0.045718 0.079422 0.0072447 0.028783 -0.034516 -0.27834 0.34627 -0.13284 
0.20619 0.073175 0.027303 -0.024158 -0.022843 0.043745 0.42798 -0.23214 
0.30286 0.078765 0.052787 -0.0082102 0.023851 0.24926 0.43604 -0.10604 
0.34396 0.055582 0.06035 -0.04471 -0.029748 0.2394 0.3826 0.057062 
0.38819 0.050814 0.069229 -0.048656 -0.10637 0.10589 0.31601 -0.02087 
0.41203 0.046211 0.06035 0.010697 -0.074633 0.12825 0.35021 -0.077593 
0.41236 0.047362 -0.010512 0.04506 -0.024487 0.21079 0.41581 0.01004 
0.34331 0.075148 -0.052109 0.095371 0.015301 0.19698 0.31815 0.035853 
0.16771 0.077285 -0.046354 0.060679 0.031742 0.18991 0.17001 -0.24562 
0.061995 0.067585 -0.025309 0.049664 0.040128 0.068078 0.11444 -0.42138 
-0.010676 0.0041209 0.025988 0.024508 -0.021363 -0.084169 0.13795 -0.37288 
-0.19268 -0.0067304 0.025166 -0.043395 -0.10817 -0.14829 0.055089 -0.18578 
-0.32816 0.076134 0.02122 0.00099702 -0.13201 0.0093821 -0.00081153 0.080409 
-0.22836 0.08863 0.026481 -0.019061 -0.036654 0.21704 0.15916 0.27836 
-0.082032 0.10688 -0.017582 -0.01232 -0.006566 0.29415 0.21079 0.31421 
0.049992 0.12464 -0.058356 -0.0047575 0.037168 0.35005 0.067913 0.30434 
0.090767 0.11033 -0.089924 -0.010512 0.080573 0.19829 0.0786 0.36665 
0.071202 0.046375 -0.16259 0.010369 0.10293 -0.13415 0.2343 0.37931 
-0.085156 -0.010676 -0.1358 -0.0047575 0.13845 -0.099295 0.42962 0.36205 
-0.27982 -0.032215 -0.082361 0.012177 0.17741 0.24959 0.57266 0.53057 
-0.34822 -0.016431 -0.0040998 0.094548 0.16804 0.39723 0.56296 0.59042 
-0.22293 0.092576 0.053609 0.1026 0.12398 0.10425 0.44343 0.17462 
0.032071 0.14289 0.13286 0.088136 0.025824 -0.3839 0.34298 -0.45426 
0.28182 0.10458 0.19912 0.036839 -0.042079 -0.68296 0.17314 -0.80841 
0.45905 0.054432 0.17955 0.023028 -0.07562 -0.58843 -0.08532 -0.77175 
0.46168 0.055089 0.10195 0.12184 -0.041915 -0.34542 -0.25204 -0.47876 
0.24614 -0.0031133 0.13171 0.089123 -0.019719 -0.15651 -0.32487 -0.029255 
-0.013143 -0.036818 0.14946 0.096357 0.020562 0.041936 -0.24793 0.38277 
0.01004 -0.044052 0.22838 0.064132 0.04654 0.15818 -0.17197 0.34314 
0.21556 -0.095843 0.27754 0.0026412 0.028125 0.21638 -0.1672 0.10573 
0.37241 -0.17904 0.31815 -0.029255 0.016616 0.16229 -0.076113 -0.15437 
0.35662 -0.21356 0.30681 -0.11278 0.0028056 0.036839 -0.028104 -0.32915 
0.0080668 -0.077757 0.22 -0.10242 0.027139 0.12562 0.061172 -0.28179 
-0.45722 0.016781 0.023686 -0.017253 0.099974 0.25058 0.20191 -0.32619 
-0.71963 0.13203 -0.13349 0.023193 0.069393 0.25271 0.31092 -0.31057 
-0.66455 0.23808 -0.25812 0.072353 0.025988 0.091589 0.31075 -0.27703 
-0.40165 0.2514 -0.3224 0.098494 0.018754 0.013986 0.24038 -0.17969 
-0.14106 0.24252 -0.23461 0.09981 0.066105 -0.0013048 0.256 0.16706 
-0.0075525 0.18333 -0.145 0.1636 0.040456 -0.11935 0.14881 0.33558 
0.065118 0.086821 -0.052273 0.03799 -0.013143 -0.23576 -0.083676 0.13056 
0.058542 0.017603 -0.027118 0.023028 -0.018568 -0.18167 -0.34888 0.0088889 
0.19254 -0.025474 0.046046 0.025988 0.0227 -0.07562 -0.49981 0.19829 
0.41795 -0.066741 0.19796 -0.054904 0.034044 0.011191 -0.41185 0.39904 
0.52055 -0.12708 0.28757 -0.04471 0.0093821 0.13894 -0.081539 0.39543 
0.34051 -0.064111 0.27836 0.0028056 0.097837 0.29185 -0.033694 0.48076 
0.11083 0.058377 0.14815 0.11148 0.27869 0.41927 -0.14878 0.58089 
-0.11459 0.077943 0.095206 0.14469 0.30286 0.33328 -0.033365 0.37126 
-0.23296 0.081395 0.12858 0.056569 0.11691 -0.01939 0.29332 -0.21767 
-0.074633 0.083204 0.15735 0.019247 -0.022185 -0.30942 0.36485 -0.43667 
0.13006 0.093891 0.050979 0.031249 -0.021528 -0.15289 0.10885 -0.20896 
0.26537 0.062323 -0.098309 0.092411 0.036839 0.2126 -0.10883 -0.17789 
0.30598 0.004943 -0.18578 0.15357 0.090931 0.40776 -0.097651 -0.24184 
0.17528 -0.028926 -0.12922 0.049499 0.056733 0.42124 -0.010676 -0.24579 
-0.12988 -0.07414 -0.097816 0.022042 0.024015 0.20027 -0.014951 -0.25713 
-0.4786 0.0047785 -0.043395 -0.010183 0.020069 -0.094527 0.055911 -0.12001 
-0.55061 0.14404 0.010369 0.011355 0.037004 -0.28854 0.18876 -0.033365 
-0.31501 0.21556 0.0065871 0.026481 0.0074092 -0.33835 0.085835 -0.02235 
-0.22704 0.24893 -0.031392 0.046868 -0.0039354 -0.27456 -0.25253 -0.027282 
-0.2887 0.19205 -0.0078813 0.075805 -0.02942 -0.19597 -0.44654 -0.18479 
-0.2596 0.055911 0.049006 0.050157 -0.07562 -0.080552 -0.44243 -0.32569 
-0.080881 -0.091075 0.15012 -0.016266 -0.10752 0.088465 -0.55571 -0.31336 
0.16179 -0.145 0.22789 -0.04471 -0.1256 0.29908 -0.46084 -0.11985 
0.33755 -0.091239 0.19205 -0.064768 -0.059836 0.47665 0.01267 0.25666 
0.51249 0.00099702 0.08304 -0.003771 0.10852 0.66523 0.67131 0.7111 
0.49029 0.05476 -0.048492 0.081067 0.23726 0.75204 0.91941 1.0633 
0.28938 0.073997 -0.068386 0.1151 0.27327 0.64106 0.80005 1.1919 
0.15834 0.052294 0.031085 0.092247 0.19862 0.24844 0.46678 1.0786 
-0.035996 0.068242 0.058871 0.043251 0.12201 -0.084663 0.16541 0.68397 
-0.27144 0.10902 0.023686 0.059528 0.063803 -0.23148 -0.082196 0.33147 
-0.39376 0.13351 -0.0021268 0.056404 0.0052718 -0.39129 -0.28179 0.14946 
-0.22885 0.095042 -0.083347 -0.0024557 -0.054575 -0.28344 -0.33671 0.15094 
0.069558 0.085835 -0.13662 0.019905 -0.033201 0.057555 -0.16786 0.080902 
0.26044 0.16722 -0.18643 0.025824 -0.014622 0.26998 0.028619 -0.24891 
0.36616 0.1516 -0.15273 0.039634 -0.032215 0.35301 -0.020377 -0.61325 
0.69055 0.054432 -0.059014 0.055911 -0.045368 0.45741 -0.19005 -1.1959 
0.74908 -0.038298 0.0037921 0.04358 -0.013307 0.31503 -0.20567 -1.262 
0.44574 -0.13695 0.0072447 -0.0034422 -0.048492 -0.14796 -0.19548 -0.65929 
0.1105 -0.10406 0.033715 -0.0054151 -0.037311 -0.62723 -0.24628 -0.16375 
-0.17246 0.050979 0.0082312 0.024673 0.023522 -0.75974 -0.2767 0.1539 
-0.42911 0.10145 0.04095 0.053281 -0.07266 -0.83883 -0.33901 0.33525 
-0.49701 0.086163 0.057227 0.028619 -0.030406 -0.60881 -0.33687 0.33262 
-0.48896 0.062159 0.091096 0.009711 0.0074092 -0.12297 -0.1912 0.27064 
-0.279 0.0087245 0.17824 -0.053753 -0.03205 0.074161 -0.087129 0.21457 
-0.043066 0.0036276 0.15752 -0.014293 -0.016595 -0.013307 -0.070852 0.18876 
0.075476 0.020562 0.10425 0.04654 0.046375 0.10491 0.03388 0.20503 
0.11444 0.065447 0.046375 0.037497 0.12069 0.51183 0.2999 0.39148 
0.12431 0.021549 0.077614 0.019905 0.08156 0.80416 0.81781 0.52548 
0.2371 -0.0096899 0.11691 -0.03205 0.054267 0.7966 1.1494 0.43423 
0.24828 0.071037 0.1128 -0.050464 0.0044497 0.50476 1.1577 0.29316 
0.15735 0.10655 0.094713 -0.022021 -0.031557 0.15259 0.80531 0.1493 
0.10474 0.10293 0.060679 -0.043888 0.0088889 -0.023829 0.39444 -0.059836 
0.0060938 0.064132 0.063474 -0.036983 0.087314 -0.03501 0.2052 -0.17147 
-0.18052 0.02122 0.088136 0.0227 0.15324 0.0039565 0.037168 -0.026131 
-0.036818 -0.045861 0.090603 -0.014293 0.085177 -0.19482 -0.35282 -0.021528 
0.26833 -0.10653 0.067256 0.010862 -0.023007 -0.46528 -0.68691 -0.21833 
0.43406 -0.07266 0.010862 0.011684 -0.076606 -0.50885 -0.66948 -0.60421 
0.41253 -0.023665 -0.020541 0.049664 -0.077757 -0.35627 -0.49192 -0.69349 
0.35219 0.017932 -0.03912 0.084355 -0.065919 -0.21718 -0.48583 -0.41398 
0.22624 0.077285 -0.06444 0.077778 -0.049478 -0.11146 -0.38488 -0.050464 
0.018589 0.098823 -0.0868 0.033222 -0.097487 -0.16325 -0.3224 0.11362 
-0.11179 0.074326 -0.061809 0.00033937 -0.1284 -0.38225 -0.39869 0.1202 
-0.17114 0.058871 -0.010676 -0.021199 -0.054575 -0.36548 -0.41661 0.064132 
-0.15224 0.094877 -0.018733 0.065118 0.1368 -0.026953 -0.30646 0.056898 
-0.059343 0.07038 -0.019555 0.058213 0.15851 0.23216 -0.13662 0.040621 
-0.042573 0.074161 -0.0032777 0.049335 0.055747 0.30335 0.13039 -0.031886 
-0.14451 0.12644 -0.0024557 0.036675 0.0093821 0.15308 0.38622 -0.019884 
-0.18265 0.16903 -0.0080457 0.058871 0.074326 0.037661 0.58056 -0.092061 
-0.10489 0.14848 0.014315 0.095206 0.15949 0.078107 0.6963 -0.12708 
-0.091897 0.13056 0.060515 0.038483 0.15982 -0.089595 0.68743 -0.15733 
-0.074798 0.064296 0.093562 0.011355 0.14091 -0.37189 0.63333 -0.17887 
0.043251 0.016452 0.11411 -0.022843 0.12201 -0.31764 0.50032 -0.23839 
0.19632 -0.008539 0.098988 -0.034352 0.092576 0.091096 0.26406 -0.088937 
0.27968 -0.039613 0.074983 0.033058 0.1003 0.31848 -0.066084 0.17462 
0.22312 -0.064933 0.093069 0.060022 0.10408 0.11461 -0.45706 0.37471 
0.078272 -0.054904 0.10359 0.061501 0.084684 -0.22524 -0.75662 0.41384 
-0.088444 0.025988 0.082382 0.084684 0.055418 -0.32898 -0.89292 0.20964 
-0.18594 0.058871 -0.00064712 0.053609 0.024508 -0.41974 -0.83949 0.092411 
-0.27703 0.13828 -0.06444 0.065118 -0.028762 -0.25138 -0.37239 0.14535 
-0.33441 0.20865 -0.058028 0.033715 -0.070359 0.1373 0.12053 0.1419 
-0.25023 0.21013 -0.03616 0.060679 -0.12955 0.24005 0.17051 0.069064 
-0.060165 0.1562 -0.048985 0.075476 -0.12166 0.060844 0.01974 -0.095021 
-0.014787 0.079751 -0.050958 0.0786 -0.072167 -0.012978 0.048184 -0.17361 
-0.12856 0.042758 -0.030899 0.082382 0.017932 0.094055 0.23446 -0.19548 
-0.15125 -0.009361 0.018096 0.071037 0.10622 0.36863 0.31437 -0.10489 
0.064461 -0.053424 0.1077 0.01711 0.14075 0.68068 0.37685 -0.018568 
0.26143 -0.094199 0.21013 0.0034632 0.1151 0.53123 0.39148 -0.033859 
0.31026 -0.1501 0.22822 -0.052602 0.025824 0.24696 0.40661 0.049828 
0.2463 -0.13136 0.20273 -0.025309 0.026317 0.16969 0.30286 0.19961 
0.1077 0.01974 0.099316 0.057555 0.1197 0.057062 0.14782 0.24712 
-0.042408 0.12677 -0.033365 0.094384 0.1641 -0.25384 0.053281 0.21835 
-0.066577 0.22065 -0.15043 0.17232 0.16755 -0.51691 -0.055397 0.21868 
-0.032215 0.27327 -0.17443 0.11707 0.10129 -0.47958 -0.1016 0.16426 
0.076299 0.19747 -0.12527 0.053938 -0.016431 -0.42648 -0.36482 -0.15421 
0.41466 0.025166 -0.0138 0.034044 -0.12231 -0.35562 -0.77109 -0.46347 
0.59996 -0.12807 0.097837 -0.027282 -0.14846 0.095206 -0.57215 -0.57248 
0.22887 -0.14829 0.21375 -0.059178 -0.097651 0.51232 0.096521 -0.39853 
-0.38554 -0.10472 0.23134 -0.04619 0.023357 0.67361 0.33772 0.0056006 
-0.69086 -0.0029489 0.18169 0.021713 0.059857 0.62791 0.56099 0.26274 
-0.57577 0.12628 0.076627 0.057884 0.042594 0.66704 0.91366 0.451 
-0.34164 0.13647 0.020727 0.009711 -0.021199 0.55885 0.90774 0.54488 
-0.17049 0.15851 0.012506 -0.0013048 -0.078086 0.36616 0.019905 0.71357 
-0.12264 0.1613 0.029769 -0.014951 -0.066906 0.20487 -0.74248 0.72031 
-0.032379 0.12053 0.088794 -0.017911 -0.053588 0.076463 -0.46791 0.48289 
0.033058 0.031249 0.17856 -0.0019624 0.056404 -0.067564 0.17363 0.22312 
0.10376 -0.061973 0.19566 0.0039565 0.14782 0.090438 0.53074 -0.00015387 
0.28905 -0.10883 0.18004 0.00297 0.17708 0.28987 0.64534 -0.2014 
0.42436 -0.12346 0.094713 0.035688 0.19435 0.12875 0.69482 -0.35315 
0.35301 -0.059836 -0.038298 0.037004 0.21605 -0.061645 0.53485 -0.29347 
0.42288 1.0539e-005 -0.14763 0.10244 0.16475 -0.18594 0.18366 -0.12462 
0.59124 -0.0004827 -0.17624 0.084519 0.063803 -0.26206 -0.042573 -0.074304 
0.48076 0.081231 -0.14862 0.076956 -0.095349 -0.24743 -0.18989 -0.051944 
0.20684 0.15571 -0.09239 0.036839 -0.17377 -0.11228 -0.34723 -0.10078 
0.021878 0.12595 0.00066819 -0.0077169 -0.23822 -0.012978 -0.48287 -0.009361 
-0.091568 0.048677 0.10688 -0.016266 -0.17608 0.19402 -0.28854 0.082546 
-0.21521 0.014315 0.15703 -0.049478 -0.10094 0.53321 0.13269 0.061995 
-0.17887 -0.012156 0.14075 0.026974 0.058706 0.87634 0.44097 -0.12363 
-0.14533 0.038648 0.10228 0.063474 0.19106 0.81304 0.57661 -0.37715 
-0.12609 0.085506 0.077943 0.072353 0.15801 0.3244 0.50525 -0.094856 
-0.0077169 0.078436 0.056898 0.069229 0.092576 -0.1649 0.14913 0.24778 
0.11987 -0.042901 0.075476 0.046868 -0.016431 -0.39014 -0.05737 0.44491 
0.28576 -0.13333 0.10376 -0.014951 -0.13103 -0.43832 -0.22014 0.3392 
0.2269 -0.072003 0.11411 -0.024816 -0.15421 -0.30925 -0.31764 0.25173 
0.00033937 0.047033 0.084519 -0.0014692 -0.13119 -0.23773 -0.30087 0.31125 
-0.16358 0.10819 -0.0022913 0.043745 -0.035996 -0.073154 -0.20501 0.27014 
-0.1358 0.10277 -0.070359 0.039305 0.038977 -0.019061 -0.21915 -0.094856 
-0.016102 0.098001 -0.067892 0.031907 0.044402 -0.16227 -0.23148 -0.43223 
0.11559 0.034866 -0.062138 0.054925 0.044073 -0.21208 -0.15964 -0.56031 
0.20865 0.022864 -0.046354 0.0013258 0.03651 -0.18315 -0.012814 -0.60733 
0.38079 0.032071 -0.066413 0.038812 0.069886 -0.032543 0.041443 -0.58777 
0.38869 0.05476 -0.10538 0.11526 0.092082 -0.26782 -0.10324 -0.26272 
0.1562 0.073504 -0.089924 0.11757 0.11855 -0.51576 -0.28327 0.10458 
-0.030406 0.091753 -0.0047575 0.10935 0.14124 -0.44506 -0.31599 0.32687 
-0.037805 0.048348 0.038319 0.018589 0.11115 -0.20945 -0.38669 0.46645 
-0.059343 0.027139 0.084519 -0.029748 0.059364 -0.094856 -0.40034 0.50312 
-0.070687 0.012342 0.10704 -0.045203 0.01563 -0.12577 -0.23198 0.39411 
-0.022679 0.032893 0.11822 -0.025145 -0.01939 -0.19729 -0.045696 0.27458 
0.027961 -0.0011404 0.075148 0.038319 -0.041751 -0.1136 0.05065 0.075476 
0.2006 -0.0059084 0.069064 0.012999 -0.076606 0.19796 0.21621 -0.30037 
0.42058 -0.030406 0.036346 0.043745 0.010697 0.51857 0.48487 -0.47449 
0.475 -0.036489 0.070215 0.086821 0.085835 0.64205 0.75895 -0.38653 
0.32654 -0.0047575 0.082711 0.034373 0.063803 0.64205 0.89327 -0.2106 
0.15489 0.078272 0.051472 -0.032215 -0.016595 0.59042 0.76914 -0.056712 
0.078929 0.098988 0.018589 -0.067564 -0.077593 0.23907 0.45149 -0.11212 
-0.1233 0.10293 -0.032379 -0.054575 -0.049149 -0.11524 0.091425 -0.077922 
-0.39343 0.1276 -0.07003 0.0098754 0.005765 -0.33326 -0.14303 0.25337 
-0.58645 0.14042 -0.11968 0.062981 0.11148 -0.42977 -0.34772 0.682 
-0.57527 0.12201 -0.12264 0.099316 0.17117 -0.5585 -0.54847 0.81501 
-0.34641 0.090109 -0.091404 0.09422 0.12316 -0.68362 -0.7262 0.56428 
-0.10357 0.095864 -0.03912 0.065776 0.050321 -0.65649 -0.70828 0.37191 
-0.0062372 0.060844 0.0065871 0.065447 0.028619 -0.47005 -0.59615 0.19944 
0.037332 0.012342 0.01415 0.041114 0.030592 -0.20288 -0.37962 -0.11475 
0.060022 0.026974 0.013492 0.0421 -0.0016336 -0.057699 -0.34608 -0.28525 
0.072024 0.0072447 0.068242 0.017932 -0.038133 0.055747 -0.35726 -0.31649 
0.025166 0.009711 0.082711 -0.010348 -0.013143 0.28938 -0.094034 -0.19005 
0.03799 0.050814 0.090603 0.018096 -0.011334 0.41022 0.39543 0.00297 
0.1636 0.051801 0.098823 -0.018404 -0.014293 0.39493 0.7259 0.098001 
0.12053 0.064132 0.097837 -0.037805 -0.028269 0.34643 0.60621 -0.0014692 
-0.17131 0.068242 0.058377 0.041443 -0.029255 0.24564 0.40595 -0.11738 
-0.37896 0.093233 -0.033201 0.023522 -0.067892 0.057884 0.41483 -0.044052 
-0.28393 0.10228 -0.084498 0.038155 -0.043395 -0.30021 0.31536 0.11707 
-0.024323 0.12875 -0.075127 0.065776 0.0039565 -0.51247 -0.0068948 0.1008 
0.20997 0.10935 -0.043724 0.087479 0.03651 -0.37189 -0.20929 -0.075127 
0.31322 0.028947 0.043251 0.025988 0.016452 0.041607 -0.051451 -0.082196 
0.31338 0.0075736 0.07038 -0.057205 0.040785 0.23167 0.15407 -0.006566 
0.36961 0.011191 0.11313 -0.038791 0.071037 0.13779 0.010204 0.054596 
0.23644 0.056898 0.09126 -0.0026201 0.11428 0.24844 -0.083347 0.21227 
-0.010019 0.074654 0.084519 0.007738 0.15703 0.45873 0.16936 0.36139 
-0.24086 0.08419 0.03092 0.051801 0.18646 0.65372 0.65816 0.48388 
-0.33835 0.12497 -0.05589 0.076463 0.26505 0.9061 1.0588 0.42387 
-0.33178 0.14634 -0.057534 0.11017 0.32358 1.0077 1.1286 0.24647 
-0.33786 0.091096 -0.0027845 0.050486 0.22213 0.66523 0.75697 0.1294 
-0.31731 0.021384 0.10655 -0.028433 0.044896 0.17511 0.414 0.10573 
-0.10719 -0.012978 0.11099 -0.033201 -0.062302 -0.21882 0.12053 0.14371 
0.13483 0.015794 0.084519 -0.020048 -0.091732 -0.36811 -0.42993 0.19944 
0.22641 0.074161 0.024837 0.064132 -0.0868 -0.32635 -0.99617 0.22559 
0.14453 0.10228 -0.069536 0.12792 -0.066248 -0.33589 -1.3756 -0.021528 
0.0054362 0.079587 -0.10538 0.10277 -0.064604 -0.486 -1.4185 -0.4758 
-0.052766 0.038155 -0.057534 0.091096 -0.022021 -0.58793 -1.1652 -0.79707 
-0.11705 0.005765 0.0042853 0.076463 0.024508 -0.7073 -0.78589 -0.64548 
-0.13925 -0.03057 0.051308 0.048348 0.022535 -0.83784 -0.35348 -0.23642 
-0.010019 -0.065097 0.090274 0.044567 -0.00064712 -0.72999 0.10392 0.009711 
0.26209 -0.057699 0.11707 -0.013307 -0.046847 -0.33671 0.50838 0.070051 
0.52285 -0.073318 0.13368 -0.00031829 -0.028433 0.17429 0.72458 0.0036276 
0.61706 -0.010676 0.11822 0.035195 0.017274 0.50904 0.71159 -0.20337 
0.52055 0.035031 0.14979 0.041443 0.016781 0.68989 0.57562 -0.26338 
0.32391 0.061172 0.18761 0.037497 0.031578 0.82866 0.47237 -0.16046 
0.053445 0.024015 0.21046 -0.023336 0.018918 0.72014 0.41203 -0.02646 
-0.21586 0.07597 0.09981 -0.0019624 0.11954 0.43078 0.23923 0.11658 
-0.40626 0.14881 0.025001 0.052952 0.14848 0.1465 0.019411 0.17528 
-0.40806 0.15735 -0.022021 0.067091 0.15538 0.0011614 -0.14204 0.2218 
-0.34937 0.13499 -0.054904 0.084355 0.098001 -0.037311 -0.23379 0.22493 
-0.19219 0.11559 -0.028926 0.03388 0.043745 -0.019061 -0.24941 0.21786 
0.091753 0.016945 0.026152 0.027139 0.0028056 -0.046354 -0.30169 0.13171 
0.43423 -0.08532 0.048019 0.055254 -0.017911 -0.13086 -0.35249 -0.072989 
0.66704 -0.12264 0.058213 0.037168 -0.037147 -0.23362 -0.2619 -0.19153 
0.68299 -0.11426 0.051801 0.038812 -0.081703 -0.16736 -0.08384 -0.20156 
0.53189 -0.060329 0.058049 0.0021479 -0.081868 -0.056877 0.11921 -0.17361 
0.2925 -0.017746 0.02829 0.01711 -0.0138 0.051308 0.25896 -0.050464 
0.1202 0.025988 0.028125 0.063803 0.016616 0.1151 0.3364 0.16886 
-0.061645 0.0421 0.050486 0.030427 0.036839 0.13878 0.32292 0.26866 
-0.21619 0.019247 0.11773 0.038977 0.057062 0.29744 0.29628 0.24334 
-0.27916 0.012013 0.10869 0.062817 0.11395 0.47599 0.27721 0.16919 
-0.23707 -0.016266 0.12727 0.050157 0.082546 0.31618 0.19714 0.027632 
-0.15947 0.048348 0.10425 0.05213 0.049006 -0.011498 0.12957 -0.0087034 
-0.074304 0.16081 0.044402 0.02829 -0.0021268 -0.1843 0.061172 -0.065426 
0.00033937 0.14963 0.010369 -0.016924 -0.096007 -0.23395 0.0014903 -0.052273 
0.046704 0.096521 0.012835 -0.046354 -0.16473 -0.2305 -0.065591 0.029934 
0.068078 0.077449 -0.043395 -0.041422 -0.10439 -0.2619 -0.23428 0.074161 
0.061501 0.10376 -0.052931 0.034866 0.054267 -0.29248 -0.31599 0.15127 
0.024015 0.085341 -0.026953 0.053609 0.20734 -0.20419 -0.28886 0.10918 
-0.038791 0.06742 -0.0078813 0.067749 0.18695 -0.13843 -0.17723 0.13434 
-0.077593 0.062323 -0.02942 0.088136 0.075312 -0.09239 -0.014622 0.056569 
-0.12971 0.013986 -0.0082102 0.059035 -0.0064016 -0.05178 0.079094 -0.080388 
-0.10078 0.016123 0.0421 0.038155 -0.038956 0.05476 0.22641 0.00297 
0.090603 0.086821 0.034702 0.016452 0.00297 0.30533 0.31651 0.060844 
0.24219 0.068242 0.041443 -0.0013048 -0.0098543 0.41022 0.32358 0.14782 
0.2805 -0.0054151 0.078272 -0.0083746 0.069722 0.43719 0.11954 0.15522 
0.34117 -0.014129 0.12118 -0.0042642 0.18859 0.53386 -0.086307 -0.074962 
0.39214 -0.00097594 0.12201 0.009711 0.16459 0.56214 1.0539e-005 -0.27325 
0.38277 -0.0057439 0.068736 0.0079024 0.029441 0.34923 0.15324 -0.41053 
0.39575 -0.028597 0.032071 -0.044874 -0.13284 -0.021363 0.28576 -0.39113 
0.23446 0.025166 0.046704 -0.018075 -0.16884 -0.33128 0.3752 -0.20288 
-0.12593 0.05213 -0.009361 -0.025638 -0.14829 -0.55702 0.29464 0.061008 
-0.45755 0.11033 -0.090417 0.030592 -0.10801 -0.69086 0.063145 0.19353 
-0.60454 0.1784 -0.11705 0.11083 -0.050629 -0.48468 -0.19433 0.37191 
-0.5248 0.17018 -0.098473 0.10836 -0.0055795 0.016945 -0.42533 0.42535 
-0.41316 0.088794 0.014972 0.049335 -0.040928 0.28313 -0.51674 0.49276 
-0.36301 0.039141 0.078107 -0.042079 -0.045203 0.29464 -0.32602 0.61821 
-0.23346 0.024673 0.10704 -0.082854 -0.034516 0.087808 -0.14698 0.36468 
0.049664 0.0044497 0.069064 -0.049314 0.012506 -0.02087 0.073668 -0.12231 
0.12003 0.08156 -0.0027845 -0.00015387 0.15653 0.047197 0.29004 -0.24086 
-0.045368 0.19649 -0.051122 0.10014 0.30105 0.0786 0.4219 -0.085156 
-0.12774 0.18662 -0.056877 0.10441 0.35975 0.13631 0.33443 0.014643 
-0.018897 0.097344 -0.065262 0.073997 0.35909 0.11346 0.1026 -0.045861 
0.22624 0.035031 -0.096007 0.090603 0.30615 -0.017253 -0.18068 -0.14402 
0.36139 0.0018191 -0.061151 0.05065 0.14272 -0.15783 -0.40313 -0.25105 
0.38803 0.035688 0.024179 0.024508 -0.037476 -0.22935 -0.50836 -0.3714 
0.35761 0.079258 0.04358 -0.04323 -0.18183 -0.33917 -0.57314 -0.43174 
0.22082 0.070873 0.013821 -0.053588 -0.18084 -0.36926 -0.53877 -0.42747 
0.051801 0.0090533 -0.022843 0.035688 -0.095349 -0.21274 -0.32898 -0.47432 
-0.065097 -0.020706 0.018918 0.036346 -0.05589 -0.084005 0.084026 -0.26108 
-0.085649 -0.036983 0.20125 -0.023336 -0.08828 -0.066741 0.52334 0.20076 
-0.05441 -0.13234 0.2976 -0.048327 -0.10965 0.16985 0.59864 0.59108 
-0.11261 -0.14796 0.20865 -0.045039 -0.047176 0.58006 0.29809 0.59305 
-0.24875 -0.088115 0.11346 0.0013258 0.030263 0.68562 0.067256 0.25156 
-0.18232 -0.034023 0.1077 -0.0031133 0.12447 0.49555 0.047197 -0.015938 
0.16623 0.0085601 0.085835 0.06742 0.2149 0.37389 0.093562 0.070051 
0.45067 0.057884 0.062817 0.10704 0.19106 0.14042 0.19484 0.11247 
0.21326 0.13253 0.024508 0.11592 0.13006 -0.056877 0.42058 0.057391 
-0.3446 0.22164 -0.030242 0.15028 0.0036276 -0.19959 0.53386 0.33657 
-0.63775 0.2468 -0.063946 0.10852 -0.035832 -0.25417 0.41006 0.73626 
-0.40889 0.18498 -0.0016336 0.080738 -0.045039 -0.22145 0.061501 0.62034 
-0.094199 0.067749 0.037497 0.047033 -0.028269 -0.14993 -0.15092 0.24597 
0.11822 0.019411 0.026974 0.025495 -0.035667 -0.25105 -0.23198 -0.15405 
0.20142 -0.0060728 0.0056006 0.066105 -0.014129 -0.084005 -0.14451 -0.39491 
0.074654 -0.068057 0.0026412 0.04506 0.0031344 0.20471 0.024837 -0.12478 
-0.15026 -0.04882 0.088794 -0.0042642 0.010862 0.3775 0.15522 0.28658 
-0.24168 -0.066906 0.19024 0.0051074 0.050321 0.42354 0.10096 0.34643 
0.053774 -0.090253 0.20882 -0.02794 0.085177 0.35712 0.044567 0.12332 
0.40299 -0.071345 0.13319 -0.01117 0.12579 0.32029 0.090767 -0.36318 
0.42699 -0.013307 0.0062583 0.010697 0.13993 0.25436 0.15949 -0.8168 
0.40332 0.019247 -0.060494 0.066927 0.14815 0.14157 0.15144 -1.0272 
0.64139 -0.030406 -0.038956 0.06479 0.086163 0.070873 0.17001 -0.81762 
0.68841 -0.040764 -0.03616 0.028619 -0.013965 -0.073647 0.1955 -0.34148 
0.42321 0.022535 0.02122 -0.017746 -0.0965 -0.19367 0.22937 0.094713 
0.17001 0.030263 0.061337 -0.0054151 -0.15174 -0.33523 0.19665 0.41039 
-0.17394 0.090603 0.039963 0.025166 -0.093376 -0.38258 0.08008 0.65257 
-0.4952 0.13006 0.047526 0.042265 -0.029913 -0.3788 -0.19235 0.84921 
-0.50967 0.09685 0.086492 0.017438 -0.0016336 -0.33358 -0.42286 0.96644 
-0.21767 0.021878 0.11872 -0.0052507 0.0047785 0.023686 -0.33622 0.89081 
0.056569 0.011684 0.098001 0.033551 0.019905 0.40578 -0.026131 0.52778 
0.16936 0.097508 0.010369 0.0786 0.012013 0.43143 0.24992 -0.062302 
0.13894 0.099974 -0.085156 0.11263 -0.0082102 0.28017 0.35071 -0.2568 
0.058049 0.08419 -0.064768 0.047362 -0.04471 0.12825 0.34396 0.0031344 
0.0054362 0.067913 0.00050378 0.0024767 -0.037476 -0.0057439 0.5651 0.4487 
-0.050629 0.074819 -0.0052507 0.01974 -0.011663 -0.087786 0.8303 0.84658 
-0.21406 0.10622 0.025001 0.026974 -0.052766 -0.040928 0.65093 0.78969 
-0.3765 0.13927 0.028125 0.11592 -0.082854 0.053445 0.17363 0.18843 
-0.33934 0.10458 0.057391 0.076627 -0.077428 -0.059507 -0.20863 -0.60618 
-0.29297 0.024837 0.053116 0.03799 -0.035996 -0.042901 -0.31501 -0.91528 
-0.10867 -0.055561 0.038155 0.016452 -0.0016336 0.052459 -0.43355 -1.0657 
0.32785 -0.036818 0.035688 -0.0070593 0.042594 0.090767 -0.51641 -1.2696 
0.89968 -0.026296 0.017767 -0.0014692 0.069886 -0.12001 -0.5123 -1.1382 
1.1854 -0.022185 0.016616 -0.00015387 0.029605 -0.28656 -0.46281 -0.46627 
1.0554 -0.0013048 0.031907 -0.034352 0.013657 -0.31698 -0.42253 0.35597 
0.74711 -0.038956 0.040128 -0.018897 0.019083 -0.22441 -0.31945 0.706 
0.30286 -0.052766 0.057884 -0.05885 0.020398 -0.09387 -0.14829 0.65948 
-0.090746 0.036182 0.010204 -0.0026201 0.10491 0.0074092 -0.05326 0.45938 
-0.24513 0.12069 -0.062302 0.071037 0.17001 0.090767 0.071859 0.33574 
-0.2014 0.12908 -0.08532 0.037332 0.17051 0.13894 0.27014 0.4385 
-0.20173 0.092247 -0.057534 0.007738 0.15012 0.090438 0.36978 0.4436 
-0.30794 0.062817 -0.028762 -0.0029489 0.09126 -0.218 0.052623 0.16393 
-0.37255 0.10293 -0.05589 0.030592 0.027796 -0.38028 -0.35677 -0.085156 
-0.31435 0.20125 -0.10916 0.10063 0.0060938 -0.12626 -0.38488 -0.25319 
-0.206 0.26324 -0.10324 0.09126 0.050979 0.20865 -0.11689 -0.33704 
-0.08269 0.20503 -0.039613 0.056569 0.029605 0.31207 0.022371 -0.25171 
-0.026131 0.16508 -0.0044286 0.04654 0.025988 0.31042 -0.039284 -0.11968 
0.032893 0.13253 -0.030406 0.071859 0.021878 0.055582 -0.33638 -0.26897 
0.033715 0.07597 -0.027775 0.059364 -0.01117 -0.32586 -0.64071 -0.51707 
-0.032379 -0.039449 0.046375 -0.045532 0.027303 -0.25417 -0.51017 -0.47186 
-0.08384 -0.099953 0.10836 -0.080388 0.13187 0.41861 0.02681 -0.20238 
0.089616 -0.091732 0.11921 -0.013307 0.22065 0.88768 0.4944 -0.098309 
0.40957 -0.083347 0.11165 0.034866 0.22493 0.61854 0.85792 -0.21438 
0.48733 -0.043888 0.083204 0.078107 0.12135 0.16541 0.91695 -0.19581 
0.22394 0.10737 0.016781 0.066927 0.024837 -0.082854 0.68743 0.19944 
-0.10094 0.20931 -0.024158 0.063639 -0.035667 -0.14599 0.36797 0.60505 
-0.29018 0.25419 -0.027447 0.061666 -0.044874 -0.19811 0.080738 0.74349 
-0.19877 0.15259 -0.0016336 -0.0057439 -0.041915 -0.25286 -0.20748 0.74152 
0.0082312 0.024837 0.043416 -0.0014692 -0.051451 -0.21669 -0.55193 0.47632 
0.12891 -0.028433 0.071366 -0.03205 -0.043395 -0.17082 -0.67113 -0.010183 
0.13795 -0.036983 0.099316 -0.041586 -0.014622 -0.22672 -0.55143 -0.37995 
0.019247 -0.055726 0.11 -0.011663 0.033058 -0.14073 -0.35282 -0.51181 
-0.29265 -0.042408 0.047197 0.031907 0.17478 0.097344 -0.20929 -0.38768 
-0.48879 0.045718 -0.03205 0.13532 0.24055 0.22871 -0.10176 -0.4587 
-0.33063 0.088794 -0.048985 0.11625 0.27869 0.41417 0.070708 -0.62936 
-0.024487 0.054432 -0.056055 0.10606 0.26028 0.50772 0.29349 -0.34049 
0.12743 0.086492 -0.05589 0.10951 0.12891 0.35005 0.39822 0.1909 
-0.036818 0.093891 -0.03501 0.10836 0.021713 0.062323 0.49062 0.5605 
-0.13086 0.097837 0.027796 0.047362 -0.012649 -0.057205 0.3877 0.68775 
0.021056 0.09833 0.061337 0.044073 -0.030242 -0.15569 0.13269 0.17495 
0.22213 0.073668 0.10491 -0.008539 -0.038133 -0.23494 -0.031064 -0.31418 
0.12398 0.0421 0.15078 -0.021363 -0.047012 -0.24382 -0.045203 -0.25105 
-0.18495 0.018425 0.13861 -0.042408 -0.077264 0.00066819 0.070051 0.08978 
-0.46676 0.03947 0.098823 0.020727 -0.027775 0.25239 0.074654 0.46103 
-0.44867 0.049664 0.084848 0.054432 -0.063618 -0.087786 0.019576 0.68578 
-0.21225 0.012506 0.1128 0.015137 -0.17147 -0.25204 0.029605 0.71932 
-0.013471 -0.016431 0.12562 -0.012156 -0.1963 0.085506 0.053281 0.3928 
0.095699 0.0056006 0.09981 -0.027447 -0.10637 0.49227 0.20158 -0.05737 
0.24647 -0.00015387 0.049992 -0.00015387 -0.015938 0.475 0.40809 -0.37321 
0.47254 -0.058521 0.047855 0.035195 0.039634 0.23315 0.45955 -0.44341 
0.55441 -0.037147 0.030263 0.032729 0.043251 -0.015773 0.082546 -0.25828 
0.33114 0.03092 0.0324 0.11066 0.059364 -0.11541 -0.31402 -0.01676 
0.026152 0.10244 -0.0021268 0.072353 0.065447 -0.34986 -0.35858 0.10524 
-0.19909 0.12069 0.014643 0.067749 0.12316 -0.60174 -0.23527 0.10836 
-0.30728 0.093562 0.032893 0.055747 0.16442 -0.45739 1.0539e-005 0.171 
-0.22178 -0.0072237 0.078765 0.015465 0.081231 -0.24793 0.1465 0.18514 
-0.022185 -0.088115 0.099152 0.010369 -0.098638 -0.16523 0.035031 -0.010183 
0.092411 -0.04619 0.082382 0.012835 -0.16786 -0.096829 -0.11426 -0.047834 
0.05624 0.024344 0.066269 0.040292 -0.12363 -0.008539 -0.087951 0.14453 
-0.068879 0.11724 0.075805 0.055911 -0.14023 0.052294 -0.028926 0.26653 
-0.21175 0.16377 0.048019 0.049499 -0.11327 0.14535 0.085506 0.25584 
-0.24118 0.1904 0.0056006 0.0592 -0.020377 0.44656 0.21523 0.30385 
-0.073154 0.14897 -0.060165 0.10869 0.17084 0.77259 0.16804 0.29513 
0.073832 0.12316 -0.10045 0.12233 0.27639 0.58796 0.039634 0.12792 
0.13598 0.056404 -0.092719 0.096028 0.11181 -0.040106 0.014972 0.040785 
0.183 -0.074304 0.011684 -0.041751 -0.10916 -0.53253 0.037497 -0.045203 
0.1955 -0.12494 0.095864 -0.094856 -0.15816 -0.65468 -0.11163 -0.18989 
0.11543 -0.041586 0.10047 -0.037147 -0.024652 -0.60257 -0.36449 -0.17377 
0.021713 -0.0031133 0.09685 0.015959 0.072188 -0.34098 -0.5396 0.03388 
0.050814 -0.030899 0.11609 0.024344 0.034209 -0.22392 -0.46495 0.19632 
0.22444 -0.049314 0.15423 -0.039613 -0.079566 -0.12116 -0.025145 0.18876 
0.35728 -0.020706 0.10113 -0.013471 -0.015773 0.18399 0.54143 0.37455 
0.37701 0.059693 0.064954 0.023193 0.092247 0.60604 0.83441 0.42946 
0.29185 0.07597 0.066105 0.021713 0.13993 0.77818 0.72738 0.27294 
0.17676 0.072024 0.085341 0.025001 0.096193 0.82619 0.51742 -0.10571 
0.22822 -0.036818 0.051965 0.032893 0.022864 0.7476 0.22509 -0.70023 
0.21391 -0.062631 0.045553 0.0095465 -0.032543 0.33953 0.11559 -0.94241 
0.03092 0.019083 0.026974 0.037332 -0.065919 -0.28196 -0.019884 -0.58958 
-0.31205 0.090603 -0.054082 0.023851 -0.050136 -0.61111 -0.19186 -0.18117 
-0.59204 0.14091 -0.10242 0.050321 0.021549 -0.54206 -0.2836 -0.096665 
-0.47235 0.14338 -0.13349 0.066105 0.046211 -0.4125 -0.23395 -0.05589 
0.027632 0.12973 -0.12642 0.065118 0.049828 -0.35183 -0.12494 0.066598 
0.49325 0.061337 -0.10587 0.10113 0.15144 -0.05178 -0.060329 0.20931 
0.61245 0.0059294 -0.017746 0.048019 0.18202 0.20898 -0.19745 0.28083 
0.5235 -0.032543 0.096357 0.0087245 0.10228 0.14963 -0.37173 0.20849 
0.42173 -0.069208 0.18054 -0.0075525 0.049828 0.086821 -0.28903 0.24203 
0.31601 -0.006566 0.1493 0.021713 0.081395 0.16442 0.011848 0.34791 
0.1978 0.11724 0.080902 0.098823 0.12036 0.27129 0.28856 0.31815 
