0.23216 -0.050793 0.10244 0.010697 0.056569 0.1225 0.093891 0.21506 
0.23759 0.01415 0.051143 0.058706 0.064625 0.13072 0.080738 0.09981 
0.14946 -0.0052507 0.046046 0.051308 0.036675 0.076134 0.072188 0.024837 
0.050486 -0.041093 0.047855 0.00099702 0.0036276 -0.06855 0.043251 -0.25615 
-0.0091966 -0.052437 0.062652 -0.019226 -0.0070593 -0.12675 0.020069 -0.49783 
0.0044497 -0.036983 0.074326 -0.019884 -0.031392 -0.011827 0.11707 -0.5243 
0.041278 0.015301 0.039634 0.041607 -0.028762 0.033222 0.25978 -0.38751 
0.062652 0.080738 -0.024487 -0.008539 -0.040435 -0.010183 0.20405 -0.29988 
0.047526 0.090109 -0.041586 -0.0072237 -0.039778 -0.033037 0.095699 -0.21751 
0.022206 0.087643 -0.049807 0.024179 -0.033201 -0.052602 0.035031 -0.093705 
0.081889 0.056569 -0.032872 0.02829 -0.021034 -0.038298 0.011191 -0.039778 
0.13105 0.085341 -0.041257 0.074983 0.027468 -0.073647 -0.04323 0.043251 
0.14206 0.1008 -0.071181 0.058871 0.045224 -0.047998 -0.067564 0.20224 
0.023193 0.12184 -0.037969 0.020727 0.046704 -0.012156 -0.089431 0.24564 
-0.043066 0.13368 0.018754 0.040292 0.047197 0.069064 0.03799 0.10984 
-0.10094 0.10129 0.01267 0.011191 0.073175 0.14157 0.20882 0.068571 
-0.13333 0.090438 -0.0077169 0.04506 0.096357 0.18613 0.19336 0.1294 
-0.038956 0.12727 -0.030242 0.045718 0.077943 0.15094 -0.029748 0.12414 
0.07038 0.06479 -0.02087 0.040785 0.052787 0.047691 -0.22096 0.13023 
0.1733 -0.0014692 0.05476 0.019247 0.016452 0.09126 -0.27456 0.16048 
0.31125 -0.073482 0.080573 -0.022514 0.025001 0.19451 -0.28064 0.021056 
0.34446 -0.048985 0.025166 0.021713 0.072846 0.17133 -0.23198 -0.091075 
0.2856 -0.0068948 -0.040271 0.02122 0.055254 -0.071345 -0.18578 -0.11278 
0.28938 0.049664 -0.063124 0.01152 0.019905 -0.31665 -0.17591 -0.0073881 
0.21917 0.064625 -0.023994 0.026646 -0.016102 -0.35101 -0.04471 0.32884 
0.062488 0.020727 0.00297 -0.024487 -0.04471 -0.27259 0.077778 0.46843 
0.023357 -0.0068948 0.026646 -0.039449 -0.051122 -0.17493 0.061501 0.2662 
0.17067 0.027139 0.071859 -0.026624 -0.021363 -0.029913 0.00017495 -0.15651 
0.42765 0.017274 0.068242 -0.010183 0.019411 0.12875 0.071202 -0.76221 
0.5503 0.05772 0.04917 0.062652 0.0592 0.3392 0.17659 -1.022 
0.39559 0.06035 0.0090533 0.038155 0.047855 0.50279 0.35991 -0.57708 
0.073339 0.099316 0.0087245 0.090109 0.030263 0.46908 0.41581 -0.030406 
-0.20781 0.087808 -0.0026201 0.063968 0.041607 0.15078 0.29168 0.2246 
-0.33342 0.067749 0.0028056 0.047362 0.052459 -0.17394 0.035853 0.40332 
-0.37436 0.11 -0.011827 0.038648 0.065612 -0.19909 -0.069372 0.5041 
-0.30021 0.062817 -0.0019624 0.033058 0.076134 -0.23461 -0.011498 0.31421 
-0.1376 0.0056006 0.043087 0.034702 0.056404 -0.29002 -0.088608 0.11625 
0.012342 0.045389 0.056076 0.070873 0.035524 -0.33013 -0.40922 -0.0049219 
0.093398 0.06479 0.068078 0.020069 -0.0036066 -0.2448 -0.43832 -0.077264 
0.079258 0.064954 0.070708 -0.009361 0.00066819 -0.0024557 -0.16079 -0.10045 
0.086328 0.062323 0.066598 0.0074092 0.03651 0.20109 0.098823 -0.24086 
0.027961 0.08863 0.072681 0.014315 0.045389 0.30253 0.1396 -0.3035 
0.01563 0.058377 0.053938 0.066598 0.063474 0.32621 0.10178 -0.10982 
0.12776 0.042594 0.04506 0.017603 0.073668 0.33032 0.085506 0.097015 
0.31042 0.036017 0.058377 0.017932 0.068242 0.23085 0.091753 0.12628 
0.47517 0.04654 0.056404 0.03388 0.032893 0.041114 0.092411 0.076134 
0.41762 0.032893 0.015794 0.020891 0.039141 -0.077922 0.062652 -0.10439 
0.21967 0.055747 0.011684 0.057391 0.03651 -0.10554 -0.021363 -0.059507 
-0.028762 0.047362 -0.0078813 0.064296 0.061172 -0.048492 0.022864 0.2006 
-0.16999 0.0064227 -0.0080457 0.053609 0.058871 0.027303 0.050814 0.44064 
-0.2254 -0.041751 0.047526 0.048348 0.017603 -0.018897 0.042923 0.40036 
-0.28952 -0.031064 0.08304 -0.0064016 -0.050464 -0.11031 -0.0032777 0.25255 
-0.27933 -0.016595 0.1077 -0.0019624 -0.12577 -0.21093 -0.054575 0.092576 
-0.14122 -0.009361 0.11115 -0.0064016 -0.15585 -0.34608 -0.091239 -0.1284 
-0.10867 0.059035 0.087479 0.010369 -0.070852 -0.352 -0.093212 -0.23773 
-0.24382 0.09981 0.024015 0.064296 -0.0055795 -0.11689 -0.16638 -0.23625 
-0.30662 0.11987 0.012835 0.052623 0.053938 0.19122 -0.10949 -0.092883 
-0.25253 0.12365 0.018918 0.02533 0.075148 0.17412 0.15587 0.025659 
-0.079237 0.078107 0.00297 0.039141 0.088958 0.14782 0.2537 0.10014 
0.058542 0.032564 0.022371 0.024673 0.076792 0.17856 0.054596 0.18678 
-0.0047575 0.027468 -0.0098543 0.068407 0.1008 0.28889 0.095864 0.20175 
0.0021479 0.036017 0.010697 0.058706 0.11707 0.3923 0.34429 0.1174 
0.18794 -0.021034 0.079094 0.010369 0.089452 0.30615 0.41039 -0.049971 
0.28494 -0.052273 0.12135 0.023686 0.049828 0.14256 0.29957 -0.042737 
0.25584 0.023193 0.077778 0.012342 0.09685 0.12546 0.092904 0.046046 
0.15193 0.039634 0.033551 0.068736 0.12842 0.15686 -0.18019 0.024344 
-0.043888 0.11954 0.030756 0.038648 0.078765 0.17281 -0.33276 0.12595 
-0.1866 0.18761 0.03651 0.01826 0.048841 0.1544 -0.2106 0.34446 
-0.28163 0.14535 0.021878 0.046375 0.028619 0.042923 0.13779 0.6118 
-0.3765 0.10869 0.023028 0.046211 -0.0060728 -0.13399 0.26209 0.59585 
-0.36449 0.058377 0.02829 0.032893 0.0083956 -0.20386 0.084848 0.14289 
-0.25187 0.058706 0.0085601 0.065447 0.019411 -0.13596 0.091096 -0.25204 
-0.11985 -0.011498 0.00099702 0.071366 -0.023172 -0.025474 0.12431 -0.48238 
0.0013258 -0.10061 0.0024767 0.12266 -0.025309 0.080738 0.26011 -0.54124 
0.15127 -0.078086 0.023357 0.063803 -0.019719 0.069886 0.18383 -0.70352 
0.30944 -0.081374 0.039799 0.024673 -0.042737 -0.15487 -0.13185 -0.78276 
0.46859 -0.072332 0.060186 0.020727 -0.098473 -0.31977 -0.47021 -0.63775 
0.41368 0.043251 0.032729 0.054596 -0.024158 -0.35858 -0.62789 -0.22984 
0.091425 0.080738 0.01563 0.10787 0.06594 -0.23707 -0.59171 0.36797 
-0.19104 0.062488 0.070051 0.01563 0.052787 -0.15996 -0.37633 0.68266 
-0.2762 0.026152 0.14058 -0.050958 0.025001 -0.028762 -0.076113 0.39954 
-0.13941 0.054103 0.10852 -0.042573 0.054432 0.12233 0.010862 -0.19646 
-0.056055 0.090767 0.016945 0.013986 0.09981 0.19188 -0.071181 -0.18348 
-0.094199 0.17001 -0.030242 0.058706 0.11346 0.10524 0.083862 0.41976 
-0.11442 0.22575 -0.047998 0.071859 0.1248 0.18448 0.51857 0.8594 
-0.085156 0.16936 -0.0022913 0.027303 0.11592 0.33344 0.77933 0.92747 
0.049006 0.10047 0.055089 0.021056 0.032893 0.15966 0.55705 0.55573 
0.13417 0.043745 0.079258 -0.0096899 -0.0082102 -0.039942 0.22772 0.4025 
0.084519 0.035195 0.040785 -0.022843 -0.024487 -0.12198 -0.041422 0.42173 
0.086821 0.054103 -0.011827 0.015794 -0.030899 -0.1621 -0.20025 0.23479 
0.18695 0.014315 0.016123 -0.021363 -0.028597 -0.040106 -0.3492 -0.079895 
0.29086 -0.021034 0.025001 -0.021528 0.018096 0.1641 -0.37831 -0.36269 
0.2879 -0.054082 0.0067515 0.010204 0.12332 0.21046 -0.21817 -0.56541 
0.28691 -0.042901 -0.033694 0.043745 0.13154 0.14519 0.0021479 -0.68411 
0.33805 -0.058028 0.01415 0.055418 0.067913 0.038648 0.19418 -0.53483 
0.22049 -0.091568 0.056733 0.041936 0.036346 -0.098144 0.08567 -0.20485 
0.049664 0.00050378 0.069722 0.076134 0.041772 -0.35742 -0.087622 0.097015 
0.02122 0.12908 0.033551 0.071695 -0.0073881 -0.52266 -0.031721 0.24071 
0.096357 0.16344 -0.0072237 0.066434 -0.016924 -0.33095 0.19057 0.25732 
0.095042 0.14864 -0.042244 0.082217 -0.030735 -0.35036 0.094055 0.23298 
0.058213 0.095371 -0.0059084 0.046046 -0.048492 -0.50869 -0.1598 0.03799 
0.042923 0.040292 0.08567 0.0093821 -0.07562 -0.40182 -0.13382 -0.1672 
0.086492 -0.10768 0.22887 -0.058192 -0.09798 -0.12412 0.063474 -0.041751 
-0.041422 -0.18397 0.32555 -0.088608 -0.10735 -0.035832 0.11247 0.1544 
-0.22359 -0.07825 0.3198 -0.055232 -0.081374 -0.043888 0.016288 0.38375 
-0.20468 0.024508 0.25699 -0.039449 -0.036654 0.08156 0.01711 0.51512 
-0.059014 0.098001 0.14913 -0.038462 0.025988 0.37142 0.052459 0.55096 
0.10178 0.10754 0.031742 0.0074092 0.098823 0.72869 0.19007 0.68101 
0.26209 0.088136 -0.10768 -0.010512 0.12464 0.86055 0.31207 0.72721 
0.29579 0.070708 -0.26404 0.0062583 0.075641 0.76898 0.37997 0.16064 
0.33755 0.12743 -0.29117 0.03651 0.074983 0.6164 0.28576 -0.93731 
0.4025 0.16245 -0.29511 0.086821 0.10277 0.39822 0.093726 -1.5072 
0.33048 0.12562 -0.20156 0.10376 0.11017 0.082217 0.082546 -1.238 
0.12644 0.097508 -0.060165 0.08863 0.092904 -0.20567 0.17889 -0.6343 
-0.11261 0.093562 0.069886 0.068078 0.028125 -0.24941 0.22887 -0.00081153 
-0.25121 0.034044 0.16623 0.023028 0.0064227 -0.2203 0.25387 0.4071 
-0.21586 0.025824 0.19435 0.03536 0.021878 -0.13563 0.26653 0.54784 
-0.062631 0.020398 0.26751 0.025001 0.011684 0.0036276 0.19994 0.53304 
0.024673 -0.025309 0.26373 -0.020212 -0.016102 0.16475 -0.0014692 0.49259 
0.046375 -0.063124 0.21934 -0.018733 -0.030899 0.21885 -0.10505 0.2223 
0.08715 -0.030735 0.15768 0.013986 -0.022679 0.14272 -0.0004827 0.0034632 
0.064461 0.030263 0.064954 0.060679 0.03799 0.16903 0.13664 -0.037147 
0.017767 0.071037 0.040785 0.12957 0.075805 0.23611 0.28823 -0.1524 
-0.032543 0.071531 0.084519 0.072517 0.0689 0.29234 0.42716 -0.01676 
0.022371 0.027303 0.085341 -0.0054151 0.03536 0.24647 0.27738 -0.035832 
0.23759 -0.035832 0.03651 -0.023172 0.046704 0.14124 0.061172 -0.42829 
0.29892 -0.038791 -0.077264 -0.042079 -0.012156 0.037826 -0.034188 -0.33194 
0.11592 -0.0019624 -0.099131 -0.0090322 -0.063124 -0.026624 0.11 0.040785 
-0.069043 -0.036983 -0.095514 -0.027282 -0.052437 -0.014951 0.147 -0.049971 
-0.20584 0.0093821 -0.072003 0.057555 0.033551 0.076627 -0.049642 -0.28015 
-0.28969 0.073997 -0.024816 0.11017 0.053609 0.12184 -0.26831 -0.010348 
-0.23444 0.1294 0.029934 0.10458 0.02122 -0.0068948 -0.21833 0.42255 
-0.033694 0.10951 0.042594 0.094713 -0.00081153 0.055582 0.088794 0.32473 
0.16064 0.10178 0.051308 0.047197 0.0079024 0.095864 0.36978 0.0095465 
0.15176 0.11954 0.072846 0.048184 0.041936 0.10211 0.29431 -0.17542 
-0.046519 0.084026 0.10277 0.048348 0.041443 0.033387 0.052623 -0.3446 
-0.30432 0.098166 0.089452 0.0085601 0.014808 -0.11672 -0.12116 -0.39491 
-0.36844 0.16163 0.057062 0.023193 0.0083956 -0.26404 -0.25352 -0.27226 
-0.17262 0.14765 -0.013965 0.060186 0.051636 -0.26124 -0.39869 -0.21291 
0.11115 0.11099 -0.086307 0.070873 0.093069 -0.13843 -0.35216 -0.32388 
0.31881 0.070051 -0.097816 0.09422 0.066598 -0.14434 -0.34181 -0.39853 
0.37356 0.053774 -0.11097 0.032236 0.043909 -0.18841 -0.66537 -0.28656 
0.36205 -0.018075 -0.068714 0.00297 -0.023007 -0.039284 -0.67113 -0.13826 
0.2269 -0.084663 0.034373 -0.0070593 -0.041586 0.14026 -0.24628 0.032893 
0.045882 -0.066413 0.080902 -0.030406 0.016781 0.33015 0.28001 0.29398 
-0.037805 -0.026296 0.049499 0.03651 0.1128 0.42321 0.49161 0.47698 
-0.096007 0.010862 0.036346 0.027796 0.084519 0.17593 0.34643 0.83096 
-0.18643 0.048348 0.065776 -0.028104 -0.0040998 -0.14895 0.17593 1.196 
-0.25253 0.04654 0.096686 -0.010183 -0.033859 -0.32257 0.07449 1.2953 
-0.28804 0.095535 0.040456 0.015959 -0.0067304 -0.4199 0.010697 1.2384 
-0.27045 0.15094 -0.032379 0.078107 0.0065871 -0.46709 -0.16802 0.79906 
-0.14763 0.13631 -0.014622 0.060515 0.012835 -0.32372 -0.31665 0.01004 
-0.07825 0.073504 0.038155 0.063474 0.010204 -0.17131 -0.27061 -0.40346 
-0.10834 0.054925 0.08978 0.045882 0.025659 -0.17854 -0.3155 -0.58744 
-0.11048 0.022535 0.069558 -0.018733 0.048841 -0.12166 -0.18101 -0.65534 
-0.061809 0.034702 0.0036276 0.024508 0.051143 -0.13366 -0.036818 -0.66965 
0.026317 0.03536 -0.034516 0.052623 0.097179 -0.12527 -0.049807 -0.3839 
0.10244 0.027303 -0.068057 0.053609 0.055582 -0.14698 -0.23592 0.14272 
0.32522 -0.020048 -0.025145 0.057391 0.098001 -0.094527 -0.27292 0.30204 
0.54751 -0.048163 0.010369 -0.0024557 0.060679 -0.011498 -0.09387 0.18892 
0.48651 -0.016431 0.033058 0.0052718 0.028125 -0.038133 -0.014458 0.012506 
0.27705 0.097179 0.014643 0.022535 -0.034023 -0.20107 -0.19696 -0.084169 
0.021056 0.14371 -0.033201 0.037332 -0.040928 -0.2254 -0.19729 -0.088115 
-0.13547 0.1248 -0.03205 0.085835 -0.0004827 -0.14287 0.1008 0.12957 
-0.17706 0.1174 -0.017253 0.051308 0.042265 -0.098309 0.53436 0.5023 
-0.096172 0.082875 0.0041209 0.038977 0.068242 0.020398 0.58763 0.50756 
-0.079566 0.063474 0.030756 0.062652 0.096686 0.1955 0.32687 0.48947 
-0.071509 0.0019835 0.051308 0.031742 0.093398 0.30105 0.028125 0.41959 
0.0095465 -0.020048 0.081724 0.0042853 0.068571 0.34775 -0.18348 0.23298 
0.15078 -0.052931 0.098988 -0.034352 0.043251 0.41598 -0.28179 0.14026 
0.16821 -0.037476 0.072353 -0.021363 0.049499 0.46284 -0.17049 0.13483 
0.027961 0.031249 0.014479 0.01711 0.047691 0.44968 0.051636 0.032236 
-0.12297 0.062159 0.017603 -0.011334 0.031249 0.30894 0.26537 -0.072167 
-0.32767 0.11543 0.016123 0.014643 0.0024767 0.082711 0.36402 -0.03616 
-0.37946 0.18563 0.0070803 0.047197 0.0047785 0.013492 0.35087 -0.036489 
-0.18841 0.13894 0.030592 0.055089 0.016781 0.015794 0.24959 -0.09946 
0.026481 0.065283 0.01974 0.072517 0.051801 -0.038133 0.18794 -0.21669 
0.14716 -0.0088678 0.038483 0.041114 0.028454 -0.17838 0.039634 -0.36877 
0.30911 -0.059178 0.054596 0.0088889 -0.0067304 -0.29922 -0.11886 -0.38472 
0.39148 -0.063782 0.081395 0.027468 -0.0060728 -0.19252 -0.10061 -0.22622 
0.24055 -0.016431 0.070051 0.026974 0.0031344 -0.11738 0.095864 0.06331 
0.079751 0.040456 0.061501 0.050157 0.036182 0.085835 0.27096 0.25288 
0.050486 0.030263 0.014972 0.064954 0.079916 0.43719 0.34232 0.30746 
0.094713 0.041278 0.0036276 0.093726 0.13434 0.7042 0.50805 0.085177 
0.17429 0.04506 -0.029584 0.076956 0.12661 0.51101 0.58023 -0.42615 
0.21276 0.014315 0.0065871 0.0085601 0.046211 0.11806 0.48207 -0.6172 
0.20569 0.02829 0.010862 -0.0088678 -0.029255 -0.012649 0.32752 -0.50885 
0.067091 0.074819 0.031085 -0.0070593 -0.028597 0.096028 0.013164 -0.43042 
-0.099624 0.077121 0.083368 -0.039778 -0.051615 0.055582 -0.23806 -0.43207 
-0.066577 0.076463 0.10343 -0.033037 -0.09387 0.038483 -0.13481 -0.18232 
0.043416 0.073832 0.093891 -0.030899 -0.07973 0.19912 0.11017 0.00099702 
0.11444 0.062817 0.081395 0.00297 -0.017417 0.2029 0.35778 0.042758 
-0.0013048 0.055911 0.016945 0.053609 0.050321 0.27507 0.63432 0.21523 
-0.12297 0.023028 -0.016924 0.081067 0.019411 0.19106 0.52614 0.20175 
-0.022021 0.026317 -0.0040998 0.086492 0.044896 0.11724 0.23529 -0.12593 
0.25091 -0.06296 0.037497 0.018589 0.0324 -0.091568 -0.19794 -0.25845 
0.36369 -0.10982 0.094877 -0.0503 0.020562 -0.49767 -0.63709 -0.13201 
0.26537 -0.035996 0.082053 -0.022021 0.013492 -0.7609 -0.88667 -0.06148 
0.030263 0.071859 0.038155 0.0024767 0.048184 -0.75728 -0.91775 0.037168 
-0.2499 0.17067 -0.0016336 0.063474 0.081231 -0.53318 -0.78194 0.19007 
-0.37206 0.2006 0.012835 0.047033 0.079916 -0.218 -0.49635 0.15719 
-0.37748 0.17462 0.017438 0.038648 0.10277 0.11822 -0.10817 -0.11261 
-0.17427 0.11806 -0.0067304 0.063474 0.085341 0.40332 0.26669 -0.11952 
0.094548 -0.0011404 0.029934 0.026974 0.047033 0.51216 0.4168 -0.022021 
0.22674 -0.052273 0.065776 0.038319 0.0067515 0.46152 0.45988 0.11872 
0.18317 -0.11376 0.085506 0.014479 0.0044497 0.305 0.33278 0.31799 
0.16492 -0.1187 0.11855 0.010533 -0.011827 0.18563 0.18169 0.33722 
0.18103 -0.031721 0.095699 0.033715 -0.0029489 0.063968 0.045553 -0.023665 
0.1738 0.093069 0.076134 0.043251 0.028125 0.01711 -0.047998 -0.46018 
0.23364 0.18892 0.06742 0.061008 0.061337 0.081724 -0.21307 -0.66702 
0.19928 0.16821 0.085012 0.040456 0.056076 0.11477 -0.32092 -0.61851 
0.067091 0.059364 0.14272 -0.0080457 -0.019884 -0.056055 -0.1672 -0.26963 
0.053609 -0.041586 0.16262 -0.048985 -0.11886 -0.45657 0.010862 0.053938 
0.067585 -0.079072 0.091589 -0.075127 -0.12725 -0.44769 -0.30662 0.32999 
-0.12577 0.011355 -0.018733 -0.0055795 0.015301 -0.097816 -0.40823 0.63366 
-0.37748 0.086985 -0.062467 0.0421 0.093069 -0.011827 0.097179 0.92007 
-0.52546 0.14404 -0.065591 0.061172 0.14913 0.027632 0.48322 0.90445 
-0.45426 0.21819 -0.05178 0.10441 0.17856 0.16031 0.38457 0.52564 
-0.25976 0.13878 -0.03353 0.083204 0.18942 0.083697 0.11329 0.066763 
-0.038462 0.050979 -0.013636 0.065118 0.12266 -0.078908 -0.069865 -0.046847 
0.10787 0.013164 -0.0057439 0.078765 0.009711 -0.36022 -0.25894 0.094548 
0.20487 0.087643 0.01974 0.068407 -0.033365 -0.4125 -0.32306 0.098988 
0.40562 0.060844 0.045553 0.043416 -0.021034 -0.11409 -0.23921 -0.033694 
0.65586 0.0069159 0.10573 0.023851 0.0031344 0.25041 -0.22803 -0.027118 
0.78295 -0.038133 0.16015 0.0075736 -0.026131 0.27294 -0.24069 0.093233 
0.68644 -0.093212 0.21227 0.013657 -0.04323 0.14124 -0.084169 0.19402 
0.524 -0.084498 0.18021 -0.011334 -0.021856 0.066763 0.021878 0.15719 
0.20717 -0.0029489 0.099481 -0.00015387 0.018589 0.3752 0.25173 0.17495 
-0.094527 0.0079024 0.031085 0.027796 0.058213 0.64451 0.4658 -0.10094 
-0.23231 -0.00081153 0.030756 0.044567 0.087808 0.46596 0.60061 -0.35923 
-0.29248 -0.010183 -0.014458 0.049828 0.059528 0.059857 0.43686 -0.28722 
-0.17871 0.063968 -0.017088 0.020562 0.018589 -0.19153 0.28609 -0.21965 
-0.121 0.061172 -0.033037 0.029441 0.015794 -0.22474 0.21112 -0.16013 
-0.30892 0.13532 -0.017911 0.054432 -0.019884 -0.13596 0.10293 0.13039 
-0.47843 0.17807 0.03651 0.033551 -0.059672 -0.14862 -0.12889 0.33525 
-0.47317 0.17133 0.049006 0.044896 -0.040271 -0.18019 -0.19959 0.46514 
-0.37535 0.11724 0.029934 0.037168 -0.017417 -0.12231 -0.38784 0.51183 
-0.28788 0.12497 -0.054575 0.099481 0.018754 -0.04882 -0.69201 0.49802 
-0.17772 0.079587 -0.084169 0.12612 0.034702 0.093562 -0.58711 0.44491 
0.0786 0.038483 -0.029584 0.079916 0.075805 0.31223 0.086657 0.24186 
0.30122 -0.0039354 0.051308 0.027961 0.037004 0.39822 0.84477 0.22476 
0.35169 -0.0087034 0.085999 0.0039565 0.083204 0.39099 1.122 0.31519 
0.48717 -0.029748 0.10096 -0.0029489 0.11806 0.38901 0.68858 0.12349 
0.55754 -0.051615 0.11362 0.032071 0.097508 0.14634 0.28428 -0.22639 
0.40743 -0.00081153 0.052459 0.022206 -0.017088 -0.33638 0.22657 -0.77832 
0.22723 0.064461 -0.0054151 0.011355 -0.080223 -0.60865 0.048841 -1.1182 
0.087479 0.092411 0.0060938 -0.015938 -0.11294 -0.49603 -0.14895 -0.87664 
0.096521 0.073339 0.049499 -0.083512 -0.1723 -0.41004 -0.082196 -0.47547 
0.13039 -0.019719 0.083368 -0.075127 -0.16802 -0.21175 0.071531 -0.27801 
0.046868 -0.02942 0.071366 -0.048985 -0.054739 0.13647 0.11888 -0.053095 
-0.11409 0.024344 -0.015116 0.098823 0.15735 0.52975 0.11461 0.26126 
-0.2231 0.065283 -0.05589 0.15851 0.29267 0.69022 -0.023994 0.45856 
-0.087293 0.0028056 -0.04882 0.11822 0.29809 0.55425 -0.16884 0.54537 
0.034866 -0.0083746 -0.048492 0.061501 0.2103 0.39016 -0.070359 0.37833 
-0.027282 0.069886 -0.07266 -0.0096899 0.063639 0.18892 0.12809 0.11592 
-0.25105 0.13105 -0.087293 -0.027447 0.007738 0.12562 0.2343 -0.069043 
-0.40182 0.17067 -0.080223 0.041278 0.01711 0.052952 0.26094 -0.27177 
-0.43684 0.17528 -0.094527 0.035031 -0.016102 -0.098309 0.17034 -0.33424 
-0.34838 0.13631 -0.066741 0.046868 -0.05885 -0.22951 -0.02235 -0.13251 
-0.18068 0.078436 -0.0004827 0.016123 -0.11508 -0.37617 -0.14434 0.071037 
-0.084663 0.063474 0.076627 -0.019226 -0.10571 -0.45887 -0.099131 0.20372 
-0.0019624 0.069558 0.091753 0.024015 -0.056877 -0.40642 -0.016595 0.31519 
0.076792 0.054432 0.078929 0.0421 0.045553 -0.13925 0.018754 0.51183 
0.16492 0.058213 0.045718 0.070544 0.10902 0.13072 0.019576 0.48931 
0.22805 0.090603 0.065776 0.06183 0.12924 0.18251 -0.086307 0.14042 
0.20964 0.045882 0.10935 0.01152 0.12464 0.072681 -0.091075 -0.049478 
0.244 0.0095465 0.15735 0.038319 0.11411 -0.028433 -0.09946 -0.13464 
0.24926 0.029441 0.21539 0.0016547 0.073997 0.020727 0.038319 -0.19318 
0.17412 0.054432 0.22148 0.015794 0.062817 0.17297 0.20355 -0.18874 
-0.022843 0.069393 0.19024 0.037497 0.014972 0.13253 0.16607 -0.035503 
-0.056877 0.035853 0.13056 -0.028597 -0.037311 -0.084334 -0.025309 0.10639 
0.19353 -0.043395 0.058542 -0.043724 -0.05589 -0.094856 -0.16342 0.00066819 
0.34347 -0.20879 -0.017417 -0.092883 -0.054904 -0.0096899 -0.27505 -0.18923 
0.11444 -0.16375 -0.097816 -0.0077169 -0.0406 0.0014903 -0.39951 -0.10209 
0.010862 0.029441 -0.21077 0.073997 0.0019835 0.13154 -0.39129 -0.20222 
-0.049971 0.20076 -0.20452 0.091918 0.082053 0.33591 -0.25236 -0.33852 
-0.19367 0.26521 -0.1358 0.12085 0.10606 0.42831 -0.029091 -0.21455 
-0.42911 0.27425 -0.019061 0.063145 0.054596 0.26505 0.10737 0.1539 
-0.55373 0.22805 0.051801 0.038812 0.041936 -0.12133 0.15045 0.6917 
-0.45722 0.21145 0.042758 0.08863 0.076463 -0.38768 0.17429 0.77703 
-0.17213 0.1539 0.040785 0.080573 0.079916 -0.41267 0.09685 0.25485 
0.069722 0.096357 0.027303 0.080738 0.074326 -0.37321 0.064461 -0.18594 
0.20109 0.0070803 0.033551 0.091425 0.056076 -0.21159 0.15028 -0.33786 
0.31634 -0.072167 0.080409 0.031249 -0.0070593 0.04095 0.1955 -0.21175 
0.36797 -0.098802 0.13171 -0.0014692 -0.050629 0.29069 0.074983 -0.086142 
0.49276 -0.082196 0.17281 -0.049807 -0.087951 0.475 0.009711 -0.023665 
0.51364 -0.057205 0.22279 -0.11212 -0.17887 0.23249 0.10474 0.27886 
0.47221 -0.0075525 0.20553 -0.10357 -0.18479 0.21753 0.32177 0.65734 
0.25584 0.024508 0.12677 -0.029913 -0.02794 0.62955 0.44311 0.96414 
-0.032708 0.026317 0.03092 0.086657 0.14552 0.7795 0.095535 1.1917 
-0.23296 0.00083261 -0.0040998 0.093891 0.18974 0.53205 -0.22655 1.1861 
-0.29413 -0.011498 0.01563 0.078107 0.15472 0.024837 -0.26338 0.39378 
-0.24069 -0.035174 0.056404 0.075641 0.071037 -0.4883 -0.28821 -0.62279 
0.020233 -0.011498 0.061172 0.024179 0.017767 -0.89144 -0.15421 -1.315 
0.46251 0.024508 0.047033 0.03536 -0.03353 -0.92893 0.029276 -1.3978 
0.58582 0.055747 0.044238 0.059693 -0.026296 -0.814 -0.22869 -0.91002 
0.31749 0.088136 0.017438 0.048019 0.035031 -0.55505 -0.46808 -0.39623 
-0.09798 0.10606 -0.0036066 0.11214 0.10622 0.12266 -0.27226 0.062817 
-0.32734 0.11313 -0.046847 0.11066 0.15144 0.5388 -0.0027845 0.52038 
-0.25598 0.073668 -0.058356 0.077778 0.10573 0.44607 0.1419 0.67246 
0.0064227 0.0056006 -0.017911 -0.0088678 -0.016924 0.31799 0.44196 0.74431 
0.26225 -0.032872 0.0016547 -0.0503 -0.089431 0.40332 0.64221 0.8622 
0.41532 -0.039942 0.0087245 -0.00064712 -0.10637 0.51874 0.54422 0.55589 
0.40217 -0.025474 0.048513 -0.066577 -0.12281 0.30779 0.50279 -0.24349 
0.30039 0.036182 0.063968 -0.061809 -0.091897 0.059693 0.59585 -0.98828 
0.20257 0.056733 0.016781 -0.0059084 0.0067515 -0.13925 0.43834 -1.1392 
0.065776 0.1197 -0.059672 0.074654 0.11132 -0.091732 0.31223 -0.437 
-0.15092 0.16031 -0.11163 0.14798 0.15341 0.021384 0.26455 0.24236 
-0.28196 0.1271 -0.087129 0.09981 0.09422 -0.06296 0.1664 0.43094 
-0.31139 0.085506 -0.011498 0.0786 0.037661 -0.20797 -0.029584 0.17462 
-0.20222 0.042429 0.067749 0.052952 -0.015938 -0.31895 -0.30794 0.0039565 
-0.182 -0.0032777 0.056404 0.013657 -0.038462 -0.24727 -0.74544 0.1225 
-0.16769 -0.024652 0.070708 0.031578 0.03651 -0.051287 -0.96756 0.32259 
0.00083261 0.023357 0.02533 0.052294 0.099316 0.13401 -0.82715 0.27096 
0.18843 0.0421 0.022206 0.037168 0.12069 0.29332 -0.27752 0.26899 
0.3632 -0.055068 0.092082 0.0052718 0.044567 0.16574 -0.022514 0.22822 
0.4071 -0.14106 0.13138 -0.056548 -0.011334 -0.13234 -0.12494 0.19205 
0.25337 -0.069043 0.091918 -0.042737 -0.047341 -0.30646 -0.26026 -0.094692 
0.032564 0.037168 0.049499 0.0088889 -0.049478 -0.31155 -0.094692 -0.40872 
-0.038791 0.14486 0.039141 0.015959 -0.033037 -0.13497 0.021056 -0.62756 
0.077943 0.14206 0.031249 0.037004 0.0054362 0.20734 0.10918 -0.93452 
0.16722 0.11444 0.012342 0.026646 0.082217 0.38507 0.42666 -0.84886 
0.033715 0.10524 -0.087129 0.090767 0.17889 0.45725 0.80663 -0.34263 
-0.21225 0.15193 -0.13481 0.15209 0.19468 0.37718 0.86121 0.10704 
-0.29314 0.092082 -0.079401 0.088958 0.099316 0.023851 0.56592 0.31141 
-0.19202 -0.017746 0.0034632 0.051143 -0.023172 -0.43552 0.067913 0.31766 
-0.0072237 -0.022185 0.078765 0.0036276 -0.02087 -0.55291 -0.34065 0.26899 
0.078436 0.079751 0.095535 0.0028056 0.051308 -0.21356 -0.5271 0.32851 
0.036182 0.12053 0.10425 0.034866 0.052459 0.15357 -0.64531 0.32555 
0.08863 0.1026 0.11888 -0.012485 0.0042853 0.28478 -0.53499 0.11165 
0.16393 0.046046 0.11132 -0.049971 -0.017088 0.14979 -0.23839 -0.092554 
0.14798 0.016288 0.094548 -0.062302 0.02533 -0.00081153 -0.06707 -0.023665 
-0.010183 -0.017088 0.064296 -0.018568 0.083862 -0.034681 0.11954 0.092411 
-0.20666 0.044402 0.032071 0.061337 0.12628 0.15982 0.37274 0.17626 
-0.33605 0.13615 0.004943 0.089452 0.10737 0.38244 0.4214 0.10425 
-0.30481 0.11461 -0.020212 0.094055 0.0095465 0.16442 0.27886 -0.055397 
-0.18298 0.052952 -0.013471 0.034209 -0.038462 -0.038133 0.084355 -0.18397 
-0.039613 0.015137 0.04095 -0.025967 -0.093376 -0.16407 -0.23691 -0.26272 
-0.0022913 -0.013965 0.043087 0.0047785 -0.090088 -0.28344 -0.4222 -0.21126 
-0.15224 0.036839 0.011355 -0.015444 -0.044381 -0.32997 -0.33852 -0.064604 
-0.29692 0.082546 0.014479 0.012342 0.036675 -0.133 -0.27226 -0.030077 
-0.089595 0.085012 0.022864 0.040128 0.083368 0.040292 -0.35463 -0.16292 
0.19122 0.037497 0.049006 0.017603 0.078107 -0.10406 -0.060987 -0.30991 
0.29448 0.017767 0.056076 0.047855 0.042265 -0.13333 0.43998 -0.30563 
0.19501 0.08304 -0.011663 0.062159 0.057227 0.016945 0.66983 -0.15733 
-0.0011404 0.090109 -0.023172 0.079258 0.027139 0.055911 0.56066 0.079751 
-0.11623 0.080409 -0.015938 0.10359 0.050157 0.19747 0.47451 0.34199 
-0.067892 0.078436 0.0047785 0.061995 0.11987 0.5115 0.5115 0.8885 
0.077285 0.0013258 0.072517 0.047526 0.056404 0.54521 0.48207 1.021 
0.10178 -0.041915 0.09833 0.027796 0.083533 0.1904 0.12891 0.69367 
-0.12215 0.0037921 0.10639 0.026317 0.072188 -0.10965 -0.34148 0.70946 
-0.32734 -0.014622 0.13417 0.0085601 0.070051 -0.19071 -0.59599 0.47632 
-0.35874 -0.052437 0.19517 -0.057205 -0.021199 -0.43569 -0.80496 -0.17986 
-0.23609 -0.029913 0.16919 -0.12577 -0.10275 -0.6292 -0.77405 -0.41497 
-0.050793 0.076463 0.059693 -0.038956 -0.064768 -0.26387 -0.36614 -0.19285 
0.14996 0.16377 -0.063618 0.081395 0.048019 0.12694 -0.019226 -0.026953 
0.24121 0.21424 -0.097651 0.15587 0.092247 0.097672 0.13121 -0.18874 
0.27277 0.15883 -0.05589 0.074819 0.01267 0.060844 0.17232 -0.41152 
0.18218 0.052787 0.012835 0.026646 0.00297 0.21934 0.24729 0.13286 
0.15867 -0.041586 0.051472 0.029112 0.010204 0.23315 0.34939 0.80827 
0.33788 -0.098967 0.10984 0.0067515 -0.058028 0.072353 0.52877 0.83375 
0.53255 -0.10817 0.098823 0.0062583 -0.13086 0.031414 0.54998 0.24581 
0.52186 -0.1039 0.088301 -0.045532 -0.18068 0.056733 0.42486 -0.30448 
0.17149 -0.055726 0.049664 -0.018404 -0.12889 0.18152 0.41647 -0.53976 
-0.12971 0.022864 0.021384 0.072188 0.016452 0.30434 0.44343 -0.46347 
-0.33063 0.070873 -0.034188 0.078929 0.12349 0.28823 0.38293 -0.32865 
-0.4102 0.12842 -0.02794 0.069393 0.11674 0.010697 0.087643 -0.15109 
-0.38011 0.17889 0.0032988 0.022535 0.061008 -0.3908 -0.31862 0.19698 
-0.14484 0.12595 0.061995 -0.031886 0.0024767 -0.84179 -0.56623 0.34544 
-0.035667 0.12579 0.078436 -0.011334 0.042265 -0.71946 -0.43667 0.23397 
-0.077757 0.13762 0.0062583 0.036675 0.1733 -0.23033 -0.31714 0.065612 
-0.1889 0.16607 -0.074304 0.12875 0.25255 0.12595 -0.25697 0.013164 
-0.30399 0.13253 -0.12067 0.19977 0.26653 0.46168 -0.096665 -0.031064 
-0.21225 0.074983 -0.0965 0.14601 0.17067 0.52712 0.15637 0.0037921 
0.068078 -0.035174 0.015301 0.060022 -0.053917 0.27014 0.24778 0.13269 
0.47188 -0.18611 0.15242 -0.087951 -0.19301 0.026317 -0.0019624 0.21572 
0.8405 -0.20633 0.16853 -0.091732 -0.13826 -0.16687 -0.24891 0.20092 
1.0199 -0.12281 0.10836 -0.021856 0.0019835 0.048184 -0.20896 0.24137 
1.1662 -0.061809 0.08978 -0.045696 0.016452 0.30779 -0.028104 0.18383 
0.99537 0.026152 0.096028 -0.053095 0.0074092 0.38753 0.12085 -0.10538 
0.51052 0.10737 0.088958 -0.04471 0.032729 0.44163 0.28428 -0.46824 
-0.15914 0.20224 0.038812 0.041936 0.073504 0.56724 0.34923 -0.52135 
-0.55078 0.17149 0.01563 0.051965 0.06742 0.49983 -0.095185 -0.42237 
-0.52365 0.12628 0.041936 0.031249 0.11346 0.23562 -0.30268 -0.20584 
-0.29561 0.13056 0.0098754 0.045553 0.1567 0.10688 0.005765 0.0039565 
-0.080881 0.15966 -0.04471 0.094877 0.18761 0.23397 0.51479 0.24219 
-0.036983 0.16788 -0.078579 0.1151 0.17232 0.26324 0.77078 0.26011 
-0.10094 0.17922 -0.052602 0.12332 0.14617 0.18974 0.83277 0.11559 
-0.1307 0.15933 -0.033859 0.075641 0.10145 0.20306 0.86286 -0.13053 
-0.086636 0.046211 0.030427 -0.038462 -0.012156 0.19435 0.72606 -0.31747 
0.039799 -0.0138 0.1271 -0.13382 -0.18578 -0.10735 0.28231 -0.27275 
0.28609 -0.042244 0.1031 -0.16983 -0.23559 -0.37683 -0.109 -0.034516 
0.57316 -0.065262 0.047855 -0.038956 -0.1233 -0.38439 -0.39771 0.378 
0.68118 -0.090581 -0.027447 0.047526 0.058213 -0.15914 -0.50293 0.62084 
0.47681 -0.049642 -0.061316 0.10326 0.17363 0.032564 -0.45558 0.45938 
0.08304 -0.0083746 -0.026296 0.1077 0.14437 -0.0032777 -0.31961 0.30911 
-0.30268 0.06035 0.026646 0.086163 0.097015 -0.087622 -0.17641 0.17215 
-0.40757 0.15916 0.014643 0.10589 0.071366 -0.12445 -0.098638 0.0059294 
-0.34131 0.15538 0.028947 0.070215 0.078107 0.032729 -0.14319 -0.16539 
-0.22968 0.075148 0.029441 0.030263 0.098166 0.10606 -0.18726 -0.27686 
-0.010348 0.063968 0.024015 0.038155 0.088958 0.025001 -0.15668 -0.24382 
0.19533 0.10688 0.026152 -0.0138 0.01974 -0.0070593 -0.098802 -0.25943 
0.22263 0.099316 0.036346 -0.027118 -0.10554 -0.20452 -0.1159 -0.18676 
0.091918 0.035524 0.054267 -0.018568 -0.21669 -0.35183 -0.078086 -0.33424 
-0.10127 0.028125 0.079916 -0.0011404 -0.2203 -0.096336 0.13697 -0.60552 
-0.33457 0.049335 0.041278 0.075312 -0.12067 0.22871 0.31536 -0.43092 
-0.47054 0.097837 0.046375 0.071037 -0.030077 0.10672 0.2029 0.33246 
-0.3788 0.090931 0.056569 0.05624 -0.045039 -0.17838 0.088136 1.2229 
-0.096994 0.053774 0.041607 0.039305 -0.061151 -0.32504 0.17873 1.569 
0.14617 0.0079024 0.021878 -0.0062372 -0.03057 -0.33852 0.2925 1.0496 
0.12875 0.019247 0.012835 0.014808 -0.092883 -0.4444 0.28067 0.033058 
-0.049478 0.04917 -0.0032777 0.0092177 -0.12149 -0.28031 0.36501 -0.78539 
0.093069 0.00066819 -0.0088678 0.0074092 -0.064933 0.099152 0.33985 -1.5741 
0.44327 -0.10571 0.055089 0.0056006 0.084684 0.51561 0.14453 -1.9368 
0.66408 -0.12412 0.077121 0.022206 0.20799 0.88587 -0.0060728 -1.5054 
0.49227 -0.082032 0.090438 0.022864 0.18596 0.78739 0.066434 -0.3252 
0.062652 0.01004 0.051143 0.0090533 0.15966 0.54899 0.22016 0.87371 
-0.33654 0.074161 0.014808 0.026317 0.18169 0.54406 0.36106 1.6075 
-0.4324 0.057555 0.032071 0.039634 0.17265 0.46218 0.090931 1.4501 
-0.41628 0.012342 0.070708 -0.044381 0.081067 -0.038133 -0.45657 0.7356 
-0.46857 -0.021856 0.11083 -0.06855 -0.054246 -0.70911 -0.85412 0.2828 
-0.6417 0.022042 0.081724 -0.022679 -0.072989 -1.1576 -1.1831 0.035195 
-0.66817 0.047855 0.007738 0.099645 -0.021528 -1.0884 -0.98022 -0.31879 
-0.29166 0.082382 -0.030406 0.16492 0.028454 -0.63775 -0.54025 -0.59303 
0.16673 0.13203 -0.045532 0.12842 -0.014787 -0.38094 -0.15865 -0.53088 
0.3803 0.10589 -0.028269 0.073832 -0.0068948 -0.17246 0.025659 -0.37617 
0.35268 0.0689 -0.02235 0.038977 0.038483 -0.13727 0.12217 -0.055561 
0.16706 0.059693 0.023522 0.005765 0.057555 -0.16555 0.39937 0.47681 
-0.055232 0.075476 0.0014903 0.041443 0.03947 0.053281 0.65076 0.67066 
-0.071016 0.093398 0.049664 0.042758 0.024508 0.45133 0.74563 0.42913 
0.012506 0.072681 0.0070803 0.074326 0.048513 0.57858 0.57628 0.11231 
0.11066 0.073175 0.065118 0.056733 0.010204 0.49194 0.293 -0.1963 
0.17676 -0.00097594 0.14979 -0.021528 -0.021528 0.4094 0.34709 -0.44473 
0.20208 -0.048327 0.16048 -0.024158 -0.028104 0.41713 0.63005 -0.40494 
0.34331 -0.07266 0.11231 -0.017253 -0.0055795 0.24318 0.21917 -0.29807 
0.38129 -0.080059 0.054925 0.042265 0.053116 0.076792 -0.48633 -0.36926 
0.34035 -0.016102 0.029276 0.044731 0.14371 -0.19186 -1.0509 -0.5613 
0.10096 0.052787 0.075476 0.04358 0.15111 -0.36663 -1.1724 -0.59632 
-0.28031 0.048348 0.095042 0.022864 0.12973 -0.34904 -0.94076 -0.39195 
-0.53022 0.045718 0.063145 0.024673 0.10408 -0.07414 -0.5784 0.11033 
-0.34213 0.048184 0.0083956 0.024179 0.062981 0.021713 -0.11952 0.78854 
0.10178 0.12579 -0.033859 0.05772 0.042265 0.14091 0.45133 1.3331 
0.41022 0.16442 -0.045203 0.027303 0.037497 0.29628 0.70617 1.4245 
0.38014 0.13615 -0.056055 0.021549 0.025495 0.32292 0.57546 1.1057 
0.094548 0.12431 -0.076606 0.062817 0.077778 0.28708 0.32571 0.50558 
-0.084169 0.082711 -0.08532 0.074161 0.10672 0.20651 0.32128 0.088136 
-0.038627 0.0065871 -0.017911 0.10408 0.11346 0.083862 0.22345 -0.14287 
0.20997 -0.0055795 0.043745 0.037168 0.075148 -0.0031133 -0.047341 -0.32323 
0.28773 -0.028597 0.092411 0.024179 0.03536 -0.12462 -0.19071 -0.38883 
0.21506 0.0036276 0.11757 0.052623 0.045718 -0.15191 -0.24497 -0.51674 
0.15324 0.0421 0.10343 0.08304 0.074654 -0.095514 -0.19137 -0.55669 
0.16492 0.09685 0.055582 0.098823 0.070544 -0.061973 -0.17131 -0.26206 
-0.014951 0.096193 0.065283 0.054103 0.0070803 -0.12708 -0.22441 0.094548 
-0.25467 0.11461 0.082546 0.034866 -0.029255 -0.2476 -0.32849 0.20816 
-0.27489 0.15292 0.13795 0.035853 -0.041751 -0.3127 -0.32388 0.12464 
-0.10702 0.093233 0.14848 0.027961 -0.0096899 -0.25812 -0.20551 -0.084334 
0.12776 0.0056006 0.13187 0.01826 0.012999 -0.24513 -0.099624 -0.11968 
0.31634 0.025659 0.084848 0.019083 0.040785 -0.12823 -0.063453 -0.024158 
0.41203 -0.0091966 0.046868 0.025001 -0.0039354 -0.036983 0.028619 -0.067892 
0.37718 -0.080223 0.0098754 0.032564 -0.088115 -0.026789 0.17133 -0.028762 
0.25321 -0.13843 0.0013258 -0.0406 -0.1769 -0.059343 0.36271 0.029769 
0.12694 -0.12462 0.037332 -0.087622 -0.23773 -0.10752 0.28987 0.1807 
-0.066413 0.020562 0.027961 -0.026296 -0.21373 -0.085813 0.11132 0.53353 
-0.25319 0.19829 -0.057041 0.046375 -0.10916 0.0098754 0.012999 0.76914 
-0.36614 0.31618 -0.10521 0.16146 0.0098754 0.1664 0.14404 0.92155 
-0.32257 0.26406 -0.06707 0.13598 0.059364 0.24351 0.42288 0.88291 
-0.18232 0.14371 -0.018239 0.10195 0.082711 0.29859 0.54011 0.6603 
-0.0073881 0.03947 0.0075736 0.050814 0.073997 0.27606 0.27277 0.18678 
0.1174 -0.04882 0.0095465 -0.028762 0.013986 0.085835 -0.027775 -0.3765 
0.084519 -0.062302 -0.0088678 -0.035832 -0.01232 0.058706 -0.32832 -0.7923 
0.10343 0.0028056 0.033715 -0.011827 0.020891 0.20092 -0.18528 -1.4062 
0.11724 0.070544 0.024673 0.025495 0.0067515 -0.041422 -0.19022 -1.7245 
0.014972 0.078272 0.048184 0.017274 0.035524 -0.31517 -0.76599 -1.238 
-0.18052 0.0421 0.049992 -0.017746 0.028947 -0.51806 -0.93402 -0.37041 
-0.049314 0.048019 0.08715 -0.015773 0.0059294 -0.52365 -0.40741 0.19385 
0.29645 -0.0064016 0.06479 0.023028 0.083533 -0.23724 0.25107 0.27688 
0.57908 -0.044052 0.082053 0.023357 0.10326 -0.040106 0.69647 -0.10127 
0.34166 -0.077593 0.076956 -0.0027845 0.036346 -0.078579 0.69285 -0.34789 
-0.099295 -0.062796 0.07038 -0.006566 0.099152 0.2634 0.658 -0.17657 
-0.25269 0.014315 0.023193 0.030756 0.18267 1.0273 0.89788 0.2491 
-0.2282 0.11773 0.021056 0.08567 0.21753 1.2433 1.1309 0.7139 
-0.1016 0.19846 0.049335 0.053609 0.11543 0.8326 1.0327 1.3009 
-0.056877 0.13976 0.067091 0.057884 -0.010841 0.57398 0.98469 1.6203 
-0.069701 0.082711 0.073668 0.0034632 -0.046683 0.6113 0.86713 1.4577 
-0.096829 0.050157 0.079422 -0.025474 -0.071838 0.37159 0.5753 1.0117 
0.0088889 0.044402 0.0072447 -0.01939 -0.079566 -0.13168 0.17807 0.4385 
0.26718 0.069886 -0.081045 -0.02498 -0.020377 -0.18446 -0.16999 -0.52973 
0.45149 0.13861 -0.11294 -0.0054151 0.080244 0.11576 -0.37436 -1.0904 
0.29776 0.11921 -0.085156 -0.046683 0.095699 0.11559 -0.31122 -0.76616 
-0.051451 0.061995 -0.026953 -0.019884 0.058213 0.099645 -0.037805 -0.41513 
-0.42155 0.062159 -0.052437 0.030592 0.029276 -0.018239 0.0087245 -0.52891 
-0.45492 0.059035 -0.063453 0.072846 0.0047785 -0.17772 -0.1649 -0.93156 
-0.21899 0.00017495 -0.022679 0.1008 -0.0050863 -0.24743 -0.22096 -1.1616 
-0.096994 -0.026953 0.029934 0.077778 0.0047785 -0.21899 -0.10916 -0.89999 
-0.21981 0.0024767 0.035688 0.037004 0.014808 -0.011663 0.18267 -0.34493 
-0.43371 0.024508 0.031742 0.042265 0.063639 0.33805 0.40102 0.2833 
-0.42779 0.035524 0.043251 0.023357 0.10836 0.45922 0.38951 0.65619 
-0.098309 0.043745 0.048348 0.02533 0.11822 0.32325 0.15768 0.53436 
0.20372 0.068407 0.037661 0.080244 0.13976 0.20914 -0.021856 0.66194 
0.27787 0.022042 0.08567 0.0786 0.11658 0.077449 -0.14895 0.95476 
0.28691 0.014808 0.14289 0.070544 -0.0095255 -0.23346 -0.15898 1.0639 
0.41664 -0.013143 0.19254 -0.020048 -0.10489 -0.39508 -0.23395 0.56083 
0.4875 -0.065919 0.11937 -0.00031829 -0.10012 -0.22704 -0.24118 -0.084827 
0.3101 -0.026296 -0.0067304 0.053938 -0.058192 0.07597 0.085012 -0.23148 
-0.080717 0.082875 -0.049149 0.068407 0.01974 0.23644 0.52038 0.066105 
-0.24497 0.098659 -0.028104 0.050486 0.040785 -0.10982 0.44985 0.23216 
-0.057534 0.059035 0.0093821 -0.014293 -0.013471 -0.49422 0.14009 0.025495 
0.36106 -0.035996 0.035524 -0.032872 -0.029584 -0.61407 -0.04882 -0.22918 
0.50279 -0.11853 0.03799 -0.042737 -0.0014692 -0.45032 -0.29445 -0.28854 
0.18925 -0.023501 0.024344 -0.008539 0.03651 -0.45985 -0.65452 -0.10505 
-0.32076 0.13516 0.026974 -0.0083746 0.059364 -0.413 -1.1067 -0.00097594 
-0.3811 0.1881 -0.15618 0.07301 0.15818 -0.14467 -1.4988 -0.084334 
0.039963 0.11839 -0.30909 0.11642 0.23644 0.0059294 -1.4953 -0.11097 
0.40907 0.031578 -0.23625 0.099481 0.21769 -0.14681 -1.0549 -0.59171 
0.41581 -0.001798 -0.076442 0.020069 0.13319 -0.095021 -0.46396 -0.90377 
0.15209 -0.086307 0.09685 -0.040928 0.036017 0.23414 0.20783 -0.73804 
0.040456 -0.099789 0.16179 -0.03057 -0.019555 0.33673 0.47928 -0.35742 
0.011191 -0.016102 0.13434 -0.027118 -0.035667 0.46333 0.63251 0.2292 
0.065776 0.096686 0.082382 0.081889 0.046704 0.87157 0.76914 0.8012 
-0.039778 0.14667 0.041443 0.11822 0.10967 1.044 0.95328 1.0565 
-0.24102 0.14798 0.022371 0.15933 0.059857 0.68923 0.99965 0.92994 
-0.2693 0.1322 -0.00097594 0.14815 -0.037311 0.12217 0.84 0.16673 
-0.079237 0.0059294 0.064132 0.076627 -0.13037 -0.48534 0.3849 -0.45098 
0.012999 -0.023007 0.19517 0.049664 -0.14846 -0.79098 -0.16227 -0.42401 
0.013492 -0.036818 0.33887 -0.004593 -0.073318 -0.85839 -0.61013 -0.18019 
0.12694 -0.035667 0.43439 -0.024487 -0.020377 -0.79855 -0.96247 -0.13267 
0.26455 -0.013636 0.40546 -0.014622 0.054267 -0.51559 -1.144 -0.086636 
0.3655 0.044567 0.28116 -0.057534 0.055254 -0.30498 -1.0522 -0.15848 
0.36797 0.049006 0.10178 -0.07973 0.050486 -0.24842 -0.75974 -0.2693 
0.3198 -0.0055795 -0.10225 -0.085485 0.041607 -0.10932 -0.39376 -0.25582 
0.32358 -0.025802 -0.23839 -0.04619 0.041278 0.04654 -0.096665 -0.099624 
0.28626 -0.064604 -0.27719 0.025166 0.020891 0.12842 0.17199 0.08419 
0.13434 -0.060165 -0.22672 0.02829 0.013164 0.14009 0.19714 0.1105 
-0.047669 0.007738 -0.14862 0.01711 -0.0027845 0.12431 0.14617 0.097837 
-0.0019624 0.11559 -0.051451 0.049006 0.02681 0.10556 0.29152 0.10474 
-0.015444 0.20355 0.0324 0.10474 0.10639 0.24614 0.50114 0.26126 
-0.16128 0.27491 0.030427 0.17725 0.14667 0.34495 0.23151 0.35219 
-0.17641 0.2662 0.055911 0.18744 0.15045 0.12579 -0.20879 0.19994 
-0.096172 0.10425 0.1294 0.054267 0.012835 -0.069043 -0.37715 0.080573 
-0.017746 -0.035174 0.18218 -0.028269 -0.088773 -0.0054151 -0.303 -0.020541 
0.020398 -0.061809 0.1659 -0.035338 -0.050629 0.1299 -0.047834 -0.13267 
-0.073154 0.0088889 0.10589 0.018096 -0.027118 0.15078 0.38359 -0.267 
-0.085156 0.025824 0.0786 0.0090533 -0.038133 0.10244 0.55672 -0.57379 
-0.0049219 0.021056 0.08419 0.024837 -0.016924 0.26883 0.45379 -0.83209 
0.1008 0.042594 0.13927 0.057884 0.03651 0.34988 0.47961 -0.88914 
0.0059294 0.059693 0.14141 0.02533 0.011026 0.21243 0.63465 -0.47449 
-0.17147 0.12842 0.067749 -0.019061 -0.061809 0.23808 0.66145 0.23759 
-0.25253 0.18415 0.058542 -0.019061 -0.075127 0.39904 0.68068 0.91777 
-0.25516 0.13615 0.026646 -0.019719 -0.0057439 0.42255 0.6164 1.5583 
-0.20715 0.091918 1.0539e-005 0.041772 0.045389 0.45215 0.65602 1.7793 
-0.10324 0.0044497 0.026974 0.00050378 0.034702 0.49966 0.56592 1.3849 
0.078107 0.0046141 0.027139 0.013821 0.045389 0.37191 -0.008539 0.80811 
0.25978 -0.00031829 0.054103 0.030756 0.02829 -0.051287 -0.61128 0.20914 
0.28757 0.014315 0.051965 0.010862 -0.022843 -0.46824 -0.7803 -0.37896 
0.039963 0.073339 0.0051074 0.076792 -0.0083746 -0.79559 -0.70763 -0.58382 
-0.13744 0.082217 -0.051615 0.060679 -0.003771 -0.83587 -0.64877 -0.61605 
0.0092177 0.095206 -0.068057 0.083533 0.073832 -0.52628 -0.38735 -0.53253 
0.25222 0.10819 -0.063618 0.11477 0.063145 -0.58645 -0.10012 -0.20649 
0.30779 0.055254 -0.026953 0.06742 0.0070803 -0.73393 0.038648 0.17199 
0.0085601 0.052294 -0.039778 0.054432 0.024508 -0.65962 0.018096 0.47599 
-0.39803 0.1003 -0.03501 0.012506 -0.032708 -0.7313 -0.30646 0.65306 
-0.53746 0.088136 -0.025638 -0.025309 -0.18068 -0.78638 -0.53039 0.65734 
-0.22688 -0.021692 0.040621 -0.053917 -0.25023 -0.45114 -0.45657 0.25683 
-0.017582 -0.037969 0.01152 -0.049149 -0.21422 0.29727 -0.2305 -0.072003 
-0.071674 0.016288 0.0087245 -0.035996 -0.133 0.79462 0.093726 -0.091732 
-0.15848 -0.034681 0.072024 -0.045368 -0.095021 1.0465 0.77473 -0.25368 
-0.018733 -0.025309 0.1128 -0.084498 -0.017582 1.2598 1.5542 -0.37814 
0.31174 0.11724 0.027632 0.011355 0.13565 1.5077 1.9036 -0.085649 
0.45001 0.17001 -0.1159 0.097179 0.31832 1.5133 1.6941 0.38112 
0.30007 0.087972 -0.11212 0.11855 0.35958 1.2501 1.1577 0.59798 
0.07038 0.010369 -0.041422 0.10951 0.30862 0.61854 0.41664 0.34758 
-0.1279 0.044731 -0.021856 0.093726 0.19944 -0.20337 -0.49964 -0.28788 
-0.12314 0.061172 -0.045532 0.098001 0.061008 -0.63479 -1.0572 -0.92268 
-0.031064 0.05772 -0.019719 0.025988 -0.0050863 -0.84491 -1.1491 -0.96526 
-0.062302 0.094548 -0.034681 0.052623 0.055089 -0.82272 -0.74051 -0.11607 
-0.19729 0.10869 -0.064275 0.096686 0.1003 -0.59073 -0.36828 0.5434 
-0.037805 0.060186 -0.011827 0.047691 -0.10456 -0.56557 -0.64975 0.50098 
0.3535 0.03092 0.049006 0.013328 -0.27785 -0.42779 -0.87549 0.023193 
0.45149 0.020233 0.082053 -0.04619 -0.28788 -0.025802 -0.59517 -0.1478 
0.21638 0.034373 0.081231 -0.06148 -0.19005 0.077449 -0.1792 0.0092177 
0.16853 0.01152 0.10556 -0.0044286 -0.10982 0.01152 0.12562 0.10737 
0.26916 0.00297 0.076627 -0.034023 0.015465 0.038977 0.30977 0.063639 
0.24417 -0.004593 0.050321 0.019905 0.16623 0.062488 0.37323 0.11773 
0.04654 0.020562 -0.0047575 0.052459 0.28938 0.034044 0.24943 0.35169 
-0.13382 0.035853 -0.0070593 0.047197 0.33903 0.10507 0.33426 0.48717 
-0.3377 -0.0078813 0.0056006 0.060186 0.29398 0.39263 0.70666 0.57053 
-0.30613 -0.038791 0.012342 0.0034632 0.23233 0.51249 0.64665 0.45659 
-0.033201 0.0036276 0.047855 0.0072447 0.20947 0.30598 0.31766 0.047691 
0.26324 0.064132 0.046868 0.051965 0.27475 0.18152 0.20619 -0.56097 
0.27146 0.10704 -0.010676 0.09126 0.34479 0.29908 0.26768 -1.0041 
0.13976 0.13697 -0.032379 0.11559 0.28017 0.39329 0.21243 -1.2694 
0.13006 0.07449 0.017603 0.039634 0.13762 0.41927 -0.0088678 -1.376 
0.27738 -0.076606 0.11214 -0.016595 -0.0077169 0.45823 -0.21586 -1.3382 
0.34955 -0.092883 0.17971 -0.043066 0.0067515 0.45462 -0.19219 -0.62756 
0.23677 -0.075291 0.18004 -0.067399 0.026974 0.4094 0.076792 0.22246 
0.048348 -0.012814 0.13483 0.012835 0.035524 0.24992 0.25041 0.67608 
-0.095514 0.033222 0.047526 0.054925 -0.05737 -0.10209 0.18481 0.74629 
-0.24398 0.12168 0.0093821 0.061995 -0.12018 -0.35381 0.20668 0.65356 
-0.449 0.21375 -0.052766 0.071037 -0.16983 -0.61966 0.25074 0.55507 
-0.5225 0.24647 -0.050136 0.069886 -0.13727 -0.8551 -0.07825 0.15752 
-0.37387 0.20323 -0.066084 0.066269 -0.06444 -0.73558 -0.53581 -0.13481 
-0.12034 0.14798 -0.017253 0.088465 0.038483 -0.46791 -0.61588 -0.19778 
0.11411 0.054103 0.031085 0.021384 0.063145 -0.33885 -0.55061 -0.19975 
0.21654 -0.016431 0.080244 0.020398 0.027139 -0.15931 -0.43388 -0.21323 
0.17856 0.035195 0.098823 -0.015938 -0.069208 0.11921 0.019576 -0.15914 
0.081067 0.029934 0.072353 0.033058 -0.11048 0.38145 0.17856 0.094548 
0.017438 0.037332 0.037004 0.081889 -0.098473 0.40924 -0.045861 0.22739 
0.19468 0.019576 0.050814 0.047855 0.041607 0.23298 -0.13892 0.084848 
0.39016 -0.042737 0.09685 0.0070803 0.092247 -0.031228 0.147 -0.16572 
0.45774 -0.05885 0.10195 -0.038133 0.074819 -0.16457 0.50147 -0.19071 
0.26784 0.00083261 0.047855 0.015794 0.093233 -0.15059 0.78147 -0.019061 
0.12891 0.084355 0.0075736 0.048348 0.062981 -0.27472 0.69844 0.080738 
0.10096 0.07597 0.037826 0.012999 -0.043559 -0.5322 0.024015 0.092904 
-0.0014692 0.017932 0.12332 -0.041422 -0.040435 -0.5904 -0.4929 0.03947 
-0.069208 -0.040928 0.15768 -0.034023 0.044896 -0.39705 -0.60076 0.10918 
-0.23707 -0.09387 0.11559 0.00083261 0.19221 -0.18364 -0.4615 0.13006 
-0.33506 -0.028104 0.079422 0.091589 0.25814 -0.11459 -0.28048 0.022206 
-0.15931 0.069393 0.0069159 0.038155 0.23759 -0.058028 -0.41053 -0.013471 
0.0080668 0.12546 0.0070803 0.010533 0.13549 -0.20008 -0.58481 0.18415 
0.0023123 0.13368 0.016123 0.0075736 0.014972 -0.14221 -0.3742 0.29415 
0.053445 0.12727 0.0069159 0.0227 -0.091075 0.088958 -0.19071 0.29744 
0.22953 0.09833 0.02829 0.059857 -0.21685 0.22772 0.25567 0.35005 
0.33887 0.03947 0.049664 0.039799 -0.2134 0.53288 0.97975 0.38523 
0.12464 0.0067515 0.056076 0.04917 -0.058521 1.0445 1.2849 0.31881 
-0.22639 0.06594 -0.019226 0.099974 0.048841 1.0043 1.1553 0.1465 
-0.29955 0.094877 -0.043559 0.085341 -0.11113 0.39378 0.78838 0.11017 
-0.15158 0.070544 -0.017582 0.057391 -0.28919 -0.19219 0.27639 0.030098 
0.032564 0.036346 0.034373 -0.0016336 -0.3132 -0.41793 -0.28886 -0.23592 
0.1276 0.0324 0.064625 0.0013258 -0.19005 -0.40691 -0.8334 -0.4444 
0.21671 -0.0026201 0.064296 0.027139 -0.067564 -0.3298 -1.1438 -0.35545 
0.24367 -0.018897 0.043909 0.027139 0.045553 -0.35085 -1.0953 -0.020212 
0.29678 -0.027611 0.041936 0.0074092 0.0067515 -0.34937 -0.96477 0.1008 
0.29431 -0.066084 0.03799 -0.0052507 0.089287 0.02533 -0.55571 0.086985 
0.16738 -0.069372 0.077285 -0.011992 0.24893 0.26685 -0.05178 -0.1376 
-0.0096899 -0.024816 0.076792 -0.0034422 0.38392 0.16278 0.057555 -0.656 
-0.14007 0.010697 0.05476 0.010204 0.40118 0.11165 0.15489 -0.89193 
-0.29659 0.10063 0.0016547 0.054596 0.2708 0.17856 0.34495 -0.48994 
-0.4028 0.15176 -0.0091966 0.086985 0.17906 0.35482 0.62347 0.18415 
-0.2568 0.085506 0.039634 0.0075736 0.061172 0.41696 0.88489 0.59256 
0.049499 -0.029255 0.13713 -0.032708 -0.069043 0.15966 0.79018 0.90823 
0.36583 -0.052273 0.12299 -0.073318 -0.27292 -0.23066 0.38457 1.3449 
0.46859 0.030592 0.052294 0.027139 -0.35134 -0.51296 -0.15964 1.5988 
0.39526 0.13384 -0.080717 0.15078 -0.23888 -0.44045 -0.63824 1.2836 
0.1151 0.23266 -0.17312 0.22904 -0.001798 0.20339 -0.72867 0.68825 
-0.18315 0.22526 -0.13662 0.17396 0.094384 0.49917 -0.61523 0.29086 
-0.28623 0.068571 0.021384 -0.011992 -0.015444 0.22904 -0.52118 0.1202 
-0.050958 -0.10373 0.15472 -0.15799 -0.109 -0.14533 -0.47695 -0.41645 
0.23167 -0.16638 0.16574 -0.12889 -0.037476 0.0080668 -0.23724 -1.2484 
0.20997 -0.15618 0.10343 -0.040928 0.15111 0.38737 0.44113 -1.7521 
-0.03205 -0.079237 0.041772 0.043745 0.293 0.52301 1.0873 -1.3686 
-0.33917 0.052952 -0.055068 0.05065 0.29053 0.52926 0.99061 -0.36006 
-0.43371 0.10392 -0.012156 0.028454 0.26159 0.44196 0.49375 0.61443 
-0.32372 0.081395 -0.016595 0.062323 0.31305 0.27803 0.03388 1.4288 
-0.29758 0.098659 -0.032379 0.079258 0.44376 0.19796 -0.23379 1.3727 
-0.20995 0.15653 -0.040928 0.10737 0.41154 -0.012814 -0.62525 0.65487 
0.0080668 0.13532 -0.01232 0.081231 0.13993 -0.44341 -1.0215 -0.043559 
0.1636 0.069064 -0.0026201 0.039963 -0.14319 -0.52776 -1.0315 -0.33063 
0.37339 0.021713 0.023028 0.027139 -0.44456 -0.30054 -0.25615 -0.13021 
0.45873 0.0067515 0.045553 -0.053753 -0.6366 -0.14665 0.65964 0.19747 
0.42436 0.05476 0.025659 -0.021692 -0.54206 -0.056877 0.84641 0.2851 
0.36419 0.087643 0.021878 -0.001798 -0.25763 0.18794 0.7744 0.16048 
0.19254 0.10014 0.023028 0.0085601 0.066763 0.59881 0.81304 0.073339 
-0.094363 0.082711 0.005765 0.074161 0.26011 0.67937 1.0556 0.037826 
-0.18348 0.040621 0.035031 0.034866 0.15341 0.32128 1.2417 -0.13103 
-0.039449 0.011355 0.065283 -0.011498 0.085177 0.088465 1.0501 -0.24201 
0.12381 -0.043888 0.08008 0.010862 0.11461 0.063474 0.62314 -0.50375 
-0.0078813 0.03092 0.025001 0.052623 0.24548 0.059857 0.42502 -0.39294 
-0.36104 0.16229 -0.066577 0.11428 0.2371 0.066763 0.5212 0.23594 
-0.51 0.25748 -0.12133 0.13171 -0.041751 0.1077 0.2782 0.49868 
-0.28311 0.22592 -0.096172 0.10819 -0.23625 -0.23938 -0.45476 0.19698 
-0.062467 0.14141 -0.050464 0.11346 -0.28147 -0.69661 -1.3048 -0.2254 
0.26472 0.099152 0.013986 0.012342 -0.25417 -0.88486 -1.6517 -0.3349 
0.51676 0.045224 0.081724 -0.030077 -0.1575 -1.0131 -1.3807 0.044238 
0.44426 -0.050629 0.12513 -0.028433 -0.10308 -1.0383 -0.87368 0.26521 
0.30007 -0.14648 0.1442 -0.032215 -0.0067304 -0.63808 -0.24694 0.1054 
0.30631 -0.24168 0.13105 0.021549 0.071202 -0.064275 0.10063 -0.45032 
0.34577 -0.2106 0.095371 -0.015773 0.061008 0.44656 0.11411 -1.0355 
0.14535 -0.047012 0.063474 -0.017582 0.21654 1.0024 0.25058 -1.0606 
-0.099624 0.10869 0.026481 0.015794 0.38836 1.4669 0.60078 -0.46972 
-0.19761 0.16426 0.043087 -0.01528 0.34742 1.5276 0.90807 0.13615 
-0.13695 0.055254 0.079916 -0.0054151 0.2782 1.084 1.0835 0.40036 
-0.04619 0.070873 0.098166 0.053116 0.23726 0.51249 1.0722 0.41253 
0.0072447 0.15785 -0.0011404 0.15587 0.15571 0.13582 0.76339 0.29612 
-0.054904 0.244 -0.073647 0.2001 0.0014903 -0.1667 0.37964 0.38523 
-0.087458 0.24532 -0.076771 0.10556 -0.2106 -0.58777 -0.10324 0.4145 
-0.042079 0.1493 0.013821 0.011191 -0.38554 -0.90262 -0.45525 0.23825 
0.070873 0.087808 0.11905 -0.08828 -0.41201 -0.81532 -0.47103 -0.1598 
0.19517 0.031249 0.15456 -0.11689 -0.32783 -0.61161 -0.21258 -0.60372 
0.18218 -0.059178 0.16179 -0.05589 -0.11689 -0.35348 -0.28278 -0.88256 
0.18366 -0.098473 0.098659 0.010204 0.17906 -0.015116 -0.53137 -0.84294 
0.26044 -0.089595 0.024015 0.081395 0.34314 0.1345 -0.5049 -0.51296 
0.32851 -0.032708 -0.016266 0.13056 0.4214 0.22328 -0.33046 -0.047834 
0.20388 -0.041093 0.00297 0.083862 0.39164 0.12069 -0.21702 0.42634 
-0.070359 -0.011992 0.012506 0.055254 0.2856 -0.10456 0.051472 0.71932 
-0.29034 0.1008 0.023193 0.00033937 0.14979 0.016452 0.26784 0.74201 
-0.31731 0.16212 0.035688 0.021549 0.053938 0.12036 0.29069 0.53995 
-0.14517 0.1225 0.053281 0.021056 -0.11294 0.027796 0.10672 0.0093821 
0.03947 0.036675 0.07449 -0.0032777 -0.19893 -0.02942 -0.089102 -0.32849 
0.14486 -0.064933 0.090438 0.0090533 -0.18939 -0.11738 -0.34657 -0.30991 
0.19747 -0.11376 0.1368 -0.025967 -0.13908 -0.17509 -0.40527 -0.22573 
0.13401 -0.036489 0.11017 0.01415 -0.04882 -0.034023 -0.36104 -0.028433 
0.036182 0.088958 0.0227 0.069722 0.038483 0.0786 -0.28097 -0.14056 
-0.0042642 0.11 -0.0406 0.075476 0.11165 0.12299 -0.17262 -0.3474 
-0.19729 0.12135 -0.032872 0.083697 0.17758 0.1174 -0.057041 -0.2397 
-0.33589 0.16541 -0.029913 0.0786 0.16919 0.087972 -0.1279 -0.0014692 
-0.37502 0.089452 0.028454 0.027796 0.1276 0.035031 -0.28936 0.06742 
-0.28377 -0.00097594 0.053938 -0.0034422 0.087314 -0.034681 -0.32438 0.077778 
-0.04471 -0.058356 0.091425 -0.042737 0.042758 -0.21521 -0.14385 0.35005 
0.12497 -0.052602 0.095371 -0.0052507 0.057062 -0.25582 0.062159 0.70189 
0.28691 0.019083 0.019083 0.053609 0.041278 -0.23461 0.05476 0.70074 
0.27606 0.075312 0.0095465 0.0039565 -0.12363 -0.38274 0.020069 0.55343 
0.032071 0.07038 0.024837 0.01004 -0.21899 -0.3857 0.034866 0.40858 
-0.22787 0.06331 0.0044497 -0.028762 -0.19367 -0.14566 0.070215 0.20224 
-0.32125 0.10704 0.0031344 0.016452 -0.13086 -0.0031133 0.077778 0.052623 
-0.28886 0.16508 0.0075736 0.041607 -0.047998 0.26488 0.19073 -0.063453 
-0.1769 0.095535 0.0075736 0.028454 0.048019 0.57053 0.61788 -0.11557 
-0.03353 0.036346 0.025495 0.038812 0.058377 0.48405 0.8548 -0.075127 
0.14831 0.025495 0.043416 0.015959 0.018096 0.040456 0.71653 0.049992 
0.15719 0.044731 0.024673 0.0041209 0.042923 0.0064227 0.51084 0.20734 
0.21704 0.073504 -0.045368 0.073668 0.14272 0.24433 0.37635 0.26735 
0.32078 0.12414 -0.061316 0.080573 0.22 0.39871 0.1465 0.39049 
0.42371 0.16722 -0.07973 0.10704 0.25798 0.28149 -0.36466 0.38293 
0.46859 0.1248 -0.068057 0.10721 0.19287 -0.042901 -0.73015 0.045718 
0.17429 0.028619 -0.047669 0.062159 0.063968 -0.34526 -0.84919 -0.53581 
-0.17328 -0.026624 0.024179 0.040621 -0.09387 -0.63019 -0.74676 -0.86924 
-0.26733 -0.09946 0.10967 -0.049642 -0.16868 -0.79263 -0.48123 -0.86448 
-0.30679 -0.090581 0.1008 -0.014622 -0.17246 -0.61736 0.016123 -0.62295 
-0.34937 0.0046141 0.0046141 0.049992 -0.16917 -0.2009 0.46432 -0.40905 
-0.24645 0.045718 -0.033694 0.0689 -0.069536 0.19385 0.69269 -0.35907 
-0.10456 0.11083 -0.032543 0.13483 0.1054 0.51496 0.94901 -0.12379 
0.01152 0.12233 -0.014622 0.085177 0.072188 0.59486 0.8183 0.43423 
-0.017417 0.12053 0.039799 0.036839 -0.0021268 0.40398 0.36419 1.1221 
-0.052273 0.098001 0.080573 -0.048985 -0.087951 0.12842 -0.12856 1.5259 
-0.030735 0.10655 0.1174 -0.1159 -0.086471 0.20684 -0.48534 1.5984 
-0.028433 0.11773 0.10343 -0.066248 -0.037476 0.39954 -0.583 1.5616 
0.027139 0.11115 0.046046 -0.025309 0.085012 0.43078 -0.38044 1.0546 
0.21457 0.054432 0.015301 -0.0080457 0.1613 0.15275 -0.35545 0.15045 
0.35925 -0.015116 0.067256 0.0067515 0.15966 0.030427 -0.49981 -0.8995 
0.43521 -0.1159 0.039963 0.030592 0.22394 0.29727 -0.33013 -1.5731 
0.3586 -0.13119 -0.019884 0.064954 0.22098 0.32358 -0.076442 -1.6045 
0.232 -0.072332 -0.045368 0.090931 0.1932 0.14256 0.26143 -1.1252 
0.00099702 0.090109 -0.06707 0.074819 0.12513 0.071366 0.79298 -0.26272 
-0.1547 0.19681 -0.076935 0.088136 0.052623 0.10951 1.0832 0.29694 
0.0042853 0.20898 -0.021528 -0.023501 -0.057534 0.1442 0.91678 0.45166 
0.11674 0.13795 0.022535 -0.10341 -0.14221 0.05624 0.66638 0.47961 
-0.0042642 0.041278 0.033222 -0.08269 -0.075949 0.10458 0.65224 0.46875 
-0.012978 0.0019835 0.046375 -0.01676 0.10704 0.29102 0.58006 0.341 
0.19237 0.04095 0.021713 0.10491 0.20421 0.34627 0.19369 0.024673 
0.30335 0.017932 0.045389 0.09274 0.15111 -0.027611 -0.41217 -0.056712 
0.22098 -0.015773 0.10869 0.051636 0.067585 -0.20337 -0.78622 0.2588 
0.11658 -0.081539 0.1544 0.049992 0.087643 -0.11968 -0.83439 0.55885 
0.20175 -0.088773 0.20931 0.02829 0.052459 0.042594 -0.65781 0.42255 
0.19122 -0.075127 0.1955 0.026152 0.0041209 0.26291 -0.17065 0.30253 
0.0065871 0.013492 0.12579 -0.010512 -0.013965 0.30253 0.066927 0.43258 
-0.1136 0.093069 0.029769 0.026974 -0.055397 0.089945 0.18054 0.38869 
-0.10439 0.13286 0.010533 0.043251 0.014808 0.086492 0.36304 0.27606 
-0.15733 0.12431 0.013164 0.017438 0.064132 0.20734 0.48964 -0.08828 
-0.27045 0.12464 0.053609 -0.0138 0.033058 0.1299 0.30911 -0.91462 
-0.16523 0.13039 0.075641 0.011026 0.0060938 -0.09798 0.00066819 -1.681 
0.040292 0.082382 0.084355 0.026481 0.0026412 -0.049314 -0.094856 -1.3727 
0.30319 0.017603 0.087808 0.057227 -0.081374 0.13861 0.10754 -0.39491 
0.45988 -0.086307 0.11313 -0.011498 -0.20847 0.055911 0.16081 0.34495 
0.42732 -0.2134 0.093562 -0.023336 -0.2282 -0.086307 0.12644 0.68858 
0.28132 -0.19071 0.048513 -0.019555 -0.13875 -0.19268 0.13943 0.67575 
0.14338 -0.091239 0.017932 -0.017253 -0.098473 -0.3571 0.086821 0.42601 
0.12266 -0.022514 -0.008539 0.024179 -0.089102 -0.51576 -0.063453 0.099152 
0.12924 0.053938 -0.011498 0.029441 -0.017582 -0.44917 -0.3229 -0.27949 
0.07449 0.13845 -0.025967 0.077449 0.059528 -0.47432 -0.67606 -0.52184 
0.028947 0.14075 -0.022185 0.12792 0.076627 -0.67754 -1.0419 -0.45821 
-0.043559 0.10573 0.0014903 0.10606 0.10573 -0.74018 -1.0054 -0.13316 
-0.042244 0.085835 0.01826 0.11757 0.17396 -0.40872 -0.6269 0.18399 
0.083533 0.017438 0.071037 0.037826 0.10507 -0.22589 -0.13777 0.36764 
0.20191 -0.025474 0.13664 -0.0078813 0.073339 -0.14681 0.22526 0.39954 
0.098166 0.02122 0.12957 0.010862 0.14009 0.34955 0.41335 0.18317 
-0.1136 0.11855 0.076956 0.039141 0.19402 0.81485 0.36139 -0.18331 
-0.16523 0.081724 0.051965 0.065776 0.18235 0.79117 0.26242 -0.57001 
-0.044381 0.018754 0.10573 0.016288 0.11691 0.53321 0.57431 -0.80479 
0.057062 0.007738 0.14141 -0.033694 0.065118 0.38441 0.77637 -0.66619 
-0.094527 0.039305 0.097508 0.041278 0.10787 0.40463 0.51923 -0.47794 
-0.34279 0.093233 -0.024487 0.087479 0.062981 0.25419 0.2953 -0.29248 
-0.49208 0.12365 -0.063289 0.11148 -0.026131 -0.1113 0.27705 0.05772 
-0.40938 0.13532 -0.086142 0.09126 -0.097322 -0.43749 0.16607 0.39575 
-0.11886 0.076463 -0.052766 0.030427 -0.21143 -0.88881 -0.26798 0.55968 
0.20175 0.02829 -0.049478 0.028619 -0.24809 -1.1127 -0.6246 0.50904 
0.47747 -0.010019 -0.014293 -0.013636 -0.1935 -0.90624 -0.59484 0.27655 
0.3803 -0.052273 0.041114 -0.031228 -0.12905 -0.50967 -0.4319 0.27836 
-0.050793 0.029605 0.040292 0.0062583 -0.087293 -0.23 -0.26437 0.63679 
-0.20879 0.12908 -0.0042642 0.0060938 0.0082312 0.01267 -0.21702 0.80942 
-0.078908 0.036839 0.047691 -0.017088 0.088465 0.39987 -0.095678 0.15949 
0.13384 -0.078744 0.1225 -0.065755 0.15867 0.67657 -0.20534 -0.82041 
0.29645 -0.087622 0.11395 -0.034681 0.26899 0.65553 -0.26535 -1.2855 
0.21408 0.027961 -0.026789 0.14124 0.28445 0.50065 -0.13563 -0.88207 
-0.18561 0.20783 -0.18282 0.21243 0.40365 0.5651 0.29201 -0.0095255 
-0.52315 0.40858 -0.29741 0.31059 0.46267 0.71373 0.60686 0.94441 
-0.59582 0.38194 -0.20962 0.27902 0.38671 0.51939 0.48207 0.93142 
-0.49241 0.19237 -0.019719 0.13861 0.16853 -0.017911 -0.10768 0.19928 
-0.048492 0.015959 0.083697 -0.032543 -0.097158 -0.69414 -0.65419 -0.46923 
0.30829 -0.060494 0.13746 -0.19844 -0.31139 -1.1991 -0.79065 -0.71289 
0.4413 -0.10341 0.13647 -0.20205 -0.36515 -1.0489 -0.49372 -0.54535 
0.35564 -0.050958 0.10063 -0.10275 -0.23444 0.045553 0.14749 -0.13382 
0.065447 -0.0096899 0.085506 -0.011334 -0.019719 0.77292 0.70929 0.32177 
-0.22195 0.029441 0.045553 0.050814 0.10984 0.88571 1.0768 0.68184 
-0.3857 0.042758 0.013164 0.022864 0.19944 1.0005 1.3379 1.0317 
-0.43273 0.13417 -0.026131 0.038483 0.25271 1.0107 1.5115 1.3901 
-0.31386 0.20471 -0.057863 0.054596 0.17199 0.61623 1.3329 1.3064 
-0.25384 0.14815 -0.079237 0.047855 0.016781 0.082217 0.82389 1.0475 
-0.27226 0.071366 0.031578 0.0044497 -0.1279 -0.31155 0.16804 0.65323 
-0.24283 0.009711 0.062817 -0.024487 -0.13103 -0.48172 -0.4324 0.20208 
0.10113 0.0014903 0.070215 -0.018733 -0.045368 -0.36565 -0.8385 -0.67524 
0.58269 0.05476 -0.0004827 0.052952 0.038319 -0.25664 -0.95803 -1.5382 
0.8234 0.12414 -0.067399 0.066598 0.06594 -0.21521 -0.8722 -1.4781 
0.75632 0.11346 -0.081374 0.1105 -0.0013048 -0.13826 -0.56639 -0.89226 
0.4362 0.034537 -0.027282 0.099645 -0.072825 0.075641 -0.029091 -0.24217 
0.0059294 0.011684 -0.0080457 0.066598 -0.094199 0.41022 0.43275 0.15012 
-0.11376 0.060186 0.042265 0.044731 -0.12889 0.4875 0.68858 0.38605 
-0.24612 0.040785 0.067256 -0.033037 -0.16194 0.27244 0.67115 0.63514 
-0.42681 0.084519 0.064461 -0.009361 -0.12182 0.021878 0.50016 0.76141 
-0.4564 0.10655 0.050486 0.026152 -0.087293 -0.20337 0.2657 0.5582 
-0.20271 -0.010512 0.093233 -0.016924 -0.11919 -0.29182 -0.11755 0.044073 
0.080902 -0.095514 0.1391 -0.0004827 -0.056548 -0.029913 -0.56475 -0.32142 
0.32095 -0.084498 0.13154 0.029276 0.077285 0.34314 -0.61917 -0.47399 
0.38934 -0.0044286 0.11806 0.018425 0.13253 0.45955 -0.21899 -0.36236 
0.40217 0.0080668 0.082875 0.0019835 0.11625 0.28165 0.12727 -0.10587 
0.44771 -0.0068948 0.040292 0.0088889 0.13746 -0.10883 0.094055 0.0421 
0.3826 0.017767 -0.023829 0.074654 0.099645 -0.47745 0.0046141 0.17593 
0.24351 -0.0031133 0.00050378 0.033387 -0.030242 -0.48813 0.069558 0.24778 
0.33147 -0.062467 0.04358 -0.018568 -0.13284 -0.19383 0.26735 0.11757 
0.47582 -0.031228 0.03651 0.010533 -0.12494 -0.07562 0.18399 0.052787 
0.22559 0.035524 -0.022021 0.084026 0.0088889 -0.13941 -0.31632 0.048841 
-0.25631 0.079751 -0.031721 0.17133 0.12135 -0.54009 -0.7433 -0.096172 
-0.46939 0.060844 0.035853 0.11411 0.088136 -0.8579 -0.64022 -0.15273 
-0.43684 0.07038 0.039634 0.062981 -0.038133 -0.67392 -0.13711 -0.048163 
-0.21307 0.065776 0.026481 0.070215 -0.094034 -0.24217 0.2098 -0.0021268 
0.010369 0.068242 0.030756 0.052952 -0.030735 0.095864 0.25091 -0.074304 
0.20931 0.08978 0.019083 0.00099702 0.079094 0.16442 -0.13053 -0.26026 
0.29168 0.034537 0.042594 0.00033937 0.094055 0.26505 -0.57281 -0.3206 
0.2976 -0.07003 0.11921 -0.051615 0.01563 0.46284 -0.50112 -0.38028 
0.24597 -0.075949 0.16262 -0.018733 0.025659 0.81255 -0.0027845 -0.49356 
0.11231 -0.095021 0.13023 -0.011992 0.09685 0.96545 0.30927 -0.50984 
-0.0022913 -0.011334 0.054432 0.033551 0.18876 0.83556 0.54274 -0.42566 
-0.11442 0.1174 -0.011992 0.071202 0.10737 0.44672 0.6917 -0.16259 
-0.13908 0.20799 -0.044874 0.034373 -0.054575 -0.10209 0.29809 0.11247 
-0.06855 0.14338 -0.037969 0.056733 -0.24957 -0.44292 -0.21521 0.48372 
0.050979 0.06594 0.019905 -0.0095255 -0.32915 -0.54486 -0.33474 0.76256 
0.16196 0.022371 0.068242 0.0092177 -0.19268 -0.41612 -0.25401 0.67838 
0.30533 -0.031886 0.069229 0.10622 0.093891 -0.16884 -0.11771 0.81764 
0.46152 -0.067892 0.072846 0.08978 0.27294 -0.053753 -0.098967 1.2257 
0.37537 -0.0059084 0.11181 0.026646 0.24844 -0.14204 0.0059294 1.1404 
0.16163 0.016616 0.091918 -0.010512 0.13236 -0.27341 0.13286 0.41318 
0.0018191 0.04506 0.10672 -0.038627 0.12365 -0.17969 0.034044 -0.21027 
-0.16457 0.12398 0.090438 0.017603 0.25781 0.24893 -0.040764 -0.47893 
-0.30794 0.16771 0.050157 0.033551 0.26669 0.42255 -0.050793 -0.56935 
-0.32882 0.043745 0.048348 0.0013258 0.08419 0.29596 -0.21948 -0.53335 
-0.182 -0.088773 0.052787 0.0062583 -0.00031829 0.13516 -0.57577 -0.34657 
-0.065919 -0.10012 0.046704 -0.00081153 0.077121 0.15555 -0.68675 -0.29906 
-0.03353 -0.037969 0.041114 0.045389 0.074326 0.065118 -0.34378 -0.24743 
-0.065919 0.047033 0.018425 0.0059294 -0.052273 -0.078086 0.31897 -0.060658 
-0.14023 0.17232 -0.008539 -0.011334 -0.17394 -0.046354 0.93092 0.22526 
-0.28525 0.25189 -0.050958 0.016945 -0.12034 -0.036489 1.1989 0.48881 
-0.38258 0.24795 -0.07003 0.059528 0.13993 0.24581 1.129 0.68874 
-0.38685 0.18646 -0.025967 0.090438 0.33015 0.44623 0.80038 0.62462 
-0.13497 0.08008 0.011355 0.085835 0.2486 0.28593 0.49128 0.0088889 
0.099481 0.020398 0.069722 0.027796 0.1054 0.067256 0.11395 -0.20436 
0.22427 -0.028597 0.14996 0.0034632 0.053938 0.062323 -0.36992 -0.17871 
0.32571 -0.044052 0.15374 -0.052273 0.076627 0.21145 -0.97167 -0.22606 
0.37718 -0.033694 0.07038 -0.035174 0.12908 0.26981 -0.8339 0.18383 
0.35465 -0.020541 0.0786 -0.036818 0.1927 0.30779 -0.24086 0.5069 
0.40726 0.035524 0.078765 -0.050464 0.18169 0.15883 0.14486 0.53797 
0.4533 0.021549 0.040785 0.042594 0.1105 0.0044497 0.18942 0.19566 
0.17347 0.039634 -0.031721 0.07038 0.021713 -0.15552 0.21539 -0.20879 
-0.28015 0.12743 -0.039284 0.075476 -0.082854 -0.43832 0.20306 -0.28886 
-0.62887 0.086163 0.049499 -0.030735 -0.18101 -0.6149 0.13943 -0.32257 
-0.72094 0.024344 0.13878 -0.070523 -0.19761 -0.52398 0.058049 -0.47547 
-0.42138 0.019576 0.07301 0.03651 -0.10456 -0.27489 0.16771 -0.47761 
-0.21192 0.0689 -0.037311 0.10063 0.050321 0.097508 0.39362 -0.13497 
-0.037311 0.12677 -0.065919 0.15259 0.14979 0.38474 0.26718 0.20536 
0.19566 0.15357 -0.079072 0.13516 0.13615 0.29201 -0.088115 0.34955 
0.24696 0.14617 -0.025638 0.036675 0.01711 0.059693 -0.31386 0.48158 
0.12266 0.025988 0.07038 -0.061809 -0.16062 -0.26387 -0.37008 0.41039 
0.036182 -0.0503 0.11937 -0.096007 -0.20682 -0.25023 -0.22557 0.13779 
0.093726 0.005765 0.079916 -0.051451 -0.020541 0.2463 0.059035 -0.1769 
0.14765 0.095864 -0.032708 0.085999 0.18892 0.6215 0.32571 -0.41596 
0.15522 0.10639 -0.056712 0.085506 0.20487 0.42913 0.4242 -0.45394 
0.11905 0.018096 -0.0078813 0.022535 0.16837 -0.035996 0.27853 -0.41661 
0.15867 -0.029091 0.028125 0.015959 0.20536 -0.1524 0.019576 -0.36581 
0.32292 -0.13267 0.051636 0.037004 0.21145 -0.10061 -0.25121 -0.38932 
0.33163 -0.16227 0.060844 0.059528 0.20421 -0.11212 -0.4393 -0.40083 
0.20109 -0.063782 0.011026 0.052952 0.10507 -0.15289 -0.60322 -0.32487 
-0.077264 0.075312 0.0019835 0.057062 -0.030735 -0.25894 -0.69628 -0.1917 
-0.26831 0.14075 0.016781 0.06479 -0.088608 -0.22425 -0.40247 0.013986 
-0.34674 0.19879 0.010862 0.032893 -0.1404 0.0324 -0.12412 0.14272 
-0.3224 0.16886 0.0072447 0.025988 -0.12281 0.24564 0.043909 0.1927 
-0.16375 0.082875 0.038155 -0.031228 -0.11031 0.28346 0.42206 -0.059836 
0.029605 0.068571 0.023686 0.00066819 -0.023007 0.17906 0.59683 -0.27045 
0.13483 0.1008 -0.017417 0.079916 -0.008539 -0.043395 0.42995 -0.22688 
0.18267 0.086985 -0.045532 0.076627 0.0069159 0.16114 0.31141 0.052787 
0.26981 0.030098 -0.040435 0.08715 -0.0027845 0.4533 0.256 0.12316 
0.41614 -0.056548 0.022042 0.02122 -0.133 0.097344 0.16146 -0.12346 
0.46399 -0.10834 0.076134 -0.010183 -0.23461 -0.59155 -0.038462 -0.068879 
0.40381 -0.04471 0.053116 0.035853 -0.1381 -1.1483 -0.3492 0.11691 
0.19435 0.01415 0.023357 0.035688 0.076299 -1.1665 -0.57215 0.17232 
-0.045203 0.038155 0.029769 0.031907 0.20355 -0.5493 -0.54436 0.17807 
-0.099953 0.032236 0.029441 0.022864 0.21408 0.33147 -0.27752 -0.065755 
-0.11015 0.078765 0.015137 0.032564 0.21326 1.1417 -0.096994 -0.26568 
-0.18167 0.16097 -0.028762 0.12118 0.15752 1.122 0.027961 -0.23757 
-0.26338 0.16837 -0.017088 0.088301 -0.0014692 0.44113 0.14387 0.21901 
-0.39277 0.14782 0.019247 0.024508 -0.18791 -0.27226 0.099152 0.57316 
-0.26124 0.091589 0.055911 -0.0004827 -0.29676 -0.64597 -0.0016336 0.62034 
0.16114 -0.010841 0.057884 -0.040764 -0.25516 -0.22392 0.26899 0.62495 
0.41384 0.020398 0.047033 -0.0050863 -0.069865 0.61508 0.71324 0.50904 
0.31536 0.039799 0.022864 0.030592 -0.0014692 0.84937 1.0169 0.1026 
0.037004 0.044731 0.06183 -0.011498 0.036017 0.54192 1.0141 -0.133 
-0.18709 0.041936 0.02122 0.093726 0.1031 0.28675 0.77013 -0.12511 
-0.15076 0.085999 -0.049149 0.1373 0.19451 0.12529 0.42732 0.20487 
0.067913 0.11921 -0.081868 0.1613 0.17084 -0.012485 0.079094 0.67822 
0.077285 0.10836 -0.049149 0.11247 0.049006 0.041936 -0.2864 0.73543 
0.088465 0.021878 0.045553 0.022042 -0.055397 0.17412 -0.45476 0.015301 
0.22707 -0.018733 0.070708 -0.028269 -0.16588 0.0041209 -0.41004 -0.71009 
0.13088 -0.025967 0.067913 -0.032379 -0.2203 -0.43108 -0.42549 -0.69414 
-0.20501 0.040785 0.044567 0.0070803 -0.15799 -0.8339 -0.43486 -0.022185 
-0.27884 0.037168 0.053774 0.0093821 -0.075127 -1.0628 -0.27029 0.46432 
-0.07973 0.017932 0.069722 -0.01232 0.030427 -0.76106 0.0059294 0.48947 
0.16558 -0.0019624 0.075641 0.022535 0.16097 -0.004593 0.29464 0.3096 
0.37701 0.005765 0.089452 0.026152 0.22115 0.50262 0.50049 0.093726 
0.41532 0.055747 0.058871 0.05624 0.21095 0.79709 0.56888 0.22756 
0.21934 0.096686 0.01974 0.084848 0.12266 0.77259 0.29859 0.34923 
-0.13201 0.18415 -0.028762 0.05624 0.021056 0.27064 -0.0022913 0.33657 
-0.25417 0.18235 0.025659 0.011026 -0.075784 -0.27522 -0.26091 -0.031064 
-0.0072237 0.048841 0.10277 -0.064933 -0.05326 -0.24184 -0.26305 -0.44177 
0.084026 -0.074962 0.077121 -0.030077 0.1248 0.30516 -0.060494 -0.3326 
-0.11245 -0.11113 0.056076 0.032729 0.19977 0.72606 0.13993 -0.016924 
-0.19646 -0.12379 0.062323 -0.009361 0.051636 0.39723 0.16541 0.15078 
0.057227 -0.077593 0.085835 -0.025802 -0.0868 -0.2032 0.13121 0.34873 
0.28593 0.044731 0.074161 0.0013258 -0.14188 -0.45295 0.023028 0.38737 
0.035524 0.20471 -0.0070593 0.036182 -0.12067 -0.36417 0.12217 0.36567 
-0.28952 0.17889 -0.05326 0.085835 -0.13941 -0.35693 0.17347 0.28379 
-0.2665 0.076956 0.011355 0.058377 -0.17246 -0.37896 0.14963 0.11296 
0.030263 0.013986 0.092082 0.018096 -0.17608 -0.21241 0.19303 -0.20255 
0.22542 -0.02646 0.15012 -0.03616 -0.1358 0.032564 0.21457 -0.4666 
0.18465 -0.0055795 0.12464 -0.080717 -0.11623 0.053609 0.021549 -0.45607 
-0.022843 0.051472 0.099152 0.016288 0.034537 0.0072447 -0.36844 -0.29511 
-0.15996 0.058377 0.10392 0.020069 0.14963 -0.024652 -0.55439 -0.12856 
-0.18265 0.017438 0.093398 0.012835 0.24236 0.067256 -0.26996 0.034866 
-0.2448 0.038977 0.010862 0.1026 0.31733 0.061337 0.048841 0.30862 
-0.20468 0.10852 -0.056712 0.093562 0.26472 0.0059294 0.26126 0.45988 
-0.12248 0.11937 -0.096172 0.13006 0.21983 0.025166 0.23742 0.27787 
0.021549 0.055254 -0.041751 0.059035 0.1613 -0.067728 0.21589 -0.0078813 
0.2269 -0.00064712 0.05624 -0.012156 0.055747 -0.0064016 0.15916 -0.2208 
0.29415 -0.053753 0.092576 -0.033859 -0.088444 0.1008 0.015137 -0.17147 
0.41499 -0.06296 0.13105 -0.097158 -0.21981 -0.16523 -0.24168 -0.16868 
0.33953 -0.1159 0.16738 -0.091239 -0.29445 -0.54025 -0.74659 -0.29577 
0.33426 -0.12215 0.12743 -0.043888 -0.22178 -0.46873 -1.2811 -0.48583 
0.46415 -0.065262 0.06183 0.014643 -0.079237 -0.21981 -1.1956 -0.50096 
0.54948 -0.0016336 0.016288 0.10195 0.08419 0.1784 -0.64498 -0.47383 
0.39855 0.13845 -0.04323 0.094877 0.18054 0.54504 0.046046 -0.37765 
0.13302 0.17182 -0.053095 0.070873 0.13269 0.69104 0.62577 -0.067399 
-0.1866 0.1687 -0.034023 0.063474 0.17873 0.61919 0.81139 0.15423 
-0.55078 0.1756 -0.0078813 0.081231 0.29628 0.37224 0.79939 0.34544 
-0.6925 0.094055 0.034373 0.083368 0.29892 0.065776 0.70584 0.25321 
-0.49471 -0.016924 0.10277 0.037004 0.16936 0.088136 0.5942 -0.042244 
-0.23198 -0.091568 0.070708 0.036346 0.17495 0.24417 0.62626 -0.23116 
0.02122 -0.049314 0.051636 0.072188 0.14831 0.16492 0.4607 -0.20468 
0.14354 0.00050378 -0.0052507 0.075476 0.12332 -0.037476 0.03536 0.00017495 
0.23068 0.049828 -0.044874 0.051472 0.075641 -0.18545 -0.46873 0.11592 
0.28017 0.10293 -0.043066 0.03092 0.022042 -0.40083 -0.77191 0.076134 
0.25419 0.090603 -0.021363 -0.0019624 -0.013636 -0.34526 -0.88733 -0.006566 
0.23742 0.090603 0.01563 0.020069 -0.039284 -0.058028 -0.81417 -0.06707 
0.17791 0.098988 0.054432 0.0079024 -0.05589 -0.041915 -0.61786 0.0070803 
0.095864 0.10178 0.024508 0.032729 -0.011992 -0.028269 -0.30563 0.2731 
-0.018568 0.13532 -0.051287 0.084684 0.080738 0.20503 0.18267 0.46053 
-0.10702 0.14765 -0.049149 0.13138 0.13417 0.39904 0.55195 0.40118 
-0.14254 0.1225 -0.056219 0.11263 0.10458 0.38688 0.50279 0.23249 
-0.02235 0.062159 -0.0036066 0.018096 0.013492 0.24285 0.44097 0.019411 
0.20273 -0.015609 0.02533 -0.003771 -0.019061 0.024179 0.35087 -0.15651 
0.3124 -0.040106 0.067256 -0.0088678 -0.053753 -0.24365 0.16179 -0.18956 
0.24334 -0.07003 0.098988 -0.052109 -0.12889 -0.51329 -0.16638 -0.12429 
0.1659 -0.064275 0.13121 -0.039613 -0.18348 -0.53779 -0.45706 -0.062796 
0.17018 -0.014951 0.099316 -0.033365 -0.15816 -0.13925 -0.51214 0.015465 
0.18629 0.0324 0.027632 0.038319 -0.049642 0.13549 -0.37304 0.21046 
0.083368 0.07449 -0.042079 0.13713 -0.0068948 0.41269 0.16212 0.6478 
-0.12412 0.1008 -0.059672 0.099152 -0.050793 0.33969 0.658 0.84789 
-0.22145 0.046211 -0.010348 0.039305 -0.12001 -0.10521 0.66063 0.47139 
-0.18298 0.05065 0.017932 -0.010019 -0.082854 -0.31797 0.33574 -0.19318 
-0.091239 0.11494 0.014643 0.0044497 0.037332 -0.12659 -0.1256 -0.88404 
0.035688 0.20125 -0.019226 0.075805 0.27294 0.22312 -0.33243 -1.0642 
-0.081374 0.23085 -0.054246 0.1151 0.43291 0.27162 -0.12067 -0.79624 
-0.41661 0.20767 -0.091897 0.12299 0.38014 0.20191 0.17626 -0.34904 
-0.49455 0.13532 -0.050629 0.10343 0.30007 0.14568 0.2394 0.12233 
-0.20978 -0.0047575 0.089287 -0.034681 0.39428 0.35153 0.16755 0.44919 
-0.0070593 -0.087622 0.11592 -0.046354 0.36567 0.29513 0.16114 0.61114 
0.022864 -0.10768 0.13499 -0.065591 0.18876 -0.15816 0.0028056 0.58039 
0.21934 -0.00097594 0.084684 -0.07003 -0.023829 -0.20205 -0.0016336 0.5041 
0.4487 0.075641 0.057555 0.016616 -0.13432 0.21079 0.36041 0.50624 
0.41137 0.12875 0.086657 0.010862 -0.18068 0.43308 0.58648 0.61245 
0.35383 0.083533 0.040292 0.034044 -0.11196 0.40973 0.38392 0.80597 
0.31618 -0.0091966 0.054925 0.00017495 -0.1381 0.17906 0.041772 0.6016 
0.24186 -0.064604 0.073339 -0.0072237 -0.20879 -0.25319 -0.39705 -0.28147 
0.1299 -0.063289 0.067091 -0.0060728 -0.218 -0.55554 -0.69891 -1.0776 
-0.11491 -0.025638 0.044402 -0.037476 -0.16177 -0.49159 -0.90344 -0.88453 
-0.28097 0.0062583 -0.058028 0.017603 -0.045532 -0.22655 -0.86365 -0.0032777 
-0.3326 0.069558 -0.10834 0.030427 -0.021528 -0.17345 -0.34263 0.53173 
-0.36943 0.11296 -0.03912 -0.012485 -0.02235 -0.050629 0.34462 0.62988 
-0.39491 0.11247 0.017932 0.025001 0.028783 0.13351 0.82586 0.30664 
-0.29528 0.091589 0.073339 -0.0050863 0.1202 0.23759 1.1435 -0.03057 
-0.16342 0.1179 0.10376 0.02533 0.18925 0.40069 1.2972 -0.31057 
-0.036489 0.14831 0.05065 0.10491 0.30385 0.59322 0.9934 -0.51033 
0.014315 0.18366 -0.0026201 0.12546 0.29579 0.58549 0.32818 -0.28048 
0.092247 0.20832 -0.025967 0.12217 0.17478 0.25288 -0.14698 0.18925 
0.11559 0.16229 -0.012978 0.077285 0.14272 -0.044052 -0.21044 0.5309 
0.26077 0.043251 0.037168 0.051308 0.1202 -0.18134 -0.073482 0.22493 
0.50246 -0.11097 0.17906 0.012506 0.047033 -0.29199 -0.087293 -0.51559 
0.58582 -0.17789 0.2297 -0.047176 -0.006566 -0.25713 -0.14106 -0.86546 
0.44146 -0.21899 0.20964 -0.010183 0.025166 -0.10669 -0.15865 -0.54666 
0.16558 -0.16062 0.17708 -0.012814 0.0072447 -0.16736 -0.22639 -0.078415 
-0.014787 -0.012649 0.099316 0.049006 0.055582 -0.010348 -0.11919 0.24466 
-0.0011404 0.072517 0.042429 0.061501 0.047855 0.49506 0.13812 0.52252 
0.092082 0.094548 0.016123 -0.010183 -0.062467 0.62676 0.27475 0.54011 
0.11559 0.070873 0.053445 -0.066248 -0.15717 0.34396 0.30352 0.34183 
-0.047341 0.041772 0.044731 -0.09091 -0.16128 0.1345 0.30171 0.16179 
-0.35973 0.063474 0.0067515 -0.053424 -0.076771 0.19073 0.23348 0.22707 
-0.53269 0.12283 -0.015773 0.043416 0.01711 0.36287 0.012999 0.43916 
-0.39606 0.13121 -0.056383 0.087808 0.10244 0.463 -0.14336 0.33476 
-0.11935 0.10425 -0.07266 0.12414 0.11231 0.18054 -0.13991 0.15686 
0.026646 0.085341 -0.038627 0.1077 0.049992 -0.23461 -0.13974 -0.13267 
0.031414 0.10047 -0.027775 0.11543 -0.0073881 -0.43914 -0.19646 -0.25664 
0.091096 0.06594 -0.031557 0.14798 -0.063782 -0.54601 -0.37781 -0.21323 
0.1197 0.051636 0.011848 0.08567 -0.17427 -0.63035 -0.37025 -0.074633 
0.053445 0.047033 0.058213 0.07038 -0.23888 -0.5317 -0.27916 0.024015 
0.086163 0.0075736 0.08567 0.10441 -0.24398 -0.35956 -0.35512 -0.092061 
0.13549 -0.009361 0.051308 0.041607 -0.23329 -0.29445 -0.42171 -0.23543 
0.15259 0.00099702 0.10556 -0.018075 -0.25023 -0.35611 -0.32405 -0.34986 
0.27688 -0.033365 0.17199 -0.10127 -0.23362 -0.32109 -0.26864 -0.40626 
0.43768 -0.10209 0.1756 -0.12133 -0.18907 -0.29281 -0.33556 -0.3395 
0.45478 -0.051615 0.12431 -0.057205 -0.020048 -0.16407 -0.22655 -0.30695 
0.3678 0.040128 0.015301 0.033551 0.2292 0.21786 0.24532 -0.19794 
0.19681 0.078272 -0.010019 0.10622 0.37356 0.53962 0.46103 0.1904 
-0.11097 0.094055 0.0098754 0.077943 0.32999 0.44261 0.4801 0.51216 
-0.2647 0.12118 0.019083 0.0087245 0.17741 0.095042 0.41746 0.23907 
-0.157 0.061666 0.016616 0.0054362 -0.079895 -0.46758 0.31782 -0.12182 
0.0047785 0.044896 0.0074092 -0.063618 -0.2984 -0.78046 0.0421 0.04358 
0.018096 0.092904 -0.0047575 -0.010019 -0.28377 -0.31649 -0.21455 0.48668 
-0.10702 0.12513 -0.06148 0.063474 -0.11245 0.40546 -0.056548 0.81255 
-0.31714 0.059035 -0.057534 0.061337 -0.012814 0.62446 0.44376 0.41137 
-0.51592 0.02829 -0.040928 0.08156 0.053445 0.83786 0.77802 0.025659 
-0.54255 0.048841 0.012506 0.065447 0.10458 1.1305 0.5457 0.042429 
-0.32734 0.06479 0.06742 0.030756 0.093726 0.95115 0.1664 0.072024 
0.031085 0.05065 0.056076 0.022206 0.014808 0.2343 0.036182 -0.22244 
0.16377 0.019083 0.064132 -0.018404 -0.064275 -0.65896 -0.15191 -0.45985 
0.19698 -0.053424 0.017274 -0.012978 -0.10061 -1.3301 -0.41661 -0.352 
0.27869 -0.095021 -0.018239 0.024015 -0.05885 -1.3199 -0.66422 -0.0771 
0.35021 -0.084005 -0.015116 0.037497 0.039634 -0.94701 -0.83603 0.13746 
0.42749 -0.082032 0.022535 0.049335 0.13401 -0.39573 -0.70763 0.11231 
0.37898 -0.054082 0.083697 0.012506 0.17889 -0.23296 -0.57922 -0.11804 
0.21835 0.0324 0.10967 0.044896 0.21408 -0.62706 -0.68872 -0.21619 
0.047197 0.17577 0.024344 0.097672 0.27146 -0.65896 -0.46084 -0.06855 
-0.12198 0.21062 -0.060658 0.11806 0.27688 0.040292 0.18695 0.0227 
-0.13382 0.13697 -0.041422 0.083697 0.16952 0.69515 0.73807 -0.17098 
0.082217 0.037332 0.075641 -0.041751 -0.028104 0.89985 1.0376 -0.42664 
0.27409 -0.091404 0.14765 -0.10932 -0.14878 0.78673 1.4585 -0.39162 
0.16886 -0.032708 0.05772 -0.021199 -0.06855 0.89837 1.5769 0.023851 
-0.11179 0.10556 -0.040764 0.056404 0.1008 0.86779 1.2453 0.50525 
-0.33243 0.15949 -0.070852 0.11165 0.19287 0.81123 0.56329 0.78311 
-0.3566 0.12464 -0.030077 0.072188 0.2297 0.70387 0.050157 0.57102 
-0.14418 0.069229 0.0080668 0.010369 0.18235 0.37109 -0.51181 -0.019719 
0.1003 0.053774 0.01711 0.011684 0.091589 -0.19531 -0.90262 -0.19153 
0.28116 0.027961 0.030263 -0.023336 0.023357 -0.48271 -1.0078 0.060844 
0.48141 -0.015444 0.031249 0.034866 -0.0032777 -0.21422 -0.82321 0.27721 
0.47517 0.007738 0.015959 0.047526 -0.00015387 -0.018568 -0.37255 0.31289 
0.2246 0.015465 0.041607 0.064461 -0.00097594 -0.089595 0.0227 0.31848 
-0.18183 0.016781 0.023357 0.099316 0.047526 -0.23691 0.24893 0.32571 
-0.2961 0.072188 0.04654 0.081395 0.080244 -0.1621 0.37175 0.13088 
-0.11541 0.094877 0.034537 0.073997 0.10721 -0.03764 0.21967 -0.2083 
0.050157 0.050321 0.0051074 0.10047 0.12003 -0.22277 -0.020048 -0.34855 
0.14091 0.055911 -0.0067304 0.038319 0.080573 -0.45344 -0.21011 -0.42944 
0.14897 0.096028 0.01563 0.032729 0.087972 -0.43453 -0.22754 -0.39656 
-0.020048 0.10096 0.034537 0.0087245 0.04654 -0.079566 -0.12083 -0.21504 
-0.12938 0.067913 0.072353 -0.00081153 0.11461 0.34232 0.095042 -0.047012 
-0.1011 0.11674 0.03092 0.048677 0.20865 0.53156 0.23611 0.026152 
0.093562 0.11263 0.015465 0.068736 0.27031 0.4459 0.2657 -0.15289 
0.24795 0.062488 -0.0064016 0.11263 0.23331 0.14996 0.14815 -0.21915 
0.13351 0.070051 -0.0059084 0.077778 0.09274 -0.13777 -0.1159 0.067256 
0.091753 0.03536 -0.010512 0.065776 -0.0090322 -0.23494 -0.21554 -0.11278 
0.34873 -0.0091966 0.024673 0.053116 -0.097158 -0.076442 -0.31533 -0.52463 
0.77572 -0.10521 0.081395 -0.023336 -0.20353 0.12529 -0.52381 -0.67113 
0.72113 -0.11607 0.14634 -0.063782 -0.24414 0.25535 -0.48945 -0.35578 
0.27442 -0.048985 0.15127 -0.071674 -0.22145 0.28675 -0.17608 0.26866 
-0.20995 0.077285 0.071202 -0.015609 -0.067892 0.49013 0.18942 0.9153 
-0.571 0.14831 -0.0059084 0.066269 0.066434 0.49868 0.463 1.3494 
-0.80808 0.12036 0.00017495 0.026974 0.060186 0.29513 0.52186 1.325 
-0.86744 0.074983 0.024673 -0.0075525 0.051636 0.23282 0.36517 1.142 
-0.70976 0.092904 0.015301 -0.043066 0.064625 0.036675 0.21901 0.83639 
-0.37831 0.10129 0.014643 -0.084827 -0.033365 -0.20025 0.15949 0.1761 
-0.021856 0.090767 0.022535 -0.0055795 -0.078086 -0.291 0.14848 -0.45969 
0.20586 0.087643 0.035853 0.019576 -0.063124 -0.36038 0.11921 -0.82863 
0.2736 0.16081 -0.032872 0.10524 -0.040106 -0.3737 -0.017582 -0.67622 
0.30779 0.1539 -0.080881 0.17166 0.0018191 -0.20732 -0.27226 -0.39803 
0.32555 0.11165 -0.1108 0.18037 0.083862 0.035195 -0.44933 -0.26519 
0.28001 0.048019 -0.084169 0.13615 0.13253 0.19796 -0.3834 -0.28377 
0.16064 -0.082196 0.0080668 0.066598 0.14124 0.19435 -0.14878 -0.29232 
0.034537 -0.17936 0.081724 -0.019719 0.092576 0.12349 0.15834 -0.15585 
0.014972 -0.18578 0.17643 -0.086307 -0.036983 0.11806 0.48388 0.038977 
0.037168 -0.12198 0.21638 -0.15405 -0.12593 0.051308 0.53534 0.026974 
-0.095349 -0.084005 0.16755 -0.1353 -0.16243 -0.25763 0.25535 -0.24612 
-0.16868 -0.033694 0.11987 -0.083512 -0.022514 -0.1547 -0.062302 -0.28607 
-0.037147 0.067091 0.071695 0.0088889 0.24663 0.36123 -0.028269 0.0082312 
0.017438 0.1299 -0.015938 0.10589 0.40233 0.55293 0.37455 0.39756 
-0.10225 0.17692 -0.03057 0.08978 0.25074 0.34988 0.57858 0.68496 
-0.20452 0.24055 -0.00031829 0.039305 -0.0040998 0.068407 0.43916 0.71373 
-0.23411 0.13351 0.019083 0.013986 -0.20452 -0.30711 -0.028269 0.36304 
-0.1187 0.060844 0.041114 -0.030899 -0.31418 -0.55127 -0.32816 0.059693 
0.076627 -0.0027845 0.070708 -0.017088 -0.43486 -0.74133 -0.46955 -0.018239 
0.21095 -0.01528 0.062323 -0.0027845 -0.38702 -0.80101 -0.34657 0.14897 
0.20125 0.016781 0.03536 0.022371 -0.21274 -0.52891 -0.16276 0.19517 
0.11444 0.031907 0.022206 0.067256 0.012506 0.18021 0.14338 0.17412 
-0.011992 0.059364 0.027468 0.042923 0.19813 0.6866 0.37816 -0.0078813 
-0.11393 0.010369 0.035853 0.057062 0.16623 0.44048 0.40957 -0.10834 
-0.14895 -0.0068948 0.048184 0.0041209 -0.008539 -0.032543 0.27787 -0.07414 
0.0083956 0.019905 0.067749 -0.008539 -0.0965 -0.11771 0.25074 -0.023829 
0.20273 -0.016431 0.093726 0.0080668 0.041607 0.18794 0.47204 -0.20156 
0.18662 -0.015609 0.049006 0.0421 0.21145 0.45198 0.54307 -0.29149 
0.077121 0.0072447 0.013657 0.071202 0.21112 0.38507 0.18267 -0.16407 
-0.031721 0.022042 0.0069159 0.073339 0.2121 0.22509 -0.31238 0.099316 
-0.0022913 0.023193 0.043251 0.047855 0.20914 0.049992 -0.54897 0.27327 
0.11066 0.0088889 0.081889 0.016452 0.067091 -0.22474 -0.73558 0.18678 
0.21079 0.05065 0.10014 -0.043888 -0.030735 -0.42368 -0.88864 -0.16259 
0.13697 0.090603 0.056076 0.026317 0.10162 -0.65978 -0.86941 -0.35036 
-0.059178 0.14502 -0.0044286 0.1105 0.3073 -0.65732 -0.50638 -0.22392 
-0.12905 0.18761 -0.056712 0.10556 0.27803 -0.32471 -0.21603 0.14223 
-0.037147 0.1026 -0.019061 0.12381 0.15275 -0.1695 -0.009361 0.41532 
0.22378 0.039634 0.0036276 0.065776 0.038977 -0.19301 0.098494 0.34232 
0.44607 0.023686 0.0093821 0.047691 -0.0082102 -0.24743 0.20339 -0.037969 
0.63942 -0.0049219 0.020069 0.060679 -0.013471 0.021549 0.20372 -0.4398 
0.58434 -0.048985 0.03651 0.020398 -0.014787 0.34791 0.293 -0.45673 
0.20569 -0.061151 0.0689 -0.012978 -0.094363 0.56823 0.48602 -0.040764 
-0.15799 -0.01117 0.11806 -0.065262 -0.12642 0.56921 0.35564 0.34347 
-0.53812 0.007738 0.1202 -0.072003 -0.032379 0.45231 0.046211 0.47073 
-0.67737 0.055418 0.076956 -0.016924 0.066598 0.35251 -0.13629 0.4145 
-0.50244 0.15374 0.035688 0.009711 0.11411 0.22197 -0.011005 0.032893 
-0.091239 0.14782 0.0082312 0.046046 0.070873 0.19484 0.15472 -0.35759 
0.183 0.10573 0.0092177 0.053774 -0.0031133 0.36337 0.25403 -0.42418 
0.19566 0.13056 0.031249 0.05213 0.034044 0.47402 0.28971 -0.43996 
0.18744 0.16771 0.0072447 0.096357 0.068242 0.27014 0.048019 -0.67507 
0.4025 0.11609 -0.035667 0.077778 0.12875 -0.068879 -0.37239 -1.129 
0.6575 0.087808 -0.062302 0.10096 0.11773 -0.35068 -0.41481 -1.0373 
0.64155 0.053609 -0.058192 0.096521 0.033222 -0.3834 -0.22573 -0.13547 
0.51035 -0.06707 0.020069 0.022371 -0.063124 -0.35364 -0.069536 0.79249 
0.3849 -0.1205 0.092247 -0.01232 -0.055068 -0.39968 -0.04323 1.232 
0.085506 -0.034352 0.12135 -0.06707 0.097672 -0.1741 -0.048985 1.3005 
-0.23938 0.06035 0.11148 -0.020048 0.26784 0.12332 -0.069372 1.2037 
-0.43026 0.067585 0.077614 0.11477 0.24515 -0.028762 0.3854 0.85875 
-0.52661 0.094384 -0.048492 0.062159 0.10408 -0.12379 0.83359 0.25156 
-0.43766 0.10014 -0.057863 0.10359 0.060515 0.30681 0.83343 -0.1912 
-0.28689 0.073997 -0.024487 0.039634 0.051143 0.83902 0.48799 -0.43815 
-0.16029 -0.0095255 0.071531 -0.070852 0.039305 1.203 0.20651 -0.61062 
0.014643 -0.062467 0.12562 -0.054082 0.022206 1.0069 0.0028056 -0.51428 
0.12217 -0.047505 0.099974 -0.029584 0.075148 0.48783 -0.072825 -0.13415 
0.13779 0.010204 0.073175 0.050321 0.10688 0.08304 -0.20501 0.18415 
0.14552 0.13713 0.056076 0.10047 0.10672 -0.017582 -0.13843 0.24367 
0.13105 0.13483 -0.00031829 0.079916 0.051801 0.041443 -0.053917 0.13828 
0.1733 0.12792 -0.029748 0.08715 -0.049149 -0.15618 -0.1672 -0.018733 
0.1613 0.12694 -0.047834 0.035853 -0.19153 -0.56409 -0.43815 -0.16079 
0.10244 0.064461 0.019411 -0.023007 -0.36433 -0.79575 -0.32717 -0.19268 
0.040128 -0.050958 0.08156 -0.056877 -0.37715 -0.43766 0.22197 -0.2014 
-0.19334 -0.075291 0.10902 -0.070523 -0.30333 0.18974 0.34643 -0.23987 
-0.4028 0.0021479 0.08008 0.00017495 -0.19449 0.40167 0.32621 -0.082032 
-0.34378 0.074819 0.028783 0.041443 -0.045532 0.27179 0.56987 0.17445 
-0.11245 0.097837 0.021549 0.034209 -0.032215 -0.073647 0.72212 0.21638 
0.11872 0.059364 0.016123 0.037497 -0.0503 -0.46939 0.38211 -0.033037 
0.23151 -0.07825 0.059693 0.044238 0.05624 -0.41694 -0.064933 -0.086471 
0.060679 -0.078579 0.023028 0.066434 0.15094 -0.14895 -0.10357 0.092247 
0.053445 0.025001 -0.021528 0.071202 0.14469 0.14354 0.095535 0.30319 
0.24992 0.027961 0.028619 0.014643 0.11543 0.17265 0.082382 0.58368 
0.16837 -0.034845 0.073668 0.014972 0.10359 -0.14188 -0.11623 0.72508 
0.054925 -0.08269 0.081889 0.011026 0.077449 -0.41448 -0.37321 0.31273 
-0.077593 -0.0073881 0.063803 0.042265 0.00033937 -0.32027 -0.31747 0.068407 
-0.20436 0.10195 0.026152 0.033551 -0.10834 -0.17739 -0.06 0.035031 
-0.35726 0.17593 -0.071345 0.03092 -0.17854 -0.0965 -0.021034 -0.18824 
-0.35233 0.16492 -0.03501 0.048348 -0.17953 0.02122 -0.14434 -0.45591 
-0.21389 0.09274 -0.00064712 0.010204 -0.049314 0.11592 -0.18019 -0.41727 
-0.040271 0.046868 0.041607 -0.0013048 0.066927 0.1128 -0.076277 -0.11722 
0.095535 0.042265 0.049499 0.015465 0.12398 0.13351 -0.013965 0.29201 
0.10556 0.032236 0.032071 0.016452 0.11247 0.19172 -0.089759 0.32884 
0.17544 0.044731 0.017932 0.074161 0.093398 0.14437 -0.14944 0.019576 
0.27886 0.078929 0.013492 0.079094 0.034702 -0.12577 -0.13497 -0.089595 
0.22904 0.070708 0.0026412 0.056404 0.0021479 -0.23017 -0.079401 0.070873 
0.18991 -0.0044286 0.0013258 0.032893 -0.011992 -0.2032 0.13072 0.19698 
0.2001 -0.038956 0.026317 -0.01939 -0.00031829 -0.27094 0.40907 0.12036 
-0.059507 0.016616 0.046375 -0.035667 -0.023829 -0.38126 0.55688 -0.11343 
-0.50918 0.092082 0.038977 -0.04323 -0.099789 -0.38998 0.5314 -0.19252 
-0.62657 0.18103 -0.004593 0.02533 -0.097816 -0.31533 0.41696 -0.0026201 
-0.27061 0.19895 -0.021856 0.095206 0.051308 -0.11426 0.29645 0.067256 
0.17577 0.12694 -0.074798 0.10392 0.13598 0.060679 -0.060658 -0.024652 
0.44261 0.035853 -0.010841 0.077121 0.072681 -0.051122 -0.58366 -0.20337 
0.51019 -0.038956 -0.026789 0.040128 0.02533 -0.18923 -0.90065 -0.3885 
0.47615 -0.074962 -0.006566 0.057555 0.0013258 -0.39557 -0.86744 -0.42303 
0.4676 -0.085649 0.023357 0.05624 -0.041751 -0.59188 -0.70138 -0.43026 
0.39428 -0.074633 0.08156 -0.01117 -0.093212 -0.49504 -0.47794 -0.29544 
0.36567 0.039963 0.091096 0.005765 -0.055726 -0.1695 -0.23263 0.0056006 
0.21506 0.11658 0.059857 0.015794 0.01826 0.1299 0.046868 0.19385 
0.0031344 0.14519 0.076463 -0.0055795 0.072024 0.50723 0.22592 0.16607 
-0.077922 0.096357 0.12644 -0.025967 0.11313 0.98123 0.38326 0.076792 
-0.078415 0.012835 0.1493 -0.068714 0.21671 1.3211 0.7841 0.1271 
-0.1917 -0.074304 0.15801 -0.041257 0.27803 1.1162 0.96611 0.19468 
-0.2693 -0.066248 0.08304 0.096193 0.27475 0.63531 0.69022 0.33032 
-0.24908 0.045718 -0.012649 0.11132 0.087479 0.1904 0.35317 0.44903 
-0.26272 0.20503 -0.11031 0.14946 -0.06148 0.11526 0.28428 0.4944 
-0.33934 0.26981 -0.13991 0.11888 -0.081703 0.012835 0.23381 0.41992 
-0.23444 0.27031 -0.070194 0.028454 -0.10521 -0.11689 0.016123 0.20767 
-0.022185 0.15883 0.0088889 -0.010841 -0.12527 -0.23888 -0.19038 -0.0050863 
0.24778 0.041936 0.06742 -0.039942 -0.12971 -0.38899 -0.29248 -0.15322 
0.48174 -0.022679 0.065776 -0.03057 -0.10176 -0.48435 -0.27209 -0.30547 
0.55787 -0.077922 0.046046 0.03651 0.10408 -0.30498 -0.26256 -0.50934 
0.54636 -0.053424 0.018918 0.081067 0.30533 0.021713 -0.25401 -0.54683 
0.51397 -0.015444 0.01152 0.1054 0.38227 0.22608 -0.27834 -0.29297 
0.33361 0.035031 0.023193 0.080902 0.38046 0.34807 -0.28623 0.057062 
0.00066819 0.058213 0.044073 0.047691 0.39658 0.47698 -0.3058 0.34183 
-0.24562 0.083862 0.086328 0.024673 0.29941 0.36632 -0.2425 0.33805 
-0.26338 0.089616 0.13532 -0.041751 0.088958 0.27327 -0.182 0.31618 
-0.0031133 0.0059294 0.12053 -0.042408 -0.070852 0.34742 -0.020212 0.042923 
0.34002 -0.094527 0.0786 -0.03912 -0.13333 0.41466 0.16492 -0.32142 
0.35136 -0.092883 0.098823 -0.032379 -0.047012 0.44031 0.24351 -0.4222 
0.10277 -0.044052 0.067749 0.029276 0.0079024 0.19895 0.097672 -0.28031 
-0.12297 0.015794 0.030592 0.024837 -0.0021268 -0.17805 0.1835 -0.15026 
-0.2499 0.036675 0.024179 0.03947 0.0062583 -0.23066 0.31782 -0.012156 
-0.26568 0.12562 -0.016266 0.077285 0.07038 0.03651 0.32374 0.27475 
-0.25138 0.15637 -0.032543 0.098001 0.058213 0.2468 0.25995 0.56592 
-0.16523 0.1197 -0.0075525 0.11822 0.0082312 0.20388 0.30681 0.55343 
-0.08532 0.10491 0.031742 0.045389 -0.02087 0.16969 0.34281 0.68381 
-0.05589 0.067585 0.034866 0.02122 -0.02498 0.17051 0.19172 0.63909 
-0.033201 0.084848 0.071037 -0.0044286 0.023193 0.057062 -0.13366 0.2389 
0.033715 0.10096 0.054432 0.0074092 0.023522 -0.11804 -0.28936 -0.15355 
0.12233 0.066763 0.051308 0.0098754 -0.0050863 -0.16539 -0.34707 -0.30448 
0.052623 0.02533 0.035853 0.0088889 -0.015938 -0.17443 -0.16621 -0.24891 
-0.063453 -0.030242 0.033551 -0.012156 0.028454 -0.16111 0.22164 -0.13974 
-0.035503 -0.088608 0.052787 -0.0055795 0.090274 -0.046683 0.49325 -0.074798 
0.037826 -0.088937 0.069722 -0.0060728 0.11674 0.11165 0.43669 -0.047341 
0.027303 -0.013471 0.024015 0.034702 0.13006 0.064461 0.19912 0.071859 
-0.043066 0.064296 -0.011334 0.038648 0.082382 -0.0868 -0.085978 0.18613 
-0.010019 0.075312 0.0065871 0.029441 0.042429 -0.21225 -0.30037 0.14979 
0.018754 0.063145 0.01415 0.04358 0.021878 -0.34772 -0.43486 0.050814 
0.0069159 0.086328 0.0031344 0.046046 0.13927 -0.26552 -0.58168 0.024837 
-0.0078813 0.11855 -0.0406 0.10178 0.27475 -0.05441 -0.56491 0.14354 
0.0069159 0.15176 -0.10916 0.15407 0.15883 0.074983 -0.47695 0.22986 
-0.013636 0.20191 -0.094856 0.13088 -0.039449 0.053445 -0.26502 0.13615 
0.03092 0.16919 -0.039449 0.080409 -0.18265 0.016123 0.18152 -0.097158 
0.030756 0.076792 0.0062583 -0.0039354 -0.23707 0.0036276 0.45462 -0.55735 
0.074983 -0.052766 0.019576 -0.050958 -0.27209 -0.14056 0.4048 -0.7872 
0.10425 -0.10587 0.025824 -0.038627 -0.28903 -0.36449 0.20964 -0.53581 
0.12332 -0.1113 0.040621 -0.05441 -0.18561 -0.3012 0.1373 -0.182 
0.13993 -0.059507 0.083204 -0.014951 -0.05589 0.032564 0.29711 0.31815 
0.12381 0.016945 0.11658 -0.006566 0.068571 0.19139 0.25995 0.65043 
0.15785 0.085341 0.12085 0.031907 0.18235 0.099645 0.069558 0.66589 
0.04917 0.11346 0.11625 0.062159 0.22476 0.015959 0.15357 0.54126 
-0.1427 0.13878 0.063968 0.076627 0.20783 -0.21685 0.44113 0.30845 
-0.30909 0.1784 -0.033037 0.10622 0.10162 -0.64531 0.56395 0.087972 
-0.36006 0.14963 -0.02087 0.053445 -0.055561 -0.74676 0.44639 -0.09946 
-0.29593 0.12513 0.013986 0.040292 -0.11903 -0.44308 0.14009 -0.28525 
-0.15865 0.1003 0.070708 0.009711 -0.12774 -0.07562 -0.13333 -0.42894 
-0.063946 0.010697 0.1003 -0.026953 -0.1792 0.14716 -0.24595 -0.28525 
0.08304 -0.06855 0.13598 -0.029913 -0.194 0.23151 -0.35529 -0.040435 
0.29415 -0.1205 0.14305 -0.0075525 -0.16259 0.29415 -0.44095 -0.04882 
0.35827 -0.10127 0.1345 0.0092177 -0.04882 0.44376 -0.36696 -0.071016 
0.24252 -0.070687 0.099316 0.041114 0.069064 0.60933 -0.28147 -0.050136 
0.094055 -0.047834 0.088958 0.01826 0.32555 0.58056 -0.20288 0.029769 
0.12365 0.0082312 0.039141 0.039963 0.43883 0.2611 -0.18528 -0.081374 
0.35514 0.0069159 0.025988 0.0021479 0.26373 -0.19219 -0.056712 -0.35299 
0.55557 0.014972 0.0019835 -0.06855 -0.053424 -0.5271 0.28494 -0.32421 
0.43867 0.10672 -0.10258 0.012177 -0.18331 -0.46347 0.5554 -0.22211 
-0.047998 0.20816 -0.19104 0.067091 -0.12725 -0.19285 0.49013 -0.0022913 
-0.42516 0.26094 -0.14829 0.080573 -0.088773 -0.04882 0.49671 0.26833 
-0.5881 0.26801 -0.086964 0.11773 -0.019719 0.31157 0.64073 0.67921 
-0.48797 0.22296 -0.072825 0.08863 0.048019 0.51791 0.41762 0.63005 
-0.14599 0.090603 0.01711 0.029112 0.01563 0.22444 -0.22573 0.21095 
0.25978 -0.10686 0.17051 -0.077757 -0.064111 -0.17427 -1.0036 -0.17772 
0.42107 -0.1598 0.2098 -0.11837 -0.055726 -0.23954 -0.9891 -0.17871 
0.25173 -0.09387 0.16689 -0.038791 0.035195 0.076627 -0.20353 0.052294 
0.13993 -0.022843 0.13401 0.014479 0.14174 0.36731 0.65109 0.076956 
0.18021 -0.0024557 0.13762 0.046046 0.19994 0.34051 0.77637 -0.13497 
0.21621 -0.069865 0.14831 0.057062 0.18958 0.39855 0.56707 -0.28821 
0.32539 -0.056219 0.095042 0.0689 0.12891 0.44475 0.45708 -0.26289 
0.52433 -0.011827 0.065118 0.098988 0.050321 0.27212 0.31799 0.04358 
0.30319 -0.025145 0.083368 0.024837 -0.073482 -0.017582 -0.015116 0.31486 
-0.27538 -0.015609 0.13499 -0.019884 -0.15059 -0.32783 -0.32405 0.48618 
-0.72588 0.033715 0.12579 -0.036654 -0.10291 -0.45558 -0.36597 0.38803 
-0.64482 0.12529 0.10606 -0.031064 -0.0077169 -0.30974 -0.27242 0.095864 
-0.21323 0.12891 0.029112 0.023851 0.060022 -0.082854 -0.13366 -0.097487 
0.17939 0.10408 -0.021856 0.040128 0.12102 0.21375 0.044567 -0.16227 
0.3341 0.11559 -0.047834 0.070215 0.17149 0.42288 0.2759 -0.019719 
0.28247 0.08863 -0.044217 0.07301 0.10704 0.4339 0.48881 0.018425 
0.13138 0.059693 -0.0011404 0.024837 0.0592 0.32259 0.51496 -0.090088 
0.13236 0.064296 0.01826 0.030592 0.13023 0.23874 0.25008 -0.17608 
0.18843 0.0075736 0.013328 0.0039565 0.15127 0.20224 -0.06 -0.045039 
0.082711 -0.044546 0.0031344 -0.020212 0.041936 0.066598 -0.25088 0.16574 
-0.050793 -0.016102 -0.029913 0.03947 -0.024816 -0.06296 -0.54716 0.30894 
-0.1427 0.04506 -0.055397 0.059528 -0.018075 -0.087622 -0.84162 0.3341 
-0.16588 0.032893 -0.050793 0.085177 -0.00081153 -0.15668 -0.74544 0.37109 
-0.18348 -0.012156 0.0032988 0.11181 -0.023336 -0.23724 -0.49208 0.60374 
-0.16407 0.0026412 0.019083 0.12858 -0.025309 -0.28327 -0.23609 0.61015 
-0.0029489 0.029276 -0.0022913 0.12414 0.00066819 -0.084827 0.099645 0.33805 
0.22871 0.078272 -0.022185 0.080409 0.018425 0.16558 0.34216 0.0098754 
0.27343 0.10622 -0.0040998 0.049006 0.078272 0.23841 0.34906 -0.182 
0.22822 0.061995 0.018918 0.012835 0.10606 0.15949 0.22657 -0.13645 
0.070708 0.031907 0.066763 -0.073647 0.021056 -0.0004827 0.17708 -0.0072237 
-0.11146 0.025001 0.12085 -0.099789 -0.16276 -0.19679 0.086985 -0.15191 
-0.12889 0.044238 0.14437 -0.1279 -0.21225 -0.17394 -0.038627 -0.46183 
-0.13711 0.025166 0.10178 -0.068714 -0.1233 0.13812 -0.14089 -0.50096 
-0.13415 0.03651 0.010862 0.044896 0.040785 0.48881 0.062817 -0.41727 
-0.21866 0.15752 -0.080223 0.18004 0.16755 0.50838 0.44442 -0.36959 
-0.32652 0.16574 -0.12609 0.18974 0.24022 0.38655 0.67756 0.050814 
-0.17312 0.13532 -0.069536 0.16623 0.12151 -0.00064712 0.46021 0.37307 
-0.061151 0.15374 -0.044381 0.10392 0.016781 -0.46133 0.095371 0.41548 
-0.042079 0.14026 -0.019226 0.060679 -0.0088678 -0.63117 -0.089924 0.49029 
-0.037311 0.097179 0.01826 0.035524 0.013986 -0.46808 -0.11952 0.49243 
-0.065097 0.054925 0.069229 0.040292 0.096686 -0.18413 -0.22885 0.27195 
-0.066906 -0.0026201 0.028125 0.035524 0.17774 0.056404 -0.43289 -0.090088 
0.12513 -0.028926 0.049992 0.022042 0.1927 0.28412 -0.37863 -0.27472 
0.31503 0.012013 0.055254 0.026974 0.090274 0.26422 -0.096829 -0.1963 
0.18909 0.076299 0.046704 -0.013307 -0.020706 0.21441 0.071202 0.2172 
-0.041093 0.072681 0.023686 -0.012814 -0.12642 0.15308 0.16196 0.52992 
-0.10521 0.08304 -0.0052507 -0.024816 -0.12856 0.10113 0.15933 0.35925 
0.095042 0.063803 0.027303 -0.023007 -0.072167 -0.027775 0.050157 -0.19071 
0.42995 0.026317 0.0042853 0.048348 -0.0075525 -0.17262 0.0018191 -0.50096 
0.67526 -0.025802 -0.0064016 0.087643 0.048184 -0.17969 0.02829 -0.67787 
0.67723 -0.045039 -0.031228 0.078436 0.056898 -0.16325 -0.0052507 -0.59385 
0.42617 -0.014129 -0.017088 0.10606 0.096193 -0.055232 -0.019555 -0.54354 
0.08978 0.078107 -0.052931 0.072024 0.11642 0.11576 0.10951 -0.4416 
-0.16095 0.11855 -0.03912 0.051636 0.055582 0.078929 0.232 -0.1575 
-0.28147 0.14272 0.0064227 0.007738 -0.018075 -0.14796 0.19073 0.09422 
-0.29429 0.12316 0.034537 0.010862 0.011191 -0.2014 0.079094 0.16574 
-0.35019 0.11954 0.025988 0.068242 0.08715 -0.022679 0.0082312 0.21276 
-0.32783 0.090274 0.0592 0.017603 0.059857 -0.038133 -0.098638 0.19353 
-0.19877 0.02681 0.082382 -0.034516 -0.054739 -0.16654 -0.12462 0.12842 
-0.010348 0.010204 0.078436 -0.024816 -0.05737 -0.1695 0.016123 0.12677 
0.13335 0.022371 0.030427 0.0026412 -0.015609 0.042265 0.17396 0.13861 
0.22937 0.066105 0.029769 0.073997 0.060515 0.30122 0.29892 0.15587 
0.2491 0.054432 0.026646 0.05772 0.12053 0.43719 0.38129 0.16294 
0.23134 0.062981 0.05772 0.018918 0.039634 0.29037 0.40546 0.06479 
0.19599 0.08715 0.054925 0.034209 -0.081703 -0.048327 0.26653 -0.14204 
0.05213 0.046868 0.067913 0.011026 -0.15651 -0.22326 0.032729 -0.29232 
-0.088444 0.060679 0.053774 0.044731 -0.11804 -0.2328 -0.24036 -0.23527 
-0.06444 0.078929 0.028947 0.025824 -0.048985 -0.22836 -0.32339 -0.071838 
0.044567 0.0079024 0.044402 0.0042853 -0.0064016 -0.18512 -0.19745 -0.017746 
0.16788 -0.039449 0.056733 0.026317 0.014315 -0.034352 0.023686 0.067585 
0.20586 -0.058028 0.076134 0.013821 0.010204 0.084519 -0.0004827 0.073339 
0.19879 -0.057863 0.08863 0.017767 -0.014787 0.063145 -0.17772 0.034866 
0.29464 -0.068057 0.10902 0.023686 0.016945 0.19731 -0.32109 -0.0082102 
0.39444 -0.037476 0.095699 0.0064227 0.1567 0.32341 -0.26141 -0.038956 
0.42206 0.021878 0.11954 0.055089 0.21737 0.21621 -0.099953 -0.24365 
0.34117 -0.041257 0.051143 -0.017746 0.073668 -0.19663 -0.15931 -0.3982 
0.15111 0.00017495 0.010862 0.0082312 -0.1672 -0.60388 -0.29774 -0.18298 
-0.026624 0.053938 0.0067515 0.0023123 -0.26289 -0.64531 -0.15717 0.055911 
-0.22162 0.1322 0.0023123 0.035853 -0.072167 -0.43388 0.24334 0.26702 
-0.31484 0.16196 0.0074092 0.10704 0.21621 0.048841 0.35235 0.31125 
-0.41711 0.13845 -0.0044286 0.093562 0.40463 0.48191 0.20586 0.19714 
-0.39524 0.064461 0.019411 0.12053 0.41532 0.34035 0.029769 0.17922 
-0.17016 -0.071509 0.10721 0.06331 0.22592 0.0070803 -0.075291 0.28609 
0.19188 -0.11919 0.18892 -0.06855 -0.042244 -0.15651 -0.15618 0.36452 
0.33394 -0.05885 0.17659 -0.085485 -0.22359 -0.055232 -0.12757 0.44031 
0.19172 0.12151 0.083368 -0.025802 -0.16786 0.3489 0.25008 0.54274 
-0.027447 0.2103 -0.0077169 0.070873 0.036182 0.58845 0.658 0.48881 
-0.066248 0.12102 0.049335 0.00099702 0.087479 0.49638 0.55409 0.10359 
0.07597 0.00083261 0.099974 -0.07266 0.066598 0.66243 0.30829 -0.32947 
0.22953 -0.034352 0.090767 -0.037476 0.043416 0.46793 0.090931 -0.55225 
0.10014 0.040785 0.046868 0.00033937 0.0062583 -0.16506 0.036839 -0.11903 
-0.1672 0.096521 -0.023501 0.062652 -0.0049219 -0.55258 0.069558 0.29941 
-0.21291 0.03388 -0.0024557 0.069886 -0.013307 -0.59813 0.0031344 0.35071 
-0.13777 -0.0052507 0.032071 -0.013143 0.0093821 -0.4666 -0.23379 0.16837 
-0.040435 0.063145 0.030098 0.019247 0.099645 -0.27604 -0.38488 0.045882 
-0.087129 0.10589 -0.0075525 0.087314 0.23973 0.08419 -0.29413 0.10063 
-0.15684 0.12118 -0.035832 0.1322 0.27064 0.40578 -0.20386 0.13993 
-0.13826 0.088794 -0.020377 0.15703 0.17034 0.47089 -0.2397 0.020562 
-0.3132 0.036839 0.037497 0.035195 -0.031228 0.26669 -0.23954 -0.053424 
-0.49553 0.057227 0.053281 -0.0091966 -0.15141 -0.0072237 -0.01232 0.047526 
-0.31007 0.082053 0.031085 0.031907 -0.10341 -0.024652 0.28478 0.23101 
0.024344 0.052294 0.045389 -0.02794 -0.052931 0.059035 0.39 0.19287 
0.42206 -0.046847 0.072846 -0.059507 0.011684 0.21769 0.34758 1.0539e-005 
0.73116 -0.079895 0.08008 -0.059343 0.084684 0.52071 0.26455 -0.1667 
0.73872 -0.053917 0.07038 -0.042079 0.13023 0.71275 0.28116 -0.19202 
0.34594 -0.030899 1.0539e-005 0.0088889 0.14913 0.57908 0.22115 -0.10439 
-0.072496 0.056733 -0.073976 0.01826 0.11247 0.15209 -0.065591 -0.06444 
-0.28475 0.12628 -0.046025 0.034866 0.024344 -0.23263 -0.16407 0.04506 
-0.29199 0.14798 0.0056006 0.038155 -0.047669 -0.4758 -0.14073 0.13088 
-0.26585 0.18333 0.0056006 0.065612 0.029769 -0.3423 0.026152 0.2736 
-0.25368 0.19829 -0.052109 0.1442 0.085341 -0.06444 0.20849 0.32818 
-0.16029 0.15703 -0.06296 0.13746 0.075312 -0.0042642 0.045718 0.33377 
-0.042079 0.067913 -0.026953 0.087972 0.03651 0.044731 -0.099131 0.19254 
0.079258 -0.0098543 0.0034632 0.048841 0.044896 0.011026 -0.027775 0.014808 
0.13483 0.00083261 -0.029091 -0.013965 0.11428 -0.072167 0.2856 -0.10193 
0.099974 0.068736 -0.08269 0.014479 0.11872 -0.075455 0.48865 -0.24579 
0.025659 0.081889 -0.066906 -0.0052507 0.056076 -0.021856 0.66359 -0.50392 
-0.052273 0.11083 -0.0078813 0.022206 -0.041093 0.25173 0.68315 -0.44045 
-0.1741 0.11461 -0.0039354 0.071366 0.023522 0.47171 0.46777 -0.13662 
-0.22162 0.15472 0.055418 0.079751 0.08304 0.70321 0.28494 0.004943 
-0.057699 0.061995 0.15292 0.053281 0.035195 0.67773 0.16064 0.018754 
0.06742 -0.10423 0.25715 -0.042408 -0.071181 0.1539 -0.12462 0.24795 
0.067091 -0.24316 0.31371 -0.1016 -0.18726 -0.38784 -0.31681 0.53518 
0.13154 -0.1478 0.2172 -0.063289 -0.19909 -0.13908 -0.37403 0.51726 
0.27655 0.11674 0.049335 0.01826 -0.10571 0.11609 -0.58908 0.091753 
0.25715 0.20816 -0.063124 0.11346 -0.032215 0.019576 -0.71338 0.029934 
-0.01676 0.18103 -0.083512 0.17791 0.032236 -0.074469 -0.66636 0.47385 
-0.14599 0.088301 -0.025638 0.13861 0.040456 -0.086964 -0.66784 0.66918 
0.091753 -0.026296 0.12135 0.1197 0.040128 -0.1381 -0.46117 0.2948 
0.37718 -0.093541 0.21983 0.047197 0.022864 -0.20748 0.0069159 -0.38209 
0.33459 -0.056055 0.22756 0.028947 -0.01676 -0.16983 0.4949 -0.7632 
0.088465 -0.054575 0.17067 0.0028056 -0.048656 -0.16144 0.59716 -0.63019 
-0.11491 -0.039778 0.10408 -0.038627 -0.099131 -0.20879 0.46695 -0.46808 
-0.21833 -0.019555 0.00017495 -0.018568 -0.08828 -0.2134 0.28658 -0.44769 
-0.20337 0.059035 -0.088773 -0.039778 -0.056877 -0.096336 0.13335 -0.41398 
0.020233 0.073668 -0.14632 -0.013143 -0.063782 -0.12905 -0.06148 -0.26157 
0.17429 0.095864 -0.18298 0.045882 -0.0868 -0.23444 -0.21175 -0.078744 
0.12644 0.1391 -0.14895 0.060515 -0.049642 -0.4758 -0.39277 -0.14369 
0.058542 0.13006 -0.098802 0.1031 0.0024767 -0.63561 -0.31205 -0.1381 
0.078436 0.097508 -0.013307 0.095699 -0.024652 -0.64219 -0.18512 -0.012649 
0.0093821 0.06035 0.087808 0.044567 -0.11376 -0.48715 -0.20764 0.22937 
-0.08121 0.030592 0.15472 0.016288 -0.16227 -0.17805 -0.19087 0.51249 
-0.034352 0.010697 0.16623 0.033551 -0.022514 0.52005 0.066763 0.54455 
0.08419 0.027468 0.11888 0.07038 0.1567 1.1119 0.29267 0.39132 
0.14765 0.038977 0.11905 0.081724 0.22263 1.1212 0.2121 0.1562 
0.17445 -0.014951 0.1539 0.013986 0.16985 0.54192 0.12776 0.11313 
0.22871 -0.045532 0.14124 0.020069 0.14026 0.0072447 0.077285 0.031578 
0.30368 -0.04619 0.099974 -0.0024557 0.13384 -0.30859 0.016945 -0.062138 
0.36896 -0.066248 0.078436 0.0026412 0.16015 -0.50441 0.063968 0.050486 
0.36419 -0.095843 0.074983 0.010533 0.18498 -0.56064 0.19829 0.10704 
0.33788 -0.11705 0.081067 -0.011005 0.13434 -0.44259 0.085506 -0.19992 
0.28198 -0.061645 0.076627 -0.0039354 0.018754 -0.26946 -0.26913 -0.583 
0.094548 0.032564 0.035031 0.025495 -0.065755 -0.078415 -0.35627 -0.57577 
-0.17936 0.083368 -0.031228 0.033715 -0.032708 0.31256 -0.22672 -0.21488 
-0.29758 0.17676 -0.044381 0.072681 0.0051074 0.48964 -0.2762 0.21671 
-0.14188 0.1516 -0.018404 0.0088889 0.01004 0.21309 -0.41941 0.44261 
0.050486 0.13154 0.0041209 -0.021199 -0.032708 0.0082312 -0.30037 0.29579 
0.19402 0.15374 0.012013 -0.057699 -0.04471 0.018425 0.039634 0.039963 
0.19879 0.12414 -0.031064 -0.022514 -0.015444 0.0059294 0.33492 -0.12198 
0.024673 0.14979 -0.09798 0.085177 -0.028104 -0.23116 0.36764 -0.28738 
-0.18101 0.17199 -0.13234 0.06183 -0.057699 -0.39097 0.35794 -0.31501 
-0.22885 0.17363 -0.15602 0.047526 -0.0026201 -0.23625 0.28757 -0.25927 
-0.023994 0.10918 -0.14911 0.051308 0.075476 -0.043066 0.2463 -0.17164 
0.17741 0.04358 -0.091732 0.044731 0.15785 0.18547 0.244 -0.11639 
0.17676 0.036839 -0.05589 0.083533 0.16459 0.38671 0.27935 -0.0088678 
0.089452 0.032564 -0.038956 0.047033 0.14042 0.37307 0.26028 0.19813 
-0.035832 0.016781 -0.048163 0.03947 0.089123 0.039799 0.075641 0.36337 
-0.18216 0.041772 0.0047785 -0.0013048 0.022206 -0.28212 -0.16638 0.45692 
-0.23724 0.047033 0.02681 -0.0068948 -0.0021268 -0.39968 -0.25401 0.33196 
-0.087786 0.069064 0.026974 0.03947 0.087808 -0.23165 -0.20436 0.12529 
0.12168 0.038483 0.0067515 0.016781 0.14091 0.064461 -0.15996 -0.047341 
0.26373 -0.0044286 0.056076 -0.02498 0.11707 0.26192 -0.099953 -0.037969 
0.21375 -0.043559 0.086163 -0.041093 0.073832 0.26357 0.10754 0.085177 
0.067091 0.0039565 0.091096 -0.03501 0.065776 0.31371 0.36748 0.39773 
-0.11409 0.10228 0.031907 0.0074092 0.071531 0.44541 0.32785 0.49999 
-0.16851 0.10326 0.019905 -0.011334 0.012177 0.51824 0.2126 0.42288 
-0.018568 0.058871 0.10441 -0.076442 -0.065755 0.37734 0.4362 0.18136 
0.11263 0.04654 0.13154 -0.062631 -0.07562 0.31092 0.53715 -0.03764 
0.09685 0.066269 0.053116 -0.016266 0.034373 0.33476 0.42666 -0.16572 
0.11428 0.094384 -0.075291 0.090767 0.20109 0.29628 0.38014 -0.23658 
0.0059294 0.13647 -0.13629 0.17314 0.2925 0.10803 0.41006 -0.19811 
-0.20337 0.15982 -0.11459 0.1636 0.26488 -0.082361 0.22493 -0.01939 
-0.36318 0.10277 -0.029255 0.14519 0.15703 -0.20732 -0.084334 0.21506 
-0.41185 0.059528 0.020069 0.069229 0.049664 -0.30892 -0.19992 0.43176 
-0.30202 0.089287 0.079587 0.004943 -0.022679 -0.2619 -0.12873 0.37241 
-0.038462 0.06331 0.080409 -0.0072237 -0.088608 -0.22885 -0.15552 0.09833 
0.27803 0.048513 0.098001 -0.0036066 -0.13793 -0.27308 -0.23839 -0.083676 
0.32407 0.029112 0.082546 0.038648 -0.15865 -0.25319 -0.22902 -0.060165 
0.096357 0.021878 0.056898 0.051308 -0.095843 -0.026624 -0.00081153 0.033222 
-0.23724 0.012342 0.048513 0.036346 -0.067728 0.032729 0.19106 -0.047505 
-0.36663 -0.015444 0.063968 0.016123 -0.11212 1.0539e-005 0.21737 0.067091 
-0.16259 -0.049149 0.11477 -0.046025 -0.11541 -0.0070593 -0.0091966 0.080902 
0.41795 -0.045861 0.13549 -0.016924 -0.032872 -0.082854 -0.36877 0.011026 
0.63564 -0.025638 0.11346 -0.0059084 0.034866 0.053116 -0.53269 0.11115 
0.2736 0.00050378 0.087314 0.014972 0.14437 0.35136 -0.38291 0.21572 
-0.31665 0.059364 0.055747 0.082711 0.17971 0.52071 -0.17624 0.27787 
-0.53351 0.10293 0.038648 0.053938 0.13351 0.29217 0.082053 0.31848 
-0.31139 0.080573 0.062159 0.020891 -0.0073881 0.034702 0.36583 0.28872 
-0.0044286 0.040128 0.097837 0.0095465 -0.044217 0.042265 0.56214 0.12266 
0.11362 0.031414 0.090274 -0.018075 -0.038133 0.088301 0.49079 -0.27588 
0.093398 -0.01117 0.079587 0.028783 -0.0073881 -0.015609 0.11559 -0.61391 
0.042594 0.00297 0.050979 0.044731 0.048677 -0.12281 -0.18857 -0.62871 
0.13138 0.0028056 0.042594 0.063968 0.053938 -0.16851 -0.30777 -0.3298 
0.21161 0.015301 0.03947 0.08156 -0.014129 -0.25615 -0.30415 0.15028 
0.081231 0.048513 0.021056 0.088465 -0.070194 -0.28854 -0.1986 0.47089 
-0.05589 0.085999 0.0067515 0.11707 -0.070359 -0.32652 -0.068386 0.451 
0.060186 0.0786 0.020398 0.070215 -0.070687 -0.49734 -0.11491 0.062488 
0.12973 0.091589 0.043745 0.036346 -0.073318 -0.52743 -0.29939 -0.16506 
0.017274 0.071037 0.049006 0.023193 -0.042244 -0.38274 -0.56228 -0.23707 
0.0064227 0.03947 0.076463 -0.00064712 -0.015444 -0.25023 -0.64975 -0.2305 
0.099645 0.017274 0.088465 -0.0024557 -0.028926 -0.12231 -0.50638 -0.18594 
0.21243 -0.021528 0.12365 -0.02498 0.11674 0.40661 -0.10193 -0.37255 
0.30845 -0.089595 0.17643 -0.048163 0.32243 0.84905 0.40562 -0.42155 
0.30779 -0.1187 0.17659 -0.0029489 0.43308 0.84477 0.92303 -0.14599 
0.20224 -0.030735 0.11806 -0.0083746 0.42206 0.90297 1.1036 0.17149 
0.087314 0.038483 0.076627 0.04358 0.27047 0.91432 0.92599 0.17758 
-0.022843 0.076463 0.024179 0.060515 0.041936 0.53633 0.5508 0.005765 
-0.024487 0.054267 0.01711 0.024344 -0.14533 0.17462 0.18859 -0.1963 
0.039634 0.011355 -0.003771 0.062652 -0.20271 -0.35167 -0.291 -0.43256 
0.064132 0.066105 -0.0096899 0.051965 -0.2379 -0.95967 -0.87319 -0.3007 
0.058542 0.12875 -0.046025 0.044402 -0.28245 -1.3707 -1.2158 -0.16342 
0.01563 0.17692 -0.076277 0.054267 -0.19893 -1.1192 -1.1261 -0.21718 
-0.071181 0.17297 -0.14023 0.068571 -0.080881 -0.44374 -0.61884 -0.15372 
-0.04619 0.18103 -0.19449 0.074819 0.027468 0.30105 0.094055 0.20158 
0.14897 0.13532 -0.13284 0.032236 0.079094 0.62396 0.57349 0.44327 
0.32259 0.0095465 0.012835 -0.038791 0.072681 0.66457 0.5919 0.32703 
0.33443 -0.079895 0.11033 -0.05885 0.085835 0.84641 0.55737 0.097344 
0.27327 -0.085813 0.16064 -0.060658 0.18498 0.94391 0.61755 0.31042 
0.01974 -0.086307 0.22444 -0.010348 0.29563 0.70337 0.53962 0.64862 
-0.28492 -0.027447 0.19303 0.014972 0.39164 0.58089 0.43456 0.68315 
-0.49372 0.051472 0.09833 0.050979 0.38688 0.67246 0.41548 0.5337 
-0.41957 0.10721 -0.029748 0.096193 0.22838 0.26653 0.27754 0.28905 
-0.17246 0.14979 -0.078415 0.03947 0.017438 -0.42335 0.15752 -0.22441 
0.017767 0.18185 -0.083512 0.024508 -0.14188 -0.86809 -0.029748 -0.81976 
0.02829 0.16081 0.0011614 0.029605 -0.21882 -0.90032 -0.29626 -0.92942 
0.040128 0.070215 0.0592 0.0041209 -0.17986 -0.52266 -0.31616 -0.59007 
0.090603 -0.012485 0.15193 0.041607 -0.09239 0.091589 -0.21685 -0.12692 
0.19846 0.0036276 0.15785 0.063968 0.028619 0.46728 0.04506 0.25025 
0.16903 -0.010183 0.088136 0.071859 0.061995 0.44278 0.1853 0.5942 
0.098166 -0.0067304 0.0051074 0.1077 0.036839 0.11543 0.14946 0.96414 
-0.079401 0.0021479 -0.023665 0.040621 -0.013307 -0.11722 0.098166 1.0902 
-0.29002 -0.0082102 -0.08269 0.0064227 -0.060494 -0.23099 0.046868 0.83803 
-0.29265 -0.043395 -0.057205 -0.033694 -0.052931 -0.1547 -0.05441 0.23348 
0.14124 -0.041586 -0.021856 -0.02646 -0.010019 -0.037969 -0.047012 -0.3423 
0.50147 -0.00015387 0.051965 0.06035 0.056733 0.080902 0.068736 -0.2522 
0.51002 0.0088889 0.16952 0.041278 0.029934 -0.0032777 0.078107 -0.011334 
0.25814 0.0056006 0.24712 0.018096 -0.0072237 -0.20057 -0.18282 0.0023123 
-0.13629 0.038155 0.18859 0.011848 -0.048985 -0.54584 -0.52661 0.16804 
-0.37814 0.046211 0.10836 -0.028762 -0.1016 -0.75399 -0.79592 0.18728 
-0.28048 0.053445 0.068242 -0.023336 -0.1256 -0.57001 -0.80742 0.080409 
-0.025145 0.071202 -0.0088678 -0.028926 -0.098473 -0.11672 -0.58432 0.19698 
0.052459 0.17692 -0.12955 0.038319 0.039141 0.57694 -0.13251 0.37307 
0.051143 0.21178 -0.23543 0.086821 0.097015 1.0179 0.33328 0.29744 
0.12694 0.11 -0.24118 0.031578 0.088958 0.97778 0.78986 0.065776 
0.18711 0.025824 -0.15454 0.044238 0.087643 0.66507 1.0488 -0.21044 
0.14881 0.031907 -0.032872 0.04654 0.1636 0.44771 1.1802 -0.3395 
0.073997 0.088958 -0.044217 0.068242 0.21671 0.50821 1.348 -0.12774 
0.16936 0.14831 -0.039778 0.064296 0.18087 0.65306 1.3765 0.045389 
0.3101 0.053116 0.047855 0.045882 0.10408 0.54373 1.0301 -0.0503 
0.23019 -0.0034422 0.14946 0.053281 0.012835 -0.020212 0.31388 -0.21323 
-0.070687 -0.014293 0.25584 0.049664 -0.042573 -0.78671 -0.47268 -0.17772 
-0.25006 -0.061151 0.29382 0.049828 -0.099953 -1.2033 -1.0361 0.018754 
-0.20584 -0.072496 0.27984 0.06183 -0.11804 -1.193 -1.2859 -0.034845 
-0.091239 -0.044052 0.24564 0.015465 -0.16309 -0.99979 -1.2349 -0.17295 
-0.092061 -0.037476 0.20273 -0.024323 -0.17657 -0.7147 -0.97151 0.024344 
-0.22655 -0.0050863 0.1276 -0.033859 -0.17525 -0.38718 -0.72883 0.39263 
-0.22244 0.010533 0.093891 -0.025309 -0.11607 -0.090253 -0.43207 0.46382 
-0.0091966 0.043909 0.022535 0.03799 -0.067892 0.11526 -0.047012 0.25123 
0.28773 0.031742 -0.015444 0.049006 0.0026412 0.2583 0.23973 0.029112 
0.43078 0.084848 -0.052437 0.03799 0.066927 0.43242 0.31059 0.094384 
0.2828 0.098166 -0.09239 0.053774 0.14305 0.53436 0.40052 0.10556 
0.030427 0.073832 -0.10521 0.010697 0.10228 0.42584 0.49638 -0.15832 
0.022864 -0.003771 -0.093705 -0.015444 0.01826 0.20224 0.3923 -0.49175 
0.33574 -0.049478 -0.064768 -0.036818 -0.0029489 -0.0078813 0.34248 -0.65419 
0.50871 0.026152 -0.054575 -0.021034 -0.035667 -0.039778 0.34298 -0.61769 
0.45478 0.047362 -0.0082102 0.030592 0.020562 0.073175 0.19944 -0.69349 
0.16788 0.06594 -0.088115 0.07449 0.1179 0.086492 -0.1187 -0.78112 
-0.12905 0.11691 -0.09091 0.10458 0.11346 -0.13629 -0.39869 -0.71437 
-0.24217 0.06035 -0.048492 0.055089 -0.018239 -0.37239 -0.54338 -0.43108 
-0.21702 0.059693 0.00083261 0.013821 -0.070194 -0.35693 -0.36301 0.076463 
-0.20255 0.094713 0.010369 0.043251 -0.0024557 -0.052931 -0.052602 0.50131 
-0.079895 0.10918 0.054267 0.0064227 0.053445 0.21391 0.24844 0.63531 
0.061501 0.040456 0.064461 -0.00081153 0.0592 0.098659 0.2657 0.45412 
0.1636 0.012013 0.068736 -0.014129 0.088301 -0.072825 0.15374 0.33476 
0.21079 0.04654 0.014315 0.029605 0.12497 -0.023172 0.071695 0.2052 
0.16525 0.086492 0.00017495 0.091425 0.11017 0.085341 0.064296 -0.10456 
-0.14254 0.1077 0.027468 0.044073 0.12464 0.22082 0.21342 -0.33737 
-0.49504 0.09685 0.048677 0.005765 0.082875 0.17906 0.39987 -0.43223 
-0.56475 0.033222 0.041278 -0.016595 0.046375 0.1105 0.42666 -0.32257 
-0.36762 0.013164 -0.015444 -0.047341 1.0539e-005 0.13088 0.35416 -0.05326 
-0.073154 0.072353 -0.028597 0.0087245 0.029934 0.12612 0.24811 0.25683 
0.183 0.088465 -0.011005 0.0074092 0.090109 0.3535 0.16558 0.39247 
0.29859 0.078272 0.0095465 0.014808 0.1539 0.47829 -0.014129 0.22263 
0.23249 0.079422 0.018425 0.079916 0.13549 0.37866 -0.2864 0.06331 
0.099481 0.10885 0.044731 0.056569 0.098659 0.19468 -0.40527 0.090767 
-0.017088 0.11806 0.083862 0.066269 0.083697 0.024179 -0.39031 0.20931 
-0.10423 0.12562 0.077614 0.037826 0.052787 -0.26864 -0.34624 0.12003 
-0.10193 0.066927 0.082382 0.04095 -0.0016336 -0.48567 -0.32635 0.01974 
-0.051944 -0.011663 0.099316 0.053609 -0.022679 -0.41678 -0.17246 -0.0024557 
0.0092177 0.0041209 0.042758 0.039634 -0.03501 -0.17871 0.014643 0.043909 
0.073175 0.046868 0.0054362 0.027632 -0.021692 -0.10373 0.12546 0.065283 
0.13401 0.018096 0.014972 0.0044497 -0.035832 -0.16523 0.045882 0.048841 
0.1419 -0.052931 0.070708 -0.042408 -0.065591 -0.16621 0.011848 0.099152 
0.15818 -0.07825 0.11921 -0.047669 -0.08121 -0.05441 0.07301 0.11033 
0.075805 -0.03912 0.13713 -0.049642 -0.043559 0.03388 0.06183 0.050486 
-0.042244 0.0039565 0.086328 -0.014129 0.019905 0.14239 -0.082196 0.077285 
-0.13251 0.06183 0.01267 0.017438 0.11888 0.25107 -0.12609 0.12464 
-0.17953 0.16475 -0.058028 0.041278 0.20586 0.28921 0.098001 0.19418 
-0.17114 0.18563 -0.11113 0.089452 0.18169 0.22033 0.21868 0.23529 
-0.0965 0.19435 -0.12396 0.062488 0.10836 0.21572 0.23134 0.21408 
-0.040764 0.17528 -0.063618 0.048513 0.073668 0.29152 0.30697 0.17676 
0.072188 0.1299 -0.018733 0.080244 0.069886 0.33689 0.53386 0.075148 
0.22904 0.0592 0.026317 0.053116 0.045553 0.20635 0.63383 0.034373 
0.26324 0.034373 0.043087 0.086163 0.064625 0.095864 0.54175 0.01826 
0.13056 0.063145 0.04654 0.079258 -0.013143 0.1368 0.3484 0.11263 
0.06331 0.0044497 0.12184 0.023357 -0.074798 0.34199 0.26537 0.21424 
0.063639 -0.053753 0.13434 0.040456 -0.046847 0.58434 0.14519 0.21424 
0.12316 -0.060494 0.1396 -0.00015387 -0.010676 0.3729 -0.070852 0.083533 
0.16294 -0.051615 0.14321 -0.017582 -0.081703 -0.45509 -0.45278 -0.11294 
0.10704 -0.023007 0.13582 -0.030899 -0.099789 -0.99091 -0.8944 -0.058356 
0.036182 0.038483 0.077943 -0.0029489 0.0227 -0.79361 -0.9697 0.15292 
-0.033859 0.046704 0.057227 0.055418 0.18695 -0.39097 -0.77701 0.34002 
-0.057534 0.035853 0.0227 0.095535 0.34988 0.043745 -0.5197 0.38079 
-0.1108 0.060679 -0.0050863 0.14042 0.4995 0.61114 -0.054739 0.34446 
-0.21471 0.11526 -0.023994 0.16064 0.51907 0.61492 0.22871 0.32752 
-0.12182 0.088136 0.03092 0.065447 0.26751 0.11115 0.16985 0.094877 
0.14716 0.01004 0.057227 0.0028056 -0.03057 -0.13793 0.15012 -0.15996 
0.31421 0.045224 0.081889 -0.079401 -0.25779 -0.18068 0.20125 -0.27472 
0.26702 0.017603 0.081231 -0.077428 -0.36778 -0.23296 0.11263 -0.22425 
0.15768 0.03388 0.037826 -0.030735 -0.35611 -0.25894 -0.089924 -0.19663 
0.10063 0.088794 -0.011992 0.0013258 -0.25812 -0.28114 -0.041093 -0.26979 
0.07301 0.075148 -0.031721 0.083697 -0.14517 -0.35019 0.13828 -0.24694 
0.04506 0.044567 -0.016595 0.056076 -0.094527 -0.26963 0.013164 -0.28393 
0.016452 0.041443 0.016781 0.027303 -0.063782 -0.028433 -0.18775 -0.16966 
0.020727 0.0079024 0.040785 0.023522 -0.091404 0.0087245 -0.13382 0.21342 
-0.047341 0.0054362 0.00050378 0.01974 -0.054575 0.037661 0.084684 0.4288 
-0.12462 0.005765 -0.051451 0.070544 0.0046141 0.074161 0.11888 0.22575 
-0.028926 0.047197 -0.061809 0.053281 -0.042244 -0.02942 0.11395 -0.18939 
0.18119 -0.014293 -0.021363 0.0060938 -0.10834 0.049499 0.12398 -0.30531 
0.45577 -0.075784 0.049335 -0.0057439 -0.10028 0.08863 0.19632 -0.2859 
0.51232 -0.064933 0.094384 -0.045368 0.043909 0.28346 0.3655 -0.083512 
0.31782 0.038977 0.034702 0.033551 0.24334 0.60029 0.56428 0.31141 
0.1493 0.13335 -0.037805 0.11099 0.34988 0.57217 0.4025 0.55951 
-0.052766 0.13467 -0.054904 0.11905 0.33969 0.244 0.19205 0.62215 
-0.17772 0.12431 -0.013965 0.091918 0.25633 -0.10291 0.012342 0.61854 
-0.16111 0.056076 0.0227 0.04506 0.19649 -0.2305 -0.14221 0.37816 
-0.16062 0.047362 0.0324 -0.011827 0.14831 -0.36038 -0.3377 -0.15536 
-0.26437 0.034702 0.07449 -0.026789 0.02829 -0.63495 -0.68675 -0.50408 
-0.36532 0.016452 0.087643 -0.066084 -0.11294 -0.66373 -0.82304 -0.4666 
-0.20814 -0.00081153 0.078107 -0.045532 -0.10308 -0.26174 -0.5756 -0.4421 
0.03799 0.047691 0.061501 -0.0078813 0.18761 0.30418 -0.18841 -0.25121 
0.095864 0.061172 -0.0036066 0.073175 0.42042 0.6455 0.26439 -0.058192 
0.1271 0.12349 -0.062302 0.12891 0.34446 0.61426 0.70995 0.034702 
0.13631 0.13319 -0.044546 0.083204 0.14683 0.31059 0.79594 0.075641 
0.16262 0.14519 -0.00015387 0.05065 -0.074469 -0.055726 0.58763 0.094713 
0.14223 0.049664 0.055582 -0.020048 -0.28903 -0.23214 0.35498 0.087643 
0.17462 -0.022843 0.1077 -0.050464 -0.35364 -0.28147 0.15407 -0.0091966 
0.24466 -0.018404 0.15933 -0.026131 -0.30859 -0.18791 -0.085978 -0.17147 
0.28889 -0.06707 0.12792 -0.047341 -0.22918 0.098659 -0.1718 -0.25171 
0.21802 -0.031228 0.12398 -0.015938 -0.15651 0.11691 -0.14237 -0.039613 
0.083697 0.035524 0.049335 0.0021479 -0.02646 0.06183 -0.043724 0.29694 
-0.046354 0.0042853 0.055089 0.0047785 0.082382 0.11214 0.1202 0.49128 
-0.15026 -0.066577 0.067913 0.055089 0.16607 0.28708 0.32144 0.53781 
-0.23707 -0.0011404 -0.0032777 0.12118 0.31848 0.46563 0.46366 -0.045368 
-0.28097 0.14469 -0.086636 0.18596 0.38244 0.34791 0.50361 -0.49504 
-0.2425 0.20701 -0.073318 0.171 0.26735 0.0074092 0.32736 -0.41809 
-0.18643 0.16475 -0.016595 0.051801 0.10277 -0.10752 0.0039565 -0.145 
-0.121 0.12431 0.09422 -0.025145 0.010369 -0.034516 -0.14911 0.095042 
-0.05178 0.046868 0.13647 -0.062138 -0.029584 0.052459 -0.31303 0.17314 
0.055089 -0.0026201 0.11806 -0.082361 -0.028762 0.17856 -0.39836 0.13286 
0.19122 -0.010841 0.12316 -0.042408 -0.019061 0.15555 -0.42829 -0.095678 
0.24564 -0.044381 0.097837 -0.03353 0.044731 0.11839 -0.22754 -0.17049 
0.23759 -0.038298 0.059693 0.0090533 0.10885 0.12727 -0.0057439 -0.069536 
0.10063 -0.01232 0.043087 0.017274 0.15423 0.37997 0.1659 0.043745 
-0.0011404 0.029769 0.061008 -0.00031829 0.14338 0.57086 0.26389 0.18563 
0.019905 0.025988 0.078436 0.022864 0.055418 0.43998 0.40611 0.30187 
0.16919 0.060186 0.059035 0.0026412 -0.065755 0.046704 0.3729 0.34577 
0.12612 0.10458 0.0227 0.032071 -0.12692 -0.29955 0.17001 0.33015 
-0.1644 0.10244 -0.018733 0.065283 -0.20781 -0.58185 0.0014903 0.20964 
-0.36778 0.066763 0.00297 0.056898 -0.30399 -0.65732 -0.0087034 -0.048163 
