0.087479 -0.057534 0.04095 0.030098 0.033715 0.014808 -0.03057 0.13532 
0.16377 -0.017582 0.063145 0.045553 0.075148 0.011848 -0.029255 0.03947 
0.17939 0.12924 0.051965 0.069393 0.090274 0.053938 -0.034352 -0.031557 
0.059035 0.17906 0.015959 0.079751 0.093891 0.08304 0.054432 -0.040106 
0.061172 0.095206 0.026974 0.09833 0.080738 0.061337 0.097508 -0.040764 
0.12825 0.0031344 0.072024 0.048841 0.068736 0.065612 0.089945 -0.0077169 
0.20405 -0.060987 0.12003 0.0090533 0.055582 0.012999 0.13615 0.031085 
0.20947 -0.09239 0.12036 -0.0029489 -0.015773 -0.020212 0.10836 0.053609 
0.11609 -0.073976 0.10293 -0.025967 -0.022021 -0.041751 0.1003 0.083697 
0.01711 -0.035338 0.0786 0.042923 -0.0014692 -0.016431 0.12201 0.094384 
-0.045532 0.024344 -0.0016336 0.029934 0.032893 -0.037147 0.10113 0.042758 
0.023028 0.10277 0.007738 0.057227 0.033551 -0.0029489 -0.0075525 -0.059672 
0.025166 0.076792 -0.0090322 0.055582 0.033551 0.035853 -0.048327 -0.082196 
0.015959 0.054432 -0.0095255 0.078765 0.049992 0.026974 0.0065871 -0.042573 
0.0042853 0.048348 0.024015 0.092247 0.033715 0.007738 0.074161 -0.00081153 
-0.015609 0.015137 0.031578 0.065447 0.042594 0.064461 0.09126 0.090274 
-0.051451 0.019905 0.036182 0.039141 0.042594 0.05213 0.084355 0.13483 
-0.030899 -0.0034422 0.07038 0.022864 0.031249 0.021384 -0.06296 0.14321 
0.051308 -0.023172 0.071695 0.0090533 0.027139 -0.004593 -0.25713 0.10343 
0.088958 0.016288 0.050157 0.026317 -0.0004827 -0.017088 -0.32356 0.01826 
0.081395 0.10293 0.012506 -0.0091966 -0.0016336 -0.016102 -0.13103 0.0051074 
0.073832 0.11954 -0.019061 0.027796 0.016781 0.013821 0.11181 -0.033201 
0.036675 0.10096 -0.04471 0.038977 0.023686 0.030263 0.21589 -0.030406 
-0.061316 0.10277 -0.064768 0.053116 0.0324 0.026974 0.22427 0.044238 
-0.13875 0.13582 -0.063946 0.08863 0.047855 0.037497 0.15719 0.082875 
-0.23609 0.13861 -0.021199 0.052952 0.063474 0.040292 0.071695 0.11921 
-0.18923 0.031414 0.049499 0.029276 0.05213 0.015137 0.0085601 0.10441 
0.097672 -0.12823 0.067913 0.0019835 0.004943 0.0046141 -0.032543 0.07038 
0.38655 -0.17739 0.040785 0.013328 -0.011827 0.033387 0.025166 -0.018404 
0.4653 -0.10867 0.016945 0.018754 -0.012485 0.019247 0.057391 -0.053424 
0.33295 -0.010183 0.013821 -0.0080457 0.0072447 0.016616 0.075312 -0.035996 
0.16623 0.029441 -0.001798 0.010369 -0.01939 0.025988 0.090438 -0.0096899 
-0.0031133 0.087972 -0.025145 -0.016431 0.0052718 0.013328 0.10491 0.01415 
-0.10752 0.12085 -0.029913 -0.0049219 0.023851 0.033058 0.052623 0.023357 
-0.18495 0.10195 -0.050793 0.027796 0.044073 0.068078 -0.0004827 0.037004 
-0.17953 0.048019 -0.054739 0.029934 0.044238 0.044238 -0.054739 0.064132 
-0.12198 0.050486 -0.044874 0.058049 0.046375 0.031249 -0.10012 0.051308 
-0.038462 0.053774 -0.049642 -0.0044286 -0.031886 0.017603 -0.10982 0.0324 
-0.0138 0.12398 -0.0072237 -0.008539 -0.0044286 -0.0083746 -0.065262 0.0227 
-0.024816 0.13664 -0.077264 0.037332 -0.014622 0.031249 0.045882 0.036839 
-0.024816 0.041443 -0.07414 0.026974 0.0324 0.049006 0.15374 0.080902 
0.010697 0.01711 -0.043066 0.058377 0.079094 0.069229 0.14765 0.025988 
0.05772 -0.014951 -0.0013048 -0.0029489 0.021713 0.021878 0.027632 -0.034188 
0.12529 -0.02498 0.061172 -0.046354 -0.018239 0.0085601 -0.045861 -0.097487 
0.13993 0.018754 0.07038 -0.023829 -0.015444 -0.0011404 -0.086964 -0.092719 
0.069558 0.066269 0.029441 0.00050378 -0.022021 -0.013307 -0.063124 -0.0072237 
0.0024767 0.090767 0.0036276 0.00297 -0.01117 0.0014903 -0.031392 0.051472 
-0.019226 0.085506 0.0034632 -0.019555 0.018589 0.016781 0.029934 0.082875 
-0.037311 0.10408 -0.010841 0.0047785 0.032564 0.02533 0.091589 0.093726 
-0.077264 0.11033 -0.052602 0.040785 0.054267 0.057555 0.099481 0.098494 
-0.074798 0.09981 -0.04882 0.057884 0.068736 0.099645 0.11658 0.083533 
-0.0024557 0.02122 -0.038627 0.073832 0.061995 0.086492 0.098659 0.061172 
0.07301 0.0421 0.019247 0.016945 0.022535 0.029441 0.068571 0.037168 
0.031742 0.064954 0.062981 0.0013258 0.02533 0.030427 0.14371 0.045553 
-0.096336 0.15324 0.043416 0.009711 0.021056 0.030427 0.22213 0.050157 
-0.20978 0.19764 0.022042 0.030756 0.037826 0.047362 0.17643 0.063145 
-0.23806 0.15111 0.05065 0.04654 0.051801 0.041607 0.073668 0.039141 
-0.13678 0.071695 0.061501 0.007738 0.035031 0.042923 0.040128 0.02829 
0.12727 -0.045696 0.095864 0.014479 0.035688 0.022864 0.044073 0.012342 
0.47878 -0.21718 0.11477 -0.010841 0.019905 0.011191 -0.013471 -0.049807 
0.56362 -0.27884 0.1465 -0.016266 0.0062583 0.0036276 -0.1427 -0.085978 
0.3484 -0.10571 0.12924 0.025495 0.00033937 -0.024816 -0.27637 -0.087622 
0.041114 0.10063 0.095042 0.019083 0.0095465 -0.012649 -0.34559 -0.037311 
-0.13316 0.23019 0.026481 0.085177 0.032564 0.030098 -0.24497 0.039141 
-0.18939 0.24663 -0.0042642 0.071531 0.047033 0.028947 0.016781 0.069229 
-0.20468 0.21572 0.038812 0.055911 0.050321 0.043087 0.29365 0.10589 
-0.13464 0.14667 0.087314 0.06183 0.03388 0.065283 0.36452 0.1026 
0.0013258 0.094548 0.10228 0.036675 0.048841 0.071202 0.30566 0.056076 
0.13943 -0.02087 0.11609 0.07449 0.0227 0.042429 0.16985 0.0092177 
0.15555 -0.1159 0.11773 0.026481 0.054432 0.052952 -0.014787 -0.015444 
0.062323 -0.092554 0.11625 -0.0052507 0.059857 0.01711 -0.19367 0.004943 
-0.029913 0.014808 0.12299 0.030592 0.042758 0.0037921 -0.18315 0.03799 
-0.061645 0.072681 0.086492 0.026481 0.053609 -0.0039354 0.099645 0.057391 
-0.079401 0.12053 0.043087 0.093398 0.0592 0.01152 0.30582 0.079094 
-0.082854 0.16146 0.017274 0.075641 0.0062583 0.031742 0.30582 0.078929 
-0.0049219 0.097015 0.038155 0.048513 0.01711 0.040292 0.15456 0.056898 
0.21572 -0.043888 0.089452 0.072188 0.0090533 0.033222 0.00099702 -0.0059084 
0.36665 -0.14287 0.1756 0.028125 0.01711 0.015301 -0.097322 -0.09387 
0.31437 -0.11113 0.20898 -0.035174 -0.018075 0.02122 -0.13941 -0.023007 
0.15883 -0.039778 0.18103 -0.027118 0.0080668 0.039141 -0.17969 0.0021479 
0.091753 -0.037969 0.09833 0.014643 0.051965 0.051308 -0.21948 0.10852 
0.098166 -0.012814 0.076627 0.079587 0.056404 0.041772 -0.087786 0.093398 
0.11592 0.034209 0.035524 0.1031 0.087314 0.033715 0.012013 0.0074092 
0.076299 0.080409 0.024508 0.089616 0.043745 0.021878 -0.014951 0.0041209 
0.078436 0.060844 0.037168 0.058871 0.025988 0.02533 0.037168 -0.018239 
0.041114 0.038977 0.032729 0.03388 0.0059294 0.033222 0.14864 0.014479 
-0.013965 0.095371 0.02681 0.0046141 0.019905 0.005765 0.20257 0.053116 
-0.084827 0.15012 0.027632 -0.0034422 0.009711 -0.069208 0.16821 0.1128 
-0.10423 0.17034 0.0052718 0.016781 0.023686 -0.12281 0.03092 0.21819 
-0.11393 0.16574 0.026152 0.013821 0.020069 -0.12988 -0.065755 0.20158 
-0.04471 0.096521 0.033715 0.058871 0.072517 -0.013636 -0.10653 0.11609 
0.066105 -0.078908 0.043909 0.043745 0.08304 0.062159 -0.12215 -0.0024557 
0.13894 -0.20764 0.088301 0.023686 0.039963 0.07301 -0.15552 -0.045532 
0.14535 -0.17904 0.10441 0.0056006 0.0060938 0.053116 -0.11903 -0.055068 
0.080738 -0.094692 0.090438 -0.019884 -0.0083746 0.040292 -0.016266 -0.083347 
0.01711 0.057391 0.012177 0.046211 0.01826 0.041443 0.023851 -0.11722 
-0.00015387 0.15324 -0.055561 0.046211 0.048677 0.028947 0.068407 -0.10784 
0.012835 0.14338 -0.045696 0.041772 0.047855 0.0014903 0.098494 -0.035667 
0.032893 0.1054 -0.012978 0.038977 0.035853 0.044073 0.12875 0.029276 
0.018589 0.082053 -0.018733 0.054925 0.021713 0.045882 0.097837 0.066434 
0.0037921 0.064954 -0.038298 0.071695 0.031414 0.044073 0.071531 0.11822 
-0.060494 0.10787 -0.019061 0.043745 0.018918 0.0324 0.0689 0.13269 
-0.071016 0.09274 -0.035832 -0.0091966 -0.0090322 -0.060658 -0.014458 0.11066 
-0.0965 0.018589 0.0044497 -0.026789 -0.02235 -0.12889 -0.079072 0.073832 
-0.12231 0.051636 0.011684 -0.037805 -0.013471 -0.080717 -0.080552 0.042265 
-0.14385 0.12217 -0.028433 0.015794 -0.0029489 -0.015444 -0.034516 0.061666 
0.017438 0.037826 -0.078579 0.062159 0.095371 0.065118 0.013328 0.071366 
0.24384 -0.0040998 -0.12692 0.10951 0.091753 0.13319 0.079258 0.024673 
0.32571 0.085012 -0.094363 0.08978 0.073339 0.07449 0.078272 -0.051122 
0.26028 0.095535 -0.00097594 -0.033365 0.0018191 0.0031344 -0.0057439 -0.10916 
0.15078 0.070708 0.078929 -0.060658 -0.050464 -0.057863 0.029276 -0.060987 
0.043251 0.065612 0.0093821 -0.075127 -0.048656 -0.034188 0.15012 -0.0062372 
-0.02235 0.063803 -0.032872 -0.0078813 -0.024487 -0.010841 0.21506 0.010697 
-0.044381 0.035524 -0.037311 0.0046141 -0.018897 -0.0060728 0.14321 0.04506 
-0.083676 0.022864 0.013657 -0.022679 -0.028926 0.017438 0.087479 0.036017 
-0.19515 0.05624 0.034866 0.02533 0.02122 0.049006 0.060515 0.066927 
-0.23132 0.047362 0.0092177 0.042429 0.079094 0.088958 0.037004 0.08156 
-0.066577 -0.05178 -0.0070593 0.080244 0.11362 0.1322 -0.041751 0.12612 
0.10737 -0.069043 -0.019884 0.065776 0.08978 0.10524 -0.15881 0.013328 
0.095699 0.041607 -0.019719 0.040292 0.05772 0.056898 -0.3275 0.010697 
0.051472 0.13516 -0.034681 0.046046 0.0013258 0.010533 -0.35989 -0.008539 
0.018589 0.2246 -0.050136 0.03536 -0.031886 -0.0078813 -0.15717 0.0098754 
0.028783 0.21802 -0.048656 0.019411 0.0069159 -0.010183 0.11526 -0.044381 
0.055747 0.17528 -0.0060728 -0.008539 0.007738 0.036839 0.31174 -0.034023 
0.014972 0.13105 -0.0095255 0.011684 0.045718 0.070051 0.29793 -0.016595 
-0.0019624 0.095042 -0.019061 0.039141 0.065283 0.10639 0.22542 0.015137 
0.11543 -0.044546 0.0028056 0.013328 0.040128 0.10984 0.15916 -0.0096899 
0.24055 -0.14467 0.057391 0.0018191 -0.0036066 0.042758 0.10951 0.024837 
0.20503 -0.14467 0.080244 -0.031721 -0.047341 -0.022679 0.053281 0.12924 
0.085177 -0.042737 0.075476 -0.024158 -0.028926 -0.013471 0.058213 0.1539 
0.028783 -0.01232 0.10376 -0.016924 -0.027447 -0.0047575 0.073668 0.06331 
0.049006 -0.035667 0.059857 -0.0044286 0.0051074 0.0054362 0.042265 -0.044546 
0.0090533 0.023851 0.011848 0.069886 0.074819 0.033715 0.04654 -0.010676 
-0.065755 0.14404 -0.057863 0.09981 0.082875 0.045224 0.038155 0.065118 
-0.14911 0.21227 -0.025474 0.088136 0.086985 0.067749 0.065447 0.087314 
-0.20288 0.16508 0.031085 0.048841 0.054596 0.068736 0.0087245 0.080902 
-0.10357 0.068078 0.11132 -0.0138 0.043745 0.098823 -0.0077169 0.018918 
0.12677 -0.023172 0.099316 0.032564 0.03651 0.10754 0.041443 0.00099702 
0.23693 -0.061316 0.056404 0.034044 0.050321 0.10589 0.12053 0.036346 
0.2075 -0.047834 0.054596 0.051801 0.039141 0.10754 0.095206 0.0095465 
0.20306 0.0095465 0.068407 0.04506 0.021056 0.051472 0.005765 -0.012978 
0.20043 0.010533 0.065447 0.01267 0.0079024 -0.042244 -0.086142 -0.074304 
0.13615 0.027796 0.052952 0.0093821 0.012506 -0.0503 -0.13497 -0.070852 
0.038319 0.090931 0.026152 0.0056006 0.0041209 -0.02087 -0.14434 -0.014458 
-0.076277 0.12858 -0.0031133 0.045553 0.010697 -0.0078813 -0.15783 0.018918 
-0.2277 0.19188 0.02122 0.033058 0.0016547 0.024508 -0.091239 0.051636 
-0.3298 0.25387 0.057391 0.0023123 0.012342 0.04506 0.031742 0.082053 
-0.31172 0.19336 -0.015116 0.076627 0.065447 0.072681 0.14486 0.15292 
-0.024487 -0.0027845 -0.056219 0.089616 0.11609 0.10688 0.24334 0.1881 
0.36435 -0.20847 0.04506 0.062159 0.090274 0.08419 0.26768 0.098988 
0.487 -0.255 0.12825 0.035195 0.054267 0.027796 0.18136 0.047362 
0.28182 -0.10867 0.12118 0.0026412 -0.0011404 -0.014951 0.10474 0.017274 
0.060844 0.040621 0.096028 0.024015 -0.020212 0.027796 0.092904 0.069558 
-0.076113 0.058213 0.047855 0.022864 0.020562 0.01152 0.0421 0.10474 
-0.15026 0.090438 0.011191 0.054596 0.030756 0.031742 -0.031228 0.068571 
-0.17328 0.15834 -0.0049219 0.040621 0.031414 0.042923 -0.14895 0.023851 
-0.11689 0.15522 0.016452 0.030098 0.039963 -0.00031829 -0.17065 -0.0039354 
-0.027447 0.086328 0.05065 0.059528 0.041114 -0.01939 -0.057205 0.011355 
0.068571 0.026317 0.074161 0.023028 0.027632 -0.025802 0.018918 0.030427 
0.090109 0.032071 0.051801 0.023851 -0.0011404 -0.054082 -0.0042642 0.0026412 
0.0079024 0.06183 0.051308 0.012177 0.0018191 -0.011827 0.016945 0.051801 
-0.038462 0.11148 0.049006 0.064132 0.02533 0.074819 0.09981 0.063474 
-0.071181 0.086163 0.050486 0.040128 0.0324 0.061337 0.20799 0.098494 
-0.063946 0.021056 0.010204 0.017767 0.019083 0.058377 0.2126 0.12118 
-0.08828 0.08419 0.013986 0.051965 0.041443 0.076134 0.16097 0.08978 
-0.050464 0.12118 -0.019226 0.055254 0.052787 0.062652 0.12973 0.066598 
-0.025967 0.10277 -0.0088678 0.055418 0.06594 0.047197 0.049499 0.015794 
0.0067515 0.068407 -0.015116 0.077121 0.066269 0.022371 0.15144 -0.018733 
0.022206 0.043251 0.016945 0.058542 0.035031 0.044238 0.15653 -0.0082102 
0.043909 -0.049642 0.051801 0.068407 0.0018191 0.0062583 0.038648 -0.022185 
0.13088 -0.037311 0.064461 0.025659 -0.0087034 -0.02498 -0.1062 -0.020048 
0.16722 0.048184 0.06479 0.00033937 -0.02646 -0.038298 -0.28344 -0.020541 
0.16163 0.066598 0.058049 -0.0059084 -0.028269 -0.064933 -0.4199 -0.027282 
0.10672 0.06479 0.072024 -0.022514 -0.048656 -0.10094 -0.53812 -0.083676 
-0.02498 0.08156 0.085177 0.0064227 -0.064933 -0.11475 -0.64712 -0.12133 
-0.13991 0.034373 0.082382 -0.0073881 -0.031064 -0.067892 -0.39425 -0.018733 
-0.051615 1.0539e-005 0.027139 0.030427 0.013164 0.025495 0.15489 0.10063 
0.089945 -0.025967 -0.016595 0.066763 0.049335 0.13039 0.58697 0.17478 
0.18925 -0.081703 0.02533 0.044402 0.039634 0.12365 0.60801 0.11313 
0.16459 -0.073318 0.10704 0.0092177 0.040128 0.051143 0.37142 0.015301 
0.087972 -0.0083746 0.12562 -0.018568 0.015137 0.028947 0.15078 -0.02942 
0.013986 0.025001 0.096193 0.00099702 0.02681 0.014643 0.041936 -0.023829 
0.0070803 -0.029913 0.048348 0.04095 0.06035 -0.0075525 0.0047785 0.010204 
0.045553 -0.00081153 0.014972 0.043909 0.087643 0.020398 0.0065871 0.053609 
0.024015 0.1054 -0.0011404 0.084026 0.10458 0.058049 0.020398 0.062323 
-0.0039354 0.16607 0.011191 0.042265 0.096193 0.050486 0.0421 0.06035 
-0.054904 0.14305 0.007738 0.023522 0.029441 0.023851 0.0039565 0.035688 
-0.066741 0.13976 0.0095465 0.030756 0.025988 0.028947 -0.029913 0.041278 
-0.03353 0.089616 0.029769 0.019247 0.09833 0.043745 0.037497 0.12053 
0.014315 0.021384 0.074654 0.041607 0.17067 0.067256 0.17528 0.10869 
0.051308 0.033715 0.08978 0.012506 0.16212 0.0786 0.17676 0.013821 
0.11066 -0.0016336 0.097015 0.02829 0.074819 0.048184 0.053938 -0.084334 
0.15341 -0.061973 0.10425 0.029769 -0.0024557 0.025495 -0.025474 -0.069208 
0.15292 -0.038133 0.071859 0.0070803 -0.066741 -0.029748 -0.11376 -0.046519 
0.11543 -0.05326 0.062817 0.01826 -0.084334 -0.13793 -0.25236 -0.072332 
0.013328 0.0059294 0.053116 -0.02498 -0.063289 -0.15109 -0.31254 -0.091732 
-0.16079 0.16114 0.035688 0.0098754 -0.016102 -0.049807 -0.20173 -0.071016 
-0.25319 0.21474 -0.039778 0.058213 0.044238 0.031085 -0.080552 0.013328 
-0.10587 0.15571 -0.10587 0.10293 0.062817 0.078272 0.056569 0.075312 
0.24153 -0.0075525 -0.01676 0.061501 0.059857 0.058213 0.19122 0.12135 
0.47073 -0.18874 0.12233 -0.0138 0.014808 0.059528 0.20717 0.14667 
0.37537 -0.20534 0.16081 0.021549 0.05624 0.057062 0.14782 0.17265 
0.14124 -0.10373 0.13236 0.032236 0.069722 0.078929 0.085341 0.11198 
0.040128 -0.024487 0.073175 0.037168 0.072681 0.094384 0.13187 0.025166 
-0.02646 0.083368 0.028125 0.054596 0.099481 0.079916 0.15292 -0.043066 
-0.092554 0.1567 -0.0083746 0.060515 0.067913 0.043087 0.1105 -0.0013048 
-0.17723 0.21835 -0.029255 0.079094 0.015465 0.03092 0.080738 0.0046141 
-0.20123 0.18267 -0.010841 0.042594 0.03092 0.025988 0.10556 0.031249 
-0.070194 0.095206 0.0088889 0.042265 0.031414 0.018425 0.078436 0.025166 
0.082382 0.018096 0.039799 0.032564 0.016452 -0.0032777 0.031414 0.029112 
0.13795 -0.02087 0.044567 0.013164 -0.0070593 -0.037969 -0.085978 0.022864 
0.12447 -0.040928 0.073832 0.017603 -0.010841 -0.041257 -0.22047 0.025824 
0.14979 0.0054362 0.10408 -0.027118 -0.0026201 -0.039284 -0.16851 0.042923 
0.12562 0.035853 0.062159 -0.018568 -0.011005 -0.040106 0.061666 0.054267 
0.046375 0.097672 -0.035832 0.038155 0.025824 0.014643 0.29431 0.086985 
-0.06148 0.16377 -0.071016 0.08008 0.058213 0.13121 0.34561 0.159 
-0.12034 0.15292 -0.080388 0.11428 0.072681 0.17215 0.23923 0.16278 
-0.11212 0.086657 -0.014622 0.067585 0.030592 0.098988 0.020398 0.14058 
-0.078744 1.0539e-005 0.06594 0.0080668 -0.015116 -0.0036066 -0.10472 0.094055 
0.015959 -0.073318 0.081395 -0.020377 -0.014458 0.0083956 -0.14944 0.017767 
0.057391 -0.010348 0.06594 -0.0083746 0.0098754 -0.01232 -0.10061 0.039799 
0.032071 0.047526 0.043251 0.026152 0.020398 -0.0062372 0.039634 0.049335 
0.062817 0.027303 0.050979 0.007738 0.018096 -0.0040998 0.090109 -0.029091 
0.13762 0.020398 -0.0075525 0.028619 -0.012485 -0.044217 0.017767 -0.17739 
0.147 0.14765 -0.039613 0.05624 -0.032708 -0.037969 -0.019061 -0.24825 
0.04506 0.14749 -0.051451 0.052787 -0.039449 0.019247 0.036675 -0.12692 
-0.1279 0.15341 -0.045861 0.068736 -0.020048 0.1248 0.014643 0.044402 
-0.25269 0.17314 -0.049642 0.028947 -0.028433 0.17758 -0.03501 0.16689 
-0.25911 0.18432 -0.035503 0.025659 -0.042079 0.15094 -0.080388 0.19303 
-0.097487 0.11033 -0.025145 0.02829 -0.044217 0.075641 -0.064111 0.15982 
0.1562 -0.040435 0.0074092 0.018589 -0.0034422 0.034044 -0.079072 0.10606 
0.41927 -0.2083 0.1031 0.028947 -0.03912 -0.029255 -0.06707 -0.032872 
0.45922 -0.23921 0.17906 -0.030406 -0.07562 -0.11935 -0.012649 -0.10275 
0.26044 -0.091239 0.13615 0.0011614 -0.11787 -0.22606 0.051965 -0.081539 
0.086163 -0.047176 0.072846 -0.04619 -0.133 -0.22836 0.082217 -0.014622 
-0.0082102 -0.086964 0.060022 -0.027611 -0.11376 -0.084827 0.10047 0.031742 
-0.028433 -0.041751 0.02681 0.014315 -0.047012 0.06035 0.093233 0.0085601 
0.030263 0.054432 0.044402 0.00099702 0.0088889 0.21408 0.053609 -0.029255 
0.089287 0.11526 -0.0073881 0.082382 0.10787 0.26011 0.042429 -0.063618 
0.042429 0.17199 -0.037476 0.085999 0.13828 0.22871 0.027468 -0.079401 
-0.030899 0.16886 -0.05737 0.083862 0.11378 0.096028 0.027632 -0.02498 
-0.12314 0.12612 -0.029091 0.088794 0.026152 -0.05441 -0.0011404 -0.041093 
-0.11212 0.095042 0.047855 -0.0054151 -0.046354 -0.13711 -0.029584 0.013328 
-0.099131 0.09274 0.055582 -0.019061 -0.06707 -0.15552 0.063803 0.033715 
-0.059507 0.066434 0.044896 -0.020706 -0.054082 -0.077593 0.095206 0.037004 
-0.034023 0.088136 0.023028 0.00033937 0.087314 -0.021692 0.083697 0.035524 
-0.013307 0.085999 -0.0042642 0.021384 0.18596 0.023522 0.064296 -0.010183 
0.0014903 0.098659 -0.0034422 0.0056006 0.16804 0.058049 0.086985 0.021713 
0.041772 0.049499 -0.0077169 0.048184 0.094548 0.030263 0.071202 0.079258 
0.10425 0.018589 -0.0049219 0.030098 0.068078 0.02681 0.03388 0.11757 
0.13088 0.021384 -0.0039354 0.03799 0.082382 0.049992 -0.020541 0.11411 
0.12447 -0.024323 0.022371 0.036182 0.091096 0.072517 0.057555 0.032236 
0.082546 -0.053917 0.04095 -0.012978 0.029441 0.037004 0.023686 -0.026131 
-0.030735 0.022535 0.042594 0.037168 -0.04471 -0.061151 -0.034188 -0.035503 
-0.18611 0.074326 0.063474 0.026974 -0.0090322 -0.081045 -0.073154 -0.056219 
-0.32553 0.14075 -0.0014692 0.03388 0.057555 -0.048492 -0.074469 0.03799 
-0.27061 0.14502 -0.043724 0.059528 0.12365 0.04654 -0.039284 0.074654 
0.094384 0.0072447 -0.0060728 0.0087245 0.12349 0.13319 -0.017911 0.050979 
0.45215 -0.10521 0.070051 -0.016431 0.084519 0.084848 0.0095465 -0.060823 
0.48816 -0.041093 0.13138 -0.055397 0.073668 0.034702 0.080409 -0.10357 
0.32785 -0.0013048 0.098166 -0.0014692 0.14124 0.090603 0.13664 -0.061151 
0.12447 0.02122 0.016452 0.051801 0.18974 0.019576 0.14404 0.0072447 
0.04506 0.042429 -0.033859 0.077121 0.2052 -0.044217 0.18859 0.069064 
0.029276 0.041114 -0.033859 0.095535 0.12513 -0.057699 0.19402 0.095535 
0.086985 0.042758 0.024837 -0.0014692 -0.001798 -0.11705 0.07449 0.04917 
0.089287 0.054267 0.022535 -0.036983 -0.096172 -0.11903 0.0052718 0.046046 
-0.05326 0.10721 0.004943 -0.040764 -0.069208 -0.048163 -0.024323 0.078107 
-0.20057 0.16426 -0.033694 -0.01676 -0.034516 0.12924 -0.014622 0.11115 
-0.27588 0.22033 -0.01939 0.03388 -0.010676 0.23627 -0.042737 0.11115 
-0.2448 0.17018 -0.02942 0.037168 0.027796 0.20125 -0.0019624 0.10606 
-0.11311 0.034373 -0.0024557 0.03536 0.078929 0.14141 0.074654 0.11921 
0.035524 -0.041915 0.075476 -0.013636 0.092904 0.07597 0.068736 0.06035 
0.10524 -0.020377 0.07301 0.0051074 0.12381 0.019576 0.032564 0.039963 
0.11526 -0.0040998 0.044238 0.031249 0.18333 0.0082312 -0.020048 -0.012156 
0.088465 0.046375 0.01711 0.051801 0.2366 -0.0022913 -0.040435 -0.013636 
0.026646 0.093233 -0.022185 0.063803 0.23742 -0.016266 0.0098754 0.0032988 
-0.042244 0.14338 -0.024323 0.0062583 0.20257 0.0013258 0.020727 -0.0022913 
-0.13349 0.21408 -0.032215 0.009711 0.14733 0.0039565 -0.035174 0.059035 
-0.15224 0.25288 -0.082361 0.057555 0.14354 0.071366 0.029769 0.14174 
-0.10587 0.2297 -0.085485 0.08156 0.16722 0.15851 0.25008 0.18909 
-0.0091966 0.10819 -0.065426 0.10836 0.072517 0.12414 0.37274 0.16936 
0.1322 -0.058685 0.041278 0.0083956 -0.1279 0.025988 0.30434 0.030592 
0.1955 -0.14188 0.12036 -0.059672 -0.20847 -0.044546 0.048184 -0.015609 
0.14683 -0.10225 0.13302 -0.07825 -0.18282 -0.039284 -0.29577 -0.043066 
0.20273 -0.0868 0.12332 -0.070523 -0.17805 -0.0049219 -0.51576 -0.047998 
0.30697 -0.040271 0.10392 -0.011827 -0.14089 0.034044 -0.42845 -0.028269 
0.26307 0.057391 0.035688 0.013821 -0.071181 0.089287 -0.13596 -0.014458 
0.079916 0.11674 0.00050378 0.05476 0.00033937 0.18235 -0.076771 0.010697 
-0.10209 0.066105 0.014315 0.03536 0.023357 0.21753 -0.15076 0.06331 
-0.15487 0.037332 0.048677 0.013986 0.039963 0.1756 0.052294 0.12069 
-0.082361 0.06479 0.03651 0.040785 0.067913 0.087972 0.2297 0.11905 
-0.028433 0.12825 0.041443 0.018096 0.040292 -0.004593 0.21326 0.027796 
0.014808 0.097015 0.06479 0.012013 -0.0067304 -0.044217 0.060844 -0.069865 
0.063968 0.028783 0.060186 0.060844 0.015301 -0.033201 0.061337 -0.12198 
0.030098 0.075805 0.02681 0.10096 0.07038 -0.012649 0.13351 -0.062138 
-0.076277 0.14502 -0.021034 0.13795 0.05065 -0.022679 0.11905 -0.015116 
-0.16506 0.2121 -0.052766 0.062981 -0.0067304 -0.079401 0.034702 -0.017911 
-0.12396 0.20405 -0.017746 0.040785 -0.02498 -0.10554 0.0082312 0.014315 
0.12743 0.025166 0.033715 -0.0055795 -0.04471 -0.0082102 0.11115 0.014972 
0.37866 -0.2106 0.14601 -0.039778 -0.080388 0.059693 0.090109 0.016616 
0.40677 -0.26453 0.17495 -0.022021 -0.10258 0.067913 0.024837 0.049006 
0.23397 -0.12363 0.12464 0.0067515 -0.10604 0.026317 0.012835 0.078107 
0.030098 0.080738 0.059857 0.038483 -0.092554 -0.06148 -0.062467 0.092411 
-0.10867 0.18235 0.038977 0.060844 -0.06707 -0.11508 -0.2813 0.10573 
-0.17164 0.14157 0.042429 0.065283 -0.0040998 -0.01528 -0.31977 0.11083 
-0.14484 0.066927 0.044896 0.10129 0.00033937 0.17363 -0.097158 0.086492 
-0.037805 0.012999 0.02533 0.08863 -0.014951 0.18547 0.041443 0.013492 
0.17544 -0.097816 0.05772 0.073668 -0.034681 0.12562 0.099645 -0.037969 
0.29382 -0.1182 0.098988 0.053445 -0.049149 0.039141 0.1179 -0.085813 
0.23907 0.0083956 0.1197 0.028125 -0.065591 -0.05885 0.12233 -0.078415 
0.093562 0.055418 0.083204 0.040785 -0.078086 -0.12609 0.11872 -0.052931 
-0.010841 0.047033 0.080244 0.022864 -0.048492 -0.15092 0.10211 -0.017088 
-0.039449 0.048348 0.064954 0.052623 0.0090533 -0.13004 0.10425 0.0065871 
0.0014903 0.035031 0.081395 0.019905 0.065612 -0.09387 0.18317 -0.016924 
0.012999 0.050157 0.056898 0.049499 0.14568 -0.05737 0.22592 -0.025145 
0.031414 0.071695 0.067749 0.070215 0.17462 -0.073811 0.21802 -0.025638 
0.028454 0.025166 0.085012 0.040128 0.15292 -0.05737 0.19435 -0.040271 
0.024344 0.023522 0.058871 0.097179 0.099316 -0.02498 0.24055 -0.0090322 
-0.02498 0.028619 0.038319 0.08156 0.055089 0.032893 0.22723 0.039799 
-0.024816 0.054925 0.01974 0.081889 -0.051451 -0.004593 0.1077 0.061995 
-0.085813 0.069229 0.014808 0.060679 -0.098802 0.054596 -0.17295 0.029441 
-0.23444 0.14634 0.02533 0.059693 -0.055726 0.071202 -0.43799 0.012506 
-0.36976 0.147 0.046868 0.081724 0.0062583 0.091589 -0.44621 0.071037 
-0.26338 0.025001 0.070873 0.058377 -0.001798 0.087479 -0.25565 0.07038 
0.19435 -0.17772 0.11362 0.048677 0.016288 0.058706 -0.084334 0.013492 
0.59157 -0.25204 0.17626 0.039305 -0.0062372 -0.025802 -0.038791 -0.044381 
0.63366 -0.16621 0.1807 -0.0070593 -0.057041 -0.11919 -0.033694 -0.085485 
0.29546 -0.022514 0.089452 0.012835 -0.042244 -0.093541 0.046211 -0.003771 
-0.047176 0.07597 0.02122 0.033058 0.022206 -0.062796 0.13138 0.085835 
-0.093212 -0.063289 0.043745 0.024837 0.087479 -0.0067304 0.23792 0.11543 
0.0021479 -0.091897 0.086657 0.05476 0.17577 0.041772 0.29924 0.1784 
0.067091 0.0034632 0.057062 0.059364 0.19764 0.098494 0.32802 0.23759 
0.019411 0.077285 0.024344 0.073832 0.19287 0.076956 0.30138 0.29678 
-0.13103 0.16015 -0.010676 0.050814 0.14913 0.069229 0.18892 0.21556 
-0.25154 0.22493 -0.043395 0.060022 0.092411 0.063145 0.088136 0.064296 
-0.2402 0.18087 -0.0059084 0.0689 0.032729 0.025824 0.016781 -0.065097 
-0.11409 0.055582 0.017767 0.029441 -0.014787 -0.0077169 -0.01676 -0.12396 
0.030592 0.0088889 0.021878 0.030427 0.007738 0.013657 0.0054362 -0.041257 
0.10639 0.014808 0.049664 -0.00015387 0.036346 0.034702 0.011684 1.0539e-005 
0.1516 1.0539e-005 0.086163 -0.010019 0.059035 0.032071 -0.078415 -0.011005 
0.13713 -0.036325 0.096193 -0.018239 0.10195 0.075476 -0.12642 -0.028762 
0.10556 -0.073318 0.056076 0.018425 0.14141 0.072353 -0.12429 -0.033365 
0.1174 -0.14254 0.030098 0.055747 0.13713 0.093398 -0.092719 -0.053095 
0.13467 -0.088115 0.027632 0.033715 0.076627 0.10047 -0.079072 -0.070194 
0.085999 0.038319 0.014315 0.045553 0.030263 0.0592 0.00083261 -0.014293 
-0.011663 0.095371 0.0046141 0.015137 0.013164 0.024673 0.080409 0.05772 
-0.096665 0.14321 0.010533 0.011355 -0.029584 0.043745 0.12431 0.12891 
-0.1501 0.1202 0.016616 0.015959 -0.021856 0.043416 0.069722 0.18498 
-0.12823 0.056569 0.0031344 0.012013 0.0093821 0.043745 -0.014129 0.17232 
-0.06707 0.023522 -0.0080457 0.03092 0.048184 0.033222 -0.074962 0.087314 
0.023851 0.07449 -0.021856 -0.0014692 0.041936 0.052787 -0.20584 0.018096 
0.025001 0.11313 -0.019061 -0.00064712 0.046211 0.047362 -0.20123 -0.040106 
-0.035832 0.091589 -0.016924 0.020891 0.061501 0.029276 -0.022679 0.0079024 
-0.096665 0.093562 -0.01117 0.023522 0.056733 0.091096 0.21391 0.090931 
0.02122 -0.0070593 -0.0064016 0.041936 0.032893 0.094713 0.33706 0.093891 
0.20306 -0.076113 0.020727 -0.0013048 0.0070803 0.073997 0.28691 0.067749 
0.22789 -0.012978 0.043909 -0.01939 -0.014293 0.062652 0.10704 -0.031064 
0.084848 0.086492 0.012342 0.0079024 -0.04471 0.050321 0.024508 -0.018404 
-0.030406 0.13368 0.005765 -0.0036066 0.0085601 0.04917 -0.05178 0.084519 
-0.030899 0.092082 -0.025309 0.06035 0.067256 0.093069 -0.0098543 0.14667 
0.029605 0.0592 -0.041257 0.038812 0.05476 0.062981 0.0039565 0.13943 
0.084848 0.098001 -0.056548 0.064625 0.050321 0.072024 -0.02087 0.024344 
-0.021692 0.18613 -0.05326 0.026152 0.010862 0.048841 -0.0082102 -0.035503 
-0.10719 0.18366 -0.021363 -0.05441 -0.0057439 0.041772 0.029276 -0.03912 
-0.099953 0.069558 0.023357 0.017767 -0.0049219 0.0092177 0.058542 -0.056055 
-0.027775 -0.032872 0.028783 0.00099702 0.02829 0.00099702 0.049664 -0.025802 
1.0539e-005 0.033058 0.016452 0.031249 0.12546 0.041936 0.031414 -0.0054151 
0.024015 0.017767 0.020233 0.027796 0.083697 0.032071 0.090274 0.018589 
0.10178 0.00099702 -0.010019 0.027632 0.020727 0.0047785 0.19484 0.016123 
0.16114 0.042923 -0.010841 0.053445 -0.0406 0.011848 0.27409 0.023357 
0.14157 0.079094 -0.010676 -0.0070593 -0.075949 -0.0082102 0.24285 0.013492 
0.067091 0.11477 0.005765 -0.018897 -0.073154 -0.017253 0.14782 -0.011005 
-0.02646 0.15801 -0.01528 0.012835 -0.043395 0.018425 0.050321 0.043416 
-0.1381 0.19106 -0.049971 0.027632 -0.020212 1.0539e-005 -0.043395 0.098659 
-0.20074 0.25321 -0.057205 0.057062 0.0037921 -0.031392 -0.10817 0.11362 
-0.13481 0.16673 0.009711 0.01974 0.01563 -0.038791 -0.25565 0.091425 
-0.028762 -0.039284 0.097015 -0.010348 0.016945 -0.052273 -0.26749 0.020727 
0.12595 -0.11015 0.1294 -0.032543 -0.0068948 -0.046354 -0.048163 0.00083261 
0.18876 -0.071345 0.055089 -0.0029489 0.030263 0.0042853 0.1396 -0.089924 
0.20438 -0.037805 0.0032988 0.028947 0.017767 0.030592 0.13532 -0.19992 
0.22575 -0.0042642 0.021549 -0.0036066 0.0031344 0.039634 0.13335 -0.19646 
0.18744 0.014643 0.0016547 -0.0029489 0.014972 0.020069 0.20684 -0.13448 
0.021549 0.080573 0.015794 0.01267 0.072846 0.034702 0.23216 0.015959 
-0.17197 0.183 -0.0070593 0.0421 0.10902 0.049664 0.12513 0.11181 
-0.22474 0.24811 0.0013258 0.066598 0.087972 0.067256 0.073832 0.1368 
-0.13514 0.2001 0.0079024 0.044238 0.061666 0.094384 0.23693 0.159 
-0.0070593 0.021878 0.023686 0.04506 0.052294 0.064461 0.29809 0.14601 
0.18235 -0.13711 0.069886 0.024837 0.0060938 -0.031064 0.043251 0.094877 
0.42979 -0.15848 0.13154 -0.034516 -0.022514 -0.13826 -0.35693 -0.040928 
0.4607 -0.07973 0.13302 -0.052602 -0.038956 -0.19186 -0.59023 -0.072003 
0.29365 0.039141 0.08008 -0.052437 -0.017746 -0.15076 -0.45969 -0.039778 
0.051801 0.13384 0.019576 -0.0032777 0.011026 -0.055068 -0.25088 0.004943 
-0.047998 0.11822 0.0014903 -0.0067304 0.034866 -0.0095255 -0.25532 0.031578 
-0.11689 0.082382 0.013328 -0.00097594 0.02681 0.016616 -0.23707 0.009711 
-0.10439 0.099645 0.036182 -0.0019624 0.046211 0.046868 -0.0062372 0.02533 
-0.060494 0.046211 0.080738 -0.0072237 0.041443 0.064954 0.22131 0.031578 
-0.013143 0.037004 0.056898 0.064132 0.090931 0.084026 0.34791 0.018096 
0.0080668 0.087479 0.027632 0.049664 0.10343 0.10902 0.3101 -0.011992 
0.0095465 0.070215 -0.0052507 0.040785 0.10869 0.084684 0.13779 -0.031392 
0.030756 0.044567 0.016945 0.019576 0.071037 0.023357 -0.03616 -0.02235 
-0.009361 0.018096 0.067585 -0.0019624 0.052787 0.0042853 -0.079401 0.045553 
0.011848 -0.0067304 0.063639 0.042265 0.047691 0.043087 -0.069865 0.049499 
0.11642 -0.045532 0.038483 0.045882 0.058706 0.020233 -0.080552 -0.0049219 
0.24055 -0.043724 0.043416 0.0047785 0.046211 0.014808 -0.098802 -0.09387 
0.23792 -0.023336 0.05624 0.0026412 0.02533 -0.0055795 -0.04882 -0.025309 
0.13417 0.057062 0.051308 -0.021856 0.0031344 -0.0072237 -0.029255 0.06331 
0.071037 0.088794 0.065612 1.0539e-005 0.0042853 -0.030406 -0.04323 0.039963 
-0.027282 0.097344 0.085177 -0.032379 0.0082312 -0.028597 -0.049314 0.043251 
-0.12198 0.12858 0.048677 -0.0059084 0.0019835 -0.014458 -0.038133 0.057062 
-0.18791 0.1174 -0.019555 0.062323 0.064461 0.025495 -0.026131 0.10737 
-0.16654 0.12201 -0.056383 0.099974 0.096686 0.099152 0.00050378 0.13845 
-0.1256 0.079916 -0.042737 0.1026 0.085341 0.096193 0.014643 0.08008 
-0.058685 0.093562 0.030756 0.045224 0.03092 0.038155 -0.03057 0.066105 
-0.025967 0.071366 0.071531 0.030427 0.026152 0.040785 -0.022021 0.064296 
0.08715 -0.092226 0.11313 -0.0138 0.026317 0.052459 0.010204 0.044567 
0.21654 -0.10242 0.14864 -0.014787 0.013986 0.040621 0.037168 0.015794 
0.244 0.010697 0.10556 0.016452 0.023357 0.042594 -0.033694 0.0011614 
0.18761 0.054267 0.04654 0.028947 0.034209 0.069558 -0.059836 0.038812 
0.085999 0.077285 0.0019835 0.093726 0.048513 0.059857 -0.0047575 0.043909 
0.019083 0.14157 -0.0082102 0.088301 0.06479 0.073504 0.028454 0.043416 
-0.025638 0.13368 -0.030077 0.049335 0.03651 0.06035 0.013657 0.050321 
-0.05885 0.12349 -0.017088 0.051801 0.049828 0.030592 0.031085 0.041278 
-0.064111 0.074983 0.010697 0.039799 0.024015 0.029441 0.10737 0.067091 
-0.045039 0.031085 0.039963 0.04917 0.01267 0.027303 0.1881 0.060679 
-0.070687 0.010862 0.024179 0.033222 -0.0039354 0.040292 0.25946 0.090767 
-0.061316 0.04506 0.020891 0.05476 0.023028 0.021713 0.35794 0.081395 
-0.045861 0.031907 0.031249 0.052459 0.014479 0.072188 0.48043 0.070873 
0.014972 0.041772 0.018754 0.056076 0.029605 0.064954 0.43094 0.1197 
0.0070803 0.039305 0.018096 0.094384 0.039305 0.071859 0.32703 0.13269 
-0.026296 0.09422 0.013821 0.073997 0.053281 0.068736 0.2172 0.13894 
-0.0406 0.088301 -0.0034422 0.058871 0.051308 0.058871 0.04917 0.15341 
-0.049478 0.1008 0.0016547 0.076792 0.039634 0.029276 -0.12379 0.07038 
-0.010512 0.082711 0.0069159 0.07597 0.0046141 -0.022021 -0.093376 -0.046354 
0.013821 0.03799 0.0090533 0.082053 0.0062583 0.014479 0.018096 -0.11343 
0.050157 0.043909 0.012013 0.020069 -0.023829 -0.0055795 0.04358 -0.041422 
0.057884 0.079751 0.0324 0.031085 -0.02646 -0.006566 -0.15733 0.027468 
0.061666 0.049006 0.040621 0.049335 -0.011498 -0.0049219 -0.35151 0.032893 
0.045553 -0.027611 0.05213 0.04506 0.025495 0.026974 -0.30054 0.026646 
0.058542 -0.0016336 0.021878 0.099974 0.062159 0.051636 -0.065591 -0.014622 
0.082546 -0.0039354 0.024837 0.11148 0.092247 0.11313 0.28987 0.0056006 
0.073997 -0.0072237 -0.042901 0.11855 0.05065 0.076792 0.52811 0.084848 
-0.0031133 0.10885 -0.039449 0.094055 0.013164 0.0092177 0.30993 0.12266 
-0.091075 0.1276 0.013164 0.048184 -0.024652 -0.017417 0.077285 0.16081 
-0.02942 0.004943 0.097015 0.03536 -0.015116 -0.012156 0.05065 0.093562 
0.0065871 -0.035174 0.11625 0.023028 0.012177 0.0062583 0.077778 0.015794 
0.044567 -0.0075525 0.094713 0.017438 0.017274 -0.0011404 0.0013258 -0.011827 
0.097508 -0.023665 0.066105 0.036017 0.055254 0.014643 -0.034681 -0.049807 
0.14206 -0.084498 0.048677 0.063968 0.038483 -0.0072237 -0.019226 -0.018404 
0.14585 -0.069865 0.068571 0.095699 -0.0068948 1.0539e-005 0.12875 0.024673 
0.15522 0.010204 0.053774 0.048677 -0.0054151 0.022864 0.18218 0.033387 
0.1544 0.084519 0.0090533 0.050157 0.020891 0.050321 0.1442 0.038155 
0.080738 0.068078 -0.004593 0.034373 0.01004 0.028619 0.06035 -0.0019624 
0.041936 0.014972 0.036017 0.012342 -0.004593 0.0056006 -0.060165 -0.00097594 
0.0080668 0.020069 0.046868 0.0088889 -0.0016336 -0.030406 -0.11212 -0.020706 
-0.048985 0.1003 0.017932 0.011848 0.016945 -0.030406 -0.1011 -0.0032777 
-0.050793 0.1003 -0.016595 0.048348 0.019083 0.023522 -0.023665 0.014315 
-0.006566 0.042594 -0.0068948 0.045882 0.017274 0.03651 0.043909 0.044402 
0.0227 0.010369 0.042429 0.056076 0.058706 0.059364 0.073832 0.097508 
0.014972 0.0037921 0.053116 0.079751 0.0592 0.0592 0.090438 0.074326 
0.033222 0.011848 0.066105 0.04506 0.056404 0.04917 0.038977 -0.0040998 
0.071531 0.037004 0.041278 0.040621 0.037661 0.019247 -0.047669 -0.077922 
0.09422 -0.012485 0.029934 -0.010676 0.0036276 -0.023172 -0.13316 -0.11491 
0.019576 0.0227 0.040621 -0.016266 -0.0095255 -0.048656 -0.16144 -0.082854 
-0.12116 0.15193 0.037497 -0.010183 -0.014951 -0.05589 -0.14073 -0.023829 
-0.11935 0.16114 0.0014903 0.021384 0.027468 1.0539e-005 -0.089102 0.044731 
0.10113 -0.042573 0.026317 0.047362 0.032893 0.03651 -0.024323 0.061995 
0.27343 -0.133 0.08567 -0.021528 0.0052718 0.020727 0.067585 0.0069159 
0.22953 -0.094527 0.11773 -0.035996 -0.022843 -0.050958 0.0044497 -0.016102 
0.053609 0.03388 0.079916 0.0085601 0.010697 -0.11672 -0.086307 -0.045203 
-0.1108 0.20092 0.025988 0.044402 0.027632 -0.0771 -0.071674 -0.040928 
-0.17361 0.171 -0.014458 0.073997 0.051636 0.0039565 0.030427 0.040621 
-0.11212 0.041443 0.027796 0.037332 0.049992 0.090931 0.095371 0.12201 
0.042265 -0.030077 0.053938 0.0028056 0.045224 0.086985 0.14404 0.159 
0.19879 -0.049642 0.092904 -0.029584 -0.0062372 0.051801 0.18037 0.10343 
0.19649 0.015794 0.054267 -0.040928 -0.0075525 0.034044 0.18695 0.0039565 
0.049664 0.15242 0.0023123 0.027796 0.029276 -0.008539 0.14963 -0.051287 
-0.021692 0.15883 0.023522 -0.031064 0.024673 -0.036325 0.075805 -0.12478 
0.009711 0.014808 0.072517 -0.059014 0.076627 0.0036276 0.037826 -0.1547 
0.08863 -0.085813 0.089452 -0.03057 0.0093821 0.02533 -0.12248 -0.10982 
0.15489 -0.064604 0.086492 -0.064768 -0.031228 -0.011827 -0.12659 0.0092177 
0.13138 -0.013471 0.043416 -0.011498 -0.0026201 0.024015 -0.074469 0.064625 
0.036182 0.051801 -0.025309 0.0092177 -0.0026201 0.024508 -0.15996 0.066598 
-0.019061 0.058213 -0.029913 0.011026 0.022042 0.01152 -0.24349 0.17856 
0.063145 0.0028056 -0.021199 0.007738 0.033058 -0.0095255 -0.085978 0.21621 
0.080244 -0.024323 0.030263 -0.014787 0.029276 0.04654 0.090438 0.14585 
0.077778 0.011355 0.066763 0.00083261 0.032071 0.06742 0.092904 0.062981 
0.010697 0.025659 0.055747 -0.016102 0.0421 0.068736 0.014643 0.0026412 
-0.055068 0.094055 0.01152 0.011191 0.057062 0.067256 -0.063618 0.034373 
-0.109 0.19681 -0.016266 0.023028 0.064296 0.039141 -0.026624 0.035195 
-0.07266 0.1738 -0.013143 0.031907 0.077121 0.042758 -0.0060728 -0.0083746 
0.034373 0.086821 0.010697 0.019247 0.039634 0.031085 0.024508 -0.056548 
0.059528 0.037661 0.0074092 -0.011992 0.013164 -0.0004827 0.050979 -0.093705 
0.074819 0.020562 0.016781 -0.0073881 -0.0083746 -0.0075525 0.036839 -0.10373 
0.019247 0.070708 0.0014903 0.013821 0.0067515 0.014972 0.052623 -0.059507 
-0.038462 0.12447 -0.042737 0.053116 -0.010183 0.031414 0.080573 0.015465 
-0.022514 0.10819 -0.048492 0.010204 -0.00015387 0.004943 0.12069 0.044567 
0.035195 0.071202 -0.035174 -0.026789 0.0070803 0.016288 0.12233 0.0592 
0.015794 0.079916 0.0060938 0.013492 -0.0064016 0.021549 0.083533 0.063639 
-0.01939 0.13368 0.027961 -0.012485 0.0074092 0.031578 0.01826 0.042923 
-0.13925 0.21013 0.032564 -0.01676 0.020233 0.051472 -0.024158 0.071531 
-0.13053 0.095206 0.071695 -0.0052507 0.0421 0.07449 -0.051122 0.12973 
0.056733 -0.15832 0.088136 0.021384 0.096521 0.11839 -0.011827 0.12151 
0.26817 -0.27456 0.043416 0.068571 0.10935 0.13368 0.031249 0.085341 
0.32604 -0.19646 0.034537 0.064954 0.084026 0.10129 0.041278 -0.0047575 
0.27261 0.005765 -0.0029489 0.030263 0.048677 0.021056 0.0095465 -0.043559 
0.17626 0.11231 -0.029584 0.033222 0.011355 -0.011498 -0.020541 -0.05885 
0.11296 0.14519 -0.0098543 0.017274 0.0016547 -0.014129 0.0019835 -0.017582 
0.016452 0.14716 0.012013 0.03799 0.020398 -0.017417 -0.0090322 0.054267 
-0.092719 0.15292 0.0082312 0.017438 0.041278 0.00050378 -0.037805 0.093726 
-0.16654 0.11444 0.012999 0.02122 0.023851 0.035031 -0.1478 0.095206 
-0.17345 0.11296 0.016288 0.028783 -0.0091966 0.042265 -0.23576 0.08715 
-0.16473 0.10967 0.024837 0.020727 0.012013 0.025166 -0.109 0.047033 
-0.13843 0.13927 0.0087245 0.05624 0.0082312 0.047691 0.13006 0.039963 
-0.10521 0.15193 -0.021363 0.045882 0.032071 0.077449 0.40085 0.023193 
-0.023172 0.10343 -0.013636 0.064296 0.084684 0.11181 0.59207 0.0592 
0.13516 0.029112 0.0019835 0.059693 0.07597 0.10655 0.54208 0.0034632 
0.21161 -0.0138 0.046868 0.039799 0.059693 0.11378 0.29908 -0.096994 
0.20273 -0.032543 0.049335 0.051472 0.019576 0.0080668 0.066763 -0.057534 
0.15867 -0.044217 0.084848 0.0095465 -0.040928 -0.026953 -0.045368 -0.087129 
0.13401 -0.11228 0.11806 -0.018075 -0.020541 -0.036983 -0.11409 -0.065591 
0.071037 -0.054246 0.090767 0.026974 0.02681 -0.041257 -0.30744 -0.019226 
0.025166 0.009711 0.039963 0.071695 0.050814 -0.010512 -0.48978 0.057555 
-0.031392 0.091753 0.018918 0.1077 0.040292 0.043416 -0.32898 0.12908 
-0.098967 0.14338 0.0013258 0.06479 0.028783 0.024837 0.018589 0.18399 
-0.16095 0.16738 -0.0075525 0.079587 0.049499 0.0689 0.22098 0.1516 
-0.1718 0.17051 -0.034681 0.088301 0.049335 0.090438 0.24449 0.14091 
-0.062796 0.10672 0.00033937 0.076627 0.03092 0.051965 0.23249 0.047855 
0.088136 0.0059294 0.032564 0.055747 0.0041209 -0.0021268 0.20208 -0.0013048 
0.077778 0.028619 0.042758 0.01974 0.0018191 0.020398 0.1909 -0.0073881 
0.0041209 0.064296 0.060844 0.048677 0.025824 0.029769 0.19007 0.011026 
0.057227 -0.037805 0.09126 0.044896 0.016452 -0.0011404 0.20125 -0.0098543 
0.12694 -0.15273 0.090767 0.053445 0.055089 0.016781 0.099974 -0.10637 
0.12299 -0.075784 0.034537 0.085177 0.053609 0.01563 0.069558 -0.13514 
0.097508 -0.00097594 0.063474 0.04654 0.039963 0.0064227 0.022042 -0.084991 
0.012177 0.059035 0.096193 0.026152 0.034209 -0.014951 -0.06148 0.030098 
-0.09239 0.13779 0.065612 -0.0044286 0.011026 -0.027775 -0.18331 0.12825 
-0.022185 0.11231 0.041443 0.017438 0.0088889 -0.020541 -0.28656 0.23512 
0.14108 0.045224 -0.0004827 0.066927 0.050486 0.023686 -0.22145 0.27244 
0.25074 0.005765 0.016288 0.055582 0.05065 0.046704 -0.021363 0.18054 
0.1493 0.01152 0.04358 0.099316 0.05772 0.051308 0.12858 0.084684 
-0.010183 0.054925 0.04358 0.043251 0.035195 0.030427 0.053938 0.010533 
-0.085156 0.066763 0.07597 0.007738 -0.0080457 0.0032988 -0.050958 -0.050464 
-0.013965 0.010533 0.10672 -0.0078813 -0.032215 -0.057699 -0.070523 -0.092719 
0.068078 -0.056712 0.13582 -0.012156 -0.015938 -0.021856 0.058377 -0.12577 
0.071531 -0.014787 0.082382 0.049828 0.015794 0.050321 0.18383 -0.088773 
0.06183 0.049828 -0.00031829 0.078436 0.063474 0.00050378 0.13056 0.00050378 
0.010204 0.082382 -0.024323 0.082711 0.076299 -0.038462 0.056569 0.06594 
-0.084169 0.090767 -0.028926 0.060679 0.063639 -0.021034 0.083204 0.15818 
-0.17197 0.086657 -0.017088 0.025988 0.041772 -0.012649 0.13171 0.17051 
-0.11722 0.027796 0.020069 0.047033 0.0079024 0.0056006 0.066927 0.11855 
0.046375 -0.039284 0.075148 -0.013636 -0.0042642 0.016781 -0.081868 0.027139 
0.20997 -0.057863 0.11543 -0.026296 0.0042853 0.04095 -0.12248 -0.026953 
0.23364 -0.062796 0.12053 0.028125 0.028783 0.064954 -0.034516 0.016452 
0.20388 -0.054246 0.073832 0.046704 0.066269 0.074326 -0.0029489 0.029276 
0.18136 -0.052602 0.074326 0.060515 0.045389 0.051636 -0.068386 0.013986 
0.1442 -0.051615 0.090767 -0.0013048 0.022535 -0.0077169 -0.15454 -0.030242 
0.071366 0.030263 0.091918 0.017438 0.019247 -0.037147 -0.31386 -0.018568 
-0.018404 0.11362 0.048348 0.0075736 -0.026624 -0.069701 -0.32487 0.0052718 
-0.092061 0.13598 0.01152 0.019576 0.0024767 -0.056219 -0.12905 0.053281 
-0.076277 0.12644 -0.016102 0.083204 0.044073 0.0018191 0.098659 0.14108 
-0.020377 0.15374 0.005765 0.071366 0.05476 0.11 0.22608 0.15292 
0.0085601 0.081231 0.036017 0.057555 0.11773 0.077778 0.25058 0.047033 
0.0028056 0.072517 0.037332 0.071366 0.1248 0.074983 0.1105 -0.038462 
0.023357 0.052294 0.033387 0.018918 0.084026 0.053281 -0.0021268 -0.10143 
0.025988 0.077285 0.013821 0.032236 0.0034632 -0.0082102 -0.074633 -0.048492 
0.026317 0.082053 -0.00081153 -0.0067304 -0.0050863 -0.021528 -0.048327 0.0039565 
-0.00031829 0.10096 -0.022021 0.0075736 -0.0064016 0.010369 0.12447 0.040128 
0.036346 0.082711 -0.0026201 0.0092177 -0.028762 0.018096 0.20208 0.062488 
0.058213 -0.0077169 0.028783 -0.011663 -0.030735 0.013164 0.21687 0.03799 
0.030098 -0.013143 0.039305 0.01152 0.0026412 0.026974 0.10589 0.096357 
0.004943 0.042594 0.019905 0.02122 0.02533 0.067749 0.11559 0.12233 
0.02829 0.055911 0.035195 0.031249 0.042594 0.048677 0.1733 0.0689 
0.060844 0.059528 0.023851 0.023851 0.044896 0.036839 0.22328 0.023193 
0.021056 0.11477 0.016945 0.017767 0.015301 0.02122 0.13499 -0.039942 
-0.045368 0.088136 0.00017495 0.05065 0.012342 0.01563 0.054925 -0.037969 
-0.071016 0.085506 -0.011663 0.0083956 -0.0034422 0.0060938 -0.013307 -0.021363 
0.02122 0.0075736 0.065776 -0.014129 -0.021363 -0.0042642 -0.10291 0.013492 
0.076792 -0.047176 0.076627 -0.043724 -0.021363 -0.039449 -0.24365 0.048184 
0.069722 -0.017417 0.030098 -0.009361 0.021713 0.018754 -0.32668 0.048348 
0.12612 0.025988 -0.01676 0.057391 0.015959 0.089123 -0.20041 -0.012156 
0.23249 -0.0049219 0.020233 0.0088889 0.021056 0.099316 0.06742 -0.11787 
0.22065 -0.021363 0.052952 0.031249 0.035031 0.085341 0.25765 -0.1353 
0.06331 0.10819 0.033222 0.03092 0.059364 0.097672 0.32292 0.02122 
-0.1113 0.19188 0.0023123 0.053774 0.054103 0.081724 0.37471 0.19632 
-0.1723 0.1835 -0.024816 0.075312 0.048513 0.045718 0.35169 0.24186 
-0.121 0.11707 -0.028762 0.062488 0.036017 0.020562 0.25732 0.16048 
0.026974 0.0021479 0.0039565 0.050157 0.028947 0.011684 0.09422 -0.0013048 
0.13138 -0.1187 0.047197 -0.019884 -0.008539 -0.0062372 -0.073154 -0.091897 
0.087808 -0.069043 0.056404 -0.031886 -0.032872 -0.0042642 -0.10587 -0.11031 
0.028783 0.053116 0.015959 0.0069159 -0.016924 0.01974 -0.042737 -0.058356 
-0.054246 0.099974 -0.0087034 0.021713 -0.017417 -0.079072 0.063474 -0.0070593 
-0.079401 0.13516 -0.0016336 0.050157 -0.0087034 -0.12346 0.066434 0.043745 
-0.13234 0.18728 0.015137 0.035524 0.091096 -0.07414 0.051308 0.046211 
-0.10932 0.12875 0.043909 0.03092 0.16837 0.017274 -0.07003 -0.00015387 
0.0072447 0.057062 0.023193 0.030756 0.18794 0.10063 -0.10965 0.01974 
0.13664 -0.0088678 0.027468 0.0065871 0.14321 0.16344 -0.017417 0.061008 
0.20964 -0.062796 0.047033 0.032071 0.089123 0.13088 0.031907 0.063474 
0.17659 -0.040764 0.0421 -0.010841 0.034044 0.099974 0.013986 0.024508 
0.12661 0.033058 0.037497 -0.0098543 -0.057534 0.058049 0.056569 -0.020212 
-0.0088678 0.11855 0.011026 0.035853 -0.029255 0.032729 0.24269 0.0324 
-0.10538 0.17906 -0.034681 0.046375 -0.045861 0.027468 0.38342 0.10441 
-0.194 0.18465 -0.032379 0.071859 -0.036489 0.053774 0.39625 0.17856 
-0.17312 0.13565 0.022864 0.030098 -0.014787 0.06742 0.27442 0.12283 
-0.10373 0.080738 0.069229 0.019083 -0.025474 0.088794 0.12842 0.038812 
0.068407 -0.00081153 0.064625 0.024673 0.032729 0.057062 0.075476 0.0037921 
0.2514 -0.12692 0.097837 0.019247 0.035853 0.014479 -0.11755 -0.03501 
0.31421 -0.21784 0.12431 0.022371 0.037497 -0.047012 -0.37008 -0.030242 
0.24038 -0.13481 0.1026 -0.019719 0.049499 -0.11179 -0.46808 -0.0078813 
0.10343 -0.015773 0.058049 0.033715 0.048513 -0.060494 -0.34855 -0.020706 
-0.030899 0.10622 0.013986 0.036839 0.095699 -0.024487 -0.1455 -0.026624 
-0.14171 0.19007 -0.034516 0.061337 0.13154 -0.055397 0.054596 -0.016924 
-0.13119 0.1516 -0.0050863 0.082711 0.15176 0.0064227 0.13812 -0.0026201 
0.041443 0.018918 0.065612 0.026974 0.12431 0.029112 0.1322 0.012342 
0.17133 -0.015609 0.11411 0.01711 0.061501 0.028947 0.10195 0.033058 
0.13319 0.029769 0.10869 0.0024767 0.045224 0.063639 0.10277 0.10852 
-0.0027845 0.086985 0.035853 0.022371 0.071531 0.10096 0.13105 0.1664 
-0.099295 0.11691 -0.0032777 0.053938 0.075641 0.12266 -0.058685 0.14782 
-0.1085 0.14289 0.0047785 0.039141 0.0324 0.082875 -0.34049 0.085506 
-0.074962 0.13417 0.0060938 0.064461 -0.033365 0.043087 -0.27456 0.049006 
-0.066084 0.12003 0.015959 0.034537 -0.027775 0.069886 0.28741 0.051636 
-0.0031133 0.078929 0.026646 0.054925 -0.039449 0.087808 0.5235 0.052459 
0.045389 -0.008539 0.056569 0.031742 -0.01939 0.063474 0.37553 0.0065871 
0.071037 -0.051122 0.071366 0.04654 -0.03501 -0.013636 0.18432 0.023028 
0.034373 -0.045696 0.093069 0.053938 -0.0070593 -0.068221 0.0072447 0.062159 
0.0786 -0.12659 0.13203 0.0014903 -0.010512 -0.05326 -0.15766 0.096686 
0.17922 -0.087293 0.14108 -0.045696 -0.02498 -0.072496 -0.3469 0.0069159 
0.24005 0.0032988 0.09685 -0.031557 -0.041915 -0.062467 -0.48633 -0.10505 
0.20109 0.066598 0.061995 -0.0021268 0.0051074 -0.019226 -0.59089 -0.1187 
0.085012 0.097179 0.044238 0.06331 0.093398 0.025495 -0.48879 -0.088608 
-0.055232 0.096193 0.019905 0.066105 0.11905 0.11576 -0.047012 -0.019555 
-0.13448 0.087314 0.01563 0.08978 0.11806 0.21753 0.45379 0.088794 
-0.12314 0.086657 0.0082312 0.079422 0.11477 0.18695 0.53978 0.15982 
-0.10275 0.13203 -0.0059084 0.069886 0.1026 0.14124 0.27343 0.093726 
-0.097158 0.1373 -0.0055795 0.094384 0.079751 0.087808 -0.10456 0.023357 
-0.0019624 0.041443 0.016945 0.047526 0.0059294 -0.0073881 -0.27588 0.012999 
0.1539 -0.070687 0.055418 -0.0026201 -0.086964 -0.10308 -0.29495 -0.010019 
0.19073 -0.013636 0.083204 -0.031064 -0.14402 -0.14434 -0.3132 0.02681 
0.060186 0.0060938 0.068078 -0.054246 -0.15125 -0.17542 -0.21143 0.049499 
0.051636 0.00050378 0.057555 -0.027282 -0.1233 -0.11442 -0.15651 0.020069 
0.10589 0.01415 0.035688 0.028619 -0.025145 -0.041422 -0.038791 0.0227 
0.17018 -0.050629 0.020562 0.063639 0.072517 0.10343 0.13269 -0.045039 
0.20158 -0.048656 0.059035 0.045553 0.091425 0.12809 0.30319 -0.049314 
0.083697 0.069886 0.042429 0.030263 0.11937 0.24712 0.51841 -0.0088678 
-0.034023 0.08419 0.036839 0.083368 0.12085 0.31716 0.66375 0.0064227 
-0.03764 -0.015938 0.044402 0.060022 0.067585 0.28757 0.64977 0.035524 
-0.018897 -0.024323 0.017438 0.051636 0.0024767 0.1659 0.33246 0.026974 
0.031742 -0.028762 -0.00031829 0.016616 0.023686 0.063474 -0.097158 0.044238 
0.10277 0.0062583 0.023193 0.025824 0.061995 -0.03057 -0.49405 0.049335 
0.12924 0.06035 0.027961 0.032893 0.053116 -0.050629 -0.71831 -0.073318 
0.11559 0.01711 0.055747 0.010369 -0.0044286 -0.083676 -0.64318 -0.087129 
0.072188 0.0079024 0.020069 0.027468 -0.07414 -0.20468 -0.2037 -0.012156 
0.020562 0.063145 0.010369 0.023028 -0.066084 -0.25467 0.1978 0.092904 
-0.003771 0.066105 -0.01232 0.024015 -0.039778 -0.2397 0.17445 0.17939 
-0.016102 0.01415 -0.018568 0.049499 -0.018568 -0.21093 -0.15914 0.16196 
-0.026131 0.038812 -0.017746 0.055254 0.022206 -0.13695 -0.22211 0.07449 
-0.033859 0.095864 -0.031392 0.099974 0.061666 0.034702 -0.028269 -0.018568 
-0.10193 0.14979 -0.043888 0.059857 0.086985 0.15933 0.058706 -0.10472 
-0.16457 0.18925 -0.045696 0.046704 0.059528 0.20355 -0.063453 -0.051615 
-0.11097 0.17396 -0.014293 0.040456 0.072024 0.15999 -0.14352 0.0065871 
0.0079024 0.073504 0.012999 0.022042 0.083533 0.1419 -0.027611 0.090767 
0.17281 0.0018191 0.023193 0.051965 0.049828 0.091589 0.1128 0.086163 
0.31404 -0.096336 0.038155 -0.00064712 0.027632 0.08863 0.26028 0.049006 
0.31207 -0.16194 0.049992 -0.0021268 -0.0024557 0.084848 0.32276 -0.019719 
0.14157 -0.071838 0.0075736 0.049006 0.048841 0.080573 0.26801 -0.049149 
-0.078086 0.14848 -0.049807 0.075148 0.079094 0.054596 0.37537 0.041936 
-0.16325 0.23693 -0.078086 0.10918 0.063968 0.036346 0.64583 0.14486 
-0.095678 0.18284 -0.051451 0.05476 1.0539e-005 -0.065755 0.6672 0.23183 
-0.034023 0.11247 0.010369 0.0065871 -0.021363 -0.11574 0.40167 0.14453 
-0.029091 0.035688 0.04095 -0.012978 -0.012978 -0.10275 0.065612 -0.045532 
0.01152 -0.04471 0.035688 0.022042 0.043251 -0.038133 -0.17164 -0.13826 
0.11477 -0.098802 0.027961 0.044238 0.052952 -0.0019624 -0.30843 -0.13629 
0.27738 -0.098638 0.051965 0.010369 0.056404 0.026481 -0.52611 -0.09239 
0.26094 -0.0077169 0.046704 0.009711 0.027139 -0.0036066 -0.7803 -0.001798 
0.10935 0.14272 0.010204 0.025001 -0.0029489 -0.036983 -0.73936 0.034373 
-0.0059084 0.19665 -0.01232 0.026974 0.0018191 -0.027611 -0.12116 0.08567 
0.015465 0.1294 0.027961 0.031249 -0.00031829 0.018918 0.53748 0.12513 
0.0056006 0.056569 0.068736 -0.017582 -0.021034 0.057884 0.80169 0.13927 
-0.057699 0.08715 0.020069 0.011848 0.020069 0.14798 1.0059 0.15308 
-0.10209 0.14733 -0.067564 0.058213 0.095535 0.2075 0.85496 0.12579 
-0.10357 0.14206 -0.06444 0.085999 0.10326 0.17955 0.47056 0.03388 
-0.076771 0.14042 -0.039613 0.11362 0.10984 0.12168 0.05624 -0.043888 
0.01563 0.072024 -0.03205 0.060186 0.050321 0.051308 -0.16884 -0.030735 
0.11444 -0.021363 0.036017 0.01415 0.026481 -0.068221 -0.20896 -0.031064 
0.11083 -0.0078813 0.066598 -0.022679 -0.018733 -0.084663 -0.22047 -0.058192 
0.036839 0.027961 0.067585 -0.033365 -0.021363 -0.052109 -0.2665 -0.025967 
-0.060329 0.082217 0.067749 -0.0087034 -0.022514 -0.0072237 -0.22918 0.055418 
-0.0042642 0.095864 0.064625 0.0021479 -0.011005 0.053445 0.023357 0.16738 
0.029605 0.021878 0.011026 0.025495 -0.0070593 0.082217 0.24564 0.33509 
-0.021528 0.037332 -0.0072237 0.039799 0.013657 0.039305 0.26784 0.45248 
-0.1279 0.13664 0.028783 0.026152 0.032071 -0.0073881 0.23397 0.43341 
-0.1358 0.18333 0.029441 0.032071 0.032236 0.041607 0.31601 0.27064 
-0.093212 0.11921 0.013328 0.022864 0.035195 0.075476 0.086821 0.054925 
-0.062631 0.025495 0.038483 0.039799 0.020727 0.027796 -0.36219 -0.081868 
0.027468 -0.07414 0.063968 -0.0039354 0.007738 -0.055397 -0.54371 -0.21389 
0.24663 -0.11968 0.095699 -0.010676 0.053281 -0.096007 -0.33654 -0.29051 
0.51232 -0.19005 0.14765 -0.021692 0.016123 -0.076277 -0.19334 -0.35578 
0.55672 -0.19811 0.21178 -0.078579 -0.026953 -0.017088 -0.071345 -0.36318 
0.33821 -0.085813 0.14502 0.0032988 -0.0070593 0.0075736 0.028619 -0.23477 
0.048348 0.10392 0.0065871 0.091425 0.059857 0.06594 0.10902 -0.11475 
-0.1358 0.17528 -0.078579 0.11263 0.095042 0.084519 0.088465 0.012835 
-0.1769 0.12612 -0.043066 0.087314 0.065612 0.089287 0.099316 0.060679 
-0.13251 0.053938 0.0080668 0.012506 0.015794 0.057391 0.19057 0.092904 
-0.12264 0.071531 0.0421 0.012999 0.014643 0.047362 0.0088889 0.147 
-0.089924 0.099316 0.043251 -0.00064712 0.014315 0.063968 -0.20682 0.14881 
-0.034516 0.083697 0.047033 0.010369 0.023851 0.057555 -0.14747 0.18843 
0.00050378 0.055582 0.081724 0.0072447 0.021713 0.040621 -0.076442 0.19221 
0.01004 0.03388 0.094055 0.0062583 0.039141 0.035688 -0.056548 0.17725 
-0.020706 0.063145 0.067585 0.046375 0.046375 0.039305 -0.023829 0.13713 
-0.00081153 0.072517 0.049335 -0.0021268 0.050321 0.0021479 0.24219 0.087314 
0.026481 1.0539e-005 0.065776 -0.014458 0.050157 -0.0036066 0.42913 0.058706 
0.045882 -0.056877 0.078929 0.0095465 0.03947 0.029276 0.38457 0.0036276 
0.027632 0.011026 0.046704 0.028619 0.055747 0.023522 0.19073 -0.032379 
0.0067515 0.0095465 0.047197 0.048348 0.029276 -0.023172 -0.048163 -0.067892 
-0.025802 0.025824 0.027468 0.038977 0.025001 -0.06 -0.29281 -0.09946 
-0.058028 0.065283 0.021056 0.053281 0.033058 -0.10982 -0.65912 -0.039613 
-0.065919 0.099974 0.022206 0.025824 0.012999 -0.15174 -1.035 -0.047669 
0.034044 0.055747 0.035688 0.011191 -0.006566 -0.15865 -0.97841 -0.10916 
0.094384 0.090109 0.088136 0.077449 0.060515 -0.075291 -0.33819 -0.13349 
0.10195 0.030756 0.07038 0.02122 0.070708 0.064625 0.29941 -0.0042642 
0.020233 0.016616 0.011848 0.039799 0.072353 0.14354 0.463 0.24088 
-0.011498 0.041936 -0.0082102 0.067749 0.10195 0.14174 0.37734 0.19106 
0.047855 0.040292 -0.017582 0.080244 0.052952 0.098988 0.26735 0.026317 
0.01267 0.065776 -0.012978 0.040456 0.03388 0.059364 0.080244 -0.11491 
-0.13843 0.2006 -0.0039354 0.016452 0.032564 0.030263 0.034702 -0.046354 
-0.19038 0.2218 0.0092177 0.040456 0.042758 0.025166 0.073668 0.040785 
-0.077757 0.063803 0.036346 0.029769 0.039963 0.0074092 0.1733 0.021878 
0.1197 -0.047998 0.060679 0.024673 0.036346 1.0539e-005 0.28839 -0.088773 
0.27721 -0.0027845 0.10491 0.025824 -0.0095255 -0.00015387 0.40398 -0.14862 
0.2565 0.073504 0.05213 0.015301 0.0072447 0.0059294 0.32276 -0.12988 
0.16722 0.091425 0.0016547 0.036346 0.019576 0.046211 0.10573 0.041443 
0.058377 0.038155 0.024344 0.0070803 0.0064227 -0.0047575 0.0227 0.22707 
0.0075736 -0.021363 0.062159 -0.023336 0.00033937 0.03799 0.16755 0.2805 
0.00050378 -0.055068 0.040128 0.03092 0.049335 0.065447 0.3923 0.23644 
-0.0013048 -0.0062372 0.034537 0.079751 0.10113 0.086985 0.60703 0.10474 
0.0013258 -0.018075 0.037168 0.069886 0.073339 0.061666 0.45725 -0.038133 
0.019247 -0.034188 0.029276 0.046704 0.043909 0.065447 0.08978 -0.15076 
0.11132 0.030592 0.048184 0.024179 0.016452 0.067091 -0.21718 -0.19433 
0.1539 0.064954 0.046868 0.019411 -0.0004827 0.053116 -0.38916 -0.19515 
0.092904 0.12365 0.019576 0.0072447 -0.010841 0.077285 -0.46446 -0.17542 
-0.0080457 0.17643 -0.0039354 0.029276 -0.014787 0.040128 -0.60865 -0.15059 
-0.070194 0.12217 0.021878 -0.017911 -0.0044286 0.0021479 -0.61506 -0.063289 
-0.063782 0.095699 0.005765 0.0079024 0.00297 0.023357 -0.35578 0.14634 
-0.07414 0.13368 -0.013471 0.029112 0.0088889 -0.014458 0.34742 0.41417 
-0.16884 0.14404 -0.046354 0.052623 0.012177 -0.020706 1.2134 0.59568 
-0.21751 0.069229 -0.0062372 0.048677 0.015794 0.015465 1.4217 0.59864 
-0.057534 -0.030077 0.058871 0.022206 0.02681 0.041772 0.96249 0.28165 
0.23364 -0.12774 0.10458 0.047526 0.062981 0.049664 0.37027 -0.057863 
0.3803 -0.095678 0.11658 0.031907 0.089123 0.053609 -0.15437 -0.24069 
0.32308 0.060022 0.085341 0.042429 0.12365 0.097179 -0.46084 -0.26108 
0.20849 0.10343 -0.0044286 0.077614 0.10721 0.048513 -0.69365 -0.17098 
0.078436 0.076463 -0.022185 0.034373 0.028454 -0.023501 -1.0947 -0.1381 
-0.0138 0.090767 -0.013965 0.023028 -0.043888 -0.02794 -1.0785 -0.10505 
-0.081703 0.13861 0.011684 0.0074092 -0.049149 -0.014129 -0.26174 -0.031721 
-0.097158 0.12464 0.011684 0.020891 -0.018733 -0.011827 0.46399 -0.050136 
-0.062631 0.038977 0.044731 0.016452 -0.0098543 -0.031064 0.5485 -0.015773 
0.038319 -0.094034 0.077285 -0.010183 -0.0060728 -0.030899 0.29842 0.076792 
0.12891 -0.19104 0.18021 0.039305 0.05213 0.050979 0.27639 0.24811 
0.11132 -0.039449 0.08567 0.051472 0.062488 0.12628 0.41433 0.34166 
-0.054082 0.19188 0.020398 0.055254 0.062817 0.19632 0.52383 0.35054 
-0.13251 0.21358 -0.0138 0.08156 0.029769 0.12908 0.57546 0.36485 
-0.097651 0.18317 -0.011005 0.062981 0.0095465 0.095864 0.53666 0.31585 
-0.049971 0.097837 0.0093821 0.075312 0.0060938 0.058706 0.4219 0.17199 
0.11148 -0.058192 0.068078 -0.0032777 0.015465 0.028125 0.11707 -0.018404 
0.28708 -0.14237 0.11461 -0.020377 -0.045368 -0.018075 -0.42977 -0.20173 
0.30105 -0.093541 0.10721 -0.027282 -0.047341 -0.069043 -0.97299 -0.34427 
0.065118 0.038977 0.077943 0.0059294 -0.0075525 -0.091075 -1.131 -0.39656 
-0.17756 0.15867 0.053938 0.026481 -0.0138 -0.061645 -1.059 -0.3224 
-0.25286 0.20914 0.038155 0.0026412 -0.0004827 -0.032708 -1.0933 -0.15733 
-0.12379 0.19665 -0.031557 0.059693 0.05213 -0.0039354 -0.99486 -0.061151 
0.095206 -0.021692 -0.032215 0.10803 0.11296 -0.0067304 -0.40247 -0.034845 
0.1659 -0.14221 0.054267 0.046211 0.058377 0.058049 0.42765 0.038155 
0.08863 -0.059178 0.046375 0.060022 0.05772 0.08978 0.84066 0.19764 
0.06035 0.050321 -0.0034422 0.047033 0.067913 0.09833 0.80202 0.31634 
0.09685 0.040456 0.026152 0.037826 0.042758 0.065447 0.57891 0.3221 
0.048019 0.057062 0.05065 0.044567 0.034373 0.014315 0.28297 0.28954 
-0.099789 0.1026 0.052787 0.034044 0.050157 0.074819 0.21474 0.26455 
-0.14319 0.025824 0.054267 0.066269 0.055911 0.11592 0.20372 0.2366 
0.012013 -0.056383 0.086163 0.016288 0.055911 0.08567 0.056898 0.079258 
0.21112 -0.11705 0.12381 -0.014458 -0.018733 0.030427 -0.092719 -0.13974 
0.27409 -0.030406 0.091589 -0.01117 -0.033037 0.045718 -0.017088 -0.22392 
0.15423 0.11 0.01826 -0.0055795 0.0051074 0.077449 0.037332 -0.25812 
0.039963 0.11296 0.027139 0.015301 0.015301 0.054925 0.026481 -0.21307 
-0.050958 0.12381 -0.01676 0.020891 -0.011827 0.036346 0.010533 -0.12363 
-0.11557 0.16656 -0.065097 0.066927 0.025166 0.031414 -0.025638 -0.071838 
-0.088773 0.089616 -0.0050863 0.044238 0.037004 -0.022514 -0.1376 -0.041093 
-0.029913 -0.034681 0.074326 0.022371 0.03651 -0.08269 -0.21784 -0.011498 
0.045224 -0.065755 0.086163 0.031742 0.014315 -0.098967 0.037826 0.00033937 
0.10721 -0.070523 0.08156 0.012177 -0.0027845 -0.066248 0.43143 0.065612 
0.091096 -0.063782 0.069722 0.02533 0.041772 0.0075736 0.47895 0.12644 
0.036182 -0.010676 0.057227 0.0054362 0.050157 0.093891 0.36896 0.14239 
0.011026 0.075312 0.012999 0.020727 0.03799 0.068078 0.30105 0.096357 
-0.022843 0.10573 -0.013636 0.049664 0.03799 0.067585 0.063145 0.031578 
-0.019226 0.10819 -0.047834 0.074654 0.041607 0.052623 -0.34016 -0.056712 
0.054267 0.057555 -0.026296 0.075148 0.0072447 -0.0031133 -0.47071 -0.13777 
0.15226 -0.047176 0.056733 -0.011498 -0.017253 -0.03764 -0.21175 -0.084169 
0.19665 -0.06855 0.096357 -0.033201 -0.02646 -0.036818 -0.12133 -0.016924 
0.10787 0.013986 0.069886 -0.018568 -0.018897 -0.035832 -0.26864 0.10639 
-0.013636 0.050814 0.047526 -0.018075 -0.003771 -0.059507 -0.26272 0.16081 
-0.073647 0.061666 0.054596 0.0023123 0.033058 -0.060987 -0.28311 0.24005 
-0.053753 0.11066 0.041278 0.016452 0.055582 0.038319 -0.22606 0.22082 
-0.073482 0.12299 0.0054362 0.074161 0.095699 0.09833 0.26768 0.20208 
-0.03353 0.13154 -0.030735 0.042594 0.15522 0.12644 0.61295 0.09981 
0.029769 0.097344 -0.00031829 0.020398 0.1368 0.10425 0.548 0.060844 
0.030756 -0.0068948 0.027796 0.048019 0.071202 0.039799 0.4436 0.00033937 
0.010369 -0.039778 0.037168 0.048184 -0.0011404 -0.004593 0.36304 0.025659 
-0.0067304 0.024344 0.011848 0.040128 -0.034845 0.0095465 0.38244 -0.012978 
0.034373 0.020562 -0.0029489 0.021384 -0.01528 -0.046025 0.3586 -0.014129 
0.042265 0.064625 0.016616 0.0082312 -0.033859 -0.051944 0.25354 -0.015444 
-0.039942 0.15801 0.024837 0.042594 0.0028056 -0.03764 0.12316 0.017438 
-0.10061 0.21128 -0.0070593 0.03799 0.029112 -0.0004827 -0.0064016 0.029769 
-0.015444 0.13549 -0.012485 0.021878 0.029112 -0.025474 -0.13316 -0.0013048 
0.084519 0.094548 -0.001798 0.011684 0.016781 -0.0042642 -0.18676 -0.050136 
0.12233 0.051472 0.0098754 0.0037921 0.015301 0.028619 -0.12642 0.00083261 
0.11346 0.017767 0.040621 0.020398 0.0011614 0.022535 -0.07973 0.011191 
0.1391 0.0046141 0.033387 0.017274 0.036182 0.033058 -0.066577 0.045553 
0.14963 0.030098 0.017274 0.030427 0.10704 0.044402 -0.04471 0.039963 
0.11576 -0.0019624 0.017932 0.022206 0.10852 0.026646 -0.035832 0.036839 
0.069393 -0.043724 0.050321 1.0539e-005 0.037497 0.038319 -0.050136 0.072024 
0.038155 -0.11903 0.094548 -0.0077169 0.0069159 0.039799 -0.076442 0.060515 
-0.0011404 -0.15289 0.11888 -0.014622 -0.008539 0.03799 -0.040928 0.068407 
-0.088115 -0.023994 0.081889 -0.0080457 -0.028762 0.013328 -0.039942 0.090931 
-0.2328 0.24351 0.0059294 0.0093821 -0.028433 -0.049642 -0.065591 0.13647 
-0.39442 0.41203 -0.059836 0.054596 0.044402 -0.063289 -0.056219 0.20273 
-0.39491 0.3387 -0.11738 0.11609 0.13351 0.034537 0.12546 0.2052 
-0.18348 0.1391 -0.081539 0.096521 0.14552 0.11872 0.26965 0.17001 
0.10704 -0.052766 0.0039565 0.073175 0.078436 0.11839 0.31371 0.028619 
0.3632 -0.058028 0.056733 0.024015 0.011191 0.054925 0.19205 -0.072332 
0.48569 -0.036654 0.086657 -0.014458 -0.03057 0.0051074 0.030592 -0.11409 
0.40562 -0.015609 0.12546 -0.039778 -0.075784 -0.031886 -0.12445 -0.16638 
0.18744 0.010862 0.096357 -0.051122 -0.042408 -0.042079 -0.20912 -0.17147 
-0.0088678 0.041936 0.052623 0.029769 -0.0055795 0.019247 0.041607 -0.12774 
-0.047998 0.025824 -0.003771 0.066763 0.049499 0.10935 0.48848 0.0052718 
0.039799 -0.0039354 -0.018568 0.069722 0.060844 0.090109 0.58943 0.067913 
0.13121 -0.020377 0.0079024 0.059364 0.053445 -0.038133 0.37159 0.036839 
0.11099 -0.027447 0.038483 0.024673 0.049992 -0.058028 0.022864 -0.02498 
0.024344 0.0016547 0.043087 0.061008 0.074983 0.011026 -0.41234 -0.1455 
-0.032708 0.029441 0.047526 0.024837 0.071202 0.072188 -0.82288 -0.24661 
-0.033037 0.039141 0.06742 -0.017253 0.063803 0.051472 -0.97365 -0.14895 
-0.029913 0.036182 0.056569 0.035853 0.012506 0.02681 -0.39705 0.15966 
-0.021528 0.064954 0.066269 0.023686 0.005765 0.10211 0.62741 0.4505 
-0.034188 0.09685 0.044073 0.0689 0.010533 0.14963 1.1113 0.4505 
-0.045039 0.11576 -0.0052507 0.067091 0.043909 0.15078 1.013 0.26521 
-0.048492 0.11017 -0.016924 0.053774 0.06742 0.10984 0.44179 0.03799 
-0.034352 0.081889 0.012999 0.039634 0.053609 0.026974 -0.40395 -0.16588 
0.0093821 0.060844 0.009711 0.034866 -0.023829 -0.12264 -0.95046 -0.21307 
0.034866 0.03536 0.06035 0.01267 -0.053095 -0.16753 -0.50885 -0.18134 
0.11872 0.015137 0.076792 -0.01528 -0.022679 -0.033037 0.49358 -0.13201 
0.25666 -0.033201 0.063639 0.03799 0.018754 0.12266 0.99932 -0.14747 
0.31897 -0.068386 0.031249 0.056733 0.03092 0.1835 0.66013 -0.16276 
0.24548 -0.02942 0.050486 0.029441 -0.011663 0.11444 -0.015773 -0.14352 
0.1003 0.021549 0.070051 0.027632 -0.03057 -0.011334 -0.6149 -0.20764 
-0.010019 0.095864 0.090109 -0.0091966 -0.054082 -0.14566 -1.2448 -0.29511 
-0.095678 0.16689 0.018589 0.011684 -0.02794 -0.21998 -1.7983 -0.18348 
-0.079566 0.1271 -0.0072237 0.026646 -0.029748 -0.2328 -1.6907 0.059857 
0.0024767 0.020233 0.037332 0.0034632 -0.012978 -0.2157 -0.77027 0.27228 
0.027303 -0.0059084 0.029112 0.039141 0.077285 -0.092719 0.30516 0.26899 
-0.0073881 -0.0057439 0.044567 0.050486 0.18152 0.098001 0.95049 0.20734 
-0.076442 0.061008 0.01826 0.085506 0.24137 0.22641 0.93158 0.14124 
-0.15306 0.17758 -0.023829 0.089452 0.23118 0.26291 0.42864 0.13878 
-0.15487 0.19369 -0.03353 0.086328 0.14897 0.22049 -0.25352 0.16097 
-0.09239 0.087643 0.0023123 0.10014 0.086492 0.13171 -0.37732 0.11181 
-0.0034422 0.031742 0.037826 0.042758 0.0044497 0.072517 -0.028597 0.08715 
0.048513 0.10754 0.02122 0.02533 -0.024652 -0.0011404 0.31601 0.067585 
0.084355 0.13368 -0.021034 0.013164 -0.058521 -0.075127 0.47155 -0.0062372 
0.097508 0.10803 -0.0075525 -0.004593 -0.062631 -0.1358 0.32259 -0.02498 
0.01415 0.096193 0.0059294 0.014972 -0.050136 -0.13432 -0.016924 -0.033201 
-0.13218 0.07449 0.0067515 -0.018733 -0.031064 -0.11146 -0.29429 0.030427 
-0.18742 0.096521 0.03388 -0.0054151 -0.041915 -0.090417 -0.47926 0.050157 
-0.02794 -0.012814 0.052294 -0.028597 -0.00015387 -0.043395 -0.52135 0.069722 
0.22526 -0.16358 0.084519 0.010204 0.04506 0.070215 -0.28755 0.047691 
0.26751 -0.12133 0.092411 0.063968 0.053116 0.094384 0.095206 0.0013258 
0.12184 0.0054362 0.098001 0.015137 0.012835 0.079751 0.24564 0.053938 
-0.068221 0.095864 0.034866 0.053938 0.059857 0.08978 0.19369 0.14617 
-0.12511 0.060515 -0.038298 0.073175 0.14453 0.1054 0.16344 0.23496 
0.073997 -0.0072237 -0.0060728 0.083697 0.171 0.095042 0.12727 0.24992 
0.29579 -0.028269 0.063803 0.017438 0.076299 0.047033 0.010862 0.085012 
0.3512 -0.028926 0.10852 -0.050136 -0.0080457 0.0079024 -0.072003 -0.020706 
0.18711 0.025824 0.064296 -0.017746 -0.020706 -0.038791 -0.068057 -0.0049219 
0.049828 0.054432 -0.0078813 -0.00015387 0.0041209 -0.036654 -0.006566 0.12168 
-0.041751 0.066105 -0.02235 0.031907 -0.00015387 -0.079895 0.054596 0.18909 
-0.05326 0.10211 0.029769 0.023851 0.031578 -0.033859 0.11231 0.14256 
-0.073154 0.093233 0.042758 0.030098 0.050321 0.0098754 0.18284 0.1197 
-0.052273 0.052459 0.039963 0.079916 0.027961 0.11181 0.2851 0.098001 
-0.046847 0.029441 0.014479 0.014972 0.016123 0.067749 0.38408 0.090931 
-0.01676 0.054267 -0.026789 0.029769 0.022206 0.019576 0.48191 0.12579 
-0.0049219 0.027961 -0.0039354 0.025495 0.036017 0.02122 0.46645 0.12776 
-0.0029489 0.038977 0.010533 0.042758 0.053938 0.040621 0.43324 0.17133 
0.019247 0.04358 0.016945 0.06331 0.035853 0.12332 0.40513 0.18333 
0.092576 0.0064227 0.03388 0.033387 0.02829 0.15324 0.43752 0.17445 
0.11346 -0.0064016 0.040785 0.014315 0.016452 0.10392 0.45462 0.13105 
0.11806 0.010204 0.062159 0.0032988 -0.010348 0.017603 0.37487 0.04654 
0.12332 0.0062583 0.055254 -0.032708 0.025659 -0.029748 0.2514 -0.067728 
0.11017 0.017603 0.049499 0.033222 -0.0078813 -0.046354 0.11658 -0.18939 
0.075476 0.059528 0.0064227 0.043416 -0.0060728 -0.071674 -0.109 -0.16095 
0.051472 0.0421 0.02829 0.01826 0.0023123 -0.0083746 -0.28919 -0.060658 
0.019083 0.044567 0.062323 0.0013258 0.031907 0.077943 -0.24003 -0.0052507 
0.014315 0.066927 0.033222 0.023522 0.055747 0.13187 -0.019884 0.099974 
0.0059294 0.048677 0.018589 0.069393 0.074161 0.15111 0.24564 0.13976 
0.0082312 0.025659 -0.0049219 0.031249 0.026152 0.13401 0.41828 0.14815 
0.015137 0.007738 0.012013 0.060679 0.012013 0.041443 0.37603 0.087643 
0.011355 0.012177 0.067091 0.0060938 0.016288 -0.02087 0.21687 -0.0034422 
-0.0013048 0.023851 0.099316 0.027796 0.028783 0.0051074 0.098001 -0.042901 
0.0080668 0.024179 0.088301 0.029605 0.024344 0.052294 0.020069 -0.074962 
0.068407 -0.0087034 0.059693 0.030592 0.029441 0.078765 -0.0095255 -0.10373 
0.090438 0.010697 0.01974 0.055418 0.027961 0.092904 0.009711 -0.086636 
0.1174 0.062981 0.022864 0.039634 0.022864 0.067091 0.07301 -0.086471 
0.11017 0.083697 -0.0014692 0.037661 0.01004 0.030263 0.11181 -0.11442 
0.062817 0.077449 -0.014787 0.035853 0.028619 -0.010841 0.16985 -0.13481 
0.0039565 0.11247 -0.0091966 0.0028056 -0.025638 -0.065426 0.19813 -0.15257 
-0.025638 0.15275 -0.0090322 0.018425 -0.029584 -0.11228 0.2075 -0.12264 
-0.077264 0.099481 0.020891 0.0036276 -0.013636 -0.07003 0.18235 -0.090746 
-0.13333 0.081067 0.083368 0.028619 0.01152 -0.028269 0.033058 0.0075736 
-0.12988 0.071695 0.064132 0.027303 0.043745 0.017932 -0.16621 0.052952 
0.0087245 -0.03353 0.051636 0.005765 0.031085 0.037826 -0.32175 -0.0011404 
0.17182 -0.11886 0.06331 0.014972 0.0056006 0.022535 -0.33737 -0.052273 
0.18054 -0.054246 0.076792 -0.024158 -0.0067304 0.024837 -0.34 -0.14681 
0.075805 0.057227 0.045553 0.022864 0.016288 0.026646 -0.29215 -0.12478 
-0.046519 0.15834 -0.017911 0.07449 0.039305 0.055089 -0.20025 -0.054904 
-0.12363 0.16196 -0.012156 0.057884 0.062159 0.071859 -0.10456 0.012177 
-0.099624 0.1368 0.0093821 0.082875 0.073504 0.085177 -0.015116 0.039141 
-0.063124 0.10721 0.0047785 0.047197 0.068078 0.08008 0.13138 -0.019719 
-0.037147 0.12513 0.02681 0.033222 0.054432 0.060022 0.30418 0.021384 
-0.026624 0.10408 0.042758 0.031085 0.0060938 0.019411 0.3415 0.028783 
0.034373 0.072188 0.059528 0.013492 0.014479 0.0070803 0.16459 -0.014622 
0.10655 0.053116 0.004943 0.029112 -0.0024557 -0.045368 -0.15503 -0.069701 
0.13713 0.018918 0.017274 0.012835 0.013657 -0.092061 -0.48583 -0.13843 
0.086985 0.0044497 0.048184 0.028125 0.0062583 -0.12544 -0.61802 -0.037476 
0.0041209 0.00066819 0.063968 -0.025967 -0.0091966 -0.12281 -0.53664 0.093891 
-0.052602 0.030427 0.08304 -0.022185 0.027468 -0.059014 -0.34082 0.12365 
-0.086142 0.026974 0.066105 0.034866 0.031578 0.035031 -0.13908 0.11839 
-0.038627 0.011191 0.024344 0.037826 0.057227 0.041443 0.06183 0.062981 
0.099316 0.021713 -0.0013048 0.10293 0.065612 0.038155 0.22805 0.017932 
0.20323 0.0032988 -0.013471 0.083697 0.058377 0.056898 0.30039 -0.051944 
0.18448 0.037826 0.035853 0.033551 0.03651 0.0324 0.25863 -0.037805 
0.062323 0.043416 0.082875 0.017274 0.019411 0.013164 0.12431 0.046704 
-0.048163 0.017603 0.10787 -0.042244 0.010533 -0.0040998 0.044402 0.094548 
-0.045203 0.054432 0.088794 0.014808 0.020069 0.065447 0.051143 0.12283 
0.01267 0.10688 0.019576 0.02829 0.043745 0.061172 -0.09946 0.13072 
0.098166 0.038977 0.0016547 0.053938 0.073504 0.0689 -0.27588 0.12365 
0.17001 -0.032872 0.012013 0.08156 0.090274 0.069064 -0.24562 0.1294 
0.13894 0.040128 0.024508 0.071695 0.075312 0.052787 -0.015609 0.089452 
0.018096 0.10869 0.028619 0.075641 0.044896 0.031578 0.14831 0.073997 
-0.07825 0.15949 0.037497 0.047855 0.030756 0.046704 0.2052 0.075148 
-0.17476 0.1516 0.039634 0.032071 0.044073 0.031249 0.15012 0.10293 
-0.15832 0.092082 0.03092 0.010697 0.0090533 -0.006566 0.073997 0.14174 
-0.047012 0.031085 0.046211 -0.023007 -0.027775 -0.0022913 -0.025638 0.084684 
0.11378 -0.037476 0.058377 -0.012485 -0.001798 -0.032708 -0.10768 0.0051074 
0.26718 -0.081703 0.056404 0.0056006 0.017274 -0.016266 -0.18808 -0.037311 
0.29908 -0.11015 0.05624 0.038812 0.029276 0.0034632 -0.19975 0.00083261 
0.20175 -0.048985 0.050321 0.029934 0.025988 0.030427 -0.10012 0.1276 
0.065776 0.056733 0.029605 0.024837 0.027961 0.052294 0.14124 0.18415 
-0.02235 0.12792 0.0082312 0.069886 0.039141 0.035688 0.29037 0.1835 
-0.050793 0.15324 0.00099702 0.051636 0.0421 -0.021528 0.14601 0.11165 
-0.0004827 0.055911 0.034866 0.048348 0.021878 -0.065097 -0.10817 0.0079024 
0.092576 -0.034516 0.076299 0.018589 0.025166 -0.045861 -0.11475 -0.051287 
0.11559 -0.02087 0.046046 0.014315 0.03388 0.03388 -0.063124 -0.049971 
0.081067 0.021056 0.024837 0.044238 0.039141 0.085999 -0.18084 -0.0087034 
0.027961 0.027961 0.0074092 0.058377 0.079751 0.14831 -0.08269 0.031578 
-0.0091966 0.021713 -0.013143 0.074983 0.11263 0.2297 0.49654 0.11872 
-0.012978 0.12053 -0.015116 0.073668 0.12003 0.17824 0.80663 0.16146 
-0.012814 0.073668 -0.026953 0.045224 0.040785 0.10639 0.73363 0.14946 
0.069229 0.046868 0.027632 0.019247 -0.013965 0.021549 0.39789 0.17347 
0.10277 0.044567 0.07597 -0.023501 -0.041751 -0.050629 -0.023007 0.14321 
0.091753 0.020233 0.10195 -0.023665 -0.076771 -0.058356 -0.18578 0.063803 
0.06594 0.037168 0.064296 -0.014293 -0.066741 -0.049314 -0.27209 -0.024816 
0.0092177 0.10458 0.01563 -0.0072237 -0.034188 -0.052437 -0.26371 -0.084334 
-0.091075 0.12891 -0.032708 0.052623 0.028783 -0.086471 -0.23987 -0.083018 
-0.15421 0.16969 -0.020377 0.066598 0.05624 -0.079237 -0.25319 -0.014129 
-0.11607 0.18613 -0.025802 0.081067 0.05624 -0.028433 -0.3127 0.036346 
0.004943 0.075148 -0.033201 0.037332 0.046211 0.014808 -0.48452 -0.018897 
0.10096 -0.088444 0.029769 0.016452 0.027961 0.04095 -0.62871 -0.13958 
0.1391 -0.10604 0.087479 0.026646 0.031085 0.082053 -0.22047 -0.12675 
0.14141 -0.031228 0.06594 0.023357 0.053116 0.12497 0.5217 -0.0014692 
0.10096 0.016452 0.027139 0.074819 0.076627 0.14305 0.9472 0.13154 
0.078107 -0.021692 0.031085 0.052787 0.066763 0.092082 0.91251 0.18317 
0.09274 -0.063946 0.032564 0.0034632 0.025824 0.024837 0.62396 0.16196 
0.060679 -0.018404 0.02533 0.0088889 -0.00031829 0.00099702 0.27573 0.12694 
0.005765 0.095864 0.012835 0.0054362 -0.011498 0.032236 -0.044546 0.042923 
-0.050629 0.20471 -0.032708 0.044567 0.0060938 0.024837 -0.32882 -0.026953 
-0.06855 0.18613 -0.041915 0.0024767 -0.0062372 -0.011005 -0.62098 -0.052931 
-0.027118 0.070215 0.0032988 -0.016431 -0.040764 -0.04471 -0.55932 -0.11409 
-0.061809 0.042923 0.055254 -0.049807 -0.038791 -0.067892 -0.21998 -0.10916 
-0.18791 0.11428 0.051636 -0.023994 -0.0014692 -0.0098543 0.13927 -0.0070593 
-0.25598 0.17577 0.0032988 0.059528 0.062488 0.069722 0.30286 0.11017 
-0.076277 0.089123 0.00050378 0.070215 0.069393 0.075148 0.16015 0.18563 
0.25699 -0.08828 0.020562 0.052623 0.069064 -0.0090322 -0.1062 0.082875 
0.41532 -0.1085 0.019247 0.025001 0.031249 -0.087458 -0.27242 -0.0022913 
0.26948 0.041772 0.035688 0.00050378 0.020398 -0.094199 -0.2836 -0.081045 
0.10491 0.03536 0.044731 -0.0021268 -0.0091966 -0.084663 -0.18791 -0.075455 
0.0227 -0.031557 0.0592 -0.037476 -0.0024557 -0.056548 -0.0070593 0.01152 
-0.034516 -0.0026201 0.047197 -0.017582 0.015794 0.019411 0.17511 0.05624 
-0.056548 0.027961 0.0080668 0.014479 0.035195 0.062159 0.36616 0.079094 
-0.048163 0.065118 -0.0044286 0.014479 0.039799 0.10491 0.46497 0.078765 
-0.073154 0.080244 0.02681 0.054432 0.050979 0.10704 0.41154 0.068242 
-0.053588 0.060022 0.023851 0.038483 0.052294 0.12233 0.21474 0.039305 
-0.028597 0.040785 0.029605 0.054925 0.042923 0.06035 -0.067728 -0.020541 
-0.022843 0.093562 0.037168 0.021384 0.01826 0.038812 -0.32849 0.067091 
-0.021363 0.12102 -0.0052507 0.033551 0.043745 0.01974 -0.53072 0.00033937 
0.041936 0.0689 0.0037921 0.080738 0.057062 -0.0019624 -0.49668 0.025824 
0.093233 0.049992 -0.0090322 0.031907 0.034537 0.013821 -0.022679 0.024673 
0.070873 0.094713 0.012506 0.029112 0.034209 -0.01117 0.45248 0.030756 
0.038155 0.076956 0.06479 -0.021856 0.0018191 -0.024816 0.45166 0.03651 
-0.0026201 0.040785 0.11066 -0.03353 0.014808 -0.052109 0.26883 0.031907 
-0.039449 0.060679 0.067585 -0.023829 -0.013965 0.0041209 0.18646 0.072681 
-0.0080457 0.010204 0.062323 -0.0070593 -0.014293 0.033222 0.061995 0.017274 
0.051308 -0.009361 0.052459 0.030098 0.028619 0.083368 -0.15487 -0.056219 
0.10014 0.030098 0.024344 0.020727 0.064625 0.12924 -0.18052 -0.02794 
0.070544 0.024673 -0.0088678 0.060186 0.081889 0.11559 -0.078086 0.024179 
0.099645 0.024673 -0.0029489 0.11313 0.095206 0.10244 -0.070359 0.059035 
0.18119 -0.055561 0.018918 0.076134 0.074161 0.042758 -0.0024557 0.076299 
0.2583 -0.081539 0.076134 0.042265 0.027303 -0.11409 0.10754 0.091753 
0.21326 -0.062631 0.099316 -0.0088678 -0.0019624 -0.22359 0.15916 0.16196 
0.15193 0.0070803 0.10474 -0.023172 -0.021199 -0.18084 0.077121 0.11214 
0.074819 -0.0057439 0.089616 -0.0004827 -0.025802 -0.11935 -0.044381 0.023028 
-0.0014692 0.038812 0.062817 -0.010676 0.0054362 -0.057041 -0.079566 -0.018404 
-0.066248 0.13171 0.050486 0.045718 0.0067515 0.043251 0.038648 -0.054246 
-0.082525 0.15357 0.0227 0.034373 0.029276 0.12332 0.19616 -0.044052 
-0.10472 0.13253 -0.026789 0.055254 0.046868 0.17511 0.30631 0.0036276 
-0.095349 0.16179 -0.013307 0.058213 0.048513 0.16212 0.29809 0.012506 
-0.091732 0.16229 -0.016266 0.063145 0.027632 0.12908 0.23151 -0.021856 
-0.045532 0.10408 0.0060938 0.066434 0.049006 0.082053 0.11444 -0.073647 
-0.016431 0.070215 0.023193 0.037004 0.063145 0.0592 0.03536 -0.062467 
0.0026412 0.055911 0.041936 0.042758 0.03799 0.062817 0.039141 -0.031721 
0.065283 -0.014129 0.053445 0.035853 0.019576 0.035031 0.070215 0.014643 
0.15275 -0.095678 0.093233 0.011848 0.022371 0.019247 0.20816 0.043745 
0.19599 -0.078086 0.10869 0.037497 -0.0049219 0.027632 0.50887 0.031907 
0.16607 0.017274 0.041772 0.034866 0.018918 0.004943 0.51726 0.015301 
0.057884 0.11099 -0.038133 0.062159 0.037497 -0.018897 0.19533 -0.01232 
-0.069701 0.20125 -0.038627 0.074161 0.052952 -0.038956 -0.29626 -0.017253 
-0.23132 0.18004 0.015301 0.036839 0.035031 -0.033859 -0.66093 0.087314 
-0.24973 0.10573 0.058213 0.058213 0.015465 -0.019884 -0.87779 0.081395 
-0.0042642 -0.025145 0.12069 -0.010512 -0.059014 -0.00097594 -0.96822 -0.095185 
0.27787 -0.17624 0.13795 0.0024767 -0.047834 0.028783 -0.37469 -0.17558 
0.32325 -0.1649 0.12069 0.0082312 -0.0096899 0.078929 0.42453 -0.048492 
0.24252 -0.04882 0.077943 0.016123 0.0070803 0.1345 0.7892 0.060844 
0.17643 0.076792 0.0054362 0.077778 0.046868 0.12694 0.68595 0.069886 
0.11378 0.15028 -0.03616 0.072024 0.084355 0.053609 0.33788 0.016945 
-0.020706 0.19846 -0.09387 0.089616 0.044073 0.017274 0.073997 0.020398 
-0.19202 0.22674 -0.034516 0.058377 0.027961 -0.060494 -0.06855 0.11642 
-0.23905 0.20142 0.025988 0.052787 0.061337 -0.0019624 -0.15848 0.2195 
-0.24825 0.12595 0.031578 0.055911 0.031085 0.039305 -0.20057 0.17906 
-0.15536 0.074326 0.05476 0.060679 0.017438 0.0067515 -0.20501 0.066927 
-0.022679 0.013328 0.062817 0.054925 0.01415 -0.064933 -0.17969 -0.06855 
0.073339 -0.049807 0.0689 0.011026 0.036675 -0.044381 -0.27982 -0.12577 
0.21342 -0.12659 0.07038 -0.0087034 0.053281 -0.0016336 -0.41267 -0.18216 
0.31486 -0.157 0.10441 0.0079024 0.083204 0.061008 -0.24414 -0.25894 
0.28395 -0.0868 0.11263 -0.01676 0.1105 0.12677 0.30648 -0.15848 
0.17626 -0.00097594 0.057884 0.063803 0.092576 0.21868 0.81846 -0.052931 
0.0051074 0.069722 -0.012814 0.053609 0.027468 0.15785 0.87223 0.07038 
-0.087129 0.099316 -0.030406 0.055254 -0.027282 0.073339 0.52942 0.1738 
-0.11491 0.13056 -0.016431 0.048019 -0.041586 0.032893 0.1322 0.13878 
-0.12034 0.12957 0.0039565 0.019083 -0.032215 -0.018733 -0.10406 0.099316 
-0.10242 0.1054 -0.0019624 0.05624 -0.024323 -0.083512 -0.38751 0.13598 
-0.041915 0.070708 0.034373 0.030427 -0.0082102 -0.075127 -0.6149 0.22723 
0.0095465 -0.013471 0.069558 -0.019555 0.005765 -0.064768 -0.53203 0.29234 
0.073997 -0.026296 0.073668 0.027632 0.024673 -0.011992 -0.3298 0.16294 
0.11822 0.017438 0.059364 0.028947 0.041772 0.042923 -0.39097 0.0056006 
0.078272 0.055747 0.039799 0.062817 0.053938 0.065447 -0.46594 -0.082032 
0.007738 0.11115 0.0064227 0.034537 0.046704 0.075148 -0.12626 0.032071 
0.014479 0.075805 0.010204 0.03388 0.050157 0.11559 0.55754 0.13598 
0.076956 -0.039284 0.053609 0.0227 0.03799 0.13335 1.0376 0.16327 
0.047855 -0.074469 0.03799 0.0065871 0.0085601 0.079094 1.0026 0.17807 
-0.02794 0.023193 0.048513 0.021384 -0.0052507 -0.0054151 0.54784 0.15209 
-0.084169 0.084848 0.048348 -0.013307 0.036839 -0.018239 0.013821 0.10836 
-0.091239 0.08304 0.047526 0.0227 0.11428 -0.0029489 -0.35266 0.03388 
0.01974 0.029276 0.020727 0.042594 0.11428 -0.0138 -0.66817 -0.2185 
0.13319 -0.011334 0.023686 0.05476 0.10277 -0.021692 -0.71502 -0.36893 
0.1784 -0.030077 0.034866 0.065776 0.028454 -0.066248 -0.4735 -0.29593 
0.15423 0.029605 0.042265 0.015137 0.031249 -0.034516 -0.13941 -0.092719 
0.052459 0.083862 0.021549 0.0092177 -0.016102 0.012342 0.15933 0.13615 
-0.063124 0.10343 0.0028056 0.012999 -0.016924 0.0054362 0.40398 0.27162 
-0.11393 0.097837 -0.0047575 0.027139 -0.012814 0.025166 0.42157 0.31042 
-0.085156 0.071037 0.013657 0.042265 -0.016924 0.076792 0.26948 0.26817 
0.0087245 0.032071 0.035031 -0.0098543 -0.0087034 0.09981 0.18383 0.15966 
0.063639 0.032071 0.052787 0.012506 0.0064227 0.069558 0.0087245 0.059693 
0.042429 0.07597 0.033387 0.030098 0.06479 0.080244 -0.087622 0.078765 
-0.021528 0.075805 -0.0050863 0.054925 0.054432 0.071202 -0.034352 0.056733 
-0.029913 0.077614 0.014315 0.10178 0.06183 0.05772 0.12908 0.08567 
0.007738 0.092082 0.019083 0.021878 0.0080668 0.013164 0.12036 0.043087 
0.088136 -0.0050863 0.042429 0.0227 -0.013636 0.019083 0.15883 -0.024816 
0.047197 -0.028433 0.060022 0.00099702 0.062323 -0.0059084 0.26373 -0.038133 
-0.016431 0.0324 0.025824 0.036017 0.13483 -0.020048 0.39773 -0.01939 
0.062817 -0.021034 0.040292 0.031085 0.10129 -0.02235 0.33903 -0.046847 
0.22674 -0.12149 0.088958 -0.019884 -0.006566 -0.069536 0.077943 -0.051944 
0.21621 -0.090746 0.085012 -0.021856 -0.071509 -0.10571 -0.1353 0.02122 
0.071366 0.036839 0.03947 -0.015609 -0.062796 -0.073318 -0.31057 0.11132 
-0.063453 0.10359 0.0087245 0.018918 -0.02087 -0.099953 -0.60898 0.13039 
-0.13908 0.13549 0.023522 0.066927 0.019083 -0.059178 -0.58021 0.085177 
-0.17591 0.16064 0.011684 0.043416 0.065447 0.072188 -0.23773 0.0046141 
-0.15257 0.18037 -0.038462 0.081395 0.079751 0.16097 0.23085 -0.059836 
-0.06 0.17166 -0.047834 0.045224 0.072188 0.19106 0.51496 -0.098638 
0.036675 0.083368 -0.006566 0.02681 0.063968 0.17643 0.5577 -0.073154 
0.026974 -0.021034 0.025988 0.028783 0.019411 0.16525 0.37635 0.016288 
0.0059294 -0.045532 0.0079024 0.054925 0.012177 0.12743 0.21457 0.14387 
0.12447 -0.022514 0.020233 0.061995 0.010862 -0.018239 -0.020541 0.11543 
0.19287 -0.029913 0.063968 0.0064227 -0.019061 -0.17493 -0.2642 -0.038298 
0.1493 0.0019835 0.069886 0.0023123 -0.017746 -0.22737 -0.37074 -0.075784 
0.053609 0.08419 0.061172 0.01152 0.029769 -0.15174 -0.35512 -0.063782 
-0.015444 0.14765 0.060186 0.016123 0.04917 -0.06 -0.2568 -0.034023 
-0.0032777 0.16837 0.051965 0.036675 0.072024 -0.014129 -0.024487 0.0026412 
0.053609 0.087643 0.021056 0.033058 0.088958 0.073997 0.24992 0.022206 
0.19254 -0.12264 0.075805 0.014479 0.044567 0.12792 0.40365 0.043745 
0.21687 -0.23132 0.1054 -0.018897 0.0031344 0.11592 0.43439 0.045389 
0.18202 -0.15717 0.090603 -0.022514 -0.014458 0.083862 0.31075 0.0074092 
0.20997 -0.092226 0.063145 0.0054362 -0.013636 0.030592 0.13138 -0.051615 
0.15752 0.013986 0.038977 0.0069159 -0.0052507 -0.024652 -0.10604 -0.046354 
0.042594 0.098001 0.012177 0.048019 0.031742 -0.031886 -0.31122 0.068407 
-0.039449 0.13319 0.022042 0.040292 0.033222 -0.052109 -0.48764 0.069064 
-0.089431 0.1105 0.052459 0.025001 0.01974 -0.1256 -0.55291 0.01415 
-0.087293 0.094713 0.029112 0.060844 0.068078 -0.098309 -0.30481 0.058049 
-0.093541 0.073339 0.027303 0.061008 0.071202 0.025988 0.12792 0.08419 
-0.06707 0.05624 0.036182 0.045553 0.058213 0.088136 0.40841 0.1368 
-0.025802 0.071366 0.037168 0.010697 0.037826 0.090603 0.39839 0.14469 
0.026646 0.078929 0.023686 0.014479 0.033387 0.08419 0.26883 0.079422 
0.086163 0.053445 0.03388 0.017767 0.0421 0.084355 0.099974 -0.0032777 
0.11263 0.037332 0.036839 -0.0040998 0.039634 0.020891 0.04358 -0.057041 
0.091425 0.051143 0.074161 0.04654 0.013657 -0.010348 -0.018897 0.031578 
0.05213 0.051801 0.053774 0.029769 0.027139 0.013492 -0.10735 -0.028104 
0.015959 0.059528 0.043745 0.058049 0.011355 0.0021479 -0.24973 0.022042 
0.04917 0.067913 0.012999 0.047197 0.035688 0.014808 -0.24201 0.018425 
0.066269 0.019411 0.023686 0.044402 0.01152 -0.0090322 -0.024158 -0.025802 
0.080244 0.0051074 0.02829 0.031249 0.016288 -0.017253 0.21013 0.004943 
0.023028 0.069229 0.031742 0.020069 0.036182 0.0070803 0.31684 0.032729 
0.011191 0.03651 0.037004 0.012013 0.022535 0.038155 0.19944 0.080244 
0.029441 0.027961 0.04358 0.012835 0.027961 0.01415 0.048184 0.095042 
0.053774 0.048019 0.028619 0.0042853 -0.0068948 0.019576 -0.0026201 0.024179 
0.031578 0.088136 0.017603 0.040292 1.0539e-005 0.015959 0.022206 0.0070803 
-0.032215 0.13894 0.022042 0.021549 0.021384 0.025166 -0.0078813 -0.001798 
-0.14451 0.19879 0.024673 0.056076 0.056076 0.01415 0.0074092 0.045553 
-0.17723 0.14897 -0.0088678 0.075312 0.083204 0.048677 0.069393 0.11494 
-0.041257 0.031742 -0.014787 0.017438 0.060679 0.057227 0.044731 0.089287 
0.14963 -0.078415 0.05772 0.015959 0.017274 0.038812 -0.018568 0.025001 
0.1904 -0.044052 0.069722 -0.01676 -0.0059084 0.033222 -0.037311 -0.015116 
0.048348 0.064296 0.027468 0.024015 0.012835 0.079916 0.026317 0.0072447 
-0.033694 0.088301 0.024508 0.025495 0.022371 0.068571 0.072681 0.011355 
-0.057041 0.079258 0.023193 -0.0034422 0.0075736 0.034373 0.063145 0.024837 
-0.094363 0.10244 -0.023665 0.068736 0.0592 0.049664 0.058213 0.045882 
-0.11015 0.13434 -0.052602 0.058213 0.049499 0.013492 0.013164 0.0087245 
-0.11557 0.16623 0.0011614 0.062488 0.037004 0.0072447 0.059857 0.0098754 
-0.062138 0.074161 0.054267 0.028454 0.019411 0.029441 0.27261 0.040785 
0.035524 -0.00015387 0.056569 0.0082312 0.013492 0.056898 0.38046 0.062323 
0.11198 -0.053424 0.044402 0.024508 0.037168 0.063474 0.29267 0.11559 
0.13516 -0.045203 0.014315 0.025824 0.034209 0.11494 0.19303 0.11346 
0.16212 -0.033694 0.023028 0.029441 0.01826 0.089287 0.068242 0.085341 
0.13894 0.025001 0.029276 -0.0014692 0.016123 0.039963 -0.028104 0.032564 
0.09981 0.0079024 -0.0052507 0.014643 0.0070803 -0.039449 -0.13415 0.018754 
0.045389 0.0026412 0.019576 0.04358 0.0085601 -0.063618 -0.026624 0.013657 
-0.04619 0.077778 0.0067515 0.032071 0.027961 -0.036325 0.2371 0.0052718 
-0.094856 0.18399 -0.013471 0.052952 0.043416 0.033058 0.29497 0.016945 
-0.088115 0.20191 -0.037311 0.056733 0.050979 0.086163 0.18826 0.0095465 
-0.064275 0.16015 -0.010841 0.044402 0.038648 0.087643 0.028947 -0.0098543 
-0.038462 0.095206 -0.017746 0.036839 0.038319 0.080738 -0.18216 0.034537 
-0.0044286 0.03651 0.015137 0.03536 0.044402 0.055089 -0.49274 0.01711 
0.028783 0.029934 0.0059294 0.06594 0.036675 0.032729 -0.41842 0.0019835 
0.076299 -0.0090322 0.020891 0.022042 0.016123 0.011191 0.085012 -0.018239 
0.11658 0.069722 0.034702 -0.047998 -0.010348 0.03947 0.51249 0.0028056 
0.018589 0.022371 0.040621 -0.021692 -0.036654 -0.0095255 0.37537 0.0075736 
-0.009361 0.048019 0.034209 0.00297 0.010697 -0.010841 -0.054246 0.029441 
-0.089266 0.075312 -0.00031829 0.052459 0.01415 0.013657 -0.43421 0.10096 
-0.10291 0.068571 -0.0050863 0.024344 0.048841 -0.01117 -0.68461 0.16179 
0.039963 -0.038791 0.069393 0.02122 0.044073 -0.00097594 -0.46101 0.046375 
0.25683 -0.10061 0.093233 -0.015773 0.065283 0.066927 0.01267 -0.11245 
0.36978 -0.076277 0.065118 0.028783 0.090274 0.081231 0.32423 -0.18495 
0.33213 -0.06444 0.029934 0.10458 0.11559 0.076956 0.44771 -0.093212 
0.34298 -0.14221 0.043416 0.06035 0.084684 0.050979 0.38589 0.019576 
0.33081 -0.11903 0.045882 0.041114 0.047855 0.015959 0.23019 0.031742 
0.17593 0.026481 0.020398 0.019905 -0.0024557 -0.0062372 0.077449 0.051472 
-0.039449 0.13483 0.0088889 0.0085601 -0.012814 -0.053095 -0.086636 0.067256 
-0.16391 0.19237 0.03536 0.0014903 -0.017911 -0.041586 -0.32306 0.076956 
-0.16358 0.16179 0.058871 -0.0078813 -0.021034 -0.041422 -0.42303 0.066763 
-0.12248 0.14601 0.099645 -0.030077 -0.017746 -0.016431 -0.22836 0.061666 
-0.0868 0.066269 0.046211 -0.0088678 0.01152 0.043416 0.098494 0.054432 
0.00017495 0.009711 0.016781 0.036675 0.034044 0.0689 0.32802 0.016945 
0.12579 -0.058356 0.038155 0.047197 0.041936 0.050814 0.23183 -0.04619 
0.18859 -0.094034 0.069064 0.02533 0.025988 0.025495 -0.019226 -0.074304 
0.16245 -0.026296 0.03947 0.052294 0.026646 -0.0070593 -0.14747 -0.054904 
0.092247 0.03092 0.019247 0.039141 0.029112 -0.015773 -0.18282 -0.023994 
0.080573 0.042758 0.010697 0.034702 0.029605 0.00099702 -0.14204 -0.026296 
0.04917 0.037497 0.030427 0.046375 0.024508 0.016945 -0.068386 0.018918 
-0.0055795 0.069558 0.045553 0.035688 0.028783 0.016945 -0.073647 0.049499 
-0.034023 0.079422 0.070051 0.036675 0.042265 0.022535 -0.029255 0.1299 
-0.028104 0.087808 0.0592 0.033058 0.027468 0.025495 0.034537 0.21901 
-0.0095255 0.097344 0.031414 -0.003771 0.030427 0.032729 0.060844 0.19649 
0.010862 0.10228 0.024837 0.036017 0.036182 0.024179 0.019576 0.09981 
0.039141 0.08567 0.031578 0.015137 0.035688 0.040128 0.039799 0.0064227 
0.039634 0.059035 0.023851 0.03651 0.025824 0.032729 0.10589 -0.042244 
-0.0067304 0.03388 0.021549 0.0098754 0.0031344 0.018754 0.14733 -0.029584 
-0.011827 0.034537 0.016945 0.016288 0.015794 0.020398 0.14354 -0.032708 
-0.01676 0.06742 0.060022 0.027632 0.009711 -0.029748 0.060186 -0.013307 
-0.019719 0.041936 0.054432 0.014643 0.004943 -0.023994 -0.13004 -0.015773 
-0.044052 0.032729 0.062817 0.067256 0.019411 -0.02794 -0.31057 0.0056006 
-0.042573 0.052787 0.049499 0.028125 0.034209 -0.021034 -0.23198 0.055747 
0.014315 -0.010183 0.053609 0.01974 0.048348 0.021549 0.020727 0.058542 
0.13171 -0.064111 0.070215 0.024508 0.031414 0.046704 0.18383 0.03092 
0.18744 0.02122 0.037004 0.04654 0.045389 0.021384 0.22641 0.030098 
0.098988 0.11707 0.01711 0.068242 0.03799 -0.0011404 0.21062 0.013492 
0.013492 0.16311 -0.0060728 0.044402 0.023357 0.031085 0.17248 0.077449 
0.025495 0.13138 0.013821 0.01974 -0.0031133 0.037332 0.13516 0.058706 
0.086657 0.059857 0.054432 -0.015444 -0.015773 0.0051074 0.13171 0.0786 
0.098659 -0.0080457 0.089452 -0.0057439 -0.010183 0.0083956 0.11214 0.065776 
0.007738 0.043745 0.046704 0.04917 0.032071 0.055418 0.093891 0.037661 
-0.11426 0.09274 0.017767 0.062652 0.031249 0.051308 0.089287 0.044402 
-0.1741 0.14486 -0.021528 0.05065 0.041278 0.044238 0.069886 0.057062 
-0.157 0.13516 -0.0062372 0.018589 -0.0090322 0.047855 0.066105 0.06479 
-0.088608 0.045553 0.027139 0.0098754 0.011355 0.010204 0.16722 0.079422 
-0.046025 -0.016924 0.015465 0.024015 0.015959 0.023686 0.25798 0.12957 
-0.047669 0.0016547 0.01152 0.037661 0.044567 0.031414 0.27491 0.15341 
-0.065262 0.081231 1.0539e-005 0.049335 0.046046 0.016123 0.16738 0.12464 
-0.089595 0.13384 0.024015 0.018589 0.035524 -0.0062372 0.05213 0.12595 
-0.031228 0.097672 0.056898 0.010697 0.01267 0.020891 -0.035174 0.047197 
0.061995 0.070051 0.065612 0.035524 0.025166 0.021878 -0.23461 -0.086964 
0.13878 0.020891 0.047855 0.012506 0.03947 0.038319 -0.28508 -0.16605 
0.18004 0.041772 0.012013 0.059364 0.060186 0.055418 -0.1427 -0.218 
0.14568 0.06035 -0.00015387 0.028783 0.037168 0.050321 0.0059294 -0.16358 
0.075312 0.04917 0.012835 0.017932 0.049992 0.019411 0.06035 -0.071674 
0.082546 -0.03353 0.037004 0.032729 0.058542 0.010697 0.079094 -0.0031133 
0.082217 -0.070852 0.066763 -0.010183 0.011191 0.0082312 0.0085601 0.076627 
0.043745 -0.059178 0.069229 0.00033937 0.00099702 -0.02646 0.043909 0.10704 
-0.012649 -0.0036066 0.045718 -0.0070593 -0.021363 -0.045039 0.040292 0.12201 
-0.029255 0.087643 0.0324 0.01415 -0.01528 -0.03205 0.0051074 0.17528 
-0.048656 0.11806 0.0019835 0.047691 0.022371 -0.00081153 -0.022185 0.15456 
-0.052437 0.11724 -0.003771 0.068736 0.070215 0.063145 0.055582 0.10376 
-0.068057 0.12414 -0.019719 0.10096 0.10195 0.12069 0.2195 0.077778 
-0.033694 0.063145 -0.010183 0.055911 0.090274 0.16031 0.32226 0.1105 
0.12299 -0.050958 0.063639 0.0032988 0.037826 0.11757 0.15735 0.08156 
0.21424 -0.074469 0.10244 -0.019555 -0.018404 0.045718 -0.096172 0.053116 
0.15259 -0.027118 0.10392 -0.041915 -0.032543 -0.05589 -0.089924 0.026317 
0.050814 0.032564 0.052787 0.023028 0.01415 -0.055068 -0.046025 -0.095021 
-0.026296 0.065447 -0.020212 0.020398 0.055911 0.010369 -0.12511 -0.2762 
0.028783 0.0421 0.0090533 0.036182 0.046211 0.051472 -0.19202 -0.35249 
0.10113 -0.023829 0.059528 -0.0073881 0.018589 0.055911 -0.055068 -0.24694 
0.11477 -0.001798 0.068736 -0.01232 0.01974 0.095371 0.10408 -0.018404 
0.023028 0.089123 0.023028 0.04506 0.0324 0.12168 0.12283 0.10918 
-0.069372 0.090109 -0.030242 0.041278 0.065612 0.12283 0.11559 0.2103 
-0.059836 0.048677 -0.018239 0.065447 0.056569 0.12036 0.14075 0.16755 
0.048184 0.014315 0.021549 0.032893 0.054103 0.095371 0.27655 0.097344 
0.15768 -0.036654 0.0026412 0.012999 0.061501 0.11625 0.67444 0.025824 
0.083533 -0.023501 0.025659 0.058706 0.073504 0.07597 0.86927 0.0026412 
0.028619 0.060186 0.0039565 0.028619 0.016945 0.043745 0.63942 -0.011005 
0.028947 0.053116 0.029276 0.027468 -0.0083746 -0.047505 0.19994 -0.001798 
0.026152 0.064132 0.05624 -0.00097594 -0.033365 -0.16621 -0.39376 0.080738 
-0.017911 0.087314 0.069886 -0.0078813 -0.022843 -0.23642 -0.91528 0.21408 
0.00099702 0.080409 0.056898 0.011848 -0.0047575 -0.24036 -1.2776 0.093233 
0.060679 0.034537 0.052952 -0.0029489 -0.0138 -0.18019 -1.4865 -0.075949 
0.093069 -0.0096899 0.066927 0.0067515 -0.025145 -0.053917 -0.97578 -0.088608 
0.14798 -0.066084 0.047033 0.0011614 -0.010676 0.044238 0.015959 0.015137 
0.13072 -0.05737 0.032729 0.03092 0.05213 0.20372 0.71817 0.1054 
0.024344 0.045718 -0.0068948 0.069558 0.072353 0.26653 0.75007 0.066763 
-0.021692 0.082053 -0.0011404 0.046046 0.063803 0.25074 0.43538 0.039634 
-0.059672 0.080738 0.0031344 0.076463 0.058706 0.17741 0.10129 -0.012156 
-0.069536 0.073997 0.015301 0.059528 0.049828 0.1031 -0.22672 -0.020212 
-0.098473 0.159 0.0065871 0.059693 0.035524 0.090274 -0.23099 0.023028 
-0.10423 0.16673 0.011026 0.084848 0.035195 0.067585 0.15094 0.032236 
0.019905 0.044731 0.031249 0.031414 0.017438 0.077778 0.56296 0.010533 
0.21424 -0.093212 0.08304 0.0082312 -0.011827 -0.010841 0.62972 -0.014622 
0.26587 -0.14418 0.1128 -0.028269 -0.041751 -0.11656 0.44294 0.022042 
0.20306 -0.07266 0.082053 -0.009361 -0.027282 -0.13152 0.20701 0.068242 
0.071859 0.070215 0.036017 0.014479 -0.01117 -0.11787 0.030756 0.092082 
-0.035174 0.14124 0.0018191 0.044731 0.022371 -0.069701 -0.10752 0.096357 
-0.09387 0.16229 -0.023829 0.085835 0.032729 -0.070852 -0.23724 0.073175 
-0.093212 0.15735 -0.011992 0.070051 0.027303 -0.078086 -0.39968 0.047197 
-0.053424 0.040128 -0.011992 0.046046 0.0421 -0.056548 -0.44177 0.050321 
-0.052273 0.0054362 0.032071 0.067585 0.045389 0.0080668 -0.3936 0.031742 
-0.056055 0.053281 0.064461 0.031578 0.020233 0.10606 -0.16391 0.032564 
0.025495 0.070544 0.071202 0.042758 0.0054362 0.12135 0.15555 0.022864 
0.14141 0.025495 0.048019 0.027468 -0.042737 0.1026 0.28987 0.037332 
0.21901 0.0014903 0.030756 0.029605 0.0023123 0.05213 0.056733 0.035031 
0.25535 -0.035503 0.04917 0.034537 0.024837 0.012177 -0.32142 -0.041422 
0.15456 -0.0096899 0.034373 0.040128 0.059857 0.015794 -0.33424 -0.040435 
0.080738 0.058213 0.041443 0.072188 0.08419 0.06742 0.016452 0.027796 
-0.023665 0.056569 0.025166 0.06035 0.083697 0.093726 0.25551 0.091589 
-0.052109 0.055254 0.032071 0.064296 0.066269 0.056898 0.31782 0.098659 
-0.036983 0.063968 0.060186 0.036017 0.015465 -0.0014692 0.56428 0.057062 
-0.023336 0.088301 0.073175 0.029605 -0.026296 -0.071345 0.67756 0.048348 
-0.006566 0.09126 0.018754 0.044402 -0.012156 -0.10834 0.45807 0.069558 
0.076792 0.054267 0.035031 0.029441 -0.0050863 -0.088608 0.1197 0.13861 
-0.0077169 0.034537 0.023357 0.037332 -0.0047575 -0.029748 -0.27555 0.16771 
0.017274 0.0074092 0.061995 0.019411 0.0026412 -0.0055795 -0.61375 0.073997 
0.085835 -0.018568 0.056898 0.004943 -0.001798 0.0083956 -1.0552 -0.017088 
0.099481 0.061501 0.053609 0.037004 0.004943 -0.023336 -1.097 -0.16786 
-0.034188 0.090931 0.0062583 0.067091 0.043416 -0.035503 -0.25795 -0.10143 
-0.11146 0.13565 -0.021528 0.1003 0.057555 0.013821 0.52186 0.10129 
-0.16095 0.14469 0.007738 0.065447 0.056076 0.075641 0.79084 0.14042 
-0.049478 0.091589 0.068407 0.011026 0.036675 0.081889 0.7259 0.031907 
0.087643 0.038812 0.081724 0.0069159 0.021384 0.049006 0.40233 -0.11787 
0.15703 0.047855 0.058377 0.020562 0.050814 0.074654 0.10211 -0.14911 
0.13072 0.048019 0.0039565 0.080244 0.10441 0.086657 -0.045696 -0.11442 
0.070051 0.035853 -0.0036066 0.065612 0.084684 0.00050378 -0.1478 -0.061151 
0.023686 0.03799 0.034209 0.026974 0.017932 -0.059836 -0.14188 0.05624 
0.032236 0.0013258 0.058706 0.013657 -0.014787 0.0059294 0.048184 0.12858 
0.074654 -0.065591 0.048841 -0.020541 0.0062583 0.042594 0.1978 0.14897 
0.12513 -0.023172 0.047855 0.045718 0.024179 0.049664 0.1756 0.14996 
0.10639 0.00017495 0.050979 0.00066819 0.022371 0.033387 0.1128 0.089945 
0.060844 -0.0014692 0.076956 -0.013965 0.014972 -0.012485 0.10672 0.06479 
0.023357 0.026646 0.074654 0.01711 0.0018191 0.0018191 0.1909 0.023686 
-0.057205 0.09833 0.013164 0.027139 0.038319 0.049006 0.20701 0.052623 
-0.06296 0.11987 -0.014458 0.071366 0.057391 0.060844 0.12644 0.078929 
0.03388 0.022535 0.035031 0.0052718 0.057555 0.04506 -0.024816 0.0044497 
0.092247 0.0059294 0.073504 -0.03205 0.0227 0.041772 -0.19252 -0.063946 
0.038977 0.0421 0.0324 -0.016266 0.021384 0.028947 -0.21981 -0.11327 
-0.05885 0.11214 -0.012814 0.0028056 0.042429 0.054596 -0.15454 -0.11491 
-0.072332 0.15045 -0.011827 0.056569 0.062159 0.051965 -0.12823 -0.081868 
0.014315 0.090274 0.0059294 0.034866 0.04358 0.077778 0.023686 -0.011334 
0.082217 0.017767 0.048677 0.035688 0.059035 0.13779 0.34972 0.10014 
0.060679 0.037004 0.069886 0.038319 0.07038 0.18744 0.52992 0.19533 
-0.03616 0.047033 0.016288 0.041772 0.039141 0.13039 0.39049 0.20372 
-0.13958 0.10754 -0.02794 0.058213 0.028619 0.030756 0.12201 0.14404 
-0.20107 0.15916 -0.027447 0.019411 0.020398 0.0044497 0.050486 0.053281 
-0.23066 0.13845 -0.034023 0.038483 0.034702 0.050321 0.11822 0.045882 
-0.072332 0.014972 0.0074092 -0.0098543 0.027961 0.015465 0.11214 0.010697 
0.30319 -0.16259 0.11477 -0.074304 -0.021528 -0.14319 -0.0040998 -0.11015 
0.57595 -0.24069 0.15341 -0.055068 -0.043559 -0.23675 -0.095021 -0.21077 
0.50164 -0.12511 0.10704 -0.001798 -0.0026201 -0.18348 -0.37354 -0.15848 
0.18415 0.069886 0.043416 0.053774 0.052787 -0.015444 -0.67047 -0.023336 
-0.087786 0.16377 0.022864 0.03651 0.06742 0.13121 -0.37929 0.098823 
-0.14139 0.13417 1.0539e-005 0.039963 0.078272 0.18596 0.47763 0.16804 
-0.013965 0.038483 -0.0080457 0.04917 0.069558 0.18909 1.0324 0.076463 
0.11346 -0.03616 0.018589 0.016288 0.03947 0.12233 0.77457 -0.10061 
0.15768 -0.060987 0.042429 0.00083261 -0.008539 0.066598 0.23545 -0.11228 
0.098494 -0.031392 0.066269 -0.01939 -0.0040998 0.031907 -0.2402 -0.0022913 
0.00083261 0.063639 0.026152 -0.014787 -0.035832 -0.052273 -0.80775 -0.023501 
-0.040106 0.10211 -0.0013048 0.050979 -0.017911 -0.025802 -1.0698 -0.068714 
-0.042408 0.085341 -0.0078813 0.025166 0.0324 -0.019884 -0.48271 -0.058356 
-0.037476 0.11132 0.010533 0.073997 0.056733 0.049499 0.46201 0.0786 
-0.13349 0.14437 0.0014903 0.028783 0.085177 0.15423 0.87289 0.19221 
-0.19022 0.16903 -0.019555 0.026481 0.044073 0.19912 0.65043 0.24696 
-0.19104 0.19566 -0.020541 0.029441 0.051308 0.13105 0.31996 0.25058 
-0.14846 0.1322 0.0019835 0.0046141 0.042594 0.078107 -0.032379 0.22148 
-0.013143 0.0018191 0.0093821 0.036017 0.020069 0.00017495 -0.23148 0.11526 
0.13861 -0.027447 0.026974 0.00083261 0.023522 -0.083018 -0.25532 -0.025638 
0.2759 -0.10604 0.07597 -0.010348 0.0046141 -0.12725 -0.19252 -0.14007 
0.35745 -0.16309 0.13319 -0.03912 -0.040271 -0.22557 -0.26502 -0.23642 
0.3512 -0.14977 0.11757 -0.06148 -0.069043 -0.26091 -0.16934 -0.21767 
0.24581 -0.063782 0.064461 0.01152 -0.037147 -0.14467 0.42272 0.010369 
0.10754 0.025824 0.01267 0.036839 0.0093821 -0.020212 0.96233 0.14239 
-0.0047575 0.091425 0.025166 0.043251 0.046868 0.10293 0.77703 0.13993 
-0.05441 0.093891 -0.010512 0.065447 0.06035 0.15587 0.076627 0.049335 
-0.031721 0.083697 -0.025309 0.026152 0.036346 0.13286 -0.6144 -0.051451 
-0.039613 0.1077 0.00297 0.037168 -0.001798 0.074654 -1.0049 -0.061809 
-0.045696 0.12102 0.0032988 -0.0070593 -0.0016336 0.041936 -1.0394 -0.069372 
-0.072989 0.11198 0.0054362 -0.0060728 0.0011614 0.023193 -0.75021 -0.0057439 
-0.060658 0.11691 -0.00031829 -0.0029489 -0.013307 -0.014293 -0.35216 0.024508 
-0.034516 0.11576 -0.0021268 -0.0013048 0.0018191 -0.041257 0.043416 0.075312 
-0.031392 0.10869 -0.0095255 0.04095 0.040128 -0.0060728 0.36863 0.18909 
0.02122 0.037168 0.013164 0.024344 0.065118 0.010204 0.48553 0.23726 
0.086492 0.021878 0.018096 0.025659 0.066269 0.017603 0.34758 0.19961 
0.0227 0.049828 0.026152 0.044073 0.068242 0.00083261 0.088136 0.13006 
-0.062302 0.12381 0.0069159 0.035524 0.067256 -0.030077 -0.075291 0.038812 
-0.073318 0.15341 -0.001798 0.053938 0.056569 -0.0072237 -0.11442 0.0044497 
-0.01117 0.046375 0.020562 0.014643 0.0079024 0.017767 -0.15257 -0.017253 
0.059693 -0.059178 0.047691 0.032893 -0.024323 0.019247 -0.12462 -0.012814 
0.12644 -0.063782 0.052952 0.01004 -0.034845 0.0075736 -0.038298 0.0019835 
0.12875 -0.020212 0.020069 0.016123 -0.032872 0.0031344 0.08419 -0.0050863 
0.029934 0.058871 0.0075736 0.051636 0.0056006 -0.0024557 0.17067 0.027139 
-0.099624 0.12595 0.01152 0.041114 0.023851 -0.024487 0.1733 0.06594 
-0.12856 0.12168 0.049992 0.04917 0.038977 0.004943 0.12447 0.095864 
-0.08269 0.11099 0.049006 0.071859 0.092576 0.0024767 0.091425 0.12201 
0.026152 0.03092 0.046868 0.041443 0.059857 0.038977 -0.021856 0.067749 
0.1197 -0.055561 0.051801 0.092576 0.066434 -0.00097594 -0.11278 -0.014787 
0.15555 -0.023172 0.013492 0.053445 0.035688 0.057555 -0.065755 -0.062138 
0.11 0.074654 -0.016924 0.049828 0.034044 0.044402 -0.052273 -0.094527 
0.0041209 0.13203 -0.003771 0.051472 0.043416 0.055418 -0.017911 -0.047505 
-0.05885 0.083533 0.012342 0.052952 0.041772 0.074654 0.040621 0.01415 
-0.061151 0.087972 0.0092177 0.023686 0.041443 0.039141 0.075641 0.079258 
0.010204 0.097837 0.031742 0.0085601 -0.0050863 0.034044 0.080573 0.088301 
0.05624 0.046211 0.079751 -0.0078813 -0.049314 -0.011334 0.053281 0.052459 
0.052952 0.015465 0.11395 -0.037476 -0.040764 -0.016924 0.058871 0.029276 
0.021878 0.032236 0.066598 0.015465 0.030263 0.019905 0.067749 0.01826 
-0.022514 0.031578 -0.010841 0.088301 0.1003 0.10359 0.098494 0.074654 
-0.042079 0.077943 -0.070194 0.13927 0.1368 0.11773 0.12381 0.081724 
0.0085601 0.099316 -0.038956 0.12579 0.13598 0.087643 0.10918 0.038812 
0.10737 0.054432 0.034702 0.038977 0.035031 0.024508 0.071037 -0.01117 
0.14979 -0.028597 0.07449 -0.022843 0.0031344 0.0065871 0.055254 -0.057205 
0.11231 -0.050464 0.093398 -0.027282 -0.028433 -0.017417 0.040621 -0.047012 
0.045718 -0.076277 0.10589 -0.0073881 -0.0062372 0.012342 0.075476 -0.019061 
-0.0060728 -0.025474 0.085835 0.048841 0.022535 0.048019 0.09981 0.038319 
-0.056877 0.060515 0.059364 0.040456 0.049828 0.069064 0.12168 0.080409 
-0.031228 0.076956 0.019576 0.064132 0.06594 0.074161 0.1784 0.046704 
-0.0060728 0.085177 0.0046141 0.052952 0.069229 0.075148 0.1391 0.059364 
0.029112 0.085341 0.010533 0.031085 0.064461 0.026481 0.064625 0.034209 
0.058377 0.061008 0.02122 0.040292 0.01711 0.022535 0.076299 -0.020048 
0.063145 0.050979 0.023686 0.023193 0.021384 0.022371 0.089287 -0.016102 
0.055254 0.093398 0.0054362 0.056076 0.019411 0.024673 0.092576 -0.01528 
0.065776 0.074161 -0.0080457 0.047855 0.049335 0.022042 0.11214 0.015301 
0.12464 -0.040928 0.084355 0.01152 0.032236 0.043745 0.12464 -0.00015387 
0.13795 -0.11935 0.1322 0.01711 0.022864 0.018918 0.11346 0.0024767 
0.10392 -0.065262 0.092576 0.016288 0.047033 0.029112 0.092904 0.012506 
0.045553 0.026481 0.037826 0.071695 0.050321 0.061337 0.11346 0.022042 
0.025988 0.077285 -0.023172 0.066434 0.054267 0.06035 0.10688 0.059364 
0.054432 0.077614 -0.006566 0.054103 0.052623 0.043909 0.029441 0.023357 
0.047526 0.059693 0.049664 0.030592 0.029441 0.017932 -0.0091966 0.021878 
0.016781 0.10836 0.037497 0.009711 0.022864 0.020398 0.013657 0.03947 
0.0064227 0.12792 0.017932 0.04654 0.045224 0.010697 0.053774 0.017603 
0.041278 0.071859 0.011684 0.027303 0.054432 0.016452 0.058377 0.026646 
0.043087 -0.0019624 0.033058 0.011848 0.040785 0.024673 0.021384 0.017274 
0.069064 -0.080388 0.069886 -0.00097594 0.019247 -0.0040998 0.023851 -0.0049219 
0.066105 -0.060494 0.097837 0.013492 0.010862 0.020891 0.083697 -0.0032777 
-0.045532 0.090438 0.10951 -0.011663 0.014808 0.042429 0.15538 -0.0040998 
-0.08384 0.17478 0.030756 -0.010183 0.0031344 0.014808 0.15472 0.023193 
-0.019555 0.11083 0.034373 0.0074092 0.014972 0.021549 0.17281 0.021549 
0.10918 -0.0050863 0.043251 0.023686 0.032729 0.065283 0.15127 0.046868 
0.22312 -0.099789 0.062817 0.016616 0.025495 0.020891 -0.0047575 0.004943 
0.21737 -0.11294 0.068736 0.025166 0.0051074 -0.047505 -0.12001 0.013492 
0.14749 -0.048985 0.044896 0.0014903 0.00099702 -0.087622 -0.18759 0.073668 
0.050814 0.053774 0.011191 0.034044 0.031578 -0.045532 -0.20025 0.13483 
-0.028269 0.12792 0.007738 0.074654 0.066434 0.0092177 -0.10275 0.12628 
-0.092061 0.14683 -0.015444 0.053116 0.073175 0.058213 -0.019061 0.048513 
-0.08384 0.1613 0.013328 0.055911 0.050157 0.086821 -0.053095 -0.029748 
-0.036654 0.11905 0.015137 0.018425 0.038483 0.055911 -0.062138 -0.024816 
-0.0087034 0.014972 0.046868 -0.00031829 0.037168 0.055089 -0.076113 -0.015773 
-0.014293 -0.011498 0.049828 0.0092177 0.035524 0.062159 -0.075784 -0.001798 
-0.0011404 0.01826 0.03651 0.02122 0.033551 0.024508 0.053445 0.046868 
0.051472 0.029934 0.0046141 0.017438 0.014315 0.0087245 0.18021 0.026974 
0.082546 0.029112 0.035195 0.010369 0.010369 0.023851 0.21474 0.086328 
0.03536 0.055418 0.051636 0.031742 0.030756 0.029276 0.29793 0.1003 
-0.031228 0.066434 0.019411 0.025988 0.033387 0.049828 0.20092 0.13861 
-0.097322 0.083368 0.028125 0.0093821 0.014808 0.049499 -0.060987 0.13269 
-0.051615 0.10293 0.048348 0.032236 0.021878 -0.0098543 -0.22852 0.083533 
-0.053424 0.09685 0.035688 0.0087245 0.024179 -0.018075 -0.22622 0.0064227 
-0.042244 0.074326 -0.010512 0.048677 0.017767 0.03388 -0.15536 -0.084169 
-0.0771 0.066434 -0.0021268 0.0098754 -0.01117 0.03388 -0.13251 -0.13925 
-0.049314 0.045718 0.043745 -0.013307 -0.025802 -0.042079 -0.13547 -0.14287 
-0.050464 0.041607 0.027961 0.019247 -0.010676 -0.056712 -0.18364 -0.066741 
0.055747 0.065612 -0.022514 0.053281 0.05624 -0.015444 -0.29347 0.055418 
0.17955 0.0021479 -0.0078813 0.096357 0.073175 0.023851 -0.23822 0.13532 
0.28708 -0.05589 0.041772 0.05624 0.065118 0.035853 0.14552 0.16525 
0.26636 -0.023665 0.071366 0.0227 0.023028 0.038483 0.44327 0.17412 
0.13582 -0.015116 0.10655 0.01563 -0.010676 0.012835 0.38129 0.11691 
0.012506 0.035195 0.060022 -0.0011404 0.011848 -0.0068948 0.12809 0.072681 
-0.047505 0.098494 0.023522 0.03799 0.011684 -0.010676 -0.18627 0.015959 
-0.041093 0.095371 0.017438 0.009711 0.014972 -0.013471 -0.30859 -0.019061 
-0.031721 0.039141 0.024508 0.0031344 0.018589 0.027303 -0.13136 -0.053917 
-0.011334 0.065283 0.010533 0.029112 0.039634 0.062817 0.061995 -0.091732 
0.0046141 0.11461 -0.015773 0.010533 0.030263 0.053281 0.10869 -0.098802 
0.0065871 0.13138 -0.019884 0.055254 0.011026 0.020891 0.11905 -0.10193 
0.0092177 0.086821 0.0036276 0.013657 0.01415 0.026317 0.062652 -0.046025 
0.032893 0.023851 0.021878 0.041114 0.024837 0.0082312 -0.2254 0.074326 
-0.0055795 -0.0080457 0.051636 0.044402 0.027632 -0.0062372 -0.4689 0.20355 
-0.028597 0.0062583 0.058871 0.0421 0.040292 0.013986 -0.30991 0.28231 
-0.020706 0.053774 0.047033 0.05624 0.049006 0.019411 0.086821 0.24663 
-0.013143 0.022206 0.041278 0.019905 0.051308 0.035853 0.33706 0.14453 
-0.014622 0.01563 0.016781 0.0080668 0.024508 0.085177 0.46168 0.083368 
0.025824 0.092576 -0.0088678 0.055911 0.043416 0.042265 0.38211 -0.022514 
0.027632 0.10556 -0.06296 0.055911 -0.0024557 0.032236 0.21243 -0.03353 
0.044402 0.099481 -0.012485 0.067585 0.0227 -0.0064016 0.02681 -0.084005 
0.086821 0.016288 0.031414 0.0044497 -0.0055795 -0.016595 -0.033859 -0.048492 
0.11773 -0.037311 0.089452 -0.018239 -0.024323 -0.04619 -0.17147 -0.017088 
0.015137 0.039963 0.074654 -0.0060728 -0.0016336 -0.043888 -0.42566 -0.076113 
-0.1279 0.14897 0.017603 0.0421 0.032071 0.022864 -0.42977 -0.15273 
-0.17871 0.16558 -0.044052 0.10096 0.10178 0.12398 0.029112 -0.084991 
-0.10258 0.11083 -0.03616 0.06183 0.08978 0.23446 0.47911 0.026481 
0.085506 0.080902 0.037661 0.053445 0.070873 0.24647 0.42749 0.055254 
0.23003 -0.012485 0.069886 -0.0073881 0.033551 0.12447 0.047362 -0.012814 
0.25683 0.027961 0.069886 -0.019884 0.016781 0.0059294 -0.093376 -0.060823 
0.1738 0.028619 0.049992 0.041278 0.017603 -0.033859 0.098988 -0.077922 
0.1756 -0.078908 0.059857 0.0324 0.023522 -0.1307 0.29694 -0.032215 
0.14141 -0.10998 0.049006 0.05476 0.037332 -0.1792 0.40102 0.092247 
0.07449 -0.0072237 0.021878 0.020727 -0.001798 -0.16161 0.32144 0.23151 
0.0024767 0.1026 0.059857 -0.021363 -0.057863 -0.18364 -0.07562 0.28149 
-0.096172 0.12201 0.083368 -0.014951 -0.066577 -0.18989 -0.51921 0.16837 
-0.14993 0.073504 0.046046 -0.020541 -0.015444 -0.057863 -0.62131 0.071037 
-0.05178 0.0018191 0.02533 0.081724 0.073668 0.14716 -0.18463 0.06331 
0.17018 -0.11212 0.0227 0.061172 0.1054 0.26028 0.3295 0.039141 
0.25551 -0.1016 0.044731 0.043416 0.10869 0.27047 0.43505 0.0075736 
0.11642 0.06183 -0.0138 0.092904 0.10129 0.23068 0.3655 -0.037311 
-0.10571 0.20635 -0.048163 0.089452 0.047526 0.13302 0.26176 -0.091568 
-0.16868 0.21556 -0.029091 0.079258 0.027139 0.029112 0.0026412 -0.095843 
-0.1427 0.20849 0.028454 0.0065871 -0.0077169 0.0037921 -0.10867 -0.024158 
-0.06296 0.13532 0.076956 -0.017911 -0.018404 -0.041751 -0.012156 0.064296 
-0.015938 0.071366 0.060186 0.019411 0.017932 -0.02087 0.059693 0.065612 
0.056569 0.021056 0.01974 0.035195 0.052952 0.0060938 0.034044 0.040621 
0.15949 -0.1108 0.042265 0.05624 0.046704 -0.013471 0.23496 -0.0098543 
0.22838 -0.2203 0.088301 -0.0032777 0.02829 -0.023007 0.49079 -0.050464 
0.17495 -0.10982 0.06742 -0.0078813 0.013657 0.029934 0.47517 0.0016547 
0.11625 0.037332 0.034537 0.0047785 -0.0022913 -0.01676 0.23019 0.037168 
0.054432 0.081724 0.029934 -0.026624 -0.01528 -0.10012 -0.11212 0.047033 
0.0014903 0.077943 0.024179 0.034044 0.01415 -0.099953 -0.49044 0.040292 
0.0093821 0.053774 0.021713 0.029769 0.010862 -0.088115 -0.90837 0.029769 
0.04358 -0.010183 0.02533 0.043416 0.051636 -0.097816 -1.0194 -0.010019 
0.01152 0.021056 0.062159 0.01563 0.041936 -0.012978 -0.31665 0.0011614 
-0.043395 0.1105 0.037497 0.0062583 0.060022 0.072517 0.40546 0.083533 
-0.072332 0.10606 -0.0021268 0.044731 0.046046 0.14272 0.68233 0.10869 
-0.026131 0.099152 -0.026789 0.038977 0.037661 0.14404 0.53732 0.092904 
0.023851 0.10277 -0.0019624 0.058871 0.048348 0.14256 0.25798 0.038155 
0.12102 0.047691 0.013164 0.051801 0.069393 0.075805 0.059035 -0.047176 
0.19599 -0.027611 0.053609 0.0059294 0.050814 -0.03764 -0.0082102 -0.035503 
0.15209 -0.041586 0.086657 -0.0024557 0.024344 -0.088608 0.0062583 0.079258 
0.059035 -0.08121 0.099316 -0.0022913 0.027468 -0.057205 0.24564 0.25337 
0.043087 -0.067892 0.078107 0.046046 0.051801 0.051472 0.45412 0.27376 
0.088958 -0.026624 0.066927 0.037826 0.038483 0.13647 0.38392 0.11313 
0.12973 -0.0091966 0.07038 0.046868 0.05624 0.11148 0.039799 -0.04619 
0.086492 0.009711 0.033222 0.039634 0.016945 0.064296 -0.20074 -0.098144 
0.032236 0.03947 0.042265 0.018754 0.011684 0.073832 0.0070803 -0.056383 
0.0065871 0.066598 0.0067515 0.044567 0.013164 0.022206 0.086163 -0.045696 
-0.0075525 0.068571 -0.0034422 0.037004 -0.00081153 -0.087293 -0.21619 -0.1644 
-0.034188 0.10688 -0.0021268 -0.0016336 -0.022843 -0.13316 -0.42599 -0.26256 
-0.07266 0.12464 -0.020541 0.0074092 -0.017746 -0.059836 -0.1792 -0.25795 
-0.12675 0.16097 -0.013471 0.0092177 0.0026412 0.038648 -0.043066 -0.13415 
-0.13547 0.15456 0.048019 0.030756 0.020891 0.12546 -0.30925 0.0047785 
-0.064768 0.072517 0.063145 0.014643 0.045553 0.1909 -0.23214 0.13368 
0.047362 -0.0080457 0.054267 0.048513 0.074654 0.18218 0.41236 0.29645 
0.17051 -0.027775 0.032071 0.052459 0.064461 0.10491 0.63498 0.37274 
0.15949 0.03388 0.045224 0.0093821 0.040456 0.061501 0.16114 0.34314 
0.020398 0.088958 0.018096 0.044567 0.044073 -0.012649 -0.39195 0.23808 
-0.07973 0.14009 0.0026412 0.014315 0.0082312 -0.12823 -0.71075 0.11674 
-0.10949 0.14453 0.032893 0.0074092 0.0032988 -0.15865 -0.63413 0.042923 
-0.056877 0.090274 0.035524 0.011355 0.0059294 -0.10867 -0.27094 -0.030077 
0.047197 0.021878 0.03536 0.016123 0.041443 -0.0068948 0.2371 -0.10275 
0.054432 0.010204 0.0324 0.065612 0.0786 0.089945 0.46678 -0.19531 
0.042429 0.025495 0.03651 0.039799 0.069558 0.1493 0.35514 -0.24891 
0.0056006 0.015137 0.043909 0.026974 0.033551 0.13631 0.12595 -0.20074 
0.059857 -0.02942 0.049335 0.013986 -0.006566 0.067585 -0.06444 -0.08121 
0.17314 -0.11097 0.062488 0.010204 -0.041422 0.031085 -0.058685 0.032564 
0.21326 -0.098638 0.067749 0.022535 -0.0047575 0.047691 0.090438 0.062652 
0.096028 0.065447 -0.00097594 0.02829 0.031742 0.092082 0.25206 0.060679 
-0.059178 0.18695 -0.042408 0.077121 0.071531 0.08567 0.37767 0.11017 
-0.12231 0.19122 -0.033694 0.054596 0.053938 0.028125 0.33509 0.12414 
-0.052931 0.11937 -0.018568 0.053609 0.031578 0.037004 0.21769 0.048677 
-0.0067304 0.023357 0.053445 0.053774 0.0039565 0.061995 0.085177 0.048348 
0.0062583 0.0095465 0.077449 0.042758 -0.022679 0.051308 -0.014787 0.019247 
-0.020541 0.045224 0.063145 0.030756 -0.0077169 -0.0019624 -0.35414 -0.09946 
-0.014129 0.076956 0.043745 0.01563 0.023522 0.0080668 -0.7341 -0.14171 
-0.075127 0.099481 0.00297 0.015794 0.058213 -0.021528 -0.62509 0.0016547 
-0.16325 0.16969 -0.014129 0.042429 0.085012 -0.018075 -0.11245 0.18596 
-0.18972 0.16541 -0.040764 0.046211 0.097344 0.03947 0.1465 0.27129 
-0.1182 0.11707 0.0075736 0.043416 0.082382 0.0088889 0.17084 0.22805 
-0.067235 0.038812 0.01826 0.037661 0.039963 -0.015444 0.17363 0.10359 
0.0056006 -0.0011404 -0.015773 0.073997 0.035853 0.040456 0.17478 0.027468 
0.20767 -0.030735 -0.0011404 0.047855 -0.008539 0.063474 0.14798 -0.020048 
0.39954 -0.080552 0.085341 -0.031228 -0.063618 0.014479 0.13417 -0.095185 
0.35366 -0.029584 0.14486 -0.048492 -0.072167 -0.053753 0.18004 -0.10916 
0.17544 0.010533 0.10474 -0.032708 -0.030077 -0.075949 0.15982 -0.083347 
0.061666 0.045882 0.035031 0.022371 0.0062583 -0.1838 -0.17082 -0.098802 
0.0090533 0.093398 -0.0011404 0.052952 0.038812 -0.21373 -0.48386 -0.10637 
-0.029748 0.065447 -0.050464 0.097015 0.087808 -0.082032 -0.25384 -0.03764 
-0.058192 0.077614 -0.024816 0.08304 0.064625 0.083533 0.22526 0.12332 
-0.076935 0.11494 0.0088889 0.049335 0.047855 0.15111 0.45248 0.19895 
-0.057205 0.055911 0.018754 0.0039565 0.0054362 0.12464 0.37734 0.23381 
-0.11442 0.022535 0.037332 0.0069159 0.025166 0.097837 0.31421 0.28099 
-0.10965 0.013328 0.031907 0.022371 0.042758 0.081067 0.27968 0.2828 
0.029605 -0.072496 0.033715 0.077778 0.079587 0.11461 0.29941 0.19879 
0.24071 -0.10341 0.074819 0.038648 0.075641 0.078929 0.35893 0.045553 
0.3027 -0.023994 0.081724 0.013492 0.053116 0.03092 0.31733 -0.080881 
0.1756 0.066105 0.036839 0.010697 0.017767 -0.0019624 0.19796 -0.12708 
0.058871 0.11231 0.012013 0.018425 0.026481 -0.0057439 0.064954 -0.12725 
0.005765 0.10869 -0.0062372 0.030592 0.013164 -0.035832 -0.12198 -0.11689 
0.044073 0.074983 0.012013 0.023028 0.021878 -0.073647 -0.41464 -0.13793 
0.077449 0.010369 0.014808 0.030427 0.015465 -0.089924 -0.53417 -0.13678 
0.046211 0.047033 0.00099702 0.033551 0.046375 -0.05589 -0.27818 -0.11722 
-0.0013048 0.093726 0.020562 0.035524 0.049499 -0.0013048 0.035688 -0.062631 
-0.017911 0.092576 0.029112 0.045553 0.04506 0.067256 0.24564 0.083862 
-0.030077 0.10178 0.048019 0.03388 0.04654 0.066927 0.31897 0.1978 
-0.0039354 0.080573 0.027961 0.029276 0.026974 0.062817 0.28494 0.23134 
0.012177 0.049992 0.0056006 0.017274 0.02533 0.051143 0.18004 0.18711 
0.011848 0.057391 -0.018404 0.014643 0.016288 0.027303 0.1128 0.10343 
0.0080668 0.096686 -0.0004827 0.030098 0.013657 -0.0026201 0.069886 0.043745 
-0.028104 0.074819 -0.003771 0.0016547 0.038648 0.025166 0.10524 0.058213 
-0.012156 0.042265 0.017274 0.038483 0.051801 0.094548 0.13006 0.018589 
-0.058685 0.055911 0.051965 0.020233 0.043745 0.12365 0.13516 0.021713 
-0.032708 0.044896 0.035688 0.020891 0.044238 0.1294 0.14141 -0.010348 
0.074326 -0.020541 0.058706 0.047197 0.036346 0.10195 0.10425 -0.018075 
0.28264 -0.11179 0.12398 -0.011992 0.023193 0.052952 0.044402 -0.050136 
0.34117 -0.19219 0.15341 0.0011614 0.0069159 -0.0029489 -0.0077169 -0.046847 
0.25978 -0.14254 0.078107 -0.012649 0.015465 -0.038133 -0.040764 -0.029255 
0.20175 -0.03057 0.017274 0.016781 -0.00015387 -0.10587 -0.20896 -0.061809 
0.11559 0.043087 -0.011498 0.043745 -0.043724 -0.14418 -0.38044 -0.071838 
-0.020048 0.12924 -0.018075 0.042594 -0.016266 -0.14747 -0.34296 -0.047012 
-0.18907 0.19665 -0.030406 0.068078 0.018754 -0.062138 -0.18265 0.017767 
-0.25532 0.24301 -0.050958 0.07449 0.06594 0.050157 -0.065097 0.09274 
-0.19104 0.16689 -0.018404 0.048184 0.065118 0.15768 0.061337 0.0786 
-0.008539 0.018918 0.072517 0.0052718 0.036017 0.19895 0.21753 0.033551 
0.12299 -0.078579 0.15176 -0.059014 0.030592 0.20553 0.32012 -0.0014692 
0.18974 -0.12873 0.13631 0.0074092 0.034209 0.16064 0.28691 -0.03501 
0.16492 -0.11097 0.1179 -0.0031133 0.039305 0.098988 0.19583 0.028947 
0.07449 -0.025309 0.057062 0.0085601 0.007738 0.0052718 0.11181 0.11148 
0.0014903 0.030098 0.028947 0.014972 0.011191 -0.037805 -0.023007 0.19402 
-0.024158 0.062981 0.011026 0.016123 0.014643 -0.015773 -0.21175 0.10129 
-0.025309 0.12464 -0.017088 0.07038 0.029769 0.020891 -0.39524 -0.047341 
-0.044546 0.11378 -0.016924 0.061666 0.05213 0.06742 -0.36548 -0.088444 
-0.063618 0.10935 0.0024767 0.060186 0.058871 0.082382 -0.18052 -0.077428 
-0.066577 0.14864 -0.021363 0.051636 0.052623 0.042265 -0.074304 -0.065262 
-0.074962 0.15176 0.015794 0.022535 0.024344 0.0032988 0.015465 -0.02942 
-0.072825 0.14141 0.049664 0.040128 0.0080668 0.029441 0.090109 0.0087245 
-0.026296 0.071366 0.069229 0.012013 0.018425 0.018918 0.08715 0.04917 
0.068407 -0.091075 0.076792 0.01826 0.01563 -0.0072237 0.016123 0.043416 
0.11231 -0.14681 0.080244 0.031578 0.033715 -0.041915 0.0051074 0.065118 
0.12842 -0.042737 0.065612 0.04095 0.034537 -0.13119 -0.11245 0.0028056 
0.12266 0.013328 0.079258 0.023686 0.014643 -0.13875 -0.14648 -0.018897 
0.049499 0.045389 0.037661 0.0075736 0.0227 -0.060329 0.030098 0.035853 
0.011355 0.10096 0.029441 0.049006 0.027139 0.0083956 0.15867 0.090274 
0.052623 0.069064 0.035524 0.044238 0.03947 0.03947 0.17149 0.18695 
0.062652 0.025824 0.053281 0.048841 0.057391 0.097344 0.15423 0.22444 
0.00083261 -0.0019624 0.068407 0.059364 0.040128 0.10343 0.1368 0.14223 
0.018096 -0.030077 0.076627 0.017438 0.017603 0.057227 0.11346 0.036839 
0.1299 -0.047834 0.056076 0.012506 -0.0021268 0.012999 0.13631 -0.029748 
0.17182 -0.00015387 0.033387 0.027632 0.020233 0.033551 0.23331 -0.029255 
0.085177 0.09126 -0.030406 0.068736 0.016123 0.015794 0.25551 -0.00015387 
-0.0072237 0.13121 -0.00064712 0.056569 0.021713 0.048513 0.14026 0.025988 
-0.093212 0.11872 -0.034516 0.044402 0.014643 0.01267 -0.033694 -0.008539 
-0.1159 0.14404 0.0085601 0.072681 0.0046141 -0.021199 0.10885 -0.080059 
-0.080881 0.059693 0.056076 0.028619 0.023193 0.007738 0.42946 -0.077757 
-0.05326 0.038812 0.053609 0.01415 0.034702 0.058213 0.38046 0.066269 
-0.033037 0.075312 0.082053 0.031907 0.048513 0.052294 -0.22688 0.20208 
0.0052718 0.055418 0.081395 0.025824 0.070708 0.085999 -0.68017 0.19353 
0.033551 0.029276 0.069886 0.049828 0.038977 0.13236 -0.75925 0.051472 
0.09126 0.00017495 0.051143 0.016945 0.025824 0.058377 -0.58349 -0.046683 
0.12644 0.0024767 0.037004 0.027468 0.021549 -0.052437 -0.51888 -0.085813 
0.071531 0.056898 -0.0022913 0.054432 0.030756 -0.074469 -0.31418 -0.030077 
-0.0052507 0.13072 -0.026953 0.052294 0.043416 -0.06148 0.043251 0.074326 
