0.13253 0.12776 0.082711 0.12661 0.037168 0.035688 0.026152 0.1853 
0.12184 0.078272 0.027468 0.08715 0.033387 0.015137 0.027303 0.10096 
0.055418 0.025824 -0.041257 0.029769 0.036675 0.027139 0.043416 0.054925 
0.049335 0.059364 -0.066577 -0.014787 0.046868 0.050814 0.051965 0.022864 
0.046375 0.067585 -0.079401 -0.0083746 0.033058 0.044896 0.046211 0.052459 
0.06479 0.070873 -0.066248 -0.013143 0.042758 0.059528 0.047197 0.041607 
0.07449 0.08567 -0.0016336 0.023028 0.044896 0.047526 0.037004 0.057391 
0.053774 0.10622 0.086163 0.087808 0.041443 0.04506 0.049992 0.020891 
0.048841 0.098494 0.18383 0.17166 0.056076 0.041443 0.039141 -0.055397 
0.031249 0.063639 0.2218 0.21539 0.029769 0.004943 0.021549 -0.11787 
0.042265 0.033715 0.15374 0.21638 0.028947 -0.0032777 0.010204 -0.074469 
0.0324 0.048184 0.076792 0.1567 0.015301 0.019247 0.020727 -0.014293 
0.043745 0.048184 0.021549 0.1003 0.026974 0.03536 0.057227 0.09422 
0.066269 0.1179 -0.0077169 0.061666 0.031249 0.05772 0.046375 0.10129 
0.076956 0.090274 -0.012978 0.042923 0.033387 0.032564 0.031907 0.077614 
0.077121 0.072353 0.0324 0.05213 0.0080668 0.042594 0.018754 0.034537 
0.030098 0.026974 0.060186 0.093726 0.03092 0.0227 -0.00064712 -0.0042642 
0.01974 0.023028 0.059528 0.10096 0.027796 0.013657 0.0032988 -0.012814 
0.00033937 0.051965 0.044731 0.093069 0.039963 0.024344 -0.012978 -0.056877 
-0.036489 0.01563 0.030427 0.08008 0.02829 0.04506 -0.048985 -0.089924 
-0.014293 0.0018191 -0.02235 0.036182 0.028125 0.019576 -0.013143 -0.054082 
0.018425 0.021549 -0.024816 0.005765 0.023851 0.031249 0.017767 0.042265 
0.063145 0.054267 -0.028104 0.020727 0.035688 0.060022 0.047362 0.088794 
0.067256 0.051472 -0.018733 0.030592 0.055089 0.092247 0.08419 0.095864 
0.040128 0.012835 -0.03353 0.015794 0.028619 0.043909 0.059364 0.03388 
-0.0004827 0.034702 0.017767 0.040785 1.0539e-005 -0.0095255 0.0786 0.042594 
-0.0029489 -0.0054151 0.0032988 0.045553 -0.013307 -0.018239 0.080573 0.022371 
-0.057863 -0.055726 0.015465 0.043416 0.00083261 -0.012978 0.00066819 0.0080668 
-0.044381 -0.043066 0.030592 0.067256 0.012506 -0.052931 -0.11409 -0.038462 
-0.0040998 0.0034632 0.0075736 0.066927 0.016288 -0.031721 -0.10225 -0.020377 
0.029276 0.011848 0.035688 0.06742 0.021384 -0.0036066 0.004943 0.013821 
0.087479 0.055089 0.060515 0.088136 0.0421 0.044896 0.064296 0.04095 
0.082053 0.075476 0.071531 0.10392 0.032071 0.053609 0.082382 0.030098 
0.03651 0.062323 0.068736 0.098494 0.046375 0.027796 0.069886 -0.014622 
-0.0021268 0.021878 0.055911 0.09981 0.059364 0.031578 0.070051 0.0037921 
-0.0032777 0.0041209 0.018754 0.099645 0.026317 0.036346 0.068242 -0.0027845 
0.024344 0.057884 -0.00015387 0.064461 0.02681 0.01563 0.04654 0.037661 
0.043909 0.062817 0.016452 0.057227 0.02829 -0.0095255 0.0079024 0.035031 
0.0085601 0.061008 0.023851 0.063803 0.016123 -0.0060728 -0.024323 0.049335 
-0.0406 0.046211 0.095371 0.092904 0.029112 -0.0055795 0.022042 0.0014903 
0.026646 0.077449 0.059857 0.1003 0.034537 -0.016595 -0.05441 0.0075736 
0.052294 0.020069 0.020069 0.082711 0.019411 -0.011663 -0.054575 -0.011663 
0.081889 0.03536 0.0059294 0.063145 -0.0021268 -0.00081153 -0.038133 -0.03057 
0.13105 0.05624 0.033058 0.073997 0.036675 0.038319 0.020233 -0.00081153 
0.1174 0.073997 0.041443 0.082053 0.045224 0.039634 0.080902 0.079094 
0.11 0.08156 0.055089 0.079916 0.041114 0.03799 0.060186 0.16607 
0.11477 0.05772 0.090438 0.10737 0.033551 0.032729 0.086821 0.21457 
0.092247 0.0689 0.070215 0.13845 0.038483 0.066927 0.073339 0.18613 
0.033222 0.03536 0.072681 0.12677 0.039305 0.03947 0.0786 0.089945 
-0.033037 0.004943 0.055911 0.10869 0.034209 0.011355 0.065612 -0.0087034 
-0.06 0.01004 0.042758 0.092576 0.0324 -0.0057439 0.032729 -0.061151 
-0.060165 0.04506 0.051965 0.084355 0.005765 0.0087245 -0.0013048 -0.044381 
-0.10719 0.062652 0.089287 0.10967 0.012835 0.009711 0.01004 -0.020212 
-0.085485 0.027139 0.056898 0.13203 -0.0036066 -0.0011404 0.017767 0.0042853 
0.045224 -0.014458 0.075476 0.12349 0.021878 -0.013636 0.014808 0.040456 
0.21917 -0.019719 0.043087 0.10129 0.039634 -0.00015387 0.0023123 0.10869 
0.32506 0.085341 0.044896 0.096521 0.034209 0.03536 0.037332 0.070215 
0.25436 0.23364 0.046868 0.093891 0.031907 0.045389 0.061666 -0.025474 
0.12003 0.24301 0.02681 0.074983 0.046211 0.028125 0.046211 -0.14846 
0.047855 0.13302 -0.060165 0.04506 0.0083956 0.028454 0.013328 -0.15059 
-0.010348 -0.00015387 -0.10604 -0.021034 0.011355 -0.012156 -0.0098543 -0.025145 
-0.0075525 -0.057863 -0.083018 -0.031721 -0.0070593 -0.019226 0.01004 0.055582 
0.041936 0.00050378 -0.033037 -0.0014692 -0.010019 0.0082312 0.044238 0.038648 
0.11099 0.099645 0.09981 0.082217 0.028783 0.056076 0.070051 0.027961 
0.1271 0.12743 0.15045 0.15028 0.051636 0.050979 0.067913 0.10392 
0.083533 0.090931 0.1174 0.18646 0.04095 0.045882 0.058377 0.1105 
0.0054362 0.013657 0.064625 0.13565 0.016288 0.038812 0.048019 -0.015444 
-0.023007 0.0014903 0.048513 0.1077 0.016452 0.043745 0.071695 -0.13645 
-0.0088678 0.035688 0.048348 0.08978 0.020727 0.053774 0.06594 -0.14928 
0.023357 0.058377 0.082382 0.1054 0.055254 0.062488 0.084355 -0.041586 
0.045882 0.037826 0.1054 0.12908 0.063968 0.070051 0.081231 0.098988 
0.040456 0.035688 0.055418 0.13598 0.062652 0.049006 0.020069 0.093726 
0.036182 0.0024767 0.032236 0.095206 -0.014293 0.012999 -0.021856 0.049828 
0.057062 0.037332 0.013821 0.069393 -0.021034 -0.018075 -0.055397 0.063474 
0.084519 0.038319 0.022042 0.0689 -0.017582 -0.0039354 -0.023336 0.10902 
0.093891 0.053609 0.026974 0.058706 -0.0032777 -0.0067304 0.0047785 0.068407 
0.058542 0.072681 0.039799 0.066105 0.011848 0.01563 0.04917 0.017438 
0.03799 0.060186 -0.0013048 0.071531 0.0087245 0.035524 0.077285 -0.0024557 
0.082382 0.055418 -0.0021268 0.058213 0.020891 0.056733 0.090603 0.010369 
0.080902 0.014315 0.029276 0.067585 0.059035 0.075312 0.10458 0.034702 
-0.0070593 -0.039284 0.024344 0.067913 0.030263 0.050321 0.11017 0.0026412 
-0.11541 -0.14681 0.01152 0.051965 -0.0050863 0.030592 0.048677 -0.087622 
-0.18183 -0.16095 -0.020048 0.028125 0.0034632 -0.0096899 0.010862 -0.19087 
-0.11294 -0.0771 -0.052602 0.0324 0.026646 -0.013636 -0.010676 -0.18348 
-0.017911 0.036182 -0.054575 0.0059294 0.028125 0.01826 0.022864 -0.11689 
0.050157 0.066598 -0.014951 0.023851 0.018425 0.035031 0.055747 -0.10012 
0.025166 0.068078 0.012506 0.042265 0.025824 0.011191 0.045224 -0.19663 
0.038483 0.098823 0.048184 0.066763 0.029605 0.011191 -0.013471 -0.11343 
0.026481 0.042758 0.05065 0.073997 0.017603 -0.015773 -0.074304 0.099974 
0.038648 0.030756 -0.0052507 0.075148 0.017932 -0.025474 -0.072825 0.26768 
0.066763 0.01415 -0.078744 0.007738 0.0019835 -0.03912 -0.074469 0.25847 
0.050979 -0.017746 -0.088773 -0.026296 0.00050378 -0.02087 -0.078086 0.20273 
0.027632 -0.087622 -0.13399 -0.069372 0.029276 -0.028104 -0.028104 0.17889 
-0.0088678 -0.087786 -0.109 -0.074962 0.0082312 0.030263 0.026317 0.17051 
0.00066819 0.0085601 -0.03764 -0.035832 0.043909 0.088136 0.042758 0.17232 
0.049992 0.086492 0.021878 0.062488 0.04358 0.10787 0.088958 0.12036 
0.04654 0.10129 0.08156 0.10129 0.042265 0.074326 0.088136 0.12924 
-0.0090322 0.057227 0.097837 0.12365 0.041278 0.049664 0.063474 0.049828 
-0.026296 0.080902 0.11806 0.14502 0.032236 0.035524 0.040785 0.043745 
0.012835 0.10458 0.16097 0.17149 0.026974 0.037168 0.056076 0.010369 
0.028125 0.10359 0.13286 0.16656 0.025988 0.01152 0.058213 0.034044 
0.009711 0.048184 0.027468 0.14141 0.038977 0.0065871 0.028619 -0.11146 
0.024508 0.01004 0.019905 0.093891 0.050979 -0.0078813 0.0062583 -0.14961 
0.037332 0.0074092 0.014808 0.072024 0.040456 0.042265 -0.0095255 -0.092226 
0.010862 0.041607 0.022042 0.065612 0.049664 0.031085 0.0041209 0.012013 
-0.022679 0.082546 0.054925 0.07038 0.039305 0.034209 0.023686 0.076134 
-0.037476 0.048184 0.052952 0.07597 0.041114 0.020398 0.054596 0.11707 
-0.026624 0.021384 0.03092 0.090109 0.045718 0.023522 0.026646 0.088301 
-0.059507 -0.0042642 -0.018404 0.048513 0.0088889 -0.022514 -0.028926 0.099645 
-0.061151 -0.040764 -0.07414 -0.0036066 -0.048492 -0.052437 -0.069865 0.11165 
-0.01939 -0.040764 -0.09798 -0.038627 -0.053753 -0.076277 -0.093048 0.10228 
0.11346 0.029276 -0.069372 -0.034516 -0.018897 -0.024323 -0.044381 0.12546 
0.19024 0.14996 0.0036276 0.012342 0.038812 0.027303 0.028947 0.16311 
0.17297 0.18251 0.033387 0.08419 0.081889 0.087972 0.077778 0.18826 
0.11724 0.20421 0.085999 0.11395 0.064625 0.1054 0.096193 0.14486 
-0.0026201 0.10836 0.12414 0.14552 0.057062 0.074654 0.073668 0.073504 
-0.11853 -0.01676 0.12727 0.15489 0.024179 0.0074092 0.024837 -0.024652 
-0.1552 -0.11705 0.12414 0.15374 -0.0075525 -0.036654 -0.047998 -0.069208 
-0.080552 -0.049314 0.1544 0.18021 0.060515 -0.042573 -0.07266 -0.20205 
-0.030242 0.086163 0.21145 0.25156 0.015465 -0.0072237 -0.088115 -0.27834 
0.11724 0.22263 0.22213 0.26324 0.026317 0.0031344 -0.081045 -0.13333 
0.21062 0.18843 0.095371 0.183 0.028947 0.0087245 -0.029748 0.080573 
0.27244 0.11477 -0.068057 0.048348 0.012013 0.015301 0.045553 0.24515 
0.24384 0.095206 -0.17821 -0.080881 0.010533 0.039799 0.13647 0.23956 
0.19698 0.10063 -0.18857 -0.12922 0.018589 0.074326 0.15275 0.15834 
0.16327 0.1294 -0.16177 -0.078086 0.021713 0.10145 0.14798 0.062981 
0.097837 0.06331 -0.0064016 -0.0073881 0.053774 0.077449 0.088136 0.020727 
0.011848 0.050321 0.12809 0.1054 0.047855 0.061666 0.033387 -0.054246 
-0.059014 0.0031344 0.16492 0.16508 0.053609 0.016616 0.0087245 -0.05326 
-0.13727 -0.036325 0.16985 0.18514 0.048677 -0.020541 -0.00081153 -0.089924 
-0.23444 -0.096172 0.12431 0.16262 0.034702 -0.021034 0.0088889 -0.077757 
-0.18364 -0.054246 0.1276 0.19912 0.015959 0.0088889 0.024837 -0.072003 
-0.083347 0.011684 0.15966 0.20175 0.020891 -0.0057439 0.034044 -0.035174 
0.016123 0.067091 0.14765 0.1955 0.021056 0.0037921 0.030592 0.058049 
0.093726 0.14617 0.12217 0.18218 0.0083956 0.023357 0.039141 0.17232 
0.19632 0.17412 0.041443 0.11494 0.036182 0.088301 0.06742 0.20569 
0.21062 0.16853 -0.022514 0.051308 0.03536 0.094713 0.099316 0.18974 
0.14141 0.13993 -0.06444 0.030263 0.037332 0.069886 0.10244 0.12135 
0.091589 0.11378 -0.033365 0.017438 0.026481 0.013657 0.036182 0.063968 
0.064132 0.017603 -0.019555 0.021384 0.024508 -0.00031829 0.014643 0.081067 
0.097344 -0.010348 0.027796 0.047855 0.012342 0.019905 0.015794 0.14174 
0.16689 0.065283 0.099152 0.09981 0.049664 0.016616 0.051143 0.15357 
0.17412 0.057884 0.14815 0.14552 0.061172 0.030263 0.046868 0.014808 
0.048348 -0.072003 -0.048492 0.072024 0.049828 0.056898 0.035031 -0.25861 
-0.13793 -0.21027 -0.30876 -0.14106 0.00017495 0.0059294 -0.021528 -0.55193 
-0.25154 -0.14352 -0.43174 -0.29429 -0.033201 -0.0026201 -0.0057439 -0.50753 
-0.20912 -0.067728 -0.34444 -0.29692 0.004943 0.03799 0.054925 -0.12873 
-0.070359 0.018918 -0.10423 -0.15043 0.022371 0.0786 0.068407 0.23085 
0.063968 0.1396 0.1909 0.08156 0.03651 0.072024 0.092247 0.26291 
0.1391 0.24269 0.33048 0.2925 0.059528 0.060844 0.10852 0.19024 
0.20355 0.23216 0.33772 0.34544 0.054596 0.063639 0.10754 0.12299 
0.21671 0.15949 0.24055 0.30385 0.037168 0.064296 0.08419 0.093726 
0.12908 0.051801 0.066269 0.17593 0.021878 0.033551 0.082382 0.041772 
0.018754 -0.039449 -0.091075 0.023028 0.013492 0.033058 0.085012 -0.10801 
-0.065591 -0.07825 -0.14698 -0.063453 0.020233 0.031249 0.09833 -0.36877 
-0.069043 -0.028104 -0.1353 -0.059672 0.029934 0.049499 0.082217 -0.39902 
0.012177 0.063639 -0.090253 -0.053753 0.01267 0.011355 -0.014129 -0.072989 
0.065612 0.1031 -0.017911 -0.0050863 -0.010019 -0.030242 -0.11113 0.18826 
0.090438 0.092411 0.025001 0.033058 0.028454 -0.041915 -0.068714 0.29596 
0.080244 0.082711 0.084355 0.084519 0.054267 0.011191 0.0026412 0.21161 
0.077943 0.093891 0.16031 0.17774 0.078107 0.0083956 0.066763 0.15933 
0.027303 0.082875 0.12003 0.18152 0.049664 0.0013258 0.046046 0.084519 
0.0013258 0.052459 0.099316 0.15209 0.052952 -0.017582 -0.02794 0.0056006 
-0.012156 0.10688 0.10622 0.15111 0.039799 0.0090533 -0.109 -0.061645 
0.059857 0.18646 0.14979 0.17462 0.034044 0.024508 -0.055232 -0.0503 
0.12398 0.20043 0.14617 0.17314 0.032729 0.029112 -0.010348 -0.054904 
0.13828 0.094548 0.062981 0.1128 0.0024767 0.026317 -0.011498 -0.043724 
0.027139 -0.073647 -0.067892 0.036346 0.014479 0.051636 0.014479 -0.031064 
-0.046847 -0.18972 -0.11163 -0.026624 0.016452 0.047197 0.074983 -0.020706 
-0.071509 -0.19564 -0.099953 -0.040106 0.031249 0.018425 0.12266 -0.038133 
-0.11837 -0.10242 -0.025638 -0.0042642 0.064625 0.064132 0.15834 -0.073318 
-0.067399 0.028947 0.10195 0.096686 0.082382 0.087479 0.19106 0.03388 
-0.015609 0.10556 0.18744 0.16262 0.062652 0.094877 0.15127 0.10277 
0.04506 0.12349 0.18826 0.21457 0.060515 0.049006 0.10244 0.25863 
0.067585 0.095206 0.11592 0.17922 0.028783 -0.0057439 0.033387 0.27836 
0.059528 0.052623 0.098988 0.15653 0.037497 -0.030242 -0.047012 0.171 
0.058049 0.070051 0.093891 0.14289 0.00297 -0.063289 -0.091897 0.022042 
0.078272 0.090109 0.07301 0.12085 -0.011992 -0.08384 -0.10472 0.04917 
0.10754 0.12776 0.06183 0.1105 -0.0024557 -0.076606 -0.055068 0.080902 
0.061666 0.075148 0.070708 0.12036 0.011026 -0.019555 -0.020377 0.10096 
-0.057699 0.030427 0.024837 0.092082 0.034373 0.023028 -0.013471 0.080409 
-0.13201 0.0085601 0.057884 0.099481 0.025659 0.013492 -0.013307 -0.0096899 
-0.077593 0.020398 0.14453 0.15538 0.028125 0.010204 -0.028269 -0.19712 
0.00033937 -0.0075525 0.16903 0.18383 0.037004 0.0090533 -0.070359 -0.46758 
0.092411 0.033058 0.11494 0.15456 0.026152 0.0042853 -0.12149 -0.60454 
0.18974 0.10244 0.087808 0.14946 0.040621 0.014479 -0.087622 -0.24727 
0.22723 0.15193 0.052787 0.12102 0.045224 0.047691 0.0080668 0.41384 
0.13927 0.096357 -0.051944 0.037826 0.0032988 0.040456 0.05065 0.79824 
-0.0004827 0.005765 -0.15684 -0.057534 -0.011663 0.050814 0.079094 0.88883 
-0.047176 -0.029913 -0.14106 -0.076277 -0.010019 0.059364 0.054925 0.65536 
-0.051615 -0.012649 -0.072989 -0.059014 0.042265 0.040785 0.036839 0.28445 
-0.094363 -0.03057 -0.050958 -0.024323 0.071695 0.048841 0.026152 0.038155 
-0.072989 -0.0095255 -0.018239 0.017767 0.029769 0.082217 0.076299 -0.018075 
-0.034023 -0.0055795 0.072188 0.078436 0.028783 0.057555 0.065447 -0.027282 
0.013492 0.053774 0.15637 0.15292 0.028783 0.03092 0.039305 -0.21422 
-0.0039354 0.09274 0.17873 0.19731 0.031249 0.024344 0.041114 -0.49159 
-0.063289 0.03536 0.14683 0.17495 0.013328 -0.0096899 0.058213 -0.46479 
-0.036818 0.0031344 0.10228 0.15785 -0.028104 -0.052931 0.018425 -0.19844 
0.030592 0.00297 0.076956 0.14979 -0.025967 -0.039449 -0.024816 0.059693 
0.026152 -0.036983 -0.00064712 0.081395 -0.0096899 -0.020212 -0.0083746 0.30878 
-0.048327 -0.071345 -0.10801 -0.0060728 -0.017417 0.00066819 0.020233 0.41088 
-0.066248 -0.085813 -0.12231 -0.048985 0.050321 0.034209 0.024015 0.3535 
-0.049149 -0.021692 -0.049642 -0.037147 0.012506 0.069064 0.028783 0.15259 
0.0019835 0.084684 0.0059294 0.019411 0.027303 0.06331 0.021384 0.072353 
0.025495 0.10737 0.022864 0.067256 0.029605 0.054432 -0.048327 0.053116 
0.070544 0.074819 -0.010183 0.044567 0.034702 0.042923 -0.028104 0.047197 
0.095206 0.053609 -0.10357 -0.026131 0.025166 0.032893 -0.023665 0.048841 
0.070051 0.037661 -0.21027 -0.11491 -0.016102 0.014643 -0.039449 0.062159 
0.084519 0.05213 -0.18265 -0.13793 -0.04471 0.025659 -0.0019624 -0.0054151 
0.079916 0.081889 -0.10834 -0.095185 -0.023994 0.016123 0.049828 -0.26272 
-0.0011404 0.080902 -0.056219 -0.023172 0.0098754 0.019905 0.081067 -0.73854 
-0.049971 0.082382 -0.034845 -0.0026201 0.032071 0.045553 0.058706 -0.69595 
-0.010512 0.0059294 0.043909 0.050979 0.03092 0.038155 0.039634 0.057555 
0.011191 -0.052437 0.063474 0.08304 0.030756 0.035524 0.056733 0.57562 
-0.069865 -0.066248 0.041607 0.0689 0.0021479 -0.00031829 0.070544 0.46168 
-0.051122 -0.040271 0.0095465 0.055911 0.0085601 -0.012814 0.10655 0.043087 
0.0082312 0.050979 -0.033859 0.05065 0.01415 -0.010183 0.077449 -0.11459 
0.071695 0.14568 0.037332 0.073668 0.019083 -0.032379 -0.0029489 -0.15109 
0.094548 0.16689 0.067913 0.097672 -0.0031133 -0.050464 -0.089102 -0.16983 
0.034866 0.12233 0.1225 0.14141 0.0075736 -0.031886 -0.072332 -0.21603 
-0.00064712 0.076956 0.18119 0.18136 0.034537 0.017274 -0.016431 -0.11261 
0.032729 0.0786 0.18678 0.20651 0.047855 0.025001 0.047855 0.084519 
0.07449 0.086821 0.099316 0.1909 0.070873 0.025166 0.09981 0.20405 
0.066434 0.081067 0.021384 0.11181 0.045224 0.048348 0.092576 0.077285 
0.050814 0.068407 -0.0088678 0.064132 0.038812 0.085835 0.10902 0.028947 
0.057884 0.053774 0.0065871 0.053445 0.02829 0.075641 0.056404 0.020398 
0.013986 -0.036818 0.01826 0.050157 0.0067515 0.064296 -0.013471 0.0072447 
-0.043724 -0.047998 -0.0055795 0.033058 0.032071 0.046375 -0.025802 -0.047341 
-0.071674 -0.015609 -0.073811 0.019905 0.032071 0.049335 0.0062583 -0.10735 
-0.16292 0.018754 -0.083018 -0.017582 0.0052718 0.010533 0.036017 -0.10834 
-0.19137 0.01267 -0.073976 -0.025145 -0.0055795 -0.0083746 0.019905 -0.067564 
-0.13991 0.025166 -0.036489 -0.0036066 -0.004593 0.015794 0.036346 0.0074092 
0.025001 0.051636 0.072353 0.059364 0.0227 0.037497 0.070051 0.0088889 
0.27409 0.095371 0.17034 0.15703 0.056404 0.055911 0.14371 0.045553 
0.40315 0.19879 0.19353 0.23298 0.058213 0.042758 0.12414 0.25173 
0.31881 0.22444 0.20717 0.24121 0.02533 0.00297 0.022042 0.54439 
0.099152 0.13187 0.1664 0.21983 0.033551 -0.025638 -0.040271 0.4459 
-0.10752 -0.028926 0.11181 0.17774 0.023686 -0.080552 -0.10143 0.081395 
-0.085485 0.012506 0.17363 0.19205 0.033058 -0.048327 -0.10719 -0.157 
0.14009 0.232 0.28823 0.26176 0.070544 0.013164 -0.050629 -0.054575 
0.29744 0.35547 0.23627 0.29661 0.04095 0.024673 0.036839 0.15193 
0.25567 0.2851 0.13976 0.22707 0.044567 0.035031 0.077285 0.30746 
0.13976 0.1373 0.062652 0.15209 0.027303 0.038319 0.051143 0.33985 
-0.054575 0.024508 -0.033694 0.060844 0.025988 0.026646 0.046704 0.21654 
-0.11475 -0.077264 -0.069701 -0.012156 -0.010348 0.036675 0.065612 0.061337 
-0.10916 -0.11508 -0.040928 -0.010183 -0.016595 0.017767 0.049992 -0.15026 
-0.089595 -0.15224 -0.051122 0.013492 -0.011827 -0.014129 0.0090533 -0.19992 
-0.081539 -0.1575 -0.014622 0.024673 0.032071 0.030263 0.013328 -0.038956 
-0.059507 -0.11705 0.014972 0.048841 0.086328 0.048513 0.044731 0.023522 
-0.053095 -0.047834 -0.011663 0.037497 0.074326 0.060515 0.093233 -0.3275 
-0.070194 0.097837 -0.012485 0.023851 0.042429 0.062488 0.12085 -0.71059 
-0.048163 0.18136 -0.063618 -0.012485 0.047855 0.074983 0.12497 -0.60454 
0.09274 0.12118 -0.14369 -0.035996 0.042594 0.082546 0.11033 -0.10357 
0.23446 0.056076 -0.12856 -0.062796 0.034866 0.058542 0.069229 0.40957 
0.32522 0.097672 -0.037147 -0.017088 0.032564 0.034537 0.049664 0.72606 
0.30796 0.14683 0.075476 0.065612 -0.0040998 0.040456 0.017274 0.60768 
0.20799 0.14239 0.1465 0.13023 0.015794 -0.0022913 0.0028056 0.27376 
0.081724 0.083697 0.17445 0.18514 0.021549 -0.045696 -0.035667 -0.038791 
0.024179 0.076134 0.14733 0.2172 0.0092177 -0.052109 -0.0503 -0.07266 
-0.0060728 0.067749 0.14798 0.20257 0.0085601 -0.028104 -0.039449 0.06183 
-0.058356 0.052459 0.13894 0.18974 0.01826 0.017767 -0.00031829 0.097015 
-0.072825 0.023522 0.087808 0.15472 0.0324 0.044731 0.049664 0.1294 
-0.047505 -0.0095255 0.026481 0.093562 0.061995 0.10063 0.075805 0.091589 
0.014808 -0.015609 0.012999 0.057227 0.0689 0.11872 0.077449 0.062323 
0.034373 -0.040435 -0.029748 0.057391 0.071859 0.099481 0.082546 0.013492 
0.025824 -0.017582 -0.061809 0.011355 0.070544 0.099152 0.07597 0.033222 
0.054925 0.013821 -0.094527 -0.022514 0.069886 0.0786 0.076463 0.0023123 
0.093069 0.079422 -0.036818 -0.0049219 0.064461 0.11296 0.13302 0.029441 
0.12266 0.098823 0.062817 0.061008 0.083862 0.13828 0.22361 0.027796 
0.030427 0.092904 0.10244 0.10408 0.051472 0.1345 0.24236 -0.041093 
-0.056383 0.01152 0.061501 0.11526 -0.0047575 0.10063 0.26784 -0.11705 
-0.07414 -0.031392 0.0044497 0.07301 0.0069159 0.075641 0.19353 -0.11524 
-0.020212 -0.040271 -0.042737 0.028947 0.005765 0.0018191 0.037004 -0.14237 
-0.040764 -0.092719 -0.047505 0.0067515 0.010697 -0.066577 -0.10275 -0.37962 
-0.081374 -0.11376 -0.03501 -0.0036066 0.040785 -0.099131 -0.13826 -0.50737 
-0.045532 -0.06148 -0.020706 0.0062583 0.052459 -0.05737 -0.015116 -0.133 
0.074161 0.073339 0.034866 0.077449 0.056898 0.019083 0.16574 0.41137 
0.16969 0.11181 0.096686 0.11543 0.018918 0.023686 0.26554 0.46267 
0.20421 0.076299 0.076792 0.11411 0.033222 -0.058192 0.14371 0.3022 
0.14568 -0.0032777 -0.026296 0.054596 0.01004 -0.17525 -0.28919 0.070544 
0.077778 -0.00064712 -0.056219 0.0032988 -0.017088 -0.24086 -0.67589 -0.14402 
0.049992 -0.025309 -0.1307 -0.052766 -0.06296 -0.16506 -0.59615 -0.10028 
0.0786 0.011355 -0.19778 -0.096172 -0.004593 -0.029255 -0.22803 0.086821 
0.1197 0.082053 -0.23839 -0.15931 -0.028269 0.08715 0.057391 0.19303 
0.11395 0.050321 -0.23 -0.17131 -0.010841 0.13795 0.21161 0.070544 
0.06183 0.020398 -0.13349 -0.11672 0.046704 0.14338 0.22986 -0.068057 
0.0041209 0.0079024 0.0024767 -0.022514 0.048348 0.10655 0.14552 -0.08121 
-0.13021 -0.059507 0.13236 0.088958 0.053609 0.078929 0.080902 -0.055232 
-0.27111 -0.095021 0.21523 0.22263 0.053445 0.064625 0.064954 0.0054362 
-0.20764 0.0054362 0.3387 0.32391 0.092576 0.038648 0.06183 0.11559 
-0.054082 0.13697 0.34084 0.36024 0.094713 0.024508 0.021878 0.26866 
-0.018733 0.13138 0.22592 0.30122 0.069722 0.032729 -0.018239 0.43949 
0.092247 0.1396 0.062817 0.16985 0.018096 -0.022679 -0.067892 0.38507 
0.1756 0.18826 -0.023336 0.069229 -0.003771 -0.047669 -0.056383 0.22279 
0.18942 0.18547 -0.0075525 0.071366 -0.0062372 -0.049478 -0.0503 0.13828 
0.11806 0.079587 0.049335 0.087314 -0.0032777 -0.048163 -0.058356 -0.024487 
0.049499 -0.0050863 0.04917 0.086492 -0.034516 -0.060987 -0.07414 -0.47597 
-0.0011404 -0.0090322 0.027632 0.075148 -0.039942 -0.059836 -0.064933 -0.79822 
0.0064227 0.033551 0.019411 0.060679 -0.027775 -0.049149 0.0014903 -0.88092 
-0.058521 -0.095678 -0.00031829 0.038155 -0.019061 -0.05441 -0.016102 -0.7438 
-0.072989 -0.10998 -0.08532 0.011355 -0.027611 -0.076277 -0.05178 -0.22014 
0.043087 0.01004 -0.10489 -0.028269 -0.008539 -0.038791 -0.067728 0.37241 
0.097508 0.057555 -0.11343 -0.050793 0.034702 0.01974 -0.046354 0.5702 
0.058542 0.029605 -0.090417 -0.04882 0.07449 0.079258 -0.023829 0.49424 
0.069722 0.075476 -0.015938 -0.0070593 0.071695 0.071366 -0.034188 0.49259 
0.026317 0.1128 0.088136 0.065118 0.060022 0.018589 -0.054739 0.63777 
-0.042737 0.07597 0.10474 0.13647 0.0421 -0.034845 -0.091239 0.52614 
-0.036325 0.055582 0.12513 0.1567 0.042758 -0.001798 -0.012156 0.098494 
-0.0052507 0.024015 0.10852 0.15094 0.014315 0.020398 0.037168 -0.19761 
-0.012485 0.0016547 0.076956 0.1299 0.0018191 0.015465 0.061172 -0.24069 
-0.0004827 0.01152 0.12266 0.13631 0.0018191 0.018425 0.070873 -0.1917 
0.041607 0.095535 0.14223 0.15982 0.041278 0.056404 0.10902 -0.13925 
0.093069 0.14124 0.085835 0.15982 0.039141 0.084519 0.13828 -0.10275 
0.087972 0.097344 -0.019719 0.071531 0.017438 0.06035 0.069229 -0.16062 
0.036839 0.038977 -0.11672 -0.019884 0.00099702 0.033387 -0.022185 -0.13218 
0.012835 0.027468 -0.14993 -0.073976 0.020069 0.03651 -0.032872 -0.014458 
0.056076 0.1248 -0.050958 -0.033201 0.066598 0.069558 0.034537 0.13779 
0.092411 0.1932 0.11609 0.074654 0.073504 0.091753 0.086985 0.23907 
0.15538 0.23397 0.22033 0.20306 0.08978 0.11 0.14733 0.27014 
0.2098 0.25798 0.23134 0.24449 0.079094 0.15176 0.25008 0.21128 
0.16607 0.092247 0.21819 0.25255 0.055254 0.18169 0.25123 0.086657 
0.020891 -0.057534 0.1636 0.21983 0.026152 0.20503 0.317 0.017767 
-0.08828 -0.13201 0.095371 0.16031 0.045718 0.17807 0.32769 -0.15964 
-0.15717 -0.10669 0.043909 0.10145 -0.017088 0.13483 0.27228 -0.41398 
-0.17871 -0.060987 0.0056006 0.08156 -0.023665 0.051143 0.14831 -0.65452 
-0.10456 -0.040435 -0.022843 0.047526 -0.026131 0.0095465 0.070051 -0.49767 
0.047855 0.0018191 -0.0036066 0.045389 0.022042 0.0023123 0.079916 -0.14155 
0.15292 0.074983 0.057227 0.070708 0.061666 0.064132 0.067913 0.27524 
0.2223 0.10606 0.096357 0.10524 0.079751 0.055089 0.07449 0.6455 
0.25847 0.12184 0.12414 0.13335 0.10392 0.034866 0.054432 0.68627 
0.20536 0.1465 0.12233 0.16541 0.077121 -0.0059084 0.027303 0.44837 
0.066105 0.14568 0.10787 0.15555 0.038483 -0.061645 -0.1233 0.27721 
0.020727 0.10162 0.12233 0.16081 -0.0029489 -0.18002 -0.33358 0.16212 
0.095371 0.12299 0.098659 0.14585 -0.052602 -0.23609 -0.48764 -0.0057439 
0.10704 0.11921 0.13088 0.14634 -0.034845 -0.090417 -0.33046 -0.10505 
0.046375 0.06594 0.15538 0.16936 0.024179 0.0689 0.055254 -0.13695 
0.00297 0.037332 0.14157 0.20224 0.051636 0.18925 0.27064 -0.083183 
0.046704 0.038648 0.12677 0.18448 0.079916 0.21358 0.32571 -0.03205 
0.074819 0.0044497 0.079422 0.14617 0.069064 0.18909 0.24976 -0.16177 
0.074326 -0.050136 0.010369 0.086657 0.047197 0.14716 0.19862 -0.24283 
0.099481 0.015301 -0.0042642 0.050814 0.05065 0.088136 0.15259 0.064296 
0.18925 0.095042 -0.032708 0.017274 0.059364 0.0018191 0.083368 0.28658 
0.1853 0.082875 -0.09387 -0.0138 0.057884 0.011684 0.12217 0.26866 
0.11543 -0.019884 -0.1741 -0.087293 -0.0049219 -0.0078813 0.06742 0.12283 
0.0051074 -0.072496 -0.19416 -0.12807 -0.02794 -0.019884 0.022371 -0.011992 
-0.049478 -0.008539 -0.14139 -0.11442 -0.047176 -0.01676 -0.01676 -0.063782 
-0.038133 0.022206 -0.031064 -0.045696 -0.03353 -0.0026201 -0.016595 -0.045696 
-0.08121 0.032071 0.041607 0.02681 -0.0083746 0.010697 0.0083956 -0.13481 
-0.070852 -0.039613 0.054103 0.076299 -0.0072237 0.018425 0.013492 -0.13481 
0.018918 -0.070194 0.073339 0.10408 0.01415 0.004943 0.015137 -0.017088 
0.11642 -0.0090322 0.11 0.13532 0.031742 0.0088889 -0.0039354 0.13253 
0.16212 0.032893 0.093069 0.13516 0.044238 -0.019061 -0.069043 0.15637 
0.030263 0.13236 -0.013965 0.059857 0.025001 -0.071016 -0.14944 0.25551 
-0.042901 0.18251 -0.11212 -0.030899 0.0042853 -0.15289 -0.19844 0.53189 
-0.090253 0.18514 -0.058192 -0.018897 -0.0040998 -0.18413 -0.24793 0.44705 
-0.06296 0.12085 0.016945 0.036839 -0.0068948 -0.14895 -0.24842 -0.0039354 
0.076792 0.069229 0.027632 0.055582 -0.00064712 -0.085485 -0.19942 -0.16391 
0.17856 0.0088889 0.0082312 0.049335 0.0072447 -0.016102 -0.047012 -0.0034422 
0.15324 -0.10571 -0.096829 -0.022185 0.031907 0.026646 0.066269 0.009711 
-0.011005 -0.13645 -0.069208 -0.037805 0.0046141 0.058377 0.08863 -0.13168 
-0.12264 -0.079072 0.01563 0.036346 0.037168 0.069064 0.10491 -0.53877 
-0.18709 -0.029255 0.089452 0.1008 0.022042 0.063639 0.07038 -0.99255 
-0.06 0.020398 0.12184 0.14042 0.033387 0.076463 0.10967 -0.68296 
0.082875 0.047197 0.057391 0.11263 0.034537 0.0689 0.10573 -0.030899 
0.14437 0.10524 -0.0042642 0.061008 0.0056006 0.029112 0.072353 0.34742 
0.17626 0.23315 0.00066819 0.038319 0.011191 -0.014458 0.055911 0.42107 
0.21786 0.21934 0.047362 0.079258 0.051636 0.041607 0.036675 0.41779 
0.19665 0.19583 0.057884 0.10211 0.068571 0.06594 0.012835 0.43456 
0.13845 0.13976 0.055254 0.099481 0.078272 0.045224 -0.029748 0.45198 
-0.041751 -0.019884 -0.047505 0.031907 0.021056 0.020562 0.0227 0.50147 
-0.17789 -0.14878 -0.24069 -0.11919 -0.04882 0.010862 0.052623 0.49391 
-0.14484 -0.16062 -0.3571 -0.24316 -0.049642 0.039799 0.11411 0.13253 
-0.1016 -0.12938 -0.33819 -0.26272 -0.016266 0.050486 0.15522 -0.2933 
-0.14467 -0.078908 -0.18413 -0.17328 0.023851 0.036017 0.13582 -0.44687 
-0.14303 0.0070803 0.11395 0.037168 0.066434 0.048019 0.084026 -0.27933 
-0.16884 0.047526 0.29941 0.22131 0.069886 0.072517 0.086492 -0.18824 
-0.15372 0.050486 0.28067 0.28675 0.061501 0.069886 0.14617 -0.13086 
-0.10637 0.042594 0.18843 0.2366 0.032564 0.019411 0.092904 -0.068879 
-0.055561 0.049006 0.064296 0.15851 0.0095465 0.0036276 -0.016266 0.086657 
0.042594 0.10014 0.01563 0.11132 0.018918 -0.0059084 -0.19005 0.18826 
0.067913 0.07301 0.047691 0.10113 -0.006566 -0.083347 -0.31698 0.10491 
-0.010348 0.040456 0.085999 0.11839 -0.021034 -0.093705 -0.28393 0.01415 
0.046704 0.060515 0.13351 0.15834 0.0051074 -0.039613 -0.13908 0.079587 
0.14552 0.066598 0.17067 0.18432 0.034866 0.047855 -0.047012 0.21868 
0.25617 0.11 0.14535 0.18678 0.078107 0.10228 0.0592 0.24137 
0.25354 0.16475 -0.012485 0.10918 0.088958 0.13861 0.16738 0.17626 
0.17149 0.10737 -0.16736 -0.03501 0.077778 0.14437 0.22394 0.14371 
0.1105 0.0092177 -0.24875 -0.13875 0.057391 0.14404 0.23496 0.0324 
0.052459 0.00297 -0.26338 -0.18578 0.014643 0.090603 0.19796 -0.17493 
0.043087 0.030427 -0.14073 -0.14122 -0.017417 0.0052718 0.15555 -0.16473 
0.06183 -0.001798 0.043087 0.0014903 -0.02498 -0.0004827 0.13483 -0.00015387 
0.06479 0.059693 0.17807 0.16903 0.01974 0.039141 0.11543 0.048841 
-0.032708 0.062323 0.19435 0.2103 0.036017 0.052952 0.073504 -0.12757 
-0.18216 -0.04471 0.097672 0.16525 0.038483 0.013164 0.025659 -0.37239 
-0.29528 -0.097816 0.025659 0.10408 0.059364 0.0227 -0.0014692 -0.66866 
-0.22918 0.016123 0.11181 0.13286 0.10704 0.073339 0.0018191 -0.75876 
-0.15996 0.067256 0.1659 0.17758 0.079751 0.050979 -0.030077 -0.2596 
-0.1279 -0.010019 0.12562 0.19468 0.033715 0.0059294 -0.032215 0.33229 
-0.06444 -0.033365 0.11313 0.17067 -0.0029489 -0.040271 -0.02794 0.54702 
0.057555 0.034044 0.15176 0.18662 0.036017 -0.0032777 -0.011334 0.49358 
0.13286 0.1225 0.15357 0.18909 0.084355 0.0087245 -0.0095255 0.62117 
0.11855 0.16294 0.16689 0.19221 0.03947 0.0083956 -0.019884 0.81386 
0.19468 0.15341 0.159 0.19501 -0.020541 -0.022021 -0.039942 0.55606 
0.25403 0.1733 0.10951 0.19533 -0.032708 -0.038791 -0.053917 0.22033 
0.21556 0.12036 0.08715 0.15571 0.018096 0.04095 0.030098 0.083204 
0.084355 0.053609 -0.017911 0.075148 0.079587 0.077943 0.043251 -0.19219 
-0.044052 -0.00031829 -0.063618 0.014808 0.058049 0.06742 0.020562 -0.43881 
-0.096994 0.0014903 -0.057863 -0.016266 -0.030242 0.01415 -0.025967 -0.52135 
-0.10012 -0.070687 -0.066906 -0.027775 -0.080717 -0.10176 -0.094199 -0.64186 
-0.054082 -0.049314 -0.027611 0.032729 -0.036654 -0.055561 -0.055068 -0.77767 
0.047033 0.10639 0.11017 0.11165 0.038977 0.045389 0.066763 -0.56442 
0.14765 0.21079 0.21112 0.20158 0.10918 0.1516 0.1738 -0.053424 
0.171 0.17856 0.1756 0.2075 0.087643 0.16656 0.19665 0.28823 
0.14765 0.066434 0.070215 0.15061 0.065776 0.12447 0.1733 0.58549 
0.06183 -0.041586 -0.077922 0.028125 0.02681 0.01826 0.084026 0.46448 
-0.069865 -0.12133 -0.1917 -0.04882 -0.016102 -0.026953 0.033222 -0.076771 
-0.16983 -0.09798 -0.11722 -0.062138 -0.018733 -0.076113 0.015465 -0.37863 
-0.13695 0.00017495 -0.02498 -0.01117 -0.017253 -0.058028 0.031085 0.087643 
-0.079401 0.086821 0.018096 0.037168 0.031249 -0.033037 0.076956 0.50904 
-0.099953 0.054103 0.013821 0.041443 0.047526 0.029605 0.097508 0.56264 
-0.071181 0.065447 0.0031344 0.040621 0.083533 0.03947 0.070873 0.35843 
0.017438 0.032564 -0.042408 0.046868 0.054596 0.0093821 0.027632 0.050814 
0.047033 0.044402 0.092082 0.10326 0.0046141 -0.037311 -0.036983 -0.13892 
0.079258 0.041607 0.16936 0.17018 0.0047785 -0.044874 -0.093212 -0.16407 
0.12102 0.042429 0.20142 0.21309 0.01974 -0.019555 -0.10489 -0.073647 
0.17166 0.093726 0.15768 0.19649 0.057391 0.041607 -0.017746 0.071366 
0.2218 0.056733 0.07038 0.13582 0.076299 0.090767 0.13105 0.15982 
0.21326 0.018918 -0.063618 0.068078 0.02122 0.14519 0.20816 0.159 
0.094877 0.073339 -0.090088 -0.001798 0.018918 0.12579 0.16722 0.071531 
-0.060494 0.12694 -0.02087 0.016452 0.032071 0.069229 0.067091 -0.06707 
-0.19794 0.064625 0.04095 0.059528 0.048677 0.030592 0.034209 -0.13678 
-0.24908 -0.016595 0.063145 0.078929 0.059857 0.022206 0.03388 -0.1718 
-0.10373 0.02122 0.13417 0.13006 0.040456 -0.0138 0.033551 -0.091404 
0.093069 0.1562 0.13894 0.20175 0.069393 -0.015609 0.051965 0.10096 
0.16097 0.23414 0.13302 0.18448 0.036346 -0.025145 0.0046141 0.46974 
0.10228 0.13549 0.067256 0.13664 0.02122 -0.032215 0.026974 0.49161 
0.06479 0.037168 -0.030077 0.057062 0.019083 -0.023172 0.064296 0.10556 
0.13878 0.03947 -0.069372 -0.001798 0.0098754 -0.01117 0.019576 -0.022185 
0.14815 0.050814 -0.068386 -0.021692 0.041114 0.015465 -0.063289 0.080409 
0.018589 -0.055726 -0.090746 -0.0050863 0.07038 0.073504 -0.073647 0.031249 
-0.206 -0.12955 -0.034516 0.0075736 0.073832 0.072353 0.0067515 -0.079895 
-0.14369 -0.18808 -0.0073881 0.025001 0.082546 0.10211 0.089123 -0.071345 
0.19007 -0.0070593 0.0092177 0.039963 0.10573 0.12151 0.086985 0.12233 
0.39164 0.22082 0.048348 0.063639 0.061337 0.12612 0.098001 0.31141 
0.27392 0.20684 -0.0044286 0.03536 0.0075736 0.019083 0.050979 0.2269 
0.08156 0.077121 -0.11508 -0.0068948 -0.057205 -0.10176 -0.010512 0.19649 
0.024015 -0.020048 -0.20732 -0.10275 -0.02794 -0.13547 -0.079072 0.16689 
-0.052602 -0.063453 -0.14829 -0.10028 0.048348 -0.095021 -0.24069 0.16886 
-0.15881 -0.074304 -0.0406 -0.033694 0.050321 -0.046683 -0.28623 0.16163 
-0.084663 -0.021363 0.10819 0.072681 0.04654 0.0324 -0.10916 0.26899 
0.14058 0.083862 0.21556 0.17725 0.027632 0.12431 0.089287 0.32818 
0.25567 0.1659 0.21112 0.24729 0.054267 0.21835 0.2172 0.19106 
0.25173 0.26209 0.19303 0.24104 0.1008 0.2371 0.2759 0.029441 
0.19747 0.28247 0.15242 0.21079 0.083204 0.17018 0.22674 0.0054362 
0.081724 0.25617 0.15982 0.20175 0.072024 0.055418 0.0689 0.038977 
-0.020541 0.2029 0.18678 0.21474 0.06742 0.0014903 -0.054246 -0.2014 
-0.12856 0.11 0.22361 0.2366 0.068242 -0.046025 -0.050629 -0.55637 
-0.13941 -0.032872 0.11543 0.21112 0.042594 -0.065919 -0.008539 -0.45936 
-0.11491 -0.12462 -0.036654 0.082875 -0.015444 -0.071509 0.069229 0.056733 
-0.004593 -0.12396 -0.10883 -0.015116 -0.022185 -0.1016 0.1054 0.43012 
0.17396 -0.061645 -0.13267 -0.059836 -0.039778 -0.16079 -0.094856 0.30812 
0.26126 0.017767 -0.075291 -0.048492 -0.00015387 -0.18643 -0.40889 -0.30563 
0.22016 0.037826 0.022864 0.013986 0.01563 -0.17838 -0.49981 -0.75152 
0.14042 0.018589 0.091096 0.10967 -0.0060728 -0.14681 -0.41612 -0.48517 
0.04917 0.023522 0.12809 0.14453 -0.031557 -0.12314 -0.31024 0.032729 
-0.0031133 0.079422 0.16623 0.18235 -0.0036066 -0.036489 -0.13612 0.2195 
-0.016266 0.086985 0.1881 0.2149 0.046704 0.065612 0.023686 0.2731 
-0.037476 0.13203 0.20602 0.22592 0.092247 0.12957 0.10458 0.4505 
-0.074304 0.12842 0.23594 0.24795 0.09126 0.15176 0.16031 0.43653 
-0.079895 0.14371 0.16821 0.24219 0.079422 0.16623 0.23545 0.19566 
0.005765 0.022042 0.058377 0.15324 0.044567 0.11494 0.20158 -0.18331 
0.18251 -0.0032777 -0.048656 0.055254 0.020562 0.043416 0.13746 -0.49685 
0.28428 0.11576 -0.036489 0.022864 -0.0088678 -0.017582 0.11033 -0.58251 
0.15966 0.063968 -0.11393 -0.044217 -0.033694 -0.062631 0.089945 -0.157 
-0.086307 -0.10735 -0.24332 -0.1575 -0.068386 -0.10489 0.010204 0.12677 
-0.25713 -0.27966 -0.34361 -0.22951 -0.081868 -0.11804 -0.097816 0.071531 
-0.11689 -0.19614 -0.31303 -0.2476 -0.034845 -0.062467 -0.076442 -0.053588 
-0.094034 -0.019226 -0.22622 -0.20173 0.050814 0.021384 0.018425 -0.1182 
-0.16144 0.058377 -0.11015 -0.11607 0.086657 0.056898 0.079751 -0.17345 
-0.14369 0.018918 -0.048163 -0.051122 0.048019 0.052952 0.056076 -0.14993 
0.0067515 -0.030077 -0.025967 -0.02235 0.011191 0.0064227 0.078107 -0.10439 
0.11543 0.037661 0.063803 0.058213 -0.010676 -0.016431 0.01267 -0.016266 
0.048019 0.14305 0.17774 0.16081 -0.006566 -0.035667 0.064625 0.052623 
-0.042901 0.18235 0.21194 0.21901 0.034702 0.0028056 0.098988 0.073339 
-0.082525 0.086328 0.18235 0.22213 0.039634 -0.0073881 0.091589 0.058871 
-0.1108 -0.0080457 0.11346 0.17133 0.0034632 -0.017088 0.082382 -0.0049219 
-0.068386 -0.065919 0.0592 0.11526 0.043909 -0.02498 0.019411 -0.12248 
0.0024767 -0.02646 -0.024652 0.072353 0.027303 0.0070803 -0.11278 -0.27571 
0.027796 0.011848 -0.071016 0.013492 0.011684 -0.02087 -0.20814 -0.32799 
0.069393 0.034373 -0.032215 0.012506 0.0062583 0.0324 -0.15931 -0.19614 
0.11346 0.017274 0.015794 0.042265 0.0095465 0.1174 0.036675 0.099645 
0.1179 0.04506 0.067091 0.080409 0.037168 0.20109 0.2394 0.18744 
0.073997 0.08008 0.10556 0.10672 0.053116 0.17232 0.31585 0.17199 
0.072353 0.095206 0.056733 0.11757 0.063968 0.12562 0.27047 0.305 
0.091918 0.1276 0.00083261 0.072846 0.080902 0.09422 0.24976 0.52202 
0.04358 0.082546 -0.081374 0.0036276 0.11428 0.086163 0.21178 0.61492 
-0.048163 -0.02498 -0.11311 -0.045696 0.07038 0.055254 0.24745 0.51496 
-0.019555 -0.066577 -0.12215 -0.075949 0.0013258 -0.0095255 0.16327 0.2389 
0.18498 -0.040271 -0.1011 -0.07825 -0.04323 -0.08828 -0.0014692 0.016288 
0.23907 0.027796 -0.05178 -0.034845 -0.048492 -0.1279 -0.13185 -0.13366 
0.11247 0.01563 -0.073811 -0.030899 -0.032379 -0.11705 -0.16539 -0.17789 
-0.11475 -0.013636 -0.14254 -0.072496 0.0036276 -0.066577 -0.16177 -0.22787 
-0.27768 -0.021363 -0.16687 -0.10538 0.048513 0.014643 -0.15717 -0.25976 
-0.39228 -0.0091966 -0.085485 -0.058356 0.056404 0.13549 -0.063124 0.013986 
-0.36301 0.071531 0.040621 0.01974 0.090438 0.21786 0.12102 0.33246 
-0.21833 0.17758 0.12316 0.11872 0.051965 0.24877 0.244 0.23611 
0.055911 0.14848 0.19977 0.19418 -0.003771 0.2075 0.25469 -0.039942 
0.17659 0.078436 0.19287 0.21671 0.017603 0.1567 0.23775 -0.23033 
0.23512 0.0087245 0.20454 0.23134 0.0098754 0.12562 0.25123 -0.25598 
0.24449 0.066927 0.24762 0.26932 0.075805 0.13056 0.25683 -0.1187 
0.21671 0.11494 0.27195 0.28543 0.088301 0.10129 0.25502 -0.40938 
0.030427 0.11181 0.21309 0.27623 0.065118 0.099152 0.19681 -0.65748 
-0.1233 0.061008 0.090438 0.18991 0.057227 0.069229 0.17626 0.03947 
-0.11064 0.029605 0.018754 0.10869 0.058377 0.073175 0.16607 0.88505 
0.17643 0.17708 0.046211 0.10343 0.05213 0.066105 0.19402 1.5153 
0.49029 0.28839 0.1197 0.1391 0.031578 0.056076 0.095371 1.4552 
0.58697 0.27688 0.15522 0.1636 -0.035338 -0.045696 -0.067728 0.69746 
0.39181 0.039799 0.06035 0.12497 -0.066084 -0.091568 -0.23938 0.091918 
0.084848 -0.17032 -0.14418 -0.0095255 -0.065919 -0.10225 -0.37913 -0.17854 
-0.15635 -0.21175 -0.28919 -0.157 0.010862 -0.038462 -0.32323 -0.41415 
-0.26338 -0.05441 -0.14451 -0.11656 0.13253 0.059364 -0.14615 -0.54371 
-0.32799 0.012177 0.084684 -0.00064712 0.11296 0.10376 -0.013965 -0.57774 
-0.35216 0.0095465 0.23216 0.15587 0.08715 0.049006 -0.00081153 -0.52299 
-0.27193 0.032564 0.35054 0.30812 0.034209 0.059857 -0.0072237 -0.47449 
-0.10209 0.061337 0.36813 0.37126 0.036182 0.034702 0.040456 -0.29166 
0.062159 0.057062 0.26455 0.32193 0.02533 0.0324 0.044238 -0.035503 
0.13138 0.080409 0.13154 0.22394 -0.00015387 0.015794 0.029441 0.092247 
0.18777 0.13795 0.063639 0.14338 -0.0075525 0.010533 0.014972 0.11362 
0.18087 0.15818 0.032564 0.09126 -0.0073881 0.035195 0.081889 0.18925 
0.19353 0.13582 0.024837 0.083862 -0.025638 0.007738 0.088136 0.25666 
0.19402 0.093398 -0.0016336 0.061666 -0.026624 0.0046141 0.13286 0.18465 
0.18465 0.036346 -0.015609 0.042758 -0.021856 0.049006 0.15555 0.078272 
0.14996 -0.0013048 -0.048985 0.011355 -0.001798 0.064954 0.11247 0.046046 
0.090438 0.012835 -0.11343 -0.042079 -0.0062372 0.040621 0.05772 0.15818 
0.087972 -0.0078813 -0.2545 -0.14467 -0.013143 0.0082312 -0.042079 0.13384 
0.039305 -0.10867 -0.28804 -0.20008 0.029276 0.0082312 -0.049642 -0.046519 
-0.07825 -0.12741 -0.19679 -0.14829 0.068571 0.029112 0.034537 -0.24793 
-0.20715 -0.097322 -0.096336 -0.086471 0.061995 0.047362 0.092904 -0.29018 
-0.22951 -0.051287 0.016781 0.0042853 0.060515 0.065447 0.11526 -0.24694 
-0.13514 -0.049149 0.1373 0.10606 0.03651 0.034537 -0.0034422 -0.14977 
0.10326 0.069393 0.25485 0.21589 0.029934 -0.0032777 -0.11212 -0.071509 
0.29382 0.31075 0.28609 0.28395 0.054925 0.010533 -0.13119 -0.054575 
0.26537 0.43489 0.2389 0.29892 0.037497 0.01563 -0.12577 -0.017746 
0.14223 0.3484 0.20947 0.26636 0.0087245 0.013986 -0.10472 0.053445 
0.099316 0.18563 0.12628 0.20569 0.026646 -0.022514 -0.09946 0.11855 
0.15242 0.051308 0.044567 0.13236 0.019905 -0.026131 -0.071181 0.19007 
0.15834 -0.072003 0.033387 0.090931 0.04358 -0.0024557 0.0093821 0.16179 
0.14996 -0.097816 0.029769 0.091753 0.048019 0.064296 0.10343 0.18514 
0.17034 -0.022843 -0.024158 0.071859 0.047033 0.08978 0.14404 0.32341 
0.14404 0.027139 -0.047998 0.026974 0.058542 0.10178 0.12464 0.30303 
0.040292 -0.014622 -0.082854 -0.014458 0.047855 0.096193 0.11839 0.14141 
-0.046025 -0.055232 -0.10587 -0.043066 0.042429 0.085506 0.17149 0.0064227 
-0.056219 -0.016102 -0.020706 -0.006566 0.01711 0.023851 0.15456 0.0085601 
-0.043559 -0.030406 0.090931 0.079422 -0.0039354 -0.048163 0.051636 0.034044 
-0.055068 -0.053588 0.046046 0.10524 -0.039449 -0.11196 -0.02942 -0.022514 
0.062652 -0.035667 -0.088608 0.0062583 -0.046683 -0.10554 -0.020377 -0.22343 
0.22624 0.0085601 -0.20518 -0.098802 -0.017582 -0.086471 -0.013143 -0.30251 
0.26406 0.045389 -0.19498 -0.12922 0.020069 -0.089595 -0.16144 -0.24431 
0.036017 0.042265 -0.064111 -0.075291 0.022371 -0.11245 -0.27078 0.021384 
-0.33802 -0.14369 0.021878 0.0092177 0.041114 -0.093048 -0.3275 0.043745 
-0.3497 -0.080717 0.020891 0.064461 0.032564 -0.027282 -0.26963 0.030427 
0.18415 0.30122 0.049335 0.082382 0.0067515 0.058706 -0.08532 0.19501 
0.46218 0.45198 0.046868 0.086492 0.030756 0.12891 0.1031 0.23742 
0.28149 0.27475 -0.023172 0.046046 0.020069 0.081889 0.091425 0.19829 
0.064296 0.051801 -0.099789 -0.037147 0.02122 0.0037921 0.054925 0.22855 
0.0054362 -0.015609 -0.15306 -0.088608 -0.001798 -0.044546 -0.018568 0.23315 
0.030263 -0.040764 -0.15141 -0.075949 0.025659 -0.033859 -0.011827 0.082875 
0.13253 0.042594 0.063474 0.038977 0.054596 0.02681 0.098494 -0.019226 
0.28214 0.18958 0.29431 0.22378 0.05065 0.064132 0.22608 -0.031228 
0.3341 0.28626 0.34906 0.3244 0.051636 0.081231 0.26176 0.00099702 
0.1077 0.17495 0.28231 0.30746 0.013986 0.014315 0.1853 -0.15832 
-0.17624 -0.1011 0.13467 0.21934 0.00033937 -0.033365 0.044402 -0.29906 
-0.19959 -0.18627 0.040456 0.16146 0.061337 -0.046847 -0.044874 -0.0088678 
-0.0011404 -0.032543 0.065118 0.13286 0.10787 0.074819 -0.024158 0.53222 
0.085341 0.11066 0.098988 0.14371 0.11872 0.061172 0.00099702 0.60259 
-0.022514 0.04917 0.11214 0.14535 0.077285 0.013657 -0.018568 0.23496 
-0.133 -0.027447 0.079916 0.11329 0.012177 -0.062302 -0.065097 0.020891 
-0.18759 0.010697 0.05772 0.09422 -0.017088 -0.10242 -0.182 -0.0055795 
-0.076277 0.064954 0.0042853 0.087808 -0.023829 -0.078086 -0.16243 -0.34575 
0.03536 0.018096 -0.0062372 0.057555 0.010369 -0.040764 -0.055232 -0.70582 
0.077943 -0.018733 -0.032379 0.02681 -0.0082102 -0.028104 0.0087245 -0.30827 
0.017767 -0.061645 -0.12396 -0.043066 0.017767 -0.0067304 0.071859 0.16278 
-0.084991 -0.073976 -0.17213 -0.10505 0.066269 0.087479 0.19829 0.36517 
-0.18923 -0.047669 -0.18117 -0.10801 0.013492 0.11707 0.24597 0.34462 
-0.22573 -0.049807 -0.19597 -0.10965 -0.011827 -0.0029489 0.035688 0.2417 
-0.060329 -0.035174 -0.25352 -0.1741 -0.085813 -0.16539 -0.3252 0.088794 
0.15127 0.039799 -0.26453 -0.20057 -0.057699 -0.15454 -0.48386 0.011355 
0.19599 0.21046 -0.095678 -0.098802 0.021384 -0.025967 -0.30761 -0.030242 
0.15604 0.30582 0.23019 0.12595 0.059364 0.1276 0.074326 -0.12363 
0.11674 0.22082 0.44426 0.33903 0.095206 0.21079 0.29596 -0.16736 
0.099316 0.029769 0.35991 0.40085 0.083697 0.17807 0.34018 0.098823 
0.12529 -0.017746 0.27771 0.34594 0.069064 0.11428 0.26833 0.2782 
0.076134 0.024015 0.17363 0.26521 0.052459 0.052459 0.1738 0.039963 
-0.063782 -0.029091 0.078272 0.17248 0.041443 0.0088889 0.11099 -0.33342 
-0.19005 -0.095021 0.029276 0.10507 0.0021479 -0.003771 0.089123 -0.4222 
-0.22162 -0.045203 0.052952 0.095042 0.016616 0.045553 0.092576 0.038648 
-0.052766 0.071037 0.079751 0.1442 0.050486 0.099481 0.15818 0.51413 
0.095371 0.087479 0.097672 0.14453 0.072846 0.11083 0.17314 0.53419 
0.089123 0.071859 0.015137 0.081395 0.016781 0.094877 0.19057 0.19796 
0.041772 0.063639 0.029605 0.07301 -0.021199 0.051308 0.11477 -0.03912 
0.040785 0.053116 0.0072447 0.043909 -0.073154 0.0054362 0.06594 -0.13645 
-0.0083746 -0.0095255 0.022864 0.051143 -0.010348 -0.014787 0.088465 -0.13662 
-0.079401 -0.062302 0.068736 0.12316 0.032893 0.021384 0.090767 -0.16079 
-0.10143 0.064625 0.10918 0.14305 0.089452 0.044073 -0.063124 -0.29577 
-0.036818 0.1756 0.11625 0.14979 0.048348 0.0024767 -0.28475 -0.364 
-0.057205 0.12497 0.051965 0.12349 0.045553 -0.0016336 -0.32898 -0.39343 
-0.18134 -0.008539 -0.0044286 0.060679 0.0085601 0.036675 -0.17114 -0.43782 
-0.15207 -0.036818 0.0019835 0.052459 0.011026 0.10984 0.17511 -0.20879 
-0.025802 -0.015773 0.030756 0.098659 0.047362 0.1276 0.32423 0.24203 
0.23858 0.037332 0.050486 0.09685 0.057062 0.14552 0.35071 0.95328 
0.41894 0.076627 0.019083 0.077285 0.052294 0.1299 0.31651 1.374 
0.41581 0.071695 0.035853 0.079587 0.03092 0.085835 0.23035 0.94753 
0.19451 0.038483 0.10688 0.11099 -0.010512 0.012013 0.095206 0.11855 
0.090603 0.08156 0.20503 0.17676 -0.015938 -0.026296 0.021056 -0.46692 
0.069558 0.045553 0.062652 0.15999 -0.017911 -0.048985 -0.0021268 -0.94257 
-0.0075525 -0.079072 -0.11212 0.012999 -0.06707 -0.072003 0.00033937 -0.92745 
0.06183 -0.02646 -0.19614 -0.086307 -0.040928 -0.036818 0.026317 -0.11656 
0.15604 0.059857 -0.10768 -0.063453 0.073339 0.049664 0.10819 0.4778 
0.12497 0.19024 0.090438 0.058706 0.14338 0.10343 0.13845 0.45018 
0.05624 0.2389 0.26636 0.20175 0.12825 0.11181 0.096193 0.1738 
-0.062796 0.16081 0.21589 0.26439 0.048513 0.012177 -0.073482 -0.067564 
-0.070194 0.068571 0.056569 0.15686 -0.0096899 -0.084663 -0.19449 -0.07825 
-0.057534 0.028454 -0.004593 0.076792 0.01267 -0.049314 -0.20288 -0.10061 
-0.14648 0.024179 -0.027447 0.040128 0.026481 -0.023994 -0.14237 -0.23346 
-0.52595 -0.030406 -0.049642 0.00297 0.013657 0.02122 -0.01528 -0.43092 
-0.83833 -0.024323 -0.053424 -0.013636 0.018754 0.094384 0.12398 -0.44325 
-0.65452 0.018754 -0.023501 0.034702 0.040621 0.15357 0.22444 -0.1866 
-0.26864 0.08156 0.10836 0.10935 0.053281 0.12118 0.25584 -0.063946 
0.0039565 0.095371 0.13088 0.14683 0.030263 0.022371 0.14469 -0.22935 
0.17889 0.021713 0.026317 0.098494 0.029769 -0.061645 0.022864 -0.42105 
0.17067 -0.10406 -0.054739 0.024673 0.0054362 -0.063946 0.02533 -0.11524 
0.25107 -0.20123 -0.10982 -0.041915 -0.06444 -0.084334 0.031742 0.52729 
0.53403 -0.030899 -0.12856 -0.046683 -0.069536 -0.10932 0.0093821 0.9061 
0.72031 0.16146 -0.018897 -0.0082102 -0.068386 -0.12511 -0.18841 0.8109 
0.5314 0.19468 -0.048163 -0.010019 -0.06707 -0.17525 -0.41217 0.36106 
0.16985 0.039305 -0.21866 -0.1205 -0.032708 -0.15684 -0.45015 0.023193 
0.0016547 -0.021692 -0.28064 -0.19745 0.063145 -0.023172 -0.30087 -0.027447 
-0.079401 0.00083261 -0.19975 -0.17558 0.17807 0.12875 -0.06296 -0.0077169 
-0.14106 0.11148 -0.03912 -0.02794 0.2052 0.2223 0.083862 0.076627 
-0.23428 0.1054 0.25419 0.17462 0.19533 0.20208 0.17708 0.070051 
-0.32997 0.0072447 0.34364 0.29941 0.14272 0.14601 0.16245 0.064461 
-0.31764 -0.030242 0.2805 0.30385 0.069229 0.053609 0.10606 -0.038791 
-0.22228 0.021713 0.15637 0.23742 -0.0042642 -0.029091 0.026481 -0.09091 
-0.08384 0.10474 0.024015 0.1197 -0.053753 -0.06707 0.016288 -0.18331 
-0.013471 0.063968 -0.11623 0.01826 -0.076277 -0.079566 0.0047785 -0.28229 
0.076956 0.010369 -0.20107 -0.088115 -0.044381 -0.03353 0.032729 -0.35381 
0.13154 -0.029584 -0.18397 -0.11097 -0.05178 0.017274 0.11 -0.29643 
0.2103 0.062323 -0.06444 -0.052602 -0.035996 0.059693 0.1562 -0.068386 
0.21506 0.11576 0.11 0.072188 0.0090533 0.082875 0.16212 0.18465 
-0.022514 0.00050378 0.16146 0.13746 0.043251 0.050486 0.05772 0.59305 
-0.22474 -0.10521 0.032729 0.1202 0.049992 0.0019835 -0.083512 0.84461 
-0.12609 -0.068879 -0.034188 0.050157 0.046868 0.0088889 -0.15947 0.40167 
0.10688 0.097837 -0.038627 0.025001 0.079258 0.027961 -0.14089 -0.17756 
0.22296 0.17166 0.029441 0.05772 0.082217 0.022206 -0.08269 -0.40478 
0.21079 0.099645 0.11231 0.11198 0.09274 0.063145 -0.0055795 -0.22836 
0.27491 0.043745 0.19649 0.17692 0.057555 0.042429 0.020727 0.27425 
0.3586 0.10836 0.18087 0.2269 0.038648 0.00099702 0.01267 0.58828 
0.36238 0.18925 0.17725 0.21967 0.020727 -0.017253 -0.0021268 0.48141 
0.27639 0.17412 0.081395 0.15966 -0.010019 -0.048985 -0.016924 -0.11607 
0.073175 0.069393 -0.072332 0.035853 -0.078415 -0.10406 -0.082196 -0.70697 
-0.019226 -0.038956 -0.2037 -0.10028 -0.092226 -0.058356 -0.010019 -0.5128 
0.0028056 -0.027282 -0.19153 -0.13284 -0.044217 0.02829 0.10474 0.066763 
0.061995 0.018425 -0.015116 -0.010676 0.048184 0.16804 0.22822 0.44015 
0.15144 0.10589 0.25304 0.18415 0.10359 0.19484 0.25699 0.47517 
0.17462 0.13023 0.3466 0.30829 0.11543 0.16278 0.20816 0.32884 
0.031414 0.040292 0.14996 0.22739 0.10113 0.11017 0.13335 0.10885 
-0.018239 0.00066819 -0.058356 0.055747 0.07038 0.08008 0.04095 0.15982 
0.066927 0.050814 -0.15454 -0.06148 0.026646 0.038483 0.02122 0.22887 
0.13434 0.076463 -0.16013 -0.067235 0.0075736 0.038812 0.064461 0.14585 
0.2394 0.020891 -0.075455 -0.040764 0.0044497 0.049828 0.095864 0.088136 
0.39263 0.10787 0.083368 0.071366 0.053609 0.092411 0.12612 0.10672 
0.40184 0.28198 0.27721 0.23446 0.08715 0.10228 0.14864 0.027468 
0.30779 0.28527 0.36813 0.33278 0.057391 0.085012 0.10178 -0.30366 
0.10524 0.066763 0.29892 0.31667 -0.0016336 0.05772 0.078107 -0.76698 
-0.041915 -0.084005 0.17199 0.26998 -0.023172 0.025988 0.080902 -0.87944 
-0.2841 -0.1284 0.014315 0.1391 -0.035174 -0.03057 0.049335 -0.36055 
-0.33868 -0.10965 -0.15141 -0.012156 -0.030406 -0.066577 0.00050378 0.53485 
-0.056712 -0.008539 -0.23494 -0.12642 -0.018075 -0.01676 0.027303 0.89886 
0.20701 0.12644 -0.1912 -0.13399 0.049499 0.052952 0.10556 0.60555 
0.25995 0.21342 -0.062467 -0.08384 0.083533 0.098166 0.14765 0.15785 
0.19533 0.17758 -0.051615 -0.011498 0.067913 0.076463 0.16919 -0.096829 
0.01711 0.12069 0.036839 0.045224 0.058213 0.047691 0.098659 -0.182 
-0.084005 0.071695 0.17955 0.15209 0.019905 0.0018191 -0.052931 -0.22474 
-0.13547 0.048677 0.24696 0.22887 -0.037476 -0.08121 -0.26897 -0.27292 
-0.14402 -0.041751 0.25452 0.25978 -0.061151 -0.145 -0.41957 -0.37732 
-0.12527 -0.048985 0.24071 0.25995 -0.028269 -0.084663 -0.23707 -0.40806 
-0.042408 -0.014458 0.17149 0.25765 0.042758 0.048677 0.021384 -0.3492 
-0.025802 -0.052109 0.0039565 0.12562 0.039799 0.074819 0.18448 -0.22244 
-0.0031133 -0.07003 -0.24529 -0.072496 0.052623 0.084355 0.244 0.089287 
0.057884 0.045718 -0.34279 -0.21011 0.048841 0.11231 0.22361 0.51512 
0.081231 0.16146 -0.21241 -0.18002 0.057555 0.13351 0.22559 0.66885 
-0.11245 0.098166 0.026646 -0.033859 0.062817 0.088958 0.18432 0.7721 
-0.30087 -0.093541 0.047033 0.056569 0.060844 0.029934 0.097837 0.73198 
-0.32865 -0.26256 -0.050136 0.012342 0.0042853 -0.044217 0.028619 0.37537 
-0.073811 -0.24842 -0.17854 -0.082032 -0.013636 -0.015116 0.00050378 -0.094856 
0.31388 -0.0059084 -0.1381 -0.086636 0.0067515 -0.0024557 -0.023501 -0.44045 
0.25798 0.21095 -0.042244 -0.035174 0.024179 0.0227 -0.034681 -0.59287 
-0.2402 0.18432 0.093233 0.047855 0.044238 -0.010676 -0.037805 -0.39508 
-0.53614 0.033222 0.18662 0.17067 -0.01676 -0.013307 -0.030735 -0.40494 
-0.28623 0.040621 0.23479 0.24088 -0.0073881 -0.018075 0.025988 -0.5807 
0.2292 0.24005 0.27031 0.28626 0.048513 0.041607 0.090603 -0.25697 
0.451 0.34988 0.22312 0.26998 0.094877 0.09833 0.13384 0.36156 
0.25962 0.18876 0.17281 0.22953 0.10918 0.12595 0.16031 0.76404 
-0.05441 -0.022843 0.1248 0.17791 0.071366 0.052787 0.081231 0.58828 
-0.25582 -0.08828 0.11115 0.16837 -0.016595 -0.038627 -0.10357 -0.076113 
-0.30761 -0.084005 0.034044 0.11378 -0.019555 -0.1085 -0.37304 -0.52463 
-0.29561 -0.13777 -0.09239 0.0067515 -0.040271 -0.12905 -0.52398 -0.66767 
-0.25565 -0.16654 -0.17953 -0.081374 -0.01528 -0.11607 -0.43158 -0.42516 
-0.16375 -0.076442 -0.17969 -0.11705 0.0054362 -0.046519 -0.13925 0.31437 
-0.063782 0.0023123 -0.10916 -0.096172 0.0062583 -0.023665 0.061995 0.81008 
0.040292 0.074326 0.012835 -0.00064712 0.02533 0.020069 0.099974 0.76947 
0.098823 0.10885 0.090767 0.084848 0.017932 0.024344 0.0087245 0.41812 
0.11937 0.19402 0.20323 0.18859 0.065118 0.063968 0.0021479 0.13779 
0.095535 0.21243 0.24301 0.24844 0.1151 0.12644 0.10359 -0.046354 
0.01826 0.17182 0.21095 0.24219 0.090438 0.13236 0.13993 -0.089924 
-0.032708 0.093069 0.16294 0.19928 0.053281 0.081231 0.13138 -0.031064 
-0.053588 0.053938 0.11543 0.17873 0.016945 0.018096 0.084519 0.0016547 
-0.0013048 0.0039565 0.029605 0.12053 -0.013307 -0.024816 0.04506 0.040128 
-0.033859 -0.023336 -0.034516 0.050486 -0.0036066 -0.053917 -0.011663 -0.022679 
0.028454 0.040292 -0.063453 0.011684 0.0042853 -0.027775 -0.071838 -0.27818 
-0.0026201 -0.00031829 -0.054575 -0.0054151 0.020233 -0.033694 -0.037969 -0.51132 
0.0044497 -0.006566 0.0064227 0.0019835 0.018918 -0.033037 -0.047341 -0.14796 
0.0021479 -0.057041 0.032564 0.053445 0.0069159 -0.063453 -0.092061 0.14617 
0.038483 -0.031721 0.056076 0.090603 0.0093821 -0.043724 -0.10702 0.22394 
0.1225 -0.0078813 0.034702 0.082053 0.019247 -0.004593 -0.014787 0.064296 
0.1322 0.072846 0.031907 0.075805 0.028947 0.088794 0.053774 -0.10998 
0.073668 0.15982 0.034702 0.068078 0.0324 0.12973 0.090274 -0.29133 
0.053281 0.20553 0.10195 0.10343 0.061666 0.11839 0.12431 -0.14171 
0.099974 0.19829 0.1105 0.13993 0.089616 0.079258 0.10129 0.43686 
0.12036 0.17659 0.10458 0.16558 0.070544 0.048019 0.051636 0.74053 
0.14124 0.20569 0.13286 0.17676 0.063474 0.033222 -0.0031133 0.33015 
0.12891 0.1026 0.10343 0.15538 0.021056 0.0062583 -0.018733 -0.19942 
-0.084827 -0.12281 0.025495 0.089287 -0.029748 -0.060823 -0.023336 -0.41185 
-0.21899 -0.22918 0.0067515 0.051801 -0.05441 -0.10932 -0.072825 -0.35019 
-0.03764 -0.10784 0.024344 0.060186 -0.01117 -0.072332 -0.079566 -0.1062 
0.15209 0.0032988 -0.0060728 0.074819 0.0037921 0.0019835 -0.00031829 0.05065 
0.1276 -0.0088678 -0.010183 0.05213 0.036839 0.060022 0.12316 0.21868 
0.040456 -0.016431 -0.050629 0.014643 0.01711 0.045553 0.16377 0.26801 
0.035031 0.0065871 -0.038298 0.0092177 0.0013258 0.029112 0.11428 0.15341 
0.11987 0.079587 0.08567 0.083697 0.05213 0.0095465 0.081889 0.051143 
0.16097 0.10458 0.183 0.1733 0.10885 0.030427 0.083368 0.005765 
0.12973 0.12414 0.18892 0.23101 0.082546 -0.0073881 0.085999 -0.038133 
0.14831 0.10787 0.13056 0.19188 0.039141 -0.006566 0.056569 -0.17147 
0.22164 0.17248 0.054432 0.13253 0.06035 0.013164 0.037168 -0.53532 
0.27031 0.19895 0.0069159 0.079916 0.072188 0.085999 0.046868 -0.10702 
0.29316 0.16327 0.00050378 0.049992 0.06035 0.11773 0.083368 0.88374 
0.22 0.039305 -0.0042642 0.039634 0.025001 0.13351 0.13154 1.1108 
0.10211 -0.03616 -0.019884 0.056076 0.045882 0.18415 0.20355 0.57694 
-0.02087 -0.092226 -0.098802 -0.014622 0.03536 0.21474 0.21704 -0.058028 
0.011191 -0.17377 -0.22524 -0.12363 0.011026 0.094055 0.13697 -0.21899 
0.16508 -0.065426 -0.23083 -0.15717 -0.052602 0.042923 0.15407 -0.32931 
0.26685 0.10244 -0.16325 -0.14155 -0.069865 0.018425 0.2389 -0.85313 
0.10984 0.12809 -0.13333 -0.093376 -0.02646 0.036182 0.35712 -1.3975 
-0.022679 0.034537 -0.11985 -0.057041 0.016781 0.085999 0.47977 -0.67951 
0.021056 0.038648 -0.13678 -0.079237 0.059693 0.14141 0.58401 0.51084 
0.10145 0.034537 -0.1963 -0.12807 0.044402 0.072024 0.44475 1.0883 
0.14535 0.0041209 -0.15207 -0.11607 -0.0022913 -0.10801 0.012835 0.9472 
0.16903 0.0056006 -0.0013048 -0.030242 -0.011005 -0.22918 -0.35003 0.60357 
0.12398 0.082382 0.19961 0.14124 0.0046141 -0.1723 -0.40017 0.28428 
-0.10587 0.13943 0.30566 0.2948 0.087479 -0.046025 -0.3469 -0.22803 
-0.33572 0.0039565 0.25978 0.29448 0.066763 -0.0042642 -0.41628 -0.70434 
-0.48024 0.0095465 0.15571 0.22246 0.031578 0.040292 -0.42237 -0.77602 
-0.32454 0.072681 0.10195 0.17528 0.06742 0.054432 -0.39573 -0.54568 
-0.16999 0.16278 0.047362 0.11411 0.048513 0.054267 -0.19926 -0.26157 
-0.065262 0.11642 0.024344 0.083204 0.058049 0.076299 0.020891 0.01826 
0.18613 0.14058 -0.011827 0.089945 0.066269 0.11313 0.19172 0.21737 
0.25847 0.068242 0.031249 0.076463 0.0042853 0.094877 0.25403 0.26126 
0.13039 -0.02942 0.010204 0.060022 -0.045203 0.040456 0.24778 0.15423 
0.041278 -0.03616 -0.0073881 0.044896 -0.049314 -0.0029489 0.20208 0.14321 
0.11444 0.028619 -0.035996 0.01004 -0.0090322 0.0092177 0.15768 0.23989 
0.099316 -0.026296 -0.14566 -0.060329 0.076299 0.080573 0.13483 0.24236 
-0.073318 -0.16325 -0.2374 -0.11755 0.071202 0.090109 0.071531 0.0087245 
-0.10406 -0.18216 -0.2009 -0.13514 0.073668 0.033715 0.026646 0.0018191 
0.171 -0.020541 -0.051287 -0.05326 0.017603 0.011191 0.012506 0.35334 
0.34133 0.17725 0.080573 0.057391 0.0098754 0.023851 0.0070803 0.48372 
0.1026 0.256 0.14897 0.13056 0.032893 0.047526 -0.010348 0.18021 
-0.15783 0.18054 0.12694 0.14404 -0.0068948 0.0074092 -0.056055 -0.083512 
-0.38554 0.057555 -0.064933 0.069064 -0.029913 -0.063453 -0.098473 -0.14023 
-0.46824 0.010533 -0.13201 -0.025802 -0.018733 -0.060987 -0.086964 -0.084498 
-0.42286 0.012999 -0.057699 -0.014458 0.017603 -0.026131 -0.044381 -0.076606 
-0.27111 0.026317 0.085341 0.0786 0.046704 -0.0021268 -0.086964 -0.30958 
-0.064275 0.040292 0.25239 0.21013 0.076956 0.0070803 -0.19087 -0.52907 
0.090438 0.01004 0.37257 0.32966 0.051636 0.025824 -0.21258 -0.50655 
0.043087 -0.022185 0.37504 0.40743 0.041936 -0.013636 -0.14089 -0.097487 
-0.073647 -0.052437 0.28231 0.35564 0.020233 -0.030899 -0.06148 0.094713 
0.028783 0.071531 0.1881 0.27984 0.043087 -0.00064712 -0.044217 0.077614 
0.30483 0.24663 0.075805 0.18004 0.064296 0.039799 -0.060165 0.10441 
0.2999 0.20273 0.03536 0.1026 0.059528 0.02122 -0.076113 0.11148 
0.064625 0.077778 0.059528 0.096357 0.082217 0.072188 0.00066819 0.069064 
0.026646 -0.066741 -0.03501 0.073832 0.063639 0.078436 0.084848 -0.016595 
0.15867 0.0095465 -0.1113 -0.011992 0.03388 0.041772 0.10606 -0.07562 
0.29037 0.1853 -0.13399 -0.060165 0.019247 -0.011005 0.092411 0.18777 
0.24992 0.12694 -0.19811 -0.11672 -0.022679 -0.070194 0.0080668 0.58384 
-0.012485 -0.091732 -0.17739 -0.13908 -0.011663 -0.040106 -0.0055795 0.73905 
-0.22787 -0.19137 -0.047012 -0.057863 0.0036276 0.04506 0.027961 0.77522 
-0.20814 -0.15816 0.03947 0.058706 0.031249 0.077614 0.065118 0.83343 
0.041278 -0.077428 0.092082 0.10458 0.041607 0.11378 0.1174 0.67131 
0.30615 0.18711 0.21441 0.2029 0.03388 0.13023 0.11477 0.30648 
0.31667 0.31716 0.26866 0.28987 0.093891 0.1396 0.11905 0.10787 
0.19402 0.22033 0.23397 0.26685 0.051965 0.072681 0.027961 0.13302 
0.080738 0.062817 0.1151 0.19517 0.036182 0.028619 0.04917 0.0079024 
0.10869 0.0060938 0.077285 0.17297 0.046375 0.078765 0.13565 -0.51707 
0.11905 0.060515 0.11444 0.16459 0.055582 0.060515 0.11954 -0.76517 
0.12398 0.15061 0.19073 0.20092 0.062159 0.029605 0.099974 -0.62673 
0.14765 0.14913 0.17149 0.20931 0.082217 0.042594 0.12085 -0.41316 
0.19468 0.098823 0.11806 0.17626 0.062817 0.027961 0.14091 -0.28212 
0.16525 0.076299 0.044731 0.10556 0.0060938 -0.058028 0.031249 -0.25582 
0.14469 0.076792 0.02533 0.10524 -0.035503 -0.13021 0.015959 0.015137 
0.20125 0.056076 0.068407 0.11346 -0.036983 -0.12544 0.032564 0.46728 
0.26291 0.035031 0.097015 0.13006 -0.01939 -0.10604 -0.012156 0.6039 
0.19599 0.064954 0.037168 0.097837 -0.010512 -0.048656 -0.11985 0.3415 
0.18267 0.092411 -0.012156 0.048677 0.010697 0.041772 -0.091568 0.11724 
0.21079 0.094713 -0.025802 0.025495 0.049828 0.11559 0.048348 -0.025638 
0.19106 0.070215 0.0093821 0.068407 0.092247 0.18958 0.17692 -0.0059084 
0.14009 -0.019061 0.041114 0.078272 0.10228 0.1904 0.23233 -0.0095255 
0.092082 -0.038462 0.05624 0.089616 0.059364 0.12628 0.20602 0.042923 
0.056569 0.012835 0.091589 0.11444 0.0054362 0.010862 0.12825 0.044073 
0.014972 0.025824 0.032893 0.075312 -0.013965 -0.035338 0.031249 0.20158 
-0.051122 -0.033694 -0.21554 -0.098638 -0.053095 -0.059343 -0.029913 0.56066 
-0.014622 -0.090746 -0.49734 -0.29856 -0.088444 -0.066741 -0.023501 0.52844 
0.0028056 -0.011498 -0.50671 -0.38998 -0.048656 -0.015938 0.018425 0.1659 
-0.038791 0.12825 -0.22195 -0.24694 0.00297 0.019247 0.037332 -0.097322 
-0.040271 0.12858 0.083697 -0.010348 0.057884 0.044567 0.052294 -0.21767 
-0.026296 0.06183 0.26472 0.17511 0.08978 0.039963 0.068571 -0.28377 
-0.13843 -0.071345 0.25781 0.23381 0.0421 -0.013307 0.0019835 -0.31386 
-0.14878 -0.13333 0.19451 0.24663 -0.023336 -0.050793 -0.02235 -0.30152 
-0.04619 -0.071838 0.16919 0.22444 -0.0052507 -0.016924 -0.022021 -0.25088 
0.16853 0.029441 0.1664 0.22098 0.034044 -0.017582 -0.054575 -0.51017 
0.18366 0.080902 0.12677 0.18892 0.022535 -0.046847 -0.060823 -0.72209 
0.076792 0.061172 0.068407 0.13434 -0.032215 -0.064933 -0.071838 -0.23625 
-0.048656 0.080573 0.070708 0.1128 0.0090533 -0.006566 -0.012485 0.40348 
-0.045368 0.17281 0.073339 0.12612 0.056076 0.080902 0.074161 0.60933 
-0.042244 0.21293 0.072517 0.12332 0.073175 0.093891 0.13039 0.41302 
-0.10209 0.086492 0.0421 0.10014 0.029276 0.037168 0.067749 0.096193 
-0.16523 -0.076606 -0.06707 0.01974 -0.024323 -0.041586 -0.03057 -0.036489 
-0.040435 -0.099789 -0.15339 -0.068879 -0.0026201 -0.0138 -0.030899 -0.13201 
0.11165 -0.0013048 -0.11393 -0.069372 0.0072447 0.020069 0.055911 -0.46561 
0.1858 0.08863 -0.018075 0.012177 0.017603 0.0592 0.16525 -0.74939 
0.23545 0.2098 0.11543 0.10507 0.02533 0.12184 0.24515 -0.30103 
0.24367 0.36468 0.17692 0.17593 0.089123 0.16311 0.29711 0.31716 
0.13976 0.30319 0.14108 0.17149 0.10096 0.16771 0.29037 0.51052 
-0.14204 -0.038791 -0.02087 0.068078 0.043251 0.089123 0.1294 0.56362 
-0.34707 -0.27966 -0.14204 -0.059836 -0.035503 -0.067892 -0.080388 0.46645 
-0.45953 -0.2744 -0.14599 -0.072332 -0.0098543 -0.098473 -0.22885 0.10885 
-0.45969 -0.21702 -0.066577 -0.032215 0.051965 -0.046354 -0.2402 -0.30974 
-0.40806 -0.1404 -0.011992 0.011848 0.08863 -0.0044286 -0.19104 -0.56607 
-0.27916 -0.026789 0.06594 0.071202 0.069393 0.049335 -0.097322 -0.70582 
-0.033037 0.11905 0.10754 0.11 0.019083 0.0083956 -0.094692 -0.25335 
0.23545 0.11165 0.14782 0.14634 0.0021479 -0.020377 -0.054246 0.33574 
0.36632 0.13187 0.10277 0.15653 -0.017253 0.02829 0.059857 0.40628 
0.30746 0.14042 -0.021528 0.075805 0.0080668 0.054267 0.12957 0.080409 
0.21062 0.078436 -0.17345 -0.053917 -0.0049219 0.07038 0.085506 -0.01676 
0.15933 0.066763 -0.19597 -0.11475 0.0042853 0.066105 0.023028 0.10228 
0.14765 0.11214 -0.079566 -0.06 0.053938 0.081067 0.052787 0.050979 
0.048677 0.11296 0.077449 0.04506 0.066763 0.10162 0.062159 -0.11722 
-0.050629 0.0786 0.22674 0.18794 0.060022 0.070215 0.079751 -0.18035 
-0.049642 0.066269 0.23496 0.24548 0.028619 0.026974 0.025659 0.028619 
0.0082312 0.17001 0.2029 0.24449 0.030427 0.027632 0.013821 0.21194 
0.080409 0.28182 0.1271 0.19829 0.042758 0.027303 0.021384 0.29119 
0.10178 0.25189 0.067913 0.14026 0.036182 0.010533 0.012506 0.14502 
0.041772 0.12299 0.038483 0.090603 -0.0013048 -0.0054151 0.027468 -0.065426 
-0.1159 -0.017746 -0.003771 0.06183 0.026974 0.027796 0.015465 -0.10308 
-0.28919 -0.10275 -0.016102 0.046375 0.05476 0.071695 0.030592 0.090274 
-0.42648 -0.15832 0.0044497 0.049335 0.066269 0.047197 0.0037921 0.15292 
-0.44456 -0.20616 -0.015609 0.03651 0.090274 0.027303 -0.008539 0.024673 
-0.27177 -0.16917 -0.096994 -0.024487 0.059035 0.03651 0.012342 -0.082361 
0.014315 -0.11278 -0.15799 -0.090417 0.018754 0.036182 -0.0088678 -0.035174 
0.21885 -0.055561 -0.16999 -0.10258 -0.018733 0.005765 0.00099702 0.061172 
0.29267 0.048513 -0.11015 -0.07414 -0.028269 -0.0075525 -0.00097594 0.1807 
0.31897 0.12184 -0.015116 -0.0029489 -0.03616 -0.020706 -0.013636 0.35547 
0.31815 0.13647 0.12595 0.099481 0.00050378 0.0021479 -0.070523 0.31355 
0.18991 0.1299 0.17889 0.17149 0.047033 0.051801 -0.10472 0.12792 
0.058213 0.11428 0.19879 0.20553 0.095206 0.077778 -0.06148 -0.011992 
-0.008539 0.057062 0.14239 0.20027 0.065776 0.037826 -0.017088 -0.15552 
-0.042573 0.037168 0.048513 0.13631 0.022535 -0.017746 0.021713 -0.42829 
-0.041586 0.06183 -0.00097594 0.075312 -0.015609 -0.059178 -0.0014692 -0.58152 
-0.0088678 0.063145 -0.023994 0.04095 -0.015444 -0.034845 0.0054362 -0.39294 
-0.0057439 0.020891 -0.015773 0.030592 0.011355 0.01152 0.061995 0.15012 
0.052294 -0.00097594 -0.0024557 0.026974 0.026481 0.085177 0.22263 0.70387 
0.0786 0.10129 0.058706 0.076792 0.063474 0.10129 0.25518 0.79347 
0.05624 0.10589 0.086492 0.13286 0.043745 0.050979 0.19369 0.47451 
0.045389 0.097508 0.12957 0.15587 0.019247 0.0026412 0.14667 0.14239 
-0.0062372 0.049335 0.11263 0.15324 0.00066819 0.0011614 0.10951 -0.13037 
-0.069701 0.059528 0.10655 0.15012 0.010862 0.057391 0.17297 -0.20567 
-0.10357 0.017932 0.15292 0.15587 0.011848 0.075476 0.14387 0.011026 
-0.040271 0.035688 0.13845 0.17511 0.023851 0.028783 0.10639 0.17084 
0.060186 0.066763 0.086328 0.1659 -0.014129 -0.0096899 0.012835 0.13006 
0.022371 -0.034352 -0.029748 0.068242 -0.054246 -0.071674 -0.16259 -0.059836 
0.050814 -0.10242 -0.10554 -0.010676 -0.031228 -0.083347 -0.21291 -0.043066 
0.18695 -0.070194 -0.18101 -0.084498 0.05065 -0.0036066 -0.0067304 0.030592 
0.28675 0.10162 -0.14747 -0.098802 0.11674 0.10688 0.12595 0.11855 
0.2126 0.21408 -0.047505 -0.042079 0.091918 0.0592 -0.011992 0.1299 
0.083862 0.21539 -0.052766 0.00017495 0.022206 -0.073318 -0.28722 0.050486 
-0.098144 0.10293 -0.019884 0.011355 -0.067892 -0.18709 -0.49504 -0.0044286 
-0.15289 0.0046141 0.055911 0.065118 -0.06 -0.14434 -0.31599 -0.044546 
-0.075291 -0.019226 0.16327 0.15094 -0.025309 -0.045039 0.0018191 -0.065755 
0.12118 0.038483 0.29234 0.25863 0.038483 0.079751 0.27409 -0.014951 
0.18596 0.051308 0.26307 0.28017 0.09685 0.14782 0.39477 -0.017253 
0.15999 0.017274 0.16278 0.25863 0.13335 0.15275 0.33048 -0.060165 
0.17478 0.069064 0.19566 0.24877 0.15259 0.13056 0.25518 0.023357 
0.21128 0.1271 0.21802 0.25551 0.12266 0.07449 0.17363 0.14831 
0.1664 0.098988 0.15324 0.21572 0.06183 0.0092177 0.095699 0.20619 
0.072681 -0.033694 -0.034352 0.067749 0.020233 0.0042853 0.051308 0.070873 
-0.021363 -0.042408 -0.16161 -0.051287 -0.010512 -0.032215 -0.0004827 -0.060987 
-0.059672 0.014972 -0.1889 -0.087129 -0.018733 -0.026131 -0.014622 -0.13316 
-0.011334 0.093891 -0.17032 -0.10637 0.021549 0.086492 0.09833 0.17856 
0.058542 0.0786 -0.15405 -0.1039 0.012835 0.13828 0.12776 0.48306 
0.089945 0.066105 -0.11985 -0.089595 -0.010676 0.10721 0.1128 0.43768 
-0.023501 0.030756 -0.12297 -0.091404 -0.017088 0.050814 0.083368 0.16706 
-0.18824 -0.091897 -0.046354 -0.036818 -0.0052507 0.030263 0.051308 0.11987 
-0.16391 -0.15487 -0.004593 0.035195 0.043745 0.013492 0.10376 0.15292 
0.049664 -0.03205 0.076956 0.089945 0.076299 0.013492 0.16048 -0.21044 
0.16738 0.18448 0.11905 0.13384 0.056569 -0.023994 0.067585 -1.4804 
0.029769 0.17824 0.11362 0.14519 0.013328 -0.14517 -0.12198 -2.3174 
0.014808 0.089616 0.12168 0.14519 -0.027282 -0.21751 -0.33391 -0.6777 
0.14124 0.053116 0.15571 0.17495 0.011026 -0.1935 -0.44637 1.4227 
0.22575 0.092411 0.14568 0.2121 0.061337 -0.14467 -0.46429 1.8413 
0.14239 0.14897 0.14683 0.20257 0.082875 -0.11031 -0.43996 1.0279 
0.077449 0.17889 0.086492 0.15555 0.048677 -0.028597 -0.30103 0.25699 
0.06035 0.11329 0.04095 0.11543 0.0065871 0.09126 -0.02942 -0.071016 
0.15752 0.077449 0.13483 0.15226 0.056898 0.17528 0.17412 -0.087622 
0.24104 0.066763 0.29661 0.24795 0.094877 0.18087 0.19468 -0.054904 
0.10819 0.055911 0.22608 0.28691 0.10524 0.14519 0.17149 -0.15437 
0.0034632 -0.021199 -0.0054151 0.12546 0.061995 0.10129 0.14881 -0.25088 
-0.14287 -0.10916 -0.26486 -0.087951 0.014808 0.024344 0.13319 -0.34312 
-0.32586 -0.1011 -0.29577 -0.18791 0.02122 0.020069 0.14026 -0.5271 
-0.50277 -0.076771 -0.19975 -0.17838 -0.0064016 -0.0039354 0.096028 -0.80397 
-0.48139 -0.074798 -0.081374 -0.095349 -0.011334 -0.01939 0.041936 -0.78243 
-0.048327 -0.053917 -0.023007 0.016945 -0.00081153 0.0047785 0.10606 -0.17016 
0.463 0.070051 0.068078 0.073339 0.0075736 0.063474 0.18695 0.46596 
0.45757 0.17988 0.030592 0.071531 0.017438 0.14782 0.20487 0.75467 
-0.058028 0.066105 -0.047669 0.019411 0.042594 0.09422 0.15653 0.77292 
-0.44489 -0.053753 -0.157 -0.069372 0.035195 0.045389 0.051143 0.3512 
-0.39919 -0.12198 -0.27374 -0.17641 -0.016102 -0.030735 -0.027775 0.050979 
-0.077922 -0.071181 -0.22688 -0.14714 -0.018733 -0.013965 -0.03616 0.065447 
0.10524 0.040128 0.018754 -0.01117 -0.0049219 -0.047505 -0.050464 0.014315 
0.1396 0.11855 0.19155 0.14091 -0.012649 -0.050629 -0.0771 -0.14434 
0.183 0.1345 0.21474 0.21013 -0.019719 -0.051615 -0.066577 -0.12741 
0.28214 0.19599 0.21654 0.22871 -0.010841 -0.0034422 0.0041209 0.025824 
0.17149 0.23693 0.22641 0.24499 0.018589 0.017767 0.032071 -0.070523 
0.034209 0.17955 0.18547 0.26505 0.06479 0.028125 0.029605 -0.31501 
0.043909 0.17922 0.19468 0.25041 0.10573 0.098001 0.042758 -0.45081 
0.077614 0.14174 0.18974 0.24236 0.13121 0.14733 0.024344 -0.26141 
0.098494 0.069722 0.18235 0.23019 0.10145 0.14683 0.047855 0.064461 
0.07597 0.018425 0.1562 0.19944 0.050814 0.12135 0.010204 0.21556 
0.04358 -0.03616 0.099152 0.15571 0.015794 0.092247 1.0539e-005 0.19007 
-0.0077169 -0.1108 -0.045368 0.086821 -0.033694 0.083533 0.029441 0.18613 
-0.025309 -0.092883 -0.066577 0.021549 -0.0098543 0.051965 0.17725 0.31305 
-0.060165 -0.089266 -0.10373 -0.031886 -0.010841 0.0032988 0.26685 0.63218 
-0.24447 -0.17295 -0.11607 -0.061809 -0.090253 -0.068221 0.19501 0.86055 
-0.18989 -0.1917 -0.093541 -0.055726 -0.084663 -0.056712 0.14289 0.57546 
0.16837 -0.06296 -0.040764 -0.032215 -0.0406 -0.021528 0.098659 -0.02498 
0.46316 0.1562 -0.015773 0.036675 0.050814 0.060679 0.092576 -0.32421 
0.4094 0.27392 0.051965 0.075148 0.071859 0.099645 0.049335 -0.33819 
0.17478 0.30122 0.12201 0.12957 0.043909 0.080738 0.0019835 -0.29265 
-0.10193 0.25469 0.2121 0.2024 0.032071 0.011848 -0.081374 -0.31517 
-0.2647 0.2098 0.32719 0.29826 0.038483 -0.0021268 -0.080881 -0.24513 
-0.31895 0.16245 0.34051 0.33953 0.014808 0.020233 -0.037969 -0.19548 
-0.3275 0.038812 0.045718 0.20257 -0.00064712 0.041278 0.0056006 -0.083347 
-0.15668 -0.12889 -0.27982 -0.077593 0.015137 0.077285 0.10211 0.14404 
0.049335 -0.23773 -0.48254 -0.29676 0.031085 0.13894 0.13647 0.33739 
0.27146 -0.21192 -0.41086 -0.31681 0.062323 0.18251 0.16788 0.55425 
0.31684 -0.025967 -0.14599 -0.18841 0.10507 0.14453 0.14009 0.67 
0.23035 0.12283 0.070215 -0.0054151 0.068078 0.12431 0.1128 0.52926 
0.075805 0.05476 0.16031 0.14535 0.028125 0.031742 0.073668 0.023851 
-0.09798 -0.10538 0.18333 0.19024 -0.028597 -0.043724 0.019905 -0.45558 
-0.23017 -0.109 0.13434 0.17856 -0.014458 -0.028104 0.026646 -0.63134 
-0.18479 -0.058356 0.061501 0.13056 0.010697 -0.014129 0.046046 -0.255 
-0.05737 0.036017 0.11806 0.1396 0.042594 -0.022679 0.051143 -0.13744 
0.19649 0.12497 0.20224 0.19385 0.020891 -0.042244 0.03799 -0.091239 
0.33953 0.16541 0.22312 0.26702 0.0018191 -0.031228 -0.006566 0.37455 
0.40973 0.18547 0.22427 0.26669 0.028783 -0.019719 -0.052273 0.67263 
0.41433 0.22509 0.18859 0.24959 0.030427 0.014315 -0.044546 0.46991 
0.29842 0.22164 0.15505 0.21474 0.053116 0.056733 0.00099702 0.1756 
0.1276 0.19599 0.16706 0.20816 0.063968 0.070708 0.011684 0.023193 
-0.0034422 0.10836 0.16886 0.19813 0.040292 0.038319 0.027303 0.024344 
-0.062138 0.11165 0.067091 0.16097 0.028619 -0.004593 0.01152 -0.010183 
-0.055561 0.12743 -0.048327 0.057555 0.025495 -0.023007 -0.03057 -0.050136 
0.04358 0.09126 -0.14961 -0.043559 0.05624 0.0039565 -0.074469 -0.1113 
0.099974 -0.096994 -0.26404 -0.1547 0.029934 -0.016595 -0.095843 -0.22096 
-0.059178 -0.19367 -0.29741 -0.22409 0.0088889 -0.045203 -0.082032 -0.099295 
-0.10143 -0.14747 -0.17772 -0.17016 0.025988 -0.025967 -0.055232 0.18366 
-0.0040998 -0.06444 -0.024652 -0.023994 0.05065 0.04654 0.052952 0.24532 
-0.0077169 0.022206 0.12447 0.094055 0.082053 0.062323 0.1105 -0.0067304 
-0.10637 0.10178 0.22378 0.19961 0.077943 0.031578 0.058377 -0.3035 
-0.23609 0.171 0.21178 0.22476 0.050157 0.012506 -0.0077169 -0.3765 
-0.31106 0.11477 0.10392 0.16442 0.053445 0.048513 -0.046354 -0.21389 
-0.17756 0.085177 0.065118 0.11954 0.058871 0.067913 -0.012156 -0.17262 
0.0034632 0.072188 0.041607 0.12513 0.037661 0.067749 0.045718 -0.24497 
0.081889 0.009711 0.086328 0.12562 0.044238 0.0016547 0.04506 -0.066906 
0.077943 0.017274 0.20421 0.20043 0.014643 -0.019226 -0.023007 0.25255 
0.022864 0.049992 0.28708 0.27787 0.020069 -0.027447 0.026152 0.41976 
0.0034632 0.044073 0.19879 0.25387 0.02533 -0.040928 0.10935 0.29185 
-0.013307 -0.032543 0.00050378 0.10655 0.0079024 -0.022843 0.18037 0.11494 
0.064625 0.010697 -0.16983 -0.016595 0.031414 0.032236 0.20882 0.17001 
0.13499 0.088136 -0.20666 -0.10193 0.037826 0.028783 0.2126 0.33081 
0.12299 0.089452 -0.16407 -0.11245 0.027303 -0.00064712 0.15637 0.26505 
0.11526 0.018096 -0.037147 -0.039449 0.0044497 -0.057205 -0.075949 -0.25384 
0.19829 0.033551 0.11165 0.075641 0.020727 -0.045203 -0.19926 -0.43569 
0.22871 0.16278 0.18695 0.15324 0.041443 -0.013307 -0.18282 0.063803 
0.23693 0.1174 0.015794 0.10951 0.045553 0.025988 -0.05885 0.40365 
0.21309 -0.046683 -0.16523 -0.032872 0.045389 0.046375 -0.062302 0.096193 
-0.00031829 -0.12922 -0.19992 -0.11031 0.030098 0.066598 -0.1427 -0.36943 
-0.21356 -0.14418 -0.13234 -0.092554 0.026974 0.025659 -0.15996 -0.71601 
-0.31221 -0.063124 -0.069208 -0.061973 0.010862 0.01826 -0.082361 -0.71897 
-0.19318 0.015794 -0.16966 -0.11212 -0.023007 -0.01528 0.019083 -0.27226 
0.029934 0.013492 -0.26815 -0.17361 -0.027611 0.0024767 0.010369 0.41269 
0.23858 0.050979 -0.20929 -0.16128 -0.024487 -0.04471 -0.020541 0.70387 
0.27343 0.16196 0.079916 0.019905 -0.0021268 -0.042244 0.007738 0.43916 
0.08304 0.19944 0.2833 0.21293 0.019905 -0.051287 0.0079024 -0.018075 
-0.084663 0.17281 0.21079 0.22707 0.044567 -0.0024557 0.098988 -0.14188 
-0.15651 0.075148 0.03651 0.11888 0.032071 0.013164 0.16229 0.058542 
-0.079566 0.055254 -0.0064016 0.091425 0.036182 0.014972 0.18514 0.34676 
0.0074092 0.071037 0.12201 0.14174 0.040292 0.0092177 0.14141 0.32999 
-0.053753 0.08156 0.16426 0.1807 0.040456 0.017767 0.082546 0.016452 
-0.17016 0.0059294 0.055418 0.12365 0.0062583 -0.011663 0.0072447 -0.22869 
-0.27703 -0.13251 -0.071509 0.016616 -0.03501 -0.053588 -0.048985 -0.22951 
-0.099131 -0.15437 -0.067399 -0.013965 -0.046847 -0.041751 -0.041586 -0.019719 
0.26948 -0.00031829 -0.008539 0.034373 0.0031344 0.029934 -0.02942 0.2103 
0.45609 0.16442 0.056733 0.079587 0.073175 0.087808 -0.010019 0.072024 
0.32423 0.12825 -0.03057 0.037497 0.11526 0.09685 -0.0073881 -0.364 
0.11937 0.071531 -0.097816 -0.019226 0.098166 0.076792 -0.0078813 -0.48386 
0.0034632 0.021549 -0.024816 -0.0039354 0.045224 0.033222 -0.0083746 -0.2864 
0.028125 0.023851 0.081724 0.071695 0.01826 0.004943 -0.027282 0.053116 
0.12513 0.038648 0.061172 0.10392 0.016123 0.00017495 -0.0070593 0.21737 
0.19435 0.031414 0.038648 0.092082 0.040456 0.029112 0.031742 0.24334 
0.16689 0.045882 -0.011827 0.055911 0.067749 0.058542 0.055582 0.12957 
0.10951 0.04358 -0.080223 -0.003771 0.013164 0.031907 0.036182 -0.012156 
0.041772 0.0059294 -0.182 -0.097651 -0.032543 -0.025474 0.013821 -0.11919 
-0.058356 -0.041257 -0.16983 -0.13284 -0.033694 -0.032215 -0.0059084 -0.014622 
-0.20041 -0.041751 -0.044874 -0.040106 -0.02235 -0.012978 0.015794 0.13253 
-0.23987 0.014479 0.086163 0.071366 0.038155 0.015465 0.055418 0.17807 
-0.0034422 0.10589 0.13861 0.13795 0.06183 0.036182 0.050814 0.12743 
0.29596 0.24121 0.16738 0.18366 0.082217 0.059528 0.057555 0.23693 
0.35958 0.26587 0.16837 0.20257 0.07301 0.07597 0.037661 0.4385 
0.28034 0.18152 0.171 0.19583 0.062323 0.072024 0.048513 0.37537 
0.14091 0.072846 0.18004 0.21589 0.062981 0.038648 0.027303 0.049992 
0.10639 0.0065871 0.15752 0.21474 0.036017 0.030592 0.040785 -0.32273 
0.12135 -0.036654 0.14733 0.19221 0.073175 0.063474 0.096357 -0.24398 
0.03092 0.0062583 0.15193 0.19451 0.043909 0.089945 0.10787 -0.12741 
-0.068879 0.038483 0.094055 0.17248 0.031907 0.058213 0.090767 -0.40708 
-0.059836 0.044073 0.075476 0.12677 0.026974 0.018425 0.037168 -0.64909 
-0.019719 0.079587 0.091753 0.13664 0.035524 0.061995 0.062488 -0.16243 
0.077943 0.10014 0.090603 0.14733 0.021384 0.095864 0.066763 0.48289 
0.08156 0.086163 0.16212 0.18317 0.044896 0.050979 0.084026 0.67904 
-0.026296 0.0065871 0.20208 0.22476 0.041772 -0.0067304 0.0689 0.45445 
0.0079024 -0.019884 0.21095 0.23726 0.038155 0.059857 0.13269 0.15867 
0.19566 0.072517 0.20635 0.23973 0.050321 0.08978 0.12266 0.085506 
0.26044 0.13828 0.14946 0.2103 0.025988 0.051965 0.10737 0.011684 
0.18169 0.16212 0.016123 0.12727 0.010697 0.034044 0.11148 -0.041422 
0.040785 0.17199 0.037661 0.099481 0.032236 0.082875 0.15144 -0.062302 
-0.017582 0.10524 0.024673 0.074654 0.020562 0.10655 0.11198 -0.029255 
-0.0064016 0.041443 0.057555 0.088958 0.020891 0.078929 0.071859 0.012177 
0.079587 0.067749 0.10014 0.11115 0.024508 0.054432 0.072353 0.070873 
0.10589 0.038648 0.056569 0.10704 0.036675 0.022371 0.01974 0.11773 
0.049335 -0.018897 -0.061809 0.042923 0.026974 -0.061316 -0.11755 0.10573 
-0.0068948 -0.072332 -0.13333 -0.038956 -0.00064712 -0.089595 -0.18775 0.060844 
-0.03057 -0.047834 -0.14287 -0.076935 0.06331 -0.045368 -0.11935 0.19829 
0.014808 0.038977 -0.014787 -0.008539 0.062817 0.069722 0.017438 0.29513 
0.050321 0.1544 0.15144 0.10441 0.022864 0.097837 0.069229 0.21309 
0.076134 0.19007 0.22427 0.20931 -0.032543 0.092411 0.070544 0.0013258 
0.039963 0.098659 0.14437 0.20536 -0.0060728 0.053116 0.037332 -0.10209 
-0.078415 -0.059507 -0.019555 0.092082 -0.015938 0.053938 0.042594 -0.089102 
-0.12083 -0.088115 -0.13201 -0.019226 -0.0096899 0.086328 0.13845 -0.017417 
0.038155 -0.044381 -0.18808 -0.09798 0.016781 0.088301 0.13828 0.12562 
0.31371 0.031249 -0.1838 -0.13103 0.025166 0.043087 0.10869 0.2463 
0.33114 0.069064 -0.109 -0.088773 0.029441 0.033715 0.056898 0.18761 
0.055911 0.050157 -0.038627 -0.0078813 0.024015 -0.0057439 0.065612 -0.092061 
-0.19235 0.0092177 0.046704 0.050157 -0.0044286 -0.070194 0.059857 -0.43223 
-0.21044 -0.0039354 0.088136 0.10047 -0.013307 -0.063289 0.050486 -0.46955 
-0.039942 0.096357 0.13549 0.14601 -0.014787 -0.043888 0.0421 -0.080388 
0.16179 0.17676 0.15555 0.16212 0.009711 -0.023665 0.034373 0.244 
0.17593 0.183 0.12003 0.159 0.047197 0.021713 0.071202 0.29086 
0.049006 0.060844 0.0079024 0.12184 0.058706 0.047033 0.047526 0.20027 
-0.061973 -0.061151 -0.06855 0.028125 0.016288 0.076627 -0.029091 0.28231 
-0.10242 -0.098309 -0.11146 -0.031392 0.035195 0.08304 0.0059294 0.25041 
-0.11919 -0.14188 -0.12659 -0.062302 0.06035 0.093233 0.16048 0.16673 
-0.076113 -0.13596 -0.12971 -0.083347 0.066763 0.083204 0.25699 0.0324 
-0.08121 -0.050629 -0.13021 -0.088773 0.015959 -0.012978 0.17182 -0.18019 
-0.13744 -0.045861 -0.12133 -0.057534 -0.018733 -0.11853 -0.20978 -0.27456 
-0.15437 -0.026131 -0.048656 -0.030242 -0.053588 -0.26568 -0.66981 -0.2106 
-0.12626 0.0074092 -0.014787 0.0047785 -0.055068 -0.24677 -0.71453 -0.070523 
0.024015 0.0421 0.013986 0.038812 -0.02942 -0.12445 -0.42335 0.091753 
0.17873 0.038155 -0.011992 0.02681 0.0023123 -0.03912 -0.062302 0.30089 
0.25929 0.0088889 -0.019719 0.013164 0.030427 0.03388 0.2029 0.41746 
0.22016 0.027139 -0.071509 0.020727 0.045718 0.036839 0.17001 0.32802 
0.16492 0.071695 -0.063289 -0.0016336 0.069393 0.038977 0.065283 0.1276 
0.084684 0.075476 -0.008539 0.020562 0.07038 0.032729 -0.047505 0.0018191 
-0.042408 0.071859 0.063968 0.072681 0.077943 0.023686 -0.063453 -0.14204 
-0.14911 0.051801 0.12283 0.11905 0.055747 0.040128 0.018589 -0.24776 
-0.24431 0.0034632 0.12661 0.14108 0.039305 0.050486 0.10343 -0.22507 
-0.32092 -0.03912 0.071859 0.15242 -0.006566 0.050979 0.12299 -0.066413 
-0.3132 -0.023007 0.066269 0.12612 0.038483 0.00297 0.058542 -0.12429 
-0.30481 0.020398 0.057555 0.11099 0.016781 -0.042079 -0.024323 -0.28147 
-0.23477 -0.017088 0.035853 0.090767 0.015137 -0.033201 -0.14023 -0.35956 
0.012177 -0.0052507 0.049664 0.090438 0.013986 -0.027118 -0.145 -0.30629 
0.20224 0.16327 0.12135 0.1294 0.025001 0.0069159 -0.073318 -0.11064 
0.16886 0.26209 0.13417 0.18942 0.0421 0.036839 -0.024323 -0.052602 
0.014643 0.1465 0.10211 0.16015 0.052294 0.053445 -0.01232 -0.074962 
-0.071345 0.014479 0.05213 0.1202 0.064954 0.021056 -0.070523 0.10228 
-0.01117 -0.062302 0.022371 0.081724 0.040456 0.032564 -0.042244 0.38507 
0.064132 -0.025967 0.035195 0.070215 0.060844 0.032729 -0.017417 0.33591 
0.081231 -0.041751 0.050814 0.086985 0.062652 0.058049 0.057062 -0.34756 
-0.006566 -0.022843 0.027961 0.10491 0.016945 -0.015938 0.036182 -0.70006 
-0.010183 0.073997 0.01826 0.074326 -0.0064016 -0.038298 0.068736 0.13088 
0.088958 0.13713 0.028947 0.071859 -0.026131 -0.020377 0.097015 0.91004 
0.21358 0.15505 0.10376 0.12316 0.028783 0.068736 0.087314 0.94391 
0.24795 0.14371 0.1276 0.14617 0.067585 0.070873 0.060186 0.48865 
0.15472 0.10474 0.062159 0.11198 0.033222 0.0072447 -0.034188 -0.0060728 
0.052294 0.064132 -0.033365 0.07301 0.0021479 -0.038133 -0.061973 -0.52792 
0.016123 0.074819 0.015465 0.064461 -0.015444 0.0042853 -0.031557 -0.82041 
0.017274 0.089123 0.13088 0.13417 0.03799 0.052952 0.07301 -0.39573 
0.0090533 0.22296 0.24318 0.23282 0.069886 0.11 0.1391 0.0072447 
0.0095465 0.24285 0.27935 0.28182 0.091753 0.12661 0.17445 0.14206 
-0.10653 0.14667 0.26143 0.28823 0.08863 0.11592 0.16804 0.1322 
-0.30169 -0.011992 0.14996 0.25452 0.051801 0.047197 0.12151 0.06742 
-0.35249 -0.14566 -0.0004827 0.11839 -0.024323 0.013986 0.046375 -0.055397 
-0.087786 -0.077757 -0.082525 0.022371 -0.0027845 0.028125 0.028619 -0.12182 
0.18366 0.031742 -0.099131 -0.021528 0.010697 0.086492 0.062323 -0.05178 
0.29349 0.072681 -0.1113 -0.061316 0.03388 0.080738 0.095864 0.10737 
0.23693 -0.033365 -0.16227 -0.10604 0.049006 0.059857 0.11773 0.25337 
0.21424 -0.049478 -0.21291 -0.11409 0.020562 0.071695 0.14042 0.39543 
0.2172 0.013821 -0.14944 -0.10587 0.01267 0.066598 0.12135 0.29415 
0.18004 0.12875 -0.019884 -0.021692 0.013986 0.076463 0.15094 0.13878 
0.26751 0.23627 0.16344 0.12431 0.047362 0.095042 0.15028 0.13467 
0.29004 0.20997 0.30878 0.25715 0.062981 0.083204 0.17429 0.066763 
0.18958 0.24088 0.38688 0.34988 0.041936 0.11477 0.19533 -0.18726 
0.029605 0.27573 0.30714 0.37257 0.057227 0.10984 0.23134 -0.35299 
-0.075455 0.23496 0.15357 0.26521 0.072024 0.09422 0.21737 -0.042901 
-0.036654 0.01711 0.030592 0.14601 0.051143 0.089123 0.17643 0.32012 
0.094548 -0.049149 -0.015444 0.069393 0.064625 0.082053 0.13878 0.34594 
0.068571 -0.087293 -0.038133 0.021056 0.023851 0.031249 0.071202 0.046046 
-0.029091 -0.17164 -0.054575 -0.0052507 -0.015444 0.0021479 0.069064 -0.21603 
-0.090417 -0.19794 -0.13793 -0.043724 -0.027611 -0.00097594 0.08008 -0.23033 
-0.0096899 -0.13399 -0.20797 -0.12001 -0.030899 0.016288 0.10787 0.098494 
0.023028 -0.088444 -0.21932 -0.14993 -0.031228 0.020727 0.10819 0.35136 
0.007738 -0.030077 -0.16851 -0.13267 0.014479 0.027139 0.12299 0.42338 
0.071366 0.088794 -0.042244 -0.052273 0.029934 0.044073 0.12266 0.329 
0.1738 0.12809 0.091096 0.053609 0.048841 0.086492 0.12579 0.19944 
0.2371 0.040292 0.051801 0.11428 0.025659 0.060022 0.10096 0.26291 
0.20898 -0.032708 -0.034188 0.046704 0.017438 0.027632 0.037497 0.3974 
0.17018 -0.065919 -0.14056 -0.045203 0.00050378 -0.02087 -0.038956 0.34758 
0.10935 -0.092226 -0.28607 -0.17065 -0.028269 -0.076277 -0.1644 -0.031557 
0.047033 -0.046683 -0.37551 -0.28048 -0.059836 -0.10193 -0.22951 -0.51066 
0.021878 0.035524 -0.35019 -0.31073 -0.034023 -0.09091 -0.20074 -0.62049 
0.047855 0.12299 -0.22014 -0.19219 0.028947 -0.028269 -0.10571 -0.20156 
0.15226 0.13072 0.10343 0.024837 0.083368 0.056733 0.035031 0.071695 
0.23331 0.11625 0.3387 0.2468 0.11346 0.1026 0.14239 0.13138 
0.1031 0.057062 0.3928 0.35925 0.11 0.11625 0.14453 0.026646 
-0.14467 -0.041093 0.27853 0.31963 0.075312 0.07301 0.079916 -0.12363 
-0.291 -0.044052 0.18843 0.25156 0.064296 0.019905 0.021549 -0.30744 
-0.19909 0.01974 0.037332 0.1659 0.033058 -0.03501 -0.027118 -0.47169 
-0.028269 0.064954 -0.044052 0.06331 -0.0057439 -0.053588 -0.060494 -0.10604 
0.059528 0.022371 -0.065262 0.013986 -0.027447 -0.048985 -0.076935 0.56198 
0.066927 -0.0039354 -0.038956 0.0095465 -0.023007 -0.038956 -0.088937 0.88801 
0.069393 0.072353 0.035031 0.043909 0.0044497 -0.044874 -0.084169 0.57184 
-0.048985 0.093233 0.080902 0.084519 0.04654 -0.0072237 -0.081539 -0.25483 
-0.18775 0.039634 0.022864 0.088136 0.018589 0.00050378 -0.091239 -0.55735 
-0.28919 -0.025145 -0.040764 0.031742 -0.0077169 -0.017088 -0.082361 -0.26535 
-0.24727 -0.0078813 0.0018191 0.043745 -0.00081153 -0.023665 -0.031064 0.12825 
-0.12478 0.050157 0.011848 0.052623 0.024179 -0.018404 0.012177 0.27047 
-0.11787 0.10441 0.038483 0.067091 0.026317 -0.030899 -0.032379 0.097672 
-0.13464 0.061337 0.046868 0.069886 0.034702 0.0074092 -0.040106 -0.0078813 
0.030592 -0.029913 0.041607 0.090767 0.012999 -0.012814 -0.045203 -0.058685 
0.20438 -0.032872 0.045224 0.086163 0.015465 -0.025474 -0.071016 -0.074962 
0.2389 0.048019 0.063639 0.098823 0.045553 -0.012156 -0.010676 0.011848 
0.14502 0.13039 0.086163 0.11198 0.075641 0.019247 0.014643 0.1396 
0.047033 0.11378 0.13401 0.14305 0.064954 0.034373 -0.0036066 0.13351 
-0.030406 0.083368 0.18465 0.18629 0.026974 0.048513 -0.034188 0.01267 
-0.015773 0.095371 0.15242 0.20717 0.023357 -0.0057439 -0.040435 -0.0080457 
0.058377 0.14552 0.092576 0.16196 0.01267 -0.016595 -0.11064 0.089123 
0.083368 0.11674 0.049335 0.11872 0.0026412 -0.037476 -0.1381 0.034866 
0.11378 0.1299 0.013657 0.077778 -0.02498 -0.069536 -0.16588 -0.20814 
0.11905 0.21227 0.019576 0.058706 -0.059014 -0.058192 -0.071838 -0.43421 
0.13072 0.18974 0.056076 0.069229 -0.0052507 0.036182 0.038155 -0.20896 
0.10721 0.047033 0.037332 0.099974 0.066598 0.10014 0.12891 0.17478 
0.030098 -0.015444 0.081724 0.11773 0.09685 0.12694 0.15423 0.19287 
-0.10423 0.028454 0.19385 0.19385 0.11263 0.10721 0.15982 0.082053 
-0.18331 0.071037 0.30681 0.29135 0.11724 0.11822 0.1664 0.038812 
-0.35266 0.093726 0.34939 0.33689 0.098988 0.077121 0.17971 -0.0406 
-0.4393 -0.028433 0.30007 0.32259 0.039305 0.0074092 0.15933 -0.14665 
-0.2374 0.026974 0.24614 0.32177 0.024837 -0.019061 0.11905 0.053281 
0.14075 0.24564 0.30007 0.33673 0.029605 -0.0024557 -0.026789 0.32292 
0.19764 0.35728 0.30385 0.34232 -0.0098543 -0.087951 -0.21011 0.24301 
-0.093212 0.23414 0.1807 0.25896 -0.073647 -0.16901 -0.34838 -0.074469 
-0.29067 -0.048327 0.038155 0.14502 -0.063618 -0.16309 -0.30563 -0.2739 
-0.20173 -0.23658 0.015465 0.078929 -0.038956 -0.041257 -0.14073 -0.12314 
0.26685 -0.081374 0.035853 0.095042 0.035031 0.093398 0.087479 0.16689 
0.64682 0.25995 0.013492 0.079916 0.079422 0.20076 0.24647 0.47418 
0.60538 0.27327 -0.072989 0.009711 0.084848 0.18794 0.2371 0.5651 
0.42946 0.082053 -0.12215 -0.044217 0.073832 0.13417 0.13598 0.48816 
0.27327 -0.066248 -0.078086 -0.045203 0.081395 0.060186 -0.00064712 0.25666 
0.0095465 -0.15174 -0.077264 -0.044052 0.098659 0.05624 0.025988 -0.040106 
-0.30136 -0.14204 -0.090581 -0.038627 0.092082 0.016616 0.055747 -0.35611 
-0.43848 0.017274 -0.031064 -0.0042642 0.043087 0.015465 0.047691 -0.5345 
-0.16588 0.159 0.034209 0.044896 0.0014903 0.0056006 0.02122 -0.70269 
0.15111 0.15653 0.14996 0.13368 -0.013965 -0.00064712 0.062652 -0.63495 
0.28165 0.074326 0.16706 0.17051 -0.02498 -0.0138 0.11231 -0.073482 
0.22986 0.015137 0.056076 0.11033 -0.038462 0.021878 0.09833 0.34051 
0.16722 -0.04882 -0.15865 -0.019719 -0.00097594 0.0037921 0.048348 0.36649 
0.10277 -0.087458 -0.29034 -0.15799 -0.0068948 0.0031344 0.03651 0.25354 
-0.059836 -0.11837 -0.27752 -0.19844 0.017932 0.037661 0.090931 0.17149 
-0.11294 -0.076113 -0.13481 -0.13004 0.050814 0.062323 0.12332 0.089945 
-0.078744 0.0069159 0.10754 0.043416 0.090603 0.071531 0.024837 0.10573 
0.056076 0.082546 0.33624 0.23956 0.083204 0.060515 -0.023994 0.089616 
0.14141 0.1248 0.3803 0.37191 0.075641 0.044402 0.013164 0.092082 
0.12151 0.11576 0.25041 0.31733 0.0046141 0.039141 0.015959 0.11691 
0.15144 0.12266 0.10951 0.21375 0.0098754 0.056898 0.038977 0.18087 
0.1077 0.092904 0.020891 0.12069 0.057227 0.031085 0.057062 0.10754 
-0.011992 -0.091239 -0.21751 -0.072332 -0.012814 -0.02235 0.0062583 -0.04882 
-0.13958 -0.29281 -0.52184 -0.33885 -0.07825 -0.088444 -0.065097 -0.11031 
-0.16013 -0.30152 -0.66044 -0.5026 -0.080881 -0.109 -0.094527 -0.11261 
-0.057205 -0.14582 -0.64153 -0.54568 -0.050464 -0.10209 -0.1205 -0.096665 
0.049992 -0.018733 -0.45311 -0.45394 0.0011614 -0.078086 -0.092719 0.038977 
0.10359 0.047855 -0.23247 -0.29199 0.067749 0.019083 -0.0054151 0.16755 
0.082382 0.072681 -0.00064712 -0.085978 0.073339 0.062323 0.09126 0.24433 
0.10984 0.1248 0.19961 0.097672 0.076463 0.086492 0.16311 0.12266 
0.10211 0.15078 0.26801 0.23594 0.058706 0.12168 0.1881 -0.11755 
0.075641 0.13664 0.25255 0.27129 0.048841 0.15028 0.19205 -0.14352 
0.070708 0.11181 0.18218 0.23989 0.04506 0.1105 0.20372 0.066927 
0.063968 0.10392 0.11937 0.18974 0.034702 0.093891 0.16689 0.1197 
0.022535 0.050157 0.044073 0.12233 0.035688 0.04358 0.068242 -0.073482 
0.018425 -0.0050863 0.029934 0.081889 0.023028 0.046375 -0.00015387 0.042758 
0.03388 0.018754 0.0047785 0.067256 0.016781 -0.0082102 0.0087245 0.28856 
0.04917 0.026481 -0.0406 0.035524 0.035524 -0.054246 0.03536 0.3438 
0.023028 -0.00081153 -0.050629 0.0064227 -0.0055795 -0.045532 0.053774 0.10951 
-0.039942 -0.016102 -0.036654 0.0060938 -0.018075 -0.023336 0.023686 -0.37222 
-0.16917 0.0013258 -0.008539 0.012999 0.015959 -0.025802 -0.016431 -0.77799 
-0.18578 0.025824 0.025988 0.035524 0.025495 0.0070803 -0.061809 -0.65666 
-0.07973 0.017438 0.0019835 0.044731 0.053938 0.069886 -0.00064712 -0.1256 
0.1151 0.070051 -0.041751 0.037826 0.025495 0.13384 0.082217 0.37619 
0.24515 0.11526 -0.029748 0.024179 0.011355 0.10359 0.091589 0.63498 
0.19221 0.15489 0.016123 0.043745 0.0013258 0.059035 0.091589 0.57201 
0.053938 0.10425 0.050979 0.074819 -0.0055795 0.042758 0.065447 0.28445 
-0.06707 0.028619 0.0786 0.089616 0.0028056 -0.0067304 0.059693 0.061995 
-0.16243 -0.03912 0.055089 0.099152 0.036839 0.010204 0.13598 0.045224 
-0.20156 -0.078744 0.031742 0.10507 0.052294 0.037168 0.22131 -0.0022913 
-0.090581 0.00083261 0.06035 0.10573 0.086821 0.074654 0.1904 -0.2014 
0.022042 0.034537 0.090109 0.12842 0.076299 0.10293 0.16574 -0.67409 
0.066105 0.14157 0.14519 0.16179 0.047362 0.0087245 0.10458 -0.73689 
0.057884 0.14913 0.2024 0.19994 0.040292 -0.058521 -0.0011404 -0.04619 
0.10507 0.13993 0.20175 0.23003 0.0074092 -0.096172 -0.21044 0.62906 
0.18185 0.15357 0.16623 0.23611 -0.0024557 -0.14928 -0.4153 0.64418 
0.16393 0.11165 0.11296 0.18432 0.029934 -0.085649 -0.35825 0.37076 
0.13713 0.061666 0.12677 0.17824 0.044073 0.03651 -0.12494 0.13828 
0.11757 0.087808 0.10639 0.15341 0.093726 0.16919 0.12644 0.081395 
0.087479 0.16426 0.12003 0.14716 0.051472 0.19353 0.23792 -0.071674 
0.056569 0.18925 0.11 0.14354 0.062488 0.1613 0.24499 -0.20863 
0.078436 0.17265 0.055089 0.13795 0.034702 0.11658 0.19928 -0.085649 
0.11 0.14749 0.063803 0.12135 0.038977 0.069558 0.14765 0.058377 
0.085506 0.089616 0.15259 0.16903 0.069722 0.076792 0.086985 0.19698 
0.054925 0.038977 0.20799 0.22016 0.055089 0.046868 0.031249 0.2611 
0.051143 -0.006566 0.19912 0.22328 0.049992 -0.0050863 0.057884 0.20651 
-0.082854 0.0028056 0.18744 0.2223 0.037497 -0.036489 0.044567 -0.054246 
-0.27012 -0.022679 0.12316 0.21194 0.021713 -0.034516 0.019247 -0.16473 
-0.24628 -0.077757 0.047691 0.1368 0.016616 -0.051944 0.0024767 -0.008539 
-0.022679 -0.00064712 -0.0088678 0.073504 0.010862 -0.033859 0.0028056 0.16229 
0.20717 0.14946 -0.024323 0.040456 0.019083 -0.023665 -0.065262 0.088136 
0.30829 0.14765 -0.0047575 0.031742 0.031249 0.0028056 -0.17377 -0.02794 
0.23298 0.092576 0.047691 0.068242 0.049992 -0.032379 -0.27226 -0.14171 
0.075641 0.079422 0.078765 0.13434 0.05624 -0.030899 -0.23428 -0.206 
-0.062796 0.037497 0.11017 0.14996 0.072681 -0.0083746 -0.11541 -0.37518 
-0.19433 0.040128 0.095042 0.14108 0.0689 0.019905 -0.019226 -0.42007 
-0.14467 -0.030735 0.061995 0.11329 0.0037921 -0.02942 -0.0042642 -0.17114 
0.00066819 0.077943 0.11905 0.13631 0.010697 0.013657 0.052787 0.11543 
0.044238 0.14486 0.19566 0.18925 0.016616 0.043745 0.11642 0.29513 
0.12266 0.050814 0.12612 0.20438 0.015959 0.014972 0.083697 0.26981 
0.17873 -0.01939 0.05065 0.13762 -0.028269 -0.047341 0.023357 0.3101 
0.013657 0.021549 0.019576 0.092247 -0.017911 -0.041751 -0.02235 0.32933 
-0.22737 -0.01676 -0.025802 0.037661 -0.00031829 -0.013471 0.0054362 0.26948 
-0.23017 -0.024652 -0.079072 -0.014129 0.045224 0.07301 0.0786 0.14042 
-0.1159 0.019247 -0.16013 -0.087458 0.072353 0.10606 0.10096 -0.013471 
-0.014787 0.028947 -0.25401 -0.133 0.04506 0.11263 0.11905 -0.085649 
0.073997 0.030756 -0.2545 -0.18002 0.022371 0.055747 0.066105 0.096028 
0.13187 0.028947 -0.12116 -0.11261 0.0013258 -0.021528 -0.1011 0.26998 
0.1294 0.075641 0.093398 0.041607 0.0014903 -0.072496 -0.1621 0.33394 
0.088465 0.089287 0.24153 0.17939 0.027468 -0.066577 -0.17262 0.23907 
0.10277 0.081889 0.27047 0.25403 0.054596 0.013821 -0.11376 0.01826 
0.12217 0.11247 0.16344 0.256 0.050321 0.089287 -0.044874 -0.13218 
0.1003 0.14881 0.11921 0.19796 0.045718 0.068242 0.049828 -0.33622 
0.056733 0.1636 0.11 0.1738 0.0072447 -0.015444 0.028619 -0.71535 
0.039634 0.077778 0.10047 0.15456 0.0072447 -0.045039 0.02829 -0.88519 
0.048513 0.020069 0.11855 0.15226 0.00033937 -0.026789 0.034702 -0.34888 
0.088958 -0.041751 0.058213 0.10902 -0.010512 0.016781 0.10178 0.13302 
0.11198 -0.10225 -0.10193 0.037661 0.0079024 0.062652 0.16344 0.44327 
0.072188 -0.12873 -0.27061 -0.1279 0.00297 0.036182 0.15653 0.35712 
-0.04882 -0.12955 -0.44621 -0.29922 0.0013258 0.039963 0.094384 0.17182 
-0.16325 -0.18759 -0.51608 -0.41497 -0.013636 0.017767 0.087479 0.14963 
-0.1866 -0.13201 -0.34361 -0.34723 -0.018075 0.039799 0.12266 0.11033 
-0.057534 0.055418 -0.11607 -0.17641 0.024837 0.08863 0.18909 -0.17131 
0.17429 0.25255 0.13467 0.077614 0.05624 0.14239 0.21769 -0.17082 
0.2685 0.29596 0.33574 0.26389 0.053281 0.11296 0.12891 0.2172 
0.23512 0.14568 0.2828 0.29464 0.049006 0.055911 0.044896 0.44968 
0.14174 -0.0031133 0.13598 0.21523 -0.0016336 0.024179 -0.035832 0.2953 
0.013328 -0.12922 -0.0016336 0.096686 0.018425 -0.026789 -0.10587 0.063474 
-0.13744 -0.13284 -0.070687 0.016123 0.028454 -0.02498 -0.12642 -0.02087 
-0.13908 -0.065426 -0.13777 -0.02235 0.016616 -0.029255 -0.076277 0.0092177 
0.019083 0.029934 -0.18463 -0.095185 0.035195 0.015959 -0.047669 0.17495 
0.17593 0.019083 -0.25565 -0.1667 -0.0073881 0.043251 -0.067235 0.1756 
0.19583 -0.018404 -0.28163 -0.21471 -0.045532 -0.013636 -0.11771 0.028783 
0.16229 -0.026789 -0.24776 -0.22737 -0.056877 -0.0024557 -0.023994 -0.2203 
0.15094 0.035031 -0.15405 -0.16013 -0.016924 0.081231 0.1248 -0.42599 
0.12381 0.089452 -0.056712 -0.043724 0.004943 0.14667 0.22789 -0.36663 
0.19007 0.11822 0.13319 0.095371 0.00033937 0.12842 0.26981 0.14354 
0.2417 0.15374 0.24466 0.21441 0.020727 0.092247 0.24203 0.36797 
0.055418 0.042265 0.17495 0.21128 0.059857 0.072517 0.16081 0.044402 
-0.31369 -0.072167 0.11395 0.16459 0.095864 0.065118 0.085506 -0.09798 
-0.55439 -0.23411 0.061172 0.11362 0.087314 0.024015 0.05065 0.027796 
-0.38883 -0.36762 -0.048656 0.062159 0.024179 -0.022021 0.010204 0.19731 
0.25271 -0.20419 -0.046354 0.015959 -0.0098543 -0.025474 0.021878 0.29628 
0.72623 0.23118 0.063145 0.077943 0.014315 0.052294 0.057884 0.14141 
0.64402 0.63037 0.10737 0.12529 0.072353 0.12102 0.066598 -0.0068948 
0.32571 0.50969 0.024015 0.075805 0.062323 0.069558 0.090274 0.0036276 
0.060515 0.10228 -0.049314 0.015794 0.036017 0.031907 0.014808 -0.018897 
-0.1159 -0.10965 -0.066248 0.01711 0.0080668 0.037826 -0.063124 -0.03616 
-0.17098 -0.066741 0.015465 0.046375 0.036182 0.051801 -0.062467 -0.018733 
-0.084334 -0.012649 0.10589 0.11132 0.048184 0.062817 -0.0039354 0.053774 
0.025495 0.013492 0.15867 0.16459 0.034537 0.03536 0.024015 0.11888 
0.07038 0.030756 0.15883 0.17758 0.01563 0.0087245 0.073504 0.1562 
0.034702 0.045882 0.11115 0.1516 0.018589 0.040292 0.086328 0.13171 
0.011026 0.011684 0.026152 0.12118 0.024508 0.049499 0.037661 0.17692 
0.074654 0.021713 0.039799 0.097508 -0.0034422 -0.01117 -0.033037 0.42107 
0.14272 0.12217 0.11017 0.13483 -0.012978 -0.059672 -0.1039 0.64007 
0.15916 0.051143 0.13861 0.16146 0.0032988 -0.04471 -0.068386 0.50558 
0.090931 0.09274 0.18399 0.19912 0.036346 -0.033037 -0.051615 0.18991 
-0.018897 0.21868 0.2953 0.27787 0.066927 0.007738 -0.0014692 -0.0503 
-0.097816 0.31338 0.34561 0.38129 0.097508 0.041607 0.092576 -0.17657 
-0.19696 0.26209 0.32835 0.37257 0.077121 0.02533 0.049992 -0.62016 
-0.24431 0.16492 0.23414 0.31092 0.057884 -0.024652 -0.060165 -1.3968 
-0.17164 0.1105 0.13664 0.22723 0.015137 -0.034188 -0.069043 -1.188 
-0.059178 0.063803 0.17232 0.21408 0.0018191 -0.033859 -0.056055 -0.24546 
0.0046141 0.062323 0.25929 0.2833 0.037497 -0.0073881 -0.09798 0.46448 
0.030756 0.037004 0.27014 0.33065 0.073668 0.021878 -0.094199 0.55984 
-0.052602 -0.052766 0.20717 0.27853 0.068407 -0.00015387 0.0046141 0.33755 
-0.095349 -0.17821 0.03388 0.14881 0.041278 0.049664 0.06479 0.084355 
-0.057041 -0.20748 -0.19334 -0.037969 0.010204 0.093398 0.14206 -0.050464 
-0.021199 -0.12264 -0.34756 -0.20962 0.03536 0.10293 0.17412 -0.10538 
0.012999 0.004943 -0.43141 -0.32997 0.029769 0.093398 0.16377 0.062488 
-0.038298 0.087479 -0.37124 -0.30169 -0.0022913 0.034373 0.069886 0.48717 
-0.0096899 0.16755 -0.13152 -0.16457 -0.0067304 -0.0070593 0.029605 0.548 
0.094384 0.24203 0.16179 0.06594 -0.0080457 -0.050793 0.073339 0.14289 
0.053609 0.21046 0.34725 0.26373 0.0041209 -0.025145 0.040456 -0.068879 
-0.017746 0.13319 0.4043 0.36912 0.011026 -0.043066 -0.027282 0.064132 
-0.088444 0.076627 0.4288 0.41992 0.03536 -0.057699 -0.080717 0.15851 
-0.061151 0.084848 0.33837 0.42617 0.060844 -0.059014 -0.091568 0.1276 
-0.049971 0.052294 0.26274 0.34758 0.019411 -0.068057 -0.10406 -0.075949 
-0.051451 0.044896 0.14404 0.24532 0.030098 -0.025474 -0.071509 -0.24612 
0.018918 0.043909 0.054596 0.15111 0.045553 0.04654 -0.012649 -0.29166 
0.16146 0.090767 -0.020541 0.066927 0.064132 0.059693 0.043909 -0.2111 
0.2126 0.090767 -0.025309 0.023686 0.098001 0.069064 0.073339 -0.10538 
0.10902 0.050979 -0.066741 0.01415 0.041772 0.03799 0.043909 -0.038133 
-0.024652 -0.05441 -0.16901 -0.076606 -0.03057 -0.00097594 0.011191 -0.047505 
-0.081868 -0.13185 -0.23 -0.14648 -0.041586 -0.045368 0.038648 0.0069159 
-0.046683 -0.12314 -0.25171 -0.1866 -0.057863 -0.057863 0.029769 0.12825 
0.011684 -0.077922 -0.22737 -0.18791 -0.018404 -0.039778 0.037661 0.1807 
0.034537 -0.036325 -0.18397 -0.16605 0.013657 0.026481 0.040456 0.22542 
0.056733 -0.028269 -0.18084 -0.12856 0.045553 0.052294 0.045718 0.20372 
0.024015 -0.026789 -0.12725 -0.10209 0.031907 0.062159 0.045718 0.17889 
0.015301 0.037168 0.013986 -0.0031133 0.046704 0.071531 0.080573 0.17001 
0.08863 0.14782 0.10425 0.090603 0.066269 0.1054 0.068736 0.13927 
0.072517 0.082053 0.08419 0.10293 0.064461 0.058871 0.025659 0.020891 
-0.034681 0.007738 0.057884 0.089287 0.0039565 0.0092177 -0.0070593 -0.012156 
-0.062796 0.032071 0.028125 0.10326 -0.0082102 -0.0088678 -0.018568 0.23973 
-0.035667 0.027303 -0.046847 0.035524 -0.004593 0.024015 -0.004593 0.37833 
-0.02794 0.00099702 -0.08384 -0.014458 0.016781 0.020069 0.0056006 0.086492 
-0.16407 -0.056548 -0.18232 -0.093048 0.01563 -0.00081153 0.042265 -0.58366 
-0.36532 -0.065426 -0.14813 -0.11179 -0.026789 0.0018191 0.080902 -0.77734 
-0.28689 -0.073154 -0.034516 -0.049314 -0.02498 0.0090533 0.077614 -0.59632 
0.088794 -0.018733 -0.0044286 0.032236 -0.017582 0.016616 0.11724 -0.53861 
0.3313 0.037168 -0.0054151 0.036346 0.04095 0.078272 0.18728 -0.29741 
0.54093 0.06183 0.026481 0.05624 0.082875 0.09685 0.16475 0.3027 
0.70765 0.19977 0.091589 0.10359 0.07301 0.11132 0.16426 0.81468 
0.45215 0.366 0.18892 0.17495 0.071695 0.094055 0.17889 0.8765 
0.044731 0.35366 0.22345 0.21835 0.0056006 0.043745 0.097015 0.64188 
-0.086636 0.19073 0.11181 0.19237 -0.0004827 -0.0027845 -0.012485 0.42173 
0.023028 0.0069159 -0.058356 0.066105 -0.013965 -0.022843 -0.11968 0.19106 
0.12908 -0.11146 -0.20271 -0.074633 -0.04323 -0.097487 -0.15569 -0.004593 
0.12891 -0.11064 -0.23724 -0.15191 -0.0013048 -0.085485 -0.18512 -0.13086 
0.097015 -0.16128 -0.18972 -0.15158 0.055911 -0.046025 -0.21356 -0.18216 
-0.10571 -0.15832 -0.036325 -0.051451 0.11362 0.034866 -0.19646 -0.24168 
-0.29133 -0.014129 0.10984 0.086163 0.12085 0.081724 -0.076277 -0.26634 
-0.24727 0.18087 0.23249 0.20503 0.093233 0.11905 0.076463 -0.14928 
-0.083347 0.17265 0.20914 0.22855 0.037168 0.083697 0.099316 0.049992 
0.12365 0.1396 0.15719 0.20306 -0.025802 0.040456 0.10195 0.18744 
0.25847 0.16196 0.17429 0.20997 -0.027447 0.021878 0.08304 0.16393 
0.25074 0.15637 0.183 0.20947 0.028454 0.048019 0.12562 0.020727 
0.18251 0.057884 0.089287 0.17971 0.062488 0.062159 0.14141 -0.17608 
0.025988 -0.06855 -0.0068948 0.091753 0.072188 0.080738 0.15653 -0.26289 
-0.084991 -0.11212 -0.065426 0.024344 0.079916 0.05213 0.1299 -0.19038 
-0.076277 -0.065262 -0.045861 0.009711 0.046375 0.013164 0.076299 0.032564 
0.011355 0.048348 0.0070803 0.030756 0.036017 0.0085601 0.048184 0.20076 
0.14864 0.18399 0.053938 0.061172 0.016616 0.01267 0.036182 0.36057 
0.26324 0.24449 0.048184 0.091918 0.00033937 0.014315 -0.00064712 0.39428 
0.23989 0.18004 0.0032988 0.066269 -0.0016336 -0.010348 -0.040435 0.23118 
0.076134 0.10113 0.01711 0.063474 0.028619 -0.0067304 -0.056055 0.026974 
-0.098309 0.051965 0.059364 0.083204 0.027796 0.016452 -0.052273 -0.10423 
-0.17789 0.014808 0.087972 0.10672 0.048841 -0.0091966 -0.11755 -0.13925 
-0.12675 0.049335 0.11905 0.13598 0.025988 -0.0138 -0.1718 -0.0067304 
-0.047176 0.087479 0.12184 0.15456 0.041278 0.030263 -0.09239 0.13697 
0.016616 0.063474 0.10935 0.15982 0.077778 0.091918 0.029769 0.12184 
0.043745 0.04358 0.053938 0.12118 0.050979 0.053774 0.089945 0.047691 
0.052623 0.038155 0.037004 0.095535 0.04917 0.073832 0.12053 -0.06296 
0.059528 0.10573 0.1225 0.13664 0.063803 0.077285 0.085341 -0.12264 
0.028125 0.08715 0.15719 0.18021 0.0689 0.061995 0.085999 -0.28936 
-0.087458 0.041772 0.17133 0.2052 0.049992 0.065118 0.078436 -0.40247 
-0.21455 -0.0024557 0.076792 0.15144 0.022206 0.017603 0.082875 -0.42105 
-0.1912 -0.038627 0.023357 0.090603 -0.021199 -0.057863 0.039141 -0.036654 
-0.08269 -0.05737 0.025988 0.075476 -0.025474 -0.057041 0.0019835 0.40792 
0.090438 0.020562 0.069064 0.10754 -0.024487 -0.055068 -0.015938 0.71192 
0.22493 0.090438 0.092082 0.11181 0.0014903 -0.065097 -0.022843 0.78887 
0.2708 0.12003 0.052787 0.1026 0.028454 -0.028926 0.023522 0.53715 
0.13302 0.11066 0.0031344 0.072188 0.040621 0.054596 0.059693 0.095042 
0.036839 0.079258 -0.031228 0.031414 0.039305 0.10277 0.10935 -0.1136 
-0.036654 0.0026412 -0.14204 -0.053424 0.0067515 0.08863 0.088136 -0.06444 
-0.083512 -0.074798 -0.23033 -0.14533 0.0019835 0.028783 0.017438 -0.03057 
-0.12083 -0.10045 -0.19367 -0.1552 -0.0016336 -0.0070593 -0.12494 -0.063782 
-0.15224 -0.066906 -0.044546 -0.053095 0.05772 0.023357 -0.10735 -0.075127 
-0.1404 0.034209 0.089945 0.073339 0.093562 0.069064 0.044402 -0.048985 
-0.12971 0.069886 0.18563 0.16804 0.077778 0.096521 0.18185 -0.33901 
-0.084005 0.053609 0.23348 0.23151 0.051472 0.09422 0.25814 -0.54387 
0.10622 0.10113 0.20388 0.23742 0.027796 0.051801 0.25173 -0.32125 
0.22312 0.094877 0.16574 0.20372 -0.015116 -0.036983 0.17988 0.09274 
0.23562 0.088794 0.11609 0.1756 -0.034023 -0.08532 -0.0040998 0.28494 
0.21227 0.097179 0.080244 0.15867 -0.026624 -0.083018 -0.15848 0.20931 
0.12069 0.066763 0.068736 0.13171 -0.026624 -0.036489 -0.17312 -0.088608 
0.043909 -0.035832 0.0054362 0.079258 -0.029584 -0.0080457 -0.086636 -0.18874 
-0.057041 -0.060658 -0.025967 0.037497 -0.012649 0.025001 -0.012156 -0.069701 
-0.17624 -0.048163 -0.058192 -0.009361 0.034044 0.072517 0.058377 -0.054575 
-0.46791 -0.0036066 -0.086471 -0.022679 0.033222 0.068407 0.060515 -0.10045 
-0.66027 0.017603 -0.12445 -0.035174 0.018754 0.015137 0.031907 -0.015116 
-0.43552 0.041936 -0.068879 -0.027611 0.030592 -0.0027845 0.032729 0.1756 
-0.049807 0.072681 0.025001 0.032893 0.048348 0.047855 0.060844 0.18152 
0.21753 0.016616 0.017603 0.048677 0.060679 0.047362 0.08863 0.048184 
0.21523 0.029934 0.0227 0.047033 0.0421 0.018589 0.070873 -0.087786 
0.039963 0.052459 0.069886 0.084355 0.020233 0.018589 0.065283 -0.096994 
-0.0064016 -0.026624 0.038977 0.10359 0.023522 0.038483 0.080573 0.0023123 
0.29941 -0.081868 0.058871 0.10293 0.042923 0.054432 0.08978 0.17511 
0.66408 -0.0060728 0.092411 0.12217 0.075805 0.054103 0.08419 0.2731 
0.5845 0.26718 0.17906 0.1784 0.073175 0.03947 0.052787 0.19681 
0.14733 0.37011 0.17889 0.19106 0.036182 0.0098754 0.0062583 -0.010512 
-0.17098 0.21424 0.043251 0.10737 -0.0096899 -0.015938 -0.012156 -0.15306 
-0.27407 -0.030899 -0.12231 0.013821 -0.037147 -0.046519 0.014643 -0.25088 
-0.27834 -0.14895 -0.30432 -0.1547 -0.013143 -0.015609 -0.004593 -0.28426 
-0.21669 -0.1649 -0.38094 -0.27045 0.0079024 0.0028056 -0.040271 -0.18643 
-0.065262 -0.13037 -0.31073 -0.26601 0.015465 0.014643 -0.089431 0.0023123 
-0.024487 -0.10291 -0.2254 -0.22014 0.019576 0.030592 -0.054575 0.12727 
-0.051451 -0.073154 -0.1011 -0.11837 0.026317 0.062981 -0.0087034 0.072517 
0.0065871 0.034702 0.0028056 0.0087245 0.056076 0.090767 0.036346 0.024344 
0.17692 0.20208 0.16607 0.13467 0.10425 0.093398 0.052459 0.12957 
0.29924 0.23841 0.25666 0.23463 0.077614 0.04917 0.017274 0.39197 
0.26718 0.14765 0.28165 0.2833 0.032893 0.019905 0.016616 0.58286 
0.11263 0.079587 0.24663 0.27557 0.0080668 -0.0032777 0.022864 0.51923 
-0.013471 0.074654 0.19846 0.25748 0.056076 0.023193 0.077449 0.35482 
-0.030735 0.08419 0.14157 0.23545 0.071695 0.051965 0.083862 0.14979 
-0.064768 0.016452 0.1105 0.18415 0.051965 0.051472 0.018096 -0.15421 
-0.072332 0.010862 0.052459 0.12792 0.053609 0.059857 0.079751 -0.48715 
-0.0040998 0.015301 -0.032379 0.052952 0.024673 0.080409 0.11494 -0.77816 
0.05772 -0.015116 -0.10127 -0.025474 0.031414 0.062817 0.15604 -0.73804 
0.17166 -0.012485 -0.096336 -0.046683 0.057884 0.098001 0.1761 -0.30909 
0.24745 0.018096 -0.15355 -0.056055 0.069393 0.0689 0.16755 -0.050793 
0.28839 0.084684 -0.17772 -0.10439 0.055582 0.039305 0.10244 0.18366 
0.31716 0.1008 -0.099624 -0.076277 0.057884 0.0018191 -0.0055795 0.73165 
0.28264 0.079751 -0.0031133 -0.001798 0.029934 -0.032379 -0.10735 1.0283 
0.18481 0.040621 0.10737 0.082382 0.031249 -0.042408 -0.14467 0.62166 
0.05065 0.02681 0.12464 0.12891 0.037497 -0.006566 -0.13103 -0.032215 
-0.13629 -0.0034422 0.097508 0.16344 0.023357 0.00017495 -0.13103 -0.46824 
-0.28525 -0.028269 0.095371 0.1465 0.01267 -0.0013048 -0.14007 -0.26322 
-0.32504 -0.00015387 0.084684 0.13532 0.021878 -0.016266 -0.10406 0.0046141 
-0.26108 0.025659 0.099316 0.14042 0.020891 -0.0054151 -0.072825 0.0324 
-0.11031 0.048677 0.12414 0.14782 0.019905 -0.024158 -0.090581 0.007738 
0.037332 0.054432 0.11987 0.15127 0.009711 -0.012485 -0.090581 0.038155 
0.13615 0.098494 0.04506 0.1442 0.038155 0.039799 0.027796 0.088794 
0.21654 0.092411 0.027303 0.098494 0.03092 0.074983 0.15916 0.1054 
0.24778 0.086163 0.0013258 0.064296 0.031742 0.089287 0.20092 0.10622 
0.24137 0.081724 0.020891 0.069558 0.025166 0.039305 0.15555 0.073175 
0.24515 0.12431 0.10869 0.11198 0.028947 0.0013258 0.086163 0.010533 
0.19501 0.13039 0.16229 0.16508 0.021878 0.0044497 0.025659 -0.13267 
0.10967 0.097179 0.12908 0.19501 0.022371 -0.0021268 -0.034516 -0.24003 
0.051965 0.039305 0.082875 0.15703 0.025166 0.00033937 -0.044052 -0.25516 
-0.0031133 0.025988 0.07301 0.13006 0.022371 0.022864 -0.014293 -0.042408 
-0.11459 0.027139 0.064296 0.11757 0.018754 0.036182 0.043087 0.1756 
-0.14944 0.013657 0.14058 0.14848 0.019083 0.053609 0.031414 0.37159 
-0.12297 0.064625 0.19501 0.20339 0.016945 0.029769 0.0036276 0.31289 
-0.05441 0.066598 0.17544 0.24696 0.01826 0.03536 0.0092177 0.10359 
0.057391 0.034537 0.18942 0.2389 0.046868 0.025824 0.026152 -0.012649 
0.090767 -0.014787 0.11724 0.18892 0.038812 0.0046141 0.088794 0.012835 
0.12233 0.049664 0.049499 0.12677 0.0054362 -0.023665 0.090603 0.09981 
0.10754 0.053938 0.0087245 0.063145 0.011355 -0.035667 0.06035 0.20717 
0.065118 0.073175 0.0052718 0.05476 0.028619 -0.031721 -0.013636 0.23414 
0.0093821 0.089452 -0.041915 0.057391 0.025659 -0.061809 -0.047505 0.14831 
-0.11294 0.036017 -0.026953 0.030098 0.014315 -0.057863 -0.027282 -0.088773 
-0.061973 -0.045039 0.010697 0.040128 -0.0073881 -0.050958 -0.023007 -0.24957 
0.086492 0.091096 0.10951 0.10967 -0.00097594 -0.0044286 0.019083 -0.16999 
0.16064 0.19353 0.16278 0.15834 0.0083956 0.029441 0.080738 -0.0095255 
0.10096 0.09833 0.11411 0.15407 0.027632 0.013657 0.059364 0.14469 
0.036839 0.0011614 0.029441 0.13056 0.034537 0.0095465 0.050814 0.17774 
-0.04323 -0.025802 -0.061645 0.037168 0.015137 0.0324 0.0026412 0.11033 
-0.053753 -0.018239 -0.093376 -0.014293 0.031742 0.047526 0.019576 0.20668 
-0.097816 -0.0021268 -0.050793 -0.0138 0.015137 0.064132 0.040292 0.25814 
-0.15043 0.040621 0.0044497 0.018589 0.05772 0.062652 0.068571 0.20783 
-0.021692 0.0421 0.010697 0.023357 0.060844 0.041114 0.05213 0.20734 
0.29415 0.061172 -0.070852 0.020233 0.031249 0.017438 0.042594 0.14683 
0.49375 0.15834 -0.063289 -0.00097594 0.018096 0.030427 0.071202 -0.043395 
0.40628 0.22065 0.0070803 0.031085 0.014972 0.061501 0.15292 -0.29034 
0.33213 0.27623 -0.0062372 0.032564 0.017603 0.077943 0.18432 -0.18249 
0.35186 0.23068 -0.023501 0.018918 0.0023123 0.038155 0.11806 -0.0047575 
0.22476 0.089945 -0.021034 0.013328 -0.0054151 -0.013471 0.10639 0.023028 
0.05213 -0.029091 -0.027282 0.050814 0.005765 0.0065871 0.078765 0.12299 
-0.11524 -0.10308 0.005765 0.052623 0.048019 0.044402 0.0421 0.2736 
-0.17328 -0.15585 0.025001 0.064954 0.055089 0.018918 -0.01117 0.35071 
-0.20337 -0.1575 0.019576 0.06331 0.041772 -0.017417 0.010204 0.16508 
-0.29544 -0.090581 0.012342 0.053938 0.015794 0.0039565 0.05624 -0.064933 
-0.4661 -0.10291 -0.033694 0.01826 -0.022021 0.027796 0.052459 -0.35759 
-0.5225 -0.22704 -0.16654 -0.045203 -0.066413 -0.00015387 0.021384 -0.48797 
-0.26881 -0.14681 -0.17542 -0.096007 -0.03353 -0.010183 0.0034632 -0.39919 
0.055911 0.15407 -0.090746 -0.060494 0.019247 0.049828 0.030098 -0.23066 
0.19139 0.24334 -0.074962 -0.041257 0.04654 0.10639 0.064461 -0.052766 
0.24844 0.14831 -0.097158 -0.056383 0.045389 0.10195 0.11872 0.14568 
0.22822 0.096193 -0.064111 -0.050958 0.026152 0.074983 0.10047 0.24417 
0.24795 0.058049 -0.050629 0.004943 0.022371 0.01711 0.071695 0.25633 
0.22296 0.015137 -0.048163 -0.001798 0.0021479 0.00050378 0.029934 0.17166 
0.15127 -0.016431 -0.039284 0.0037921 0.027139 -0.045368 -0.01528 0.08156 
0.050157 0.067749 0.06742 0.07449 0.077614 -0.0054151 -0.048492 0.15061 
-0.080552 0.12233 0.16541 0.15111 0.056733 0.061995 0.029934 0.098166 
-0.073482 0.11707 0.14042 0.13483 0.053609 0.080573 0.096028 -0.12297 
-0.075127 0.010533 -0.066084 0.049828 0.0085601 0.050157 0.033387 -0.14402 
-0.042901 -0.085156 -0.19827 -0.076606 -0.021692 0.0062583 -0.018897 0.14437 
0.020562 -0.099624 -0.22277 -0.13843 -0.052602 -0.011005 -0.033037 0.25107 
0.062817 -0.054575 -0.14254 -0.11278 -0.020541 0.030756 -0.078579 -0.19433 
0.094055 0.088301 -0.012814 -0.031392 0.020562 0.024508 -0.078086 -1.0565 
0.10491 0.20783 0.11378 0.075805 0.029769 0.042923 -0.031228 -1.103 
0.12085 0.15061 0.11395 0.15555 0.070544 0.054267 0.051965 -0.26519 
-0.0068948 0.018425 0.1516 0.17774 0.047691 0.040128 0.025824 0.60144 
-0.17854 -0.10982 0.12414 0.16804 0.020233 -0.052766 -0.038791 0.61032 
-0.24497 -0.17723 0.08567 0.14256 0.0098754 -0.063618 -0.054082 -0.16013 
-0.13481 -0.17065 0.066105 0.11987 0.026317 -0.028433 -0.017582 -0.65057 
0.050979 -0.10225 0.063803 0.10162 0.063145 0.053281 0.069393 -0.15224 
0.25715 0.11822 0.074326 0.13549 0.089123 0.097672 0.14667 0.45774 
0.29053 0.33344 0.10721 0.14453 0.060186 0.073175 0.18958 0.55178 
0.14996 0.40776 0.15637 0.18087 0.067256 0.040785 0.06183 0.3484 
-0.11212 0.33394 0.19813 0.21358 0.07038 0.0046141 -0.075291 0.039634 
-0.26272 0.16771 0.21506 0.22904 0.047691 0.0026412 -0.11639 -0.10012 
-0.25582 0.072517 0.2172 0.23611 0.049664 0.014643 -0.080717 -0.1233 
-0.18939 0.01974 0.19977 0.25189 0.029934 0.019411 -0.035996 0.00099702 
-0.18709 -0.052437 0.14174 0.20865 0.016781 0.029276 -0.026953 0.067913 
-0.20551 -0.24447 0.023193 0.11905 0.0069159 0.0056006 -0.067728 0.11888 
-0.070687 -0.31353 -0.071016 0.025988 0.0014903 -0.043724 -0.16934 0.013164 
0.27524 -0.023829 -0.090088 -0.028926 0.010697 -0.049807 -0.16901 -0.047669 
0.4944 0.27705 -0.071674 -0.039942 0.01563 -0.0016336 -0.077428 -0.05737 
0.46662 0.28675 -0.082525 -0.027775 0.029276 0.056733 0.090438 0.050157 
0.3655 0.12792 -0.078908 -0.030242 0.028619 0.074983 0.16985 0.2389 
0.293 0.038977 0.034373 0.038977 0.033058 0.084848 0.16525 0.24976 
0.19698 0.011355 0.16607 0.14683 0.083204 0.08715 0.14897 0.15292 
0.061501 0.035688 0.27639 0.24269 0.11263 0.095864 0.091425 -0.052273 
-0.06707 0.073668 0.32456 0.305 0.1128 0.073339 0.062323 -0.17838 
-0.068879 0.13582 0.31684 0.33985 0.082711 0.049992 0.050321 -0.10801 
-0.028762 0.11461 0.22345 0.2948 0.046046 0.039141 0.048513 0.071531 
-0.028433 0.088958 0.16788 0.24301 0.025988 0.0036276 0.022535 0.1932 
-0.099624 0.062981 0.13516 0.19994 0.013821 -0.02235 -0.024158 0.3392 
-0.092226 0.00297 0.081067 0.14486 -0.02794 -0.035503 -0.030899 0.43258 
0.069393 -0.01939 0.040456 0.075476 -0.011005 0.0080668 -0.030735 0.40447 
0.19353 0.079258 -0.0088678 0.062488 -0.001798 -0.0049219 -0.056877 0.2292 
0.12168 0.20586 -0.065755 0.010369 -0.0031133 -0.018897 -0.13185 0.015794 
-0.1159 0.17955 -0.1016 -0.033037 -0.0039354 -0.051944 -0.14599 -0.11968 
-0.27275 0.055582 -0.080881 -0.038298 -0.0047575 -0.032872 -0.069865 -0.15454 
-0.21274 -0.079895 -0.050464 -0.030406 -0.00015387 0.0054362 0.0324 -0.057699 
-0.015938 -0.08121 0.0019835 0.016781 0.031742 0.03651 0.1345 -0.028104 
0.12973 -0.10258 0.037004 0.064461 0.022371 0.056404 0.12464 -0.0052507 
0.1659 -0.063124 0.0074092 0.057227 0.036839 0.042758 0.10376 -0.011334 
0.17659 -0.0042642 0.007738 0.054103 0.0093821 0.029934 0.057555 0.066269 
0.16179 -0.015938 0.021384 0.058871 0.066598 0.032236 0.058706 0.11461 
0.19221 0.060844 0.083204 0.097344 0.11855 0.083533 0.10885 0.22707 
0.22723 0.12628 0.14174 0.14453 0.14042 0.18843 0.16031 0.28478 
0.12875 0.044402 0.091753 0.14124 0.086985 0.15489 0.14091 0.25189 
0.012999 -0.039284 -0.010348 0.071859 -0.01117 0.046375 0.086328 0.28839 
-0.024816 0.015301 -0.055726 0.019247 -0.055068 -0.012156 0.058706 0.45182 
-0.030899 0.072846 -0.018733 0.0227 -0.028104 -0.035174 0.012835 0.36304 
0.015959 0.076134 0.0092177 0.047691 -0.0096899 -0.03501 0.038812 0.13319 
0.08978 0.10343 0.052623 0.066434 0.0093821 -0.0049219 0.067585 -0.087458 
0.14585 0.15637 0.090767 0.11428 0.020398 0.030592 0.10113 -0.11935 
0.12233 0.18251 0.036182 0.094877 0.038155 0.041278 0.13762 -0.069536 
0.047526 0.10507 -0.04619 0.031742 0.038155 0.05065 0.11033 -0.080223 
-0.011498 -0.025967 -0.14188 -0.051944 0.021384 0.0013258 0.08304 -0.18824 
-0.089759 -0.063453 -0.11311 -0.065262 -0.0138 -0.05178 -0.024158 -0.41481 
-0.31073 -0.069208 -0.060494 -0.037969 -0.0031133 -0.071509 -0.13958 -0.56459 
-0.49948 -0.14434 -0.027611 -0.0049219 -0.02087 -0.076442 -0.24201 -0.49356 
-0.19909 -0.15552 -0.042737 0.0093821 -0.008539 -0.070194 -0.16079 -0.02498 
0.38704 0.10063 0.0056006 0.035688 0.020398 -0.0042642 0.042923 0.45626 
0.59091 0.26899 0.078107 0.08978 0.065283 0.086821 0.21852 0.64155 
0.46349 0.24088 0.069229 0.10343 0.10425 0.15604 0.29069 0.6677 
0.28478 0.081067 0.038319 0.077449 0.059035 0.1026 0.21358 0.42617 
0.054267 -0.051122 -0.0503 0.025495 0.018918 0.00083261 0.058377 -0.02087 
-0.029748 -0.1085 -0.071016 0.00066819 -0.0098543 -0.03501 -0.020212 -0.14418 
-0.00031829 -0.004593 0.063474 0.064132 0.010204 0.03536 0.060844 -0.038462 
0.098166 0.183 0.15522 0.14716 0.060186 0.067749 0.12908 -0.13004 
0.13894 0.20783 0.13319 0.15456 0.066927 0.079751 0.11888 -0.36301 
0.10326 0.075312 0.037004 0.093398 0.019905 0.034209 0.039141 -0.49652 
0.026152 -0.044217 -0.094034 0.0056006 -0.053095 0.023522 -0.049478 -0.42599 
-0.11163 -0.080881 -0.24053 -0.10702 -0.049149 -0.041751 -0.057041 -0.21915 
-0.24201 -0.085813 -0.27966 -0.18265 -0.030406 -0.067235 -0.045039 0.055747 
-0.21027 0.017932 -0.19531 -0.16177 0.044402 0.014972 0.032071 0.25748 
-0.078086 0.10507 -0.031886 -0.044546 0.010204 0.075805 0.086163 0.24762 
-0.075949 0.08715 0.12825 0.077285 0.0060938 0.0227 0.095535 0.060679 
-0.10439 0.0088889 0.22805 0.19303 -0.057699 -0.10439 0.020562 -0.12938 
-0.10291 0.065447 0.23085 0.25156 -0.050958 -0.12034 -0.063946 -0.16769 
-0.05589 0.12118 0.1904 0.23956 0.042429 -0.014951 -0.019061 -0.074304 
-0.082854 0.089123 0.1391 0.19517 0.13417 0.090767 0.084848 0.0083956 
-0.14418 0.040128 0.13467 0.18169 0.12069 0.11083 0.11526 -0.041751 
-0.24661 0.061172 0.14239 0.16886 0.084848 0.091918 0.057884 -0.36647 
-0.21948 0.096686 0.14026 0.17873 0.048348 0.013164 -0.018404 -0.73081 
0.051636 0.099316 0.055911 0.14437 0.036182 -0.079401 -0.14122 -0.47761 
0.31799 0.070873 -0.020048 0.068242 0.0046141 -0.087293 -0.17476 0.17626 
0.35531 0.0019835 -0.11689 -0.020541 0.0080668 -0.037147 -0.11508 0.56559 
0.26899 0.028619 -0.12067 -0.053095 0.0324 0.012506 -0.020212 0.60061 
0.15637 0.047362 -0.052766 -0.032543 0.045882 0.020891 0.039305 0.45938 
0.030592 0.052952 -0.0062372 0.0090533 0.072517 0.049664 0.019905 0.3119 
-0.062302 0.034373 -0.010676 0.049006 0.039141 0.039963 0.021549 0.2126 
-0.19005 -0.051615 0.0044497 0.048841 0.047691 0.04358 -0.017911 -0.047834 
-0.22639 -0.16983 -0.03353 0.022042 0.038977 0.04506 -0.013636 -0.52003 
-0.23346 -0.16391 -0.1011 -0.034352 0.017603 0.050814 0.059035 -0.83899 
-0.14254 -0.006566 -0.099624 -0.057041 0.0079024 0.065447 0.13154 -0.55341 
0.025824 0.091589 -0.027775 -0.015609 -0.012814 0.070215 0.17939 0.0074092 
0.070051 0.096521 -0.0083746 0.042923 -0.037476 0.031414 0.10178 0.14946 
0.045389 0.08419 -0.016266 0.0324 -0.015773 0.00297 0.028454 -0.1353 
0.010533 0.038155 -0.041093 0.012506 -0.011498 -0.0049219 -0.041586 0.07038 
-0.033859 -0.014129 -0.010841 0.023028 -0.014293 -0.02646 -0.052109 0.43209 
-0.080388 -0.014458 0.095699 0.092411 0.0083956 -0.053588 -0.025967 0.44623 
-0.010183 0.1271 0.25683 0.21687 0.047855 -0.0040998 -0.01232 0.34331 
0.10622 0.25123 0.27129 0.30927 0.1003 0.068736 0.012506 0.22855 
0.052952 0.20684 0.19221 0.26126 0.089945 0.035853 -0.064768 0.042758 
-0.045368 0.11822 0.099481 0.183 0.07301 -0.0087034 -0.1478 -0.12823 
-0.032872 0.079587 0.055254 0.13154 0.073339 0.015137 -0.10127 -0.10176 
0.039305 0.017603 0.035524 0.09422 0.069229 0.066105 -0.00064712 0.0056006 
0.098659 -0.064604 -0.014458 0.048348 0.053938 0.1026 0.054103 0.078765 
