0.4459 0.26406 0.061501 0.064296 0.28346 -0.020706 -0.17164 -0.083676 
0.091096 0.1248 0.13647 0.147 0.33755 0.066598 -0.013636 -0.13941 
-0.39935 -0.013636 0.23463 0.31864 0.38605 0.11444 0.10145 -0.35282 
-0.50457 -0.0026201 0.2583 0.32226 0.38523 0.076627 0.11428 -0.65633 
0.0083956 0.11905 0.12085 0.1664 0.31092 0.075312 0.067091 -0.39097 
0.57612 0.13845 -0.026953 -0.071345 0.16508 0.18465 0.10096 -0.075127 
0.54965 0.048513 -0.15832 -0.27884 -0.16276 0.25387 0.10359 -0.0052507 
0.089945 -0.11113 -0.17427 -0.30054 -0.42566 0.16541 0.055747 -0.14106 
-0.16588 -0.15454 -0.1182 -0.18956 -0.47547 -0.048163 -0.035667 -0.035503 
-0.066741 -0.11031 -0.056712 -0.14254 -0.48649 -0.182 -0.098473 0.89755 
0.13565 0.070215 -0.063124 -0.054082 -0.38916 -0.21307 -0.066413 1.752 
0.11658 0.1978 0.0011614 0.01563 -0.15306 -0.15076 -0.031064 1.153 
0.025659 0.15308 0.037004 0.044238 0.089287 -0.021034 0.014972 0.17067 
-0.013143 0.017932 0.046704 0.061995 0.10014 0.0079024 0.03092 -0.31665 
0.019905 -0.063289 0.057391 0.079751 -0.010676 0.023686 0.019576 -0.7147 
0.025001 0.036182 0.085012 0.048348 0.10195 0.090767 0.076463 -1.073 
-0.26453 0.12546 0.071366 0.0051074 0.31963 0.1636 0.12497 -1.0994 
-0.50507 0.12677 -0.025638 -0.069865 0.28379 0.037826 0.16294 -0.53532 
-0.42056 -0.0088678 -0.12198 -0.19252 0.016616 -0.17032 0.085012 0.052623 
0.037661 -0.12741 -0.099789 -0.12938 -0.11541 -0.26831 -0.069536 0.23381 
0.55589 0.031742 0.027796 0.14913 0.049006 -0.18808 -0.23017 0.16985 
0.5748 0.20635 0.11181 0.23134 0.030592 -0.17295 -0.32915 0.25206 
0.14782 0.17281 0.059528 0.12168 -0.19614 -0.16769 -0.28377 0.34068 
-0.20797 0.02122 -0.070687 0.019083 -0.30728 -0.11755 -0.23033 0.3022 
-0.29182 -0.12675 -0.078908 -0.071838 -0.21077 0.03536 -0.11261 0.13203 
-0.28738 -0.22228 -0.061645 -0.042079 -0.0032777 0.27409 0.0028056 0.040785 
-0.38965 -0.26305 -0.027611 0.055582 0.098001 0.32456 0.095699 0.25617 
-0.76994 -0.27588 0.0034632 -0.017088 0.12776 0.20914 0.078765 0.20865 
-0.97315 -0.11459 0.018096 -0.039942 0.17001 0.16508 0.050979 -0.44456 
-0.11459 0.21868 0.020069 -0.034845 0.16114 0.11165 0.049664 -0.76747 
0.88686 0.50345 0.089452 -0.040928 0.15653 0.092576 0.072024 -0.62772 
1.0144 0.51742 0.1276 0.03651 0.1853 0.10688 0.091753 -0.2568 
0.61821 0.33657 0.14289 0.12069 0.17297 0.17725 0.13286 0.27327 
0.22427 0.1248 0.064132 0.10343 0.14535 0.16607 0.1465 0.71801 
1.0539e-005 -0.062302 0.046211 0.08978 0.13056 0.13993 0.079916 0.80778 
-0.1917 -0.17361 -0.02235 0.067749 0.062159 0.00066819 -0.0083746 0.59338 
-0.50721 -0.20222 -0.034845 -0.00081153 -0.0771 -0.14352 -0.060329 0.33098 
-0.82419 -0.22376 -0.013965 -0.015938 -0.22425 -0.20189 -0.078086 0.093891 
-0.64005 -0.19334 0.053281 0.060186 -0.3206 -0.18841 -0.01117 0.023851 
0.17067 -0.069372 0.090603 0.096357 -0.25056 -0.13892 0.084684 0.047197 
0.99472 0.19024 0.11674 0.077943 -0.0406 -0.024816 0.14108 -0.12133 
1.1904 0.35383 0.092247 0.058213 0.15949 0.051965 0.12562 -0.54371 
0.51282 0.23068 0.043087 -0.014458 0.26357 0.12694 0.02829 -1.279 
-0.1473 0.015137 0.0083956 -0.029584 0.41253 0.24334 0.038155 -1.3041 
-0.27259 -0.049149 0.00297 0.054267 0.45675 0.32588 0.097837 -0.099624 
-0.12379 -0.047998 0.01711 0.067091 0.31848 0.20471 0.019576 1.2821 
-0.017911 -0.011992 0.0014903 0.0039565 0.10425 0.028947 -0.16473 1.1539 
0.012506 0.082382 0.012999 0.046375 0.010862 -0.025638 -0.19926 0.43538 
0.048184 0.19336 0.097837 0.17544 0.026646 0.078929 0.021056 0.18037 
0.11132 0.22164 0.1738 0.23134 -0.050629 0.058049 0.1858 0.13943 
0.027303 0.094713 0.08715 0.066105 -0.32142 -0.086636 0.12825 -0.15339 
-0.0064016 -0.055561 -0.01232 0.015465 -0.44884 -0.17509 -0.020377 -0.071181 
0.24104 -0.061809 -0.027447 -0.033859 -0.36154 -0.145 -0.079895 0.11115 
0.30451 0.041114 0.019247 -0.081374 -0.16227 -0.12001 -0.07825 0.5896 
0.1105 0.099152 0.018425 -0.028269 -0.01676 -0.09798 0.0067515 0.75944 
0.00033937 0.039634 0.05624 -0.014951 0.14617 -0.03057 0.055582 -0.016595 
-0.13185 -0.15783 0.076792 0.015301 0.2902 0.025824 0.045224 -0.65255 
-0.16424 -0.2009 0.092576 0.090438 0.36731 0.085341 -0.015609 -0.75777 
-0.17213 -0.016102 0.17001 0.15719 0.39937 0.13878 0.06183 -0.49307 
-0.68329 0.033058 0.22493 0.21342 0.36863 0.17692 0.14009 -0.36778 
-1.0008 -0.12494 0.14568 0.20438 0.22493 0.16163 0.16064 -0.23099 
-0.12445 -0.11787 0.03947 0.12201 0.077943 0.15407 0.17544 -0.13037 
1.5764 0.44541 0.051965 0.10589 -0.034023 0.087972 0.19599 0.24762 
2.5249 0.93175 0.11214 0.13401 -0.14254 -0.020048 0.18613 0.62544 
1.7418 0.90034 0.13582 0.14848 -0.21208 -0.12692 0.089452 0.71834 
0.45001 0.40924 0.0786 0.10852 -0.18857 -0.11228 0.01711 0.52235 
-0.47613 -0.10094 -0.014622 0.058871 -0.17279 -0.1187 -0.019061 0.20175 
-0.81647 -0.33868 -0.031721 0.037661 -0.13612 -0.093705 -0.025474 0.04654 
-0.82173 -0.36088 -0.037805 0.019576 -0.096007 -0.10193 -0.03764 -0.053588 
-0.61276 -0.23411 -0.042901 0.0041209 -0.021363 -0.088608 -0.035667 -0.072003 
-0.33474 -0.17641 -0.023994 0.011355 0.023357 -0.059178 -0.0078813 -0.10143 
-0.15372 -0.10916 -0.017417 0.0052718 -0.059672 -0.042737 0.024344 -0.028269 
-0.045532 -0.018897 0.040456 0.053938 -0.012649 -0.027611 0.074161 0.0062583 
0.017438 0.029276 0.051308 0.11494 0.13582 0.02122 0.091753 -0.065426 
0.038155 -0.048163 0.020891 0.088136 0.2685 0.072846 0.052623 -0.25894 
0.047197 -0.037969 -0.0034422 0.056733 0.25748 0.08567 0.024837 -0.30925 
0.048677 0.0060938 -0.0014692 0.03651 0.12858 0.076956 0.034373 -0.067399 
0.067091 0.034373 0.0052718 0.025659 -0.069372 0.09685 0.033222 0.039799 
0.06742 0.050321 -0.0080457 0.012835 -0.21554 0.031085 0.0052718 0.069393 
0.12069 0.11313 0.024179 0.079094 -0.18183 -0.071345 0.0026412 0.23266 
0.17084 0.17149 0.1008 0.13368 0.077121 0.018589 0.027468 0.3729 
0.18185 0.093891 0.099974 0.1493 0.36534 0.25748 0.10129 0.36238 
0.0075736 0.029769 0.094055 0.13894 0.38408 0.38753 0.13384 0.24647 
-0.2619 -0.018568 0.043745 0.093069 0.18267 0.28543 0.069064 -0.0031133 
-0.32454 -0.015116 0.018918 0.058706 0.064625 0.25485 0.063145 -0.32027 
0.01267 0.12299 0.019083 0.074161 0.14617 0.25222 0.095535 -0.39951 
0.44656 0.20914 -0.010676 0.048184 0.12809 0.085012 0.069886 -0.42747 
0.39493 0.19418 -0.090088 -0.018404 -0.058192 -0.04323 0.048019 -0.20649 
0.056076 0.12743 -0.07414 -0.025802 -0.062631 0.00033937 0.14634 0.42486 
-0.24694 0.065447 -0.0054151 0.017767 0.040292 0.10474 0.19846 0.50345 
-0.38242 -0.02794 0.04506 0.052294 0.10293 0.084355 0.10014 0.062323 
-0.20173 -0.10817 0.046704 0.087972 0.1054 -0.058685 -0.060658 -0.25434 
0.1465 -0.019884 0.0044497 0.07038 0.029934 -0.11689 -0.11015 -0.18216 
0.20355 0.077778 -0.0027845 0.046046 -0.040764 -0.10965 -0.072825 0.079587 
-0.095514 0.013328 -0.058192 0.005765 -0.078744 -0.056219 -0.039449 0.31305 
-0.23905 -0.092061 -0.063618 -0.0088678 -0.011005 0.013821 0.0421 0.39296 
-0.2379 -0.099624 -0.024652 -0.0022913 0.06183 0.047691 0.038483 0.38244 
-0.10439 -0.07562 0.0074092 0.024015 0.099316 0.095042 0.035524 0.48372 
-0.0088678 -0.059178 0.0041209 0.069064 0.035031 0.12595 0.069722 0.47402 
-0.12823 -0.070852 0.04654 0.079258 -0.042079 0.14289 0.098988 0.19254 
-0.30629 -0.030899 0.076299 0.10178 -0.061809 0.17478 0.11198 -0.43634 
-0.19992 0.14321 0.076627 0.10984 -0.025638 0.15324 0.084355 -1.24 
0.047362 0.34643 0.093233 0.12579 0.02829 0.076792 0.054267 -1.4069 
0.32966 0.52827 0.14174 0.1493 0.10589 0.091589 0.061666 -0.44045 
0.53781 0.44196 0.080573 0.15834 0.16294 0.10984 0.071202 0.47204 
0.48635 0.16607 -0.029748 0.061008 0.085177 0.032893 0.0026412 0.77144 
0.19172 -0.034188 -0.072496 0.0036276 0.026974 -0.064275 -0.03501 0.66868 
-0.25615 -0.11393 -0.071345 -0.0095255 0.085177 -0.040928 0.034044 0.54422 
-0.2642 -0.043066 0.037497 0.031249 -0.048492 0.005765 0.10293 0.42288 
0.14305 0.062652 0.091425 0.049664 -0.3497 -0.026624 0.1008 0.27064 
0.51134 0.16146 0.031249 0.073339 -0.63397 -0.18561 0.057062 0.38359 
0.30779 0.080409 0.011191 0.059035 -0.58251 -0.28903 -0.05326 0.41088 
-0.17542 -0.090746 -0.039284 0.036346 -0.21784 -0.28886 -0.14911 -0.017582 
-0.37633 -0.18331 -0.015773 0.042594 0.12201 -0.21915 -0.15848 -0.37633 
-0.3469 -0.12626 0.023357 0.06183 0.34824 -0.065919 -0.10275 -0.56048 
-0.23099 -0.02087 0.099316 0.10178 0.52515 0.17117 -0.012649 -0.88092 
-0.14369 0.048019 0.089452 0.12776 0.54932 0.22427 0.024673 -0.96608 
0.013164 0.10819 0.088301 0.1419 0.52186 0.16821 0.06183 -0.53614 
-0.064768 0.19731 0.14338 0.16689 0.48174 0.1858 0.15374 -0.14911 
-0.3543 0.16541 0.16706 0.18958 0.3946 0.24186 0.21441 0.081889 
-0.54749 0.0069159 0.067091 0.13006 0.1927 0.23792 0.1613 0.33969 
-0.11738 -0.077428 -0.059672 0.0085601 -0.30876 0.078929 0.044731 0.60801 
0.54159 0.10951 -0.057041 -0.016924 -0.63232 -0.076442 0.042429 0.6695 
0.59881 0.26143 -0.030735 0.032071 -0.55489 -0.12396 0.064625 0.45445 
0.20471 0.16755 -0.0031133 0.040621 -0.38488 -0.13596 0.031085 0.15916 
-0.22244 0.0054362 0.0054362 0.050814 -0.24661 -0.23773 -0.10193 -0.075291 
-0.28245 -0.12659 0.012999 0.06035 -0.0044286 -0.31731 -0.18019 -0.18923 
-0.031557 -0.17345 0.010862 0.055418 0.20471 -0.24069 -0.19581 -0.22063 
0.3221 -0.066084 0.075312 0.094548 0.42272 -0.091732 -0.12544 -0.30514 
0.56083 0.15061 0.14371 0.17544 0.39822 -0.021856 -0.035667 -0.11853 
0.35054 0.171 0.1271 0.16607 0.21572 -0.10801 -0.045368 0.17478 
-0.12083 -0.08828 0.045718 0.11477 0.075312 -0.14237 -0.031392 0.015137 
-0.44489 -0.24036 -0.020541 0.053281 -0.020541 -0.072825 0.027632 -0.62756 
-0.32586 -0.021034 -0.014622 0.025166 -0.13333 -0.014951 0.089287 -1.109 
-0.13218 0.25074 -0.013143 0.014808 -0.21373 -0.073976 0.049828 -0.40379 
0.0042853 0.16656 -0.012649 0.046868 -0.13859 -0.047669 0.017603 1.1192 
0.14617 -0.037311 0.010204 0.063803 0.02533 0.091425 0.036346 1.2236 
0.475 -0.053588 0.027468 0.071037 0.013328 0.13894 0.0051074 0.40365 
0.64879 0.12776 0.069886 0.09685 -0.017746 0.10507 -0.012649 -0.29166 
0.54258 0.35317 0.14765 0.15374 -0.013965 0.11313 -0.0080457 -0.3372 
0.11905 0.2565 0.17297 0.18465 -0.0024557 0.10836 0.05772 -0.086964 
-0.20945 0.0085601 0.10918 0.16097 -0.044052 0.055418 0.11411 0.035031 
-0.3132 -0.23888 -0.0022913 0.11214 -0.024652 0.051472 0.091096 -0.046847 
-0.37567 -0.23773 -0.064275 0.03651 0.11099 0.061008 0.053281 -0.14073 
-0.77027 -0.23543 -0.061973 0.0041209 0.12612 0.040456 0.035524 -0.095185 
-0.8727 -0.37617 -0.039449 0.00050378 0.048184 -0.0059084 0.026317 -0.12083 
-0.044217 -0.21932 0.034209 0.055254 0.026317 0.032236 0.033222 0.00033937 
1.4102 0.25847 0.12349 0.12151 0.14683 0.062323 0.013328 0.34018 
1.5111 0.4949 0.11346 0.17347 0.17971 0.040128 -0.070523 0.4607 
0.20438 0.18465 0.042594 0.11247 0.21506 0.011191 -0.11426 0.3124 
-0.63068 -0.10341 0.015794 0.081395 0.2782 0.10343 -0.032543 0.17067 
-0.19745 -0.022185 0.0079024 0.063145 0.24844 0.18711 0.062652 0.37487 
0.63843 0.17544 0.023028 0.052623 0.069886 0.13762 0.060515 0.47632 
0.97482 0.37734 0.029769 0.04358 -0.14961 0.085012 0.057227 0.29875 
0.61262 0.34742 0.017767 0.075641 -0.19449 0.060186 0.016123 0.13187 
0.019411 0.13105 0.034373 0.080573 -0.087458 0.016781 -0.064768 0.028947 
-0.31994 -0.058028 0.039141 0.08156 -0.10308 0.012013 -0.083347 -0.01528 
-0.35677 -0.078579 0.025001 0.064296 -0.25664 -0.026296 -0.02942 -0.026953 
-0.31945 -0.03501 0.0072447 0.041936 -0.35907 -0.089595 0.053281 -0.3109 
-0.27127 0.0059294 0.013657 0.044073 -0.28919 -0.079895 0.12513 -0.33572 
-0.14944 0.058871 0.03536 0.081889 -0.10127 -0.009361 0.12118 0.023028 
-0.028269 0.095864 0.062981 0.1077 0.12842 0.18366 0.12743 0.34577 
0.1151 0.064625 0.09685 0.13993 0.3295 0.32456 0.1294 0.25206 
0.31733 -0.042901 0.071202 0.12497 0.43686 0.31832 0.10622 -0.19909 
0.52285 -0.057205 0.079587 0.1202 0.38573 0.18629 0.077449 -0.72472 
0.45166 0.11691 0.11148 0.12431 0.24022 0.053116 0.033387 -0.82781 
0.36665 0.35531 0.15275 0.15637 0.089945 0.0042853 0.026646 -0.16572 
0.34972 0.33739 0.075148 0.15144 -0.065097 -0.012978 -0.013143 0.44903 
0.26669 0.14617 -0.0064016 0.080738 -0.16128 0.004943 -0.0138 0.82011 
0.22065 0.028125 -0.058356 0.021549 -0.15668 0.0083956 -0.0039354 1.0186 
0.21802 -0.028926 -0.039942 0.012177 -0.13349 0.024837 0.014808 1.241 
0.12677 -0.051944 0.0059294 0.04358 -0.023501 0.06479 0.057227 0.97762 
-0.025967 -0.026953 0.070708 0.086328 0.040128 0.097672 0.11115 0.47336 
-0.11968 0.033058 0.067091 0.13056 0.010204 0.074326 0.097837 -0.0011404 
-0.051944 0.067749 0.061501 0.11411 -0.041915 0.061172 0.098001 -0.14402 
0.12776 0.14256 0.076463 0.12233 -0.045696 0.037497 0.099152 -0.033201 
0.25518 0.15423 0.095699 0.13105 -0.046847 -0.0016336 0.077285 -0.16523 
0.25929 0.11543 0.086985 0.12316 -0.1011 -0.076935 0.14174 -0.49635 
0.14552 0.078929 0.11198 0.12875 -0.22458 -0.17082 0.095371 -0.8408 
0.077778 0.079094 0.082217 0.14864 -0.22491 -0.20682 -0.014951 -1.5262 
0.0098754 0.072681 0.049664 0.11724 -0.08532 -0.21406 -0.15372 -1.4352 
-0.077922 -0.0016336 0.03536 0.096028 0.048841 -0.16687 -0.17345 0.047033 
-0.12511 -0.10127 0.0095465 0.07449 0.19928 -0.018897 -0.12873 0.92698 
-0.14632 -0.19942 -0.062302 0.013657 0.31042 0.19879 -0.065426 0.42765 
-0.082032 -0.17295 -0.090746 -0.026624 0.38836 0.26094 0.019083 -0.01676 
0.10754 -0.063453 -0.062796 -0.0067304 0.48076 0.34232 0.18547 0.11132 
0.21391 0.011848 -0.018733 0.017932 0.45379 0.46316 0.42716 0.14733 
-0.0138 0.077285 -0.018404 0.014972 0.27261 0.33377 0.40233 -0.047176 
-0.50671 -0.0082102 -0.094363 -0.038627 0.020891 0.01974 0.080244 -0.069372 
-1.1374 -0.17904 -0.12314 -0.069536 -0.15635 -0.18791 -0.28706 0.54159 
-1.2449 -0.35381 -0.13596 -0.1062 -0.20584 -0.22458 -0.41957 0.39378 
-0.80759 -0.32339 -0.092061 -0.062467 -0.10949 -0.13991 -0.34033 -0.58744 
-0.2619 -0.057534 0.045389 0.063968 0.0087245 -0.013143 -0.086307 -0.64515 
0.025495 0.19139 0.23808 0.20651 0.074654 0.033222 0.1128 -0.31418 
-0.34329 0.14305 0.27738 0.27244 0.04654 -0.010841 0.14453 -0.19301 
-0.73574 -0.01676 0.19402 0.24564 0.021384 -0.051122 0.11313 -0.25138 
-0.59928 -0.083676 0.080738 0.15752 -0.047834 -0.097816 0.031907 -0.38883 
0.21506 0.16262 0.030592 0.099481 -0.054904 -0.11343 0.025166 0.0065871 
0.74694 0.37734 -0.0062372 0.09126 0.0085601 -0.094692 0.02681 0.58615 
0.67559 0.41154 0.013986 0.074161 0.016616 -0.054739 0.052459 0.75681 
0.27771 0.1927 -0.072989 0.010533 0.060022 -0.059507 0.048677 0.3387 
-0.12314 -0.085813 -0.1279 -0.050629 0.080409 -0.049971 0.03651 -0.039778 
-0.3007 -0.25154 -0.14007 -0.086307 -0.027282 -0.023501 0.020891 -0.13053 
-0.27423 -0.29544 -0.15618 -0.11853 -0.074962 -0.029584 0.0041209 -0.21767 
-0.29215 -0.22589 -0.206 -0.11064 -0.10817 -0.063453 -0.0064016 -0.54568 
-0.50918 -0.1986 -0.16605 -0.1182 -0.11508 -0.090088 -0.052437 -1.055 
-0.5659 -0.17114 -0.095349 -0.07266 -0.0004827 -0.097158 -0.064111 -0.63249 
-0.28295 -0.082525 0.016945 0.012506 0.11411 -0.042408 -0.03764 0.086492 
-0.064275 0.024837 0.10359 0.087808 0.054267 -0.11163 -0.058192 0.33673 
-0.091239 0.039305 0.13762 0.12612 -0.15289 -0.13892 -0.034188 0.26242 
-0.20567 -0.011827 0.091589 0.12102 -0.28722 -0.09946 -0.050958 -0.12346 
-0.38751 -0.042079 0.043087 0.10951 -0.22096 -0.043888 -0.079895 -0.52973 
-0.24677 0.13138 0.11773 0.1493 -0.019884 -0.001798 -0.037805 -0.52447 
0.071037 0.3609 0.1636 0.19007 0.18662 0.015301 -0.056548 0.19336 
0.27606 0.33476 0.097672 0.16525 0.35794 0.063145 -0.016102 0.94062 
0.20388 0.17741 0.03947 0.11263 0.39033 0.1225 0.0018191 0.85644 
0.071366 0.13762 0.023028 0.085341 0.39345 0.27754 0.08567 0.17676 
0.18119 0.082546 -0.05326 0.037332 0.28839 0.38721 0.20438 -0.096994 
0.18514 0.03799 -0.10752 -0.03057 0.12497 0.37372 0.2611 -0.26963 
0.08008 0.030098 -0.07562 -0.034516 0.066927 0.27606 0.20997 -0.30974 
-0.067564 0.03092 -0.055726 -0.019884 0.029276 0.093069 0.095864 0.2828 
-0.12889 0.016288 -0.012156 -0.0024557 -0.084169 -0.084169 0.044073 0.39082 
-0.015116 0.032236 0.051801 0.044567 -0.20353 -0.24825 -0.0083746 -0.11524 
0.16278 0.15867 0.11181 0.13795 -0.3104 -0.33457 -0.036983 -0.31747 
0.38951 0.23759 0.15522 0.17182 -0.39179 -0.32471 -0.030077 0.045553 
0.64123 0.24992 0.13516 0.17741 -0.29561 -0.22672 -0.011992 0.65093 
0.56888 0.16229 0.11757 0.17297 -0.16259 -0.10028 -0.0088678 0.94884 
0.28675 -0.038298 0.11691 0.16377 -0.023829 -0.039613 -0.011992 0.88686 
0.059528 -0.2596 0.095042 0.14124 0.1322 0.10524 -0.056877 0.55852 
0.070544 -0.21323 0.071366 0.14996 0.28461 0.25419 -0.0036066 -0.27226 
0.42453 0.17988 0.096357 0.13647 0.27064 0.22 0.10441 -0.88355 
0.84477 0.63481 0.14913 0.16738 0.12381 0.20388 0.17791 -0.57198 
0.5337 0.55705 0.1539 0.18711 0.12069 0.24005 0.2417 0.015794 
-0.15503 0.1077 0.096193 0.14535 0.13598 0.1835 0.16853 0.25469 
-0.46281 -0.30662 0.039141 0.093398 0.15686 0.11839 0.086163 0.19829 
0.41762 -0.17821 0.01152 0.07449 0.1664 0.13565 0.060515 0.24729 
1.5738 0.33985 0.0227 0.076299 0.12562 0.18333 0.14798 0.51134 
1.5748 0.48454 0.10392 0.11954 0.048184 0.20651 0.2024 0.64977 
0.30122 0.11198 0.12053 0.14239 -0.029913 0.10573 0.15982 0.48125 
-0.97019 -0.425 0.041114 0.10195 -0.099953 -0.06444 0.087479 0.20421 
-0.32454 -0.24316 0.01711 0.063803 -0.15059 -0.1935 0.0095465 0.0098754 
1.0404 0.60752 0.14798 0.15226 -0.0503 -0.16851 0.028947 -0.10932 
1.299 0.98387 0.19747 0.23693 0.010697 -0.16375 -0.015444 -0.3982 
0.58368 0.58089 0.1641 0.21572 0.068242 -0.12264 -0.033201 -0.2448 
-0.011992 0.064461 0.091918 0.16558 0.16656 0.016945 -0.01117 0.44804 
-0.13399 -0.19449 0.069064 0.13499 0.24614 0.099152 0.017932 0.75763 
-0.095021 -0.26634 0.055089 0.09981 0.20273 0.07038 0.033551 0.65586 
-0.051122 -0.22063 0.03799 0.073339 -0.024816 0.0072447 0.040456 0.46563 
-0.034188 -0.15388 -0.015444 0.064296 -0.26387 -0.15207 0.028783 0.2491 
-0.037311 -0.10242 -0.044381 0.019411 -0.44292 -0.25713 0.0065871 -0.0868 
-0.025802 -0.060823 -0.046025 0.0092177 -0.40379 -0.1284 0.064461 -0.54354 
0.074983 0.0011614 -0.0036066 0.035524 -0.12346 0.18678 0.12036 -0.75514 
0.17528 0.048841 0.062159 0.080409 0.15883 0.3581 0.13598 -0.20436 
0.25502 0.041936 0.071202 0.092411 0.24219 0.27179 0.084355 0.40628 
0.22493 0.069393 0.036182 0.10787 0.256 0.14897 0.079422 0.46086 
0.1322 0.13845 0.040456 0.091589 0.27655 0.067913 0.056569 0.22855 
-0.0067304 0.096521 0.022206 0.07301 0.21178 -0.0042642 -0.036818 0.11214 
-0.097158 0.011026 0.0019835 0.053774 0.088958 0.040621 -0.038462 0.022206 
-0.31797 -0.084334 0.0046141 0.043416 -0.0026201 0.066763 -0.04619 -0.10817 
-0.52447 -0.14566 0.010369 0.032729 -0.036818 0.038483 -0.051287 -0.1113 
-0.10965 -0.12955 0.037004 0.067091 -0.0016336 0.088301 -0.041915 0.0014903 
0.56921 0.10721 0.045389 0.092082 0.03092 0.10195 0.029441 -0.029748 
0.98913 0.48569 0.10852 0.1322 0.12036 0.13828 0.14009 0.076627 
0.71982 0.54356 0.13516 0.16492 0.25436 0.12875 0.1807 0.34906 
-0.12971 0.11461 0.075805 0.13302 0.24038 0.044731 0.12201 0.30812 
-0.91824 -0.39475 -0.07973 0.0083956 -0.037805 0.062981 0.034702 -0.01939 
-0.88717 -0.50622 -0.15898 -0.073318 -0.17838 0.38145 0.12102 -0.36762 
0.036182 -0.013471 -0.06855 -0.010019 -0.10604 0.5873 0.23216 -0.41908 
0.7966 0.55787 0.060515 0.06479 0.099645 0.50723 0.19632 -0.25763 
0.39822 0.47615 0.12135 0.12464 0.11362 0.10556 -0.0052507 -0.26815 
-0.26798 0.062981 0.058706 0.098823 0.049664 -0.29133 -0.14566 -0.32125 
-0.61588 -0.22704 -0.036489 0.029441 0.069722 -0.35447 -0.18791 -0.22639 
-0.86135 -0.33013 -0.065755 -0.01676 0.043087 -0.22195 -0.16013 -0.21011 
-1.2004 -0.38817 -0.10637 -0.021199 -0.042901 -0.15898 -0.11163 -0.20715 
-1.1675 -0.33293 -0.090088 -0.031886 -0.038627 -0.13481 -0.071509 -0.045861 
-0.38521 -0.21356 -0.059507 -0.017088 0.0093821 -0.02794 -0.029748 0.22148 
0.65076 0.12694 -0.0047575 0.012506 0.046704 0.090109 0.029769 0.37126 
0.8474 0.29776 0.045224 0.053281 0.046375 0.15587 0.041936 0.12233 
0.41302 0.14338 0.049664 0.064296 0.016288 0.15061 0.053938 -0.46018 
-0.0026201 -0.047834 0.0039565 0.057555 0.011191 0.097015 0.015301 -0.7267 
-0.12198 -0.059343 0.0021479 0.047033 -0.0075525 0.048019 -0.014951 -0.27686 
-0.071509 0.021713 0.027796 0.059693 -0.042737 -0.0021268 0.025166 0.29398 
-0.14747 0.023028 0.024673 0.060844 -0.133 -0.053588 0.030263 0.57003 
-0.31057 -0.030735 0.033715 0.070544 -0.062302 -0.071345 0.031742 0.29497 
-0.37502 -0.01939 0.062159 0.084355 0.10803 -0.0072237 0.013657 -0.042079 
-0.38669 -0.020212 0.069722 0.10343 0.1276 0.040456 -0.0070593 0.038977 
-0.4005 -0.056877 0.029769 0.095699 0.10277 0.0062583 -0.032543 0.1396 
-0.31698 -0.0027845 0.035524 0.084848 0.12365 -0.082196 -0.0096899 -0.019226 
-0.16884 0.069393 0.037168 0.082546 0.14519 -0.11097 -0.033694 -0.12774 
-0.03912 0.085341 0.007738 0.062488 0.20405 0.065447 0.042923 -0.12807 
-0.049149 0.062981 -0.0096899 0.03536 0.14387 0.2121 0.080902 -0.0031133 
-0.053588 0.047526 -0.020706 0.020233 0.040785 0.17511 0.065612 0.20471 
-0.0060728 -0.004593 -0.031721 0.03947 0.012177 0.12217 0.053445 0.17281 
0.038483 -0.096172 -0.034681 0.017603 -0.14056 0.060844 0.004943 -0.25713 
0.056898 -0.11409 -0.012978 0.021549 -0.22195 -0.040928 -0.070194 -0.64268 
0.062159 0.053938 0.086163 0.096357 -0.004593 -0.030899 -0.070687 -0.21965 
-0.028597 0.27491 0.14124 0.15292 0.17544 0.029605 -0.039778 0.12562 
0.0064227 0.39493 0.12118 0.14338 0.090274 -0.066413 -0.028269 0.020562 
0.19928 0.3586 0.046868 0.12332 -0.22639 -0.25631 -0.0031133 0.044238 
0.28067 0.22756 0.056898 0.10441 -0.45361 -0.38521 0.0067515 0.18251 
0.24367 0.03092 0.034209 0.087808 -0.39623 -0.41826 -0.021363 0.098166 
0.06594 -0.11212 -0.0406 0.031742 -0.291 -0.43963 -0.10521 -0.24283 
-0.12955 -0.11738 -0.067892 -0.0040998 -0.10784 -0.39738 -0.133 -0.42483 
-0.2448 -0.11048 -0.0098543 0.019247 0.11872 -0.22803 -0.074798 -0.35052 
-0.35216 -0.12281 -0.0022913 0.059035 0.32358 -0.043724 -0.020706 -0.26338 
-0.071838 -0.15388 -0.065919 0.012999 0.4408 0.13056 0.028783 0.056898 
0.46941 -0.097322 -0.083347 -0.019884 0.38885 0.24482 0.055089 0.74842 
0.5531 -0.0016336 -0.050136 -0.020377 0.19468 0.20257 0.083862 1.231 
-0.25023 -0.022185 0.048348 0.031907 0.0042853 0.13976 0.069393 0.86055 
-1.0953 -0.10291 0.079587 0.07449 -0.078086 0.010862 0.045882 -0.073647 
-1.4768 -0.14911 0.04917 0.079751 -0.096829 -0.10406 0.038155 -1.0366 
-1.0598 0.012835 0.026974 0.085999 -0.087458 -0.1524 -0.012156 -1.6024 
-0.073318 0.17281 0.033058 0.08008 -0.091404 -0.16588 -0.053917 -1.0675 
1.0477 0.36287 0.046375 0.08567 -0.12577 -0.20074 -0.029748 -0.23444 
1.6917 0.45067 0.074983 0.10885 -0.12757 -0.12314 0.015959 0.43472 
1.4377 0.42666 0.12003 0.13154 -0.11228 -0.068057 0.055911 0.79051 
0.65273 0.26883 0.16097 0.16706 -0.077922 -0.027282 0.030427 0.55622 
0.099645 0.12792 0.11362 0.19369 -0.013471 0.021878 -0.00081153 0.34742 
0.11494 0.055254 0.068078 0.14848 0.016616 0.051143 0.00297 0.60686 
0.30598 -0.0082102 0.016288 0.089452 -0.0050863 0.004943 0.056404 0.95032 
0.34775 0.018754 0.0227 0.073504 -0.018733 -0.06148 0.089945 0.97811 
0.32489 0.034044 0.079258 0.12168 -0.059178 -0.069043 0.13023 0.55935 
0.17577 0.034702 0.14141 0.14733 -0.044381 -0.070194 0.079587 -0.037805 
0.032564 0.022535 0.10951 0.17347 -0.012156 -0.035338 0.047855 -0.35808 
-0.18545 -0.021363 0.10277 0.15834 0.11083 0.0021479 -0.020377 -0.46775 
-0.33227 -0.10982 0.058377 0.12875 0.30483 0.17988 -0.03501 -0.40757 
-0.39392 -0.13152 0.0060938 0.085835 0.54126 0.32341 0.0021479 -0.51674 
-0.15043 -0.10587 -0.074304 0.0018191 0.50937 0.31733 0.030756 -0.65616 
0.22986 -0.051615 -0.084005 -0.041422 0.20651 0.24466 0.030263 -0.29873 
0.29349 0.12349 -0.075784 -0.03501 -0.023007 0.29875 0.032893 0.35416 
-0.22014 0.12694 -0.10702 -0.057534 -0.1866 0.36534 0.085012 0.14174 
-0.73936 -0.078086 -0.17805 -0.10686 -0.21702 0.27014 0.12661 -0.10834 
-0.45854 -0.25828 -0.18413 -0.12659 -0.027611 0.15061 0.12875 0.020233 
0.20553 -0.14829 -0.089924 -0.070194 0.14749 0.17708 0.15275 -0.02646 
0.53255 0.31026 0.022371 0.0037921 0.13467 0.13401 0.14223 -0.077428 
-0.03205 0.49276 0.1026 0.091589 0.049992 -0.0044286 0.056733 -0.13727 
-0.65436 0.24055 0.10639 0.13861 -0.023336 -0.16638 -0.042408 -0.033365 
-0.53499 0.025988 0.12464 0.15916 0.054596 -0.17986 -0.081374 0.079422 
-0.0138 0.033058 0.18333 0.2029 0.17199 -0.12659 -0.094692 0.20191 
0.32062 0.05065 0.183 0.21523 0.16031 -0.069208 -0.084991 0.16903 
0.12546 -0.026624 0.12858 0.17462 0.13056 -0.059507 -0.067564 -0.13596 
-0.27456 -0.09946 0.062981 0.12299 0.072024 -0.013143 -0.053588 0.094713 
-0.20879 -0.073318 0.0026412 0.10359 -0.010348 0.074983 0.033387 0.6261 
0.25781 -0.023994 -0.045696 0.035195 -0.10341 0.11839 0.12677 0.75664 
0.59815 -0.0031133 -0.067564 -0.0050863 -0.2841 -0.0098543 0.096193 0.52975 
0.60012 0.054267 -0.064111 -0.014293 -0.27308 -0.084169 -0.020048 0.091425 
0.29727 0.038812 -0.06148 -0.021034 -0.044052 -0.029913 -0.028762 -0.16506 
-0.11903 -0.099131 -0.063124 -0.018733 0.095371 0.051965 -0.047834 -0.3035 
-0.38472 -0.18611 -0.062796 0.0023123 0.089123 0.13795 0.0062583 -0.48731 
-0.047176 -0.020048 0.0026412 0.033058 0.20849 0.2925 0.10721 -0.24941 
0.55425 0.23183 0.0018191 0.051801 0.41072 0.46793 0.15078 0.15653 
0.89557 0.30237 0.030427 0.069558 0.39855 0.50937 0.20092 0.35202 
0.21079 0.04358 0.049499 0.063145 0.14141 0.35432 0.1322 0.31453 
-0.82008 -0.40658 0.07301 0.072517 -0.082854 0.1493 0.062323 0.15193 
-1.1704 -0.52282 0.056569 0.09685 -0.13563 0.032071 0.030756 -0.37584 
-0.48633 0.066105 0.12612 0.1465 -0.082525 0.00033937 0.076463 -0.48534 
0.20947 0.71982 0.14453 0.17626 -0.052766 -0.024652 0.11576 -0.060165 
0.24153 0.7328 0.1003 0.15226 -0.006566 -0.051944 0.069722 -0.085485 
-0.027282 0.44294 0.12168 0.17018 0.1493 -0.053917 -0.021034 -0.49964 
-0.13316 0.1636 0.10589 0.14404 0.16738 -0.0068948 -0.0054151 -0.21356 
0.17314 -0.096007 -0.013471 0.066763 -0.034681 -0.02646 0.050979 0.46514 
0.44327 -0.18561 -0.098802 0.0087245 -0.20781 -0.051122 0.049335 0.75747 
0.53419 -0.15783 -0.098309 -0.025309 -0.23872 -0.099624 -0.024487 0.74037 
0.33509 -0.027118 -0.097651 -0.040106 -0.12363 -0.086307 -0.11574 0.3267 
0.13121 0.01974 -0.0059084 0.015959 0.095206 -0.011005 -0.082525 -0.18578 
0.091753 0.035031 0.17791 0.14765 0.2537 0.089287 0.0034632 -0.29955 
0.10885 -0.033201 0.22427 0.21194 0.26883 0.12283 0.058542 0.038155 
-0.10423 -0.20912 0.15719 0.2343 0.20257 0.057227 0.019905 0.1733 
-0.35923 -0.34033 0.10359 0.17774 0.13286 -0.02235 -0.0077169 -0.37814 
0.021056 -0.10637 0.090438 0.15209 0.16229 0.070708 0.049828 -0.74117 
0.84411 0.48783 0.19106 0.20799 0.28527 0.24203 0.14272 0.058706 
1.2006 0.77457 0.26735 0.27212 0.24992 0.26883 0.2006 0.94506 
0.82932 0.55113 0.22378 0.24729 0.01563 0.18547 0.17725 0.87387 
0.34676 0.1756 0.079258 0.18744 -0.21488 0.083368 0.16952 0.48783 
0.1276 -0.015609 0.036017 0.11609 -0.2887 -0.011498 0.13861 0.41614 
0.13138 -0.064604 0.025824 0.091753 -0.20205 -0.14056 0.051143 0.60045 
0.18794 -0.036654 -0.012485 0.067913 -0.11985 -0.17904 -0.0078813 0.67164 
0.13023 -0.031886 -0.10834 -0.020706 -0.028104 -0.13859 -0.02498 0.084684 
-0.021692 -0.079895 -0.17328 -0.10587 -0.045532 -0.17805 -0.05441 -1.3876 
-0.091075 -0.089924 -0.18364 -0.11311 -0.062467 -0.17032 -0.049314 -1.593 
0.15407 0.042758 -0.060494 -0.0503 0.020562 -0.083676 0.013492 -0.25598 
0.34528 0.19353 0.12743 0.091918 0.12299 0.060022 0.024344 0.63662 
0.37208 0.25715 0.27392 0.22871 0.17659 0.14486 0.065776 0.63152 
0.31848 0.24384 0.26291 0.26784 0.12349 0.16574 0.082217 0.43275 
0.33147 0.17873 0.20257 0.232 0.018096 0.072681 0.073832 0.40102 
0.32489 0.11543 0.11198 0.18613 -0.023829 0.032893 0.043909 0.42486 
0.32259 0.051472 0.097344 0.17429 0.015959 0.0013258 0.038812 0.4408 
0.28938 0.044238 0.14568 0.18152 -0.035174 -0.0062372 0.068407 0.21112 
0.2223 0.06183 0.12973 0.17412 -0.012156 -0.056712 0.14617 -0.13037 
0.13039 0.054596 0.072846 0.13516 -0.015444 -0.16243 0.099152 -0.36285 
0.06479 -0.010512 -0.0034422 0.064296 -0.094527 -0.26124 0.040128 0.019576 
-0.065426 -0.067728 -0.12281 -0.036983 -0.088444 -0.26683 -0.020706 0.21868 
-0.11228 -0.054904 -0.19844 -0.081374 -0.07003 -0.19186 -0.11031 -0.1889 
0.09422 -0.043888 -0.19959 -0.12429 -0.082032 -0.14073 -0.26618 -0.15964 
0.451 0.056898 -0.02942 -0.029255 0.06742 -0.12905 -0.32964 0.83786 
0.59322 0.14733 0.11461 0.091918 0.13516 -0.010512 -0.17246 1.4138 
0.51693 0.14996 0.18909 0.16706 0.017932 0.22542 0.098988 1.0034 
0.32144 0.098988 0.17149 0.18054 -0.10094 0.37356 0.29053 0.37504 
0.015794 -0.032379 0.035031 0.13713 -0.16161 0.35317 0.26603 -0.089102 
-0.27949 -0.13678 -0.053588 0.047197 -0.061151 0.33015 0.20323 -0.7803 
-0.6708 -0.13908 -0.089924 -0.0090322 0.22328 0.41894 0.20849 -1.0649 
-0.97989 0.013657 -0.087293 -0.025145 0.39066 0.39822 0.21654 -0.67261 
-1.0749 0.055747 -0.13234 -0.073647 0.32276 0.17084 0.096357 -0.54157 
-0.78901 0.016616 -0.10505 -0.077593 0.2001 -0.1353 -0.071674 -0.77997 
-0.7461 0.021056 0.00066819 0.013328 0.02533 -0.42072 -0.23247 -1.3393 
-1.5376 -0.14977 0.012177 0.032236 -0.16457 -0.56771 -0.30794 -1.4345 
-2.3508 -0.34822 -0.012814 0.029441 -0.14615 -0.43125 -0.19729 -1.0552 
-2.0777 -0.45213 -0.071181 -0.003771 -0.011992 -0.20551 -0.050629 -0.39146 
-0.81795 -0.3303 -0.096336 -0.034516 0.048019 -0.054739 -0.048163 0.13483 
0.64862 0.029276 -0.023172 -0.012814 -0.062467 -0.088608 -0.06855 0.57513 
1.4303 0.317 0.064461 0.065118 -0.14319 -0.18249 -0.051287 0.85233 
1.4955 0.33196 0.1077 0.13499 -0.16342 -0.18545 -0.061316 0.87371 
1.1115 0.23134 0.090274 0.13516 -0.12297 -0.032379 -0.029091 0.69334 
0.61854 0.15933 0.041607 0.09981 -0.053588 0.16755 0.044731 0.39016 
0.18925 0.081395 0.051801 0.10063 0.021713 0.35909 0.13236 0.14223 
-0.13201 0.050157 0.069393 0.099152 0.049006 0.41516 0.17084 -0.014787 
-0.33309 0.021056 0.064296 0.099645 0.047033 0.1978 0.097015 -0.065591 
-0.44078 -0.016266 0.0079024 0.096193 0.026646 0.0026412 0.043909 -0.13152 
-0.52332 -0.070523 -0.016595 0.051143 0.021878 -0.1769 -0.0080457 -0.16407 
-0.53647 -0.079237 -0.055561 0.0088889 -0.054246 -0.25417 -0.012814 -0.20715 
-0.55571 -0.074633 -0.073318 -0.018733 -0.24793 -0.1649 0.0059294 -0.24628 
-0.57379 -0.074304 -0.079237 -0.048163 -0.4564 -0.12905 -0.0031133 -0.33868 
-0.60602 -0.11113 -0.10291 -0.069536 -0.51049 -0.27999 -0.16523 -0.49142 
-0.70615 -0.13136 -0.11705 -0.035832 -0.22326 -0.26881 -0.27736 -0.46643 
-0.9748 -0.08384 0.031414 0.054267 0.3535 0.092082 -0.15799 -0.37272 
-1.2104 -0.15322 0.20717 0.19468 0.79166 0.4385 0.03092 -0.31764 
-0.83965 -0.24069 0.23973 0.24367 0.8474 0.57316 0.14371 -0.19318 
0.36698 -0.099624 0.1396 0.18169 0.65158 0.5143 0.15505 0.18876 
1.5952 0.39312 0.10984 0.14321 0.48964 0.4071 0.12908 0.536 
1.4901 0.55491 0.076463 0.13697 0.41433 0.45807 0.12151 0.58302 
0.70864 0.22131 -0.0096899 0.066269 0.20947 0.51232 0.2366 0.51216 
0.30171 0.02122 -0.057699 0.017438 -0.020048 0.29464 0.26801 0.3027 
0.63366 0.33772 0.021549 0.039634 -0.18002 -0.079895 0.14552 0.095699 
0.85546 0.58582 0.057555 0.069722 -0.29561 -0.48583 -0.04882 -0.14944 
0.70091 0.42683 0.037661 0.062159 -0.33424 -0.58514 -0.18232 -0.82683 
0.12612 0.16179 0.012013 0.065612 -0.30218 -0.42385 -0.18364 -0.93205 
-0.40346 0.016123 0.016452 0.093562 -0.2009 -0.16013 -0.096172 -0.30465 
-0.61901 -0.050136 0.054103 0.10113 -0.12018 -0.058356 -0.028433 0.19237 
-0.59484 -0.13053 0.05476 0.10145 -0.058192 -0.021034 -0.014129 0.41302 
-0.41776 -0.24677 0.034702 0.085506 -0.021528 -0.050793 -0.027282 0.67082 
0.04506 -0.2596 0.026646 0.071695 0.0041209 -0.065262 -0.013143 0.92468 
0.40184 -0.2032 0.026974 0.066763 0.028783 -0.13974 -0.027118 0.95032 
0.66474 -0.027282 0.018754 0.098659 0.074161 -0.10193 0.02533 0.87552 
0.98419 0.052294 0.047033 0.096193 0.14124 0.14765 0.10113 0.64123 
1.4825 0.27261 0.051965 0.1003 0.20224 0.4025 0.18794 0.48881 
1.4664 0.50887 0.056076 0.10096 0.20438 0.42075 0.22559 0.29694 
0.93421 0.44689 0.063968 0.098494 0.13138 0.26998 0.13779 0.12579 
0.44294 0.19665 0.047855 0.080573 0.032564 0.068736 0.030263 -0.13004 
0.15308 0.041114 0.0047785 0.077778 -0.029255 0.0046141 0.007738 -0.2397 
0.03947 0.0059294 0.010204 0.061172 -0.088773 0.020891 0.049499 -0.031721 
-0.081868 -0.074798 0.01563 0.058213 -0.12494 -0.0060728 0.053774 0.35531 
-0.26371 -0.17098 0.034537 0.069558 -0.089431 0.017603 0.064132 0.33426 
-0.38176 -0.1963 0.071695 0.091918 -0.050958 0.11674 0.065118 -0.38094 
-0.22129 0.0041209 0.094055 0.10803 -0.036983 0.093726 0.045224 -0.87401 
0.2006 0.38359 0.096521 0.13713 -0.076277 -0.10719 0.047855 -0.32947 
0.59091 0.66983 0.099974 0.14815 0.029112 -0.18035 0.11477 0.30944 
0.75336 0.55524 0.084848 0.13549 0.017767 -0.1723 0.055418 0.43291 
0.69828 0.1904 0.037497 0.1026 0.0023123 -0.12873 -0.048327 0.58072 
0.37044 -0.067728 0.034537 0.090438 0.12973 -0.034845 -0.073976 0.37718 
-0.039613 -0.20337 0.057555 0.10047 0.25715 0.034537 -0.098144 -0.042901 
-0.26108 -0.20156 0.091918 0.12661 0.33541 0.21523 -0.039613 -0.30481 
-0.26256 -0.13251 0.11888 0.17708 0.4219 0.44607 0.10096 -0.42582 
-0.28262 -0.021034 0.14486 0.17939 0.33657 0.38277 0.16179 -0.52135 
-0.13415 0.020398 0.079751 0.13138 0.034702 0.12118 0.12595 -0.34197 
0.052294 0.0062583 -0.017417 0.055582 -0.21225 -0.031064 0.085506 -0.14303 
0.0028056 -0.057205 -0.11508 -0.033694 -0.32076 -0.12609 0.014972 -0.0868 
-0.12034 -0.13563 -0.094527 -0.062138 -0.33309 -0.10817 0.021878 0.14453 
-0.10587 -0.10373 -0.10686 -0.025967 -0.19959 0.0016547 0.039634 0.43752 
-0.02794 -0.056219 -0.069701 -0.019061 -0.053917 -0.019719 0.022371 0.25107 
0.093726 0.0095465 -0.049314 -0.0049219 0.090438 -0.13859 0.024673 -0.35101 
0.0093821 0.023522 -0.0098543 0.019576 0.092082 -0.20485 -0.024816 -0.49192 
-0.24283 0.0067515 0.024837 0.050321 0.22312 -0.03353 -0.047998 -0.10357 
-0.51641 -0.010183 0.098988 0.10129 0.34758 0.17034 -0.040106 0.36106 
-0.69086 -0.037805 0.09833 0.13713 0.14815 0.057227 0.0013258 0.12924 
-0.80874 -0.052602 0.1008 0.13105 -0.15388 -0.072003 0.012835 -0.3663 
-0.89555 -0.13662 0.06742 0.11115 -0.32504 -0.1182 -0.021528 -0.12511 
-0.72966 -0.14056 0.01563 0.075805 -0.25697 -0.030735 0.043416 0.065283 
-0.50293 -0.061316 -0.065919 0.013164 -0.12577 -0.0068948 0.11132 -0.18791 
-0.24825 -0.008539 -0.086307 -0.028269 -0.047176 -0.03057 0.067749 -0.22195 
0.12316 -0.036818 -0.045532 0.0034632 0.08715 -0.0080457 0.02122 0.15456 
0.39148 0.0046141 0.011026 0.057391 0.2634 0.096193 1.0539e-005 0.28264 
0.38063 0.089287 0.070051 0.092247 0.2708 0.14124 0.036839 0.00033937 
0.33541 0.18728 0.069722 0.099974 0.15555 0.080573 0.068078 -0.23461 
0.22033 0.12628 0.0037921 0.06183 0.035688 0.015137 0.051801 -0.018075 
-0.029913 -0.0077169 -0.074469 -0.014129 -0.081045 -0.03353 0.031742 0.18136 
-0.49849 -0.097322 -0.077264 -0.033037 -0.086307 -0.037311 0.0070803 0.038483 
-0.85839 -0.14928 -0.079401 -0.0075525 0.0074092 -0.054246 -0.072332 -0.25335 
-0.36449 -0.042737 -0.023994 0.016616 0.19369 0.03651 -0.037476 -0.25582 
0.47648 0.1516 0.018425 0.048019 0.35728 0.20076 0.10063 0.024837 
0.86631 0.37849 0.090438 0.10408 0.33985 0.20767 0.11231 0.32736 
0.39575 0.2491 0.087643 0.099481 0.096357 0.051965 0.0098754 0.32752 
-0.35693 -0.14648 0.036017 0.0592 -0.39458 -0.14287 -0.048492 0.21967 
-0.72818 -0.35956 -0.041093 0.044402 -0.60109 -0.30563 -0.057863 0.067256 
-0.83488 -0.3104 -0.0054151 0.048019 -0.43108 -0.3178 -0.056219 -0.25976 
-0.81597 -0.15947 0.010369 0.059857 -0.24447 -0.20041 -0.084169 -0.30761 
-0.53121 0.012177 -0.0088678 0.05213 -0.023994 -0.017582 -0.097816 0.00083261 
0.14864 0.27294 0.071859 0.096357 0.26965 0.19533 0.06742 0.31338 
0.82241 0.49276 0.22904 0.20076 0.56346 0.36863 0.17692 0.45873 
1.0003 0.43932 0.2121 0.25666 0.75648 0.43998 0.1562 0.42634 
0.84017 0.28626 0.15818 0.22444 0.74596 0.47829 0.092576 0.33722 
0.58434 0.14946 0.077614 0.15028 0.47418 0.3923 0.10819 0.31585 
0.54767 0.16689 0.037826 0.098166 0.24104 0.24532 0.13878 0.43604 
0.54471 0.25189 0.053938 0.084519 -0.047012 0.018425 0.09685 0.56971 
0.27771 0.18909 0.062652 0.075148 -0.23231 -0.1815 0.0021479 0.55672 
0.11411 0.046868 0.031907 0.074819 -0.26239 -0.28541 -0.017253 0.63103 
0.18547 0.059528 0.048019 0.10195 -0.25631 -0.26552 -0.010676 0.55836 
0.01152 0.06742 0.10293 0.1294 -0.20255 -0.17345 0.034209 0.26028 
-0.31073 0.025495 0.06742 0.12085 -0.12823 -0.11557 0.029441 -0.074633 
-0.58645 -0.093212 0.027961 0.089945 -0.045039 -0.079072 0.015137 -0.54995 
-0.65912 -0.14878 0.026974 0.066269 0.014643 -0.02498 -0.014787 -1.1772 
-0.42516 -0.095678 -0.019061 0.026481 -0.031392 -0.035174 -0.031721 -1.8243 
0.090274 -0.069701 -0.096665 0.0064227 -0.14451 -0.056219 -0.0057439 -1.191 
0.46941 -0.031064 -0.067564 -0.0047575 -0.12692 -0.056383 0.026646 0.52877 
0.30368 -0.050464 0.028125 0.047362 -0.087458 0.0034632 0.014479 1.1874 
0.21293 -0.049478 0.034209 0.064296 -0.030242 0.023522 0.0067515 0.90708 
0.38112 0.058706 0.013492 0.046046 -0.053588 0.012013 0.054432 0.38293 
0.4413 0.19632 0.026481 0.048677 -0.056877 0.0227 0.030098 -0.46462 
0.33936 0.30944 -0.010841 0.059364 0.024673 0.0054362 0.0065871 -1.0601 
0.42617 0.35219 -0.0070593 0.047855 0.13088 0.086657 0.015301 -0.5174 
0.5725 0.24252 -0.0027845 0.043909 0.12924 0.17297 0.073997 0.060186 
0.48569 0.081889 0.033058 0.064132 0.22542 0.21917 0.085506 0.46563 
0.28017 -0.02942 0.10491 0.12069 0.41746 0.27705 0.035195 0.74053 
-0.066084 0.039963 0.19188 0.18596 0.51331 0.2851 0.024179 0.55803 
-0.57116 0.096357 0.24301 0.25584 0.42338 0.29842 0.069393 0.18366 
-0.82436 -0.022185 0.17708 0.21852 0.13384 0.14058 0.098001 0.0056006 
-0.64153 -0.17476 0.11083 0.16475 -0.18232 -0.063453 0.048184 -0.02498 
-0.22113 -0.24086 0.084026 0.13072 -0.33375 -0.15026 0.0067515 -0.1912 
0.38145 -0.028597 0.065118 0.1174 -0.2716 -0.17082 -0.049478 -0.52381 
0.65684 0.37372 0.11214 0.13187 -0.13859 -0.15437 -0.091404 -0.6075 
0.5554 0.34824 0.06183 0.12595 -0.054246 -0.1256 -0.083018 -0.50326 
0.53649 0.088794 0.01974 0.098166 0.062159 -0.041586 -0.071838 -0.10637 
0.52893 0.10293 0.021384 0.082053 0.16722 0.11231 0.013492 0.26685 
0.17347 0.098659 -0.046847 0.026317 0.081724 0.18267 0.061995 0.24893 
-0.35989 -0.1473 -0.13103 -0.051122 -0.051451 0.10376 0.06331 0.023851 
-0.83159 -0.34953 -0.16095 -0.10587 -0.16128 -0.025474 0.029276 -0.12659 
-1.1219 -0.37946 -0.14467 -0.10242 -0.1598 -0.11541 0.010533 -0.33227 
-1.0938 -0.31698 -0.12429 -0.05589 -0.11179 -0.091732 0.011848 -0.55817 
-0.75152 -0.17049 -0.07414 -0.035832 -0.08121 -0.058521 0.017767 -0.3571 
-0.20403 0.018425 0.012342 0.023193 0.019247 -0.045203 0.027632 0.14239 
0.2565 0.17577 0.052459 0.075312 0.057062 -0.024487 0.007738 0.18777 
0.39543 0.21276 0.096028 0.10392 0.0074092 -0.015773 -0.018568 -0.45147 
0.32045 0.19172 0.093891 0.11115 -0.0083746 0.007738 0.0023123 -0.58596 
0.30598 0.1493 0.023851 0.11362 -0.035338 0.024015 0.042758 0.16969 
0.39296 0.12118 0.010533 0.075641 -0.085978 -0.0027845 0.060022 0.5993 
0.49325 0.094548 0.021384 0.066763 -0.13185 -0.017088 0.071037 0.45083 
0.45264 0.087479 0.016123 0.060022 -0.25384 -0.093541 0.02681 0.35991 
0.29431 0.080902 0.013492 0.041936 -0.33178 -0.25401 -0.076935 0.46234 
0.19944 0.036182 0.05065 0.067749 -0.2379 -0.31747 -0.10604 0.6455 
0.19994 -0.019555 0.087314 0.13631 -0.055232 -0.25072 -0.085649 0.4607 
0.14437 -0.039613 0.16327 0.18777 0.27228 -0.13234 -0.011005 0.057227 
-0.060494 0.0421 0.11543 0.16344 0.49177 0.052623 0.031414 -0.21225 
-0.303 0.19073 0.082546 0.13154 0.39082 0.12036 -0.0024557 -0.15454 
-0.4809 0.21408 0.023357 0.079587 0.21128 0.12809 -0.024323 0.12973 
-0.75563 -0.025802 0.02829 0.05624 0.14601 0.32407 -0.031228 0.10326 
-1.0074 -0.27884 0.022206 0.067256 0.10918 0.49621 0.043909 -0.27127 
-0.59139 -0.26552 -0.0080457 0.061337 0.076627 0.5411 0.16771 -0.40099 
0.20619 -0.021363 -0.069372 -0.00064712 -0.14484 0.41598 0.22904 -0.19433 
0.67707 0.30171 -0.11837 -0.055397 -0.36976 0.22608 0.21589 -0.0087034 
0.62972 0.42486 -0.076935 -0.037311 -0.25088 0.16097 0.23151 0.1493 
0.41713 0.38014 0.020069 0.017932 -0.016266 0.12579 0.20602 0.31141 
0.40809 0.27146 0.085999 0.087643 0.24959 0.024015 0.13105 0.4408 
0.36337 0.14502 0.14437 0.1858 0.42732 -0.10521 0.057391 0.44623 
0.33772 0.034702 0.16262 0.20027 0.42371 -0.15454 -0.056548 0.41516 
0.34807 0.036346 0.17001 0.20355 0.28017 -0.194 -0.065262 0.27195 
0.24795 0.062323 0.1442 0.18333 0.014315 -0.19104 -0.068386 0.10047 
0.10639 0.031249 0.11691 0.1391 -0.20436 -0.18068 -0.06855 0.062159 
-0.011827 0.013821 0.066434 0.11181 -0.24316 -0.15668 -0.065426 0.016452 
-0.076606 0.034209 0.0059294 0.10293 -0.13103 -0.13284 -0.068057 0.034209 
-0.10587 0.033058 -0.018239 0.061172 -0.0090322 -0.12725 -0.001798 0.0092177 
-0.058356 0.012506 -0.046683 0.023193 0.039305 -0.10554 0.028125 0.023851 
0.0036276 0.0016547 -0.032543 0.020891 -0.048327 -0.078086 0.073997 0.029276 
0.036346 0.026481 -0.015444 0.015465 -0.062302 0.0016547 0.041607 0.062817 
0.060679 0.023851 0.015137 0.038483 0.028125 0.13203 0.053445 0.057884 
0.016288 -0.0004827 -0.014622 0.055582 0.171 0.21967 0.038155 0.0689 
-0.03501 0.0021479 -0.045039 0.02533 0.25666 0.34314 0.095206 0.026974 
-0.0095255 -0.022021 -0.029091 0.017932 0.21885 0.39543 0.16706 0.16541 
0.22312 -0.12659 -0.061809 -0.0070593 0.15127 0.37586 0.20372 0.40874 
0.37389 -0.19038 -0.072825 -0.020706 0.22542 0.41729 0.20355 0.43587 
0.054267 -0.35364 -0.051287 -0.015116 0.28099 0.41384 0.14881 0.097672 
-0.56196 -0.36795 -0.015938 0.013986 0.21704 0.2297 0.00066819 -0.44983 
-0.64482 -0.0027845 0.033387 0.06479 0.061501 0.042758 -0.12741 -0.7997 
0.14848 0.60916 0.10063 0.11148 0.00297 -0.026624 -0.11919 -0.41513 
0.83375 1.0167 0.21095 0.20125 0.074654 -0.022679 -0.0068948 0.25485 
0.67361 0.81238 0.30187 0.29316 0.18563 -0.22277 0.017767 0.44031 
-0.0029489 0.30796 0.26702 0.29004 0.1659 -0.43338 -0.032708 0.20569 
-0.60174 -0.15783 0.12825 0.19566 -0.0004827 -0.44933 -0.0406 -0.039613 
-0.39475 -0.33391 -0.034516 0.10376 -0.12018 -0.23296 -0.0013048 -0.071016 
0.32555 -0.24266 -0.13843 -0.014293 -0.12823 -0.041586 0.017932 0.023193 
0.96578 0.058871 -0.063946 -0.01676 -0.12922 -0.01676 0.015959 0.15111 
0.81633 0.20947 -0.010019 0.0065871 -0.11985 -0.042079 -0.010019 0.12464 
0.23792 0.11954 0.027796 0.039141 -0.071345 0.031085 0.024344 -0.018733 
-0.2665 -0.050464 0.054432 0.069886 -0.014951 0.10359 0.038155 -0.15388 
-0.43634 -0.15059 0.01563 0.080902 -0.02794 0.13598 0.10228 -0.3811 
-0.36269 -0.19005 -0.0070593 0.054432 -0.026296 0.2731 0.16903 -0.41924 
-0.077593 -0.14402 -0.044217 0.024015 0.01563 0.37405 0.18711 -0.27111 
0.082053 -0.027447 -0.028762 0.019083 0.031414 0.26143 0.13286 -0.12149 
0.013328 0.10162 0.005765 0.017767 -0.12741 -0.095678 -0.020048 0.19287 
-0.09091 0.098166 0.023357 0.030756 -0.28311 -0.40017 -0.1695 0.66474 
-0.037805 0.056404 0.068078 0.09126 -0.20485 -0.40182 -0.16161 0.75336 
-0.044217 -0.0022913 0.056076 0.1026 -0.022514 -0.2864 -0.098967 0.48487 
-0.15372 -0.019719 0.058213 0.10326 0.13335 -0.17673 -0.086964 0.18383 
-0.10982 -0.0088678 0.08304 0.12398 0.32604 0.060515 -0.03057 0.071037 
-0.033201 0.039634 0.097015 0.13351 0.40973 0.29776 0.057884 0.082053 
-0.063618 0.083533 0.14716 0.15028 0.34298 0.38441 0.081889 -0.053917 
-0.17147 0.053281 0.12233 0.15916 0.10228 0.29004 0.06183 -0.18676 
-0.30284 -0.055397 0.091589 0.13845 -0.091404 0.22953 0.060515 -0.33753 
-0.47893 -0.059343 0.076134 0.11905 -0.20764 0.12447 0.08863 -0.32372 
0.10392 0.030263 0.0088889 0.073997 -0.3372 -0.087458 0.076956 -0.048985 
1.0789 0.24219 0.032071 0.078107 -0.20436 -0.15569 0.063803 0.27294 
1.2394 0.34084 0.025659 0.076134 0.036839 -0.036983 0.067091 0.36567 
0.63021 0.21227 -0.038298 0.0324 0.21967 0.053281 0.010533 0.25929 
0.03947 0.088794 -0.080717 0.017274 0.30401 0.067913 -0.021034 0.077121 
-0.40741 0.045553 -0.066248 -0.0060728 0.28593 0.082546 -0.0047575 -0.29347 
-0.7946 -0.0060728 -0.03764 -0.0031133 0.15292 0.024508 -0.026131 -0.74544 
-0.93452 -0.090253 -0.0503 -0.012649 -0.079401 -0.073154 -0.0014692 -0.57149 
-0.67902 -0.14813 -0.03353 -0.0095255 -0.24349 -0.1108 0.036346 -0.15947 
-0.32619 -0.16654 0.0074092 0.019576 -0.26601 -0.083512 0.063968 -0.49603 
-0.053753 -0.1256 0.030263 0.079751 -0.18561 -0.091239 0.027796 -0.36433 
0.13927 -0.023336 0.08863 0.11757 -0.089431 -0.17657 -0.010348 0.58269 
0.29628 0.023028 0.085012 0.12546 0.004943 -0.22277 0.00033937 1.2935 
0.34298 -0.026789 0.017767 0.085835 -0.0078813 -0.19087 0.0024767 0.82866 
0.36452 0.06594 0.02681 0.0689 0.020562 -0.023665 0.040785 0.21128 
0.14552 0.19468 0.084519 0.10326 0.13828 0.13203 0.069229 0.26044 
-0.26535 0.049828 0.051308 0.10836 0.046375 0.11773 0.060022 0.51611 
-0.79986 -0.23066 0.009711 0.063968 -0.2277 -0.02235 0.029276 0.072681 
-1.1701 -0.41563 -0.034681 0.024015 -0.32635 -0.11738 -0.031228 -1.3483 
-0.69645 -0.41135 -0.077757 -0.013307 -0.23313 -0.091732 -0.034352 -2.0267 
0.45198 0.12349 -0.042408 -0.003771 -0.14254 -0.030242 0.064625 -1.2347 
0.93684 0.55573 0.063803 0.048348 0.014972 0.019083 0.13664 -0.024652 
0.84954 0.5143 0.038319 0.048019 0.072024 -0.11705 0.0039565 0.67953 
0.37948 0.10836 -0.023501 0.037661 0.077778 -0.24595 -0.26798 0.58615 
-0.34181 -0.16407 -0.05326 0.02122 0.2856 0.093398 -0.31846 0.13499 
-0.75942 -0.1621 0.017274 0.060022 0.60078 0.63465 -0.062302 -0.10932 
-0.69645 -0.15388 0.1003 0.11625 0.6626 0.80909 0.17708 -0.22145 
-0.50326 0.031907 0.14815 0.14535 0.35235 0.47862 0.23019 -0.19531 
-0.067564 0.25946 0.15522 0.16146 0.059528 0.044073 0.19336 -0.095349 
0.39164 0.34002 0.056733 0.16179 0.082711 -0.059014 0.16508 0.11066 
0.59798 0.26948 0.0062583 0.09126 0.0689 -0.089924 0.045882 0.1368 
0.46497 0.11033 -0.054082 0.018754 -0.13103 -0.14089 -0.04323 0.081889 
0.26242 -0.015609 -0.084498 -0.025967 -0.29511 -0.206 -0.035832 0.069229 
0.16344 -0.081539 -0.030406 0.0023123 -0.11771 -0.18216 0.045224 0.13697 
0.13269 -0.03501 0.09126 0.090603 0.1761 0.015794 0.13203 0.159 
0.00017495 0.0421 0.085999 0.14026 0.18251 0.084026 0.10754 0.10803 
-0.11935 0.097015 0.031742 0.09126 -0.0016336 -0.011334 0.03536 0.11099 
-0.26223 -0.015116 -0.0013048 0.054103 -0.17838 -0.084334 0.015959 0.077121 
-0.63101 -0.21143 -0.018075 0.041278 -0.23872 -0.045368 0.033715 -0.026789 
-0.54058 -0.33802 -0.041422 0.0090533 -0.18874 -0.097816 0.048513 -0.088444 
0.15308 -0.25138 -0.038462 0.0011614 -0.10932 -0.084169 0.029441 -0.19893 
1.0516 0.15735 0.0324 0.07449 0.046046 0.030592 0.056404 -0.45936 
1.3587 0.58845 0.12842 0.13927 0.14634 0.11987 0.034209 -0.24595 
0.69466 0.53534 0.12332 0.15374 0.14387 0.10293 -0.0088678 0.081724 
0.051143 0.22115 0.067256 0.1271 0.10606 0.084519 -0.053588 0.27491 
-0.18463 0.044567 0.030427 0.08715 0.068407 0.039799 -0.047505 0.23775 
-0.25056 -0.013636 0.066434 0.090438 0.091096 0.062652 -0.032872 0.16771 
-0.32043 -0.12478 0.097508 0.12299 0.10096 0.096686 0.053774 0.14354 
-0.3811 -0.23987 0.039141 0.11099 0.03651 0.10293 0.10639 0.21589 
-0.095021 -0.056877 0.063474 0.10869 -0.022679 0.093562 0.097344 0.27491 
0.36156 0.31832 0.067091 0.10951 -0.037969 0.022864 0.036346 0.18432 
0.56707 0.54307 0.087643 0.11395 -0.031557 -0.0013048 -0.020212 0.30944 
0.52646 0.44853 0.085341 0.11822 0.14486 0.055582 0.01267 0.43669 
0.40151 0.23446 0.14009 0.15522 0.35251 0.18925 0.089287 0.46974 
0.26883 0.054596 0.079587 0.16262 0.37027 0.29135 0.17725 0.36616 
0.16212 -0.056219 0.019905 0.093233 0.17659 0.24597 0.17445 0.16245 
0.062488 -0.11886 -0.021528 0.044073 -0.033694 0.10819 0.073668 -0.058356 
0.05065 -0.13168 -0.013143 0.036017 -0.064111 -0.009361 0.00297 0.099645 
0.049828 -0.084005 0.026152 0.051801 -0.018404 -0.068057 -0.023501 0.3198 
0.078929 -0.076935 0.047033 0.069558 -0.015609 -0.0771 0.01004 0.3221 
0.18991 -0.034516 0.035031 0.091753 -0.049149 -0.063289 0.049006 0.18629 
0.24203 0.058049 0.042265 0.088794 -0.0054151 0.0041209 0.10408 0.18629 
0.23825 0.14585 0.023851 0.063968 -0.0029489 -0.077593 0.11954 0.13006 
0.25781 0.17807 -0.0024557 0.050486 -0.035996 -0.17493 0.092082 0.10836 
0.33755 0.097015 -0.049314 0.03092 -0.080881 -0.19186 0.059528 0.31552 
0.52071 0.13335 0.0090533 0.030756 -0.19827 -0.17246 -0.010841 0.60029 
0.29908 0.11724 -0.013307 0.038483 -0.35003 -0.15174 -0.0087034 0.66457 
-0.10686 0.080244 0.025824 0.060515 -0.28147 -0.15405 -0.03912 0.41762 
-0.41727 0.12776 0.095699 0.11872 -0.038627 -0.18824 -0.082525 0.060022 
-0.94487 -0.069701 0.059857 0.10622 0.032893 -0.26568 -0.18512 -0.60931 
-1.4542 -0.43996 -0.084991 0.0042853 -0.075127 -0.28147 -0.20551 -1.1632 
-1.0726 -0.54765 -0.15487 -0.084991 -0.0868 -0.12609 -0.12346 -1.1961 
0.33246 -0.12396 -0.048656 -0.017253 0.19451 0.18958 -0.0031133 -0.53039 
1.364 0.5314 0.13943 0.1322 0.46464 0.37866 0.087972 0.079422 
1.3066 0.79693 0.21901 0.21178 0.51693 0.35071 0.082711 0.6746 
0.44738 0.42206 0.17347 0.20191 0.32966 0.22049 0.081067 1.2693 
-0.66192 -0.10061 0.08978 0.14667 0.10885 0.17544 0.036182 0.92829 
-1.4935 -0.437 0.071531 0.11313 -0.031557 0.22476 0.11674 -0.0091966 
-1.2814 -0.42187 0.044238 0.087808 -0.133 0.2195 0.1756 -0.70763 
0.016288 0.028783 0.011684 0.093562 -0.206 0.10819 0.20668 -0.7262 
1.451 0.6118 0.042265 0.092576 -0.18791 0.0075736 0.17314 -0.22852 
1.6627 0.82964 0.077778 0.11247 -0.14665 -0.068714 0.13828 0.2218 
0.9592 0.56461 0.0023123 0.060679 -0.13464 -0.12725 0.077121 0.30648 
0.088958 0.16245 -0.0077169 0.035688 -0.03616 -0.11212 -0.034845 0.1151 
-0.40527 -0.17756 -0.03057 0.022535 0.11987 -0.062631 -0.10719 0.0062583 
-0.51378 -0.2933 -0.022843 0.04506 0.21983 -0.017746 -0.11541 0.018918 
-0.44374 -0.29709 0.0047785 0.046868 0.2269 0.010369 -0.072167 -0.004593 
-0.3663 -0.28706 0.032071 0.062981 0.16146 0.013821 -0.044874 -0.039449 
-0.34838 -0.27029 0.034373 0.062488 0.061008 -0.0083746 -0.060658 -0.20501 
-0.33128 -0.24168 0.00083261 0.038812 -0.021856 -0.018075 -0.058685 -0.41102 
-0.27982 -0.17739 0.0042853 0.034209 -0.028433 -0.00015387 -0.017253 -0.51756 
-0.24612 -0.17493 0.0059294 0.050486 -0.021363 0.036839 0.054596 -0.38603 
-0.27325 -0.14517 0.0070803 0.055089 0.028619 0.068407 0.05624 -0.17854 
-0.2887 -0.1358 0.041936 0.070708 0.0047785 0.055747 0.03092 -0.092719 
-0.24513 -0.10291 0.029276 0.068407 -0.020706 0.0324 0.066434 -0.060823 
-0.11886 0.037332 0.0095465 0.049499 -0.012814 0.024508 0.074654 -0.097158 
0.047691 0.36567 0.066763 0.075805 -0.13777 -0.062302 0.0592 -0.19005 
0.31256 0.78871 0.12891 0.13499 -0.24316 -0.17772 0.043251 -0.093376 
0.40332 0.72442 0.068571 0.14042 -0.30514 -0.21192 0.0041209 0.25715 
0.13335 0.13976 -0.073154 0.031578 -0.33983 -0.21669 -0.064604 0.45083 
-0.50375 -0.51756 -0.21652 -0.092061 -0.22688 -0.032543 -0.093705 0.29579 
-0.6902 -0.7387 -0.26289 -0.15405 0.069229 0.15867 -0.16079 0.072846 
0.087808 -0.45377 -0.16276 -0.12412 0.45346 0.38063 -0.078744 -0.067235 
1.0156 0.25452 0.09126 0.053116 0.90363 0.58911 0.091425 0.06183 
0.83803 0.62528 0.24893 0.24203 1.0422 0.81961 0.31371 0.087314 
0.29086 0.44163 0.29875 0.29234 0.73987 0.75418 0.3946 -0.074962 
0.16689 0.12842 0.2024 0.24449 0.26653 0.35498 0.27853 -0.24382 
0.26537 0.10113 0.16327 0.20487 -0.089266 0.062159 0.10524 -0.26634 
-0.009361 0.080244 0.11017 0.15127 -0.20107 -0.048656 0.00099702 -0.14122 
-0.52743 -0.218 -0.0062372 0.06742 -0.18709 -0.11574 -0.036818 -0.10242 
-0.51921 -0.31353 -0.086307 0.020398 -0.13563 -0.10225 -0.033365 0.05213 
-0.012156 -0.21669 -0.027447 0.020398 -0.16851 -0.17197 -0.037805 0.33015 
0.64303 -0.047505 0.064461 0.075476 -0.24332 -0.31945 -0.049314 0.47796 
0.8058 0.20586 0.098823 0.11017 -0.28558 -0.39951 -0.089266 0.4704 
0.24203 0.22476 0.054596 0.08978 -0.22425 -0.34542 -0.043395 -0.15388 
-0.40083 0.043745 -0.057534 0.01974 -0.15141 -0.26502 -0.073154 -0.814 
-0.49619 -0.10176 -0.13777 -0.035503 -0.060658 -0.13892 -0.084005 -0.45377 
-0.2277 -0.096665 -0.13185 -0.063289 -0.022843 -0.02942 -0.038298 0.22559 
-0.02646 -0.023336 -0.066084 -0.03353 0.024015 0.079422 0.0088889 0.50805 
0.043087 0.085835 0.010204 0.019247 0.041114 0.1031 0.033715 0.402 
0.11132 0.12875 0.042923 0.057062 0.036675 0.12497 0.0689 -0.0083746 
0.16492 0.11198 0.067256 0.081067 0.032071 0.10704 0.081231 -0.0052507 
0.23562 0.066269 0.053116 0.095535 0.10491 0.1807 0.081231 0.21309 
0.25781 0.025659 0.041114 0.11033 0.090438 0.31322 0.14272 0.27376 
0.20257 0.040785 0.047033 0.097344 0.041278 0.37307 0.18465 0.30598 
0.27277 0.045882 0.064132 0.10195 0.01974 0.22756 0.14634 0.39164 
0.36189 0.03651 0.074654 0.10376 0.11263 -0.0052507 0.064461 0.39888 
0.34775 -0.014622 0.060844 0.094384 0.10491 -0.23592 -0.047998 0.15999 
0.14667 0.031085 0.066598 0.089123 -0.0013048 -0.30333 0.01415 -0.27341 
-0.11787 0.23874 0.022371 0.097344 -0.11393 -0.27341 0.054596 -0.62969 
-0.22902 0.28675 0.0064227 0.067091 -0.1963 -0.33326 -0.050958 -0.55834 
-0.22244 0.16886 -0.019226 0.041278 -0.24661 -0.36614 -0.27374 -0.42862 
-0.17805 0.13434 0.089452 0.11017 -0.14007 -0.24628 -0.29265 -0.18857 
-0.084334 0.2001 0.25239 0.23019 0.11148 0.037661 -0.14813 0.24795 
-0.079237 0.2024 0.29119 0.2851 0.28346 0.31355 0.043087 0.39921 
-0.066084 0.12349 0.2029 0.27623 0.32884 0.46136 0.14634 0.26537 
-0.01232 0.058542 0.14272 0.21687 0.29234 0.53173 0.19796 0.13927 
-0.082525 0.01711 0.061008 0.14552 0.22197 0.54126 0.24597 0.027961 
-0.074304 -0.0011404 0.024673 0.089452 0.028125 0.36337 0.23249 0.017767 
-0.049971 -0.044546 -0.028269 0.053938 -0.14023 0.18251 0.19205 0.20767 
0.0689 -0.018075 -0.0095255 0.028125 -0.096336 0.079422 0.11346 0.34314 
0.097837 -0.056055 0.0098754 0.078272 0.23496 0.10145 0.086492 0.36156 
-0.016102 -0.034845 0.047033 0.094713 0.46925 0.068078 0.025988 0.18859 
-0.045368 0.022206 0.005765 0.05213 0.30681 -0.15585 -0.016595 0.014479 
0.074983 0.090109 -0.10012 -0.035832 -0.10439 -0.36154 -0.090417 -0.051451 
0.2782 0.1636 -0.10456 -0.062631 -0.30843 -0.42138 -0.10949 -0.081539 
0.27425 0.18629 -0.083676 -0.06 -0.30958 -0.27292 -0.078415 -0.16983 
0.095535 0.13203 -0.063946 -0.032543 -0.2374 -0.17641 -0.069208 -0.24793 
-0.01939 0.054596 -0.036489 0.017603 -0.10768 -0.056877 -0.012649 -0.076442 
-0.087293 0.020398 -0.00015387 0.038155 -0.0138 0.012177 0.013328 0.021056 
-0.11113 -0.015938 0.038155 0.06331 -0.059343 -0.039613 -0.0090322 0.058542 
-0.11903 -0.0047575 0.033058 0.068407 -0.11607 -0.17394 -0.037476 0.12266 
-0.17493 -0.037311 0.044567 0.072188 -0.10028 -0.20666 -0.043888 0.19073 
-0.26256 -0.016102 0.055747 0.08419 -0.045696 -0.17509 -0.060987 0.22953 
-0.22047 0.033387 0.028947 0.1031 -0.052766 -0.054739 -0.032379 0.11494 
-0.092061 0.061172 0.037332 0.090274 -0.063946 0.053609 0.022535 -0.21652 
0.047197 0.03799 0.068407 0.1077 0.0070803 0.051143 0.016288 -0.29577 
0.10918 0.0036276 0.07301 0.11477 0.10244 0.022042 -0.063124 -0.10357 
0.12973 0.0064227 0.049499 0.092082 0.17429 0.087808 -0.033037 0.094055 
0.16673 0.045389 0.089452 0.11083 0.36139 0.35416 0.089123 0.3392 
0.24055 0.14387 0.1031 0.15999 0.53304 0.64813 0.28362 0.53238 
0.18267 0.21556 0.11691 0.16163 0.4847 0.76207 0.42666 0.39822 
0.074819 0.16673 0.034866 0.1003 0.28099 0.50098 0.329 0.17314 
-0.02942 -0.011827 -0.062631 0.0093821 0.040128 -0.0024557 0.077121 -0.093048 
-0.18084 -0.1381 -0.13021 -0.066577 -0.16638 -0.37239 -0.14878 -0.37913 
-0.24349 -0.11771 -0.1233 -0.081703 -0.19498 -0.47975 -0.29429 -0.51839 
-0.30531 -0.093376 -0.051944 -0.023994 -0.16473 -0.54371 -0.31632 -0.29889 
-0.23411 -0.020541 0.049335 0.063639 0.065776 -0.47662 -0.19794 0.15456 
-0.10998 0.018754 0.087972 0.10967 0.28757 -0.30711 -0.066248 0.42765 
0.10326 0.034866 0.066105 0.097179 0.043251 -0.23675 0.082546 0.37372 
0.27409 0.082711 0.020727 0.053938 -0.34789 -0.25582 0.067585 0.14683 
0.32867 0.20914 0.038483 0.055254 -0.5613 -0.16638 0.047855 -0.04471 
0.32917 0.26389 0.079422 0.094713 -0.5858 -0.073976 0.062652 -0.071345 
0.17347 0.17265 0.072024 0.14042 -0.37288 0.013164 0.044567 -0.20666 
-0.014458 -0.0040998 0.067749 0.13647 0.00066819 0.059364 0.0014903 -0.10521 
0.0041209 -0.16375 0.0056006 0.09126 0.38605 0.25239 0.033387 0.15374 
0.18563 -0.23757 -0.042408 0.038812 0.54784 0.55392 0.10162 0.33262 
0.11115 -0.18956 -0.001798 0.030263 0.5799 0.88571 0.20619 0.14124 
-0.13103 -0.077922 0.018096 0.041772 0.58384 0.96841 0.28938 -0.17065 
0.082053 0.11329 -0.07266 0.015137 0.33657 0.59864 0.26932 -0.22869 
0.67773 0.46563 -0.015609 0.020891 0.15374 0.15735 0.19517 -0.084005 
0.71423 0.67756 0.13056 0.11247 0.012177 -0.2009 0.02533 -0.059836 
-0.06444 0.41779 0.14568 0.15472 -0.1353 -0.44637 -0.10373 -0.1667 
-1.023 -0.048985 0.068407 0.11165 -0.24234 -0.54519 -0.16917 -0.11261 
-1.5409 -0.49816 -0.00081153 0.049499 -0.3155 -0.55932 -0.17525 0.23611 
-1.0654 -0.88158 -0.12445 -0.0077169 -0.29856 -0.42582 -0.11853 0.25436 
0.38803 -0.72029 -0.13168 -0.047669 -0.12182 -0.18052 -0.053424 0.15505 
1.728 0.28905 0.06594 0.066105 0.077285 0.038648 0.10392 0.14601 
1.5087 0.90511 0.22427 0.19649 0.11362 0.080573 0.099481 -0.031886 
0.61689 0.7185 0.21523 0.22164 0.064296 0.035688 0.051801 -0.22129 
0.12053 0.22444 0.089452 0.14897 -0.039942 -0.023665 0.031907 -0.18594 
-0.11919 -0.23247 0.033222 0.11083 -0.051122 -0.11393 0.010204 -0.026953 
-0.28393 -0.43684 -0.020706 0.059035 -0.1016 -0.20715 0.025001 0.12332 
-0.33474 -0.39097 -0.041422 0.023357 -0.19054 -0.2351 0.041443 0.22263 
-0.3372 -0.21225 -0.054904 0.0024767 -0.13464 -0.14204 0.04654 0.15883 
-0.44424 -0.17904 -0.037969 0.0087245 0.010369 -0.0054151 -0.022021 0.01974 
-0.48123 -0.12609 -0.01676 0.018096 0.087972 0.16212 -0.040271 -0.05885 
-0.0027845 0.09833 0.033058 0.048019 0.11362 0.32423 -0.088115 -0.065097 
0.58401 0.40332 0.042923 0.10228 0.051636 0.45922 -0.066248 -0.10883 
0.65356 0.52663 0.12266 0.14239 0.031414 0.61558 0.10063 -0.29248 
0.13582 0.34775 0.16212 0.18399 0.080738 0.69302 0.29563 -0.41908 
-0.4324 0.014972 0.15653 0.19139 0.17725 0.4875 0.31815 -0.34624 
-0.32947 -0.20715 0.18613 0.20799 0.27244 0.24219 0.28412 -0.074304 
0.16919 -0.14106 0.15144 0.1784 0.25107 0.10573 0.23578 0.24137 
0.55014 0.27409 0.0786 0.16393 0.17396 0.14371 0.20717 0.4704 
0.59618 0.54389 0.043251 0.11066 0.25995 0.17462 0.12283 0.52893 
0.27606 0.30319 -0.036983 0.045224 0.24236 -0.047341 -0.046683 0.45248 
-0.2032 -0.07825 -0.055726 0.00050378 0.017438 -0.41398 -0.18545 0.14058 
-0.47893 -0.19022 -0.052273 -0.017911 -0.15043 -0.5881 -0.22014 -0.064111 
-0.046354 -0.23362 -0.063782 -0.035338 -0.24661 -0.50737 -0.13596 0.055089 
0.62034 -0.035667 -0.044217 0.0039565 -0.16572 -0.28475 -0.057205 0.22871 
0.42634 0.081231 -0.011992 0.029112 0.0227 -0.07825 -0.019061 0.095371 
-0.077593 0.041443 0.045553 0.070215 0.12677 0.094877 -0.014622 -0.21767 
-0.29676 -0.023994 0.048348 0.082711 0.14634 0.18465 -0.0014692 -0.40478 
-0.23921 -0.052273 -0.0078813 0.057227 0.24466 0.2879 0.021878 -0.38143 
-0.059343 -0.044546 -0.060329 -0.0022913 0.15686 0.29037 0.02829 -0.18972 
0.047691 -0.056219 -0.092719 -0.017253 0.040621 0.26965 0.049828 -0.34789 
0.11855 0.015465 -0.0090322 0.028619 -0.019555 0.27146 0.098494 -0.15043 
0.073668 0.18119 0.074326 0.082546 -0.081703 0.20619 0.15505 0.37142 
-0.096172 0.26784 0.13582 0.13878 -0.14336 0.038648 0.14798 0.70173 
-0.20156 0.11724 0.1026 0.1442 -0.18348 -0.15207 0.044238 0.61541 
-0.14089 0.056076 0.055911 0.09833 -0.15224 -0.23329 -0.035174 0.40891 
-0.062467 0.14552 0.094055 0.12694 -0.059836 -0.15224 -0.025309 0.25748 
-0.041422 0.14404 0.090767 0.15522 0.011191 -0.095678 -0.040271 -0.20436 
0.07038 0.052459 0.063474 0.12825 0.10688 0.013492 0.041607 -0.80644 
0.34906 0.1248 0.045882 0.11214 0.11609 0.13072 0.092411 -0.39672 
0.41154 0.19172 0.042758 0.092411 0.14091 0.18448 0.071202 0.17692 
0.27343 0.15308 0.033551 0.059528 0.10359 0.1373 0.041278 0.41351 
0.072353 0.098166 0.039963 0.065118 0.079094 0.02681 -0.01939 0.35925 
-0.1575 0.06183 0.029605 0.097344 0.035853 -0.085978 -0.052109 0.10178 
-0.32191 0.030263 0.0039565 0.06331 -0.03501 -0.17772 -0.077922 -0.034845 
-0.34312 -0.029748 -0.042737 0.021549 -0.12725 -0.24513 -0.035996 0.01152 
-0.17279 -0.048985 -0.045203 0.0042853 -0.12642 -0.22721 -0.018239 0.095864 
-0.037805 -0.038791 -0.042408 -0.00015387 -0.069208 -0.13826 0.049335 0.10277 
-0.071016 -0.073976 -0.019061 -0.0004827 -0.037476 -0.046847 0.013328 0.038648 
-0.22014 -0.16868 -0.03912 0.023357 0.047197 0.0082312 -0.02794 -0.12774 
-0.57609 -0.26848 -0.0040998 0.037332 0.091918 0.056898 -0.077593 -0.32356 
-0.83669 -0.21948 0.018425 0.052952 0.1202 0.13647 -0.077922 -0.53088 
-0.61194 0.011355 0.067913 0.085506 0.12579 0.18152 -0.061645 -0.42615 
0.0095465 0.23907 0.11576 0.13056 0.1807 0.20503 -0.04619 0.08156 
0.63185 0.26225 0.16689 0.17034 0.18958 0.20355 0.082217 0.55885 
1.2297 0.42913 0.19731 0.21457 0.062817 0.15275 0.2417 0.64534 
1.2602 0.53863 0.18366 0.23923 -0.10571 0.094384 0.26866 0.40463 
0.5314 0.34758 0.094548 0.17232 -0.11179 -0.017582 0.10918 0.1276 
-0.10604 0.063474 -0.025638 0.077285 0.016945 -0.10472 -0.027282 -0.058192 
-0.30399 -0.19054 -0.13596 -0.024816 0.073668 -0.0868 -0.088608 -0.066413 
-0.22441 -0.28985 -0.20567 -0.11935 0.048348 -0.053588 -0.073318 -0.010676 
-0.034516 -0.31846 -0.22754 -0.15848 -0.035338 -0.10735 -0.060987 0.061008 
-0.0098543 -0.30481 -0.20271 -0.12856 -0.067728 -0.15651 -0.061973 -0.096007 
-0.058685 -0.15289 -0.085649 -0.071509 -0.075291 -0.10291 -0.027118 -0.37485 
-0.15651 0.1807 0.016781 0.012177 -0.083018 -0.022514 0.020233 -0.42286 
-0.26667 0.33344 0.056076 0.061501 -0.059014 -0.026296 0.03536 -0.047505 
-0.30481 0.15078 0.059528 0.072846 -0.07973 -0.21455 -0.022843 0.2537 
-0.22852 -0.066577 0.067749 0.08419 -0.10998 -0.3474 -0.080881 0.29382 
0.1299 -0.091732 0.026974 0.1003 -0.10735 -0.25861 -0.098638 0.21243 
0.59289 0.089123 0.04506 0.098001 -0.0070593 -0.10768 -0.042244 0.25962 
0.65027 0.2029 0.084519 0.11757 0.08978 0.049828 -0.001798 0.2366 
0.39575 0.13368 0.087479 0.12365 0.098823 0.16755 0.01267 0.076956 
0.069722 -0.006566 0.045224 0.096357 0.053774 0.23052 0.041443 -0.012485 
-0.13037 -0.094363 0.064132 0.087972 0.052787 0.21671 0.080244 0.0051074 
-0.21965 -0.12379 0.064954 0.14831 0.057227 0.18744 0.11839 0.061666 
-0.074962 -0.013307 0.072353 0.12908 0.043087 0.22674 0.15209 0.092247 
0.29612 0.21276 0.062817 0.11461 0.088465 0.45494 0.20635 0.10326 
0.42551 0.24285 0.11937 0.14289 0.13779 0.68578 0.2657 -0.01676 
0.2731 0.1978 0.1031 0.14174 0.18744 0.60505 0.25798 -0.077757 
0.19846 0.078436 0.062981 0.10754 0.11707 0.24433 0.20651 -0.20682 
0.089616 0.038648 0.018096 0.076956 0.0032988 -0.22491 0.057555 -0.34345 
-0.010512 -0.011992 -0.032215 0.057884 0.02122 -0.39656 -0.044381 -0.17049 
-0.02794 -0.019061 -0.061151 0.012999 0.019411 -0.38932 -0.086471 0.014808 
0.078929 -0.0083746 -0.10472 -0.042737 -0.16621 -0.50671 -0.18495 0.13845 
0.056076 -0.065755 -0.1108 -0.067892 -0.4176 -0.63413 -0.25171 0.34051 
-0.50688 -0.21488 -0.062138 -0.045532 -0.37946 -0.48287 -0.20879 0.55146 
-1.0309 -0.47284 -0.014129 0.0014903 -0.12741 -0.14714 -0.1427 0.31453 
-0.76336 -0.48583 0.0046141 0.073175 0.17889 0.21342 -0.065919 -0.11968 
0.050321 -0.14911 0.13253 0.14733 0.341 0.40282 0.092082 -0.57905 
0.97055 0.79265 0.23874 0.23792 0.43604 0.5771 0.27623 -0.51263 
0.87239 1.1812 0.22361 0.2565 0.41927 0.64961 0.34725 -0.17805 
0.31601 0.65701 0.12217 0.18399 0.33755 0.50394 0.28691 0.027632 
-0.13481 0.022864 0.097837 0.13894 0.24203 0.3678 0.18613 0.027303 
-0.25187 -0.23707 0.069229 0.13401 0.10836 0.32818 0.14897 0.028783 
-0.19038 -0.23362 0.044402 0.10573 0.054432 0.32029 0.11165 0.13565 
-0.085813 -0.15026 0.023193 0.078929 0.024837 0.19385 0.070215 0.17018 
-0.06 -0.10308 0.010862 0.064954 0.095864 0.054267 0.052787 0.16229 
-0.11968 -0.11508 0.0047785 0.048348 0.17626 -0.026953 0.029112 0.1391 
-0.18134 -0.055397 0.044238 0.059693 0.053609 -0.13399 -0.033201 0.1442 
-0.17723 0.0087245 0.051965 0.084848 -0.11656 -0.24513 -0.095514 0.11099 
-0.10604 0.059035 0.0421 0.08567 -0.15141 -0.28377 -0.10308 0.12283 
-0.0082102 0.086328 0.024673 0.078272 -0.10225 -0.29972 -0.083018 0.17314 
0.060679 0.090274 0.047691 0.086328 -0.07414 -0.2203 -0.080223 0.16278 
0.032729 0.03799 0.097179 0.11806 -0.054904 -0.13629 -0.084005 -0.12116 
-0.11294 -0.03205 0.10967 0.12858 -0.07562 -0.084334 -0.060165 -0.36959 
-0.13251 -0.022185 0.092904 0.12644 -0.046354 0.0018191 0.012177 -0.4033 
-0.025967 0.038319 0.058213 0.13631 0.017274 0.11642 0.11987 -0.17558 
0.06183 0.14042 0.047691 0.11132 0.071366 0.17659 0.13845 0.0085601 
0.050486 0.1807 0.034209 0.090274 0.11395 0.14058 0.09274 0.10195 
0.0013258 0.11017 0.018425 0.075476 0.1271 0.12513 0.085835 0.1835 
0.0028056 0.068736 0.04917 0.079916 0.1128 0.11691 0.092247 0.20208 
0.020727 0.051636 0.077121 0.10195 0.09685 0.042758 0.072681 0.16179 
0.016616 0.057391 0.049499 0.12644 0.053774 -0.10587 0.023193 0.16853 
0.026317 -0.0021268 0.0092177 0.079094 0.009711 -0.17443 -0.050958 0.17988 
0.017438 -0.044874 -0.0040998 0.05065 -0.063453 -0.15503 -0.091239 0.12891 
-0.028433 -0.063782 -0.0036066 0.046046 -0.051287 -0.23822 -0.11015 0.095206 
-0.10505 -0.087458 0.022535 0.041278 -0.10883 -0.26585 -0.047669 -0.071016 
-0.001798 -0.038133 0.012013 0.03947 -0.13908 -0.18068 -0.065591 -0.28015 
0.29579 0.071366 -0.0049219 0.074161 -0.076771 0.025824 -0.031721 -0.1963 
0.42042 0.29513 0.082053 0.11329 0.071366 0.28461 -0.039284 -0.13316 
0.33229 0.40809 0.14321 0.16344 0.27014 0.39937 0.00066819 -0.08384 
0.1738 0.35613 0.19616 0.21589 0.49687 0.512 0.06742 0.093562 
0.025659 0.1687 0.15144 0.19369 0.51808 0.47418 0.1853 0.17906 
-0.079566 -0.00064712 0.078765 0.11642 0.2657 0.3101 0.21128 0.1294 
0.058377 -0.084827 0.047855 0.095042 0.016616 0.13351 0.18761 0.13615 
0.23923 -0.10028 -0.0067304 0.055911 -0.16523 -0.070194 0.12661 0.22328 
0.31223 -0.0771 -0.067728 0.0023123 -0.255 -0.24118 0.055911 0.28297 
0.22509 -0.11278 -0.12922 -0.054575 -0.21833 -0.33046 -0.036654 0.31371 
0.1077 -0.11146 -0.16983 -0.096829 -0.18693 -0.38028 -0.092061 0.32769 
0.0067515 -0.040106 -0.22178 -0.14434 -0.083347 -0.31238 -0.049971 0.41236 
0.020562 0.051965 -0.18775 -0.13843 0.039305 -0.1935 -0.061151 0.49999 
0.12184 0.065118 -0.1376 -0.072496 0.0046141 -0.10489 -0.04619 0.43176 
0.18267 0.10425 -0.04619 -0.032215 -0.089266 -0.093541 -0.04882 0.18909 
0.19106 0.16294 0.033222 0.033551 -0.15487 -0.073647 -0.033694 -0.27275 
0.1299 0.16903 0.093726 0.098988 -0.1358 -0.025309 0.021549 -0.64909 
0.059528 0.14091 0.14042 0.14486 -0.086307 0.022371 0.032729 -0.60043 
0.0075736 0.10507 0.18547 0.18432 -0.067564 0.047033 0.012013 -0.46939 
0.038483 0.083533 0.12151 0.20043 -0.0011404 0.051472 0.017603 -0.12708 
0.14749 0.052787 0.087479 0.15785 0.037004 0.066763 0.065447 0.36879 
0.18876 0.010697 0.011848 0.093726 0.056076 0.085999 0.055911 0.50641 
0.18876 -0.015773 -0.046683 0.033715 0.055582 0.07038 0.0044497 0.31125 
0.11855 -0.057205 -0.054739 -0.0026201 0.01563 0.036346 -0.01676 0.20586 
0.026481 -0.096665 -0.072825 -0.027282 0.0039565 0.01974 0.038319 0.16689 
-0.067892 -0.15158 -0.098802 -0.023172 0.0014903 0.0046141 0.080902 0.049499 
-0.24003 -0.21011 -0.10275 -0.042573 0.0095465 -0.028433 0.014972 -0.5031 
-0.4051 -0.25763 -0.086636 -0.045368 0.0042853 -0.06707 -0.035832 -0.93468 
-0.40576 -0.15224 0.0034632 0.010204 0.0072447 -0.056055 -0.056877 -0.50359 
-0.53779 -0.082854 0.08008 0.0689 0.024673 -0.02794 -0.039449 -0.14007 
-0.57494 -0.049971 0.10918 0.10573 0.054103 -0.010676 0.015959 -0.033694 
-0.10341 -0.065262 0.059528 0.10096 0.031085 0.0018191 0.076299 0.24252 
0.66457 0.09685 -0.0052507 0.069229 0.0098754 -0.008539 0.081724 0.49588 
0.66063 0.29793 -0.010348 0.04506 0.049828 0.0080668 0.06035 0.31947 
0.12677 0.36073 0.0092177 0.045224 -0.0082102 -0.014129 0.038155 -0.044381 
-0.2328 0.40134 0.041772 0.056404 -0.077922 -0.067564 -0.012156 -0.14139 
-0.23592 0.32802 0.031085 0.059528 -0.087786 -0.12429 -0.075291 0.10655 
0.13615 0.081231 -0.01117 0.051472 0.08567 0.028619 -0.049478 0.31552 
0.46021 -0.0049219 0.021878 0.085835 0.1978 0.1784 0.058213 0.36337 
0.24795 -0.086471 0.015794 0.063639 0.055582 0.092247 0.11937 -0.04471 
-0.13744 -0.18759 0.014808 0.054267 -0.18282 -0.064933 0.082711 -0.25171 
-0.26585 -0.13382 0.0080668 0.041772 -0.40132 -0.076771 0.09274 -0.1039 
-0.30399 -0.092226 -0.0044286 0.036017 -0.37683 0.013821 0.1373 0.015465 
-0.33211 -0.093376 0.042594 0.069229 -0.02498 0.19731 0.15555 -0.025309 
-0.11919 0.016945 0.076627 0.14157 0.36632 0.31404 0.076627 -0.0047575 
0.1345 0.13351 0.1031 0.1493 0.58039 0.33081 0.0026412 -0.094692 
0.18876 0.26028 0.12875 0.16771 0.67921 0.28412 0.0011614 -0.50688 
-0.065755 0.21375 0.088465 0.13894 0.621 0.2389 -0.0072237 -0.71963 
-0.31665 -0.012485 0.048513 0.097179 0.45708 0.27688 0.053774 -0.56064 
-0.27061 -0.23083 0.039634 0.068078 0.2537 0.35416 0.095535 0.086985 
0.090767 -0.099953 0.069558 0.10606 0.016452 0.2292 0.10984 0.45905 
0.48914 0.29908 0.10688 0.12776 -0.25779 -0.085649 0.056569 0.52548 
0.56116 0.42617 0.13647 0.15111 -0.39803 -0.31862 -0.011827 0.29826 
0.29004 0.31881 0.10819 0.14749 -0.32849 -0.37403 -0.063124 -0.039449 
0.056404 0.17445 0.062981 0.12398 -0.19219 -0.37354 -0.080881 -0.13826 
-0.07414 0.12283 0.067585 0.1179 -0.047505 -0.21471 -0.065919 -0.020212 
-0.11146 0.069064 0.072517 0.11954 0.037661 -0.086307 -0.072989 0.013657 
-0.16259 0.073668 0.045718 0.11937 0.089616 0.037332 -0.036818 -0.021528 
-0.089759 0.085177 0.042265 0.098001 0.13516 0.18366 0.043745 -0.0040998 
0.081889 0.13976 0.03536 0.089452 0.1636 0.27771 0.092576 0.12858 
0.17396 0.15045 0.054103 0.096193 0.15735 0.29168 0.12201 0.26866 
0.12053 0.11444 0.097837 0.11033 0.090438 0.32604 0.17643 0.32177 
0.055089 0.058871 0.067913 0.098166 0.031085 0.36221 0.22723 0.3877 
0.069722 0.0031344 -0.012485 0.078436 -0.0068948 0.30138 0.23545 0.45198 
0.22476 0.021384 -0.016102 0.0421 -0.0014692 0.18333 0.17725 0.50558 
0.27853 0.062159 0.020069 0.058049 0.038483 0.051965 0.11494 0.38984 
0.20767 0.10984 0.096686 0.10573 0.090603 -0.045039 0.060679 0.28658 
0.22115 0.14042 0.15407 0.15801 0.20191 -0.018075 -0.026789 0.13845 
0.232 0.11888 0.13615 0.16475 0.31075 0.080573 -0.085156 -0.17164 
0.15522 0.030592 0.058213 0.14996 0.35514 0.20109 -0.050136 -0.75004 
-0.15964 -0.12938 0.023522 0.095371 0.19665 0.17922 0.068736 -1.1675 
-0.61424 -0.3035 -0.034845 0.024508 -0.1233 -0.1016 0.071695 -0.69973 
-0.8311 -0.35644 -0.084827 -0.027282 -0.29511 -0.39524 -0.066577 -0.12511 
-0.12215 -0.099624 -0.068714 -0.025309 -0.12478 -0.46824 -0.15174 0.25633 
1.0606 0.35695 0.087643 0.070873 0.13762 -0.31649 -0.11393 0.54915 
1.5111 0.68973 0.13072 0.12365 0.19632 -0.0965 -0.028762 0.55047 
1.1619 0.81057 0.11888 0.14174 0.091753 -0.012814 -0.059178 0.37767 
0.41779 0.58253 0.10918 0.13154 -0.11196 -0.057863 -0.10521 0.33459 
-0.30892 0.10902 0.017932 0.083533 -0.13021 0.022535 -0.069865 0.25058 
-0.71272 -0.27834 0.013821 0.073668 0.032236 0.26488 0.067091 0.23085 
-0.77931 -0.41004 0.022535 0.063639 0.023028 0.45593 0.20158 0.19237 
-0.67589 -0.51296 0.016616 0.053938 -0.1085 0.49638 0.20092 0.19583 
-0.66126 -0.47136 0.020398 0.08008 -0.23527 0.4122 0.19994 0.076299 
-0.87927 -0.38669 0.011355 0.064954 -0.17887 0.28182 0.22279 -0.20189 
-1.0841 -0.33835 -0.034188 0.027961 -0.18249 -0.0011404 0.16048 -0.4347 
-0.61818 -0.19235 -0.061151 -0.00064712 -0.16605 -0.25812 0.029605 -0.34509 
0.65389 0.35827 0.02533 0.046211 0.023851 -0.24973 -0.019884 0.032893 
1.787 0.92632 0.14798 0.1391 0.25222 -0.15733 -0.010348 0.38737 
1.7101 0.94934 0.19155 0.23003 0.27392 -0.14287 -0.0039354 0.34857 
0.68627 0.40447 0.11083 0.1761 0.17182 -0.21734 -0.07003 0.080409 
-0.23263 -0.18495 -0.003771 0.085012 0.046046 -0.23132 -0.13086 -0.051287 
-0.59106 -0.42056 -0.067728 0.017438 -0.045368 -0.19153 -0.14566 -0.020377 
-0.53812 -0.47745 -0.10735 -0.045861 -0.13185 -0.16342 -0.094363 0.1128 
-0.43092 -0.45048 -0.13497 -0.072003 -0.21438 -0.14204 -0.055397 0.17758 
-0.36334 -0.47005 -0.10768 -0.038627 -0.18709 -0.099953 -0.01528 0.17643 
-0.25763 -0.38258 -0.086142 -0.037805 -0.13349 -0.045368 -0.0032777 0.061995 
0.047526 -0.12314 -0.034681 -0.0067304 -0.084334 -0.01528 0.011191 -0.18183 
0.2149 0.16837 -0.024487 0.0067515 -0.053424 -0.02087 0.024508 -0.34115 
0.15653 0.21293 -0.031557 0.0021479 -0.050793 -0.048492 0.041114 -0.33819 
0.048841 0.10096 0.0067515 0.017603 -0.068057 -0.062302 0.01415 -0.39656 
-0.074962 0.08156 0.070708 0.084355 -0.062138 -0.044381 -0.013143 -0.37962 
-0.17608 0.18218 0.13039 0.14141 -0.056219 -0.036489 -0.0060728 -0.12297 
-0.20353 0.23512 0.14239 0.17149 0.016616 -0.029913 0.027632 0.29596 
-0.058028 0.072024 0.072846 0.13105 0.021549 -0.10094 -0.008539 0.56971 
0.21145 0.015465 0.010533 0.07301 -0.11146 -0.15914 -0.084827 0.47846 
0.31289 0.14519 0.0013258 0.039963 -0.27292 -0.14369 -0.05737 0.12825 
0.1927 0.15768 -0.063453 0.00066819 -0.39014 -0.04882 0.01563 -0.13267 
-0.059507 0.064954 -0.12215 -0.028269 -0.24546 -0.035503 0.076134 -0.13793 
-0.10521 -0.0098543 -0.036983 0.0092177 0.16607 0.076134 0.077121 -0.010348 
-0.040106 -0.050793 0.053774 0.070544 0.34068 0.147 0.037661 0.15144 
-0.057205 -0.10604 0.072517 0.10343 0.40069 0.30253 0.00050378 0.18481 
-0.014622 -0.096336 0.11674 0.13269 0.57332 0.56954 0.047691 0.085177 
0.23414 -0.0059084 0.12595 0.15341 0.65553 0.73872 0.1396 0.09422 
0.40825 0.13565 0.076299 0.16245 0.71373 0.77736 0.22213 0.16327 
0.25715 0.22033 0.053938 0.11757 0.48454 0.56165 0.22756 0.12842 
-0.22787 0.16064 0.025988 0.072846 0.019905 0.17939 0.13565 -0.14944 
-0.63742 -0.0057439 -0.03501 0.018425 -0.26848 -0.13497 0.066269 -0.71798 
-0.33375 -0.14648 -0.11212 -0.039284 -0.26108 -0.41464 0.0034632 -0.65074 
0.5069 -0.0019624 -0.063124 -0.033201 -0.15158 -0.52463 -0.082032 0.062981 
0.81222 0.25896 -0.017253 0.041772 -0.017253 -0.57445 -0.14221 0.37274 
0.63136 0.33213 0.04506 0.074326 0.03799 -0.57462 -0.17854 0.23677 
0.2218 0.2394 0.020891 0.072024 -0.0091966 -0.4929 -0.16884 0.062817 
-0.042244 0.094877 -0.015444 0.037661 -0.081539 -0.28031 -0.15092 0.065447 
-0.096007 -0.015609 -0.03616 0.011355 -0.1108 -0.094363 -0.11968 0.073504 
-0.056548 -0.064604 0.0088889 0.026152 -0.12659 0.022864 0.0018191 0.083204 
-0.1695 -0.10604 0.066598 0.090274 -0.093212 0.14601 0.086163 0.040456 
-0.35216 -0.12725 0.077614 0.11461 -0.022679 0.31486 0.12118 -0.015773 
-0.20534 -0.036325 0.15686 0.16919 0.11477 0.65027 0.19303 -0.054246 
0.41203 0.20865 0.16985 0.19698 0.21769 0.87831 0.29875 0.075641 
0.68003 0.49292 0.15094 0.19402 0.25847 0.72968 0.32982 0.27179 
0.37685 0.38277 0.069558 0.13927 0.22328 0.38112 0.23298 0.23019 
0.05476 0.098988 -0.051944 0.04506 0.12957 0.038155 0.075641 0.15078 
-0.06855 -0.12281 -0.13547 -0.013143 0.10096 -0.1427 -0.081045 0.051801 
-0.090746 -0.14829 -0.0095255 0.016123 0.10244 -0.26305 -0.1723 0.068571 
-0.021034 -0.03912 0.099481 0.095206 0.12266 -0.24036 -0.1233 0.21095 
0.09981 0.0786 0.1465 0.15341 0.13302 -0.1478 -0.02087 0.25946 
0.093726 0.081889 0.098988 0.13088 0.087643 -0.093541 0.01415 0.20914 
0.045718 0.09685 0.069886 0.11477 0.028619 -0.092719 0.01415 0.085835 
-0.078086 0.10458 0.024015 0.10918 -0.00031829 -0.07825 0.047362 -0.070852 
-0.21932 0.080902 0.01415 0.077121 -0.11985 -0.067564 0.046868 -0.32915 
-0.24809 0.020727 -0.01676 0.045718 -0.12873 0.0024767 0.048677 -1.0651 
-0.099624 0.054925 0.0046141 0.051801 0.0075736 0.11658 0.1031 -1.3012 
-0.058192 0.08304 0.064461 0.082217 0.096521 0.098166 0.12349 -0.53351 
-0.14336 0.057062 0.099974 0.11707 0.12349 0.064296 0.089452 0.38737 
-0.19383 -0.035338 0.069229 0.12973 0.049499 0.059035 0.035031 0.73774 
0.01004 -0.056219 0.05624 0.10984 -0.035338 0.039305 -0.01939 0.59289 
0.19895 0.048677 0.060844 0.11658 -0.098638 -0.022514 -0.069536 0.42075 
0.17906 0.078929 0.079094 0.12053 -0.065591 -0.018568 -0.071016 0.32078 
0.11921 0.023686 0.086492 0.11937 -0.023007 0.064625 0.023357 0.24466 
0.12464 0.03947 0.13845 0.15818 0.098494 0.21441 0.16015 0.13138 
0.18909 0.18415 0.18103 0.21375 0.20964 0.22624 0.19303 0.13269 
0.14009 0.17034 0.12973 0.18448 0.15144 0.10343 0.12743 0.20668 
0.10425 -0.012649 0.08419 0.14124 0.053281 -0.05326 -0.021199 0.27573 
0.054103 -0.16851 0.020727 0.087479 -0.047834 -0.21208 -0.11048 0.086163 
-0.052931 -0.03912 0.0088889 0.058542 -0.091568 -0.22951 -0.15388 -0.29577 
-0.27818 0.18021 0.024508 0.050157 -0.086636 -0.068879 -0.076113 -0.54305 
-0.23198 0.25288 -0.00064712 0.035853 -0.10291 -0.001798 0.06742 -0.35348 
0.047362 0.19879 -0.028926 0.049499 -0.1552 0.011026 0.13483 0.011026 
0.22739 0.083862 -0.064604 0.005765 -0.194 -0.022843 0.10343 0.38967 
-0.096665 -0.19515 -0.10225 -0.036818 -0.19679 -0.12215 -0.019719 0.62018 
-0.58695 -0.56755 -0.099789 -0.043724 -0.1307 -0.19466 -0.04882 0.56527 
-0.46528 -0.65929 -0.035667 -0.030077 -0.030735 -0.1649 0.0075736 0.33673 
0.29464 -0.44193 -0.021692 -0.0082102 -0.019226 -0.10489 0.048348 0.01415 
1.1235 0.23627 0.045389 0.073832 -0.036489 -0.0039354 0.047691 0.083862 
1.337 0.84198 0.1544 0.1567 0.028619 0.09274 0.061501 0.14667 
0.85135 0.91514 0.21589 0.21917 0.068407 0.079422 0.055747 -0.26075 
0.016288 0.53041 0.17544 0.20997 0.0019835 -0.026131 0.0070803 -0.87796 
-0.61917 0.080573 0.096357 0.15078 -0.076277 -0.11113 0.012342 -0.86892 
-0.81729 -0.14993 0.029605 0.081889 -0.17854 -0.12297 0.040128 -0.32569 
-0.76336 -0.13678 -0.035832 0.048677 -0.16227 -0.081539 0.0092177 -0.10423 
-0.55604 -0.15552 -0.082854 0.0037921 0.021384 -0.05737 -0.071016 -0.087951 
-0.33556 -0.26223 -0.084663 -0.014293 0.22328 0.031578 -0.15257 0.23134 
-0.19416 -0.25335 -0.021692 0.020398 0.39575 0.10129 -0.17394 0.63975 
-0.11311 -0.17936 0.0016547 0.03536 0.51791 0.25123 -0.078086 0.56 
0.012013 -0.051944 0.01563 0.037497 0.40644 0.23627 -0.039284 0.23923 
0.098001 0.14881 0.0052718 0.04506 0.15653 0.12069 0.0082312 0.19155 
0.14881 0.22756 0.030592 0.066269 -0.13316 0.0036276 0.074161 0.30451 
0.12151 0.1516 0.044731 0.072681 -0.29018 -0.10061 0.11378 0.1299 
0.24367 0.048348 0.02829 0.069229 -0.30974 -0.10867 0.15883 -0.16227 
0.58006 0.086328 0.0075736 0.055911 -0.35249 -0.051615 0.16048 -0.43651 
0.75648 0.2121 0.025659 0.054432 -0.255 1.0539e-005 0.11822 -0.37222 
0.60456 0.29826 0.090109 0.11526 0.012506 0.13368 0.094877 -0.055726 
0.21227 0.22213 0.081889 0.16344 0.31256 0.28954 0.068407 0.12201 
-0.13021 0.1026 0.098988 0.1567 0.44015 0.38277 0.069558 0.026317 
-0.25763 0.090767 0.042594 0.11592 0.40348 0.31437 0.060679 -0.024158 
-0.2938 0.074819 0.013164 0.070544 0.28708 0.096357 0.067585 -0.035174 
-0.34394 0.016616 0.04358 0.06742 0.16738 -0.088444 0.0072447 -0.0057439 
-0.27703 0.0087245 0.087643 0.091918 0.086328 -0.13547 -0.030735 0.12562 
-0.14911 -0.010348 0.027632 0.10408 0.055254 -0.15437 -0.029584 0.16163 
-0.093048 -0.091732 -0.058028 0.026317 0.036182 -0.13826 -0.064768 0.053116 
-0.1353 -0.16325 -0.16177 -0.066741 -0.024487 -0.073318 -0.027775 -0.061316 
-0.091075 -0.17493 -0.18512 -0.11475 -0.055232 0.042758 -0.0040998 -0.0059084 
0.021713 -0.157 -0.097651 -0.08384 -0.067399 0.084684 0.010369 0.042758 
0.084684 -0.084005 0.028783 0.0026412 -0.065755 0.10902 0.0074092 -0.010348 
-0.025967 0.053774 0.1179 0.11855 -0.047505 0.19303 0.044073 -0.18742 
-0.16079 0.14091 0.1442 0.15999 -0.057699 0.40315 0.10639 -0.21586 
-0.035996 0.058049 0.11937 0.16327 -0.015444 0.39839 0.13187 0.012506 
0.13516 0.031085 0.06479 0.12135 -0.0055795 0.14716 0.076463 0.17265 
0.29859 0.11066 0.078765 0.1197 0.035195 -0.032379 0.062323 0.23118 
0.3119 0.15374 0.13154 0.13549 0.058542 -0.12281 0.093726 0.19928 
0.23101 0.15028 0.17807 0.19501 0.12118 -0.15947 0.051636 0.052787 
0.11872 0.18432 0.17084 0.23003 0.18596 -0.11261 0.027303 -0.15076 
0.005765 0.14552 0.08978 0.17001 0.18284 -0.061645 0.014479 -0.22277 
-0.018239 0.10326 0.011026 0.096521 0.1345 -0.015609 0.036346 -0.012485 
-0.065262 0.071366 -0.012814 0.053445 0.096028 -0.0022913 0.023851 0.13631 
-0.35923 -0.032379 0.016123 0.046375 0.005765 -0.011992 0.0028056 0.077614 
-0.62723 -0.18775 -0.0021268 0.030756 -0.19877 -0.056877 -0.045696 0.031742 
-0.59254 -0.40116 -0.059672 0.030098 -0.22063 -0.068879 -0.038791 0.10935 
-0.096994 -0.37995 -0.003771 0.045553 -0.085649 -0.053917 0.026317 0.29332 
0.64386 -0.1598 0.0032988 0.051308 0.0082312 -0.03764 0.037168 0.3221 
1.0773 0.37224 0.057227 0.085177 0.099645 0.026481 0.072681 0.088958 
0.86828 0.64813 0.13286 0.1345 0.15308 0.1105 0.073504 -0.0055795 
0.47106 0.44179 0.099316 0.13023 0.11658 0.14124 0.05624 -0.14895 
0.16738 0.26702 0.0095465 0.10178 0.11937 0.21638 0.1151 -0.27801 
-0.066248 0.033387 -0.095678 0.0028056 0.10672 0.25748 0.13434 -0.19548 
-0.20912 -0.18989 -0.21932 -0.10571 0.091753 0.25206 0.091589 0.007738 
-0.22968 -0.31073 -0.23083 -0.157 0.093562 0.15735 0.054267 0.20471 
-0.073482 -0.30613 -0.16029 -0.13875 0.051472 0.046868 0.069229 0.46086 
0.14042 -0.194 -0.036489 -0.058521 0.0023123 -0.022679 0.067585 0.59387 
0.26209 -0.0075525 0.072024 0.067256 0.014643 -0.10176 0.023193 0.70189 
0.30385 0.10589 0.14552 0.14437 0.066105 -0.11426 -0.013636 0.67082 
0.27376 0.16607 0.16031 0.18514 0.11839 -0.066084 -0.01939 0.47977 
0.17906 0.2856 0.19057 0.20947 0.079422 -0.085485 -0.02235 0.023193 
-0.017253 0.33574 0.19517 0.21441 -0.018733 -0.14023 -0.058192 -0.66077 
-0.10916 0.29497 0.14108 0.18284 -0.1547 -0.23905 -0.089924 -0.9166 
-0.11656 0.15801 0.076134 0.13878 -0.19663 -0.26404 -0.070852 -0.33474 
0.012835 -0.0072237 0.015465 0.11313 -0.1598 -0.20847 -0.048327 -0.0027845 
0.20849 -0.027775 -0.0055795 0.066269 -0.090746 -0.15224 -0.02235 -0.20501 
0.34939 -0.020541 -0.034681 0.03388 0.0039565 -0.047012 0.0051074 -0.14155 
0.39954 0.047526 -0.016266 0.031578 0.081231 0.07449 0.060186 0.15144 
0.31552 0.089616 0.051965 0.06331 0.048184 0.11954 0.061337 0.33969 
0.22345 0.039141 0.025824 0.053774 -0.066906 0.05476 0.023357 0.32012 
0.079422 -0.091732 -0.11738 0.0088889 -0.15125 0.069886 0.014479 0.28905 
-0.051287 -0.13497 -0.17986 -0.076606 -0.066577 0.14601 0.039634 0.19796 
-0.11491 -0.020048 -0.093048 -0.048656 0.10902 0.19764 0.10918 0.038648 
-0.19646 0.1003 0.027303 0.028783 0.17265 0.20257 0.17676 -0.13366 
-0.36614 0.21819 0.12431 0.12464 0.10211 0.027468 0.15259 -0.1524 
-0.35183 0.18448 0.16508 0.1493 -0.088608 -0.13399 0.078765 -0.010348 
-0.42714 0.046704 0.082217 0.17034 -0.097487 -0.14615 0.0064227 0.027303 
-0.67244 -0.18594 -0.043888 0.061172 -0.16753 -0.18923 -0.085649 -0.13267 
-0.87796 -0.26996 -0.11311 -0.017746 -0.14846 -0.18167 -0.044874 -0.37995 
-0.67261 -0.22392 -0.05589 -0.0088678 0.084026 -0.10291 -0.037805 -0.37337 
0.15308 0.095699 0.099974 0.092247 0.28626 -0.012978 -0.089102 -0.076771 
0.81386 0.34446 0.23627 0.19468 0.23085 0.062159 -0.057699 0.17824 
1.1338 0.49292 0.22033 0.24121 0.1932 0.20076 0.055582 0.19616 
0.66786 0.45544 0.15341 0.2195 0.1756 0.2297 0.11198 0.14009 
0.35284 0.22937 0.062488 0.14848 0.18596 0.17758 0.065776 0.079422 
0.11494 0.011355 -0.0049219 0.076299 0.19599 0.05065 -0.0090322 -0.017417 
-0.33046 -0.26683 -0.076442 0.0024767 0.047855 -0.067564 -0.061316 -0.019555 
-0.67376 -0.44292 -0.14007 -0.076771 -0.18627 -0.080388 -0.022843 0.058049 
-0.49257 -0.42829 -0.10341 -0.072167 -0.2499 0.048019 0.013986 0.037004 
-0.070359 -0.06444 -0.0062372 0.035031 -0.066084 0.24104 0.073832 -0.091568 
0.26389 0.38852 0.14798 0.14371 0.13927 0.31585 0.10293 -0.011334 
0.27458 0.42453 0.1881 0.19353 0.072353 0.13253 0.070544 0.10688 
-0.0016336 0.20816 0.18333 0.19731 0.005765 -0.010348 -0.0024557 -0.001798 
-0.1427 0.091589 0.22624 0.23578 0.11921 0.068736 0.0044497 -0.36203 
-0.29955 0.11378 0.23874 0.2588 0.19385 0.25288 0.089945 -0.51 
-0.3908 0.14535 0.13828 0.23463 0.11888 0.29513 0.1174 -0.40954 
-0.31205 0.14946 0.051636 0.14733 0.0011614 0.10869 0.089616 -0.062631 
-0.016924 0.038812 -0.0014692 0.077449 -0.099789 -0.093376 0.011848 0.23562 
0.17445 -0.06 -0.016266 0.044238 -0.077264 -0.20057 -0.0060728 0.40365 
0.22312 -0.053095 0.039141 0.063145 0.0013258 -0.19564 -0.0016336 0.45494 
0.13812 -0.012485 0.05624 0.086328 0.096028 -0.11376 0.013821 0.33788 
0.032893 -0.0044286 0.033551 0.10441 0.13401 -0.10752 -0.0029489 0.15275 
-0.049971 -0.051287 -0.028104 0.046046 0.1031 -0.13201 -0.080552 0.12595 
-0.068879 -0.076277 -0.036654 0.023522 0.055911 -0.11097 -0.087293 0.1442 
-0.014293 -0.042408 -0.023336 0.019576 0.0037921 -0.047834 -0.062302 -0.060494 
0.047526 0.023028 -0.0057439 0.02533 -0.013143 0.0019835 -0.017911 -0.37896 
0.06594 0.048677 0.044567 0.052294 -0.053095 1.0539e-005 0.0092177 -0.51099 
0.12365 0.074983 0.051308 0.083204 -0.084334 -0.006566 -0.02235 -0.30662 
0.17708 0.14798 0.024015 0.082053 -0.052931 0.091589 0.0082312 0.019411 
0.1909 0.15045 0.01004 0.066598 0.0421 0.18613 0.018096 0.21128 
0.20421 0.1373 -0.019555 0.038483 0.09981 0.20767 0.080573 0.30204 
0.18794 0.12497 -0.023336 0.02681 0.046868 0.23644 0.14996 0.38063 
0.16426 0.14305 0.037004 0.047526 -0.0052507 0.36682 0.20767 0.35268 
0.18021 0.11411 0.10589 0.10704 0.00050378 0.51956 0.29645 0.414 
0.24597 0.10672 0.11313 0.16311 -0.0070593 0.45478 0.33788 0.39592 
0.066927 0.020069 0.09422 0.14782 0.037168 0.2588 0.18498 0.22 
-0.046683 -0.046519 0.057555 0.12431 0.10935 0.11263 0.07597 0.16163 
0.12595 -0.040106 0.044731 0.10573 0.28823 0.033058 0.0044497 0.28658 
0.378 0.033715 0.094384 0.12053 0.38671 -0.1039 -0.030406 0.36698 
0.46711 0.15176 0.14913 0.15407 0.33361 -0.15733 -0.050629 0.033715 
0.17955 0.19731 0.12562 0.18087 0.15999 -0.18857 -0.1205 -0.80808 
-0.31303 0.038648 0.031414 0.1031 -0.084827 -0.29314 -0.17854 -1.1769 
-0.53269 -0.17049 -0.081703 0.0074092 -0.22721 -0.41037 -0.20123 -0.33178 
-0.38472 -0.28574 -0.15964 -0.070359 -0.27637 -0.42204 -0.17838 0.29448 
0.042429 -0.16555 -0.10521 -0.064275 -0.20666 -0.2134 0.022535 0.19764 
0.35103 0.083204 -0.034516 -0.032379 -0.10225 -0.016924 0.1442 -0.087458 
0.56675 0.37471 -0.023994 0.016123 -0.008539 0.10902 0.17347 0.08156 
0.50575 0.47451 -0.0036066 0.032236 -0.012485 0.12414 0.10145 0.29875 
0.041114 0.15472 -0.05589 -0.0034422 -0.1016 0.049664 -0.026953 0.29349 
-0.34542 -0.19301 -0.056548 -0.011334 -0.046683 0.13467 -0.046683 0.19698 
-0.55604 -0.30794 0.07038 0.06742 0.032071 0.2389 0.065447 0.15423 
-0.65386 -0.2374 0.14913 0.13631 0.019411 0.17544 0.14469 0.050979 
-0.58432 0.05476 0.13056 0.16015 -0.060987 -0.041093 0.091096 -0.02646 
-0.2351 0.27409 0.052459 0.12727 -0.034516 -0.16851 0.046375 0.050321 
0.20914 0.23775 -0.0087034 0.063639 0.03536 -0.091568 0.013164 0.10145 
0.45692 0.074326 -0.043559 0.026317 0.049006 0.020233 0.014643 0.18728 
0.42075 -0.048656 -0.014787 0.022864 0.082217 0.06479 -0.037969 0.15555 
0.26324 -0.078908 0.017767 0.036182 0.031742 0.0080668 -0.065591 -0.023665 
0.069886 -0.13103 0.034866 0.050321 -0.08828 -0.05326 -0.037311 -0.47531 
-0.078744 -0.11903 0.0072447 0.078107 -0.12856 -0.064275 0.0024767 -0.8944 
-0.066906 -0.018897 0.03388 0.076463 -0.13119 -0.061151 0.024344 -0.59977 
0.011026 0.10211 0.049006 0.092082 -0.00015387 -0.067399 0.0088889 0.013657 
0.066763 0.12612 0.04358 0.093398 0.13615 -0.043724 0.0092177 0.35942 
-0.041586 0.10524 0.027468 0.071202 0.21457 -0.003771 0.00017495 0.37241 
-0.21258 0.0689 0.028947 0.062323 0.20734 0.027632 0.011191 0.28626 
-0.20814 -0.018404 -0.020377 0.061172 0.18448 0.005765 0.00050378 0.17462 
0.069886 -0.042573 -0.064111 0.0054362 0.06331 -0.0080457 -0.0040998 0.12546 
0.30007 0.029769 -0.070359 -0.018075 -0.047998 -0.035996 -0.028433 0.067091 
0.22328 0.080738 -0.074469 -0.033365 -0.19893 -0.14714 -0.058521 0.13894 
0.012506 0.014808 -0.11343 -0.066084 -0.25401 -0.20173 0.0034632 0.11296 
-0.094199 -0.050958 -0.14944 -0.10193 -0.121 -0.10653 0.1248 -0.093048 
-0.11985 -0.089266 -0.17673 -0.10341 -0.01676 0.0069159 0.15555 -0.27604 
-0.10801 -0.10784 -0.13284 -0.09387 -0.020706 -0.032543 0.061995 -0.063946 
-0.055397 -0.10143 -0.052766 -0.037147 -0.029091 -0.079566 -0.070194 0.15292 
-0.095185 -0.018075 0.088958 0.069722 0.090603 -0.039449 -0.15931 0.042429 
-0.03353 0.0014903 0.16229 0.159 0.3655 0.14124 -0.15964 -0.36713 
0.05772 0.056404 0.27146 0.24597 0.66786 0.30237 -0.099131 -0.12363 
0.072681 0.095206 0.31026 0.31585 0.69417 0.42469 0.024508 0.34216 
-0.086964 -0.034516 0.19287 0.27721 0.3415 0.38046 0.12102 0.378 
-0.032708 -0.03764 0.068736 0.16114 -0.03764 0.27623 0.19731 0.16229 
0.3581 0.19977 0.050321 0.11066 -0.26059 0.13121 0.23562 -0.050136 
0.61147 0.51693 0.085177 0.12529 -0.26618 -0.081045 0.13236 -0.013965 
0.59239 0.57562 0.069229 0.11115 -0.18742 -0.2522 0.01974 0.13467 
0.45281 0.30138 -0.006566 0.058542 -0.12149 -0.25746 -0.035338 0.19205 
0.27705 0.034702 -0.10719 0.014479 -0.023007 -0.14237 -0.0016336 0.14453 
-0.035174 -0.18791 -0.12314 -0.040271 0.069886 -0.053424 0.031414 0.1368 
-0.31155 -0.30974 -0.085485 -0.038956 0.11477 -0.043888 -0.011663 0.10869 
-0.2379 -0.35364 -0.043724 -0.014293 0.038812 -0.08269 -0.052437 -0.023665 
0.33443 0.038648 0.089616 0.069558 0.048841 -0.078579 -0.022021 -0.099295 
0.66424 0.42107 0.20306 0.17396 0.092082 0.0054362 0.0072447 -0.087293 
0.51298 0.41022 0.16903 0.21983 0.075476 0.062652 0.041772 0.097344 
0.17659 0.19221 0.094877 0.16574 0.05772 0.10441 0.012342 0.24055 
-0.34197 -0.037805 0.047855 0.11822 0.054596 0.10885 0.0026412 0.13746 
-0.88848 -0.21504 0.04358 0.09981 0.063803 0.12053 0.035688 -0.047176 
-0.81203 -0.33506 -0.023829 0.039963 0.064625 0.11937 0.082711 -0.0032777 
0.031249 -0.13875 -0.014951 0.025824 0.08567 0.17577 0.11115 0.10178 
0.86532 0.24417 0.035195 0.073339 0.10885 0.29217 0.13762 0.17215 
1.1142 0.5406 0.1054 0.1248 0.11576 0.37619 0.19303 0.069722 
0.72294 0.44903 0.13647 0.15489 0.064296 0.19221 0.1567 -0.16802 
0.076792 0.1442 0.10935 0.14634 0.040456 -0.0095255 0.058377 -0.27259 
-0.28262 -0.016924 0.082546 0.13072 0.021384 -0.082361 0.014972 0.016781 
-0.36006 -0.054904 0.080244 0.11543 0.021878 0.0056006 0.015137 0.31174 
-0.34378 -0.028104 0.082711 0.1179 0.036017 0.036675 0.026481 0.27442 
-0.25302 0.03092 0.084026 0.14667 -0.089266 -0.0054151 0.0070803 0.018918 
-0.12494 0.09126 0.10819 0.14881 -0.1358 -0.034188 -0.033859 -0.12511 
-0.020541 0.13384 0.16327 0.19435 0.075312 0.15308 0.038977 -0.13218 
0.027796 0.14305 0.18152 0.21885 0.19172 0.24811 0.11165 -0.064111 
0.06035 0.048019 0.11296 0.16229 0.054267 0.12792 0.11231 0.060186 
-0.0027845 -0.067235 0.01152 0.077121 -0.11327 -0.086636 0.060844 0.090603 
-0.15289 -0.18808 -0.070687 0.042594 -0.20847 -0.19005 0.035524 0.044567 
-0.33326 -0.10045 -0.036654 0.024015 -0.18989 -0.18019 0.04654 -0.10801 
-0.13958 0.08863 -0.023172 0.023028 -0.19614 -0.14714 0.026152 -0.10275 
0.33706 0.24236 -0.040106 0.010533 -0.14813 -0.16128 -0.044874 -0.11179 
0.4219 0.39312 -0.054082 0.019411 0.034373 -0.075455 -0.068057 -0.099295 
0.16919 0.29793 0.041114 0.053116 0.19533 0.045718 -0.097487 -0.024158 
-0.32405 -0.0098543 0.026646 0.093398 0.28642 0.22805 -0.061809 0.05624 
-0.55291 -0.22902 -0.029748 0.037826 0.24499 0.27096 0.052952 0.17741 
-0.31402 -0.28656 -0.024158 0.020891 0.072681 0.21194 0.12414 0.28724 
0.2195 -0.053424 0.017438 0.040621 -0.084991 0.078929 0.13039 0.36041 
0.08419 0.047197 0.10162 0.097837 -0.16342 0.047033 0.15423 0.28346 
-0.37206 -0.18528 0.15703 0.14305 -0.18117 -0.05589 0.076463 0.098494 
-0.29676 -0.27752 0.088958 0.1391 -0.14188 -0.1644 -0.0083746 -0.10998 
0.33114 0.084355 0.10704 0.15719 -0.043066 -0.22803 -0.045203 -0.38866 
0.65306 0.57809 0.16097 0.18794 -0.052109 -0.24217 -0.033201 -0.63232 
0.34331 0.64386 0.095535 0.15226 -0.11376 -0.27752 -0.031721 -0.45936 
-0.0031133 0.37274 -0.062138 0.041936 -0.15996 -0.24365 -0.044381 -0.0040998 
-0.15931 -0.023994 -0.11376 -0.03501 -0.12659 -0.11376 0.016288 0.317 
-0.15947 -0.21734 -0.061645 -0.021034 -0.062467 0.06331 0.014479 0.33311 
-0.11097 -0.23395 -0.056219 0.012835 0.0052718 0.18547 0.024344 0.22345 
-0.15043 -0.24118 -0.074633 -0.014622 0.073668 0.21276 -0.06296 0.15275 
-0.090746 -0.24217 -0.090581 -0.028762 0.22509 0.27951 -0.018239 0.20569 
0.042265 -0.13711 -0.042901 -0.0039354 0.33574 0.39526 0.058706 0.20471 
0.0041209 -0.071016 0.017438 0.021384 0.2805 0.38244 0.057391 0.034537 
-0.079237 0.098001 0.094384 0.090931 0.23808 0.34084 0.089945 -0.09798 
-0.10998 0.17774 0.080409 0.13697 0.14223 0.16097 0.11625 -0.063289 
-0.12725 0.11017 0.061172 0.10622 -0.044217 -0.1205 0.072846 -0.00015387 
-0.12626 -0.033201 -0.0050863 0.058871 -0.19482 -0.34115 -0.02646 -0.020048 
-0.078908 -0.1062 -0.017088 0.040456 -0.14846 -0.45788 -0.09239 0.024673 
0.036182 -0.069536 0.029769 0.058213 -0.086471 -0.39047 -0.098967 0.059528 
0.13582 0.016123 0.08304 0.091425 -0.10291 -0.30284 -0.017582 0.08008 
0.1544 0.073997 0.075476 0.12184 -0.26404 -0.29002 0.050979 0.16788 
0.095535 0.0227 -0.023172 0.049499 -0.48106 -0.3589 -0.022679 0.232 
0.047033 -0.02646 -0.085978 -0.0067304 -0.51691 -0.36154 -0.097487 -0.010841 
0.063639 -0.0049219 -0.091239 -0.023994 -0.19005 -0.13415 -0.15536 -0.15585 
0.027796 -0.021363 -0.012156 0.023193 0.31322 0.14683 -0.11886 -0.15273 
0.050321 0.013492 0.042429 0.066927 0.76503 0.45281 -0.064768 -0.25072 
0.072517 0.19451 0.061172 0.098659 0.92714 0.81797 0.10639 -0.15914 
0.16229 0.32769 0.061995 0.12414 0.8594 1.0095 0.23151 0.032893 
0.24334 0.26883 0.159 0.17182 0.72508 0.86006 0.28165 0.032893 
0.20569 0.14617 0.19632 0.20273 0.44196 0.50756 0.28297 -0.0067304 
0.13368 -0.025474 0.16048 0.18383 0.056898 0.18958 0.19764 0.14634 
0.18728 -0.089102 0.11806 0.1493 -0.20452 -0.066906 0.072846 0.28708 
0.2588 -0.062467 0.073175 0.11674 -0.23839 -0.24086 0.011191 0.30286 
0.41927 0.039141 0.034702 0.13927 -0.096172 -0.2351 -0.017746 0.29267 
0.31618 0.24351 0.070051 0.12957 -0.0406 -0.21291 -0.044874 0.20158 
-0.045532 0.14963 0.035195 0.097344 -0.094692 -0.11639 -0.061151 -0.022843 
-0.25647 0.024344 -0.012814 0.052787 -0.15717 -0.11985 -0.0067304 -0.12182 
-0.26733 -0.0098543 -0.058521 -0.008539 -0.17772 -0.16638 0.017603 -0.21652 
-0.35085 -0.034681 -0.043888 -0.011827 -0.12527 -0.21126 -0.016266 -0.47005 
-0.31994 -0.10571 -0.018733 0.032893 -0.035503 -0.21767 -0.033365 -0.34345 
-0.030406 -0.089431 -0.006566 0.037004 -0.0064016 -0.16835 -0.040928 0.10178 
0.24564 0.019083 0.0065871 0.047197 0.018425 -0.042079 -0.0075525 0.35925 
0.31305 0.012999 0.00066819 0.035688 0.055582 0.079422 -0.01117 0.38753 
0.18498 -0.041422 0.024673 0.052294 0.12003 0.074326 -0.038462 0.30533 
-0.0013048 -0.095843 0.09126 0.093891 0.17758 0.04506 -0.073811 0.13664 
-0.066413 -0.085485 0.14009 0.15867 0.19961 0.15078 -0.038462 -0.051615 
0.01004 -0.03205 0.15193 0.1858 0.15275 0.21474 0.011026 -0.30465 
0.15555 0.12233 0.090931 0.14979 0.087314 0.21293 0.080244 -0.38011 
0.2856 0.29776 0.0065871 0.083533 0.0046141 0.13286 0.1105 -0.14714 
0.36764 0.32029 -0.057534 0.02122 0.072517 0.043251 0.079422 0.25387 
0.36024 0.23282 -0.019555 0.014972 0.16245 0.027468 0.078765 0.42403 
0.28806 0.16919 0.045718 0.061501 0.21358 0.051965 0.059528 0.36731 
0.15834 0.14568 0.066927 0.12085 0.23101 0.13105 0.081067 0.12233 
0.00066819 0.07597 0.069229 0.1174 0.15768 0.24022 0.086328 -0.082854 
-0.16029 0.037332 0.061172 0.10211 0.022206 0.22361 0.060186 -0.14977 
-0.24184 -0.075455 0.016781 0.067585 -0.12231 0.036346 0.042594 -0.12248 
-0.4883 -0.22655 0.021878 0.053774 -0.24776 -0.20255 0.048513 -0.066084 
-0.65666 -0.30169 0.046375 0.065447 -0.32832 -0.31122 0.044238 -0.10653 
-0.31057 -0.12116 0.025824 0.09422 -0.37156 -0.25532 0.077121 -0.22096 
0.24959 0.22263 0.048348 0.093891 -0.34493 -0.12873 0.10063 -0.13744 
0.49901 0.45264 0.077614 0.11559 -0.18298 -0.093376 0.017932 -0.0022913 
0.36912 0.40989 0.1151 0.14897 0.062323 -0.022843 -0.048327 0.00033937 
0.12414 0.22789 0.13417 0.16196 0.28346 0.11477 -0.055232 0.046046 
-0.00031829 0.10392 0.076463 0.12381 0.31585 0.14437 -0.013965 0.047362 
0.004943 0.0085601 -0.035996 0.068736 0.21556 0.14535 0.015137 0.069722 
-0.010512 -0.030406 -0.039284 0.02829 0.15061 0.087479 -0.0091966 0.11461 
-0.030242 0.010204 0.035853 0.062488 0.12053 0.048677 -0.02498 0.19287 
-0.049149 0.024508 0.024179 0.061995 0.079258 0.025495 -0.010841 0.30253 
-0.2083 -0.031064 -0.069701 -0.0022913 -0.018239 -0.04323 0.0018191 0.23151 
-0.30777 -0.098638 -0.11311 -0.058685 -0.13234 -0.0868 0.037168 0.17741 
-0.048985 -0.057041 -0.076771 -0.034023 -0.20501 -0.086471 0.057227 0.16706 
0.33229 0.045389 -0.052602 -0.0019624 -0.21998 -0.10801 0.01563 0.13647 
0.35991 0.10359 0.00017495 0.031085 -0.20814 -0.14714 -0.022185 -0.12297 
0.080738 0.075641 0.00017495 0.035524 -0.19071 -0.2037 -0.018897 -0.58612 
-0.085978 -0.045203 0.010204 0.046211 -0.1552 -0.16194 -0.01676 -0.82107 
0.083533 -0.063618 0.027796 0.049006 -0.13547 -0.15832 0.0054362 -0.24891 
0.18235 0.012999 0.054103 0.073504 -0.078908 -0.084663 0.014808 0.33311 
0.01826 0.11033 0.10145 0.14042 0.014315 0.034537 0.042923 0.50131 
-0.16506 0.0080668 0.066927 0.12447 0.061501 0.12102 0.038319 0.33328 
-0.27801 -0.052602 0.019247 0.077778 0.047197 0.13121 0.042265 0.14733 
-0.2739 -0.099789 -0.044874 0.024344 0.021713 0.17791 0.058213 -0.036983 
-0.2111 -0.077264 -0.055561 0.0024767 -0.0078813 0.21128 0.061666 -0.2448 
-0.21899 -0.072003 0.015301 0.0324 0.093891 0.25271 0.064954 -0.27637 
-0.28919 -0.13399 0.00099702 0.067913 0.11247 0.14354 0.045553 -0.12708 
-0.25878 -0.17756 -0.019061 0.037004 0.057884 0.013821 0.010862 0.019905 
0.10474 0.0085601 -0.021199 0.029276 0.064132 0.069558 0.046046 0.081395 
0.60341 0.47204 0.016781 0.052787 0.09422 0.11543 0.082217 0.1368 
0.67148 0.70206 0.039305 0.066269 0.13927 0.062159 0.080244 0.057555 
0.43341 0.57003 0.0075736 0.047691 0.15555 0.02533 0.055747 0.16689 
0.18432 0.22148 -0.02087 0.048513 0.17429 -0.0039354 0.042923 0.3221 
0.035688 -0.082196 -0.015444 0.037004 0.093069 -0.020212 0.035195 0.41647 
-0.016431 -0.20025 0.029934 0.058049 -0.024487 -0.035503 0.039799 0.4505 
-0.027282 -0.20929 0.060679 0.082217 -0.10258 -0.057699 0.047033 0.41647 
-0.033037 -0.18446 0.048513 0.082053 -0.12988 -0.10176 0.051308 0.29842 
-0.19761 -0.20501 0.022535 0.059364 -0.1062 -0.076277 0.02829 0.064461 
-0.37847 -0.25795 -0.027611 0.033715 -0.031721 -0.08121 0.0095465 -0.24957 
-0.13958 -0.25713 -0.078744 0.0098754 -0.0034422 -0.10028 -0.091568 -0.46988 
0.50657 -0.02498 -0.0088678 0.028125 0.053938 -0.05178 -0.11245 -0.50704 
0.5702 0.19057 0.089945 0.09833 0.13023 0.06183 -0.052109 -0.6731 
0.14881 0.19073 0.14881 0.15851 0.21654 0.093233 0.037168 -0.39146 
-0.048985 0.097015 0.14864 0.17067 0.23052 0.12595 0.10359 0.17758 
0.012999 0.14502 0.1151 0.15604 0.24417 0.20355 0.1151 0.43669 
0.21276 0.18777 0.025166 0.12677 0.22427 0.19057 0.13401 0.47007 
0.18794 0.10458 -0.051122 0.038812 0.13384 0.094713 0.08156 0.50262 
-0.073154 -0.012814 -0.1182 -0.03616 0.031085 -0.024323 -0.023007 0.39904 
-0.3201 -0.11787 -0.13875 -0.077922 -0.13201 -0.11574 -0.074469 0.21474 
-0.14434 -0.15816 -0.079566 -0.064768 -0.23559 -0.14122 -0.033201 0.1008 
0.36896 0.16196 0.11362 0.066105 -0.12478 -0.054575 0.075641 0.024179 
0.5041 0.49177 0.23035 0.23315 -0.00031829 -0.019226 0.065118 -0.14402 
0.27425 0.52104 0.29875 0.30138 0.077449 -0.053424 -0.021199 -0.2933 
0.076792 0.33525 0.25419 0.29957 0.14174 0.01711 -0.02235 -0.29659 
-0.0036066 0.13253 0.17511 0.24564 0.16327 0.10244 0.07301 -0.18578 
-0.021199 -0.02794 0.098494 0.17478 0.12908 0.24515 0.14091 0.1784 
0.00297 -0.13382 -0.00064712 0.081067 0.099974 0.25123 0.10376 0.41368 
0.0037921 -0.21093 -0.052437 0.041114 0.01711 0.14601 0.0039565 0.39049 
-0.11064 -0.14763 -0.023665 0.033058 0.047526 -0.037311 -0.016431 0.094713 
-0.1935 0.0021479 0.0093821 0.048348 0.13302 -0.12182 0.013821 -0.10653 
0.053609 0.15176 0.018589 0.057555 0.20602 -0.11459 0.023851 -0.056712 
0.2463 0.32555 0.061337 0.079916 0.1562 0.0044497 0.049499 0.077778 
0.12858 0.18761 0.053609 0.060679 -0.056877 -0.061316 -0.0031133 -0.060329 
0.00083261 -0.15273 -0.018239 0.036182 -0.26502 -0.16835 -0.061973 -0.28179 
-0.062302 -0.35463 -0.022021 0.04506 -0.29988 -0.18035 -0.054575 -0.29676 
0.0036276 -0.31369 0.023357 0.064625 -0.15816 -0.088115 0.0064227 -0.032215 
0.3198 0.048677 0.051801 0.08978 -0.022021 0.031578 0.087479 0.39559 
0.43456 0.42321 0.099316 0.12349 0.047033 0.029605 0.11658 0.44968 
0.25156 0.33689 0.16442 0.16722 0.0051074 -0.12527 0.056569 0.19681 
-0.12314 -0.0034422 0.14305 0.17429 0.023357 -0.14763 -0.028597 -0.067892 
-0.52546 -0.10604 0.039141 0.14634 -0.0057439 -0.028762 -0.060329 -0.069372 
-0.81515 -0.027775 -0.047998 0.052459 0.019576 0.15028 -0.089759 -0.1108 
-0.47169 0.089123 -0.059343 0.017274 0.18826 0.35005 0.0026412 -0.1769 
0.34479 0.3244 0.11362 0.11526 0.4117 0.35679 0.087808 -0.13547 
0.39526 0.47993 0.21326 0.19616 0.40233 0.16475 0.037826 0.011191 
-0.21126 0.24334 0.19139 0.1978 0.26307 -0.010183 -0.037969 0.061337 
-0.60898 -0.03764 0.091425 0.17232 0.21178 0.10984 -0.0077169 -0.17295 
-0.51559 -0.061809 0.049335 0.1179 0.21769 0.3096 0.065118 -0.70516 
-0.20962 -0.046354 0.02122 0.082382 0.084355 0.35514 0.069558 -0.79838 
0.11296 -0.03057 0.02829 0.069064 -0.064768 0.20668 0.049006 0.077285 
0.35728 -0.041093 0.054596 0.077778 -0.18101 0.039634 0.068407 0.78361 
0.37635 -0.096007 0.072517 0.084684 -0.27456 -0.12281 0.06742 0.81435 
0.16656 -0.13481 0.015465 0.086328 -0.21291 -0.11113 0.09126 0.45856 
-0.026953 0.031249 0.048841 0.10195 -0.051944 0.066434 0.147 0.043745 
-0.072003 0.19155 0.10474 0.13532 -0.016431 0.15686 0.16212 -0.19219 
-0.064275 0.17001 0.087972 0.13105 -0.041422 0.10326 0.11444 -0.12001 
0.055911 0.035524 0.020398 0.087314 -0.027118 0.035853 0.081889 0.020891 
0.087643 -0.12363 -0.1039 -0.01676 -0.018733 -0.059178 0.028454 0.12069 
0.12858 -0.13349 -0.15536 -0.074798 0.049335 -0.14254 -0.077264 0.0786 
0.095864 0.004943 -0.12215 -0.041586 0.15127 -0.15273 -0.14434 -0.037147 
0.038319 0.1544 -0.015773 0.0062583 0.14683 -0.042079 -0.10209 -0.077922 
-0.047998 0.17741 0.083862 0.079916 0.1031 0.078929 0.03536 -0.0029489 
-0.054246 0.13319 0.11658 0.12809 0.13302 0.16262 0.098166 0.062652 
-0.036489 0.026481 0.12628 0.14124 0.069886 0.13499 0.060679 0.028125 
-0.084169 0.0083956 0.12677 0.14387 -0.0096899 0.11921 0.040785 -0.13744 
-0.35266 -0.04323 0.052459 0.13582 -0.13941 0.08304 0.084355 -0.39951 
-0.59171 -0.14698 -0.041257 0.050979 -0.20025 0.095206 0.11905 -0.39129 
-0.45673 -0.20386 -0.086471 -0.00097594 -0.12001 0.15357 0.052952 -0.1912 
0.22526 -0.038627 -0.068221 -0.0090322 0.015301 0.18547 0.066927 0.10474 
0.49983 0.27179 0.048184 0.01974 0.021384 0.14486 0.044567 0.26291 
0.13615 0.18744 0.051801 0.044896 0.038483 -0.057863 -0.0040998 0.25617 
-0.047834 -0.077922 -0.025309 0.048841 0.1225 -0.16786 -0.046847 0.1978 
0.16508 -0.091897 -0.026296 0.029934 0.17265 -0.13284 -0.036983 0.17626 
0.45494 0.09833 -0.010183 0.031578 0.1105 -0.11113 0.0062583 0.2006 
0.42223 0.26044 0.014479 0.051472 -0.046683 -0.080223 0.047362 0.14683 
0.21753 0.26768 -0.0014692 0.035853 -0.11031 -0.025638 0.10293 0.054432 
0.00099702 0.15867 0.01711 0.033715 -0.15273 -0.011827 -0.006566 0.051636 
-0.075949 -0.0073881 0.040128 0.0786 -0.13136 -0.0057439 -0.081374 0.12398 
0.11937 -0.058521 0.10967 0.13039 -0.050464 0.11855 -0.042573 0.17922 
0.30105 0.02122 0.17429 0.18662 0.024015 0.16262 0.094713 0.14141 
0.088301 0.067256 0.16015 0.18958 -0.0096899 0.15193 0.15341 -0.094363 
-0.30185 0.0075736 0.1003 0.15472 -0.069372 0.10524 0.12201 -0.19712 
-0.43289 -0.087458 0.047691 0.10918 -0.023829 0.017603 0.050979 -0.16966 
-0.038298 -0.10834 0.01974 0.086657 0.08419 -0.011827 0.014315 -0.035832 
0.60538 0.10096 0.028619 0.10589 0.18054 0.069064 0.055254 0.031578 
0.59881 0.2856 -0.017911 0.058871 0.14749 0.051636 0.051308 0.02681 
0.40825 0.16755 -0.12757 -0.036983 0.013164 -0.09946 -0.021199 -0.018568 
0.52153 -0.032708 -0.19959 -0.11442 -0.034188 -0.23066 -0.095843 0.20931 
0.79331 0.03536 -0.091239 -0.078744 0.014972 -0.23444 -0.060658 0.48158 
0.53271 0.17807 0.049828 0.018754 0.040785 -0.16818 -0.062631 0.33278 
-0.07414 0.19698 0.071037 0.099974 -0.0034422 -0.094034 -0.069536 0.043416 
-0.50227 0.071037 0.10491 0.12842 0.0075736 -0.043395 -0.036325 -0.052437 
-0.64054 -0.1427 0.14881 0.16837 0.040456 0.010697 0.0087245 -0.022185 
-0.69842 -0.3788 0.076627 0.13023 -0.015938 1.0539e-005 0.055747 -0.12198 
-0.68559 -0.43914 -0.012814 0.056076 -0.053917 -0.04471 0.027796 -0.37831 
-0.27259 -0.1649 -0.062138 -0.00081153 -0.05589 -0.06707 0.0019835 -0.37518 
0.76963 0.32358 -0.045368 0.0075736 -0.04323 -0.058521 0.0036276 0.27376 
1.5123 0.68545 0.021878 0.047855 0.0036276 0.04917 0.058213 0.84954 
1.2381 0.64139 0.082382 0.1003 0.056733 0.073997 0.062817 0.85875 
0.44557 0.31092 0.11757 0.13368 0.043745 0.0039565 0.0046141 0.52745 
-0.12001 -0.023007 0.11987 0.14585 0.072353 -0.018733 -0.050629 0.21786 
-0.18512 -0.13333 0.058706 0.10836 0.067091 -0.0040998 -0.054739 0.025166 
0.051472 -0.035174 -0.0064016 0.066927 0.059857 0.05065 0.013492 -0.13875 
0.083533 0.038648 -0.053588 0.02829 0.03092 0.0016547 -0.0026201 -0.53581 
-0.10225 -0.14139 -0.053917 0.00017495 -0.034681 -0.12511 -0.039449 -0.84096 
-0.18841 -0.30876 -0.028433 0.0074092 0.01004 -0.13448 -0.066248 -0.45969 
-0.20386 -0.32339 -0.006566 0.025824 0.045389 -0.05178 -0.0034422 -0.13136 
-0.32849 -0.18249 0.045224 0.054596 0.041114 -0.00015387 0.0074092 -0.00015387 
-0.37715 -0.10225 0.071531 0.084519 0.097344 0.075476 0.0059294 -0.0027845 
-0.30054 -0.010512 0.068736 0.14075 0.19468 0.10902 -0.015444 0.073668 
-0.30103 0.049006 0.089616 0.13351 0.13582 0.037168 -0.019719 -0.14171 
-0.39244 0.08008 0.048184 0.099316 0.06479 -0.031392 0.010369 -0.28327 
-0.32421 0.16886 0.055089 0.095206 0.037004 -0.014787 0.01152 -0.06 
-0.21784 0.12957 0.029605 0.065118 0.018589 0.0044497 -0.0027845 0.2583 
-0.13234 -0.03205 -0.050464 0.011191 0.070215 0.083533 0.020398 0.29037 
-0.030735 -0.14862 -0.14451 -0.035832 -0.038462 0.063639 0.11296 0.25008 
0.1276 -0.15733 -0.17164 -0.10176 -0.37518 -0.14056 0.13565 0.16788 
0.095699 -0.12889 -0.18479 -0.13448 -0.67409 -0.34542 0.060679 0.0039565 
-0.053917 -0.088444 -0.12527 -0.094692 -0.54305 -0.34575 -0.078086 -0.064111 
-0.11853 -0.063782 -0.052602 -0.03205 -0.061316 -0.25565 -0.1746 -0.058521 
-0.064111 -0.12527 0.050979 0.041607 0.27655 -0.030735 -0.15832 -0.15487 
0.082217 -0.080388 0.10918 0.1299 0.42239 0.17922 -0.073318 -0.41102 
0.0421 0.37915 0.25008 0.24417 0.64912 0.50394 0.097179 -0.45065 
-0.057041 0.66868 0.24301 0.27212 0.77769 0.76569 0.19747 -0.17443 
0.18136 0.56362 0.15193 0.20849 0.61591 0.78427 0.17034 0.24762 
0.31503 0.26373 0.10392 0.15555 0.3484 0.61311 0.19829 0.39888 
0.20405 0.0016547 0.057227 0.096686 0.10228 0.34018 0.18432 0.2731 
-0.11475 -0.0965 0.0083956 0.070544 -0.064933 0.043745 0.15489 0.0018191 
-0.32832 -0.072496 -0.041586 0.039141 -0.19022 -0.24135 0.034209 -0.21965 
-0.11771 0.0088889 -0.064933 0.0021479 -0.1473 -0.3104 -0.044052 -0.095843 
-0.0011404 0.019247 -0.059343 -0.0070593 -0.077922 -0.30613 -0.079895 0.065612 
-0.19433 -0.17427 -0.053588 -0.0068948 -0.097487 -0.27916 -0.095185 0.08156 
-0.42516 -0.39836 -0.021856 0.00066819 -0.11261 -0.2397 -0.092883 0.029441 
-0.52036 -0.50293 0.012342 0.029934 -0.17493 -0.10801 -0.052602 0.010369 
-0.48649 -0.48928 -0.072989 0.023686 -0.16654 -0.043724 0.0075736 -0.091075 
-0.25697 -0.1741 -0.048985 0.0074092 -0.089266 0.013821 0.031414 -0.20584 
0.15489 0.42732 0.057062 0.071695 0.0075736 0.10606 0.076792 -0.1815 
0.48322 0.82077 0.16031 0.1567 0.11132 0.24515 0.12908 -0.029091 
0.50706 0.66539 0.15127 0.17133 0.12661 0.28675 0.13993 0.14058 
0.39296 0.35136 0.085506 0.13269 0.15999 0.28954 0.13072 0.29596 
0.34775 0.1853 -0.032215 0.085506 0.15045 0.13647 0.091096 0.47484 
0.35202 0.16722 -0.01117 0.052294 0.11099 -0.01939 0.025988 0.53501 
0.30862 0.13795 0.022535 0.061008 0.057062 -0.078086 0.0054362 0.40332 
0.23479 0.14256 0.072517 0.09422 0.079751 -0.08121 -0.0073881 0.25814 
0.22213 0.24877 0.12595 0.13647 0.088136 -0.09091 -0.006566 0.23775 
0.23068 0.31486 0.16327 0.16722 0.12316 0.013328 0.012506 0.18695 
0.14091 0.23233 0.10836 0.17824 0.1008 0.067913 0.026974 0.095206 
0.09126 0.10589 0.070544 0.13615 0.034702 0.075641 0.076956 -0.17016 
-0.0027845 0.019083 0.062159 0.11411 -0.045368 0.032236 0.10277 -0.39179 
-0.055068 -0.0021268 0.09833 0.1322 -0.07414 0.14716 0.13779 -0.29774 
-0.11985 0.034209 0.15226 0.17067 0.049006 0.39362 0.17445 0.093562 
-0.14533 0.0064227 0.15719 0.17297 0.17412 0.49523 0.14437 0.34462 
-0.10291 -0.072825 0.08863 0.15522 0.25617 0.34758 0.046211 -0.04882 
0.099645 -0.092061 0.016781 0.11395 0.31585 0.25896 -0.0024557 -0.54782 
0.35005 0.15818 0.0421 0.098494 0.2394 0.2389 0.061337 -0.0027845 
0.39411 0.27836 0.060186 0.093562 0.058049 0.11329 0.13828 0.70107 
0.24071 0.21572 0.074161 0.098494 -0.15092 -0.038956 0.15209 0.75516 
-0.049478 0.1368 0.11411 0.12299 -0.24102 -0.17509 0.11346 0.35465 
-0.13168 -0.0057439 0.11017 0.13154 -0.25861 -0.31681 0.010204 0.013821 
0.22526 -0.095185 -0.017253 0.092411 -0.19087 -0.39113 -0.086142 0.12562 
0.54093 -0.12297 -0.098309 0.0028056 -0.10489 -0.32602 -0.12297 0.30204 
0.36041 -0.14961 -0.12955 -0.048656 -0.038627 -0.25746 -0.12182 0.30549 
0.079258 0.0065871 -0.10982 -0.061316 0.00066819 -0.15191 -0.045368 0.10359 
0.059693 0.11214 -0.047834 -0.031886 -0.0088678 -0.069372 -0.0039354 -0.13793 
0.25863 0.20487 0.042429 0.045882 -0.001798 -0.015938 0.016945 -0.096665 
0.47648 0.30138 0.081889 0.11839 -0.051287 0.042758 0.047691 0.013164 
0.13088 0.15933 0.038483 0.092082 -0.081703 0.05213 0.088958 -0.52743 
-0.45821 -0.21619 -0.013471 0.050486 -0.063782 0.034373 0.072517 -1.0511 
-0.71618 -0.437 -0.02942 0.025166 -0.039942 0.0689 0.079587 -0.56163 
-0.58727 -0.43634 -0.021199 0.016616 -0.010183 0.07449 0.098001 0.095371 
-0.078908 -0.14829 0.082546 0.079422 0.016452 0.072517 0.11526 0.36534 
0.29004 0.22641 0.1373 0.16245 0.012506 0.083697 0.11296 0.40003 
0.17363 0.28494 0.13812 0.17199 0.0046141 0.04095 0.049992 0.32062 
-0.23198 0.046375 0.11231 0.15883 -0.032543 -0.010348 -0.023172 0.10145 
-0.45657 -0.15388 0.058377 0.11888 -0.085978 -0.054904 -0.094692 -0.05441 
-0.093705 -0.13382 0.019576 0.081889 -0.065919 -0.062138 -0.098802 -0.078908 
0.47698 0.14848 0.065612 0.091753 0.031907 0.00083261 -0.011334 0.097672 
0.54077 0.24252 0.095535 0.13187 0.12464 0.052623 0.076792 0.11428 
0.18202 0.0026412 0.037332 0.11428 0.034209 -0.028104 0.054925 -0.037476 
-0.20222 -0.10719 -0.035996 0.0421 -0.056219 -0.089102 0.023193 -0.28837 
-0.34427 -0.024816 -0.075455 -0.0049219 -0.0406 -0.090253 0.041936 -0.2425 
-0.27374 -0.046354 -0.11146 -0.045861 -0.020706 -0.076935 0.032893 -0.058028 
-0.13053 -0.15059 -0.10373 -0.066577 0.016781 -0.096994 -0.0011404 0.081067 
-0.041422 -0.20649 -0.032872 -0.024652 0.069393 -0.11755 -0.070359 0.079258 
-0.03501 -0.11804 0.028947 0.069886 0.13532 -0.026789 -0.047341 0.050814 
-0.035832 -0.0049219 0.045224 0.077943 0.031578 -0.09091 -0.055726 0.018425 
-0.021692 -0.037476 0.017438 0.061666 -0.10916 -0.072989 -0.026953 0.049992 
0.090767 -0.067892 0.030427 0.067913 -0.13612 -0.070523 -0.021692 0.14864 
0.2343 0.014808 0.053938 0.075148 0.0042853 0.022206 0.085506 0.14979 
0.16459 0.075641 0.0421 0.069393 0.049828 -0.0098543 0.081067 -0.03057 
-0.11804 0.16969 -0.030406 0.066763 -0.024487 -0.03205 0.085012 -0.24266 
-0.23543 0.1299 -0.027118 0.035031 -0.053753 0.051308 0.058542 -0.23592 
-0.052273 0.029112 -0.02235 0.031414 0.075805 0.24252 0.075476 -0.055397 
0.38326 0.076134 0.037168 0.057391 0.22082 0.31733 0.072681 0.17906 
0.52285 0.20438 0.094548 0.10606 0.33607 0.26291 0.073997 0.14667 
0.32193 0.23019 0.15851 0.14075 0.31305 0.24252 0.095699 0.11987 
0.028947 0.082546 0.10211 0.14585 0.1636 0.17478 0.12973 0.23545 
-0.11607 -0.096829 0.062652 0.12151 0.083862 0.059693 0.078272 0.30385 
-0.23477 -0.14878 0.0052718 0.073339 0.062981 -0.032379 -0.0072237 0.20372 
-0.2106 -0.14533 -0.027775 0.034702 0.095864 -0.10669 -0.059836 -0.080552 
-0.034023 -0.039613 -0.025638 0.02681 0.16738 -0.096665 -0.090746 -0.45278 
0.20125 0.026646 1.0539e-005 0.024179 0.16903 -0.12083 -0.11475 -0.48238 
0.20323 0.058377 0.020398 0.049828 0.090767 -0.080388 -0.099295 -0.15585 
-0.0083746 0.12069 0.017603 0.081395 0.03651 -0.0055795 -0.012649 0.0014903 
-0.2568 0.20684 0.00033937 0.059035 -0.022679 0.053609 -0.020048 0.12283 
-0.28015 0.23167 -0.003771 0.044402 -0.10373 0.01004 -0.025145 0.2468 
-0.034188 0.13203 0.013164 0.052952 -0.12231 -0.03501 0.0044497 0.27984 
0.29185 0.12858 0.04654 0.070051 -0.048985 -0.0004827 0.056076 0.24532 
0.45264 0.18169 0.050486 0.083697 -0.030242 -0.012978 0.065776 0.23233 
0.34018 0.15851 -0.00031829 0.083697 -0.049149 -0.068714 0.075312 0.13023 
0.065776 0.059693 -0.0096899 0.052294 -0.074962 -0.13859 0.076956 -0.062467 
-0.23576 -0.0044286 0.0016547 0.049499 -0.020541 -0.19498 0.0092177 -0.19252 
-0.35677 0.0087245 0.029769 0.065118 0.036017 -0.17542 -0.040928 -0.16259 
-0.22441 0.0031344 0.030427 0.06331 0.051636 -0.053588 -0.089759 0.0069159 
0.036182 -0.033201 0.03799 0.063968 0.086163 0.17758 -0.075784 0.27557 
0.23068 0.026317 0.049992 0.10787 0.19418 0.35251 -0.044052 0.36567 
0.32325 0.11099 0.1202 0.15094 0.33065 0.55162 0.012835 0.25485 
0.28214 0.1465 0.12891 0.16262 0.38457 0.66802 0.13072 0.040456 
0.11757 0.16229 0.079422 0.12875 0.2588 0.62281 0.21852 -0.046519 
0.014479 0.15275 0.057555 0.099974 0.070215 0.52318 0.29152 0.090931 
-0.069865 0.13105 0.046046 0.076792 -0.062796 0.33065 0.26242 -0.18035 
-0.28245 0.017274 -0.0054151 0.065776 -0.13382 0.033387 0.11806 -0.8921 
-0.39442 -0.069536 -0.060658 0.015301 -0.1062 -0.206 -0.041093 -0.85724 
-0.31961 -0.08532 -0.092226 -0.022185 -0.0503 -0.40954 -0.17443 -0.10472 
-0.19186 -0.092226 -0.06444 -0.020377 0.027139 -0.43141 -0.18528 0.45577 
-0.1524 -0.056877 0.0072447 0.025166 0.085341 -0.32158 -0.12889 0.66687 
-0.2032 -0.024652 0.079587 0.078929 0.10014 -0.12725 0.064625 0.55211 
-0.10801 0.010204 0.066269 0.10441 -0.046683 -0.145 0.10343 0.30977 
0.022042 -0.00081153 0.029276 0.096357 -0.16407 -0.1769 0.066598 0.047691 
0.10754 -0.050136 0.036839 0.086657 -0.17657 -0.15026 -0.035667 -0.16046 
-0.093376 -0.055232 -0.0047575 0.048184 -0.28031 -0.10028 -0.16144 -0.37831 
-0.2448 0.031578 0.025988 0.061337 -0.29889 -0.01939 -0.1575 -0.47301 
-0.13711 0.089287 0.086657 0.09685 -0.17345 0.13976 -0.066741 -0.30087 
-0.082196 0.035195 0.11559 0.14568 0.13861 0.24795 0.066763 0.019247 
-0.4564 -0.24677 0.11987 0.18892 0.35186 0.28247 0.14996 0.24663 
-0.74445 -0.51822 0.04654 0.12464 0.36583 0.31437 0.1835 0.073504 
0.36961 0.023851 0.037332 0.094055 0.25814 0.34298 0.19994 -0.086636 
1.5731 1.0703 0.13516 0.14124 0.17741 0.34972 0.20684 0.056569 
1.7798 1.5222 0.1442 0.15604 0.10606 0.24203 0.16114 0.4025 
1.0174 0.90725 0.033222 0.093891 0.019576 0.036017 0.055911 0.50493 
0.077285 0.016123 -0.04323 0.051308 -0.063782 -0.14961 -0.03501 0.34923 
-0.43388 -0.46873 -0.050464 0.012835 -0.14254 -0.26568 -0.08828 0.20471 
-0.54486 -0.54765 -0.020377 0.017603 -0.17016 -0.35315 -0.11475 0.066105 
-0.48041 -0.4051 0.024508 0.049006 -0.14056 -0.38044 -0.13103 -0.0036066 
-0.38554 -0.23757 0.062652 0.076956 -0.12133 -0.33622 -0.097651 -0.06707 
-0.21636 -0.10127 0.094877 0.10343 -0.09387 -0.24036 -0.034188 -0.1159 
-0.070359 -0.076277 0.081724 0.13319 -0.14122 -0.12478 0.045389 -0.15454 
0.10228 -0.038462 0.03092 0.09981 -0.12774 -0.0059084 0.060844 -0.081045 
0.24071 0.088136 0.025824 0.083697 -0.10719 0.041772 0.067585 0.10178 
0.14831 0.11987 0.037004 0.083204 -0.097651 -0.071838 0.096521 0.24417 
0.00297 0.058049 0.039963 0.081067 -0.05737 -0.14961 0.08715 0.22493 
-0.12955 -0.014458 0.055089 0.085341 0.0786 0.11494 0.10096 0.081889 
-0.035503 0.00066819 0.07597 0.11839 0.30648 0.53518 0.20619 0.058871 
0.49095 0.10326 0.06183 0.13549 0.35103 0.69713 0.27475 0.19747 
0.76075 0.2463 0.088794 0.12644 0.1562 0.41647 0.19369 0.14486 
0.52466 0.2856 0.10392 0.12908 -0.081045 -0.0016336 0.0016547 -0.10341 
0.05476 0.12464 0.059857 0.10162 -0.3058 -0.39935 -0.16703 -0.30498 
-0.33095 -0.15848 0.0036276 0.051801 -0.27472 -0.4684 -0.19959 -0.37913 
-0.43223 -0.19285 0.0065871 0.052952 -0.067235 -0.1695 -0.094692 -0.30596 
-0.059014 0.12727 -0.0075525 0.081889 0.19665 0.23611 0.052787 -0.2448 
0.44837 0.47846 0.0075736 0.073339 0.45774 0.42584 0.13615 -0.029913 
0.68989 0.53748 0.027139 0.075312 0.51907 0.38474 0.11477 0.2999 
0.75007 0.38655 0.037168 0.074654 0.43439 0.22871 0.093726 0.57003 
0.50969 0.15176 0.016945 0.049499 0.35301 0.14634 0.028619 0.52614 
0.11839 -0.058685 -0.011334 0.025001 0.18202 0.094548 0.026974 0.27902 
-0.067728 -0.12823 -0.021199 0.053445 0.0021479 0.016123 0.049335 0.080902 
-0.14204 -0.10719 -0.02498 0.03092 -0.10637 -0.1136 0.027139 0.050979 
-0.22474 -0.13234 -0.0050863 0.034209 -0.18528 -0.23411 0.0074092 0.030427 
-0.18939 -0.1552 -0.0050863 0.02681 -0.2282 -0.29215 -0.051615 0.01415 
-0.14434 -0.15026 0.032071 0.050979 -0.19959 -0.21389 -0.070523 0.030098 
-0.037969 -0.052109 0.078929 0.077943 -0.14171 -0.1085 -0.068386 0.031907 
0.042429 -0.026624 0.079094 0.11937 -0.066741 -0.01528 -0.0078813 0.046375 
0.039141 0.025988 0.027961 0.093726 -0.0070593 0.051801 0.01974 -0.083183 
-0.018897 0.083862 0.066763 0.10639 0.039799 0.12332 0.060186 0.063145 
0.021384 0.14963 0.070873 0.11214 0.061501 0.1544 0.098988 0.1026 
0.11428 0.13812 0.024837 0.08156 0.0324 0.13993 0.077943 0.11526 
0.11329 0.086492 -0.0021268 0.03947 0.03092 0.07597 0.069722 0.03092 
0.05065 0.059693 -0.086636 -0.011992 0.051801 0.046868 0.017438 -0.17443 
-0.017253 0.03799 -0.13514 -0.037476 0.033551 0.040128 -0.008539 -0.52644 
-0.069701 0.038648 -0.076771 -0.033037 0.028125 0.048019 -0.0068948 -0.60437 
-0.044381 0.045389 0.037004 0.038483 0.076299 0.0060938 -0.024652 -0.27818 
0.0018191 0.066598 0.098166 0.095699 0.16706 0.046046 -0.012649 0.080902 
0.014972 0.051965 0.14387 0.14338 0.22115 0.098659 -0.051287 0.27672 
-0.011498 0.03536 0.12661 0.14667 0.17889 0.15028 -0.035832 0.34643 
-0.099295 0.062159 0.052952 0.14305 0.13861 0.16853 0.037004 0.40069 
-0.33178 -0.021199 0.014972 0.092576 0.047197 0.14996 0.094713 0.27754 
-0.58547 -0.10373 0.03947 0.085835 -0.032708 0.088794 0.072024 0.18087 
-0.64646 -0.1723 0.057391 0.096686 -0.045039 0.053938 0.054103 0.15505 
-0.029255 -0.13234 0.020727 0.069886 -0.045039 -0.020541 0.047855 0.069393 
0.60555 0.080409 0.014972 0.053609 -0.076442 -0.085649 0.037168 -0.095349 
0.58434 0.26801 -0.046519 0.022864 -0.057863 -0.15059 0.020069 -0.25204 
