0.20569 0.17199 0.032071 0.093562 0.023357 0.0592 0.061666 0.16952 
0.16821 0.12464 0.030427 0.082382 0.046375 0.03536 0.03947 0.14009 
0.11872 0.089616 -0.0070593 0.053938 0.08863 0.023193 0.029112 0.13812 
0.076299 0.037826 0.0051074 0.044567 0.052294 0.032893 0.0075736 0.099152 
0.092082 0.017438 0.013986 0.045553 0.058706 0.047197 0.027961 0.10376 
0.19057 -0.021363 -0.015444 0.048019 0.081395 0.036017 0.029276 0.11017 
0.21523 -0.027282 -0.023994 0.031085 0.041936 0.023851 0.010862 -0.033201 
-0.029255 0.030098 -0.029913 0.021056 0.025001 0.033058 0.0093821 -0.23477 
-0.19416 -0.014951 -0.020377 0.017767 0.016123 0.0090533 0.027139 -0.19975 
-0.16966 -0.12609 -0.014951 0.020398 -0.022185 -0.0078813 0.00297 -0.049642 
-0.012978 -0.18545 1.0539e-005 0.021384 0.0019835 -0.014129 -0.012978 0.085506 
-0.030077 -0.17789 -0.0068948 0.036839 0.031249 0.041936 -0.011334 0.052623 
-0.060823 -0.078415 -0.036325 0.035031 0.02681 0.018096 -0.00064712 -0.031721 
-0.0016336 0.076463 -0.0026201 0.041114 0.036017 0.0087245 0.043087 -0.096336 
0.048841 0.18826 0.021056 0.054925 0.01004 -0.0014692 0.020562 -0.10209 
0.04917 0.22394 0.063145 0.084355 -0.0026201 0.029441 0.014972 -0.011827 
0.005765 0.17232 0.1077 0.12085 0.0046141 0.02533 0.017603 0.083862 
-0.018733 0.10392 0.14996 0.1641 0.029934 0.013657 0.03799 0.13713 
0.069558 0.13434 0.14157 0.19303 0.052952 0.014643 0.041278 0.072681 
0.16985 0.19566 0.12349 0.17741 0.045224 0.058377 0.036346 0.0024767 
0.2223 0.21112 0.0689 0.13582 0.047855 0.057555 0.043416 -0.018239 
0.19139 0.14601 0.059528 0.11313 0.048348 0.024179 0.020233 0.030263 
0.1368 0.090931 0.13171 0.14765 0.033222 0.027303 0.032893 0.079094 
0.086821 0.05476 0.18991 0.18826 0.043416 0.030427 -0.0044286 0.051308 
0.031249 -0.046519 0.1271 0.20306 0.01974 0.042594 -0.0034422 0.0324 
-0.021034 -0.16144 0.084026 0.15193 0.020398 0.0060938 0.01415 0.039799 
-0.018733 -0.23461 0.037004 0.10902 0.0085601 0.020069 0.03388 0.074654 
-0.077428 -0.2111 0.015465 0.074161 -0.0014692 0.0080668 0.024837 0.068407 
-0.16046 -0.15931 0.019247 0.058049 0.024179 0.018425 0.00297 0.034537 
-0.15207 -0.0078813 -0.018239 0.026974 0.017438 0.028125 -0.0011404 -0.027447 
0.015301 0.23298 -0.080388 -0.0036066 -0.0068948 0.0090533 -0.0013048 -0.039449 
0.20865 0.3295 -0.1672 -0.073482 0.0088889 0.030263 0.031907 0.027139 
0.25896 0.25551 -0.16194 -0.097651 0.023193 0.025988 0.033058 0.0324 
0.20734 0.13828 -0.10472 -0.0771 0.056404 0.033058 0.031414 -0.019555 
0.13795 0.070873 -0.032379 -0.027282 0.06035 0.042758 0.037497 -0.034681 
0.05772 0.015465 0.012342 0.0044497 0.045224 0.050979 0.02533 -0.003771 
0.007738 -0.062138 -0.051944 0.00033937 0.0051074 0.029276 0.047362 0.053609 
0.048019 -0.10045 -0.077428 -0.013471 -0.023665 -0.0098543 0.025824 0.094055 
0.033058 -0.11212 -0.029255 0.0059294 -0.021199 -0.033694 0.0028056 0.082875 
-0.021528 -0.059507 0.032236 0.050814 -0.0047575 -0.00097594 -0.0036066 0.089452 
-0.088937 0.043416 0.11526 0.11083 0.014315 0.018096 0.046046 0.058706 
-0.15437 0.091918 0.17363 0.16558 0.0059294 0.013328 0.034702 0.058049 
-0.10768 0.15226 0.15571 0.18251 0.0095465 0.025001 0.051143 0.055911 
-0.0032777 0.14026 0.089287 0.17528 0.03651 0.043745 0.030263 0.036017 
0.0014903 0.0786 0.019576 0.10441 0.017932 0.0083956 0.011684 -0.044052 
-0.1016 -0.02235 -0.027118 0.050486 0.043087 0.014972 0.027303 -0.08828 
-0.2328 -0.12725 -0.053588 0.01267 0.034866 0.032564 0.010697 -0.15092 
-0.27489 -0.16638 -0.053753 -0.0096899 0.044731 0.023028 0.012506 -0.084991 
-0.16703 -0.16654 -0.011005 0.0051074 0.051143 0.043087 0.033551 0.044238 
-0.067728 -0.28097 -0.092554 -0.006566 0.043416 0.048513 0.041114 0.14815 
-0.14369 -0.43947 -0.13826 -0.061151 0.041443 0.039305 0.052787 0.077285 
-0.21702 -0.47975 -0.18331 -0.11294 0.0092177 0.027961 0.030756 -0.16638 
-0.12297 -0.25467 -0.15043 -0.10932 0.031578 0.036017 0.02829 -0.34329 
0.17199 0.11921 -0.086307 -0.073647 0.027139 0.038483 0.021056 -0.18019 
0.47221 0.44311 -0.023994 -0.031064 0.004943 0.026481 0.063145 0.011026 
0.46316 0.50164 -0.024323 0.015465 0.0037921 0.023193 0.041607 0.16706 
0.16212 0.29661 0.011191 0.038483 -0.0060728 -0.0050863 0.025659 0.30401 
-0.053588 0.08419 0.086492 0.09274 -0.0027845 -0.012814 0.0042853 0.33081 
-0.041586 0.034044 0.14042 0.15111 0.024673 0.020891 0.0031344 0.18777 
0.32687 0.24647 0.16475 0.18037 0.061172 0.045718 0.046375 0.05213 
0.59355 0.45626 0.18498 0.19484 0.061501 0.043745 0.041443 0.071202 
0.34988 0.39428 0.15111 0.20438 0.068407 0.038812 0.02829 0.068736 
-0.0029489 0.22345 0.1225 0.1853 0.0421 0.031907 0.035031 0.025495 
-0.12988 0.12168 0.11576 0.16837 0.044073 0.015794 0.040456 -0.039613 
-0.19071 0.062488 0.12381 0.16755 0.055418 0.029112 0.023357 -0.034023 
-0.28804 -0.11639 0.099481 0.14963 0.034537 0.0039565 0.0079024 -0.067399 
-0.39573 -0.31961 0.094384 0.13335 0.037497 0.048348 -0.0054151 -0.077593 
-0.26782 -0.30103 0.079094 0.12529 0.034537 0.0067515 0.020727 0.0046141 
0.035853 -0.051122 0.0689 0.14601 0.027961 0.019905 0.071037 0.070708 
0.2514 0.1202 0.034537 0.10392 0.029276 0.032729 0.040456 0.1128 
0.28379 0.14634 -0.032872 0.044731 0.02829 0.040456 0.046211 0.11954 
0.1761 -0.020706 -0.048656 0.013821 0.071366 0.036182 0.020891 0.079587 
-0.023994 -0.13481 0.0064227 0.030263 0.066434 0.018425 0.047362 0.038977 
-0.18282 -0.18561 0.054103 0.0592 0.05624 0.019905 0.04095 -0.00081153 
0.0060938 -0.11327 0.0093821 0.085012 0.088465 0.050979 0.031578 0.023193 
0.25781 0.017767 -0.060494 0.016123 0.078107 0.035031 0.026317 0.060679 
0.21671 0.086985 -0.094363 -0.02646 0.039963 0.017932 0.024344 0.059364 
0.11477 0.13878 -0.066741 -0.028104 -0.013471 -0.0019624 0.03388 0.045389 
0.010862 0.16163 -0.0067304 0.00050378 -0.01528 0.0044497 -0.0044286 -0.0054151 
-0.032872 0.24121 0.099974 0.079751 -0.011992 -0.014293 -0.01528 -0.056055 
0.049664 0.31075 0.16706 0.18826 -0.025967 -0.019884 -0.023501 -0.073482 
0.35054 0.50624 0.27442 0.26685 0.033551 0.031249 0.024673 -0.045696 
0.42568 0.59042 0.30993 0.32111 0.048348 0.065612 0.068736 0.070873 
0.2588 0.40496 0.2851 0.32062 0.049499 0.056569 0.058706 0.17199 
0.15028 0.2024 0.21901 0.27129 -0.0031133 0.028454 0.038155 0.20339 
0.17182 0.062652 0.1761 0.22756 0.031578 0.038977 0.042594 0.18152 
0.059528 -0.072167 0.11609 0.2024 0.047362 0.037168 0.066598 0.11642 
-0.19466 -0.19761 0.035031 0.12529 0.025166 0.020562 0.014972 -0.027447 
-0.36417 -0.17295 0.0067515 0.078765 -0.0031133 0.004943 -0.011498 -0.11064 
-0.35496 -0.015444 -0.0052507 0.051965 -0.052602 -0.021363 -0.019719 -0.11607 
-0.30909 0.037661 -0.023994 0.023686 -0.050464 -0.0098543 -0.0072237 -0.062796 
-0.25631 -0.062631 -0.083347 -0.018897 -0.051287 -0.0022913 0.0085601 -0.061645 
-0.15651 -0.14007 -0.15257 -0.068714 -0.037311 -0.0034422 0.0088889 -0.07562 
0.20175 -0.11607 -0.20337 -0.11508 -0.027118 0.023028 0.020562 -0.035174 
0.38326 -0.10357 -0.16555 -0.11738 -0.030406 0.018754 0.020727 -0.0075525 
0.24943 -0.09946 -0.10045 -0.077428 1.0539e-005 0.025495 0.045389 0.011848 
0.080409 -0.050958 -0.0090322 -0.0070593 0.018918 0.038648 0.040292 0.055747 
0.062652 0.058377 0.06035 0.050979 0.036346 0.06742 0.044402 0.14042 
0.092082 0.14453 0.12233 0.11724 0.048348 0.054596 0.049335 0.2024 
0.068242 0.19533 0.14354 0.18892 0.038977 0.035853 0.031249 0.19237 
0.032071 0.20602 0.20323 0.22345 0.0070803 0.015301 0.043416 0.058542 
-0.0087034 0.17676 0.20471 0.23841 0.01004 0.033715 0.028783 0.0069159 
-0.066084 0.10113 0.12349 0.1909 0.016616 0.040785 0.011191 -0.054246 
-0.062138 -0.0055795 0.036839 0.11362 -0.011992 0.0090533 0.010697 -0.037969 
-0.07825 -0.075949 0.0052718 0.065447 -0.020706 -0.019555 -0.011827 -0.026296 
-0.05589 -0.052931 -0.011005 0.074983 -0.030077 0.010369 0.027303 -0.023336 
-0.039613 0.087808 0.0016547 0.052294 -0.0060728 0.0087245 0.023686 0.0032988 
0.005765 0.069229 0.037661 0.071531 -0.0026201 0.01563 0.018754 0.037332 
-0.035174 0.027632 0.027139 0.06742 0.0079024 -0.021856 0.012013 0.017438 
-0.025309 -0.020048 0.01563 0.055089 0.024673 0.035853 0.037332 0.03651 
0.0019835 0.036017 0.0039565 0.055418 0.014315 0.0324 0.03947 0.053445 
0.049006 0.084684 -0.0050863 0.066927 0.019411 0.051801 0.048841 0.049828 
0.062159 0.066598 -0.035667 0.029276 0.029934 0.046375 0.065118 0.083697 
0.045718 -0.0024557 -0.029255 0.020562 0.025659 0.024673 0.046704 0.072353 
0.0031344 -0.15125 -0.0014692 0.029112 -0.010841 0.0021479 0.022371 0.023522 
-0.0080457 -0.17197 0.0093821 0.03947 -0.019719 -0.013636 -0.0072237 -0.01117 
0.0056006 -0.10143 -0.051944 -0.001798 -0.032379 -0.019884 -0.0021268 -0.016431 
0.040292 -0.0013048 -0.16161 -0.058521 -0.03353 0.029769 0.0069159 -0.022679 
-0.014458 0.048348 -0.19761 -0.11228 -0.014622 0.019083 0.047033 -0.047834 
-0.056383 0.072846 -0.13399 -0.097651 0.019576 0.03536 0.030592 0.011191 
0.01415 0.1738 0.011684 -0.00097594 0.055582 0.049992 0.04095 0.18152 
0.17873 0.22526 0.18695 0.1419 0.051308 0.065612 0.044073 0.28626 
0.27162 0.20175 0.25748 0.22444 0.059857 0.06331 0.073832 0.27047 
0.31667 0.19764 0.23792 0.26209 0.05476 0.032564 0.05772 0.23282 
0.30385 0.23611 0.16952 0.24647 0.05624 0.025166 0.030263 0.22033 
0.31075 0.20208 0.16673 0.22476 0.058049 0.022206 0.013986 0.20109 
0.18366 0.098988 0.11609 0.18563 0.051308 0.032236 0.048348 0.12858 
-0.0040998 0.030592 0.056404 0.12891 0.047691 0.040621 0.056076 0.0034632 
-0.082525 0.043416 -0.0036066 0.062817 0.058542 0.025988 0.040128 -0.075127 
-0.0771 0.024508 -0.065755 0.0069159 0.068736 0.037332 0.018754 -0.043888 
-0.13185 -0.058356 -0.098967 -0.0026201 0.076956 0.0075736 0.027632 -0.050136 
-0.17871 -0.044217 -0.07825 -0.021034 0.063145 -0.0014692 0.0028056 -0.047341 
-0.12626 0.015137 -0.023501 0.0032988 0.064132 0.034702 0.030263 -0.11738 
-0.042573 0.11214 0.052787 0.060022 0.058542 0.031742 0.017274 -0.2471 
0.048019 0.18152 0.14979 0.13203 0.069064 0.035524 0.023851 -0.2476 
0.18399 0.20898 0.183 0.17922 0.06479 0.022206 -0.003771 0.016123 
0.2394 0.18432 0.17708 0.22871 0.085341 0.049828 0.024179 0.23841 
0.24104 0.15916 0.14437 0.20273 0.071859 0.050157 0.031085 0.30023 
0.1978 0.097015 0.08008 0.15292 0.0592 0.028947 0.03947 0.23644 
0.085012 -0.024816 0.024015 0.098988 0.036346 -0.016431 0.012013 0.1276 
-0.081539 -0.12889 -0.016924 0.048348 0.037497 0.011026 -0.0088678 0.052787 
-0.12938 -0.16046 -0.043559 0.0039565 0.043087 -0.0052507 0.021878 0.01004 
-0.071838 -0.07414 -0.052931 0.0083956 0.033387 -0.009361 0.0227 0.042594 
0.00099702 -0.01939 -0.068221 -0.01117 0.036346 0.013657 0.020069 0.027632 
-0.0034422 0.034866 -0.12198 -0.055232 0.018096 0.037168 0.021549 0.033551 
-0.082525 0.026974 -0.14484 -0.085156 0.034537 0.041607 0.031085 -0.012156 
-0.38094 -0.10505 -0.11968 -0.078908 0.020233 0.00066819 0.031907 -0.034188 
-0.52233 -0.19975 -0.057863 -0.054904 0.0060938 -0.014787 -0.003771 -0.08384 
-0.18249 -0.10916 -0.086142 -0.019226 -0.0095255 0.0034632 -0.014458 -0.041915 
0.40463 0.16673 -0.030735 0.013821 0.01267 0.004943 -0.0044286 -0.0078813 
0.57497 0.31996 0.056404 0.072681 0.031907 0.016616 0.058706 0.01974 
0.31684 0.2879 0.1003 0.11395 0.062981 0.036182 0.022042 -0.025638 
0.01152 0.11576 0.055254 0.10441 0.090109 0.071366 0.026646 -0.0011404 
-0.094034 -0.021528 0.032729 0.075641 0.069558 0.039305 0.036675 0.049664 
-0.035996 -0.024652 0.049006 0.083368 0.055911 0.035195 0.040128 0.080573 
-0.0019624 0.047855 0.12102 0.15456 0.061172 0.050486 0.079587 0.016123 
0.011848 0.043745 0.13943 0.17215 0.070051 0.057884 0.026974 -0.10604 
-0.063946 -0.069865 0.10458 0.15768 0.066434 0.031085 0.033387 -0.13514 
-0.18726 -0.21718 0.027468 0.10047 0.041936 0.0054362 0.013164 -0.093705 
-0.20189 -0.20057 -0.0040998 0.056733 0.020891 0.00297 0.015301 0.016288 
-0.18348 -0.099953 0.018589 0.053609 -0.012814 -0.0026201 -0.0032777 0.022535 
-0.088773 0.053774 0.042923 0.10425 -0.0049219 -0.0049219 -0.0034422 0.019411 
0.087808 0.26735 0.1248 0.14502 0.027961 0.0018191 0.0067515 0.033715 
0.21457 0.32078 0.13878 0.16558 0.050321 0.021549 0.023357 0.067091 
0.24926 0.20339 0.087314 0.14223 0.03947 0.046046 0.047526 0.12595 
0.30303 0.12217 0.032729 0.089452 0.032071 0.031578 0.037826 0.18383 
0.28543 0.063474 -0.037805 0.0098754 0.040621 0.037661 0.049992 0.17725 
0.11033 -0.031392 -0.18134 -0.061316 0.048019 0.027139 0.02681 0.074654 
-0.088937 -0.16786 -0.20222 -0.12642 0.049006 0.033715 0.029276 0.021056 
-0.15257 -0.17723 -0.11672 -0.092061 0.0018191 -0.0067304 0.016452 -0.00097594 
-0.099789 -0.12396 0.012177 -0.0014692 -0.020377 -0.0057439 0.012835 0.041278 
-0.023665 -0.044874 0.090603 0.078272 -0.0016336 0.00033937 0.025166 0.068407 
-0.11952 -0.029584 0.10935 0.11148 0.030098 0.017603 0.035195 0.052787 
-0.26256 -0.014458 0.064132 0.12003 0.062652 0.043087 0.059857 -0.042737 
-0.17197 0.057062 0.028454 0.093726 0.062981 0.044238 0.055418 -0.033037 
0.036182 0.056569 0.037661 0.082711 0.053774 0.036017 0.024673 0.030756 
0.1807 0.0092177 0.088465 0.10918 0.031085 0.034044 0.061995 0.16837 
0.21326 0.01974 0.18103 0.1835 0.032893 0.019576 0.058706 0.19237 
0.16969 0.088136 0.2006 0.20635 0.049828 0.012506 0.046704 0.14634 
0.17445 0.1562 0.10573 0.17824 0.030756 0.030592 0.028783 0.072517 
0.2029 0.24318 0.017438 0.12842 0.034044 0.033715 0.044238 0.072846 
0.24318 0.30878 -0.071345 0.035524 0.048019 0.04654 0.069886 0.068242 
0.23118 0.30746 -0.13415 -0.042079 0.023357 0.049828 0.067913 0.039634 
0.19698 0.26077 -0.07973 -0.038791 0.0059294 0.029441 0.047362 0.063145 
0.14683 0.19977 0.076299 0.051472 0.034537 0.0093821 0.023522 -0.021034 
-0.028597 0.10737 0.25617 0.19961 0.025166 -0.0013048 0.011191 -0.067235 
-0.26371 -0.052602 0.25222 0.28116 0.028783 -0.017417 -0.0054151 -0.14484 
-0.38061 -0.23888 0.14617 0.2218 0.04358 0.0082312 0.016452 -0.17887 
-0.25565 -0.23263 0.046868 0.13615 0.060515 0.046211 0.004943 -0.17624 
-0.056383 -0.10258 -0.0050863 0.077778 0.069393 0.040292 0.01415 -0.11755 
0.14157 0.012999 0.031249 0.055582 0.038812 0.074161 0.050321 -0.056055 
0.19747 0.082875 0.037826 0.060022 0.037826 0.072188 0.029769 0.093398 
0.20487 0.11477 -0.022021 0.05213 0.01826 0.031249 0.023357 0.22016 
0.15078 0.071859 -0.059343 0.0095465 0.00297 -0.0024557 0.01415 0.22065 
0.07449 0.075641 -0.023665 0.020891 0.032236 -0.0080457 0.029441 0.10589 
0.047691 0.13894 -0.0019624 0.031085 0.040292 0.0087245 0.026974 -0.030406 
0.1613 0.22526 0.0054362 0.032893 0.034044 0.034537 0.068078 -0.051287 
0.23183 0.19895 0.043745 0.055418 0.033058 0.055911 0.10359 -0.01232 
0.16459 0.071366 0.085835 0.1197 0.051308 0.064296 0.072188 -0.028926 
-0.039613 -0.13086 0.11083 0.14042 0.055254 0.031907 0.034044 -0.1108 
-0.17542 -0.27637 0.10458 0.14453 0.049664 0.0075736 0.021878 -0.16703 
-0.1935 -0.29791 0.025001 0.092411 0.017603 -0.027118 0.010862 -0.19334 
-0.20945 -0.27982 -0.0406 0.027468 1.0539e-005 -0.0088678 0.0036276 -0.070852 
-0.35101 -0.28048 -0.047998 -0.013636 0.0037921 0.0060938 0.012177 0.0065871 
-0.41628 -0.22589 -0.10258 -0.035174 -0.0031133 -0.0014692 -0.010019 0.017274 
-0.27884 -0.0024557 -0.13399 -0.056548 0.019576 0.012013 -0.0064016 -0.13629 
-0.020377 0.26554 -0.14073 -0.15026 0.012342 0.0036276 0.0023123 -0.27522 
0.42749 0.35071 -0.21899 -0.19663 0.020398 0.03388 0.023522 -0.11886 
0.55524 0.25387 -0.22507 -0.20353 0.025166 0.033715 0.0019835 0.11198 
0.33706 0.064625 -0.22935 -0.2277 -0.042737 -0.018239 0.016123 0.19649 
0.11658 -0.032543 -0.15585 -0.14319 -0.031392 -0.026131 0.016945 0.14486 
0.023851 -0.013307 -0.014293 -0.020541 0.0069159 0.027468 0.028619 0.11263 
0.027303 0.0324 0.17149 0.11263 0.032564 0.020069 0.024508 0.10277 
0.079094 0.0689 0.2731 0.2297 0.043087 0.0324 0.020562 0.040292 
0.081231 0.097672 0.29678 0.28214 0.035524 0.023522 0.047197 -0.13843 
0.12809 0.16558 0.28773 0.27162 0.035031 0.053609 0.038977 -0.23806 
0.23644 0.29513 0.30681 0.27277 0.063474 0.051965 0.044896 -0.18397 
0.17314 0.19961 0.13565 0.17774 0.037497 0.031907 0.03092 -0.082525 
0.018754 -0.041751 -0.02235 0.013164 0.030592 0.02681 0.032893 -0.037805 
-0.12478 -0.2032 -0.087458 -0.073811 -0.0021268 0.010533 0.027961 0.0016547 
-0.3229 -0.2425 -0.10669 -0.10061 -0.016431 -0.020212 -0.0027845 -0.097322 
-0.33342 -0.01117 -0.019226 -0.056055 -0.015609 -0.025802 -0.033694 -0.17986 
-0.12133 0.2537 0.033715 -0.022185 -0.021528 -0.0096899 -0.023007 -0.050464 
0.03092 0.2297 -0.066084 -0.043724 0.021713 -0.014129 -0.011498 0.092082 
0.18761 0.14371 -0.095843 -0.11508 -0.018404 -0.020212 -0.033037 0.15653 
0.33591 0.11954 -0.098309 -0.11804 -0.016924 -0.060658 -0.015938 0.1909 
0.29793 0.047197 -0.0047575 -0.041093 0.0324 0.021878 -0.016924 0.18596 
0.2223 -0.0060728 0.09833 0.026481 0.08715 0.067913 0.021878 0.25913 
0.19336 0.057227 0.22739 0.1373 0.073668 0.06742 0.052952 0.29842 
0.069064 0.14042 0.28938 0.19336 0.043909 0.0421 0.050814 0.30138 
-0.090417 0.23249 0.29234 0.20372 0.043745 0.05213 0.049664 0.28889 
-0.059672 0.26274 0.26357 0.22476 0.052294 0.039634 0.075805 0.26932 
0.071366 0.3313 0.25156 0.18251 0.065612 0.065776 0.074161 0.19468 
0.12727 0.2486 0.17034 0.084684 0.03651 0.046211 0.091096 0.028125 
0.068078 0.12316 0.017932 -0.0042642 0.019411 0.04917 0.067749 -0.16572 
-0.0082102 0.010862 -0.092061 -0.084663 0.011026 0.033551 0.062652 -0.20288 
0.022042 -0.079895 -0.11672 -0.089595 0.0069159 0.015301 0.031249 -0.091568 
0.076134 -0.079237 -0.062467 -0.00081153 0.0227 0.012835 0.058377 -0.080881 
0.1373 -0.035996 -0.012814 0.030263 0.0037921 0.025495 0.024837 -0.27061 
0.098988 0.036346 -0.059178 -0.03057 0.0054362 0.01826 0.0028056 -0.39475 
0.067256 0.094548 -0.13481 -0.10998 -0.01939 -0.0070593 -0.0039354 -0.28722 
-0.0073881 0.1419 -0.17016 -0.14056 -0.027282 0.0018191 0.014808 0.10655 
-0.15306 0.066598 -0.17032 -0.063289 0.0032988 0.029769 0.023851 0.37783 
-0.18594 0.0042853 -0.047998 0.030098 0.013492 0.007738 0.012342 0.44903 
-0.15174 -0.0055795 0.16245 0.12661 0.01415 -0.0083746 0.0069159 0.38523 
-0.07825 0.13417 0.36912 0.19862 0.016288 -0.0039354 0.037497 0.29579 
-0.0080457 0.32259 0.4385 0.25206 0.042594 0.01415 0.029441 0.16327 
-0.046847 0.30434 0.39066 0.24203 0.051472 0.00066819 -0.023994 0.15933 
-0.016102 0.12184 0.26817 0.2269 0.064625 -0.014787 -0.1182 0.23463 
0.24828 -0.031557 0.22033 0.21605 0.041278 0.02681 -0.092719 0.24597 
0.54274 0.077943 0.19369 0.14716 0.054925 0.061337 0.009711 0.14585 
0.42091 0.12562 0.14486 0.11263 0.069393 0.0786 0.10836 0.030263 
0.083204 0.13023 0.10935 0.080902 0.095699 0.05213 0.1128 -0.085649 
-0.061316 0.16179 0.0592 0.037332 0.069886 0.051308 0.10754 -0.067235 
-0.010841 0.11378 -0.01939 -0.014951 0.058213 0.065612 0.10376 0.052459 
0.0093821 0.0083956 -0.10604 -0.043559 0.032564 0.048348 0.074654 0.083697 
-0.022185 -0.083183 -0.1381 -0.09239 0.0047785 0.041936 0.018096 0.092247 
-0.17673 -0.22113 -0.17558 -0.091075 -0.033201 -0.018075 -0.045532 0.060186 
-0.29922 -0.31172 -0.23017 -0.077264 -0.023829 -0.017746 -0.076771 0.069886 
-0.30251 -0.35447 -0.33589 -0.18545 -0.00081153 0.019411 -0.019884 -0.0031133 
-0.25187 -0.36548 -0.39869 -0.24809 0.0080668 0.036839 0.043416 -0.050958 
-0.20633 -0.29922 -0.29774 -0.14352 0.015959 0.036346 0.043909 -0.080717 
-0.087458 -0.255 -0.046847 -0.042737 0.0052718 0.053445 0.048513 -0.097816 
-0.091732 -0.25713 0.072517 -0.012485 -0.050958 0.011191 0.047033 -0.0026201 
-0.20551 -0.05737 0.10984 0.055254 -0.032215 -0.050136 0.005765 0.11 
-0.13053 0.37718 0.23594 0.07449 -0.010841 -0.052931 -0.0075525 0.11905 
0.37833 0.76075 0.40973 0.17018 0.014808 -0.0064016 -0.051287 0.035524 
0.64451 0.79676 0.44146 0.24811 0.073339 0.036675 -0.034845 0.11444 
0.55129 0.49523 0.40628 0.16048 0.054596 0.040621 0.025495 0.19073 
0.30007 0.21293 0.34495 0.11099 0.083533 0.039799 0.084026 0.19632 
0.041772 0.012835 0.33689 0.147 0.10819 0.08156 0.082053 0.1539 
-0.13859 -0.18923 0.19073 0.11691 0.087972 0.072681 0.044731 0.12332 
-0.20386 -0.38159 -0.043395 0.0087245 0.079094 0.04358 0.025988 0.070544 
-0.30646 -0.52989 -0.33178 -0.091075 -0.0031133 0.019083 -0.031064 0.0052718 
-0.37584 -0.49126 -0.53417 -0.16983 -0.020048 -0.00097594 -0.018568 -0.013307 
-0.27933 -0.34641 -0.59698 -0.23296 0.0083956 0.014479 -0.012485 0.046375 
-0.15125 -0.23543 -0.55883 -0.45377 -0.006566 0.018589 0.0065871 0.043251 
0.040456 -0.057041 -0.39491 -0.35578 -0.035996 0.03092 -0.0024557 0.046375 
0.2657 0.097508 -0.25023 -0.2647 -0.072825 0.012999 0.0054362 -0.020212 
0.31273 0.062488 -0.30909 -0.26913 -0.053424 -0.026789 -0.030242 -0.16687 
0.19665 0.042265 -0.20666 -0.1963 -0.035503 -0.054739 -0.021363 -0.16539 
0.10129 0.079751 -0.035667 -0.067235 -0.025638 0.0065871 -0.027775 -0.17542 
0.049499 0.17824 0.086163 0.019905 -0.010183 0.038155 -0.020048 -0.2471 
0.023193 0.23266 0.18925 0.075312 -0.012814 0.028947 -0.0064016 -0.24776 
0.0065871 0.26126 0.35597 0.17001 0.0047785 0.01563 -0.039284 0.004943 
-0.11097 0.26916 0.42338 0.24597 0.015794 -0.0040998 -0.022021 0.19254 
-0.18298 0.24153 0.42683 0.26603 0.084848 0.030592 0.033387 0.19681 
-0.028104 0.15176 0.32818 0.21095 0.096193 0.065776 0.088301 0.1271 
0.36649 0.14387 0.19764 0.12118 0.078272 0.0689 0.10787 0.14486 
0.65142 0.25091 0.1225 0.078765 0.055418 0.079258 0.095371 0.25222 
0.56132 0.21671 0.083862 0.040621 0.071695 0.066763 0.071695 0.26143 
0.15012 -0.022185 -0.027282 -0.023829 0.0592 0.04917 0.063968 0.070708 
-0.18874 -0.14698 -0.10242 -0.05441 0.025001 0.033387 0.080573 -0.070687 
-0.37337 -0.18265 -0.12116 -0.065591 -0.0050863 0.02533 0.0421 -0.093212 
-0.56804 -0.23017 -0.10357 -0.070523 0.0024767 0.013821 0.024344 -0.14813 
-0.70516 -0.30695 -0.16539 -0.1381 0.0023123 -0.0070593 0.0023123 -0.20025 
-0.51329 -0.35282 -0.21965 -0.19466 -0.019061 -0.022679 -0.008539 -0.22984 
0.11658 -0.18413 -0.13086 -0.14698 -0.048656 -0.0075525 0.017932 -0.091568 
0.81731 0.31223 0.049992 -0.011498 -0.015116 0.0065871 0.052294 -0.00097594 
0.94671 0.69384 0.17593 0.068078 0.0046141 0.012835 0.047855 0.05065 
0.56823 0.60357 0.10441 0.047033 -0.0057439 -0.0019624 0.034209 0.044731 
0.11592 0.25025 1.0539e-005 -0.040106 0.0024767 0.021549 0.031742 0.013328 
-0.076935 0.068571 -0.040435 -0.034352 0.014808 0.010369 0.018096 -0.0068948 
-0.060823 0.094548 0.051143 0.03388 0.027468 0.012835 0.046704 0.054925 
-0.03616 0.088136 0.11083 0.12644 0.055747 0.044238 0.070215 0.09981 
-0.10143 -0.052109 0.054925 0.10244 0.064954 0.069558 0.065283 0.057062 
-0.2596 -0.30531 -0.039284 0.04095 0.042594 0.014479 0.052787 0.0072447 
-0.30185 -0.31945 -0.11146 -0.020706 0.017274 -0.03057 0.018096 0.03536 
-0.08269 -0.13333 -0.063124 -0.022185 0.020727 -0.0072237 0.022864 0.21457 
0.19879 0.1373 0.11839 0.087314 -0.0039354 -0.012156 0.032564 0.34446 
0.25387 0.43538 0.30516 0.27261 0.03947 0.012342 0.063474 0.20339 
0.15061 0.67329 0.46612 0.41466 0.076134 0.028619 0.058377 -0.16999 
0.22361 0.58121 0.41072 0.43472 0.10573 0.054267 0.07301 -0.20337 
0.37898 0.15637 0.27951 0.35975 0.10984 0.063474 0.069064 0.044896 
0.4413 0.0032988 0.23512 0.30451 0.082053 0.056569 0.065612 0.31059 
0.30812 0.011026 0.24532 0.28494 0.087808 0.06183 0.090767 0.34512 
0.089945 -0.049478 0.2075 0.27014 0.07597 0.035524 0.068078 0.28067 
-0.23888 -0.24497 0.047362 0.15785 0.026481 0.011848 0.0044497 0.099481 
-0.61588 -0.47054 -0.12774 0.0056006 -0.025145 -0.059014 -0.020706 -0.07562 
-0.60618 -0.24299 -0.066906 -0.010348 -0.021034 -0.032543 0.0036276 -0.17279 
-0.20255 0.27113 0.038977 0.049664 0.023686 0.03092 0.06479 -0.1205 
0.18465 0.60949 0.12661 0.11477 0.048184 0.066105 0.084519 0.037332 
0.39362 0.6626 0.1516 0.16426 0.087314 0.065612 0.08978 0.11115 
0.21802 0.2611 0.058871 0.14716 0.063639 0.049664 0.077943 -0.0060728 
-0.16309 -0.3617 0.0026412 0.083862 0.021056 0.009711 0.0421 -0.25828 
-0.41365 -0.64646 -0.044546 0.032236 0.030756 -0.0040998 0.00099702 -0.44078 
-0.39754 -0.48567 -0.043724 0.013821 0.033058 0.0039565 0.0087245 -0.33309 
-0.038298 -0.19844 0.023357 0.043251 0.056733 0.047197 0.053938 0.11543 
0.22279 -0.066084 0.035853 0.055254 0.0592 0.048348 0.050979 0.41499 
0.1659 -0.063946 -0.035174 0.05476 0.034044 0.022206 0.034044 0.3757 
-0.06855 0.047691 0.022042 0.06331 0.020891 0.0014903 0.0083956 0.18448 
-0.2328 0.19747 0.13746 0.13943 0.034044 0.0064227 -0.0054151 0.02122 
-0.043066 0.30944 0.21391 0.20964 0.047033 0.028947 -0.0039354 0.010862 
0.46251 0.41779 0.14437 0.18119 0.040456 0.034866 0.024344 0.1077 
0.70781 0.37339 0.031414 0.099974 0.046375 0.00297 0.0074092 0.095371 
0.59124 0.25354 -0.05326 0.049499 0.050486 0.018918 0.011848 0.05624 
0.3581 0.12792 -0.038627 0.024837 0.073504 0.052294 0.020069 0.07038 
0.10228 0.012999 -0.04882 0.0067515 0.096357 0.070051 0.041443 0.10359 
-0.2351 -0.19466 -0.016431 0.011848 0.098001 0.086163 0.056733 0.032071 
-0.54009 -0.45476 0.077449 0.072846 0.073668 0.056733 0.016123 -0.14303 
-0.74199 -0.61342 0.20273 0.15735 0.03536 0.025988 -0.024816 -0.25105 
-0.66159 -0.57116 0.27705 0.26422 0.017274 -0.018897 -0.020541 -0.20271 
-0.17525 -0.18512 0.32407 0.33081 0.046704 0.016616 0.015301 -0.052109 
0.27836 0.30303 0.30155 0.33887 0.078436 0.044073 0.030592 -0.16079 
0.40184 0.40792 0.026481 0.16738 0.067749 0.050979 0.013657 -0.32043 
0.35087 0.23627 -0.34213 -0.12889 -0.026789 -0.0073881 -0.020706 -0.1769 
0.23167 0.14946 -0.45492 -0.31024 -0.085156 -0.019226 -0.0095255 0.070544 
1.0539e-005 0.13532 -0.51312 -0.40806 -0.0036066 0.011026 -0.0036066 0.14996 
-0.21027 -0.00097594 -0.66948 -0.51707 0.0018191 -0.0031133 -0.0016336 0.08715 
-0.13366 -0.040271 -0.67869 -0.58448 -0.0098543 -0.019719 -0.01676 0.084519 
0.20109 0.096686 -0.37831 -0.42237 0.020727 -0.0068948 -0.013471 0.18004 
0.39756 0.23825 0.057555 -0.094692 0.067256 0.058871 0.027303 0.23298 
0.33081 0.21737 0.3757 0.20799 0.086328 0.075805 0.058213 0.18415 
0.15407 0.11691 0.47188 0.38671 0.079587 0.073339 0.039634 0.055911 
0.034866 -0.038462 0.35186 0.41121 0.047691 0.042594 0.018918 -0.057863 
-0.1233 -0.32323 0.04095 0.20388 0.032236 0.0032988 -0.0067304 -0.15816 
-0.44045 -0.53022 -0.14714 0.014808 0.0075736 -0.013636 0.0024767 -0.23083 
-0.53105 -0.54288 -0.30695 -0.15881 0.0069159 -0.023007 -0.001798 -0.15339 
-0.039778 -0.3035 -0.4222 -0.29988 -0.0073881 0.005765 0.01267 0.065612 
0.58763 0.064296 -0.27209 -0.26141 0.0024767 0.018589 0.047855 0.25535 
0.73724 0.37849 -0.14139 -0.12346 0.013657 0.025495 0.042265 0.14256 
0.57924 0.61821 -0.013965 -0.029584 0.029276 0.00066819 0.041278 0.011848 
0.24088 0.59322 0.076956 0.063803 0.044567 0.032893 0.041114 -0.057041 
-0.19104 0.29924 0.097672 0.10721 0.039799 0.026646 0.0093821 -0.031557 
-0.3668 0.12184 0.13138 0.13927 0.0039565 -0.018568 -0.040106 0.011191 
-0.19811 0.15851 0.183 0.17906 -0.019061 -0.054246 -0.03205 0.065612 
-0.034845 0.095864 0.067749 0.14568 -0.011827 -0.049314 -0.012978 0.10458 
0.033387 -0.024323 -0.091075 0.022206 -0.023994 -0.019719 0.0019835 0.095206 
0.051636 -0.19646 -0.16605 -0.067892 -0.029748 0.0093821 -0.0095255 0.050814 
0.10425 -0.19712 -0.14895 -0.088773 0.00297 0.033715 0.012013 -0.040435 
0.10819 -0.1136 0.0098754 -0.0031133 0.055747 0.04917 0.03536 -0.1039 
-0.093212 -0.10094 0.10014 0.070708 0.04506 0.041936 0.0075736 -0.16144 
-0.28623 -0.024652 0.085177 0.11214 0.018754 0.029276 0.013492 -0.069043 
-0.095678 0.16574 0.074983 0.12431 0.0047785 0.031742 0.011684 0.089287 
0.2006 0.33246 0.058706 0.10787 0.027139 0.040621 0.067256 0.2953 
0.2805 0.33574 0.0070803 0.068736 0.021713 0.06331 0.086821 0.36698 
0.039963 0.22197 -0.017911 0.035853 0.010697 0.023686 0.044238 0.27803 
-0.16703 0.14387 0.062159 0.06594 -0.011498 -0.012156 0.017767 0.14256 
-0.20189 0.1299 0.1419 0.13105 -0.04619 -0.0070593 0.014315 0.059364 
-0.19548 0.084848 0.14371 0.1932 -0.041915 -0.0075525 0.03651 -0.062631 
-0.073811 -0.034845 0.14848 0.19287 -0.056712 -0.042737 0.0032988 -0.13596 
0.29448 0.16442 0.23545 0.24893 0.0042853 -0.0098543 0.020727 -0.076606 
0.36715 0.44212 0.3678 0.34627 0.081395 0.057391 0.064132 -0.0072237 
0.15522 0.43653 0.32259 0.34807 0.071037 0.093069 0.088301 0.03536 
0.12233 0.029605 0.11674 0.22624 0.054103 0.060844 0.090603 -0.011005 
0.35219 -0.37995 -0.10784 0.078107 -0.0082102 0.027468 0.051308 -0.1279 
0.29004 -0.43618 -0.058192 0.023028 -0.057699 -0.040764 -0.0054151 -0.25565 
-0.109 -0.14287 0.12579 0.11937 -0.071016 -0.038627 -0.018733 -0.20222 
-0.45739 0.12743 0.34725 0.28921 -0.07003 -0.067399 -0.0083746 -0.12034 
-0.52102 0.18087 0.43209 0.39329 -0.0011404 -0.061316 0.0026412 -0.044546 
-0.37584 0.19287 0.39723 0.40874 0.039305 -0.0036066 0.01004 0.02122 
-0.093376 0.23841 0.35794 0.42058 0.12612 0.097672 0.042265 0.13516 
0.085341 0.23019 0.31963 0.38622 0.16196 0.13516 0.10211 0.183 
0.16755 0.22592 0.29892 0.36435 0.13779 0.11378 0.13845 0.18267 
0.20931 0.27968 0.40102 0.41203 0.11428 0.11198 0.093726 0.16952 
0.17445 0.232 0.3632 0.39395 0.055418 0.081889 0.074326 0.12628 
0.14585 0.14913 0.086163 0.21013 0.024837 0.033551 0.040785 0.1054 
0.147 0.074819 -0.21932 -0.018568 -0.0082102 0.029934 0.052952 0.10737 
0.024344 -0.11048 -0.41135 -0.23362 -0.01939 -0.0098543 0.042429 0.12102 
-0.093048 -0.2231 -0.33622 -0.26108 -0.015444 0.036675 0.054103 0.079587 
0.016945 -0.090253 -0.044052 -0.082361 -0.0072237 0.061008 0.049335 0.076956 
0.17708 0.058706 0.30039 0.18169 0.043745 0.054432 0.0689 0.03947 
0.21638 0.095699 0.42403 0.3558 0.067749 0.049992 0.066269 -0.025967 
0.041114 -0.013471 0.36764 0.38638 0.056076 0.028783 0.038812 -0.11524 
-0.19219 -0.097158 0.25107 0.34117 0.0083956 0.014808 0.024508 -0.11393 
-0.091075 0.16755 0.2685 0.32719 0.058049 0.037661 0.032071 0.0082312 
0.056404 0.40924 0.34479 0.36945 0.073997 0.049992 0.056404 0.064954 
0.12283 0.4487 0.34807 0.38408 0.088958 0.076627 0.027468 0.08863 
0.12184 0.39 0.30894 0.35695 0.081395 0.039141 0.021713 0.11642 
0.086163 0.19714 0.22065 0.29201 0.073175 0.051636 0.05476 0.17117 
0.058871 0.079587 0.12677 0.24367 0.050814 0.061501 0.076299 0.10606 
0.057555 0.0016547 0.06035 0.15966 0.04095 0.053116 0.088136 0.039305 
0.11839 -0.01117 -0.029584 0.067749 0.02533 0.040785 0.065776 -0.15668 
0.14502 -0.11672 -0.28952 -0.12478 0.062323 0.041114 0.039141 -0.33835 
0.072517 -0.32125 -0.69414 -0.46117 0.059364 0.048019 0.024015 -0.31681 
-0.0087034 -0.44341 -0.87204 -0.69793 0.016123 0.042758 0.025824 0.08156 
-0.040435 -0.48682 -0.8579 -0.7336 -0.032379 0.0060938 0.021878 0.31404 
-0.069372 -0.51049 -0.5562 -0.5858 -0.032708 0.0016547 0.011684 0.25765 
-0.043395 -0.40593 -0.15059 -0.28048 0.013328 0.029934 0.023193 0.18909 
-0.042244 -0.21274 0.17659 0.027961 0.0592 0.03651 0.018425 0.11461 
-0.047998 -0.014293 0.28412 0.19912 0.03947 -0.0021268 0.034209 -0.0075525 
0.025659 0.078107 0.24499 0.23167 0.0080668 -0.035832 -0.0075525 -0.034516 
0.00066819 0.012013 0.077449 0.16344 -0.044546 -0.057041 -0.040271 -0.034516 
-0.025145 0.034866 -0.033201 0.068242 -0.082196 -0.063453 -0.062796 -0.00097594 
0.0070803 0.25337 -0.039449 0.039305 -0.091568 -0.048656 -0.019226 0.048513 
0.12151 0.46366 -0.022679 0.034702 -0.0060728 -0.0060728 0.024015 0.12003 
0.30714 0.49736 -0.14632 -0.052766 0.049992 0.09833 0.034044 0.17774 
0.29382 0.2292 -0.35003 -0.21603 0.15028 0.13976 0.063639 0.14749 
-0.01528 -0.16095 -0.34937 -0.25269 0.12891 0.10359 0.049992 -0.0052507 
-0.31122 -0.38192 -0.19646 -0.18397 0.075312 0.04095 0.037661 -0.12166 
-0.29807 -0.41316 -0.081045 -0.09798 0.05476 0.041772 0.023028 -0.11048 
-0.13218 -0.35331 -0.096994 -0.078415 0.03651 0.043745 0.032236 -0.023007 
0.091753 -0.10604 -0.023007 -0.019719 0.039799 0.044238 0.025659 0.076627 
0.22526 0.050321 0.10754 0.070544 0.046704 0.011684 0.016288 0.11658 
0.18119 -0.05885 0.08567 0.11017 0.026317 0.023686 0.019411 0.12184 
0.047855 -0.2476 -0.019061 0.076463 -0.020212 -0.031228 -0.011334 0.077449 
-0.023994 -0.18331 -0.018404 0.044238 -0.074469 -0.10341 -0.059672 0.025495 
-0.047341 0.059857 0.03651 0.065447 -0.12001 -0.15405 -0.086142 0.10096 
-0.13793 0.12529 0.0090533 0.055089 -0.12741 -0.11031 -0.05441 0.21819 
-0.19186 0.029276 -0.15322 -0.056055 -0.10127 -0.043888 -0.022679 0.22394 
-0.09091 -0.086142 -0.3936 -0.24053 -0.042573 -0.011334 -0.02646 0.13779 
0.0047785 -0.11146 -0.43289 -0.29281 0.047691 0.058542 0.0088889 0.1105 
-0.21406 -0.032215 -0.20403 -0.19992 0.12776 0.14552 0.037661 0.036675 
-0.53072 -0.056712 -0.010183 -0.052273 0.14749 0.1105 0.050979 -0.11031 
-0.15602 -0.028433 -0.001798 0.00083261 0.037661 0.021384 0.0021479 -0.15339 
0.75911 0.2685 -0.033859 -0.0040998 0.026152 0.029276 0.02122 -0.063782 
1.1412 0.59322 0.12201 0.097344 0.080902 0.095864 0.06479 0.037826 
0.82159 0.53501 0.33196 0.29563 0.091753 0.12036 0.10211 -0.012156 
0.22378 0.15028 0.35366 0.35219 0.064625 0.071695 0.097015 -0.066248 
-0.17723 -0.13547 0.22624 0.29185 0.015301 0.03388 0.063474 0.0085601 
-0.062631 0.052787 0.16623 0.23956 -0.020541 -0.0019624 0.028125 0.19796 
0.26242 0.46925 0.23446 0.25978 0.0024767 -0.024158 -0.0016336 0.23068 
0.024344 0.51035 0.19632 0.23841 0.0031344 -0.036325 -0.0062372 0.058871 
-0.3686 0.34709 0.040128 0.16081 -0.0044286 -0.022514 -0.028926 -0.17558 
-0.41908 0.3923 0.058377 0.12644 0.035031 -0.019555 -0.056055 -0.22014 
-0.23329 0.34824 0.12102 0.15341 0.03651 -0.024323 -0.0091966 -0.021528 
-0.14796 -0.073811 0.18596 0.19829 0.062159 0.0083956 1.0539e-005 0.23512 
-0.413 -0.50457 0.2537 0.25025 0.058542 0.019411 0.028619 0.23035 
-0.72193 -0.68707 0.29168 0.28971 0.047855 0.077121 0.028783 -0.12198 
-0.60964 -0.67935 0.12464 0.2246 0.059528 0.070873 0.048348 -0.35036 
-0.14665 -0.63117 -0.24069 -0.035996 0.0016547 0.022206 0.025659 -0.15783 
0.51101 -0.32964 -0.45278 -0.26486 -0.022514 0.0075736 0.0075736 -0.03057 
0.88472 0.15505 -0.50375 -0.38373 -0.0068948 -0.018239 -0.051287 0.10244 
0.79002 0.55491 -0.27686 -0.27703 0.035195 -0.012978 -0.050958 0.1853 
0.3951 0.74629 0.23973 0.054103 0.11066 0.012999 -0.026624 0.14502 
0.20553 0.86384 0.74135 0.5138 0.14568 0.09422 0.018589 0.21342 
0.19024 0.78706 0.986 0.84346 0.13105 0.13861 0.079422 0.19681 
0.11296 0.46941 0.81978 0.84296 0.1077 0.062981 0.063803 -0.091404 
0.040621 0.13532 0.4579 0.6187 0.017438 0.017932 0.068571 -0.35397 
0.13499 0.1516 0.27244 0.42683 -0.018239 0.034044 0.034044 -0.24595 
0.2343 0.38326 0.39099 0.41137 -0.029748 -0.025967 0.035031 -0.053095 
-0.031228 0.35942 0.50838 0.49621 -0.055561 -0.069043 -0.017911 -0.05885 
-0.35085 0.14519 0.55096 0.59618 0.0056006 -0.06 0.0026412 -0.12708 
-0.32635 0.081889 0.35465 0.47287 0.098823 0.032564 0.01974 -0.059836 
-0.23198 -0.045861 -0.14747 0.10622 0.11198 0.071202 0.032893 0.0083956 
-0.30925 -0.27061 -0.6897 -0.36367 0.091589 0.051636 0.044238 -0.011005 
-0.24069 -0.47761 -0.82124 -0.62377 0.059035 0.041278 0.011684 -0.074633 
-0.17131 -0.6195 -0.67589 -0.62789 -0.031721 -0.0029489 -0.020706 -0.17953 
-0.10571 -0.52414 -0.36334 -0.41152 -0.065755 -0.044052 -0.030077 -0.19301 
0.061666 -0.29791 -0.082196 -0.17345 -0.0055795 -0.0098543 -0.014458 -0.018897 
0.20586 -0.13695 -0.11689 -0.11179 0.083533 0.073339 0.058049 0.14946 
0.24729 0.045389 -0.32652 -0.22754 0.10474 0.093726 0.073997 0.17708 
0.171 0.17791 -0.093541 -0.1187 0.041607 0.065612 0.06742 0.15752 
0.0421 -0.027118 0.29628 0.16377 0.020398 0.011848 0.045224 0.11395 
0.16278 -0.066084 0.35169 0.30829 -0.012814 -0.035503 0.0011614 0.13203 
0.3022 0.28593 0.25255 0.29727 0.0031344 -0.0082102 0.027632 0.11263 
0.1927 0.57793 0.20306 0.25995 0.031742 0.011684 0.033551 0.085177 
0.21046 0.68956 0.12792 0.20208 0.035195 0.010862 0.017603 0.06594 
0.24137 0.53814 0.14124 0.18925 0.015137 -0.0057439 0.0092177 0.13565 
0.27754 0.42009 0.23052 0.23858 0.055089 0.042429 0.044073 0.14568 
0.076299 0.1978 0.20454 0.24762 0.090438 0.058377 0.042758 0.10491 
-0.20847 -0.18791 0.017438 0.14996 0.07597 0.047691 0.043087 0.11477 
-0.27588 -0.47531 -0.13152 -0.001798 0.040785 0.026974 0.048019 0.19912 
-0.004593 -0.41185 -0.12281 -0.051451 0.020727 0.036182 0.059857 0.27655 
-0.11787 -0.30563 -0.092226 -0.04323 0.032564 0.025495 0.049006 0.12069 
-0.51049 -0.33408 -0.20304 -0.12873 -0.0050863 0.024673 0.038812 -0.094199 
-0.47531 -0.2254 -0.31533 -0.22359 -0.035667 0.01711 0.041772 -0.13053 
0.093562 0.051472 -0.24332 -0.17871 -0.022679 0.044731 0.054925 0.065283 
0.51907 0.24055 -0.062467 -0.072332 -0.0027845 -0.010512 0.043416 0.17084 
0.50509 0.27968 0.10408 0.060844 -0.00097594 0.00066819 0.028947 0.11543 
0.28954 0.27886 0.21523 0.18119 0.010204 0.021713 0.06331 -0.13662 
0.09685 0.22378 0.26242 0.2371 0.017438 0.051801 0.093891 -0.2014 
0.13171 0.22887 0.18267 0.21901 0.020891 0.043251 0.097015 0.017767 
0.21539 0.19057 0.054267 0.17758 -0.0096899 0.01267 0.10622 0.21424 
0.33163 0.29776 0.041607 0.12349 0.0019835 0.024179 0.080573 0.17988 
0.38753 0.38293 0.030427 0.096357 0.059693 0.074161 0.080573 0.20355 
0.35432 0.25288 -0.16835 -0.045039 0.03947 0.06479 0.065447 0.31815 
0.16853 -0.071509 -0.40412 -0.25384 -0.0036066 0.023028 0.082217 0.31223 
-0.018239 -0.27275 -0.37847 -0.29972 -0.0070593 1.0539e-005 0.066434 0.18794 
-0.21159 -0.083512 -0.090417 -0.11935 0.037168 0.031085 0.02681 0.066105 
-0.25664 0.00033937 0.10129 0.041936 0.050321 0.0069159 0.0047785 0.033551 
-0.30711 -0.028433 0.23578 0.18103 0.0013258 -0.0088678 0.0095465 -0.133 
-0.43125 0.052787 0.28346 0.26735 0.018096 0.012013 0.043416 -0.19071 
-0.44983 0.094384 0.29842 0.30368 -0.0044286 0.020398 0.040785 -0.041586 
-0.18479 0.047526 0.31421 0.31914 0.0059294 0.00083261 0.028947 0.12266 
0.16607 0.025495 0.20043 0.27425 0.0031344 -0.018733 0.010369 0.081231 
0.3313 -0.014458 -0.088444 0.078107 -0.055561 -0.050136 -0.0050863 0.069393 
0.25239 -0.19466 -0.38899 -0.18348 -0.038133 -0.091239 -0.028926 0.073668 
0.10195 -0.27242 -0.30087 -0.22113 0.0044497 0.0098754 0.016123 0.048184 
-0.064275 -0.18002 -0.028762 -0.070687 0.0689 0.066105 0.024179 -0.09091 
-0.060823 -0.048985 0.17495 0.10047 0.066763 0.067091 0.043251 -0.11557 
0.049828 0.01826 0.21621 0.19994 0.053938 0.086163 0.072188 0.026317 
0.1567 -0.053424 0.093726 0.18169 0.03388 0.095371 0.088136 0.11609 
0.14634 -0.09798 0.091918 0.15176 0.061172 0.09981 0.069393 0.078436 
0.0026412 -0.099131 0.13516 0.17314 0.12266 0.087643 0.045718 -0.071181 
-0.077593 -0.060329 0.32308 0.29727 0.17478 0.087479 0.056733 -0.011498 
-0.080059 0.081889 0.41844 0.38951 0.10507 0.04095 0.050814 0.057227 
0.0083956 0.33262 0.30944 0.35317 -0.020706 -0.015444 0.021878 0.097508 
0.16886 0.48191 0.11806 0.22838 -0.038791 -0.028762 -0.0022913 0.066105 
0.18481 0.27886 -0.10456 0.045718 -0.067728 -0.046025 -0.028926 0.0069159 
0.081395 -0.067892 -0.34707 -0.17065 -0.096829 -0.065755 -0.030077 -0.096994 
-0.049478 -0.27226 -0.32257 -0.22968 -0.036489 -0.051451 -0.030899 -0.12823 
-0.07003 -0.3178 -0.2203 -0.21159 0.055582 0.046046 -0.001798 -0.10456 
-0.20008 -0.30169 -0.16424 -0.16523 0.099316 0.086492 0.0021479 -0.095185 
-0.32388 -0.23461 -0.30958 -0.20025 0.092082 0.064296 0.0042853 -0.12511 
-0.29051 -0.1381 -0.24069 -0.19614 0.075476 0.052952 -0.022021 -0.22014 
-0.15355 -0.021692 -0.042573 -0.071181 0.057884 0.026646 -0.038627 -0.15355 
-0.15092 -0.051615 0.058706 0.033058 0.018096 0.010697 -0.031557 0.025001 
-0.20847 -0.096994 0.089123 0.082546 -0.0013048 0.029934 0.017274 0.17363 
-0.22063 -0.23707 0.17692 0.13746 -0.026131 0.01415 0.012835 0.20027 
-0.18676 -0.20238 0.20208 0.21539 0.00050378 0.020891 -0.014293 0.078436 
0.088465 0.087808 0.23151 0.25255 0.042265 0.018425 -0.051287 -0.08121 
0.55672 0.51413 0.2611 0.28658 0.076299 0.043087 -0.010676 -0.086471 
0.58335 0.64583 0.24663 0.28083 0.08419 0.059035 0.016781 -0.017746 
0.26209 0.49555 0.21654 0.25814 0.036675 0.04917 0.030756 0.087643 
-0.070194 0.25683 0.28182 0.2611 0.074326 0.034044 0.018425 0.15982 
-0.29906 0.032071 0.30007 0.31733 0.11378 0.058377 0.022535 0.084355 
-0.16588 0.039141 0.30516 0.34347 0.11083 0.0786 0.053609 -0.050464 
0.11609 0.18761 0.30204 0.3387 0.062652 0.077285 0.067091 -0.048492 
0.25222 0.22115 0.11921 0.2223 0.024508 0.028947 0.033222 0.066269 
0.40578 0.23463 -0.098802 0.059528 0.021384 0.004943 0.042265 0.17199 
0.36057 0.11905 -0.29429 -0.14204 0.027632 0.01004 0.0065871 0.14387 
0.087808 -0.20008 -0.40889 -0.27949 0.011355 0.0016547 -0.030899 -0.065426 
0.096028 -0.34559 -0.44752 -0.3229 -0.0075525 -0.0082102 -0.0039354 -0.11705 
0.30664 -0.06296 -0.21767 -0.22326 0.023028 0.011355 -0.012156 -0.079895 
0.21967 0.50706 0.12381 0.021878 -0.014787 -0.0406 -0.058356 -0.12478 
-0.34098 0.66457 0.30697 0.21687 -0.10258 -0.11015 -0.12429 -0.18265 
-0.74889 0.52318 0.35449 0.31092 -0.13908 -0.17838 -0.10686 -0.086471 
-0.71765 0.24564 0.28642 0.30894 -0.04323 -0.1016 -0.029584 0.054925 
-0.48665 -0.12379 0.049664 0.19895 0.043416 0.045553 0.016288 0.14502 
-0.024323 -0.29396 -0.010676 0.10129 0.11115 0.14338 0.090274 0.18794 
0.21424 -0.44917 -0.082854 0.016616 0.14272 0.16097 0.075312 0.16393 
0.17741 -0.52529 -0.083676 -0.019884 0.15604 0.1373 0.090438 0.091096 
0.15423 -0.17641 -0.023994 -0.0047575 0.18383 0.15324 0.080244 0.033387 
0.098166 0.12612 -0.043395 -0.018075 0.14157 0.16344 0.088136 0.027796 
0.1493 0.29102 -0.11196 -0.049807 0.057062 0.10277 0.080738 0.01826 
0.33098 0.47139 -0.021363 -0.0064016 -0.046847 -0.039942 0.01974 -0.010019 
0.53945 0.58565 0.18876 0.14601 -0.11705 -0.10357 -0.017746 -0.021856 
0.65602 0.6016 0.19862 0.20142 -0.098638 -0.084827 -0.015444 0.12842 
0.49983 0.30434 0.11346 0.16558 -0.063618 -0.046354 0.012013 0.22 
0.2246 0.0019835 0.11115 0.14815 -0.0060728 -0.033201 0.047033 0.19731 
0.099481 0.1391 0.19632 0.22476 0.032236 0.019411 0.06594 0.061008 
0.16262 0.35268 0.27853 0.28626 0.044402 0.041772 0.065118 -0.079566 
0.2024 0.2565 0.23693 0.27688 0.027139 -0.004593 0.035031 -0.2185 
0.16294 0.12825 0.1636 0.22608 -0.014129 -0.054739 0.00033937 -0.20304 
0.18761 0.38967 0.23216 0.25255 -0.074633 -0.087129 -0.0036066 -0.09946 
-0.018568 0.61064 0.35284 0.32621 -0.024652 -0.040435 -0.0055795 -0.13958 
-0.63561 0.18481 0.35284 0.37076 0.039963 0.021056 0.017932 -0.3252 
-0.92399 -0.54288 0.14206 0.26702 0.1003 0.073832 0.042758 -0.26009 
-0.76616 -1.0069 -0.28147 -0.049314 0.11642 0.087314 0.072681 0.07301 
-0.48649 -1.0731 -0.53746 -0.32273 0.09833 0.10984 0.094877 0.30878 
-0.27407 -0.899 -0.6486 -0.49537 0.11543 0.10293 0.092411 0.3027 
-0.10341 -0.5881 -0.69036 -0.59303 0.076792 0.052623 0.059035 0.047197 
0.14881 -0.12708 -0.67425 -0.63627 -0.044217 -0.035338 0.026481 -0.13333 
0.36978 0.15127 -0.57593 -0.53861 -0.058192 -0.028104 0.016288 -0.10669 
0.37652 0.27047 -0.35266 -0.39031 -0.0026201 -0.043066 0.032236 -0.062796 
0.32555 0.16952 -0.34279 -0.33819 -0.015444 0.01004 0.02533 0.004943 
0.41203 0.12727 -0.30235 -0.29643 -0.03057 0.017932 0.025495 0.16031 
0.36731 0.029112 0.075476 -0.047012 -0.079072 -0.0073881 0.055254 0.2343 
-0.014129 -0.20633 0.39625 0.24745 -0.079895 -0.010512 0.075641 0.17363 
-0.71338 -0.55439 0.24269 0.28362 -0.10439 -0.023336 0.066269 -0.051287 
-1.0261 -0.75596 0.022371 0.14272 -0.10143 -0.053095 -0.013307 -0.28788 
-0.50162 -0.39902 0.21178 0.22296 0.025001 0.031907 -0.0049219 -0.34509 
0.27902 0.10688 0.49407 0.42634 0.12365 0.079094 0.058542 -0.14829 
0.57612 0.40233 0.48865 0.48898 0.16574 0.08156 0.073832 -0.013471 
0.3415 0.44031 0.25091 0.34807 0.1054 0.016945 0.0227 -0.0138 
0.18942 0.34413 -0.020048 0.15653 0.05624 0.025495 0.042265 0.057555 
0.14733 0.22986 -0.25088 -0.064933 0.073832 0.036182 0.063803 0.10902 
0.16048 0.16804 -0.32339 -0.19285 0.069558 0.06479 0.10178 0.14848 
0.14617 0.14157 -0.23494 -0.18857 0.081395 0.034537 0.089616 0.17248 
0.14683 0.15028 -0.012978 -0.05441 0.092247 0.06479 0.077121 0.19287 
0.05476 0.18629 0.20224 0.12102 0.058213 0.051472 0.057884 0.055582 
-0.065097 0.21474 0.38194 0.31092 0.043909 0.02681 0.024837 -0.07973 
-0.17328 0.17281 0.43521 0.41417 0.038812 0.0069159 0.02533 -0.066741 
-0.1598 0.045718 0.25896 0.3364 0.033551 0.032729 0.040456 0.040785 
0.12529 0.030263 0.10408 0.22328 0.050814 0.047691 0.062981 0.17445 
0.50723 0.25107 0.22131 0.25173 0.043909 0.073997 0.10096 0.25222 
0.69318 0.44508 0.40052 0.36073 0.045882 0.084848 0.12283 0.25978 
0.44459 0.32144 0.28445 0.3364 0.0075736 0.033058 0.097508 0.22148 
-0.11508 -0.15552 -0.039284 0.14585 0.0024767 -0.028269 0.026974 0.055582 
-0.91347 -0.66455 -0.27703 -0.087458 0.011026 -0.081539 -0.058521 -0.28163 
-1.2689 -0.74922 -0.15388 -0.092061 0.018918 -0.086471 -0.096829 -0.35808 
-0.68362 -0.40412 0.032564 0.016616 0.047362 -0.014622 -0.021199 -0.15733 
0.30993 0.015465 0.1026 0.08567 0.065447 0.050321 0.037332 0.2075 
1.009 0.12612 0.069722 0.097179 0.011026 0.064296 0.045553 0.39214 
0.86483 0.039634 -0.17904 -0.023172 -0.045368 0.0051074 0.020562 0.15292 
0.44064 0.068736 -0.70697 -0.4273 -0.042244 0.028619 0.012835 -0.0965 
0.36994 0.3244 -1.0126 -0.75728 0.084848 0.12036 0.097015 0.09685 
0.35169 0.63169 -0.70335 -0.67096 0.32078 0.26833 0.18761 0.33229 
0.35761 0.90248 0.0324 -0.19811 0.35235 0.27968 0.19632 0.43176 
0.32933 0.89738 0.75122 0.39608 0.23644 0.19402 0.14601 0.39904 
0.089452 0.62561 1.11 0.8788 0.072517 0.010862 0.07038 0.33591 
-0.1182 0.28954 1.1353 1.0467 -0.042901 -0.076442 0.018425 0.20635 
-0.081539 -0.023501 0.82175 0.92237 -0.10045 -0.12889 -0.049807 -0.047505 
-0.025802 -0.14023 0.48947 0.67279 -0.14829 -0.12527 -0.090581 -0.13826 
-0.24497 -0.1404 0.29135 0.43291 -0.12001 -0.10209 -0.069701 -0.09091 
-0.36269 -0.27933 0.079587 0.23578 0.0098754 -0.055068 -0.03353 0.02681 
-0.16227 -0.27522 -0.18068 0.032564 0.064625 0.00033937 -0.029748 0.016288 
-0.050958 -0.23428 -0.37979 -0.19548 0.062488 0.025988 -0.029255 -0.02646 
-0.043559 -0.1427 -0.41415 -0.30103 0.040292 0.022371 -0.058521 -0.049642 
0.14963 0.23956 -0.25795 -0.24102 0.056569 0.01152 -0.0047575 -0.030899 
0.42749 0.57332 -0.11656 -0.12922 0.11543 0.068736 0.040128 0.10935 
0.37323 0.44853 -0.062467 -0.071345 0.11592 0.10293 0.076956 0.23479 
-0.0004827 0.071859 -0.14681 -0.10472 0.049335 0.057884 0.060844 0.23068 
-0.025638 0.015301 -0.20288 -0.12708 -0.0034422 -0.01939 0.028454 0.10935 
0.32982 0.33443 -0.033859 -0.037147 0.026317 0.016452 0.047855 0.053445 
0.37389 0.29678 0.031578 0.032236 0.090603 0.077121 0.077778 0.052294 
0.070215 -0.14632 -0.047341 0.0080668 0.12036 0.086163 0.058213 0.02681 
-0.093705 -0.36647 -0.14073 -0.066084 0.049828 0.042758 0.01563 -0.03912 
-0.064768 -0.26338 -0.20814 -0.13382 0.0044497 0.0023123 0.0047785 -0.0027845 
-0.030406 -0.080223 -0.13481 -0.074633 -0.017253 0.0065871 0.0018191 0.093233 
0.0042853 0.13368 0.08567 0.054596 0.014643 -0.0078813 -0.00015387 0.13335 
0.036017 0.28872 0.23035 0.19895 0.064461 0.027303 0.016288 0.091753 
0.05772 0.31092 0.29431 0.28083 0.059857 0.029112 -0.016266 0.072188 
-0.13366 0.091753 0.26077 0.2828 0.060186 0.021713 -0.0070593 0.020398 
-0.39409 -0.18561 0.17478 0.23233 0.050321 -0.010676 -0.024323 -0.16095 
-0.50063 -0.41875 0.023686 0.15275 -0.047998 -0.046519 -0.072003 -0.30925 
-0.42089 -0.37633 0.061337 0.12776 -0.082032 -0.086142 -0.085156 -0.1187 
-0.20847 -0.11508 0.16985 0.18596 -0.055561 -0.052437 -0.036654 0.14453 
0.087643 -0.0055795 0.047691 0.12349 -0.010676 -0.0039354 0.01004 0.26242 
0.25929 -0.059507 -0.17953 -0.04619 0.022042 0.037168 0.017932 0.21539 
0.18448 0.039634 -0.17443 -0.089924 0.0031344 0.045224 0.011191 0.14404 
-0.048985 0.24745 0.085506 0.077943 0.036346 0.032236 0.010697 0.10343 
-0.21488 0.27261 0.32802 0.25946 0.097015 0.048841 0.084519 0.094548 
-0.096994 0.1174 0.36304 0.34544 0.070708 0.072517 0.090767 0.13467 
0.29563 0.18662 0.33541 0.36041 0.045718 0.071037 0.059693 0.011848 
0.39016 0.32539 0.2371 0.3027 -0.008539 0.025001 -0.001798 -0.27456 
0.33837 0.47698 0.22723 0.2759 -0.066084 -0.041422 -0.036325 -0.45903 
0.34676 0.57579 0.36419 0.38178 -0.10193 -0.093048 -0.0096899 -0.19318 
0.48059 0.62166 0.45905 0.45938 -0.096007 -0.074633 -0.0067304 0.20109 
0.33114 0.26077 0.17445 0.30319 -0.0138 -0.032872 -0.031886 0.22592 
-0.194 -0.45394 -0.36433 -0.094527 -0.046683 -0.034352 -0.075291 -0.027118 
-0.32947 -0.58234 -0.55489 -0.34263 -0.0078813 0.028125 -0.026953 -0.032543 
-0.35726 -0.48682 -0.41513 -0.36006 0.081395 0.12053 0.051472 0.012835 
-0.72555 -0.62969 -0.21406 -0.23691 0.16442 0.15818 0.0786 -0.02087 
-0.76386 -0.6731 -0.043888 -0.063782 0.24482 0.19369 0.10162 -0.049642 
-0.37469 -0.48254 0.0324 0.021549 0.23677 0.16212 0.1031 -0.086142 
0.030263 -0.084334 0.018589 0.03799 0.099645 0.073504 0.066763 -0.19219 
0.44426 0.54948 0.19665 0.16146 -0.0050863 0.00297 0.051636 -0.091075 
0.85085 0.97877 0.61064 0.44804 -0.040928 -0.046025 0.031249 0.18761 
0.88094 0.86976 0.8423 0.71094 -0.056877 -0.018404 0.031414 0.33311 
0.55474 0.43456 0.63284 0.70699 -0.03353 0.020727 0.051965 0.30072 
0.079916 -0.090746 0.1904 0.40562 0.025824 0.05065 0.071695 0.14502 
-0.25927 -0.40757 -0.18643 0.066598 0.046375 0.041278 0.040292 0.024837 
-0.47169 -0.47728 -0.29856 -0.12807 0.033387 0.02122 0.019083 -0.13382 
-0.76764 -0.33737 -0.25746 -0.18183 -0.039449 -0.0036066 -0.0091966 -0.23921 
-0.449 -0.012814 -0.10472 -0.11935 -0.076771 -0.014293 -0.00031829 -0.17197 
0.24005 0.2218 -0.0031133 0.009711 -0.028269 0.010369 0.025988 -0.071509 
0.42107 0.097344 0.19665 0.15028 0.017274 0.028125 0.02829 -0.047505 
0.29612 -0.086142 0.30598 0.27228 -0.0004827 0.0056006 0.012013 -0.10045 
0.034209 -0.21356 0.15637 0.21424 -0.032708 -0.014787 -0.001798 -0.1187 
-0.37485 -0.36926 -0.39573 -0.15191 -0.048985 -0.017253 0.0093821 -0.10505 
-0.54551 -0.46758 -0.87566 -0.57494 -0.024652 -0.035832 -0.022021 -0.069536 
-0.26256 -0.26239 -0.93567 -0.66652 -0.0095255 0.0046141 -0.066084 -0.016431 
0.29793 0.30631 -0.43815 -0.41349 0.041607 0.018589 -0.035338 0.16919 
0.6506 0.68595 0.08863 0.052623 0.034702 0.022371 0.044238 0.33624 
0.70568 0.69219 0.25798 0.086328 -0.039778 -0.029091 0.078765 0.3563 
0.58302 0.44031 0.05213 -0.17328 -0.093541 -0.043066 0.029276 0.19895 
0.44409 0.35087 -0.25286 -0.36597 0.035031 0.05065 0.056898 0.080409 
0.12644 0.29694 -0.30202 -0.23247 0.20142 0.17939 0.11658 -0.040764 
-0.74166 -0.10357 -0.00081153 0.11247 0.20668 0.17758 0.094548 -0.28278 
-1.4348 -0.59944 0.31273 0.29349 0.085835 0.051965 -0.017582 -0.45788 
-1.0489 -0.64975 0.43127 0.33657 0.031907 -0.0032777 -0.019555 -0.22474 
-0.23938 -0.41481 0.28099 0.26028 0.069393 0.05624 0.035031 0.18152 
0.23989 -0.27768 -0.098967 0.04506 0.051308 0.071531 0.094548 0.33837 
-0.016924 -0.44078 -0.51691 -0.15224 -0.0098543 0.069722 0.075476 0.18514 
-0.50852 -0.67704 -0.82699 -0.22803 -0.038791 0.034866 0.0324 -0.25302 
-0.22261 -0.59254 -0.76829 -0.1404 -0.058521 0.0019835 0.00017495 -0.36762 
0.49934 -0.0080457 -0.38998 -0.020048 -0.041093 -0.025309 -0.0050863 -0.091568 
0.88259 0.86861 0.0067515 0.042594 -0.01117 -0.008539 0.0056006 0.21917 
0.76191 1.2071 0.22624 0.049992 0.019576 -0.01117 0.010204 0.34742 
0.54258 0.87124 0.3392 0.063968 0.016616 0.011848 0.026152 0.36731 
0.35695 0.43521 0.3706 0.099316 0.0093821 0.028125 0.038155 0.38244 
0.21523 0.16146 0.39608 0.17429 0.019247 0.06035 0.042758 0.35399 
-0.0042642 -0.17673 0.32374 0.10852 0.010533 0.043251 0.025001 0.20668 
-0.29265 -0.42303 0.18136 -0.11722 -0.006566 -0.018239 -0.0060728 -0.12001 
-0.47432 -0.37847 0.1248 -0.24529 -0.0078813 -0.024323 -0.044217 -0.42418 
-0.30021 0.0028056 0.070873 -0.19827 -0.039449 -0.02498 -0.024652 -0.5054 
-0.22869 0.25025 -0.10028 -0.15059 -0.052273 -0.051615 -0.016102 -0.27999 
-0.25878 0.19336 -0.033037 -0.099953 -0.081539 -0.062302 -0.01939 -0.071674 
-0.31303 -0.16276 -0.034023 -0.012649 -0.093048 -0.061151 -0.024323 -0.00064712 
-0.13432 -0.42516 -0.24234 0.070215 -0.036654 -0.0073881 -0.0024557 0.050979 
0.14831 -0.29988 -0.31533 0.0013258 -0.020377 0.0083956 0.040456 0.21194 
0.38277 0.21293 -0.15635 0.016616 -0.037147 0.043087 0.073504 0.30796 
0.6603 0.82997 0.30253 0.26817 0.10063 0.10047 0.10852 0.28198 
0.73938 1.1193 0.70469 0.48947 0.19221 0.17676 0.12349 0.087314 
0.51775 0.92599 0.65832 0.41532 0.2103 0.16344 0.12628 -0.024158 
0.32851 0.71192 0.49095 0.23923 0.1784 0.12595 0.12069 0.0689 
0.34528 0.6233 0.40989 0.19632 0.12628 0.079258 0.083368 0.19681 
0.19501 0.25617 0.27425 0.1299 0.058542 0.024837 0.012177 0.24318 
0.047526 -0.20205 0.14831 0.032236 0.022206 -0.03205 -0.009361 0.17856 
-0.19054 -0.49915 0.087808 -0.051122 0.023028 -0.017746 0.0056006 0.0019835 
-0.33063 -0.55965 -0.068879 -0.10045 0.027632 0.014479 0.069722 -0.051944 
-0.0021268 -0.37979 -0.31862 -0.15799 -0.015116 0.027303 0.06742 0.066105 
0.49473 -0.2157 -0.46232 -0.22441 -0.070523 -0.017253 0.0016547 0.11132 
0.57677 -0.14303 -0.13727 -0.1838 -0.072167 -0.027282 -0.0055795 0.10573 
0.26061 -0.34592 0.37718 0.055582 -0.026296 -0.0073881 0.03092 0.10573 
-0.52644 -0.85921 0.38556 0.17051 0.023028 0.0054362 -0.0096899 -0.22885 
-1.1772 -0.96773 -0.0062372 0.085341 -0.026296 -0.055726 -0.066248 -0.64663 
-1.0517 -0.10784 -0.039942 0.10622 -0.0039354 -0.037969 -0.050958 -0.53433 
-0.80249 0.63185 0.25288 0.16475 0.048184 0.013821 0.0060938 -0.097816 
-0.42171 0.68775 0.37339 0.26028 0.1105 0.039305 0.071859 0.23249 
0.25929 0.33689 0.22937 0.31322 0.08008 0.044073 0.052459 0.28954 
0.81846 0.15719 -0.20419 0.075148 0.030592 0.025659 0.036182 0.23446 
0.98699 0.39559 -0.45887 -0.13908 0.051965 0.089123 0.082217 0.22904 
0.90248 0.6968 -0.24973 -0.089102 0.08863 0.1368 0.10803 0.23233 
0.87469 0.95756 0.29628 0.14321 0.014479 0.079094 0.084684 0.23529 
0.90199 0.85414 0.71439 0.2708 -0.065591 -0.021856 0.030263 0.24663 
0.62774 0.38194 0.67411 0.19813 -0.039284 -0.065755 -0.00081153 0.14831 
0.096357 -0.16095 0.35317 0.021713 0.017603 0.00017495 0.0060938 -0.056383 
-0.3104 -0.56278 0.061172 -0.045861 0.099152 0.038977 0.025659 -0.16243 
-0.60355 -0.80085 -0.16605 -0.034023 0.089123 0.043745 -0.010512 -0.24529 
-0.94668 -0.89276 -0.4005 -0.051944 0.086821 0.012999 -0.050629 -0.2402 
-1.1828 -0.53664 -0.42335 -0.021363 0.12036 0.059693 -0.032543 -0.20452 
-0.91101 -0.15487 -0.25516 -0.0029489 0.098001 0.067585 -0.034516 -0.11179 
-0.042737 0.11115 0.0059294 0.045718 0.080738 0.034866 -0.0055795 0.053938 
0.4288 0.16886 0.16574 0.13039 0.06035 0.047691 0.01563 0.24071 
0.4288 0.060515 0.12694 0.11378 0.056404 0.054103 0.048019 0.23446 
0.38638 0.0021479 -0.08384 -0.0064016 0.031742 0.0088889 0.015465 0.16442 
0.2851 0.061995 -0.24957 -0.068221 -0.011334 -0.0013048 0.037332 0.040128 
0.19566 0.1516 -0.1866 -0.0021268 -0.042573 -0.0004827 0.01563 -0.026624 
0.16492 0.14404 0.021713 0.050321 -0.023829 0.016452 -0.0072237 0.024837 
0.16656 0.17791 0.14996 0.058706 -0.027118 0.00297 -0.01528 0.10425 
0.068407 0.18563 0.12151 0.0060938 -0.038627 -0.053917 -0.047012 0.14206 
-0.14237 0.14404 0.087314 -0.087786 -0.026953 -0.01939 -0.047176 0.047033 
-0.32602 0.076627 0.14338 -0.10291 0.010204 0.052294 -0.036983 -0.031228 
-0.36038 0.057062 0.20273 -0.050136 0.044402 0.051472 -0.014787 -0.13596 
-0.06 0.29694 0.067913 -0.096994 0.050486 0.037497 0.025824 -0.14171 
0.44228 0.58664 -0.014293 -0.066577 0.073997 0.050814 0.047855 0.049828 
0.42732 0.40365 0.18202 0.10589 0.096521 0.062817 0.054596 0.2417 
0.29513 -0.094199 0.27803 0.17626 0.066105 0.046375 0.043416 0.25354 
0.18284 -0.3908 0.17922 0.1807 0.048841 0.023357 0.021384 0.18563 
-0.19005 -0.50573 0.03388 0.12233 0.01974 -0.001798 -0.0073881 -0.048985 
-0.50474 -0.3571 0.020398 0.10096 0.048184 0.012835 0.014643 -0.21406 
-0.36022 -0.093705 0.027139 0.10935 0.061337 0.018754 0.012342 -0.26913 
0.29119 0.099974 -0.051615 0.11017 0.026317 0.025166 0.022042 -0.13218 
0.6432 0.25913 -0.25187 0.040785 0.0056006 0.07301 0.061172 0.0044497 
0.47402 0.11428 -0.6389 -0.17032 -0.0072237 0.056569 0.064461 -0.021692 
0.23611 -0.003771 -0.8066 -0.29856 -0.03353 0.035031 0.070544 -0.010183 
0.084684 0.019083 -0.46824 -0.33802 0.0227 0.011026 0.056404 0.024344 
-0.13892 0.20142 0.11066 -0.24234 0.013492 -0.016102 0.013986 0.047197 
-0.15437 0.48931 0.5965 0.00099702 -0.014951 -0.028104 -0.020706 0.050979 
0.22 0.76043 0.85825 0.19188 0.028783 0.016452 0.03947 0.20569 
0.5942 0.68496 0.81123 0.3124 0.058213 0.044238 0.078107 0.40134 
0.42157 0.072846 0.42453 0.29645 0.020562 0.0085601 0.035853 0.37389 
-0.015773 -0.49701 -0.019884 0.15883 -0.013307 -0.035174 -0.00081153 0.20619 
-0.30974 -0.63742 -0.23132 0.085835 -0.010348 -0.047176 -0.036489 -0.049971 
-0.71683 -0.71174 -0.3109 -0.03764 -0.023336 -0.062467 -0.05885 -0.34526 
-0.96099 -0.62575 -0.26601 -0.12725 -0.027282 -0.041257 -0.057699 -0.43634 
-0.56261 -0.10045 -0.14796 -0.12494 0.055418 0.033222 0.0056006 -0.20912 
-0.04882 0.52811 -0.04471 -0.07003 0.14157 0.1026 0.098823 0.058871 
0.28198 0.78065 0.080902 -0.075949 0.11181 0.12612 0.14108 0.22592 
0.52959 0.5582 0.30007 0.0051074 0.087479 0.093069 0.12809 0.27327 
0.54685 0.2195 0.41598 0.13713 0.080902 0.091918 0.11937 0.086821 
0.24597 -0.099624 0.35054 0.1465 0.060844 0.041936 0.11214 -0.10489 
-0.18052 -0.59122 0.13516 0.1909 0.0051074 -0.0034422 0.036182 -0.13892 
-0.44999 -0.81663 -0.28854 0.14141 -0.08532 -0.015773 0.010533 -0.13021 
-0.31254 -0.45739 -0.62986 0.013986 -0.063946 -0.052766 0.023028 -0.04323 
0.097508 0.1955 -0.68198 -0.076113 -0.01676 0.014479 0.086657 0.18267 
0.63152 0.80071 -0.39639 -0.10078 -0.00031829 0.0092177 0.094548 0.44064 
0.8594 0.97466 0.14404 -0.023994 0.020069 0.02533 0.084026 0.50427 
0.6552 0.61196 0.30746 0.074654 0.010204 0.0059294 0.078272 0.32703 
0.25091 0.12414 0.09833 0.085177 0.015465 0.004943 0.052294 0.016945 
0.045882 -0.11228 -0.13662 0.038977 0.074819 0.024673 0.019576 -0.20879 
-0.38373 -0.19959 -0.046519 0.028454 0.16294 0.11477 0.035031 -0.22918 
-0.86596 -0.27029 0.11954 0.030098 0.21457 0.14486 0.082546 -0.17986 
-0.75004 -0.37403 0.096193 0.049499 0.11954 0.08715 0.058377 -0.047505 
-0.30481 -0.45032 -0.19761 0.014479 0.027303 0.029441 0.035524 -0.07973 
-0.019719 -0.21241 -0.51395 -0.05589 -0.0082102 -0.0077169 0.0083956 -0.29643 
-0.20715 -0.12757 -0.39902 -0.14007 -0.073811 -0.048492 -0.00031829 -0.41448 
-0.42763 -0.30892 0.078107 -0.033694 -0.11672 -0.069536 -0.0067304 -0.17082 
-0.26206 -0.35529 0.33147 0.096028 -0.076113 -0.055397 -0.01676 0.12776 
0.038812 -0.15799 0.32654 0.077121 -0.032215 -0.013307 0.00083261 0.3683 
0.26948 0.25041 0.26883 0.042429 0.035524 0.0095465 0.028125 0.54422 
0.21983 0.29793 0.085012 0.031249 0.040292 -0.0016336 0.054267 0.52104 
0.1835 0.15571 0.037332 0.017438 0.025001 0.01415 0.042265 0.21868 
-0.017088 0.082711 0.061172 0.010204 0.038977 0.069722 0.077121 -0.15996 
-0.31287 0.2297 0.14206 0.02533 0.079916 0.1054 0.078436 -0.31024 
-0.043066 0.53797 0.32029 0.1026 0.14272 0.11165 0.059693 -0.064275 
0.47287 0.57234 0.44031 0.21523 0.14881 0.08008 0.070051 0.18383 
0.59124 0.36024 0.30631 0.23348 0.076463 0.06183 0.025659 0.25781 
0.40661 0.22476 0.065612 0.086492 -0.065426 -0.057205 -0.004593 0.25748 
-0.11755 -0.12034 -0.10078 -0.098967 -0.14122 -0.099789 -0.063124 -0.0059084 
-0.66521 -0.44522 -0.13678 -0.19531 -0.11097 -0.091897 -0.094692 -0.3663 
-0.56196 -0.33243 -0.14023 -0.1746 -0.018404 -0.013636 -0.067235 -0.43996 
0.16541 0.060022 -0.036489 -0.03501 0.049664 0.053609 0.0054362 -0.14385 
0.63876 0.21654 -0.069043 0.026974 0.13565 0.10622 0.074326 0.14585 
0.35925 -0.0019624 -0.145 0.012177 0.14667 0.12135 0.080902 0.16788 
-0.15059 -0.14632 -0.084827 0.051636 0.042429 0.05213 0.053116 -0.064933 
-0.45492 -0.061809 -0.049971 0.0069159 -0.049478 -0.0090322 1.0539e-005 -0.26026 
-0.52019 0.18991 -0.099953 -0.082525 -0.034352 -0.0083746 -0.00015387 -0.18611 
-0.032872 0.37537 -0.11524 -0.10702 0.0011614 -0.0044286 0.010697 0.028947 
0.35383 0.26176 -0.066741 -0.013307 -0.013965 -0.00031829 0.021056 0.14765 
0.28198 -0.10061 0.071366 -0.011827 -0.0090322 -0.044217 0.0060938 0.16442 
0.14996 -0.24497 0.14585 0.099481 -0.02498 -0.033859 -0.001798 0.22986 
0.11674 -0.079237 0.2976 0.22378 0.01152 -0.0075525 -0.010019 0.21523 
0.27672 0.16114 0.54307 0.47073 0.035031 0.034537 -0.0050863 0.19451 
0.36583 0.35991 0.70896 0.64435 0.089452 0.045224 0.039963 0.16212 
0.26406 0.42995 0.64418 0.6672 0.12546 0.043251 0.023357 0.072681 
0.019083 0.42436 0.3729 0.50164 0.085835 0.033715 -0.0059084 -0.040271 
-0.32092 0.2754 0.15127 0.30664 0.050157 0.028619 -0.021034 -0.15964 
-0.35003 0.06479 -0.16029 0.032236 0.019576 -0.00081153 -0.012485 -0.17476 
0.2172 0.095042 -0.57856 -0.31073 0.031085 0.05624 0.056076 0.024508 
0.93059 0.40907 -0.75103 -0.53105 0.090109 0.14371 0.10655 0.21786 
0.91399 0.35761 -0.65715 -0.57116 0.067585 0.15374 0.10244 0.26389 
0.39839 -0.066741 -0.22984 -0.32997 0.0227 0.05065 0.049006 0.14075 
-0.46133 -0.59402 0.19928 0.022206 -0.0062372 -0.033859 0.0047785 -0.092554 
-1.2671 -1.0651 0.40398 0.27179 -0.010676 -0.07825 -0.070194 -0.24645 
-1.3122 -1.0098 0.40989 0.37405 -0.024652 -0.084827 -0.092554 -0.26831 
-0.57116 -0.50014 0.00033937 0.18711 -0.086471 -0.082525 -0.12116 -0.17756 
0.25255 -0.023501 -0.40395 -0.15372 -0.096172 -0.057699 -0.082525 -0.092719 
0.74612 0.34429 -0.30958 -0.21077 0.0080668 0.052459 0.04654 0.16163 
0.70091 0.37307 0.043416 -0.013143 0.15933 0.17429 0.11329 0.34347 
0.045553 0.15308 0.29037 0.18514 0.18563 0.16788 0.1026 0.29744 
-0.42253 0.2999 0.43045 0.34676 0.13006 0.073997 0.047855 0.087808 
0.19122 0.8645 0.52005 0.50805 0.099974 0.03536 0.042594 0.066105 
1.2027 1.2805 0.47846 0.51561 0.10935 0.073832 0.089123 0.25978 
1.218 0.9763 0.24959 0.3757 0.13565 0.085999 0.073668 0.30171 
0.37339 0.34824 0.081067 0.21506 0.13615 0.035524 0.024015 0.051636 
-0.11607 -0.059507 0.082382 0.15489 0.077285 0.043416 -0.008539 -0.30432 
0.086821 -0.0022913 0.12053 0.14338 0.024837 0.025824 0.0059294 -0.39113 
0.50542 0.38425 -0.0088678 0.094713 0.073504 0.057062 0.056404 0.022042 
0.44097 0.14634 -0.49093 -0.24447 0.098001 0.091589 0.098001 0.40792 
-0.13859 -0.73854 -0.86415 -0.60257 0.028947 0.070708 0.086328 0.31832 
-0.90361 -1.483 -0.64005 -0.59204 -0.066248 -0.011498 0.022864 0.10474 
-1.4748 -1.5672 -0.3303 -0.40675 -0.157 -0.11607 -0.075291 -0.11574 
-1.2929 -0.75169 -0.076442 -0.19433 -0.20863 -0.1746 -0.1473 -0.22984 
-0.39524 0.39806 0.22033 0.10326 -0.10669 -0.074469 -0.082854 -0.062138 
0.21737 0.80679 0.53419 0.40348 0.040456 0.058049 0.034537 0.25715 
0.6358 0.57973 0.56181 0.52581 0.1271 0.11576 0.11494 0.41187 
1.0268 0.21704 0.31519 0.41417 0.12546 0.090931 0.09422 0.34824 
1.01 0.11642 0.073668 0.22624 0.08008 0.10162 0.074654 0.1202 
0.51463 0.14848 -0.08828 0.043251 0.048348 0.057227 0.039963 -0.11343 
-0.13316 0.038319 -0.16934 -0.036818 0.021384 0.055418 0.022864 -0.33671 
-0.41892 -0.035667 -0.091075 -0.012814 0.10754 0.077778 0.065118 -0.40116 
-0.38702 -0.15602 -0.15783 -0.071838 0.13384 0.10819 0.085999 -0.37354 
-0.32799 -0.073811 -0.085813 -0.062631 0.032071 0.043745 0.048019 -0.23099 
-0.0060728 0.15801 0.14091 0.089945 -0.080717 -0.033694 -0.0057439 0.12184 
0.29727 0.053445 0.06479 0.083697 -0.11294 -0.099624 -0.00081153 0.30862 
0.29069 -0.2134 -0.24497 -0.10193 -0.053424 -0.067235 -0.019719 0.31437 
0.1807 -0.13004 -0.25878 -0.13843 0.03947 -0.0016336 0.010862 0.062981 
0.0052718 0.14321 0.020398 -0.0036066 0.09833 0.060679 0.013657 -0.019061 
-0.18035 0.22509 0.25765 0.18415 0.10704 0.084026 0.080902 0.15292 
-0.26272 0.18317 0.28724 0.26784 0.065118 0.088301 0.080573 0.24926 
-0.37715 -0.06148 0.23331 0.24696 0.036675 0.06479 0.059693 0.073832 
-0.22935 -0.14911 0.24548 0.2611 0.065776 0.029769 0.035853 0.016616 
0.18037 0.06183 0.30648 0.33821 0.04506 0.009711 0.0069159 0.077778 
0.27129 -0.058356 0.25025 0.30746 0.0070803 -0.0054151 0.0042853 -0.01939 
-0.23296 -0.59681 0.033222 0.16179 -0.022021 -0.011992 -0.021034 -0.26848 
-0.60339 -0.96723 -0.32076 -0.11738 -0.06296 -0.056055 -0.047998 -0.26256 
-0.49405 -0.63594 -0.45344 -0.30448 -0.081868 -0.089924 -0.060494 -0.1746 
-0.094363 0.099645 -0.44095 -0.36285 -0.074469 -0.016431 -0.041586 -0.33079 
0.31848 0.55244 -0.19367 -0.21406 -0.044217 -0.0050863 0.029441 -0.37995 
0.86861 0.83458 0.15259 0.050486 0.025495 0.013164 0.061008 -0.023336 
1.0565 0.98978 0.47566 0.34331 0.060515 0.069558 0.11872 0.40513 
0.66523 0.89952 0.59322 0.51824 0.093398 0.10967 0.14338 0.41828 
-0.15914 0.45609 0.32703 0.41187 0.10573 0.090603 0.13187 0.24433 
-0.88618 -0.028597 0.043087 0.1904 0.083862 0.074161 0.11313 0.056569 
-0.89456 -0.17049 0.042594 0.12957 0.057391 0.048348 0.08567 0.014479 
-0.3931 -0.085156 0.14075 0.17297 0.016781 0.024179 0.062488 -0.055561 
-0.024323 -0.17673 0.049335 0.12069 -0.05441 -0.040435 -0.013307 -0.088937 
0.33065 -0.18298 -0.077922 0.024015 -0.088773 -0.10193 -0.060823 -0.010019 
0.46004 -0.050793 -0.15109 -0.056219 -0.11557 -0.13053 -0.10867 -0.049642 
0.15703 0.01974 -0.10801 -0.063946 -0.046847 -0.059672 -0.11064 -0.12922 
-0.13037 -0.11853 -0.039449 -0.018733 0.033387 0.0026412 -0.069865 -0.13925 
0.012506 -0.090088 -0.075127 0.0023123 0.081395 0.056569 0.021384 0.016781 
0.54159 0.3558 -0.17756 -0.076442 0.15226 0.12628 0.095699 0.25436 
0.77062 0.78969 -0.22557 -0.14303 0.13105 0.14782 0.11642 0.37027 
0.63876 0.83803 -0.082032 -0.084005 0.032071 0.054267 0.060844 0.30138 
0.39115 0.76191 0.33328 0.19106 -0.058521 -0.050136 0.017767 0.27162 
-0.1838 0.28132 0.56675 0.44261 -0.053424 -0.085813 0.0070803 0.069064 
-0.86694 -0.46347 0.33755 0.42042 -0.034352 -0.057699 -0.035832 -0.35085 
-0.6024 -0.48748 0.083697 0.23611 0.0036276 -0.015444 -0.028104 -0.46528 
0.37833 0.10145 0.30187 0.32802 0.029769 0.10425 0.053116 -0.0014692 
0.73626 0.22953 0.64747 0.56181 0.20586 0.18892 0.11444 0.42157 
0.15374 -0.27736 0.75714 0.69285 0.17248 0.15456 0.059693 0.42666 
-0.67425 -0.6412 0.51249 0.58105 0.10162 0.030592 -0.016266 0.1927 
-0.71256 -0.42812 0.16492 0.37849 0.11625 0.0059294 0.013657 -0.11771 
-0.40428 0.05213 0.01711 0.18284 0.07449 0.019247 0.040292 -0.33474 
-0.10028 0.40957 -0.20666 -0.029584 0.0060938 0.043909 0.072846 -0.28278 
0.070873 0.40102 -0.71256 -0.43634 -0.054246 0.038483 0.049664 -0.068057 
0.19237 0.27803 -1.0973 -0.82124 -0.094692 -0.0060728 0.020727 0.076134 
0.32128 0.29924 -1.1437 -0.99469 -0.077757 -0.036489 0.011026 0.16146 
0.48174 0.30237 -0.78506 -0.82189 -0.056548 -0.012649 -0.011005 0.18859 
0.4704 0.11066 -0.19153 -0.39491 -0.039284 -0.034352 0.0052718 0.16262 
0.09126 -0.24924 0.15456 -0.036489 -0.014951 -0.051451 -0.019555 -0.0077169 
-0.18956 -0.46923 0.16064 0.10129 0.0060938 -0.036983 -0.049971 -0.095678 
-0.0042642 -0.20041 0.20536 0.19024 0.0324 0.0039565 -0.046519 -0.03353 
0.064132 0.05624 0.20454 0.21737 0.073175 0.022535 0.016288 0.071366 
0.13072 0.17577 0.20865 0.2371 0.084848 0.063803 0.055089 0.16426 
0.071695 -0.018404 0.15587 0.22772 0.080573 0.064625 0.070051 0.1567 
0.0046141 -0.21603 0.077614 0.1613 0.081724 0.066927 0.036675 0.11083 
0.17626 -0.11048 0.11609 0.16048 0.061501 0.047197 0.045553 0.071859 
0.42058 0.29332 0.23479 0.23545 0.11674 0.046704 0.092411 0.1368 
0.49868 0.5702 0.36205 0.33065 0.081231 0.079094 0.0689 0.14864 
0.22887 0.44968 0.42255 0.40825 0.07301 0.08567 0.024179 0.089616 
-0.3229 0.039799 0.41318 0.46185 0.030098 0.020727 -0.0031133 -0.037476 
-0.74084 -0.5197 0.24449 0.35103 -0.014951 -0.029091 -0.029748 -0.11459 
-0.79888 -0.77471 -0.046354 0.12644 -0.049807 -0.060987 -0.032379 -0.17887 
-0.51822 -0.32142 -0.2568 -0.081045 -0.10275 -0.05885 -0.036654 -0.093212 
-0.044381 0.15916 -0.26864 -0.1723 -0.086142 -0.037311 -0.014622 0.040785 
0.21161 0.02533 -0.26124 -0.20682 -0.021363 0.017274 0.046375 0.11658 
0.26702 -0.49274 -0.44259 -0.3035 0.055582 0.082875 0.096521 0.076956 
0.24252 -0.56196 -0.52661 -0.40856 0.13943 0.13664 0.10787 0.06479 
0.028783 -0.3931 -0.30876 -0.31007 0.14667 0.14321 0.084848 0.018918 
-0.12692 -0.15158 0.062159 -0.053095 0.12085 0.065612 0.048348 -0.080881 
-0.056712 0.16081 0.16837 0.098659 0.048184 -0.014129 -0.0019624 -0.16243 
0.066105 0.59108 0.049664 0.071366 -0.040271 -0.049642 -0.021199 -0.19844 
0.088136 0.95657 0.13023 0.14453 -0.095349 -0.069208 -0.0082102 -0.039284 
0.33969 1.1914 0.5628 0.43752 -0.013471 0.0079024 0.067256 0.21457 
0.70074 1.044 0.86335 0.72804 0.084026 0.10819 0.13878 0.4311 
0.76092 0.53025 0.61327 0.67345 0.18991 0.16969 0.16985 0.36271 
0.45412 -0.27982 -0.064768 0.23381 0.26044 0.20882 0.16294 0.1909 
-0.060329 -1.0489 -0.57067 -0.24809 0.14552 0.099645 0.077614 -0.039942 
-0.57248 -1.2893 -0.45985 -0.34394 -0.038627 -0.078086 -0.037147 -0.17525 
-0.87122 -0.96921 -0.19745 -0.20271 -0.19498 -0.14517 -0.068221 -0.30235 
-0.83373 -0.33063 -0.31139 -0.25154 -0.21192 -0.13596 -0.058521 -0.3104 
-0.32388 0.29448 -0.78441 -0.5705 -0.099789 -0.041751 -0.021034 -0.15635 
-0.056219 0.27902 -0.71289 -0.6241 -0.036983 0.050486 0.036017 0.013328 
0.013657 0.012013 0.024508 -0.19778 -0.0011404 0.017603 0.037497 0.11247 
0.31601 0.34429 0.93059 0.53222 0.023193 -0.022514 0.033222 0.13549 
0.46678 0.69186 1.2369 1.0051 0.0065871 -0.03764 0.0227 0.1322 
0.45577 0.62774 0.86565 0.92353 -0.03205 -0.03501 0.010369 0.081395 
0.64731 0.59683 0.50082 0.68529 -0.013143 0.062323 0.055254 0.18284 
0.71225 0.73708 0.52942 0.62511 0.11115 0.099152 0.090767 0.13039 
0.014808 0.44409 0.42732 0.52433 0.17659 0.10425 0.079094 -0.14961 
-0.79756 -0.15964 0.10096 0.27491 0.13434 0.084026 0.04095 -0.38258 
-0.93271 -0.5271 -0.28788 -0.026953 0.095042 0.070051 0.033387 -0.28706 
-0.64334 -0.5927 -0.47942 -0.27604 0.08567 0.051636 0.049335 -0.077922 
-0.42829 -0.54634 -0.41382 -0.32717 0.039305 1.0539e-005 0.00050378 0.079422 
-0.19696 -0.33917 -0.25565 -0.2568 -0.0032777 -0.018897 -0.0052507 0.17807 
0.30894 0.14519 -0.041915 -0.10571 -0.025474 0.0041209 0.013986 0.25896 
0.74579 0.51528 0.096357 0.029769 0.0069159 0.068736 0.033387 0.30829 
0.91037 0.69663 0.15176 0.1465 0.046375 0.055418 0.05624 0.26554 
0.85102 0.77424 0.32687 0.28182 0.059693 0.070544 0.08304 0.23085 
0.64057 0.60949 0.41779 0.38901 0.068407 0.076299 0.082217 0.14058 
0.30993 0.034373 0.32687 0.36846 0.045882 0.042265 0.049006 0.13368 
-0.14698 -0.75366 0.059528 0.1853 -0.04619 0.0093821 0.011191 0.044731 
-0.62147 -1.2328 -0.14747 -0.0078813 -0.052931 -0.010019 -0.0032777 -0.048327 
-1.0843 -1.4848 -0.38291 -0.21291 -0.058192 -0.037147 -0.00015387 -0.24727 
-1.3541 -1.3283 -0.58497 -0.39787 -0.066906 -0.08532 -0.072989 -0.50638 
-1.6111 -0.78375 -0.62131 -0.50507 -0.13399 -0.15848 -0.1353 -0.57593 
-1.2896 0.10129 -0.42105 -0.42204 -0.16358 -0.1741 -0.16703 -0.31024 
-0.13464 0.75451 -0.036818 -0.15322 -0.080059 -0.084334 -0.092226 0.032236 
1.3318 1.24 0.23282 0.11148 0.065283 0.05065 0.056898 0.3581 
1.6363 1.2974 0.28839 0.24005 0.14058 0.12266 0.11707 0.45823 
1.0868 0.97318 0.071037 0.18317 0.099316 0.11263 0.070873 0.36337 
0.62446 0.54471 -0.1113 0.021384 0.059035 0.05772 0.025824 0.29349 
0.38704 0.26159 -0.081045 -0.0078813 0.075312 0.061501 0.045882 0.17922 
0.09274 0.04358 0.16064 0.12842 0.099152 0.076627 0.071531 -0.026789 
-0.22425 -0.35463 0.25847 0.23331 0.096357 0.075476 0.058542 -0.37913 
-0.10669 -0.59106 0.14683 0.19221 0.088958 0.061995 0.039141 -0.49011 
0.38869 -0.18956 0.14946 0.21589 0.092411 0.061501 0.058542 -0.19104 
0.54356 0.25485 0.26044 0.27409 0.10277 0.058213 0.059693 -0.0021268 
0.3563 0.38046 0.22213 0.26866 0.045553 0.07301 0.047197 -0.03616 
0.14387 0.25748 0.13565 0.20865 0.022206 0.028125 0.037168 0.12612 
0.0023123 0.12168 0.11181 0.16821 0.083862 0.037826 0.042923 0.42617 
-0.25483 -0.19975 0.060515 0.11346 0.074161 0.0098754 0.035853 0.50493 
-0.48419 -0.28919 0.049499 0.11444 0.058049 0.023028 0.0087245 0.26505 
-0.56541 -0.089595 0.035195 0.086163 0.049499 0.017767 -0.0068948 -0.098309 
-0.60388 0.18942 -0.0073881 0.056076 0.029276 -0.019884 -0.015116 -0.32471 
-0.55752 0.26603 0.00050378 0.051472 0.018589 -0.04323 -0.040271 -0.24727 
-0.11064 0.20224 0.12595 0.12365 0.010533 -0.029091 -0.026296 0.024673 
0.7379 0.28938 0.33673 0.28773 0.011026 0.012342 0.016288 0.27392 
1.3114 0.45248 0.47171 0.44064 0.095864 0.072188 0.091589 0.34758 
1.074 0.48931 0.60834 0.57382 0.12201 0.095864 0.095371 0.22197 
0.39263 0.41384 0.79413 0.74086 0.15703 0.10244 0.089945 0.049006 
-0.046519 0.14979 0.46497 0.58796 0.15522 0.080573 0.073504 -0.052437 
-0.093541 -0.38981 -0.48123 -0.066741 0.062981 0.047033 0.062159 -0.0026201 
-0.0082102 -0.66751 -1.1678 -0.72949 -0.038791 0.045882 0.059857 0.027961 
-0.014787 -0.45361 -1.303 -1.0568 -0.083347 0.034044 0.047033 0.05476 
0.058871 0.038483 -1.328 -1.1644 -0.10653 0.005765 0.028454 -0.068714 
0.12233 0.33147 -1.1048 -1.0924 -0.052437 0.014643 0.021056 -0.21126 
0.093233 0.37487 -0.68066 -0.80627 -0.008539 0.022864 0.0080668 -0.29906 
0.027961 0.30056 -0.11656 -0.35627 -0.030077 -0.02646 -0.031392 -0.13152 
-0.16753 -0.11163 0.50542 0.19073 -0.009361 -0.042244 -0.014129 0.009711 
-0.45903 -0.52085 0.87897 0.62643 0.033222 -0.045368 0.0031344 -0.0067304 
-0.52414 -0.42418 0.97466 0.8885 0.03388 -0.011498 0.005765 -0.042408 
-0.3446 -0.036983 1.0253 0.99455 0.035524 -0.0098543 0.0065871 -0.004593 
-0.042737 0.23446 0.87404 0.93816 0.0036276 -0.046025 0.0052718 0.12053 
0.25239 0.48372 0.53057 0.70288 -0.050958 -0.050958 0.0036276 0.16919 
0.4579 0.70387 0.32884 0.48618 -0.042901 -0.025967 0.011355 0.23414 
0.40973 0.45018 0.096521 0.26587 0.03536 0.041936 0.023357 0.23644 
0.23282 0.11905 -0.21751 0.023193 0.12316 0.08156 0.040621 0.21589 
0.11773 -0.040928 -0.44292 -0.23822 0.10359 0.077943 0.053609 0.19879 
0.11494 -0.011992 -0.38159 -0.29265 0.07597 0.057555 0.072517 0.17445 
0.13203 0.12546 -0.045039 -0.10587 0.076134 0.091096 0.08419 0.12447 
-0.045039 0.088794 0.23496 0.12414 0.12003 0.11181 0.088301 0.07301 
-0.63101 -0.31714 0.2657 0.22049 0.13795 0.10145 0.075641 -0.025802 
-0.77767 -0.60914 0.13894 0.20043 0.092247 0.066598 0.06035 -0.01939 
-0.04471 -0.42829 0.058049 0.13664 0.045882 0.046046 0.042594 0.095206 
0.63514 -0.047341 -0.04471 0.046375 -0.028433 -0.018239 0.018754 0.080738 
0.42107 0.2366 -0.14796 -0.053424 -0.13415 -0.11903 -0.057699 -0.084827 
0.29645 0.55129 -0.3372 -0.21027 -0.14878 -0.109 -0.059178 -0.18857 
0.65273 0.62939 -0.63709 -0.46002 -0.079895 0.019247 0.00099702 -0.047176 
0.56296 0.11592 -0.64268 -0.54387 -0.070687 0.030098 0.045882 0.18662 
-0.046683 -0.55341 -0.32158 -0.36186 -0.051944 0.039634 0.043251 0.27688 
-0.48189 -0.71289 0.1373 -0.018897 -0.022021 0.014315 0.0090533 0.12003 
-0.44193 -0.3229 0.37372 0.24647 0.047526 0.028619 0.037332 -0.12725 
-0.47745 0.011848 0.26801 0.2759 0.050979 -0.0060728 0.025001 -0.17213 
-0.65666 0.12085 0.19336 0.23331 0.0042853 -0.027118 -0.0024557 -0.12083 
-0.54716 0.21572 0.16673 0.20898 -0.0087034 -0.023172 -0.0067304 -0.12231 
-0.30432 0.40266 -0.055726 0.098823 -0.0024557 0.010697 -0.016431 -0.042408 
0.20717 0.58746 -0.25795 -0.092719 0.031907 0.024015 0.043416 0.14469 
0.48059 0.5457 -0.17443 -0.10735 0.070544 0.034044 0.051636 0.25913 
0.54833 0.45708 0.30385 0.18547 0.10984 0.090767 0.081395 0.34742 
0.54833 0.34495 0.70009 0.51907 0.11017 0.096193 0.077285 0.26817 
0.22115 -0.11738 0.63399 0.60242 0.061666 0.03947 0.075312 0.12694 
-0.34345 -0.94126 0.12809 0.34544 0.0046141 -0.0004827 0.032236 -0.094363 
-0.69562 -1.6303 -0.33276 -0.053095 -0.035174 -0.042573 -0.041257 -0.19054 
-0.70056 -1.5861 -0.52315 -0.31073 -0.049478 -0.072825 -0.059836 -0.23494 
-0.57281 -0.85593 -0.38406 -0.3206 -0.054739 -0.069372 -0.050958 -0.20222 
-0.25286 0.11033 -0.10571 -0.15799 -0.027611 -0.035996 -0.013143 -0.15536 
0.34627 0.76256 0.10655 0.025166 0.053938 0.030756 0.034866 0.016123 
1.0003 1.1636 0.31864 0.25732 0.12053 0.11773 0.092576 0.2292 
1.0449 1.1501 0.38457 0.3609 0.14848 0.14486 0.09833 0.29102 
0.56313 0.78509 0.37191 0.39049 0.11378 0.11066 0.097672 0.1544 
0.10787 0.33985 0.28708 0.34676 0.050814 0.04917 0.044567 0.024344 
-0.11015 -0.182 0.092904 0.20405 0.023028 0.015301 0.0052718 -0.033859 
-0.34937 -0.51608 -0.16687 -0.013307 0.025988 -0.017582 -0.017746 -0.1011 
-0.44407 -0.48731 -0.29577 -0.15552 0.038155 -0.0083746 -0.0087034 -0.10719 
-0.26913 -0.16292 -0.19548 -0.13563 0.01004 0.010369 0.026481 -0.085485 
-0.12741 0.12053 -0.053917 -0.059014 -0.0083746 0.00050378 0.012835 -0.029255 
-0.18611 0.17478 0.023686 0.020562 0.013164 -0.0004827 -0.016595 0.0052718 
-0.13218 0.084026 0.11017 0.10145 0.053938 0.031249 0.014479 0.099974 
0.20092 0.10096 0.16771 0.15785 0.16377 0.14815 0.092411 0.1562 
0.36616 0.26948 0.1927 0.20767 0.14141 0.14864 0.12842 0.17067 
0.41861 0.25304 0.16229 0.23134 0.040456 0.050157 0.07301 0.088136 
0.27047 -0.023007 0.12677 0.19205 -0.022679 -0.026131 0.0051074 -0.098638 
-0.07266 -0.15552 0.039799 0.12332 -0.036325 -0.02942 -0.045696 -0.23839 
-0.22672 -0.15914 -0.14484 -0.018897 0.022864 0.014479 -0.0068948 -0.20534 
-0.17147 -0.31731 -0.35019 -0.20501 0.053116 0.023851 0.027468 -0.047669 
-0.12264 -0.46857 -0.4033 -0.31024 0.0026412 0.0047785 0.014643 0.067091 
-0.24266 -0.50096 -0.20699 -0.18791 -0.040928 -0.003771 0.00033937 0.13828 
-0.26913 -0.43585 0.012506 -0.036325 -0.028597 0.024508 -0.020048 0.13039 
-0.2134 -0.35627 0.020069 0.027796 0.00083261 -0.0049219 0.0059294 0.090603 
-0.32717 -0.01939 0.1738 0.13927 0.041114 -0.033037 0.0036276 -0.039449 
-0.19137 0.36731 0.31157 0.26718 0.036675 0.028783 0.0092177 -0.087458 
0.18826 0.44179 0.38852 0.35136 0.046375 0.024344 0.016123 -0.066906 
0.46958 0.44278 0.366 0.41516 0.038155 0.029605 0.0092177 0.01974 
0.48684 0.52614 0.34396 0.40151 0.085012 0.056076 0.041772 0.039963 
0.37553 0.46168 0.19073 0.29563 0.073668 0.077614 0.061666 0.1105 
0.22049 0.32259 -0.17591 0.020233 0.0046141 0.042265 0.052459 0.087643 
0.030263 0.34018 -0.39524 -0.21767 -0.082032 -0.022679 0.045718 0.017932 
0.014972 0.4094 -0.25582 -0.21915 -0.051122 -0.001798 0.056733 0.049664 
0.19599 0.26718 -0.023994 -0.054082 0.022206 0.070051 0.069722 0.20701 
0.4117 0.22641 0.34512 0.22575 0.076134 0.091425 0.091096 0.31832 
0.44442 0.42371 0.81863 0.6118 0.08978 0.065118 0.080738 0.20273 
0.049828 0.33065 0.96446 0.8423 0.041772 0.016123 0.031085 -0.0067304 
-0.45377 -0.26683 0.59749 0.70255 -0.038462 -0.041915 -0.021692 -0.16523 
-0.26042 -0.43042 0.2662 0.43637 -0.074798 -0.059836 -0.063124 -0.19975 
0.18794 -0.034023 0.094713 0.18859 -0.022514 -0.0060728 -0.047505 -0.097322 
0.067256 0.19829 -0.13892 0.037661 0.058871 0.026646 -0.013965 0.004943 
-0.41464 0.055089 -0.44571 -0.24151 0.09422 0.065776 0.029934 -0.0062372 
-0.44785 0.0056006 -0.62871 -0.4301 0.1197 0.10408 0.042429 0.077614 
0.037168 0.31782 -0.69661 -0.56311 0.091096 0.060844 0.051308 0.22328 
0.51726 0.59355 -0.59155 -0.54699 0.064296 0.058213 0.057062 0.29645 
0.93207 0.7042 -0.37173 -0.41415 0.062817 0.074326 0.063803 0.23841 
0.81978 0.59897 -0.23642 -0.24957 0.051308 0.076792 0.09833 0.14683 
0.48553 0.24564 -0.034516 -0.091075 0.04654 0.079094 0.093233 0.058377 
0.22148 -0.042573 0.33558 0.1955 0.014808 0.055582 0.062817 0.019083 
0.091589 -0.13958 0.61459 0.11346 -0.021199 -0.014951 -0.0057439 -0.085649 
-0.48583 -0.38488 0.57743 0.088465 -0.049478 -0.081868 -0.040764 -0.27538 
-1.1363 -0.71322 0.28856 0.064132 -0.041093 -0.078579 -0.039613 -0.34411 
-1.0205 -0.68231 0.023357 0.014315 -0.0014692 -0.0011404 -0.0026201 -0.24168 
-0.53318 -0.43897 -0.029584 0.0069159 0.057884 0.077449 0.05065 -0.077264 
-0.18298 -0.25911 0.032236 0.033222 0.062817 0.039305 0.031414 0.050486 
0.18267 -0.13875 0.085506 0.0019835 0.035195 0.018589 0.028947 0.2172 
0.64977 0.10902 0.0421 -0.05885 0.011848 0.0065871 0.026646 0.37931 
0.83112 0.3221 -0.018239 -0.015938 0.0013258 0.027468 0.034702 0.44031 
0.57217 0.32555 -0.033365 0.12266 -0.014951 -0.0054151 0.007738 0.2759 
0.1539 0.14141 0.040785 0.15933 -0.05326 -0.027447 -0.028762 0.034373 
-0.14402 -0.045532 0.069229 0.065118 -0.040435 -0.034516 -0.023665 -0.096007 
-0.23921 0.051965 -0.027611 -0.066906 0.0028056 -0.019719 -0.01528 -0.098638 
-0.10653 0.23381 -0.0039354 -0.16588 0.019905 0.0082312 -0.00015387 -0.070687 
-0.080059 0.08419 -0.024816 -0.20732 0.024508 0.012013 0.0075736 -0.031557 
-0.20863 -0.10669 -0.12527 -0.20173 0.0019835 0.0090533 0.0031344 -0.16375 
-0.21011 -0.033859 -0.20814 -0.1838 0.034209 0.045718 0.015794 -0.34131 
0.053938 0.2588 -0.39343 -0.29199 0.082053 0.067091 0.021056 -0.22244 
0.34117 0.40858 -0.40543 -0.2231 0.098494 0.084848 0.072846 0.057884 
0.47188 0.43275 -0.093541 -0.041586 0.094877 0.087808 0.10836 0.28494 
0.42239 0.3849 0.32391 0.22953 0.083697 0.058542 0.09981 0.37652 
0.29234 0.20947 0.64139 0.55359 0.063474 0.0082312 0.063639 0.37619 
-0.078579 -0.32438 0.7134 0.6312 0.050321 -0.016595 0.013821 0.24301 
-0.58941 -0.98581 0.15555 0.42173 -0.0073881 -0.032708 -0.016924 0.025988 
-0.84277 -1.0391 -0.63002 0.22624 -0.053095 0.031907 0.0054362 -0.30843 
-0.4056 -0.37436 -1.0753 -0.038791 -0.02942 0.03388 0.017767 -0.30383 
0.19303 0.11428 -1.0253 -0.30563 -0.0032777 0.0095465 0.043251 0.023522 
0.1128 0.020233 -0.59615 -0.4056 0.01711 0.01152 0.056898 0.15867 
-0.1182 -0.15141 -0.13645 -0.40938 0.028619 -0.0080457 1.0539e-005 0.029112 
0.12875 -0.026789 0.25617 -0.27604 0.025166 -0.0067304 0.02533 0.023357 
0.49473 0.23282 0.56412 0.00050378 0.064954 0.036182 0.040128 0.085177 
0.60637 0.39263 0.70584 0.17429 0.085012 0.07038 0.058542 0.079422 
0.54143 0.4972 0.72836 0.25502 0.088958 0.079258 0.044731 0.020398 
0.43291 0.52005 0.63465 0.24712 0.077943 0.033387 0.045553 -0.09798 
0.34331 0.44196 0.40546 0.22542 0.068078 0.031907 0.047197 0.061172 
0.052294 0.36468 0.15308 0.19369 0.046868 0.0421 0.039963 0.11839 
-0.29528 0.32243 -0.074962 0.10228 0.029769 0.037497 0.041607 0.071366 
-0.3857 0.34133 -0.24908 -0.033037 0.0070803 0.014315 0.019247 0.065447 
-0.32602 0.30434 -0.27144 0.00050378 0.049499 0.01152 0.042594 0.091918 
-0.18578 0.34627 0.050321 0.13976 0.06594 0.041772 0.045882 0.063968 
0.032071 0.37964 0.26324 0.16097 0.04358 0.02533 0.017932 -0.10439 
0.066763 0.015794 0.17363 0.071531 -0.023172 -0.065097 -0.038791 -0.44851 
-0.038462 -0.60059 -0.072003 -0.07973 -0.12363 -0.1233 -0.070852 -0.46528 
0.047691 -0.75843 -0.13333 -0.12856 -0.13727 -0.11442 -0.036325 0.032893 
0.35876 -0.38554 -0.059507 -0.055726 -0.039613 -0.030735 0.014643 0.35465 
0.47747 0.27129 0.02829 0.047855 0.074819 0.065776 0.051636 0.23775 
0.024344 0.47977 -0.071509 0.031742 0.17692 0.11905 0.087479 -0.038133 
0.04095 0.54734 -0.29133 -0.032872 0.23348 0.18744 0.12414 0.034044 
0.30927 0.56691 -0.27851 0.036346 0.21293 0.16558 0.13121 0.10162 
0.18662 0.1299 -0.012649 0.17659 0.11724 0.10145 0.085177 0.13779 
-0.10637 -0.41645 0.25156 0.29924 -0.004593 0.035195 0.055582 0.12036 
-0.24266 -0.69365 0.28889 0.27672 -0.00081153 0.057884 0.066763 0.12677 
-0.36614 -0.88601 0.099316 0.060679 -0.028597 0.035524 0.044402 0.045224 
-0.47005 -0.98121 -0.11755 -0.10028 -0.013143 -0.011334 -0.0036066 -0.086636 
-0.49241 -0.61753 -0.0004827 -0.069208 0.031249 -0.098144 -0.040764 -0.19153 
-0.26864 0.18662 0.24104 0.073339 0.0037921 -0.058521 -0.05178 -0.15421 
0.19928 0.682 0.37076 0.25206 -0.01232 -0.020706 0.0013258 0.02122 
0.41532 0.66589 0.34232 0.29974 0.033058 -0.043395 0.027468 0.11921 
0.24844 0.44426 0.33772 0.14404 -0.011005 -0.017253 0.034537 -0.079237 
0.13467 0.49161 0.36304 0.18794 0.0018191 0.01152 0.027796 -0.20715 
0.15883 0.52893 0.37109 0.1396 0.051143 0.029934 0.035524 -0.0047575 
0.12217 0.27014 0.23364 0.0421 0.045553 0.030098 0.040785 0.091753 
0.052787 0.07449 0.095864 0.013164 0.04506 0.022535 0.021549 0.10228 
0.075312 -0.051615 0.098001 0.029934 0.066927 0.078272 0.017767 0.17314 
0.075148 -0.26272 0.070215 0.030592 0.066269 0.072188 -0.0064016 0.24778 
0.065118 -0.37074 0.043745 0.065447 0.041772 0.052294 -0.013636 0.18514 
0.051308 -0.28837 -0.036489 0.038483 -0.013636 0.01004 0.019083 0.097837 
-0.13201 -0.26009 -0.11985 -0.036654 -0.037805 -0.021363 1.0539e-005 -0.03057 
-0.3714 -0.25878 -0.077922 -0.032872 -0.087129 -0.089595 -0.056712 -0.11212 
-0.40297 -0.29265 0.00066819 0.013164 -0.085978 -0.109 -0.0503 -0.16227 
-0.46725 -0.24727 0.019247 0.042429 -0.044546 -0.046519 0.0034632 -0.07003 
-0.24365 0.0024767 -0.066577 0.0011614 0.069393 0.088958 0.072517 0.05772 
0.12118 0.12266 -0.27949 -0.11639 0.12398 0.17495 0.12316 0.0023123 
0.26324 0.083368 -0.28541 -0.19186 0.088958 0.12546 0.10573 -0.11985 
0.26209 -0.078086 0.0075736 -0.038133 0.0098754 0.033222 0.045553 -0.059672 
0.018096 -0.17295 0.232 0.15456 -0.013143 0.018425 0.0039565 0.0079024 
-0.096829 -0.17246 0.082875 0.11181 0.017603 -0.012978 -0.023172 0.01267 
-0.095185 0.062981 -0.35858 -0.16769 0.027468 -0.0068948 -0.054246 0.066434 
0.090603 0.57184 -0.50244 -0.3109 0.037826 -0.016266 -0.045696 0.12743 
0.29645 0.8816 -0.040271 -0.10587 0.063145 0.021713 -0.0075525 0.17544 
0.36008 0.84066 0.47977 0.28806 0.054267 0.016452 0.012999 0.23496 
0.064954 0.40069 0.62067 0.5069 0.076956 0.038319 0.031907 0.23381 
-0.14434 -0.11607 0.45659 0.48339 0.053609 0.0075736 0.0067515 0.14404 
0.0024767 -0.23198 0.24762 0.35038 0.033715 0.025988 0.025001 0.079258 
0.05213 -0.24382 0.051801 0.21326 0.032564 0.023686 0.057391 -0.00031829 
-0.082196 -0.45394 -0.21751 -0.030242 -0.03501 -0.0406 0.045389 -0.033694 
-0.23938 -0.66965 -0.51871 -0.30859 -0.13185 -0.079072 -0.0050863 -0.033365 
-0.1575 -0.55752 -0.59615 -0.45739 -0.13678 -0.054904 -0.016266 0.011684 
0.055911 -0.24513 -0.48073 -0.4416 -0.0965 -0.011992 0.016616 0.13154 
0.1516 -0.019061 -0.32734 -0.352 -0.023829 0.037661 0.031085 0.14256 
0.11411 0.17149 -0.18282 -0.19794 0.019411 0.024508 0.017767 0.10622 
0.20405 0.60242 0.14535 0.047197 0.087643 0.078107 0.019247 0.053609 
0.27014 0.81205 0.39181 0.2828 0.10918 0.077449 0.0056006 -0.019719 
0.096028 0.73642 0.2976 0.31157 0.086163 0.026152 -0.017088 -0.081539 
0.066105 0.74826 0.39987 0.36616 0.10639 0.041607 -0.0064016 0.016452 
0.19994 0.75073 0.49621 0.46448 0.1271 0.086328 0.049664 0.1179 
0.29365 0.53551 0.50377 0.50953 0.13056 0.090109 0.070708 0.26291 
0.30566 0.050979 0.097508 0.29267 0.078272 0.057391 0.10047 0.2514 
0.19205 -0.37748 -0.42681 -0.13152 0.0028056 0.0085601 0.061501 0.15703 
-0.034845 -0.65288 -0.8311 -0.53548 -0.045696 0.0064227 0.031578 0.055418 
-0.24414 -0.67014 -0.74626 -0.62641 -0.040928 -0.014622 0.0059294 -0.049149 
-0.34181 -0.26174 -0.27604 -0.37798 -0.036983 -0.033859 0.0060938 -0.038791 
-0.20485 0.2218 0.1858 -0.0049219 -0.024323 -0.020048 0.051308 -0.048492 
0.22164 0.30566 0.38836 0.28214 0.021549 0.024015 0.070544 -0.0059084 
0.69959 0.13401 0.33837 0.33689 0.056404 0.048348 0.066763 0.031742 
0.52022 -0.016595 0.14996 0.24466 0.082053 0.050814 0.070873 0.019247 
-0.26124 -0.22392 -0.064768 0.075148 -0.0014692 -0.0083746 0.026646 -0.084169 
-0.85445 -0.35036 -0.1187 -0.023172 -0.038791 -0.019226 -0.0026201 -0.19022 
-0.5031 -0.076113 -0.0091966 0.0085601 -0.022679 -0.025967 -0.018404 -0.2208 
0.37274 0.45314 0.10293 0.11773 -0.020706 -0.018897 -0.029091 -0.12889 
0.79742 0.79249 0.15703 0.16738 0.036839 -0.039778 -0.020706 0.0067515 
0.5503 0.40957 0.029769 0.10935 0.04654 0.035031 0.030263 0.17051 
0.081231 -0.2739 -0.19235 -0.055397 0.027796 0.012835 0.018589 0.21572 
-0.27719 -0.60454 -0.29544 -0.18824 -0.036325 -0.03501 -0.017582 0.11855 
-0.24562 -0.26897 -0.14599 -0.1376 -0.03057 -0.031886 -0.023007 -0.07266 
-0.13316 0.14453 0.098823 0.053774 0.058377 0.064296 0.038483 -0.10472 
-0.10012 0.36649 0.40759 0.30697 0.17182 0.14026 0.10803 0.045224 
-0.0027845 0.3831 0.61837 0.52268 0.17528 0.14239 0.10606 0.17232 
0.317 0.25584 0.50312 0.52597 0.15193 0.10129 0.077778 0.2537 
0.6261 0.066763 0.22427 0.35416 0.087808 0.084519 0.077449 0.23594 
0.45675 -0.00081153 0.075641 0.19747 0.039141 0.053116 0.083697 0.11181 
0.048841 0.037826 0.23463 0.24992 -0.032543 0.01267 0.033551 -0.17377 
-0.16703 0.17166 0.40052 0.39164 -0.02646 -0.027118 -0.0080457 -0.29149 
-0.047998 0.35958 0.40759 0.42091 0.03536 0.0093821 0.023193 -0.27489 
0.17659 0.51479 0.38605 0.42584 0.10935 0.0592 0.048184 -0.053095 
0.35975 0.49539 0.31453 0.38244 0.10819 0.095042 0.096193 0.14141 
0.27886 0.19616 -0.003771 0.15259 0.055747 0.066434 0.069064 0.19616 
0.050157 0.012177 -0.15076 -0.0054151 0.071859 0.060186 0.038155 0.091425 
-0.38357 -0.23691 -0.13284 -0.026953 0.027961 0.028454 -0.014129 -0.16407 
-0.8186 -0.55867 -0.15552 -0.086471 -0.031721 -0.035338 -0.045861 -0.26667 
-0.47876 -0.61144 -0.26141 -0.17065 -0.031721 -0.01232 -0.00097594 -0.13711 
0.16327 -0.27489 -0.41924 -0.29939 -0.0049219 0.045553 0.055418 0.10343 
0.53847 0.18711 -0.53548 -0.40494 0.048841 0.072024 0.035031 0.16558 
0.45511 0.39855 -0.28327 -0.3058 0.10113 0.08156 0.07301 0.14437 
0.24647 0.28214 0.066434 -0.021528 0.11296 0.06183 0.052459 0.02122 
0.021878 0.011684 0.16459 0.11263 0.093069 0.037497 0.027139 0.0069159 
-0.17953 0.082382 -0.030406 0.039963 0.067585 -0.010183 -0.011005 -0.11475 
-0.084663 0.44064 -0.039449 0.018918 0.0054362 -0.0075525 -0.028762 -0.10472 
0.015137 0.90363 0.30944 0.24301 -0.026624 -0.051944 -0.031557 -0.0013048 
-0.10078 0.85151 0.43554 0.36715 -0.051451 -0.035667 -0.019061 0.069722 
-0.28508 0.43127 0.3563 0.39871 0.00066819 0.023028 0.012999 0.094384 
-0.094363 -0.089102 0.29119 0.36008 0.03536 0.046046 0.023851 0.10737 
0.19533 -0.67622 0.12349 0.23874 0.056569 0.067913 0.027468 0.090274 
0.042758 -1.0961 -0.099624 0.057884 0.046868 0.062159 0.050157 0.10655 
-0.50507 -1.1284 -0.10883 -0.018075 0.020069 0.032729 0.044731 0.043745 
-0.70023 -0.73344 -0.0032777 0.010533 0.011191 0.013328 0.0018191 -0.19597 
-0.44226 -0.55061 -0.11278 -0.041751 -0.0052507 -0.026624 -0.043559 -0.18331 
0.034373 -0.44341 -0.31254 -0.16983 -0.029091 -0.045861 -0.046519 -0.026789 
0.34216 -0.21981 -0.41974 -0.29248 0.0031344 -0.003771 0.00033937 0.087643 
0.18678 -0.18035 -0.47646 -0.37831 0.0051074 0.012342 0.0090533 0.051636 
-0.15043 -0.25697 -0.46232 -0.40083 -0.028926 0.007738 0.010862 0.01974 
-0.25401 -0.15026 -0.27768 -0.31073 -0.0068948 0.0079024 0.0011614 0.013821 
-0.096994 0.22312 -0.016595 -0.10423 0.032236 0.033551 0.070708 0.13171 
0.15226 0.52581 0.16327 0.11461 0.047362 0.050979 0.052459 0.23923 
0.19928 0.64073 0.26932 0.24318 0.12299 0.090274 0.059364 0.13483 
0.073339 0.63942 0.35695 0.33953 0.14733 0.11214 0.057391 -0.11919 
0.020398 0.54323 0.37915 0.38129 0.058871 0.039141 0.019247 -0.1108 
0.062159 0.2953 0.39164 0.40069 -0.035503 -0.036818 0.021549 0.068571 
0.10918 0.051472 0.30122 0.36008 -0.070852 -0.028926 0.010862 0.18267 
0.10819 -0.24628 -0.023501 0.16969 -0.042079 0.017274 0.028454 0.18021 
-0.0088678 -0.46594 -0.18101 -0.021692 -0.026624 0.041278 0.045718 -0.0024557 
-0.18907 -0.43601 -0.081374 -0.025474 -0.010348 0.017932 0.050486 -0.048492 
-0.59023 -0.5511 0.030756 0.038648 0.0059294 0.00050378 0.024508 0.036346 
-1.0827 -0.85182 -0.065919 -0.010512 -0.0047575 -0.043395 -0.017253 0.043745 
-0.72966 -0.50063 -0.0060728 0.0098754 0.029441 -0.039449 -0.040928 -0.18907 
0.29957 0.65898 0.32687 0.26258 0.049335 -0.0072237 -0.039942 -0.26305 
1.2769 1.4196 0.32489 0.32588 0.063474 0.016945 0.0062583 0.028454 
1.7032 1.2205 0.005765 0.15144 0.054103 0.030592 0.054925 0.40924 
1.4898 0.69269 -0.37995 -0.15799 0.0056006 0.019247 0.069558 0.53057 
0.8257 0.34216 -0.33441 -0.24612 -0.038133 0.011848 0.073175 0.35893 
0.032729 -0.15076 -0.066248 -0.1113 -0.080552 -0.0075525 0.03536 0.01974 
-0.62443 -0.7165 -0.080552 -0.057205 -0.093541 -0.032872 0.0067515 -0.19153 
-1.1621 -0.88273 -0.22622 -0.13053 -0.039778 -0.043724 -0.033201 -0.24858 
-0.99305 -0.26042 -0.00064712 -0.014787 0.0065871 -0.02235 -0.025802 -0.20551 
-0.2693 0.3318 0.293 0.2024 0.03092 0.052787 0.0088889 -0.05178 
0.12431 0.012506 0.22723 0.23693 0.053774 0.095699 0.077943 -0.017746 
0.083697 -0.6149 0.10622 0.17758 0.074654 0.14141 0.089287 -0.013965 
-0.093376 -0.82025 0.059364 0.13269 0.10326 0.050979 0.058706 -0.041915 
-0.21307 -0.56278 -0.080552 0.053445 0.061995 0.012342 0.029934 -0.013471 
-0.15503 -0.048163 -0.11327 -0.022514 0.01826 -0.0004827 0.010533 0.005765 
0.016945 0.55606 0.13187 0.10425 -0.0059084 0.0046141 0.016123 -0.0082102 
0.26965 0.99011 0.3586 0.28856 0.01267 -0.011498 0.01152 0.010862 
0.6432 1.2006 0.42798 0.38967 0.025166 0.0062583 0.00099702 0.10244 
0.87617 1.2711 0.30894 0.34955 0.0689 0.030756 0.050157 0.17741 
0.86483 1.1022 0.12908 0.26389 0.076463 0.065612 0.09126 0.21852 
0.52581 0.60538 0.0090533 0.13384 0.12168 0.066763 0.082217 0.15176 
0.14897 0.038319 -0.042737 0.049335 0.044896 0.058377 0.043745 0.055747 
-0.086307 -0.35595 -0.097487 -0.025802 0.019411 0.023193 0.010369 0.012999 
-0.21998 -0.5146 0.013986 0.019905 -0.0014692 -0.0021268 0.010204 0.0014903 
-0.21784 -0.43108 0.18218 0.13417 -0.029748 -0.0077169 0.013328 0.011848 
-0.013636 -0.13777 0.18366 0.20997 -0.01939 0.013328 0.00083261 0.018425 
0.16738 0.26143 0.23808 0.25781 0.024837 0.064461 0.018096 0.060022 
0.2389 0.51496 0.24778 0.2805 0.092082 0.058542 0.050979 0.092247 
0.30122 0.49046 0.18925 0.24976 0.10343 0.063639 0.030592 0.076463 
0.24745 0.17462 0.11231 0.18333 0.079258 0.040456 0.038319 0.044402 
0.092904 -0.13349 0.066598 0.12381 0.063474 0.033387 0.031249 0.042758 
-0.097651 -0.27867 0.096357 0.14256 0.07597 0.025001 0.013492 0.022535 
-0.23609 -0.1575 0.069229 0.1225 0.00083261 0.016452 0.049335 0.014479 
-0.43158 0.10359 -0.28475 -0.1136 -0.032215 0.034209 0.052294 0.015959 
-0.27785 0.33574 -0.58875 -0.37995 0.01267 0.031907 0.058871 0.08304 
0.17873 0.43768 -0.39458 -0.35381 0.053281 0.06479 0.079916 0.20158 
0.50756 0.38162 0.085835 -0.058356 0.091096 0.098659 0.071531 0.18892 
0.46563 0.18366 0.3073 0.20487 0.081889 0.07038 0.031249 0.12217 
0.23874 -0.10439 -0.011334 0.10195 0.02829 0.01267 0.038155 0.077943 
0.083204 -0.43848 -0.43437 -0.20929 0.03388 0.0085601 0.025001 0.04654 
-0.3326 -0.98614 -0.64646 -0.4495 -0.0032777 -0.0039354 0.0088889 -0.034188 
-0.6902 -0.86892 -0.38439 -0.37255 -0.02942 -0.019061 -0.02794 0.012999 
-0.53581 -0.38669 -0.034516 -0.13974 -0.060329 -0.042079 -0.042408 -0.0070593 
-0.21586 -0.2938 0.28494 0.14716 -0.026624 -0.042737 -0.056548 -0.15109 
-0.0088678 -0.19663 0.5771 0.46908 0.061995 0.0026412 -0.016431 -0.16786 
0.099316 0.26866 0.70091 0.63531 0.087808 0.044567 0.032564 0.00083261 
0.17149 0.74941 0.54619 0.60111 0.082217 0.050321 0.046704 0.10293 
0.24762 0.81057 0.32226 0.45494 0.10063 0.068242 0.10244 0.11905 
0.22164 0.67509 0.11543 0.26455 0.050979 0.094713 0.053445 0.13384 
0.042594 0.48618 -0.12379 0.041443 0.040128 0.060186 0.037661 0.14798 
-0.12938 0.2754 -0.35677 -0.15964 0.03388 0.013821 0.037168 0.13878 
-0.089595 0.15209 -0.34148 -0.24266 0.027468 0.040785 0.051636 0.059035 
0.098494 -0.06707 -0.3012 -0.25023 0.018096 0.031414 0.040785 -0.029748 
0.25387 -0.22935 -0.18249 -0.17838 0.049828 0.052952 0.037826 -0.24562 
0.20372 -0.40461 -0.042244 -0.073318 0.050814 0.037332 0.0072447 -0.30827 
0.058377 -0.39129 0.088465 0.043909 0.020562 0.0036276 0.019083 -0.1741 
-0.086636 -0.32076 0.13878 0.14157 -0.015773 -0.030735 0.031907 0.00017495 
-0.22902 -0.37633 -0.050629 0.044402 -0.038791 -0.023665 -0.023007 0.030098 
-0.29774 -0.40872 -0.18841 -0.072167 -0.0011404 -0.025638 -0.019555 0.059693 
-0.12429 -0.02498 0.060844 0.045553 0.067256 0.028619 -0.003771 0.11987 
0.15999 0.55754 0.50114 0.35991 0.13039 0.0592 0.036182 0.19599 
0.23627 0.8622 0.76585 0.6238 0.1322 0.075312 0.058377 0.17067 
0.13828 0.69384 0.63317 0.65257 0.039141 0.012999 0.016616 0.12562 
0.058213 0.30927 0.33147 0.4801 -0.0072237 0.0060938 0.014315 0.12529 
-0.017253 0.11198 0.0036276 0.20651 -0.013471 0.01415 0.015137 0.047033 
-0.057534 0.28675 -0.23 -0.033365 0.015301 0.042758 0.036017 -0.008539 
0.13927 0.60374 -0.27933 -0.15141 0.054103 0.037004 0.045882 -0.013636 
0.45675 0.65931 -0.11459 -0.10258 0.085012 0.079751 0.073504 0.11148 
0.65586 0.40069 0.16212 0.094713 0.1248 0.11231 0.10622 0.12069 
0.54241 0.019083 0.3147 0.27787 0.09126 0.088958 0.084355 0.012999 
0.056898 -0.4689 0.37668 0.35958 0.044238 0.012013 0.034209 -0.23017 
-0.54913 -1.1072 0.24597 0.30714 -0.0096899 -0.045861 -0.037805 -0.46742 
-0.85527 -1.6831 -0.17641 0.022535 -0.089595 -0.07562 -0.080552 -0.56524 
-0.81581 -1.4929 -0.53943 -0.31188 -0.14056 -0.13284 -0.11837 -0.42138 
-0.4005 -0.43256 -0.65025 -0.49422 -0.12116 -0.11146 -0.077593 -0.14139 
-0.16309 0.37011 -0.58991 -0.48008 -0.070852 -0.060823 -0.01939 0.098823 
-0.049314 0.82537 -0.18528 -0.25779 0.048348 0.036675 0.038483 0.26998 
0.08567 1.0636 0.45314 0.21194 0.13154 0.13894 0.094384 0.36172 
0.13993 0.88193 0.96003 0.69663 0.15472 0.15341 0.14075 0.37734 
0.49473 0.5337 1.0483 0.9255 0.17265 0.16985 0.13976 0.19435 
0.71735 0.19731 0.61821 0.73691 0.14502 0.12135 0.085177 -0.18824 
0.29004 -0.33934 -0.39886 0.070873 0.011355 0.01974 -0.022185 -0.46133 
-0.36795 -0.74692 -0.96789 -0.54617 -0.10982 -0.10225 -0.10094 -0.37617 
-0.96296 -0.8944 -0.58514 -0.52447 -0.18019 -0.1427 -0.093376 -0.20633 
-1.2952 -1.0785 -0.067235 -0.20912 -0.11705 -0.10012 -0.059178 -0.076771 
-0.74034 -0.90509 -0.091732 -0.12116 -0.077593 -0.046519 -0.029091 0.06331 
0.34906 -0.094856 -0.050629 -0.066577 -0.01117 -0.034516 0.0031344 0.24351 
0.71834 0.67279 0.03651 0.02681 -0.022021 -0.022021 0.025988 0.2024 
0.48421 0.82093 -0.076442 -0.011827 -0.03205 0.0018191 0.066927 0.087479 
0.49539 0.60801 -0.24677 -0.13201 -0.011334 -0.0064016 0.026646 0.14223 
0.71784 0.34216 -0.4028 -0.27325 0.064461 0.005765 0.080409 0.20931 
0.47073 0.14289 -0.36367 -0.30004 0.073832 0.032893 0.036346 0.17232 
0.026974 0.035853 0.030592 -0.093048 0.064461 0.048677 0.060844 0.12546 
-0.28064 -0.10538 0.35597 0.2121 0.096686 0.062159 0.083533 0.147 
-0.49372 -0.23543 0.3609 0.33821 0.07449 0.067256 0.059857 0.056569 
-0.3663 -0.13958 0.22312 0.2856 0.11181 0.077121 0.066763 0.0041209 
0.18087 -0.0078813 0.256 0.29168 0.086985 0.08304 0.070544 0.11296 
0.3392 -0.093705 0.12562 0.20306 0.045224 0.038319 0.059857 0.056898 
0.24153 -0.0078813 -0.12642 0.01152 0.027961 0.017603 0.02122 -0.1182 
0.19501 0.42436 -0.19301 -0.09091 0.037332 0.0013258 0.016123 -0.071674 
0.2782 0.7305 -0.0771 -0.024487 0.025988 0.012506 0.0014903 0.082546 
0.44607 0.71817 0.091425 0.072846 0.014315 0.0079024 0.038648 0.24943 
0.39164 0.44196 0.098001 0.11198 0.016781 0.023193 0.061008 0.27557 
0.17363 0.066434 0.038977 0.087643 -0.003771 0.01974 0.065776 0.22707 
-0.001798 -0.19301 0.081067 0.10376 -0.021363 0.027961 0.056404 0.21046 
-0.24464 -0.40313 0.18054 0.16689 -0.019555 0.042429 0.059857 0.2149 
-0.51756 -0.62657 -0.0077169 0.10606 0.020891 0.0059294 0.080573 0.14486 
-0.6782 -0.84771 -0.33112 -0.13875 0.041936 0.03092 0.039963 0.0026412 
-0.571 -1.0205 -0.46725 -0.31895 0.041443 0.035688 -0.00081153 -0.055561 
0.073832 -0.44128 -0.28031 -0.26059 0.041607 0.007738 -0.061151 -0.099953 
0.92139 0.67855 0.029769 -0.068879 -0.023829 -0.06707 -0.10439 -0.058028 
1.2055 1.0939 0.029769 0.0036276 -0.061809 -0.093376 -0.046683 0.098001 
0.51068 0.61327 -0.2231 -0.09387 0.015137 0.019411 0.026481 0.15752 
-0.37567 0.01267 -0.50079 -0.31994 0.074326 0.077778 0.047691 0.072188 
-0.63874 -0.25549 -0.55439 -0.43914 0.066598 0.078436 0.042429 0.090767 
-0.20419 0.037826 -0.16177 -0.23214 0.036675 0.048841 0.062323 0.17445 
0.05476 0.41943 0.28938 0.11231 0.028619 0.034373 0.052459 0.16623 
0.015137 0.75484 0.54406 0.38901 -0.0021268 0.0028056 0.0032988 0.064296 
0.24433 1.0805 0.82849 0.69992 0.040292 0.034537 0.044896 0.1516 
0.43275 0.8668 1.0294 0.93586 0.091753 0.077121 0.099645 0.25978 
0.50591 0.27031 0.99143 0.99241 0.094548 0.082053 0.099481 0.2223 
0.45873 -0.088115 0.7088 0.83145 -0.013965 -0.012156 -0.004593 0.049335 
-0.016266 -0.2203 0.35843 0.55672 -0.058356 -0.08269 -0.064604 -0.097487 
-0.13711 -0.10554 0.099152 0.29892 -0.033037 -0.083183 -0.058356 -0.061645 
-0.03353 0.01004 -0.037969 0.12661 -0.0032777 0.00066819 -0.01232 -0.12182 
0.065283 0.17051 -0.15224 0.011848 0.037826 0.068407 0.025166 -0.18972 
0.23611 0.29727 -0.2351 -0.10817 0.092247 0.11576 0.067913 -0.075127 
0.36731 0.29941 -0.33441 -0.21685 0.18662 0.1641 0.08567 0.10935 
0.25419 0.21161 -0.25253 -0.20929 0.23923 0.16475 0.10852 0.08715 
-0.1062 0.16508 0.11066 0.005765 0.20651 0.12792 0.088958 -0.15585 
-0.33375 0.1197 0.38589 0.23562 0.11313 0.041772 0.05065 -0.10702 
-0.34164 -0.029255 0.37603 0.36304 0.034537 0.02533 0.030592 -0.037311 
-0.039613 0.049499 0.41022 0.41006 0.018096 0.036017 0.028454 0.048019 
0.21145 0.1493 0.43472 0.45231 0.0082312 0.034537 0.049335 0.18152 
0.21572 0.0421 0.33788 0.40167 0.015465 0.050157 0.077614 0.22871 
-0.022514 -0.18298 0.38901 0.41121 0.047855 0.041772 0.064954 0.15423 
-0.26683 -0.48238 0.28971 0.34758 0.039305 0.048184 0.040456 0.019083 
-0.34098 -0.61407 -0.065591 0.13499 -0.038956 -0.01676 -0.0029489 -0.12198 
-0.39261 -0.55686 -0.50638 -0.23576 -0.11607 -0.10423 -0.049971 -0.24941 
-0.30892 -0.4227 -0.79181 -0.54749 -0.16605 -0.15059 -0.10702 -0.37715 
-0.10225 -0.24184 -0.70483 -0.60668 -0.14303 -0.12774 -0.10735 -0.30711 
0.010369 -0.11113 -0.36811 -0.4222 -0.034516 -0.061316 -0.060329 -0.16259 
0.016616 -0.10275 -0.29034 -0.32027 0.032071 0.029441 0.0046141 -0.12182 
-0.1455 -0.20107 -0.36301 -0.29824 0.066598 0.056733 0.066269 -0.048656 
-0.28245 -0.020377 -0.20255 -0.20616 0.066269 0.080409 0.064625 0.038319 
-0.17657 0.4094 0.18481 0.073339 0.07038 0.067091 0.057391 0.036017 
0.061337 0.57382 0.43916 0.32637 0.09833 0.069064 0.073175 0.09685 
0.2052 0.41121 0.45445 0.4214 0.081724 0.052623 0.069558 0.1516 
0.11592 0.16163 0.36221 0.39214 0.041772 0.06183 0.023686 0.070544 
0.045718 0.022535 0.26833 0.34577 0.011355 0.027139 0.023851 -0.12708 
0.07301 -0.038956 0.14256 0.26258 0.0098754 0.031742 0.021878 -0.39113 
0.15801 0.021384 0.10113 0.19237 0.03388 0.014808 0.013986 -0.46018 
0.22723 0.15423 -0.016102 0.092411 0.067091 0.049006 0.032071 -0.09946 
0.29464 0.28576 -0.031721 0.043416 0.072681 0.068242 0.026152 0.29941 
0.35564 0.25354 0.043251 0.064296 0.083204 0.063803 0.0042853 0.36961 
0.29431 0.11609 0.047033 0.078436 0.063968 0.04506 -0.0022913 0.30007 
0.14354 -0.060165 -0.033201 0.067091 0.045718 0.045224 0.070708 0.17363 
-0.054246 -0.25138 -0.022021 0.038483 0.034044 0.028947 0.088301 0.11609 
-0.17147 -0.33852 0.0041209 0.045553 -0.01528 -0.0070593 0.066598 0.077943 
-0.1769 -0.21323 0.027468 0.054596 -0.059836 -0.014129 0.035031 0.076134 
0.1419 0.047033 -0.079237 -0.0098543 -0.036983 0.0016547 0.018754 0.14387 
0.60292 0.2024 -0.30268 -0.17279 -0.046025 -0.0031133 0.02122 0.20569 
0.67641 0.1391 -0.35003 -0.22145 0.025988 0.0098754 0.029934 0.14157 
0.24795 -0.058192 -0.14632 -0.13399 0.08419 0.061995 0.033551 -0.022021 
-0.35792 -0.16095 0.069393 0.025001 0.10935 0.10376 0.016781 -0.079072 
-0.89029 -0.2545 0.13417 0.11609 0.08304 0.049664 -0.0096899 -0.13103 
-0.81696 -0.17262 0.085506 0.1105 0.054432 -0.003771 -0.024816 -0.11426 
-0.37025 -0.15158 -0.015609 0.057391 0.023028 -0.0091966 -0.013143 -0.12741 
-0.02646 -0.06296 -0.031064 0.051965 0.0036276 0.010862 0.014808 -0.091897 
0.2565 0.39049 -0.016924 0.039141 -0.019555 0.0024767 0.0227 0.026974 
0.36123 0.79693 -0.14648 -0.051615 -0.011663 -0.018075 0.014479 0.11822 
0.19698 0.75286 -0.090088 -0.049807 -0.042737 -0.049314 -0.032379 0.1641 
-0.0096899 0.34873 0.11066 0.071531 -0.046025 -0.041915 -0.019061 0.14223 
-0.12774 -0.24447 0.19172 0.15423 -0.0095255 -0.021199 0.0075736 0.10376 
0.14256 -0.40905 0.24005 0.24351 0.0070803 0.012835 0.051801 0.16853 
0.30796 -0.25911 0.32539 0.3295 0.084684 0.077614 0.10556 0.16229 
0.17659 -0.21702 0.23414 0.29053 0.11839 0.10885 0.088465 0.019247 
0.013492 -0.26881 -0.060165 0.09274 0.098988 0.082875 0.06331 -0.0049219 
-0.12593 -0.25368 -0.55094 -0.28755 0.048184 0.025824 0.01974 0.030592 
-0.10472 -0.29577 -0.83833 -0.60931 -0.083183 -0.070359 -0.03057 0.020398 
0.20191 -0.11031 -0.62969 -0.58514 -0.12889 -0.09946 -0.066906 0.027961 
0.32407 0.33065 -0.14254 -0.24825 -0.080059 -0.078086 -0.036983 0.099481 
0.029769 0.6723 0.33278 0.14124 0.0023123 -0.012156 -0.025802 0.11625 
0.010533 0.70239 0.52235 0.40447 0.066434 0.045224 0.01974 0.11691 
0.28034 0.56987 0.53436 0.50427 0.12727 0.11707 0.079587 0.057391 
0.3438 0.35597 0.49868 0.51578 0.052787 0.080244 0.084355 0.079422 
0.074161 -0.077593 0.30352 0.39411 0.012835 0.019905 0.051965 0.035524 
-0.040271 -0.40806 0.016616 0.22822 0.038319 0.029441 0.031085 0.037661 
-0.11376 -0.37995 -0.087951 0.063968 0.090767 0.077285 0.0689 0.034702 
-0.38899 -0.32849 -0.14139 -0.029584 0.15111 0.093069 0.073832 0.0047785 
-0.43865 -0.2887 -0.090253 -0.040271 0.11559 0.041278 0.05476 -0.042244 
-0.13201 -0.074633 -0.015609 -0.0040998 0.082382 0.033715 0.013328 -0.10176 
0.026152 0.20947 0.041278 0.030098 0.033551 0.030756 -0.021363 -0.094527 
-0.19663 0.17659 0.031414 0.074983 -0.026953 -0.0049219 0.016288 -0.16013 
-0.081045 0.10556 0.11888 0.12497 -0.03616 -0.03205 0.0026412 -0.12922 
0.037168 -0.03912 0.10063 0.13138 -0.064275 -0.061645 -0.023994 -0.036325 
0.12973 0.055254 0.10244 0.13615 -0.069043 -0.036489 -0.013307 0.10869 
0.29448 0.055089 0.11543 0.14453 -0.039449 -0.033859 0.0051074 0.18366 
0.40102 0.0046141 0.061995 0.11115 -0.017253 -0.0052507 0.03092 0.18087 
0.3678 0.18267 0.14568 0.1756 0.0026412 0.0060938 0.027632 0.10836 
0.1562 0.40398 0.19501 0.21753 -0.0080457 0.040785 0.03651 0.085835 
0.048184 0.42338 -0.011498 0.095371 -0.02942 0.046375 0.066269 0.092247 
0.033222 0.3632 -0.20616 -0.067399 -0.0075525 0.069229 0.10639 0.15982 
-0.088608 0.2588 -0.27999 -0.16572 0.042265 0.071037 0.097508 0.21885 
-0.53943 -0.10357 -0.1672 -0.14648 0.027468 0.050979 0.048677 0.10277 
-0.87122 -0.50112 -0.070852 -0.077922 0.045553 0.018096 0.012835 -0.18101 
0.00083261 -0.41119 0.072353 0.066434 0.072353 0.035688 0.055747 -0.25746 
1.374 0.087314 0.22246 0.1881 0.08863 0.086328 0.12628 0.083368 
1.3479 0.25123 0.20175 0.2172 0.02829 0.01415 0.039963 0.15933 
0.18876 -0.061973 0.32144 0.31667 0.036182 -0.028597 -0.017088 0.14272 
-0.83225 -0.57429 0.46629 0.42255 0.031907 -0.0036066 -0.0022913 0.074326 
-1.2129 -0.93978 0.17084 0.27935 0.011191 -0.0019624 0.031742 -0.090581 
-1.2181 -0.77273 -0.50951 -0.16375 -0.023994 0.00033937 0.011355 -0.41661 
-1.0366 -0.1575 -0.80364 -0.5248 -0.039284 -0.013143 0.0059294 -0.52019 
-0.17049 0.52975 -0.52874 -0.48156 0.0090533 0.013821 0.056569 -0.21866 
1.0554 1.1527 0.12431 -0.068714 0.048677 0.047855 0.030592 0.20734 
1.6682 1.7288 0.83408 0.49621 0.057062 0.021549 0.030427 0.45856 
1.3696 1.593 1.0283 0.82422 0.07449 0.047033 0.025166 0.39132 
0.63021 0.67033 0.60949 0.7134 0.13253 0.11757 0.059857 0.2269 
0.18711 0.012999 0.21967 0.42749 0.12118 0.13253 0.084684 0.11017 
0.030263 -0.15947 0.12908 0.2708 0.072517 0.1202 0.10524 0.10211 
-0.21751 -0.2836 0.10885 0.19714 0.031907 0.089452 0.10721 0.010697 
-0.57396 -0.49948 -0.07414 0.04358 -0.035174 0.017932 0.058049 -0.073811 
-0.47432 -0.30185 -0.6172 -0.35381 -0.062631 -0.021692 0.013657 -0.091404 
-0.058521 0.099481 -0.92021 -0.66948 -0.036654 -0.03912 -0.02498 0.054596 
0.34775 0.13894 -0.67672 -0.63167 -0.021363 -0.031721 0.0093821 0.14913 
0.18761 -0.15881 -0.16605 -0.30613 -0.031392 -0.0503 -0.0096899 0.078436 
-0.27407 -0.51247 0.12908 -0.0082102 0.032071 0.01415 -0.01528 0.054432 
-0.51904 -0.77224 0.12398 0.088958 0.094713 0.04654 -0.048656 0.15094 
-0.51904 -0.94438 0.0088889 0.044731 0.070051 0.029934 -0.10472 0.025495 
-0.34016 -0.65995 -0.072003 0.0018191 0.03388 -0.0138 -0.057863 -0.26338 
-0.07562 -0.05885 -0.093541 -0.021034 0.0070803 -0.0087034 -0.025638 -0.29084 
0.24499 0.46859 -0.028762 0.0018191 -0.0049219 -0.038627 0.0064227 -0.11196 
0.19369 0.64961 0.14864 0.1225 0.01563 -0.011663 0.03092 -0.018897 
0.034866 0.65915 0.26472 0.23512 0.048348 0.024015 0.08304 0.058213 
0.076627 0.52022 0.26505 0.26455 0.073832 0.072188 0.10145 0.1567 
-0.044381 0.20027 0.14206 0.2195 0.12069 0.094055 0.092576 0.10458 
-0.23987 0.018754 0.046704 0.16738 0.11773 0.088794 0.055254 0.046375 
0.20816 0.11839 0.12957 0.17478 0.10277 0.051308 0.049828 0.13664 
1.1591 0.28379 0.3267 0.30237 0.091425 0.11181 0.11099 0.38605 
1.5716 0.41598 0.58006 0.50443 0.11461 0.1442 0.13023 0.45478 
0.98617 0.31552 0.56559 0.55491 0.13582 0.11099 0.087314 0.27212 
-0.0026201 -0.29199 0.15818 0.30894 0.066763 0.040785 0.024673 -0.031557 
-0.82518 -0.96378 -0.34624 -0.053753 -0.018239 -0.041257 -0.063124 -0.21488 
-1.3896 -1.178 -0.71387 -0.43437 -0.11113 -0.1358 -0.1358 -0.29758 
-1.1404 -0.47679 -0.89752 -0.68165 -0.13316 -0.15454 -0.15602 -0.2499 
-0.46364 0.24301 -0.95523 -0.81663 -0.10489 -0.10965 -0.10653 -0.19252 
-0.20732 0.4727 -0.71124 -0.72407 0.0088889 0.0421 -0.0095255 -0.058028 
-0.13777 0.26981 -0.13201 -0.33079 0.10425 0.10589 0.089616 0.14601 
0.29859 0.1128 0.32621 0.12069 0.14404 0.10836 0.11231 0.23282 
0.68956 0.22197 0.56264 0.41269 0.1151 0.11378 0.091589 0.14469 
0.57086 0.13286 0.57842 0.5314 0.083862 0.064461 0.027632 -0.018075 
0.26685 -0.05589 0.39921 0.46497 0.048841 0.0090533 0.021056 -0.02235 
0.21802 0.082875 0.3221 0.39362 0.050814 0.013328 0.037332 0.044567 
0.085999 0.18646 0.31305 0.35728 -0.0054151 0.0036276 0.026152 0.031742 
0.04654 0.2098 0.23381 0.3147 -0.064933 0.015959 0.0090533 0.035688 
0.23627 0.41187 0.20438 0.27919 -0.045368 0.010862 0.034373 0.083697 
0.098659 0.32358 0.10951 0.20224 0.013986 0.032893 0.054267 0.018096 
-0.25072 -0.027775 0.071695 0.14617 0.034537 0.038483 0.033222 -0.091239 
-0.39146 -0.18446 0.1761 0.19385 0.088794 0.070873 0.055582 -0.10242 
-0.32816 -0.23658 0.23611 0.23364 0.055254 0.053281 0.052952 -0.0021268 
-0.16029 -0.17591 0.22953 0.25288 0.052459 0.013986 0.053609 0.074326 
-0.024158 -0.019555 0.1932 0.26439 0.014643 -0.0072237 0.056733 0.090931 
0.12332 0.27277 0.31634 0.32588 -0.0055795 0.011355 0.031907 0.09833 
0.3073 0.64649 0.43291 0.41795 0.025001 0.038483 0.046704 0.1322 
0.25978 0.61903 0.35169 0.39822 0.038319 0.066269 0.040456 0.13615 
0.039634 0.37142 0.18563 0.27919 0.022535 0.044567 0.037168 0.01974 
-0.070359 0.03651 -0.055397 0.089452 -0.032872 0.020233 0.0072447 -0.077757 
-0.051287 -0.23757 -0.37551 -0.14632 -0.03353 -0.015609 -0.03912 -0.012814 
0.073997 -0.38718 -0.62887 -0.41135 0.0011614 -0.01676 -0.04471 0.17593 
0.25189 -0.25532 -0.56656 -0.47087 0.047033 0.015465 -0.0019624 0.22805 
0.046046 -0.26946 -0.43996 -0.42253 0.066105 0.07449 0.065776 0.10425 
-0.5049 -0.56656 -0.11113 -0.21077 0.028125 0.032236 0.066105 -0.022679 
-0.37715 -0.36811 0.38836 0.18103 0.0032988 -0.00031829 0.054103 0.015794 
0.414 0.49227 0.70929 0.55803 0.02122 0.0060938 0.030756 0.045553 
0.57365 1.1942 0.77868 0.71439 0.025824 0.0098754 0.023686 -0.090746 
0.15522 1.1813 0.66786 0.70321 -0.022514 -0.030735 -0.023172 -0.1723 
-0.10834 0.54915 0.42338 0.548 -0.022021 -0.03912 -0.018075 -0.17772 
-0.065755 -0.15454 -0.025474 0.21161 0.015465 -0.0047575 0.030098 -0.050464 
0.46777 -0.1644 -0.51411 -0.22063 0.087808 0.076134 0.080902 0.19385 
0.39904 0.093069 -0.64926 -0.43634 0.090767 0.055254 0.10178 0.3609 
0.05213 0.24548 -0.34888 -0.33934 0.051472 0.030098 0.067749 0.29809 
0.14371 0.329 -0.062796 -0.13974 0.10376 0.067913 0.079094 0.039305 
0.30993 0.25946 0.031907 -0.013636 0.082217 0.11 0.068078 -0.14122 
0.21079 0.053774 0.13187 0.093069 0.053116 0.052952 0.049335 -0.16753 
-0.045861 -0.0011404 0.44639 0.32506 0.015301 -0.015444 -0.0054151 -0.17049 
-0.25335 -0.043066 0.59157 0.51315 0.0023123 -0.030077 -0.032708 -0.029584 
-0.2933 -0.51592 0.43061 0.49802 -0.019555 -0.025967 -0.016431 0.073339 
-0.18512 -0.91528 0.15078 0.30303 -0.019884 -0.035667 -0.03205 0.065612 
-0.12988 -1.0213 -0.14566 0.042923 -0.068714 -0.096007 -0.04882 -0.13251 
-0.18479 -0.90591 -0.42533 -0.2185 -0.10752 -0.13727 -0.097487 -0.17164 
-0.021363 -0.3326 -0.55291 -0.40839 -0.072989 -0.10587 -0.12675 0.03388 
0.07038 0.33114 -0.607 -0.50836 -0.010183 -0.021528 -0.082854 0.1008 
-0.15799 0.76865 -0.54486 -0.49076 0.057391 0.094384 0.043416 0.15094 
0.095535 1.0728 -0.068057 -0.19022 0.16919 0.16837 0.14765 0.29579 
0.37274 0.8793 0.18711 0.068736 0.15768 0.17084 0.15144 0.37142 
0.065283 0.18547 0.071202 0.080573 0.029276 0.049006 0.077943 0.21671 
-0.094692 -0.10883 0.0080668 0.045882 -0.021363 -0.018897 0.028454 0.090109 
0.071695 -0.067399 0.065776 0.07301 0.037826 -0.0091966 0.051143 0.033222 
0.26274 -0.015116 0.075641 0.1248 0.056898 0.035031 0.045553 -0.031392 
0.26061 0.078272 0.20471 0.20158 0.048348 0.020398 0.020891 -0.13168 
-0.049149 0.0023123 0.31782 0.29941 0.042758 0.0032988 0.013164 -0.20896 
-0.26256 -0.33375 0.29957 0.31815 0.082382 0.048019 0.027632 -0.20551 
-0.2619 -0.6149 0.23578 0.2828 0.071202 0.074654 0.063145 -0.11837 
-0.18364 -0.70467 0.06331 0.16097 0.025495 0.037826 0.057227 -0.079566 
-0.093212 -0.56228 -0.16177 -0.00031829 -0.035832 -0.012485 0.0072447 -0.19597 
0.038155 -0.18545 -0.14517 -0.059178 -0.024158 0.0032988 0.010533 -0.42763 
0.009711 0.14996 -0.15191 -0.0868 -0.015773 -0.0072237 0.021056 -0.47893 
-0.030406 0.25354 -0.23198 -0.15158 -0.010183 -0.01528 0.026646 -0.15273 
0.062323 0.23923 -0.23773 -0.18117 0.033715 0.0023123 0.023522 0.17084 
0.14486 0.22345 -0.20732 -0.17377 0.048184 0.038648 0.034209 0.30829 
0.24959 0.23989 -0.21208 -0.15257 0.017274 0.031414 0.0421 0.27738 
0.2953 0.25123 -0.13793 -0.10998 -0.025638 0.022535 0.043745 0.22016 
0.21638 0.22065 -0.10127 -0.074469 -0.012649 0.047362 0.051636 0.22592 
0.00066819 0.14979 -0.072496 -0.04619 0.014808 0.1105 0.092082 0.23545 
-0.096665 0.15522 -0.14566 -0.079072 0.060844 0.13335 0.099645 0.18563 
0.046211 0.39329 -0.063124 -0.052931 0.08419 0.091425 0.089123 0.16706 
0.31601 0.77933 0.43176 0.29332 0.1248 0.0592 0.079258 0.13006 
0.51232 0.91021 1.0209 0.79857 0.10063 0.013492 0.030427 0.072353 
0.35778 0.57118 1.0794 0.9883 0.056733 -0.028433 -0.011827 0.046046 
-0.008539 0.080244 0.67773 0.81074 0.049664 -0.018075 -0.020541 -0.0019624 
-0.66471 -0.60848 0.10195 0.3946 0.055089 0.029934 0.0421 -0.24118 
-1.4054 -1.1612 -0.35381 -0.049971 0.016452 0.069393 0.081724 -0.52414 
-1.1249 -1.2208 -0.66817 -0.41283 -0.032708 0.064461 0.052294 -0.29265 
-0.21899 -0.97019 -1.0825 -0.76961 -0.046354 0.035031 0.05476 0.055254 
0.071695 -0.81022 -1.2176 -1.0093 -0.026624 0.032236 0.051143 0.14141 
0.293 -0.56196 -0.8482 -0.86875 -0.029584 0.020398 0.057062 0.033715 
0.62281 -0.081703 -0.16079 -0.39409 0.012506 0.014643 0.021713 -0.090581 
0.5674 0.33344 0.39066 0.11872 0.056404 -0.0087034 -0.015938 -0.1843 
0.22657 0.6529 0.53551 0.37093 0.0023123 -0.077428 -0.057863 -0.12379 
0.1345 0.9153 0.47122 0.46612 -0.04882 -0.10521 -0.056383 0.063639 
0.17659 0.88653 0.47287 0.49259 -0.044874 -0.059836 -0.022021 0.24499 
-0.055232 0.5485 0.37668 0.44738 -0.00097594 -0.013965 -0.023994 0.29612 
-0.51033 0.2269 0.21868 0.32687 0.050486 0.016616 -0.01939 0.11872 
-0.56837 -0.044874 -0.092883 0.087972 0.062488 0.050321 -0.016102 -0.0068948 
0.11099 0.01415 -0.21998 -0.072003 0.10967 0.11395 0.08156 0.12908 
0.82011 0.25058 -0.0047575 0.017767 0.14683 0.15752 0.15193 0.37372 
0.98436 0.38934 0.36468 0.26866 0.12414 0.12085 0.15324 0.40447 
0.68825 0.34857 0.60703 0.50394 0.085835 0.08715 0.098659 0.27129 
0.26488 0.20947 0.5965 0.57414 0.056076 0.022864 0.098494 0.15522 
-0.04471 -0.061645 0.36698 0.46218 -0.0055795 -0.012978 0.048677 0.044073 
-0.28475 -0.42533 -0.12774 0.10425 -0.010676 -0.018568 -0.001798 -0.017582 
-0.27571 -0.46808 -0.59484 -0.29988 -0.023501 -0.012814 -0.012156 1.0539e-005 
-0.11064 -0.17821 -0.89571 -0.60964 -0.040435 -0.034516 0.0013258 0.057391 
0.063639 0.19731 -0.70483 -0.62838 -0.025638 -0.021692 0.0227 0.11247 
0.30779 0.5041 -0.25894 -0.36219 -0.026296 -0.0073881 0.018754 0.13664 
0.35909 0.59519 0.15703 -0.0096899 0.02829 0.012835 0.0083956 0.14946 
0.065612 0.37553 0.2999 0.19468 0.043087 0.022371 -0.0040998 0.091096 
-0.70746 -0.18019 0.26521 0.26866 0.067913 0.011848 -0.015773 -0.10078 
-1.3745 -0.67902 0.14321 0.24334 0.063803 -0.031228 -0.070523 -0.25023 
-0.90295 -0.90196 0.0056006 0.12283 0.0093821 -0.045532 -0.15552 -0.12149 
0.35334 -0.73854 -0.077922 0.024179 -0.045532 -0.076442 -0.17838 0.27524 
0.93569 -0.44851 -0.084498 -0.017911 -0.052602 -0.072825 -0.15322 0.38984 
0.38079 -0.10834 0.099152 0.072353 -0.023007 -0.083347 -0.06444 0.27392 
-0.17525 0.317 0.32292 0.25041 0.022042 -0.032872 -0.01939 0.065612 
-0.12873 0.71521 0.45083 0.4362 0.084848 0.020891 0.020233 -0.071016 
0.27096 0.84888 0.46777 0.47813 0.10639 0.077285 0.061501 -0.11919 
0.89771 0.91218 0.32308 0.40381 0.12908 0.13401 0.093726 -0.050136 
1.4358 1.1307 0.21062 0.30812 0.096686 0.15094 0.15292 -0.014622 
0.92566 0.84674 -0.041586 0.11444 0.079587 0.10343 0.13286 -0.03353 
-0.3663 0.050814 -0.30514 -0.13645 0.046375 0.027303 0.059693 -0.20041 
-1.1147 -0.45887 -0.30827 -0.20452 -0.024652 -0.029584 0.0032988 -0.30547 
-0.84639 -0.25253 0.089945 0.013657 -0.042244 -0.042573 0.011848 -0.10012 
0.033387 0.1276 0.38605 0.27244 0.0092177 0.0092177 0.047855 0.22082 
0.58483 0.097508 0.38655 0.3581 0.053609 0.02533 0.036182 0.41006 
0.47089 -0.025638 0.3489 0.37389 0.055911 0.040456 0.016616 0.26521 
0.14733 0.056898 0.3415 0.37208 0.073504 0.087808 0.061008 0.12332 
-0.18775 0.045224 0.21506 0.31157 0.054432 0.073339 0.082053 0.13713 
-0.41004 -0.0091966 0.027468 0.16903 -0.0014692 0.044402 0.043416 0.10326 
-0.35266 -0.099295 -0.15684 -0.0016336 -0.0031133 0.0037921 0.0070803 -0.17542 
0.077614 0.037004 -0.070359 -0.017253 -0.0088678 0.0032988 -0.0062372 -0.29018 
0.35531 -0.039449 -0.037476 -0.0050863 -0.021363 0.0019835 -0.0049219 -0.12198 
0.1008 -0.61835 -0.21093 -0.11968 -0.038462 -0.0083746 -0.010019 -0.020706 
-0.2305 -1.1072 -0.38159 -0.26042 -0.057205 0.0023123 -0.0042642 -0.078908 
-0.39442 -0.97529 -0.31139 -0.22984 -0.038133 -0.01232 -0.01117 -0.12067 
-0.29807 -0.31024 -0.027447 -0.072989 -0.031228 -0.036325 -0.038133 -0.082196 
-0.045696 0.43571 0.17626 0.10852 -0.017582 -0.026953 0.0041209 -0.0031133 
0.183 0.75664 0.19435 0.18432 0.049006 0.041114 0.026646 0.11115 
0.26685 0.71209 0.29464 0.27113 0.093562 0.090438 0.066269 0.097344 
0.27442 0.60818 0.50295 0.44311 0.12628 0.096357 0.10047 0.053609 
0.14749 0.49457 0.54323 0.55655 0.10836 0.091589 0.10096 -0.065097 
-0.070687 0.33394 0.42847 0.50295 0.094548 0.10014 0.12529 -0.12018 
-0.13382 0.14601 0.2223 0.35251 0.082711 0.1105 0.088794 -0.11968 
-0.033365 -0.084334 -0.098309 0.093562 0.022206 0.053445 0.062323 -0.13711 
0.24252 -0.20896 -0.28623 -0.12281 0.0072447 0.0031344 0.040292 -0.064111 
0.34857 -0.27719 -0.29709 -0.20501 -0.0070593 0.039141 0.090603 0.10902 
0.016452 -0.35183 -0.24612 -0.18874 0.0082312 0.059364 0.088958 0.095042 
-0.45739 -0.425 -0.30366 -0.23313 0.044731 0.041443 0.045882 -0.12264 
-0.60832 -0.32043 -0.24973 -0.2111 0.038483 0.036675 0.020562 -0.25615 
