0.12316 0.20076 0.14289 0.05772 0.02122 0.015137 0.032729 0.051308 
-0.024158 0.14058 0.099481 0.068571 0.038648 0.045389 0.013328 0.013164 
-0.10949 0.046704 0.070873 0.026317 0.026646 0.019576 0.022864 0.015301 
-0.070194 -0.025309 0.064132 0.0227 0.030427 0.062981 0.033387 -0.031228 
0.12792 -0.061809 0.031907 0.035031 0.035853 0.030592 0.040128 -0.00097594 
0.30286 0.076299 0.013657 0.013657 0.05772 0.034537 0.023193 0.076627 
0.30434 0.15522 0.030098 0.032564 0.054432 0.040292 0.023028 0.12858 
0.17511 0.16492 0.041443 0.04358 0.032071 0.041607 0.025001 0.10145 
0.02829 0.14946 0.025659 0.021384 0.033551 0.035031 0.033222 0.017438 
-0.044874 0.062817 -0.017911 0.020398 0.027961 0.010204 0.019576 0.0042853 
-0.092719 -0.023172 -0.054739 0.012013 0.025988 0.00083261 0.02681 -0.01232 
-0.084498 -0.058356 -0.066577 -0.0042642 0.0054362 0.01152 0.011848 0.018425 
-0.02646 0.01563 0.010862 0.024673 0.031742 0.016616 0.023522 0.05772 
0.091096 0.10228 0.073997 0.044073 0.021056 0.010862 0.031249 0.050814 
0.18728 0.17577 0.11346 0.06183 0.027961 0.022535 0.02122 0.061666 
0.19879 0.2269 0.14075 0.046704 0.03947 0.044402 0.025824 0.079587 
0.07597 0.13878 0.11691 0.020398 0.034866 0.042429 0.024179 0.070544 
-0.047834 -0.043395 0.052623 0.016452 0.019905 0.022371 0.027632 0.01415 
-0.047176 -0.15552 -0.027282 0.0019835 0.01152 0.029605 0.011191 0.0024767 
-0.0044286 -0.073154 -0.014951 0.010697 0.029934 0.038319 0.013821 0.016288 
0.05624 -0.012649 0.044896 0.022864 0.04358 0.037497 0.025659 0.066434 
0.07597 0.019247 0.076299 0.050486 0.044731 0.019905 0.066763 0.086492 
0.070708 -0.0013048 0.095535 0.06331 0.035195 0.034044 0.054596 0.12118 
0.0044497 -0.036325 0.080902 0.021713 0.0324 0.03092 0.039305 0.11428 
-0.036489 -0.025967 0.035853 0.047526 0.038977 0.039141 0.022535 0.045718 
0.0036276 0.07038 0.016945 0.029934 0.027796 0.02681 0.020398 -0.037476 
0.068571 0.20767 0.033058 0.0037921 0.045553 0.038812 0.051636 -0.070359 
0.147 0.24959 0.051143 0.027961 0.029441 0.036017 0.020891 -0.019061 
0.18942 0.25715 0.040456 0.031742 0.012835 0.020233 0.0065871 0.048019 
0.12283 0.16969 0.004943 0.00066819 0.030098 0.025659 0.020891 0.0689 
0.087643 0.11115 -0.051451 0.016288 0.00050378 0.015465 0.01563 0.047526 
0.077285 0.070051 -0.056219 -0.011005 -0.0031133 0.0052718 0.03092 0.050979 
0.028619 0.035524 -0.061809 -0.014293 0.022042 -0.0021268 -0.0021268 0.016452 
-0.017417 0.0011614 -0.016595 -0.059672 0.012177 0.0065871 0.0059294 0.027796 
-0.076771 -0.075784 0.032729 -0.034352 -0.0062372 0.025659 -0.012978 0.04506 
-0.082361 -0.054739 0.1179 0.036675 0.027468 0.033222 0.023193 0.061172 
-0.029584 0.0047785 0.12809 0.07038 0.049006 0.032564 0.034866 0.058377 
-0.044546 -0.0026201 0.06594 0.017767 0.049992 0.019411 0.01004 0.027303 
-0.063782 -0.061645 0.0051074 -0.029748 0.050321 0.0065871 -0.018075 -0.0077169 
-0.072825 -0.082854 0.0065871 0.0098754 0.009711 0.018096 0.014808 -0.0096899 
0.038483 -0.017417 0.028454 0.033222 0.018918 0.029934 0.039141 -0.0004827 
0.037004 -0.028104 0.024673 0.019083 0.026481 0.023357 0.022371 0.035195 
0.058213 -0.052602 0.024344 0.015959 0.04506 0.051308 0.04095 0.08715 
0.0032988 -0.040106 0.0090533 0.011355 0.031414 0.038648 0.046868 0.10392 
-0.14303 0.0028056 0.021713 -0.013965 0.017274 0.025988 0.048019 0.030263 
-0.20748 0.056569 0.04917 -0.006566 0.0054362 0.018096 0.05476 -0.12067 
-0.084663 0.15324 0.058213 -0.0022913 0.0080668 0.030427 0.017438 -0.13382 
0.20224 0.24252 0.060186 -0.0075525 0.019247 0.025001 0.016123 -0.051287 
0.47747 0.31864 0.08715 0.013492 0.023357 0.019083 0.0227 0.082382 
0.46399 0.26488 0.040785 0.025166 0.016781 0.0090533 0.041443 0.1179 
0.13121 0.085506 0.0093821 -0.018075 0.0036276 0.024179 0.029605 0.065612 
-0.096665 -0.01232 -0.0406 -0.050464 -0.015609 -0.00081153 0.020398 0.0056006 
-0.17673 -0.067892 -0.036818 -0.046683 0.0047785 -0.0070593 0.0095465 -0.020377 
-0.18035 -0.10489 -0.0075525 -0.022514 0.013657 0.005765 0.045389 -0.00097594 
-0.12067 -0.086471 0.039799 0.00083261 0.02829 0.03799 0.030756 0.044402 
-0.038462 -0.041093 0.048841 -0.0027845 0.015137 0.023686 0.018754 0.042594 
-0.0083746 -0.055561 0.034702 0.013657 0.010862 0.01563 0.019083 0.043087 
-0.0054151 -0.09387 -0.0080457 -0.032543 0.0092177 0.009711 0.029112 0.058377 
-0.0057439 -0.078415 -0.0087034 -0.032708 0.021713 0.026481 0.047526 0.085835 
0.039141 -0.030899 0.034373 -0.01232 0.039963 -0.00015387 0.035031 0.1008 
0.12217 -0.0027845 0.081395 0.0059294 0.029934 0.010369 0.018589 0.10524 
0.15883 0.03388 0.099645 0.017603 0.015465 0.013492 0.013328 0.080244 
0.11083 0.14305 0.049499 0.013821 0.012999 0.021878 0.044073 -0.013965 
0.036017 0.23216 0.073504 0.020562 0.027468 0.034209 0.049335 -0.18808 
0.017438 0.30352 0.073504 0.027139 0.050979 0.030592 0.035688 -0.26075 
0.13105 0.26521 0.046046 0.036182 0.062323 0.026974 0.016781 -0.039613 
0.1641 0.1373 0.024508 0.025988 0.0421 0.028125 0.025988 0.13286 
0.08715 0.0092177 0.064625 0.017274 0.047362 0.014643 0.031907 0.17676 
0.0018191 -0.012814 0.075312 0.034373 0.031907 0.019576 0.031742 0.06183 
-0.14418 0.081231 0.063145 0.042758 0.028125 0.041936 0.025824 -0.046847 
-0.11968 0.13894 0.044731 0.029934 0.032071 0.013492 0.0070803 -0.013965 
0.062159 0.15637 0.038483 0.021878 0.00033937 0.0016547 0.021384 0.071531 
0.19468 0.13302 0.053938 0.061501 0.019083 0.014808 0.025659 0.10819 
0.094055 0.033551 0.088136 0.085341 0.049992 0.040621 0.044402 0.047362 
-0.1307 -0.11212 0.072846 0.072353 0.050814 0.0324 0.026974 0.0064227 
-0.26091 -0.19778 0.0087245 0.083368 0.051801 0.014972 0.017932 -0.05326 
-0.22737 -0.10078 -0.040764 -0.021856 0.047691 0.00066819 0.038155 -0.031064 
-0.076771 0.021713 -0.0080457 -0.045861 0.027632 0.037497 0.031414 0.0011614 
0.10655 0.15489 0.040785 -0.013143 0.019411 0.027303 0.0028056 0.028783 
0.23496 0.11165 0.065612 0.017274 0.026481 0.016123 0.025659 0.074161 
0.31108 0.055582 0.070708 0.028783 0.078929 0.012999 0.044896 0.11395 
0.47056 0.11757 0.086492 0.058049 0.076134 0.067749 0.057555 0.11115 
0.39033 0.13516 0.059528 0.039141 0.043416 0.052952 0.067091 0.07597 
0.17774 0.08567 0.0046141 0.016452 0.036839 0.038648 0.034537 0.024837 
-0.027447 -0.03353 0.026152 0.016945 0.019576 0.012177 0.014808 0.0052718 
-0.20633 -0.11985 -0.050793 -0.0060728 0.0093821 0.02681 0.027139 0.0036276 
-0.27867 -0.11886 -0.096829 -0.012156 0.021384 -0.019061 -0.0019624 -0.057863 
-0.19564 0.052787 -0.090088 0.018096 0.012506 -0.0022913 -0.0027845 -0.031392 
-0.055726 0.17215 -0.10357 -0.0050863 0.00050378 0.00083261 -0.014293 -0.01676 
-0.14106 0.17034 -0.053917 1.0539e-005 0.011684 0.012506 -0.0004827 -0.013471 
-0.15783 0.14535 -0.010019 0.012177 0.0060938 -0.00064712 0.01415 -0.030242 
0.061008 0.19681 0.014972 -0.014787 0.01152 -0.016431 -0.001798 -0.0083746 
0.25798 0.20832 0.038155 -0.0054151 0.048513 0.0083956 0.022206 0.047197 
0.26357 0.20783 0.092411 0.061995 0.024344 0.04654 0.035195 0.08978 
0.1026 0.12036 0.061666 0.009711 0.02122 0.029769 0.051801 0.013328 
-0.076442 0.00033937 0.028619 0.0082312 0.017603 0.019247 0.03388 -0.046025 
-0.052602 -0.092554 0.048019 0.062981 0.047855 0.033058 0.020727 -0.0050863 
0.06183 -0.16687 0.046046 0.052623 0.084684 0.078765 0.049499 0.070873 
0.19435 -0.19498 0.014972 0.021713 0.060022 0.060844 0.053609 0.12053 
0.30138 -0.1547 0.037332 0.037332 0.035524 0.039141 0.056404 0.099481 
0.25173 -0.12889 0.014972 0.026974 0.014643 0.012506 0.031085 0.081067 
0.15292 -0.063782 -0.01528 0.0019835 0.0080668 0.017438 0.0042853 0.004943 
0.05772 -0.008539 -0.05326 0.0227 0.00066819 0.00050378 0.0062583 -0.021692 
-0.049314 0.046046 -0.093048 -0.036489 -0.004593 -0.0083746 0.0087245 -0.03205 
-0.19005 0.059364 -0.098473 -0.061645 -0.016431 -0.0049219 0.0087245 -0.0047575 
-0.25845 0.055911 -0.076277 -0.016102 -0.031557 0.00017495 1.0539e-005 -0.016924 
-0.43832 -0.066084 -0.031557 -0.033037 -0.039284 -0.030406 -0.0087034 -0.050464 
-0.61572 -0.10308 -0.004593 -0.012485 -0.015609 -0.011498 -0.030735 -0.029255 
-0.41333 -0.003771 0.0421 0.027796 0.021056 0.019083 0.035195 0.016123 
-0.086636 0.01711 -0.012156 0.00017495 0.0093821 0.021384 0.036017 0.056898 
0.13236 0.025824 -0.034188 -0.021528 0.0080668 0.009711 0.019411 0.044896 
0.27409 0.094877 0.01974 0.02829 0.039963 0.043416 0.038155 0.056076 
0.37011 0.19665 0.1174 0.040128 0.071366 0.074819 0.059364 0.055254 
0.43193 0.30319 0.15851 0.051472 0.086492 0.05624 0.076792 0.066927 
0.37339 0.32851 0.16426 0.071859 0.048019 0.037168 0.0324 0.065776 
0.17051 0.20635 0.1391 0.035688 0.020727 0.010204 0.031085 0.053938 
-0.056548 -0.022843 0.068571 0.0080668 -0.0031133 -0.00081153 0.018096 0.0023123 
-0.18512 -0.1769 -0.012649 0.013328 0.012013 0.014479 0.038648 0.0047785 
-0.21011 -0.21323 -0.041422 0.0024767 0.057884 0.011848 0.014808 0.010697 
-0.15437 -0.19712 -0.066741 -0.0078813 0.053609 0.024344 0.015794 -0.0039354 
-0.10143 -0.24003 -0.10308 0.043416 0.038155 0.061666 0.023193 -0.048492 
-0.068221 -0.30827 -0.09798 0.028947 0.045389 0.043745 0.042429 0.02681 
-0.067235 -0.3959 -0.1011 0.028947 0.022042 -0.0016336 0.031742 0.03651 
-0.13119 -0.47613 -0.12034 0.0074092 -0.016595 -0.015773 -0.0060728 0.038483 
-0.14763 -0.41875 -0.097158 -0.0068948 -0.0080457 -0.019555 -0.035503 0.048841 
-0.049149 -0.12642 0.022535 -0.010512 -0.0034422 -0.018075 0.0013258 0.031742 
0.093562 0.27738 0.13532 0.057062 0.011848 -0.0024557 0.027303 0.070873 
0.18235 0.4847 0.18711 0.075641 0.025166 0.014972 0.025824 0.090767 
0.15949 0.47813 0.2103 0.082546 0.047855 0.049335 0.02533 0.11329 
0.13532 0.45215 0.24811 0.09274 0.063968 0.060186 0.05065 0.092082 
0.13976 0.4778 0.26801 0.080409 0.079422 0.058871 0.051472 0.095206 
0.13253 0.43932 0.25074 0.05476 0.056076 0.027303 0.064625 0.088794 
0.076299 0.24055 0.13845 0.047362 0.025001 0.039305 0.043251 0.044238 
-0.035503 0.046046 0.026974 0.014479 0.0227 0.0064227 0.024508 -0.033859 
-0.1353 -0.094692 -0.04882 -0.0077169 0.017603 0.0014903 0.0085601 -0.020706 
-0.088115 -0.10867 -0.047012 0.022206 0.047526 -0.0068948 0.04358 -0.0024557 
0.058706 -0.061809 -0.018568 0.03388 0.063474 0.064132 0.034702 0.08419 
0.13845 -0.0098543 -0.031392 0.050157 0.053938 0.05065 0.028454 0.12003 
0.13319 -0.015609 0.0014903 0.054925 0.036017 0.036346 0.013164 0.11757 
0.10967 -0.028597 -0.004593 0.023357 0.019247 0.018425 0.029769 0.11296 
0.080902 -0.015116 0.024673 0.030263 0.010204 0.010862 0.024344 0.10951 
0.11115 0.00083261 0.060844 0.052459 0.022864 0.016945 0.020891 0.15078 
0.15209 0.077449 0.1345 0.056404 0.0082312 0.046704 0.044896 0.11543 
0.14667 0.14026 0.14206 0.05624 0.02829 0.041936 0.041443 0.037661 
0.060186 0.17577 0.13483 0.03947 0.024673 0.041936 0.053281 -0.055561 
0.055418 0.2001 0.074161 0.024015 0.02681 0.032564 0.030427 -0.064275 
0.14206 0.26324 0.064132 0.03388 0.029769 -0.0052507 0.031907 0.050321 
0.27475 0.32917 0.047033 0.078765 0.065612 0.046046 0.012342 0.18448 
0.27754 0.28083 0.081067 0.09685 0.068407 0.087643 0.051143 0.19254 
0.15308 0.14568 0.059364 0.081395 0.085506 0.078765 0.054267 0.15341 
0.0059294 0.025988 0.056569 0.052787 0.045718 0.045389 0.035195 0.0324 
-0.054904 0.038977 0.036839 0.03947 0.036675 0.054267 0.010369 -0.010019 
0.038648 0.10639 0.067256 0.053938 0.035688 0.0042853 0.0069159 0.020233 
0.13894 0.19829 0.11 0.063474 0.03651 0.01004 0.029605 0.07449 
0.17659 0.22575 0.11543 0.095371 0.041772 0.02829 0.016452 0.1031 
0.17544 0.17412 0.10047 0.1174 0.021713 0.040292 0.0082312 0.089287 
0.22279 0.19829 0.1031 0.08567 0.030756 0.025495 0.036017 0.10063 
0.29579 0.35498 0.16163 0.085012 0.064296 0.011848 0.082382 0.10392 
0.22296 0.37767 0.14141 0.075641 0.040785 0.0421 0.055089 0.088794 
-0.028433 0.06742 0.028454 -0.010348 -0.0032777 0.043909 0.030263 -0.013143 
-0.1741 -0.10225 -0.021692 -0.049478 -0.016595 0.0036276 0.014808 -0.076442 
-0.067892 -0.033859 0.027468 -0.0031133 0.025988 0.0016547 0.015137 -0.08269 
0.048677 0.048348 0.099316 -0.0057439 0.076463 -0.016102 0.041443 -0.081374 
0.11395 0.055582 0.074983 0.040785 0.065283 0.044402 0.040128 0.01152 
0.07449 0.0016547 0.01826 0.017767 0.06183 0.050814 0.038319 0.10014 
-0.065097 -0.083512 -0.028269 0.0028056 0.027632 0.036346 0.038812 0.11855 
-0.082361 -0.099624 0.007738 0.0082312 0.041278 0.049006 0.05476 0.082711 
-0.05589 -0.078415 0.01974 0.060515 0.04506 0.071695 0.064296 0.047197 
-0.029748 -0.026789 0.017274 0.072188 0.034209 0.034702 0.039963 -0.045696 
0.048184 0.10228 0.034044 0.041936 0.012506 0.010533 0.0064227 -0.076277 
0.18152 0.2759 0.054103 0.068571 0.01267 0.0067515 0.016945 -0.027447 
0.19796 0.37027 0.023357 0.049335 0.018754 0.023851 0.04358 0.047855 
-0.01232 0.27458 0.0227 0.038155 0.0075736 0.011848 0.027139 0.036839 
-0.12215 0.1151 0.020727 0.050814 0.01711 0.019083 0.0047785 0.038648 
-0.1233 -0.085485 0.0028056 0.020891 0.034866 0.023851 0.020891 0.052787 
0.074983 -0.2032 -0.040106 0.0072447 -0.011663 0.0074092 0.012506 0.096686 
0.28741 -0.157 -0.02087 0.01563 -0.0082102 -0.0039354 0.016616 0.035031 
0.12299 -0.21077 -0.025474 0.0044497 0.0021479 -0.013965 0.02533 -0.13991 
-0.27423 -0.27982 -0.06707 -0.011334 -0.009361 -0.016266 0.0042853 -0.25236 
-0.43947 -0.25121 -0.06855 -0.022514 -0.0138 -0.033037 -0.018897 -0.14336 
-0.1935 -0.079072 -0.038956 -0.047669 -0.031886 -0.038627 -0.0050863 -0.018075 
0.075476 0.060515 -0.0087034 -0.036325 -0.017746 -0.017088 0.0060938 0.023193 
0.11625 0.017767 0.0037921 -0.00064712 0.025495 0.04095 0.0036276 0.058213 
-0.0032777 -0.016266 0.014972 -0.0032777 0.054103 0.051636 0.025001 -0.013471 
-0.18463 -0.054575 -0.013965 -0.0060728 0.071531 0.016452 0.036346 -0.079237 
-0.24677 -0.04882 -0.0021268 0.046211 0.050979 0.0080668 0.043745 -0.11459 
-0.19087 -0.0064016 0.01974 0.089287 0.051308 0.01415 0.032729 -0.072003 
0.0039565 0.065283 -0.0039354 0.091425 0.041278 0.033222 0.029934 -0.045532 
0.16969 0.045718 -0.054739 0.073175 0.027468 0.030263 0.014643 -0.0004827 
0.36402 -0.024652 -0.075949 0.0095465 0.033715 0.013164 0.053116 0.069229 
0.41417 0.092576 -0.033365 -0.0095255 0.036182 0.037168 0.041772 0.10326 
0.26422 0.15045 0.027632 0.015959 0.009711 0.029441 0.039963 0.080409 
0.047855 0.043745 -0.0042642 -0.025802 -0.0138 0.0095465 0.034702 0.039141 
-0.15569 -0.11903 -0.06855 -0.064275 -0.021363 -0.02087 0.023357 0.0028056 
-0.2374 -0.20288 -0.10965 -0.023501 -0.018733 -0.0080457 0.0044497 -0.06 
-0.40938 -0.36729 -0.075949 -0.037476 0.01974 -0.021856 0.024015 -0.11787 
-0.58497 -0.42549 -0.036818 -0.017746 0.023686 -0.012649 1.0539e-005 -0.16457 
-0.41711 -0.19038 0.0037921 0.019083 0.0059294 -0.03616 -0.042573 -0.12363 
-0.021199 0.12069 0.072353 0.022371 0.017932 0.0090533 0.020398 -0.047012 
0.15851 0.2389 0.12908 0.049499 0.036346 0.0056006 -0.012156 0.030592 
0.16459 0.22361 0.13976 0.064625 0.0421 0.0026412 0.010697 0.0037921 
0.050157 0.16804 0.16837 0.037826 0.043745 0.01563 0.011848 -0.030899 
-0.019061 0.11987 0.17462 0.04654 0.049828 0.064625 0.044896 -0.094034 
0.024673 0.10359 0.14075 0.071695 0.055254 0.050979 0.058049 -0.03205 
0.048348 0.11231 0.075805 0.023357 0.010369 0.016616 0.034209 -0.010512 
0.06742 0.090438 0.0052718 0.03651 0.011026 0.0072447 0.0093821 0.027796 
0.099481 0.029605 -0.01528 0.063474 0.040128 0.034702 0.024837 -0.0055795 
0.09685 -0.071674 -0.026953 0.058213 0.064296 0.041936 0.05772 -0.0049219 
0.11181 -0.088773 -0.033694 0.029934 0.074819 0.046868 0.061337 0.062981 
0.15933 -0.12297 -0.087129 0.032729 0.034537 0.038977 0.057391 0.10129 
0.16541 -0.11755 -0.13103 -0.0027845 0.02122 0.042265 0.044896 0.13319 
0.13845 -0.09387 -0.10094 0.014479 -0.0042642 -0.015773 -0.0016336 0.083862 
0.034209 -0.078086 -0.071181 0.04654 0.0018191 -0.014293 -0.0138 0.032236 
-0.16111 -0.10801 -0.091897 -0.026624 -0.037805 -0.029913 -0.031557 -0.074469 
-0.22096 -0.0088678 -0.045039 -0.067235 -0.024158 -0.009361 -0.011663 -0.095185 
-0.11853 0.18021 0.08008 0.0037921 0.00099702 0.024837 0.02533 -0.041586 
0.00297 0.27244 0.13565 0.034209 0.057555 0.044073 0.052294 0.041114 
0.073504 0.26685 0.19632 0.060022 0.10672 0.064132 0.065447 0.075805 
0.063968 0.23035 0.18942 0.10293 0.089945 0.092082 0.058377 0.094055 
0.062488 0.24532 0.14749 0.074326 0.058049 0.061337 0.06035 0.079094 
0.061995 0.20191 0.11658 0.057062 0.022206 0.030427 0.041772 0.087479 
0.097179 0.12973 0.12151 0.077449 0.024673 0.040128 0.052623 0.11132 
0.14634 0.051472 0.10178 0.05772 0.023851 0.029605 0.032729 0.10869 
0.16673 -0.0024557 0.069064 0.057555 0.037661 0.028125 0.01826 0.12694 
0.18021 0.0064227 0.049664 0.086821 0.04358 0.033058 0.01563 0.093726 
0.10655 0.084519 0.065118 0.069393 0.054103 0.049992 0.030427 0.058213 
-0.0075525 0.19566 0.066434 0.048019 0.057884 0.051801 0.017932 0.015794 
0.026646 0.23414 0.067256 0.080738 0.03799 0.016945 0.0074092 0.038812 
0.096357 0.2588 0.037497 0.054432 0.03799 0.031907 0.022371 0.06331 
0.16311 0.23644 -0.045203 0.031907 0.031578 0.041936 0.038483 0.1026 
0.15538 0.16311 -0.10867 0.043087 0.0026412 0.033551 0.053609 0.12299 
0.12727 0.028125 -0.10423 0.0014903 -0.006566 0.019411 0.031907 0.13434 
0.045882 -0.070194 -0.084005 -0.010348 -0.017746 -0.0062372 0.015465 0.08419 
-0.035174 -0.076935 -0.02646 0.007738 0.0079024 0.010369 0.0041209 0.021878 
-0.080388 -0.072003 0.040128 0.011355 0.0421 0.026974 0.022042 0.025495 
-0.043066 -0.095843 0.027632 0.029605 0.025495 0.027796 0.026974 0.04654 
0.036675 -0.17098 0.0026412 0.046704 0.033551 0.034702 0.019247 0.099974 
0.11428 -0.16128 -0.00097594 -0.013965 0.082875 0.056569 0.052623 0.10556 
0.12743 -0.19531 -0.009361 0.02533 0.04654 0.052787 0.02681 0.16311 
0.048184 -0.10012 0.029441 0.053281 0.040785 0.012835 0.051636 0.082217 
-0.070523 0.099974 0.10819 0.018754 0.022371 0.018754 0.01826 -0.0011404 
-0.075127 0.21819 0.074983 0.014972 0.016945 0.038648 0.0036276 0.0039565 
-0.031228 0.27475 0.038483 0.031085 -0.0013048 0.0024767 -0.0060728 0.055418 
0.11494 0.34117 0.069393 0.0082312 -0.010841 0.014479 0.023028 0.12612 
0.26242 0.36008 0.08978 0.015137 0.0044497 0.00066819 0.023193 0.16821 
0.3073 0.30171 0.1179 0.036182 0.040456 0.01974 0.033551 0.16952 
0.23249 0.24055 0.1567 0.045389 0.028125 0.02829 0.018425 0.15867 
0.1345 0.16426 0.14946 0.049335 0.037826 0.032236 0.028619 0.09981 
0.013986 0.052787 0.043416 0.058213 0.032893 0.032564 0.041772 0.038155 
-0.03205 0.013986 0.049828 0.029605 0.019576 0.03651 0.013821 0.030592 
0.023357 0.11247 0.068407 0.023851 0.040456 0.0088889 0.0098754 0.046375 
0.082711 0.13187 0.10737 0.05772 0.036346 0.012506 0.019411 0.11017 
0.069393 -0.0091966 0.059364 0.02829 -0.0049219 0.01267 0.059364 0.085506 
0.005765 -0.11048 -0.0050863 -0.026131 -0.0032777 0.022042 0.025659 0.054267 
-0.060658 -0.076113 -0.048656 -0.014787 0.0018191 0.0042853 0.014972 -0.0059084 
-0.084498 -0.0138 0.0011614 0.010369 0.031907 0.0080668 -0.0059084 0.013821 
-0.065097 0.017603 0.055089 0.047033 0.044567 0.028619 0.0098754 0.048841 
-0.052273 -0.034352 0.10113 0.068242 0.029605 0.043745 0.029769 0.073504 
-0.04323 -0.097651 0.028454 0.012013 0.017767 0.018425 0.024673 0.010697 
-0.015116 -0.065097 -0.011005 -0.012814 0.00050378 0.010697 0.016781 -0.0082102 
0.074326 0.023851 0.020233 0.02533 0.015301 0.015137 0.030427 0.014315 
0.0079024 0.0044497 -0.00081153 0.042923 0.051636 0.013492 0.026646 0.01711 
-0.056219 0.029605 0.039141 0.023357 0.010204 0.0039565 0.031578 0.0080668 
-0.018568 0.13615 0.088136 0.026481 -0.022514 -0.0059084 -0.0016336 0.032564 
0.10211 0.23216 0.13236 0.034373 -0.0029489 0.016945 0.015794 0.08863 
0.19303 0.28921 0.19484 0.051308 0.007738 0.044731 0.0079024 0.095206 
0.23463 0.16327 0.18284 0.056404 0.030263 0.01415 0.049006 0.1179 
0.20372 -0.0022913 0.10293 0.018754 0.034866 0.022042 0.044731 0.088958 
0.1299 -0.055561 0.035688 0.0072447 0.036182 0.041278 0.034373 0.054432 
0.027632 -0.052437 0.030592 0.023851 0.036346 0.044731 0.05213 -0.029584 
-0.14796 -0.10801 0.048677 0.06594 0.052294 0.044731 0.079916 -0.052109 
-0.28114 -0.16901 0.033387 0.069229 0.058871 0.050814 0.069722 -0.069701 
-0.36219 -0.14813 0.018096 0.045224 0.051801 0.057062 0.041114 -0.070687 
-0.24431 -0.088773 0.0016547 0.013657 0.022535 0.022535 0.004943 -0.039449 
-0.021034 0.00083261 -0.030077 0.0072447 0.010204 0.00066819 0.0018191 0.020562 
0.11855 0.10458 -0.034845 0.020891 0.00099702 0.00050378 0.0093821 0.047197 
0.14469 0.14749 -0.016924 0.028125 -0.0031133 0.034702 0.020069 0.0034632 
0.15242 0.14371 0.0042853 0.039141 0.02122 0.013164 0.0044497 -0.021034 
0.21457 0.19698 0.065118 0.067256 0.037004 0.01711 0.020398 -0.023336 
0.23858 0.27064 0.13845 0.07301 0.011191 0.041278 0.072517 0.041936 
0.23348 0.31536 0.15801 0.087643 0.03536 0.054925 0.075148 0.068078 
0.20898 0.20997 0.09126 0.046046 0.027961 0.060515 0.030756 0.078436 
0.12776 0.10787 -0.0049219 0.0024767 0.032564 0.026481 0.042923 0.023357 
0.08156 0.10589 0.027632 0.020727 0.040621 -0.0049219 0.034702 -0.0054151 
-0.014951 0.062159 0.065447 0.013657 0.00017495 0.026481 0.050979 -0.042737 
-0.17887 -0.020048 0.030098 0.0227 0.012177 0.020398 0.062323 -0.10078 
-0.22195 -0.15043 -0.084991 0.01974 0.01974 0.0093821 0.035853 -0.089102 
-0.089102 -0.20666 -0.18298 -0.0044286 0.016288 -0.010841 0.0082312 -0.00031829 
0.022864 -0.28574 -0.24546 -0.054246 0.0014903 1.0539e-005 0.028454 0.036346 
-0.017582 -0.34805 -0.27867 -0.035174 0.0082312 0.0092177 0.031578 0.0064227 
-0.026953 -0.22704 -0.22162 -0.029748 0.015465 0.0072447 0.029769 -0.01528 
-0.06 -0.044874 -0.08532 -0.011005 0.033058 0.034209 0.025495 -0.051287 
-0.035503 0.23348 0.10737 0.010697 0.049992 0.039799 0.021384 -0.0073881 
0.064461 0.45971 0.25748 0.057555 0.028619 0.022864 0.042594 0.066763 
0.11296 0.53436 0.39148 0.075148 0.055582 0.0041209 0.044238 0.16377 
0.10113 0.3609 0.32752 0.13467 0.041278 0.029769 0.029276 0.10918 
0.0060938 0.0095465 0.088465 0.072188 0.050979 0.038319 0.016781 -0.052602 
-0.16177 -0.35397 -0.17147 -0.03764 0.037332 0.025659 0.019576 -0.21554 
-0.3206 -0.58464 -0.33211 -0.045039 0.035195 0.0080668 0.03799 -0.22968 
-0.15684 -0.37781 -0.28886 -0.0073881 0.050814 0.046211 0.023851 -0.10324 
0.21737 0.032893 -0.12922 0.029276 0.057884 0.03651 0.02122 0.057062 
0.43505 0.30138 -0.035832 0.055418 0.062981 0.033222 0.029934 0.13467 
0.25173 0.20027 -0.038956 0.01152 0.064132 0.04654 0.048841 0.090438 
-0.14451 -0.057205 -0.071181 -0.096172 0.038648 -0.00064712 0.020069 -0.034352 
-0.33457 -0.14385 -0.072167 -0.063782 -0.031886 -0.051287 -0.023829 -0.10768 
-0.011663 0.13828 0.0074092 -0.039778 -0.011663 -0.060823 -0.031886 -0.00031829 
0.25403 0.30368 0.0093821 -0.02794 -0.0077169 -0.038298 -0.0059084 0.044402 
0.2269 0.22411 0.011191 -0.0059084 0.018425 0.018589 0.0062583 0.062652 
0.14354 0.13664 0.034537 0.023357 0.034537 0.030427 0.02122 0.009711 
-0.025638 0.041607 0.11691 0.071366 0.05624 0.0324 0.040621 0.016945 
-0.1598 -0.030735 0.14634 0.08567 0.052787 0.03651 0.030098 0.047362 
-0.17032 -0.11163 0.11921 0.032729 0.024344 0.044073 0.039141 0.10984 
-0.048492 -0.11228 0.050814 -0.01117 0.036346 0.016452 0.031249 0.078436 
-0.016431 -0.099295 -0.033859 0.016123 0.042265 0.012835 0.014315 0.0070803 
-0.05589 -0.038627 -0.08532 0.0024767 0.038812 0.021549 0.026152 -0.038791 
0.0011614 0.11428 -0.043066 -0.010512 0.046868 0.029605 0.011848 1.0539e-005 
0.11543 0.17906 0.046211 0.014479 0.037332 0.015137 0.039799 0.070708 
0.14535 0.14897 0.12792 -0.018897 0.0031344 0.0039565 0.024015 0.10458 
0.19057 0.21441 0.23496 -0.035832 0.050157 0.029934 -0.0044286 0.13269 
0.24959 0.29628 0.24186 0.067585 0.053609 0.03799 0.0044497 0.10145 
0.29826 0.28461 0.22345 0.0689 0.044402 0.01974 0.030263 0.1294 
0.26948 0.17166 0.17248 0.035688 0.022042 -0.00097594 -0.00081153 0.13894 
0.12069 0.031085 0.10984 0.036346 -0.013636 -0.028104 0.012342 0.13746 
-0.065919 -0.2032 -0.056383 -0.029091 -0.040764 -0.04471 0.0051074 0.031249 
-0.20797 -0.37683 -0.23987 -0.076935 -0.029913 -0.046683 -0.013471 -0.052273 
-0.30629 -0.39656 -0.32388 -0.029748 0.048513 -0.017253 -0.0013048 -0.10735 
-0.42187 -0.24003 -0.25187 0.015959 0.1322 0.076792 0.034044 -0.1039 
-0.40494 -0.02646 -0.089759 0.082217 0.17939 0.14174 0.058213 -0.064111 
-0.1815 0.073339 0.024508 0.18037 0.16722 0.14469 0.060515 0.041278 
0.080573 0.11395 0.11066 0.1202 0.13187 0.10408 0.073668 0.13319 
0.24614 0.24581 0.18629 0.039141 0.048677 0.01826 0.047855 0.1442 
0.28297 0.33805 0.25551 0.025824 -0.0090322 -0.013636 0.013986 0.17445 
0.28626 0.40447 0.34512 0.039634 -0.019555 -0.056219 0.019576 0.18251 
0.31042 0.46892 0.40217 0.068571 -0.031557 -0.058356 -0.012485 0.23414 
0.29776 0.35597 0.28017 0.090274 -0.036489 -0.043066 0.020069 0.21095 
0.2075 -0.014458 0.058706 0.017767 0.0037921 0.032071 0.024837 0.21917 
0.064625 -0.39886 -0.1376 -0.049314 0.047033 0.042758 0.049335 0.14848 
-0.1381 -0.56031 -0.17558 -0.013143 0.05213 0.047526 0.037497 0.076134 
-0.29725 -0.47251 -0.20748 -0.024816 0.066105 0.066105 0.064954 -0.0026201 
-0.30974 -0.18364 -0.093212 -0.012978 0.014643 0.027796 0.021713 -0.036325 
-0.17394 0.16722 0.063968 0.06479 0.0088889 0.0080668 0.0070803 -0.0090322 
0.08156 0.34429 0.22213 0.091589 0.031578 0.017767 0.020398 0.090603 
0.30434 0.44327 0.27524 0.11872 0.049828 0.04095 0.030263 0.15867 
0.36583 0.42831 0.27491 0.14075 0.05213 0.019083 0.049664 0.17577 
0.30927 0.37307 0.22098 0.10573 0.049006 0.034537 0.040785 0.18481 
0.20142 0.26242 0.16755 0.10721 0.045224 0.041936 0.038812 0.16146 
0.12562 0.15407 0.053938 0.1031 0.064625 0.072681 0.027139 0.1276 
0.03092 -0.0029489 -0.088773 0.012835 0.029276 0.043909 0.00297 0.03651 
-0.10456 -0.13349 -0.18348 -0.041586 -0.0062372 -0.021363 -0.033694 -0.043888 
-0.17624 -0.14451 -0.10094 0.01415 0.025824 -0.017582 -0.044874 -0.041751 
-0.090253 -0.0965 -0.027611 0.055254 0.043251 0.03799 -0.025145 0.031578 
-0.0059084 0.073668 0.027468 0.076956 0.048677 0.053938 0.035524 0.092247 
-0.059343 0.068571 0.018918 0.079258 0.055254 0.040128 0.075805 0.090274 
-0.13218 -0.0406 -0.00097594 -0.00097594 0.034537 0.03388 0.054925 0.021549 
-0.13415 -0.12067 0.026481 -0.017582 0.025001 0.0421 0.033387 -0.01676 
-0.0039354 -0.07973 0.15028 0.06183 0.031578 0.043251 0.04095 -0.001798 
0.12266 -0.013636 0.20668 0.094713 0.044731 0.029605 0.055418 0.034044 
0.24367 0.098823 0.15489 0.079587 0.016616 0.013164 0.031578 0.12447 
0.2999 0.23512 0.15193 0.047691 -0.038462 -0.012978 0.0087245 0.2006 
0.39773 0.33065 0.11724 -0.009361 -0.072989 -0.064604 -0.008539 0.22592 
0.2999 0.15949 -0.018897 -0.0095255 -0.034023 -0.059672 -0.012978 0.14601 
0.0065871 -0.16588 -0.22672 -0.071016 0.0227 -0.012649 -0.012814 -0.05589 
-0.27538 -0.39327 -0.27489 -0.10571 0.038648 0.030263 -0.0072237 -0.20912 
-0.17739 -0.050629 -0.034845 0.023028 0.13006 0.12217 0.037168 -0.16687 
0.0060938 0.39575 0.27179 0.20175 0.20027 0.20027 0.10014 -0.11278 
-0.1838 0.37948 0.30039 0.19895 0.1636 0.12694 0.08419 -0.091075 
-0.52677 -0.014951 0.13056 0.095535 0.0011614 0.031249 0.037826 -0.1718 
-0.30794 -0.13629 -0.017582 -0.018404 -0.13251 -0.10324 -0.044546 -0.10423 
0.37948 0.035524 -0.011005 -0.10965 -0.16292 -0.12659 -0.059836 0.094384 
0.78394 0.21326 -0.0091966 -0.082525 -0.060494 -0.023007 -0.042079 0.2218 
0.58549 0.1128 -0.028762 0.0069159 0.0786 0.062323 0.047197 0.14634 
0.012177 -0.17197 -0.021528 0.076627 0.16442 0.10951 0.064461 -0.18972 
-0.42204 -0.21027 0.041443 0.13565 0.16459 0.12283 0.049664 -0.38685 
-0.33293 -0.048492 0.12349 0.16163 0.11658 0.11132 0.043745 -0.25763 
-0.023829 0.13088 0.12644 0.090603 0.054596 0.067256 0.0592 -0.056383 
0.14239 0.25567 0.096193 0.031249 -0.0031133 -0.0047575 0.023851 -0.023336 
0.24532 0.40874 0.12135 0.0095465 -0.057534 -0.067564 -0.014458 0.010533 
0.35334 0.50821 0.18876 -0.0060728 -0.098473 -0.075784 -0.027611 0.045389 
0.38474 0.48553 0.17643 0.0032988 -0.057863 -0.056055 0.027468 0.042758 
0.3027 0.36912 0.057391 -0.0021268 0.018589 0.013492 0.038483 -0.031392 
0.13417 0.045553 -0.073318 -0.050464 0.076627 0.075641 0.046211 -0.11952 
-0.044217 -0.24069 -0.13481 -0.018733 0.09274 0.08419 0.039963 -0.16966 
-0.18315 -0.22261 0.0092177 0.076792 0.12217 0.11937 0.060022 -0.19975 
-0.218 -0.0087034 0.11987 0.1202 0.10507 0.10425 0.07449 -0.17673 
-0.17476 0.027303 0.11559 0.11362 0.032071 0.059528 0.066927 -0.12708 
-0.12248 -0.15421 -0.012156 0.058542 -0.0011404 0.0227 0.022206 -0.073318 
-0.089595 -0.29215 -0.10538 0.0062583 -0.0019624 0.0082312 0.01826 -0.075455 
-0.11113 -0.3594 -0.14846 0.0095465 0.0037921 -0.010841 0.04095 -0.047176 
-0.096994 -0.40543 -0.17131 0.01415 0.010369 -0.00081153 0.038155 -0.065262 
-0.050136 -0.45377 -0.25697 -0.017088 -0.011334 0.005765 0.0227 -0.047669 
-0.080059 -0.31386 -0.2425 -0.03205 -0.009361 -0.011005 0.01267 -0.098967 
-0.037147 0.0067515 -0.11031 -0.0138 -0.0064016 -0.016266 0.011355 -0.076606 
0.12908 0.36682 0.054103 0.018096 0.024837 0.0032988 0.015959 -0.0082102 
0.32456 0.51002 0.1516 0.049006 0.029605 0.053116 0.050157 0.097015 
0.46448 0.50131 0.20076 0.067585 0.020562 0.061172 0.073832 0.14206 
0.38112 0.32719 0.19353 0.029276 0.0056006 0.042265 0.080902 0.13319 
0.23463 0.20586 0.15127 0.03536 0.0014903 0.030756 0.065283 0.089452 
0.10228 0.19681 0.17593 0.048677 0.024179 0.03092 0.061337 0.014972 
-0.030899 0.13023 0.16886 0.0095465 0.017767 0.00050378 0.023028 -0.041257 
-0.21603 0.034209 0.1077 0.011684 -0.017088 -0.036983 -0.00081153 -0.10965 
-0.2032 -0.056383 -0.0083746 -0.050793 -0.033201 -0.050958 -0.034516 -0.11524 
-0.084498 -0.13727 -0.085813 -0.071345 -0.029255 -0.01117 -0.0073881 -0.077264 
-0.12412 -0.31945 -0.17723 -0.040764 -0.042573 -0.029748 0.027632 -0.047834 
-0.18315 -0.43223 -0.21356 -0.026953 -0.0019624 -0.019884 0.018589 -0.0064016 
-0.29182 -0.4319 -0.19679 -0.013636 0.01152 0.02681 0.064461 0.11691 
-0.29873 -0.35562 -0.14007 0.079258 0.073504 0.089123 0.062488 0.16179 
-0.1182 -0.16424 -0.14402 0.088465 0.077285 0.079094 0.05772 0.091096 
0.082217 0.075476 -0.14895 0.016781 0.026481 0.013492 0.021384 0.00066819 
0.23216 0.30631 -0.052602 0.01267 -0.0049219 -0.0022913 -0.0049219 0.043087 
0.35317 0.43061 0.13088 0.0065871 -0.003771 0.0051074 0.015301 0.16015 
0.39378 0.46547 0.19155 0.018096 -0.028269 -0.024487 0.027796 0.21737 
0.26291 0.25535 0.098494 0.023851 -0.0087034 -0.046025 0.032729 0.19303 
-0.051287 -0.1575 -0.02942 -0.053753 -0.020377 -0.041751 -0.015444 0.057062 
-0.29445 -0.41333 -0.099131 -0.098802 -0.029091 -0.032708 -0.022843 -0.006566 
-0.39787 -0.40346 -0.1085 -0.047669 0.033715 0.00033937 0.0039565 -0.001798 
-0.29363 -0.24858 -0.052766 0.023193 0.068571 0.073175 0.082217 0.12053 
-0.0067304 -0.075949 0.055747 0.098659 0.090931 0.095864 0.083862 0.14798 
0.20767 -0.0014692 0.14272 0.1613 0.059693 0.069064 0.064954 0.15555 
0.32243 0.16262 0.1738 0.0786 0.028947 0.023357 0.039141 0.10556 
0.29842 0.39345 0.24153 0.036346 -0.015444 -0.011827 0.027796 0.14289 
0.23282 0.52466 0.33969 0.055254 -0.055232 -0.026131 0.024179 0.17758 
0.18103 0.4362 0.22263 0.007738 -0.066413 -0.053424 -0.013965 0.17363 
0.017767 0.14601 0.026317 -0.076442 -0.062467 -0.085156 -0.042079 0.096686 
-0.1455 -0.11015 -0.15964 -0.11442 -0.026953 -0.060494 -0.032543 0.060679 
-0.17164 -0.17065 -0.22754 -0.095514 0.052952 0.026317 0.040128 0.084026 
-0.023829 -0.065591 -0.13711 0.0037921 0.14075 0.13302 0.094713 0.11296 
-0.035174 0.015137 -0.019719 0.085506 0.13302 0.11642 0.074161 0.061172 
-0.15602 -0.014951 -0.011005 0.048184 0.029441 0.0011614 0.0037921 -0.050793 
-0.16999 -0.047176 -0.0088678 0.03388 -0.06444 -0.066413 -0.037311 -0.06148 
-0.19235 -0.18972 -0.021528 0.024837 -0.088937 -0.094199 -0.0090322 -0.0011404 
-0.13744 -0.29676 -0.045203 0.00099702 -0.0016336 -0.028597 0.011684 0.061501 
-0.11672 -0.17756 -0.014129 0.05213 0.11905 0.051308 0.062323 0.078765 
0.037004 0.12546 0.1641 0.15801 0.17626 0.13861 0.082875 0.12957 
0.25288 0.38704 0.28067 0.17856 0.19944 0.1858 0.14124 0.18383 
0.41236 0.46514 0.28214 0.14338 0.1636 0.16097 0.11691 0.20323 
0.48322 0.44031 0.28823 0.15571 0.0786 0.077449 0.081395 0.18004 
0.33426 0.30385 0.24433 0.071366 -0.010512 -0.026131 0.0041209 0.066763 
0.10441 -0.0067304 0.018589 -0.055561 -0.14566 -0.060823 -0.0088678 -0.00031829 
0.012999 -0.073811 -0.17493 -0.13136 -0.10012 -0.10324 -0.042408 -0.031392 
-0.026624 0.18826 -0.17032 -0.11015 -0.030077 -0.029091 -0.027611 -0.073976 
-0.25647 0.31733 -0.079895 -0.017746 0.00083261 0.027139 -0.030899 -0.19071 
-0.28919 0.25699 -0.051615 0.078436 0.038483 0.025166 -0.0004827 -0.10916 
-0.15092 0.12053 -0.050136 0.10359 0.073339 0.07301 0.027303 0.025824 
0.067256 0.12003 0.015465 0.11411 0.069064 0.062652 0.045224 0.13828 
0.18415 0.17034 0.090274 0.13434 0.038155 0.060515 0.043745 0.14371 
0.14798 0.17133 0.1294 0.069558 0.021549 0.014479 0.0098754 0.13582 
0.12447 0.067091 0.13927 0.060022 0.047033 0.011355 0.030098 0.096686 
0.039634 -0.044874 0.075476 0.088794 0.079422 0.061008 0.063803 0.049992 
-0.058356 -0.14155 0.088958 0.064461 0.08304 0.084848 0.052787 0.027796 
-0.028926 -0.18693 0.15045 0.076463 0.080244 0.088136 0.054925 0.049499 
0.11411 -0.17624 0.16294 0.096686 0.066434 0.072353 0.04506 0.054267 
0.12283 -0.086471 0.15604 0.016123 0.014643 0.044567 0.041607 0.030427 
0.073504 0.11346 0.19616 -0.008539 0.024673 0.023028 0.025988 -0.0004827 
0.10047 0.34561 0.20947 0.0018191 0.0088889 -0.02794 0.0067515 -0.026296 
0.14239 0.46612 0.18711 0.0056006 -0.0098543 -0.0059084 -0.0027845 0.0013258 
0.12891 0.35169 0.09126 0.0092177 -0.0072237 0.0052718 0.023851 -0.025145 
0.078107 0.19385 0.0227 0.024673 -0.0075525 0.020891 0.03651 0.016616 
0.042923 0.074983 -0.052602 0.026152 0.004943 0.0011614 0.028125 0.042758 
-0.0080457 0.038483 -0.10143 0.018918 0.016452 -0.0068948 0.012342 0.053938 
-0.0013048 -0.047012 -0.16983 0.0054362 -0.027611 0.026152 -0.014622 0.045389 
0.0092177 -0.10357 -0.2397 -0.021856 -0.074304 -0.028269 -0.017582 -0.019555 
-0.028762 -0.068221 -0.25088 -0.060494 -0.11048 -0.07825 -0.049478 -0.093376 
-0.023007 0.061501 -0.2037 -0.057534 -0.078579 -0.084005 -0.078086 -0.098144 
-0.065755 0.092904 -0.1085 -0.041257 0.0090533 -0.0091966 -0.048163 -0.043395 
-0.0040998 0.1008 0.083697 0.075641 0.11559 0.093398 0.025001 0.070215 
0.11066 0.30072 0.305 0.2195 0.18678 0.17232 0.1077 0.15259 
0.19599 0.35021 0.33361 0.21013 0.18547 0.15999 0.11148 0.14683 
0.067091 0.13351 0.1738 0.046375 0.056076 0.077778 0.026974 0.065283 
0.1955 0.16097 0.1465 -0.019555 -0.038298 -0.0054151 0.0042853 0.057227 
0.39855 0.29513 0.2662 0.038319 0.0013258 0.017767 0.038483 0.16245 
0.27031 0.30566 0.31453 0.11461 0.027632 0.055747 0.050979 0.13434 
0.004943 0.020398 0.082546 0.063968 0.043416 0.029112 0.0056006 -0.01676 
-0.20205 -0.41809 -0.28771 -0.1501 -0.0078813 -0.041751 -0.061316 -0.20419 
-0.22195 -0.54584 -0.38554 -0.20764 -0.041586 -0.037805 -0.06707 -0.29593 
-0.18775 -0.31057 -0.17328 -0.064933 0.032893 0.016781 -0.039942 -0.2379 
-0.12314 -0.13727 0.087972 0.086657 0.082546 0.087314 -0.0138 -0.073154 
-0.089266 -0.17493 0.19632 0.16771 0.084684 0.089452 -0.017582 0.0689 
-0.073154 -0.29676 0.10836 0.13582 0.058706 0.031907 -0.049314 0.084848 
0.1391 -0.047834 0.058377 0.039799 0.0046141 0.016288 -0.028597 0.14042 
0.3752 0.35399 0.077614 0.030098 0.034209 0.018425 -0.001798 0.18202 
0.50805 0.50673 0.10803 0.056569 0.043251 0.038648 0.049006 0.20684 
0.36978 0.40809 0.062652 0.06594 0.03536 0.039963 0.072517 0.12003 
-0.0039354 0.23331 0.076627 0.058871 0.034373 0.042265 0.09833 -0.0019624 
-0.3229 0.0098754 0.01711 0.064461 0.035524 0.0421 0.13056 -0.12692 
-0.33474 -0.15684 -0.06296 -0.035667 0.046375 0.029112 0.10852 -0.12823 
-0.26634 -0.2106 -0.16818 -0.029584 -0.009361 -0.020377 0.070051 -0.098144 
-0.22063 -0.16046 -0.19942 -0.010512 0.010697 -0.042408 0.046704 -0.071181 
-0.02942 -0.092061 -0.11968 -0.0031133 0.010862 0.01004 0.045718 0.019247 
0.27096 0.036182 0.0041209 0.057062 0.048513 0.041936 0.049992 0.10803 
0.35268 0.073175 0.060186 0.069064 0.053938 0.037826 0.033551 0.082711 
0.16821 -0.11097 0.061501 0.051472 0.057391 0.054103 0.010369 0.040621 
0.033551 -0.31764 0.071037 0.047362 0.055911 0.041443 0.0024767 0.023686 
0.15275 -0.15816 0.10704 0.073668 0.033222 0.016616 0.028125 0.074819 
0.1276 0.027139 0.093726 0.034866 -0.0040998 -0.03057 0.0039565 0.067256 
0.091589 0.063145 0.044402 -0.012978 -0.014622 -0.011992 0.0062583 0.050814 
0.27507 0.0786 0.032893 0.00050378 0.016452 0.020562 0.017603 0.12036 
0.33591 -0.004593 -0.00081153 0.050157 0.11247 0.095864 0.082875 0.099974 
-0.025145 -0.097651 -0.02498 0.079916 0.1031 0.082053 0.093069 -0.026789 
-0.33227 -0.014951 -0.024158 -0.0031133 0.027468 0.048348 0.058871 -0.12988 
-0.27637 0.25502 0.11066 0.090931 1.0539e-005 0.01004 0.049335 -0.072332 
-0.26206 0.32029 0.07597 0.072024 0.0054362 -0.013143 0.053938 -0.03912 
-0.4467 -0.003771 -0.15487 -0.11163 0.016781 -0.018404 0.056076 -0.081045 
-0.42697 -0.34115 -0.24234 -0.17904 0.031907 0.007738 0.071859 -0.071016 
-0.077757 -0.26091 0.023357 -0.030406 0.065283 0.049335 0.11888 0.058377 
0.33459 0.15851 0.3295 0.24236 0.13138 0.11099 0.15522 0.18383 
0.54948 0.48273 0.43719 0.3854 0.12118 0.11395 0.15275 0.28132 
0.81287 0.59404 0.30401 0.35827 0.093726 0.1128 0.11724 0.35186 
1.0385 0.50016 0.11543 0.22739 0.055582 0.089123 0.12414 0.37471 
0.74974 0.090274 -0.071181 0.070215 0.052294 0.06742 0.10869 0.28395 
-0.051287 -0.57264 -0.20123 -0.088937 0.0041209 -0.0052507 0.047362 0.0042853 
-1.1363 -1.2993 -0.32635 -0.24793 -0.074469 -0.066741 -0.018239 -0.26913 
-1.763 -1.5037 -0.43322 -0.32947 -0.12757 -0.15437 -0.071674 -0.47301 
-1.6727 -0.93172 -0.42796 -0.37288 -0.15618 -0.22622 -0.1672 -0.60043 
-0.9475 0.26406 -0.19153 -0.22885 -0.12083 -0.16983 -0.1575 -0.49011 
0.16327 1.2469 0.147 0.028125 -0.036983 -0.019719 -0.078415 -0.093541 
0.97203 1.4138 0.36024 0.25025 0.027961 0.060186 0.051308 0.25584 
1.0197 0.91909 0.3752 0.33624 0.04917 0.087643 0.11083 0.39 
0.76963 0.47714 0.2685 0.35547 0.011848 0.11165 0.18646 0.37635 
0.60686 0.34857 0.18629 0.27721 0.0786 0.064132 0.12891 0.35514 
0.49325 0.32522 0.12891 0.20602 0.061008 0.075641 0.12266 0.34018 
0.49638 0.41614 0.1904 0.21983 0.072353 0.074161 0.11214 0.34413 
0.3849 0.3535 0.1932 0.24499 0.097837 0.024344 0.08978 0.27738 
-0.072003 0.058049 0.13154 0.18333 -0.0019624 -0.0082102 -0.004593 0.010369 
-0.42911 -0.17328 0.057227 0.13993 0.042594 0.025495 0.0011614 -0.14204 
-0.41859 -0.14484 0.028947 0.12053 0.093562 0.085999 0.042923 -0.15602 
-0.19564 -0.24234 -0.0077169 0.062323 0.051965 0.084026 0.01974 -0.052766 
-0.041751 -0.57182 -0.23872 -0.10012 -0.014622 0.0023123 -0.019555 -0.017911 
-0.025309 -0.72571 -0.38718 -0.25039 -0.033037 -0.051122 -0.065426 0.060844 
-0.20419 -0.64794 -0.37979 -0.31649 -0.0096899 -0.084005 -0.080388 0.022535 
-0.57001 -0.55045 -0.36186 -0.32569 -0.0047575 -0.071674 -0.061151 -0.090088 
-0.53105 -0.16292 -0.23148 -0.20863 0.03651 0.0028056 -0.042079 -0.18512 
-0.27292 0.35893 0.028947 -0.029584 0.091425 0.063474 -0.0036066 -0.14434 
-0.14434 0.63005 0.21589 0.14963 0.12233 0.08863 0.034044 -0.05178 
-0.14369 0.53255 0.2297 0.22082 0.091425 0.083533 0.038483 0.034044 
-0.12215 0.16426 0.18251 0.20684 0.05065 0.021878 0.01004 0.1197 
-0.15405 -0.20501 0.066927 0.13187 -0.026131 -0.032872 -0.035503 0.071037 
0.12694 -0.17427 -0.034845 0.067913 -0.048327 -0.049971 -0.050793 0.030098 
0.45527 0.20224 0.025824 0.076792 -0.010512 0.023357 -0.019226 -0.032379 
0.62034 0.53025 0.12266 0.13598 0.043416 0.054596 0.029441 0.11543 
0.60801 0.52548 0.16541 0.18613 0.062652 0.070873 0.040456 0.20997 
0.41335 0.24515 0.13828 0.18037 0.064625 0.036839 0.014315 0.22707 
0.14815 0.03092 0.08715 0.14486 0.04917 0.032236 -0.006566 0.13121 
0.058871 0.041278 0.059364 0.11806 0.034209 0.03388 0.0075736 0.096028 
0.15653 0.14354 0.079751 0.15226 0.043745 0.052787 0.0051074 0.1391 
0.16541 0.10392 0.072517 0.13154 0.077285 0.062159 0.025495 0.12168 
0.069558 -0.12774 -0.0054151 0.073997 0.067913 0.058542 0.040456 0.045718 
-0.072332 -0.19712 -0.057205 0.016781 0.047362 0.016123 0.01826 -0.034352 
-0.070194 -0.010183 -0.025967 0.011191 0.024837 0.00050378 -0.00031829 -0.058356 
-0.19022 -0.18232 -0.023336 0.0062583 0.0085601 0.0074092 -0.014458 -0.10193 
-0.24973 -0.46479 -0.012485 0.043416 -0.011498 0.02122 -0.006566 -0.051122 
-0.22655 -0.55061 0.024015 0.062652 0.0227 0.0037921 0.0072447 -0.0013048 
-0.079895 -0.29396 0.034537 0.074326 0.020727 -0.0070593 0.021878 0.028454 
0.16163 0.013328 0.026152 0.062981 0.018754 0.0059294 0.0056006 0.058049 
0.4293 0.16623 -0.032215 0.02122 -0.0047575 0.013328 0.0093821 0.10573 
0.58105 0.21868 -0.10916 -0.047998 -0.030406 0.0044497 -0.0004827 0.080738 
0.25337 0.16574 -0.10669 -0.050629 -0.014951 -0.0088678 0.019411 -0.052109 
-0.16391 0.22772 0.022535 0.038812 0.031578 -0.0050863 0.019905 -0.16177 
-0.16177 0.42321 0.19122 0.16278 0.052294 0.037661 0.029112 -0.072167 
0.019247 0.42305 0.27639 0.25814 0.071202 0.082053 0.039141 0.059364 
0.1271 0.22526 0.29776 0.29924 0.10343 0.12727 0.080738 0.16278 
0.36764 0.14815 0.28987 0.31404 0.17659 0.17856 0.14815 0.24696 
0.53485 0.17347 0.24515 0.29102 0.18695 0.21786 0.09981 0.26406 
0.44853 -0.03353 0.13351 0.24186 0.096686 0.097344 0.084519 0.2029 
0.065118 -0.36614 0.0032988 0.11625 -0.019061 0.018918 0.042758 0.049992 
-0.16424 -0.46923 -0.018568 0.058706 -0.022185 0.0026412 0.031249 -0.0049219 
-0.19038 -0.32421 -0.028269 0.031907 0.017767 0.033222 0.037497 -0.080881 
-0.50869 -0.1358 -0.020212 0.020233 -0.00097594 -0.009361 -0.0036066 -0.16243 
-0.30991 0.38605 0.090274 0.081395 -0.039778 -0.056055 -0.015609 -0.17312 
0.35432 0.86812 0.12858 0.15078 -0.063124 -0.05326 -0.018239 -0.044217 
0.67526 0.86746 0.10376 0.14881 -0.045532 -0.023501 0.022535 0.055254 
0.58878 0.57793 0.094384 0.14239 -0.014787 0.045389 0.029112 0.10721 
0.16262 0.011848 0.038483 0.10425 0.030592 0.036017 0.035853 0.063639 
-0.29676 -0.40165 -0.034516 0.046868 0.025659 0.0083956 0.0047785 -0.050464 
-0.46101 -0.42927 -0.038462 0.009711 0.01711 -0.0070593 -0.00015387 -0.11755 
-0.40774 -0.3931 0.039305 0.049006 0.0013258 0.0011614 0.012177 -0.11097 
-0.22113 -0.39409 0.055911 0.10984 0.015465 0.015301 0.018425 -0.0087034 
-0.078086 -0.21767 0.11461 0.14404 -0.010019 0.012835 0.0227 0.0026412 
-0.033859 0.095206 0.20816 0.21178 -0.024158 0.0092177 0.028783 0.042265 
0.17462 0.36961 0.22098 0.24203 0.036839 0.012013 0.055911 0.032236 
0.20635 0.35186 0.12381 0.18432 0.015794 0.015465 0.02122 -0.033037 
0.16623 0.3683 0.15686 0.18711 0.030592 0.025166 0.022371 -0.030735 
0.27064 0.40562 0.21326 0.26735 0.064132 0.050321 0.041772 0.071859 
0.29152 0.21046 0.12628 0.20799 0.090438 0.067091 0.066105 0.089452 
0.24959 0.019083 -0.031392 0.086657 0.077778 0.084026 0.077121 0.12562 
0.08863 0.032236 -0.079401 0.011355 0.11346 0.10655 0.081889 0.086821 
-0.095185 0.13302 -0.067564 -0.012814 0.093891 0.065776 0.038648 -0.03353 
-0.37288 0.14716 -0.081045 -0.040928 0.026152 -0.023172 -0.0064016 -0.16029 
-0.36351 0.14404 -0.12412 -0.058028 -0.035174 -0.063782 -0.023829 -0.16654 
-0.028597 0.067749 -0.17312 -0.081703 -0.016266 -0.019226 -0.0019624 -0.036325 
0.14798 -0.10324 -0.085978 -0.058356 0.0021479 -0.0014692 0.026974 0.051308 
0.11017 -0.083676 0.041936 0.031414 -0.0032777 -0.010183 0.01415 0.067749 
-0.064111 -0.068386 0.09833 0.096357 -0.041257 -0.066084 -0.029091 -0.084334 
-0.21027 -0.11179 0.049664 0.082546 -0.030077 -0.035338 -0.019719 -0.16703 
-0.22228 -0.015609 0.011848 0.059364 0.059857 0.034209 0.017603 -0.12692 
0.079587 0.34018 -0.00015387 0.069886 0.15653 0.12036 0.082382 0.040128 
0.25304 0.5115 0.0059294 0.058706 0.17034 0.14782 0.099152 0.11658 
0.011355 0.12003 -0.052273 0.015301 0.070708 0.095699 0.074819 0.069722 
-0.028104 -0.15881 -0.040764 0.0052718 0.025166 0.0059294 0.027303 0.021384 
-0.067399 -0.41924 -0.056548 -0.018239 0.029276 0.0069159 0.024508 -0.040435 
-0.53565 -0.79904 -0.10242 -0.059507 0.031578 -0.027447 -0.017253 -0.096007 
-0.65107 -0.76731 -0.094527 -0.051615 0.029112 -0.014951 -0.049149 -0.12856 
-0.2471 0.049664 -0.035667 -0.0080457 -0.0088678 -0.055726 -0.018568 -0.040928 
0.21293 0.7596 0.058542 0.061995 -0.027775 -0.038298 -0.0098543 0.073175 
0.38869 0.76339 0.074654 0.098823 0.0044497 0.022206 0.050979 0.15357 
0.38737 0.43998 0.085177 0.11658 0.016616 0.046868 0.058542 0.16541 
0.42436 0.24959 0.16755 0.16294 -0.015116 0.047033 0.087972 0.1932 
0.42058 0.24005 0.21506 0.21375 -0.0082102 0.0014903 0.061995 0.16722 
0.2902 -0.0052507 0.03536 0.15456 -0.035996 -0.013307 0.016288 0.12365 
0.059693 -0.50704 -0.23395 -0.061151 0.011848 0.0056006 -0.0052507 0.027632 
-0.30481 -1.0981 -0.47334 -0.28985 0.042923 0.018096 0.0039565 -0.047505 
-0.56015 -1.3115 -0.57889 -0.43733 0.043909 0.010862 0.013821 -0.071016 
-0.17838 -0.43486 -0.23395 -0.279 0.076134 0.074326 0.047362 0.10425 
0.36386 0.80186 0.26554 0.080409 0.10425 0.1128 0.066105 0.19007 
0.47484 1.1488 0.31749 0.26094 0.076299 0.037661 0.042594 0.14091 
0.42371 0.76256 0.037826 0.13615 0.049992 -0.0088678 0.012506 0.052459 
0.4755 0.33492 -0.033201 0.058542 0.024179 0.019576 0.012999 0.0044497 
0.0062583 -0.038298 0.068571 0.090438 0.035031 0.024179 0.0093821 -0.080059 
-0.53631 -0.39261 0.030098 0.077943 0.053609 0.007738 0.0069159 -0.12445 
-0.49635 -0.48633 -0.059178 0.0074092 0.061501 0.031085 0.052623 -0.024652 
-0.30777 -0.30185 -0.046847 0.00297 0.0079024 -0.0073881 0.025166 0.024508 
-0.7336 -0.17772 -0.0088678 0.040785 -0.083347 -0.070359 -0.030899 0.019083 
-0.58908 0.07301 0.0051074 0.042923 -0.12363 -0.10176 -0.04323 0.079422 
0.34232 0.36649 -0.0095255 0.037826 -0.058028 -0.030077 0.0065871 0.20372 
0.62577 0.21079 -0.077428 -0.003771 0.070873 0.066598 0.057391 0.17511 
0.27162 0.00066819 -0.040435 -0.0032777 0.13845 0.13417 0.071859 0.076134 
0.068571 0.053445 0.056733 0.058213 0.14174 0.11247 0.048513 0.025659 
0.31848 0.2999 0.12085 0.14585 0.088301 0.08567 0.057062 0.097837 
0.19764 0.28872 0.14239 0.16853 0.053774 0.058706 0.019905 0.082053 
-0.074633 0.0088889 0.10885 0.1539 0.023193 0.0067515 0.025659 0.07597 
-0.13662 -0.32306 0.048348 0.11066 -0.017417 0.0093821 0.0082312 0.12579 
-0.053588 -0.45805 0.012999 0.068078 -0.0073881 -0.00064712 0.009711 0.12497 
-0.23559 -0.51641 0.0019835 0.045224 -0.0090322 -0.0011404 -0.0096899 0.11937 
-0.30366 -0.25976 0.036182 0.075476 0.00083261 0.010862 0.00017495 0.070544 
-0.069208 0.12579 0.084848 0.11987 0.031578 0.02533 0.017438 0.062488 
0.27212 0.34676 0.1294 0.15144 0.024015 0.038155 0.027632 0.066105 
0.40726 0.39773 0.1641 0.18383 0.0047785 0.058542 0.047033 0.11263 
0.47155 0.57973 0.14042 0.18185 -0.049971 -0.023994 0.023193 0.10803 
0.53205 0.55803 0.14749 0.17676 -0.10012 -0.091897 0.0088889 0.15472 
0.35514 0.24088 0.1202 0.1567 -0.021363 -0.053917 -0.027282 0.14141 
0.017603 -0.1011 -0.0013048 0.11674 0.038648 0.031249 -0.013143 0.070708 
0.00066819 -0.1358 0.0689 0.13138 0.10113 0.10935 0.08156 0.035688 
-0.081045 0.029276 0.21638 0.21276 0.09422 0.11954 0.082875 0.023193 
-0.36318 0.0090533 0.12053 0.17758 0.015794 0.028619 0.049664 -0.085978 
-0.55867 -0.18676 -0.15766 -0.021363 -0.080717 -0.065919 -0.056548 -0.14813 
-0.21307 -0.047341 -0.31402 -0.18167 -0.061809 -0.077922 -0.061151 -0.0019624 
0.48026 0.51759 -0.16325 -0.11393 0.05213 0.05624 0.017603 0.13286 
0.61985 0.94819 0.18037 0.10967 0.17955 0.18366 0.1373 0.16656 
0.39543 0.99274 0.46793 0.36057 0.18596 0.21441 0.13746 0.078929 
0.25485 0.53288 0.45067 0.43012 0.10902 0.09981 0.079094 0.049006 
-0.069865 -0.33243 0.11954 0.25337 0.0054362 -0.0044286 0.014315 -0.037476 
-0.62213 -0.89802 -0.12577 0.028619 -0.052602 -0.061645 -0.025474 -0.21537 
-0.59928 -0.66997 -0.11952 -0.04323 -0.049478 -0.019061 -0.022514 -0.28196 
0.07597 -0.015116 0.0083956 0.053281 0.0324 0.038483 0.026974 -0.079072 
0.62495 0.14733 0.079587 0.091753 0.038319 0.055582 0.031249 0.12858 
0.50394 0.034866 0.13532 0.14437 0.033715 0.03799 0.049664 0.11017 
0.18498 0.10211 0.26439 0.24515 0.030263 0.050814 0.073175 0.05213 
0.071859 0.13516 0.26932 0.27409 0.041114 0.049335 0.060515 0.010697 
-0.036489 0.015465 0.17791 0.22838 0.037826 0.054103 0.060186 0.027796 
-0.29659 -0.17739 0.052623 0.16706 0.057062 0.066434 0.028454 -0.030899 
-0.41694 -0.32602 -0.09798 0.029112 0.060022 0.067256 0.041607 -0.021856 
-0.24201 -0.29182 -0.19219 -0.083018 0.02533 0.043087 0.040292 -0.0040998 
-0.01939 -0.054739 -0.11557 -0.077264 -0.010183 -0.0052507 0.015137 0.026152 
0.43653 0.35169 0.048677 0.029769 -0.047012 -0.020377 0.0080668 0.097508 
0.90659 0.64879 0.26521 0.18991 0.0072447 0.017438 0.023193 0.15341 
1.0015 0.52186 0.27129 0.2685 0.052623 0.035688 0.077778 0.14552 
0.66063 0.16114 0.074326 0.18317 0.033058 0.028454 0.042594 0.042923 
0.012999 -0.18183 -0.18167 -0.019719 -0.021856 -0.030077 -0.017746 -0.12297 
-0.97973 -0.2379 -0.31714 -0.18035 -0.092226 -0.096994 -0.086964 -0.31977 
-1.4636 0.00066819 -0.20567 -0.16407 -0.0771 -0.092883 -0.047341 -0.34411 
-0.90344 0.11839 0.019576 -0.028762 0.0052718 -0.0052507 0.026646 -0.15421 
-0.40182 -0.026789 0.16377 0.11231 0.071202 0.059693 0.065118 0.034866 
0.14091 -0.060823 0.16853 0.18629 0.064954 0.064132 0.051965 0.080244 
0.64665 0.15851 0.20717 0.22624 0.042758 0.044567 0.036839 0.14289 
0.91843 0.44639 0.30286 0.30483 0.051636 0.070873 0.086821 0.18366 
1.0057 0.5554 0.24893 0.29645 0.093233 0.083533 0.095042 0.26916 
0.8229 0.15045 0.0083956 0.12776 0.050486 0.050486 0.058542 0.17971 
0.29464 -0.39031 -0.18298 -0.053424 -0.020541 -0.028269 0.007738 0.0031344 
-0.24184 -0.45081 -0.13563 -0.063289 -0.068879 -0.081703 -0.012649 -0.083347 
-0.31879 -0.23905 -0.084005 -0.041586 -0.064604 -0.063124 -0.018239 -0.059507 
-0.43766 -0.3492 -0.19794 -0.10932 0.027139 -0.0014692 0.0047785 -0.091404 
-0.899 -0.59319 -0.24365 -0.16259 0.12349 0.097672 0.02533 -0.20057 
-1.0511 -0.6994 -0.20501 -0.15964 0.1539 0.11296 0.048348 -0.2203 
-0.79641 -0.46298 -0.088115 -0.092719 0.18678 0.13384 0.087972 -0.11426 
-0.25927 -0.052931 0.032071 0.0037921 0.050157 0.061666 0.029112 -0.0011404 
0.32752 0.3831 0.093069 0.10441 -0.056219 -0.081868 -0.031557 0.052623 
0.52285 0.51824 0.1294 0.14174 -0.080388 -0.092554 -0.043395 0.12842 
0.3803 0.39263 0.043087 0.10803 -0.026296 -0.039449 -0.024487 0.10047 
0.25633 0.23775 -0.071345 0.020727 0.016452 -0.015609 -0.00081153 0.049006 
0.22148 0.072024 -0.029748 0.011848 -0.0026201 -0.019061 0.014315 0.047855 
-0.09387 -0.13136 0.0095465 0.024179 -0.041751 0.0011614 0.012835 0.073997 
-0.17279 0.10195 0.080738 0.10014 -0.018404 0.014479 0.023028 0.081067 
1.0539e-005 0.53436 0.15604 0.16508 0.01974 0.030427 0.041278 0.078436 
0.16327 0.59091 0.13976 0.1738 0.039305 0.032236 0.024179 0.11115 
0.17988 0.42716 0.075476 0.13582 0.0034632 0.0056006 -0.0013048 0.13713 
0.086985 0.1932 -0.017417 0.061501 -0.053753 -0.04471 -0.035832 0.10491 
-0.021034 0.0026412 -0.079401 -0.0090322 -0.042573 -0.056219 -0.014622 0.043416 
-0.057699 -0.087622 -0.065591 -0.015938 0.04095 0.01415 0.016616 0.045718 
0.04095 -0.010512 -0.019555 0.03536 0.12825 0.088465 0.063639 0.11954 
0.17429 0.1909 0.11378 0.1151 0.17215 0.13845 0.086492 0.25469 
0.28362 0.35695 0.2343 0.21753 0.17889 0.15587 0.090603 0.34216 
0.40217 0.36238 0.2269 0.2417 0.073997 0.094877 0.10474 0.37603 
0.45938 0.2685 0.19369 0.22444 0.058049 0.061501 0.068736 0.29678 
0.43982 0.17676 0.11559 0.16212 0.062817 0.05624 0.050321 0.27179 
0.32029 -0.14813 -0.096007 0.048513 0.04917 0.032893 0.029441 0.30878 
-0.026131 -0.78819 -0.30448 -0.1473 0.025166 -0.0050863 0.011355 0.18909 
-1.0402 -1.3164 -0.40691 -0.28147 -0.035996 -0.064604 -0.038133 -0.20107 
-1.7839 -1.0151 -0.31681 -0.27588 -0.070194 -0.07825 -0.076113 -0.57823 
-0.97085 0.05213 -0.045696 -0.1062 -0.039942 -0.044381 -0.04619 -0.52414 
0.53468 1.0445 0.23331 0.12316 -0.017088 0.0052718 -0.009361 -0.099131 
1.5051 1.5271 0.39543 0.32555 0.061172 0.04358 0.04506 0.20997 
1.3913 1.3674 0.32752 0.36353 0.062159 0.059693 0.053116 0.17922 
0.97597 0.85381 0.15012 0.25288 0.066763 0.056569 0.055418 0.21441 
0.61936 0.36682 0.02533 0.13795 0.088958 0.099481 0.06742 0.25847 
-0.062302 -0.26979 -0.15651 -0.013965 0.089945 0.066763 0.045224 0.18974 
-0.55258 -0.75744 -0.2185 -0.1205 0.044731 0.039305 0.023686 0.082217 
-0.32487 -0.74018 -0.14993 -0.10768 0.050979 0.044402 0.039141 0.12233 
-0.016266 -0.44259 -0.0082102 0.016452 0.096521 0.10474 0.080902 0.171 
-0.0771 -0.092554 0.12891 0.11806 0.03536 0.05624 0.064296 0.10918 
-0.51888 -0.10308 0.18711 0.18218 0.030756 0.034866 0.019576 -0.047505 
-0.88486 -0.41859 0.10408 0.15933 -0.065755 -0.033859 -0.012156 -0.061973 
-0.65156 -0.56557 0.011848 0.085506 -0.07562 -0.044052 -0.0016336 -0.022843 
-0.11771 -0.31402 0.020069 0.060679 -0.059836 -0.050793 -0.0029489 -0.031886 
0.28576 0.24712 0.097015 0.12727 0.0083956 -0.023172 0.0062583 -0.066248 
0.48306 0.72376 0.14634 0.18136 0.038483 0.03092 0.032564 -0.060658 
0.41269 0.87404 0.21424 0.22756 0.083862 0.077943 0.051801 0.017932 
0.47566 0.72738 0.20339 0.23973 0.079587 0.073832 0.071202 0.093562 
0.39016 0.37981 0.17248 0.22197 0.017932 0.040621 0.054267 0.12316 
0.18794 -0.0049219 0.08156 0.15111 -0.026296 -0.033201 0.021713 0.041772 
0.12973 -0.17986 0.00050378 0.081724 0.0031344 0.0087245 0.004943 0.036675 
0.35432 -0.12692 -0.053917 0.054925 0.083697 0.077449 0.037826 0.009711 
0.33476 -0.12462 -0.09946 -0.017253 0.13532 0.12792 0.054267 -0.0965 
-0.050958 -0.15618 -0.075949 -0.021692 0.12628 0.12612 0.059035 -0.20403 
-0.35249 -0.16818 0.04358 0.04506 0.11592 0.098988 0.09422 -0.19202 
-0.40149 -0.31073 0.041772 0.057391 0.037004 0.016452 0.061008 -0.13991 
-0.22507 -0.31698 0.01974 0.046704 -0.082032 -0.044217 0.0069159 -0.085813 
-0.28821 -0.28097 -0.0068948 0.058706 -0.14993 -0.14155 -0.037476 -0.099789 
-0.3686 -0.19909 -0.030406 0.029769 -0.16851 -0.14369 -0.045532 -0.12889 
-0.18084 -0.25352 0.00099702 0.041443 -0.078579 -0.080388 -0.019061 -0.16687 
0.28198 -0.13629 -0.035503 0.020562 -0.025145 -0.0026201 -0.020212 -0.16901 
0.47895 0.11148 -0.075127 -0.017088 0.066598 0.072846 0.0093821 -0.1085 
0.35465 0.34413 -0.029255 -0.00064712 0.16048 0.12497 0.054925 -0.12067 
0.16952 0.47171 0.060515 0.069886 0.19155 0.13253 0.085341 -0.15651 
-0.037805 0.27524 0.073175 0.11872 0.1322 0.088301 0.040292 -0.2037 
-0.50425 0.01711 0.10014 0.12677 0.023686 -0.017417 -0.017582 -0.31451 
-0.47416 0.1077 0.14289 0.16229 -0.068221 -0.047176 -0.045039 -0.28804 
-0.34953 0.014808 0.159 0.1858 -0.073318 -0.030899 0.010862 -0.12823 
-0.5317 -0.52628 0.041114 0.10589 -0.048327 0.0087245 0.010533 -0.059836 
-0.44999 -1.0212 -0.18002 -0.053917 0.0069159 0.0064227 -0.0073881 -0.088937 
-0.42549 -0.98252 -0.25401 -0.13777 0.097179 0.02533 -0.016924 -0.13629 
-0.35381 -0.42894 -0.1746 -0.12922 0.075312 0.044567 -0.01676 -0.15207 
-0.095021 0.25798 -0.050793 -0.051944 0.018754 -0.0083746 -0.063289 -0.1307 
0.45922 0.91465 0.090931 0.059857 -0.029255 -0.030899 -0.090746 -0.020377 
0.75467 1.0291 0.17248 0.14979 -0.014458 -0.012978 -0.074469 0.1174 
0.72425 0.71455 0.21276 0.19961 0.025166 0.025824 -0.061645 0.12513 
0.43127 0.26439 0.13647 0.18728 0.032236 0.037497 0.020562 0.084848 
0.040621 -0.10587 0.032564 0.13121 -0.023829 -0.011827 0.044567 -0.056383 
-0.076606 -0.15289 -0.011827 0.069886 -0.0082102 -0.0034422 0.052787 -0.018897 
0.092082 0.10902 -0.021528 0.050157 0.036182 0.051636 0.066927 0.075641 
0.16475 0.21671 0.032729 0.065118 0.058542 0.037826 0.10524 0.10392 
0.21358 0.31684 0.12628 0.12431 0.010369 -0.03353 0.13319 0.039305 
0.3489 0.50476 0.21983 0.1909 -0.006566 -0.044546 0.028947 0.047855 
0.41137 0.46432 0.02829 0.15061 0.045224 0.00033937 -0.00015387 0.027303 
0.22723 0.075476 -0.10965 0.013986 0.11115 0.0786 0.050814 -0.004593 
-0.29741 -0.37896 -0.055561 0.0064227 0.2029 0.1761 0.11181 -0.0095255 
-0.87155 -0.58629 0.09685 0.091589 0.21769 0.18399 0.12825 0.01152 
-0.88782 -0.40839 0.15604 0.14963 0.12332 0.1179 0.080573 0.092082 
-0.37206 0.032564 0.183 0.17412 0.004943 0.019247 0.0067515 0.18317 
0.22855 0.40085 0.17741 0.21079 -0.029748 -0.029913 0.024179 0.31042 
0.57069 0.49506 0.159 0.20717 -0.013471 -0.042737 0.041936 0.40036 
0.76043 0.37208 0.086328 0.15966 0.0051074 0.0014903 0.048184 0.44623 
0.8451 0.2759 -0.0047575 0.081395 0.016123 0.029441 0.068571 0.42453 
0.57612 -0.019555 -0.10932 -0.015938 -0.025638 -0.010512 0.036675 0.32456 
0.08304 -0.28541 -0.22326 -0.12725 -0.063124 -0.07003 0.013657 0.11263 
-0.64301 -0.39606 -0.31122 -0.21932 -0.071509 -0.0965 -0.055232 -0.12379 
-0.67277 0.063968 -0.32734 -0.22688 -0.06707 -0.13136 -0.096007 -0.20764 
0.051801 0.89705 -0.13119 -0.13021 -0.008539 -0.069208 -0.028926 -0.017911 
0.068078 0.78196 0.071202 0.018589 0.079258 0.039141 0.059693 0.18547 
-0.15437 0.13269 0.20849 0.12858 0.10787 0.17051 0.1738 0.29612 
-0.12955 -0.26387 0.28724 0.2098 0.1294 0.17199 0.18251 0.38803 
0.11543 -0.1649 0.39904 0.33903 0.10984 0.12102 0.18152 0.42897 
0.37126 0.090603 0.39345 0.41779 0.08863 0.096686 0.16196 0.4681 
0.50246 0.28182 0.3096 0.37471 0.08715 0.076299 0.15538 0.44722 
0.53567 0.28494 0.10935 0.083862 0.015794 0.025824 0.10721 0.41285 
0.45905 0.018096 -0.10357 -0.11442 -0.00097594 -0.032872 0.059035 0.30812 
0.39477 -0.14599 -0.14122 -0.05589 0.0051074 0.00017495 0.054103 0.22986 
0.31371 0.079258 -0.041257 0.030427 0.058213 0.055582 0.076463 0.15193 
0.0024767 0.22855 0.014808 0.029441 0.06742 0.058706 0.10639 0.042758 
-0.015609 0.25715 0.066269 0.0786 0.066927 0.059857 0.088958 0.099152 
0.21326 0.28576 0.16853 0.078765 0.063145 0.06594 0.089123 0.22838 
0.1026 0.015301 0.18465 0.10014 0.034209 0.061008 0.095535 0.24647 
-0.27884 -0.5562 0.063639 0.065776 0.0062583 0.0054362 0.09981 0.13927 
-0.72407 -0.96362 -0.23559 -0.075949 -0.049314 -0.058028 0.041114 -0.07003 
-0.88552 -0.84442 -0.42286 -0.20057 -0.066084 -0.10669 -0.030242 -0.2887 
-0.45459 -0.094034 -0.30514 -0.16095 -0.039284 -0.051287 -0.039449 -0.27357 
0.062652 0.60768 -0.0036066 -0.046025 0.012342 -0.022679 -0.011827 -0.1307 
0.34232 0.79841 0.13138 0.01563 0.049006 0.013657 0.054596 0.055254 
0.54406 0.68611 0.20388 0.075148 0.070544 0.04654 0.066598 0.21293 
0.51709 0.42502 0.29332 0.13088 0.019083 0.064461 0.055911 0.26291 
0.40661 0.22641 0.29875 0.070215 0.03947 0.048841 0.058213 0.17363 
0.27557 -0.042244 0.13023 0.0021479 -0.012814 0.017932 0.053445 0.034702 
0.035853 -0.2254 0.0075736 -0.033859 -0.017088 0.012506 0.030263 -0.087129 
-0.32076 -0.35331 0.076299 -0.017746 0.0227 0.014808 0.026152 -0.096829 
-0.48945 -0.30876 0.14979 0.098166 0.036017 0.024015 0.0064227 -0.061316 
-0.44999 -0.31501 -0.0054151 0.011684 0.04654 0.0074092 0.004943 -0.071345 
-0.22491 -0.14188 -0.22852 -0.068057 0.04654 0.028947 0.01974 -0.069372 
0.47911 0.24828 -0.18676 -0.009361 0.095535 0.10129 0.047033 0.027468 
1.0786 0.59667 0.020233 0.11576 0.16048 0.18004 0.11247 0.14157 
0.92944 0.49818 0.16706 0.16541 0.082546 0.10113 0.060186 0.048513 
0.39707 0.10704 0.17511 0.08419 -0.018239 0.0039565 0.0018191 -0.089266 
-0.48945 -0.47564 -0.073647 -0.050958 -0.053095 -0.067235 -0.052109 -0.27818 
-1.4633 -0.972 -0.29511 -0.1524 -0.075949 -0.1187 -0.10291 -0.47794 
-1.472 -0.84787 -0.35299 -0.096829 -0.038133 -0.094692 -0.099953 -0.53105 
-0.66389 -0.1598 -0.23527 -0.016924 0.033222 -0.009361 -0.072332 -0.40922 
-0.25828 -0.04323 -0.080881 0.0059294 0.04917 0.031907 -0.019719 -0.34592 
-0.21965 -0.35183 -0.018897 0.014643 0.03536 0.025001 -0.036983 -0.28097 
-0.078579 -0.40099 0.063145 -0.001798 -0.0034422 -0.0072237 -0.025474 -0.22392 
0.15176 -0.057205 0.21309 0.035195 -0.014129 -0.0019624 -0.023007 -0.14599 
0.36534 0.40529 0.38392 0.075805 0.013821 0.018425 0.018589 -0.026296 
0.48651 0.68693 0.43604 0.084519 0.029112 0.032236 0.020727 0.027139 
0.48766 0.73034 0.35991 0.090767 0.053609 0.049992 0.01563 0.033222 
0.37734 0.49966 0.20471 0.058213 0.039141 0.035688 0.021713 0.028125 
0.22115 0.21802 -0.0098543 0.025001 0.025659 0.071366 0.013657 0.063639 
0.18415 0.02681 -0.16506 0.004943 0.055747 0.052623 0.03651 0.08978 
0.18202 -0.0049219 -0.17476 0.010533 0.063145 0.048348 0.01711 0.1881 
0.15933 -0.063782 -0.12889 0.0021479 0.050321 0.025659 -0.0032777 0.17988 
-0.031557 -0.23379 -0.1358 0.0060938 0.045882 0.029605 -0.022679 0.066269 
-0.26683 -0.42352 -0.11031 0.024179 0.01267 0.012177 -0.028597 -0.17986 
-0.29182 -0.28262 -0.001798 0.067091 0.01267 0.019576 -0.0070593 -0.27933 
0.054103 0.083697 0.10704 0.10063 -0.0082102 0.010697 0.014315 -0.12067 
0.33476 0.25617 0.14141 0.10014 -0.015938 -0.00031829 0.010204 0.071531 
0.25321 0.020398 0.057227 0.066598 0.020398 0.0072447 -0.0029489 0.1225 
-0.084498 -0.39606 -0.18923 -0.034845 0.041936 1.0539e-005 0.013328 -0.081539 
-0.41776 -0.38603 -0.28393 -0.090581 0.044731 0.022864 -0.013965 -0.31155 
-0.51691 0.060679 -0.11311 -0.0047575 0.0689 0.037497 -0.052602 -0.38291 
-0.29593 0.45248 0.043745 0.070873 0.081724 0.04095 -0.026131 -0.19268 
-0.22129 0.41565 0.05476 0.031907 0.020727 0.0062583 0.0019835 -0.029255 
-0.037476 0.36616 0.026152 -0.019719 -0.028926 -0.027611 0.015465 0.089287 
0.039799 0.26422 0.065283 0.012835 -0.057534 -0.024323 -0.008539 0.040785 
-0.0042642 0.1345 0.083697 0.030592 -0.032379 -0.017417 -0.0031133 0.034373 
0.19402 0.17889 0.14058 0.07597 0.032071 0.046211 0.00066819 0.12431 
0.47599 0.2731 0.20208 0.15226 0.080409 0.088958 0.093562 0.24482 
0.53732 0.27162 0.2024 0.091918 0.10425 0.094548 0.080244 0.28001 
0.3928 0.057062 0.084848 0.058542 0.02122 0.037497 0.062323 0.25748 
0.15916 -0.26124 -0.054082 0.043416 -0.0075525 0.019576 0.051308 0.2269 
-0.034516 -0.43075 -0.1769 0.0046141 0.034537 0.044731 0.037826 0.11083 
0.0042853 -0.19811 -0.1866 0.038155 0.098001 0.084519 0.027303 0.063639 
0.21769 0.22 0.0059294 0.072024 0.10787 0.083697 0.036839 0.052294 
0.32752 0.52745 0.18054 0.07449 0.082875 0.037168 0.028947 0.097179 
0.48306 0.79462 0.3586 0.079587 0.012177 -0.0032777 0.017603 0.16689 
0.71768 1.0184 0.5092 0.12266 -0.017911 -0.0059084 0.061337 0.36616 
0.73774 0.81402 0.3119 0.058542 -0.047669 -0.022021 0.0421 0.37027 
0.48257 0.27705 -0.11639 -0.080223 -0.077757 -0.065591 -0.03912 0.22213 
0.16558 -0.1011 -0.255 -0.10669 -0.0013048 -0.031721 -0.032543 0.059364 
-0.21981 -0.34361 -0.13284 -0.015444 0.099974 0.082875 0.011026 0.019576 
-0.72045 -0.71716 -0.039778 0.03799 0.11822 0.09422 0.0227 -0.21751 
-1.1917 -0.87549 -0.023172 0.08156 0.069558 0.039799 -0.01676 -0.46479 
-1.1566 -0.71897 -0.090253 -0.01117 -0.004593 -0.028269 -0.027282 -0.38176 
-0.48304 -0.16999 -0.11311 -0.047505 -0.035667 -0.048985 -0.034188 -0.16934 
0.2394 0.26389 -0.044052 -0.017582 -0.044874 -0.052109 0.04917 0.0037921 
0.33805 0.3632 0.074161 0.014808 -0.0075525 0.01267 0.064461 0.092082 
0.1294 0.38589 0.21408 0.066105 0.047691 0.076299 0.081231 0.08304 
0.27672 0.38852 0.25452 0.15094 0.050979 0.093069 0.083204 0.13253 
0.76273 0.35531 0.19796 0.076792 0.049499 0.070544 0.088465 0.24976 
0.87552 0.28428 0.11559 0.024673 0.033058 0.038155 0.068571 0.24976 
0.50361 0.21819 0.051143 -0.0013048 -0.014622 -0.023829 0.0023123 0.1465 
0.051472 0.10408 0.051472 -0.034023 -0.033201 -0.037969 -0.036489 0.070215 
-0.32208 0.23101 0.053774 -0.041751 -0.032872 -0.032215 -0.022843 0.048513 
-0.44851 0.20997 -0.033365 -0.012485 -0.05885 -0.025967 0.012013 0.080902 
-0.15125 0.098823 -0.052273 -0.018075 -0.021363 -0.020212 0.036675 0.1761 
0.22361 0.077943 -0.0080457 0.02681 0.036017 0.040292 0.066105 0.27557 
0.40365 0.17593 -0.047176 0.068736 0.07597 0.062652 0.071695 0.29497 
0.57612 0.30138 0.017932 0.081067 0.11017 0.10606 0.085999 0.27392 
0.54685 0.31618 0.2394 0.14733 0.1299 0.12891 0.11247 0.19862 
0.3849 0.15916 0.31881 0.20684 0.12431 0.13105 0.090109 0.10408 
-0.1838 -0.30021 0.21375 0.099481 0.067256 0.068242 0.033222 -0.081539 
-1.1328 -1.0141 0.013492 -0.016431 -0.022679 -0.0057439 -0.0014692 -0.19581 
-1.5779 -1.4453 -0.13152 0.0011614 -0.051122 -0.036818 -0.018568 -0.20715 
-0.72374 -1.033 -0.18676 -0.015609 0.010204 -0.018897 -0.022021 -0.068714 
0.39855 -0.31566 -0.21554 -0.018897 0.038319 0.0023123 -0.021692 0.0065871 
0.3849 -0.065262 -0.21258 -0.049807 0.0032988 -0.017417 -0.040435 -0.04882 
-0.13399 -0.10571 -0.22524 -0.14484 -0.085978 -0.05178 -0.083676 -0.20288 
-0.31106 0.051143 -0.17509 -0.14287 -0.099295 -0.10883 -0.1039 -0.27571 
-0.05885 0.65849 0.042594 -0.0062372 -0.045203 -0.055397 -0.046683 -0.16342 
0.34725 1.074 0.24203 0.12595 0.048513 0.027303 0.069722 0.079094 
0.1151 0.70074 0.27475 0.15719 0.057884 0.088465 0.12349 0.17297 
-0.2693 0.16344 0.18678 0.1054 0.04358 0.053116 0.13187 0.11757 
-0.19531 0.020727 0.26439 0.076627 0.054925 0.051965 0.089616 0.12414 
0.12053 0.050814 0.36583 0.11148 0.077614 0.077121 0.061501 0.13582 
0.32999 -0.0047575 0.31552 0.14716 0.061995 0.064954 0.034702 0.16327 
0.26242 0.13088 0.23907 0.099481 0.039963 0.033715 0.015301 0.11724 
0.18678 0.24384 0.18662 0.044731 0.014808 -0.0098543 0.020398 0.12085 
0.09833 -0.059178 -0.061316 -0.028104 -0.0039354 -0.011334 0.017274 0.06479 
-0.069865 -0.56623 -0.40001 -0.1353 -0.035174 0.0024767 0.0013258 0.073668 
-0.088115 -0.56196 -0.43519 -0.11343 -0.003771 0.023028 0.018589 0.12184 
0.056898 -0.2009 -0.19877 -0.0042642 0.056569 0.077943 0.054267 0.14963 
0.032236 0.13812 -0.0080457 0.022371 0.12332 0.082382 0.063803 0.00066819 
0.012342 0.42732 0.084848 0.06479 0.12431 0.10195 0.045224 -0.17443 
0.086985 0.40546 0.076627 0.047691 0.036017 0.060515 0.031578 -0.1205 
-0.060658 0.026974 -0.041093 -0.021528 -0.016595 -0.029255 0.0042853 -0.031228 
-0.36992 -0.26404 -0.05326 0.011848 -0.052437 -0.050629 0.027796 0.033222 
-0.4301 -0.28344 0.015465 0.093398 0.011026 -0.0054151 0.027139 0.10721 
-0.16325 -0.047834 0.082875 0.10754 0.05213 0.030756 0.037661 0.19007 
0.26883 0.20882 0.045389 0.10014 0.059035 0.040456 0.053609 0.25913 
0.59979 0.38951 0.18218 0.12299 0.04917 0.044731 0.093398 0.32604 
0.56214 0.20487 0.31141 0.14782 0.052952 0.057062 0.069229 0.27606 
0.28938 0.031907 0.23397 0.08304 0.00297 0.0032988 0.0065871 0.036346 
0.071859 0.27688 0.045718 -0.0021268 -0.038956 -0.078415 -0.066084 -0.28245 
0.10918 0.66309 0.043909 -0.042408 -0.031064 -0.056219 -0.050629 -0.40313 
0.13351 0.43275 0.063145 0.018754 0.00083261 0.011355 0.00099702 -0.28903 
-0.27719 -0.61473 -0.20436 0.0023123 0.04358 0.060186 0.028947 -0.14089 
-0.46068 -1.0588 -0.39672 -0.089102 0.089123 0.086492 0.039141 -0.01117 
-0.066577 -0.43914 -0.22655 -0.088937 0.09126 0.066105 0.042758 0.073668 
0.092247 0.1174 0.068571 0.040456 0.071695 0.069886 0.049992 0.071366 
-0.39672 0.11083 0.16771 0.067091 0.035031 0.035688 0.051965 0.040621 
-0.37551 0.32407 0.17725 0.044238 -0.048656 -0.004593 0.022864 0.17133 
0.19731 0.49342 0.16673 0.049992 -0.073318 -0.018568 0.039141 0.30187 
0.51512 0.3341 0.094055 0.015137 -0.026624 0.034373 0.04917 0.32292 
0.55672 0.10967 0.017932 -0.018239 0.04095 0.0421 0.055582 0.17807 
0.2611 -0.081539 -0.026953 0.063639 0.10458 0.056898 0.025988 -0.00081153 
0.039963 -0.2032 -0.073647 0.037004 0.080902 0.022371 -0.0068948 -0.12001 
0.077943 -0.04619 -0.063124 0.038977 0.040621 0.021549 -0.016102 -0.11097 
0.066927 0.20076 -0.015444 0.047526 -0.0050863 -0.019555 -0.012649 -0.039613 
-0.056877 0.17676 0.007738 0.035524 -0.0049219 -0.012485 0.013164 0.034209 
-0.018733 0.11921 0.047691 0.052459 0.038977 0.037661 0.04654 0.12431 
0.046704 0.091918 0.009711 0.088958 0.069393 0.1054 0.072517 0.12579 
0.2149 0.08978 -0.032215 0.070051 0.058213 0.078765 0.070215 0.10425 
0.25222 0.050321 -0.05441 0.094877 0.057391 0.068571 0.079094 0.04358 
0.18876 -0.017582 -0.029913 0.10984 0.052459 0.068736 0.052787 0.0080668 
0.029441 -0.20781 -0.026131 0.059364 0.056404 0.051636 0.035853 -0.044381 
-0.18068 -0.45163 -0.037147 0.007738 0.024837 -0.006566 0.034537 -0.03764 
-0.34033 -0.29955 -0.047341 -0.019555 -0.031721 -0.039449 0.0087245 -0.091732 
-0.31517 0.055254 0.010862 -0.010348 -0.024487 -0.032215 -0.0073881 -0.087293 
-0.15026 0.24005 0.092576 0.0062583 0.0024767 -0.0060728 -0.015116 -0.043559 
-0.0138 0.14815 0.10507 0.02829 0.023028 0.0065871 -0.020048 0.0592 
0.14519 0.094548 0.037661 -0.0032777 0.028454 0.0047785 -0.012978 0.048677 
0.32243 0.31026 0.026974 -0.001798 0.0041209 0.0227 0.029276 0.051965 
0.39345 0.50706 0.11526 0.029276 0.021056 0.034866 0.027632 0.060679 
0.41483 0.36501 0.17593 0.037661 0.015137 0.039141 0.038483 0.13253 
0.48092 -0.038462 0.11691 0.024015 0.032893 0.0019835 0.039634 0.18103 
0.27146 -0.33145 0.026481 0.0080668 0.016945 0.013328 0.042429 0.12135 
-0.043395 -0.44802 -0.086142 -0.017417 0.036182 0.023686 0.032893 0.11214 
-0.4056 -0.28327 -0.16934 -0.0022913 0.030756 0.020727 0.011684 0.061337 
-1.0532 -0.087786 -0.16309 -0.001798 0.024508 -0.0004827 -0.019719 -0.14533 
-1.3179 0.077943 -0.07562 0.0046141 0.0092177 -0.0049219 -0.037969 -0.45065 
-0.41168 0.29776 0.033058 0.042594 0.016123 0.014315 -0.010019 -0.36959 
0.41713 0.39066 0.16771 0.065283 0.06035 0.027961 0.026974 -0.067728 
0.68858 0.56395 0.31125 0.091096 0.057555 0.066269 0.07597 0.20997 
0.73428 0.76289 0.37142 0.12858 0.046704 0.11888 0.10326 0.3512 
0.74859 0.89541 0.38869 0.12825 0.061337 0.10343 0.11757 0.36764 
0.6307 0.72425 0.26883 0.070708 0.069886 0.068407 0.10343 0.25502 
0.29826 0.23792 0.071366 0.019576 0.07301 0.053445 0.053116 0.17347 
0.032071 -0.32882 -0.038298 -0.041093 0.067091 0.051801 0.023357 0.12414 
-0.50951 -0.92416 -0.11376 -0.047834 0.010369 0.019905 -0.0054151 -0.050793 
-0.60651 -0.89226 -0.14796 0.014808 0.0044497 0.0019835 -0.012156 -0.10538 
0.34479 -0.10538 0.016123 0.07597 0.051801 0.03388 0.033058 0.077778 
0.63859 0.17445 0.060186 0.057884 0.024344 0.013164 0.027961 0.091753 
0.29234 0.13253 -0.028269 -0.033201 -0.031228 -0.05441 -0.042737 -0.074304 
-0.090253 0.14996 -0.024816 -0.099789 -0.066248 -0.090746 -0.047669 -0.079237 
-0.81104 0.048019 -0.084663 -0.12511 -0.10143 -0.091075 -0.035996 -0.11163 
-1.0026 -0.097158 -0.17821 -0.092883 -0.045861 -0.053917 -0.032379 -0.051287 
-0.30613 0.13467 -0.058521 0.004943 0.01711 0.063145 0.040292 0.015137 
0.5041 0.5873 0.24318 0.1248 0.11181 0.11247 0.10803 0.088465 
0.77884 0.80893 0.41466 0.20569 0.1248 0.12776 0.15127 0.072024 
0.34068 0.20635 0.25715 0.13483 0.034702 0.044896 0.078436 0.037826 
-0.4712 -0.77799 -0.10291 -0.00081153 -0.03057 -0.051451 -0.012978 -0.12166 
-0.81104 -1.0512 -0.45657 -0.15174 -0.069536 -0.11771 -0.085485 -0.22589 
-0.10094 -0.35562 -0.51888 -0.22918 -0.055232 -0.093541 -0.060494 -0.049807 
1.2852 0.8548 -0.18397 -0.17197 0.010369 -0.001798 0.012506 0.2297 
1.8311 1.3406 0.087314 -0.0022913 0.079258 0.091918 0.068571 0.3729 
0.85727 0.65389 0.13631 0.090767 0.15735 0.13762 0.07597 0.084355 
-0.3252 -0.19844 0.14206 0.17643 0.17511 0.13828 0.073832 -0.10258 
-1.1525 -0.78424 0.17939 0.2006 0.14075 0.13039 0.087643 -0.14665 
-1.4541 -0.90574 0.14108 0.12776 0.067585 0.069722 0.041607 -0.080881 
-1.1321 -0.49192 0.041772 0.031578 0.016616 0.023686 0.013986 0.00033937 
-0.39738 -0.10423 0.016123 -0.017911 -0.025474 -0.036654 -0.031721 0.015465 
0.159 0.0085601 0.0018191 -0.046519 -0.037476 -0.039613 -0.043724 0.00297 
0.29004 -0.18627 -0.057699 -0.056055 -0.060987 -0.055726 -0.016924 0.011684 
0.23759 -0.34115 -0.10258 -0.075784 -0.056219 -0.052602 -0.014129 0.0072447 
0.28379 -0.11393 -0.027775 -0.069372 -0.026789 -0.040435 -0.0039354 0.059364 
0.26028 0.14124 0.033058 -0.013143 -0.0083746 0.010204 0.013986 0.0786 
0.18136 0.27623 0.1003 0.05772 0.026317 0.035195 0.0592 0.083204 
0.20257 0.42469 0.21638 0.10178 0.041772 0.056076 0.062981 0.12464 
0.26373 0.53304 0.21342 0.077121 0.098166 0.06742 0.062488 0.090767 
0.44097 0.56872 0.1539 0.11625 0.11083 0.069064 0.041114 0.14815 
0.21293 0.39477 0.11592 0.095864 0.10293 0.049006 0.02681 0.090274 
0.031085 0.30253 0.10589 0.078272 0.047691 0.016945 0.036839 0.015465 
0.074161 0.27261 0.071859 0.062159 0.0082312 -0.017253 0.024344 -0.082032 
-0.20255 -0.023336 -0.021692 -0.022843 -0.078908 -0.05326 -0.019719 -0.19877 
-0.30909 -0.29676 -0.093048 -0.11228 -0.12281 -0.10324 -0.05326 -0.16325 
0.0042853 -0.26486 -0.12001 -0.0965 -0.071016 -0.063124 -0.0034422 -0.0078813 
0.080902 -0.30284 -0.086142 -0.067564 0.023851 0.0227 0.016452 0.031907 
-0.0091966 -0.44259 -0.11557 0.023522 0.12546 0.11181 0.062159 0.05624 
0.08156 -0.4832 -0.17279 0.094877 0.18794 0.17149 0.08715 0.11526 
0.084355 -0.37962 -0.12955 0.13532 0.17166 0.14716 0.1197 0.14864 
-0.026624 -0.074469 0.084519 0.1562 0.11428 0.098659 0.10869 0.11526 
-0.13382 0.33262 0.29168 0.14075 0.049992 0.0421 0.046375 0.012342 
0.016781 0.58664 0.36517 0.058542 0.025495 0.0019835 0.0090533 -0.011827 
0.040621 0.47434 0.31486 0.036017 0.070051 0.0421 0.028619 -0.0049219 
0.16886 0.38737 0.27639 0.11855 0.078107 0.069229 0.09126 0.11362 
0.43456 0.56346 0.2611 0.10343 0.03799 0.055418 0.072846 0.063145 
0.45544 0.46547 0.19813 0.066927 -0.0026201 -0.0075525 0.01563 0.058213 
0.041772 -0.16818 0.10162 0.080573 -0.039778 -0.035174 0.009711 -0.0011404 
-0.44111 -0.4666 -0.064604 -0.0059084 -0.05178 -0.072989 -0.03353 -0.13514 
-0.73163 -0.13053 -0.29182 -0.13349 -0.045203 -0.086636 -0.052273 -0.27423 
-0.51691 0.079258 -0.37436 -0.17493 -0.017911 -0.047669 -0.021856 -0.10489 
-0.012649 0.031249 -0.21258 -0.063782 0.076463 0.073997 0.035853 0.10211 
0.20323 -0.11524 0.17593 0.17429 0.16097 0.13319 0.097837 0.19501 
0.11083 -0.13053 0.35761 0.32555 0.15341 0.1544 0.12332 0.13023 
0.17445 0.17955 0.3438 0.24581 0.12677 0.10556 0.11757 0.13762 
0.16903 0.29974 0.21737 0.11378 0.060515 0.041278 0.065118 0.11181 
-0.097322 0.13861 0.048348 0.032893 0.0039565 1.0539e-005 0.020069 -0.020048 
0.12053 0.036346 -0.052437 -0.025474 -0.0011404 0.0039565 0.02122 -0.051615 
0.53057 0.088794 -0.031392 -0.00031829 -0.017911 -0.0095255 0.027139 -0.041586 
0.46432 0.057062 -0.08828 0.018918 -0.018568 -0.0044286 0.019905 -0.051944 
0.21539 0.086657 -0.18726 -0.017911 -0.0078813 0.0095465 0.031249 -0.07562 
0.12464 0.09274 -0.18874 0.0093821 0.017767 0.047362 0.039141 0.004943 
0.20651 0.067091 -0.12429 0.047691 0.054596 0.061008 0.067749 0.12036 
0.18465 -0.041915 -0.062796 0.073504 0.05624 0.053445 0.066598 0.22098 
-0.010183 -0.26009 -0.05178 0.052623 0.005765 0.02681 0.044073 0.14256 
-0.24793 -0.49718 -0.031886 0.032236 -0.061973 -0.038298 -0.00031829 0.0079024 
-0.38554 -0.58201 -0.11426 -0.060823 -0.072167 -0.082361 -0.018897 -0.081374 
-0.56639 -0.55439 -0.17986 -0.097322 -0.0013048 -0.045696 -0.018075 -0.17361 
-0.5516 -0.13103 -0.035832 0.012342 0.097344 0.0026412 -0.04619 -0.13695 
-0.22737 0.42913 0.19353 0.11642 0.11428 0.079094 0.032893 -0.022514 
0.27244 0.97005 0.33574 0.22345 0.11198 0.087808 0.055747 0.14289 
0.82175 1.121 0.31832 0.22164 0.10984 0.10819 0.10458 0.33344 
0.77818 0.39822 0.060844 0.09833 0.11198 0.12809 0.10507 0.317 
0.33344 -0.46988 -0.20353 0.033551 0.10178 0.10984 0.075476 0.04358 
-0.17969 -0.58547 -0.28985 0.0075736 0.061666 0.042594 0.020233 -0.22589 
-0.50194 -0.32487 -0.18249 -0.044381 -0.01232 -0.024158 -0.020377 -0.36926 
-0.71913 -0.4125 -0.28706 -0.13448 -0.109 -0.12166 -0.10949 -0.49208 
-0.93698 -0.49257 -0.34674 -0.15536 -0.16934 -0.18183 -0.13974 -0.43437 
-0.59139 -0.24349 -0.09798 -0.084663 -0.091075 -0.1011 -0.063782 -0.080881 
0.042594 0.018918 0.16788 0.032729 0.016945 0.020891 0.029934 0.2879 
0.44343 0.2417 0.27738 0.10491 0.071366 0.11362 0.11526 0.42551 
0.36978 0.28478 0.21704 0.078272 0.067913 0.10524 0.08567 0.28691 
0.26389 0.3854 0.13023 0.01267 0.019576 0.043745 0.040292 0.08863 
0.38425 0.53222 0.096521 -0.00097594 0.0075736 -0.001798 -0.0022913 0.083368 
0.30582 0.45314 0.15144 0.00017495 0.023193 0.021878 0.020069 0.12464 
0.19583 0.28494 0.13697 0.011191 -0.00015387 0.020727 0.0036276 0.2052 
0.12579 0.073997 0.12398 0.011191 -0.020377 -0.016102 -0.0059084 0.1465 
0.024015 -0.14665 0.045718 -0.0052507 -0.018733 -0.023665 -0.015773 0.078436 
0.004943 -0.077757 0.047362 0.0024767 0.0070803 0.0062583 0.0046141 0.031414 
0.10408 0.19616 0.057884 0.057227 0.039963 0.033551 0.029276 0.04654 
0.077614 0.2463 0.038648 0.022042 0.025659 0.021056 0.030263 -0.015444 
-0.016266 0.20388 0.00050378 -0.0098543 0.0072447 0.030427 0.017603 0.009711 
-0.013143 0.31733 0.030098 0.019411 0.0041209 0.041443 0.027303 0.014315 
0.073504 0.34824 0.091753 0.026481 0.04095 0.022535 0.028125 0.057555 
0.2218 0.40184 0.20487 0.083204 0.053774 0.052623 0.080738 0.12464 
0.36271 0.47993 0.33426 0.25041 0.069229 0.068407 0.074983 0.19237 
0.56 0.43752 0.33394 0.35021 0.074654 0.07038 0.060515 0.25255 
0.59766 0.13927 0.23331 0.30319 0.059364 0.095864 0.07301 0.20536 
0.03092 -0.67113 -0.038627 0.11329 0.041607 0.037661 0.039634 0.032071 
-0.69628 -1.2418 -0.27999 -0.10801 -0.04471 -0.042737 -0.048163 -0.16901 
-0.90837 -0.82156 -0.27193 -0.18298 -0.03616 -0.070194 -0.065755 -0.20748 
-0.5031 0.38901 -0.016924 -0.048327 -0.014951 -0.014129 -0.025802 -0.065919 
0.35712 1.2796 0.19829 0.1465 0.049828 0.043251 0.040456 0.1197 
0.55146 1.0241 0.24301 0.23578 0.084684 0.1151 0.087314 0.20092 
0.13615 0.13845 0.14585 0.19994 0.062323 0.085999 0.060022 0.054432 
-0.088608 -0.39672 -0.089266 0.045718 -0.020541 -0.0138 -0.0090322 -0.18463 
-0.51148 -0.47202 -0.19318 -0.0771 -0.064768 -0.082196 -0.083018 -0.31155 
-0.24086 -0.16555 -0.048985 -0.036325 -0.053917 -0.081374 -0.076442 -0.14599 
0.29332 0.1784 0.17971 0.12825 -0.014293 -0.001798 -0.024487 0.066763 
0.55852 0.40611 0.28379 0.2754 0.087643 0.08304 0.061501 0.24071 
0.52367 0.49325 0.23808 0.27803 0.14371 0.14535 0.10129 0.28954 
0.42075 0.45774 0.13335 0.21441 0.12612 0.10622 0.066763 0.18498 
0.2565 0.2657 0.081724 0.15982 0.097179 0.083697 0.042923 0.045882 
0.030592 -0.20173 0.051965 0.1105 0.080409 0.059693 0.037332 0.016123 
-0.18923 -0.69529 -0.062631 0.019576 0.09274 0.078107 0.048348 0.0072447 
-0.31797 -0.84014 -0.20715 -0.070359 0.06035 0.048184 0.018425 -0.068386 
-0.35216 -0.59336 -0.17098 -0.10719 0.014479 0.025824 0.0031344 -0.10538 
-0.16605 -0.27999 -0.097487 -0.073976 -0.042573 -0.060658 -0.038462 0.00050378 
-0.0078813 -0.010512 -0.016266 -0.011992 -0.062302 -0.069043 -0.036654 0.072353 
0.38194 0.56329 0.12513 0.097672 -0.048985 -0.034845 0.0037921 0.19418 
0.73856 1.2344 0.27639 0.21967 0.021713 0.041772 0.042923 0.27294 
0.65076 1.1899 0.24844 0.27294 0.088136 0.10145 0.087643 0.21046 
0.43423 0.51265 0.1396 0.22624 0.13056 0.1054 0.058871 0.0090533 
0.032071 -0.18348 0.043909 0.13532 0.070544 0.1008 0.02681 -0.2596 
-0.47169 -0.48633 0.07449 0.12085 0.07038 0.083697 0.04095 -0.1963 
-0.753 -0.81071 0.080244 0.10967 0.035688 0.063803 0.088465 -0.038462 
-0.85724 -1.1953 0.032236 0.08156 0.065612 0.067585 0.070051 0.024179 
-0.90953 -1.516 -0.21932 -0.094856 0.013164 0.031578 0.025988 -0.052602 
-0.50145 -1.339 -0.51395 -0.30432 -0.038133 -0.037147 -0.040435 -0.20584 
0.11839 -0.57527 -0.59829 -0.4564 -0.10472 -0.14566 -0.11935 -0.35907 
0.69992 0.42305 -0.48682 -0.44095 -0.090581 -0.15109 -0.11409 -0.2739 
0.32308 0.71998 -0.37255 -0.37008 -0.1011 -0.10538 -0.093212 -0.1792 
0.03092 0.63728 -0.16029 -0.21948 -0.06855 -0.020541 -0.015938 0.016781 
0.041936 0.60193 0.16426 0.036017 -0.0078813 0.036346 0.044402 0.15489 
-0.081703 0.24762 0.1733 0.13894 0.032564 0.025001 0.061008 0.089945 
0.0070803 -0.00097594 -0.03057 0.061501 0.065612 0.061337 0.052952 0.061008 
0.38145 0.1636 0.088794 0.11428 0.1516 0.14157 0.086163 0.16853 
0.50953 0.44491 0.3101 0.27047 0.23726 0.2075 0.12891 0.26209 
0.26505 0.40874 0.40299 0.37964 0.25683 0.21572 0.13417 0.15719 
-0.15832 0.13072 0.32999 0.35794 0.17791 0.13417 0.12217 0.074654 
-0.13645 0.0023123 0.21293 0.28165 0.012999 0.041607 0.056076 0.080902 
0.080244 -0.078415 0.13302 0.24203 -0.041093 -0.019884 0.031249 0.098659 
0.17939 -0.23954 0.12201 0.1932 -0.044874 -0.038298 0.022535 0.043909 
0.077449 -0.39524 0.05476 0.13467 -0.039778 -0.050629 0.034044 -0.030406 
-0.27489 -0.41727 -0.065919 0.033058 -0.061151 -0.065755 -0.0042642 -0.10587 
-0.59007 -0.50293 -0.18907 -0.088773 -0.1062 -0.11738 -0.056877 -0.12889 
-0.46413 -0.53565 -0.30909 -0.21011 -0.1353 -0.1256 -0.045368 -0.072167 
-0.13645 -0.089595 -0.25171 -0.19054 -0.089924 -0.06148 -0.012978 -0.031721 
0.057555 0.55113 -0.02087 -0.049314 -0.015773 0.042429 0.050321 -0.023172 
0.12529 0.86302 0.17692 0.11395 0.026152 0.073339 0.053281 -0.010512 
0.1955 0.77983 0.21769 0.2001 0.075805 0.051801 0.051308 0.043087 
0.22789 0.54488 0.17906 0.21309 0.069722 0.044731 0.060022 0.084519 
0.14272 0.2759 0.09981 0.1544 0.056733 0.042265 0.06183 0.12743 
0.12069 0.19468 0.04654 0.13269 0.062652 0.056404 0.088301 0.13795 
0.15423 0.15242 0.093726 0.15752 0.076463 0.077778 0.083533 0.18021 
0.32078 0.11855 0.19024 0.20717 0.097837 0.080902 0.10014 0.23644 
0.52153 0.23233 0.30714 0.30138 0.12365 0.10721 0.12201 0.28297 
0.54866 0.16475 0.31914 0.33821 0.11329 0.11674 0.14897 0.24104 
0.26587 -0.22211 0.22476 0.27787 0.086492 0.090109 0.094384 0.11806 
-0.2037 -0.53203 -0.025967 0.099152 0.015137 0.0047785 0.03092 -0.048656 
-0.76221 -0.38159 -0.32553 -0.11935 -0.054575 -0.077593 -0.075455 -0.23346 
-0.87894 0.087808 -0.37321 -0.24612 -0.093048 -0.1473 -0.10373 -0.3372 
-0.38916 0.53584 -0.16753 -0.16177 -0.10456 -0.13399 -0.073482 -0.28689 
0.19155 0.77835 0.14864 0.062652 -0.039449 -0.058192 -0.009361 -0.060165 
0.71159 0.57201 0.28593 0.22509 0.012999 0.046046 0.059857 0.18218 
0.88867 0.15456 0.13647 0.18202 0.023522 0.084684 0.061008 0.34248 
0.82668 -0.2762 -0.049314 0.07449 0.034044 0.02681 0.086328 0.38244 
0.25485 -0.89785 -0.12708 -0.0087034 0.067091 0.073339 0.082217 0.2565 
-0.87977 -0.9286 -0.08532 -0.028104 0.024179 0.004943 -0.01117 -0.16835 
-1.1584 -0.045696 0.1345 0.10162 0.019247 -0.0054151 -0.0083746 -0.26305 
-0.47498 0.91382 0.38194 0.30598 0.040292 0.037168 0.0324 -0.051615 
0.25025 1.2889 0.49917 0.42732 0.069229 0.074983 0.061337 0.17117 
0.81666 1.1785 0.3706 0.40743 0.061995 0.071202 0.0227 0.23364 
0.90971 0.81912 0.18021 0.33196 0.058706 0.042429 -0.021692 0.19533 
0.35662 0.15571 -0.02235 0.13943 0.049828 0.035195 0.020891 0.11872 
-0.35381 -0.65403 -0.2134 -0.053753 0.020398 0.035524 0.063639 0.027303 
-0.41628 -0.71502 -0.23642 -0.13941 0.004943 0.018096 0.06331 0.025166 
-0.06707 -0.19811 -0.097487 -0.089924 0.014315 0.0070803 0.071531 0.0019835 
0.37504 0.39921 0.11181 0.05476 0.020069 0.023686 0.03799 0.038648 
0.55047 0.68759 0.25978 0.22394 0.035195 0.053938 0.079094 0.12858 
0.5189 0.43932 0.26258 0.27491 0.07449 0.072846 0.09126 0.25978 
0.01152 -0.38357 0.074983 0.1738 0.038812 0.051801 0.069722 0.20964 
-0.52989 -1.2038 -0.12544 0.013657 0.029112 0.01974 0.0054362 0.14568 
-0.3885 -1.2791 -0.20337 -0.093376 0.050814 0.029112 0.0095465 0.098823 
0.33854 -0.40839 -0.14385 -0.10078 0.022864 0.0065871 0.00297 0.043745 
0.67279 0.90939 -0.012814 -0.023829 0.00099702 -0.034023 -0.032872 -0.060658 
0.38112 1.1621 0.017767 0.056569 -0.0095255 -0.04323 -0.048492 -0.1284 
-0.44571 0.51479 0.069558 0.09685 0.0079024 0.012999 -0.041586 -0.2037 
-0.95244 -0.058356 0.016945 0.072681 0.026646 0.0011614 -0.028104 -0.22277 
-0.79855 -0.46857 -0.14352 -0.03057 -0.0032777 -0.018733 -0.003771 -0.14533 
-0.56672 -0.74577 -0.27341 -0.16375 -0.012978 -0.022021 -0.012156 -0.086471 
-0.57248 -0.93682 -0.37617 -0.28426 -0.028433 -0.023665 -0.057863 -0.094527 
-0.19104 -0.4495 -0.28344 -0.22721 0.0074092 -0.015938 -0.07266 -0.0021268 
0.49983 0.41729 0.090438 0.00297 0.05624 0.0011614 -0.036654 0.15735 
1.1619 0.97104 0.29217 0.21079 0.10392 0.063474 0.017767 0.27491 
1.2188 0.83655 0.28083 0.27409 0.090767 0.12266 0.08978 0.24515 
0.51002 0.4533 0.23923 0.26735 0.057884 0.1008 0.10014 0.042265 
-0.1815 0.14716 0.26653 0.28264 0.014479 0.039963 0.077943 -0.039778 
-0.14665 -0.058028 0.15489 0.24121 0.0026412 0.0054362 0.086163 0.024837 
0.1544 -0.4513 -0.057863 0.09833 0.04917 0.042758 0.035524 0.10195 
-0.21323 -1.1563 -0.18594 -0.048656 0.10162 0.052294 0.012835 0.025001 
-0.47268 -1.1718 -0.15026 -0.080552 0.076627 0.025824 -0.00081153 -0.057534 
-0.29577 -0.24431 -0.014293 -0.010348 0.031742 -0.0016336 0.0074092 -0.080223 
-0.39557 0.4847 0.030427 0.0324 -0.0096899 0.0069159 0.0070803 -0.11015 
-0.051615 0.93487 -0.016266 0.020233 -0.0055795 -0.029748 0.016781 -0.00081153 
0.55129 1.1682 0.042429 0.09126 0.041114 0.010204 0.0039565 0.14042 
0.6848 0.84461 0.11559 0.12792 0.026974 0.015959 0.020891 0.24712 
0.33476 0.052623 0.03536 0.092082 0.012177 0.039799 0.03536 0.17873 
-0.35595 -0.79542 0.013492 0.06594 0.026481 0.025495 0.00033937 -0.049971 
-0.75679 -0.95869 0.071695 0.092411 0.078107 0.036675 0.010204 -0.14484 
-0.56179 -0.40412 0.16969 0.15851 0.13894 0.092247 0.073832 0.095042 
-0.0059084 0.19418 0.24893 0.24466 0.13401 0.147 0.097672 0.22378 
0.17676 0.38737 0.13647 0.2052 0.051308 0.045389 0.015137 -0.10209 
-0.13695 0.10244 -0.027775 0.081067 -0.033694 -0.076771 -0.10686 -0.55702 
-0.08384 0.033551 -0.1279 -0.023336 -0.07973 -0.10998 -0.11311 -0.47284 
0.76503 0.18284 -0.085156 -0.03616 -0.035996 -0.059672 -0.045696 -0.036818 
0.60916 -0.26502 -0.12725 -0.071674 0.0227 0.0070803 0.029112 0.11773 
0.1197 -0.56607 -0.10883 -0.069043 0.020398 0.01974 0.026646 -0.06148 
-0.46758 -0.32553 -0.10998 -0.038956 -0.02498 -0.018897 -0.017911 -0.33901 
-0.76797 0.20684 -0.076606 -0.03501 -0.045368 -0.044217 -0.041257 -0.24168 
-0.42516 0.4824 0.042265 0.039305 0.023357 0.021713 0.027303 0.098494 
0.60884 0.44952 0.085341 0.094877 0.10556 0.088958 0.1003 0.40578 
1.1335 0.27162 0.0060938 0.067913 0.098823 0.096521 0.13795 0.42601 
0.80235 0.16689 0.045718 0.070215 0.067256 0.089945 0.095206 0.25387 
0.10507 0.22049 0.10852 0.12529 0.058049 0.083368 0.069393 0.098823 
-0.57938 -0.054739 0.083368 0.12299 0.044402 0.053774 0.066927 -0.0091966 
-1.2048 -0.45459 -0.071345 0.024344 -0.0040998 -0.016102 -0.0060728 -0.18808 
-0.8625 -0.20008 -0.077428 -0.08828 -0.012814 -0.025802 -0.030242 -0.17476 
0.20388 0.51232 0.12168 0.012177 0.023522 0.012835 0.0028056 0.033222 
0.59848 0.55261 0.25847 0.072024 0.04358 0.037168 0.043251 0.086328 
0.39197 0.017438 0.20454 0.020233 0.016288 0.0018191 -0.022843 0.0026412 
-0.011992 -0.33539 0.08419 -0.026953 -0.0083746 -0.010183 -0.054082 -0.11985 
-0.41892 -0.24579 0.093562 0.0026412 0.0018191 -0.0054151 -0.028762 -0.12281 
-0.72555 -0.15947 0.079916 0.0031344 -0.033201 -0.071181 -0.014951 -0.10571 
-0.26749 -0.042737 0.040128 -0.023007 -0.05885 -0.03912 0.036346 0.11526 
0.9689 0.61295 0.1687 0.052952 0.020891 0.062488 0.11115 0.41976 
1.3702 0.78246 0.23479 0.11132 0.10918 0.1174 0.15094 0.4265 
0.63564 0.19139 0.031414 0.0083956 0.097672 0.11066 0.098659 0.11905 
-0.035338 -0.45426 -0.19219 -0.044381 0.043745 0.054267 0.061172 -0.080717 
-0.14582 -0.72999 -0.28393 -0.038791 -0.017417 0.018918 0.016452 -0.11541 
-0.45196 -0.67113 -0.22392 -0.025309 -0.034681 -0.043066 -0.012978 -0.15487 
-0.8796 -0.47169 -0.2157 -0.044052 -0.038462 -0.056712 -0.02235 -0.30004 
-0.64548 -0.067564 -0.16769 -0.047341 -0.021034 -0.041915 -0.014293 -0.26946 
-0.24529 0.38803 -0.017417 0.0088889 -0.0078813 0.005765 0.053609 -0.010019 
0.38162 0.86466 0.1539 0.099152 -0.028269 0.0092177 0.057555 0.31207 
0.8206 0.99784 0.24071 0.091753 0.031742 0.058542 0.097837 0.49983 
0.74497 0.6238 0.23085 0.071037 0.09126 0.14798 0.11806 0.43949 
0.41959 0.15522 0.16706 0.076792 0.10474 0.12612 0.11707 0.29431 
0.13894 -0.090581 0.26011 0.10688 0.12973 0.12151 0.12003 0.159 
-0.13168 -0.39771 0.19221 0.13828 0.12398 0.079587 0.068242 0.049992 
0.11263 -0.42697 -0.050629 0.041607 0.066105 0.030592 0.0083956 -0.079566 
0.32687 -0.017088 -0.2254 -0.061151 -0.029255 -0.054082 -0.050136 -0.17361 
0.17889 0.37487 -0.095349 -0.029913 -0.046847 -0.063289 -0.039284 -0.13201 
-0.01528 0.50295 0.17265 0.060679 -0.035174 -0.029091 -0.0004827 0.016452 
-0.20452 0.25798 0.25962 0.1003 -0.020541 0.0075736 0.048348 0.13993 
-0.42845 -0.29889 0.11313 0.082217 0.0046141 0.042594 0.059857 0.16755 
-0.35216 -0.63052 -0.14928 -0.0052507 0.064132 0.067256 0.079587 0.11017 
-0.52513 -0.88601 -0.24036 -0.038791 0.071695 0.047855 0.05476 -0.020706 
-0.59336 -0.60914 -0.082361 0.036182 0.079751 0.049992 0.010697 -0.10406 
-0.097487 0.11872 0.045882 0.057391 0.061172 0.028783 -0.025967 -0.18824 
0.50575 0.41006 -0.028269 0.044402 0.049992 -0.009361 -0.017746 -0.14467 
0.3803 0.33278 -0.058685 0.052623 0.0054362 -0.0078813 0.028454 -0.076771 
0.18317 0.4043 0.06594 0.054432 -0.010019 0.0041209 0.016123 0.042265 
0.27014 0.53863 0.14519 0.059035 0.01415 0.031249 0.030263 0.13762 
0.26439 0.35366 0.1858 0.08863 0.035688 0.051636 0.021878 0.1904 
0.1345 0.15061 0.20898 0.078436 0.034537 0.047855 0.06742 0.19451 
-0.0062372 0.01267 0.24022 0.095864 0.028783 0.071037 0.085012 0.14552 
0.06183 -0.017746 0.23858 0.084519 0.042265 0.073175 0.045553 0.072024 
0.52564 0.18267 0.22328 0.03799 0.050157 0.070708 0.037168 0.038319 
0.58204 0.33887 0.14157 0.026646 0.023522 0.038977 0.029934 0.020398 
0.22657 0.42107 0.13319 0.031085 0.013821 0.029276 0.041443 0.01267 
0.083204 0.48158 0.11296 0.0014903 0.016616 0.0052718 0.029605 0.021713 
0.3392 0.53238 0.088794 0.0082312 0.045553 0.019083 0.026481 0.015959 
0.53255 0.48635 0.077778 0.079258 0.098494 0.045553 0.02533 -0.016431 
0.4071 0.28971 0.051636 0.089452 0.093069 0.063803 0.03947 -0.072332 
-0.12231 -0.027611 0.0054362 0.07301 0.044896 0.033058 0.018425 -0.069865 
-0.71716 -0.21208 -0.031228 0.094384 -0.0075525 -0.027282 -0.010841 -0.053424 
-1.2757 -0.46281 0.013492 0.043251 -0.10669 -0.06707 -0.019061 0.0039565 
-1.0217 -0.71387 -0.081374 -0.0011404 -0.10702 -0.052602 -0.0011404 0.057555 
-0.19498 -0.9041 -0.29593 0.01152 0.0023123 0.02829 0.035524 0.077614 
0.44952 -0.97562 -0.45328 -0.027118 0.15374 0.095535 0.01711 -0.07414 
0.11066 -0.72522 -0.41004 0.0018191 0.18942 0.08156 -0.01528 -0.37962 
-0.68625 -0.097651 -0.20715 0.023686 0.10803 0.018918 -0.078579 -0.5128 
-0.79493 0.48109 0.089616 0.015794 0.0088889 -0.046354 -0.048327 -0.27604 
-0.015773 0.88374 0.32752 0.051636 -0.057699 -0.021199 0.0083956 0.069393 
0.66211 1.1157 0.47369 0.078272 -0.021528 -0.0029489 0.037004 0.21819 
0.77309 0.85513 0.47106 0.063639 0.0092177 0.016288 0.054925 0.29727 
0.60785 0.43209 0.29168 0.056404 0.035853 0.069393 0.068407 0.2565 
0.51545 0.22526 0.14848 0.082875 0.066927 0.10047 0.12102 0.24647 
0.36123 0.043745 0.032564 0.027796 0.033058 0.049664 0.077778 0.11033 
-0.056055 -0.29413 -0.042737 0.024508 -0.012978 0.016452 0.036675 0.044567 
-0.13711 -0.34871 -0.08269 0.014315 -0.042573 -0.029255 -0.0060728 0.0592 
0.034373 0.060022 0.0075736 0.0014903 -0.041093 -0.040435 0.017932 0.12431 
0.29826 0.49095 0.13236 0.00066819 -0.016266 -0.037147 0.024673 0.17412 
0.51134 0.57973 0.085999 0.0018191 0.022206 0.026317 0.028454 0.20109 
0.67822 0.51528 -0.027447 -0.020541 0.095042 0.065283 0.036017 0.25715 
0.71949 0.42272 0.088958 0.1008 0.15061 0.13713 0.077614 0.32473 
0.22246 -0.11146 0.16426 0.20027 0.1396 0.15324 0.1197 0.064954 
-0.67606 -1.0304 0.016781 0.15324 0.1368 0.11411 0.066598 -0.30613 
-1.5085 -1.5175 -0.12478 0.058049 0.050814 0.0044497 -0.013636 -0.37896 
-1.5021 -0.99568 -0.21291 -0.028104 -0.047012 -0.078908 -0.079072 -0.37814 
-0.67113 0.0088889 -0.23083 -0.13415 -0.10604 -0.11771 -0.10867 -0.24595 
0.49128 0.64369 -0.20468 -0.14402 -0.11376 -0.093048 -0.066084 0.018589 
0.85907 0.55622 -0.16621 -0.071345 -0.050958 -0.038462 -0.0075525 0.18909 
0.42157 0.12118 -0.13415 -0.058356 -0.025638 -0.017417 0.020398 0.15357 
0.0085601 -0.13185 -0.08532 -0.019061 -0.0088678 -0.003771 0.029934 0.16623 
-0.42451 -0.29413 -0.0077169 0.041772 0.041936 0.062652 0.072681 0.19385 
-0.84228 -0.59139 0.02681 0.08008 0.099152 0.10014 0.090603 0.097837 
-0.57675 -0.71387 -0.080059 0.062488 0.08304 0.062159 0.049828 -0.072989 
0.11165 -0.37535 -0.14665 0.04358 0.063803 0.033387 0.03799 -0.05885 
0.74382 0.32835 -0.063946 0.032564 0.031742 0.030756 0.0592 0.13302 
0.8696 0.69778 0.13878 0.04095 0.013328 0.010533 0.060022 0.23249 
0.55935 0.52153 0.2371 0.072188 0.029934 0.0093821 0.056898 0.22953 
0.30253 0.27327 0.24301 0.032564 0.029769 0.023522 0.050321 0.1881 
0.24745 0.23693 0.1322 0.055418 0.057555 0.054596 0.058377 0.20175 
0.18399 0.256 0.013328 0.080573 0.059528 0.058377 0.076956 0.18744 
0.1299 0.24926 -0.06148 0.050486 0.051636 0.047362 0.057062 0.16311 
0.074983 0.1373 -0.060823 0.028783 0.052787 0.029276 0.020891 0.04917 
-0.16029 -0.078908 -0.063782 0.00297 0.014315 -0.010512 -0.038627 -0.091897 
-0.31007 -0.16523 -0.021528 -0.034681 -0.012814 -0.053917 -0.055068 -0.15931 
-0.3298 -0.20978 0.043251 -0.028762 0.0042853 -0.035832 -0.024652 -0.12346 
-0.34888 -0.10735 0.11444 0.033387 0.013821 0.014315 0.00017495 -0.045368 
-0.12757 0.17297 0.11263 0.031414 0.019905 0.031742 0.030098 0.019411 
0.31289 0.42354 0.1368 0.054925 0.016123 0.029605 0.041607 0.16985 
0.76092 0.40414 0.19057 0.11083 0.068571 0.062817 0.082217 0.22049 
0.89229 0.38885 0.20586 0.098166 0.095042 0.08419 0.093069 0.2828 
0.67394 -0.040928 0.073339 0.035031 0.048841 0.04358 0.065447 0.20651 
-0.17131 -0.95589 -0.194 -0.043066 -0.011992 -0.018568 0.011191 0.013821 
-1.4151 -1.5437 -0.3788 -0.12363 -0.080059 -0.081045 -0.066084 -0.33605 
-1.8082 -1.0291 -0.30728 -0.14582 -0.089595 -0.11475 -0.085813 -0.4416 
-1.0749 -0.23855 -0.045368 -0.030899 -0.061151 -0.077593 -0.066248 -0.35414 
-0.57478 0.2371 0.11214 0.020398 -0.012978 -0.047998 -0.035174 -0.22737 
-0.41497 0.31601 0.016781 -0.052602 -0.05737 -0.044874 -0.048327 -0.21554 
0.47451 0.64895 -0.10061 -0.10784 -0.10242 -0.076771 -0.035338 0.0054362 
1.1637 1.0261 0.019905 -0.09091 -0.06296 -0.026624 0.011191 0.25189 
1.0329 0.83885 0.13615 0.00066819 0.074654 0.080409 0.072517 0.30401 
0.64435 0.44541 0.2126 0.14009 0.22115 0.18465 0.14305 0.27639 
0.33147 0.17314 0.27573 0.24433 0.29809 0.23693 0.15259 0.13993 
0.15308 0.13368 0.36731 0.31503 0.24811 0.20405 0.14996 0.17018 
0.2052 0.29349 0.35942 0.23792 0.08008 0.074819 0.075312 0.18974 
0.42239 0.27392 0.2029 0.094384 -0.014787 -0.031557 0.0064227 0.20914 
0.32637 0.085506 -0.0082102 -0.024487 -0.044217 -0.05737 -0.012485 0.052459 
-0.032215 0.08156 -0.10258 -0.041093 -0.01117 -0.01117 -0.004593 -0.2374 
-0.27686 0.085341 -0.073647 -0.040764 0.0092177 0.0036276 0.039141 -0.3206 
-0.43897 -0.19416 -0.087129 -0.037311 0.0046141 0.013328 0.025001 -0.20025 
-0.49093 -0.54091 -0.13415 -0.056712 -0.015938 0.019905 -0.0032777 -0.15207 
-0.41694 -0.4569 -0.079072 -0.072989 -0.027447 -0.0091966 -0.032872 -0.11672 
-0.17624 0.022371 0.12447 -0.0011404 0.021713 0.0021479 -0.00097594 -0.052931 
0.10458 0.46793 0.17791 0.046868 0.056898 -0.016102 -0.027282 -0.012485 
0.17001 0.55096 0.13467 0.01152 0.010369 0.019905 0.0095465 0.02829 
0.0093821 0.42223 0.12299 0.036346 0.040456 0.028125 0.013986 0.011684 
-0.087458 0.20471 0.20914 0.12003 0.074326 0.064625 0.061666 0.059693 
0.10672 0.0090533 0.22197 0.13993 0.10918 0.082711 0.064954 0.13664 
0.45034 -0.15026 0.12266 0.11313 0.092082 0.084684 0.052952 0.22115 
0.58056 -0.15684 0.014479 0.062652 0.041278 0.052787 0.050814 0.16048 
0.65208 0.062652 0.0090533 0.042758 0.021713 0.027303 0.016452 0.13845 
0.36797 0.15144 0.018096 0.050814 0.034373 0.056733 0.076299 0.093726 
-0.182 -0.034516 0.029605 0.07301 0.069722 0.076627 0.066269 0.030592 
-0.67293 -0.42056 -0.023994 0.032071 0.057391 0.03651 0.036346 -0.12823 
-0.79115 -0.58875 -0.18791 -0.0088678 0.027796 -0.019719 -0.00097594 -0.27127 
-0.26322 0.0054362 -0.1718 -0.022185 -0.012485 -0.014458 0.0036276 -0.14813 
0.2052 0.71225 -0.050464 -0.0032777 -0.014293 -0.0026201 -0.0091966 -0.010348 
0.69877 1.0945 0.15144 0.036017 0.032564 0.0227 0.010533 0.099481 
0.51956 0.91613 0.25354 0.086163 0.05213 0.017767 0.01711 0.093233 
0.10622 0.53057 0.27573 0.11576 0.07038 0.051801 0.041936 0.10589 
0.095699 0.53863 0.17725 0.13762 0.064954 0.046704 0.049828 0.16377 
0.0067515 0.27129 -0.024323 0.052952 0.016616 0.025824 0.029934 0.11806 
0.029112 -0.53121 -0.26782 -0.046519 0.017438 0.00083261 0.031414 0.10162 
-0.15289 -1.31 -0.28179 -0.011992 0.061008 0.044896 0.049664 0.042265 
-0.47235 -1.3967 -0.13793 0.015137 0.086657 0.069393 0.050814 -0.12856 
-0.53335 -0.65337 0.15587 0.056569 0.064625 0.011848 0.025166 -0.19778 
-0.076113 0.33854 0.4122 0.1151 0.035853 0.022206 0.032729 -0.069208 
0.51578 0.74842 0.40529 0.084026 0.023193 0.013986 0.044896 0.15949 
0.75862 0.53403 0.17182 0.010697 -0.0070593 0.03092 0.044896 0.29415 
0.50016 0.15949 0.023851 0.0065871 0.01826 0.029441 0.054432 0.25666 
0.17856 -0.0070593 0.00297 0.019083 0.055582 0.047855 0.060022 0.18909 
0.029605 0.051965 0.041607 0.020727 0.040785 0.01415 0.00050378 0.051965 
-0.28443 0.13861 0.041114 0.0044497 -0.010019 -0.0039354 -0.051122 -0.11228 
-0.21948 0.10162 -0.16194 -0.056055 -0.060658 -0.060165 -0.072003 -0.16818 
-0.0067304 -0.0098543 -0.36318 -0.1085 -0.05737 -0.09946 -0.073647 -0.078579 
0.16755 0.14601 -0.22688 -0.03057 -0.023336 -0.045532 -0.0138 0.060022 
0.17511 0.30878 -0.023172 0.028454 -0.00031829 0.014479 0.038648 0.17725 
0.032893 -0.00097594 0.055582 0.062652 0.034537 0.050814 0.072517 0.13171 
-0.16342 -0.18216 0.15686 0.1174 0.063474 0.061008 0.081231 0.017274 
-0.054082 -0.1307 0.19616 0.08715 0.073504 0.061995 0.09981 0.03092 
0.0041209 -0.28031 0.087479 0.063803 0.056898 0.063803 0.059693 0.050979 
-0.04471 -0.47613 -0.038133 0.034044 0.024508 0.025001 0.0421 0.04654 
-0.1473 -0.46906 -0.10127 -0.019719 -0.0095255 -0.013471 0.020891 -0.0019624 
-0.30333 -0.28541 -0.13875 -0.025638 -0.022514 -0.040271 -0.01232 -0.085485 
-0.19811 -0.16227 -0.13777 -0.015116 -0.035338 -0.02498 -0.028597 -0.097158 
0.048841 -0.27768 -0.194 -0.076771 -0.036325 -0.047176 -0.044381 -0.15552 
-0.10669 -0.19054 -0.28788 -0.12363 -0.045039 -0.077757 -0.070852 -0.27144 
-0.50737 0.12464 -0.23872 -0.15158 -0.090088 -0.11557 -0.050629 -0.28064 
-0.37354 0.30993 -0.084334 -0.08269 -0.038627 -0.04323 -0.045696 -0.14665 
0.1271 0.36287 0.10836 0.015959 0.048184 0.029276 0.022371 0.058542 
0.40677 0.28149 0.20191 0.13236 0.10343 0.085999 0.07038 0.23085 
0.46053 0.35383 0.26768 0.13976 0.094384 0.10951 0.10063 0.31421 
0.34084 0.46744 0.26998 0.12497 0.068736 0.085835 0.084848 0.26554 
0.28856 0.40677 0.29316 0.14206 0.013821 0.011026 0.056404 0.20898 
0.34117 0.29974 0.2583 0.085835 -0.049642 -0.073647 0.0052718 0.12694 
0.23907 0.025824 -0.018568 -0.021363 -0.042573 -0.055397 -0.027118 0.005765 
0.10458 -0.22474 -0.32717 -0.11903 -0.0077169 -0.027611 -0.031886 -0.11442 
-0.18167 -0.53154 -0.37058 -0.12609 0.096028 0.056898 0.0070803 -0.087129 
-0.43832 -0.75202 -0.19449 0.020562 0.12908 0.15357 0.066598 0.0090533 
-0.43404 -0.49455 -0.011663 0.18646 0.19254 0.20158 0.12825 0.03388 
-0.21899 0.015465 0.16804 0.1904 0.17182 0.15933 0.12809 0.039634 
0.26324 0.29135 0.26801 0.15028 0.053445 0.045224 0.071202 0.088958 
0.68414 0.36468 0.19698 0.098659 0.0031344 0.010369 -0.010512 0.09685 
0.48816 0.24564 0.040128 -0.059343 -0.03616 -0.049149 -0.028762 0.045553 
-0.054904 -0.081868 -0.091568 -0.10604 -0.06707 -0.10406 -0.050958 -0.042079 
-0.71026 -0.45607 -0.21932 -0.06444 -0.074469 -0.084663 -0.03057 -0.1279 
-1.0023 -0.20584 -0.15273 -0.024158 -0.023336 -0.014622 0.0083956 -0.1039 
-0.64252 0.31371 0.0032988 0.0087245 0.033551 0.048184 0.044402 -0.092554 
-0.27242 0.66523 0.11642 0.044896 0.031085 0.013821 0.014643 -0.084663 
0.20454 0.70502 0.17708 0.045553 0.014315 -0.018568 -0.02646 0.004943 
0.41713 0.34972 0.13631 0.035031 0.0090533 0.024179 0.044238 0.017603 
0.35761 -0.12116 0.013492 0.077778 0.032893 0.061501 0.03536 0.049828 
0.33065 -0.25631 -0.088937 0.043251 0.038155 0.070708 0.032893 0.094548 
0.31897 -0.031721 -0.10883 0.058542 0.062159 0.072517 0.062488 0.16426 
0.31256 0.22098 0.011191 0.1008 0.063803 0.077614 0.098494 0.22345 
0.35613 0.50953 0.21556 0.12283 0.072024 0.081231 0.10967 0.32506 
0.50789 0.76717 0.46086 0.15127 0.079422 0.094055 0.10556 0.38803 
0.61212 0.64418 0.54619 0.20619 0.11526 0.10819 0.099316 0.29908 
0.29431 -0.022514 0.28461 0.12201 0.10145 0.10885 0.067256 0.0037921 
-0.26437 -0.5978 -0.023665 -0.0040998 0.035853 0.03651 0.02533 -0.21685 
-0.74659 -0.64087 -0.1136 -0.02646 -0.0090322 -0.028762 -0.032215 -0.26979 
-0.72719 -0.26502 0.037826 -0.019226 -0.03764 -0.053753 -0.0503 -0.16835 
-0.12873 0.1761 0.13384 0.013492 -0.022843 -0.027118 -0.01676 -0.0011404 
0.25469 0.317 0.10408 0.058542 0.028619 0.037332 0.037168 0.06035 
0.47303 0.46432 0.068736 0.033058 0.086985 0.085999 0.070544 0.16936 
0.6261 0.53732 0.037004 0.052787 0.048513 0.062323 0.070051 0.27754 
0.26061 0.20487 -0.027118 0.053116 -0.0047575 0.038812 0.059857 0.24844 
-0.26749 -0.27012 -0.069865 -0.0034422 -0.0026201 0.039305 0.04917 0.12233 
-0.38488 -0.46791 -0.093376 -0.023007 -0.044217 -0.0083746 0.029769 0.056733 
-0.11031 -0.060165 -0.027118 -0.023336 -0.073976 -0.055726 -0.032543 -0.028433 
0.47599 0.37274 -0.056383 -0.052273 -0.045368 -0.053917 -0.024158 -0.063782 
0.27984 0.32604 -0.18101 -0.081374 -0.0098543 0.0059294 0.0065871 -0.12988 
-0.30711 0.20323 -0.071181 -0.0029489 0.081231 0.078107 0.050814 -0.15766 
0.13499 0.5582 0.19747 0.10425 0.14864 0.1003 0.071695 -0.0016336 
0.694 0.58417 0.36057 0.21474 0.18054 0.1271 0.083862 0.20734 
0.5092 0.051965 0.25551 0.19007 0.16673 0.12661 0.09126 0.26061 
0.041114 -0.4319 0.10326 0.033058 0.027796 0.014972 0.014808 0.073339 
-0.44226 -0.79148 -0.038298 -0.085485 -0.05737 -0.069043 -0.034023 -0.20419 
-1.1609 -0.92712 -0.11146 -0.082361 -0.069865 -0.077428 -0.042901 -0.36038 
-1.2188 -0.38143 -0.013636 -0.056055 -0.047998 -0.028926 -0.026624 -0.27078 
-0.33885 0.46251 0.19681 0.024015 0.0041209 0.010697 0.018096 -0.013307 
0.44261 0.68364 0.24548 0.065776 0.034702 0.020069 0.051636 0.16837 
0.77736 0.38918 0.18021 0.06183 -0.014129 -0.012156 0.0011614 0.20882 
0.88242 0.1299 0.099645 0.0092177 -0.006566 0.020727 0.01826 0.26011 
0.84625 -0.0091966 -0.062467 -0.0047575 -0.022021 -0.016431 0.02681 0.18925 
0.17199 -0.11541 -0.17904 -0.073154 -0.023007 -0.03616 -0.020706 -0.067399 
-0.32306 -0.068386 -0.145 -0.018239 0.051965 -0.024652 0.0092177 -0.17986 
-0.24316 0.16196 -0.0771 0.034866 0.086163 0.045882 0.011848 -0.14434 
-0.090417 0.010862 -0.17262 0.045389 0.10113 0.073339 0.020727 -0.051944 
-0.12231 -0.36565 -0.2573 0.019576 0.070051 0.064954 0.038155 0.022864 
-0.18348 -0.50194 -0.26815 0.0074092 0.024344 0.022371 0.036182 0.05065 
-0.094856 -0.28623 -0.20222 -0.014787 0.0059294 -0.01676 0.031578 0.052952 
0.041443 -0.0047575 -0.052437 -0.013471 -0.0013048 -0.031228 -0.001798 0.055089 
0.14585 0.10918 0.086492 -0.0034422 -0.024323 -0.017253 0.00050378 0.044567 
0.1008 0.20191 0.14108 0.027632 -0.016595 -0.020048 -0.0138 0.0042853 
0.00033937 0.18169 0.19566 0.053116 0.0059294 -0.0082102 0.024508 -0.088937 
0.012013 0.24745 0.2394 0.097344 0.021384 0.0087245 0.014479 -0.026624 
0.14733 0.32621 0.29711 0.18711 0.07301 0.033551 0.045882 0.10556 
0.14026 0.23134 0.30089 0.27606 0.098659 0.069064 0.053281 0.13335 
0.034866 0.015465 0.18777 0.23726 0.098494 0.089123 0.045389 0.067913 
-0.14122 -0.10061 0.051308 0.14321 0.080573 0.066434 0.03947 -0.0096899 
-0.14237 -0.0078813 0.06183 0.11099 0.077614 0.057555 0.058542 0.047362 
0.27738 0.08008 0.15209 0.15703 0.1026 0.085012 0.094055 0.17117 
0.54899 -0.001798 0.034044 0.12628 0.081724 0.084026 0.073504 0.2588 
0.39197 -0.14484 -0.157 -0.031392 0.02533 0.027139 0.054432 0.13056 
-0.16917 -0.34 -0.3571 -0.20995 -0.028762 -0.051615 -0.021856 -0.16802 
-0.98581 -0.55686 -0.49586 -0.36006 -0.10949 -0.12478 -0.12478 -0.52118 
-0.82502 -0.11311 -0.37666 -0.34411 -0.093541 -0.12379 -0.109 -0.40149 
-0.11919 0.43669 -0.091568 -0.1621 -0.024487 -0.040764 -0.024816 -0.068879 
0.035195 0.46892 0.06742 0.0072447 -0.0039354 -0.012814 0.02533 0.15061 
-0.0039354 0.21079 0.067091 0.085506 0.043909 0.069558 0.071202 0.29349 
0.086328 -0.14369 0.088465 0.11115 0.089616 0.1054 0.10343 0.30155 
0.24252 -0.27061 0.081724 0.11691 0.095535 0.09685 0.070873 0.24581 
0.37224 -0.14665 0.084684 0.12332 0.087972 0.055089 0.06742 0.12694 
0.23693 -0.10571 0.061008 0.10014 0.060844 0.051143 0.024837 -0.011992 
0.24647 -0.13678 0.032893 0.074819 0.0092177 0.043909 0.0041209 -0.059507 
0.30944 0.040292 0.0013258 0.078765 -0.00064712 0.0069159 0.0046141 -0.0064016 
0.18777 0.29957 -0.0050863 0.053609 -0.015773 -0.0039354 0.0085601 0.0044497 
0.08863 0.39395 0.096686 0.10984 0.010369 0.012506 0.025659 0.054432 
0.29431 0.55968 0.27014 0.2394 0.04358 0.044731 0.040292 0.081067 
0.23167 0.6483 0.38079 0.34364 0.050321 0.044896 0.036839 0.079751 
0.13335 0.7328 0.3854 0.37175 0.031907 0.037004 0.025001 0.066927 
0.17873 0.73642 0.32374 0.3803 0.049992 0.078765 0.098988 0.10408 
0.2366 0.57201 0.2708 0.33969 0.074819 0.061666 0.07038 0.1299 
0.13976 0.15883 0.15324 0.24828 0.071202 0.090274 0.050979 0.1248 
-0.012485 -0.35447 -0.024487 0.10178 0.030756 0.035853 0.045553 0.15341 
-0.19186 -0.88897 -0.24398 -0.092883 -0.073647 -0.012814 0.018589 0.14157 
-0.37025 -1.0891 -0.36532 -0.24661 -0.11064 -0.094034 -0.020377 0.065283 
-0.54897 -0.81729 -0.30448 -0.24234 -0.099624 -0.0868 -0.063782 -0.085649 
-0.61029 -0.33622 -0.19761 -0.15388 0.017603 -0.018733 -0.026296 -0.18775 
-0.43569 0.047033 -0.076277 -0.075127 0.062488 0.045553 0.013986 -0.16144 
-0.037805 0.2731 0.074161 0.047691 0.092576 0.099481 0.08863 -0.016924 
0.62774 0.49177 0.14601 0.13499 0.16903 0.16048 0.11609 0.10655 
1.1914 0.71324 0.10343 0.12957 0.18481 0.1664 0.078765 0.23578 
1.1041 0.60851 0.047855 0.091589 0.10935 0.092082 0.062981 0.22855 
0.77983 0.45297 0.055089 0.11905 0.049992 0.029769 0.050321 0.18728 
-0.24809 0.014972 0.14091 0.15538 0.012177 -0.0060728 0.045224 -0.014787 
-1.5724 -0.46676 0.10162 0.14124 -0.05326 -0.059507 -0.027118 -0.27325 
-1.7835 -0.62805 -0.066906 0.033715 -0.085649 -0.06855 -0.068221 -0.37206 
-0.89982 -0.25647 -0.14369 -0.051451 -0.053424 -0.067564 -0.084827 -0.28459 
-0.098967 0.029605 -0.05589 -0.031557 -0.0083746 -0.034681 -0.029748 -0.069865 
0.38869 0.15012 0.12727 0.097837 0.048841 0.013821 0.021878 0.17774 
0.55441 0.1345 0.18974 0.2052 0.081395 0.09274 0.069722 0.366 
0.86877 0.13384 0.16903 0.20898 0.079751 0.1008 0.092411 0.42519 
0.98913 0.10228 0.094877 0.16311 0.085506 0.08419 0.10178 0.2634 
0.72935 0.18942 0.078272 0.13762 0.080902 0.076299 0.096357 -0.0052507 
0.32276 0.31355 0.14897 0.15587 0.060844 0.076463 0.059693 -0.020377 
-0.12478 0.26126 0.19813 0.19944 0.036346 0.020233 0.031578 0.0026412 
-0.23263 0.083862 0.16294 0.22822 0.0064227 0.01974 0.0056006 0.079587 
-0.10752 -0.32405 0.013657 0.12069 0.010533 -0.015609 0.00297 0.051143 
-0.22244 -0.7627 -0.2716 -0.098473 -0.0083746 -0.032708 -0.020541 -0.11771 
-0.47399 -0.58432 -0.35874 -0.23231 -0.046847 -0.072989 -0.073976 -0.3617 
-0.75054 -0.089266 -0.14171 -0.1478 0.01267 -0.020377 -0.03764 -0.52348 
-0.73919 0.30303 0.12168 0.038319 0.051636 0.038812 0.012835 -0.52167 
-0.23691 0.43406 0.20619 0.15275 0.09422 0.10178 0.067091 -0.32997 
0.13976 0.32325 0.12299 0.094713 0.095535 0.11247 0.067256 0.039963 
0.28494 0.14519 0.045553 0.018589 0.064625 0.081889 0.072353 0.30615 
0.32785 0.17478 0.021878 -0.022021 0.045553 0.022864 0.069229 0.46612 
0.33657 0.23085 -0.0052507 -0.053917 0.0054362 0.0098754 0.050814 0.47287 
0.43735 0.10935 -0.058028 -0.065755 0.024837 -0.015773 0.023522 0.40036 
0.47813 -0.050793 -0.1039 -0.10604 0.0059294 -0.0060728 0.013657 0.19205 
0.43883 -0.0057439 -0.073482 -0.044052 0.054432 0.071859 -0.010183 0.0051074 
0.10441 -0.019884 -0.0083746 -0.029255 0.052294 0.031249 0.022864 -0.16523 
-0.2282 -0.15996 0.080244 0.04654 0.027303 0.0042853 0.038483 -0.16769 
-0.36762 -0.37518 0.056898 0.020727 -0.032543 -0.029584 0.010369 -0.15503 
-0.41415 -0.50359 -0.046847 -0.030406 -0.05589 -0.043724 -0.012649 -0.15569 
-0.3081 -0.3372 -0.080881 -0.063124 -0.071838 -0.023829 -0.03764 -0.11968 
-0.18298 0.03651 -0.024158 -0.0098543 0.0085601 -0.0098543 0.015794 -0.099131 
0.058049 0.46366 0.083204 0.029934 0.073175 0.027796 0.026974 -0.037147 
0.49703 0.84691 0.22082 0.11099 0.11148 0.081724 0.049006 0.064461 
0.59486 0.92007 0.31881 0.18514 0.11263 0.12102 0.073832 0.1835 
0.37076 0.6866 0.29793 0.16821 0.043745 0.060844 0.068242 0.15193 
0.11592 0.27458 0.21013 0.08863 -0.012485 0.0037921 0.044731 0.082217 
0.012177 -0.18232 0.10902 0.019576 -0.02794 -0.011498 0.013986 0.059364 
0.0092177 -0.38636 0.015959 -0.0083746 -0.067892 -0.03616 -0.015116 0.095535 
-0.065755 -0.38669 -0.031886 -0.0031133 -0.054739 -0.047176 -0.029748 0.034866 
-0.3206 -0.61473 -0.20386 -0.023829 -0.042079 -0.050629 -0.027282 -0.17706 
-0.29873 -0.49833 -0.35003 -0.157 -0.04323 -0.046519 -0.024158 -0.29889 
-0.032543 0.14289 -0.24628 -0.1011 0.0059294 0.0059294 -0.018404 -0.10686 
0.035853 0.42354 -0.073647 0.05476 0.082875 0.048841 0.034044 0.065283 
0.065118 0.35301 0.0044497 0.089287 0.091589 0.062159 0.052294 0.14239 
0.14552 0.29382 0.16146 0.1391 0.096193 0.072846 0.097015 0.25173 
0.3849 0.21391 0.2685 0.15292 0.064296 0.073832 0.081067 0.2782 
0.26225 -0.036654 0.13023 0.043251 0.044731 0.013821 0.037332 0.17281 
-0.14846 -0.14122 -0.0047575 -0.031886 0.019411 -0.0019624 0.0051074 0.044402 
-0.17558 0.050814 0.037168 0.015794 0.063145 0.038155 0.054596 0.074819 
0.31437 0.38244 0.16311 0.053116 0.075641 0.11214 0.094713 0.14667 
0.78164 0.67164 0.23266 0.10655 0.076956 0.09685 0.083862 0.21687 
0.56132 0.52942 0.20734 0.10754 0.044073 0.048184 0.061337 0.16031 
-0.012485 -0.04323 0.10211 0.019905 -0.0050863 0.00099702 -0.00081153 0.021056 
-0.72916 -0.54288 -0.061809 -0.050958 -0.051615 -0.064768 -0.01939 -0.091568 
-0.71519 -0.48402 -0.10768 -0.045532 -0.046683 -0.064933 -0.02646 -0.051451 
-0.031886 -0.091897 -0.0055795 -0.020212 -0.0042642 -0.0027845 0.033551 0.15144 
0.38375 0.14338 0.081067 0.040456 0.045224 0.07301 0.057227 0.26291 
0.47254 0.16903 0.13762 0.1128 0.056404 0.071531 0.097015 0.28543 
0.23874 -0.2009 0.089123 0.043251 0.039634 0.026974 0.06183 0.16196 
-0.17328 -0.58119 -0.055232 -0.021363 0.0028056 -0.025474 -0.00097594 0.0042853 
-0.67672 -0.55637 -0.20238 -0.051451 -0.040106 -0.036983 -0.066413 -0.18512 
-0.73443 0.061172 -0.2032 -0.087622 -0.028269 -0.054575 -0.064768 -0.25253 
-0.56064 0.36073 -0.15602 -0.05885 -0.00064712 -0.010676 -0.0406 -0.15585 
0.08156 0.42354 -0.11146 0.013164 0.043909 0.026974 0.0075736 0.060515 
0.65125 0.37389 -0.0138 0.0592 0.066434 0.098494 0.037661 0.26274 
0.55721 0.28626 0.08008 0.11181 0.062488 0.074654 0.073175 0.28067 
0.2121 0.159 0.20125 0.11724 0.044567 0.032236 0.061337 0.2343 
0.43045 0.45807 0.36583 0.14289 0.035031 0.055911 0.098001 0.29628 
0.59996 0.76832 0.39411 0.16837 0.097179 0.098494 0.098001 0.25929 
0.55441 0.47089 0.25962 0.1174 0.10639 0.097015 0.065447 0.13105 
0.31141 0.080902 0.171 0.067256 0.10178 0.086821 0.057062 0.082875 
-0.054904 -0.085813 0.035031 0.056076 0.090274 0.09685 0.055582 0.048841 
-0.3885 -0.42237 -0.1718 0.032564 0.055582 0.052623 0.036346 0.016616 
-0.21932 -0.78852 -0.30942 -0.045532 0.028947 0.00066819 0.0227 -0.071838 
-0.37288 -1.1348 -0.36893 -0.079401 -0.02942 -0.064768 -0.055726 -0.25861 
-1.0669 -1.1469 -0.37929 -0.10439 -0.075291 -0.13744 -0.099789 -0.48633 
-1.1045 -0.48221 -0.18545 -0.068714 -0.083183 -0.091732 -0.096007 -0.44654 
-0.54107 0.35268 -0.041422 0.00083261 -0.026131 -0.033859 -0.036983 -0.2471 
0.23315 0.84017 0.047855 0.032893 0.00297 0.012177 0.013986 -0.009361 
0.67131 0.83425 0.15456 0.013328 0.024508 0.049992 0.050486 0.12151 
0.53123 0.52614 0.15834 0.011848 0.031578 0.048019 0.062817 0.15571 
0.21802 0.16788 0.1054 0.038648 0.030756 0.025166 0.040292 0.11378 
0.04654 -0.088937 0.040292 0.022371 0.015301 -0.0014692 0.038483 0.064954 
0.062159 -0.25269 0.048513 0.055911 0.046375 0.051143 0.0421 0.08008 
0.10359 -0.16966 0.10688 0.084355 0.040456 0.055747 0.061008 0.030756 
0.24252 0.25699 0.21424 0.074326 0.01152 0.024837 0.045718 0.050321 
0.38441 0.59157 0.29398 0.01974 -0.05885 -0.027118 0.01826 0.0075736 
0.3752 0.49934 0.18826 -0.054904 -0.091075 -0.06707 -0.021856 0.0054362 
0.22296 0.28856 0.11872 -0.05326 -0.038791 0.014808 -0.020048 -0.054904 
-0.042408 0.11543 0.12168 0.032236 0.051308 0.040456 0.0098754 -0.089102 
-0.16177 -0.018897 0.1493 0.15785 0.12875 0.082546 0.051308 -0.069208 
-0.023007 0.15423 0.19385 0.2218 0.16574 0.13384 0.092082 0.041607 
0.23529 0.4117 0.18333 0.20339 0.12677 0.13121 0.095206 0.13467 
0.39428 0.46086 0.013328 0.094713 0.071202 0.078929 0.06594 0.13565 
0.1373 0.25683 -0.15273 -0.036818 0.048677 0.034866 0.034373 0.024344 
-0.084498 -0.022843 -0.12544 -0.020377 0.082217 0.042594 0.0421 -0.030242 
0.12891 -0.24184 -0.016266 0.092576 0.14371 0.10655 0.064296 -0.0073881 
0.23956 -0.45081 -0.0078813 0.11362 0.1225 0.083862 0.062488 -0.031228 
-0.14878 -0.64942 -0.061809 0.04095 0.018918 0.01974 0.040456 -0.109 
-1.0753 -1.0537 -0.23329 -0.044381 -0.068386 -0.032708 -0.031392 -0.29856 
-1.5419 -1.206 -0.34707 -0.13004 -0.10045 -0.083512 -0.082032 -0.38159 
-0.83406 -0.64285 -0.2933 -0.13415 -0.13826 -0.15865 -0.11245 -0.35348 
-0.11031 0.025824 -0.10373 -0.096007 -0.11508 -0.13168 -0.096007 -0.26946 
0.3974 0.61475 0.085835 -0.042408 -0.05737 -0.056877 -0.035667 -0.052931 
0.6695 0.78262 0.18514 0.085177 0.025988 0.069886 0.028454 0.15604 
0.51084 0.46728 0.2371 0.091425 0.079751 0.10129 0.081231 0.19665 
0.47484 0.33163 0.25255 0.096193 0.090438 0.093233 0.067913 0.2297 
0.68726 0.57266 0.25584 0.10343 0.071037 0.072517 0.10145 0.27261 
0.69121 0.61064 0.21901 0.091753 0.042265 0.06331 0.071037 0.22986 
0.52614 0.45988 0.22328 0.061337 0.040456 0.047362 0.068571 0.23858 
0.24038 0.25387 0.17807 0.071037 0.064461 0.065118 0.059035 0.11362 
-0.12774 0.049335 0.13154 0.082217 0.074983 0.092576 0.067913 0.01826 
-0.29511 -0.036983 0.15735 0.10244 0.071037 0.07038 0.06331 -0.046847 
-0.21208 -0.021363 0.13236 0.09274 0.052459 0.037332 0.04654 -0.0013048 
-0.11985 -0.075455 -0.016431 0.050979 0.039799 0.027961 0.026317 -0.0055795 
-0.19022 -0.35792 -0.19466 0.0032988 0.062981 0.046375 0.019083 -0.010019 
-0.22376 -0.48057 -0.25664 0.0067515 0.065447 0.050486 0.041114 0.053774 
-0.13629 -0.3862 -0.19449 0.019411 0.056569 0.051143 0.0324 0.14256 
-0.025967 -0.2203 -0.074633 0.0026412 0.017767 0.0034632 0.031085 0.11428 
0.066763 0.066763 0.077614 0.0072447 -0.010841 -0.001798 0.031085 0.041114 
0.23545 0.49046 0.18695 -0.0016336 -0.060987 -0.027447 0.011355 0.10967 
0.16377 0.51331 0.11609 -0.049971 -0.083512 -0.072332 0.013986 0.11115 
0.042923 0.086163 -0.12544 -0.1113 -0.14204 -0.10982 -0.028926 0.11198 
0.21638 -0.053095 -0.19926 -0.10078 -0.060987 -0.041093 -0.021034 0.15028 
0.19813 -0.12396 -0.19367 -0.014622 0.11576 0.091753 0.033551 0.061995 
-0.082196 -0.23938 -0.15881 0.08304 0.21704 0.15851 0.057227 -0.12198 
-0.32142 -0.31928 0.014808 0.14469 0.20109 0.1544 0.054103 -0.11163 
-0.36581 -0.20041 0.12431 0.12628 0.13499 0.11247 0.048841 -0.01232 
-0.16835 0.1396 0.19451 0.099974 0.047855 0.044073 0.056076 0.1151 
0.094055 0.28905 0.16903 0.048513 0.0059294 -0.001798 0.054103 0.18826 
0.2537 0.25666 0.090931 -0.013143 -0.036654 -0.02087 0.02681 0.17429 
0.43982 0.34873 0.029769 -0.030242 -0.047834 -0.025802 -0.0014692 0.12283 
0.54685 0.48569 0.085835 -0.0034422 -0.017582 -0.021199 0.0052718 0.11263 
0.36238 0.24104 0.086821 0.029934 0.013492 0.017603 0.050486 0.15045 
-0.042573 -0.26815 0.019083 0.045553 0.020233 0.017767 0.052787 0.056076 
-0.29084 -0.45985 -0.0014692 -0.0049219 0.0018191 0.018754 0.0051074 0.020069 
-0.01676 -0.0047575 0.080409 -0.012649 0.0034632 -0.0044286 0.0054362 0.060022 
0.46547 0.5388 0.2024 0.061172 0.026974 0.021878 0.040785 0.1641 
0.68151 0.68923 0.21358 0.066927 0.05772 0.0592 0.046868 0.1641 
0.43883 0.536 0.1299 0.044402 0.048841 0.062323 0.05065 0.052623 
-0.088608 0.10063 -0.0050863 0.039963 0.027303 0.0082312 0.019411 -0.087129 
-0.70171 -0.27259 -0.14139 -0.047341 0.004943 0.0074092 -0.012649 -0.18298 
-0.75531 -0.38768 -0.16687 -0.064933 -0.028104 -0.031886 -0.031228 -0.17131 
-0.81038 -0.52003 -0.20501 -0.03205 -0.0078813 -0.025309 -0.04882 -0.17723 
-0.89259 -0.56196 -0.15618 -0.057699 -0.021199 -0.049807 -0.047176 -0.2083 
-0.52315 -0.26552 -0.022514 -0.017746 0.013657 -0.014951 -0.050793 -0.15881 
0.53518 0.25354 0.057391 0.05624 0.10655 0.03536 0.012835 -0.039284 
1.1669 0.58648 0.10655 0.018589 0.082053 0.1026 0.069393 0.10047 
1.1978 0.80876 0.1539 0.048019 0.068407 0.089123 0.081724 0.25765 
0.77736 0.66605 0.23446 0.078272 0.053609 0.062488 0.085177 0.30697 
0.34807 0.44557 0.2634 0.091589 0.063145 0.059364 0.051308 0.30894 
0.15045 0.30204 0.25699 0.12381 0.076792 0.075476 0.048184 0.19994 
-0.38817 -0.10308 0.14963 0.11099 0.048513 0.021713 0.027303 -0.019226 
-1.0443 -0.71913 -0.13514 -0.038791 -0.052931 -0.078415 -0.05589 -0.30218 
-0.93353 -0.68921 -0.25664 -0.12264 -0.086471 -0.11475 -0.080552 -0.303 
-0.34131 -0.29873 -0.17969 -0.036818 -0.068879 -0.067892 -0.041257 -0.12873 
-0.13497 -0.25993 -0.098473 -0.011663 -0.014293 -0.039942 -0.017746 -0.082854 
-0.16736 -0.218 -0.080059 0.0074092 0.038155 -0.049642 -0.0072237 -0.18874 
0.036182 -0.0042642 -0.052273 0.026974 0.01267 -0.01232 -0.029913 -0.16276 
0.18974 0.16179 -0.04619 0.068242 0.073668 0.067256 0.044073 0.096521 
0.42255 0.32571 -0.035338 0.06035 0.10672 0.1031 0.082217 0.23266 
0.32045 0.17971 0.027468 0.07301 0.094055 0.10376 0.088465 0.07301 
0.076792 0.049335 0.090438 0.049006 0.039141 0.027961 0.034702 -0.08121 
0.019083 0.13795 0.12562 0.070708 0.029605 0.023851 0.022535 -0.019555 
0.040456 0.38293 0.15505 0.082875 0.0075736 0.013328 0.025001 0.028125 
0.046375 0.47023 0.14206 0.086821 0.040128 0.033058 0.053281 0.076956 
0.077943 0.32045 0.10063 0.08304 0.03799 0.035688 0.077778 0.076956 
-0.056219 -0.11442 -0.0078813 0.0051074 -0.014293 -0.0098543 0.013657 0.024508 
-0.019555 -0.44983 -0.064768 -0.078579 -0.020048 -0.035503 -0.0059084 -0.066906 
0.15752 -0.37781 0.015465 0.0044497 0.045553 0.032071 0.0056006 0.0082312 
0.066434 -0.23066 0.19994 0.1544 0.14963 0.10228 0.070215 0.095535 
0.059035 0.037661 0.31355 0.15834 0.14026 0.12135 0.091753 0.16344 
0.19353 0.35251 0.29431 0.13532 0.077614 0.067256 0.082217 0.18037 
0.3775 0.60012 0.21539 0.091096 0.047691 0.030427 0.048348 0.22279 
0.54027 0.61344 0.14108 0.032729 0.023851 0.027632 0.065283 0.27968 
0.23907 0.21046 0.025001 -0.010512 -0.025474 0.0052718 0.040621 0.17511 
-0.38324 -0.26996 -0.037147 -0.0078813 -0.018239 -0.0029489 0.017932 -0.050136 
-0.54765 -0.58234 -0.062631 0.0041209 0.020398 -0.0040998 -0.0013048 -0.23 
