0.079258 0.084684 0.047855 0.093233 0.070051 0.10918 0.1442 0.10293 
-0.040106 0.012999 0.050157 0.090274 0.061501 0.085341 0.10852 -0.070523 
-0.078579 0.028947 0.028619 0.076956 0.066598 0.033222 0.03799 -0.16358 
-0.027447 0.055747 0.045882 0.06331 0.038483 0.0098754 -0.080388 -0.1376 
0.016616 0.066105 0.059035 0.10425 0.090438 0.0070803 -0.099624 -0.041751 
0.028947 0.085506 0.065118 0.13598 0.03799 0.012999 -0.08532 0.031742 
-0.006566 0.061172 0.02681 0.09126 0.054596 0.04654 -0.011827 0.10162 
-0.003771 0.045389 0.037661 0.08156 0.076627 0.074983 0.023193 0.084355 
-0.026953 0.073997 0.051965 0.095699 0.075476 0.093562 0.039305 0.046868 
0.028125 0.077285 0.074819 0.097344 0.067749 0.044731 -0.01939 0.053445 
0.061501 0.1151 0.056733 0.098659 0.082217 0.031249 0.035031 0.1225 
0.12973 0.061172 0.018589 0.10474 0.050157 -0.00064712 0.13943 0.20388 
0.10359 0.049499 -0.015116 0.057884 0.012177 -0.030242 0.11263 0.11707 
0.023357 0.065612 -0.0090322 0.043251 -0.0091966 -0.096829 -0.011498 -0.095185 
-0.038627 0.058049 0.019083 0.05624 0.020562 -0.091568 -0.10801 -0.19712 
-0.046683 0.05476 0.056404 0.077285 0.057555 -0.070359 -0.13251 -0.15076 
0.0064227 0.059857 0.09833 0.10622 0.063145 -0.024487 -0.11146 -0.058192 
0.044731 0.093233 0.082053 0.13894 0.069722 0.014479 -0.13086 0.051801 
0.058542 0.01415 0.048513 0.10737 0.072188 0.010204 -0.0406 0.073504 
0.053445 -0.0087034 -0.013471 0.061008 0.062981 0.019083 0.015465 0.055747 
0.013328 0.071037 0.0051074 0.053445 0.08156 0.074326 0.084519 -0.051944 
-0.01232 0.10688 0.046211 0.069558 0.079587 0.13286 0.081889 -0.17295 
-0.017088 0.1248 0.10178 0.10918 0.091096 0.23858 0.10178 -0.19794 
0.023357 0.12644 0.088794 0.13976 0.11921 0.29875 0.097179 -0.014129 
-0.0062372 0.071695 0.049499 0.10737 0.059364 0.19024 0.034209 0.13647 
-0.0078813 0.097508 0.067913 0.10754 -0.0044286 -0.025474 0.017767 0.24515 
0.07038 0.12053 0.11674 0.13516 -0.015938 -0.13284 -0.0054151 0.21802 
0.13105 0.03536 0.066763 0.10836 -0.022021 -0.11146 0.0056006 0.13368 
0.10573 -0.031064 -0.018897 0.040292 -0.014951 -0.054904 -0.015773 0.042758 
0.10606 -0.027775 -0.080717 0.0095465 0.016945 -0.011005 -0.0021268 -0.03353 
0.14831 0.010697 -0.053095 0.00066819 0.051143 -0.012485 0.063639 -0.054246 
0.065283 0.011026 -0.019884 0.014479 0.065447 0.00297 0.12168 -0.14582 
-0.13908 -0.080223 -0.0096899 0.018754 0.049335 0.012013 0.12497 -0.19712 
-0.28475 -0.12083 -0.00031829 0.023522 0.047855 0.031414 0.11724 -0.2185 
-0.255 -0.091075 0.030098 0.04358 0.0227 0.01563 0.12546 -0.13744 
-0.13136 0.08419 0.069886 0.097344 0.053938 0.024508 0.16558 0.01826 
0.072681 0.1904 0.1373 0.15176 0.058377 0.064132 0.17511 0.20372 
0.1368 0.24745 0.14026 0.16903 0.04917 0.059693 0.069558 0.3124 
0.13631 0.1294 0.032893 0.10524 0.023851 -0.010183 -0.14434 0.341 
0.095042 0.021056 -0.039449 0.031742 1.0539e-005 -0.025309 -0.26437 0.25189 
0.12513 0.021713 -0.006566 0.024179 0.023686 0.040128 -0.19992 0.11609 
0.17297 0.1641 0.083533 0.095042 0.052787 0.088136 -0.10998 -0.0011404 
0.11674 0.22345 0.10277 0.14124 0.048184 0.045389 -0.069043 -0.045532 
-0.011663 0.042594 0.053938 0.10869 -0.0088678 -0.038791 -0.008539 -0.089924 
-0.093705 -0.09798 -0.060329 0.027468 -0.056548 -0.06855 0.018754 -0.1741 
-0.094199 -0.12626 -0.07973 -0.0095255 -0.055068 -0.03057 0.050321 -0.17591 
-0.017253 -0.11064 -0.071345 -0.036983 -0.024816 0.016123 0.01563 -0.13152 
-0.02087 -0.079072 -0.0022913 0.014643 0.040456 0.072024 0.088465 1.0539e-005 
0.055747 0.0036276 0.015959 0.080409 0.071695 0.13746 0.15686 0.13812 
0.15407 0.13828 0.09274 0.11855 0.092576 0.13154 0.16541 0.18054 
0.16114 0.1853 0.096521 0.12891 0.061501 0.092411 0.16344 0.15653 
0.15341 0.13467 0.09685 0.13253 0.06479 0.078272 0.16706 0.10063 
0.13927 0.078929 0.054432 0.098823 0.044402 0.030756 0.13302 0.035195 
0.051472 0.085341 0.010204 0.064625 0.02829 -0.011663 0.04358 -0.035338 
-0.045696 0.03947 -0.055232 0.044402 0.027796 -0.020706 -0.047012 -0.023665 
-0.17805 -0.019226 -0.032379 0.024015 0.013492 -0.040271 -0.10521 0.097179 
-0.21652 0.0044497 0.06594 0.077449 -0.0091966 -0.014458 -0.10719 0.13927 
-0.1039 0.18004 0.20865 0.18909 0.014808 0.054432 -0.048492 0.083368 
0.18794 0.35942 0.28938 0.26998 0.038319 0.050321 0.017603 0.12447 
0.43883 0.46925 0.23627 0.27064 0.028619 0.05065 0.050321 0.24038 
0.48783 0.2292 -0.031064 0.13121 0.020398 0.058213 0.086328 0.33081 
0.22871 -0.35792 -0.3155 -0.11985 0.032564 0.10441 0.036675 0.11773 
-0.12856 -0.69299 -0.36778 -0.24464 0.042594 0.025824 -0.16276 -0.20468 
-0.35447 -0.54403 -0.22935 -0.2032 0.051965 -0.056548 -0.25549 -0.39327 
-0.39031 -0.28212 -0.04619 -0.084991 0.026974 -0.076935 -0.14418 -0.27637 
-0.26585 -0.10308 0.063968 0.024179 0.036346 -0.021856 0.028783 -0.074304 
-0.098802 0.074326 0.074983 0.10408 0.039305 0.022864 0.13762 0.044731 
0.065612 0.22887 0.10441 0.13039 0.017932 0.026974 0.12612 0.065612 
0.24055 0.31256 0.14174 0.15999 0.015959 0.022535 0.12727 0.10918 
0.26455 0.29283 0.15735 0.18284 -0.031392 0.0013258 0.076792 0.1179 
0.24482 0.22986 0.18333 0.20224 -0.040435 -0.022514 0.093069 0.11855 
0.18481 0.16064 0.11625 0.16607 -0.05441 -0.065426 0.042758 0.088136 
0.15127 0.12266 0.0032988 0.12595 -0.015773 -0.0040998 0.021384 0.12875 
0.19501 0.14568 0.0098754 0.084684 0.079587 0.087643 0.060022 0.22822 
0.17001 0.10754 -0.011992 0.053116 0.091425 0.12644 -0.0040998 0.15834 
-0.077757 -0.15191 -0.1062 -0.02087 0.039305 0.042758 -0.18019 -0.088444 
-0.32799 -0.30021 -0.15043 -0.083676 0.01004 -0.024816 -0.22162 -0.24645 
-0.25828 -0.12511 0.010697 -0.0072237 0.052294 0.018589 -0.087293 -0.094692 
-0.15865 -0.061316 0.05065 0.069064 0.074161 0.041772 0.01004 0.058377 
-0.14763 -0.12642 0.018589 0.067091 0.055911 -0.023665 0.045718 0.075312 
-0.018568 0.0060938 0.092082 0.10754 -0.012156 -0.037805 0.10918 -0.10538 
0.25748 0.27902 0.16525 0.17018 -0.051944 -0.041257 0.15209 -0.099624 
0.46678 0.41318 0.1613 0.18119 -0.055726 -0.049149 0.11444 0.078929 
0.43982 0.20487 0.0079024 0.092411 -0.035832 -0.039449 0.049664 0.15489 
0.055911 -0.20551 -0.16407 -0.044874 0.036675 -0.014458 0.032729 -0.048656 
-0.36384 -0.4079 -0.3178 -0.17969 -0.0090322 0.019905 0.025166 -0.2208 
-0.28574 -0.13777 -0.16588 -0.13892 0.015137 0.046046 0.082875 -0.15454 
-0.084991 0.057884 -0.0057439 -0.027611 0.032236 0.093891 0.17166 -0.047505 
-0.021363 0.12332 0.16114 0.12069 0.099645 0.12414 0.22115 0.031249 
0.022206 0.22559 0.27014 0.22805 0.13845 0.14453 0.23529 0.074326 
0.10491 0.244 0.21326 0.24269 0.1054 0.12201 0.17889 0.098166 
0.16788 0.18152 0.069722 0.17067 0.012835 0.043745 0.1003 0.013657 
0.19533 0.10918 -0.02498 0.075148 -0.078086 -0.087622 -0.00081153 -0.014293 
0.16837 0.10639 0.011848 0.061008 -0.066084 -0.073154 -0.05589 0.092904 
0.075641 0.076956 0.03799 0.073175 0.035031 -0.0078813 0.013821 0.25485 
-0.13004 -0.011005 0.061337 0.084519 0.085999 0.035195 0.016123 0.079587 
-0.23625 -0.10028 -0.0040998 0.057555 0.098166 0.022371 -0.1233 -0.089102 
-0.17493 -0.16309 -0.043066 0.041607 0.047526 0.012999 -0.14829 -0.099131 
-0.058356 -0.10735 -0.0021268 0.041278 -0.02942 -0.037311 -0.044381 0.027139 
0.011684 -0.031392 0.075148 0.08567 -0.077922 -0.06855 0.064954 0.0019835 
0.026481 -0.038462 0.0037921 0.059528 -0.063782 -0.06444 0.092411 -0.023501 
0.13121 -0.02498 -0.065426 -0.0064016 -0.055068 -0.021363 0.1197 0.026317 
0.20947 0.052294 -0.069865 -0.025474 -0.013636 0.034209 0.13039 0.028619 
0.25535 0.19879 -0.023336 0.03651 0.029276 0.043909 0.030756 0.13516 
0.29102 0.41466 0.1932 0.16623 0.067585 0.024344 -0.16687 0.3563 
0.23414 0.48783 0.27655 0.26094 0.08156 -0.006566 -0.23411 0.5674 
0.030427 0.15785 0.13993 0.20421 0.050486 0.0023123 -0.081703 0.41187 
-0.20633 -0.28015 -0.10341 0.023357 0.014808 0.023851 0.10556 -0.1644 
-0.18479 -0.279 -0.17197 -0.080717 0.035195 0.11198 0.26159 -0.61868 
0.030098 0.013657 -0.11426 -0.040764 0.1077 0.25321 0.38704 -0.49751 
0.077285 0.12891 0.027796 0.036182 0.18678 0.24696 0.33673 -0.18791 
-0.043395 0.10408 0.16623 0.14338 0.13384 0.13286 0.24137 0.070708 
-0.095843 0.12003 0.23282 0.21852 0.052623 0.042265 0.098001 0.17741 
0.024179 0.18662 0.23611 0.24236 -0.010019 -0.052109 -0.08384 0.19616 
0.11773 0.22805 0.1978 0.21868 -0.014622 -0.048327 -0.085485 0.16492 
0.16327 0.17478 0.078107 0.18087 0.0041209 -0.032872 -0.055726 0.13319 
0.18794 0.10063 -0.0021268 0.092082 0.017438 -0.0032777 -0.0095255 0.11609 
0.12398 0.068571 -0.094692 0.0036276 -0.014622 0.0036276 0.005765 0.0021479 
0.01152 0.041114 -0.12133 -0.047998 -0.031064 -0.009361 -0.057699 -0.061645 
0.014808 0.0051074 -0.066906 -0.037147 -0.013965 -0.025145 -0.16227 -0.069536 
0.065447 0.038155 0.06331 0.042594 -0.0080457 -0.019884 -0.21784 0.090931 
0.12299 0.097015 0.14864 0.15505 0.012342 -0.018897 -0.15552 0.21079 
0.21819 0.18958 0.17824 0.19435 -0.038791 0.015137 -0.016431 0.27261 
0.19188 0.21293 0.11559 0.16508 -0.057041 -0.027447 0.038977 0.31207 
0.05213 0.16245 0.088958 0.14601 -0.010183 -0.049971 0.044402 0.28642 
-0.071016 -0.029584 -0.021856 0.065447 0.044731 -0.0050863 0.09981 0.18481 
-0.067728 -0.24168 -0.12511 -0.034352 0.099152 0.089287 0.044073 -0.043066 
0.0036276 -0.20271 -0.12609 -0.037147 0.082875 0.090603 -0.082361 -0.16046 
-0.0022913 -0.063618 0.034702 0.036346 0.046211 0.047362 -0.1039 -0.16424 
-0.12544 -0.013143 0.090931 0.093726 -0.0016336 0.0059294 -0.087622 -0.053424 
-0.17756 -0.090417 0.048184 0.085341 0.019905 -0.021199 -0.024652 0.0036276 
-0.13037 -0.14287 -0.045861 0.025495 0.048841 0.054103 0.16146 -0.026789 
-0.073811 -0.11574 -0.09946 -0.022843 0.084848 0.11987 0.34248 -0.061973 
0.083862 0.068571 -0.037805 0.0052718 0.095042 0.18317 0.42288 0.065612 
0.28806 0.26587 0.080902 0.087314 0.0689 0.17692 0.30829 0.15916 
0.31453 0.29579 0.14026 0.14354 0.021878 0.074326 0.11707 0.15259 
0.19139 0.27951 0.15505 0.17297 0.0028056 -0.023829 -0.063618 0.051801 
0.14354 0.31322 0.12069 0.16459 -0.019555 -0.094199 -0.25516 -0.065755 
0.088958 0.18448 0.074983 0.11888 -0.085485 -0.15487 -0.43601 -0.23296 
-0.11722 -0.085156 -0.024158 0.050157 -0.13382 -0.22326 -0.44867 -0.24349 
-0.14681 -0.053588 -0.061151 0.032893 -0.11048 -0.16046 -0.21373 0.090274 
0.063639 0.11296 0.062981 0.086328 0.00066819 -0.015609 0.075476 0.31947 
0.14848 0.10902 0.10195 0.12497 0.10935 0.14091 0.16475 0.17347 
0.081395 -0.0096899 0.077943 0.11937 0.06742 0.083697 0.061008 -0.01676 
0.064461 -0.094856 0.061172 0.09981 0.039799 0.027139 -0.048985 -0.016102 
0.020727 -0.019226 0.089123 0.12184 0.061995 0.040128 -0.099953 0.11247 
-0.058028 0.057227 0.065283 0.14091 0.05213 0.060515 0.0013258 0.14239 
-0.109 0.004943 -0.030899 0.063145 0.053445 0.10902 0.23611 0.061172 
-0.0057439 0.0019835 -0.06148 0.01152 0.0085601 0.12398 0.28494 0.08978 
0.12612 0.080573 -0.030077 0.0093821 0.0072447 0.1248 0.18596 0.083533 
0.09422 0.15308 0.13598 0.1105 0.0689 0.17708 0.13565 0.0065871 
-0.02942 0.1978 0.19369 0.18152 0.10935 0.13384 0.082711 -0.052766 
-0.061973 0.14881 0.093398 0.1687 0.099481 0.067585 -0.0073881 0.010862 
0.03651 0.071531 -0.0014692 0.050814 0.044731 -0.00081153 -0.053095 0.10244 
0.011684 -0.027447 -0.082032 -0.008539 -0.028597 -0.060494 -0.0054151 0.1978 
0.0095465 -0.18972 -0.13004 -0.050793 -0.067564 -0.13037 0.051636 0.16936 
-0.00081153 -0.21882 -0.059836 -0.036654 -0.054739 -0.10127 0.10425 -0.01117 
-0.059178 -0.10406 0.041443 0.0046141 0.0093821 -0.010183 0.12908 -0.20945 
-0.10932 0.012506 0.031085 0.043251 0.065447 0.10211 0.058213 -0.19367 
-0.076771 0.037497 -0.027447 0.023357 0.062159 0.078107 -0.13234 -0.11672 
-0.11426 -0.081374 -0.086142 0.0046141 0.057062 0.062817 -0.18578 -0.13908 
-0.078415 -0.069043 -0.054904 -0.0044286 0.028619 -0.016102 -0.14829 -0.048656 
0.11559 0.19747 0.10935 0.033551 -0.012978 -0.027282 -0.076606 0.14601 
0.32177 0.3928 0.29497 0.029605 0.043416 -0.066248 0.071859 0.28905 
0.35613 0.43801 0.26916 0.069722 -0.10423 -0.086307 0.036017 0.24269 
0.13878 0.14864 0.12398 0.012177 -0.15339 -0.13925 -0.14813 0.011191 
-0.084663 -0.18545 -0.10653 -0.11343 -0.12429 -0.22047 -0.25911 -0.20682 
-0.19679 -0.3104 -0.18923 -0.11245 -0.030406 -0.1353 -0.12215 -0.32339 
-0.33128 -0.47547 -0.21718 -0.015773 0.12579 0.082053 0.11707 -0.33802 
-0.36696 -0.32701 -0.029584 0.12529 0.30434 0.34775 0.38671 -0.1473 
-0.035503 0.12743 0.16788 0.26225 0.35284 0.45593 0.53616 0.20471 
0.21243 0.31651 0.16426 0.21737 0.21852 0.30368 0.50164 0.30335 
0.15768 0.27294 0.073832 0.037826 0.05624 0.10425 0.26899 0.19024 
0.00297 0.19846 0.077778 -0.0039354 -0.0138 -0.040435 -0.042737 0.043909 
-0.18742 0.10392 0.056569 0.0092177 -0.035832 -0.12741 -0.3469 -0.0088678 
-0.28031 0.029441 0.048677 -0.027118 -0.074304 -0.12083 -0.30366 -0.16161 
-0.14434 0.081231 0.0052718 -0.059836 -0.068221 -0.095185 0.031578 -0.14862 
0.13615 0.16262 0.01004 0.00017495 -0.035174 -0.039284 0.11592 -0.016924 
0.3775 0.25781 0.070708 0.037826 -0.0013048 -0.011498 -0.015116 0.147 
0.36402 0.2223 0.096521 0.048019 0.039141 -0.01528 -0.039284 0.10688 
0.20668 0.10622 0.10211 0.11921 0.07301 0.015794 0.0072447 0.059693 
0.085506 0.049335 0.1105 0.045882 0.06742 0.055089 0.033715 0.025824 
0.024179 -0.0050863 0.038648 -0.015444 0.0079024 0.017932 -0.0054151 -0.048656 
0.043745 -0.13563 -0.093376 -0.0406 -0.050793 -0.053588 0.047691 -0.052602 
0.20208 -0.22935 -0.1746 -0.087458 -0.059343 -0.061151 0.28034 -0.073647 
0.39016 0.016452 -0.063289 0.0062583 -0.019719 0.055911 0.43768 -0.0042642 
0.31832 0.21917 0.1225 0.10721 0.032893 0.069393 0.24022 -0.018075 
-0.064768 0.10145 0.12168 0.072188 0.034537 -0.0138 -0.19794 -0.030077 
-0.57856 -0.30448 -0.12346 -0.068057 -0.016266 -0.16835 -0.52069 -0.17476 
-0.77734 -0.58464 -0.38143 -0.16868 -0.071016 -0.21373 -0.48304 -0.26387 
-0.41234 -0.2739 -0.1723 -0.079237 -0.0072237 -0.046683 -0.1182 -0.023336 
0.1539 0.25436 0.19139 0.12299 0.10014 0.16541 0.19451 0.38063 
0.3387 0.27392 0.19402 0.17873 0.14782 0.24466 0.28757 0.36994 
0.079751 -0.0032777 -0.096007 -0.011992 0.10063 0.15505 0.23644 0.041607 
-0.017582 0.046868 -0.099953 -0.02942 0.060844 0.081724 0.16623 -0.15437 
0.093069 0.32752 0.22 0.13417 0.10803 0.077614 0.1955 -0.064933 
0.16344 0.41351 0.3877 0.20832 0.1151 0.097508 0.24186 0.048348 
0.19353 0.2292 0.2292 0.1054 0.061501 0.11855 0.2223 0.047033 
0.20339 0.021549 -0.0039354 0.00297 0.082875 0.21358 0.19287 0.159 
0.092411 -0.16161 -0.11705 -0.05326 0.093891 0.2172 0.11329 0.17051 
-0.11508 -0.31994 -0.088937 0.01004 0.10113 0.15801 -0.074633 0.030592 
-0.19811 -0.30481 -0.07825 0.049335 0.085341 0.048348 -0.29314 -0.12396 
-0.19548 -0.25828 -0.057041 0.014643 0.018425 -0.069536 -0.31238 -0.078415 
-0.067728 -0.11261 -0.034845 -0.025309 -0.049642 -0.15224 -0.15618 0.033387 
0.065283 0.046868 -0.0039354 -0.016924 -0.094034 -0.17328 0.0041209 0.048019 
0.13845 0.18498 0.034702 -0.049478 -0.053753 -0.19268 0.024837 0.1128 
0.19616 0.27212 0.086985 -0.0034422 -0.046519 -0.074633 0.17889 0.15522 
0.183 0.34955 0.11247 0.059035 0.021384 0.090438 0.23414 0.034044 
0.1904 0.33459 0.1442 0.094713 0.081724 0.15144 0.09685 0.017932 
0.12447 0.21013 0.10441 0.092082 0.02533 0.09685 -0.01528 0.35416 
0.0070803 0.033058 0.021056 0.062817 0.0018191 0.0060938 -0.13349 0.35399 
-0.088937 -0.075455 0.019083 0.0088889 -0.027447 -0.092719 -0.43684 -0.060494 
-0.15618 -0.11278 -0.012485 -0.023994 -0.042573 -0.145 -0.33457 -0.23329 
-0.037476 -0.0078813 0.034209 0.0056006 -0.029913 -0.072989 0.14387 0.22 
0.16426 0.16146 0.073997 0.0090533 -0.0087034 0.014643 0.414 0.52219 
0.21013 0.15999 0.072188 0.037168 0.049828 0.1567 0.48454 0.36172 
0.12612 0.05772 0.067913 0.054596 0.11987 0.24515 0.37044 0.14174 
0.21589 0.061008 0.055582 0.055911 0.15867 0.25551 0.22131 0.094055 
0.40118 0.14798 0.11625 0.087314 0.1419 0.21753 0.086492 0.020069 
0.2565 0.096193 0.077778 0.067256 0.083697 0.093069 -0.10653 -0.1284 
-0.14895 -0.10406 -0.073482 -0.01232 0.059528 -0.003771 -0.23116 -0.39688 
-0.45196 -0.25154 -0.12823 -0.05326 0.052294 -0.070523 -0.30892 -0.67277 
-0.57741 -0.35775 -0.1016 0.011191 0.035031 -0.13415 -0.31238 -0.6731 
-0.47958 -0.20468 0.048184 0.081231 0.026646 -0.060165 -0.15487 -0.24645 
-0.10176 0.08978 0.18613 0.11214 0.023686 -0.009361 0.019247 0.35268 
0.22213 0.34939 0.19747 0.10491 -0.0029489 0.011355 0.13335 0.64287 
0.34248 0.39625 0.082217 0.061666 0.0072447 0.0039565 0.19829 0.69893 
0.29694 0.20438 -0.04323 -0.010019 -0.025474 -0.025802 0.16738 0.4242 
0.29185 0.12184 -0.02087 -0.0091966 -0.04323 -0.03353 0.13894 0.14667 
0.27228 0.16574 0.08978 0.035688 -0.049478 -0.04471 0.049664 -0.0965 
0.17445 0.23529 0.21556 0.067913 -0.012156 -0.10669 -0.16966 -0.22162 
0.056898 0.26126 0.26866 0.078929 0.0026412 -0.14977 -0.33063 -0.26782 
0.057391 0.27179 0.22246 0.10047 0.023357 -0.067399 -0.04619 -0.10225 
0.15094 0.2029 0.13746 0.094877 0.10984 0.073832 0.17429 0.1026 
0.1271 0.029276 0.029112 0.072188 0.14798 0.14141 0.26472 0.19764 
0.11231 0.046868 0.0064227 0.070873 0.11806 0.19451 0.34216 0.21178 
0.19287 0.29234 0.11872 0.047362 0.062981 0.17593 0.39362 0.1904 
0.29776 0.34331 0.08863 -0.011334 0.0082312 0.095699 0.27787 0.11362 
0.14601 -0.042901 -0.18643 -0.1085 -0.089431 -0.058028 -0.094363 -0.026624 
-0.15372 -0.51329 -0.45114 -0.18578 -0.1062 -0.15487 -0.28459 -0.18759 
-0.44966 -0.65156 -0.42566 -0.1016 -0.0036066 -0.048327 -0.081703 -0.52496 
-0.49882 -0.32273 -0.15684 0.019247 0.053609 0.039141 0.007738 -0.60848 
-0.21356 0.048841 0.11444 0.083368 0.093233 -0.025309 -0.10505 -0.19449 
0.21819 0.33114 0.29497 0.12365 0.10047 -0.019719 -0.18463 0.3803 
0.28231 0.32456 0.26587 0.13894 0.059528 -0.0503 -0.027447 0.48733 
0.069722 0.15555 0.14387 0.039799 0.11839 0.090767 0.29809 0.2662 
0.093891 0.17807 0.090767 0.019083 0.1955 0.25271 0.34347 0.038812 
0.34183 0.34035 0.09274 0.057391 0.27228 0.31042 0.23249 0.048513 
0.48026 0.47221 0.16788 0.086985 0.12332 0.21704 0.092247 -0.044217 
0.32703 0.39312 0.17659 0.059035 -0.0042642 0.075805 -0.12281 -0.049642 
0.09126 0.21441 0.075805 0.050979 -0.09798 -0.065097 -0.2032 0.20471 
-0.029913 0.062652 0.013164 -0.0090322 -0.13366 -0.12149 -0.19038 0.30105 
-0.13826 -0.10143 -0.021363 -0.0042642 -0.038956 -0.029091 -0.027611 0.025495 
-0.3081 -0.38455 -0.040106 0.010862 0.051636 0.03536 0.15653 -0.16753 
-0.39014 -0.61424 -0.10817 -0.018897 -0.0078813 -0.041093 0.22378 -0.11343 
-0.18759 -0.32027 0.016945 0.029769 0.023357 -0.0062372 0.30763 0.096028 
0.11839 0.086163 0.12217 0.12677 0.093562 0.079751 0.3655 0.21474 
0.17281 0.25387 0.1613 0.12447 0.16245 0.14305 0.33295 0.092082 
0.022864 0.13746 0.076792 0.050486 0.068407 0.063803 0.23397 -0.11015 
-0.12297 -0.032379 -0.10587 -0.026953 -0.072989 -0.066413 0.01267 -0.31188 
-0.17016 -0.22261 -0.22507 -0.13793 -0.12429 -0.20353 -0.37732 -0.23494 
-0.25647 -0.37041 -0.25204 -0.15569 -0.14089 -0.3395 -0.70549 -0.1455 
-0.081045 -0.36285 -0.18709 -0.070687 -0.060658 -0.20485 -0.43733 0.061337 
0.12184 -0.22425 -0.074304 0.012342 0.11066 0.077943 0.031249 0.21441 
0.28773 0.010204 0.032729 0.091753 0.25485 0.28001 0.23759 0.2218 
0.23085 0.11691 0.066269 0.11066 0.26505 0.33114 0.25271 0.1733 
0.014808 0.065776 0.022535 0.03799 0.098659 0.17182 0.087314 0.12562 
-0.046847 0.019083 0.0069159 0.0072447 -0.065755 0.043909 -0.03616 0.23956 
0.034044 0.10326 0.034866 0.032729 -0.049149 0.044238 0.049335 0.19517 
0.12316 0.24071 0.054596 0.042923 0.026646 0.12135 0.14305 0.15818 
0.14108 0.24729 0.10573 0.063145 0.08156 0.16952 0.12316 0.089287 
0.063968 0.14798 0.080244 0.086492 0.082382 0.092082 0.049664 0.058213 
-0.011498 0.050979 0.055254 0.049006 0.019576 -0.042079 -0.079401 0.051965 
-0.059836 0.075312 0.10145 0.018754 -0.011663 -0.12938 -0.13826 0.027961 
0.059693 0.19205 0.20586 0.096028 0.013492 -0.049478 -0.0096899 0.18218 
0.18942 0.25222 0.22723 0.096028 0.007738 0.02829 0.13943 0.2948 
0.18152 0.14996 0.072024 0.024837 -0.023007 -0.0042642 0.17462 0.16245 
0.10293 0.0075736 -0.097158 -0.03057 -0.067235 -0.03205 0.16377 -0.074469 
-0.10538 -0.089595 -0.10324 -0.0503 -0.071016 -0.012814 0.20043 -0.40905 
-0.31287 -0.088937 -0.0091966 -0.0022913 0.0090533 0.032729 0.096521 -0.61407 
-0.36121 -0.13021 0.025495 0.024673 0.013164 -0.017088 -0.30448 -0.57494 
-0.26453 -0.31221 -0.10998 -0.008539 -0.080223 -0.15914 -0.63216 -0.3765 
0.01826 -0.28541 -0.074469 -0.023336 -0.083676 -0.19531 -0.69529 0.051965 
0.19665 -0.10439 0.0052718 0.025659 -0.04471 -0.12593 -0.52118 0.27902 
0.12595 -0.081539 -0.026131 0.021384 -0.024652 0.0046141 -0.092719 0.38326 
0.025166 -0.035832 -0.038462 0.004943 0.01974 0.13171 0.36928 0.46086 
-0.11212 -0.073318 0.0014903 0.014643 0.06035 0.20421 0.58401 0.32917 
-0.059507 0.12283 0.064954 0.094055 0.030098 0.10425 0.44672 0.13812 
0.2463 0.40052 0.14354 0.15176 -0.0044286 0.01004 0.19714 0.11477 
0.41795 0.43587 0.12053 0.15801 -0.0077169 -0.064275 0.046868 0.14946 
0.39444 0.33887 0.073997 0.13039 0.019083 -0.080552 -0.10193 0.0016547 
0.08304 0.11543 0.040785 0.08008 0.0079024 -0.077922 -0.27867 -0.24234 
-0.22096 -0.066741 0.014808 0.055418 -0.0024557 -0.055397 -0.30152 -0.30004 
-0.24809 -0.044381 0.013986 0.091918 0.013821 0.027961 -0.13777 -0.19581 
-0.081703 0.061172 0.044402 0.091918 0.026646 0.10211 0.028454 -0.14023 
-0.032543 1.0539e-005 -0.029913 0.039963 -0.023501 0.074983 0.022206 -0.10752 
-0.0050863 -0.0022913 -0.062631 0.0024767 -0.035996 0.095042 0.062981 -0.010019 
0.2029 0.15308 0.065776 0.053445 0.058706 0.22098 0.23479 0.15982 
0.33114 0.31141 0.20339 0.16607 0.13779 0.28806 0.26324 0.19517 
0.25156 0.3244 0.23677 0.25633 0.14404 0.21523 0.058049 0.17692 
0.19632 0.33854 0.19221 0.2394 0.06594 0.0227 -0.13941 0.11921 
0.12957 0.18646 0.068407 0.15472 -0.049314 -0.11409 -0.25845 0.067091 
0.015301 0.0075736 -0.059014 0.051143 -0.071509 -0.13744 -0.13053 -0.042573 
-0.038462 0.039141 -0.026789 0.025166 -0.039942 -0.089759 0.13269 -0.040928 
-0.051451 0.064296 0.080244 0.08008 0.036346 0.027303 0.32062 0.0011614 
0.087479 0.13154 0.14223 0.15489 0.061995 0.082546 0.46925 0.09981 
0.29464 0.36008 0.1904 0.20355 0.069886 0.1322 0.47385 0.19796 
0.19879 0.21967 0.14453 0.18974 0.077121 0.13828 0.35514 0.16656 
-0.24349 -0.29577 -0.15421 -0.001798 0.0054362 0.0054362 -0.21669 -0.20452 
-0.5516 -0.58843 -0.3668 -0.20896 -0.060165 -0.2471 -0.97447 -0.81236 
-0.53483 -0.40741 -0.17821 -0.16473 -0.073976 -0.2887 -0.80397 -0.85921 
-0.27226 -0.020377 0.10754 0.046046 0.0032988 -0.10127 -0.15635 -0.016266 
0.13253 0.31897 0.26998 0.22608 0.059035 0.098494 0.10754 0.98156 
0.35827 0.52482 0.28379 0.28297 0.04654 0.095206 0.12842 0.94473 
0.33969 0.50016 0.20569 0.25502 -0.0095255 0.016616 0.088958 0.21671 
0.26176 0.44639 0.16097 0.22592 0.029934 0.063803 0.25732 -0.18052 
0.24022 0.26406 0.12151 0.17824 0.080738 0.17659 0.463 -0.082525 
0.15489 0.07597 0.070051 0.13779 0.071202 0.14848 0.40069 0.007738 
0.053774 -0.020048 -0.00081153 0.1054 0.055089 0.083204 0.21128 -0.014951 
0.0227 -0.019884 -0.017417 0.057555 0.075476 0.073668 0.04917 -0.017746 
0.025824 -0.095021 -0.044052 0.020562 0.073997 0.079587 -0.010676 -0.0070593 
0.031249 -0.19827 -0.054904 -0.0014692 0.024673 0.025988 -0.03616 -0.012649 
-0.010183 -0.12955 0.048348 0.044567 -0.031721 -0.031886 -0.033037 -0.017417 
0.0054362 0.079258 0.16229 0.14371 -0.011992 -0.049971 -0.0083746 0.06742 
0.090767 0.3119 0.19764 0.23841 0.056898 -0.01676 0.054925 0.14256 
0.10474 0.21967 0.08008 0.16607 0.095371 0.020069 -0.026296 0.1248 
-0.039284 0.034866 -0.078908 0.042429 0.092904 0.04095 0.0085601 -0.003771 
0.068242 0.12628 -0.054904 0.01563 0.12891 0.068407 0.10326 0.058871 
0.27886 0.20898 0.10836 0.11066 0.13138 0.14782 0.19122 0.17478 
0.12184 -0.067564 0.13779 0.14469 0.11543 0.11921 0.16212 0.171 
-0.32224 -0.4102 -0.038791 0.067091 0.048348 -0.0050863 0.062981 -0.076277 
-0.56985 -0.53861 -0.23198 -0.095678 -0.062467 -0.1358 -0.028926 -0.15717 
-0.35101 -0.36795 -0.23247 -0.14813 -0.028926 -0.084169 0.047526 -0.052766 
-0.014458 -0.076277 -0.09387 -0.086964 -0.012814 -0.034352 0.093562 0.014972 
0.17659 0.12299 -0.050793 -0.049149 -0.067564 -0.086636 -0.14599 -0.040764 
0.2006 0.28478 0.017932 -0.00064712 -0.086142 -0.099624 -0.19663 -0.092061 
0.26225 0.31305 0.063803 0.10178 0.030592 0.018754 0.013657 0.043251 
0.19468 0.095371 0.017603 0.077614 0.11099 0.094384 0.25781 0.13762 
0.065283 -0.0098543 -0.01117 0.047526 0.063803 0.085177 0.20125 0.16525 
-0.039449 -0.0072237 0.044402 0.071202 0.057391 0.03947 -0.06296 -0.022514 
-0.24464 -0.090088 0.10211 0.11296 0.11855 0.076956 -0.14517 -0.13991 
-0.2961 -0.15388 0.11115 0.12825 0.11905 0.12414 0.092904 -0.055397 
-0.11327 -0.049807 0.10672 0.16245 0.087643 0.11346 0.22822 0.075476 
0.13039 0.046046 0.095042 0.14634 0.046046 0.090603 0.2394 0.1179 
0.20701 0.054596 0.0070803 0.080738 0.013986 0.071202 0.18498 0.080409 
0.097015 0.0041209 -0.046519 0.02829 -0.00064712 -0.014129 0.092411 -0.010676 
0.057884 0.055418 0.028947 0.051472 -0.024652 -0.063453 -0.048163 0.08156 
0.098659 0.082711 0.06479 0.074326 -0.048327 -0.17098 -0.22474 0.08567 
0.062652 -0.034188 -0.07562 0.019576 0.010862 -0.11475 -0.18002 -0.0965 
-0.015773 -0.1136 -0.2037 -0.088608 0.049992 -0.0034422 -0.0031133 -0.21619 
-0.017582 -0.022185 -0.060329 -0.036489 0.088958 0.068407 0.12677 -0.011498 
0.076627 0.098494 0.15637 0.11329 0.1419 0.14108 0.17824 0.37126 
-0.024487 -0.070523 0.092411 0.1151 0.076299 0.14913 0.18448 0.44705 
-0.2106 -0.12856 -0.02235 0.037826 0.011191 0.094548 0.20043 0.13615 
-0.061809 0.12562 0.0060938 0.048184 -0.020377 0.075805 0.23134 -0.10193 
0.23085 0.2588 0.0087245 0.066927 0.022042 0.10145 0.18991 -0.19827 
0.10606 0.012999 -0.09239 -0.0078813 0.035688 0.071859 -0.051287 -0.21833 
-0.22524 -0.32388 -0.17197 -0.086964 0.029605 0.018754 -0.1205 0.073504 
-0.32536 -0.39261 -0.10669 -0.069865 0.077449 0.065447 0.14206 0.32818 
-0.22047 -0.26272 0.012177 -0.0004827 0.074819 0.075312 0.25732 0.25288 
-0.078908 -0.11294 0.037826 0.045553 -0.0026201 -0.027611 -0.10176 -0.20797 
0.01267 0.02533 -0.00064712 0.062159 -0.064768 -0.12577 -0.27686 -0.58892 
0.13203 0.17412 0.06479 0.091425 -0.035503 -0.083347 -0.10061 -0.40708 
0.24597 0.30303 0.11691 0.13154 0.065118 0.00099702 -0.042244 0.024837 
0.2491 0.29431 0.13253 0.16097 0.064461 0.10458 0.026646 0.38901 
0.15999 0.19007 0.15407 0.16771 0.075148 0.11313 0.10228 0.42962 
-0.019061 0.082875 0.10589 0.13138 0.010204 0.058213 0.061172 0.24943 
-0.048492 0.11526 0.056404 0.13762 -0.00081153 0.017438 0.14124 0.13434 
0.011026 0.14798 0.097508 0.14848 0.046375 0.092411 0.33048 0.19484 
0.1858 0.19007 0.09274 0.14009 0.076792 0.15949 0.49917 -0.0049219 
0.20208 0.15061 0.083697 0.12743 0.042429 0.12809 0.34972 -0.35808 
0.019083 0.056569 0.078272 0.10737 -0.0059084 0.03388 -0.27094 -0.48534 
-0.17443 -0.05326 0.024837 0.073175 -0.07973 -0.13843 -0.78326 -0.24579 
-0.21291 -0.10916 -0.019061 0.071695 -0.096007 -0.12281 -0.30827 0.33311 
-0.11409 -0.1205 -0.017582 0.045718 -0.063289 -0.078908 0.31157 0.67394 
0.0051074 -0.11985 -0.048327 0.013986 -0.07266 -0.14007 0.34429 0.33163 
0.016945 -0.099295 -0.12297 -0.046025 -0.043395 -0.1552 0.15111 -0.11393 
0.069229 0.10573 -0.027282 -0.001798 0.10178 0.013164 -0.017911 -0.1501 
0.15275 0.29809 0.15226 0.11905 0.16327 0.040128 -0.32158 -0.051615 
0.12825 0.32078 0.24482 0.23973 0.057555 -0.061645 -0.45837 0.031414 
0.14091 0.41269 0.26587 0.27836 -0.001798 -0.017088 -0.15174 0.061995 
0.18202 0.44574 0.20717 0.25765 -0.024487 0.029769 0.049828 0.057555 
0.11428 0.21654 0.03536 0.14174 -0.032872 0.033715 -0.065426 -0.016431 
0.056898 0.0028056 -0.09798 0.0067515 0.0060938 0.0786 -0.11426 0.031742 
0.10984 -0.11968 -0.10834 -0.041422 0.059035 0.15324 0.1978 0.15012 
0.092411 -0.084334 -0.047669 0.0079024 0.11395 0.19221 0.36419 0.097837 
0.11609 0.09833 0.11362 0.10852 0.12381 0.15259 0.27031 -0.050793 
0.13828 0.23134 0.2149 0.19994 0.067913 0.043745 0.10606 -0.083347 
0.033387 0.18942 0.23496 0.24696 -0.0059084 -0.095843 0.027303 0.028454 
0.020069 0.21194 0.17001 0.058377 -0.042573 -0.14106 -0.021692 0.16755 
-0.010348 0.03092 -0.010841 -0.008539 -0.066577 -0.18841 -0.15503 0.1248 
-0.15733 -0.27193 -0.31386 -0.194 -0.14369 -0.18808 -0.1718 -0.11755 
-0.068879 -0.20863 -0.32421 -0.17131 -0.11705 -0.076277 -0.052766 -0.16375 
0.1687 0.071202 -0.025309 0.047526 0.037497 0.14486 -0.0072237 -0.048985 
0.293 0.29809 0.26406 0.23479 0.17281 0.26948 0.11 0.19665 
0.3484 0.35498 0.35465 0.29152 0.21539 0.25321 0.25189 0.40134 
0.27327 0.23742 0.21556 0.17906 0.15209 0.13976 0.23907 0.31782 
0.073175 0.020727 -0.0062372 0.0019835 0.058213 0.033058 0.081889 0.072681 
-0.063782 -0.014951 -0.078579 -0.098309 -0.071838 -0.15602 -0.23411 -0.157 
-0.27949 -0.16983 -0.11146 -0.1159 -0.12807 -0.29232 -0.28804 -0.29561 
-0.4758 -0.2642 -0.11722 -0.089102 -0.081868 -0.22047 -0.082854 -0.25894 
-0.36976 -0.098638 -0.04323 -0.054082 -0.025309 -0.15865 -0.32405 -0.19909 
-0.036489 0.13467 0.032729 0.028619 0.034702 -0.074469 -0.33161 -0.0138 
0.26209 0.1659 -0.059178 0.0080668 0.07301 0.084519 0.12661 0.34692 
0.38852 0.16229 0.044073 0.029605 0.071531 0.18251 0.43702 0.47221 
0.3364 0.22624 0.12299 0.063968 0.035688 0.19813 0.41335 0.2514 
0.22509 0.16738 0.099152 0.046046 0.023522 0.10392 0.28067 0.018754 
0.077778 0.048841 0.0070803 -0.0019624 0.010204 0.054596 0.12431 -0.10357 
-0.02646 0.048184 -0.034516 -0.028762 -0.038133 0.0070803 0.041443 -0.10801 
0.0036276 0.087479 -0.024816 -0.025309 -0.021363 -0.014787 0.024179 -0.031557 
0.062981 0.064461 -0.012814 0.01267 0.062652 0.044402 -0.044874 -0.0059084 
-0.012649 -0.021034 -0.0036066 0.13401 0.19369 0.13006 -0.30514 -0.11475 
-0.094692 -0.14714 -0.025967 0.1368 0.20619 0.16344 -0.18676 -0.1769 
-0.0044286 -0.13333 0.01826 0.12447 0.1641 0.19698 0.26505 -0.075291 
0.17001 0.015137 0.10852 0.1368 0.1345 0.20027 0.45412 0.058706 
0.18415 0.030592 0.12316 0.039141 0.088794 0.10589 0.24186 0.16442 
0.14765 0.066763 0.10162 0.0082312 -0.016595 -0.089924 -0.17986 0.159 
0.011026 0.069064 0.092904 0.040785 -0.12873 -0.21718 -0.33835 0.39493 
-0.18282 -0.096829 0.01974 -0.00081153 -0.12527 -0.15059 -0.16325 0.64024 
-0.26453 -0.21636 -0.032543 0.0051074 -0.032708 0.041114 0.30039 0.097672 
-0.023994 -0.015773 0.054103 0.07038 0.066598 0.22592 0.5189 -0.48567 
0.13549 0.068407 0.065612 0.046046 0.13236 0.30286 0.46629 -0.60848 
0.066927 -0.14632 -0.075455 -0.028104 0.074161 0.20257 0.34955 -0.24793 
-0.037805 -0.30366 -0.14566 -0.044381 -0.041422 -0.030242 -0.045861 0.089287 
-0.087129 -0.24743 -0.15092 -0.11607 -0.098309 -0.29429 -0.53335 0.24548 
-0.15322 -0.1108 -0.11294 -0.11064 -0.096665 -0.33408 -0.46084 0.1659 
-0.14336 0.048841 0.0036276 -0.018404 -0.00064712 -0.20584 -0.13892 -0.046519 
-0.13875 0.089945 0.086657 0.01152 0.066434 -0.08384 -0.24118 -0.23938 
-0.071509 0.10606 0.11526 0.032729 0.080573 0.046704 -0.12018 -0.011005 
0.23446 0.28116 0.15801 0.14404 0.10326 0.21687 0.22493 0.40282 
0.49407 0.37422 0.22296 0.15259 0.048184 0.27343 0.33525 0.44755 
0.5166 0.34314 0.21276 0.13121 -0.0044286 0.28379 0.33328 0.13943 
0.28773 0.22394 0.15653 0.098823 -0.038298 0.22838 0.27803 -0.37946 
-0.182 -0.10406 0.034209 0.020069 -0.029913 0.14437 0.12809 -0.64219 
-0.40757 -0.23444 -0.0021268 0.02681 0.013657 0.072024 0.021384 -0.37124 
-0.22047 -0.072496 0.017274 0.042758 0.047362 -0.013471 -0.028926 0.15407 
0.085999 0.12283 0.051472 0.014315 0.041114 -0.11968 -0.055561 0.47648 
0.19829 0.14174 0.071366 0.0026412 0.05624 -0.23198 -0.011827 0.51824 
0.11148 0.039963 0.027303 0.03388 0.10935 -0.24661 -0.027118 0.15555 
0.015301 -0.003771 0.048348 0.029441 0.21161 0.0065871 0.084519 -0.12429 
0.012177 0.017932 0.1031 0.060186 0.26521 0.20569 0.16064 -0.10291 
0.084848 0.054432 0.10852 0.10803 0.18119 0.24038 0.053938 -0.087951 
0.088136 0.12135 0.10178 0.095371 0.063145 0.19649 -0.083183 -0.31155 
-0.083347 0.10293 0.06183 0.078436 -0.022843 0.097837 -0.16194 -0.29643 
-0.20436 -0.11787 -0.045203 0.00050378 -0.17246 -0.075291 -0.23428 -0.060165 
-0.076935 -0.098473 -0.12741 -0.087293 -0.24283 -0.15848 0.016288 0.2218 
0.18711 0.15982 -0.05589 -0.10883 -0.2111 -0.16424 0.35531 0.43439 
0.31963 0.41614 0.035195 -0.033365 -0.097158 -0.19252 -0.066741 0.28543 
0.07597 0.22164 0.028947 -0.01528 -0.0021268 -0.24891 -0.77438 -0.24941 
-0.17805 -0.058192 -0.027775 -0.0098543 0.031249 -0.11639 -0.47038 -0.087293 
-0.15059 -0.097158 -0.020377 0.048677 0.070215 0.11543 0.15028 0.54356 
0.073997 0.073175 0.11346 0.046046 0.10228 0.24532 0.47467 0.6991 
0.29119 0.25715 0.21901 0.11231 0.13861 0.24236 0.45264 0.45774 
0.27968 0.31634 0.20947 0.21046 0.093562 0.09422 0.20158 -0.10505 
0.12135 0.31026 0.15226 0.19237 0.029276 -0.087786 -0.13892 -0.66192 
0.061172 0.080573 -0.029584 0.077449 -0.0072237 -0.12281 -0.33868 -0.6634 
0.028619 -0.19926 -0.21669 -0.084005 0.027303 -0.059672 -0.23625 -0.40774 
-0.094199 -0.28147 -0.26091 -0.17328 0.077778 0.080244 0.048841 -0.14352 
-0.15405 -0.19909 -0.12379 -0.1136 0.21621 0.24005 0.30549 0.14305 
-0.064275 -0.026624 0.023851 0.035031 0.23348 0.27014 0.32835 0.30911 
-0.0503 0.06479 0.12398 0.11165 0.16245 0.21112 0.20388 0.25798 
-0.088115 0.1562 0.13812 0.14519 0.037332 0.079422 -0.018404 0.11214 
-0.0027845 0.2537 0.11625 0.147 -0.060494 -0.12642 -0.22326 -0.0014692 
0.10622 0.32851 0.12431 0.15242 -0.11903 -0.19252 -0.194 0.063639 
0.08715 0.19205 0.072517 0.11806 -0.12692 -0.1501 -0.06855 0.12381 
0.024508 0.075148 0.0079024 0.10672 -0.076442 -0.004593 0.073339 0.16771 
0.14289 0.030427 0.019905 0.085341 0.031578 0.13532 0.22378 0.070215 
0.23562 -0.009361 0.038648 0.085999 0.10606 0.22296 0.3775 -0.11755 
0.21605 -0.01528 0.042429 0.084684 0.12118 0.20092 0.36517 -0.36926 
-0.037805 -0.079237 -0.016595 0.035853 0.034537 0.018096 -0.07825 -0.4153 
-0.30415 -0.15306 -0.076442 -0.013965 -0.057699 -0.17361 -0.6315 -0.01676 
-0.34312 -0.17131 -0.1381 -0.039613 -0.070359 -0.23346 -0.66734 0.71817 
-0.24283 -0.11442 -0.13464 -0.063618 0.015959 -0.21208 -0.4684 0.82192 
-0.047176 -0.047669 -0.087293 -0.046025 0.10195 0.018589 0.08715 0.34775 
0.18777 0.077121 -0.01117 0.0062583 0.14453 0.23216 0.53271 -0.039942 
0.24614 0.14815 0.090274 0.07301 0.083533 0.21079 0.55557 -0.20057 
0.16114 0.16475 0.13861 0.12628 0.01974 0.13335 0.28708 -0.24464 
0.072517 0.10047 0.11642 0.16081 -0.019719 0.050157 -0.028597 -0.22688 
0.013986 -0.0004827 0.086821 0.14223 -0.026624 0.0075736 -0.12494 -0.1473 
0.013986 0.027303 0.079916 0.13039 -0.018239 -0.036818 -0.12083 -0.011498 
0.08978 0.12069 0.10869 0.14223 -0.024652 -0.049642 -0.080059 0.12431 
0.1197 0.15505 0.098494 0.12464 -0.049807 -0.03057 0.0037921 0.20405 
0.058706 0.036675 0.039963 0.084848 -0.016431 0.02681 0.10951 0.19846 
-0.095843 -0.12379 -0.05885 0.037004 -0.015444 0.032893 0.11642 0.082546 
-0.20715 -0.1746 -0.044381 0.015301 0.018918 0.017767 0.061172 -0.070523 
-0.16753 -0.091404 -0.041751 0.011355 -0.019061 -0.011663 0.046375 -0.13727 
0.0070803 0.053281 -0.016924 0.019083 -0.014787 0.0059294 -0.025145 -0.19696 
0.19336 0.21605 0.047691 0.072517 0.032564 0.025988 -0.058685 0.031414 
0.20142 0.1904 0.12316 0.12266 0.1008 0.11674 0.17971 0.26653 
0.17955 0.087972 0.099481 0.1442 0.10556 0.11773 0.29744 0.23578 
0.052294 -0.097816 0.0028056 0.080738 0.039799 0.012342 0.14897 -0.076277 
-0.13382 -0.18791 -0.034845 0.032236 -0.040106 -0.018568 0.16459 -0.16605 
-0.19581 -0.070194 -0.010676 0.031578 -0.0067304 0.025495 0.082382 -0.22211 
-0.1741 0.043909 0.031742 0.06183 0.058871 0.040128 -0.25352 -0.32175 
-0.065097 0.10228 0.091425 0.099974 0.095371 0.080573 -0.52628 -0.028762 
0.071859 0.11872 0.095535 0.12628 0.073504 0.035688 -0.35874 0.44804 
0.23282 0.21769 0.060186 0.12858 -0.012978 -0.068221 -0.03616 0.57447 
0.26554 0.32719 0.080573 0.12414 -0.070687 -0.10571 0.26603 0.32045 
0.10129 0.23825 0.077614 0.12036 -0.053588 -0.080059 0.29185 0.034044 
0.023851 0.1322 0.064461 0.11313 -0.058192 -0.053588 0.21243 -0.10061 
0.051965 0.058213 0.078107 0.10754 -0.044874 -0.026624 0.13532 -0.12297 
0.095864 0.053281 0.050321 0.099645 -0.014951 0.00083261 -0.078579 -0.18956 
0.0051074 -0.0011404 -0.021034 0.076299 0.0036276 0.0037921 -0.33227 -0.26749 
-0.16802 -0.11459 -0.11804 -0.015116 0.045882 -0.0054151 -0.32027 -0.25861 
-0.10357 -0.070687 -0.13053 -0.059343 0.064625 0.03799 0.024179 0.056569 
0.045882 0.13187 0.031742 0.029605 0.052294 0.063639 0.32802 0.3147 
0.18202 0.2953 0.20355 0.15834 0.061666 0.12085 0.28823 0.2537 
0.21523 0.30664 0.24022 0.22411 0.10918 0.14831 0.1807 0.060679 
0.11674 0.13253 0.10688 0.20257 0.11905 0.12168 0.097837 -0.079895 
0.030756 -0.025145 0.052623 0.13171 0.10589 0.069393 0.067091 -0.11113 
-0.041257 -0.13432 0.021384 0.087479 0.041114 0.023522 0.053774 0.051472 
-0.097158 -0.20551 -0.039613 0.034044 -0.011663 -0.004593 0.060679 0.23726 
-0.071181 -0.083347 -0.010348 0.023193 -0.065426 -0.010841 0.071366 0.11165 
0.042758 0.13072 0.082546 0.080409 -0.081539 -0.047176 0.06035 -0.072825 
0.15719 0.3119 0.14979 0.17971 -0.037476 -0.094199 0.026152 -0.15733 
0.048019 0.22065 0.14042 0.18383 0.0075736 -0.078415 -0.010676 -0.13136 
0.076463 0.068078 0.063968 0.13368 0.028125 -0.03912 -0.1085 0.036017 
0.3923 0.17922 0.03799 0.1008 0.031414 0.013492 -0.11228 0.28741 
0.4385 0.11362 -0.064933 0.011355 0.078765 0.12085 0.055747 0.31421 
-0.071838 -0.36121 -0.3571 -0.20123 0.1271 0.12497 0.15768 0.0032988 
-0.48172 -0.45311 -0.33704 -0.23083 0.15028 0.13384 0.09981 -0.32586 
-0.49455 -0.14763 -0.021199 -0.066248 0.17544 0.16245 -0.044381 -0.28015 
-0.43125 -0.019719 0.19895 0.12414 0.18761 0.18662 -0.20863 -0.13382 
-0.35266 -0.020048 0.1858 0.17363 0.097344 0.10852 -0.19285 0.033058 
-0.10982 -0.01676 0.14749 0.16853 -0.024158 -0.0042642 0.10819 0.31815 
0.11247 -0.059836 0.071695 0.11329 -0.097322 -0.008539 0.47632 0.32966 
0.24285 0.021384 -0.021856 0.067091 -0.11442 -0.015609 0.52548 0.25683 
0.25173 0.0056006 -0.031228 0.0324 -0.10143 0.00033937 0.31585 0.25485 
0.27343 0.0039565 -0.044381 0.01711 -0.021363 0.03651 0.074654 0.11526 
0.19007 -0.0031133 -0.071674 -0.012649 0.043745 0.012835 -0.31731 -0.19137 
0.038648 -0.028926 -0.056712 -0.018239 0.01267 -0.056219 -0.67688 -0.46479 
-0.094034 -0.072989 -0.02235 -0.006566 -0.0014692 -0.090581 -0.39343 -0.33342 
-0.11837 0.016123 0.052623 0.066105 0.061995 -0.030899 0.016945 0.061501 
-0.04471 0.14239 0.072846 0.10869 0.13993 0.070873 0.047691 0.24153 
0.0072447 0.1391 0.05213 0.10425 0.14009 0.090767 0.050486 0.25025 
0.10869 0.159 0.11822 0.13878 0.087314 0.053774 0.20109 0.24992 
0.14371 0.17692 0.1248 0.15703 0.029934 0.068242 0.36797 0.27195 
0.19895 0.13549 0.10737 0.13812 0.017767 0.058871 0.32736 0.18826 
0.10721 0.027961 0.06479 0.11214 0.036346 0.0079024 0.14321 -0.02646 
-0.10324 -0.14434 -0.056055 0.056404 0.020069 -0.080552 -0.12544 -0.14977 
-0.12511 -0.13596 -0.073482 0.0054362 0.061501 -0.065919 -0.18183 -0.018404 
0.041278 0.075312 0.01152 0.042429 0.070544 0.0062583 -0.19515 0.13861 
0.11642 0.27392 0.075805 0.093069 0.051636 0.031414 -0.07003 0.32884 
0.17758 0.27327 0.072846 0.096193 0.0092177 0.071695 0.37537 0.34396 
0.14585 0.07038 0.011355 0.063474 -0.048327 0.11822 0.47763 -0.16161 
0.12053 -0.038133 -0.0098543 0.057062 -0.057863 0.078436 0.10819 -0.59681 
0.10244 0.060679 0.055911 0.086985 0.023686 0.071037 -0.28475 -0.60421 
-0.021528 0.1368 0.1419 0.1493 0.050321 0.01711 -0.44802 -0.17246 
-0.13793 0.087479 0.11954 0.15571 0.060515 -0.019061 -0.072496 0.2098 
-0.061973 0.029769 0.047691 0.10162 0.067256 0.041443 0.48158 0.52811 
0.092247 -0.009361 -0.0031133 0.055089 0.081067 0.029276 0.50049 0.62692 
0.10458 0.011191 -0.0070593 0.072681 0.040456 -0.10324 0.062488 0.1493 
0.083533 0.058871 0.060844 0.089452 -0.03501 -0.24299 -0.50474 -0.27982 
0.1248 0.049664 0.073175 0.1054 -0.003771 -0.26502 -0.70598 -0.073318 
0.16788 -0.020706 0.061501 0.10458 0.053609 -0.03616 -0.2402 0.36879 
0.068407 -0.1062 -0.011992 0.045389 -0.0055795 0.1008 0.26636 0.30105 
0.084355 0.12842 -0.034845 0.0011614 -0.073647 0.095535 0.32029 -0.17427 
0.23693 0.5434 -0.02235 0.044896 -0.047998 0.052952 0.12529 -0.48649 
0.040456 0.56198 0.090109 0.10211 -0.0057439 0.058213 0.011191 -0.43947 
-0.19202 0.33657 0.14749 0.15916 0.085341 0.0421 0.054103 -0.32405 
-0.095678 0.14354 0.10803 0.15456 0.16426 0.08156 0.14585 0.040621 
0.071366 0.054267 0.072353 0.12316 0.16492 0.14552 0.20372 0.39674 
0.12595 0.039634 0.098001 0.12562 0.079258 0.15242 0.20191 0.49259 
0.1276 -0.023829 0.11033 0.16146 -0.013965 0.069558 0.12825 0.20388 
0.01267 -0.067235 0.11165 0.15555 -0.030735 0.0064227 -0.0064016 -0.0067304 
-0.041915 -0.052109 0.12529 0.16327 -0.012485 -0.039449 0.073339 -0.052109 
-0.012814 0.10474 0.13713 0.17166 0.017603 0.0083956 0.23068 -0.034845 
0.081724 0.19106 0.13351 0.19139 0.069229 -0.033694 -0.080552 -0.21833 
0.18646 0.18514 0.14552 0.17725 0.0092177 -0.12971 -0.46512 -0.20452 
0.22131 0.15045 0.12201 0.16393 -0.013636 -0.13004 -0.32915 0.20668 
0.15012 0.079094 -0.0004827 0.092576 0.010697 -0.027611 -0.060987 0.31125 
-0.0021268 -0.05589 -0.085813 0.012999 0.018918 0.045718 0.07301 0.24449 
-0.06707 -0.12577 -0.10719 -0.034516 0.044731 0.10178 0.21737 0.21704 
-0.1501 -0.16325 -0.099624 -0.047341 0.056404 0.12431 0.30122 -0.077593 
-0.18265 -0.2037 -0.083512 -0.056219 0.032071 0.079422 0.19139 -0.33079 
-0.12198 -0.22787 -0.088608 -0.045861 0.032564 0.064296 0.058542 -0.22885 
-0.072167 -0.21356 -0.10308 -0.045696 -0.017746 0.013986 -0.10719 -0.13284 
-0.030899 -0.17427 -0.11048 -0.062631 -0.078908 -0.062302 -0.22425 -0.047176 
-0.010348 -0.16177 -0.12198 -0.070523 -0.098309 -0.015938 -0.11261 0.00050378 
-0.018075 -0.17673 -0.10045 -0.057534 -0.01528 0.057391 0.052952 0.05624 
-0.011498 -0.10078 -0.026296 -0.012156 0.067091 0.14486 0.14157 0.054432 
0.053938 -0.021528 0.05772 0.056569 0.10096 0.18054 0.17758 0.10392 
0.17643 0.16722 0.13845 0.16064 0.11362 0.13828 0.23479 0.16146 
0.25452 0.34906 0.19205 0.20471 0.1003 0.1151 0.33328 0.15012 
0.1664 0.19632 0.049335 0.13023 0.081231 0.08863 0.29037 0.0087245 
-0.046847 -0.14007 -0.19597 -0.051287 0.036675 -0.0039354 -0.0036066 -0.16868 
-0.075949 -0.093212 -0.17575 -0.10867 -0.0078813 -0.075949 -0.4393 -0.23642 
0.018096 0.080244 -0.029913 -0.035667 0.021713 -0.03764 -0.54732 -0.040106 
-0.047012 -0.025967 -0.038133 0.017932 0.035524 0.056733 -0.020706 0.4847 
-0.17805 -0.15898 -0.053588 -0.0004827 -0.0022913 0.1008 0.47961 0.55014 
-0.28541 -0.25352 -0.034845 0.0016547 -0.074962 0.0013258 0.25107 0.0013258 
-0.23198 -0.16342 0.0090533 0.027961 -0.097487 -0.07825 -0.18676 -0.45854 
-0.081703 -0.03353 0.074983 0.073832 -0.075127 -0.1187 -0.43059 -0.42434 
0.032564 0.086328 0.1008 0.10803 -0.052602 -0.12231 -0.46166 -0.34592 
0.090603 0.12973 0.057227 0.1299 -0.011827 -0.038627 -0.10653 0.054432 
0.16278 0.20767 0.072681 0.12365 0.048841 0.11296 0.30746 0.54866 
0.2468 0.24367 0.10228 0.14141 0.093562 0.1761 0.46349 0.66786 
0.32933 0.23989 0.080409 0.12677 0.069393 0.11822 0.34446 0.37619 
0.25633 0.074654 -0.021856 0.053774 0.059693 0.054267 0.041443 -0.084498 
0.18974 0.0095465 -0.047012 0.013821 0.092576 0.03092 -0.13547 -0.18249 
0.12677 -0.024323 -0.027282 0.03947 0.082711 -0.010348 -0.157 -0.0965 
-0.0036066 -0.08121 0.0082312 0.047033 0.1368 0.021056 -0.09798 -0.040764 
-0.07973 -0.073318 -0.064604 0.0065871 0.13401 0.13762 -0.011663 -0.035996 
-0.08384 -0.047176 -0.13053 -0.054575 0.071037 0.15653 0.023522 -0.014293 
-0.014787 0.08304 -0.072003 -0.048163 -0.01939 0.10244 0.066269 -0.091239 
0.013328 0.19928 0.047526 0.031085 -0.054904 0.048348 0.15883 -0.11048 
0.032564 0.20388 0.072188 0.099152 -0.080881 -0.02942 0.23742 -0.040764 
0.10277 0.19583 0.080573 0.11181 -0.071674 -0.016431 0.24252 0.10376 
0.13335 0.23266 0.11888 0.14585 -0.073154 -0.056712 0.11724 0.16969 
0.1248 0.27803 0.098659 0.14256 -0.032708 -0.085813 -0.040764 0.19944 
0.07301 0.1562 0.082382 0.12349 0.054925 -0.05441 -0.0052507 0.28198 
0.11773 0.13088 0.097344 0.12316 0.090438 0.0065871 -0.0075525 0.37323 
0.17626 0.21276 0.14371 0.17445 0.058377 -0.052931 -0.08384 0.06331 
0.039634 0.26554 0.13467 0.17955 -0.012649 -0.14878 -0.2665 -0.41382 
-0.12198 0.13203 0.11724 0.1659 -0.025967 -0.069372 -0.24562 -0.41809 
-0.14303 0.027961 0.069886 0.13253 0.05772 0.088794 -0.11048 -0.25335 
-0.042408 0.057884 0.10852 0.14157 0.073668 0.094548 -0.17427 0.12562 
0.072681 0.13861 0.17166 0.17971 0.067256 0.050979 -0.03616 0.66572 
0.12809 0.18383 0.17396 0.21013 0.051965 -0.024158 0.1955 0.64665 
0.090767 0.17478 0.14321 0.20421 0.0019835 -0.025802 0.19796 -0.041422 
0.048513 0.17922 0.11592 0.17922 0.042923 -0.01676 0.22098 -0.36499 
0.11674 0.16245 0.10803 0.16196 0.065776 0.050157 0.27277 -0.18759 
0.25502 0.30862 0.21967 0.22328 0.1003 0.11921 0.23874 0.10047 
0.31569 0.39049 0.29957 0.28445 0.074326 0.13384 0.15489 0.27623 
0.25156 0.23742 0.20487 0.25255 -0.01676 0.041772 -0.042737 0.18448 
0.12644 0.023851 0.039141 0.16196 -0.067892 -0.13382 -0.42779 -0.072167 
-0.035338 -0.10209 -0.049314 0.058706 -0.034352 -0.1233 -0.32652 -0.31155 
-0.28771 -0.18479 -0.071838 0.0079024 0.021713 0.045718 0.19829 -0.35266 
-0.29478 -0.1182 -0.059507 -0.0019624 0.078107 0.17018 0.46103 -0.051287 
-0.057534 0.0092177 -0.031886 -0.0026201 0.18481 0.17117 0.34972 0.21079 
0.019411 -0.023994 0.031907 0.042758 0.2001 0.12381 0.1978 0.17182 
-0.032708 -0.021363 0.094384 0.12973 0.2001 0.15456 0.079422 0.087643 
-0.024158 -0.00015387 0.17396 0.18267 0.15604 0.11083 -0.065591 0.031578 
0.0031344 0.0069159 0.12677 0.16771 0.05624 0.0056006 -0.16966 0.024508 
-0.031392 -0.036983 0.040785 0.11017 -0.017582 -0.05178 -0.26733 -0.029091 
-0.035996 -0.028762 0.0013258 0.059364 0.0019835 -0.019555 -0.2106 -0.018239 
0.047526 0.033222 0.038977 0.064954 0.029769 0.03092 -0.028926 0.025824 
0.15012 0.16048 0.085835 0.13368 -0.011827 -0.0087034 0.066598 0.021549 
0.12743 0.23085 0.12381 0.15226 -0.03912 -0.046519 0.13187 -0.024487 
0.089616 0.2103 0.1391 0.17182 -0.029255 -0.020541 0.21983 0.022371 
0.16475 0.23315 0.1738 0.19451 0.014315 0.029769 0.22328 0.20027 
0.1733 0.13072 0.1299 0.16985 0.018589 0.0227 0.13434 0.33492 
0.0041209 -0.15076 -0.019061 0.064461 0.0041209 0.0047785 0.15111 0.28642 
-0.15881 -0.37551 -0.16802 -0.032379 -0.023172 0.01152 0.15259 0.049992 
-0.18134 -0.32454 -0.14122 -0.06707 0.0021479 0.017767 0.06183 -0.20419 
-0.023007 -0.031886 -0.014787 -0.0019624 0.03651 0.065612 0.049006 -0.35036 
0.007738 -0.0070593 -0.047998 -0.0059084 0.033387 0.099481 -0.13629 -0.2744 
-0.14221 -0.20518 -0.20057 -0.10472 0.065612 0.073832 -0.24842 -0.28969 
-0.29002 -0.32997 -0.17756 -0.13563 0.085835 0.041772 -0.17049 -0.15684 
-0.35578 -0.26519 -0.051451 -0.029584 0.07597 -0.046025 -0.16555 0.082217 
-0.14944 -0.036325 0.12381 0.093069 0.059364 -0.064604 -0.05737 0.26866 
0.15094 0.2902 0.25617 0.21326 0.067585 0.034209 0.2029 0.37109 
0.30714 0.37635 0.2218 0.24269 0.045389 0.13861 0.31963 0.30648 
0.15653 0.13746 0.030098 0.12644 -0.0062372 0.074654 0.26389 0.01004 
0.037332 -0.021034 -0.10916 -0.0072237 -0.024652 0.0082312 0.06479 -0.18956 
0.055254 -0.0026201 -0.10637 -0.024323 0.00099702 0.063968 -0.037805 -0.021528 
0.0080668 -0.011663 -0.030406 0.0034632 0.053938 0.13615 0.01415 0.15308 
0.048513 0.032236 0.0014903 0.02829 0.048348 0.10145 0.091425 0.20503 
0.13532 0.14108 0.052294 0.067585 0.036346 0.06479 0.15012 0.13335 
0.10014 0.15341 0.053281 0.077121 -0.0050863 0.025001 0.04917 0.043251 
0.045718 0.19073 0.08715 0.096521 -0.063289 -0.067399 -0.17295 -0.071345 
0.025495 0.028783 -0.0016336 0.062323 -0.10735 -0.15191 -0.27752 -0.13497 
-0.057863 -0.31681 -0.20403 -0.074304 -0.086636 -0.12281 -0.13629 -0.21685 
-0.11343 -0.46249 -0.33967 -0.20912 -0.036818 -0.071509 0.010697 -0.23757 
-0.066084 -0.33589 -0.25763 -0.20255 0.044731 -0.026789 -0.0004827 -0.16079 
-0.19318 -0.23494 -0.077428 -0.096665 0.047197 -0.027775 0.030098 0.069393 
-0.33145 -0.11311 0.047526 -0.0042642 0.025659 0.015137 0.14174 0.21769 
-0.18446 0.10047 0.098823 0.083862 0.040292 0.087808 0.15308 0.23907 
0.10655 0.26011 0.076299 0.11576 0.051965 0.1225 0.12727 0.3364 
0.30845 0.31157 0.08863 0.12497 0.064296 0.11198 0.12053 0.34364 
0.29448 0.23381 0.042923 0.095864 0.053116 0.060515 0.097344 0.1904 
0.11411 0.10376 -0.0075525 0.055911 0.014315 -0.01232 -0.011334 -0.066248 
-0.036983 0.023357 -0.019226 0.025659 0.019083 -0.055561 -0.15733 -0.2134 
0.0324 0.071859 0.033387 0.055254 0.10474 -0.023172 -0.059836 -0.22376 
0.1807 0.20306 0.055089 0.10984 0.1493 0.073997 0.14157 -0.070194 
0.22345 0.14075 0.055418 0.095206 0.11214 0.092082 0.17544 0.08567 
0.022371 -0.045039 -0.035667 0.032236 -0.022021 0.060022 0.043416 0.042429 
-0.23247 -0.11787 -0.061973 -0.010348 -0.10472 -0.052602 -0.20041 -0.15881 
-0.21685 -0.080717 -0.0062372 0.0093821 -0.19992 -0.18463 -0.4467 -0.26486 
0.01415 -0.051451 0.049006 0.052294 -0.16227 -0.17147 -0.15174 0.025824 
0.13828 -0.059836 -0.029091 0.060844 -0.064275 -0.038462 0.22756 0.36337 
0.11757 -0.064604 -0.10324 -0.010183 0.02122 0.022371 0.26209 0.42173 
0.081067 -0.03912 -0.12494 -0.050793 0.058213 0.029276 0.11674 0.4288 
-0.0014692 0.0092177 -0.043559 -0.024323 0.048841 -0.034681 -0.07266 0.29069 
-0.03616 0.14979 0.064132 0.040292 0.062488 0.021549 0.010697 0.041443 
0.13417 0.29596 0.10836 0.10162 0.14601 0.14749 0.15209 -0.11886 
0.11576 0.26636 0.083697 0.14141 0.24038 0.20898 0.12316 -0.47547 
-0.028597 0.20323 0.10737 0.14848 0.15768 0.1904 0.085835 -0.59615 
0.0026412 0.23989 0.097672 0.14124 0.091918 0.14206 0.12036 0.012177 
0.12332 0.2006 0.10293 0.13993 0.047855 0.083368 0.068242 0.56181 
0.10047 0.081724 0.064625 0.10113 0.060186 0.031085 -0.0059084 0.33706 
0.052623 0.013328 0.057227 0.089945 0.053774 -0.0016336 -0.097322 -0.10078 
-0.061973 0.0080668 0.011355 0.088958 0.031085 -0.069372 -0.36203 -0.56311 
-0.19515 -0.089759 -0.038298 0.024508 -0.0055795 -0.17706 -0.53828 -0.66948 
-0.095514 -0.10143 -0.0091966 0.030592 -0.0868 -0.18528 -0.07825 -0.026789 
0.10359 -0.038791 -0.0070593 0.035031 -0.099295 -0.097651 0.38211 0.52268 
0.23381 0.034537 -0.029913 0.015301 -0.015444 0.025988 0.45264 0.54439 
0.24959 0.12694 0.053774 0.059857 0.033222 0.088136 0.33048 0.24417 
0.15292 0.12809 0.10096 0.13171 0.061337 0.076956 0.22131 0.063803 
0.0421 0.10836 0.12924 0.15637 0.073504 0.17577 0.31125 0.13631 
0.034209 0.1835 0.16508 0.18826 0.091096 0.20175 0.19385 0.1197 
0.053609 0.21852 0.12727 0.1733 0.04917 0.010697 -0.38718 0.081395 
0.070544 0.16969 0.080573 0.13828 0.0227 -0.048492 -0.4906 0.20734 
0.03536 0.11148 0.074654 0.11576 0.045224 0.0072447 -0.16029 0.033551 
0.043087 0.095699 0.088794 0.14321 0.069393 0.061995 0.051308 -0.1575 
0.13434 0.17314 0.10556 0.15012 0.072846 0.079094 0.2126 -0.24414 
0.13319 0.27343 0.16426 0.18744 0.098823 0.085835 0.11707 -0.291 
0.099974 0.37504 0.23742 0.24219 0.051308 0.0064227 -0.068714 -0.14763 
0.13878 0.38063 0.25058 0.26389 -0.082854 -0.042079 -0.10867 0.26833 
0.093233 0.2126 0.15357 0.2029 -0.11705 -0.10883 -0.11196 0.53321 
-0.030735 -0.22293 -0.14369 0.021878 -0.15125 -0.17789 -0.059672 0.092904 
-0.12462 -0.47383 -0.30925 -0.15174 -0.12018 -0.18232 0.12661 -0.35151 
-0.047998 -0.2642 -0.1866 -0.13678 -0.019226 -0.076606 0.10803 -0.18989 
0.11691 -0.023336 -0.027447 -0.038462 0.080902 0.057555 -0.077428 0.2754 
0.093726 0.011684 0.027796 0.026317 0.13467 0.14124 -0.06444 0.44853 
-0.01939 0.065447 0.12069 0.094548 0.15653 0.16541 0.061501 0.42683 
-0.095514 0.083204 0.14387 0.15637 0.17791 0.22164 0.19616 0.15094 
-0.20962 -0.080881 0.064296 0.13976 0.13286 0.24647 0.21589 -0.27275 
-0.25878 -0.22507 0.0090533 0.080902 0.03651 0.14502 0.1299 -0.54716 
-0.023336 -0.13629 0.027468 0.073504 0.066598 0.084848 0.081395 -0.2573 
0.20125 0.11346 0.090438 0.11313 0.10047 0.070215 0.085506 0.062488 
0.2657 0.30352 0.14946 0.15226 0.06479 0.015465 -0.0052507 0.14338 
0.18958 0.32128 0.17643 0.18399 -0.012978 -0.054904 -0.13991 0.09274 
0.093891 0.26998 0.11839 0.19731 -0.05885 -0.10028 -0.1524 0.039799 
0.089452 0.1904 0.082053 0.1544 -0.021856 -0.063453 -0.0091966 0.029605 
0.034702 0.11494 0.10211 0.14831 0.020069 0.018096 0.11395 0.0088889 
0.017767 0.017274 0.015959 0.09274 0.045389 0.14223 0.1544 0.098988 
0.049335 -0.089759 -0.03912 0.027139 0.072188 0.16327 0.12135 0.30138 
0.06331 -0.16884 -0.06444 -0.01939 0.010862 0.070708 0.061172 0.58105 
0.048184 -0.19153 -0.13201 -0.030406 -0.029584 0.041443 -0.010348 0.4122 
-0.0070593 -0.20123 -0.15289 -0.076277 -0.060823 -0.043395 1.0539e-005 -0.01232 
-0.026789 -0.20025 -0.083183 -0.05589 -0.088444 -0.09946 0.1659 -0.31468 
0.018096 -0.094527 0.0074092 0.010533 -0.06444 -0.098309 0.19862 -0.41382 
0.040456 -0.033694 0.083204 0.07301 0.016452 -0.068386 0.18136 -0.35348 
-0.0021268 0.018096 0.098823 0.10787 0.086821 0.065447 0.33015 -0.22162 
-0.109 0.12184 0.022535 0.11263 0.13384 0.17034 0.13845 -0.19827 
-0.20041 0.16558 0.04917 0.1008 0.13516 0.076463 -0.2841 -0.062467 
-0.2231 0.034537 0.012506 0.067913 0.007738 -0.15306 -0.69118 0.18794 
-0.10275 -0.021692 -0.050464 0.014808 -0.056877 -0.21899 -0.45196 0.2708 
0.12743 0.023851 -0.063453 -0.0088678 -0.013143 0.044238 0.22246 0.21243 
0.30122 0.12316 0.031578 0.040456 0.099974 0.17396 0.15423 0.19879 
0.29119 0.14239 0.10244 0.13565 0.16853 0.24811 0.085835 0.2218 
0.04506 0.0074092 0.10326 0.14009 0.15176 0.20191 0.23298 -0.025309 
-0.069372 0.049828 0.073339 0.12036 0.060515 0.066434 0.15522 -0.26091 
0.17692 0.31026 0.1294 0.14848 -0.027775 -0.090417 -0.072003 -0.25023 
0.1909 0.25156 0.093398 0.1276 -0.12725 -0.16868 -0.13711 -0.16884 
-0.089266 -0.23494 -0.13382 -0.022185 -0.10752 -0.091239 -0.07266 -0.011498 
-0.19087 -0.41333 -0.24217 -0.10784 0.046868 0.08419 0.076627 0.28445 
0.031578 -0.14599 -0.073647 -0.048985 0.18843 0.25584 0.2371 0.33032 
0.08008 0.054267 0.09422 0.072024 0.23298 0.3655 0.47714 0.036017 
-0.060165 0.065118 0.12414 0.11921 0.081889 0.26143 0.59914 -0.39195 
-0.23806 0.010369 0.075312 0.1003 -0.092719 -0.014458 0.28741 -0.77356 
-0.23395 -0.017911 0.0098754 0.053774 -0.12725 -0.19827 -0.26404 -0.18068 
0.061501 0.023522 -0.012485 0.048677 -0.10752 -0.27505 -0.73097 0.86861 
0.27984 0.11559 -0.0087034 0.042265 -0.10669 -0.25878 -0.49422 1.0026 
0.29086 0.20882 0.038977 0.070051 -0.0965 -0.1113 0.13203 0.08715 
0.19172 0.25239 0.11888 0.1299 -0.02942 0.0087245 0.29201 -0.61687 
0.067256 0.22476 0.13121 0.15456 0.03092 0.027961 0.01711 -0.66685 
0.0016547 0.17067 0.11181 0.1419 0.028619 -0.042408 -0.32208 -0.37584 
-0.05885 0.061172 0.042265 0.11017 0.053609 -0.047012 -0.29692 0.07301 
0.03388 0.10655 0.020398 0.099316 0.11658 0.058706 0.19024 0.47747 
0.19977 0.23825 0.11954 0.14009 0.11658 0.071695 0.30911 0.46481 
0.1904 0.21375 0.13138 0.15851 0.037332 -0.0011404 0.10162 0.27228 
0.057062 0.036017 0.02829 0.1031 -0.047998 -0.052931 -0.089759 0.033551 
0.08863 0.047033 -0.0088678 0.047362 -0.052931 -0.064111 -0.081374 -0.080059 
0.21704 0.13368 0.031578 0.066763 -0.0042642 -0.011663 0.031414 0.0085601 
0.10787 0.14404 0.091753 0.13993 0.0019835 -0.012485 0.07038 0.1105 
-0.014622 0.2075 0.18004 0.19698 0.044238 0.067749 0.12743 0.073832 
-0.033201 0.25929 0.19846 0.22312 0.084848 0.091753 0.16064 -0.065591 
-0.094034 0.040785 0.078765 0.15966 0.10195 0.16344 0.23808 -0.092061 
-0.16013 -0.19581 -0.078579 0.024837 0.073832 0.11198 0.052623 -0.16621 
0.08863 -0.083183 -0.10439 -0.035174 0.015794 -0.014129 -0.19235 -0.098638 
0.22016 0.010862 -0.076935 -0.0022913 -0.014458 -0.063946 -0.26831 0.049499 
0.0031344 -0.054575 -0.054575 -0.0075525 -0.039942 -0.044217 -0.14056 0.28658 
-0.10324 -0.10423 -0.017088 0.0079024 -0.003771 -0.029091 -0.072167 0.48503 
-0.080223 -0.072332 0.0018191 0.030756 0.00083261 -0.11755 -0.17262 0.34084 
-0.037476 -0.02498 0.036182 0.050157 -0.030899 -0.14747 -0.038791 0.048019 
0.017603 0.0080668 0.073504 0.084355 -0.012156 -0.0021268 0.33443 -0.16818 
-0.034681 -0.0080457 0.012835 0.090931 0.060186 0.091753 0.45626 -0.43651 
-0.10357 0.050157 -0.063946 0.025001 0.10047 0.12151 0.26357 -0.6047 
-0.10834 0.083204 0.015959 0.048184 0.085506 0.085506 0.0016547 -0.32109 
0.043909 0.11937 0.089945 0.094877 0.025001 0.076792 -0.27834 0.15916 
0.1636 0.064461 0.13187 0.13598 0.017438 0.10951 -0.23395 0.61492 
0.33098 0.10721 0.10507 0.1248 0.048677 0.13335 0.056733 0.74563 
0.30681 0.1807 -0.026296 0.08419 0.076627 0.19336 0.3124 0.2634 
0.16048 0.16426 -0.081703 0.017932 0.13335 0.24482 0.28889 -0.25647 
0.024015 0.055582 -0.025802 0.016452 0.10852 0.085999 0.090274 -0.22392 
-0.053095 -0.061645 0.012342 0.034537 -0.00015387 -0.080552 -0.027611 0.045553 
-0.033365 -0.052931 0.042429 0.053445 -0.023172 -0.096829 -0.085485 0.31963 
-0.044546 0.0028056 0.066763 0.077121 -0.016924 -0.060165 -0.11952 0.3752 
0.025495 0.079587 0.050486 0.10951 -0.019719 -0.036654 -0.066248 0.15374 
0.10754 0.12661 0.069886 0.11362 -0.003771 -0.0503 0.076627 -0.13086 
0.14667 0.20651 0.10326 0.13286 0.014479 -0.042737 0.21539 -0.31353 
0.16377 0.25469 0.10162 0.13812 0.044896 0.020069 0.21819 -0.24776 
0.19188 0.24318 0.052294 0.10556 0.050979 0.076134 0.18366 0.023193 
0.049335 0.051801 -0.0027845 0.051143 -0.034845 0.023851 0.091425 0.14058 
-0.12248 -0.15536 -0.039778 0.025001 -0.11886 -0.13497 -0.18709 0.097672 
-0.18298 -0.33457 -0.19005 -0.077757 -0.1039 -0.1792 -0.38866 0.1465 
-0.21619 -0.49389 -0.27719 -0.16736 0.035524 0.053609 -0.16111 -0.05326 
-0.077757 -0.34329 -0.15437 -0.12034 0.1978 0.2754 0.13483 -0.10932 
0.093398 -0.047012 0.069393 0.025495 0.27853 0.36452 0.2537 0.051143 
-0.041915 -0.016924 0.14486 0.11411 0.23035 0.23118 0.1179 0.11132 
-0.2984 -0.096007 0.093233 0.12135 0.1031 0.034866 -0.025145 -0.13251 
-0.28673 0.029276 0.057227 0.10359 -0.009361 -0.038133 0.17429 -0.12083 
-0.038627 0.19533 0.031907 0.088465 -0.023336 0.028619 0.39493 0.25518 
0.18646 0.26439 0.038977 0.083204 0.03536 0.11609 0.3119 0.46547 
0.25633 0.21901 0.016452 0.065447 0.032071 0.026152 -0.13958 0.026646 
0.17939 0.18284 0.036839 0.066763 -0.003771 -0.13793 -0.41168 -0.51378 
0.1396 0.27984 0.11691 0.12694 -0.0087034 -0.074469 -0.19909 -0.43963 
0.25584 0.34775 0.15999 0.19796 0.07597 0.073997 0.12069 0.024837 
0.24811 0.27853 0.18087 0.2121 0.051308 0.11115 0.11017 0.32111 
0.056404 0.096193 0.096521 0.16344 0.013986 0.10178 -0.22425 0.24795 
-0.14928 -0.16736 0.01267 0.092576 -0.038956 0.016123 -0.15306 -0.1501 
-0.2642 -0.35003 -0.050464 0.020891 -0.15651 -0.14287 0.10047 -0.12593 
-0.23494 -0.37748 -0.060494 -0.0055795 -0.18183 -0.35874 -0.12462 0.45396 
-0.15898 -0.25483 -0.073976 0.0083956 -0.10061 -0.33983 -0.13547 0.47648 
-0.086964 -0.16999 -0.078579 -0.016102 -0.003771 -0.15832 0.03092 0.10047 
0.071531 -0.066741 -0.051287 -0.0090322 0.0018191 -0.070852 -0.0067304 -0.098473 
0.21161 0.11362 -0.033859 0.0021479 -0.01676 -0.036489 -0.063782 -0.14681 
0.24285 0.29185 -0.0098543 0.0070803 0.038319 0.13779 0.063803 -0.14188 
0.15308 0.28806 0.061995 0.065612 0.21983 0.46497 0.21753 -0.14829 
0.015465 0.31371 0.17741 0.21441 0.3752 0.63958 0.36567 -0.20584 
-0.031228 0.29809 0.29924 0.2953 0.41072 0.6871 0.47352 -0.2351 
-0.12675 -0.010512 0.18251 0.23841 0.26587 0.47402 0.35416 -0.15454 
-0.16177 -0.20156 0.057227 0.14058 -0.0016336 -0.01676 -0.10209 0.022864 
-0.13777 -0.040106 0.037661 0.093726 -0.12725 -0.40264 -0.49224 0.22427 
-0.048327 0.076134 0.061501 0.096686 -0.093212 -0.37847 -0.37436 0.68562 
0.080902 0.010204 0.02122 0.11428 0.04095 -0.17345 0.14009 0.98156 
0.11806 -0.032379 0.039963 0.095535 0.051965 -0.12511 0.22476 0.48914 
0.038648 -0.017253 0.0087245 0.065118 -0.086964 -0.23724 -0.13514 -0.36581 
-0.070852 0.038155 -0.039284 0.031414 -0.13234 -0.27768 -0.23773 -0.85001 
-0.050793 0.044567 -0.047505 -0.00031829 -0.11475 -0.16523 -0.19761 -0.76418 
0.04654 0.034044 -0.0059084 0.013492 -0.067892 -0.067399 -0.15964 -0.28163 
0.11362 -0.0055795 -0.065426 0.019247 -0.045696 0.0083956 0.15242 0.1174 
-0.010676 -0.086471 -0.063618 -0.0042642 -0.032379 0.07597 0.22197 0.18481 
-0.066577 -0.060494 -0.033037 0.0095465 0.00017495 0.12184 -0.057699 0.16492 
0.023686 0.073832 0.05476 0.068407 0.11132 0.19912 -0.010019 0.1904 
0.068736 0.16689 0.11428 0.11592 0.12677 0.23167 0.19106 0.060186 
0.1105 0.18004 0.13746 0.13664 0.13319 0.25666 0.36024 0.10491 
0.19977 0.18794 0.13434 0.1756 0.10244 0.20454 0.29185 0.32917 
0.15374 0.20553 0.12069 0.1664 0.084848 0.12201 0.033551 0.2611 
0.0046141 0.15078 0.090274 0.14568 0.077121 0.058871 -0.087458 -0.008539 
-0.045203 0.081395 0.072024 0.12529 0.048348 -0.015116 -0.050958 -0.2208 
-0.027118 0.095206 0.092576 0.14881 0.082711 -0.053753 -0.048163 -0.4319 
-0.084005 0.069722 0.063639 0.10967 0.08156 -0.082196 -0.18643 -0.45525 
-0.15437 0.010204 0.028947 0.090931 0.01974 -0.14106 -0.47367 0.098001 
-0.10653 -0.021692 -0.0077169 0.060022 0.02681 -0.17542 -0.31122 0.80794 
0.12825 -0.009361 0.0042853 0.053774 0.076134 -0.10028 0.029769 0.82521 
0.27244 0.061995 -0.0054151 0.044567 0.04506 -0.029913 0.19583 0.45544 
0.22065 0.06479 -0.0078813 0.035853 -0.0026201 0.033387 0.32243 -0.021856 
0.071531 0.061666 -0.0077169 0.021713 -0.033859 0.072517 0.3244 -0.38653 
-0.015444 0.15324 0.038483 0.063803 -0.055561 0.0032988 0.12513 -0.4273 
0.0090533 0.24959 0.11855 0.13384 -0.054246 -0.077922 -0.03912 -0.39376 
0.15259 0.34265 0.16985 0.18514 -0.0032777 -0.060658 -0.045861 -0.10012 
0.35728 0.35366 0.14601 0.18925 0.048677 0.034373 0.057884 0.20454 
0.20323 0.14897 0.0227 0.1105 0.068407 0.07038 0.11181 0.18251 
-0.093212 -0.13349 -0.047505 0.018754 0.0067515 0.070215 0.062488 -0.052273 
-0.096665 -0.16983 -0.076277 -0.016102 -0.014622 0.054267 0.029441 -0.052109 
0.01563 -0.058356 -0.038791 0.021878 0.021056 0.094713 0.037004 0.068078 
0.054925 0.05476 0.062981 0.078929 0.078436 0.12579 0.011684 0.13088 
0.025659 0.095864 0.10178 0.12118 0.11378 0.096686 0.041278 0.094548 
0.007738 0.081067 0.069886 0.10984 0.044731 0.014808 0.038155 0.017767 
0.062817 0.088136 0.029112 0.074654 0.047855 0.061337 0.016123 -0.0068948 
0.09685 0.028619 0.017274 0.062817 0.08008 0.058213 0.033058 -0.02646 
0.15966 -0.043724 -0.0057439 0.076956 0.036675 0.0056006 -0.0026201 0.050321 
0.070544 -0.10472 -0.055397 0.018918 -0.028433 -0.087622 -0.0095255 0.040292 
-0.069208 -0.084169 -0.095349 -0.024323 -0.089759 -0.13481 0.01563 0.038648 
-0.074633 0.029112 -0.055232 -0.020212 -0.12297 -0.13136 0.041114 0.14683 
0.050814 0.21375 0.051636 0.044731 -0.13908 -0.1256 0.05476 0.12497 
0.11313 0.37915 0.15226 0.13499 -0.10637 -0.13004 -0.012485 -0.060165 
0.057884 0.30056 0.12973 0.18728 -0.023665 -0.093376 -0.032215 -0.09798 
0.020398 0.11 0.066105 0.14124 0.098988 0.063803 -0.062631 -0.023501 
0.039305 -0.092061 -0.046847 0.050321 0.19698 0.20257 0.016616 0.10096 
0.08715 -0.1649 -0.06707 0.0052718 0.22049 0.32341 0.43406 0.21227 
0.0014903 -0.22458 -0.041093 -0.015444 0.14469 0.27327 0.56428 0.10047 
-0.13168 -0.29873 -0.07825 -0.042901 0.081889 0.1026 0.15752 -0.19137 
-0.14928 -0.23675 -0.11294 -0.030735 0.072517 0.0042853 -0.38472 -0.024158 
0.040128 -0.02087 0.0047785 0.019576 0.048513 -0.039942 -0.42155 0.32999 
0.15653 0.10918 0.081889 0.085341 0.039634 0.033715 0.050486 0.20158 
0.15094 0.16163 0.11773 0.12809 0.036346 0.060844 0.23496 -0.060494 
0.08567 0.15982 0.11198 0.1276 -0.016102 0.0082312 0.11559 -0.26946 
0.027796 0.12102 0.082217 0.11132 -0.025638 -0.015444 0.029769 -0.28969 
0.037826 0.10935 0.04095 0.11017 -0.041422 -0.0067304 0.037332 0.033058 
0.076792 0.075641 0.004943 0.075312 -0.052766 -0.038627 0.070215 0.21062 
0.11148 0.09685 0.031907 0.076463 -0.013307 0.035853 0.13697 0.089945 
0.11987 0.054925 0.047362 0.08008 -0.0022913 0.04506 0.1493 0.01415 
0.014643 0.032564 0.062159 0.088794 0.0421 0.048184 0.069393 -0.016266 
-0.067399 -0.023172 0.049499 0.057062 -0.009361 0.017603 -0.018239 0.0031344 
-0.085813 -0.21258 -0.092883 -0.00015387 -0.023994 0.027139 -0.060494 0.082217 
-0.091732 -0.23362 -0.089595 -0.024323 -0.02646 0.015959 -0.061809 0.1225 
-0.0040998 -0.073647 0.010862 0.029769 0.014315 0.048019 0.0062583 0.12414 
0.087972 0.10113 0.10573 0.10672 0.10178 0.12727 0.1493 0.14075 
0.11099 0.066927 0.12431 0.13927 0.081724 0.093069 0.20273 0.11855 
0.17396 0.11872 0.12069 0.13795 0.020891 -0.029091 0.12513 0.063968 
0.18629 0.18794 0.081889 0.13664 0.038977 -0.04323 0.050321 0.065447 
0.11576 0.1373 0.01415 0.093562 0.047691 -0.016431 -0.011334 0.020891 
-0.028433 -0.0055795 -0.030735 0.045389 0.078272 -0.030735 0.02829 -0.0965 
-0.059343 -0.088937 -0.0080457 0.039305 0.11937 0.018425 0.11411 -0.081045 
-0.04619 -0.13991 -0.071016 -0.015444 0.040128 0.0021479 -0.13119 0.033222 
-0.16539 -0.26009 -0.13399 -0.077922 -0.058028 -0.01528 -0.3109 -0.0055795 
-0.13152 -0.14878 -0.069372 -0.036818 -0.061645 0.11066 0.081395 -0.059178 
0.081067 0.14009 0.10343 0.096521 0.048348 0.29135 0.585 0.12316 
0.26324 0.4043 0.24022 0.22148 0.17708 0.3466 0.54702 0.22 
0.21654 0.41581 0.22493 0.24548 0.14963 0.14979 -0.1621 -0.050793 
-0.012978 0.147 0.064132 0.15094 0.040456 -0.16457 -0.89982 -0.6412 
-0.22425 -0.03205 -0.046025 0.044402 -0.096665 -0.38373 -0.90739 -0.55472 
-0.18479 0.011191 0.011848 0.052459 -0.093541 -0.37304 -0.4051 0.20224 
0.049992 0.10869 0.042265 0.10392 -0.0021268 -0.12396 0.13401 0.7356 
0.18547 0.074819 0.063639 0.10836 0.079916 0.11263 0.54027 0.59782 
0.062159 -0.0077169 0.057391 0.10507 0.077449 0.19632 0.38359 0.23233 
0.047691 0.004943 0.071531 0.11017 0.036182 0.098166 0.10408 -0.0036066 
0.20388 0.17495 0.14305 0.1391 0.021056 0.14913 0.12677 -0.089102 
0.19205 0.21046 0.14486 0.16015 0.022042 0.1294 0.11609 -0.15454 
0.05624 0.21638 0.12151 0.18876 0.054925 0.073504 0.057391 -0.098473 
0.10836 0.24252 0.13631 0.18432 0.046868 0.021878 0.083533 -0.0047575 
0.21046 0.2103 0.11198 0.16459 0.01563 -0.015444 0.12562 0.038483 
0.089452 0.059693 -0.0050863 0.081724 -0.022021 -0.042901 0.066105 -0.16638 
-0.09946 -0.13021 -0.060987 0.0098754 -0.0096899 -0.028104 -0.11541 -0.46857 
-0.20452 -0.15816 -0.038791 -0.0050863 0.037168 -0.015609 -0.33572 -0.44128 
-0.16572 -0.032215 0.028947 0.063803 0.02533 0.051965 -0.4153 -0.11311 
-0.017911 0.17133 0.09833 0.10852 0.041936 0.11296 -0.25911 0.39345 
0.11494 0.23792 0.11181 0.13434 -0.0019624 0.077943 -0.070687 0.65027 
0.20092 0.21983 0.068407 0.11444 -0.075949 -0.031064 0.13483 0.58516 
0.14782 0.08419 -0.014129 0.054596 -0.036654 -0.016102 0.28198 0.11099 
0.012342 -0.12346 -0.07003 -0.0055795 0.026974 -0.11343 0.20783 -0.16506 
0.025001 -0.16539 -0.093705 0.0026412 0.095206 -0.20584 -0.0059084 -0.073647 
0.041443 -0.088608 -0.01232 0.022864 0.10359 -0.10538 0.025001 -0.01232 
-0.21077 -0.13168 -0.014458 0.01711 0.093398 0.039141 0.043745 -0.096994 
-0.3617 -0.17476 -0.078086 -0.023007 0.017932 0.027139 0.00017495 -0.2208 
-0.20962 -0.051944 -0.10061 -0.055397 -0.018239 0.030756 -0.066084 -0.20995 
-0.026624 0.0042853 -0.095021 -0.06855 -0.067235 0.04917 -0.1917 -0.12083 
0.013164 0.01415 -0.024487 0.0070803 -0.049971 0.084848 -0.12725 -0.046847 
0.021056 0.086985 0.12628 0.1128 0.033387 0.12151 0.1641 0.061008 
0.093726 0.1077 0.13615 0.15834 0.087972 0.14026 0.32604 0.18629 
0.24729 0.1909 0.15259 0.17659 0.12612 0.04095 0.23825 0.27064 
0.34133 0.25715 0.17084 0.19073 0.061008 -0.037147 0.13582 0.40907 
0.29776 0.21474 0.12299 0.1567 -0.047176 -0.15388 -0.01676 0.40414 
0.068242 0.086821 0.056076 0.12973 -0.14582 -0.13727 -0.0042642 0.16262 
-0.084169 0.032236 0.0028056 0.084684 -0.1113 0.022042 0.089452 0.0088889 
-0.18002 -0.12708 -0.095514 -0.0013048 -0.072825 0.044238 -0.11146 -0.26716 
-0.28229 -0.28985 -0.24069 -0.11985 -0.03501 -0.00081153 -0.12659 -0.45032 
-0.12412 -0.19893 -0.16818 -0.1187 0.087314 0.056404 0.01415 -0.10505 
0.094384 0.012177 0.062488 0.028783 0.22887 0.18629 0.0046141 0.12349 
0.14913 0.16541 0.25732 0.20405 0.31914 0.36139 0.11313 0.068407 
0.25962 0.3387 0.29859 0.30582 0.39049 0.41959 0.35991 0.1756 
0.20487 0.2223 0.1391 0.22033 0.28741 0.21654 0.24055 0.22526 
-0.079072 -0.18726 -0.14056 0.0064227 -0.043395 -0.11804 -0.038462 0.1613 
-0.20912 -0.32388 -0.20567 -0.1011 -0.23707 -0.20633 -0.061973 0.076463 
-0.15174 -0.14813 -0.10423 -0.081868 -0.22754 -0.19087 -0.0052507 0.12743 
0.051965 0.05772 0.019083 0.00066819 -0.1741 -0.206 -0.0059084 0.24647 
0.12661 0.072188 0.0031344 0.057555 -0.157 -0.18052 0.076627 -0.10998 
0.13006 0.016452 0.0031344 0.053281 -0.078415 -0.10768 0.072846 -0.55867 
0.055747 0.035031 -0.022021 0.042594 0.14519 0.071366 0.0046141 -0.39244 
-0.048163 -0.023172 -0.022679 0.032893 0.27228 0.27557 -0.0078813 0.014479 
-0.052602 -0.031886 0.039634 0.055911 0.20076 0.24367 0.062488 0.24318 
0.0014903 0.092247 0.13434 0.1197 0.038483 0.080738 0.075805 0.22164 
0.044567 0.18991 0.11872 0.16755 -0.07003 -0.076277 -0.067235 0.0324 
0.079587 0.17314 0.07449 0.13532 -0.050958 -0.088444 -0.061809 -0.083183 
0.15653 0.16114 0.02533 0.095535 0.016288 0.0028056 0.15374 0.00099702 
0.18629 0.10935 0.034209 0.082382 0.012835 0.084355 0.34331 0.10688 
0.17593 0.083697 0.047855 0.080738 0.037332 0.11806 0.38194 0.021056 
0.20997 0.12316 0.059035 0.08156 0.025001 0.096357 0.22065 0.04917 
0.13351 0.1174 0.034209 0.10524 0.037004 0.02533 -0.0026201 0.24597 
-0.028433 0.074161 0.049992 0.10244 0.051308 0.031249 0.016452 0.32752 
-0.15224 0.037661 0.084026 0.12184 0.11526 0.071695 0.12201 0.16048 
-0.075291 0.046375 0.095535 0.13401 0.1738 0.091096 0.064461 -0.026296 
-0.0057439 0.065612 0.10935 0.12201 0.18892 0.11132 -0.16934 -0.33145 
-0.032872 0.01415 0.034537 0.080738 0.13746 0.08863 -0.48452 -0.3155 
-0.075291 -0.15848 -0.07414 0.024508 0.13368 0.15686 -0.35052 0.28034 
-0.066413 -0.10834 -0.039284 0.012013 0.065447 0.17824 0.28823 0.524 
0.15357 0.16738 0.055747 0.067091 -0.035667 0.045389 0.32144 0.23348 
0.35547 0.29645 0.10408 0.11411 -0.12856 -0.24809 -0.42138 -0.26683 
0.32703 0.3244 0.087972 0.11411 -0.14993 -0.37337 -0.60914 -0.50951 
0.19944 0.25387 0.042594 0.087972 -0.11343 -0.26535 -0.24825 -0.25319 
-0.01528 0.075312 -0.013636 0.074983 -0.0072237 -0.059672 0.0087245 0.10721 
-0.10965 -0.038956 0.017932 0.068407 0.0034632 -0.0057439 0.1465 0.20849 
-0.13037 -0.089431 0.062323 0.08978 -0.020212 -0.016431 0.2297 0.15374 
-0.16062 -0.067399 0.08419 0.11214 -0.032215 -0.013965 0.22411 0.021549 
-0.0771 0.02122 0.080409 0.11033 0.037826 0.027632 0.1613 -0.018075 
-0.01528 -0.047505 0.040456 0.085835 0.05065 0.09685 0.15883 -0.088115 
-0.10867 -0.19729 -0.043559 0.04358 0.083862 0.13056 0.095371 -0.17016 
-0.11705 -0.25187 -0.10554 -0.019884 0.10195 0.12266 -0.018075 -0.19054 
-0.10817 -0.19679 -0.079401 -0.02794 0.12447 0.14601 -0.038956 -0.13103 
-0.0073881 -0.0080457 -0.018733 0.0037921 0.11888 0.17347 0.029276 0.21474 
0.15637 0.21046 0.083862 0.079094 0.098494 0.14157 0.063145 0.51084 
0.23397 0.3951 0.16229 0.14502 0.0786 0.041607 -0.064275 0.37816 
0.26225 0.46777 0.20076 0.20602 0.0046141 -0.01117 -0.039284 0.088465 
0.18695 0.36041 0.11198 0.18794 -0.052109 0.02681 0.1544 -0.028104 
0.093069 0.21638 0.069229 0.13647 -0.10916 -0.009361 0.15127 -0.076935 
0.026646 0.17248 0.10918 0.14585 -0.059343 -0.098967 -0.015444 -0.084334 
0.021549 0.1784 0.18415 0.19928 -0.03057 -0.12823 -0.15043 0.097672 
0.13056 0.13828 0.22197 0.22871 0.0028056 -0.11491 -0.14977 0.26389 
0.16541 0.012177 0.041772 0.13105 -0.034352 -0.13678 -0.20173 0.010862 
-0.019061 -0.13941 -0.24003 -0.047998 -0.10587 -0.22014 -0.2693 -0.33523 
-0.25269 -0.29133 -0.34772 -0.20797 -0.13432 -0.21948 -0.18348 -0.46331 
-0.25072 -0.37058 -0.27357 -0.21323 -0.056055 -0.076442 0.095699 0.15111 
-0.1085 -0.24529 -0.039284 -0.065919 0.1368 0.20684 0.23167 0.5041 
-0.082525 -0.11837 0.15834 0.10129 0.28543 0.37093 0.21358 0.34265 
-0.16227 -0.15832 0.1465 0.14157 0.2149 0.30516 0.15522 0.035524 
-0.18907 -0.15388 0.018425 0.11378 0.10359 0.14617 0.080573 -0.083676 
-0.11886 -0.054246 -0.00081153 0.064461 0.033551 0.080573 0.079587 -0.16736 
-0.0054151 -0.02087 0.030427 0.069722 0.026152 0.058049 0.08304 -0.14418 
0.10244 0.018918 0.03092 0.064625 0.021549 0.0062583 0.027303 -0.037476 
0.11757 0.10507 0.07597 0.090438 -0.02087 -0.061973 -0.012814 0.054925 
0.080573 0.18202 0.1396 0.13121 -0.027611 -0.041915 0.0083956 0.2075 
0.12053 0.20043 0.069064 0.14141 -0.0052507 -0.0064016 0.1248 0.20257 
0.073997 0.19418 0.071037 0.11428 -0.045532 0.01711 0.1054 0.062159 
0.10967 0.1909 0.022042 0.08715 -0.0044286 0.0044497 0.066763 -0.053917 
0.14963 0.18547 0.067256 0.1031 0.048841 0.031249 0.044238 0.016123 
0.15883 0.23167 0.078765 0.10852 0.046868 0.068407 0.17248 0.085012 
0.1761 0.28001 0.13056 0.13384 0.076299 0.1276 0.27655 0.083204 
0.080738 0.2343 0.13943 0.16558 0.0786 0.13023 0.25387 -0.11738 
0.036182 0.28149 0.1636 0.18974 0.048184 0.08567 0.032564 -0.39656 
-0.0029489 0.2828 0.14157 0.17939 -0.015116 -0.063946 -0.32947 -0.37074 
-0.016595 0.088301 0.0044497 0.086657 -0.17377 -0.23658 -0.31681 0.055254 
-0.018897 -0.18413 -0.16029 -0.056383 -0.19153 -0.19252 0.023851 0.40529 
0.033058 -0.32799 -0.26864 -0.1649 -0.035667 -0.011334 0.19879 0.64682 
0.2029 -0.13234 -0.13662 -0.10045 0.11494 0.16738 0.23348 0.58352 
0.17758 0.050814 0.11576 0.066763 0.18103 0.17758 0.19369 0.21112 
-0.085813 -0.049971 0.20323 0.17297 0.13286 0.07449 0.08863 -0.1062 
-0.27259 -0.21471 0.062981 0.11954 0.10211 0.087972 -0.037969 -0.46068 
-0.32997 -0.29133 -0.13464 -0.020377 0.10688 0.11198 -0.076113 -0.5248 
-0.23263 -0.36203 -0.24973 -0.14122 0.080738 0.079094 -0.088608 -0.16062 
0.1031 -0.1963 -0.21899 -0.14993 0.049006 0.017603 -0.047669 0.094713 
0.069064 -0.1279 -0.11146 -0.095185 -0.0059084 -0.045532 -0.11294 -0.1136 
-0.24825 -0.029748 0.047855 0.020562 -0.028269 -0.029584 0.12447 -0.20288 
-0.18676 0.23611 0.18695 0.14963 0.034537 0.14568 0.48487 0.10228 
0.10935 0.31519 0.2001 0.20651 0.047197 0.14782 0.40266 0.29744 
0.24466 0.30319 0.14733 0.18942 0.034373 0.091753 0.088301 0.22098 
0.28609 0.27968 0.11757 0.17199 0.034702 0.0018191 -0.19416 0.087643 
0.25913 0.2828 0.11691 0.18136 0.0028056 -0.068879 -0.23444 -0.0868 
0.19862 0.2851 0.14502 0.18695 0.021878 -0.057863 -0.13612 -0.12511 
0.1853 0.25354 0.1225 0.17232 0.092247 0.032236 -0.0087034 0.13039 
0.22427 0.10491 0.069229 0.13384 0.12727 0.075476 0.19106 0.32407 
0.18333 0.052787 0.03947 0.093233 0.10474 0.0227 0.052459 0.29694 
0.080573 0.077449 0.028125 0.075476 0.017438 -0.045039 -0.15109 -0.039942 
-0.044546 0.076956 0.045553 0.11296 -0.0011404 -0.020048 -0.13086 -0.31599 
-0.10341 0.023686 0.040292 0.094384 0.0046141 -0.061809 -0.15322 -0.22409 
-0.075127 -0.055726 -0.022679 0.04654 -0.017417 -0.064604 -0.030406 0.147 
-0.076442 -0.13875 -0.11755 -0.032708 -0.023336 0.012506 0.31634 0.37126 
-0.17953 -0.2864 -0.19827 -0.1233 -0.092226 -0.0060728 0.31355 0.16623 
-0.19696 -0.32553 -0.20238 -0.15585 -0.11491 -0.055232 -0.018075 -0.10965 
-0.027282 -0.059507 -0.026131 -0.020048 0.027303 0.070708 -0.12757 -0.044381 
0.21621 0.24449 0.20668 0.1567 0.14913 0.19205 -0.023994 0.07301 
0.30253 0.25732 0.20651 0.21342 0.15308 0.2685 0.095042 0.069229 
0.21309 0.15242 0.096193 0.16311 0.15982 0.20635 0.10524 0.084519 
0.014643 0.015301 0.032893 0.10047 0.1003 0.071202 -0.087458 0.010204 
-0.12544 -0.078415 0.060844 0.090931 0.0075736 -0.060165 -0.27029 -0.13399 
-0.067728 -0.029913 0.055254 0.1276 0.028947 -0.029255 -0.15421 -0.16358 
0.012342 0.014479 0.040128 0.10063 0.048348 -0.025145 0.1345 -0.080717 
0.091425 0.089123 0.059035 0.10524 0.014479 -0.021034 0.17429 0.00050378 
0.16393 0.20043 0.077285 0.11576 0.0095465 0.033387 0.10359 0.17939 
0.1756 0.24334 0.091096 0.11773 -0.018239 -0.022679 -0.077264 0.094877 
-0.021199 0.1493 0.056076 0.082711 -0.18923 -0.27949 -0.29067 -0.2397 
-0.15569 0.030098 -0.058192 0.048677 -0.29462 -0.40346 -0.21504 -0.27242 
-0.1159 -0.0096899 -0.065262 0.012177 -0.21291 -0.28656 0.04358 -0.10143 
0.081395 -0.0016336 0.0016547 0.042429 -0.07562 -0.072825 0.084355 0.35186 
0.22526 0.13384 0.11543 0.12069 0.018096 -0.0095255 -0.078744 0.60949 
0.2708 0.25502 0.24729 0.22328 0.098001 0.063803 0.086985 0.42634 
0.37241 0.33262 0.25058 0.25765 0.16969 0.15045 0.27392 0.05772 
0.43752 0.39575 0.15423 0.23808 0.15423 0.092247 0.082382 -0.21965 
0.33015 0.36304 0.08567 0.17495 0.21194 0.12513 -0.1085 -0.24793 
-0.016266 0.00066819 -0.0077169 0.096357 0.41779 0.48092 0.036675 -0.0047575 
-0.29528 -0.28492 -0.030899 0.048348 0.50937 0.73149 0.23167 0.17117 
-0.26798 -0.24003 0.023028 0.050486 0.2805 0.53896 0.14272 0.14897 
-0.11278 -0.11985 0.073504 0.071202 0.077285 0.16212 -0.027447 0.0018191 
0.009711 -0.0087034 0.038812 0.09274 -0.018404 -0.069043 -0.1353 -0.090088 
0.19796 0.2782 0.13039 0.13779 -0.20633 -0.31616 -0.16276 -0.071838 
0.30927 0.414 0.13664 0.15505 -0.32882 -0.50063 -0.15339 0.052787 
0.03388 -0.014129 -0.12067 0.0037921 -0.37156 -0.48452 -0.18479 0.058049 
-0.25927 -0.39261 -0.38373 -0.20929 -0.29774 -0.34888 -0.13004 -0.0096899 
-0.14467 -0.20879 -0.30136 -0.23839 -0.13925 -0.12001 0.12973 0.065612 
0.076792 0.19139 0.043251 -0.016595 0.059035 0.12053 0.33196 0.16031 
0.23298 0.37898 0.31667 0.22986 0.17528 0.26044 0.3586 0.17495 
0.3124 0.29152 0.32851 0.3096 0.18629 0.24844 0.28214 0.051472 
0.27836 0.18021 0.15867 0.23644 0.16294 0.21506 0.18202 -0.054246 
0.06594 -0.042573 0.0087245 0.11658 0.098659 0.10244 -0.0055795 -0.26322 
-0.28459 -0.28492 -0.088444 -0.0014692 0.00050378 -0.10538 -0.37781 -0.47514 
-0.47926 -0.37074 -0.11442 -0.048985 -0.067728 -0.22047 -0.68527 -0.31238 
-0.32701 -0.23757 -0.11163 -0.032543 0.03799 -0.060329 -0.31106 0.097672 
0.0028056 -0.07266 -0.021856 0.0072447 0.12595 0.19139 0.29612 0.40989 
0.16393 -0.07973 0.0039565 0.032729 0.099481 0.25255 0.47106 0.54932 
0.13039 -0.06296 0.0069159 0.03947 0.071859 0.20175 0.31552 0.51298 
0.1756 0.018918 0.049499 0.06035 0.009711 0.12069 0.22427 0.28478 
0.12858 0.082875 0.052787 0.071859 -0.039613 0.017932 0.17347 -0.12363 
0.056076 0.098001 0.029769 0.10063 0.020233 -0.0054151 0.14979 -0.29807 
0.047526 0.16508 0.017932 0.080902 0.098988 0.093562 0.11181 -0.053753 
0.036675 0.099645 0.019411 0.066105 0.11346 0.15061 0.11083 0.031578 
0.024673 0.078929 0.028783 0.071037 0.078436 0.15883 0.0034632 -0.10965 
-0.042573 0.00066819 0.021384 0.050157 0.013821 0.030756 -0.35085 -0.27818 
-0.1843 -0.072496 -0.026296 0.027796 -0.025145 -0.075291 -0.38472 -0.25368 
-0.16917 -0.0503 -0.030406 0.047691 -0.038627 -0.020048 0.069393 0.013986 
0.070215 0.088794 0.032893 0.069229 0.01152 0.13023 0.49473 0.20471 
0.21506 0.14141 0.051472 0.086163 0.0227 0.15209 0.39411 0.20997 
0.14667 0.096028 0.073339 0.10491 0.021056 0.018589 0.022535 0.12727 
-0.040271 0.059693 0.11411 0.12217 0.0042853 -0.17624 -0.34888 -0.10653 
-0.16079 -0.025309 0.092411 0.11707 -0.017746 -0.31747 -0.29709 0.0060938 
-0.10867 -0.11343 -0.04323 0.073175 0.043087 -0.17164 -0.038298 0.11411 
0.051965 -0.18265 -0.16934 -0.046683 0.12562 0.12973 0.24153 0.040621 
0.17528 -0.09946 -0.066741 -0.027775 0.13598 0.36271 0.41466 -0.021692 
0.054432 -0.00064712 0.066105 0.058871 0.13154 0.45593 0.38457 -0.073482 
-0.052273 0.015959 0.16097 0.12908 0.079587 0.31832 0.21457 0.18087 
-0.14188 0.01826 0.14601 0.14206 -0.12001 -0.030077 -0.11656 0.23907 
-0.25647 0.031414 0.021878 0.10178 -0.32487 -0.4005 -0.33457 -0.23609 
-0.12675 0.11033 -0.082032 0.013492 -0.34082 -0.46906 -0.061151 -0.28245 
0.14815 0.13319 -0.13251 -0.042573 -0.12494 -0.23 0.0324 0.062159 
0.17248 0.11017 -0.051122 -0.02087 0.11099 -0.087458 -0.4689 -0.0021268 
0.084519 0.18958 0.13467 0.10178 0.24712 -0.027775 -0.63759 -0.047176 
0.04917 0.25962 0.28067 0.23792 0.29711 0.097344 -0.14944 0.024344 
0.09833 0.24844 0.293 0.30697 0.20438 0.15193 0.29201 0.34035 
0.20503 0.24055 0.23677 0.28527 0.021384 0.090931 0.49046 0.64862 
0.2463 0.19517 0.084519 0.17807 -0.14336 -0.022514 0.3928 0.57283 
0.18859 0.097179 -0.024323 0.072681 -0.15783 0.021878 0.39526 0.12118 
0.092082 0.043416 -0.12955 -0.027611 -0.044217 0.1373 0.33525 -0.36663 
-0.029913 -0.056548 -0.15158 -0.083676 -0.0075525 0.018918 -0.036489 -0.68592 
-0.16835 -0.11228 -0.15207 -0.090581 -0.044381 -0.21274 -0.50178 -0.80266 
-0.16227 -0.052602 -0.0868 -0.054904 -0.048492 -0.23083 -0.51904 -0.34361 
-0.074962 0.02681 0.045224 0.042429 0.062159 -0.015444 -0.043724 0.33821 
-0.057205 -0.1113 0.034866 0.061008 0.080409 0.10704 0.19599 0.43209 
-0.11228 -0.29314 -0.059014 0.0018191 0.089123 0.15308 0.13088 0.11395 
-0.030077 -0.12905 -0.0064016 0.012506 0.06594 0.13664 0.025001 0.012835 
0.055747 0.10556 0.11017 0.10672 0.09833 0.14519 -0.0072237 0.051143 
0.12201 0.27836 0.16146 0.17889 0.13532 0.12036 0.030592 0.10343 
0.10803 0.23035 0.13894 0.17001 0.094384 0.079916 0.046046 0.096193 
0.046046 0.088465 0.08419 0.13565 0.10376 -0.038956 0.042758 0.032236 
0.071366 0.14963 0.073504 0.12316 0.030263 -0.038956 0.035524 -0.011334 
0.12858 0.25978 0.081724 0.11707 0.017603 0.044731 0.095042 0.021384 
0.11905 0.25304 0.10918 0.13943 -0.030077 0.024015 0.0014903 0.022535 
0.040456 0.20471 0.078929 0.147 -0.067892 -0.13432 -0.11607 -0.071838 
0.036839 0.17182 0.044238 0.11181 -0.010841 -0.097322 0.036017 0.069229 
0.19977 0.17051 0.097015 0.13565 0.013986 -0.050793 0.27409 0.27968 
0.32769 0.1442 0.11658 0.15308 0.020233 -0.032379 0.305 0.33673 
0.19944 0.1026 0.088794 0.12891 0.018425 -0.02087 0.056076 0.061501 
-0.093705 -0.13284 -0.11804 -0.0042642 0.015465 -0.033694 -0.31912 -0.33112 
-0.26239 -0.30202 -0.2887 -0.12396 -0.0083746 -0.076606 -0.64992 -0.23872 
-0.1501 -0.15996 -0.17065 -0.121 -0.0088678 -0.031064 -0.33178 0.19879 
-0.072003 0.0016547 0.012999 -0.0057439 0.00083261 0.10228 0.31322 0.42321 
-0.024816 0.0036276 0.1054 0.090109 0.053774 0.24597 0.74119 0.45494 
-0.16868 -0.15289 0.05624 0.083697 0.057227 0.1978 0.55507 0.059364 
-0.23559 -0.21751 -0.019884 0.039799 0.068407 0.16886 0.17906 -0.28656 
-0.11442 -0.19597 -0.086471 0.022864 0.14371 0.1881 0.093398 -0.38998 
-0.036489 -0.20551 -0.072496 -0.0080457 0.11148 0.14026 0.0026412 -0.4028 
0.058871 -0.065591 -0.0083746 0.016945 0.044896 -0.010512 -0.17197 -0.21143 
0.12924 0.080902 0.046046 0.061501 0.012506 -0.066741 -0.16539 0.057062 
0.26291 0.25288 0.14782 0.13746 0.10935 0.094713 0.13319 0.41483 
0.34248 0.30582 0.18235 0.18481 0.15324 0.15949 0.14437 0.45725 
0.17166 0.16623 0.052787 0.1516 0.075312 0.064132 -0.0042642 0.28182 
-0.0070593 0.012999 -0.016266 0.069886 -0.012649 -0.058521 -0.098967 -0.030242 
-0.060658 -0.029584 -0.0013048 0.044567 -0.058028 -0.10406 -0.15141 -0.21636 
0.034044 0.056076 0.046868 0.074654 -0.029255 -0.029584 -0.024816 -0.291 
0.05624 0.1345 0.09685 0.10918 0.00050378 0.022042 0.088301 -0.2134 
-0.066577 0.085341 0.085999 0.10935 -0.011005 0.0059294 0.11198 0.24219 
-0.10702 0.0031344 0.053281 0.11428 -0.017253 0.0054362 0.10918 0.53781 
-0.025802 0.035853 0.040456 0.097672 -0.0019624 0.037332 0.08863 0.34528 
0.096686 0.068078 0.030263 0.08715 0.022206 0.059364 0.038483 -0.08384 
0.1664 0.11691 0.057391 0.095699 0.047033 0.004943 0.009711 -0.033365 
0.18794 0.11822 0.077121 0.1026 0.063639 0.0024767 0.023357 0.32029 
0.11033 0.074654 0.077943 0.09685 0.092576 0.1105 0.050486 0.33328 
-0.001798 0.0075736 0.0044497 0.077943 0.10162 0.11329 -0.05178 -0.074304 
-0.072989 -0.032708 -0.023007 0.040456 0.046046 0.060022 -0.060987 -0.53861 
-0.09239 -0.013471 0.0024767 0.043087 0.010697 0.029769 0.069393 -0.6606 
0.0037921 0.077943 0.053774 0.074983 -0.0059084 0.03388 0.1271 -0.25615 
0.09274 0.13861 0.092082 0.10491 -0.037311 -0.015116 0.11658 0.15867 
0.086492 0.1003 0.12118 0.10491 -0.015116 -0.02794 0.17084 0.46103 
0.051472 0.096686 0.043909 0.09422 -0.040271 -0.039613 0.023357 0.55129 
0.07301 0.1054 -0.018239 0.053938 -0.052931 -0.090417 -0.17739 0.29102 
0.058213 0.18054 0.073504 0.091096 -0.059507 -0.10801 -0.30629 0.12792 
0.0059294 0.19402 0.075476 0.11148 -0.03616 -0.09798 -0.39688 -0.11738 
-0.045368 0.14683 0.095042 0.12349 0.00050378 -0.054082 -0.27505 -0.27505 
0.077614 0.27409 0.14634 0.15209 0.065612 0.066763 0.06183 0.0075736 
0.28527 0.30335 0.086492 0.12891 0.14486 0.19517 0.20323 0.42371 
0.33262 0.074819 -0.03353 0.065283 0.1465 0.096028 0.057062 0.28198 
0.083697 -0.1182 -0.030242 0.032564 0.059857 0.0088889 -0.011827 -0.1547 
-0.15306 -0.098638 0.027632 0.058049 0.042594 0.11822 0.18843 -0.43273 
-0.35397 -0.20337 -0.0004827 0.039634 0.093398 0.11757 0.31437 -0.32208 
-0.30103 -0.1746 -0.0047575 0.027796 0.046046 0.02829 0.15916 -0.13793 
-0.079237 0.11296 0.12332 0.10721 -0.018075 -0.090581 -0.10456 -0.052766 
0.078107 0.28954 0.16212 0.19057 -0.075127 -0.18907 -0.23724 -0.061151 
0.080902 0.10293 0.01563 0.10343 -0.11755 -0.17279 -0.10949 0.022535 
0.097015 -0.08532 -0.093212 0.0093821 -0.087786 -0.078579 -0.040106 0.20783 
0.20503 0.15324 0.018918 0.045224 -0.029584 -0.0011404 -0.057205 0.31733 
0.13516 0.28806 0.11855 0.10408 0.01974 0.11921 0.066269 0.29448 
-0.026953 0.23693 0.17248 0.16344 0.049828 0.10474 0.062159 0.21095 
0.020233 0.19435 0.12365 0.1909 -0.00081153 0.012342 -0.068221 0.21178 
0.12299 0.06594 0.013328 0.1031 -0.039613 -0.075455 -0.16999 -0.039613 
0.12168 -0.10291 -0.12889 -0.014951 0.012835 0.035031 -0.18413 -0.27604 
0.035688 -0.20699 -0.22211 -0.11031 0.14519 0.18942 -0.021692 -0.27012 
-0.071345 -0.33391 -0.19794 -0.13514 0.22657 0.2486 0.17577 -0.077922 
-0.060329 -0.25532 -0.0016336 -0.030735 0.25189 0.20454 0.24055 0.042923 
-0.16572 -0.089266 0.13467 0.11921 0.20635 0.098823 0.12069 0.068407 
-0.2185 -0.013307 0.13384 0.14996 0.040785 -0.1136 -0.039778 0.009711 
-0.098967 0.085999 0.12233 0.15341 -0.072496 -0.18874 0.012013 0.025495 
0.055418 0.14585 0.06742 0.12727 -0.11524 -0.12429 0.12776 0.054267 
0.068078 0.14091 0.068242 0.1128 -0.068057 -0.01676 0.23134 -0.019061 
-0.019884 0.080409 0.031578 0.070215 -0.022185 0.039305 0.21424 -0.064111 
-0.010841 -0.016924 -0.057205 0.035853 -0.0027845 0.048841 0.1687 0.034537 
0.094877 -0.061973 -0.079237 -0.0078813 0.024673 0.020562 0.079751 0.11658 
0.16064 -0.012485 -0.031228 0.0059294 0.032071 0.035524 0.035031 0.079094 
0.13236 0.03799 0.025659 0.04506 0.070873 0.11773 -0.034845 0.04358 
0.096686 0.074983 0.091425 0.09274 0.1003 0.17676 0.05065 0.011684 
0.10343 0.10819 0.12595 0.12858 0.1225 0.22887 0.20865 -0.017911 
0.055254 0.029276 0.046868 0.11576 0.10491 0.16311 0.19435 -0.050629 
-0.010348 -0.07973 -0.067564 0.026481 0.030756 -0.03764 -0.05441 -0.074633 
0.031907 -0.10045 -0.093705 -0.023172 0.036182 -0.30843 -0.52529 -0.031886 
-0.0080457 -0.077593 -0.03057 -0.0055795 -0.091404 -0.36466 -0.57248 0.23775 
-0.12412 -0.063618 -0.011005 0.018425 -0.10653 -0.20551 -0.059343 0.29135 
-0.18775 -0.076606 0.018918 0.033058 -0.030406 -0.010348 0.36271 0.0065871 
-0.017746 -0.029091 0.04358 0.1077 0.031085 0.13795 0.50821 0.054925 
0.16426 0.068078 0.018754 0.087479 0.10293 0.24384 0.4778 0.19122 
0.19912 0.060022 0.03092 0.08304 0.15719 0.34232 0.36172 0.032564 
0.03651 -0.0406 -0.0040998 0.053774 0.17725 0.3244 0.01267 -0.39902 
-0.08532 -0.042408 0.026152 0.065118 0.2052 0.26702 -0.19252 -0.63265 
-0.035503 0.077614 0.10458 0.1077 0.18974 0.20668 -0.0070593 -0.015938 
0.13286 0.15785 0.10967 0.13302 0.016288 0.046375 0.24334 0.64188 
0.20142 0.14042 0.043087 0.11395 -0.11491 -0.091404 0.2292 0.47352 
0.17199 0.083533 -0.0088678 0.063145 -0.17854 -0.14204 0.066598 -0.09091 
0.061337 0.06742 -0.001798 0.049006 -0.1187 -0.12215 -0.1113 -0.57544 
0.030263 0.11872 0.064954 0.090767 0.00083261 -0.088773 -0.18101 -0.46232 
0.099316 0.24071 0.16459 0.14979 0.045389 -0.068879 -0.25253 0.28428 
0.15144 0.27014 0.21309 0.20668 0.051472 -0.094034 -0.18413 0.86023 
0.060186 0.12875 0.11296 0.19994 0.025495 -0.055232 -0.024652 0.62413 
-0.060165 -0.035832 0.0085601 0.10754 0.043909 0.021878 0.076956 0.09685 
-0.014458 -0.091404 -0.049314 0.036675 0.036182 0.027139 0.087643 -0.19022 
0.12628 -0.058356 -0.075291 -0.011663 -0.040928 -0.035503 0.060515 -0.22178 
0.13845 -0.026131 -0.045696 -0.016595 -0.099624 -0.064933 0.024837 -0.12856 
0.1396 0.15735 0.067749 0.057062 -0.096665 -0.025967 0.011355 -0.031721 
0.21934 0.34495 0.17988 0.18629 -0.060165 0.041114 0.12349 0.052952 
0.18136 0.29316 0.13483 0.1784 0.016123 0.090109 0.2486 0.054103 
0.033387 0.054267 -0.028762 0.076792 0.094548 0.18267 0.256 -0.084663 
-0.033365 -0.0138 -0.069701 0.015301 0.17708 0.22624 0.084026 -0.17969 
0.00017495 0.088794 0.016781 0.037661 0.14716 0.15785 -0.30974 0.0011614 
0.01415 0.065776 0.076463 0.073668 0.046375 0.0039565 -0.58892 0.13154 
-0.12314 -0.041422 0.028454 0.087808 -0.069372 -0.21537 -0.40395 0.22739 
-0.1284 -0.068714 0.0026412 0.061995 -0.079895 -0.23214 0.059364 0.47303 
0.031907 0.086985 0.071366 0.098988 0.011191 -0.030077 0.39214 0.4311 
0.19829 0.18021 0.11132 0.13351 0.054432 0.081231 0.31552 0.14141 
0.27458 0.2006 0.11987 0.1391 0.01004 0.0060938 0.038977 -0.068386 
0.18826 0.12316 0.074983 0.11083 -0.052437 -0.064111 0.026317 -0.40428 
0.10145 0.14009 0.062981 0.12201 0.029605 0.10491 0.22986 -0.64663 
0.17856 0.20109 0.071366 0.12299 0.11691 0.22148 0.2537 -0.30103 
0.21408 0.17297 0.055911 0.11099 0.1613 0.23973 0.12053 0.10063 
0.012835 -0.028433 -0.046683 0.035853 0.1179 0.1761 -0.12379 0.23364 
-0.2328 -0.25368 -0.089431 -0.025638 0.060022 0.16327 -0.21093 0.32423 
-0.31155 -0.24793 -0.031392 -0.019226 -0.016431 -0.017911 -0.27357 0.23677 
-0.23872 -0.0042642 0.10573 0.10014 -0.086636 -0.21422 -0.54321 0.079916 
-0.10225 0.19829 0.12546 0.14058 -0.13662 -0.34181 -0.51937 0.047362 
0.0070803 0.17297 -0.0036066 0.076627 -0.060658 -0.26716 0.032071 0.033222 
0.12825 -0.034516 -0.098638 -0.0022913 0.01974 -0.055726 0.44903 0.073668 
0.20339 -0.014458 -0.025638 0.0082312 0.11214 0.012506 0.39543 0.14502 
0.1927 0.10359 0.15834 0.10918 0.048348 0.012835 0.12694 -0.023336 
0.021549 -0.0019624 0.13713 0.15292 -0.00064712 0.052459 -0.095021 -0.32257 
-0.13662 -0.17262 0.012342 0.11115 0.058213 0.13861 -0.15421 -0.16424 
-0.16309 -0.20699 -0.082525 0.018754 0.080738 0.17117 -0.1404 0.32259 
0.063639 -0.067892 -0.052602 0.00297 0.089287 0.18087 0.076627 0.43045 
0.21358 0.10129 0.071037 0.06742 0.15374 0.24121 0.25863 0.23085 
0.099316 0.13664 0.11691 0.11592 0.18465 0.20306 0.26554 -0.11031 
-0.088937 0.10293 0.085835 0.11329 0.1738 0.13023 0.1391 -0.25056 
-0.053753 0.16442 0.061501 0.13236 0.045224 0.010697 0.028947 -0.14961 
0.080573 0.22838 0.068407 0.11576 -0.028597 -0.054739 0.027303 0.085341 
0.14058 0.14042 0.014479 0.076792 -0.07003 -0.1136 0.044073 0.16673 
0.24893 0.11313 -0.0040998 0.056569 -0.06 -0.081374 0.027303 0.11115 
0.16508 0.041114 -0.023665 0.026481 -0.045368 -0.06444 -0.028433 -0.12297 
-0.049807 -0.052931 0.0080668 0.041936 -0.015609 -0.0021268 -0.10045 -0.30761 
-0.18742 -0.075949 0.01563 0.081889 0.059693 0.059035 -0.18742 -0.26009 
-0.26634 -0.1284 -0.0049219 0.056898 0.071859 0.0592 -0.21685 -0.11541 
-0.2328 -0.13941 -0.045861 0.034044 0.099152 0.10014 0.063474 0.094384 
-0.1113 -0.11722 -0.029255 0.023028 0.13351 0.16081 0.3461 0.24137 
-0.003771 -0.047669 0.034537 0.04506 0.11428 0.13302 0.31355 0.21326 
0.15867 0.061995 0.11148 0.10162 0.041607 0.05624 0.19024 0.10162 
0.24729 0.15357 0.14338 0.1807 -0.024323 -0.04882 0.095206 0.10704 
0.13697 0.13171 0.12184 0.16656 -0.095349 -0.11343 -0.058192 0.033715 
-0.072989 -0.1427 -0.071674 0.042265 -0.073976 -0.10587 -0.16227 -0.00097594 
-0.17772 -0.41974 -0.29396 -0.14171 -0.025474 -0.065919 -0.15684 -0.15076 
-0.19893 -0.33934 -0.26568 -0.19285 0.052623 0.040292 0.042923 -0.11557 
-0.14517 0.044238 -0.0088678 -0.056383 0.1567 0.21062 0.14979 -0.040764 
0.0065871 0.317 0.16541 0.1373 0.183 0.2468 0.23463 0.046046 
0.18202 0.36041 0.20043 0.19829 0.13072 0.1784 0.33755 0.15094 
0.15472 0.2052 0.10458 0.16064 0.05065 0.099481 0.30516 0.23249 
0.08715 0.041607 0.014315 0.089287 0.014972 0.11625 0.17084 0.26028 
0.072188 -0.010676 0.014315 0.062159 -0.026131 0.05772 -0.018733 0.22033 
0.10113 0.0042853 0.05624 0.077614 -0.048656 -0.034516 -0.043888 -0.068386 
0.094548 0.071037 0.027796 0.089287 -0.088115 -0.21751 -0.23592 -0.53828 
0.0689 0.031414 -0.0032777 0.057884 -0.093541 -0.33408 -0.59418 -0.40987 
-0.032708 -0.0062372 -0.018568 0.040621 -0.0072237 -0.17723 -0.37683 0.033715 
-0.093212 -0.03764 -0.0052507 0.041936 0.054432 0.025166 0.15801 0.18317 
-0.066084 0.018096 0.0324 0.052623 0.079916 0.10803 0.34512 0.12628 
0.086163 0.090931 0.061337 0.072024 0.040128 0.13647 0.28165 0.10524 
0.13154 0.086328 0.016452 0.096521 0.040785 0.078765 0.18498 0.13993 
0.089452 0.08567 0.013657 0.07301 0.017274 0.053609 0.087314 0.29053 
0.016288 0.087808 0.018425 0.058871 0.010369 0.0324 0.1562 0.20914 
0.0028056 0.064132 0.037332 0.07301 0.026974 0.048677 0.12595 -0.095349 
-0.078086 0.041936 0.037004 0.073339 0.026646 0.052459 -0.015938 -0.32569 
-0.057863 0.047197 0.046868 0.073175 0.049664 0.048184 -0.066248 -0.25236 
0.025988 0.05476 0.088958 0.11296 0.047691 -0.001798 -0.0060728 0.0421 
0.091425 0.074326 0.052623 0.11773 -0.017582 -0.027282 0.11165 0.16821 
0.087314 0.029605 0.0026412 0.073175 -0.0091966 -0.023829 0.18481 0.16738 
0.13976 0.041772 -0.024158 0.038648 0.0021479 0.050486 0.27392 0.23035 
0.22016 0.12513 0.042429 0.067091 -0.011663 0.028619 0.10852 0.20438 
0.11296 0.15144 0.10787 0.10408 0.013328 0.0085601 -0.036654 0.01826 
-0.037147 0.091096 0.10129 0.13056 0.020727 -0.012978 -0.17772 -0.34953 
-0.094034 0.055747 0.045553 0.13319 0.0060938 -0.0771 -0.33917 -0.4416 
-0.011827 0.055089 0.0011614 0.074819 -0.028762 -0.035667 -0.20649 -0.1085 
0.012999 -0.0032777 -0.051944 0.021713 -0.068057 -0.0059084 -0.10209 0.18514 
-0.010841 -0.042079 -0.018568 0.023686 -0.05326 -0.012485 -0.069372 0.56987 
0.046868 0.065283 0.13302 0.10556 -0.029748 0.013164 0.039799 0.64205 
0.077778 0.21326 0.18514 0.17659 -0.031721 -0.030735 0.0046141 0.26603 
0.088794 0.32473 0.14519 0.20898 -0.048327 -0.10521 -0.066248 -0.18611 
0.16393 0.3461 0.087643 0.15242 -0.049149 -0.12001 -0.013636 -0.23609 
0.29004 0.33509 0.094384 0.14585 0.029112 -0.10505 0.25123 -0.050958 
0.2514 0.28247 0.12727 0.16344 0.22378 0.045882 0.41548 -0.019719 
0.12743 0.14009 0.079751 0.13302 0.25732 0.13236 0.32456 -0.078744 
-0.037969 -0.19811 -0.055726 0.027468 0.15834 0.17462 -0.018404 -0.21965 
-0.10587 -0.33194 -0.13547 -0.020212 0.093069 0.19385 -0.34329 -0.14517 
-0.14681 -0.15947 -0.030077 0.0036276 0.029112 0.13121 -0.40872 0.090109 
-0.33358 -0.12248 0.032729 0.045553 -0.00064712 0.039305 -0.16095 0.32045 
-0.32257 -0.13152 0.042429 0.063639 -0.013965 0.039634 0.20865 0.36912 
-0.063618 0.029441 0.12464 0.12398 0.010697 0.040621 0.42584 0.1909 
0.20553 0.2246 0.17922 0.17347 0.00050378 -0.026953 0.27113 -0.14484 
0.23052 0.19698 0.1179 0.17922 -0.057041 -0.16342 -0.072003 -0.29758 
0.17478 0.12316 0.032236 0.11362 -0.054739 -0.1718 -0.15536 -0.17049 
0.068242 0.057062 0.0011614 0.073504 -0.043395 -0.11837 -0.093212 0.041607 
0.058049 0.06742 -0.0088678 0.048019 -0.032379 -0.083676 -0.15783 0.12069 
0.073504 0.11066 0.032071 0.060022 -0.0070593 -0.025309 -0.23247 0.0227 
0.095042 0.14026 0.083697 0.093069 0.051801 0.080738 -0.078908 0.051965 
0.10178 0.18037 0.092411 0.12217 0.086985 0.17643 0.13631 0.1345 
0.049828 0.147 0.092082 0.12924 0.090274 0.18448 0.2052 0.1664 
-0.001798 0.044073 0.029934 0.098166 0.093069 0.13565 0.09685 0.23479 
-0.051944 -0.064275 -0.023007 0.046704 0.075805 0.080244 -0.0868 0.25748 
-0.11015 -0.096994 -0.042079 0.014315 0.069229 0.073668 -0.077757 -0.010183 
-0.12281 -0.09387 0.01711 0.019411 0.039305 0.075641 -0.024158 -0.16638 
-0.028433 -0.037311 0.049664 0.072517 0.09126 0.11658 0.073997 0.033387 
0.1294 0.077943 0.061501 0.099645 0.10721 0.14009 0.28675 -0.21291 
0.1271 0.047362 0.029769 0.081067 0.07597 0.060186 0.2925 -0.71042 
-0.04882 -0.1085 -0.0067304 0.048348 0.049335 -0.048163 0.08567 -0.78901 
-0.20386 -0.22129 -0.059507 0.0056006 0.072353 -0.073154 -0.13481 -0.303 
-0.2032 -0.14944 -0.02087 0.0065871 0.089616 -0.01676 -0.09946 0.26126 
-0.069865 -0.03205 0.035524 0.051636 0.0095465 -0.0047575 -0.024816 0.72606 
0.10326 0.071695 0.061995 0.096357 -0.03501 -0.021034 -0.077757 1.1843 
0.1659 0.16426 0.070873 0.10573 -0.048492 -0.025309 0.038812 1.0802 
0.17495 0.23282 0.06742 0.10754 -0.020706 0.05624 0.22082 0.30664 
0.14617 0.15094 0.0036276 0.070708 0.017603 0.084355 0.19188 -0.42648 
0.10524 0.092904 0.011026 0.052787 0.043745 0.048348 -0.016431 -0.64679 
0.074161 0.14141 0.053445 0.087972 0.02829 0.014315 -0.11689 -0.31846 
0.028783 0.18563 0.075476 0.13269 0.053445 0.049006 -0.018239 -0.05441 
-0.048985 0.059857 0.026974 0.090767 0.088465 0.086492 0.11609 0.0067515 
-0.090746 -0.14533 -0.084498 0.0072447 0.11625 0.12118 0.11198 -0.089595 
-0.071509 -0.21702 -0.13316 -0.050793 0.14009 0.18399 -0.017253 -0.070359 
-0.030406 -0.26009 -0.10078 -0.063124 0.084355 0.098823 -0.20978 0.007738 
-0.018239 -0.21702 -0.071345 -0.048985 -0.0019624 -0.001798 -0.047176 0.093891 
-0.060329 -0.17049 -0.10669 -0.035996 -0.059507 -0.078579 0.11609 0.094384 
-0.11442 -0.17295 -0.10521 -0.048656 -0.087293 -0.11656 0.13927 -0.097158 
-0.1233 -0.12675 -0.026789 -0.006566 -0.079566 -0.082525 0.17856 -0.26815 
0.056076 0.079916 0.091096 0.082546 -0.029913 -0.031886 0.13154 -0.066248 
0.25156 0.22575 0.12283 0.13006 0.036675 0.016781 -0.0087034 0.1567 
0.25683 0.19829 0.093069 0.12595 0.051143 0.025495 -0.15405 0.033387 
0.13384 0.15127 0.058377 0.14354 0.057227 0.040785 -0.17246 -0.008539 
0.025824 0.16475 0.064296 0.12085 0.04654 0.043416 -0.085978 0.32884 
0.042923 0.1881 0.070873 0.11477 0.049828 0.075148 0.068736 0.42436 
0.061008 0.13056 0.03947 0.094713 0.027303 0.080244 0.13138 0.14108 
0.037497 0.050979 0.026317 0.068078 0.0028056 0.097508 0.11905 -0.073811 
0.044567 0.045389 0.039963 0.066927 0.015794 0.10622 0.159 -0.04882 
0.072517 0.039305 0.040456 0.10359 0.023193 0.047197 0.20651 0.066763 
0.069064 -0.017911 0.027468 0.082875 -0.0029489 -0.040435 0.16163 0.035524 
-0.067892 0.00083261 0.025166 0.074326 -0.012156 -0.063782 -0.00097594 -0.089266 
-0.058028 0.043909 0.048348 0.08156 0.041278 -0.056219 -0.17049 -0.076935 
0.065776 0.089945 0.079422 0.10228 0.11987 0.027961 -0.15224 0.01563 
0.21474 0.15341 0.14371 0.15012 0.1738 0.14601 0.030098 0.22049 
0.28708 0.19517 0.14305 0.19418 0.20651 0.25781 0.46382 0.40677 
0.22411 0.099974 0.04506 0.12217 0.031249 0.23134 0.64764 0.32012 
0.093562 0.042265 -0.07973 0.018754 -0.07266 0.070051 0.42634 -0.062467 
-0.038133 0.060515 -0.046847 0.0013258 -0.14928 -0.21422 -0.19252 -0.51822 
-0.2425 -0.063618 -0.031557 -0.010841 -0.18841 -0.37551 -0.93468 -0.74659 
-0.46068 -0.33194 -0.12429 -0.065919 -0.14434 -0.30613 -0.84639 -0.2254 
-0.25516 -0.3571 -0.20584 -0.11755 -0.10078 -0.11163 0.067749 0.68249 
0.21424 -0.11738 -0.13645 -0.091732 -0.026953 0.048677 0.43752 0.70765 
0.36353 0.11313 0.039141 0.027796 0.058706 0.11691 0.12299 0.11477 
0.095042 0.11099 0.1613 0.1373 0.1345 0.26866 -0.056877 -0.48369 
-0.18709 0.091425 0.19155 0.19451 0.21243 0.47254 -0.027775 -0.56804 
-0.1381 0.2103 0.26916 0.256 0.2468 0.41828 0.15867 -0.041751 
0.13467 0.35613 0.31782 0.32308 0.14108 0.1641 0.25584 0.53715 
0.256 0.3198 0.23134 0.293 -0.011334 -0.15832 0.11148 0.51874 
0.22312 0.26225 0.15522 0.23151 -0.093212 -0.31764 0.026481 0.12365 
0.22707 0.37224 0.13713 0.20323 -0.03616 -0.22639 -0.0013048 -0.14911 
0.23364 0.3974 0.14963 0.20027 0.027139 -0.10423 -0.039613 -0.12626 
0.18662 0.3124 0.13598 0.17347 0.028783 -0.012485 0.080573 -0.059178 
0.080573 0.19122 0.067913 0.13401 0.027961 0.0019835 0.12809 -0.0042642 
-0.036489 0.014643 -0.079072 0.047691 0.027303 0.0080668 -0.017582 -0.012156 
-0.05589 -0.058685 -0.060329 0.01004 0.034537 0.045224 -0.025309 0.028619 
-0.04882 -0.038627 0.035195 0.056569 0.10639 0.20323 0.096028 0.065776 
-0.08384 -0.089924 0.016781 0.056733 0.088301 0.19287 0.14124 0.039963 
-0.033694 -0.16079 0.0011614 0.036839 0.016616 0.090274 0.049828 0.00099702 
0.1031 -0.096994 0.041278 0.064132 -0.018239 0.024837 -0.039284 0.016452 
0.12168 -0.014951 0.016781 0.082711 -0.011334 -0.012156 -0.050136 0.027796 
-0.0029489 0.012506 -0.043724 0.023193 -0.040435 -0.083676 -0.072332 -0.036489 
-0.051122 0.011684 -0.099789 -0.028926 -0.1108 -0.1108 -0.067728 -0.070687 
-0.045532 -0.046847 -0.10817 -0.054904 -0.086142 -0.036818 0.01563 -0.043395 
-0.0083746 -0.056055 -0.072332 -0.045368 0.020562 0.063474 0.16985 0.0062583 
0.027632 0.064954 0.033058 0.032893 0.11674 0.12529 0.23331 0.070215 
0.062488 0.15045 0.10228 0.13384 0.18432 0.093069 0.040292 0.17988 
0.09833 0.21276 0.1225 0.14897 0.13549 -0.034516 -0.20353 0.074654 
0.082875 0.21342 0.062652 0.11543 0.051143 -0.096665 -0.28525 0.013164 
0.052294 0.15456 0.047362 0.098166 0.058213 -0.0070593 0.097508 0.10885 
0.0064227 0.067585 0.080409 0.10047 0.027468 0.014643 0.37553 0.076299 
-0.0044286 -0.0057439 0.077121 0.086821 -0.0088678 -0.061151 0.25863 -0.054246 
0.018754 -0.072825 0.026481 0.087972 -0.042901 -0.011498 -0.11343 -0.26881 
0.073832 -0.1039 -0.01117 0.054432 -0.039449 -0.050464 -0.51263 -0.2277 
0.077778 -0.069208 0.0019835 0.053938 -0.050793 -0.0088678 -0.36417 0.069558 
0.020562 -0.066906 -0.024487 0.03092 -0.056712 0.057391 0.15456 0.41236 
0.042429 0.068736 -0.020212 0.023851 -0.045532 0.10211 0.40184 0.46119 
0.044073 0.069722 -0.018075 0.010533 -0.026624 0.042265 0.28099 0.015137 
-0.018404 -0.010512 -0.063289 0.016288 -0.0138 0.0052718 0.11494 -0.34509 
0.04095 0.056569 -0.013636 0.027796 0.065776 0.051965 0.049992 -0.21077 
0.11526 0.12365 0.096521 0.10178 0.16706 0.14371 -0.041586 0.032236 
-0.0055795 0.051143 0.1077 0.13861 0.17676 0.1174 -0.019061 0.075641 
-0.032708 0.066763 0.087808 0.1197 0.10836 0.085999 0.1174 0.099316 
0.16771 0.15604 0.064132 0.10063 0.13795 0.13417 0.28576 0.24877 
0.35334 0.18777 0.015465 0.090603 0.20339 0.25748 0.3535 0.24532 
0.27655 0.15407 0.0032988 0.058213 0.099974 0.1248 0.18136 -0.14665 
-0.056055 -0.035174 -0.0406 0.014972 -0.10932 -0.13201 -0.13415 -0.62558 
-0.54009 -0.44111 -0.19531 -0.10308 -0.22343 -0.40379 -0.53187 -0.81647 
-0.52677 -0.48057 -0.24431 -0.16605 -0.18183 -0.44062 -0.48386 -0.20896 
-0.09798 -0.13382 -0.036325 -0.056877 1.0539e-005 -0.17871 -0.17657 0.54373 
0.13615 0.13056 0.12233 0.097179 0.15259 0.10606 0.16821 1.1169 
0.16788 0.18925 0.13532 0.14568 0.11642 0.22986 0.54504 0.95427 
0.21983 0.2103 0.13072 0.16294 0.034044 0.19155 0.39822 0.38227 
0.082875 0.095206 0.0592 0.11921 -0.0055795 0.029605 -0.058685 -0.303 
-0.15618 -0.15257 -0.069043 0.024179 0.0036276 -0.050136 -0.22359 -0.66175 
-0.051287 -0.056383 -0.029584 0.011026 0.036017 0.0051074 -0.20074 -0.40034 
0.26817 0.19501 0.06183 0.06594 0.057555 0.089616 -0.16342 0.010533 
0.27968 0.27129 0.058706 0.09981 0.071037 0.15259 -0.028597 0.058871 
0.18119 0.21621 0.11855 0.14058 0.060022 0.17692 0.10441 -0.0036066 
-0.010019 -0.025802 0.084684 0.12677 0.0023123 0.11905 0.13664 -0.056383 
-0.22704 -0.29248 0.0069159 0.073668 -0.038133 0.076134 0.13236 -0.24628 
-0.19219 -0.22244 -0.009361 0.040785 -0.0026201 0.077778 0.17363 0.062488 
0.026152 -0.034516 0.023686 0.063803 0.089616 0.088465 0.18991 0.62429 
0.14437 0.13105 0.054925 0.10655 0.11346 0.040292 0.089616 0.68036 
0.147 0.18859 0.057227 0.10113 0.077943 -0.02498 -0.0503 0.1294 
0.038812 0.12628 0.069393 0.10458 0.062817 -0.090581 -0.17131 -0.29511 
-0.13021 0.062159 0.082875 0.11444 0.024344 -0.17706 -0.36466 -0.41892 
-0.16013 0.069064 0.10951 0.11707 -0.027282 -0.19268 -0.39014 -0.24003 
0.032564 0.13384 0.097179 0.12595 -0.030735 -0.054575 -0.023501 0.085999 
0.16031 0.14272 0.060515 0.13615 0.012342 0.075312 0.25255 0.13779 
0.15028 0.11855 0.035853 0.10359 0.041114 0.14601 0.31338 0.054267 
0.14321 0.12316 0.053116 0.098166 0.066434 0.18514 0.27984 0.12513 
0.082217 0.10129 0.065612 0.10425 0.064132 0.19764 0.183 0.14371 
0.027796 0.074983 0.071695 0.098988 0.00297 0.1105 -0.014622 0.091918 
-0.035996 0.012835 0.087479 0.079258 -0.0077169 -0.023007 -0.2037 0.080573 
0.011026 0.092411 0.038155 0.10984 0.035853 -0.08121 -0.19285 0.1299 
0.087479 0.11757 0.10425 0.12891 0.068078 -0.044381 -0.055397 0.21852 
0.079916 0.080573 0.059693 0.11099 0.077121 -0.018075 -0.075784 0.099316 
-0.05737 -0.084827 0.0021479 0.067091 0.0083956 -0.027282 -0.10916 -0.11409 
-0.12741 -0.10867 -0.0073881 0.037168 -0.045368 -0.059343 0.0062583 -0.20353 
-0.043066 -0.013965 0.046211 0.075641 -0.029584 -0.029913 0.14946 -0.1159 
0.15028 0.1202 0.06035 0.11247 -0.019061 -0.025309 0.13056 0.076134 
0.3341 0.17971 0.012835 0.077778 0.0093821 0.0072447 0.053445 0.2075 
0.16081 0.0047785 -0.049642 0.023522 -0.0052507 -0.0059084 -0.0068948 0.10326 
-0.19383 -0.1889 -0.055232 -0.00064712 -0.043066 -0.023994 0.0087245 -0.082854 
-0.3954 -0.27522 -0.058521 -0.018239 -0.061645 -0.035667 -0.0082102 -0.13432 
-0.19712 -0.085156 -0.00097594 0.0083956 -0.08269 -0.00031829 0.01267 -0.031886 
0.1516 0.19928 0.070215 0.08156 -0.024158 0.083204 0.10787 0.12118 
0.34364 0.34742 0.095535 0.12102 0.047691 0.14075 0.2856 0.20323 
0.29415 0.30533 0.11806 0.14963 0.085012 0.13615 0.41795 0.20668 
0.082217 0.17528 0.10967 0.15209 0.13401 0.12332 0.34824 0.088465 
-0.11541 0.013164 0.12266 0.14749 0.1391 0.044731 -0.10768 -0.071016 
-0.16424 -0.0021268 0.097015 0.12743 0.036346 -0.15717 -0.70812 -0.37337 
-0.071674 0.055911 0.041607 0.10343 -0.093376 -0.22162 -0.78309 -0.42138 
0.02829 0.093726 -0.010019 0.058049 -0.068386 -0.028597 -0.0072237 -0.21307 
0.13779 0.24433 0.082546 0.10606 0.038977 0.1105 0.5822 -0.055397 
0.22526 0.35679 0.22871 0.21243 0.020562 0.061501 0.4773 0.17297 
0.21326 0.2731 0.23594 0.24532 0.013328 0.016288 0.18251 0.57036 
0.16919 0.073668 0.077121 0.16541 0.13006 0.10474 -0.052273 0.59338 
0.095535 0.017603 -0.065755 0.057884 0.25107 0.28198 -0.11146 0.26669 
0.0070803 0.054596 -0.10094 0.0021479 0.22624 0.36189 0.23496 -0.10193 
-0.052602 -0.085156 -0.081539 -0.025474 0.13631 0.30763 0.39493 -0.41727 
-0.18364 -0.25319 -0.078908 -0.03616 0.045389 0.068078 0.042923 -0.49898 
-0.24677 -0.28886 -0.086142 -0.041586 0.0024767 -0.023994 -0.12807 -0.49898 
-0.16013 -0.16506 -0.07562 -0.050629 -0.073647 -0.07973 -0.014129 0.23446 
-0.046683 -0.034023 -0.0034422 -0.003771 -0.11196 -0.14961 0.098823 0.84954 
0.11033 0.20208 0.051636 0.085506 -0.061973 -0.14566 0.18744 0.70041 
0.20175 0.3655 0.11461 0.13154 -0.026131 -0.08384 0.15144 0.073175 
0.1733 0.38441 0.14404 0.16508 0.0074092 -0.044052 -0.040106 -0.38455 
0.087314 0.25074 0.12579 0.15818 0.032071 -0.027118 -0.24825 -0.57067 
0.022371 0.075805 0.094713 0.13532 0.014643 -0.069701 -0.36877 -0.30415 
-0.059178 -0.12396 0.040785 0.074819 0.11132 0.037497 -0.12889 -0.00031829 
-0.157 -0.32339 -0.071509 0.034702 0.089123 0.13072 0.078272 0.15209 
-0.12412 -0.37502 -0.055068 0.0083956 0.10195 0.21424 0.11231 0.21013 
-0.018239 -0.34838 -0.014622 0.021384 0.1276 0.23068 0.24548 0.27327 
0.060186 -0.21356 0.0021479 0.034537 0.098988 0.14765 0.16031 0.14141 
-0.052602 -0.11179 -0.038791 -0.00015387 0.035853 0.0039565 -0.0019624 -0.24118 
-0.08121 -0.0057439 -0.097651 -0.042244 -0.0087034 -0.13695 0.051636 -0.38817 
0.095699 0.00297 -0.16276 -0.081539 -0.053753 -0.13711 0.063474 -0.06707 
0.081395 -0.14254 -0.18693 -0.11919 -0.046847 -0.11968 -0.11524 0.14289 
-0.090581 -0.17016 -0.18874 -0.13152 -0.054575 -0.10686 -0.19137 -0.045039 
-0.15043 0.066105 -0.08532 -0.075784 -0.04882 -0.054082 -0.026624 -0.12873 
-0.0054151 0.31486 0.089945 0.061337 0.027468 0.076792 0.11066 -0.065097 
0.048513 0.3489 0.23364 0.18284 0.085012 0.21917 0.16377 0.19385 
0.11395 0.27919 0.25699 0.27458 0.11609 0.23627 0.19649 0.32917 
0.07597 0.18136 0.21917 0.2634 0.13697 0.17511 0.11987 0.22904 
0.046046 0.11411 0.10852 0.1909 0.050321 -0.031886 -0.058356 -0.11804 
0.069064 0.045882 -0.062631 0.055747 -0.017088 -0.13514 -0.22376 -0.20732 
0.080902 -0.092061 -0.15257 -0.05441 -0.041915 -0.11327 -0.31928 0.366 
-0.061316 -0.27703 -0.19942 -0.13004 -0.045368 -0.074469 -0.20715 0.7065 
-0.13136 -0.27407 -0.14796 -0.097158 -0.041257 -0.053588 0.060679 0.31256 
-0.18084 -0.1649 -0.035503 -0.034188 -0.030406 -0.03205 0.11313 -0.26601 
-0.17706 -0.0095255 0.065612 0.053116 -0.026296 -0.06148 0.022042 -0.42664 
-0.097651 0.11099 0.061172 0.074819 -0.053095 -0.077428 -0.0088678 -0.27127 
0.073504 0.0074092 -0.088937 -0.0095255 -0.02794 -0.012485 0.030263 -0.032708 
0.19073 -0.14056 -0.14237 -0.067892 0.094548 0.14157 0.16706 0.13976 
0.17626 -0.087622 -0.039613 0.009711 0.15916 0.21654 0.27738 0.21474 
0.064132 0.017274 0.1225 0.10967 0.16508 0.20323 0.2121 0.1322 
-0.019719 0.11378 0.1664 0.16738 0.11033 0.098988 0.065447 0.052623 
-0.015773 0.14634 0.13253 0.16179 -0.024652 -0.053917 -0.073647 -0.12478 
0.031085 0.17445 0.053281 0.1128 -0.14434 -0.1935 -0.19219 -0.16342 
0.1031 0.17478 0.04654 0.090274 -0.13941 -0.14566 -0.12478 0.12053 
0.15341 0.17922 0.059693 0.098988 -0.068714 -0.06855 0.010697 0.33541 
0.12053 0.18958 0.049006 0.11674 -0.01232 0.0016547 0.14733 0.20536 
0.097179 0.17741 0.048513 0.1026 0.028619 0.11592 0.27442 -0.06444 
0.084848 0.1659 0.067256 0.10935 0.069886 0.15045 0.18021 -0.19761 
0.10967 0.16442 0.070215 0.11 0.053774 0.088465 -0.032543 -0.044052 
0.067913 0.14782 0.058377 0.083862 -0.00081153 -0.081539 -0.39113 -0.10209 
-0.008539 0.11083 0.072188 0.099645 0.038155 -0.12346 -0.4495 -0.22047 
0.044073 0.14042 0.077121 0.15226 0.12085 0.081889 0.10836 0.04358 
0.12036 0.23315 0.15324 0.17906 0.09126 0.1567 0.36928 0.22838 
0.17445 0.45922 0.22674 0.23019 0.0032988 0.1031 0.25913 0.12825 
0.19912 0.49523 0.25058 0.2685 0.016123 0.01563 0.088301 -0.10489 
0.1202 0.24367 0.13286 0.20849 0.0011614 0.012506 0.0031344 -0.20764 
0.044402 0.022042 -0.0060728 0.092576 0.022864 0.018589 -0.017746 -0.063618 
0.020233 -0.045861 -0.065919 0.055089 0.031742 0.0082312 -0.01528 0.15407 
0.0786 0.023851 0.03092 0.071695 0.059364 0.0074092 0.0060938 0.25189 
0.1978 0.19369 0.17265 0.16442 0.026481 0.020562 0.079422 0.26192 
0.21441 0.28921 0.20882 0.21178 -0.018733 0.0092177 0.16508 0.25271 
0.058542 0.17988 0.14601 0.18448 -0.0047575 -0.0055795 0.16738 0.11214 
-0.13119 -0.048327 0.032236 0.094713 0.017767 0.013986 0.079916 0.044896 
-0.042244 -0.093048 -0.037805 0.062981 0.076134 0.061501 0.041772 0.084519 
0.15785 -0.0044286 0.031907 0.073668 0.10392 0.084519 0.043416 0.0075736 
0.13286 -0.037476 0.092247 0.11625 0.15966 0.14831 0.0047785 -0.26552 
-0.052602 -0.087293 0.11346 0.14272 0.18284 0.17791 -0.010676 -0.29593 
-0.023172 0.062488 0.078929 0.11806 0.085999 0.13664 0.019411 -0.11722 
0.16936 0.19599 0.01711 0.069722 -0.0082102 0.046704 0.019083 0.067091 
0.21917 0.1904 -0.03616 0.047691 -0.024652 0.040785 -0.029913 0.11198 
0.14075 0.13483 -0.004593 0.044731 -0.02794 -0.0040998 -0.052437 0.032729 
0.0028056 0.089287 0.062652 0.085341 -0.0011404 -0.0031133 -0.053588 -0.079237 
-0.10554 0.023028 0.081724 0.10935 0.052787 0.033058 0.045224 -0.074304 
-0.087786 0.019576 0.084684 0.11937 0.098166 0.080244 0.12529 0.078107 
0.024179 0.077943 0.10935 0.1276 0.12497 0.10408 0.15275 0.23496 
0.16179 0.10984 0.083533 0.13154 0.080573 0.074819 0.12908 0.30796 
0.19649 0.092576 0.055089 0.10984 0.027139 0.05476 0.10376 0.17314 
0.14239 0.047197 0.061008 0.10573 0.030756 -0.019884 0.015794 -0.063124 
0.091753 0.07301 0.069229 0.10787 0.039963 -0.056219 -0.10489 -0.20008 
0.06594 0.062159 0.076956 0.10951 0.018754 -0.070687 -0.14385 -0.093705 
0.04506 0.05476 0.076299 0.10392 -0.050629 -0.11146 -0.027447 -0.067399 
0.030427 0.036182 0.030592 0.090438 -0.094034 -0.15651 0.044567 -0.070523 
0.010369 -0.022843 -0.045861 0.044238 -0.078908 -0.13234 0.0072447 -0.012978 
-0.030077 -0.14796 -0.049149 0.015959 -0.063782 -0.098144 -0.048656 0.019411 
-0.1284 -0.21718 -0.017582 0.023028 0.0064227 -0.01232 -0.057699 0.062488 
-0.16079 -0.21784 0.0074092 0.043251 0.086163 0.083862 -0.0078813 0.27327 
-0.15569 -0.26387 -0.022185 0.022206 0.10162 0.12661 0.035031 0.35991 
-0.15816 -0.29511 -0.10193 -0.029748 0.069722 0.12349 0.14075 0.20635 
-0.08828 -0.24053 -0.1695 -0.063946 0.053938 0.16673 0.20224 0.07597 
0.03651 -0.0868 -0.096007 -0.052109 0.08304 0.14042 0.14601 -0.057041 
0.050157 -0.067399 -0.01676 -0.0067304 0.080738 0.085999 -0.063453 -0.25253 
0.0016547 -0.064604 0.0064227 0.026481 0.058213 0.09422 -0.20863 -0.19926 
0.1105 0.12776 0.042594 0.052294 0.049664 0.15883 -0.073318 0.23512 
0.22049 0.29596 0.090603 0.11181 0.065612 0.097672 0.20503 0.47484 
0.16114 0.28083 0.091589 0.14535 -0.074798 0.036346 0.40924 0.39608 
0.1881 0.256 0.099974 0.14601 -0.061151 -0.037805 0.36698 0.1368 
0.25633 0.23973 0.0062583 0.084519 -0.049478 -0.050793 0.23151 -0.23724 
0.17495 -0.050958 -0.14237 -0.031228 0.014972 -0.14467 -0.15898 -0.42467 
-0.1552 -0.41135 -0.19679 -0.11491 -0.011827 -0.29561 -0.55357 -0.267 
-0.53844 -0.5539 -0.13349 -0.12166 -0.046025 -0.29199 -0.44095 -0.14418 
-0.63019 -0.38192 -0.12593 -0.070359 0.012999 -0.13464 -0.11689 -0.15947 
-0.3395 -0.14944 -0.081703 -0.046354 0.087808 0.099974 0.17166 0.23858 
0.084519 0.018096 -0.020706 0.0036276 0.16163 0.28905 0.17495 0.53419 
0.33114 0.1179 0.049828 0.059528 0.13549 0.26439 0.026974 0.35728 
0.33213 0.21062 0.13615 0.1368 0.05624 0.12957 -0.067728 0.070708 
0.14716 0.1373 0.14404 0.15094 -0.00097594 0.026974 0.0083956 0.024673 
0.029934 0.092904 0.052952 0.147 0.072188 0.065612 0.13812 0.15061 
0.030756 0.11198 0.020398 0.098494 0.11411 0.097179 0.08715 0.060186 
-0.021856 0.056404 -0.016431 0.05476 0.078272 0.034702 -0.074962 -0.17131 
0.019411 0.089287 0.0085601 0.049992 0.0087245 0.01415 -0.059178 -0.20222 
0.10228 0.15818 0.057062 0.075641 -0.035503 0.01152 0.017767 -0.11623 
0.097179 0.16508 0.097837 0.10343 -0.047012 -0.014622 0.068078 -0.075291 
0.063474 0.14289 0.07301 0.13236 -0.042901 -0.028433 0.1174 0.043087 
0.10376 0.14354 0.083533 0.12957 -0.037147 -0.099953 0.11313 0.23545 
0.14601 0.16771 0.066105 0.11839 -0.032215 -0.16555 0.082875 0.26291 
0.13976 0.13187 0.06183 0.11083 -0.033037 -0.13695 0.14683 -0.075784 
-0.019884 -0.019884 0.0074092 0.065776 -0.018897 -0.080717 0.10293 -0.50457 
-0.16687 -0.11639 -0.025638 0.032564 -0.010676 -0.079401 -0.076935 -0.19449 
-0.10521 -0.058356 -0.027282 0.03388 -0.012814 -0.089102 -0.13612 0.71225 
0.0592 -0.030735 -0.010841 0.035524 -0.010019 -0.03353 -0.054739 0.80317 
0.15209 0.024673 0.026646 0.060186 -0.035338 0.11428 -0.084005 0.092411 
0.01415 -0.023007 0.023686 0.063639 0.024673 0.20569 -0.35825 -0.59369 
-0.13793 -0.018239 0.00050378 0.053281 0.18448 0.29267 -0.50605 -0.53137 
-0.20057 -0.045368 -0.057863 -0.00015387 0.23364 0.30648 -0.099789 -0.17854 
-0.1284 -0.0070593 -0.08828 -0.021856 0.19139 0.23989 0.39937 0.066269 
0.10211 0.1345 0.0060938 0.036839 0.15604 0.12201 0.51002 0.25748 
0.21605 0.15982 0.084519 0.092411 0.11576 -0.032215 0.26653 0.25025 
0.20043 0.17873 0.14042 0.14371 0.022206 -0.14023 -0.018404 0.00083261 
0.0786 0.18284 0.11987 0.15851 0.0046141 -0.10834 -0.16999 -0.16194 
0.051636 0.15522 0.058049 0.10869 -0.038627 -0.087786 -0.14155 -0.11311 
0.15933 0.13335 -0.0054151 0.067913 -0.10538 -0.083512 -0.071674 0.041278 
0.24762 0.26784 0.064132 0.12233 -0.1256 -0.096007 0.054596 0.17018 
0.24943 0.36896 0.17626 0.18563 -0.087786 -0.065262 0.10819 0.13993 
0.10556 0.29332 0.17232 0.19928 -0.052273 -0.038133 0.090109 -0.021363 
-0.048492 0.13598 0.13499 0.19237 0.10507 0.12365 0.10622 -0.22606 
-0.14287 0.011684 0.11461 0.16064 0.17873 0.2269 0.14552 -0.13974 
-0.11475 -0.076606 0.02681 0.10425 0.098659 0.14913 0.17248 0.053938 
0.068571 -0.073976 -0.011827 0.086492 0.030592 0.056404 0.12283 0.28806 
0.13401 0.031249 0.1419 0.14634 -0.021034 -0.0036066 0.11559 0.33394 
-0.046519 -0.079895 0.1345 0.15456 -0.044217 -0.0072237 0.052294 0.15538 
-0.26716 -0.36203 -0.076935 0.030756 -0.030242 -0.00064712 0.054596 -0.16375 
-0.2864 -0.4444 -0.23559 -0.11376 -0.0019624 0.060186 0.1664 -0.53137 
-0.1016 -0.24579 -0.20337 -0.14566 0.062323 0.10787 0.012506 -0.37485 
0.06479 0.038483 -0.075455 -0.043395 0.095206 0.12332 -0.19104 0.14272 
0.076463 0.18136 0.089287 0.066269 0.05772 0.05213 -0.3617 0.64797 
0.0051074 0.22789 0.16377 0.14913 -0.0050863 -0.091404 -0.50556 0.38852 
0.034373 0.26554 0.19944 0.20306 0.010533 -0.03057 0.01563 -0.1667 
0.14075 0.3387 0.19747 0.21769 0.058377 0.068407 0.45215 -0.46347 
0.19221 0.22641 0.12875 0.17626 0.038483 0.080573 0.39477 -0.27752 
0.11921 0.10326 0.038483 0.14075 -0.025967 0.035195 0.34462 0.18054 
0.095535 0.055254 0.0079024 0.090767 -0.089431 -0.068714 0.16311 0.27902 
0.051143 0.010204 0.0011614 0.062323 -0.035503 -0.053095 0.011848 0.020562 
0.020233 -0.046025 -0.017417 0.045389 0.0087245 0.010533 0.055747 0.15324 
-0.056548 -0.060987 -0.0052507 0.031742 0.0026412 -0.048327 0.013986 0.38457 
-0.1473 -0.075291 -0.0090322 0.022864 -0.00064712 -0.082525 0.010862 0.23545 
-0.18808 -0.13596 -0.042244 0.038155 -0.0080457 -0.061809 -0.045696 -0.28179 
-0.13678 -0.069536 -0.011498 0.040456 0.12546 0.1197 -0.10998 -0.56705 
0.059693 0.1054 0.088136 0.1077 0.18629 0.3244 -0.021856 -0.46462 
0.20586 0.27031 0.15078 0.1567 0.13006 0.26192 0.064625 -0.14467 
0.23611 0.25617 0.14437 0.1664 0.03092 0.15834 0.24959 0.33985 
0.13499 0.19912 0.16393 0.18004 -0.001798 0.053281 0.32012 0.58401 
0.1031 0.30796 0.19583 0.22822 -0.044546 -0.09946 0.18876 0.61837 
0.18547 0.36452 0.23381 0.25913 -0.056877 -0.19581 -0.047998 0.38573 
0.26176 0.25584 0.20947 0.25304 -0.018568 -0.20156 -0.26996 -0.14632 
0.1853 0.01152 0.052294 0.1539 0.070873 -0.1205 -0.23757 -0.50605 
0.069886 -0.10242 -0.090253 0.028125 0.070873 -0.024158 -0.12264 -0.39836 
-0.041586 -0.15881 -0.14582 -0.063453 0.032071 0.072681 -0.025967 -0.1279 
-0.28689 -0.31665 -0.22425 -0.13086 0.056898 0.20092 0.16327 0.02681 
-0.39277 -0.32849 -0.20699 -0.12922 0.14946 0.25699 0.10655 0.055747 
-0.24349 -0.1838 -0.080223 -0.064604 0.19583 0.18448 -0.10916 0.095206 
-0.038462 -0.016924 0.037826 0.023357 0.11937 0.01267 -0.10258 0.24647 
0.07597 0.07449 0.049006 0.059035 -0.040928 -0.15026 -0.0087034 0.29037 
0.087479 0.14058 0.021878 0.049664 -0.10801 -0.19466 0.069064 0.24433 
0.069722 0.079258 -0.022679 0.035195 -0.12248 -0.10752 0.14206 0.15834 
0.051965 -0.0057439 -0.089266 0.010862 -0.076935 -0.026953 0.19879 0.06479 
0.067585 -0.042901 -0.066906 -0.0077169 -0.022021 0.041936 0.12102 -0.027447 
0.12135 0.033551 -0.0032777 0.024015 0.030098 0.017603 -0.019061 -0.016266 
0.16262 0.064132 0.030756 0.061172 0.065776 0.026481 -0.099624 -0.014129 
0.15357 0.10474 0.056733 0.069393 0.021713 0.004943 -0.10308 0.016452 
