0.033715 0.16969 0.050486 0.11642 0.0080668 0.0088889 0.017603 -0.027118 
-0.022843 0.0072447 0.023851 0.065776 -0.0090322 -0.03764 0.0095465 0.0074092 
-0.018404 -0.047998 0.027632 0.089452 0.01711 -0.001798 0.034044 0.040456 
-0.030899 -0.030406 0.063145 0.10145 0.016616 0.013986 0.032729 0.10441 
-0.16391 0.0046141 0.08304 0.11691 0.036346 0.0080668 0.0064227 0.062981 
-0.22524 -0.1473 0.096028 0.12644 0.036346 0.0014903 0.030427 0.048513 
-0.11196 -0.24086 0.06594 0.1077 0.017767 0.0065871 0.0028056 0.060844 
0.12957 -0.21619 0.022371 0.068736 0.028619 0.04358 0.03388 0.078107 
0.22624 -0.10702 0.027796 0.095699 0.022535 0.05772 0.053116 0.018754 
0.13154 -0.01676 0.016123 0.07449 0.042594 0.027796 0.021878 -0.082361 
-0.056548 0.062652 0.0069159 0.061008 0.042594 0.023851 0.053281 -0.06707 
-0.20616 0.12579 -0.0013048 0.047526 0.0046141 0.031578 -0.00031829 -0.10373 
-0.093541 0.1493 -0.027775 0.02122 -0.0055795 0.0056006 -0.0021268 -0.047176 
0.23266 0.16969 -0.039284 0.0021479 -0.010183 -0.021528 -0.0039354 0.069064 
0.38655 0.13417 -0.067728 -0.010841 0.024673 0.0093821 0.023028 0.1493 
0.24548 0.059528 -0.069208 -0.0082102 0.037826 0.020069 0.029112 0.076299 
0.051636 0.12299 0.03651 0.047197 0.021384 0.014479 0.011191 0.016945 
0.028454 0.32128 0.12135 0.12053 0.028783 -0.02087 0.03799 1.0539e-005 
0.11296 0.42864 0.17018 0.17659 0.042758 0.0098754 0.015137 0.077943 
0.14371 0.33903 0.21704 0.21885 0.060515 0.054267 0.032564 0.14683 
0.10556 0.11494 0.19172 0.22312 0.073832 0.047691 0.033551 0.13746 
0.032071 -0.092883 0.087643 0.19287 0.063145 0.043416 0.031742 0.11559 
-0.084498 -0.21537 0.022371 0.11477 0.049499 0.036839 0.036346 -0.06148 
-0.23247 -0.31895 -0.069701 0.029605 0.043909 0.053116 0.062159 -0.15881 
-0.22754 -0.15799 -0.079566 -0.0088678 0.032893 0.037332 0.050979 -0.15125 
-0.05178 0.12612 0.036839 0.03947 0.055582 0.041114 0.039634 -0.03205 
0.094877 0.25666 0.11099 0.10902 0.069393 0.033222 0.036346 0.0062583 
0.069064 0.14667 0.12036 0.17182 0.046704 0.058049 0.047362 0.04917 
0.022206 -0.12774 0.13236 0.17676 0.021056 0.021878 0.067256 0.080738 
0.0026412 -0.3839 0.16788 0.19599 0.0067515 -0.0034422 0.042758 0.12168 
0.018425 -0.48928 0.17265 0.20323 -0.021528 -0.060329 0.024344 0.066598 
0.11296 -0.2859 0.21013 0.2269 -0.026953 -0.044874 -0.0039354 0.026481 
0.23693 0.096193 0.26505 0.26932 -0.01117 -0.035503 -0.047834 0.024673 
0.20997 0.3313 0.16114 0.25255 0.029605 0.01004 -0.018239 0.049828 
0.097179 0.3101 0.084848 0.17659 0.078765 0.051308 0.0069159 0.069393 
-0.019719 0.25584 -0.0036066 0.094055 0.077778 0.085012 0.038648 0.034373 
-0.052273 0.34216 -0.060658 0.024015 0.081067 0.077285 0.056569 0.025495 
-0.00031829 0.46958 -0.10801 -0.036325 0.064296 0.042758 0.063474 0.046375 
0.071859 0.41795 -0.14582 -0.084663 0.054596 0.031085 0.043909 0.091918 
0.18087 0.21441 -0.14763 -0.083512 0.058871 0.032729 0.072024 0.073339 
0.32982 0.013492 -0.038133 -0.028104 0.04917 0.036346 0.048019 0.047197 
0.36583 -0.10209 0.024344 0.014643 0.062817 0.093398 0.040128 0.0083956 
0.15752 -0.24562 -0.0050863 0.02533 0.05772 0.044402 0.058377 0.030263 
-0.15832 -0.29462 -0.072989 -0.008539 0.036346 0.031742 0.039305 0.031249 
-0.29972 -0.2425 -0.079237 -0.041257 0.0092177 -0.0082102 0.0075736 0.0227 
-0.28114 -0.13612 -0.053753 -0.027282 0.033551 -0.0013048 0.011355 0.0041209 
-0.17213 -0.083676 -0.10045 -0.042573 0.02829 0.0047785 -0.00064712 -0.00064712 
-0.11245 -0.054246 -0.10439 -0.052273 0.036346 0.007738 0.013657 -0.083018 
-0.11031 -0.13563 -0.061316 -0.036489 -0.0042642 -0.01117 0.0016547 -0.14467 
-0.094527 -0.14911 -0.077593 -0.038791 -0.015444 -0.018897 -0.0064016 -0.070523 
0.00033937 -0.029913 -0.017417 -0.0098543 -0.0044286 0.015137 0.0052718 0.013492 
0.096686 0.11329 0.040128 0.049006 0.026481 0.015137 0.03092 0.10244 
0.14634 0.066927 0.029769 0.079422 0.069393 0.021549 0.065118 0.12233 
0.16656 -0.01939 0.07301 0.10211 0.053774 0.043745 0.040785 0.1373 
0.15686 -0.041586 0.11806 0.1391 0.053116 0.064461 0.038648 0.10737 
0.16442 0.10688 0.12579 0.15472 0.045553 0.03799 0.018425 0.09126 
0.13203 0.21704 0.12595 0.14174 0.035031 0.020398 0.029441 0.045553 
0.060844 0.22855 0.059364 0.10836 0.028783 0.01974 0.0044497 0.036675 
-0.027118 0.19303 -0.073647 0.049664 0.029276 0.031414 0.011848 0.0052718 
-0.080388 0.093069 -0.14319 -0.044546 0.0011614 0.010533 0.0051074 0.0083956 
-0.06296 0.052787 -0.18742 -0.10373 0.0047785 0.0036276 0.020069 0.0018191 
-0.045368 0.093069 -0.18364 -0.12511 0.0080668 1.0539e-005 0.0044497 0.018425 
0.028619 0.2223 -0.087293 -0.082361 0.024508 0.019411 -0.0011404 0.021713 
0.065283 0.25469 0.0054362 -0.016924 0.043251 0.021878 0.010369 0.021878 
0.11017 0.27179 0.03947 0.072517 0.039141 0.011684 -0.00015387 0.049828 
0.15966 0.27491 0.10195 0.11806 0.061172 0.023686 0.054596 0.068571 
0.16196 0.16492 0.16393 0.17462 0.057227 0.055747 0.045553 0.10376 
0.13269 0.062323 0.17117 0.19583 0.053116 0.054432 0.032564 0.073504 
0.13516 0.058706 0.21013 0.22246 0.063474 0.039305 0.033058 0.070873 
0.10836 0.11494 0.29119 0.27771 0.050486 0.030756 0.053116 0.0592 
0.10425 0.10343 0.30845 0.34281 0.051308 0.060515 0.057227 0.063639 
0.017274 0.085999 0.26932 0.32144 0.047033 0.052952 0.037004 0.060022 
-0.060987 0.14026 0.17067 0.25584 0.046704 0.048841 0.023686 0.039963 
-0.094692 0.076463 0.04654 0.15275 0.033222 0.015794 0.012999 1.0539e-005 
-0.034681 -0.087622 -0.12182 0.0075736 0.031249 0.028783 0.035853 0.026317 
0.06479 -0.21915 -0.23576 -0.12725 0.010862 0.016616 0.018096 0.042429 
0.07449 -0.206 -0.22145 -0.14566 0.00017495 -0.0024557 0.01415 0.04095 
0.037332 0.024344 -0.048327 -0.054575 0.0013258 0.0039565 0.021384 0.035688 
0.0026412 0.3119 0.18695 0.12595 0.083204 0.033387 0.017767 0.015794 
0.024508 0.46201 0.27524 0.24104 0.035031 0.043087 0.044402 0.035524 
0.082217 0.36501 0.23792 0.26011 0.033222 0.030756 0.030592 0.054925 
0.066105 0.020233 0.12776 0.17445 -0.019884 0.049664 0.017767 0.030098 
0.041772 -0.27193 0.00066819 0.099481 0.0098754 0.022206 0.020562 0.049992 
0.0021479 -0.28196 -0.028104 0.061172 0.014315 0.0037921 0.031249 0.0026412 
-0.028269 0.019411 0.18974 0.17034 0.04358 -0.0096899 0.012506 -0.011827 
0.072024 0.29168 0.42354 0.3512 0.030427 0.01563 0.035524 0.005765 
0.18235 0.3928 0.43669 0.42617 0.058213 0.066434 0.036182 0.047033 
0.18859 0.25896 0.30401 0.35251 0.079422 0.084026 0.048841 0.097179 
0.12628 0.058049 0.147 0.24482 0.072188 0.057062 0.075641 0.10047 
0.040785 -0.063124 0.052787 0.17922 0.066434 0.070215 0.049828 0.075148 
-0.088937 -0.15668 -0.01117 0.08863 0.035195 0.048019 0.037168 0.037826 
-0.19893 -0.19449 -0.033694 0.040621 0.011684 0.016781 0.021713 0.0019835 
-0.11327 -0.17493 -0.042408 0.017932 -0.014787 -0.024816 0.020398 -0.035996 
0.06479 -0.10998 -0.11179 -0.046354 0.0016547 0.0065871 0.030263 -0.014458 
0.19418 -0.039942 -0.21011 -0.12379 -0.0064016 0.033387 0.026974 0.012835 
0.23216 0.081724 -0.28837 -0.17049 0.025001 0.03092 0.034373 0.022371 
0.19517 0.10441 -0.24546 -0.18627 0.010533 0.019905 0.01415 0.050321 
0.027632 -0.075291 -0.14846 -0.13399 0.0083956 0.031085 0.04358 -0.0070593 
-0.10932 -0.19071 -0.0088678 -0.028597 0.0011614 0.012835 0.023522 -0.015938 
-0.17723 -0.10045 0.12644 0.082382 -0.024652 -0.0096899 -0.0083746 -0.046519 
-0.2282 0.14026 0.27113 0.22871 -0.026953 -0.023994 -0.020377 -0.05737 
-0.33375 0.18695 0.30039 0.32029 -0.035667 -0.0016336 -0.0138 -0.11475 
-0.38866 -0.058192 0.15752 0.23989 -0.029584 0.0087245 0.0088889 -0.13399 
-0.33211 -0.38028 -0.074469 0.070051 -0.029255 0.0052718 -0.010183 -0.17098 
-0.17032 -0.50375 -0.26223 -0.10883 -0.017746 -0.03616 -0.01232 -0.11787 
0.085506 -0.26585 -0.31106 -0.20649 -0.0055795 -0.027611 -0.015773 -0.015609 
0.36419 0.052952 -0.27045 -0.22787 0.010369 0.013328 0.038648 0.098659 
0.30944 0.089452 -0.30547 -0.23724 0.03092 0.042594 0.051143 0.08863 
0.033387 -0.094856 -0.3155 -0.25779 0.060186 0.054103 0.06035 -0.012814 
-0.21685 -0.31057 -0.18348 -0.17953 0.071695 0.080409 0.046868 -0.048985 
-0.22688 -0.35529 -0.03912 -0.066577 0.043416 0.042429 0.016452 -0.013636 
-0.088937 -0.12988 0.073175 0.048841 0.022864 -0.0070593 0.012835 0.054267 
0.0085601 0.2024 0.19024 0.15078 -0.009361 -0.029255 -0.014787 0.017274 
0.1026 0.46875 0.24269 0.23973 0.0034632 0.014972 0.00066819 -0.12231 
0.19698 0.67263 0.2052 0.25255 0.053774 0.049335 0.01415 -0.15618 
0.29645 0.73116 0.17265 0.2292 0.059035 0.056076 0.061172 0.0072447 
0.35564 0.66605 0.1761 0.22296 0.068407 0.066763 0.08567 0.13351 
0.42354 0.5046 0.20487 0.23611 0.073175 0.082053 0.10458 0.15078 
0.37257 0.33969 0.22855 0.2491 0.041607 0.084848 0.10228 0.11411 
0.23742 0.33985 0.25567 0.27244 0.04358 0.023851 0.032071 0.040128 
0.070873 0.17528 0.11773 0.22098 0.053938 0.0052718 0.066105 0.024344 
-0.12494 -0.1667 -0.093705 0.053445 0.054267 0.038319 0.036839 0.0059294 
-0.27144 -0.52052 -0.19202 -0.075127 0.040456 0.042429 0.043745 0.0067515 
-0.32816 -0.67293 -0.23461 -0.14681 0.017767 0.023686 0.021056 -0.0032777 
-0.31122 -0.64235 -0.21603 -0.1718 0.0028056 -0.02235 -0.010019 -0.058028 
-0.36844 -0.71996 -0.27752 -0.22211 -0.039449 -0.063453 -0.081703 -0.15816 
-0.51904 -0.77487 -0.43059 -0.29347 -0.077922 -0.12231 -0.15109 -0.18791 
-0.49307 -0.55702 -0.38324 -0.31714 -0.074962 -0.13086 -0.15076 -0.12988 
-0.17936 -0.070359 -0.16884 -0.19301 -0.046354 -0.072825 -0.035832 0.068571 
0.13499 0.38819 0.052952 -0.010676 0.042923 0.039634 0.10655 0.21326 
0.37455 0.61985 0.17199 0.11872 0.055089 0.057062 0.16771 0.20734 
0.54143 0.69022 0.27458 0.22986 0.057555 0.047197 0.16311 0.14815 
0.46612 0.56214 0.25436 0.29628 0.088301 0.057884 0.10129 0.098494 
0.36632 0.36254 0.2657 0.30171 0.072188 0.08419 0.056404 0.085506 
0.38819 0.51676 0.40694 0.39723 0.069064 0.061501 0.047855 0.047691 
0.30878 0.74152 0.53748 0.50838 0.07449 0.068242 0.033715 0.048019 
0.17511 0.72475 0.54685 0.54175 0.057062 0.055582 -0.0022913 0.0085601 
-0.011334 0.45231 0.44261 0.48898 0.04654 0.0085601 -0.017417 0.013821 
-0.15322 -0.028926 0.17199 0.3364 0.0093821 -0.019226 -0.0036066 0.03388 
-0.28656 -0.43042 -0.026624 0.13861 -0.0070593 -0.015773 0.012506 0.038155 
-0.33802 -0.46133 -0.085978 0.031085 -0.004593 0.0051074 -0.0026201 0.028125 
-0.14056 -0.16375 -0.047012 0.010533 0.013164 0.013328 0.0070803 0.097837 
0.095699 -0.030735 -0.082032 -0.025474 0.045553 0.021384 0.023522 0.13845 
0.097179 -0.22672 -0.17772 -0.10291 0.053281 0.022042 0.048841 0.17051 
0.051801 -0.44637 -0.27851 -0.18117 0.018425 0.036017 0.038812 0.15703 
0.087808 -0.43338 -0.29248 -0.21323 0.018096 0.029441 0.0041209 0.12792 
0.075148 -0.27045 -0.16588 -0.15306 0.017274 0.0067515 0.028125 0.10244 
0.081231 0.0088889 0.027139 -0.012156 0.017932 0.028454 0.028454 0.11165 
0.15653 0.28428 0.18103 0.13302 0.045224 0.041114 0.047526 0.084519 
0.23183 0.30089 0.18613 0.17626 0.027139 0.024179 0.029934 0.028125 
0.17708 0.074819 0.051636 0.12233 -0.0029489 -0.0036066 0.019576 -0.013471 
0.038812 -0.17525 -0.15191 0.0023123 -0.019226 -0.0054151 0.010533 -0.036818 
-0.078579 -0.2647 -0.25927 -0.13053 -0.0055795 0.0011614 0.043909 0.039634 
-0.18249 -0.16983 -0.18315 -0.12971 0.031578 0.024673 0.045553 0.088136 
-0.15964 0.10376 -0.0047575 -0.021034 0.031414 0.037497 0.034866 0.10014 
-0.074469 0.31092 0.17396 0.11559 0.074983 0.0421 0.030592 0.094877 
-0.028269 0.29069 0.26324 0.22838 0.075476 0.064132 0.015465 0.095535 
-0.071181 0.21638 0.23956 0.28527 0.066763 0.056569 0.032071 0.053609 
-0.20814 0.11346 0.19895 0.26159 0.056733 0.033058 0.039634 0.0036276 
-0.069865 0.064461 0.17412 0.23035 0.074983 0.058049 0.044402 -0.015609 
0.28658 0.16344 0.081067 0.17018 0.013821 0.06742 0.047362 0.041278 
0.44705 0.29793 0.053281 0.11494 0.011684 0.050321 0.048019 0.08715 
0.31914 0.16969 -0.0022913 0.059693 -0.01232 0.024508 0.031907 0.088301 
0.16344 -0.10489 -0.10998 0.0034632 -0.031557 0.0013258 0.028947 0.06035 
0.17593 -0.17394 -0.071838 -0.021034 -0.018568 0.018918 0.035031 0.036839 
0.14782 -0.021692 0.071037 0.067749 -0.028926 0.01415 0.050486 0.033551 
0.042758 0.07449 0.14157 0.13828 -0.0032777 0.017603 0.054596 -0.0078813 
-0.1478 -0.038791 0.073668 0.11806 0.012999 0.013328 0.012342 -0.029748 
-0.21915 -0.050464 -0.11311 -0.0098543 0.015794 0.034373 0.011684 -0.090253 
-0.17509 0.10162 -0.27818 -0.13941 0.01563 0.0032988 -0.0098543 -0.10143 
-0.041751 0.24778 -0.33178 -0.22425 0.027632 0.00083261 0.03536 -0.08269 
0.18103 0.35547 -0.18446 -0.16555 0.071695 0.062323 0.06331 -0.0029489 
0.35547 0.52301 0.10721 0.032893 0.085835 0.10672 0.042429 0.076463 
0.46185 0.64188 0.3831 0.28297 0.086163 0.097344 0.015465 0.10392 
0.43867 0.56165 0.47944 0.4145 0.10293 0.091753 0.0080668 0.1003 
0.27935 0.27951 0.41368 0.44409 0.059035 0.078436 0.037004 0.099481 
0.0021479 -0.11343 0.2759 0.37011 0.013986 0.059528 0.046211 0.11214 
-0.15043 -0.40691 0.13894 0.25156 0.0036276 0.031414 0.048677 0.13088 
-0.19137 -0.5197 -0.042079 0.093233 0.0019835 0.016452 0.018589 0.089945 
-0.3224 -0.54749 -0.1912 -0.051287 0.0092177 0.007738 0.013164 -0.14434 
-0.39195 -0.40067 -0.14599 -0.090417 0.022206 0.024673 -0.01232 -0.24743 
-0.32536 0.0065871 0.0074092 0.00033937 0.0079024 0.028783 -0.01117 -0.17065 
-0.1838 0.34775 0.068242 0.084684 0.025495 0.0026412 -0.019555 -0.023501 
0.058213 0.6141 -0.059343 0.020562 -0.0016336 -0.0029489 -0.04323 0.037168 
0.34068 0.71916 -0.15125 -0.059672 -0.017088 -0.012649 -0.014129 0.069722 
0.48964 0.41368 -0.067399 -0.033201 0.025659 0.0037921 0.021549 0.089287 
0.48503 0.021384 0.17511 0.11855 0.059528 0.047033 0.051143 0.12579 
0.32029 -0.19449 0.33278 0.26537 0.079587 0.071366 0.066763 0.086821 
0.093233 -0.14796 0.3313 0.35432 0.042429 0.064132 0.059528 0.038977 
-0.10817 -0.009361 0.36435 0.38457 0.021384 0.041607 0.041443 0.027468 
-0.087786 0.089616 0.34199 0.38392 0.013164 -0.0068948 0.018589 0.055747 
-0.065919 0.051965 0.17347 0.28247 0.00066819 0.0087245 0.013492 0.065447 
-0.13859 -0.11804 -0.13908 0.035524 -0.0057439 0.00083261 -0.0057439 -0.062467 
-0.16884 -0.14747 -0.35052 -0.17789 -0.0047575 -0.0096899 0.0065871 -0.14928 
-0.14698 -0.10324 -0.45081 -0.29297 -0.0088678 -0.038956 -0.0082102 -0.14632 
-0.031064 0.11576 -0.26026 -0.23855 0.01974 -0.018075 -0.012156 -0.026131 
0.089287 0.23677 0.013657 -0.051122 0.044402 0.018918 -0.0021268 0.070708 
-0.0021268 0.019083 0.096357 0.064954 0.064625 0.033387 0.019411 0.10951 
-0.18791 -0.38833 -0.091075 -0.020541 0.082711 0.04917 0.040621 0.058542 
-0.24793 -0.705 -0.26042 -0.15388 0.080738 0.031249 0.027303 0.044073 
-0.085978 -0.58119 -0.14681 -0.099295 0.079587 0.042758 0.036017 0.077614 
0.1271 -0.1085 0.08978 0.047691 0.086163 0.036182 0.033222 0.13121 
0.18991 0.41433 0.31864 0.23562 0.059857 0.036675 0.071859 0.13779 
0.15226 0.63679 0.46991 0.40266 0.066434 0.029605 0.04358 0.068736 
0.20635 0.81172 0.43078 0.43867 0.063639 0.068571 0.048019 0.039963 
0.41762 0.77539 0.30648 0.36846 0.1026 0.066763 0.064132 0.10441 
0.53205 0.54258 0.11494 0.24597 0.13253 0.072681 0.083862 0.23364 
0.42469 0.14765 -0.080717 0.070215 0.064954 0.043087 0.071859 0.2029 
0.14075 -0.24283 -0.21866 -0.087293 0.0092177 -0.0098543 0.015465 0.090274 
-0.18348 -0.57757 -0.28327 -0.18282 -0.025967 -0.039942 -0.042408 -0.12067 
-0.36137 -0.77832 -0.10439 -0.10604 -0.0013048 -0.017417 -0.0055795 -0.23411 
-0.43388 -1.2334 -0.25417 -0.18331 0.037168 0.039634 0.041607 -0.20616 
-0.51362 -1.8029 -0.74939 -0.51428 -0.024816 -0.0062372 0.032893 -0.13875 
-0.6246 -1.6627 -0.85067 -0.66488 -0.088773 -0.094856 -0.021363 -0.19959 
-0.6583 -0.79624 -0.33983 -0.42582 -0.11557 -0.12116 -0.057041 -0.16375 
-0.35578 0.23907 0.40694 0.1248 -0.064768 -0.07414 -0.050464 -0.0091966 
0.046704 1.0983 0.92698 0.64353 -0.0080457 -0.032215 -0.0016336 0.12858 
0.32325 1.4899 0.96282 0.83688 0.054103 -0.011827 0.0060938 0.088794 
0.40348 1.4135 0.45938 0.61229 0.073997 0.058706 0.052459 -0.13136 
0.43012 1.2272 -0.016102 0.28182 0.1322 0.15127 0.10491 -0.26174 
0.50969 1.0103 -0.14007 0.053938 0.13878 0.14009 0.082711 -0.15437 
0.57316 0.79446 0.021384 0.066927 0.10491 0.072846 0.066269 0.065118 
0.51545 0.49917 0.21753 0.18251 0.079751 0.028125 0.040621 0.21506 
0.29431 0.27935 0.32752 0.28724 0.076956 0.03947 0.028454 0.20865 
0.017603 0.046704 0.27212 0.29464 0.070708 0.05213 0.0689 0.13582 
-0.097651 -0.133 0.20471 0.28987 0.075805 0.064954 0.096357 0.12135 
-0.025967 -0.38291 0.20536 0.25436 0.088794 0.0786 0.090767 0.13434 
-0.00097594 -0.71815 0.19007 0.24005 0.056569 0.085012 0.075476 0.1008 
-0.16605 -1.1364 -0.11574 0.031742 -0.0034422 0.022371 0.039141 -0.055068 
-0.32717 -1.3654 -0.69562 -0.40889 -0.076442 -0.06 -0.027447 -0.23116 
-0.19285 -1.2083 -1.1455 -0.8454 -0.088773 -0.087951 -0.018568 -0.29445 
-0.063124 -0.61786 -1.1277 -0.96247 -0.031557 -0.018568 0.0069159 -0.17197 
-0.064768 -0.1358 -0.70812 -0.76353 0.01415 -0.0042642 0.031085 0.014808 
-0.30991 0.10408 -0.4347 -0.53713 0.007738 -0.019226 0.010204 -0.010512 
-0.40395 0.48585 -0.22721 -0.32158 -0.021528 -0.038298 -0.024158 -0.063289 
-0.36104 0.92254 0.076134 -0.053917 0.0032988 0.0023123 -0.021528 -0.081868 
-0.22672 1.0787 0.48405 0.29415 0.029934 0.016945 -0.011334 -0.031392 
0.14305 1.0973 0.85398 0.68693 0.071366 0.064132 0.048348 0.10326 
0.44442 1.0874 1.0917 0.95674 0.085177 0.078929 0.032236 0.15111 
0.57842 0.83145 1.0368 1.0238 0.072024 0.055911 0.05065 0.13187 
0.56313 0.48947 0.78164 0.8913 0.0421 0.032071 0.02829 0.11839 
0.31601 0.051308 0.4436 0.63728 0.04506 0.043416 0.038483 0.085177 
-0.076606 -0.34427 0.12677 0.33936 0.049992 0.031249 0.027961 0.06331 
-0.27209 -0.56031 0.010204 0.16442 0.021713 0.034373 0.033551 0.031085 
-0.20271 -0.42763 0.025166 0.12891 -0.01939 0.021878 0.022371 0.045718 
-0.021034 -0.24053 -0.072989 0.030098 -0.010841 0.0011614 0.016123 0.080409 
0.013164 -0.24184 -0.39031 -0.20518 -0.014951 -0.0064016 0.011355 0.1054 
0.079751 -0.10094 -0.52299 -0.37107 -0.026789 0.010533 0.0080668 0.14585 
0.067913 0.073504 -0.43338 -0.38225 -0.0016336 -0.0083746 0.038483 0.1858 
0.027961 0.13795 -0.31649 -0.31172 0.01826 0.010697 0.014315 0.12184 
-0.016431 0.12513 -0.2277 -0.2134 0.041278 0.050814 0.024015 0.00017495 
-0.016266 0.13697 -0.010841 -0.061316 0.066434 0.06331 0.030756 -0.022843 
0.0070803 0.17593 0.13878 0.088301 0.073175 0.069558 0.037661 0.032071 
0.033551 0.11231 0.086985 0.1128 0.054103 0.039963 0.067256 0.15785 
0.057391 0.0088889 -0.121 -0.018075 0.028947 0.037826 0.03536 0.21342 
0.13746 0.15719 -0.2619 -0.15273 -0.015938 0.035031 0.037332 0.24877 
0.27507 0.52318 -0.21998 -0.12988 0.029934 0.057227 0.051472 0.28067 
0.34561 0.70847 -0.0059084 -0.020706 0.071366 0.088136 0.10425 0.26406 
0.29727 0.55293 0.19961 0.14338 0.10195 0.13269 0.12398 0.20816 
0.18695 0.32752 0.4316 0.3415 0.10228 0.13878 0.13483 0.17593 
-0.0096899 0.23381 0.56494 0.49375 0.083204 0.10343 0.09685 0.15982 
-0.14928 0.11313 0.56905 0.54373 0.047362 0.056569 0.049828 0.13105 
-0.14007 -0.10127 0.44919 0.52696 -0.017253 -0.0088678 0.026974 0.10754 
0.18333 -0.24825 0.31733 0.41992 -0.083676 -0.061316 -0.035832 0.13269 
0.24285 -0.26453 0.37438 0.41894 -0.09091 -0.087129 -0.017746 0.11839 
-0.025309 -0.26733 0.37389 0.41828 -0.057699 -0.051944 -0.028104 -0.040435 
-0.20764 -0.24776 0.24269 0.32752 -0.049478 -0.0016336 0.0016547 -0.15306 
-0.25927 -0.36186 -0.15339 0.041772 -0.031064 -0.0091966 -0.013471 -0.2208 
-0.24102 -0.43388 -0.50688 -0.2545 -0.018075 0.0034632 -0.040435 -0.12922 
-0.048985 -0.20452 -0.58793 -0.42385 -0.020377 -0.0095255 -0.08121 -0.0098543 
0.18087 0.15637 -0.34789 -0.33901 -0.0080457 0.024179 -0.10176 0.12628 
0.32012 0.29974 -0.05178 -0.13201 -0.0072237 0.010204 -0.038462 0.21786 
0.28593 0.12135 0.033551 -0.016102 -0.0039354 0.013657 0.042594 0.24762 
0.20158 0.011026 0.08304 0.059693 0.015959 0.027632 0.093233 0.18843 
0.23529 0.28543 0.22723 0.19747 0.03947 0.067749 0.096028 0.12792 
0.15308 0.402 0.25584 0.26061 0.059364 0.058542 0.084848 0.09126 
0.019905 0.22312 0.0075736 0.12529 0.045389 0.040621 0.056404 0.090109 
-0.24546 -0.0062372 -0.091568 0.019576 0.040456 0.0324 0.032071 0.071366 
-0.43963 -0.19202 0.10951 0.10343 0.021056 0.013492 0.010862 -0.03764 
-0.36367 -0.31303 0.30845 0.24877 0.00066819 -0.011498 -0.034023 -0.07825 
-0.099624 -0.076442 0.37504 0.35103 -0.0091966 -0.032379 -0.0021268 -0.093705 
0.012999 0.11855 0.20372 0.29119 0.01152 -0.035996 0.027139 -0.062796 
0.019576 -0.022679 -0.061645 0.098494 -0.012156 0.0062583 0.029276 -0.043395 
-0.040928 -0.22573 -0.092554 0.009711 -0.0027845 0.022535 0.081724 -0.00064712 
0.023522 -0.23822 0.0090533 0.042594 0.014808 0.020891 0.10277 0.0059294 
0.1419 -0.28064 0.03651 0.057062 0.028125 0.030263 0.084519 0.00033937 
0.34495 -0.10357 0.18202 0.14848 0.022535 0.035195 0.047362 0.044073 
0.59355 0.26685 0.27376 0.27984 0.023522 0.017932 0.020398 0.13302 
0.4408 0.32226 0.1368 0.21145 0.013492 0.013328 0.01826 0.12579 
0.18826 0.2246 -0.077593 0.056733 0.0095465 0.021384 0.050814 0.055582 
0.096357 0.22098 -0.36811 -0.1843 -0.025309 -0.0064016 0.037168 -0.07003 
-0.1769 0.17676 -0.63989 -0.44588 -0.047669 -0.056877 -0.0070593 -0.13316 
-0.33227 0.063968 -0.69973 -0.58267 -0.047341 -0.043395 -0.016102 -0.082032 
-0.090581 -0.069536 -0.56459 -0.50638 0.011355 0.020727 -0.023829 0.023357 
0.14848 -0.023665 -0.26009 -0.31912 0.096193 0.073997 -0.016595 0.066105 
0.073175 -0.10341 -0.070852 -0.13464 0.11937 0.10014 -0.0067304 -0.02087 
-0.29445 -0.40083 0.0019835 -0.030735 0.13401 0.072846 0.0013258 -0.030242 
-0.53384 -0.6269 0.17824 0.11296 0.076792 0.073668 0.03092 -0.042408 
-0.43075 -0.58432 0.49588 0.36238 0.047033 0.045389 0.074983 -0.02087 
-0.43585 -0.62443 0.35876 0.39362 -0.0054151 -0.022843 0.034373 -0.13941 
-0.51082 -0.50145 0.090438 0.22542 -0.04619 -0.076277 -0.071016 -0.18841 
-0.59648 -0.021199 0.1031 0.18267 -0.049807 -0.088937 -0.14089 -0.19022 
-0.26042 0.487 0.17544 0.20586 -0.050136 -0.10028 -0.12757 -0.12988 
0.28313 0.5383 0.16853 0.20635 -0.055726 -0.10094 -0.030242 -0.029748 
0.51759 0.29053 -0.01676 0.079258 -0.055068 -0.07414 0.024344 0.091096 
0.41861 -0.059343 -0.35595 -0.15076 -0.021034 0.012342 0.10392 0.19188 
0.22575 -0.36893 -0.61309 -0.40297 0.065776 0.081231 0.16985 0.20799 
0.1151 -0.32421 -0.43766 -0.38488 0.13582 0.10918 0.18119 0.061337 
0.071366 -0.024652 0.020233 -0.097651 0.1299 0.12776 0.17084 -0.11968 
0.092247 0.2879 0.33246 0.18974 0.087808 0.11 0.092904 -0.097158 
0.10984 0.56033 0.44935 0.3678 0.033058 0.03536 0.0227 -0.050793 
0.036182 0.50427 0.23693 0.30598 0.0037921 -0.024487 -0.039613 -0.013965 
-0.096994 0.39066 -0.013965 0.147 0.016616 -0.035832 -0.01676 -0.037805 
-0.13152 0.24219 -0.045532 0.059035 0.052623 0.0067515 -0.010019 -0.019555 
0.040621 0.12579 0.050814 0.083533 0.090438 0.047197 0.011026 0.062652 
0.31075 0.15407 0.10902 0.13006 0.14124 0.091096 0.041936 0.17347 
0.47204 0.33114 0.079587 0.11592 0.15489 0.1105 0.061501 0.19221 
0.35136 0.341 -0.11426 -0.015116 0.13171 0.16459 0.049664 0.17133 
0.19385 0.25765 -0.25269 -0.10275 0.10491 0.078107 0.03947 0.11642 
0.10951 0.15949 -0.17345 -0.11985 0.095206 0.06479 0.0064227 0.093726 
0.095864 0.026974 -0.14763 -0.10916 0.057391 0.051143 0.040292 0.10935 
-0.11146 -0.18397 -0.11623 -0.077922 0.022042 0.052952 0.079258 0.04917 
-0.35183 -0.38603 -0.00064712 -0.013307 0.046375 0.018918 0.020727 -0.010512 
-0.48435 -0.486 0.16344 0.10967 0.027139 -0.022679 -0.015609 -0.10505 
-0.36351 -0.30103 0.26916 0.26209 -0.0014692 -0.043395 -0.043066 -0.13185 
-0.052437 0.22789 0.56214 0.4755 0.0013258 -0.02087 -0.028762 -0.06707 
0.27886 0.63005 0.76125 0.67888 0.025988 0.014808 0.0090533 0.10721 
0.40776 0.53386 0.731 0.73231 0.0227 0.019247 0.033551 0.19698 
0.24762 0.15407 0.41647 0.54159 0.026646 0.028619 0.029441 0.1442 
0.35301 0.064625 -0.0040998 0.21309 0.024508 0.020233 0.026317 0.08567 
0.69466 0.31651 -0.26881 -0.028104 0.047362 0.039305 0.036017 0.0014903 
0.73379 0.42288 -0.21998 -0.11163 0.051965 0.058049 0.066105 0.02533 
0.37257 0.19221 -0.062302 -0.045368 0.068242 0.053938 0.047197 -0.046025 
-0.10965 -0.03912 -0.041915 -0.016924 0.070873 0.037826 0.0052718 -0.25713 
-0.24957 -0.079566 -0.14254 -0.069701 0.042758 0.00083261 -0.039778 -0.29034 
-0.26486 -0.13596 -0.12593 -0.095678 1.0539e-005 -0.0054151 -0.015773 -0.06707 
-0.37633 -0.12083 0.012999 0.012342 0.015959 0.029276 0.030427 0.08567 
-0.40576 0.021384 0.17741 0.14733 0.05213 0.077121 0.046868 0.17971 
-0.43865 0.21901 0.38277 0.32078 0.10688 0.0786 0.053445 0.12184 
-0.19712 0.35054 0.37931 0.37783 0.14469 0.067585 0.034537 0.12644 
0.38819 0.48158 0.24466 0.31453 0.13154 0.11937 0.098166 0.14716 
0.7938 0.57973 0.23529 0.28494 0.15341 0.14667 0.13023 0.26784 
0.79117 0.28527 0.23381 0.28839 0.1373 0.13927 0.10639 0.28856 
0.47188 -0.13744 0.077285 0.18366 0.11937 0.11625 0.059693 0.22624 
0.02533 -0.48419 -0.27308 -0.078415 0.063145 0.031249 0.011355 0.016288 
-0.23296 -0.47103 -0.48863 -0.31122 0.0047785 -0.026131 -0.046847 -0.17772 
-0.29873 -0.36417 -0.63857 -0.48978 -0.040435 -0.052602 -0.074304 -0.2647 
-0.0082102 -0.53779 -0.73212 -0.62065 -0.05178 -0.068386 -0.071181 -0.16818 
0.16919 -0.37748 -0.61917 -0.57346 -0.037147 -0.0090322 -0.071838 0.0016547 
0.052787 0.18383 -0.30448 -0.34526 0.011684 0.00099702 0.031578 0.088794 
-0.10028 0.61919 0.1636 1.0539e-005 0.043416 0.011848 0.052459 0.057227 
-0.29445 0.6455 0.61475 0.40315 0.024015 0.025988 0.045553 -0.012156 
-0.62082 0.27129 0.80811 0.67246 0.040621 0.060679 0.050321 -0.061316 
-0.46577 -0.14402 0.85348 0.79347 0.064461 0.065118 0.067091 -0.11919 
-0.041257 -0.25565 0.69581 0.74925 0.051801 0.033058 0.04917 -0.046683 
0.22986 -0.089102 0.33443 0.54636 0.017438 0.0054362 -0.0004827 0.077943 
0.3147 0.12497 0.10392 0.29612 -0.049971 -0.0040998 -0.021034 0.17314 
0.31125 0.31799 -0.0098543 0.13861 -0.059014 -0.031064 -0.027775 0.11526 
0.26061 0.41368 -0.013965 0.076792 -0.02646 -0.030406 -0.0016336 0.11198 
0.19007 0.36468 -0.039613 0.02829 0.016781 -0.0049219 0.018425 0.064132 
0.1008 0.1465 -0.1552 -0.065919 0.053609 0.064296 0.037004 0.091096 
-0.12264 -0.10406 -0.34575 -0.20995 0.031085 0.06183 0.040621 0.061337 
-0.2037 -0.24003 -0.35529 -0.27029 0.040128 0.040128 0.042429 0.033551 
-0.28492 -0.46396 -0.23658 -0.22047 0.030427 0.03092 0.076956 0.014643 
-0.53746 -0.9452 -0.23461 -0.20929 0.0075736 0.010862 0.040785 -0.046847 
-0.70204 -1.3087 -0.41892 -0.32405 -0.071345 -0.058521 -0.0031133 -0.10768 
-0.44292 -0.91248 -0.413 -0.364 -0.090253 -0.10784 -0.052766 -0.12675 
0.066598 0.022864 -0.040271 -0.11113 -0.075291 -0.07562 -0.034352 -0.050629 
0.34051 0.68496 0.3826 0.22328 -0.027611 -0.020377 -0.02646 0.017603 
0.38227 0.78262 0.42864 0.37175 0.027303 0.016616 -0.0083746 0.10869 
0.35925 0.72097 0.24301 0.30779 0.062652 0.059035 0.00297 0.15719 
0.25502 0.46958 0.090767 0.19303 0.054267 0.045718 0.043087 0.1756 
0.063145 0.044238 -0.082525 0.036182 0.017767 0.029934 0.084684 0.10819 
-0.17772 -0.19811 -0.23806 -0.10258 0.0051074 0.020233 0.056076 0.014643 
-0.21899 -0.07414 -0.48205 -0.30432 -0.028433 -0.029913 0.011026 -0.008539 
-0.041586 0.11757 -0.69973 -0.5197 -0.039449 -0.037147 0.00297 -0.010348 
0.070215 0.073175 -0.58021 -0.52348 -0.013636 -0.0052507 0.016123 -0.00097594 
0.078272 -0.039942 -0.12873 -0.24677 -0.0032777 0.022371 0.06183 0.084026 
0.21556 -0.011992 0.39937 0.17232 0.0069159 0.022371 0.074983 0.16245 
0.28264 0.092576 0.77851 0.57266 0.018754 0.041607 0.076134 0.15735 
0.20619 -0.059343 0.81715 0.74957 0.036839 0.044073 0.069722 0.14387 
0.19385 -0.1187 0.69334 0.7356 0.023851 0.032236 0.087808 0.14091 
0.14765 -0.086142 0.52531 0.62807 0.009711 0.0023123 0.040621 0.18465 
0.00099702 0.11 0.38326 0.50525 -0.061645 -0.017417 0.0013258 0.051308 
-0.048163 0.49983 0.31881 0.40989 -0.070687 -0.053917 -0.015938 -0.17969 
0.016945 0.78311 0.26537 0.34676 -0.036654 -0.038791 -0.0095255 -0.24316 
0.08715 0.70518 0.039305 0.21178 0.0019835 -0.009361 0.029276 -0.072989 
0.25913 0.30516 -0.30728 -0.079072 0.045553 0.033058 0.060022 0.095864 
0.40414 0.1105 -0.43141 -0.267 0.041936 0.049992 0.060186 0.14848 
0.3563 -0.0027845 -0.37913 -0.30268 0.072188 0.067091 0.065118 0.13236 
0.12842 -0.15207 -0.2836 -0.26749 0.10556 0.092904 0.10951 0.09274 
-0.23642 -0.26091 -0.3132 -0.27719 0.13861 0.12217 0.085506 0.027468 
-0.4033 -0.38291 -0.52841 -0.37831 0.13664 0.086163 0.058706 -0.033694 
-0.13826 -0.17279 -0.61243 -0.49339 0.10589 0.070544 0.052787 -0.01528 
0.25814 0.095206 -0.4444 -0.43799 0.061172 0.083862 0.086985 0.10573 
0.597 0.064296 -0.14681 -0.23083 0.076627 0.091425 0.094548 0.22427 
0.56444 -0.44818 -0.094034 -0.13645 0.016945 0.068242 0.077943 0.16936 
0.2389 -0.8288 -0.13612 -0.12412 -0.019226 -0.0073881 0.021713 0.044238 
-0.23346 -0.60141 0.12135 0.056569 -0.055397 -0.031064 -0.015116 -0.12412 
-0.46939 0.31355 0.71143 0.49473 -0.035503 -0.02794 -0.0049219 -0.19663 
-0.31139 1.3441 1.3115 1.0214 -0.01528 -0.019884 -0.0067304 -0.22162 
-0.045532 1.7417 1.4866 1.3227 0.012342 0.015794 -0.00081153 -0.1455 
0.44508 1.6555 1.3282 1.3319 0.012999 0.004943 0.011684 0.013821 
0.92073 1.3773 1.2499 1.2999 0.048513 0.082546 0.028454 0.1955 
0.81139 0.71159 1.1624 1.2547 0.041114 0.03947 0.063145 0.1396 
0.16327 -0.25598 0.60637 0.86993 0.046868 0.031742 0.012013 0.025659 
-0.55982 -1.1714 -0.38916 0.10902 0.0080668 -0.0004827 -0.0052507 -0.095678 
-0.98713 -1.6029 -1.3261 -0.75333 -0.014458 -0.024158 -0.015773 -0.22704 
-0.90607 -1.7142 -1.8856 -1.421 -0.05441 -0.054575 -0.030899 -0.21948 
-0.32027 -1.182 -1.7651 -1.5932 -0.047341 -0.030899 0.007738 -0.11738 
0.1128 -0.43799 -1.2232 -1.3158 0.018096 0.021713 0.027796 0.01826 
0.41943 0.29365 -0.60766 -0.82683 0.050486 0.066763 0.055582 0.055418 
0.28773 0.47237 -0.13875 -0.38011 0.044073 0.052623 0.032071 0.039963 
0.034373 0.1539 0.075148 -0.084827 0.047855 0.019083 0.050321 -0.018733 
0.01711 -0.11623 0.060844 0.026317 0.064625 0.020562 0.030756 -0.026789 
-0.088608 -0.18956 0.2657 0.19024 0.042429 0.042923 0.01004 -0.0073881 
-0.13448 -0.053917 0.56181 0.45379 0.084848 0.044073 0.005765 0.013492 
-0.19498 0.19155 0.78295 0.70469 0.11625 0.05624 0.013164 -0.0059084 
-0.11639 0.6797 0.82816 0.80416 0.12398 0.06035 0.047691 -0.047176 
-0.2619 0.84428 0.61673 0.70502 0.08863 0.053609 0.035688 -0.10094 
-0.81548 0.32111 0.18794 0.39822 0.0044497 0.011026 -0.0027845 -0.092554 
-0.78145 -0.26272 -0.14385 0.076792 -0.048656 -0.042408 -0.026789 0.01711 
-0.15421 -0.49635 -0.21702 -0.075455 -0.039778 -0.027118 0.01267 0.15045 
0.31453 -0.30679 -0.052109 0.0014903 0.01004 0.0021479 0.0080668 0.14305 
0.31864 0.038812 0.20487 0.15818 0.024179 0.0041209 0.0075736 -0.092883 
0.12414 0.16853 0.25683 0.24088 0.028947 0.024344 0.019083 -0.25154 
0.17708 0.34873 0.26192 0.27902 0.031578 0.027468 0.029276 -0.061973 
0.31536 0.36517 0.21309 0.25502 0.026152 0.0054362 0.029276 0.23364 
0.12529 0.14552 0.041772 0.13878 -0.0075525 -0.015938 -0.03616 0.28675 
-0.19827 -0.082032 -0.19383 -0.013471 0.0074092 -0.033037 -0.062302 0.052787 
-0.19581 -0.20288 -0.41694 -0.23543 0.0082312 0.014808 -0.028433 -0.28689 
0.23956 -0.11442 -0.46084 -0.35052 -0.0004827 0.03536 0.04654 -0.15043 
0.51496 0.0082312 -0.34723 -0.31665 -0.0055795 0.036182 0.091918 0.14848 
0.4094 0.097508 -0.34033 -0.31188 0.025001 0.037004 0.10885 0.30598 
-0.021692 0.0065871 -0.43453 -0.36959 0.063639 0.075312 0.095206 0.25025 
-0.29922 -0.045368 -0.27736 -0.26371 0.094713 0.078765 0.06035 0.14354 
-0.19877 0.045882 0.053445 -0.042244 0.09126 0.07301 0.069229 0.12529 
0.3147 0.26159 0.29727 0.19336 0.1128 0.068571 0.022371 0.11395 
0.50312 0.46662 0.34742 0.30401 0.069393 0.066598 -0.036325 0.079258 
0.40891 0.22328 0.099481 0.18629 0.010369 -0.0059084 -0.038791 0.082382 
0.082711 -0.49981 -0.2938 -0.089759 -0.0059084 -0.055561 -0.0049219 0.085012 
-0.32816 -1.2201 -0.3982 -0.24891 -0.059672 -0.047341 0.0021479 0.02681 
-0.49093 -1.1223 -0.31599 -0.25335 -0.053424 -0.033365 -0.022021 -0.021199 
-0.42631 -0.55341 0.084355 -0.011827 -0.053753 -0.064275 -0.082361 -0.087129 
-0.33046 0.077943 0.52679 0.34873 -0.0138 -0.05441 -0.067564 -0.085813 
-0.2744 0.5018 0.6501 0.548 0.038155 -0.013636 -0.02498 -0.062467 
-0.3007 0.58105 0.42502 0.47698 0.062817 0.048184 0.034537 -0.011663 
-0.29232 0.61278 0.076792 0.25008 0.07301 0.064132 0.052787 0.063145 
0.24597 0.76651 -0.16572 0.044238 0.098659 0.096521 0.078929 0.17906 
0.68249 0.7818 -0.28574 -0.12346 0.11658 0.11494 0.08156 0.22526 
0.58631 0.48454 -0.29215 -0.19811 0.12891 0.12661 0.090767 0.18563 
0.46678 0.26094 -0.25269 -0.20468 0.11017 0.1003 0.071695 0.16492 
0.3558 0.096686 -0.14911 -0.1501 0.0786 0.063145 0.049992 0.12365 
0.25781 0.015465 0.017932 -0.028762 0.062323 0.038812 0.044731 0.12644 
0.32325 0.072353 0.19632 0.16656 0.043909 0.03651 0.068407 0.16311 
0.56494 0.43028 0.55113 0.43423 0.044073 0.0095465 0.029441 0.24564 
0.58434 0.61459 0.74152 0.65454 0.053281 0.02533 0.045882 0.18383 
0.56412 0.6626 0.6695 0.68315 0.033222 0.0324 0.039799 0.15324 
0.49046 0.61229 0.67805 0.70074 0.010533 0.048184 0.032893 0.13203 
0.14338 0.36616 0.64928 0.68447 -0.024158 -0.014622 0.015794 0.083533 
-0.27308 -0.13678 0.33377 0.52318 -0.057534 -0.067399 -0.011334 -0.015938 
-0.60158 -0.79098 0.0075736 0.2292 -0.064275 -0.064275 -0.047834 -0.145 
-0.74939 -0.97628 -0.14878 0.028947 -0.066577 -0.069043 -0.049642 -0.21586 
-0.56179 -0.83061 -0.35331 -0.17904 -0.032379 -0.036654 -0.0073881 -0.15141 
-0.13103 -0.55275 -0.6925 -0.47465 0.014643 -0.0036066 0.017438 -0.021034 
0.11165 -0.15996 -0.79361 -0.64515 0.020891 0.019411 0.024015 0.076299 
0.24515 0.12464 -0.50934 -0.50112 0.07449 0.064954 0.052459 0.14206 
0.37537 0.2902 -0.074962 -0.20896 0.091425 0.10392 0.057555 0.21391 
0.26587 0.15357 0.14289 0.030263 0.093726 0.093069 0.099481 0.18777 
0.037332 0.063639 0.19287 0.15045 0.09274 0.092576 0.089287 -0.013965 
-0.06148 0.20964 0.19813 0.19221 0.086492 0.099645 0.06594 -0.082032 
-0.037476 0.16245 0.045224 0.11362 0.05065 0.032236 0.024837 -0.024652 
0.055418 0.015465 -0.060658 0.039963 0.018589 -0.0096899 0.0069159 0.011684 
0.19829 0.22904 0.16015 0.14502 -0.023829 -0.015938 0.025166 0.019411 
0.25633 0.50082 0.42634 0.34857 -0.022514 -0.0055795 0.015301 0.032564 
0.12546 0.51512 0.51923 0.47747 0.012177 0.004943 0.0059294 -0.0011404 
-0.15109 0.34429 0.47089 0.48602 0.041114 0.039634 0.023851 -0.080881 
-0.17706 0.16903 0.33048 0.39888 0.064132 0.047197 0.06183 -0.0090322 
0.020562 0.072681 0.15949 0.27606 0.069393 0.088136 0.073668 0.11855 
0.21523 0.14782 0.015794 0.15735 0.064625 0.079587 0.081395 0.17215 
0.39411 0.12825 -0.032543 0.069886 0.072024 0.068242 0.074161 0.19468 
0.49884 -0.17295 -0.19975 -0.074469 0.03092 0.058213 0.067913 0.18695 
0.47418 -0.2813 -0.32487 -0.21241 0.038977 0.029769 0.097179 0.097015 
0.21079 -0.31353 -0.27111 -0.22968 0.029112 -0.0022913 0.036839 -0.023336 
-0.34641 -0.72538 -0.35381 -0.29199 -0.020541 -0.010019 -0.0080457 -0.14073 
-0.9406 -0.94044 -0.4809 -0.35348 -0.060823 -0.027775 -0.0406 -0.25138 
-1.1272 -0.51329 -0.36071 -0.32898 -0.10127 -0.077593 -0.045696 -0.32339 
-0.89522 0.048019 -0.18611 -0.21767 -0.070359 -0.056055 -0.041915 -0.25943 
-0.46725 0.40677 -0.033201 -0.076606 -0.035832 -0.020541 0.00083261 -0.10456 
0.041607 0.47319 0.08715 0.041278 -0.036325 0.018589 0.015959 0.034209 
0.39395 0.38474 0.16475 0.1322 -0.016595 0.0041209 0.011355 0.085177 
0.59979 0.47204 0.33147 0.3295 0.046704 0.036182 0.05065 0.15505 
0.64386 0.62232 0.47681 0.45116 0.10704 0.080738 0.087314 0.17708 
0.57036 0.64451 0.5286 0.52614 0.17626 0.15028 0.093562 0.18498 
0.402 0.42568 0.38046 0.45823 0.16344 0.12875 0.097837 0.16969 
0.22164 0.0075736 0.21687 0.32884 0.13351 0.093233 0.10113 0.10737 
0.18021 -0.24464 0.094713 0.20208 0.10211 0.072681 0.087314 0.057062 
-0.056877 -0.46199 -0.017746 0.11757 0.075805 0.062323 0.056076 -0.02942 
-0.29495 -0.51526 -0.0868 0.015301 0.033387 0.0032988 0.03388 -0.076606 
-0.24891 -0.36877 -0.17871 -0.078579 -0.028269 -0.040106 -0.0087034 -0.068057 
0.16903 -0.27752 -0.40905 -0.25779 -0.036983 -0.036818 0.027796 0.032236 
0.4778 -0.19761 -0.61753 -0.45903 -0.039942 -0.008539 0.020233 0.04506 
0.11083 -0.079566 -0.53105 -0.47514 -0.04471 -0.027118 -0.011005 -0.040435 
-0.38866 0.14009 -0.32454 -0.33556 0.0019835 -0.045039 -0.021856 -0.10489 
-0.63989 0.49703 -0.16144 -0.20797 -0.020212 -0.049478 -0.041257 -0.096007 
-0.52315 0.64682 -0.01939 -0.067728 -0.059836 -0.046847 -0.038956 -0.046519 
-0.11393 0.52794 0.26505 0.16738 -0.030077 -0.043559 -0.027447 -0.065262 
0.0592 0.16393 0.37323 0.31421 -0.0026201 -0.0060728 -0.020541 -0.1746 
0.056076 -0.055561 0.37389 0.36123 -0.0026201 -0.0067304 -0.0062372 -0.19614 
0.1248 -0.082196 0.40743 0.40973 0.043416 0.022206 0.056076 -0.041915 
0.25107 -0.060658 0.41154 0.44491 0.08978 0.077943 0.078107 0.083204 
0.14716 -0.087622 0.3489 0.4071 0.10359 0.090931 0.074326 0.15735 
-0.12166 0.077778 0.26044 0.33673 0.073339 0.053445 0.050979 0.11576 
-0.029255 0.25929 0.22213 0.29431 0.090767 0.077285 0.063639 0.13187 
0.23134 0.11987 0.063968 0.16952 0.12612 0.088794 0.084026 0.10984 
0.17215 -0.23461 -0.16753 -0.016102 0.097672 0.047033 0.064132 0.013657 
-0.14911 -0.45805 -0.19942 -0.076935 0.018589 -0.0070593 0.0087245 -0.12379 
-0.47169 -0.65666 -0.11113 -0.072496 -0.03616 -0.036325 -0.043395 -0.20962 
-0.55521 -0.63528 -0.16769 -0.10768 -0.056877 -0.049149 -0.042408 -0.1723 
-0.31533 -0.23263 -0.24661 -0.16753 -0.042244 -0.047834 -0.017417 -0.10094 
-0.0019624 0.18448 -0.21998 -0.1843 -0.045368 -0.029584 -0.0036066 -0.014622 
0.1197 0.35531 -0.1353 -0.12725 -0.036654 -0.018075 -0.013143 0.007738 
0.057884 0.29234 -0.059178 -0.020048 -0.0032777 -0.022843 0.0087245 -0.039284 
0.29382 0.57151 0.31519 0.2195 0.010533 0.014808 0.050814 -0.10982 
0.59059 0.85464 0.67279 0.52466 0.05065 0.054596 0.065612 0.026646 
0.62577 0.84099 0.76207 0.6945 0.10704 0.10145 0.087972 0.1738 
0.2828 0.31223 0.4847 0.57858 0.086657 0.071037 0.080409 0.14469 
-0.1159 -0.19531 0.059528 0.27031 0.05065 0.040128 0.052952 0.03092 
-0.32915 -0.56163 -0.29281 -0.016266 0.039634 0.029605 0.032564 -0.038791 
-0.35627 -0.58399 -0.38373 -0.21027 0.043909 0.011026 0.0080668 -0.082854 
-0.24299 -0.51378 -0.40757 -0.29988 0.060022 0.015794 0.016781 -0.069043 
-0.083183 -0.63331 -0.42352 -0.35003 0.041443 0.024673 0.024344 -0.039942 
-0.0087034 -0.55998 -0.36745 -0.33967 0.049828 0.044073 0.05772 -0.0026201 
0.026974 -0.19416 -0.094034 -0.16999 0.047526 0.023193 0.035524 -0.026953 
0.18942 0.34939 0.16048 0.082711 -0.003771 -0.003771 0.0098754 -0.025638 
0.16393 0.67345 0.24384 0.20619 -0.0022913 -0.019061 0.016452 -0.032872 
-0.31484 0.58664 0.21819 0.23792 0.0044497 0.0056006 0.014479 -0.074798 
-0.28311 0.89426 0.38737 0.36402 0.021056 0.053938 0.049664 0.024015 
0.36369 1.1677 0.58056 0.51907 0.096686 0.08978 0.073504 0.13417 
0.85579 0.99455 0.57957 0.57299 0.13154 0.13006 0.10639 0.28626 
0.90544 0.31421 0.19221 0.36534 0.12447 0.15637 0.095864 0.3706 
0.57612 -0.46216 -0.20074 0.041936 0.1054 0.11329 0.10096 0.42371 
0.18218 -1.1363 -0.30185 -0.13711 0.0095465 0.034209 0.049828 0.20191 
-0.2984 -1.5866 -0.25878 -0.18627 -0.040435 -0.014787 0.00099702 -0.31418 
-0.43289 -1.1213 -0.19564 -0.16539 -0.063618 -0.013965 -0.022679 -0.36581 
-0.13892 -0.087293 -0.19942 -0.16424 -0.029091 -0.0004827 -0.0047575 0.0024767 
-0.2693 0.31059 -0.25598 -0.1935 -0.020048 0.00033937 0.016452 0.037332 
-0.75646 0.33772 -0.1889 -0.13793 -0.056219 -0.047176 -0.052766 -0.31912 
-0.90081 0.3216 0.17051 0.088136 -0.072496 -0.04323 -0.057699 -0.48797 
-0.48534 0.11148 0.51643 0.37783 -0.053095 -0.02646 -0.018568 -0.13563 
-0.24842 -0.44456 0.29004 0.33788 -0.034845 -0.01676 -0.0027845 0.1858 
-0.052273 -0.54239 -0.22162 0.0082312 -0.058028 -0.080552 -0.024323 0.18514 
0.17758 0.17215 -0.41267 -0.22195 -0.027775 -0.033201 -0.038627 0.098494 
0.66901 0.90659 -0.28837 -0.19367 0.021549 -0.0027845 -0.016595 0.15522 
1.2163 1.146 -0.1187 -0.11031 0.079916 0.071859 0.062817 0.4242 
1.0337 0.67098 -0.10291 -0.076771 0.1294 0.12168 0.11461 0.49835 
0.28593 -0.0087034 -0.045861 -0.034845 0.11477 0.13105 0.10819 0.3216 
-0.29873 -0.34312 0.18514 0.10014 0.0786 0.085999 0.041114 0.12349 
-0.45328 -0.26683 0.28724 0.23298 0.064625 0.042429 0.045553 -0.10176 
-0.31451 -0.039942 0.24597 0.29398 0.052294 0.040785 0.040292 -0.1718 
-0.28311 -0.04471 0.079587 0.18448 0.046868 0.063639 0.047526 -0.081374 
-0.0087034 0.17659 0.0018191 0.10211 0.076956 0.059857 0.041278 0.093891 
0.73132 0.52827 -0.10291 0.0026412 0.14124 0.061337 0.068407 0.33278 
1.0039 0.47615 -0.24365 -0.13004 0.086985 0.055911 0.050814 0.34347 
0.76914 0.41696 -0.18693 -0.14221 0.03947 0.061501 0.06742 0.24334 
0.52844 0.46728 -0.06148 -0.039778 0.030756 0.075148 0.061666 0.24088 
0.17856 0.11329 -0.049314 -0.020541 0.011684 0.046704 0.062159 0.12233 
-0.42319 -0.66307 -0.18841 -0.10472 -0.026624 -0.0044286 0.0013258 -0.033859 
-0.82715 -0.9286 -0.15651 -0.11179 -0.038462 -0.039449 -0.030899 -0.18019 
-0.75777 -0.44637 0.17215 0.090603 -0.05326 -0.050958 -0.03353 -0.15454 
-0.39425 0.3295 0.63761 0.44804 -0.012485 -0.074798 -0.026624 -0.057699 
-0.0004827 0.74661 0.82011 0.71899 -0.026624 -0.034681 -0.027118 0.01415 
0.1761 0.56296 0.6483 0.69515 0.028454 0.0042853 -0.014293 0.03092 
0.1368 0.18942 0.38129 0.51989 0.069722 0.044238 -0.001798 0.088794 
0.21539 -0.11393 0.088465 0.27524 0.067091 0.067585 0.062981 0.13812 
0.089945 -0.47449 -0.14993 0.023193 0.06742 0.067091 0.071695 0.11132 
-0.12955 -0.79986 -0.364 -0.19942 0.059528 0.079422 0.048513 0.060515 
-0.22491 -0.92136 -0.67836 -0.46857 0.047362 0.041278 0.035031 0.023522 
-0.23888 -0.30531 -0.6925 -0.56228 0.041772 -0.00015387 0.02681 0.020398 
0.15226 0.99455 -0.20797 -0.30629 0.0082312 -0.014622 -0.004593 0.037661 
0.57234 1.6657 0.49424 0.21983 0.041443 0.037497 0.0087245 0.098166 
0.69647 1.3706 0.75253 0.56987 0.086492 0.074654 0.040292 0.16574 
0.51726 0.45807 0.60571 0.59667 0.11888 0.11115 0.041278 0.22855 
0.17396 -0.1723 0.38112 0.48437 0.16344 0.1128 0.093891 0.22115 
-0.2767 -0.4855 0.22082 0.37027 0.15226 0.14765 0.066763 0.12464 
-0.65419 -0.8727 0.054267 0.19862 0.11198 0.07449 0.039799 -0.035338 
-0.58925 -0.88404 -0.18956 -0.01676 0.06331 -0.0095255 0.027303 -0.067399 
-0.080388 -0.39738 -0.29002 -0.15569 0.032729 0.010369 0.048841 0.0421 
0.48717 0.10458 -0.32931 -0.24529 0.021384 0.012506 0.049499 0.14798 
0.63909 0.14585 -0.54486 -0.41267 -0.046354 -0.03205 0.0088889 0.098988 
0.54718 0.25387 -0.50605 -0.41168 -0.11491 -0.085813 -0.037805 0.0023123 
0.29661 0.63169 -0.00097594 -0.11935 -0.10012 -0.091075 -0.041751 -0.069372 
-0.11639 0.99916 0.67214 0.40167 -0.073811 -0.065097 -0.031228 -0.11771 
-0.56853 0.43834 0.95805 0.76355 -0.025638 -0.040435 -0.029748 -0.17805 
-0.99025 -0.62805 0.62363 0.68085 0.01711 -0.0059084 -0.011005 -0.21455 
-1.0932 -1.2063 0.019083 0.28806 0.01152 0.011191 0.0070803 -0.20468 
-0.76336 -1.1425 -0.32734 -0.040435 0.022042 -0.003771 0.0095465 -0.17805 
-0.11672 -0.54551 -0.29593 -0.1649 0.017767 -0.057205 -0.032215 0.0042853 
0.4122 0.069229 -0.26404 -0.19104 0.044402 0.022864 0.028619 0.19139 
0.62709 0.26274 -0.16901 -0.14287 0.13286 0.085506 0.070051 0.3489 
0.65767 0.34216 -0.042901 -0.055397 0.15768 0.14223 0.10491 0.23479 
0.55063 0.37126 -0.0040998 -0.033859 0.15094 0.073175 0.10014 0.061172 
0.26159 0.43489 -0.084005 -0.023665 0.10474 0.060022 0.060679 0.0088889 
0.17593 0.48733 0.011026 0.025001 0.091425 0.045718 0.047033 0.07038 
0.094055 0.28379 0.13351 0.11905 0.077943 0.033715 0.033058 0.098494 
-0.085649 -0.060658 0.093726 0.12085 0.072681 0.0052718 0.033551 0.036346 
-0.096172 -0.14566 -0.041751 0.037497 0.014479 -0.025802 0.011848 -0.018568 
0.17314 0.1054 0.090603 0.088301 0.0227 -0.0075525 0.0041209 0.063803 
0.44442 0.45494 0.4584 0.36106 0.046868 0.044238 0.02681 0.23282 
0.39855 0.6164 0.58138 0.52153 0.05065 0.025166 0.03536 0.23085 
0.056569 0.3655 0.48569 0.51726 0.036017 -0.0034422 0.033551 0.07449 
-0.27851 -0.10456 0.19829 0.33377 -0.011334 -0.026953 -0.0070593 -0.24858 
-0.54223 -0.46561 -0.20123 0.031085 -0.022514 -0.02235 -0.0080457 -0.34871 
-0.73854 -0.583 -0.38587 -0.20567 -0.014622 -0.028104 -0.015773 -0.24858 
-0.59155 -0.2106 -0.36088 -0.26535 -0.0062372 -0.02087 0.013821 -0.020377 
0.080573 0.31174 -0.40527 -0.3012 -0.0096899 -0.020377 0.031907 0.11083 
0.47846 -0.0021268 -0.70236 -0.52546 -0.032215 -0.033201 0.01267 0.1299 
0.41236 -0.3469 -0.80808 -0.67178 -0.014129 -0.033859 -0.010841 0.097015 
0.25123 -0.064604 -0.56311 -0.56837 0.071202 0.035853 0.037497 0.1031 
0.22855 0.29744 -0.20222 -0.31945 0.11806 0.074983 0.083533 0.10228 
0.42486 0.66063 0.39099 0.14404 0.13203 0.095535 0.067585 0.15505 
0.40776 0.70091 0.78081 0.57546 0.094055 0.056569 0.049499 0.16821 
0.12529 0.20553 0.71176 0.67066 0.032564 0.01152 0.0092177 0.11477 
-0.15536 -0.42812 0.41631 0.53288 0.029441 0.00017495 0.021056 0.076792 
-0.21537 -0.66932 0.099316 0.28494 0.019411 0.019247 0.010369 -0.031228 
0.01152 -0.22392 -0.1182 0.052459 0.011026 -0.0034422 1.0539e-005 -0.089924 
0.048677 0.26422 -0.17345 -0.069865 -0.018239 -0.060165 -0.018733 -0.074633 
-0.056712 0.24926 -0.12182 -0.04471 -0.10357 -0.095021 -0.06444 0.012177 
-0.10176 -0.071181 -0.079566 -0.036654 -0.08384 -0.084498 -0.048985 0.0041209 
-0.086142 -0.091075 -0.19071 -0.10423 -0.025967 -0.041751 0.0011614 -0.061151 
-0.11524 0.064625 -0.25483 -0.16769 0.03092 0.015137 0.016781 -0.079237 
0.077614 0.3387 0.12612 0.041278 0.10047 0.058871 0.040456 -0.080223 
0.38408 0.40595 0.66835 0.38392 0.10556 0.092247 0.062488 0.053281 
0.4533 0.41384 0.86236 0.25469 0.090603 0.064132 0.0786 0.15752 
0.24581 0.45527 0.69006 0.24877 0.078765 0.050979 0.048019 0.16344 
0.16196 0.56724 0.34512 0.17873 0.05772 0.047691 0.044238 0.1562 
-0.019719 0.43965 0.034373 0.14667 0.059857 0.050486 0.032893 0.14568 
-0.029584 0.30138 -0.086471 0.096028 0.037661 0.030098 0.0786 0.16475 
0.036675 0.073339 -0.11163 0.034373 0.058871 0.048677 0.071366 0.098494 
-0.21175 -0.33441 -0.194 -0.023501 0.056569 0.055582 0.054103 -0.033694 
-0.54584 -0.53384 -0.1935 -0.055726 0.00017495 0.035688 0.013164 -0.10028 
-0.67376 -0.72456 -0.31024 -0.095185 -0.0039354 0.0098754 0.009711 -0.1843 
-0.35545 -0.70615 -0.39343 -0.036654 -0.016595 -0.0503 -0.015444 -0.10439 
0.30056 -0.51362 -0.45722 -0.037969 -0.043066 -0.046519 -0.02794 0.074326 
0.68693 -0.33474 -0.46035 -0.055397 -0.07266 -0.068057 -0.057863 0.18481 
0.62446 -0.096172 -0.28377 0.029441 -0.039778 -0.047998 -0.03616 0.13615 
0.27853 0.24104 -0.001798 0.099645 0.012342 0.0044497 0.018918 -0.05441 
0.13647 0.61854 0.2486 0.13746 0.069886 0.06479 0.068736 -0.10817 
0.15456 0.75549 0.36797 0.15324 0.044238 0.098494 0.093069 -0.011827 
0.15752 0.53995 0.35005 0.062323 0.023193 0.047033 0.060515 0.069229 
0.068736 0.29185 0.20405 -0.060165 -0.034516 -0.0075525 0.020398 0.096686 
-0.11196 -0.091239 0.047362 -0.076113 -0.064111 -0.026131 1.0539e-005 0.085177 
-0.61276 -0.89374 -0.091568 -0.091239 -0.076771 -0.068057 -0.045696 -0.087293 
-1.261 -1.4768 -0.13514 -0.086307 -0.084663 -0.087129 -0.057205 -0.39968 
-1.2301 -0.82041 0.18399 0.0092177 -0.052602 -0.065262 -0.03057 -0.43503 
-0.52661 0.19517 0.48437 0.147 0.004943 0.0039565 0.030756 -0.16227 
0.16656 0.49128 0.56576 0.23611 0.071695 0.050157 0.074983 0.074819 
0.58072 0.46185 0.58121 0.28971 0.10803 0.074983 0.076627 0.28247 
0.62495 0.54291 0.79512 0.28954 0.11888 0.086492 0.050157 0.36041 
0.4556 0.48405 0.91152 0.20865 0.068571 0.10277 0.020069 0.30549 
0.18547 0.068407 0.30122 0.025824 0.01152 0.038977 0.027632 0.056898 
0.053609 -0.2203 -0.53516 -0.17641 -0.019719 0.025988 0.047362 -0.11771 
0.28658 -0.11475 -0.8944 -0.2351 -0.0138 0.020398 0.064461 -0.031392 
0.65043 0.28264 -0.71124 -0.12182 0.013821 0.075476 0.089616 0.17396 
0.90577 0.62873 -0.34476 0.040621 0.055254 0.10096 0.099152 0.30451 
0.99521 0.95 0.024837 0.13203 0.092576 0.10441 0.12332 0.31404 
0.83852 1.2994 0.50756 0.15637 0.086163 0.094713 0.10852 0.27639 
0.64336 1.3439 0.69318 0.16097 0.081889 0.10047 0.087972 0.1881 
0.05772 0.27129 0.2851 0.10211 0.067256 0.052787 0.04917 -0.010348 
-1.1997 -1.2354 -0.26157 -0.0027845 -0.015773 -0.033859 -0.036489 -0.35216 
-2.5627 -2.4262 -0.78704 -0.17838 -0.14319 -0.13037 -0.12083 -0.65173 
-2.3299 -2.4267 -1.1474 -0.36614 -0.21932 -0.18134 -0.15355 -0.60158 
-0.55637 -0.94652 -0.82124 -0.2744 -0.15717 -0.097816 -0.095021 -0.22721 
0.76963 0.52318 -0.12297 -0.078908 -0.022021 -0.014129 -0.020212 0.075641 
1.0217 0.96726 0.39608 0.12924 0.09833 0.061337 0.070708 0.21819 
0.79627 0.7721 0.55639 0.25814 0.14798 0.17774 0.13236 0.29875 
0.81814 0.79873 0.5702 0.28428 0.15999 0.18958 0.14404 0.31733 
0.72475 0.91892 0.62955 0.19402 0.095699 0.13943 0.1151 0.26554 
0.23611 0.5457 0.50509 0.072846 0.035688 0.07597 0.076627 0.14864 
-0.089924 -0.055561 0.18333 -0.015773 -0.02794 0.073175 0.059857 0.08863 
-0.25927 -0.67935 -0.10965 -0.14484 -0.084005 -0.025309 -0.0080457 0.0047785 
-0.58053 -0.97825 -0.24151 -0.22852 -0.14846 -0.093048 -0.061645 -0.17197 
-0.84113 -0.56261 -0.16555 -0.19581 -0.17164 -0.14139 -0.093212 -0.30152 
-0.73574 0.089452 0.023686 -0.10505 -0.12198 -0.064111 -0.059672 -0.22014 
-0.16095 0.13795 0.0093821 -0.027775 0.0044497 0.012999 0.029934 0.0062583 
0.51364 0.24762 -0.073976 0.060679 0.086821 0.12233 0.1031 0.28609 
0.83408 0.53271 -0.10998 0.089945 0.13483 0.13467 0.098659 0.33739 
0.66589 0.74382 -0.0077169 0.11954 0.15423 0.17018 0.1151 0.19139 
0.36041 0.72573 0.15144 0.15768 0.13795 0.13762 0.10211 0.020562 
0.32703 0.47911 0.1151 0.086492 0.087643 0.064954 0.066927 0.046868 
0.23167 0.1738 0.013986 0.0062583 0.0087245 -0.010183 0.022535 0.031907 
-0.20337 -0.064768 -0.053424 -0.076771 -0.052766 -0.0034422 0.012999 -0.065097 
-0.13448 -0.10768 -0.11837 -0.11771 -0.022843 0.021384 0.036346 -0.013307 
0.097837 -0.25056 -0.19466 -0.09946 -0.0060728 0.038812 0.057062 0.045389 
0.016945 -0.39508 -0.33737 0.0069159 0.01974 0.043087 0.029276 0.0023123 
0.0072447 -0.22655 -0.38916 0.10326 0.071695 0.052294 0.031249 -0.024158 
0.027139 0.034702 -0.23938 0.19221 0.0786 0.048513 0.020891 -0.00031829 
-0.11935 0.23562 -0.10373 0.18843 0.061172 0.040785 0.048513 -0.02235 
-0.1746 0.46744 -0.084169 0.075312 0.027796 0.012177 0.053281 0.03388 
0.053445 0.62561 -0.12248 0.0059294 0.0092177 0.052459 0.070544 0.10244 
0.083533 0.38721 0.12579 0.018754 0.045224 0.080409 0.074819 0.12447 
0.10836 0.00066819 0.47385 0.016123 0.064954 0.10524 0.10672 0.12365 
-0.21504 -0.58366 0.48174 0.013657 0.065118 0.099974 0.11674 0.05213 
-0.54486 -0.84672 0.49079 0.059364 0.060844 0.087643 0.070708 -0.065097 
-0.49537 -0.51164 0.50673 0.037332 0.024344 0.0034632 -0.0034422 -0.15635 
-0.25039 0.020233 0.46958 0.049828 0.015301 -0.037969 -0.025967 -0.14615 
0.32555 0.65257 0.29941 0.054267 -0.036489 -0.036489 -0.011827 -0.023829 
0.60555 0.78492 0.04358 -0.061151 -0.071674 -0.037805 -0.028762 0.052787 
0.24762 0.34627 -0.053095 -0.11409 -0.098309 -0.066577 -0.053588 0.013986 
-0.27226 -0.34953 -0.30859 -0.26996 -0.066906 -0.049478 -0.028597 -0.054575 
-0.69661 -0.60207 -0.82781 -0.57544 -0.040271 -0.053095 -0.066413 -0.12642 
-0.31517 -0.18726 -0.78474 -0.52759 0.029605 0.0070803 -0.0088678 -0.019719 
0.50147 0.24926 -0.23707 -0.18742 0.10836 0.069558 0.052623 0.16048 
0.65734 0.29234 0.12694 0.067585 0.13121 0.10228 0.098494 0.21868 
0.3757 0.13023 0.35498 0.26801 0.12036 0.10392 0.093233 0.15259 
0.12497 -0.039942 0.38852 0.36485 0.12003 0.081231 0.10047 0.07597 
0.15094 0.057884 0.32045 0.35662 0.14256 0.062323 0.075148 0.064296 
0.24795 0.18892 0.16344 0.25896 0.10113 0.059035 0.040128 0.074161 
0.32407 0.30253 0.10704 0.17708 0.06594 0.039799 0.015301 0.024508 
0.19599 0.58993 0.34347 0.31667 0.03536 0.039305 0.020069 0.039963 
-0.076935 0.63399 0.56148 0.51726 0.047362 0.039799 0.049664 0.092904 
-0.13711 0.34018 0.40578 0.46793 0.06183 0.021549 0.013821 0.091918 
-0.080059 -0.19564 0.07597 0.24449 0.022042 -0.0013048 0.0080668 0.027796 
0.025988 -0.23888 -0.10357 0.06035 -0.0042642 -0.014129 0.0016547 -0.0098543 
0.10787 0.10721 0.11773 0.1202 0.005765 -0.033859 -0.0026201 0.064625 
0.26505 0.30796 0.22148 0.22838 0.042758 0.010204 -0.0042642 0.068078 
0.58434 0.21441 -0.096007 0.080902 0.08978 0.078929 0.019083 0.1276 
0.63531 0.04358 -0.33474 -0.14385 0.096686 0.12085 0.037332 0.09685 
0.026152 -0.29955 -0.22244 -0.16177 0.046868 0.03947 -0.004593 -0.053917 
-0.94159 -1.0332 -0.17213 -0.15158 -0.01528 -0.054246 -0.041422 -0.29676 
-1.6292 -1.3771 -0.18759 -0.16095 -0.10324 -0.13086 -0.099789 -0.4296 
-1.1969 -0.69694 0.025824 -0.02235 -0.10275 -0.12314 -0.10176 -0.29396 
-0.14023 0.3438 0.27721 0.22164 -0.034352 -0.081703 -0.061645 -0.047341 
0.4385 0.69039 0.30451 0.30007 -0.023665 -0.018239 -0.024158 0.055582 
0.41877 0.52531 0.24121 0.28954 0.0095465 0.01415 0.0067515 -0.038791 
0.36846 0.39181 0.16525 0.23742 0.062323 0.05772 0.042594 0.038977 
0.53666 0.087479 -0.057863 0.088465 0.10754 0.083368 0.0592 0.27146 
0.64418 -0.11031 -0.27851 -0.12231 0.072188 0.041114 0.054925 0.36715 
0.57941 0.066927 -0.25763 -0.15536 0.056076 0.026152 0.059693 0.31601 
0.25584 0.0041209 -0.29462 -0.21471 0.035195 0.03651 0.030098 0.075148 
-0.088773 -0.43881 -0.5317 -0.3857 0.0056006 -0.029255 -0.025967 -0.13497 
-0.31287 -0.43174 -0.40165 -0.36959 -0.017911 -0.063618 -0.060987 -0.18298 
-0.62065 -0.18265 0.0060938 -0.11097 -0.011992 -0.074469 -0.05737 -0.18759 
-0.4661 -0.15306 0.29415 0.15423 0.027961 -0.038956 0.00033937 -0.10653 
-0.09239 -0.16079 0.26735 0.25683 0.047197 0.011026 0.026481 0.069722 
0.32489 -0.010841 0.10293 0.1881 0.070051 0.063474 0.046868 0.29563 
0.6478 0.34068 0.18251 0.21523 0.11461 0.090931 0.089123 0.2371 
0.86976 0.70798 0.39181 0.34906 0.12743 0.12036 0.11198 0.15851 
0.76914 0.85283 0.37833 0.38819 0.12299 0.095371 0.089287 0.11378 
0.35942 0.69499 0.18218 0.2611 0.052952 0.038155 0.047855 0.076134 
0.081395 0.48026 0.0085601 0.13072 0.018918 -0.0083746 0.0070803 0.010369 
0.029441 0.33657 -0.066741 0.052459 0.00083261 -0.018568 -0.010019 -0.00097594 
-0.59484 0.075641 -0.19071 -0.072989 -0.031721 -0.045696 -0.014622 -0.13004 
-1.0225 -0.14615 -0.27538 -0.1723 -0.00097594 -0.042901 -0.016266 -0.17131 
-0.5978 -0.1108 -0.13662 -0.11459 0.069886 0.038483 0.039141 -0.12133 
-0.37074 -0.06 0.13779 0.061337 0.091753 0.076792 0.037661 -0.18479 
-0.24973 -0.015938 0.36928 0.2759 0.12957 0.053281 0.055254 -0.040928 
0.26981 0.12151 0.53353 0.48355 0.099316 0.066598 0.07449 0.16722 
0.92681 0.22772 0.41647 0.4607 0.094055 0.06594 0.061337 0.30335 
0.97268 -0.072332 -0.0080457 0.18432 0.064132 0.068736 0.063145 0.26488 
0.50624 -0.6047 -0.40231 -0.15602 0.036675 0.043251 0.035688 0.15193 
0.0088889 -0.76731 -0.54206 -0.38324 0.011191 0.021878 0.062817 0.070708 
-0.24382 -0.81285 -0.7729 -0.60799 0.0062583 0.011191 0.02681 -0.0016336 
-0.28952 -0.84212 -0.99913 -0.79082 0.0070803 -0.022185 -0.0016336 -0.021528 
-0.22113 -0.58727 -0.81367 -0.77125 -0.0047575 -0.034516 -0.011992 -0.086142 
-0.15881 -0.14073 -0.28212 -0.44867 -0.084991 -0.076442 -0.023007 -0.15207 
0.029769 0.84066 0.69219 0.28757 -0.10456 -0.097487 -0.028433 -0.15257 
0.34265 2.1336 1.5409 1.0939 -0.09239 -0.044052 -0.0075525 -0.14599 
0.54077 2.6361 1.7364 1.4955 -0.030406 0.026317 0.042594 -0.0098543 
0.67066 2.1511 1.3022 1.411 0.083862 0.08567 0.11872 0.25518 
0.57217 1.1322 0.75352 1.0286 0.15127 0.15176 0.14716 0.36452 
0.080902 -0.109 0.20323 0.53764 0.14272 0.17001 0.1373 0.31273 
-0.35742 -1.2801 -0.24168 0.08008 0.10573 0.11 0.10129 0.17084 
-0.36104 -1.7013 -0.54058 -0.27259 0.08567 0.07301 0.076627 0.15883 
-0.38159 -1.7015 -0.71239 -0.52595 0.044402 0.048019 0.074161 0.11148 
-0.72834 -1.8173 -0.8362 -0.67376 -0.037476 -0.012485 0.020891 -0.059014 
-0.71798 -1.8227 -0.91512 -0.79411 -0.087129 -0.07562 -0.034023 -0.24398 
-0.29347 -1.1063 -0.74018 -0.72768 -0.071345 -0.076442 -0.04471 -0.19564 
0.28987 0.17939 -0.28722 -0.41464 -0.0022913 -0.021856 0.0090533 0.032564 
0.41105 1.0373 0.12414 -0.056548 0.030098 0.0088889 0.034044 0.14946 
-0.095514 1.0664 0.29727 0.17462 0.038977 0.0060938 0.0093821 0.0689 
-0.53696 0.65783 0.2218 0.22723 0.011026 0.0054362 0.0024767 -0.081539 
-0.80381 0.3313 0.17725 0.22542 -0.0082102 0.020562 0.0026412 -0.34345 
-0.54009 0.46382 0.35514 0.33262 -0.0019624 0.036839 0.026481 -0.3155 
0.23512 0.59289 0.38162 0.38984 0.017274 0.036839 0.049828 0.017274 
0.99718 0.58352 0.11609 0.24088 0.053774 0.067091 0.040456 0.31832 
1.0794 0.45363 -0.32865 -0.10045 0.081231 0.10754 0.094055 0.37652 
0.61837 0.17429 -0.40149 -0.26453 0.065283 0.1077 0.10047 0.30763 
0.26669 0.074819 -0.0040998 -0.045368 0.078272 0.10195 0.091589 0.29694 
0.26685 0.19369 0.36994 0.24153 0.11559 0.11017 0.11905 0.34051 
0.27376 0.22509 0.47911 0.41154 0.11707 0.10935 0.10047 0.29448 
0.099645 0.031085 0.52104 0.49259 0.086492 0.080902 0.06479 0.11148 
-0.24825 -0.57001 0.48059 0.49358 0.0039565 0.0227 0.018918 -0.14451 
-0.47071 -1.0877 0.30056 0.38425 -0.096665 -0.067235 -0.023501 -0.26486 
-0.60076 -1.0971 0.12069 0.26735 -0.18002 -0.1279 -0.079895 -0.26831 
-0.85593 -0.76616 -0.1136 0.0592 -0.1723 -0.14467 -0.10094 -0.26848 
-0.88864 -0.46166 -0.34476 -0.16046 -0.133 -0.13958 -0.098144 -0.25516 
-0.47169 -0.20304 -0.35611 -0.24924 -0.078415 -0.058685 -0.034188 -0.08384 
0.11494 0.21309 -0.17805 -0.18019 -0.027775 -0.014622 0.062159 0.18415 
0.53386 0.58549 -0.087458 -0.10472 0.0074092 0.0052718 0.026646 0.31486 
0.69121 0.72047 -0.22639 -0.12971 0.074161 -0.00015387 0.037497 0.18136 
0.68973 0.55162 -0.27851 -0.19564 0.051636 0.019411 0.024837 0.035195 
0.13976 0.40036 -0.21208 -0.17953 0.078929 0.070051 0.086492 0.082875 
-0.56623 0.0047785 -0.16983 -0.14895 0.13105 0.11247 0.082546 0.10096 
-0.20255 0.16294 0.061995 0.0042853 0.16015 0.1294 0.078272 -0.021528 
0.45609 0.52449 0.33722 0.22608 0.17544 0.12595 0.051472 -0.028104 
0.41351 0.20684 0.012506 0.12973 0.1345 0.098494 0.035031 0.031907 
0.12365 -0.14303 -0.29774 -0.11228 0.090603 0.063474 0.041114 0.11872 
0.065447 0.32473 -0.030242 -0.024158 0.070215 0.043416 0.024015 0.14124 
0.16311 0.79265 0.44146 0.29234 0.06479 0.036346 0.024837 0.11296 
0.39822 0.6409 0.5337 0.45346 0.056569 0.033715 0.023686 0.13845 
0.47829 0.37455 0.30352 0.36649 0.0034632 -0.034681 -0.0021268 0.13088 
0.42239 0.37504 0.037497 0.20208 -0.031886 -0.031064 0.0031344 0.18202 
0.30039 -0.10554 -0.039449 0.085177 -0.0054151 0.036675 0.039305 0.11839 
-0.14385 -0.96099 -0.27538 -0.1113 0.01826 0.056569 0.03388 -0.039613 
-0.48271 -1.0856 -0.4416 -0.28623 -0.017253 -0.0059084 0.0088889 -0.10028 
-0.35792 -0.17641 -0.031392 -0.094363 -0.012978 -0.036983 -0.010183 -0.057699 
-0.18545 0.64632 0.61591 0.36748 0.012506 -0.029748 -0.016924 -0.020377 
-0.13514 0.56543 0.79873 0.65504 0.032893 0.056569 -0.011827 -0.02498 
-0.077757 0.073668 0.39428 0.51709 0.037826 0.023028 0.010204 -0.093541 
-0.051451 -0.25483 -0.0055795 0.20947 -0.0078813 -0.013636 0.020398 -0.022021 
0.083368 -0.22014 -0.12692 0.027961 -0.05178 -0.052437 -0.0091966 0.041936 
0.057391 0.049335 -0.25072 -0.12149 -0.10143 -0.091732 -0.069043 -0.03616 
0.0075736 0.044896 -0.34131 -0.23658 -0.045861 -0.071509 -0.051451 -0.14895 
0.073175 -0.058028 -0.28212 -0.22721 0.040128 0.0014903 0.0047785 -0.13152 
0.3392 0.049992 -0.020541 -0.041257 0.13384 0.11888 0.097672 0.10047 
0.55244 0.0689 0.15916 0.10885 0.17166 0.15818 0.11346 0.26422 
0.42009 0.052787 0.10129 0.1225 0.15308 0.12069 0.097837 0.27705 
0.04654 0.21687 -0.003771 0.069064 0.11066 0.073668 0.062159 0.15719 
-0.17377 0.65043 0.17478 0.15982 0.069393 0.047362 0.042923 0.1077 
-0.070194 0.90593 0.41483 0.33772 0.10721 0.076134 0.06331 0.088794 
0.19073 0.89804 0.3849 0.42157 0.14042 0.077943 0.06594 0.10211 
0.33163 0.91974 0.5771 0.54488 0.13993 0.070051 0.046046 0.11296 
0.39575 0.89344 0.80663 0.73149 0.13434 0.094713 0.065447 0.12497 
0.29892 0.20668 0.42683 0.54981 0.057227 0.048348 0.053774 0.045389 
-0.109 -0.70335 -0.38998 -0.026953 -0.04619 -0.023665 -0.0090322 -0.1381 
-0.36219 -0.72768 -1.0325 -0.63545 -0.12757 -0.090746 -0.051122 -0.27768 
-0.13119 -0.47679 -1.2257 -0.92202 -0.15816 -0.10686 -0.061973 -0.19712 
0.15982 -0.45788 -0.59566 -0.67376 -0.14073 -0.11409 -0.066084 -0.018568 
-0.030735 -0.89687 0.0051074 -0.22293 -0.12642 -0.09798 -0.025474 0.051636 
-0.46742 -1.4899 -0.073482 -0.11886 -0.059507 -0.047834 0.010204 0.08008 
-0.95786 -1.6694 -0.17953 -0.14287 -0.018075 0.016288 0.0227 0.037497 
-1.5382 -1.4989 -0.034023 -0.055726 0.007738 -0.020541 -0.025802 -0.14599 
-1.6477 -0.94142 0.20438 0.15324 0.0016547 -0.027775 -0.04471 -0.40938 
-0.56639 0.042923 0.32341 0.28856 0.018096 -0.013965 -0.01117 -0.38242 
0.80268 0.97564 0.35202 0.35662 0.011848 0.022864 -0.0021268 -0.060494 
1.4284 1.279 0.30319 0.35087 0.037168 0.054925 0.039141 0.20142 
1.4097 1.3844 0.24663 0.30615 0.11592 0.12891 0.099974 0.19106 
1.013 1.3605 0.13302 0.20405 0.12973 0.1784 0.18498 0.24153 
0.2491 0.98354 -0.077428 0.06035 0.13368 0.17117 0.19205 0.31207 
-0.2277 0.44755 -0.09798 -0.00081153 0.11099 0.1294 0.12776 0.36221 
-0.23329 0.036017 0.051965 0.060186 0.10935 0.068078 0.078107 0.28593 
-0.37847 -0.16687 0.15735 0.14716 0.096028 0.020398 0.019411 -0.044052 
-0.94767 -0.45525 0.20668 0.19747 0.0098754 -0.041586 -0.049149 -0.4906 
-0.69168 -0.522 0.11757 0.15555 -0.071674 -0.13497 -0.11607 -0.41645 
0.33887 0.0087245 -0.073154 0.035688 -0.13415 -0.12462 -0.09946 0.0083956 
0.87157 0.42584 -0.23625 -0.074633 -0.074304 -0.05885 -0.023007 0.24499 
0.76634 0.21194 -0.33539 -0.20551 -0.038133 0.011684 0.012835 0.20849 
0.45462 -0.2157 -0.30498 -0.23329 0.057227 0.056076 0.05772 0.096028 
0.021056 -0.40099 -0.13168 -0.1404 0.094713 0.086821 0.057062 0.024179 
-0.55193 -0.35677 0.17018 0.071695 0.10129 0.08008 0.081395 -0.055726 
-0.78474 -0.25845 0.19566 0.1636 0.036839 0.056733 0.029934 -0.15388 
-0.5031 -0.16835 -0.010019 0.095042 -0.018568 0.0083956 0.011684 -0.12905 
0.12102 -0.10456 -0.071016 0.020562 -0.025145 0.0042853 0.022042 0.04654 
0.48339 0.10869 0.18892 0.15916 0.00066819 0.041772 0.057884 0.1031 
0.34709 0.25452 0.50065 0.40036 0.034044 0.06331 0.046375 0.019247 
0.12398 0.36073 0.66802 0.58746 0.044073 0.046211 0.059364 -0.01676 
0.009711 0.29596 0.55244 0.57382 0.052459 0.033715 0.043745 -0.021034 
-0.15421 -0.12478 0.080409 0.32193 0.013492 0.00017495 0.0064227 -0.017582 
-0.25927 -0.38242 -0.20518 0.021878 -0.028104 -0.01676 -0.02235 -0.060165 
-0.028926 0.0689 -0.20271 -0.080059 -0.024323 -0.035174 -0.029748 -0.028762 
0.25222 0.54652 -0.2448 -0.14517 0.0047785 0.0023123 0.009711 0.037168 
0.34988 0.56921 -0.35874 -0.25664 0.059364 0.037826 0.031742 0.11083 
0.35005 0.30829 -0.25911 -0.22984 0.076956 0.078436 0.05213 0.13631 
0.27294 -0.074962 -0.22754 -0.1792 0.061172 0.067256 0.0592 0.11477 
0.12776 -0.33917 -0.32799 -0.24398 0.088958 0.059364 0.038155 0.079751 
0.043087 -0.29265 -0.44144 -0.33901 0.070051 0.058542 0.062323 0.087808 
0.43784 0.31552 -0.18019 -0.20699 0.15423 0.048348 0.077285 0.21934 
1.0046 1.1356 0.42699 0.21917 0.13434 0.13253 0.10639 0.45067 
1.4115 1.7765 1.111 0.81139 0.17117 0.1756 0.159 0.64271 
1.1963 1.617 1.3545 1.1789 0.24384 0.22542 0.19649 0.3609 
0.43456 0.64846 1.2428 1.2323 0.20487 0.16788 0.15259 -0.013307 
-0.50014 -0.43766 0.94325 1.0671 0.05476 0.055911 0.038483 -0.19005 
-1.4702 -1.0708 0.3951 0.66539 -0.041751 -0.09946 -0.071345 -0.36433 
-2.1785 -1.5026 -0.44588 -0.0011404 -0.20337 -0.24957 -0.21093 -0.64729 
-1.763 -1.1099 -0.95573 -0.5682 -0.28179 -0.30974 -0.2522 -0.59237 
-0.67852 -0.37304 -0.80973 -0.67557 -0.18742 -0.19597 -0.16342 -0.4319 
0.17758 0.094877 -0.52841 -0.52578 -0.11787 -0.056877 -0.029255 -0.25286 
0.5679 -0.16144 -0.37748 -0.4051 -0.023994 0.067913 0.093233 0.015794 
0.49243 -0.53022 -0.19778 -0.24645 0.05476 0.11296 0.14749 0.25304 
0.44952 -0.53548 -0.14582 -0.16095 0.083533 0.11313 0.1373 0.25255 
0.59223 -0.17164 -0.022185 -0.057534 0.10655 0.094055 0.10178 0.2269 
0.50246 0.36386 0.2468 0.15933 0.10244 0.10819 0.078436 0.23693 
0.41368 0.82849 0.38211 0.35695 0.072846 0.081889 0.03799 0.21539 
0.38671 0.78492 0.26126 0.31601 0.073832 0.057391 0.077285 0.1442 
0.19731 0.18728 -0.059014 0.10343 0.031414 0.026481 0.024837 0.054432 
0.055911 -0.1205 -0.16079 -0.03353 0.012342 -0.013307 -0.0024557 0.023193 
-0.035174 0.21852 0.021878 0.024179 0.00050378 -0.023172 -0.011663 0.024508 
-0.059014 0.55589 0.32095 0.23611 0.021713 -0.0026201 0.010533 0.049335 
-0.060987 0.52548 0.38556 0.38671 0.054432 0.024837 0.048513 0.055089 
-0.031228 0.27738 0.1179 0.24038 0.053609 0.026481 0.045553 0.049664 
-0.0054151 -0.031886 -0.18167 0.0060938 0.036346 0.011191 0.031907 0.022206 
-0.041586 -0.24168 -0.19285 -0.0868 0.055582 0.01711 0.03947 0.0031344 
-0.15339 -0.39212 -0.068714 -0.055397 0.020727 0.024015 0.061172 -0.040764 
-0.25565 -0.5978 -0.082196 -0.043559 -0.0082102 0.012506 0.034044 -0.049149 
-0.25976 -0.6782 -0.31747 -0.16325 -0.024323 -0.00015387 0.024179 -0.074469 
-0.11952 -0.37502 -0.34246 -0.24727 -0.010019 -0.0042642 -0.0019624 -0.058685 
0.17889 0.32111 -0.13875 -0.14402 0.016452 0.0059294 0.022371 0.0013258 
0.41943 0.92007 0.16229 0.070544 0.036839 0.047855 0.041936 0.075148 
0.41828 0.98074 0.52153 0.3683 0.045389 0.034702 0.040292 0.11576 
-0.10883 0.15407 0.52729 0.47385 0.033551 0.019411 0.028619 0.0095465 
-0.5294 -0.46133 0.30878 0.41187 0.055089 0.0324 0.024179 0.025988 
-0.17312 -0.045696 0.33114 0.39592 0.13861 0.10787 0.10524 0.13664 
0.27935 0.17478 0.32719 0.38046 0.13532 0.11806 0.10474 0.21079 
0.27968 -0.59171 -0.059507 0.12299 0.049006 0.044567 0.044567 0.041936 
-0.15207 -1.4084 -0.89637 -0.49192 -0.07414 -0.066741 -0.05326 -0.18726 
-0.57823 -1.384 -1.5182 -1.1091 -0.19433 -0.14961 -0.11903 -0.34707 
-0.6195 -0.63874 -1.4398 -1.2824 -0.18907 -0.19515 -0.11738 -0.25417 
-0.37403 0.13549 -0.8186 -0.93517 -0.070687 -0.10489 -0.060494 -0.019719 
0.0087245 0.65487 -0.11787 -0.39146 0.033715 -0.012978 0.01152 0.17265 
0.41943 0.96068 0.53436 0.20734 0.11839 0.10277 0.058871 0.19073 
0.82126 1.167 1.0876 0.74744 0.23348 0.1544 0.10228 0.25847 
1.0638 1.3873 1.4039 1.1598 0.18695 0.12381 0.12118 0.37701 
0.87239 1.1022 1.2043 1.1994 0.18235 0.10425 0.10195 0.42223 
0.39296 0.50575 0.70009 0.92566 0.089616 0.095042 0.057555 0.34676 
0.20076 0.26176 0.27721 0.55014 0.086163 0.080244 0.053445 0.20898 
0.23578 0.2514 0.05772 0.27639 0.13927 0.096193 0.091918 -0.022679 
-0.042901 -0.21258 -0.37107 -0.10094 0.085012 0.086985 0.068078 -0.20748 
-0.1695 -0.65978 -0.70236 -0.44835 0.042923 0.025495 0.0060938 -0.1353 
-0.46873 -1.1068 -0.66685 -0.55637 -0.037969 -0.030077 -0.059178 -0.15487 
-1.2795 -1.3168 -0.40461 -0.40478 -0.14287 -0.11048 -0.11656 -0.35808 
-1.7125 -1.5001 -0.55308 -0.48419 -0.23872 -0.20238 -0.16358 -0.49751 
-1.3263 -1.2336 -0.71585 -0.60059 -0.23757 -0.16851 -0.16259 -0.34756 
-0.18183 -0.20567 -0.50425 -0.50622 -0.15733 -0.11524 -0.095514 0.028454 
0.84789 0.48372 -0.22261 -0.30185 -0.04323 -0.04323 -0.0088678 0.3974 
1.1322 0.68759 0.21474 0.045389 0.045224 0.050157 0.063145 0.45412 
0.96479 0.89081 0.67756 0.4944 0.16097 0.14321 0.10326 0.22016 
0.60473 1.0748 0.76388 0.68134 0.17906 0.14716 0.087972 -0.010019 
0.25156 0.99176 0.60407 0.64649 0.16245 0.10326 0.070544 0.027796 
0.093069 0.68381 0.39411 0.51676 0.15209 0.092082 0.064296 0.13582 
0.035524 0.2856 0.24236 0.36485 0.12349 0.082546 0.080738 0.17626 
-0.15964 -0.023994 0.14535 0.24449 0.10376 0.066763 0.049006 0.089616 
-0.62821 -0.31698 0.092082 0.19862 0.083204 0.034044 0.0016547 -0.21669 
-0.82567 -0.39705 0.036839 0.1248 0.027468 -0.0088678 -0.044217 -0.31583 
-0.12774 -0.096665 0.020233 0.08715 0.0034632 -0.0072237 -0.013636 0.00083261 
0.92731 0.26307 -0.07562 0.011848 -0.0022913 0.0014903 0.030756 0.40315 
1.1547 0.35202 -0.15257 -0.068386 -0.013636 0.033551 0.051965 0.44689 
0.63892 0.28379 -0.1113 -0.073976 -0.0016336 0.014315 0.027961 0.23315 
0.025988 0.18087 -0.00031829 0.022042 -0.026789 0.017767 0.00017495 -0.1108 
-0.4615 -0.11755 0.10474 0.099316 -0.047834 -0.035832 -0.0024557 -0.2499 
-0.76386 -0.29199 0.098988 0.12184 -0.041751 -0.039613 -0.015444 -0.14369 
-0.41201 -0.02942 0.064296 0.11346 -0.01232 -0.0075525 -0.010512 -0.042079 
0.13203 0.45889 0.16804 0.18202 0.070544 0.062981 0.035195 -0.040764 
0.15456 0.50213 0.3849 0.33459 0.11526 0.096193 0.08863 -0.086964 
0.04095 0.040785 0.44015 0.43275 0.11724 0.090109 0.085012 0.0072447 
0.21128 -0.39392 0.16886 0.30122 0.087972 0.0592 0.057062 0.0031344 
0.36534 -0.67113 -0.22474 -0.0073881 0.011848 0.0065871 0.020069 0.035688 
-0.0075525 -0.61588 -0.4028 -0.22359 -0.10012 -0.10489 -0.051451 0.040128 
-0.62394 -0.4929 -0.49915 -0.35825 -0.10439 -0.11196 -0.03205 -0.04471 
-0.6782 -0.16835 -0.3594 -0.33375 -0.093541 -0.10028 -0.037969 -0.038462 
0.16179 0.55951 0.12644 -0.013143 -0.026789 -0.014129 -0.0016336 0.062652 
0.88423 1.3079 0.62741 0.43028 0.01563 0.064461 0.057555 0.17215 
0.95904 1.3346 0.74152 0.64386 0.12135 0.095042 0.090603 0.22082 
0.46399 0.54389 0.49786 0.56592 0.13697 0.09833 0.10885 0.16081 
-0.30991 -0.35003 0.00033937 0.23249 0.091096 0.06035 0.05624 0.025495 
-0.63775 -0.66981 -0.41481 -0.1547 0.11231 0.056733 0.027468 -0.026789 
-0.53269 -0.44785 -0.52102 -0.35545 0.15111 0.089945 0.08978 0.044238 
0.04358 0.10935 -0.34033 -0.28656 0.15703 0.14519 0.14354 0.16294 
0.55803 0.46514 0.024673 -0.063618 0.12562 0.12957 0.12332 0.21326 
0.62643 0.38129 0.16311 0.097015 0.084026 0.077121 0.076134 0.18235 
0.3198 -0.10916 0.010204 0.056076 0.045389 0.028783 0.039141 0.080573 
-0.13053 -0.35627 0.042429 0.066105 -0.018404 -0.022679 -0.0011404 -0.06148 
-0.36367 -0.048163 0.37783 0.28001 -0.099953 -0.050793 -0.026624 -0.182 
-0.0406 0.3775 0.66375 0.56642 -0.1427 -0.08269 -0.020212 -0.10883 
0.6626 0.58417 0.82734 0.74431 -0.0406 -0.0004827 0.031742 0.16574 
0.84017 0.38227 0.38836 0.54241 0.025988 0.03799 0.069886 0.31075 
0.51035 0.16738 0.09274 0.29152 0.049992 0.060844 0.092576 0.27984 
0.10787 0.17873 0.12217 0.2121 0.055582 0.049992 0.057884 0.1881 
-0.27966 0.090109 0.17626 0.20487 0.05772 0.046046 0.030427 -0.024652 
-0.46479 -0.27259 0.051308 0.1493 0.0592 0.040292 0.0032988 -0.18413 
-0.43996 -0.71749 -0.16868 -0.022843 0.06331 0.04917 0.023522 -0.22737 
-0.49356 -1.1303 -0.34411 -0.2037 -0.011827 -0.008539 0.0090533 -0.22293 
-0.53992 -0.99255 -0.41382 -0.30876 -0.072825 -0.070852 -0.028104 -0.17789 
-0.53696 -0.3298 -0.42796 -0.35578 -0.097816 -0.06 -0.031064 -0.074962 
-0.35841 0.4385 -0.33753 -0.32717 -0.05589 -0.009361 0.0065871 0.10047 
-0.24118 0.86286 -0.050629 -0.11261 0.056404 0.066763 0.083368 0.14963 
0.087808 0.91711 0.19517 0.11494 0.16114 0.15111 0.12316 0.21326 
0.36205 0.4219 0.17873 0.1738 0.1835 0.16919 0.12283 0.1909 
0.35794 -0.028926 0.11247 0.15571 0.086328 0.12168 0.054925 0.12151 
0.30829 -0.27999 0.16097 0.17807 0.011191 0.013328 0.015301 0.03092 
0.28806 -0.26141 0.19961 0.2006 -0.035832 -0.050793 0.016123 0.019905 
0.13615 0.013492 0.10096 0.15686 -0.077922 -0.054739 -0.014787 -0.038791 
-0.071838 0.15883 0.01152 0.11954 -0.07825 -0.04471 -0.014787 -0.095021 
0.086492 0.31634 0.17314 0.18267 -0.043395 -0.018733 0.0056006 -0.0040998 
0.31569 0.20651 0.17495 0.20816 0.021384 0.0072447 0.034209 0.13302 
0.16064 -0.14303 -0.066577 0.061501 0.042923 0.041114 0.047526 0.25535 
-0.30498 -0.83209 -0.19679 -0.081539 0.060022 0.051308 0.052623 0.26406 
-0.71502 -1.3761 -0.33885 -0.22047 0.074819 0.059857 0.041114 0.05624 
-0.7313 -1.115 -0.59319 -0.39195 0.043909 0.048184 0.022042 -0.3663 
-0.83439 -0.55752 -0.80693 -0.62443 -0.0021268 -0.015444 -0.035996 -0.43651 
-0.82189 -0.094034 -0.62443 -0.59188 -0.075455 -0.052273 -0.052602 -0.28952 
-0.023665 0.63268 -0.17739 -0.29413 -0.07003 -0.06 -0.052766 -0.069043 
0.97121 1.2246 0.17774 0.016288 0.0034632 -0.015609 -0.024487 0.15916 
1.0792 0.94852 0.37372 0.244 0.058871 0.045718 0.047362 0.2611 
0.51167 0.3803 0.34462 0.34512 0.063474 0.08419 0.062323 0.10014 
-0.026953 0.10885 0.29661 0.33015 0.040456 0.072188 0.038648 -0.074633 
-0.094856 0.22 0.256 0.31157 0.041114 0.035524 0.012013 -0.088773 
-0.038956 0.33591 0.21802 0.27803 0.0324 0.035524 0.026974 0.057227 
0.074983 0.3757 0.3119 0.3198 0.063474 0.03799 0.038977 0.27113 
0.24597 0.40003 0.48141 0.43554 0.067091 0.04654 0.06183 0.3803 
0.25798 0.40858 0.36879 0.42962 0.055911 -0.011663 0.035195 0.19106 
0.19385 0.13762 -0.046354 0.15176 -0.015116 -0.018075 0.0072447 -0.10587 
0.10836 -0.40067 -0.35068 -0.13958 -0.067235 -0.045696 -0.010183 -0.10669 
-0.089266 -0.70631 -0.23 -0.16062 -0.018568 -0.030242 0.013657 0.023193 
-0.22918 -0.54617 -0.016924 -0.039613 0.021056 0.0014903 0.016616 0.093398 
-0.279 -0.23444 0.029769 0.018918 0.063968 0.054103 0.0079024 -0.080881 
-0.22803 -0.058356 -0.19975 -0.093048 0.078107 0.065447 0.01826 -0.25269 
-0.071181 -0.14188 -0.47843 -0.30004 0.055911 0.040128 0.032729 -0.13333 
0.067256 0.01826 -0.38505 -0.31714 0.031907 -0.011498 0.020562 -0.011005 
0.29201 0.43423 -0.047341 -0.11705 0.028947 0.016288 0.025166 0.033551 
0.39987 0.52745 0.18909 0.09685 0.044896 0.065118 0.05476 0.11526 
0.23808 0.22345 0.11707 0.11165 0.043745 0.070051 0.039634 0.060186 
-0.14829 -0.037805 -0.12955 -0.016102 0.034866 0.045553 0.042923 -0.030077 
-0.13185 0.048841 -0.16884 -0.065591 0.036839 0.045718 0.027139 0.025001 
0.15226 0.20257 0.013328 0.014315 0.0064227 -0.011334 -0.0019624 0.18383 
0.19796 0.20964 0.12792 0.11477 0.015301 0.01004 0.0018191 0.16853 
0.062159 0.26406 0.059528 0.10688 0.048841 0.023357 0.016616 -0.012156 
0.20964 0.4168 0.12875 0.147 0.087479 0.068736 0.050321 -0.049807 
0.76832 0.63909 0.42288 0.34429 0.090438 0.10343 0.068736 0.14979 
0.56494 0.40759 0.56444 0.52959 0.053116 0.045224 0.058871 0.26291 
-0.10669 -0.085649 0.45116 0.49835 0.010862 -0.015609 0.02829 0.15982 
-0.22935 -0.11837 0.20553 0.33887 0.025001 0.02533 0.036182 0.099645 
0.046375 0.23331 -0.050958 0.13023 0.050979 0.022535 0.043909 0.03799 
0.51923 0.68496 -0.23724 -0.072003 0.061995 0.048677 0.036675 0.056733 
0.68726 0.6552 -0.26404 -0.16934 0.079422 0.045718 0.03388 0.079587 
0.47467 0.19418 -0.17164 -0.10768 0.12003 0.10556 0.066763 0.060186 
0.20487 -0.0011404 0.034209 0.0083956 0.099645 0.072681 0.088794 0.035195 
-0.016102 -0.52463 0.14469 0.11132 0.032236 0.029605 0.036182 0.0028056 
-0.67178 -1.8935 -0.031392 0.037826 -0.050136 -0.037805 0.0059294 -0.090746 
-1.6313 -2.3743 -0.096007 -0.031886 -0.10373 -0.077428 -0.053424 -0.30185 
-1.5427 -1.0871 0.32407 0.2172 -0.12527 -0.10521 -0.068879 -0.24727 
-0.60454 0.34955 0.67361 0.54948 -0.098802 -0.085813 -0.03205 -0.040435 
0.11642 1.0975 0.82603 0.74431 -0.093705 -0.079237 -0.058028 0.11543 
0.2343 1.4113 0.8867 0.86039 -0.066084 -0.063289 -0.067892 -0.035174 
0.38046 1.5744 0.86614 0.89196 0.015465 0.004943 -0.0090322 -0.1233 
0.77605 1.4597 0.52071 0.67773 0.14256 0.10819 0.10803 -0.0016336 
0.96562 0.38803 -0.36729 0.033058 0.13861 0.13105 0.13631 0.28099 
0.99192 -0.85527 -1.3562 -0.78786 0.040785 0.097179 0.085341 0.33903 
0.57497 -1.1389 -1.6186 -1.254 -0.028926 0.0074092 0.025659 0.12595 
-0.18397 -0.87566 -1.2084 -1.1879 -0.056548 -0.021363 -0.009361 -0.099131 
-0.46298 -0.35644 -0.54239 -0.74774 0.01826 -0.016431 0.014479 -0.087293 
-0.20633 0.14223 0.069393 -0.22063 0.099974 0.049499 0.037332 0.092247 
-0.093376 0.26685 0.45396 0.2075 0.14617 0.075805 0.0786 0.2006 
-0.095678 0.16525 0.5651 0.45198 0.16212 0.10113 0.070873 0.11329 
-0.19926 0.028619 0.53173 0.52498 0.11296 0.08863 0.041278 -0.13004 
-0.11787 -0.053424 0.40348 0.46744 0.068736 0.061172 0.054267 -0.19827 
0.14239 -0.034352 0.24367 0.35317 0.030263 0.036017 0.053281 0.028783 
0.39411 -0.092719 0.098659 0.22082 -0.0080457 0.028783 0.048677 0.25107 
0.44968 -0.046025 1.0539e-005 0.10524 -0.024652 0.010369 0.027796 0.21227 
0.31388 0.19649 -0.061645 0.032236 -0.0090322 0.023851 0.0324 0.067091 
0.19451 0.43176 -0.053095 0.03799 0.014972 0.011026 0.015959 0.00033937 
0.057555 0.63087 0.090274 0.099316 0.0087245 -0.025474 -0.0064016 -0.014951 
-0.50079 0.3974 0.2366 0.20898 -0.03353 -0.074962 -0.040435 -0.1501 
-0.95194 -0.11607 0.29661 0.28379 -0.086307 -0.073318 -0.06855 -0.20584 
-0.55686 -0.2448 0.4852 0.42535 -0.051944 -0.059014 -0.033694 -0.12001 
-0.13991 -0.24612 0.47829 0.48848 0.0070803 -0.0060728 -0.0029489 -0.0014692 
-0.0406 -0.12445 0.2657 0.40694 0.047033 0.038977 0.024179 0.022206 
0.14864 0.26866 0.11987 0.26159 0.090603 0.070051 0.059035 0.071695 
0.53337 0.38178 -0.080388 0.078436 0.066269 0.039963 0.072024 0.12431 
0.7573 0.27096 -0.2522 -0.096007 0.044896 -0.016102 0.024508 0.10869 
0.56757 0.062817 -0.27472 -0.18331 0.030263 0.013164 0.032893 0.13746 
0.14009 -0.37666 -0.32668 -0.25565 0.032071 0.060022 0.060515 0.11691 
-0.30925 -0.94948 -0.57938 -0.40823 0.049828 0.046046 0.046704 0.053281 
-0.53976 -1.3802 -0.77767 -0.61309 -0.02646 -0.028926 0.015301 -0.10341 
-0.5031 -1.0292 -0.62049 -0.5858 -0.096007 -0.098802 -0.049642 -0.12314 
-0.04323 0.28478 -0.066741 -0.2277 -0.019061 -0.041915 -0.034023 -0.011992 
0.44656 1.3503 0.36632 0.16821 0.078107 0.027632 0.014972 0.11609 
0.54603 1.2002 0.48651 0.3854 0.13943 0.11181 0.068736 0.059693 
0.32867 0.50723 0.35498 0.40644 0.11888 0.11165 0.094713 -0.0054151 
0.044896 0.12316 0.32917 0.38359 0.091589 0.09126 0.070873 -0.049314 
-0.021199 0.17462 0.42371 0.42568 0.059364 0.050157 0.048348 -0.055561 
0.081231 0.28593 0.37191 0.41483 0.058542 0.021549 -0.0068948 -0.020706 
0.042429 0.28461 0.2657 0.35169 0.087314 0.021549 0.028454 -0.004593 
-0.23428 0.36024 0.26653 0.31618 0.078436 0.054103 0.030427 0.0028056 
-0.38028 0.38244 0.19994 0.28132 0.052294 0.041607 0.037497 0.022371 
-0.14467 0.35202 0.17084 0.24663 0.062323 0.057884 0.039141 0.20043 
0.087643 0.2468 0.11132 0.19073 0.051472 0.064132 0.063968 0.25913 
0.045389 -0.095349 -0.081539 0.045553 0.022864 0.031578 0.040128 0.14913 
-0.30284 -0.61523 -0.29856 -0.14237 0.0026412 -0.0022913 0.017767 -0.13333 
-0.38422 -0.71075 -0.34707 -0.25171 -0.0067304 0.0070803 -0.0075525 -0.24858 
0.31634 -0.22113 -0.14961 -0.15618 0.02829 0.041278 0.03799 -0.071674 
0.81896 0.02122 0.00033937 0.0034632 0.073997 0.071531 0.079916 0.15555 
0.44689 -0.45065 -0.14418 -0.06855 0.050321 0.027632 0.049664 0.15686 
0.1733 -0.57938 -0.23592 -0.15355 0.039305 -0.02235 0.029934 0.17347 
0.17232 -0.037476 -0.086636 -0.080059 0.053116 0.040292 0.05624 0.23512 
-0.0868 0.40546 0.073504 0.031249 0.064625 0.059857 0.056898 0.24252 
-0.69464 0.38507 0.075805 0.069064 0.029769 0.037168 0.058542 0.17708 
-1.0067 0.21605 0.10967 0.14897 -0.013307 -0.0054151 0.016288 -0.057041 
-0.72933 0.36057 0.32933 0.28889 0.018918 0.013492 -0.0022913 -0.31632 
-0.21504 0.87437 0.52646 0.46448 0.0093821 0.012835 -0.025145 -0.51312 
0.28116 1.1064 0.62462 0.59009 0.013328 0.017603 0.0041209 -0.218 
0.42009 0.48536 0.45511 0.51709 0.021878 0.020069 -0.0077169 0.071531 
0.16229 -0.59895 -0.15158 0.11559 -0.02794 -0.010676 -0.027118 0.14305 
-0.05178 -1.0879 -0.87155 -0.44752 -0.049971 -0.036654 -0.052602 0.038319 
0.052952 -0.80167 -1.1282 -0.82831 -0.053753 -0.041915 -0.030735 0.012506 
0.23989 -0.18249 -0.81038 -0.77175 -0.027118 -0.028433 0.016288 0.028454 
0.30171 0.52877 -0.24135 -0.40297 0.046375 0.059693 0.073668 0.15423 
0.1202 0.46333 0.18909 -0.017253 0.096028 0.1008 0.084355 0.20175 
0.058542 -0.33868 0.27014 0.16442 0.099974 0.090767 0.093726 0.22279 
0.20224 -0.99223 0.15768 0.2001 0.096521 0.091918 0.087479 0.23578 
0.035195 -1.0993 0.14141 0.18514 0.013492 0.055582 0.068242 0.11378 
-0.14418 -0.75054 0.15867 0.19073 -0.073647 -0.020048 0.015465 -0.060823 
0.092082 0.057884 0.099152 0.15555 -0.097816 -0.099953 -0.052437 -0.27374 
0.2583 0.76963 0.19451 0.19961 -0.065591 -0.097322 -0.051451 -0.26486 
-0.017746 0.94227 0.30697 0.2879 0.030263 -0.0032777 -0.0014692 -0.14698 
-0.22968 0.63827 0.16919 0.24548 0.079751 0.06183 0.028454 0.0421 
-0.32306 0.23841 0.078107 0.17495 0.080244 0.073339 0.056076 0.1419 
-0.4176 -0.062796 0.14733 0.18317 0.078436 0.053938 0.053445 0.14601 
-0.17049 0.15982 0.23594 0.24515 0.04654 0.046375 0.054596 0.10704 
0.29135 0.57825 0.03388 0.13467 0.057391 0.063639 0.041936 0.11115 
0.66819 0.82455 -0.036489 0.054925 0.035853 0.041772 0.077943 0.18514 
0.41992 0.67394 0.076299 0.10047 0.092576 0.078272 0.084848 0.18218 
0.070051 0.38375 0.15703 0.18892 0.085012 0.091918 0.046375 0.11346 
0.019411 0.039963 -0.086142 0.03947 0.022371 0.057227 0.069558 0.088465 
-0.14221 -0.70467 -0.45722 -0.24332 -0.03912 -0.01117 0.034537 0.062159 
-0.15273 -0.97841 -0.48633 -0.36203 -0.035503 -0.036983 -0.010348 0.065776 
0.2463 -0.044381 -0.022679 -0.12215 0.0074092 0.0090533 0.00099702 0.098166 
0.609 0.83491 0.14009 0.062817 0.051308 0.056569 0.045553 0.027468 
0.69302 0.97614 -0.22326 -0.06444 0.063639 0.068736 0.044567 0.10556 
0.87256 0.93997 -0.22277 -0.12708 0.066927 0.053774 0.038155 0.21556 
0.91021 0.64418 0.19747 0.10819 0.10918 0.066598 0.043745 0.24088 
0.069886 -0.6343 0.41795 0.31207 0.054432 0.0036276 -0.018404 -0.072003 
-0.98039 -2.1597 0.19994 0.24269 -0.06444 -0.091075 -0.059178 -0.38307 
-1.5193 -2.8799 -0.279 -0.076771 -0.2083 -0.19646 -0.14007 -0.52825 
-1.582 -2.3358 -0.68 -0.39475 -0.28952 -0.23099 -0.16309 -0.44029 
-1.3285 -0.82946 -0.55505 -0.45147 -0.22359 -0.17131 -0.10439 -0.25467 
-0.59007 0.33788 -0.13382 -0.21175 -0.099624 -0.070687 -0.020377 0.0026412 
0.47796 1.0646 0.3221 0.15357 0.01152 0.042923 0.082875 0.21572 
1.0939 1.7318 0.72705 0.52762 0.12283 0.1465 0.098166 0.32539 
1.2145 2.2107 0.92665 0.79018 0.19566 0.16048 0.12447 0.35136 
1.1241 2.1691 0.93602 0.92188 0.27014 0.2006 0.14782 0.35399 
0.91596 1.6836 0.70009 0.80449 0.28494 0.22115 0.16837 0.35416 
0.68792 0.98058 0.39099 0.57003 0.23315 0.21013 0.16311 0.2879 
0.43127 0.29579 0.15242 0.33525 0.14848 0.15851 0.11296 0.23101 
0.10392 -0.55571 -0.13711 0.062652 0.075476 0.066763 0.064625 0.10573 
-0.25384 -1.5606 -0.4638 -0.24924 -0.0068948 -0.029091 0.0065871 -0.023172 
-0.57692 -1.8136 -0.56327 -0.40461 -0.044546 -0.050793 -0.027611 -0.14287 
-0.56574 -1.0506 -0.37436 -0.35052 -0.061973 -0.082525 -0.051451 -0.098967 
-0.19482 0.14897 -0.037969 -0.12511 -0.017582 -0.052931 -0.034845 0.025988 
0.147 1.0263 0.33476 0.18613 0.040128 0.020562 0.0056006 -0.039942 
0.33492 1.2941 0.57793 0.45116 0.065612 0.070873 0.040292 -0.22852 
0.17166 0.68052 0.53699 0.51019 0.0324 0.059035 0.032564 -0.17082 
-0.36959 -0.78342 -0.011992 0.2006 -0.063289 -0.038298 -0.0029489 -0.035174 
-0.90213 -2.0136 -0.78178 -0.37337 -0.20468 -0.13168 -0.074633 -0.10028 
-0.77651 -1.6277 -1.0762 -0.77306 -0.23083 -0.15816 -0.11327 -0.20945 
-0.34707 -0.44752 -0.69266 -0.67836 -0.14763 -0.11804 -0.05326 -0.19449 
-0.24595 0.30253 -0.24529 -0.3691 -0.009361 -0.035832 0.0023123 -0.088115 
0.12891 0.73955 0.14946 -0.058028 0.080409 0.039305 0.060022 0.034209 
0.70321 1.2139 0.55096 0.35038 0.1659 0.16245 0.10606 0.29201 
0.83819 1.4138 0.88752 0.73132 0.20191 0.18136 0.14486 0.47155 
0.094713 1.0373 0.89853 0.85266 0.14946 0.15357 0.14206 0.36435 
-0.38274 0.53436 0.76585 0.81583 0.12858 0.063145 0.050814 0.020398 
0.20964 0.3706 0.80959 0.83967 0.10113 0.062817 0.0227 -0.15437 
1.073 0.39099 0.83359 0.84937 0.085506 0.087643 0.068407 0.094877 
0.95871 0.12973 0.38046 0.58138 0.084519 0.073832 0.09685 0.26225 
0.16179 -0.87697 -0.56919 -0.09091 -0.011992 0.0014903 0.020069 0.072353 
-0.3617 -1.6407 -1.385 -0.86365 -0.09798 -0.074633 -0.088608 -0.21685 
-0.67836 -1.6037 -1.455 -1.1885 -0.16309 -0.1746 -0.12922 -0.39951 
-0.82978 -0.94553 -0.87681 -0.9503 -0.16375 -0.16934 -0.11294 -0.42779 
-0.7803 -0.36811 -0.27999 -0.5049 -0.055232 -0.071509 -0.016924 -0.26371 
-0.48813 0.041607 -0.031392 -0.19301 0.08715 0.065776 0.043416 -0.032215 
0.0067515 0.45429 -0.057534 -0.06148 0.10113 0.10063 0.090931 0.19862 
0.41417 0.74514 0.085999 0.055254 0.11592 0.098001 0.086821 0.28741 
0.57036 0.81896 0.329 0.25452 0.10507 0.065283 0.11148 0.30023 
0.524 0.68299 0.47352 0.40841 0.078436 0.10737 0.097508 0.15982 
0.38951 0.51101 0.487 0.47089 0.083697 0.097672 0.067913 0.068242 
0.17265 0.28609 0.45741 0.47254 0.022042 0.049992 0.047362 0.014479 
0.010862 0.046375 0.34216 0.43291 -0.029748 0.0085601 -0.0019624 0.0024767 
-0.021199 0.086821 0.39806 0.43916 -0.038133 -0.021528 0.019247 0.015465 
0.079587 0.30237 0.49424 0.50575 -0.017253 -0.012978 0.011355 0.081067 
0.24992 0.40217 0.34594 0.43028 0.033058 0.025166 0.014479 0.11921 
0.40973 0.42732 0.074326 0.22789 0.053774 0.045389 0.046704 0.14897 
0.4459 0.33476 -0.16539 0.01974 0.082382 0.077121 0.066434 0.086985 
0.21638 0.16015 -0.30448 -0.14122 0.08419 0.076134 0.059528 -0.011827 
0.14831 0.00017495 -0.33243 -0.22376 0.06594 0.054596 0.029441 -0.046025 
-0.044052 -0.29643 -0.29396 -0.2379 0.068736 0.027468 0.0041209 -0.088115 
-0.35085 -0.54387 -0.33654 -0.27637 0.018425 0.0051074 0.016781 -0.072989 
-0.33112 -0.55965 -0.30169 -0.27045 0.047526 0.031907 0.039141 -0.021856 
-0.013636 -0.33276 -0.091732 -0.14171 0.080902 0.053774 0.05065 0.082875 
0.23512 -0.10719 -0.008539 -0.030735 0.057227 0.057391 0.05065 0.10211 
0.17495 0.031907 -0.17246 -0.078579 -0.0032777 0.030427 0.035031 0.083533 
-0.29182 0.019083 -0.34953 -0.22557 -0.061645 -0.035667 -0.052602 -0.05737 
-0.8071 0.090438 -0.12396 -0.12955 -0.052931 -0.054082 -0.012649 -0.12166 
-0.80282 -0.079237 0.21408 0.11115 -0.03501 -0.038462 -0.014293 -0.11343 
-0.2134 -0.15799 0.36205 0.27672 -0.034845 -0.035503 -0.022514 -0.033365 
0.3558 0.22674 0.45001 0.40052 -0.0771 -0.039284 -0.015116 0.074654 
0.61591 0.45692 0.41877 0.4653 -0.014622 -0.040271 0.00033937 0.15505 
0.64369 0.38129 0.42075 0.45609 0.059035 0.017603 0.053445 0.2394 
0.35038 0.33394 0.36008 0.43061 0.13401 0.10885 0.089287 0.23035 
0.065776 0.24663 0.34002 0.40546 0.16623 0.15768 0.12283 0.064954 
-0.10965 0.016781 0.25255 0.3193 0.16886 0.15176 0.10803 0.10852 
0.14157 0.19369 0.22838 0.2805 0.10145 0.086985 0.078929 0.3581 
0.52778 0.71357 0.29924 0.34331 0.059364 0.069393 0.049664 0.42535 
0.15653 0.59519 0.26373 0.31782 0.009711 -0.017911 -0.0096899 -0.046354 
-0.2573 0.21342 0.065776 0.18662 -0.024816 -0.059836 -0.056877 -0.4689 
0.037661 0.43012 0.0324 0.11757 0.004943 -0.016102 -0.041915 -0.35759 
0.046046 0.56296 0.0324 0.087643 0.01415 0.014315 0.0018191 -0.13662 
-0.02235 0.23035 0.012506 0.053938 0.036675 0.025988 0.0039565 0.070544 
-0.23987 -0.66899 -0.14698 -0.019884 0.076627 0.051636 0.0046141 0.12891 
-0.3571 -1.3331 -0.36499 -0.20468 0.083697 0.057555 0.029605 0.089123 
-0.26848 -1.2614 -0.54568 -0.3885 0.090931 0.060515 0.051801 0.03947 
0.047197 -0.51247 -0.6149 -0.49931 0.054432 0.040292 0.062652 0.10754 
0.36698 0.21276 -0.35183 -0.38143 0.052459 0.049499 0.055747 0.20076 
0.34462 0.53386 -0.109 -0.18923 0.042429 0.032729 0.0069159 0.15045 
0.21441 0.80515 -0.22606 -0.18167 -0.011334 0.015794 0.01004 0.059364 
0.064296 0.60916 -0.46577 -0.34575 -0.10275 -0.052931 0.0032988 -0.078579 
-0.28031 -0.50457 -0.43832 -0.37748 -0.18035 -0.13777 -0.068386 -0.19959 
-0.49011 -1.2737 0.028454 -0.097651 -0.1963 -0.1741 -0.11261 -0.23592 
-0.56278 -1.1537 0.53995 0.31914 -0.16062 -0.14796 -0.095349 -0.18035 
-0.4763 -0.67836 0.80021 0.63136 -0.052109 -0.063946 -0.054246 -0.11015 
-0.29182 -0.16572 0.81123 0.77177 0.035524 0.0024767 0.022371 -0.052931 
-0.093376 0.40315 0.72458 0.76996 0.084519 0.075148 0.06742 0.044731 
0.18843 0.9763 0.71768 0.767 0.12644 0.1368 0.089945 0.15999 
0.31733 1.2002 0.66671 0.7328 0.15176 0.14108 0.10113 0.19073 
0.21062 0.8086 0.33969 0.50641 0.1054 0.096028 0.08978 0.11313 
0.18399 0.11757 -0.15898 0.10293 0.041114 0.026317 0.018589 0.01711 
0.069886 -0.36729 -0.73393 -0.38817 -0.015938 -0.013143 -0.0054151 -0.072003 
-0.065755 -0.33852 -1.0468 -0.73459 -0.044217 -0.021199 -0.0095255 -0.078579 
-0.028762 -0.093705 -0.98729 -0.84606 -0.025309 -0.009361 0.0014903 -0.061809 
0.15949 -0.14763 -0.78474 -0.77125 0.023357 0.033222 0.042265 0.024508 
0.27047 -0.39919 -0.56804 -0.6172 0.034044 0.052294 0.059035 0.084026 
0.24482 -0.52694 -0.36515 -0.44391 0.040785 0.040785 0.042923 0.075641 
0.083204 -0.6149 -0.25565 -0.31172 -0.031228 -0.0062372 0.0039565 -0.0057439 
-0.22606 -0.60717 -0.16999 -0.17197 -0.072003 -0.049478 -0.0098543 -0.11607 
-0.40461 -0.20452 0.13203 0.043745 -0.063946 -0.054575 -0.025967 -0.1746 
-0.20173 0.32999 0.46514 0.32835 -0.0036066 -0.04471 -0.033694 -0.05178 
0.098001 0.66063 0.67805 0.5679 0.044238 0.0085601 0.011026 0.085835 
0.22756 0.55622 0.64764 0.62955 0.086163 0.067913 0.066434 0.29908 
0.22657 0.25074 0.40841 0.5041 0.050157 0.058542 0.073997 0.40184 
0.011684 -0.12264 0.0037921 0.22 0.061666 0.054103 0.074983 0.27886 
-0.086471 -0.10094 -0.12018 0.043251 0.046375 0.07301 0.040456 -0.23362 
0.03947 0.26274 -0.041422 0.019576 0.067749 0.081395 0.036675 -0.52743 
0.31388 0.53321 0.04506 0.062488 0.061337 0.033222 0.044238 -0.16111 
0.48257 0.60094 0.16985 0.13171 0.036675 0.021056 0.04506 0.21062 
0.46695 0.54373 0.38671 0.30763 0.05476 0.011191 0.057391 0.3757 
0.14469 0.34972 0.41236 0.42551 0.080244 0.075476 0.038648 0.22082 
-0.13892 0.25387 0.25419 0.34709 0.082546 0.035688 0.040785 0.076956 
-0.066084 0.26718 0.10606 0.22361 0.089123 0.069064 0.077121 -0.006566 
0.089452 0.19237 0.036182 0.12908 0.075641 0.071037 0.086985 0.11806 
0.22838 0.12299 0.014808 0.080738 0.093726 0.10145 0.10869 0.27014 
0.42173 0.29596 -0.018239 0.029769 0.061008 0.084684 0.084355 0.26998 
0.54027 0.48339 -0.12494 -0.023336 0.059364 0.049664 0.057391 0.17199 
0.44903 0.29974 -0.15158 -0.077264 0.091425 0.085835 0.08156 0.10935 
-0.070359 -0.18874 -0.22376 -0.14122 0.071037 0.063968 0.049335 -0.029584 
-0.51789 -0.40757 -0.34871 -0.2476 0.033387 0.0052718 -0.0075525 -0.14566 
-0.79937 -0.73607 -0.43552 -0.34624 0.0092177 -0.066248 -0.062302 -0.20715 
-0.83702 -1.0585 -0.39787 -0.36088 -0.001798 -0.026953 -0.011498 -0.10637 
-0.36334 -0.84475 -0.20074 -0.22852 0.021549 0.015959 0.0037921 -0.085649 
-0.14237 -0.41513 0.19517 0.074161 0.021549 -0.0031133 -0.0059084 -0.16966 
-0.21389 0.073668 0.60259 0.42387 -0.034845 -0.034845 -0.035832 -0.10242 
-0.062467 0.40743 0.67608 0.59782 -0.047176 -0.058685 -0.040764 -0.0080457 
0.41598 0.84806 0.64813 0.65652 -0.028269 0.011355 0.027796 0.13549 
0.76141 1.2333 0.53156 0.59272 0.027961 0.028783 0.027468 0.13976 
0.71718 1.2186 0.42699 0.51496 0.080573 0.051801 0.064625 0.10491 
0.32292 0.87979 0.36912 0.48109 0.12168 0.09981 0.077614 0.085835 
0.011848 0.56559 0.34199 0.42387 0.16163 0.12299 0.078436 0.080409 
-0.048492 0.25715 0.28889 0.36402 0.14535 0.081231 0.075641 0.086985 
-0.015938 0.068571 0.13302 0.24466 0.11937 0.06742 0.063639 0.10852 
0.14437 -0.032215 -0.15569 0.013328 0.092904 0.072681 0.063474 0.11806 
0.27919 -0.07973 -0.29807 -0.15914 0.056076 0.067913 0.073175 0.14338 
0.25403 -0.32421 -0.38028 -0.23675 0.022535 0.056898 0.080573 0.14206 
0.11444 -0.47449 -0.26798 -0.22787 -0.0062372 0.014643 0.035195 0.060186 
-0.23313 -0.43108 -0.052766 -0.091075 -0.028597 -0.02646 0.004943 -0.060165 
-0.58284 -0.40034 0.050321 0.020069 -0.043066 -0.046519 -0.042573 -0.20386 
-0.55308 -0.48386 -0.12988 -0.057205 -0.039284 -0.049971 -0.034188 -0.16835 
-0.25072 -0.6583 -0.51707 -0.32915 -0.023994 -0.032379 0.0036276 -0.1062 
0.061666 -0.58744 -0.84688 -0.59665 -0.0042642 -0.0082102 0.009711 0.004943 
0.20257 -0.35019 -0.72686 -0.64318 0.029441 0.033387 0.0046141 0.12233 
0.26965 0.16245 -0.13168 -0.28788 0.026152 0.017438 0.007738 0.073339 
0.24055 0.72277 0.47533 0.20569 0.041607 0.019576 0.018425 0.014972 
0.25814 0.90971 0.67937 0.51315 0.061501 0.047691 0.050321 0.062159 
0.15653 0.55326 0.5965 0.56872 0.11148 0.12464 0.051308 0.047855 
-0.080223 -0.02087 0.41614 0.51676 0.056569 0.060844 0.045718 0.038319 
-0.070852 -0.13366 0.30352 0.41335 0.070051 0.046704 0.075312 0.06594 
0.19073 0.018096 0.2223 0.32374 0.062652 0.050814 0.076627 0.085341 
0.29283 -0.16292 0.13006 0.23183 0.017438 0.017932 0.042429 0.069393 
-0.070194 -0.31599 0.034373 0.12612 -0.06855 -0.05178 -0.027282 -0.013965 
-0.1792 -0.012485 0.050157 0.094713 -0.10275 -0.074962 -0.037805 -0.01117 
-0.17756 0.13039 0.035031 0.10441 -0.12166 -0.12281 -0.050793 -0.048985 
-0.27275 -0.48386 -0.19548 -0.054739 -0.10538 -0.096007 -0.044052 -0.14763 
-0.67162 -1.2086 -0.58678 -0.35841 -0.14517 -0.16029 -0.086142 -0.26815 
-1.0687 -1.2844 -0.71354 -0.55193 -0.13185 -0.13316 -0.089266 -0.20666 
-0.70943 -0.50342 -0.3566 -0.40099 -0.049971 -0.051287 -0.062467 -0.019555 
-0.20649 0.34199 0.012013 -0.12429 0.03799 0.018096 -0.01528 0.060515 
0.10458 0.83622 0.14321 0.064132 0.12628 0.068242 0.019247 -0.10637 
0.27294 0.89936 0.18284 0.18152 0.171 0.15834 0.098988 -0.1815 
0.79479 0.87272 0.30418 0.28428 0.17593 0.19747 0.15505 0.16722 
1.0707 0.78032 0.42173 0.39329 0.14946 0.18876 0.17692 0.48158 
0.84559 0.45856 0.36665 0.39691 0.11806 0.13697 0.14256 0.5138 
0.28691 0.054267 -0.082196 0.11198 0.063803 0.042594 0.078436 0.30993 
-0.11656 -0.25647 -0.58053 -0.29676 0.012177 -0.010183 0.0032988 -0.0138 
-0.3377 -0.55949 -0.6999 -0.48369 -0.013965 -0.010183 -0.031228 -0.21225 
-0.72045 -0.99897 -0.47087 -0.44062 -0.0075525 -0.026624 -0.0080457 -0.25319 
-0.74002 -1.3285 -0.33358 -0.34608 -0.011992 -0.044874 -0.0072237 -0.16736 
-0.063124 -0.95655 -0.084334 -0.15717 -0.044217 -0.023172 -0.013143 0.089616 
0.62002 0.21079 0.38836 0.20799 -0.019555 -0.004593 0.0079024 0.23167 
0.68085 1.1235 0.75171 0.56329 0.0079024 0.012835 0.015301 0.26751 
0.29004 1.3576 0.87683 0.8035 0.032729 0.033715 0.048184 0.29004 
-0.27275 0.9962 0.85464 0.85792 0.057555 0.046868 0.027303 0.20816 
-0.5585 0.33689 0.45231 0.62643 0.059693 0.057391 0.016452 -0.093705 
-0.12215 0.049664 0.0072447 0.26866 0.10573 0.086492 0.035853 -0.37124 
0.43702 0.1179 -0.14517 0.038155 0.13894 0.12036 0.0786 -0.21554 
0.46448 0.20125 -0.14467 -0.047012 0.10951 0.11724 0.069064 0.012177 
0.30911 -0.11048 -0.35973 -0.20057 0.021384 0.060515 0.029441 0.10721 
0.062981 -0.50737 -0.53992 -0.38307 -0.041093 -0.0091966 -0.011663 0.074983 
0.018589 -0.23296 -0.31961 -0.30942 -0.059178 -0.043066 -0.020048 0.089616 
0.0026412 0.30746 0.10918 -0.018239 -0.0011404 -0.023007 0.01974 0.049499 
-0.012814 0.54734 0.31733 0.20635 -0.014787 0.0072447 0.021384 0.0592 
0.15834 0.64714 0.36172 0.31947 0.020891 0.016945 0.017932 0.072846 
0.33591 0.76963 0.5189 0.4852 0.091425 0.029112 0.044402 0.12743 
0.56099 0.80416 0.60719 0.58565 0.093726 0.06331 0.052623 0.18366 
0.68003 0.75089 0.49917 0.54965 0.11494 0.098823 0.049828 0.24269 
0.46629 0.24515 0.17988 0.34084 0.14042 0.1202 0.094877 0.16771 
-0.0078813 -0.92038 -0.32405 -0.059672 0.10967 0.11181 0.066105 0.1151 
-0.46035 -1.9016 -0.75004 -0.47416 0.038648 0.057227 0.047197 -0.0027845 
-0.68691 -1.6962 -0.57988 -0.49849 -0.023829 -0.0138 -0.0040998 -0.13152 
-0.47893 -0.71354 -0.23066 -0.28755 -0.036983 -0.066084 -0.049149 -0.16555 
-0.092554 -0.017253 -0.15437 -0.18002 -0.055726 -0.074798 -0.056219 -0.12215 
0.14946 0.56198 0.0021479 -0.046683 -0.059836 -0.058685 -0.070852 -0.058356 
-0.26996 0.55672 0.12924 0.082711 -0.057863 -0.048492 -0.070359 -0.19054 
-0.70056 0.30549 0.29908 0.23052 -0.049478 -0.046025 -0.026953 -0.25582 
-0.41431 0.77013 0.67444 0.53584 0.019576 0.015137 0.023686 -0.14106 
0.29628 1.4756 1.0246 0.89196 0.090603 0.051965 0.055747 0.089287 
0.88078 1.412 0.74711 0.81781 0.063639 0.078272 0.057391 0.32276 
0.83063 0.58796 -0.076771 0.2759 0.048677 0.057062 0.083204 0.42075 
0.24301 -0.34049 -0.77553 -0.34493 0.090767 0.085506 0.12102 0.26126 
-0.2185 -0.93024 -0.85921 -0.62164 0.11937 0.13351 0.12085 0.037332 
0.22953 -0.63183 -0.44621 -0.47646 0.14075 0.11198 0.098001 0.10014 
1.106 0.016616 0.0021479 -0.10817 0.10211 0.089287 0.067585 0.24104 
1.1792 0.32226 0.15571 0.076134 0.037168 0.028947 0.041114 0.17692 
0.23627 0.22082 -0.013471 0.037004 -0.021034 -0.012814 -0.017417 -0.040764 
-0.37633 0.33048 -0.091404 -0.017417 -0.074304 -0.065755 -0.053917 -0.10604 
-0.44802 0.29727 -0.037147 -0.0095255 -0.025145 -0.029255 -0.021856 -0.063453 
-0.53812 -0.46331 -0.08532 -0.038627 0.0011614 -0.025145 -0.0016336 -0.050793 
-0.68395 -1.164 -0.29988 -0.15602 -0.063453 -0.042079 -0.018239 -0.076442 
-0.65353 -0.95984 -0.28508 -0.20567 -0.1011 -0.083183 -0.034352 -0.037311 
-0.40461 -0.01939 0.18202 0.075476 -0.060987 -0.061151 -0.033037 -0.039449 
0.20783 1.0442 0.87173 0.60325 0.020069 -0.017253 0.0056006 -0.033201 
0.72409 1.5463 1.2101 0.99784 0.13236 0.093726 0.088301 0.087479 
0.87141 1.292 1.1134 1.0735 0.16722 0.13861 0.12266 0.24844 
0.55951 0.33213 0.64698 0.83869 0.12957 0.1299 0.10556 0.22213 
-0.060494 -0.80825 0.072846 0.38063 0.061008 0.067913 0.051308 0.029112 
-0.62739 -1.5253 -0.52611 -0.15454 0.014315 0.019905 0.013492 -0.12494 
-0.91857 -1.5696 -1.182 -0.7632 -0.046519 -0.025802 -0.0021268 -0.19975 
-0.86809 -1.4827 -1.8592 -1.4156 -0.097322 -0.06 -0.026789 -0.24382 
-0.71437 -0.99371 -1.8169 -1.629 -0.092719 -0.076442 -0.052602 -0.24283 
-0.31007 0.30631 -0.86382 -1.0973 -0.017582 -0.010841 -0.015938 -0.059672 
0.41598 1.5231 0.36041 -0.15388 0.052294 0.052294 0.043416 0.21013 
0.56938 1.583 1.0983 0.63383 0.058706 0.090931 0.075148 0.29086 
0.22164 0.72277 1.1611 0.95871 0.026974 0.01415 0.049335 0.14354 
-0.18709 -0.29709 0.67493 0.79199 -0.052109 -0.018733 -0.011334 -0.0016336 
-0.22195 -0.73821 0.17626 0.41696 -0.096994 -0.061645 -0.061973 -0.05885 
-0.02646 -0.32717 -0.01676 0.19172 -0.087951 -0.056055 -0.017746 -0.0047575 
0.095535 0.16163 0.13499 0.21605 0.019411 0.024015 0.0034632 -0.11574 
0.14535 0.3586 0.33278 0.32292 0.11313 0.076299 0.04358 -0.17706 
0.29941 0.35597 0.15801 0.23841 0.12497 0.11313 0.074326 0.015137 
0.59897 0.45231 0.034537 0.13845 0.15883 0.12381 0.11378 0.30155 
0.73543 0.64336 0.13631 0.15686 0.13582 0.11757 0.13713 0.3581 
0.52186 0.60505 0.20882 0.21358 0.11987 0.10672 0.1105 0.26916 
0.027139 -0.053095 -0.031228 0.10951 0.072517 0.057062 0.042923 0.061172 
-0.65468 -1.1502 -0.53384 -0.27259 -0.012485 -0.023994 -0.034188 -0.19219 
-0.87319 -1.1494 -0.75399 -0.54025 -0.081374 -0.069043 -0.040435 -0.23461 
-0.16457 0.15472 -0.47843 -0.45887 -0.075784 -0.041586 0.0067515 -0.059672 
0.78755 1.3148 0.08304 -0.093705 0.038812 0.058213 0.056733 0.18794 
1.096 1.4044 0.53896 0.31618 0.13286 0.11411 0.092576 0.25189 
0.84543 1.0437 0.71686 0.61689 0.17297 0.14519 0.13072 0.3198 
0.33098 0.25304 0.55113 0.58763 0.14387 0.15144 0.13598 0.23529 
-0.6782 -1.2931 0.015137 0.24482 0.050321 0.021056 0.012999 -0.074633 
-2.0369 -2.6656 -0.63232 -0.28788 -0.073976 -0.13662 -0.10521 -0.48238 
-2.046 -2.3001 -0.77915 -0.56672 -0.16144 -0.19614 -0.15618 -0.53581 
-0.64877 -0.57577 -0.27801 -0.35512 -0.14073 -0.14862 -0.1016 -0.29725 
0.45823 0.76322 0.073832 -0.03764 -0.072989 -0.068221 -0.019555 -0.0031133 
0.73971 1.0549 0.1026 0.073997 -0.0091966 0.0041209 0.030427 0.16015 
0.68315 0.8673 0.040292 0.071202 0.021549 -0.038462 0.06035 0.24121 
0.61492 0.89656 0.32851 0.25683 0.01826 0.033222 0.043909 0.34216 
0.45396 0.91925 0.67526 0.53814 0.074161 0.061337 0.075312 0.34988 
0.26373 0.81287 0.69466 0.64534 0.10836 0.096686 0.081889 0.067749 
0.46464 0.73708 0.48076 0.58154 0.11691 0.091096 0.076792 -0.15322 
0.49884 0.37438 0.22131 0.38408 0.13483 0.12661 0.090931 -0.03764 
0.072188 -0.090253 -0.02498 0.15703 0.12447 0.10474 0.066927 -0.03205 
-0.22737 -0.17509 -0.13366 0.0044497 0.10803 0.065447 0.048677 -0.014458 
-0.23247 0.04654 -0.020377 0.022042 0.046046 0.02681 0.036346 0.050157 
-0.10604 0.13598 0.1202 0.10129 -0.008539 0.004943 0.024673 0.16426 
0.28823 0.27277 0.26077 0.23019 0.012835 0.01004 0.03947 0.27902 
0.64961 0.30681 0.34791 0.34084 0.047691 0.042594 0.072846 0.34035 
0.41105 -0.091568 0.1858 0.26636 0.050321 0.019083 0.0324 0.17034 
-0.31928 -0.70121 -0.24957 -0.038462 0.007738 -0.0080457 -0.020541 -0.12938 
-0.83784 -1.0772 -0.54699 -0.32767 -0.094527 -0.061973 -0.065755 -0.25647 
-0.8528 -1.1489 -0.4513 -0.38077 -0.076113 -0.10209 -0.066741 -0.19466 
-0.87105 -0.8653 -0.18972 -0.22409 -0.047669 -0.063124 -0.029091 -0.15733 
-0.67606 -0.15668 -0.048492 -0.058685 0.037168 0.02122 -0.016924 -0.19959 
0.072024 0.38359 -0.083512 -0.047998 0.078436 0.046704 0.026646 -0.09387 
0.64879 0.39312 -0.17887 -0.10406 0.078272 0.075148 0.032564 0.13039 
0.79775 0.31141 -0.081703 -0.060987 0.10951 0.10754 0.10935 0.25962 
0.80334 0.50641 0.14815 0.093233 0.13894 0.13286 0.10047 0.14338 
0.64846 0.6381 0.34232 0.25814 0.13976 0.11346 0.091096 0.072353 
0.074326 0.14174 0.35728 0.36172 0.097179 0.080902 0.072353 0.073175 
-0.71026 -0.43388 0.26998 0.32604 0.047691 0.041443 0.046704 0.065447 
-0.69003 0.030263 0.20602 0.27458 -0.0096899 0.010862 0.036675 0.084848 
-0.22787 0.63366 0.21737 0.26225 -0.073154 -0.058356 -0.031721 0.067256 
0.00033937 0.54685 0.16558 0.21408 -0.11196 -0.10554 -0.063946 -0.019884 
0.13943 0.28412 0.15456 0.18925 -0.10324 -0.11541 -0.06707 -0.045368 
0.24433 0.058706 0.14568 0.2121 -0.038956 -0.050629 -0.059836 -0.050958 
0.41581 0.11609 0.075805 0.15834 0.0037921 0.00033937 0.00099702 -0.015938 
0.49177 0.28379 -0.063782 0.050979 0.049664 0.061172 0.069393 0.076792 
0.36945 0.5896 -0.05441 0.01415 0.075641 0.087479 0.078765 0.11362 
0.26981 0.70798 0.23792 0.18974 0.07449 0.10819 0.08567 0.17166 
0.2754 0.33821 0.41614 0.34166 0.09833 0.11296 0.13927 0.17528 
-0.13612 -0.63545 0.024508 0.16459 0.030592 0.081889 0.088465 0.084684 
-0.59533 -1.6029 -0.53022 -0.24283 -0.031392 -0.006566 0.009711 -0.072003 
-0.62739 -1.642 -0.80956 -0.56311 -0.078579 -0.046683 -0.036983 -0.14566 
-0.5733 -1.0641 -0.81433 -0.68691 -0.084498 -0.084498 -0.080881 -0.2471 
-0.54749 -0.56344 -0.56179 -0.57988 -0.069208 -0.11853 -0.091239 -0.19581 
-0.34411 -0.17328 -0.21636 -0.33326 -0.035174 -0.050464 -0.058028 -0.054904 
0.13713 0.47928 0.12891 -0.0029489 0.037661 0.033222 0.0028056 0.095535 
0.50641 0.91678 0.34791 0.25107 0.087643 0.081231 0.051801 0.14815 
0.65997 1.001 0.46563 0.40957 0.13927 0.12743 0.11148 0.16985 
0.73724 1.0452 0.56724 0.52992 0.17643 0.1465 0.11428 0.24022 
0.71028 1.1335 0.66802 0.63909 0.17922 0.15012 0.1197 0.24236 
0.47681 0.90626 0.58286 0.61245 0.10129 0.10852 0.084026 0.2195 
0.1904 0.44343 0.39362 0.49753 0.095535 0.072681 0.069393 0.27327 
0.050157 -0.025802 0.05476 0.27244 0.095535 0.072681 0.089123 0.40414 
-0.16588 -0.84491 -0.39475 -0.11787 0.0062583 0.02122 0.031907 0.21474 
-0.44835 -1.349 -0.65156 -0.41744 -0.082525 -0.067235 -0.039778 -0.3224 
-0.5858 -0.86908 -0.45607 -0.40626 -0.12971 -0.10784 -0.073482 -0.68231 
-0.54683 -0.16029 -0.058192 -0.1644 -0.10817 -0.080059 -0.027118 -0.47021 
-0.20419 0.37866 0.1294 0.039963 -0.046683 -0.039284 -0.0062372 -0.17049 
0.31996 0.60505 0.1299 0.14749 -0.04619 -0.014129 -0.012485 -0.025802 
0.51265 0.71949 -0.071181 0.037004 0.011684 -0.012814 0.01711 0.039799 
0.35679 0.91152 -0.35973 -0.18479 -0.010676 0.020727 0.020562 0.14157 
0.43357 0.91037 -0.38176 -0.2841 -0.06148 0.0036276 -0.00031829 0.26718 
0.57513 0.51463 -0.10291 -0.14829 0.040456 0.048513 0.074326 0.42387 
0.48322 -0.49389 -0.06296 -0.073976 0.077943 0.092247 0.1054 0.46925 
0.20882 -1.3431 -0.23987 -0.13399 0.10803 0.098659 0.091096 0.32292 
-0.12248 -1.2596 -0.041915 -0.051615 0.074819 0.049992 0.092904 0.026974 
-0.50162 -0.70269 0.31108 0.20125 0.038155 0.0024767 0.036182 -0.29791 
-0.85593 -0.12494 0.61344 0.47895 0.009711 -0.037805 -0.031886 -0.4153 
-0.92827 0.35695 0.66194 0.60423 -0.0080457 -0.06 -0.098473 -0.38702 
-0.56426 0.57842 0.50295 0.54965 -0.040928 -0.069536 -0.062467 -0.15372 
-0.32964 0.5577 0.3563 0.47484 -0.041751 -0.082854 -0.01232 -0.025145 
0.065118 0.50493 0.22542 0.34955 -0.058521 -0.05885 -0.0096899 0.0227 
0.94309 0.57513 0.011684 0.17824 0.018425 0.023357 0.0421 0.18826 
1.3967 0.70107 -0.18907 -0.016431 0.13187 0.11888 0.12201 0.38457 
1.1098 0.69104 -0.22557 -0.11294 0.1756 0.15226 0.12891 0.36057 
0.42091 0.23298 -0.20337 -0.14993 0.1927 0.15785 0.14864 0.17988 
-0.14517 -0.29018 -0.17789 -0.13021 0.14815 0.1613 0.099152 0.025988 
-0.40527 -0.63101 -0.19449 -0.1358 0.097179 0.09422 0.04506 -0.075127 
-0.44029 -0.33046 -0.27357 -0.19548 0.054925 0.022206 0.0069159 -0.11459 
-0.11837 0.041114 -0.30777 -0.24168 -0.015609 -0.056877 -0.00097594 -0.10768 
0.044073 -0.05589 -0.1718 -0.17147 -0.024652 -0.048327 -0.026953 -0.047834 
-0.14813 -0.36532 0.014643 -0.040928 -0.0016336 -0.041915 -0.015773 -0.062631 
-0.34937 -0.50967 0.21474 0.14058 0.0016547 -0.0095255 0.0065871 -0.010841 
-0.20123 -0.12856 0.41894 0.36254 0.020562 0.0023123 0.019247 0.018096 
-0.17377 0.1202 0.50164 0.47073 0.045718 0.049992 0.058871 0.023522 
-0.16079 -0.22606 0.35054 0.41614 0.035195 0.056733 0.057884 0.022206 
0.00050378 -0.39195 0.1904 0.30237 0.061995 0.041278 0.035853 0.028947 
0.15308 -0.02942 0.10852 0.20503 0.034373 0.028125 0.020398 0.061172 
0.32703 0.487 -0.011992 0.089945 0.0090533 0.0021479 0.018096 0.10129 
0.22098 0.51216 -0.15717 -0.0072237 -0.0047575 -0.024487 -0.00097594 0.057227 
-0.32816 -0.0027845 -0.2836 -0.14796 -0.024487 -0.036325 -0.021199 -0.092719 
-0.43585 -0.29791 -0.26634 -0.18956 0.00017495 -0.035338 -0.017911 -0.14846 
-0.016924 0.13171 -0.052273 -0.078744 -0.0014692 0.0051074 -0.011992 -0.10143 
0.40414 0.7721 0.26603 0.15538 0.022371 0.027796 0.03799 0.036346 
0.53008 0.86647 0.39049 0.31503 0.089287 0.061666 0.066598 0.1978 
0.41187 0.45215 0.083862 0.21671 0.082053 0.071531 0.074983 0.24121 
0.45807 0.041443 -0.30679 -0.082361 0.076134 0.07449 0.057227 0.17281 
0.38178 -0.11837 -0.14237 -0.081539 0.083697 0.063145 0.053445 0.14798 
-0.05441 -0.38669 0.26357 0.16574 0.095699 0.062652 0.072681 0.068407 
-0.23527 -0.43897 0.46991 0.36534 0.094548 0.034373 0.034044 -0.0068948 
-0.27144 -0.16046 0.29908 0.33229 0.081231 0.057062 0.032729 -0.045532 
-0.20764 -0.0070593 -0.072825 0.11411 0.038648 -0.0057439 -0.015609 -0.039284 
-0.010512 -0.06855 -0.29199 -0.10932 -0.016595 -0.029913 0.0056006 0.0092177 
-0.010348 -0.33211 -0.26963 -0.18101 -0.065262 -0.032543 -0.023336 0.1151 
-0.36186 -0.39968 -0.14073 -0.12429 -0.047176 -0.019555 -0.0138 0.095535 
-0.45394 -0.16128 -0.041257 -0.052766 -0.018075 -0.011334 -0.00015387 -0.019719 
0.2149 0.11691 -0.066577 -0.045203 0.042758 0.049992 0.03799 -0.16259 
0.90018 0.49473 -0.034023 0.0069159 0.062652 0.060844 0.076134 -0.1358 
0.62281 0.47648 0.072188 0.073832 0.0064227 0.041607 0.032893 -0.020541 
-0.10752 0.20092 0.16853 0.15933 -0.03912 -0.028926 -0.025309 0.062323 
-0.45114 0.065612 0.27129 0.25452 -0.035832 -0.045203 -0.028762 0.13023 
-0.51658 -0.1233 0.21309 0.2514 -0.0060728 -0.04323 -0.0070593 0.048348 
-0.83406 -0.32438 0.07597 0.15752 0.035853 -0.025638 -0.013143 -0.1621 
-0.7535 -0.38685 -0.10094 0.028783 0.031414 0.013164 -0.0024557 -0.18808 
0.069393 -0.26798 -0.25647 -0.10308 0.01826 0.035195 0.041114 0.052459 
0.5748 -0.27061 -0.34937 -0.22507 0.016452 0.029112 0.048348 0.23989 
0.62725 -0.14961 -0.22507 -0.18775 0.024179 0.058049 0.077778 0.31947 
0.51808 0.25091 0.1197 0.032729 0.024179 0.029605 0.064954 0.30648 
0.42634 0.79512 0.61064 0.40332 0.025166 0.027139 0.023357 0.14437 
0.14502 0.96298 0.74234 0.62972 0.027796 0.020727 0.02122 -0.16309 
0.0021479 0.58516 0.35876 0.50082 -0.0014692 0.019411 0.016616 -0.20567 
0.069229 0.23923 0.07301 0.26028 -0.019061 -0.012814 0.022864 -0.042737 
0.15078 0.058049 -0.017253 0.1197 0.0079024 -0.0138 0.0039565 0.040292 
0.27343 0.082382 -0.089759 0.01415 0.050157 0.013821 0.024673 0.15127 
0.42321 0.38162 -0.089431 -0.028926 0.072846 0.064132 0.038319 0.20388 
0.26537 0.36896 0.03947 0.035195 0.092082 0.07301 0.09126 0.13368 
-0.13448 0.049499 0.19303 0.18711 0.096193 0.065118 0.051965 -0.026624 
-0.26831 -0.3423 0.15982 0.18843 0.05624 0.029276 0.036182 -0.047998 
-0.23675 -0.18907 -0.045696 0.065447 0.030756 0.056569 0.052459 0.025166 
-0.25434 0.14765 -0.13678 -0.034188 0.018589 0.054267 0.059528 0.051965 
-0.2134 -0.19318 -0.37469 -0.23444 -0.049971 -0.0011404 0.030427 -0.068386 
-0.21998 -0.78441 -0.59467 -0.44555 -0.097487 -0.059507 -0.036818 -0.14681 
-0.26831 -0.72703 -0.2647 -0.26996 -0.10538 -0.066413 -0.069865 -0.13366 
-0.33704 -0.3155 0.47632 0.2297 -0.083676 -0.087951 -0.06444 -0.11245 
-0.52529 -0.33605 0.75549 0.57776 -0.097487 -0.10998 -0.076771 -0.11886 
-0.45344 -0.19696 0.57184 0.58878 -0.09091 -0.087786 -0.060658 -0.096665 
-0.15043 0.13615 0.24877 0.39132 -0.018404 -0.0011404 -0.010841 0.04506 
0.1008 0.22986 -0.0098543 0.1641 0.073668 0.077778 0.063639 0.11411 
0.34232 0.061172 -0.1547 0.03388 0.1442 0.10195 0.052623 0.18958 
0.54817 0.057884 -0.25598 -0.11639 0.16919 0.11165 0.12069 0.22082 
0.62215 0.27935 -0.32076 -0.21373 0.15045 0.11346 0.091589 0.16442 
0.71439 0.70666 -0.35989 -0.27982 0.078107 0.049499 0.048019 0.10293 
0.74957 0.8885 -0.46528 -0.37814 0.023686 0.019247 0.030263 0.26028 
0.63646 0.64682 -0.59698 -0.50918 -0.0021268 0.015959 0.079094 0.59502 
0.44738 0.5406 -0.42993 -0.41974 0.079422 0.086492 0.087972 0.53189 
0.33065 0.69318 0.072188 -0.077922 0.14913 0.12628 0.091589 -0.12001 
0.24926 0.80202 0.58467 0.35942 0.20076 0.18909 0.12003 -0.5978 
0.24104 0.62692 0.82767 0.6672 0.16755 0.14371 0.11691 -0.25911 
0.072024 0.00050378 0.7693 0.74497 0.097508 0.10474 0.10145 0.12266 
-0.60898 -0.87681 0.54225 0.62314 0.0079024 -0.016924 -0.0011404 0.056404 
-1.395 -1.4794 0.2486 0.40562 -0.14533 -0.17098 -0.14434 -0.26206 
-1.5558 -1.5631 -0.049642 0.159 -0.26535 -0.24529 -0.18857 -0.3954 
-1.3378 -0.95918 -0.18989 -0.023829 -0.22392 -0.21126 -0.16703 -0.3492 
-0.79148 -0.095514 -0.17657 -0.077922 -0.11722 -0.11623 -0.07003 -0.11163 
0.19895 0.49786 -0.075127 -0.035832 0.0088889 0.016452 0.030427 0.21687 
1.0051 0.77835 0.082875 0.06742 0.12513 0.12168 0.10145 0.41861 
1.2088 0.72047 0.062652 0.088794 0.14782 0.17577 0.12743 0.44146 
0.80268 0.16475 -0.37913 -0.15799 0.1345 0.13417 0.1202 0.19895 
0.28691 -0.41661 -0.66817 -0.44555 0.11691 0.092247 0.075148 -0.028597 
0.13845 -0.38258 -0.4587 -0.42138 0.088301 0.058871 0.045718 -0.052931 
0.26011 0.32374 -0.099953 -0.19285 0.0592 0.037332 0.019083 -0.025638 
0.44459 0.94276 0.14206 0.030098 0.039634 0.007738 0.013164 0.062159 
0.56231 0.91087 0.17824 0.13072 0.047033 0.043416 0.069558 0.24005 
0.42962 0.57776 0.088794 0.15324 0.078765 0.073668 0.097672 0.30023 
0.022206 -0.048656 -0.049642 0.051143 0.058049 0.061337 0.066105 0.21424 
-0.4592 -0.74708 -0.083512 -0.006566 0.032071 -0.0087034 -0.00081153 0.024179 
-0.96954 -1.2679 -0.18709 -0.095185 -0.0042642 -0.045696 -0.014787 -0.1815 
-1.2477 -1.1249 -0.28689 -0.19663 -0.032379 -0.040764 -0.029748 -0.35825 
-1.0531 -0.29166 -0.0029489 -0.056383 -0.02235 -0.018897 -0.0072237 -0.26091 
-0.43388 0.59568 0.41548 0.28478 0.012506 0.0026412 0.020069 0.0031344 
0.39345 0.74974 0.57973 0.49013 0.038155 0.029605 0.030592 0.1151 
0.84609 0.22148 0.37603 0.43719 0.033387 0.021384 0.053445 0.035524 
0.78838 -0.20025 0.11691 0.2583 -0.024816 0.0042853 0.017438 0.11461 
0.54899 -0.035503 0.067256 0.16114 -0.032708 -0.013471 0.0083956 0.19599 
-0.083676 0.11494 0.068736 0.11576 -0.013143 -0.045039 -0.026789 0.10129 
-0.7239 0.013657 0.024344 0.10063 0.0011614 -0.028104 -0.032543 -0.078579 
-0.31945 0.098823 0.037168 0.086821 0.032071 0.005765 -0.017088 -0.041257 
0.6626 0.47418 0.19764 0.18777 0.06479 0.056898 0.034537 -0.010348 
0.82257 0.74842 0.31618 0.29415 0.13615 0.1368 0.11543 -0.028762 
0.3655 0.58204 0.20388 0.25387 0.06742 0.067585 0.047362 0.16179 
-0.25204 0.28165 0.19106 0.24351 0.07449 0.038155 0.061337 0.13187 
-0.44045 0.1322 0.27294 0.29217 0.068407 0.017438 0.038319 0.074819 
-0.16851 0.14996 0.28905 0.32785 0.07301 0.070873 0.033387 0.014972 
-0.010183 0.090931 0.26406 0.31322 0.090438 0.098001 0.061008 0.036182 
-0.025802 -0.43223 -0.066084 0.098166 0.090931 0.10885 0.069064 0.030427 
-0.14007 -1.2097 -0.73771 -0.3982 0.0059294 0.025824 0.062981 -0.039613 
-0.22688 -1.3659 -1.0802 -0.80677 -0.10505 -0.068057 -0.024816 -0.14106 
-0.14484 -0.55735 -0.73952 -0.72588 -0.12593 -0.095349 -0.061151 -0.10127 
-0.01232 0.6455 0.0037921 -0.20616 -0.090088 -0.076113 -0.0503 -0.023829 
0.078436 1.1836 0.58746 0.31782 0.0065871 -0.019719 0.011191 0.067256 
0.33361 1.0528 0.80564 0.64287 0.085835 0.071695 0.065776 0.18087 
0.49868 0.74925 0.82438 0.767 0.14683 0.12069 0.08419 0.22674 
0.31404 0.2662 0.6478 0.69959 0.13088 0.081889 0.051636 0.16344 
0.15028 0.023851 0.44919 0.55951 0.072188 0.038319 0.048348 0.088794 
0.18399 0.11625 0.38425 0.51101 0.057884 0.010369 0.046704 0.050979 
0.22707 0.27047 0.47665 0.52104 0.093891 0.067749 0.038648 0.023686 
0.21309 0.30434 0.35712 0.44952 0.095042 0.096686 0.065612 0.028619 
0.12858 0.13138 -0.067564 0.14881 0.083533 0.072517 0.041443 0.036346 
-0.094034 -0.25335 -0.55028 -0.27144 -0.0068948 0.016781 0.047526 0.017932 
-0.34033 -1.0147 -1.0647 -0.74774 -0.084991 -0.013965 0.0059294 -0.062631 
-0.47399 -1.6606 -1.6057 -1.2265 -0.11607 -0.07414 -0.02087 -0.1233 
-0.36088 -1.5361 -1.5266 -1.3692 -0.11689 -0.078744 -0.034352 -0.12231 
-0.030735 -0.51082 -0.72999 -0.92827 -0.065919 -0.041422 -0.017911 -0.066741 
0.18646 0.80005 0.17166 -0.21455 -0.00081153 0.0039565 0.0092177 -0.041751 
0.26307 1.3893 0.68249 0.35103 0.018425 0.021713 0.020562 0.00083261 
0.56855 1.3089 0.83408 0.65602 0.043416 0.034702 0.069886 0.17544 
0.96627 1.0038 0.79577 0.78196 0.082217 0.066269 0.060679 0.37652 
0.7989 0.58302 0.6136 0.69778 0.089452 0.11444 0.094548 0.37537 
0.28231 0.023028 0.3073 0.47829 0.10606 0.084684 0.084519 0.055747 
-0.14385 -0.14763 0.35449 0.43505 0.085177 0.10145 0.079751 -0.19367 
-0.48928 -0.182 0.39756 0.43489 0.099481 0.085999 0.062981 -0.16325 
-0.63282 -0.53187 0.095699 0.23545 0.068242 0.092576 0.066269 -0.011992 
-0.57215 -0.87138 -0.33868 -0.082032 0.026646 0.039634 0.034209 -0.023501 
-0.40363 -0.60964 -0.52874 -0.32388 -0.0057439 -0.018404 -0.0070593 -0.10686 
-0.19959 0.19698 -0.40938 -0.34329 -0.040435 -0.057205 -0.046847 -0.16588 
0.25255 0.86861 -0.072825 -0.14287 -0.022514 -0.049478 -0.039284 -0.094199 
0.59207 1.0171 0.23627 0.11806 -0.0050863 -0.0098543 0.010697 0.036017 
0.45215 0.50328 0.30204 0.24186 0.010862 0.0065871 0.04654 0.10293 
-0.1935 -0.52661 -0.034516 0.10014 -0.0039354 -0.021856 0.00297 -0.027282 
-0.56196 -1.1731 -0.31386 -0.11343 -0.076935 -0.065755 -0.057041 -0.15783 
-0.7244 -1.2474 -0.571 -0.37239 -0.17131 -0.14582 -0.14171 -0.27785 
-0.74495 -0.80233 -0.50704 -0.42138 -0.15092 -0.13859 -0.078415 -0.14665 
-0.413 -0.26091 -0.089431 -0.16687 -0.010512 -0.021856 0.068571 0.09126 
0.025824 0.305 0.30187 0.1493 0.12694 0.12891 0.11263 0.25337 
0.48125 0.83326 0.46662 0.37126 0.20865 0.19385 0.16377 0.26439 
0.55376 0.87502 0.4436 0.46514 0.20536 0.17906 0.14174 0.23825 
0.71834 0.60473 0.27244 0.36715 0.19353 0.1544 0.14404 0.31799 
1.0421 0.57562 0.11773 0.23759 0.13516 0.1373 0.11609 0.22526 
0.72853 0.38079 -0.15043 0.017603 0.098001 0.086985 0.080573 0.092082 
0.12447 -0.12593 -0.38817 -0.20485 0.013657 0.0075736 0.012506 -0.023172 
-0.4296 -0.37814 -0.29791 -0.24513 -0.046683 -0.043724 -0.023336 -0.10883 
-0.3395 -0.16818 0.0092177 -0.041257 -0.11985 -0.09946 -0.066741 -0.12018 
-0.21636 0.088301 0.39674 0.2588 -0.077757 -0.10752 -0.090746 -0.12577 
-0.79411 -0.40757 0.51463 0.43538 -0.065426 -0.092719 -0.0965 -0.35907 
-1.0167 -0.82567 0.31223 0.37668 -0.026624 -0.054575 -0.057041 -0.49142 
-0.56557 -0.35101 0.25123 0.30763 0.0051074 0.012177 0.011684 -0.26963 
-0.024652 0.60637 0.28313 0.31141 0.0039565 0.04358 0.032564 0.04654 
0.23151 0.84543 0.20158 0.29185 0.043416 0.058213 0.052952 0.2537 
0.18415 0.32835 0.14897 0.23183 0.075148 0.10655 0.041278 0.22855 
0.10622 -0.043066 0.096028 0.17577 0.10425 0.098001 0.082053 0.17643 
0.18383 -0.10193 -0.11853 0.014643 0.083862 0.056569 0.059364 0.11806 
0.61492 0.24301 -0.17262 -0.079072 0.058049 0.036675 0.056076 0.30779 
0.88275 0.82323 0.0059294 -0.0059084 0.048677 0.059857 0.080573 0.50213 
0.53403 0.91382 0.078765 0.092576 0.071531 0.093562 0.078272 0.51183 
-0.1917 0.49868 0.12908 0.14371 0.09685 0.090767 0.10441 0.072353 
-0.74889 0.18728 0.41976 0.3438 0.11757 0.072517 0.039141 -0.48731 
-0.26009 0.1197 0.57513 0.50723 0.071037 0.06331 0.013986 -0.44999 
0.63054 -0.18923 0.3415 0.40924 0.030756 0.063639 0.05213 0.060515 
1.0284 -0.52562 0.05213 0.19336 -0.037311 0.0026412 0.04506 0.3461 
0.69532 -0.50293 -0.066084 0.071037 -0.10752 -0.088444 -0.0039354 0.090767 
0.26998 0.042594 0.14058 0.15308 -0.049149 -0.071674 -0.040271 0.013328 
-0.14977 0.23973 0.21079 0.21835 -0.0064016 -0.023336 -0.035503 0.037497 
-0.36647 -0.18216 -0.010348 0.099152 0.015465 -0.00097594 -0.019226 0.082546 
-0.55735 -0.73854 -0.3109 -0.13547 0.023028 0.049664 0.039799 -0.031064 
-1.1782 -0.91018 -0.73097 -0.48945 0.01152 0.019411 0.033715 -0.19959 
-1.2867 -0.70483 -1.1589 -0.8773 -0.0055795 -0.01117 0.0070803 -0.28706 
-0.47597 -0.29297 -1.3549 -1.1126 -0.015444 -0.037805 0.017603 -0.10308 
0.66589 0.5679 -1.0358 -1.0345 -0.020706 -0.0060728 0.039305 0.2269 
1.5537 1.4357 -0.14829 -0.44654 0.015465 0.049992 0.079422 0.44426 
1.5166 1.767 0.78871 0.34709 0.11937 0.11148 0.074326 0.33837 
0.9518 1.3854 1.1593 0.84937 0.19468 0.11214 0.026481 0.10622 
0.35186 0.43291 0.93602 0.90215 0.14239 0.098823 0.048841 0.017438 
-0.015116 -0.43371 0.50608 0.7014 0.076792 0.062159 0.088136 0.059035 
-0.0042642 -0.73048 0.34314 0.50821 0.074983 0.067585 0.064296 0.10014 
0.16327 -0.61786 0.25814 0.38737 0.083697 0.075805 0.06479 0.11905 
0.18662 -0.35249 0.14815 0.26587 0.069064 0.05476 0.051472 0.19566 
0.076956 -0.13037 -0.062302 0.066763 0.042758 0.038812 0.05065 0.10967 
0.038319 0.12069 -0.20715 -0.086964 0.02122 0.038483 0.062159 -0.071674 
-0.026789 0.30878 -0.23033 -0.11935 -0.010841 -0.0067304 0.02681 -0.14007 
-0.39146 0.18415 -0.18627 -0.13333 -0.063453 -0.063289 -0.035174 -0.15355 
-1.0894 -0.45903 -0.32158 -0.22803 -0.10176 -0.095514 -0.080059 -0.23411 
-1.2678 -1.0425 -0.58021 -0.4222 -0.12297 -0.10439 -0.076771 -0.23543 
-0.39968 -0.59023 -0.36729 -0.35529 -0.046025 -0.056712 -0.025638 -0.10308 
0.44771 0.34396 0.18284 0.0042853 -0.0047575 0.0014903 0.013657 0.081889 
0.72179 0.95263 0.58006 0.41269 0.048841 0.062488 0.058871 0.171 
0.62741 1.0643 0.86417 0.71866 0.08863 0.093726 0.033387 0.10047 
0.41236 0.5947 0.69778 0.72212 0.070051 0.046704 0.062488 0.04917 
0.15916 -0.20929 0.13434 0.37093 0.0070803 -0.014293 0.0090533 0.12135 
