0.1003 0.062323 -0.021363 0.05065 -0.026624 -0.00081153 0.035524 0.17281 
0.064132 0.058377 -0.058028 0.0087245 -0.018897 -0.0068948 0.062981 0.20454 
0.021878 0.1003 -0.0083746 0.01974 -0.004593 -0.0029489 0.050979 0.18613 
0.0067515 0.12776 0.055582 0.060515 0.0079024 0.005765 0.027961 0.11987 
0.024508 0.052459 0.044731 0.087808 0.019247 0.037004 0.01826 0.1151 
0.01004 -0.10373 -0.0040998 0.060186 0.026646 0.02122 0.029934 0.15719 
0.026646 -0.11837 -0.011005 0.042429 0.035524 0.026481 0.034537 0.18399 
0.019083 -0.03501 0.0014903 0.043416 0.026646 0.049992 0.017603 0.15604 
0.044567 0.091589 0.040292 0.069064 0.045224 0.049828 0.02681 0.16492 
0.10047 0.17396 0.075148 0.082382 0.065447 0.054267 0.03388 0.17856 
0.10376 0.066105 0.03651 0.079258 0.053445 0.048348 0.052623 0.15078 
0.047197 -0.0082102 -0.024487 0.060679 0.0090533 0.023851 0.019247 0.059857 
0.089945 0.021384 -0.0072237 0.045389 0.015465 0.024344 0.020891 0.027303 
0.17067 0.12464 0.039963 0.064296 0.026974 0.007738 0.023193 0.072188 
0.06742 0.030263 -0.018404 0.034866 -0.012156 -0.018897 0.0082312 0.082711 
-0.25549 -0.18824 -0.15585 -0.070687 -0.019555 -0.05326 -0.076277 0.021713 
-0.45459 -0.26585 -0.25236 -0.13218 0.00017495 -0.026953 -0.11985 -0.014951 
-0.36186 -0.15914 -0.25171 -0.14714 0.060844 -0.010348 -0.07562 -0.030242 
-0.11426 -0.036983 -0.16309 -0.12593 0.099481 0.081231 0.0067515 0.033058 
0.11691 0.094384 0.096686 0.040785 0.080902 0.12875 0.070873 0.17725 
0.15094 0.15883 0.20684 0.16475 0.064625 0.096028 0.062323 0.27212 
0.1248 0.10967 0.20816 0.20339 0.037168 0.026481 0.066434 0.18103 
0.14765 0.13434 0.16969 0.18514 0.0051074 -0.016924 0.067585 -0.13843 
0.1516 0.13056 0.096193 0.16853 0.0079024 -0.029913 0.020233 -0.27489 
0.11411 0.12579 0.043745 0.11905 0.0046141 -0.029255 -0.016102 -0.11327 
0.076134 0.073832 -0.046354 0.043909 -0.0052507 -0.060165 -0.071016 0.03092 
-0.004593 -0.026296 -0.10291 -0.021363 -0.022514 -0.059178 -0.14517 0.0042853 
-0.12166 -0.097158 -0.09387 -0.042408 -0.0083746 0.0023123 -0.10341 -0.014293 
-0.17969 -0.066084 0.07038 0.053445 0.090603 0.055911 0.024673 0.026317 
-0.10012 0.074326 0.21556 0.1761 0.13598 0.1299 0.13319 0.10524 
-0.013307 0.067749 0.16344 0.21276 0.11165 0.10491 0.09274 0.01004 
-0.019555 -0.058028 0.048513 0.13483 0.058213 0.0059294 -0.04471 -0.17082 
-0.081868 -0.10883 -0.039449 0.05065 -0.013143 -0.030406 -0.08121 -0.27999 
-0.18315 -0.14928 -0.092061 -0.011992 0.0023123 -0.02498 -0.033201 -0.026953 
-0.25236 -0.21471 -0.12248 -0.060494 0.0047785 -0.015609 -0.0060728 0.28428 
0.0087245 -0.041915 -0.050958 -0.031886 -0.028762 0.0060938 -0.0050863 0.36501 
0.27409 0.26916 0.013164 0.049992 -0.0013048 -0.0029489 0.0062583 0.20914 
0.38671 0.4316 0.075148 0.092082 0.028619 0.036017 0.038319 -0.0027845 
0.4658 0.39855 0.06331 0.092411 0.041936 0.063474 0.031414 -0.0024557 
0.32111 0.25502 0.022864 0.073832 0.10408 0.093398 0.045553 0.031414 
0.078765 0.11609 0.03092 0.064132 0.08715 0.050157 0.029605 0.037497 
-0.14829 -0.038791 0.079094 0.086492 0.038483 0.022206 -0.0059084 -0.07562 
-0.25943 -0.05885 0.16804 0.17659 0.024837 0.014643 0.0028056 -0.26174 
-0.19416 0.056569 0.22328 0.23348 0.036182 0.020891 -0.026953 -0.47909 
-0.010512 0.16245 0.22394 0.25271 0.060515 0.026646 -0.0029489 -0.31122 
0.17297 0.10277 0.091753 0.17166 0.054267 0.012506 0.033551 0.067091 
0.25748 0.046046 -0.056712 0.043087 0.010369 0.013492 0.061008 0.19122 
0.26537 0.081724 -0.019061 0.020233 0.012835 0.014643 0.046704 0.031907 
0.16015 0.13565 0.097508 0.098001 0.014643 -0.010676 0.0018191 -0.06 
0.11806 0.24778 0.16623 0.18909 0.045553 0.0036276 0.044073 0.0054362 
0.12069 0.29464 0.16706 0.20306 0.047197 0.051965 0.12085 -0.057534 
0.042429 0.13927 0.0037921 0.097015 0.03388 0.094055 0.16656 -0.18972 
-0.036654 -0.13086 -0.26913 -0.10965 -0.022185 0.05065 0.13647 -0.13514 
-0.12297 -0.42418 -0.46133 -0.30974 -0.045861 0.019411 0.077943 0.11444 
-0.25023 -0.48353 -0.37683 -0.32536 -0.037311 -0.0088678 0.066927 0.20372 
-0.27949 -0.24497 -0.1478 -0.15799 0.014479 -0.012485 0.057062 0.32128 
-0.19942 0.020069 0.056076 0.0079024 0.073504 0.01004 -0.04471 0.48174 
0.0016547 0.15028 0.20224 0.15571 0.1054 0.05476 -0.11196 0.45231 
0.096357 0.19566 0.26357 0.24663 0.082382 0.069064 -0.12083 0.26768 
0.26916 0.28379 0.31799 0.30303 0.065776 0.063639 -0.043395 0.022864 
0.28527 0.23118 0.2999 0.30467 0.047033 0.079422 0.083533 -0.094856 
0.23348 0.19172 0.10967 0.22 0.033387 0.0044497 0.063145 -0.062631 
0.18317 0.13203 0.018096 0.11576 -0.027282 -0.01939 -0.014951 -0.033365 
0.16459 0.14996 -0.044546 0.03651 -0.012156 -0.033201 -0.043395 0.067585 
0.16031 0.14552 0.0034632 0.026152 -0.0073881 -0.026296 -0.011334 0.11888 
0.031907 0.12381 0.025659 -0.00015387 -0.0029489 -0.024487 -0.017582 0.028619 
-0.0047575 0.075641 0.11395 0.041607 0.011191 0.015301 0.010533 -0.0073881 
-0.028433 0.088136 0.12464 0.10195 0.042758 0.029112 0.037826 -0.027282 
0.0087245 0.14305 0.15768 0.16163 0.0098754 0.020891 0.075312 0.082711 
0.06035 0.1516 0.17297 0.1738 -0.025638 -0.0014692 0.10162 0.22641 
0.044567 0.04917 0.036346 0.067749 -0.035174 0.018096 0.067585 0.24269 
0.0023123 -0.11212 -0.1016 -0.027118 0.0080668 0.025166 0.065283 0.091589 
-0.031228 -0.082525 -0.13037 -0.11409 0.078107 0.084355 0.12151 0.096193 
-0.090581 -0.068714 -0.037476 -0.080223 0.062652 0.098001 0.18152 0.24581 
-0.10834 -0.03353 0.040128 0.0059294 0.031907 0.082053 0.15604 0.35695 
-0.14714 -0.079895 0.084684 0.0054362 0.02829 0.042594 0.08567 0.24745 
-0.11491 -0.11113 0.062817 -0.0024557 0.018918 0.0098754 0.024344 0.072024 
-0.021692 -0.10143 0.03388 -0.022679 0.038483 0.014808 -0.051451 -0.03912 
-0.10521 -0.13777 0.056076 -0.0098543 0.044567 0.0034632 -0.039942 -0.10834 
-0.2568 -0.10225 0.12316 0.024508 0.019083 -0.033859 -0.068057 -0.1307 
-0.19433 0.00099702 0.13039 0.088794 -0.010841 -0.057699 -0.093048 -0.048492 
-0.053753 0.027468 0.047855 -0.013965 0.0019835 -0.051451 -0.062631 0.11313 
-0.0047575 0.058871 0.035031 -0.026789 0.056404 0.0088889 -0.034516 0.15012 
0.057391 0.086163 -0.019719 -0.031228 0.086985 0.045389 0.027139 0.17281 
0.023028 0.016123 -0.055726 -0.047505 0.064461 0.046211 0.051636 0.14568 
0.025824 -0.0072237 -0.026624 -0.050793 0.060515 0.069558 0.050157 0.10178 
0.077285 0.073339 0.062323 0.028125 0.028125 0.056569 0.062817 0.028125 
0.16903 0.13647 0.066763 0.039799 -0.0021268 0.023686 0.062817 -0.0077169 
0.47484 0.244 0.13565 0.0689 0.019411 0.03092 0.094384 0.12973 
0.58236 0.26883 0.12036 0.064132 0.043251 0.082546 0.11477 0.21309 
0.39378 0.22213 0.044073 -0.00097594 0.03092 0.073997 0.097672 0.14683 
0.043909 0.04654 -0.037147 -0.091404 0.016288 -0.00097594 0.049664 0.09274 
-0.29084 -0.1746 -0.18528 -0.10587 -0.02235 -0.055561 -0.015938 -0.009361 
-0.35512 -0.21027 -0.29511 -0.096336 -0.021692 -0.065262 -0.037311 -0.13382 
-0.20419 -0.053753 -0.17723 -0.033201 0.023686 -0.0036066 -0.029913 -0.18742 
-0.12182 0.0083956 0.00050378 -0.013143 0.031414 0.034702 0.024015 -0.21241 
-0.097816 -0.014293 0.22065 0.041114 0.010204 0.0324 0.079258 -0.1353 
0.11148 0.24499 0.46497 0.11642 -0.011827 0.013492 0.09126 -0.052437 
0.33196 0.39214 0.52498 0.16574 -0.044546 -0.03205 0.060186 -0.040106 
0.29415 0.36698 0.33081 0.09981 -0.022679 -0.029748 0.037004 -0.063289 
0.11625 0.11707 -0.063453 -0.010348 0.077285 0.024015 0.05476 -0.14566 
0.031414 -0.10521 -0.29676 -0.047834 0.13499 0.10277 0.12349 -0.13152 
0.0028056 -0.22968 -0.22409 0.021056 0.17873 0.12628 0.12431 -0.055232 
-0.20468 -0.31254 -0.090417 0.1419 0.19172 0.11724 0.11346 -0.044052 
-0.35808 -0.23132 0.0047785 0.17593 0.17034 0.063639 0.031249 -0.060165 
-0.29429 -0.092883 0.007738 0.076463 0.098659 0.025166 -0.042408 -0.047998 
-0.029748 0.066269 -0.01528 0.023028 0.00066819 1.0539e-005 -0.049314 0.018425 
0.26324 0.22559 0.03388 -0.0068948 -0.0054151 0.0018191 0.029112 0.11362 
0.40776 0.30779 0.0324 -0.025967 0.0021479 0.047033 0.075148 0.11576 
0.33262 0.17462 -0.0022913 -0.0095255 0.011191 0.056898 0.079587 0.039799 
0.2006 0.058377 -0.011992 -0.038791 0.017767 0.021056 0.079258 -0.052602 
0.15768 0.066105 0.029605 -0.01939 0.0046141 0.004943 0.042594 -0.043559 
0.19501 0.15292 0.071366 0.071202 -0.012485 -0.0098543 0.01974 -0.015444 
0.24301 0.27803 0.16442 0.11083 0.0013258 -0.006566 -0.0078813 0.049006 
0.27129 0.30566 0.14815 0.067091 -0.00097594 -0.021528 0.016945 0.12579 
0.19106 0.16146 0.036346 0.025988 0.025988 -0.0095255 0.025824 0.13351 
0.027796 -0.10489 -0.109 -0.070687 0.023357 -0.020048 0.025001 0.0011614 
0.011848 -0.11672 -0.1838 -0.11311 0.065118 0.042429 0.045389 -0.014787 
0.12168 0.028783 -0.17789 -0.049807 0.11033 0.11313 0.073175 0.0024767 
0.14157 0.099645 -0.054739 0.03799 0.13943 0.14305 0.082546 0.0087245 
-0.12412 -0.038956 0.06183 0.09833 0.11691 0.11609 0.0227 -0.12034 
-0.45278 -0.20485 0.070544 0.10178 0.082053 0.06331 -0.014951 -0.29939 
-0.44654 -0.16934 0.067091 0.0786 0.0079024 -0.012649 -0.031228 -0.31484 
-0.32553 -0.12018 0.11806 0.067256 -0.020048 -0.052602 -0.0055795 -0.27555 
-0.16342 0.0062583 0.14749 0.080244 -0.017253 -0.053424 0.063145 -0.20616 
0.16689 0.26192 0.19237 0.086328 -0.024652 -0.0055795 0.080573 -0.027282 
0.44393 0.46316 0.23578 0.066269 0.01267 0.034866 0.067585 0.20421 
0.44853 0.36106 0.11987 0.025166 0.0082312 0.03388 0.0080668 0.32308 
0.24959 0.074654 -0.1016 -0.096994 -0.0064016 0.027468 -0.021528 0.29711 
-0.071181 -0.1838 -0.18397 -0.12429 0.0060938 -0.0013048 -0.061151 0.17988 
-0.33835 -0.35759 -0.099131 -0.092554 0.084848 0.024508 -0.042573 0.072681 
-0.31287 -0.32356 0.027468 0.073504 0.16853 0.087314 0.024673 -0.036489 
-0.11228 -0.10357 0.17166 0.15522 0.1835 0.12891 0.070215 -0.052931 
0.076627 0.13976 0.19353 0.1299 0.091753 0.088958 0.086163 -0.039942 
0.13467 0.23446 0.14996 0.060186 0.013164 0.021056 0.025001 -0.048985 
0.12743 0.24811 0.10524 0.0031344 -0.034516 -0.034188 -0.040106 -0.080552 
0.096028 0.22082 0.11395 -0.010019 -0.023829 -0.035503 -0.098802 -0.052109 
0.055582 0.14289 0.048019 -0.023501 -0.035503 -0.04323 -0.10702 0.025001 
0.05624 0.036346 0.020891 -0.035832 -0.040764 -0.020541 -0.01117 0.085341 
0.021713 0.017767 0.01563 -0.026953 -0.031392 -0.0044286 -0.028597 0.17807 
0.0069159 0.10228 0.061501 0.0011614 -0.010841 0.0098754 -0.027447 0.15407 
0.030592 0.13039 0.12546 0.043087 0.01826 0.0056006 0.04095 0.17429 
0.035688 0.053281 0.053281 -0.020706 0.026317 0.031578 0.092247 -0.0064016 
-0.045368 -0.067728 -0.082032 -0.06296 -0.012156 0.020398 0.069393 -0.25828 
-0.050793 -0.081703 -0.10883 -0.08828 -0.047176 -0.014293 0.018754 -0.12149 
0.072188 0.017767 0.0034632 -0.033365 -0.023501 -0.0095255 0.016288 0.24449 
0.20569 0.16163 0.11033 0.043909 0.0037921 0.057555 0.0592 0.32621 
0.24417 0.23956 0.16344 0.10852 0.059035 0.067749 0.055089 0.093398 
0.11543 0.14108 0.15982 0.13943 0.093562 0.062652 0.013657 -0.26568 
-0.10817 0.012177 0.097837 0.12513 -0.00064712 -0.0014692 -0.0087034 -0.46594 
-0.19844 -0.071509 0.027139 0.10178 -0.082854 -0.089595 -0.055397 -0.17361 
-0.056383 0.015959 0.036839 0.086821 -0.10916 -0.066741 -0.011827 0.29924 
0.11329 0.13746 0.026646 0.07597 -0.089102 -0.038133 -0.014622 0.42058 
0.21852 0.14798 -0.039449 0.029276 -0.05178 -0.0083746 0.0016547 0.29793 
0.35399 0.22296 -0.047176 0.011026 -0.030899 0.031414 0.01974 0.27853 
0.27787 0.083368 -0.068714 -0.016266 0.036839 0.073668 0.038812 0.22361 
-0.027775 -0.22326 -0.1746 -0.061809 0.05476 0.064625 0.06331 0.1225 
-0.2568 -0.44358 -0.19926 -0.12626 0.055582 0.071366 0.079587 0.025824 
-0.34016 -0.34624 -0.1672 -0.12231 0.062159 0.06035 0.069886 -0.11343 
-0.25828 -0.14221 -0.051615 -0.043066 0.062817 0.072517 0.053774 -0.18939 
-0.089759 0.071695 0.10425 0.069722 0.066763 0.0786 0.068407 -0.12708 
0.076956 0.2611 0.24778 0.18974 0.099481 0.07038 0.061008 -0.065591 
0.15653 0.29793 0.21769 0.24647 0.05065 0.047691 0.02681 -0.035338 
0.13434 0.13845 0.043909 0.13746 -0.047998 -0.016924 -0.015609 -0.065097 
-0.0049219 0.056898 -0.024487 0.063145 -0.10176 -0.084498 -0.042737 -0.11294 
-0.014787 0.18465 0.039799 0.076134 -0.068057 -0.06 -0.013307 -0.049642 
0.077285 0.20619 0.018589 0.068407 0.0056006 -0.0096899 0.01004 0.028125 
0.1927 0.083533 -0.072989 -0.0014692 0.066598 0.069558 0.049006 0.062981 
0.17001 0.016616 -0.03764 -0.0024557 0.10491 0.10145 0.084355 0.070215 
0.024344 -0.011827 0.0090533 0.057555 0.080409 0.076956 0.092411 0.082711 
-0.12938 -0.058521 0.024344 0.062488 0.044567 0.033551 0.061995 0.054925 
-0.13859 -0.066741 -0.013965 0.040785 0.0039565 0.03651 0.05624 0.12562 
-0.0083746 0.021878 -0.03616 0.024508 0.011684 0.04654 0.058049 0.21769 
0.037497 0.016945 0.0013258 0.026317 0.01711 0.037497 0.057391 0.20799 
-0.08532 -0.023501 0.0039565 0.036182 0.021384 0.010862 0.046704 0.099316 
-0.10784 -0.009361 -0.00081153 0.063803 0.035853 0.014479 0.028619 -0.0096899 
-0.010019 0.090767 0.0021479 0.053116 0.024508 0.027796 1.0539e-005 0.0079024 
0.032071 0.10606 0.011026 0.052787 -0.00031829 -0.0014692 -0.027447 0.013164 
0.01415 0.062981 -0.0039354 0.040292 -0.012485 0.0075736 0.0021479 0.057227 
-0.0036066 0.0087245 -0.034845 0.011026 0.033551 -0.027282 0.040785 0.11231 
0.020069 -0.026131 -0.059014 -0.017088 0.023357 0.01004 0.042265 0.11214 
0.01711 -0.038791 -0.077264 -0.0013048 0.049664 0.013492 0.064132 0.012835 
0.029112 -0.031721 0.0090533 0.035031 0.10672 0.089123 0.0786 -0.033037 
0.04917 0.037497 0.02829 0.058049 0.15144 0.15456 0.11066 -0.10554 
0.094384 0.048677 0.060022 0.08304 0.13565 0.12447 0.093233 -0.10653 
0.014808 0.058542 0.076134 0.09833 0.080738 0.03536 0.039634 -0.10456 
-0.072496 0.02533 0.082382 0.099974 0.0689 0.020891 0.011355 -0.071016 
-0.058521 0.10639 0.10754 0.13138 0.027961 0.010697 0.020233 -0.040928 
0.032564 0.18498 0.12168 0.17659 -0.0039354 -0.0034422 0.0032988 0.11411 
0.065447 0.1465 0.063474 0.1322 -0.055726 -0.052602 -0.020541 0.21013 
0.02829 0.057391 -0.013965 0.064296 -0.071674 -0.030406 -0.029748 0.18251 
0.012506 -0.054739 -0.054082 0.020233 -0.013965 0.0087245 -0.0027845 0.089287 
-0.0088678 -0.1085 -0.046354 0.0069159 0.057884 0.023522 0.039141 0.016288 
-0.10735 -0.12314 -0.021363 0.0095465 0.098494 0.056733 0.030263 0.082875 
-0.14122 -0.035667 0.040292 0.069558 0.11576 0.11757 0.05213 0.25715 
0.0069159 0.083368 0.11378 0.12513 0.099481 0.099974 0.061501 0.32062 
0.13006 0.10408 0.14502 0.16393 0.08863 0.060515 0.053609 -0.0055795 
0.05624 0.059693 0.13039 0.1664 0.053445 0.010862 0.047691 -0.37239 
0.032236 0.048184 0.10014 0.14667 0.041278 0.027632 0.022864 -0.15602 
0.22197 0.1179 0.14009 0.15949 0.02681 0.038155 0.053445 0.44952 
0.39855 0.25715 0.17117 0.21358 0.032564 0.044896 0.062323 0.6381 
0.34018 0.34199 0.159 0.21276 0.046375 -0.0014692 0.027468 0.41253 
0.1276 0.15867 0.10819 0.1733 0.017274 -0.0096899 0.0011614 0.10145 
-0.063124 -0.00064712 0.055582 0.12891 -0.091568 -0.1113 -0.074962 -0.086471 
-0.028597 0.10967 0.071695 0.11411 -0.072332 -0.11574 -0.059343 -0.14878 
0.03536 0.085012 0.023851 0.083697 -0.0044286 -0.017417 -0.010183 -0.13464 
0.046868 -0.17591 -0.11442 -0.0055795 0.057062 0.082546 0.10491 -0.083347 
0.078107 -0.23543 -0.18249 -0.059672 0.098494 0.10491 0.13746 -0.076442 
0.037004 -0.1256 -0.14287 -0.077593 0.090274 0.091589 0.12069 -0.10982 
-0.19926 -0.096665 -0.051451 -0.033859 0.078765 0.038648 0.045224 -0.14928 
-0.3109 -0.028926 0.044567 0.042758 0.051636 -0.004593 -0.057205 -0.091568 
-0.083183 0.055254 0.14305 0.12069 0.0052718 -0.043888 -0.15569 0.041114 
0.33196 0.25847 0.23594 0.22049 -0.035832 -0.05589 -0.16046 0.19665 
0.51167 0.39904 0.24877 0.29398 -0.028762 -0.01528 -0.089431 0.12628 
0.41236 0.305 0.11362 0.20816 -0.026953 0.011191 0.01826 0.14124 
0.16886 0.048184 -0.044217 0.078765 -0.018897 0.0085601 0.12743 0.16952 
-0.073318 -0.15684 -0.01117 0.057391 0.010533 0.067091 0.11017 0.14946 
-0.043724 -0.011992 0.20816 0.17692 0.1003 0.082546 0.077943 0.20372 
0.065612 0.16558 0.2902 0.28872 0.15259 0.080738 0.0032988 0.21506 
0.074326 0.048841 0.171 0.25239 0.076463 0.015794 0.026974 0.12036 
-0.014622 -0.12741 0.0024767 0.12085 -0.0091966 -0.059014 0.01974 -0.021199 
-0.033365 -0.058356 -0.038627 0.050979 -0.081539 -0.072003 -0.008539 -0.078908 
-0.021856 0.10096 0.030263 0.066269 -0.073154 -0.052437 -0.0070593 -0.1233 
-0.08828 0.15966 0.12858 0.13713 0.0013258 0.0024767 -0.0024557 -0.059507 
-0.16029 0.062323 0.13434 0.15423 0.039963 0.06742 0.097015 -0.045039 
-0.23872 -0.19564 0.068078 0.1225 0.010533 0.066598 0.074654 -0.065426 
-0.12544 -0.20271 -0.093541 0.041443 0.017274 0.025824 0.016452 -0.16506 
0.061172 0.01711 -0.11179 -0.02498 0.033387 -0.0013048 -0.046354 -0.1085 
0.31486 0.30582 -0.10423 -0.04323 0.071366 0.0085601 -0.0052507 0.033058 
0.46234 0.43834 -0.074962 -0.032708 0.10228 0.049006 0.031414 0.11148 
0.24778 0.33081 0.024673 0.022371 0.050321 0.0080668 0.0052718 -0.083512 
-0.15848 0.12102 0.13483 0.11707 0.019083 -0.0088678 0.0082312 -0.27012 
-0.36893 -0.029584 0.060515 0.13351 -0.026131 -0.045532 -0.02498 -0.3571 
-0.24102 -0.16276 -0.18841 -0.045861 -0.038462 -0.030242 -0.0096899 -0.17525 
0.096193 -0.19186 -0.15306 -0.082525 0.037497 0.031907 0.030263 0.1345 
0.18761 -0.10061 0.11806 0.074819 0.062981 0.048513 0.047197 0.25847 
0.075312 0.062159 0.34396 0.25781 0.020233 0.01004 0.022535 0.21375 
0.069229 0.25452 0.38342 0.34446 0.0014903 -0.0073881 0.010533 0.15374 
0.08304 0.10819 0.081724 0.21753 0.0037921 -0.0034422 0.00083261 0.19303 
0.013657 -0.16342 -0.30202 -0.081539 0.0018191 -0.0031133 -0.006566 0.14733 
-0.051287 -0.16572 -0.34361 -0.20616 0.081724 0.077121 0.015959 0.084519 
-0.091732 -0.021199 -0.10801 -0.10932 0.13286 0.11921 0.053938 -0.020377 
-0.10571 0.015794 0.090603 0.037332 0.098988 0.067749 0.07301 -0.08532 
-0.14796 0.029276 0.17232 0.13286 0.037168 0.0021479 0.031578 -0.16128 
-0.1769 0.067091 0.12381 0.15193 0.0021479 0.0026412 -0.011005 -0.16243 
-0.097322 0.071366 0.0052718 0.099316 0.041772 0.037332 -0.047669 -0.17114 
0.046704 0.1396 0.0018191 0.069558 0.054925 0.050814 -0.021692 -0.16013 
0.1636 0.22296 0.040456 0.083204 0.070051 0.070544 0.0064227 -0.13695 
0.18563 0.21227 0.049006 0.084684 0.031907 0.052623 0.0062583 -0.051615 
0.13039 0.075148 -0.0068948 0.039141 -0.0078813 -0.010348 -0.020541 -0.039284 
0.013492 0.012013 -0.024652 0.016945 -0.048492 -0.055561 -0.050464 -0.029913 
-0.025309 0.036839 -0.03353 0.045224 -0.030899 -0.03353 0.014643 0.0083956 
0.016452 -0.0050863 -0.027118 0.024837 -0.016102 0.028947 0.046704 0.044073 
0.09833 -0.037311 -0.036489 0.016123 0.0034632 0.03388 0.05065 0.076956 
0.1276 -0.016266 0.025495 0.051143 0.046046 0.069722 0.075641 0.047855 
0.090274 0.048841 0.10655 0.11115 0.096193 0.079422 0.070873 -0.061151 
0.044896 0.087808 0.15949 0.14585 0.12464 0.13368 0.096193 -0.086471 
0.093562 0.087314 0.076134 0.1442 0.067256 0.082875 0.062981 0.13467 
0.10524 0.040621 0.034537 0.098659 0.041278 -0.0078813 0.025166 0.45396 
0.071531 -0.020377 -0.041915 0.037168 0.0018191 -0.028597 -0.033365 0.49112 
0.054103 0.013986 -0.043066 0.014972 -0.014622 0.019247 -0.023336 0.42486 
0.14371 0.094713 -0.012814 0.025001 0.042594 0.034209 0.010533 0.31569 
0.16525 0.09981 0.017767 0.0227 0.049006 0.057884 0.046375 0.082382 
0.016123 -0.014951 -0.0070593 0.034044 0.0087245 0.023686 0.0098754 -0.25911 
-0.18364 -0.02794 0.0037921 0.058542 -0.063453 -0.02646 -0.020048 -0.33046 
-0.065919 0.15982 0.1179 0.12299 -0.097322 -0.07825 -0.014787 -0.22491 
0.10014 0.28543 0.10787 0.13516 -0.10472 -0.1284 -0.058356 -0.42549 
0.28576 0.25699 -0.1187 0.0016547 -0.079895 -0.1182 -0.063946 -0.53844 
0.52055 0.14091 -0.30268 -0.16802 0.030592 0.063968 0.053938 -0.11278 
0.30993 -0.24612 -0.34065 -0.24168 0.1516 0.18596 0.13154 0.17297 
-0.17936 -0.37387 -0.061973 -0.065755 0.24351 0.21802 0.14289 0.1294 
-0.4684 -0.19383 0.24532 0.15587 0.24712 0.20487 0.1174 0.0019835 
-0.43782 -0.066741 0.30697 0.26965 0.14815 0.12316 0.058049 -0.047669 
-0.13366 1.0539e-005 0.27096 0.28527 0.048841 0.043745 0.016945 0.02681 
0.10737 0.070544 0.21753 0.25584 0.0026412 0.015959 0.044238 0.11987 
0.19583 0.16837 0.12513 0.1881 0.0072447 0.01152 0.045224 0.17593 
0.10096 0.14289 0.0046141 0.11494 -0.0064016 -0.021034 0.015794 0.10672 
0.0021479 0.073997 -0.053095 0.038319 -0.060987 -0.046683 -0.0090322 0.095535 
0.061501 0.088136 -0.02942 0.032071 -0.062467 -0.077428 -0.015444 0.03092 
0.14354 0.12957 0.028947 0.058049 -0.061151 -0.0503 -0.032215 -0.045696 
0.13088 0.13976 0.058213 0.082875 -0.0067304 -0.034352 -0.055561 -0.1085 
0.056404 0.11559 0.072353 0.093726 0.012506 -0.016595 -0.072496 -0.06 
0.048348 0.10145 0.031249 0.094055 0.0088889 -0.01528 -0.028269 0.028947 
0.13878 0.11609 0.016945 0.091096 0.035195 0.031742 0.062981 0.14354 
0.16689 0.17314 0.072024 0.1077 0.058377 0.060186 0.10441 0.18021 
0.14256 0.18103 0.084848 0.11987 0.057062 0.062323 0.099152 0.15571 
0.025001 -0.047176 -0.02942 0.053609 0.037661 0.035853 0.078929 0.024673 
-0.10324 -0.11968 -0.065591 -0.00064712 0.0031344 0.026317 0.050979 -0.13284 
-0.15141 -0.056219 0.0031344 0.023028 0.00050378 -0.0096899 0.073997 -0.16654 
-0.093705 0.029605 0.037497 0.09274 0.01004 0.0054362 0.041114 0.012013 
0.081395 0.1904 0.13434 0.14716 0.047362 0.024837 0.025988 0.1978 
0.16344 0.26011 0.15703 0.1807 0.063639 0.060022 0.013986 0.17265 
0.049992 0.10063 0.11905 0.16212 0.023028 0.017767 0.037332 0.16541 
0.041772 0.074983 0.08978 0.1345 -0.079895 -0.052437 0.035524 0.28527 
0.043251 0.062652 0.011684 0.072681 -0.13119 -0.10439 -0.009361 0.1738 
-0.15552 -0.17969 -0.18742 -0.050793 -0.055561 -0.052931 -0.037311 -0.13843 
-0.18907 -0.27982 -0.24825 -0.13612 0.1368 0.08863 0.041772 -0.18874 
-0.16227 -0.25943 -0.099789 -0.07562 0.28872 0.22592 0.14058 -0.1741 
-0.21948 -0.16703 0.033715 0.017438 0.28954 0.23808 0.14848 -0.039942 
-0.1358 0.027303 0.14782 0.1128 0.14256 0.1442 0.10359 0.17396 
0.062488 0.20964 0.21556 0.16771 -0.0062372 0.0072447 0.066763 0.25748 
0.19501 0.26242 0.13549 0.171 -0.06 -0.020706 0.029441 0.12316 
0.23381 0.19764 0.10721 0.16738 0.00099702 -0.0064016 0.024179 -0.060823 
-0.00031829 0.034209 0.049335 0.11822 0.0034632 -0.015609 -0.031721 -0.21175 
-0.28212 -0.13843 -0.029255 0.056733 0.038319 -0.034516 -0.074304 -0.23888 
-0.21521 -0.0024557 0.016945 0.059528 0.027468 -0.017582 -0.071674 0.018754 
0.041936 0.16738 0.14486 0.12825 0.0098754 0.016781 0.018589 0.19533 
0.1396 0.18152 0.13697 0.15045 0.0039565 0.037168 0.0088889 0.11148 
0.1008 0.11461 0.013657 0.11839 0.0093821 0.026481 -0.0040998 -0.079237 
0.020398 0.06183 -0.018733 0.063145 0.013492 0.020069 0.013657 -0.072332 
0.00083261 0.054103 0.018096 0.064954 0.032729 0.025659 0.058871 0.051308 
0.0083956 0.015794 -0.0021268 0.051801 0.025659 0.014643 0.050486 0.16821 
0.0042853 -0.014458 -0.038791 0.011848 -0.0050863 0.0054362 0.016288 0.13927 
0.0044497 -0.031392 0.004943 0.01974 -0.02646 -0.018075 -0.013965 0.11658 
0.10819 0.099152 0.06742 0.10129 -0.05178 -0.046354 0.00083261 0.040456 
0.17676 0.18646 0.074654 0.11461 -0.0406 -0.048163 0.053281 0.040785 
0.16459 0.10967 -0.0029489 0.069229 0.0023123 0.0074092 0.093562 0.020891 
0.13236 -0.043888 -0.072496 0.00066819 0.033222 0.056733 0.11378 0.098823 
-0.10719 -0.20879 -0.079895 -0.028597 0.062817 0.05772 0.032893 0.073175 
-0.27933 -0.15816 0.01711 0.019411 0.077778 0.018096 -0.079566 0.04917 
-0.15832 -0.031064 0.062159 0.079422 0.086657 0.01152 -0.11804 0.15637 
0.05772 0.10885 0.10524 0.12595 0.063968 -0.0060728 -0.10127 0.24071 
0.18613 0.16607 0.14716 0.16327 0.032893 0.025166 -0.041915 0.13171 
0.20487 0.19336 0.05476 0.11642 -0.020706 0.015959 0.0028056 -0.038133 
0.13516 0.03799 -0.10357 1.0539e-005 -0.048327 -0.022185 0.044402 -0.090746 
0.11576 -0.031557 -0.12412 -0.055397 0.00033937 0.028947 0.076463 -0.053095 
0.11313 0.086821 0.059035 0.04506 0.093891 0.091096 0.080902 -0.017417 
-0.021692 0.024179 0.11296 0.14026 0.11526 0.10178 0.068407 -0.072496 
-0.049807 -0.079895 0.081889 0.12447 0.074983 0.062981 0.045718 -0.042901 
0.12332 0.029605 0.020562 0.082217 0.020233 0.005765 0.029276 0.040785 
0.36353 0.21243 0.028619 0.073175 -0.0011404 0.028783 0.0026412 0.16492 
0.27409 0.13023 0.023028 0.065776 0.016945 0.017438 0.029769 0.03092 
-0.071016 -0.077593 -0.031886 0.016123 -0.0022913 -0.013143 0.0028056 -0.24332 
-0.2254 -0.11771 -0.10916 -0.023994 -0.047176 -0.042573 -0.0054151 -0.2762 
-0.12807 -0.034516 -0.065262 -0.019061 0.018918 0.024015 0.036017 -0.2568 
-0.07003 0.01711 0.042758 0.052787 0.060186 0.047362 0.056404 -0.20732 
0.049499 0.13417 0.13762 0.13154 0.044073 0.038648 0.10869 0.13861 
0.34594 0.26274 0.22131 0.20783 0.012013 0.046868 0.18152 0.53666 
0.41664 0.31108 0.27425 0.26537 -0.052766 0.0082312 0.14634 0.60374 
0.29168 0.27261 0.18202 0.25567 -0.11985 -0.081868 0.0036276 0.60801 
-0.00097594 0.035524 -0.067399 0.076956 -0.10357 -0.14813 -0.11278 0.48503 
-0.37535 -0.34115 -0.34016 -0.1552 -0.044546 -0.085978 -0.11508 0.060515 
-0.39902 -0.32586 -0.27801 -0.19712 0.038977 0.0016547 -0.07003 -0.080552 
-0.010841 0.01826 0.11263 0.036017 0.15374 0.12727 0.074326 0.11888 
0.21457 0.16936 0.34265 0.23907 0.18744 0.20175 0.17708 0.26061 
0.29086 0.14617 0.26916 0.27409 0.23315 0.22986 0.20471 0.29053 
0.20865 0.044567 0.09685 0.19632 0.14437 0.17232 0.18613 0.027139 
-0.03501 -0.049642 -0.010348 0.091589 0.058706 0.073339 0.13631 -0.20682 
-0.11985 0.032729 0.017767 0.072188 -0.0016336 0.030427 0.06183 -0.34476 
-0.071181 0.097672 0.088136 0.10524 -0.014951 -0.012485 -0.046025 -0.45706 
-0.01232 0.12233 0.15637 0.15127 -0.042244 -0.063289 -0.11787 -0.52513 
0.20208 0.23562 0.18826 0.19221 -0.064604 -0.086142 -0.099789 -0.24151 
0.39904 0.32818 0.21802 0.26357 -0.021528 -0.056712 0.03092 0.17133 
0.26011 0.1613 0.10014 0.18859 -0.014129 -0.02087 0.12513 0.2417 
-0.0016336 -0.072989 -0.11212 0.025001 -0.048985 -0.03353 0.071695 0.21621 
-0.072167 -0.13415 -0.26897 -0.13695 -0.041093 -0.032708 0.012999 0.23627 
-0.12462 -0.12593 -0.29758 -0.21504 0.020069 0.015301 -0.0022913 0.25123 
-0.014787 0.08419 -0.13547 -0.14418 0.1077 0.14782 0.098001 0.30039 
0.16738 0.2371 0.078436 0.037004 0.2172 0.23233 0.19714 0.31914 
0.069558 -0.050629 0.073668 0.081231 0.17807 0.18251 0.18925 0.16031 
-0.061316 -0.25631 -0.024487 0.034044 0.038483 0.061008 0.11806 0.046704 
-0.22063 -0.18413 -0.076113 -0.012485 -0.031228 -0.017746 0.057062 -0.092883 
-0.57922 -0.20814 -0.16687 -0.087129 -0.085649 -0.0771 -0.0042642 -0.27456 
-0.59155 -0.19992 -0.11491 -0.084498 -0.0503 -0.053588 -0.010512 -0.28459 
-0.20912 -0.0075525 0.097837 0.045553 -0.00064712 0.01563 0.012999 -0.17542 
0.074654 0.14963 0.18103 0.18333 0.023522 0.037497 0.046046 -0.055232 
0.10737 0.22608 0.23035 0.23627 0.053281 0.07038 0.055254 -0.095349 
0.087643 0.15275 0.17659 0.22641 0.10704 0.1003 0.056569 -0.12741 
0.13121 0.079258 0.12069 0.18662 0.11378 0.1174 0.056569 -0.13497 
0.27146 0.14617 0.13647 0.17495 0.096686 0.080573 0.063145 -0.014129 
0.32078 0.24104 0.18761 0.19468 0.042265 0.02122 0.055418 0.10852 
0.22739 0.24564 0.12398 0.19599 -0.042573 -0.053095 -0.0026201 0.18794 
0.039305 0.084355 0.040785 0.12513 -0.085813 -0.084169 -0.034352 0.10441 
-0.11393 -0.015444 -0.045861 0.04506 -0.072003 -0.072825 -0.052273 -0.0406 
-0.1085 -0.04323 -0.21504 -0.092061 -0.034352 -0.066577 -0.041093 -0.17558 
-0.049478 -0.10784 -0.36959 -0.24086 0.020233 -0.021528 -0.023994 -0.16391 
0.11247 -0.099131 -0.37239 -0.30613 -0.00097594 0.028619 -0.019719 -0.017911 
0.30204 0.05476 -0.1427 -0.1667 0.10014 0.11165 -0.02646 0.16952 
0.13549 0.085999 0.11099 0.039141 0.12973 0.12316 0.034537 0.25781 
-0.1889 0.034537 0.23627 0.17955 0.17922 0.14124 0.08419 0.21539 
-0.20682 0.046868 0.26077 0.2468 0.11905 0.084355 0.056898 0.16755 
-0.012649 0.10524 0.18892 0.24959 0.032564 0.022206 0.051801 0.12381 
0.082217 0.099316 0.09685 0.16327 -0.050958 0.0064227 0.032893 0.1299 
0.046046 -0.018733 -0.050793 0.062488 -0.087786 -0.039449 -0.00031829 0.0046141 
0.0032988 -0.17295 -0.18052 -0.035174 -0.098144 -0.075291 -0.023994 -0.11689 
1.0539e-005 -0.17098 -0.14319 -0.06707 -0.036818 -0.060165 -0.0098543 -0.15898 
-0.048656 -0.078086 -0.057534 -0.029255 0.062159 0.019083 0.049664 -0.16276 
-0.048492 0.033222 0.017603 0.030098 0.094548 0.096521 0.10343 -0.11656 
-0.0049219 0.13417 0.094055 0.087972 0.071531 0.12809 0.10474 -0.019719 
0.14321 0.19944 0.16821 0.15423 0.053445 0.069558 0.033551 0.042265 
0.3119 0.26702 0.18892 0.23085 0.06479 0.04358 -0.018239 0.057884 
0.23167 0.25419 0.17577 0.22164 0.052459 -0.0049219 -0.069208 -0.043066 
0.066598 0.099316 0.12858 0.1858 0.019083 -0.010348 -0.10735 -0.22359 
-0.051944 0.038977 0.12562 0.17297 0.0011614 -0.03057 -0.068879 -0.29774 
-0.0406 0.065118 0.15357 0.18103 0.0087245 -0.019226 -0.023336 -0.12018 
0.10918 0.09274 0.19517 0.20767 0.022535 0.004943 0.029276 0.1442 
0.2486 0.080573 0.16475 0.22411 0.040456 0.03651 0.028947 0.3119 
0.43324 0.11625 0.068242 0.15982 0.044731 0.015465 0.018425 0.48421 
0.59979 0.2463 -0.034023 0.064625 0.0046141 -0.023007 -0.050958 0.4579 
0.3877 0.26225 -0.047834 0.020398 -0.0036066 -0.048327 -0.079237 0.2103 
-0.10423 0.11033 -0.057699 -0.0032777 -0.00031829 -0.0096899 -0.034023 -0.073154 
-0.43322 -0.097158 -0.024158 -0.0013048 0.030756 0.024179 0.050486 -0.18216 
-0.33095 -0.11722 0.0689 0.070873 0.049499 0.053116 0.11362 -0.071674 
0.0023123 -0.035667 0.073339 0.11757 0.032564 0.077285 0.10622 0.071037 
0.17889 0.048348 0.061337 0.10688 0.0088889 0.045553 0.081067 0.047197 
0.24926 0.2417 0.12825 0.14058 -0.030735 -0.037311 0.0227 0.0047785 
0.3484 0.35564 0.12727 0.15489 -0.05885 -0.087786 -0.044381 0.018096 
0.42387 0.17643 -0.084334 0.018918 -0.034188 -0.066413 -0.068879 0.060844 
0.36813 -0.10867 -0.25105 -0.13284 0.058213 0.031578 -0.054739 0.18876 
-0.068386 -0.22951 -0.16506 -0.090253 0.1128 0.092082 -0.022021 0.083368 
-0.61342 -0.31501 0.083862 0.052623 0.13335 0.11099 -0.0021268 -0.070687 
-0.67063 -0.22244 0.27047 0.2149 0.14733 0.10145 0.027796 -0.12856 
-0.23181 0.088794 0.36797 0.33032 0.079258 0.036017 0.019576 0.005765 
0.30401 0.43341 0.45116 0.41894 0.020069 -0.0011404 0.014315 0.089287 
0.47829 0.512 0.31536 0.35942 -0.034188 -0.018404 0.017767 0.072681 
0.11148 0.087972 -0.12067 0.092904 -0.013636 -0.0068948 0.0024767 -0.078744 
-0.21291 -0.19104 -0.36417 -0.15684 0.01974 0.0034632 -0.0068948 -0.19663 
-0.17591 -0.1838 -0.17887 -0.13103 0.063803 0.040292 0.0072447 -0.19712 
-0.08269 -0.11607 0.025001 -0.0036066 0.085999 0.069393 0.038977 -0.034516 
-0.094199 -0.014951 0.077285 0.066598 0.044731 0.079094 0.042923 0.10819 
0.043416 0.087643 0.067749 0.078436 0.034537 0.054596 0.071366 0.10129 
0.10524 0.14058 0.0047785 0.051636 -0.028269 -0.028104 0.007738 0.12053 
0.11214 0.093562 -0.084663 0.010697 -0.056712 -0.059672 -0.053424 0.22296 
0.095206 0.11181 -0.051944 -0.0027845 -0.025638 -0.016595 -0.060658 0.28658 
0.076956 0.07301 0.005765 0.033387 0.019083 0.015137 -0.019884 0.19632 
0.070544 0.060022 0.045389 0.064461 0.01711 0.028947 0.072024 0.1687 
-0.0055795 0.0080668 0.086821 0.093069 -0.001798 0.042923 0.10063 -0.0054151 
-0.17246 -0.018075 0.10622 0.12036 -0.0052507 0.03947 0.091425 -0.34953 
-0.25302 -0.020541 0.048513 0.12858 -0.046354 -0.03205 0.049335 -0.32109 
-0.0868 0.045718 0.013492 0.085506 -0.030406 -0.049149 0.037661 0.020562 
0.12118 0.12694 0.0060938 0.067091 0.005765 -0.021528 0.032893 0.1544 
0.25617 0.13056 0.011355 0.061666 0.08863 0.081231 0.04654 0.2149 
0.2292 0.098166 0.072353 0.090438 0.11526 0.11674 0.049335 0.24318 
0.031742 0.042758 0.10573 0.11773 0.093726 0.070215 0.034702 0.19895 
-0.08384 0.1294 0.16245 0.18284 0.061337 0.034044 0.040456 0.15686 
-0.10686 0.055089 0.14272 0.18185 -0.0004827 -0.020212 -0.0067304 0.029441 
-0.054246 -0.049642 0.062488 0.13039 -0.028269 -0.06444 -0.046847 -0.030406 
0.054267 0.016288 0.065283 0.11872 0.021878 0.0093821 -0.013636 0.071202 
0.0085601 -0.024158 0.055089 0.11247 0.073339 0.073997 0.060022 0.10639 
-0.17016 -0.1358 0.044896 0.085341 0.047033 0.065612 0.089945 0.012999 
-0.31122 -0.19202 -0.050629 0.021384 -0.0087034 0.018754 0.089616 -0.12593 
-0.31879 -0.13366 -0.1085 -0.011005 -0.037476 0.025001 0.095535 -0.20436 
-0.11245 -0.013143 -0.069865 -0.017253 0.017767 0.043909 0.072024 -0.092554 
0.073668 0.06331 -0.027611 0.0018191 0.094055 0.095699 0.087479 0.089287 
0.19122 0.056733 -0.067235 -0.015116 0.13368 0.10195 0.094877 0.20536 
0.27064 0.091918 -0.10883 -0.054904 0.097344 0.090767 0.083862 0.11757 
0.23266 0.088136 -0.15076 -0.099295 0.018918 0.01267 0.015465 -0.043559 
0.13549 0.0786 -0.18084 -0.086307 -0.012156 -0.010512 -0.0032777 -0.035174 
0.063145 0.11707 -0.013636 -0.012156 0.0037921 -0.00097594 0.013328 0.078107 
0.043087 0.13286 0.098659 0.085177 0.0083956 0.0052718 0.042429 0.065118 
0.0227 0.064461 0.14733 0.14535 0.019576 0.038483 0.066927 -0.16835 
-0.012649 -0.010019 0.16804 0.17791 0.048184 0.044073 0.047526 -0.37518 
-0.087293 -0.0082102 0.16656 0.19172 0.033551 0.021878 0.059035 -0.35183 
-0.13875 0.022042 0.13138 0.19846 0.0087245 0.022371 0.062323 -0.12198 
-0.076771 0.082711 0.1003 0.1664 0.010533 0.081395 0.10063 0.014643 
0.030098 0.15637 0.048841 0.11921 0.023522 0.070215 0.095371 0.10458 
0.038155 0.069393 -0.06148 0.033551 0.046704 0.045718 0.095864 0.20224 
-0.0044286 -0.03057 -0.14155 -0.049807 0.035031 0.028947 0.092576 0.22805 
0.088958 -0.012485 -0.067892 -0.04323 0.077778 0.057227 0.093398 0.2269 
0.17034 0.052787 -0.019884 0.0069159 0.047855 0.063639 0.10228 0.26718 
0.20602 0.10293 -0.0064016 0.038483 -0.0026201 -0.0039354 0.06742 0.21819 
0.20027 0.11642 -0.01676 0.029276 -0.078579 -0.071181 0.049664 0.047197 
0.072024 0.069886 0.014808 0.044896 -0.083018 -0.10456 -0.023665 -0.14632 
0.0028056 0.041772 0.013492 0.053445 -0.074469 -0.10489 -0.01232 -0.41892 
0.0098754 -0.026789 -0.050958 0.0014903 -0.0011404 -0.058521 -0.0068948 -0.59878 
0.065776 -0.059836 -0.12067 -0.030406 0.049499 -0.015444 -0.019226 -0.28229 
0.30845 0.1733 -0.015444 0.041772 0.14272 0.092576 -0.0138 0.31864 
0.47434 0.36123 0.16969 0.14946 0.19977 0.1391 -0.014129 0.47484 
0.29809 0.3341 0.16903 0.18399 0.1197 0.10704 -0.016102 0.18777 
-0.10932 -0.012978 0.0031344 0.084848 0.021713 0.024508 -0.0095255 -0.17706 
-0.43503 -0.37666 -0.25335 -0.11541 -0.075784 -0.029584 -0.0031133 -0.22047 
-0.45657 -0.50967 -0.38143 -0.26009 -0.045368 -0.0050863 0.07301 -0.10768 
-0.31287 -0.36548 -0.21225 -0.17673 0.058377 0.060022 0.10491 -0.018733 
-0.30481 -0.10225 0.072353 0.011355 0.067749 0.10441 0.1641 -0.050136 
-0.279 0.11017 0.22871 0.17051 0.080409 0.072024 0.12003 -0.01528 
-0.056877 0.25962 0.30056 0.26916 0.051308 0.032071 0.064625 0.1151 
0.15423 0.24482 0.25337 0.27277 0.022864 -0.042408 -0.014129 0.18432 
0.20701 0.16064 0.060515 0.15571 0.0034632 -0.10587 -0.07003 0.14174 
0.29283 0.15308 -0.065426 0.056076 -0.00081153 -0.065097 -0.049314 0.09833 
0.41351 0.13861 -0.11672 -0.00064712 0.0064227 0.020562 0.043251 0.00297 
0.33936 0.082382 -0.12708 -0.047341 0.016616 0.02681 0.08304 -0.18791 
0.15259 -0.0068948 -0.099131 -0.050629 0.020233 0.0051074 0.072681 -0.097487 
0.029276 -0.01939 -0.012485 -0.001798 0.014643 -0.034352 1.0539e-005 0.050979 
0.00017495 0.032729 0.08715 0.066927 0.038648 -0.059672 -0.067399 0.15571 
0.068078 0.066269 0.087643 0.095864 -0.023501 -0.04323 -0.040928 0.20783 
0.11921 0.074654 0.091589 0.14831 -0.03057 0.0011614 -0.013307 0.3124 
0.16804 0.15061 0.19665 0.2052 -0.026953 0.01267 -0.021199 0.27212 
0.30105 0.3295 0.31914 0.30286 -0.025638 -0.017582 0.013821 0.22822 
0.42206 0.46399 0.34643 0.35284 -0.019061 -0.054739 0.0028056 0.23742 
0.36271 0.28708 0.1271 0.22756 -0.024487 -0.034681 -0.014129 0.15834 
0.21424 -0.094692 -0.17887 -0.010512 -0.0080457 -0.021692 -0.013307 0.090274 
0.060186 -0.25286 -0.28886 -0.13086 0.059857 0.071366 1.0539e-005 -0.025967 
-0.3936 -0.3594 -0.13464 -0.095349 0.15867 0.13598 0.053445 -0.077264 
-0.83702 -0.42303 0.032893 0.013328 0.18448 0.14354 0.065612 -0.17213 
-0.75711 -0.33375 0.080244 0.076463 0.16344 0.09422 0.028125 -0.15783 
-0.35792 -0.099789 0.11083 0.11658 0.11592 0.062652 0.032729 -0.089102 
-0.0096899 0.093069 0.17955 0.16327 0.085506 0.044238 0.010862 0.052623 
0.25419 0.23381 0.16097 0.19665 0.017438 0.022371 0.01267 0.21128 
0.37685 0.31996 0.14091 0.18794 -0.014458 -0.015444 0.048677 0.3655 
0.4043 0.27606 0.11181 0.16558 -0.023994 -0.022679 0.020398 0.39099 
0.38605 0.21671 0.079258 0.13993 -0.060329 -0.018568 0.035853 0.32917 
0.32259 0.12497 0.055747 0.11461 -0.0031133 0.028619 0.027796 0.31601 
0.2736 0.13532 0.10408 0.12447 0.012835 0.043909 0.066763 0.34331 
0.19862 0.13598 0.11033 0.13598 0.041772 0.045718 0.063639 0.28708 
0.13121 0.14469 0.094877 0.16607 0.047033 0.029276 0.031249 0.11165 
-0.015116 0.11263 0.096193 0.14075 0.041278 0.043087 0.004943 -0.094692 
-0.14796 0.054267 0.076956 0.12579 0.0060938 0.01563 0.015137 -0.22145 
-0.13875 -0.010183 0.064625 0.1151 0.0092177 -0.0040998 0.029769 -0.19318 
-0.11409 -0.015609 0.050486 0.092411 -0.00097594 0.01267 0.030263 -0.3469 
-0.11064 0.012999 0.03799 0.068407 -0.011663 0.0056006 0.01152 -0.57889 
0.0014903 0.0028056 0.034866 0.095699 0.027961 0.01004 -0.021034 -0.40247 
0.095535 0.0079024 -0.0013048 0.067091 0.066105 0.04095 -0.039778 -0.13662 
0.10507 0.065447 0.0028056 0.051143 0.065447 0.069393 -0.04882 -0.0078813 
0.055418 0.15604 0.041936 0.074983 0.073175 0.085506 0.0046141 0.15341 
-0.089102 0.074819 0.11954 0.11954 0.048348 0.064132 0.055747 0.12694 
-0.13119 0.037004 0.20027 0.18152 0.034537 0.043251 0.1008 0.13828 
0.0014903 0.12349 0.16689 0.18514 -0.025802 0.03536 0.12349 0.14223 
0.10787 0.08715 -0.02087 0.092082 -0.051287 0.014972 0.084519 0.1516 
0.022371 -0.10768 -0.16391 -0.041751 -0.001798 0.021384 0.050814 0.035853 
-0.097322 -0.15322 -0.17082 -0.089266 0.048677 0.052952 0.032729 -0.14352 
-0.10439 -0.028926 -0.040435 -0.026296 0.16656 0.14026 0.069229 -0.091732 
-0.056548 0.06183 0.16311 0.11066 0.16311 0.12825 0.049828 0.048019 
0.04095 0.24564 0.39493 0.30352 0.029276 0.060515 0.04358 0.20553 
0.19353 0.48651 0.38984 0.40315 -0.066413 -0.034845 0.022864 0.20372 
0.2611 0.38408 -0.01117 0.16196 -0.097158 -0.061151 -0.029255 0.0060938 
0.16442 -0.12609 -0.44752 -0.19367 -0.061151 -0.03353 -0.032543 -0.14517 
0.10573 -0.27472 -0.33145 -0.23872 0.044567 0.084519 0.038812 -0.059672 
-0.075784 -0.091568 0.097837 0.0018191 0.15538 0.2246 0.1299 0.01563 
-0.36466 -0.14254 0.30385 0.19681 0.1784 0.20257 0.12069 -0.10702 
-0.48073 -0.25335 0.10704 0.17676 0.10951 0.08156 0.07597 -0.37156 
-0.23461 -0.11015 -0.019884 0.075476 0.041278 0.023686 0.033715 -0.34213 
0.018754 0.12085 -0.015773 0.051472 0.0069159 -0.013307 0.00297 -0.12116 
0.0689 0.16081 0.0051074 0.046868 -0.0064016 0.0036276 -0.013965 0.0064227 
0.066434 0.096357 -0.0016336 0.037332 -0.028433 -0.0138 -0.014951 0.017603 
-0.006566 0.051308 -0.013471 0.015301 -0.05326 -0.057041 -0.057534 -0.14714 
-0.088444 -0.025309 -0.037147 0.018096 -0.070523 -0.09239 -0.15865 -0.21192 
-0.0090322 0.01826 -0.031228 0.01711 -0.055561 -0.086471 -0.19909 -0.121 
0.14765 0.10293 -0.0052507 0.031249 -0.0082102 -0.060658 -0.1644 0.051965 
0.29349 0.12529 -0.0072237 0.031249 -0.004593 0.026317 -0.092719 0.12497 
0.23989 0.1322 -0.0047575 0.034866 0.055582 0.056076 -0.017582 0.13088 
0.077778 0.1197 0.042265 0.064296 0.038155 0.087479 0.042758 0.13664 
-0.022514 0.071037 0.050157 0.082053 0.06479 0.066763 0.08978 0.071859 
-0.090417 0.049335 0.044896 0.11313 0.048841 0.050979 0.08978 0.027961 
-0.07266 0.017274 0.025495 0.085012 0.041443 0.053938 0.099645 0.019411 
-0.034845 -0.0096899 0.033715 0.080738 0.0324 0.030592 0.077449 0.086492 
0.044402 0.018589 0.012999 0.062652 0.0082312 -0.014458 0.044896 0.20191 
0.1008 -0.019061 -0.0054151 0.037004 -0.045532 -0.06148 -0.0044286 0.29842 
0.077285 -0.0073881 0.0051074 0.033222 -0.054246 -0.066084 -0.0072237 0.29941 
-0.040106 0.0042853 -0.012485 0.056076 -0.0075525 -0.035832 -0.018568 0.13088 
-0.15339 -0.037311 0.024179 0.068078 -0.0032777 -0.022843 -0.026953 -0.027775 
-0.076935 -0.0059084 0.096193 0.11526 -0.0075525 -0.033859 -0.024816 0.033387 
0.17396 0.16278 0.18498 0.18777 0.010204 -0.010676 -0.034516 0.20783 
0.43998 0.25946 0.11444 0.15785 0.035524 0.0034632 -0.023994 0.25123 
0.44212 0.11707 -0.10965 0.0062583 0.028125 -0.028926 -0.046354 0.11132 
0.28658 -0.089595 -0.32701 -0.16818 -0.00081153 -0.035667 -0.078086 -0.024323 
0.048513 -0.16802 -0.26864 -0.18676 0.018096 -0.01528 -0.045696 0.062981 
-0.19137 -0.15125 -0.040435 -0.057699 0.10754 0.071859 0.0075736 0.22723 
-0.20567 -0.12264 0.16311 0.11033 0.1641 0.11165 0.077285 0.41137 
-0.10242 0.0046141 0.28395 0.24203 0.17478 0.12053 0.13532 0.42436 
-0.078908 0.19451 0.33196 0.31157 0.11576 0.12299 0.12102 0.24811 
-0.080552 0.23249 0.22674 0.26554 -0.017088 0.023851 0.087808 -0.066413 
0.0072447 0.13088 -0.033037 0.13105 -0.070359 -0.028104 0.099316 -0.37518 
0.039963 0.091425 -0.12478 0.0021479 -0.066248 -0.02087 0.070708 -0.41069 
0.031085 0.066269 -0.16391 -0.071838 -0.063289 -0.0078813 0.0085601 -0.37288 
0.025988 -0.10143 -0.18627 -0.11376 -0.023336 -0.018404 -0.0503 -0.21225 
0.24926 -0.043395 -0.13843 -0.10439 -0.01117 -0.018075 -0.015773 0.20651 
0.48355 0.13582 -0.072989 -0.063618 0.029276 0.039799 0.095371 0.4459 
0.3729 0.16229 -0.086142 -0.02646 0.065447 0.086163 0.098659 0.38079 
0.021713 0.023522 -0.013471 0.004943 0.050979 0.021384 0.078272 0.23216 
-0.30169 -0.085156 0.058706 0.065283 0.051636 -0.0095255 0.088465 0.082382 
-0.3765 -0.044546 0.12513 0.12694 0.0689 -0.0042642 0.10228 -0.082032 
-0.19005 0.052459 0.20931 0.19764 0.066598 0.040292 0.12036 -0.051615 
0.090109 0.14815 0.2736 0.25748 0.052294 0.033715 0.11263 0.075148 
0.25255 0.1493 0.2486 0.27392 0.02533 0.013986 0.054596 0.14979 
0.23216 0.077614 0.1345 0.2149 0.012013 -0.033365 -0.03616 0.1396 
0.16459 0.066598 0.077285 0.15768 0.0018191 -0.063782 -0.13251 0.042429 
0.079258 0.11214 0.0080668 0.088301 -0.049807 -0.091075 -0.20978 -0.10801 
0.00083261 0.10178 -0.10932 -0.017417 -0.059014 -0.040435 -0.1866 -0.16473 
-0.020377 -0.08532 -0.23576 -0.13645 -0.040435 0.024344 -0.014458 -0.10883 
-0.00031829 -0.1062 -0.25171 -0.1718 0.038155 0.13384 0.159 -0.033037 
-0.027611 -0.024652 -0.22096 -0.14698 0.10359 0.17758 0.24186 0.019411 
-0.060987 0.015794 -0.12231 -0.1011 0.071202 0.12398 0.19336 -0.041093 
-0.090746 0.073997 0.01711 -0.001798 0.032071 0.074983 0.13812 -0.047505 
0.027632 0.14535 0.14108 0.11313 0.020727 0.03092 0.093726 -0.016924 
0.15357 0.16064 0.1026 0.11494 -0.012649 -0.035503 0.061995 0.023028 
0.14387 0.029441 0.061501 0.08863 -0.028269 -0.062796 -0.0004827 -0.020541 
-0.021034 -0.10554 -0.058028 0.052787 0.036675 0.011355 0.01563 -0.018404 
-0.19367 -0.14303 -0.043559 0.025166 0.11576 0.11691 0.07038 -0.038956 
-0.073482 0.028783 0.1179 0.11839 0.1641 0.17281 0.097344 0.00033937 
0.13302 0.22033 0.28231 0.24334 0.13253 0.1276 0.10491 0.040456 
0.14453 0.2782 0.2948 0.2925 0.098166 0.10918 0.0689 0.039305 
0.044402 0.24219 0.2103 0.24532 0.046375 0.037168 0.04506 0.022864 
0.014972 0.074654 0.047197 0.1544 -0.021363 -0.019226 0.031085 0.06742 
0.084355 -0.070687 -0.079072 0.031742 -0.065262 -0.089102 0.031414 0.14206 
0.020069 -0.23461 -0.24562 -0.11146 -0.07266 -0.064768 -0.03616 0.043087 
-0.042737 -0.18331 -0.21915 -0.14665 -0.025309 -0.033859 -0.057863 0.10376 
0.012342 0.005765 0.02681 -0.0021268 0.049992 0.02533 -0.026624 0.21605 
0.1128 0.17824 0.21967 0.15916 0.096686 0.082546 0.013328 0.25041 
0.053774 0.20487 0.19007 0.19714 0.080244 0.085835 0.076627 0.21654 
-0.011334 0.068571 -0.0019624 0.11378 0.043745 0.056898 0.075476 0.27951 
0.095535 0.040456 -0.048327 0.044073 0.053609 0.053774 0.072846 0.27919 
0.21391 0.065283 0.040456 0.072681 0.062323 0.054103 0.055582 -0.010183 
0.22509 0.078765 0.10441 0.11839 0.075805 0.063803 0.018096 -0.15257 
0.23167 0.072024 0.089123 0.11428 -0.004593 0.0013258 -0.050629 -0.22721 
0.2149 0.062652 0.035031 0.081231 -0.030406 -0.035996 -0.076935 -0.39047 
0.16837 0.10935 0.026152 0.097672 -0.030735 -0.0044286 -0.021363 -0.37535 
0.061995 0.13499 0.070215 0.10787 -0.0090322 -0.0032777 0.021713 -0.2647 
-0.016924 0.10556 0.090931 0.12727 0.020398 -0.012814 0.04917 -0.24118 
0.019083 0.14387 0.13483 0.16294 0.048677 -0.0024557 0.04358 -0.27078 
0.065776 0.11362 0.13779 0.16442 0.0052718 -0.0088678 0.027468 -0.28574 
-0.0055795 0.022371 0.14042 0.1641 -0.031557 -0.033201 -0.008539 -0.085978 
-0.19433 -0.0013048 0.15768 0.19928 -0.018733 -0.050629 -0.018404 0.14026 
-0.30317 0.08978 0.20701 0.23545 0.027139 -0.013307 0.015959 0.43308 
-0.22622 0.18925 0.23397 0.2611 0.061501 0.058377 0.05772 0.59848 
-0.18249 0.066105 0.15028 0.21506 0.059035 0.063474 0.060022 0.43932 
-0.11656 -0.022679 0.056898 0.13976 0.061008 0.072681 0.064296 0.17232 
0.0021479 -0.016431 -0.014622 0.061337 0.11592 0.10918 0.095535 0.066269 
0.17034 -0.0004827 -0.045039 0.025166 0.15735 0.18777 0.12151 0.085506 
0.28478 -0.053424 -0.065591 0.023686 0.14617 0.15423 0.11115 0.061666 
0.29645 -0.032708 -0.067728 0.00099702 0.085341 0.10162 0.11198 0.038812 
0.10244 -0.087129 0.013492 0.036182 0.079094 0.06479 0.10836 -0.095185 
-0.22606 -0.25253 0.013657 0.045553 0.015301 0.016288 0.091589 -0.22491 
-0.41612 -0.267 -0.042244 0.0054362 -0.085156 -0.085485 -0.02498 -0.34098 
-0.23395 -0.082032 -0.0062372 0.019905 -0.071345 -0.090746 -0.029255 -0.30547 
0.096193 0.14289 0.028454 0.078107 0.0062583 -0.060329 -0.0054151 -0.21537 
0.22707 0.24515 0.10688 0.12513 0.026646 0.027303 0.045389 -0.27768 
0.21145 0.24121 0.16903 0.18333 0.048513 0.033058 0.028947 -0.34624 
0.090767 0.23479 0.1419 0.17988 0.015794 -0.0096899 -0.011992 -0.16868 
-0.049314 0.11905 0.056898 0.12151 -0.043066 -0.053095 -0.041093 0.074161 
-0.13744 0.028454 0.010533 0.061501 -0.03501 -0.033037 -0.0096899 0.20503 
-0.091732 0.025001 0.015794 0.066434 0.0090533 0.015465 0.049664 0.22953 
-0.01528 0.029934 0.026317 0.076956 0.079916 0.077778 0.076134 0.22016 
-0.0075525 -0.0032777 0.033058 0.070873 0.082875 0.081067 0.084026 0.15209 
-0.054082 0.0032988 0.07301 0.094384 0.067913 0.057062 0.058542 -0.084005 
-0.068057 0.039305 0.086328 0.10902 0.036017 0.012506 0.059693 -0.1108 
-0.0022913 0.076463 0.10721 0.11461 0.045718 -0.0080457 0.011026 0.090438 
0.073832 0.073668 0.10869 0.12546 0.028454 -0.026789 -0.051287 0.42683 
0.041607 0.078107 0.058213 0.11576 0.022371 -0.03353 -0.1113 0.45741 
-0.047341 0.029605 -0.050958 0.029112 0.0090533 -0.020706 -0.082525 0.0786 
-0.072332 -0.054082 -0.13251 -0.055068 -0.0016336 -0.017746 -0.019884 -0.30333 
-0.12198 -0.094692 -0.14451 -0.09387 0.00017495 -0.010841 -0.011663 -0.34361 
-0.17723 -0.089595 -0.076935 -0.079237 -0.025474 -0.013471 -0.027447 -0.17805 
-0.17493 -0.035996 -0.014458 -0.03501 0.013986 0.044896 0.045718 -0.011992 
-0.14681 -0.052766 -0.02087 0.017274 0.037168 0.1031 0.11937 0.095535 
-0.0029489 -0.00064712 0.04654 0.049006 0.010204 0.064954 0.11083 0.22444 
0.19649 0.12908 0.1128 0.099316 -0.047834 -0.00064712 0.069064 0.29102 
0.24005 0.13434 0.01711 0.048841 -0.050958 -0.025967 0.0088889 0.23973 
0.21934 0.090767 -0.059014 -0.017582 0.0059294 0.0070803 0.01415 0.15209 
0.27886 0.30977 0.066598 0.043416 0.097672 0.085012 0.041607 0.14881 
0.5041 0.61459 0.24285 0.19714 0.12595 0.091753 0.078107 0.26537 
0.57332 0.43702 0.22098 0.21885 0.10803 0.051636 0.074161 0.33459 
0.3946 0.037004 0.042758 0.1003 0.079916 0.025166 0.027796 0.21983 
0.0041209 -0.17591 -0.12429 -0.045696 0.0011614 -0.0055795 -0.033037 0.020398 
-0.33128 -0.28623 -0.21241 -0.14319 -0.022679 -0.044381 -0.0965 -0.067235 
-0.36088 -0.37962 -0.18693 -0.16161 -0.078744 -0.058028 -0.11837 -0.12889 
-0.34526 -0.31205 -0.11294 -0.11639 -0.070852 -0.067399 -0.12363 -0.16605 
-0.37995 -0.14122 -0.045532 -0.035503 -0.0036066 0.013657 -0.049807 -0.11245 
-0.29478 -0.048163 -0.034023 -0.017911 0.072188 0.08863 0.053116 0.038155 
-0.0083746 0.069558 0.060844 0.057227 0.11296 0.11 0.069886 0.24548 
0.33065 0.25551 0.16804 0.15127 0.13269 0.10836 0.091753 0.36764 
0.50854 0.29168 0.17445 0.1784 0.096028 0.090438 0.043087 0.32703 
0.40546 0.15472 0.042265 0.098494 0.01826 -0.006566 -0.028597 0.10195 
0.3392 0.15144 -0.036654 0.07038 -0.031557 -0.066413 -0.048985 0.090603 
0.33607 0.17495 -0.030406 0.03651 -0.056548 -0.045532 -0.019884 0.12677 
0.22674 0.10162 -0.084334 -0.014129 -0.029255 -0.0052507 0.012506 0.14683 
0.079422 0.012835 -0.13267 -0.062138 -0.025967 -0.016595 0.024837 0.067091 
0.010862 0.0036276 -0.033037 -0.024323 -0.0073881 0.0032988 0.045882 0.0324 
0.042594 0.0324 0.057555 0.042923 0.020727 0.019411 0.033387 0.0034632 
0.092576 0.018754 0.067749 0.092247 0.062488 0.043745 0.040621 -0.013636 
0.063474 0.026481 0.090767 0.11872 0.079422 0.075312 0.037497 -0.036325 
-0.008539 0.065612 0.048019 0.099316 0.074161 0.071695 0.04358 0.00033937 
-0.051287 0.019083 -0.015116 0.050979 0.055582 0.076134 0.047197 -0.0047575 
-0.034188 -0.020377 -0.029913 0.02829 0.012177 0.024673 0.014972 -0.072332 
-0.012814 -0.0022913 0.045389 0.058706 -0.011498 -0.0067304 -0.004593 -0.079401 
0.057555 0.06035 0.048513 0.076134 -0.034516 -0.0406 0.00099702 0.11937 
0.11987 -0.0026201 -0.030735 0.061995 -0.010183 -0.01232 0.016616 0.20355 
0.15357 -0.0091966 -0.06 0.013986 0.043251 0.027303 0.031578 0.082217 
0.076299 0.029605 -0.036489 0.015137 0.094877 0.062488 0.048348 -0.031064 
0.007738 0.10787 0.063803 0.074161 0.11888 0.061337 0.052294 -0.064604 
0.0014903 0.21556 0.16706 0.15653 0.071037 0.07301 -0.0036066 -0.023007 
0.0014903 0.21589 0.16262 0.17495 0.020069 0.0046141 -0.0031133 -0.050464 
0.14321 0.15357 0.03092 0.13565 -0.01676 -0.013471 -0.019555 0.024179 
0.20964 0.055418 -0.065426 0.038483 0.0082312 0.009711 -0.0098543 0.049335 
0.10902 0.019905 -0.051615 0.013657 0.027632 0.048841 0.010862 0.0019835 
0.0060938 -0.00031829 0.03092 0.051801 0.031907 0.031742 0.029934 0.0011614 
-0.016924 -0.10127 0.0079024 0.038648 0.019411 0.03536 0.043416 0.028619 
-0.070523 -0.12692 0.013821 0.037004 -0.010348 0.010697 0.060515 0.035195 
-0.12429 -0.023829 0.081889 0.10639 0.033058 0.064132 0.084848 0.01711 
-0.22524 -0.027611 0.019083 0.080573 0.11231 0.12842 0.1202 -0.077922 
-0.24266 -0.18035 -0.069372 0.012342 0.13023 0.11313 0.12085 -0.19942 
-0.07973 -0.063124 0.0016547 0.025988 0.07038 0.069558 0.095371 -0.10456 
0.064954 0.10211 0.11083 0.09833 0.014479 0.039634 0.063474 0.058871 
0.12266 0.22197 0.13483 0.13434 0.014808 0.009711 0.047691 0.090274 
0.16853 0.1927 0.092082 0.13187 0.016781 0.0083956 0.065612 0.0036276 
0.079916 0.13368 0.022864 0.11543 0.0024767 -0.014787 0.027303 -0.074798 
-0.02794 0.095206 0.052952 0.099645 -0.089759 -0.065755 0.0016547 -0.10965 
0.024837 0.12924 0.10507 0.13023 -0.082032 -0.09798 -0.0068948 0.010697 
0.13812 0.21638 0.15324 0.17034 -0.011827 -0.051615 0.0070803 0.11461 
0.14469 0.13171 0.070051 0.11066 0.025166 0.023522 0.05772 0.1733 
0.060679 0.015959 -0.057534 0.018589 0.070708 0.069393 0.058213 0.13187 
-0.031721 -0.09387 -0.10242 -0.010841 0.082053 0.093562 0.058706 0.12644 
0.0042853 -0.022514 0.0072447 0.033715 0.10869 0.13203 0.038977 0.13088 
-0.017582 0.064461 0.12299 0.11362 0.033387 0.074326 0.057884 0.03947 
-0.076935 0.089945 0.15078 0.15966 -0.020212 0.027139 0.05476 -0.0965 
-0.05441 0.074819 0.098001 0.13664 -0.018075 -0.015116 0.021384 -0.27111 
-0.059672 -0.0057439 0.049664 0.1031 0.042265 0.045389 0.039305 -0.31073 
-0.037147 0.0039565 0.038812 0.10655 0.12694 0.11806 0.081231 -0.27144 
0.035688 0.052459 0.10359 0.13615 0.16377 0.1562 0.14848 -0.086964 
0.069229 0.084848 0.1641 0.17889 0.11214 0.10491 0.13286 0.031249 
-0.06 0.048348 0.14157 0.17265 0.036182 0.011684 0.038648 0.063474 
-0.21652 -0.010676 0.10129 0.14749 -0.014622 -0.058028 -0.089266 0.18843 
-0.31402 -0.042901 0.098659 0.13302 -0.042737 -0.074469 -0.10982 0.24532 
-0.25187 0.083533 0.13697 0.16541 -0.0098543 -0.045696 -0.070852 0.19895 
0.055418 0.24926 0.17692 0.22378 0.005765 -0.037805 -0.0031133 0.21917 
0.44968 0.3119 0.1881 0.22394 -0.021363 -0.0077169 0.0075736 0.22427 
0.64501 0.2925 0.15308 0.20619 -0.0059084 -0.018733 -0.025309 0.014643 
0.46103 0.15226 0.007738 0.10524 0.020233 0.010697 -0.026953 -0.38965 
0.18251 -0.020706 -0.098144 -0.0034422 0.034866 0.069393 0.037497 -0.39853 
-0.12379 -0.20189 -0.10965 -0.048327 0.075805 0.13861 0.093562 -0.11327 
-0.31764 -0.27686 -0.14352 -0.050793 0.055418 0.1077 0.11 -0.24924 
-0.255 -0.24151 -0.18627 -0.10768 0.031414 0.062981 0.062323 -0.47843 
-0.066413 -0.10275 -0.25795 -0.17262 0.019576 0.0021479 0.0087245 -0.25565 
0.059035 0.011026 -0.18874 -0.15536 -0.0049219 -0.01528 -0.043888 0.28839 
0.069064 0.023357 -0.0044286 -0.038627 0.01974 -0.030242 -0.018404 0.51775 
-0.11393 -0.023994 0.13351 0.081231 0.01152 -0.040271 -0.036818 0.41992 
-0.22787 -0.12067 0.14848 0.16722 0.02829 -0.023007 -0.017417 0.18432 
-0.29511 -0.087951 0.13187 0.17199 0.069064 0.023686 0.0072447 -0.087951 
-0.24727 0.071366 0.1345 0.17692 0.047362 0.02829 0.0067515 -0.42911 
-0.22277 0.20438 0.091425 0.14601 0.0098754 0.0085601 -0.0042642 -0.64679 
-0.21669 0.15999 0.01826 0.084519 -0.020377 -0.0062372 -0.012649 -0.47186 
-0.10752 0.1105 0.022371 0.063968 0.0047785 0.036182 0.056404 -0.13875 
0.055911 0.077943 0.042265 0.082546 0.022206 0.05213 0.12053 0.11 
0.42814 0.020069 -0.011827 0.070215 0.029441 0.071037 0.12201 0.15916 
0.70617 0.18629 0.020069 0.067913 0.03799 0.068407 0.069229 0.21885 
0.59782 0.27557 0.057555 0.083204 0.05213 0.044073 -0.033037 0.32982 
0.20783 0.20816 0.070873 0.098659 -0.0052507 -0.060987 -0.16983 0.31897 
-0.066906 0.041114 0.053774 0.088301 -0.06 -0.13218 -0.2254 0.24219 
-0.15421 -0.012485 0.061666 0.10129 -0.035174 -0.11853 -0.16391 0.076299 
-0.21767 0.060022 0.061501 0.14634 0.0065871 -0.053588 -0.024323 -0.15602 
-0.27242 0.11576 0.097344 0.14716 0.070051 0.065283 0.080409 -0.25302 
-0.11015 0.14371 0.17248 0.19188 0.068736 0.072846 0.10113 -0.17986 
-0.098309 0.037332 0.10737 0.16179 0.066763 0.076134 0.077285 -0.096994 
-0.1376 -0.1376 -0.080059 0.021713 0.036182 0.032564 0.027139 -0.091404 
-0.1159 -0.34707 -0.2157 -0.11064 -0.0095255 -0.015938 0.00083261 -0.040271 
-0.05178 -0.24086 -0.14714 -0.083183 -0.038627 -0.023994 -0.011498 0.057227 
0.050979 0.037168 0.007738 0.0080668 0.00297 0.016123 -0.017746 0.15851 
0.1248 0.15028 0.050979 0.063145 0.056898 0.049006 -0.0004827 0.22 
0.17001 0.12595 -0.027611 0.033551 0.068078 0.062323 0.0592 0.2394 
0.21391 0.13647 -0.091404 -0.026296 0.0093821 0.015137 0.07449 0.23085 
0.22986 0.19353 -0.084334 -0.046025 -0.071509 -0.028762 0.031742 0.25074 
0.29185 0.20339 -0.028762 -0.0087034 -0.097322 -0.044381 0.01415 0.33837 
0.32374 0.092411 -0.084498 -0.0067304 -0.049314 -0.041257 0.035853 0.33476 
0.16097 -0.075291 -0.14007 -0.064604 0.007738 0.0047785 0.036839 0.14272 
-0.052931 -0.15043 -0.17295 -0.10193 0.089616 0.089616 0.047197 -0.049478 
-0.15996 -0.084991 -0.082196 -0.064275 0.099645 0.099152 0.031249 -0.052437 
-0.12774 0.081889 0.1151 0.069064 0.082711 0.071037 0.027303 -0.022843 
-0.17427 0.053609 0.21293 0.18629 0.051308 0.059693 0.024179 -0.0406 
-0.13678 0.02829 0.24186 0.27475 0.063474 0.071202 0.065776 1.0539e-005 
0.050979 0.13121 0.25913 0.28773 0.08567 0.058871 0.062981 0.12069 
0.075148 0.11181 0.13434 0.21441 0.051636 0.018096 0.042265 0.20503 
0.031414 0.044402 -0.010183 0.095535 0.030756 0.019247 0.047362 0.25502 
-0.017417 0.0034632 -0.025145 0.0421 0.068242 0.07449 0.072681 0.24219 
-0.02646 0.0085601 0.0019835 0.029441 0.11378 0.091425 0.10178 -0.0070593 
-0.05178 0.12924 0.053116 0.093069 0.070873 0.050814 0.051308 -0.11278 
0.020069 0.19106 0.14996 0.159 0.034702 -0.0024557 -0.035503 0.032893 
0.16525 0.12644 0.095371 0.14108 -0.040435 -0.063946 -0.10242 0.22707 
0.41055 0.10935 0.010204 0.080244 -0.05178 -0.088773 -0.12034 0.40102 
0.64139 0.17248 0.0064227 0.06035 -0.025638 -0.039284 -0.041257 0.53189 
0.57382 0.18432 0.076134 0.087808 0.02533 0.049499 0.049006 0.49506 
0.24104 0.087479 0.12217 0.13138 0.056733 0.094384 0.099974 0.36961 
0.035688 0.004943 0.032236 0.11362 0.079422 0.083368 0.12003 0.22772 
0.034373 -0.07003 -0.10242 0.0042853 0.065283 0.088958 0.14157 0.16706 
0.073832 -0.20666 -0.20649 -0.099131 0.053116 0.083697 0.085999 0.057555 
-0.048656 -0.21274 -0.14418 -0.096007 0.065776 0.098166 0.052787 -0.061316 
-0.23642 -0.13004 0.05476 0.017932 0.078272 0.08419 0.069393 -0.12757 
-0.31714 -0.069208 0.17906 0.13236 0.09274 0.092904 0.10113 -0.18364 
-0.20534 0.033715 0.12151 0.17528 0.061337 0.064625 0.10096 -0.3275 
-0.073318 0.084026 0.080244 0.13878 0.0026412 0.0013258 0.051636 -0.40149 
-0.044052 0.13072 0.080409 0.12447 -0.040435 -0.066577 0.055254 -0.13645 
-0.030242 0.10869 0.056733 0.1077 -0.041257 -0.065591 -0.015444 0.093562 
0.11231 0.10244 0.071366 0.10754 -0.065591 -0.089759 -0.032872 0.23035 
0.27771 0.19073 0.099152 0.11346 0.016452 -0.0052507 0.00099702 0.2269 
0.28889 0.19681 0.098001 0.14946 0.029605 -0.00081153 0.019576 0.1733 
0.2121 0.053609 0.016452 0.090603 0.0082312 0.0092177 0.0075736 0.12447 
0.18925 -0.023501 0.0023123 0.066598 -0.0059084 0.040785 0.025001 0.13812 
0.14749 0.07449 0.0421 0.080573 0.037497 0.05624 0.044731 0.13434 
0.13187 0.1904 0.19402 0.17906 0.069722 0.062488 0.045553 0.07597 
0.16442 0.27803 0.33311 0.28954 0.020727 0.018096 0.023522 0.044896 
0.11165 0.17824 0.21621 0.26817 -0.022021 0.00083261 -0.0039354 -0.0078813 
-0.021199 -0.043395 -0.13777 0.061995 -0.050958 -0.019555 -0.010841 -0.10423 
0.0080668 -0.12182 -0.27505 -0.11672 0.004943 0.010862 -0.0014692 -0.13316 
-0.028433 -0.13711 -0.19219 -0.12741 0.087643 0.056898 0.031085 -0.11705 
-0.23839 -0.095678 0.026317 -0.0016336 0.097672 0.084026 0.057884 -0.14829 
-0.28114 -0.021034 0.25304 0.17725 0.064132 0.069064 0.071859 -0.11919 
-0.14582 0.13615 0.37783 0.32128 0.020233 0.017274 0.051143 -0.1889 
0.036839 0.19829 0.23644 0.31371 -0.031228 -0.03764 -0.0047575 -0.28278 
0.15061 0.1294 0.029276 0.16229 0.04917 0.027303 -0.0062372 -0.29067 
0.17544 0.043416 -0.0013048 0.094548 0.1031 0.074161 0.029276 -0.093048 
0.10754 0.0034632 0.085177 0.11707 0.078765 0.081724 0.098659 0.13023 
0.028454 0.024508 0.14174 0.1465 0.019247 0.023193 0.065612 0.13779 
-0.035996 0.02829 0.083533 0.10967 -0.04882 -0.031557 0.010533 -0.071016 
-0.074962 0.019247 -0.053917 0.053774 -0.073154 -0.059178 -0.01117 -0.31912 
-0.10291 0.031249 -0.03057 0.031249 -0.048656 -0.011498 0.016616 -0.34016 
-0.073647 0.039963 -0.017746 0.031907 0.017274 0.044073 0.068736 -0.12692 
0.028783 0.014315 -0.045696 0.010697 0.061008 0.11181 0.067091 0.15094 
0.052623 -0.0138 -0.11442 -0.051287 0.033058 0.059364 0.045882 0.15982 
0.00017495 0.018754 -0.10012 -0.061316 -0.021363 -0.0067304 0.0013258 -0.01939 
0.074983 0.14239 0.069064 0.053445 -0.032708 -0.018239 0.01152 -0.13596 
0.14963 0.23134 0.18925 0.17445 -0.044217 -0.047176 -0.018733 0.021384 
0.18925 0.23923 0.1419 0.17791 -0.056219 -0.089759 -0.049149 0.27951 
0.18826 0.15653 -0.016431 0.081231 -0.0052507 -0.042079 -0.06444 0.41006 
-0.036983 -0.041915 -0.11607 -0.014951 0.0034632 0.022864 -0.058192 0.2708 
-0.27522 -0.091897 0.024179 0.032071 0.077778 0.030756 -0.022514 0.10326 
-0.26502 -0.009361 0.23775 0.18925 0.11707 0.05624 -0.00097594 -0.090088 
-0.10406 0.10343 0.30582 0.31749 0.14354 0.078765 0.017438 -0.19301 
-0.023172 0.053774 0.23594 0.29415 0.13154 0.095535 0.027796 -0.21685 
-0.010512 -0.076606 0.072681 0.17971 0.089287 0.051143 0.029276 -0.1455 
0.010533 -0.1256 -0.10341 0.030263 0.036017 0.0072447 0.043087 -0.049642 
0.085012 -0.099131 -0.18824 -0.087293 0.0060938 0.0014903 0.032071 0.023851 
0.27294 0.083368 -0.25549 -0.17131 0.0065871 0.045553 0.065118 0.11395 
0.36994 0.16377 -0.38225 -0.25812 0.021384 0.0324 0.065612 0.087643 
0.24384 0.055418 -0.40165 -0.31994 -0.053095 0.0095465 0.081067 -0.054082 
0.034866 -0.09239 -0.31007 -0.28196 -0.054575 -0.062796 0.037332 -0.27045 
-0.095021 -0.13563 -0.1478 -0.17147 0.017438 0.0075736 0.030098 -0.21143 
-0.15273 -0.06855 -0.05737 -0.079895 0.094877 0.053445 0.041936 0.11625 
-0.18824 -0.024158 0.0036276 -0.010183 0.11691 0.074326 0.061995 0.29694 
-0.17295 -0.02794 0.062981 0.066269 0.11017 0.063968 0.060022 0.12118 
-0.068221 0.022864 0.16031 0.15851 0.043909 0.016288 0.028125 -0.18167 
0.0026412 0.14026 0.24417 0.23298 -0.0039354 -0.036489 -0.014129 -0.28821 
-0.047998 0.18892 0.24811 0.26389 -0.0022913 -0.041915 0.0011614 -0.11656 
-0.031392 0.2172 0.1761 0.23693 0.017932 0.016781 0.055911 0.18662 
0.02533 0.14683 0.074983 0.15275 -0.0014692 0.014643 0.04506 0.41154 
-0.026953 -0.042737 -0.056055 0.04506 -0.034352 -0.0057439 -0.028104 0.35202 
-0.044217 -0.086142 -0.14681 -0.010019 -0.057041 -0.048985 -0.047669 0.19731 
0.096686 0.18054 0.071695 0.073175 -0.016431 -0.069372 -0.047176 0.11346 
0.15949 0.34643 0.18826 0.17347 -0.0073881 -0.045039 -0.023501 0.059857 
0.10113 0.10737 0.049499 0.11592 0.004943 -0.035503 -0.03353 -0.086636 
-0.0078813 -0.20978 -0.3007 -0.12873 0.019411 -0.024816 -0.037311 -0.26289 
-0.12363 -0.41497 -0.41448 -0.28475 0.11181 0.066269 0.018096 -0.2522 
-0.065097 -0.2813 -0.17641 -0.15043 0.25469 0.22937 0.17018 -0.05885 
0.071202 -0.0040998 0.14108 0.063803 0.29497 0.29678 0.22756 0.055747 
0.0024767 0.091918 0.20635 0.17117 0.17725 0.18909 0.15374 -0.02087 
-0.18578 0.01563 0.075312 0.12316 0.012506 0.056076 0.078436 -0.088444 
-0.32191 -0.096665 -0.040435 0.03799 -0.070359 -0.059014 0.014808 -0.023172 
-0.20847 -0.017582 0.0067515 0.04095 -0.083183 -0.083512 0.042429 0.1641 
0.086492 0.097672 0.0592 0.089123 -0.061151 -0.059343 0.054925 0.28642 
0.26307 0.15242 0.062159 0.11017 -0.067728 -0.039284 0.035524 0.17906 
0.31273 0.17265 0.05476 0.10524 -0.047176 -0.027611 0.029605 0.088958 
0.27738 0.15999 0.038812 0.091918 0.011355 -0.014951 0.0087245 0.11625 
0.21539 0.16081 0.098494 0.1225 0.0075736 -0.018239 0.023028 0.14009 
0.07301 0.14075 0.12612 0.14733 0.033222 0.005765 -0.0059084 0.11099 
-0.12725 0.077614 0.096193 0.14223 0.038648 0.014315 -0.022514 0.093562 
-0.1358 0.06594 0.086163 0.1636 0.042758 0.04917 -0.031228 0.095371 
0.03092 0.1858 0.17265 0.20027 0.061666 0.090109 0.027303 0.19484 
0.15703 0.26258 0.23249 0.24663 0.074326 0.11444 0.046375 0.18695 
0.11576 0.1202 0.15456 0.21358 0.047526 0.055911 0.021713 0.071859 
0.068078 0.012342 0.049499 0.12464 0.0421 0.03388 0.055582 -0.036325 
0.031249 -0.072003 -0.053588 0.041936 0.036839 0.060186 0.11263 -0.21767 
-0.18298 -0.16358 -0.047176 0.040292 0.06035 0.087314 0.13105 -0.31731 
-0.2813 -0.17756 0.06035 0.080573 0.075641 0.075476 0.11329 -0.14911 
-0.13727 -0.048163 0.12431 0.1368 0.10195 0.075641 0.09685 0.10737 
0.073504 0.052623 0.16015 0.17215 0.1276 0.036017 0.054103 0.13483 
0.19435 0.16426 0.23446 0.22953 0.02122 -0.018897 0.022535 0.17084 
0.26521 0.30566 0.36501 0.32802 -0.069043 -0.091239 -0.011498 0.24137 
0.38934 0.50542 0.39987 0.40217 -0.090581 -0.13103 -0.017088 0.36813 
0.41137 0.36172 0.11806 0.2491 -0.081539 -0.091075 -0.0072237 0.36665 
0.23266 -0.17476 -0.38685 -0.12544 -0.054904 -0.063289 -0.018568 0.23693 
0.018918 -0.43256 -0.52661 -0.34065 0.012342 0.020069 0.0013258 0.10573 
-0.29149 -0.32882 -0.11968 -0.16983 0.10096 0.14486 0.023193 0.097837 
-0.6532 -0.14878 0.3267 0.16525 0.22871 0.22082 0.037826 0.090931 
-0.57494 -0.058356 0.32571 0.28313 0.16771 0.15883 0.070215 0.064625 
0.027468 0.059693 0.11198 0.21934 0.021056 0.029276 0.062159 0.12069 
0.59124 0.25469 0.069393 0.15078 -0.016266 -0.0011404 0.076627 0.13269 
0.68134 0.35186 0.069558 0.1276 -0.02942 0.0060938 0.10474 -0.057205 
0.47467 0.33821 0.1105 0.14157 -0.016266 0.032564 0.10145 -0.31155 
0.16919 0.21243 0.12677 0.15357 -0.006566 0.028783 0.036017 -0.32092 
-0.0087034 0.075805 0.080902 0.12431 0.013657 -0.019719 -0.021363 -0.11722 
0.017932 0.053116 0.014315 0.11724 0.011191 -0.030735 -0.072989 0.17199 
0.14272 0.079094 -0.00031829 0.070708 0.0013258 -0.051615 -0.11689 0.20142 
0.18383 0.060515 -0.02794 0.036675 -0.030899 -0.072167 -0.097322 0.086985 
0.16886 -0.0019624 -0.015938 0.028783 -0.030899 -0.04619 -0.0040998 0.025659 
0.067256 -0.036818 -0.0036066 0.027632 -0.017088 0.0060938 0.051636 0.25288 
-0.014622 -0.033859 0.0083956 0.029441 0.00297 -0.0022913 0.039963 0.28116 
-0.13316 -0.03205 0.038812 0.07449 0.029605 0.026974 0.038648 0.0051074 
-0.1963 0.019247 0.026481 0.077121 0.033222 0.031414 0.071366 -0.26026 
-0.11672 0.068407 0.0092177 0.06183 0.019905 0.047691 0.060515 -0.24151 
0.081724 0.090767 0.0042853 0.048841 0.015137 -0.022679 0.0026412 0.012177 
0.23282 0.090438 -0.013307 0.041278 0.0070803 -0.021692 -0.035832 0.21753 
0.18465 0.089452 0.037168 0.05624 0.042758 -0.021034 -0.064604 0.14765 
0.012835 0.18465 0.13532 0.12677 0.034866 -0.010512 -0.037969 -0.067564 
-0.13547 0.27623 0.15472 0.1955 0.010697 0.0014903 0.0039565 -0.13333 
-0.12823 0.22197 0.10655 0.16327 -0.024652 -0.029091 0.0054362 -0.11935 
0.0083956 -0.023007 -0.12642 0.0067515 -0.039284 -0.038298 0.026317 -0.044217 
0.16755 -0.21669 -0.28903 -0.1501 -0.017911 0.011848 0.044731 -0.013965 
0.20668 -0.14895 -0.17657 -0.14698 0.064625 0.034537 0.062817 0.01004 
0.086985 -0.014293 0.076956 0.014315 0.097837 0.07597 0.063474 0.020069 
-0.09798 0.045389 0.15949 0.15275 0.12875 0.10408 0.057555 0.10392 
-0.19498 -0.10357 0.041443 0.10376 0.068571 0.086492 0.017603 0.073175 
-0.036654 -0.072825 -0.012649 0.055747 -0.016924 -0.010841 0.013328 -0.0087034 
0.14157 0.11773 0.088794 0.099481 -0.004593 -0.019719 0.011355 -0.13136 
0.1225 0.21934 0.12908 0.13812 0.030592 0.01711 -0.013965 -0.2111 
0.068078 0.10474 0.068407 0.10458 0.04654 0.0421 0.022206 -0.22754 
-0.059178 -0.084169 0.028619 0.097672 0.055582 0.065612 0.0023123 -0.26108 
-0.16095 0.032236 0.21326 0.1955 0.09422 0.06594 0.059364 -0.12609 
-0.03205 0.2851 0.39756 0.34939 0.083368 0.057227 0.073175 -0.031228 
0.083862 0.40513 0.41072 0.40628 0.01974 -0.01528 0.039963 -0.03616 
0.054103 0.26389 0.12168 0.24186 -0.11574 -0.12001 -0.027611 -0.12297 
-0.067728 -0.049642 -0.27785 -0.069372 -0.12149 -0.10883 -0.021199 -0.098638 
-0.18265 -0.43092 -0.51592 -0.3127 0.017274 0.056898 0.0324 0.081067 
-0.12741 -0.45377 -0.41168 -0.30596 0.17067 0.20734 0.12842 0.31092 
-0.066906 -0.18874 -0.05178 -0.11146 0.24269 0.26439 0.16969 0.31042 
-0.0072237 -0.02087 0.088301 0.034866 0.18843 0.20405 0.10967 0.18711 
-0.014787 -0.061151 -0.087293 -0.02794 0.016452 0.062981 0.053116 0.04917 
-0.023665 -0.048656 -0.30859 -0.1935 -0.091239 -0.047998 -0.019555 -0.035832 
0.014315 0.025824 -0.44456 -0.32915 -0.10341 -0.064768 -0.026131 -0.014293 
0.034702 0.060679 -0.40231 -0.31928 -0.064275 -0.038627 -0.028926 0.043416 
-0.013636 0.094548 -0.12396 -0.16818 -0.014458 0.0024767 -0.030077 0.077943 
-0.05178 0.12217 0.1761 0.077943 0.011848 -0.0096899 -0.011498 0.049828 
-0.052437 0.13927 0.39148 0.29892 0.0421 -0.0031133 0.0079024 -0.031557 
0.0034632 0.078272 0.39247 0.37274 0.055747 0.028783 0.056404 -0.02498 
0.03388 0.024015 0.21605 0.28806 0.065447 0.086328 0.066105 0.038483 
0.01152 -0.0011404 -0.033694 0.13023 0.054925 0.09422 0.099645 0.062817 
0.014808 -0.03616 -0.17723 -0.03205 0.030756 0.079587 0.11658 0.077121 
0.087479 0.027632 -0.15536 -0.078415 0.042758 0.08715 0.10524 0.076956 
0.15193 0.11362 -0.022843 -0.014293 0.059035 0.12283 0.096521 0.059693 
0.11395 0.14223 0.079587 0.064296 0.058542 0.079751 0.063474 0.031249 
0.03799 0.039799 0.13467 0.11839 0.052787 0.031414 0.075805 0.092247 
-0.018075 -0.016431 0.11132 0.13319 0.023851 0.0042853 0.066598 0.16919 
-0.050136 -0.010841 0.052787 0.13516 0.0011614 0.0087245 0.057062 0.1174 
0.032564 0.0090533 0.075641 0.12513 0.0082312 0.0051074 0.080244 0.060844 
0.20701 0.072681 0.10754 0.14371 0.030098 0.045389 0.12497 0.097672 
0.29941 0.16755 0.083697 0.13154 0.049335 0.061666 0.12727 0.24926 
0.30648 0.1738 0.030592 0.084519 0.014643 0.031742 0.082217 0.34199 
0.1858 0.030098 -0.05441 0.013657 -0.041093 -0.0040998 0.030592 0.29464 
0.086821 -0.092061 -0.1917 -0.056548 -0.083018 -0.05178 -0.01939 0.021878 
0.079258 -0.0771 -0.26338 -0.1552 -0.047998 -0.017746 -0.046354 -0.17936 
0.11691 -0.053588 -0.30415 -0.21258 0.0056006 -0.0080457 -0.10127 -0.062302 
0.15686 -0.031721 -0.1667 -0.15191 0.070873 -0.0080457 -0.13119 0.065612 
0.14091 0.064132 0.066269 -0.0011404 0.099481 0.010862 -0.092554 -0.099131 
-0.096007 0.11263 0.14486 0.098001 0.037826 0.044567 -0.036654 -0.37452 
-0.25204 0.049664 0.093562 0.1322 -0.014129 0.039634 0.016945 -0.12873 
-0.072825 0.10211 0.054267 0.11855 -0.0091966 0.072681 0.067749 0.40118 
0.16475 0.13384 0.05476 0.10852 0.055418 0.11757 0.074161 0.46991 
0.084684 0.10244 0.093726 0.13286 0.1225 0.10178 0.042594 0.18383 
-0.16851 0.061172 0.24466 0.22822 0.12644 0.078272 0.033058 -0.082854 
-0.34723 0.098988 0.43883 0.37504 0.067585 0.0227 0.0088889 -0.17789 
-0.30728 0.24449 0.59979 0.54471 0.017438 -0.066084 0.015959 -0.0082102 
-0.10045 0.37257 0.64369 0.6381 -0.0039354 -0.091404 0.0064227 0.023522 
0.11428 0.26636 0.52548 0.58943 0.0041209 -0.089102 0.01152 -0.054082 
0.2856 0.092576 0.31832 0.44048 -0.0068948 -0.085156 0.0093821 -0.16259 
0.27935 0.055911 0.13549 0.27557 -0.0059084 -0.053588 -0.013143 -0.17525 
0.14502 -0.009361 0.050321 0.15818 0.03388 0.016452 -0.0039354 -0.18183 
0.089287 0.0031344 -0.0060728 0.083697 0.049499 0.027796 -0.0064016 -0.098967 
0.1391 0.012506 -0.096665 0.025659 0.022042 -0.0067304 -0.00031829 0.053116 
0.17232 -0.02794 -0.218 -0.10571 -0.011827 -0.060987 -0.023501 0.22115 
0.055911 -0.10637 -0.35595 -0.23148 -0.032379 -0.032872 -0.054575 0.4168 
-0.013307 -0.10291 -0.46396 -0.34526 -0.019226 -0.019555 -0.047176 0.48799 
-0.029913 -0.010512 -0.50918 -0.42566 0.019576 0.007738 -0.040928 0.33772 
-0.029748 -0.059507 -0.54979 -0.48731 0.0059294 -0.0091966 -0.03057 0.082217 
-0.015609 -0.044217 -0.3959 -0.38636 0.027303 0.061501 -0.01232 -0.057699 
0.032729 0.12973 0.063145 -0.072496 0.073668 0.15176 0.038319 -0.095514 
0.045882 0.30829 0.55737 0.34906 0.11444 0.15472 0.091918 -0.17986 
0.0052718 0.31536 0.79282 0.63547 0.083204 0.1174 0.077121 -0.38439 
0.032071 0.24811 0.72146 0.67049 0.072517 0.050157 0.047691 -0.47876 
0.044402 0.11148 0.41959 0.46448 0.11494 0.023851 0.0075736 -0.20764 
0.062652 -0.077428 0.13812 0.2468 0.050814 -0.0039354 -0.013965 0.12825 
-0.0073881 -0.13612 -0.038133 0.098166 -0.0047575 -0.076442 -0.024816 0.0786 
-0.1085 -0.11015 -0.0070593 0.046868 -0.062631 -0.10423 -0.012649 -0.14451 
-0.2841 -0.10653 0.033715 0.066763 -0.0098543 -0.0771 0.0046141 -0.24003 
-0.38291 -0.087458 -0.00081153 0.053938 0.051801 0.0034632 0.042265 -0.17131 
-0.28475 -0.071345 -0.058685 0.0024767 0.066434 0.042758 0.037661 -0.064768 
0.011684 0.016288 -0.10242 -0.049642 0.03947 0.018589 0.020727 0.053281 
0.26866 0.06035 -0.13547 -0.04323 0.04654 -0.0040998 -0.020706 0.12875 
0.25337 0.1396 -0.05589 -0.021528 0.035853 -0.0040998 -0.03616 0.07597 
0.051965 0.097015 -0.0042642 0.012835 0.047855 -0.0082102 -0.049807 0.054432 
-0.1016 0.078765 -0.022843 0.011355 0.0087245 -0.021199 -0.033201 0.066598 
-0.12708 0.0026412 -0.091404 -0.033365 -0.070687 -0.054575 -0.015116 0.020727 
-0.092061 -0.036654 -0.1353 -0.084663 -0.081539 -0.10489 -0.065262 -0.064111 
-0.074633 0.0018191 -0.22606 -0.11015 -0.051122 0.01267 -0.027775 -0.052602 
-0.050136 -0.026624 -0.19383 -0.13382 0.01004 0.086328 0.12694 -0.017582 
0.12546 0.026974 -0.099789 -0.075291 0.083368 0.19254 0.22361 0.147 
0.29152 0.086821 0.038483 0.02533 0.11757 0.24318 0.25946 0.30039 
0.33098 0.20027 0.14108 0.11642 0.093891 0.17643 0.1539 0.32982 
0.33098 0.19632 0.18498 0.16393 0.011355 0.012177 0.00050378 0.34775 
0.32128 0.078272 0.095042 0.15028 -0.0050863 -0.084663 -0.056548 0.32588 
0.28445 -0.018075 -0.050136 0.055254 0.069229 -0.069372 -0.048985 0.18909 
0.14338 0.014643 -0.067892 0.0080668 0.11214 -0.042244 -0.073811 -0.16539 
-0.25664 -0.006566 0.071531 0.069229 0.054432 -0.039449 -0.080552 -0.47662 
-0.59813 -0.057534 0.12612 0.12677 -0.01528 -0.03057 -0.02794 -0.55932 
-0.49915 -0.15536 0.090767 0.12661 -0.055561 0.031414 0.054432 -0.16983 
-0.036818 -0.058192 0.11592 0.14338 -0.060987 0.091425 0.12398 0.31503 
0.36879 0.1368 0.13105 0.19155 -0.042079 0.097344 0.096521 0.43998 
0.48684 0.2103 0.10819 0.16771 -0.008539 0.065447 0.048019 0.32571 
0.48158 0.27146 0.076956 0.14042 0.070215 0.061501 0.011355 0.19155 
0.26998 0.19237 0.063474 0.1202 0.12283 0.071202 0.022206 -0.027775 
-0.084663 -0.054739 0.0051074 0.063145 0.11165 0.077614 0.032893 -0.14303 
-0.23839 -0.14106 0.011684 0.043416 0.032071 0.0032988 -0.020048 0.0023123 
-0.24677 -0.08532 0.028619 0.082875 0.00066819 -0.017088 -0.071838 0.31355 
-0.21669 -0.037147 0.06331 0.099645 0.026152 -0.0052507 0.0083956 0.43719 
-0.10341 0.017932 0.064954 0.10507 0.025495 0.014479 0.089945 0.30977 
-0.049807 0.030263 0.049664 0.094713 0.0041209 0.037826 0.089945 0.13878 
0.015301 0.016616 0.089123 0.11 -0.016595 0.069886 0.053116 0.041772 
0.17939 0.0786 0.15587 0.15653 0.021056 0.047855 0.026317 0.12447 
0.29037 0.13565 0.17182 0.19731 0.034866 0.011848 -0.014129 0.05624 
0.29398 0.1807 0.13368 0.19155 0.03536 -0.015444 -0.067892 -0.065426 
0.28379 0.18826 0.11477 0.17084 0.063639 0.015959 -0.026131 -0.17821 
0.22838 0.17149 0.058706 0.12579 0.052787 0.034373 0.0059294 -0.26979 
0.013821 0.070873 -0.031557 0.058049 0.040785 0.010533 -0.028104 -0.47038 
-0.1889 -0.049149 -0.071345 -0.0027845 -0.00031829 0.004943 0.0034632 -0.48353 
-0.18463 0.024673 0.037332 0.036017 0.0051074 0.046375 0.024344 -0.279 
-0.10817 0.045718 0.056076 0.10293 0.01152 0.056076 0.074983 0.049006 
0.011684 0.0092177 0.058871 0.10408 0.018096 0.093069 0.12595 0.23693 
0.0324 -0.071016 0.011684 0.073668 0.042265 0.13236 0.13845 0.35498 
-0.035174 -0.11179 -0.033859 0.034373 0.059528 0.13582 0.097508 0.53337 
0.044567 0.0037921 0.0092177 0.040456 0.023686 0.044896 -0.011827 0.61212 
0.2634 0.16344 0.08978 0.08863 0.0037921 -0.051287 -0.1284 0.47533 
0.39214 0.24959 0.060844 0.12447 -0.012485 -0.12281 -0.21258 0.22723 
0.30763 0.1641 -0.010348 0.065776 -0.010183 -0.069208 -0.15799 0.088794 
0.028947 0.048019 -0.098967 -0.0052507 0.0093821 -0.1011 -0.12955 0.012177 
-0.13152 -0.03057 -0.069043 -0.017746 -0.0077169 -0.11903 -0.069372 -0.13168 
-0.26338 -0.11294 -0.078579 -0.01676 -0.046025 -0.066248 0.015301 -0.14023 
-0.21455 -0.089924 -0.01232 0.0047785 -0.014622 0.073668 0.12102 -0.11689 
-0.028926 0.045553 0.061337 0.099974 -0.010183 0.1248 0.19336 -0.045532 
0.12118 0.14617 0.072681 0.10918 -0.037969 0.11822 0.16327 -0.049807 
0.15818 0.059035 -0.042408 0.040456 0.0026412 0.13056 0.11559 -0.10719 
0.099316 -0.0406 -0.17509 -0.065755 0.073504 0.13302 0.10639 -0.21241 
0.038977 -0.069536 -0.12527 -0.071181 0.13976 0.14026 0.18481 -0.25434 
-0.021528 -0.071838 0.036182 0.013821 0.15916 0.16163 0.19369 -0.30185 
-0.03353 -0.025967 0.11707 0.1008 0.15407 0.12168 0.17511 -0.27982 
0.048184 0.081067 0.061008 0.12316 0.12891 0.077614 0.10704 -0.22902 
0.13713 0.14552 0.040292 0.094713 0.043745 0.009711 0.068736 -0.049478 
0.14946 0.19731 0.011355 0.068407 0.0093821 -0.032379 0.044731 0.23759 
0.17133 0.23463 -0.00031829 0.047855 -0.0406 -0.048492 0.033387 0.48799 
0.19435 0.21128 0.03388 0.059857 -0.049314 -0.035667 0.013164 0.51249 
0.12891 0.17856 0.0786 0.086657 -0.0036066 -0.037805 -0.015773 0.3826 
0.01004 0.048184 0.0098754 0.077285 -0.0054151 -0.057041 -0.094034 0.17462 
-0.023829 0.028125 -0.051451 0.023028 -0.015444 -0.052931 -0.17706 0.11115 
0.068078 0.015301 -0.0050863 0.037332 0.032564 -0.034352 -0.22376 0.09126 
0.10096 0.041278 0.098988 0.10606 0.063968 -0.022021 -0.18989 0.044896 
0.091096 0.023028 0.11905 0.1322 0.054432 -0.0047575 -0.046354 0.033387 
0.078765 -0.008539 0.10556 0.13203 0.059693 0.042594 0.14091 0.047362 
0.073504 0.041114 0.076299 0.13105 0.03947 0.098659 0.25798 -0.032215 
-0.036325 0.11428 0.077778 0.12529 0.02829 0.11609 0.24663 -0.26075 
-0.17427 0.094055 0.027303 0.090109 0.0087245 0.066927 0.21819 -0.41892 
-0.25878 -0.028926 -0.024816 0.040292 -0.021856 0.017932 0.16985 -0.39721 
-0.10653 0.0689 0.085177 0.095864 -0.020706 -0.011992 0.10507 -0.17789 
0.15505 0.27524 0.21342 0.19632 0.03799 0.0036276 0.06035 -0.099131 
0.26916 0.29826 0.11214 0.16788 0.090274 0.058871 0.060515 -0.10242 
0.19862 0.066269 -0.088608 0.062981 0.13713 0.10326 0.054925 -0.13267 
0.098823 -0.16095 -0.097487 -0.0034422 0.14996 0.11411 0.10129 0.13483 
0.01826 -0.18874 -0.0057439 0.024179 0.15818 0.11066 0.11724 0.56444 
-0.24069 -0.27472 -0.018239 0.024837 0.11 0.095864 0.10573 0.73987 
-0.40215 -0.2425 -0.017253 0.014315 0.026481 0.059528 0.071202 0.48536 
-0.25384 -0.046847 0.017274 0.034537 -0.01676 0.024508 0.063474 0.063968 
-0.01117 0.16114 -0.013965 0.057391 -0.017582 0.031085 0.076792 -0.17377 
-0.02087 -0.0013048 -0.1108 -0.019719 0.038155 0.021056 0.050979 -0.27407 
-0.16769 -0.14813 -0.17953 -0.089924 0.071859 0.038977 0.040456 -0.2374 
-0.070852 -0.016431 -0.082525 -0.058192 0.083697 0.041278 0.072846 -0.041422 
0.19007 0.15209 0.06742 0.042429 0.061501 0.0421 0.10524 0.14321 
0.36057 0.22937 0.147 0.12447 0.025001 0.019905 0.091918 0.15423 
0.37323 0.19895 0.072188 0.11707 -0.023501 -0.011334 0.042923 0.10425 
0.25995 0.17758 0.018096 0.080573 -0.014293 -0.011498 0.0087245 -0.06855 
0.057555 0.084355 -0.046354 0.027796 -0.051122 -0.0503 -0.13563 -0.1473 
-0.27209 0.0042853 0.0052718 0.036675 -0.05885 -0.13596 -0.22968 -0.2665 
-0.3594 -0.015938 0.060186 0.065612 -0.0087034 -0.12001 -0.21126 -0.32109 
-0.23296 0.015301 0.12085 0.1174 -0.0090322 -0.088444 -0.10176 -0.25582 
-0.0060728 0.026317 0.12579 0.14815 0.00083261 -0.046025 0.012506 -0.13267 
0.096357 0.0037921 0.066598 0.15078 0.012506 -0.01232 0.15324 -0.06707 
0.065612 0.011684 0.027468 0.10129 0.018918 0.032071 0.15735 0.023193 
-0.047012 0.026317 -0.0055795 0.06183 0.031578 0.071037 0.1396 0.11378 
-0.051287 -0.0049219 -0.0080457 0.045553 0.045389 0.088465 0.10803 0.29349 
0.033058 -0.040106 0.032236 0.069064 0.068078 0.076956 0.10589 0.39329 
0.02829 -0.033365 0.059035 0.079094 0.041772 0.036017 0.055089 0.089123 
-0.061151 -0.028597 0.0074092 0.094713 -0.0073881 -0.036325 0.021384 -0.206 
-0.052437 0.070708 0.069229 0.10754 -0.013471 -0.048492 -0.025802 -0.13843 
0.044238 0.13187 0.081724 0.11773 -0.0029489 -0.027118 -0.068057 0.080738 
-0.014458 0.064132 0.014808 0.074983 -0.040928 -0.062467 -0.066248 0.16738 
-0.016102 0.019411 0.0056006 0.05213 -0.045039 -0.061151 -0.042573 0.14897 
0.16969 0.0067515 0.012013 0.043087 -0.011827 -0.010841 -0.021692 0.082875 
0.29382 0.066434 0.077614 0.11329 0.02533 0.067256 0.02122 0.062652 
0.25387 0.08978 0.12414 0.15176 0.082053 0.071695 0.040621 0.084519 
0.085835 0.04506 0.035031 0.10556 0.09126 0.069886 0.034373 0.13434 
0.01974 -0.013965 -0.12067 -0.013143 0.03947 0.040292 0.020069 0.14305 
0.14157 0.11905 -0.094034 -0.034845 0.030263 0.025166 0.056076 0.17363 
0.28034 0.22131 0.0067515 0.0072447 0.022206 0.0088889 0.067256 0.18613 
0.31815 0.14502 -0.012156 0.016288 0.015137 0.011191 0.062159 0.080573 
0.256 0.14617 0.043909 0.076463 0.064132 0.029605 0.0016547 0.0093821 
-0.16391 -0.092719 0.11247 0.1225 0.042594 -0.0019624 -0.097487 -0.24118 
-0.59977 -0.25072 0.093069 0.12694 -0.0011404 -0.083512 -0.14319 -0.35923 
-0.60405 -0.1353 0.03947 0.096028 -0.0073881 -0.074798 -0.14155 -0.28755 
-0.40543 -0.011663 -0.088773 -0.012485 -0.025802 -0.056055 -0.11097 -0.15717 
-0.26486 -0.058192 -0.1917 -0.11787 -0.031721 -0.017088 -0.10998 -0.041751 
-0.050958 -0.015444 -0.12988 -0.084169 -0.036325 -0.023665 -0.078579 0.13105 
0.18547 0.18547 0.12316 0.063474 -0.038956 -0.0014692 -0.033859 0.30039 
0.42469 0.33936 0.28149 0.21687 0.0036276 0.024508 0.026974 0.47977 
0.55672 0.26685 0.21506 0.2246 -0.040764 0.038977 0.035195 0.4658 
0.55014 0.092576 0.11395 0.14765 0.0026412 0.02829 0.029441 0.32259 
0.26801 0.049828 0.14404 0.13878 0.068407 0.096028 0.03799 0.171 
-0.013636 -0.0034422 0.16081 0.18185 0.17856 0.17297 0.084026 0.083862 
-0.16539 -0.032215 0.11198 0.16196 0.20487 0.16015 0.1345 0.020891 
-0.10341 0.029605 0.11822 0.14437 0.079094 0.11839 0.090109 -0.13333 
0.0041209 0.11461 0.089123 0.062488 0.013821 0.058377 0.066598 -0.16851 
0.045882 0.13615 0.028125 -0.018897 -0.018733 -0.010348 0.00099702 -0.16572 
0.050321 0.020727 -0.021528 -0.084827 -0.056712 -0.049642 -0.045203 -0.017088 
0.054925 -0.023994 -0.09239 -0.11245 -0.0054151 -0.035832 -0.027118 0.18744 
0.1738 0.034373 -0.045861 -0.062138 0.049664 0.04654 0.016452 0.29135 
0.22246 0.10885 -0.018075 -0.045532 0.060515 0.091753 0.018096 0.19007 
0.13483 0.049828 -0.012978 -0.024158 0.06183 0.062817 -0.046025 0.045718 
0.019905 0.041772 0.0019835 -0.027611 0.065612 0.030756 -0.066577 -0.036983 
-0.084827 -0.013965 -0.017417 -0.061151 0.030263 -0.011663 -0.10045 -0.068221 
-0.15322 -0.080552 -0.020706 -0.076277 0.024673 -0.0059084 -0.11853 -0.067892 
-0.065426 -0.03501 -0.0062372 -0.025309 0.026317 0.017603 -0.049971 -0.067564 
0.05065 0.0013258 0.047691 -0.010348 0.038648 0.054267 0.024344 0.011026 
0.14174 0.012835 0.018918 -0.024158 0.025166 0.062652 0.067749 0.096686 
0.1225 0.012506 -0.019226 -0.0503 0.01267 0.068736 0.054432 0.14848 
0.0786 0.031085 -0.0090322 -0.054082 0.0064227 0.055911 0.034866 0.11609 
-0.02794 0.049828 0.053116 -0.0024557 0.01974 0.024015 0.015301 0.050486 
-0.11557 0.11526 0.10852 0.066105 0.052952 0.044402 0.029276 0.0072447 
-0.1039 0.14486 0.080244 0.037168 0.058213 0.055254 0.034866 -0.080388 
-0.019884 0.081395 0.058049 0.0075736 0.05624 0.046211 0.042594 -0.17871 
0.11642 0.026974 0.046211 -0.0044286 0.046046 0.036346 0.033551 -0.14977 
0.16903 0.042594 0.086985 0.027468 0.058542 0.044731 0.040456 -0.020048 
0.15949 0.13351 0.10688 0.027796 0.052459 0.062159 0.052952 0.033715 
0.14979 0.17363 0.11214 0.047526 0.054103 0.025988 0.017603 -0.075949 
0.20865 0.21901 0.1322 0.060186 0.00017495 -0.01117 0.0046141 -0.10554 
0.26899 0.20701 0.11494 -0.0040998 -0.046683 -0.05178 -0.018239 -0.033201 
0.18415 0.051308 -0.077428 -0.13596 -0.10291 -0.081539 -0.024158 0.0019835 
0.13549 -0.046683 -0.19235 -0.13399 -0.065755 -0.05441 -0.024652 0.042923 
0.096521 0.01152 -0.073482 -0.030077 0.033222 0.021713 0.0095465 0.10622 
-0.17345 -0.09946 0.041936 0.071531 0.08715 0.059528 0.033058 0.054103 
-0.35151 -0.18643 0.10556 0.20372 0.15094 0.12184 0.055747 0.007738 
-0.21225 -0.028597 0.19649 0.24926 0.16656 0.1276 0.10293 0.054103 
0.01004 0.18399 0.20421 0.18202 0.12201 0.091096 0.082711 0.11806 
0.07597 0.16623 0.099152 0.051801 0.028783 0.026481 0.048184 0.13565 
0.11592 0.073339 0.0070803 -0.1062 -0.055726 -0.035338 0.0056006 0.083204 
0.091096 0.012342 -0.064604 -0.14385 -0.08828 -0.097651 -0.014458 0.028454 
0.046868 0.066269 -0.061316 -0.091732 -0.064111 -0.060494 0.01711 0.0092177 
0.051308 0.073997 0.023686 -0.011663 0.0080668 -0.040106 0.034044 0.039963 
0.11954 0.13878 0.11477 0.048348 0.031907 0.023522 0.060844 0.076627 
0.22361 0.17347 0.15341 0.10326 0.035524 -0.02235 0.036182 -0.025309 
0.27721 0.16722 0.10441 0.025659 -0.072167 -0.081703 0.019247 -0.1307 
0.27491 0.068407 0.041607 -0.02942 -0.13448 -0.11722 -0.0095255 -0.15306 
0.23808 0.14058 0.015301 -0.042901 -0.045532 -0.06 0.01563 -0.066741 
0.068242 0.11181 -0.035667 -0.062796 0.073175 0.045718 0.073668 -0.099131 
-0.30547 -0.23543 -0.22425 -0.059672 0.13154 0.12644 0.08156 -0.17262 
-0.39031 -0.32224 -0.12823 0.013657 0.14798 0.12809 0.073832 -0.13908 
-0.18594 0.0072447 0.18678 0.14963 0.15275 0.12612 0.092247 -0.11919 
0.0023123 0.24252 0.35942 0.22493 0.16475 0.12069 0.12447 -0.0014692 
0.082546 0.21638 0.26883 0.16837 0.1396 0.12447 0.12151 0.24515 
0.078436 0.043909 0.059693 0.024344 0.037497 0.065118 0.087643 0.33953 
0.015301 -0.070687 -0.071509 -0.045039 -0.021528 -0.0050863 0.052952 0.29004 
0.10507 -0.021856 -0.035174 -0.027611 -0.056219 -0.035174 0.02829 0.22904 
0.15341 0.036839 0.019411 -0.031392 -0.050958 -0.021199 0.0019835 0.15094 
-0.065426 -0.05178 0.0087245 -0.025474 0.0019835 0.0079024 0.030098 -0.11755 
-0.31731 -0.10193 0.0037921 0.073339 0.034866 0.039963 0.048019 -0.32947 
-0.34 -0.018733 0.050814 0.15538 0.082875 0.056569 0.066434 -0.36384 
-0.24546 0.094055 0.058049 0.17741 0.08978 0.050814 0.070051 -0.31846 
-0.12544 0.10162 -0.0039354 0.057062 0.02122 0.016123 0.035853 -0.22343 
-0.029584 0.063968 -0.10604 -0.10439 -0.037476 -0.039778 0.026152 -0.1011 
0.13483 0.068407 -0.098638 -0.1062 -0.03057 -0.043724 0.020891 0.12694 
0.20273 0.028783 -0.076442 -0.089595 0.00066819 -0.022021 1.0539e-005 0.34906 
0.091425 -0.083676 -0.087293 -0.059507 0.053938 0.041772 0.013328 0.37389 
-0.052602 -0.12001 0.028454 0.035853 0.093069 0.065776 0.050814 0.21572 
-0.019884 -0.042573 0.12168 0.1008 0.087808 0.08156 0.090274 0.09981 
0.10639 0.046211 0.10244 0.089123 0.073832 0.061501 0.081724 -0.10373 
0.11083 0.067749 0.050486 0.067749 0.031907 0.032893 0.061666 -0.24941 
0.069064 0.04095 0.070708 0.037332 -0.0034422 -0.01528 0.043416 -0.21143 
0.097508 0.079916 0.092082 0.024015 -0.011005 -0.021363 0.059693 0.03651 
0.11872 0.11033 0.04506 0.031578 0.0083956 0.017603 0.074983 0.21178 
0.13828 0.1031 0.027139 0.034702 0.029934 0.074326 0.064954 0.23381 
0.1641 0.11921 0.060679 0.032071 0.062817 0.082546 0.047526 0.15176 
0.19829 0.15193 0.08156 0.074819 0.042758 0.050814 0.032893 0.10129 
0.06331 0.099974 0.035524 0.028454 -0.0013048 -0.022021 -0.0004827 0.042594 
-0.14878 0.022864 0.00297 -0.030899 -0.047669 -0.063124 -0.064768 0.020562 
-0.13826 -0.017911 -0.067892 -0.021363 0.016123 -0.046519 -0.054739 0.27557 
0.0052718 0.0054362 -0.093048 -0.0088678 0.066763 0.00099702 -0.00097594 0.41105 
0.0082312 -0.0049219 -0.10373 0.0082312 0.039141 0.039305 0.051801 0.27672 
-0.12708 -0.059343 -0.042079 0.055418 0.050486 0.070051 0.080244 0.013328 
-0.16555 0.024837 0.066763 0.11773 0.099481 0.11313 0.097179 -0.25976 
-0.14829 0.10392 0.12118 0.11329 0.1225 0.12398 0.13302 -0.52019 
-0.12478 -0.010676 0.058706 0.082382 0.094713 0.076956 0.081067 -0.40395 
-0.076277 -0.20008 -0.023336 0.0031344 0.0064227 0.030592 0.10458 -0.088608 
0.033551 -0.1473 -0.047998 -0.037969 -0.028104 0.0059294 0.072517 0.09274 
0.1225 -0.0073881 -0.01117 -0.0050863 -0.030735 0.017932 0.064461 0.0044497 
0.15686 0.06742 0.019083 -0.0064016 -0.021856 -0.00097594 0.02122 -0.2083 
0.06594 0.10096 0.059035 0.00066819 -0.016924 -0.025145 -0.003771 -0.30448 
-0.043724 0.13697 0.066269 0.039305 0.0088889 -0.024487 -0.0073881 -0.12889 
0.027796 0.14091 0.060844 0.041772 0.0054362 -0.015938 -0.015609 0.32062 
0.18859 0.16706 0.074819 0.065283 0.0074092 0.01004 0.0011614 0.64879 
0.25156 0.15703 0.061501 0.077778 0.01826 -0.0029489 -0.0060728 0.7282 
0.19977 0.15407 0.035688 0.065776 0.044896 -0.017417 0.01826 0.5485 
0.1105 0.14289 0.062159 0.062817 0.048677 -0.014129 -0.054082 0.49407 
0.14305 0.14272 0.085506 0.0042853 0.0689 -0.0021268 -0.090417 0.60703 
0.28856 0.19747 0.073339 0.013657 0.05213 0.012506 -0.035503 0.6774 
0.27688 0.15078 0.087314 0.025495 0.0227 -0.0021268 0.00050378 0.50624 
0.060679 0.021878 0.11198 -0.01676 -0.051944 -0.074798 0.014808 0.073997 
-0.086964 0.019083 0.047691 -0.077593 -0.070359 -0.084334 -0.013307 -0.44308 
0.11642 0.22855 0.092247 -0.045861 -0.025802 0.0059294 0.071695 -0.69447 
0.4755 0.50443 0.30039 0.096686 0.05772 0.11494 0.13927 -0.72472 
0.24071 0.38819 0.28823 0.13121 -0.0095255 0.070051 0.13319 -0.80183 
-0.47695 -0.31418 -0.21734 -0.09946 -0.12774 -0.051451 0.022864 -0.8094 
-0.69957 -0.7969 -0.65222 -0.27012 -0.095678 -0.08384 0.0044497 -0.4033 
-0.36795 -0.57001 -0.48386 -0.12905 0.14634 0.10754 0.064625 0.19665 
-0.31599 -0.24677 -0.19811 0.094877 0.30023 0.24137 0.11691 0.25567 
-0.48715 -0.11508 0.045882 0.2486 0.35038 0.28609 0.11543 0.24449 
-0.33638 0.082053 0.28675 0.30368 0.24581 0.19829 0.08978 0.37997 
-0.020541 0.2371 0.33657 0.21342 0.075805 0.063803 0.030427 0.35876 
0.20865 0.2514 0.26768 0.086163 -0.039942 -0.04471 -0.0090322 0.26274 
0.39049 0.26357 0.12612 -0.036818 -0.099295 -0.081868 -0.035996 0.24055 
0.48059 0.21638 0.028783 -0.068386 -0.11557 -0.080881 -0.027118 0.18169 
0.33689 0.090767 -0.10094 -0.10209 -0.11196 -0.10028 -0.044217 0.0088889 
0.10787 -0.019555 -0.19548 -0.1547 -0.093376 -0.072167 -0.053753 -0.096829 
-0.017088 -0.0088678 -0.22195 -0.13925 -0.057534 -0.037969 -0.030735 -0.10357 
-0.088444 0.047691 -0.10604 -0.045368 0.0028056 -0.02646 -0.016102 -0.019719 
-0.045696 0.082053 0.029769 0.01974 0.012506 0.0016547 -0.033365 0.036839 
0.086492 0.11543 0.10524 0.027961 0.024673 0.025001 -0.004593 0.090274 
0.17758 0.086328 0.15571 0.1105 0.046046 0.068242 0.033222 0.085012 
0.13697 0.037661 0.15308 0.093562 0.047362 0.044567 0.058542 0.066434 
0.055582 0.016781 0.12595 0.050814 0.083862 0.054596 0.007738 -0.00097594 
-0.024487 0.0044497 0.044238 0.010204 0.029769 0.01152 -0.017417 0.0032988 
-0.027775 0.023193 0.020562 -0.059014 0.01004 0.01267 -0.019884 -0.0075525 
-0.047012 0.031907 0.067749 -0.027447 0.04654 0.028125 0.015794 -0.044874 
-0.017746 0.089287 0.11066 0.079916 0.055418 0.055089 0.086657 -0.080717 
0.031249 0.082546 0.10754 0.095371 0.056733 0.054103 0.090767 -0.086636 
0.078765 0.08008 0.045389 0.1008 0.080409 0.0786 0.072681 -0.034845 
0.10063 0.093398 -0.0055795 0.10392 0.064132 0.048841 0.055418 0.031578 
0.10408 0.14157 0.018589 0.076956 0.013164 0.01826 0.043087 0.086657 
0.088958 0.08567 0.0051074 0.04654 0.0019835 0.012506 0.031414 0.079094 
0.00083261 0.013821 0.024015 0.094384 -0.0057439 0.0013258 0.022206 0.081889 
0.016616 0.010862 -0.020377 0.0026412 -0.015938 -0.016595 0.0018191 0.022371 
0.13368 -0.026131 -0.1478 -0.14106 -0.07266 -0.045368 -0.019555 0.012506 
0.2736 0.0059294 -0.25401 -0.14599 -0.069208 -0.02646 -0.016266 0.051636 
0.3364 0.15999 -0.17608 -0.089924 -0.020541 -0.01528 -0.003771 0.19024 
0.30763 0.089287 -0.25943 -0.15569 0.034866 0.020891 0.007738 0.1904 
0.15637 -0.24743 -0.33309 -0.18627 0.039634 0.019905 0.033222 0.097344 
-0.16457 -0.34641 -0.10686 -0.041093 0.09833 0.076956 0.013657 0.089123 
-0.54124 -0.25121 0.24778 0.22624 0.19501 0.14469 0.074983 0.074983 
-0.47268 -0.023007 0.4339 0.34051 0.22592 0.16755 0.11592 0.038155 
-0.051944 0.24696 0.47665 0.28132 0.13746 0.11609 0.078765 0.08304 
0.33953 0.40414 0.41055 0.1858 0.014643 0.019411 0.023522 0.071695 
0.45922 0.38589 0.25239 0.071531 -0.087786 -0.074469 -0.01676 0.067749 
0.31552 0.11395 0.019247 -0.071181 -0.1284 -0.12971 -0.040271 0.079258 
0.15226 -0.020048 -0.081374 -0.13859 -0.1016 -0.069865 -0.034681 0.1026 
0.071859 0.0046141 -0.053588 -0.022843 -0.02942 0.014315 0.013986 0.18974 
0.08008 0.045553 -0.0096899 0.033715 0.035853 0.04917 0.03092 0.18498 
0.078436 0.085177 0.077449 0.086821 0.080902 0.079258 0.080409 0.11905 
0.084026 0.10918 0.12414 0.15505 0.08419 0.087314 0.097179 0.079258 
0.12513 0.15209 0.12069 0.091918 0.068078 0.078929 0.08304 0.08863 
0.16623 0.1299 0.08863 0.024508 0.023193 0.034044 0.058706 0.046375 
0.10014 0.1077 0.056733 0.0037921 0.0042853 0.0069159 0.0592 -0.052766 
0.012013 0.048184 0.0060938 -0.00081153 0.027468 0.038319 0.049499 -0.1815 
-0.051451 0.016288 0.021549 0.0046141 0.027139 0.025988 0.056076 -0.088115 
1.0539e-005 -0.010512 0.011026 0.046704 0.010697 0.030098 0.051965 0.013492 
0.11592 -0.011827 0.064132 0.02122 0.032893 0.024837 0.041936 0.0083956 
0.2024 0.043745 0.098494 0.019247 0.0080668 0.032236 0.047362 0.033387 
0.24351 0.061337 0.10556 0.042265 0.0065871 0.017438 -0.0024557 0.18777 
0.16327 0.042429 0.047691 0.016616 0.017438 -0.012649 -0.028926 0.31667 
0.028619 0.030427 0.041443 0.0227 0.040785 0.0093821 -0.066577 0.22937 
-0.071674 0.037661 0.071037 0.10622 0.062652 0.085999 -0.069043 0.015959 
-0.07973 0.059035 0.13828 0.10754 0.10293 0.075641 -0.018075 -0.13727 
0.03651 0.080244 0.15933 0.10293 0.1271 0.075805 0.067749 -0.17756 
0.071037 0.13828 0.17117 0.14749 0.083204 0.060186 0.11592 -0.23411 
0.025659 0.13368 0.18744 0.11362 0.032893 0.03799 0.11773 -0.24184 
0.048019 0.18761 0.15489 0.063145 -0.021692 -0.011992 0.089616 -0.088444 
-0.0062372 0.11165 0.014972 -0.03764 -0.039613 -0.011827 0.03947 0.078107 
-0.15059 0.011848 -0.11787 -0.13892 -0.018568 -0.0075525 0.046046 -0.12182 
-0.35282 -0.25746 -0.13547 -0.067564 0.0034632 0.011191 0.032071 -0.38718 
-0.46429 -0.36088 -0.026131 0.051472 0.01563 0.010533 0.028947 -0.38159 
-0.33358 -0.019061 0.18087 0.1391 0.019083 0.038812 0.044238 -0.22425 
-0.23247 0.13894 0.064461 0.054925 0.0324 0.020891 0.012342 -0.091239 
-0.24891 -0.14089 -0.26749 -0.1011 0.02681 -0.020377 -0.061151 0.012999 
-0.089431 -0.18545 -0.29873 -0.18019 0.0046141 -0.062302 -0.071181 0.12381 
0.15407 0.20684 0.11674 0.034537 0.0786 -0.017746 -0.018404 0.17232 
0.32522 0.53238 0.4168 0.27524 0.12431 0.072681 0.041936 0.16738 
0.36879 0.34544 0.22657 0.17182 0.082053 0.11329 0.05476 0.071531 
0.29283 -0.098638 -0.17345 -0.027775 0.026646 0.083533 0.0421 -0.056055 
0.0082312 -0.28459 -0.30415 -0.059507 0.050157 0.082875 0.047526 -0.13103 
-0.33589 -0.25861 -0.12018 0.082217 0.14585 0.14206 0.088465 -0.13119 
-0.31106 -0.098309 0.074983 0.15883 0.20849 0.14716 0.064461 -0.09946 
-0.081868 0.074161 0.13368 0.11263 0.092247 0.057062 -0.006566 -0.045039 
0.018425 0.10293 0.075805 0.0024767 -0.033694 -0.058356 -0.050793 0.049499 
0.06183 0.097672 0.0042853 -0.094363 -0.11393 -0.091568 -0.03353 0.16936 
0.13483 0.096357 -0.030077 -0.11261 -0.1062 -0.062796 -0.014787 0.27524 
0.17232 0.12349 0.014315 -0.069701 -0.071345 -0.032215 0.0016547 0.24992 
0.13483 0.069722 0.0072447 -0.035338 -0.060329 -0.043395 0.0028056 0.1687 
0.045553 0.015137 -0.030406 -0.036489 -0.052602 -0.052602 -0.045368 0.053445 
-0.025474 -0.01117 -0.060494 -0.067399 -0.014622 -0.063782 -0.060658 -0.010183 
-0.070523 0.013657 -0.032215 -0.057041 0.012342 -0.070852 -0.078579 -0.12149 
-0.11639 0.023028 -0.01939 -0.012649 0.059693 -0.039778 -0.068879 -0.21241 
-0.13119 0.043087 0.00050378 0.020891 0.085506 0.021878 -0.017088 -0.22688 
-0.16868 0.046375 0.043251 0.06035 0.088301 0.069393 0.038319 -0.24201 
-0.16966 0.033058 0.037332 0.058213 0.089123 0.11198 0.089452 -0.25269 
-0.11771 -0.009361 0.014643 0.015465 0.078272 0.10425 0.09981 -0.19153 
-0.057041 -0.044217 0.013657 -0.018404 0.065447 0.08156 0.069722 0.049828 
0.045718 -0.027118 -0.010183 -0.0064016 0.036839 0.038977 0.057062 0.37405 
0.18859 0.015959 0.0044497 -0.0095255 0.0088889 0.025988 0.077449 0.56017 
0.22394 0.085835 0.037826 -0.0080457 0.00033937 0.010533 0.037826 0.50328 
0.12809 0.17856 0.13878 0.060515 -0.015773 0.010204 0.011848 0.31437 
0.097672 0.29694 0.20076 0.10967 -0.04619 -0.073647 -0.049314 0.147 
0.31848 0.39658 0.15028 0.059035 -0.05737 -0.088937 -0.047669 0.16837 
0.39575 0.22624 -0.16111 -0.14467 -0.024323 -0.05589 -0.025802 0.10589 
0.055089 -0.25878 -0.54272 -0.37896 0.0028056 0.019576 -0.016431 -0.16588 
-0.59139 -0.58612 -0.5442 -0.45574 0.046046 0.041114 -0.016595 -0.39508 
-0.81614 -0.56607 -0.26519 -0.29314 0.15193 0.14469 0.067749 -0.34822 
-0.413 -0.23921 0.073175 -0.0016336 0.22756 0.24088 0.15703 -0.20633 
0.096357 0.057884 0.25567 0.17906 0.17692 0.17741 0.12398 -0.063946 
0.34676 0.19928 0.27442 0.22871 0.072353 0.070708 0.061008 0.068407 
0.42157 0.2583 0.20536 0.2126 -0.003771 -0.0064016 0.019247 0.24581 
0.37586 0.33788 0.19468 0.18662 -0.058028 -0.052766 0.0016547 0.3655 
0.33657 0.33788 0.24893 0.21934 -0.082032 -0.077264 -0.0075525 0.38704 
0.19287 0.23397 0.20767 0.21671 -0.093541 -0.092554 -0.023829 0.23989 
0.10704 0.10113 0.087314 0.13401 -0.072167 -0.068221 -0.050793 0.084848 
0.089123 0.082053 0.0227 0.074161 -0.030899 -0.030899 -0.023994 0.024179 
0.21276 0.17429 0.039305 0.11214 0.055254 0.065776 0.046375 0.092411 
0.29152 0.17018 0.085177 0.1202 0.10228 0.11477 0.099152 0.2126 
0.17363 0.087479 0.016616 0.07449 0.097672 0.079587 0.096028 0.12858 
0.05476 -0.028762 -0.077757 -0.00081153 0.03092 0.04917 0.04506 0.054103 
0.084848 -0.033037 -0.045203 -0.010512 -0.014787 0.010533 0.021878 0.10984 
0.1276 -0.0082102 0.019905 0.021713 -0.032708 -0.030735 0.04654 0.1008 
0.13565 0.076956 0.044567 0.083368 0.0024767 -0.013307 0.052294 0.027796 
0.10228 0.094055 0.063145 0.099974 0.026974 0.031249 0.074161 -0.017582 
0.074326 0.094548 0.057391 0.099645 0.044238 0.03536 0.043745 -0.041586 
-0.068221 0.14157 0.089287 0.11987 0.031578 0.063803 0.04095 -0.084991 
-0.18824 0.11559 0.1054 0.13056 0.070051 0.087643 0.068242 -0.17049 
-0.25549 0.042758 0.099481 0.12875 0.05624 0.077943 0.043416 -0.27571 
-0.14188 0.024344 0.097015 0.14338 0.0072447 0.028454 0.05476 -0.27259 
0.11773 0.10458 0.14469 0.18136 0.0023123 0.017274 0.057391 -0.004593 
0.46004 0.32917 0.26866 0.26422 0.022206 0.030592 0.086163 0.35679 
0.70206 0.59996 0.37405 0.35498 -0.00015387 0.051308 0.05772 0.49046 
0.64566 0.55244 0.23183 0.28839 -0.048327 0.027139 0.030427 0.32391 
0.34396 0.074326 -0.18643 -0.0070593 -0.065426 0.025495 0.030263 0.15555 
-0.16079 -0.54831 -0.53762 -0.31912 0.049335 0.052952 0.07301 0.029605 
-0.82091 -0.91216 -0.5294 -0.38028 0.20405 0.12743 0.085341 -0.32092 
-1.1131 -0.74034 -0.15437 -0.19761 0.2565 0.11296 0.029934 -0.56031 
-0.80792 -0.29791 0.12677 0.0324 0.21835 0.079916 0.02829 -0.41842 
-0.25121 0.15111 0.33163 0.2366 0.13499 0.045553 0.00050378 -0.061645 
0.13417 0.32292 0.33755 0.30056 0.017438 -0.030242 -0.033201 0.15752 
0.36468 0.3466 0.15637 0.21605 -0.028926 -0.0026201 -0.071674 0.29152 
0.42107 0.17676 -0.035667 0.091096 -0.084991 -0.06707 -0.049642 0.43538 
0.36715 0.052623 -0.10686 -0.0031133 -0.02087 -0.020048 -0.037476 0.44672 
0.21112 0.035524 -0.0050863 0.025166 0.0046141 0.069558 0.048184 0.34281 
0.1294 0.093891 0.11658 0.10392 0.066598 0.1179 0.14009 0.17445 
0.15407 0.14634 0.15209 0.14601 0.086657 0.11905 0.10902 0.064296 
0.19879 0.17939 0.1562 0.15505 0.046211 0.065776 0.0689 0.021056 
0.19254 0.18136 0.10425 0.13993 -0.028433 0.0042853 0.057555 -0.0067304 
0.12842 0.086328 0.0085601 0.093891 -0.058356 -0.047341 0.049992 -0.073318 
0.005765 -0.013143 -0.042573 0.036675 -0.06296 -0.077264 0.033222 -0.24513 
-0.090417 -0.035667 -0.031886 0.021056 -0.026296 -0.027447 0.041114 -0.44719 
-0.12166 -0.024652 -0.0057439 0.040785 0.027796 0.024837 0.038483 -0.48517 
-0.096007 -0.019061 0.061008 0.072517 0.046211 0.037168 0.060679 -0.34 
-0.054082 -0.028269 0.069229 0.089945 0.053938 0.022206 -0.00015387 -0.13695 
-0.063453 -0.034681 0.0037921 0.095206 0.060186 0.013986 -0.063946 -0.043888 
-0.088444 -0.070687 -0.014951 0.055911 0.047526 0.0059294 -0.077922 0.018918 
-0.064275 0.010862 0.027303 0.065118 0.037332 0.025001 -0.077757 0.1516 
-0.056219 0.072846 0.076956 0.097837 0.021056 -0.031886 -0.052437 0.22213 
-0.065426 0.096521 0.081067 0.1054 0.011191 -0.01939 -0.010841 0.18284 
0.0011614 0.082546 0.066763 0.096193 0.035524 0.005765 0.023193 0.27705 
0.075641 0.038319 -0.013636 0.080902 0.066927 0.05624 0.062488 0.34396 
-0.0055795 -0.029913 -0.044874 0.027139 0.07301 0.043416 0.08304 0.089123 
-0.1575 -0.064768 -0.03912 0.0069159 0.050486 0.013657 0.073504 -0.18611 
-0.25023 -0.068714 0.0042853 0.015794 -0.018239 -0.022185 0.036017 -0.28492 
-0.21504 -0.025145 0.038483 0.03536 -0.0095255 -0.009361 0.059035 -0.21422 
-0.097158 0.038319 0.049006 0.034044 0.035031 0.0032988 0.053281 -0.12659 
0.056733 0.083862 0.034373 0.042594 0.034866 0.03536 0.048513 -0.046847 
0.11691 0.10902 0.021878 0.041772 0.01415 -0.011334 -0.01232 0.010862 
0.16952 0.14996 0.087972 0.078765 -0.036325 -0.067564 -0.084827 0.10343 
0.25436 0.22098 0.16755 0.1345 -0.098802 -0.13432 -0.13941 0.12842 
0.30319 0.22279 0.11362 0.058871 -0.15552 -0.16687 -0.15733 0.11773 
0.29217 0.12644 -0.040106 -0.081374 -0.12133 -0.14747 -0.097158 0.13105 
0.20586 -0.025967 -0.23346 -0.24184 0.0070803 -0.025145 -0.014787 0.062981 
0.14897 -0.098967 -0.22376 -0.19071 0.13499 0.16031 0.10326 0.10096 
0.20931 0.094055 0.077449 0.022206 0.22542 0.25567 0.18037 0.14552 
0.20898 0.25485 0.33048 0.25847 0.21556 0.21161 0.21901 0.17232 
0.13582 0.32374 0.29711 0.2269 0.10967 0.086163 0.15966 0.19681 
0.15094 0.3027 0.17906 0.1003 0.035195 0.0039565 0.076299 0.33295 
-0.069043 0.022535 0.028783 -0.042901 -0.0087034 -0.038133 0.05476 0.32358 
-0.3349 -0.15585 -0.14418 -0.13645 -0.043888 -0.03912 0.025166 0.25732 
-0.35151 -0.18101 -0.20386 -0.16917 -0.066577 -0.077428 0.023028 0.11724 
-0.18611 -0.27061 -0.23411 -0.15733 -0.06148 -0.051944 -0.016431 -0.17147 
-0.061645 -0.25647 -0.14961 -0.095021 0.017767 -0.020212 0.032071 -0.30498 
0.076463 0.054103 0.031414 0.021713 0.091753 0.069393 0.070215 -0.30613 
0.093398 0.21868 0.16163 0.10277 0.077778 0.028125 0.08419 -0.28755 
0.10836 0.19846 0.17199 0.10902 0.046868 0.085341 0.08715 -0.15848 
0.12579 0.11543 0.079587 0.039305 0.010533 0.049992 0.052623 0.033551 
0.080244 0.012506 -0.01939 -0.022843 -0.01117 0.004943 -0.020212 0.14141 
0.12118 0.027961 -0.01939 -0.023665 0.00050378 -0.029091 -0.11886 0.2149 
0.2389 0.1276 0.027468 -0.0042642 0.0037921 -0.039449 -0.1307 0.22789 
0.32604 0.22296 0.094055 0.017603 -0.0077169 -0.026131 -0.081374 0.28839 
0.34528 0.20388 0.13039 0.057555 -0.017253 -0.008539 0.014972 0.29892 
0.24219 0.17314 0.11017 0.076627 -0.011827 0.01415 0.092082 0.20586 
0.042758 0.13878 0.10474 0.054267 -0.0027845 0.015137 0.080409 0.058049 
-0.20271 0.1026 0.047855 0.024837 0.037004 0.022864 0.079916 -0.11031 
-0.27571 0.026152 -0.0091966 -0.010841 0.057884 0.043909 0.054596 -0.18841 
-0.22359 -0.17427 -0.091075 -0.047012 0.026152 0.03536 0.031249 -0.14155 
-0.084005 -0.24365 -0.12264 -0.040271 0.040456 0.088136 0.070544 -0.059178 
0.062488 -0.13152 -0.038956 0.023522 0.11411 0.1442 0.1271 0.026974 
0.080902 0.097344 0.14453 0.15061 0.16278 0.14535 0.11658 0.11066 
-0.14106 0.08304 0.17577 0.13467 0.13039 0.13976 0.1031 0.091425 
-0.33391 -0.022021 0.075476 0.084026 0.078436 0.13434 0.06479 0.0080668 
-0.35381 -0.15914 -0.055232 0.0095465 0.026974 0.064132 0.039799 -0.11212 
-0.2282 -0.23198 -0.091404 -0.022679 0.01974 0.048677 0.027468 -0.097322 
0.046704 -0.15257 -0.049807 0.0064227 0.042758 0.052787 0.024015 0.0079024 
0.26406 0.00099702 0.0052718 0.085177 0.051801 0.042758 0.021384 0.15374 
0.31338 0.069064 -0.0027845 0.040621 0.0018191 -0.0096899 -0.0060728 0.19501 
0.25337 0.061172 -0.040271 0.00033937 -0.035338 -0.032872 0.0069159 0.13401 
0.22082 0.10195 -0.053424 -0.0014692 -0.042079 -0.022185 0.0092177 0.039305 
0.13203 0.13335 -0.017417 -0.051944 -0.028926 -0.011498 -0.0087034 -0.061809 
0.055582 0.16245 0.072024 -0.022021 -0.0091966 0.0013258 0.0026412 -0.085156 
0.053445 0.17396 0.15012 0.035853 -0.0022913 0.0036276 0.0069159 -0.070523 
0.065612 0.18498 0.18465 0.046704 0.018096 0.045718 0.035524 -0.05326 
-0.018239 0.098823 0.12809 0.036182 0.036182 0.04506 -0.0031133 -0.12363 
-0.14369 -0.023665 0.03799 0.048348 0.047691 0.016452 -0.021034 -0.29051 
-0.24727 -0.057699 -0.008539 0.012013 0.050814 0.014643 -0.021528 -0.43486 
-0.40149 -0.056383 0.015794 0.015794 0.035195 -0.0027845 -0.017911 -0.39376 
-0.42829 -0.077428 0.018425 0.1003 0.035853 0.012342 0.00066819 -0.218 
-0.20584 -0.016102 0.086985 0.11378 0.072681 0.049828 0.048841 -0.020706 
0.082546 0.13795 0.13483 0.13467 0.073175 0.074654 0.074654 0.13253 
0.26899 0.1516 0.027632 0.084026 0.066105 0.060515 0.069064 0.33525 
0.2708 -0.036489 -0.16227 -0.06 0.043416 0.026974 0.050979 0.51134 
0.25321 -0.039449 -0.20633 -0.10423 0.0039565 -0.01232 0.010533 0.79791 
0.25271 0.0039565 -0.12231 -0.077922 -0.0075525 -0.017911 -0.020048 0.68578 
0.14272 0.016616 0.0087245 -0.0088678 -0.018568 -0.010183 -0.030077 0.38211 
0.08978 0.1248 0.13976 0.058213 -0.054739 -0.046354 -0.031886 0.18136 
0.18284 0.29086 0.19665 0.079751 -0.088608 -0.098802 -0.036983 0.020069 
0.12036 0.22213 0.041114 -0.041586 -0.1233 -0.10341 -0.046025 -0.15618 
0.01004 0.041114 -0.074469 -0.10258 -0.05885 -0.028104 -0.014293 -0.28262 
-0.10258 -0.05589 -0.014129 -0.010676 0.11346 0.074819 0.057391 -0.33211 
-0.15487 -0.023829 0.11378 0.11822 0.19451 0.14585 0.10178 -0.29807 
-0.14385 0.098988 0.20651 0.21802 0.23134 0.16081 0.1054 -0.3178 
-0.10456 0.12349 0.16558 0.21556 0.21605 0.19714 0.10951 -0.36236 
0.00083261 -0.039449 0.018589 0.079258 0.075148 0.10145 0.031249 -0.32306 
0.090274 -0.18709 -0.033859 -0.05885 -0.052602 -0.042901 -0.023007 -0.10028 
0.21819 -0.034352 0.0042853 -0.030899 -0.070194 -0.072496 -0.022185 0.31421 
0.29974 0.18202 0.060022 0.039799 -0.008539 -0.037147 0.014643 0.70272 
0.34462 0.34347 0.11083 0.080902 0.0090533 -0.024652 0.033222 0.68529 
0.15637 0.25469 0.031249 0.041607 -0.024158 -0.022843 -0.0062372 0.32292 
-0.1723 -0.049478 -0.17969 -0.075455 -0.033037 -0.046519 0.015301 0.056076 
-0.29643 -0.19235 -0.17493 -0.11919 -0.033201 -0.032872 0.0065871 -0.076113 
-0.13168 -0.094692 0.012342 -0.0036066 -0.0022913 -0.011498 0.014972 -0.10505 
0.086492 0.10113 0.17906 0.10491 0.0592 0.028947 0.018096 -0.050136 
0.15094 0.14667 0.17511 0.12283 0.07301 0.030756 -0.046683 -0.063289 
0.049335 0.10819 0.10491 0.064954 0.035853 0.026646 -0.029584 -0.098638 
-0.041257 0.010862 -0.068057 -0.056712 -0.018733 0.01826 -0.0031133 -0.19202 
-0.06444 -0.0098543 -0.18035 -0.13596 0.0074092 0.045718 0.012835 -0.34394 
-0.051122 0.018754 -0.17739 -0.095349 0.0227 0.059693 0.044731 -0.36532 
0.078765 0.068736 -0.093048 -0.001798 0.039141 0.052459 0.062817 -0.011827 
0.26439 0.18777 0.061995 0.072353 0.010369 0.0031344 0.05065 0.38178 
0.37323 0.28494 0.20471 0.14881 0.0051074 -0.03501 0.032071 0.54143 
0.36632 0.34084 0.3119 0.16278 0.011191 -0.038133 -0.0067304 0.41499 
0.2371 0.12743 0.24729 0.11066 0.024344 -0.043888 -0.033694 0.11296 
0.071037 -0.061645 0.14009 0.087808 0.065447 -0.0138 -0.010348 -0.15766 
-0.071345 -0.12692 0.10096 0.057062 0.10063 0.042429 0.02829 -0.20567 
-0.18216 -0.14796 0.060022 0.072353 0.1368 0.10392 0.049499 -0.076771 
-0.18643 -0.098802 0.075148 0.12875 0.14601 0.11839 0.087808 0.0039565 
-0.088773 0.012835 0.11214 0.094055 0.11674 0.10063 0.084355 -0.034023 
0.069064 0.14437 0.095535 0.03536 0.047691 0.061172 0.041936 -0.067399 
0.15966 0.1322 0.037826 0.034866 0.019411 0.010533 0.058871 0.084848 
0.1636 0.030756 0.00033937 -0.016431 -0.038956 -0.021692 0.097179 0.19895 
0.2075 -0.0082102 -0.089759 -0.022514 -0.061809 -0.013965 0.14913 0.23414 
0.11543 -0.084334 -0.17361 -0.058685 -0.023172 -0.011498 0.11757 0.077121 
-0.16901 -0.2282 -0.2573 -0.098473 0.0037921 0.039305 0.066434 -0.10867 
-0.31714 -0.206 -0.2157 -0.085978 0.04095 0.062817 0.062323 -0.26042 
-0.23839 -0.09091 -0.10423 -0.0060728 0.051801 0.06479 0.062652 -0.2448 
-0.066741 0.015137 0.040785 0.029276 0.0014903 0.0080668 0.031742 -0.089266 
0.08156 0.14667 0.16475 0.068407 -0.010348 -0.013965 -0.051615 0.074654 
0.076956 0.24038 0.17758 0.10293 -0.0091966 -0.045696 -0.13875 0.13993 
0.062652 0.22542 0.15637 0.067091 -0.014787 -0.1039 -0.16851 0.12447 
0.10408 0.18563 0.082875 0.053609 0.0016547 -0.088937 -0.17049 0.14831 
0.18218 0.13713 0.046046 0.043251 -0.0040998 -0.042408 -0.11557 0.15423 
0.22526 0.14996 0.10606 0.051636 0.028783 -0.00097594 -0.064768 0.2149 
0.15538 0.10885 0.15982 0.065118 0.0034632 0.0034632 -0.037476 0.1419 
0.10178 0.096193 0.1368 0.07597 -0.017417 0.017603 0.0023123 0.10277 
0.10902 0.09833 0.13746 0.038812 0.0016547 0.021549 0.061501 0.066105 
0.040128 -0.0072237 0.065612 0.03092 0.042594 0.036675 0.097015 0.020398 
-0.07266 -0.087458 0.028454 0.025659 0.090274 0.051965 0.12612 -0.084991 
0.0023123 0.068571 0.07597 0.067749 0.12464 0.11806 0.16245 -0.094034 
0.085835 0.099316 0.11855 0.073339 0.13154 0.13894 0.15078 -0.034516 
-0.012814 -0.044217 0.053938 0.052623 0.10425 0.089616 0.12069 -0.046519 
-0.16375 -0.099789 0.00017495 0.03536 0.063968 0.068242 0.063968 -0.044052 
-0.2254 -0.093048 -0.082854 -0.0057439 -0.012485 0.0067515 0.021878 -0.022679 
-0.17509 -0.047341 -0.13941 -0.049642 -0.071345 -0.029748 0.0023123 0.0227 
-0.01676 0.068242 -0.10867 -0.064768 -0.088773 -0.068714 -0.018404 0.061501 
0.17347 0.21967 -0.0032777 -0.018568 -0.067399 -0.054575 -0.0036066 0.147 
0.27507 0.26702 0.052459 0.031249 -0.0091966 -0.0034422 0.010533 0.15883 
0.17758 -0.0096899 -0.12429 -0.095843 -0.013471 0.0067515 -0.023829 0.12201 
0.11247 -0.22606 -0.19811 -0.19597 0.00297 -0.00031829 -0.027118 0.06742 
0.13236 -0.030242 -0.057699 -0.055068 0.059857 0.040128 -0.029255 0.12085 
-0.059672 0.1202 0.18876 0.12562 0.084684 0.068078 -0.018404 0.1835 
-0.25631 0.11214 0.34495 0.20882 0.086657 0.050486 0.0083956 0.15061 
-0.18183 0.12579 0.36452 0.18169 0.017274 0.047691 0.036182 0.012013 
0.014479 0.20569 0.22493 0.070708 -0.0406 0.041936 0.021384 -0.080552 
0.10458 0.14881 0.03388 -0.074962 -0.03912 0.064461 0.040456 -0.16621 
0.010697 -0.085978 -0.16506 -0.18578 0.018096 0.11806 0.038155 -0.23296 
-0.040435 -0.10867 -0.12314 -0.1473 0.10852 0.17363 0.055747 -0.13711 
-0.052437 -0.042737 0.0085601 -0.0096899 0.14996 0.18596 0.054432 -0.023501 
-0.15799 -0.10209 -0.020212 -0.029091 0.11937 0.14979 0.087972 0.027796 
-0.10143 -0.027611 -0.072332 -0.028926 0.073668 0.095699 0.068242 0.044238 
0.11592 0.14617 -0.10242 -0.057534 0.04095 0.0059294 0.034373 0.057062 
0.24318 0.26965 -0.052109 -0.038956 -0.015938 -0.10653 0.0072447 0.053445 
0.23035 0.20635 0.055582 0.019905 -0.031557 -0.10554 -0.038956 0.066269 
0.085012 0.082217 0.097179 0.048841 -0.049149 -0.096336 -0.0077169 0.016452 
-0.011498 -0.055068 0.074326 0.056733 -0.048656 -0.078415 -0.040271 0.0062583 
0.05213 0.025495 0.06742 0.081395 -0.00097594 -0.0022913 -0.040271 0.019411 
0.029934 0.010533 0.074819 0.11477 0.015959 0.016781 0.0028056 0.021549 
0.031249 0.064296 0.15489 0.15374 0.028783 0.014972 0.10951 0.057062 
0.08715 0.16146 0.099481 0.14009 0.061501 0.070215 0.16574 0.050157 
0.039963 -0.031228 -0.098309 -0.0055795 0.013657 0.033222 0.11231 -0.015938 
0.014808 -0.10883 -0.15766 -0.092719 -0.018239 0.077943 0.098494 -0.01232 
0.052623 -0.016266 -0.011005 -0.018733 0.049335 0.10195 0.11329 0.077778 
0.011191 0.063803 0.10655 0.1105 0.089616 0.12562 0.13269 0.075805 
-0.077922 0.039799 0.14223 0.14239 0.048019 0.063639 0.09981 0.048513 
-0.098638 0.021713 0.086657 0.1276 -0.031557 0.034702 0.049664 0.032071 
-0.02087 -0.011334 -0.058192 0.036017 -0.021199 0.0065871 -0.040928 0.0028056 
0.082053 -0.069372 -0.17197 -0.0771 0.071037 0.0090533 -0.089924 0.011684 
0.13154 -0.041915 -0.095678 -0.064933 0.15012 0.076792 0.0060938 0.030098 
0.07301 0.0046141 0.051801 0.055747 0.23249 0.15653 0.11214 0.083697 
-0.021528 0.060186 0.16344 0.15012 0.18909 0.15522 0.12529 0.1465 
-0.040928 0.047362 0.15686 0.17528 0.10359 0.0689 0.11937 0.12414 
0.013492 0.036182 0.090438 0.14815 -0.0080457 -0.035832 0.1077 0.061666 
0.086492 0.089945 0.028619 0.09422 -0.073976 -0.081868 0.044402 0.019576 
0.15883 0.11346 0.014643 0.053938 -0.088937 -0.10225 0.0046141 0.046046 
0.17232 0.056076 -0.029913 0.024673 -0.0771 -0.097158 -0.052602 0.12497 
0.12875 0.00099702 -0.053753 0.023686 -0.05885 -0.060987 -0.062302 0.13039 
0.11839 0.040621 -0.032215 0.020891 -0.023007 -0.027611 0.0064227 0.10195 
0.013492 0.052459 0.0075736 0.042594 0.021056 0.024837 0.075312 0.022042 
-0.16128 0.059857 0.069722 0.085835 0.044402 0.1271 0.13467 -0.058028 
-0.22293 0.075148 0.12546 0.12858 0.073832 0.18004 0.18037 -0.12856 
-0.089102 0.11543 0.15719 0.16081 0.069064 0.20224 0.19632 -0.080717 
0.099316 0.11494 0.11526 0.18695 0.06742 0.15341 0.15472 0.0031344 
0.18942 0.019083 0.041278 0.12036 0.045718 0.079587 0.088465 0.097344 
0.18695 -0.030077 0.021384 0.085012 0.02533 -0.0062372 0.0028056 0.075312 
0.16377 0.01711 0.06594 0.097344 0.022535 -0.097487 -0.086964 0.0093821 
0.1345 0.10491 0.098988 0.11921 0.0042853 -0.16638 -0.16818 -0.071838 
0.10573 0.12595 0.11148 0.12858 -0.0027845 -0.20551 -0.2545 -0.032215 
0.11888 0.14157 0.072517 0.12924 0.0013258 -0.18775 -0.27637 0.033387 
0.10211 0.089123 0.042923 0.10491 0.01004 -0.13382 -0.17821 0.11411 
0.033058 0.034209 0.03651 0.090274 0.0026412 -0.068057 -0.014293 0.18678 
-0.022514 0.034373 -0.001798 0.059528 0.0069159 -0.021856 0.081067 0.17528 
-0.042573 0.064461 -0.030899 0.024508 -0.0031133 0.015465 0.038483 0.045224 
0.0080668 0.14798 0.056898 0.064625 0.054596 0.044073 -0.016924 0.0026412 
-0.081374 0.082546 0.16031 0.14256 0.12036 0.12233 0.065447 -0.05441 
-0.19268 0.0098754 0.13483 0.18465 0.13072 0.18859 0.11839 -0.086142 
-0.13103 0.037497 0.15719 0.19369 0.084684 0.093562 0.14042 0.016616 
0.055418 0.18728 0.18119 0.20651 -0.020541 -0.034516 0.096193 0.12776 
0.13582 0.17117 0.092082 0.16508 -0.10373 -0.054575 0.074326 0.11247 
0.035524 0.021056 -0.095843 0.016288 -0.11541 -0.0013048 0.078929 -0.0040998 
0.05772 0.0088889 -0.14615 -0.058521 -0.039778 0.086657 0.073339 -0.12626 
0.17511 0.058542 -0.1085 -0.024816 0.050321 0.094055 0.046211 -0.20419 
0.15522 0.012835 0.012177 0.031249 0.10869 0.076463 0.013164 -0.15388 
0.11724 0.020398 0.095535 0.098659 0.10063 0.08715 0.024673 -0.12412 
0.02681 0.061995 0.15604 0.1539 0.05213 0.047197 0.018754 -0.027447 
-0.049642 0.051801 0.16475 0.17495 -0.072003 -0.093376 -0.042573 0.021056 
0.038648 0.096686 0.13335 0.15949 -0.10834 -0.17756 -0.12215 0.047362 
0.15703 0.024837 -0.034352 0.075476 -0.079401 -0.17608 -0.1501 0.33492 
0.10672 -0.18841 -0.29347 -0.12346 -0.01939 -0.090581 -0.1404 0.52926 
0.19287 -0.15043 -0.31106 -0.20205 0.045224 0.00033937 -0.065097 0.47336 
0.30763 0.025824 -0.0077169 -0.04619 0.16936 0.12217 0.063145 0.2879 
0.13762 0.1105 0.21753 0.1516 0.23627 0.21835 0.20175 0.17182 
-0.075291 0.091918 0.26357 0.23052 0.2052 0.26784 0.23562 0.0324 
-0.22441 0.066927 0.15982 0.20273 0.1054 0.17281 0.19616 -0.24102 
-0.23642 0.03536 0.046704 0.15144 -0.037969 0.062817 0.076956 -0.5562 
-0.20814 0.046868 -0.022514 0.068407 -0.08532 -0.059672 -0.0060728 -0.70763 
-0.29363 0.079094 -0.060165 0.015465 -0.10225 -0.10521 -0.053917 -0.84442 
-0.40658 0.019905 -0.072167 -0.012814 -0.094527 -0.11623 -0.060823 -0.8556 
-0.40297 -0.037147 -0.063124 -0.022185 -0.063782 -0.086307 -0.025967 -0.58843 
-0.42845 -0.086636 -0.035503 -0.0098543 -0.032872 -0.055397 -0.045039 -0.27653 
-0.413 -0.069701 -0.040435 0.026152 -0.021034 0.013657 -0.013636 0.015137 
-0.3224 -0.090088 -0.023007 0.02122 0.01152 0.047855 0.066434 0.20602 
-0.014129 -0.04323 0.00099702 0.037332 0.061337 0.098659 0.13976 0.36797 
0.28626 0.018754 0.0080668 0.047691 0.095699 0.09685 0.15834 0.43702 
0.50789 0.061337 0.040621 0.063474 0.09981 0.076299 0.10129 0.53518 
0.53436 0.068407 0.064296 0.07597 0.064954 0.042265 0.01826 0.51791 
0.44376 0.082546 0.070708 0.11247 0.040292 0.03799 -0.0057439 0.35909 
0.35695 0.15752 0.13253 0.15259 0.039141 0.096521 0.051636 0.14733 
0.25354 0.21046 0.18152 0.19829 0.042429 0.1054 0.089945 0.0421 
0.12908 0.1927 0.15768 0.19994 0.047197 0.077449 0.11526 -0.010512 
-0.054082 0.088465 0.088958 0.14683 -0.032872 0.033715 0.1105 -0.061645 
-0.21241 -0.042737 -0.02498 0.077285 -0.0771 0.0013258 0.10967 -0.075784 
-0.16407 1.0539e-005 0.075805 0.10573 -0.058521 0.01004 0.09126 -0.029255 
0.028454 0.22164 0.12809 0.17347 -0.011334 -0.0013048 0.069722 -0.0040998 
0.051801 0.27425 0.11954 0.16607 0.024673 -0.0090322 0.025988 -0.095349 
-0.13004 -0.077593 -0.11837 0.010862 0.01826 -0.00064712 -0.0034422 -0.17493 
-0.13037 -0.32076 -0.34871 -0.18265 0.047526 0.070544 0.10047 -0.19202 
0.087972 -0.14813 -0.29248 -0.22228 0.15176 0.20734 0.17971 -0.079237 
-0.093048 -0.10982 -0.094856 -0.11886 0.25436 0.28987 0.23496 -0.03057 
-0.38998 -0.12971 0.03947 0.035688 0.30714 0.30878 0.24022 0.031578 
-0.23872 0.050814 0.18974 0.14831 0.21342 0.23973 0.19435 0.078107 
0.12135 0.24647 0.24153 0.22345 0.049992 0.1202 0.13647 0.16229 
0.27507 0.18859 0.17084 0.20586 -0.063289 -0.04882 -0.0019624 0.16689 
0.17922 -0.040928 -0.011827 0.08156 -0.15388 -0.16572 -0.14188 0.093726 
0.02533 -0.22458 -0.22425 -0.09387 -0.14073 -0.19926 -0.24332 0.046375 
-0.087786 -0.21422 -0.37633 -0.22113 -0.0503 -0.10554 -0.17608 0.098823 
-0.041257 -0.067728 -0.33309 -0.25664 0.0026412 -0.020377 -0.0771 0.2782 
0.1733 0.12644 -0.18841 -0.18019 -0.0070593 0.0079024 -0.053588 0.50838 
0.40348 0.23923 0.03947 -0.023829 -0.010512 -0.082361 -0.14451 0.70699 
0.46514 0.31552 0.22674 0.15028 -0.027447 -0.16079 -0.19679 0.55902 
0.37619 0.30598 0.3267 0.25354 0.00297 -0.13941 -0.089759 0.3854 
0.26357 0.21835 0.28149 0.27787 0.024837 -0.061809 0.0039565 0.22328 
0.065776 0.11115 0.14946 0.22822 0.025988 0.0093821 0.014808 0.091753 
-0.1866 0.0093821 0.066269 0.13434 0.066763 0.062159 0.020069 -0.070852 
-0.20847 -0.021692 0.054925 0.098166 0.083533 0.1248 0.097837 -0.1159 
0.10803 0.02122 0.049006 0.079587 0.076627 0.17034 0.16541 -0.044874 
0.43341 0.096357 0.055418 0.068736 0.086821 0.14174 0.1858 0.014315 
0.51479 0.1881 0.086821 0.082711 0.038483 0.084026 0.15275 -0.10127 
0.33821 0.23841 0.046868 0.094713 0.019247 0.04654 0.078272 -0.14303 
0.086163 0.17824 0.059035 0.080573 0.011026 0.0093821 0.01267 -0.12856 
-0.12774 -0.006566 -0.034352 0.0056006 0.032236 -0.019061 -0.061809 -0.16227 
-0.15783 -0.13136 -0.11689 -0.080388 0.047526 -0.025967 -0.083676 -0.029091 
-0.014129 -0.13366 -0.08269 -0.089759 0.034702 -0.032543 -0.093705 0.24564 
0.17265 0.019905 0.055254 0.0065871 0.041772 -0.00015387 -0.050958 0.48766 
0.15078 0.13253 0.14404 0.11526 0.057884 0.01974 -0.015444 0.46908 
0.049006 0.059364 0.075148 0.036839 0.044896 0.011355 -0.031064 0.34166 
-0.015773 -0.051615 -0.032543 -0.053095 0.012013 -0.013143 -0.042737 0.19057 
0.0052718 -0.029913 -0.065262 -0.077593 -0.016924 -0.026953 -0.046025 0.099974 
0.14338 0.15555 -0.046519 -0.095349 -0.0090322 0.012177 0.049992 0.085999 
0.27902 0.2417 -0.070523 -0.11919 -0.012156 0.041443 0.091589 0.004943 
0.31569 0.062323 -0.16802 -0.17197 -0.0026201 0.024837 0.035195 -0.11146 
0.19468 -0.22425 -0.17049 -0.15503 -0.056548 0.011848 -0.017088 -0.18035 
-0.10176 -0.28179 -0.07003 -0.060823 0.046046 0.024673 0.040128 -0.20123 
-0.47383 -0.15437 0.12036 0.08567 0.094055 0.069393 0.090438 -0.24661 
-0.49109 0.014808 0.21802 0.14206 0.092082 0.14042 0.10655 -0.20847 
-0.18019 0.21145 0.2588 0.14634 0.073504 0.13812 0.095371 -0.089102 
0.13335 0.21885 0.24334 0.11313 0.051801 0.062323 0.023686 -0.01676 
0.15275 0.19994 0.1368 0.046704 0.00066819 -0.024816 0.0031344 -0.0068948 
0.097837 0.18333 0.13499 0.0093821 -0.03501 -0.024487 0.00297 -0.013307 
0.060186 0.15752 0.16081 0.02681 -0.044546 0.0032988 0.062323 -0.11985 
0.013657 0.12102 0.11444 0.020398 -0.022679 0.015301 0.092247 -0.24086 
-0.019555 0.099316 0.07597 0.010862 -0.0026201 0.032236 0.050321 -0.29363 
-0.014951 0.084519 0.045882 0.0074092 0.030592 0.028619 -0.04323 -0.21307 
