0.076956 0.056569 0.084519 0.11263 0.055254 0.0098754 -0.05589 0.35597 
0.11477 0.077943 0.11872 0.14815 0.11691 0.059364 0.028454 0.31388 
0.080244 0.088301 0.058542 0.1322 0.10096 0.084519 0.079587 0.21062 
-0.013636 0.068407 0.031414 0.084355 0.055418 0.027468 0.016288 0.049335 
-0.069372 0.029441 -0.0077169 0.079258 0.0070803 -0.027118 0.0016547 -0.014787 
-0.025145 0.06331 -0.011498 0.051472 -0.022843 -0.019719 0.010533 -0.0060728 
-0.0029489 0.087479 0.045718 0.078929 -0.014458 0.022371 0.077778 -0.045696 
0.027961 0.063803 0.066763 0.096357 -0.0064016 0.073339 0.11757 -0.14171 
0.061666 0.024179 0.043251 0.093891 -0.0031133 0.055418 0.13203 -0.30054 
0.040785 0.014972 0.020727 0.063145 0.010204 0.044896 0.11066 -0.28311 
0.004943 0.025001 -0.035503 0.051801 0.038319 0.040456 0.10129 -0.071016 
-0.031392 0.049499 -0.063946 0.0072447 0.052787 0.037661 0.079422 0.04654 
-0.054575 0.013164 -0.05441 -0.0004827 0.027796 -0.018897 0.020398 -0.0052507 
-0.047012 0.017932 -0.004593 0.020562 0.012013 -0.06296 -0.010019 -0.079237 
-0.018733 0.050321 0.0324 0.048841 0.023193 -0.05441 -0.027447 -0.09387 
0.022535 0.076956 0.080738 0.083368 0.042758 -0.018568 -0.033694 0.03092 
0.011684 0.08419 0.085012 0.12677 0.063474 -0.011498 -0.0406 0.1271 
0.029934 0.11872 0.12168 0.14437 0.065447 0.015794 -0.03057 0.17725 
0.11296 0.093891 0.11543 0.14881 0.021713 0.017603 -0.031228 0.20619 
0.19747 0.077778 0.09126 0.13269 0.0014903 0.051143 0.013657 0.25485 
0.15735 0.062159 0.066105 0.11526 -0.008539 0.045718 0.080573 0.25502 
0.0087245 -0.00031829 0.037497 0.086163 0.0064227 0.020398 0.063968 0.19353 
-0.14878 -0.11343 0.025495 0.075476 0.01267 0.017932 0.038155 0.031414 
-0.18857 -0.063453 0.015794 0.085835 0.0069159 0.025166 0.034044 -0.09798 
-0.084169 0.074983 0.036182 0.087808 0.017274 -0.0031133 0.0046141 -0.10834 
0.079587 0.1858 0.041278 0.082875 0.04506 0.024673 0.012999 0.018918 
0.19385 0.21375 0.045553 0.088794 0.07449 0.053281 0.016781 0.14798 
0.19813 0.17495 0.027468 0.068571 0.055747 0.059857 0.0052718 0.11691 
0.12365 0.094384 -0.046519 0.020562 0.032071 0.0079024 0.014315 -0.01939 
0.078929 -0.015609 -0.1136 -0.0077169 0.0026412 0.00083261 0.061337 -0.15372 
-0.02646 -0.10604 -0.10883 -0.038627 0.013492 -0.018075 0.028454 -0.34986 
-0.14402 -0.11294 -0.076277 -0.032543 0.034044 0.015301 -0.035667 -0.56196 
-0.1843 -0.1085 -0.0031133 0.015301 0.090109 0.029441 -0.062467 -0.52069 
-0.15684 -0.1108 0.049828 0.056733 0.10704 -0.0032777 -0.015938 -0.23822 
-0.10439 -0.075949 0.060679 0.0786 0.039141 -0.0026201 0.021056 0.066927 
-0.027118 -0.0057439 0.016616 0.090438 0.014479 0.010369 0.053774 0.20865 
0.052787 0.055254 0.01004 0.069229 -0.0004827 -0.028104 0.05476 0.28823 
0.15292 0.13779 0.057884 0.087972 0.0083956 -0.054904 0.025988 0.33163 
0.20191 0.20503 0.082382 0.11313 0.022042 -0.047669 0.051801 0.25715 
0.20208 0.25683 0.099481 0.13335 0.004943 -0.06296 -0.086471 0.24301 
0.14519 0.16048 0.10836 0.13236 -0.014787 -0.082854 -0.24464 0.17725 
0.095864 0.13631 0.05772 0.15111 -0.011827 -0.060658 -0.16473 0.10984 
0.088136 0.076956 0.029769 0.10359 0.019905 0.064132 -0.035667 0.034209 
0.035853 0.025988 -0.01117 0.058377 0.060679 0.14634 0.11855 -0.018075 
-0.0044286 -0.052109 -0.066577 0.0075736 0.039799 0.17643 0.18859 -0.090581 
-0.0072237 -0.022185 -0.040271 -0.0024557 0.041772 0.12529 0.19895 -0.084991 
-0.01117 0.043909 0.0324 0.025988 0.031907 0.08863 0.13368 -0.069043 
-0.039284 0.059528 0.061501 0.092411 0.044567 0.093398 0.10754 -0.0032777 
-0.039613 0.079094 0.10392 0.12579 0.067585 0.083368 0.072846 0.055747 
0.01267 0.09981 0.1003 0.13631 0.054103 0.095371 0.08419 0.097837 
0.10145 0.11444 0.08863 0.12644 0.039799 0.12562 0.10425 0.10951 
0.15883 0.035524 0.062817 0.10408 0.029112 0.1345 0.10408 0.11033 
0.15851 0.022535 0.071695 0.10195 0.014479 0.12513 0.13483 0.10178 
0.1003 0.10425 0.071037 0.11888 0.054432 0.13088 0.15637 0.071531 
0.0083956 0.064132 0.047855 0.10211 0.066434 0.11691 0.17643 0.029769 
-0.068714 0.010533 0.010697 0.08008 0.053938 0.085999 0.097015 -0.033201 
-0.064275 0.0059294 0.017932 0.065118 0.042923 0.0227 -0.013636 0.013164 
0.019083 0.040785 0.052787 0.083697 0.033715 -0.038133 -0.10538 0.020562 
0.079916 0.021713 0.055911 0.079587 -0.015938 -0.12133 -0.12593 -0.00097594 
0.04654 -0.0080457 0.020727 0.063145 -0.026789 -0.13629 -0.06296 -0.066413 
0.035195 0.023522 -0.050629 0.041278 -0.035832 -0.099295 0.056076 -0.011663 
0.021056 0.018096 -0.068221 -0.0032777 -0.027775 -0.082525 0.074161 -0.033859 
-0.06296 -0.034681 -0.03616 0.00297 -0.029913 -0.10587 -0.064275 -0.16276 
-0.075784 -0.016102 0.016452 0.039305 -0.0082102 -0.051122 -0.21702 -0.15372 
0.0059294 0.014808 0.02681 0.047362 0.03388 0.040785 -0.13152 0.082053 
0.097015 0.014972 0.0227 0.055582 0.025001 0.10672 0.028783 0.22723 
0.14733 0.01004 0.0088889 0.093398 0.0098754 0.12365 0.10507 0.317 
0.17922 0.016452 0.052294 0.096028 0.025001 0.15637 0.20668 0.28905 
0.082546 0.0227 0.1054 0.12908 0.011191 0.17478 0.27343 0.20224 
0.0051074 0.073175 0.1276 0.15275 0.027139 0.14239 0.27935 0.15357 
0.038319 0.14963 0.11526 0.14453 0.044402 0.10425 0.23282 0.11395 
0.0227 0.16377 0.10096 0.13088 0.029934 0.050486 0.088136 0.10787 
0.0324 0.11346 0.037661 0.11526 0.023686 -0.033365 -0.047012 0.13335 
0.0067515 -0.021856 -0.042244 0.044238 0.01267 -0.12462 -0.11442 0.081067 
-0.075784 -0.12297 -0.095185 -0.015773 -0.0057439 -0.1552 -0.12675 -0.10242 
-0.016431 -0.044381 -0.067728 -0.021528 -0.0021268 -0.12955 -0.088773 -0.082854 
0.020562 0.040292 0.024015 0.02829 0.03536 -0.062796 -0.15947 -0.0082102 
-0.045696 0.036017 0.087808 0.081395 0.11526 -0.017746 -0.19696 -0.0067304 
-0.096994 -0.012156 0.040621 0.098988 0.049664 0.03536 -0.11574 -0.067235 
-0.033694 -0.040271 0.01563 0.078107 0.037332 0.031578 0.025495 -0.068879 
0.028947 0.04506 0.062817 0.096357 0.059693 0.0044497 0.087479 0.075805 
0.049992 0.057555 0.098494 0.12792 0.033551 -0.0021268 0.11921 0.24269 
0.023193 0.082711 0.090274 0.12201 -0.0077169 -0.0047575 0.056569 0.27853 
0.029441 0.058377 0.095864 0.1202 -0.011498 -0.028433 0.04095 0.24055 
0.1151 0.10458 0.062323 0.12431 -0.0029489 -0.038462 0.043416 0.18958 
0.1636 0.13319 0.016945 0.086492 0.040128 -0.016431 0.029769 0.22838 
0.19287 0.1031 -0.031886 0.038483 0.038812 0.029605 0.013986 0.3489 
0.12858 0.020727 -0.069372 -0.0042642 0.013657 0.05065 -0.019061 0.37356 
-0.037476 -0.098473 -0.12675 -0.060165 -0.018897 0.027632 -0.046354 0.16952 
-0.15684 -0.16572 -0.08828 -0.061809 -0.010841 0.025166 -0.0082102 -0.25286 
-0.21948 -0.17772 -0.031886 -0.0029489 0.025988 0.068078 0.08008 -0.87566 
-0.24579 -0.10587 -0.0077169 0.02533 0.045389 0.079258 0.076792 -1.4906 
-0.11524 0.037826 0.051308 0.067585 0.078929 0.044402 -0.0029489 -1.2438 
0.099316 0.19385 0.076627 0.10047 0.06742 0.021384 -0.081374 -0.33901 
0.2851 0.20323 0.10441 0.12875 0.031578 -0.0040998 -0.15536 0.46991 
0.29497 0.11839 0.080738 0.11362 0.017274 -0.070687 -0.15832 0.71538 
0.19073 0.074983 0.068736 0.10918 0.0072447 -0.094527 -0.16753 0.60588 
0.11724 0.08419 0.010204 0.094548 -0.023336 -0.085813 -0.13464 0.45198 
0.064461 0.073997 0.044402 0.093398 0.042923 0.0011614 0.0032988 0.3318 
-0.02794 0.03536 0.06594 0.10606 0.074326 0.067585 0.159 0.30911 
-0.13629 0.044073 0.091918 0.12365 0.063639 0.049664 0.19024 0.19057 
-0.145 0.069886 0.14601 0.15111 0.051472 0.01152 0.16377 -0.076935 
-0.021692 0.12776 0.19501 0.19977 0.040785 0.032893 0.20323 -0.28344 
0.11313 0.17741 0.14502 0.2149 0.045718 0.029769 0.24926 -0.31451 
0.075476 0.13582 0.096028 0.16689 0.020233 -0.0087034 0.23775 -0.26568 
-0.0098543 0.074983 0.037661 0.11888 0.019576 -0.038298 0.037168 -0.1016 
0.055747 0.051472 0.040128 0.098823 0.014643 -0.048985 -0.19926 -0.043888 
0.21868 0.10277 0.067256 0.097344 0.025659 -0.037147 -0.26453 -0.055726 
0.29431 0.12069 0.061666 0.099316 0.015794 -0.010183 -0.23625 -0.080388 
0.22756 0.089452 0.058542 0.12973 0.069229 0.038812 -0.12149 -0.050629 
0.078436 0.097672 0.057062 0.11214 0.085341 0.06183 0.00083261 0.044731 
0.053116 0.1978 0.096521 0.12875 0.070051 0.084519 0.094055 0.13499 
0.06035 0.16245 0.072681 0.12381 0.084355 0.10836 0.1396 0.18103 
0.064461 0.033715 0.015794 0.071366 0.018754 0.095699 0.16114 0.12069 
0.037826 -0.070687 -0.080881 -0.012978 -0.035174 0.079422 0.13516 -0.023829 
-0.057205 -0.14714 -0.21027 -0.088115 -0.067892 0.034537 0.065776 -0.15816 
-0.17542 -0.24036 -0.31024 -0.19778 -0.046847 0.018425 0.10639 -0.17377 
-0.21422 -0.22655 -0.33211 -0.25121 0.0018191 0.018589 0.16196 -0.077922 
-0.11196 -0.054904 -0.17279 -0.16901 0.046046 0.086821 0.1636 -0.010512 
0.059035 0.10047 0.037661 -0.02235 0.058706 0.090603 0.12628 0.015465 
0.027632 0.098988 0.13927 0.096193 0.066105 0.12299 0.12546 0.091753 
0.0087245 0.033551 0.08156 0.13171 0.081395 0.093891 0.12973 0.075641 
0.015301 0.073175 0.04917 0.10556 0.077614 0.079751 0.0051074 0.037497 
0.051143 0.074161 0.050979 0.08978 0.047197 0.014315 -0.066577 0.0039565 
0.096357 0.093069 0.11757 0.13171 0.040128 -0.010841 -0.052109 0.047362 
0.15193 0.15242 0.16344 0.16114 0.048841 0.047526 0.045224 0.10852 
0.18761 0.1419 0.12283 0.15226 0.05213 0.12151 0.099316 0.14913 
0.20355 0.11017 0.07597 0.12908 0.061501 0.14354 0.087643 0.20355 
0.15292 0.10014 0.022206 0.098166 0.048677 0.091918 0.046046 0.16985 
0.1345 0.16212 0.025988 0.080738 0.01826 0.042429 0.083204 0.11592 
0.11559 0.13351 0.029769 0.076134 0.017438 -0.01232 0.030592 0.026646 
0.036182 0.026152 -0.020048 0.039963 0.041278 -0.014951 -0.071345 0.1151 
0.0054362 -0.00081153 -0.034188 0.01004 0.033387 -0.022843 -0.097158 0.17758 
0.067256 0.047033 -0.023829 0.0044497 0.0044497 -0.050793 -0.090746 0.22411 
0.075476 0.022864 -0.054246 0.011848 -0.039778 -0.049971 -0.0503 0.21145 
-0.027611 -0.06 -0.09798 -0.028269 -0.0032777 -0.076606 0.0026412 0.18514 
-0.10308 -0.06855 -0.088444 -0.040764 0.013657 -0.083676 -0.012978 0.17412 
-0.18265 -0.071674 -0.0503 -0.021199 0.018754 -0.079895 -0.034516 0.10145 
-0.24891 -0.12905 -0.054904 -0.024816 0.0085601 -0.030899 -0.0096899 -0.08532 
-0.18676 -0.12988 -0.003771 0.0059294 -0.0064016 0.08419 0.09685 -0.080059 
-0.0078813 0.035195 0.030592 0.080409 0.047033 0.21309 0.19994 0.011684 
0.16344 0.17347 0.084848 0.11263 0.064296 0.25485 0.2468 0.13647 
0.23266 0.22328 0.10491 0.13417 0.029112 0.15456 0.11872 0.25798 
0.22328 0.22723 0.1008 0.13664 0.011026 0.0088889 -0.037805 0.31815 
0.17051 0.15472 0.095699 0.13088 -0.0077169 -0.084169 -0.14007 0.21671 
0.087972 0.030592 0.087479 0.11888 -0.012156 -0.10258 -0.16227 0.060186 
-0.015444 -0.05885 0.017932 0.11247 0.027961 -0.00064712 -0.057041 0.014808 
-0.095185 -0.097651 -0.076277 0.02681 0.087479 0.13598 0.066434 -0.025802 
-0.063946 -0.052602 -0.088937 -0.015938 0.099974 0.18761 0.16212 -0.066413 
0.032893 0.020398 0.026646 0.039634 0.14026 0.17215 0.15604 0.020398 
-0.012978 0.0059294 0.13532 0.11642 0.12546 0.13828 0.051965 0.1197 
-0.13053 -0.032215 0.17182 0.16508 0.13006 0.022042 -0.051944 0.072846 
-0.14385 -0.029255 0.11937 0.19106 0.089616 -0.042079 -0.065426 0.034209 
-0.089759 0.015465 0.086657 0.1493 0.027961 -0.061151 0.01152 0.027303 
-0.0082102 0.14239 0.15012 0.18267 0.0227 1.0539e-005 0.028947 0.044238 
0.15489 0.28971 0.24482 0.24844 0.050486 -0.00031829 0.013986 -0.02087 
0.24564 0.37487 0.30516 0.30894 0.055089 -0.082361 -0.055397 -0.27209 
0.31421 0.35399 0.29185 0.30779 1.0539e-005 -0.2037 -0.11968 -0.24645 
0.25255 0.20832 0.13483 0.070708 -0.069536 -0.26733 -0.14287 -0.042737 
0.12957 -0.044052 -0.014129 0.037332 -0.064768 -0.23379 -0.11639 0.072846 
-0.053588 -0.26322 -0.10637 -0.023829 -0.0068948 -0.051615 0.0056006 0.30122 
-0.26716 -0.35364 -0.13514 -0.070523 0.022206 0.069064 0.11346 0.25403 
-0.35134 -0.29034 -0.10489 -0.064604 0.03651 0.12727 0.15472 -0.18693 
-0.18923 -0.10834 -0.018239 -0.0098543 0.0067515 0.12233 0.1756 -0.36417 
0.064954 0.12661 0.088794 0.081724 -0.0029489 0.090931 0.18728 -0.074304 
0.24696 0.29793 0.13368 0.15752 0.0028056 0.048513 0.20849 0.29497 
0.28708 0.25091 0.12513 0.16179 0.013986 0.054925 0.13171 0.30204 
0.16344 0.073175 0.072517 0.13138 0.0095465 -0.015444 0.033551 0.12233 
-0.0027845 0.0023123 0.044896 0.028783 0.016781 -0.060987 0.027468 -0.070687 
-0.041422 0.028619 0.053938 -0.0049219 0.033387 0.024837 0.089123 -0.23987 
-0.04323 0.087314 0.12414 0.062652 0.10343 0.17824 0.13762 -0.46347 
-0.059178 0.096193 0.14272 0.1151 0.13565 0.21885 0.10524 -0.64219 
-0.04882 0.11872 0.13483 0.078436 0.11839 0.17067 0.049335 -0.30037 
0.012506 0.080902 0.094713 0.076956 0.034537 0.047197 0.019576 0.12612 
0.067749 0.085835 0.058049 -0.021363 -0.00064712 0.0075736 -0.038298 0.27064 
0.086657 0.055747 0.042758 -0.025309 0.012835 0.031578 0.0059294 0.18202 
0.047691 0.0227 0.022206 -0.024816 0.018589 0.049335 0.074654 0.13516 
0.020233 -0.030077 -0.077428 -0.03764 -0.0078813 0.055911 0.20355 0.13319 
0.049335 -0.065755 -0.064768 -0.083018 -0.042573 0.023193 0.17495 0.13319 
0.080244 0.028619 -0.0060728 -0.032543 -0.014293 -0.009361 0.027961 0.035853 
0.10852 0.087808 0.01711 0.0070803 0.042758 -0.011005 -0.03616 0.0070803 
0.072681 0.064954 0.0064227 0.0075736 0.067256 -0.01939 -0.019719 0.035853 
-0.027118 -0.0098543 -0.031392 -0.014622 0.024179 -0.043066 -0.016924 0.055582 
-0.071016 0.067091 -0.02498 0.0056006 -0.019884 -0.059507 0.032564 -0.031721 
-0.025474 0.13039 0.035524 0.0072447 -0.014293 -0.041915 0.091425 -0.13826 
0.020562 0.11658 0.048019 0.015465 -0.0078813 -0.023994 0.071366 -0.25039 
0.041443 0.018918 -0.014293 -0.0052507 0.01152 0.039305 0.051143 -0.35183 
0.015794 -0.042244 -0.062796 -0.03353 -0.03353 0.021713 0.026152 -0.33802 
0.021878 -0.020212 -0.0771 -0.076935 -0.041422 -0.056055 -0.15766 -0.13464 
0.034373 -0.026789 -0.086964 -0.057534 -0.032215 -0.09387 -0.24414 0.15259 
0.053774 -0.051944 -0.065591 -0.025309 -0.013307 -0.025145 -0.12083 0.28938 
0.020398 -0.064933 -0.026624 0.0037921 0.037168 0.072681 0.022535 0.37109 
-0.03353 -0.013471 0.023357 0.03947 0.034373 0.12316 0.12414 0.29546 
-0.042408 0.078765 0.072353 0.035688 0.038812 0.095371 0.12447 0.16706 
0.034866 0.17577 0.10737 0.054596 0.064625 0.043909 0.048348 0.031085 
0.096357 0.1858 0.10787 0.068242 0.066763 0.0047785 -0.031064 -0.0024557 
0.15193 0.19353 0.073832 0.04654 0.033058 -0.048985 -0.10538 0.0037921 
0.10803 0.10639 0.030427 0.0064227 -0.028269 -0.10916 -0.23148 0.017767 
0.012506 -0.026296 -0.051615 -0.0016336 -0.048492 -0.044546 -0.21899 0.083204 
-0.018404 -0.041093 -0.060165 -0.05589 -0.037147 0.02681 -0.015938 0.11987 
0.031578 0.032564 -0.020212 -0.093212 -0.038298 0.068407 0.095864 0.049006 
0.015137 0.08978 0.025166 0.0023123 0.011848 0.033222 0.17149 -0.073318 
0.0018191 0.028783 -0.025474 0.0028056 0.072188 0.063968 0.15094 -0.063124 
-0.0050863 -0.0022913 -0.026296 0.0085601 0.075805 0.05065 0.093069 0.038155 
0.051143 0.08008 0.0056006 0.058213 0.056733 0.044567 0.063639 0.183 
0.14568 0.24959 0.10326 0.081889 0.07597 0.031907 0.09274 0.15111 
0.2297 0.25304 0.13499 0.10014 0.1031 0.053445 0.028947 0.057227 
0.19139 0.065612 0.070873 0.10178 0.069722 -0.0019624 -0.1279 -0.031064 
0.087479 -0.060823 -0.047341 0.0018191 -0.033037 -0.074798 -0.21685 0.01711 
0.024344 -0.035996 -0.076606 -0.067564 -0.097158 -0.12166 -0.25204 0.21276 
-0.018239 0.051801 0.0092177 -0.023994 -0.12166 -0.18134 -0.22968 0.45593 
-0.13645 -0.013307 0.0060938 0.0069159 -0.029091 -0.14862 -0.25434 0.33657 
-0.31073 -0.20403 -0.058192 0.028947 0.066598 -0.053424 -0.26157 0.033058 
-0.42779 -0.41234 -0.15668 0.02829 0.097672 0.011848 -0.18989 -0.15964 
-0.37041 -0.38209 -0.24053 -0.013471 0.089616 0.067256 -0.068879 -0.1621 
-0.052273 -0.0083746 -0.033859 0.052787 0.13171 0.12776 0.12644 -0.01939 
0.26472 0.39707 0.24318 0.18465 0.13319 0.17544 0.27409 0.14108 
0.31273 0.42995 0.30648 0.18777 0.096193 0.1733 0.34429 0.17034 
0.15456 0.16179 0.20175 0.10228 0.051472 0.10918 0.27212 0.081231 
0.027139 -0.068879 0.024837 0.030592 -0.0055795 -0.0060728 0.10721 -0.0083746 
0.063639 -0.027611 -0.088937 -0.081045 -0.046025 -0.054246 -0.0040998 -0.045203 
0.14404 0.10639 -0.049971 -0.035667 -0.013636 -0.0095255 -0.057041 -0.055232 
0.14289 0.15686 0.075476 0.080573 0.049335 0.062652 -0.10045 -0.057041 
0.073339 0.17774 0.17215 0.12398 0.096521 0.11017 -0.057534 -0.0064016 
-0.05441 0.031085 0.13795 0.11362 0.078272 0.11017 0.071037 0.013986 
-0.15355 -0.087622 0.0023123 0.031578 -0.030406 0.0014903 0.16804 0.01267 
-0.080881 -0.035503 -0.044546 -0.057041 -0.05737 -0.066577 0.21309 0.023522 
0.077121 0.028947 0.018096 0.0024767 -0.017746 -0.035832 0.16114 0.01974 
0.066269 -0.036325 0.041443 0.06742 0.076134 0.082053 0.09126 0.016616 
-0.016595 -0.085978 -0.0083746 0.031742 0.052952 0.18317 0.048841 0.04917 
-0.073976 -0.07266 -0.055726 0.0072447 0.035031 0.1853 0.12053 0.079751 
-0.030077 -0.010348 -0.035667 0.057884 0.035688 0.17166 0.23085 0.097672 
0.084026 0.10688 0.066105 0.062981 0.071202 0.19501 0.25304 0.1396 
0.19468 0.23298 0.12612 0.10688 0.12694 0.27754 0.34298 0.14453 
0.2491 0.20931 0.11083 0.10244 0.11444 0.2805 0.37981 0.20487 
0.18432 0.051636 0.056733 0.038812 0.045553 0.092082 0.19155 0.18432 
0.066763 0.014315 0.05213 0.0080668 -0.060165 -0.14056 -0.16638 -0.011663 
-0.045039 -0.006566 0.062488 0.014315 -0.077428 -0.2282 -0.30711 -0.28821 
-0.19022 -0.12988 0.005765 -0.025638 -0.0406 -0.15191 -0.14319 -0.51115 
-0.24184 -0.19877 -0.097816 -0.047834 0.0046141 -0.026131 0.082053 -0.50342 
-0.10719 -0.10472 -0.10258 -0.017253 0.055911 -0.0034422 0.17215 -0.25565 
0.10458 0.13894 -0.00015387 0.05624 0.083533 -0.065097 0.01267 0.045224 
0.16294 0.13253 0.049499 0.07301 0.1128 -0.041093 -0.24562 0.16278 
0.16179 0.1373 0.1396 0.14453 0.098659 -0.020212 -0.41908 0.28083 
0.16442 0.19451 0.19303 0.098001 0.076463 0.092411 -0.20863 0.3974 
0.18892 0.16788 0.11395 0.061501 0.020727 0.17248 0.1105 0.38046 
0.1567 0.10408 0.1026 0.093891 0.021713 0.20125 0.28297 0.14946 
0.11066 0.17182 0.19188 0.053281 -0.022679 0.13762 0.27557 -0.0059084 
0.15045 0.36485 0.2731 0.0421 -0.058521 0.082711 0.21013 -0.059178 
0.14272 0.23529 0.11477 -0.0021268 1.0539e-005 0.097672 0.23496 -0.0083746 
-0.073482 -0.29577 -0.28656 -0.19416 -0.059507 0.020069 0.18892 -0.15832 
-0.19482 -0.52381 -0.52874 -0.27834 -0.033694 -0.064768 0.19912 -0.18002 
-0.031721 -0.19038 -0.22589 -0.056877 0.065118 -0.019884 0.25485 0.036182 
0.055911 0.094384 0.17363 0.2006 0.14897 -0.034845 0.0090533 0.20405 
0.072517 0.23315 0.34692 0.30483 0.18794 -0.051944 -0.24743 0.21671 
0.082875 0.19895 0.28034 0.25321 0.14223 0.046704 -0.18249 0.22805 
0.1003 0.10244 0.1003 0.081724 0.083862 0.15851 0.02829 0.2149 
0.2953 0.16673 0.01711 -0.02235 0.035195 0.2121 0.13861 0.20257 
0.32259 0.25518 0.10622 0.025001 0.030427 0.11987 0.10704 0.12316 
0.017932 0.14404 0.13615 0.052623 0.01826 -0.049314 -0.035832 -0.027775 
-0.37699 -0.10357 0.051965 0.0421 0.017438 -0.13234 -0.16539 -0.40478 
-0.54601 -0.23773 -0.023994 0.017932 0.015959 -0.12429 -0.22409 -0.9697 
-0.29462 -0.13991 -0.033859 -0.014951 -0.0026201 -0.16424 -0.2231 -0.73854 
0.097179 -0.0068948 -0.073811 -0.055397 -0.042573 -0.31813 -0.27472 -0.060987 
0.26768 0.011684 -0.14681 -0.1205 -0.097487 -0.42796 -0.30909 0.30434 
0.21802 -0.032215 -0.15141 -0.1205 -0.13859 -0.43618 -0.25828 0.27129 
0.16294 0.030756 -0.083676 -0.072496 -0.095678 -0.206 -0.0067304 0.2588 
0.16755 0.1299 0.078765 0.038155 0.048348 0.22148 0.31421 0.034702 
0.14338 0.22838 0.21112 0.13006 0.095371 0.42321 0.44541 -0.37896 
0.14617 0.30385 0.23118 0.14305 0.067913 0.4122 0.41368 -0.28212 
0.21474 0.32506 0.18547 0.11444 0.088958 0.31733 0.33147 0.27146 
0.22476 0.22526 0.12464 0.085177 0.072188 0.16114 0.17807 0.54143 
0.042594 -0.053588 -0.0016336 0.015794 0.033715 0.010697 -0.00031829 0.38408 
-0.16177 -0.21817 -0.084169 -0.032215 0.012177 -0.081374 -0.10637 0.16853 
-0.14434 -0.11245 -0.036818 -0.028926 0.018589 -0.1182 -0.1376 0.048513 
-0.018404 0.10014 0.065612 0.0023123 0.01415 -0.12971 -0.13382 0.048841 
-0.011498 0.13976 0.031249 -0.026789 -0.025474 -0.14681 -0.14056 -0.049807 
-0.026624 0.083862 -0.014622 -0.041586 -0.066577 -0.12757 -0.11508 -0.073976 
0.011191 -0.0075525 -0.093212 -0.065755 -0.02794 -0.1085 -0.059343 -0.09239 
0.042594 -0.085978 -0.19104 -0.097322 -0.0027845 -0.060165 -0.018239 -0.1427 
0.056404 -0.11738 -0.20288 -0.057534 0.074326 0.020891 0.021056 -0.23148 
0.014972 -0.071838 -0.079237 0.010533 0.13286 0.16377 0.13927 -0.1695 
-0.018075 -0.0075525 0.040128 0.080902 0.11822 0.2024 0.20208 -0.093048 
-0.13991 0.019576 0.15324 0.18202 0.11395 0.20175 0.24893 -0.064275 
-0.22704 0.062488 0.20832 0.21474 0.12842 0.17626 0.21835 -0.10341 
-0.157 0.084519 0.20175 0.13647 0.069558 0.099645 0.15061 0.048677 
0.022864 0.088958 0.11921 0.073832 -0.0014692 -0.0090322 0.0072447 0.29661 
0.12792 0.074983 0.027961 -0.053753 -0.095185 -0.13563 -0.16177 0.39362 
0.13023 0.10935 -0.024487 -0.085813 -0.11574 -0.17706 -0.24332 0.19928 
0.12233 0.084355 -0.014293 -0.057699 -0.091075 -0.10489 -0.15964 -0.05178 
0.17643 0.068407 -0.010676 -0.030077 -0.023336 -0.012814 0.023193 -0.058356 
0.17182 0.049664 -0.024487 -0.0090322 0.034373 0.020727 0.08567 0.026974 
0.12168 0.054925 -0.025474 0.013986 -0.0013048 0.012013 0.092904 0.083533 
0.095699 0.072846 0.031907 0.017438 0.025495 0.077121 0.15999 0.15324 
0.070544 0.095535 0.0065871 0.017603 0.048841 0.13516 0.22937 0.25239 
0.026481 0.089123 0.0051074 0.037332 0.040456 0.10178 0.13582 0.25387 
-0.037147 0.099481 0.016123 0.032564 0.029769 0.037168 0.0013258 -0.066741 
-0.065919 0.13713 0.053938 0.042923 0.010862 0.070708 -0.0047575 -0.33391 
0.015301 0.057555 0.055911 0.042758 -0.011498 0.058377 0.076463 -0.077593 
0.090109 -0.074469 0.028947 1.0539e-005 -0.010348 0.055911 0.14749 0.23594 
0.12266 -0.0022913 0.041443 0.014972 0.032729 0.066269 0.076956 0.38556 
0.088465 0.11411 0.10852 0.090767 0.042923 0.079916 -0.013965 0.33081 
0.020727 0.16985 0.13845 0.086163 0.055089 0.11263 -0.022843 0.23545 
0.081395 0.18021 0.14486 0.090438 0.05213 0.077778 -0.15618 0.1932 
0.089616 0.081889 0.080244 0.092411 0.072681 0.11937 -0.18841 0.13532 
-0.054739 -0.13415 -0.031064 0.023357 0.076463 0.16229 -0.069701 0.031249 
-0.15865 -0.17657 -0.080552 -0.037476 0.016945 0.11954 0.0088889 -0.086307 
-0.10637 -0.03764 0.027632 0.051308 0.026646 0.085999 -0.018075 -0.12692 
-0.012814 0.074326 0.16607 0.12464 0.048513 0.092411 0.048184 -0.053753 
0.018425 0.12053 0.14913 0.14108 0.048841 0.047526 0.13302 0.08567 
0.09833 0.14272 0.1174 0.11165 1.0539e-005 -0.084169 0.060679 0.15966 
0.19336 0.18136 0.14733 0.072846 -0.012485 -0.057041 0.02829 0.20273 
0.25304 0.23167 0.15785 0.094384 0.10047 0.11 0.072024 0.28921 
0.2463 0.18054 0.12661 0.12529 0.14585 0.2491 0.13121 0.27162 
0.15867 0.060186 0.10113 0.073504 0.08567 0.19632 0.11987 0.19846 
0.091918 0.0324 0.079094 0.026646 -0.015116 0.049335 0.086821 0.27738 
0.062981 0.051801 0.01974 0.018589 -0.035667 0.0324 0.082382 0.28806 
0.024344 0.086657 0.016288 -0.036654 -0.055068 -0.014129 -0.02646 -0.023172 
-0.072989 0.073175 0.01152 -0.050629 -0.089924 -0.23099 -0.2665 -0.24168 
-0.19778 0.079751 0.030756 0.026646 -0.060987 -0.24316 -0.3959 -0.29067 
-0.14648 0.085506 0.085012 0.055582 -0.014951 -0.047669 -0.27933 -0.21126 
0.10178 0.066269 0.024344 0.0034632 0.0059294 0.087972 -0.043724 -0.17065 
0.25995 0.12332 -0.10291 -0.055397 0.019083 0.10836 0.11691 -0.035996 
0.28593 0.10162 -0.17657 -0.14171 0.01826 0.094548 0.16179 0.065118 
0.023522 -0.20025 -0.25795 -0.12314 0.015959 0.054596 0.071037 -0.08269 
-0.20025 -0.37863 -0.25056 -0.011334 0.051801 0.094384 0.057227 -0.26404 
-0.34164 -0.29018 -0.065097 0.10704 0.1197 0.15472 0.096028 -0.25286 
-0.41102 -0.22178 0.079094 0.17149 0.12825 0.094384 0.13384 -0.11722 
-0.29659 -0.1427 0.20142 0.19484 0.078765 0.024508 0.15489 0.16015 
-0.050629 0.036346 0.22033 0.088465 -0.0075525 -0.013307 0.15209 0.24104 
0.08304 0.16146 0.18991 0.0083956 -0.034516 -0.026953 0.089945 -0.078579 
0.066434 0.17445 0.097837 -0.018239 -0.047669 -0.021528 0.027796 -0.28525 
0.14733 0.14354 0.030263 -0.050958 -0.013636 -0.015116 0.057884 0.030263 
0.2662 0.15851 0.007738 -0.038791 0.034373 -0.033694 0.039963 0.32276 
0.19501 0.12644 -0.010512 0.0059294 0.015465 -0.14846 -0.12955 0.33492 
0.11477 0.098494 -0.024816 0.029934 0.031414 -0.1912 -0.18907 0.26439 
0.10951 0.058377 -0.057534 0.04358 0.042429 -0.10143 -0.031064 0.087314 
0.068571 0.045718 -0.092719 0.049499 0.012999 0.055418 0.10589 -0.072167 
-0.0019624 0.039634 -0.10193 -0.017417 -0.019555 0.043087 0.1179 -0.17789 
-0.099624 0.0079024 -0.05441 -0.041093 -0.042244 -0.033859 -0.061973 -0.26354 
-0.14352 -0.029584 0.00017495 0.017274 0.010697 -0.033365 -0.22557 -0.26075 
-0.12166 -0.088773 -0.031392 -0.0067304 0.026646 0.018754 -0.12626 -0.13744 
-0.11393 -0.10669 -0.079237 -0.049971 0.034209 0.0046141 0.022042 -0.069372 
-0.072496 -0.10456 -0.064111 -0.027282 0.043745 0.034702 0.043416 -0.00081153 
-0.021692 -0.030242 -0.024158 -0.064111 0.040292 0.092904 0.017438 0.051472 
-0.031721 0.01826 -0.0032777 -0.059507 -0.036818 0.085012 0.085999 0.068242 
-0.017582 0.013492 0.014808 -0.037476 -0.045696 -0.00031829 0.18136 0.03651 
0.056733 0.087643 0.077778 0.012506 -0.016924 -0.018897 0.17495 -0.040764 
0.11313 0.13384 0.14223 0.044731 -0.0088678 0.0036276 0.13138 -0.16276 
0.1299 0.16245 0.086985 0.016288 -0.00031829 -0.012485 0.08008 0.017603 
0.10639 0.0090533 -0.095349 -0.094363 0.044896 -0.08384 -0.10916 0.38474 
0.049499 -0.077757 -0.2351 -0.15996 0.085999 -0.18232 -0.43601 0.31453 
0.01974 -0.07003 -0.19433 -0.15092 0.13779 -0.13695 -0.40954 0.090109 
0.01152 -0.011005 0.027139 0.017438 0.19205 -0.02235 -0.10768 -0.021528 
-0.068221 -0.0013048 0.19435 0.14108 0.16706 0.078929 0.18843 0.025824 
-0.18528 -0.079401 0.17133 0.18728 0.061995 0.19731 0.35991 0.044731 
-0.23132 -0.03353 0.087808 0.17593 -0.014129 0.22739 0.3124 0.16574 
-0.062467 0.15341 0.14223 0.18465 -0.0083746 0.24778 0.14437 0.11888 
0.088136 0.28773 0.16853 0.20569 0.061666 0.23693 0.1562 0.13023 
0.16426 0.33805 0.16278 0.20931 0.084355 0.25008 0.25633 0.090274 
0.23512 0.28839 0.13483 0.17182 0.089452 0.12924 0.32226 0.018589 
0.2218 0.11362 0.075312 0.12743 0.03799 -0.056383 0.24153 -0.1769 
0.073504 -0.034845 0.014315 0.10441 0.013657 -0.28508 0.068078 -0.4495 
-0.10752 -0.12198 -0.044217 0.034373 -0.092883 -0.49405 -0.39376 -0.60257 
-0.2351 -0.20666 -0.1307 -0.042408 -0.17131 -0.44407 -0.6463 -0.57379 
-0.073154 -0.042901 -0.009361 0.0092177 -0.099789 -0.072989 -0.42105 -0.036325 
0.23216 0.28642 0.22427 0.1687 0.020069 0.171 0.00033937 0.45001 
0.45609 0.45231 0.35991 0.30467 0.072024 0.2149 0.20783 0.57053 
0.40365 0.27113 0.23019 0.28938 0.14733 0.20487 0.21408 0.41351 
0.31749 0.1077 0.029276 0.1539 0.21802 0.24252 0.12562 0.3877 
0.21704 0.044567 -0.056877 0.050814 0.19418 0.10228 -0.10784 0.46793 
-0.032543 0.039963 -0.0082102 0.038155 0.11872 -0.076442 -0.1187 0.36271 
-0.16227 0.02533 0.11198 0.098494 0.012342 -0.093048 0.14272 0.12924 
-0.11409 0.11395 0.23479 0.19895 -0.027447 -0.055232 0.39428 0.00297 
-0.051451 0.21786 0.27228 0.28412 0.017767 -0.0016336 0.47007 0.023028 
-0.059343 0.21786 0.21638 0.26718 0.015465 0.056569 0.40858 -0.038791 
-0.0032777 0.1613 0.16475 0.22887 0.0083956 0.13384 0.35893 -0.13662 
0.13779 0.070708 0.032893 0.13302 -0.011992 0.19533 0.27869 -0.17262 
0.13861 -0.16621 -0.19449 -0.05178 -0.012978 0.1105 0.10524 -0.1815 
0.032893 -0.30235 -0.30613 -0.18759 -0.028433 0.0421 -0.15898 -0.18101 
-0.0055795 -0.26749 -0.21882 -0.16901 0.054103 0.041114 -0.38636 -0.1187 
-0.0062372 -0.14007 -0.026131 -0.03353 0.12365 0.044731 -0.50145 -0.11672 
-0.043888 -0.0013048 0.1761 0.12497 0.10589 -0.04882 -0.49619 -0.084663 
-0.04619 0.087314 0.2828 0.24564 0.070544 -0.049314 -0.31024 -0.042244 
0.01974 0.13483 0.29152 0.29924 0.045882 0.016945 0.00033937 0.022371 
0.11872 0.14601 0.13713 0.21112 0.085506 0.097179 0.2195 0.023028 
0.15587 0.026152 -0.019061 0.083697 0.077778 0.093069 0.30615 0.026317 
0.13779 0.031414 -0.058685 0.050486 0.060022 0.030427 0.24976 0.14552 
0.078272 0.078765 0.065283 0.091096 0.053445 -0.009361 0.081724 0.17281 
0.060844 0.14091 0.10918 0.12562 -0.0019624 -0.051122 0.013821 0.10326 
0.071859 0.085999 0.064132 0.10408 -0.038956 -0.082196 0.054267 0.07449 
-0.027282 -0.027611 -0.040435 0.029276 -0.066741 -0.11343 0.084355 0.062817 
-0.11853 -0.078744 -0.058521 -0.009361 -0.034023 -0.062631 0.061666 0.14354 
-0.067399 -0.053095 -0.051615 0.025988 0.014479 0.031578 0.057391 0.16886 
0.077778 0.0072447 0.0034632 0.0421 0.059528 0.093891 0.073832 0.055911 
0.16706 0.13368 0.095371 0.09833 0.055254 0.043745 0.0070803 -0.044052 
0.13631 0.18103 0.09833 0.12201 0.026317 -0.032543 -0.096172 -0.10357 
0.035853 0.040456 0.061995 0.11083 -0.020048 -0.071181 -0.069208 -0.072167 
0.0074092 -0.017417 0.028454 0.077778 -0.028762 0.010533 -0.038133 -0.10242 
0.032071 0.033222 -0.045861 0.050486 -0.02235 0.050979 -0.045203 -0.08269 
0.062323 0.047033 -0.058356 0.012342 0.011355 0.11839 -0.037311 -0.11393 
0.0093821 -0.090746 -0.077264 -0.018239 0.040128 0.12036 -0.035832 -0.10916 
-0.10028 -0.20666 -0.11508 -0.051122 0.055254 0.09126 -0.053753 -0.082196 
-0.16046 -0.22261 -0.10406 -0.065919 0.027796 0.087808 -0.023829 -0.032379 
-0.028926 0.010697 0.031578 0.016616 0.10918 0.17166 0.094384 0.054267 
0.15012 0.28412 0.1664 0.1641 0.11757 0.18876 0.20355 0.15111 
0.19796 0.28132 0.13417 0.16196 0.057884 0.07301 0.13894 0.15538 
0.045882 0.026974 -0.053424 0.048513 -0.016595 -0.06444 0.072517 0.05213 
-0.15503 -0.18742 -0.20189 -0.08828 -0.047669 -0.12938 -0.033859 -0.043559 
-0.16473 -0.15454 -0.11442 -0.074962 0.040785 0.0034632 -0.018404 -0.0078813 
-0.10045 0.016288 0.08419 0.045553 0.089452 0.073175 0.03092 0.07038 
-0.071509 0.095371 0.13861 0.147 0.075476 0.061501 1.0539e-005 0.10162 
-0.037147 0.14535 0.12102 0.1539 0.049828 0.049664 -0.0047575 0.086492 
-0.006566 0.14108 0.04358 0.10918 -0.009361 0.013986 -0.0049219 0.015465 
0.063968 0.1077 -0.027282 0.050321 -0.055068 0.015794 0.05476 0.066598 
0.14749 0.053116 -0.059507 0.00297 -0.036489 0.033058 0.1179 0.19073 
0.17149 0.037332 -0.018733 0.0092177 0.022371 0.1179 0.15966 0.23381 
0.071695 -0.0050863 -0.0078813 0.034373 0.027139 0.13138 0.10787 -0.12856 
0.011026 0.065447 0.00033937 0.050814 0.017438 0.057555 -0.068057 -0.48863 
0.010369 0.14124 0.051472 0.079587 0.0098754 0.015794 -0.14221 -0.31205 
0.038155 0.17281 0.088136 0.11066 0.033551 0.016945 -0.051615 0.037497 
0.092082 0.12201 -0.0016336 0.064625 0.0072447 0.012013 0.055911 0.025824 
0.18843 0.053938 -0.039778 0.015959 0.0034632 -0.0095255 0.16426 -0.089759 
0.1756 0.077121 -0.016924 0.029769 0.093069 0.029934 0.2486 -0.10554 
0.08978 0.092576 0.051472 0.098659 0.13467 0.07597 0.33476 0.0034632 
0.11346 0.171 0.17363 0.17215 0.13269 0.14223 0.38507 0.33361 
0.11609 0.21178 0.20388 0.21506 0.074161 0.19468 0.3946 0.39395 
-0.023007 0.10803 0.076463 0.14667 -0.038791 0.09685 0.23118 -0.071181 
-0.10834 -0.066741 -0.078744 0.0044497 -0.1376 -0.036818 0.061666 -0.28525 
0.027961 -0.10324 -0.12297 -0.052109 -0.093212 -0.04882 -0.024816 0.092411 
0.17117 -0.090417 -0.050136 0.014315 0.030263 0.11592 0.079916 0.36994 
0.064132 -0.053095 0.068407 0.082053 0.15686 0.29974 0.21621 0.30664 
-0.061809 0.036182 0.075312 0.10474 0.1664 0.23167 0.08567 0.071695 
-0.024323 0.15423 0.11905 0.13319 0.077285 -0.092226 -0.37666 -0.040435 
0.073997 0.26044 0.16081 0.16558 -0.037311 -0.32684 -0.5197 -0.10916 
0.13105 0.16656 0.058542 0.10392 -0.15174 -0.40642 -0.43092 -0.13777 
0.064625 -0.12198 -0.18463 -0.025309 -0.12462 -0.29445 -0.27834 -0.10045 
0.024015 -0.25236 -0.24645 -0.12823 -0.041093 -0.10193 -0.10998 -0.020212 
0.080409 -0.10702 -0.11541 -0.086964 -0.029913 -0.047998 0.057555 0.19977 
0.1373 0.12233 0.037826 0.013657 -0.0087034 -0.032215 0.18498 0.22246 
0.16903 0.2879 0.20767 0.15999 0.090767 0.20783 0.31733 0.33509 
0.16607 0.29957 0.28346 0.25732 0.21178 0.42354 0.439 0.31832 
0.074983 0.183 0.21079 0.27606 0.23825 0.35991 0.38162 0.18596 
0.00033937 0.12628 0.082546 0.18021 0.15801 0.11247 0.15768 -0.058685 
-0.084334 -0.0771 -0.048985 0.058213 0.04358 -0.088773 -0.083018 -0.45788 
-0.13629 -0.19482 -0.109 -0.032872 -0.04619 -0.22968 -0.21126 -0.58168 
-0.023994 -0.11179 -0.064768 -0.033201 -0.095843 -0.22392 -0.19975 0.020562 
0.13039 0.06742 0.060679 0.039305 -0.089924 -0.12379 -0.09798 0.51841 
0.1174 0.074326 0.083204 0.10573 -0.060494 -0.058192 -0.027282 0.48783 
0.028947 -0.028269 0.036017 0.088794 -0.079895 -0.14484 -0.085813 0.31322 
-0.060329 -0.088444 0.0014903 0.056404 -0.064275 -0.22277 -0.14106 0.10918 
-0.10406 -0.018733 -0.037147 0.023686 -0.021856 -0.14813 -0.058685 -0.068057 
-0.19548 0.07597 -0.01939 0.027303 0.017932 0.025495 -0.010183 -0.30711 
-0.13645 0.1544 0.060022 0.070051 0.057555 0.099316 -0.12905 -0.40839 
0.0083956 0.071859 0.048677 0.09126 0.13203 0.11231 -0.2397 -0.090088 
0.048184 -0.075291 -0.0032777 0.072846 0.2195 0.11263 -0.23379 0.18448 
-0.042737 -0.16753 -0.030077 0.0421 0.16706 0.062652 -0.16144 -0.23148 
-0.15141 -0.11146 -0.0091966 0.032564 0.042758 -0.018568 -0.00081153 -0.64038 
-0.052766 0.0013258 0.047691 0.069558 -0.01939 0.022042 0.21293 -0.29889 
0.059857 0.11592 0.1174 0.11411 -0.0095255 0.11559 0.38737 0.23545 
0.14272 0.1299 0.11181 0.13598 0.034537 0.15587 0.35465 0.40973 
0.15735 0.14881 0.05213 0.14075 0.0070803 0.047362 0.20503 0.54521 
0.14289 0.13417 0.033551 0.1003 -0.051287 -0.088773 0.013821 0.79199 
0.14552 0.12233 0.066269 0.10721 -0.076606 -0.017582 -0.0049219 0.75023 
0.077449 0.067256 0.010862 0.071859 -0.1187 0.0054362 -0.020706 0.40841 
-0.011005 -0.0019624 -0.0082102 0.042758 -0.052109 -0.069536 -0.078579 -0.040271 
-0.0087034 0.028783 0.062159 0.081889 0.074326 -0.051287 -0.08828 -0.30185 
-0.047176 -0.03501 0.055089 0.12644 0.11165 -0.058192 -0.045696 -0.41513 
-0.18495 -0.046025 0.018096 0.083862 0.062323 -0.15059 -0.22737 -0.48517 
-0.2032 0.0026412 0.014315 0.065612 -0.031392 -0.31402 -0.41711 -0.37239 
-0.14221 -0.051451 -0.046354 0.018589 -0.10373 -0.38998 -0.4444 -0.3012 
-0.089431 -0.09946 -0.098638 -0.03501 -0.11294 -0.24513 -0.17345 -0.21603 
-0.054575 -0.040106 -0.049314 -0.013636 -0.034023 0.048019 0.09685 0.034209 
0.064296 0.12365 0.074326 0.1003 0.11214 0.29974 0.23627 0.23677 
0.11822 0.18267 0.19106 0.18695 0.20405 0.41532 0.2121 0.29316 
0.14798 0.18366 0.19501 0.21753 0.21474 0.38901 0.22575 0.27836 
0.25485 0.20799 0.14716 0.19977 0.18119 0.27787 0.1927 0.30303 
0.27639 0.15768 0.090931 0.14601 0.13384 0.16344 0.13598 0.30911 
0.061172 0.068571 0.058049 0.091918 0.08978 0.12069 0.16146 0.18942 
-0.12116 0.031742 -0.00031829 0.077449 0.044896 0.11543 0.18235 -0.063946 
-0.14813 0.06331 0.032564 0.077121 0.017438 0.11461 0.20092 -0.23658 
0.020398 0.19122 0.10737 0.1225 0.013821 0.1174 0.17511 -0.15388 
0.073339 0.081724 0.049828 0.1008 -0.0042642 0.083533 0.21424 -0.12593 
-0.046683 -0.089431 -0.059507 0.01826 -0.077922 0.029605 0.15982 -0.072332 
-0.028433 -0.039284 -0.025309 0.0037921 -0.08269 -0.0083746 0.03536 -0.018404 
0.026974 0.02829 -0.019061 0.029605 -0.073482 -0.13218 -0.11574 0.066763 
-0.003771 -0.066577 -0.1062 -0.031064 -0.17049 -0.34213 -0.3109 0.076956 
0.07449 -0.039778 -0.043559 -0.0067304 -0.12725 -0.19548 -0.22984 0.18235 
0.21769 0.13499 0.13878 0.11724 0.058871 0.16722 -0.055561 0.20651 
0.16294 0.20191 0.21901 0.20898 0.16196 0.28231 0.078436 -0.038462 
0.065447 0.20208 0.18974 0.20947 0.17741 0.1442 0.035853 -0.05589 
0.18843 0.16755 0.086985 0.15883 0.15851 0.02829 -0.086471 0.16607 
0.31947 0.094548 -0.024487 0.085177 0.14864 0.076134 -0.094856 0.12135 
0.28461 0.06742 -0.0013048 0.060679 0.14289 0.1151 -0.082854 0.011355 
0.10343 0.066434 0.05772 0.087479 0.13483 0.054596 -0.012814 0.01152 
-0.071345 0.020891 0.037168 0.077614 0.057227 -0.14106 -0.069043 0.07449 
-0.0503 0.029934 0.042594 0.064132 -0.041586 -0.23083 -0.06 0.1909 
0.02829 0.087314 0.0052718 0.046211 -0.10176 -0.14665 0.036675 0.21572 
-0.021856 0.0011614 -0.053095 0.042758 -0.07973 0.058871 0.12727 0.12414 
-0.044217 -0.03616 0.009711 0.051308 -0.029091 0.16558 0.20027 -0.023829 
0.028947 0.0054362 0.1008 0.11263 0.030592 0.27524 0.34035 -0.044052 
0.074654 0.099316 0.14453 0.16475 0.083204 0.34133 0.35991 -0.18002 
0.10852 0.15768 0.17067 0.18563 0.13828 0.27179 0.14387 -0.24694 
0.14913 0.065612 0.10129 0.14601 0.089123 0.14387 0.045224 -0.13432 
0.090438 -0.059507 -0.024323 0.084026 -0.023007 0.0046141 -0.0070593 -0.006566 
0.062159 -0.00031829 -0.049149 0.02533 -0.051944 -0.12018 -0.079401 0.080738 
0.10145 0.099481 0.0028056 0.041443 -0.014622 -0.1284 -0.051615 0.17182 
0.15127 0.20569 0.024673 0.057227 -0.010676 -0.068386 0.041114 0.25732 
0.17314 0.25271 0.067585 0.083533 0.0039565 0.020727 0.061501 0.21638 
0.061995 0.043087 0.034373 0.066927 -0.034845 0.032893 0.051801 0.20799 
-0.16243 -0.26765 -0.064768 0.026152 -0.058192 -0.058521 0.0047785 0.094713 
-0.24447 -0.31681 -0.11245 -0.032872 -0.058028 -0.096829 -0.0406 -0.09798 
-0.1741 -0.19202 -0.094692 -0.036983 0.025166 -0.003771 -0.013471 -0.18594 
0.055254 0.055747 0.010533 0.024015 0.090109 0.08978 0.051472 -0.17328 
0.15785 0.24351 0.11444 0.10178 0.10935 0.12381 0.12973 -0.24184 
-0.21044 0.13565 0.10113 0.11592 0.082875 0.086985 0.1174 -0.33178 
-0.51493 -0.067892 0.0069159 0.079916 0.078107 0.074161 0.06331 -0.27029 
-0.3589 -0.00097594 -0.016102 0.050157 0.10244 0.07449 0.074654 -0.089102 
-0.023501 0.13894 0.040456 0.068736 0.055911 0.11839 0.1636 0.05772 
0.19221 0.11576 0.10589 0.11559 0.058049 0.15259 0.26505 0.15883 
0.21885 0.062981 0.061501 0.095042 0.026974 0.16689 0.26603 0.20553 
0.35268 0.082217 0.037332 0.065447 -0.023172 0.13434 0.27787 0.18826 
0.34495 0.13746 0.011026 0.061172 -0.057205 0.10014 0.15851 0.11526 
0.17018 0.070544 0.0083956 0.062159 -0.059343 0.048184 0.10984 0.039141 
-0.14155 -0.17789 -0.10423 -0.016595 -0.12346 -0.045861 0.12908 -0.0055795 
-0.32257 -0.27637 -0.1644 -0.078744 -0.15668 -0.15635 -0.03205 0.014315 
-0.20205 -0.017088 0.018425 0.019576 0.057884 -0.026296 -0.20074 0.13697 
-0.11639 0.14091 0.15966 0.12431 0.19172 0.087479 -0.12626 0.19944 
-0.17065 0.058542 0.097344 0.12661 0.12792 -0.072332 -0.092719 0.11395 
-0.14451 0.0042853 -0.042737 0.075805 0.050157 -0.30399 -0.18989 -0.052437 
-0.065755 0.0042853 -0.023336 0.042758 0.042758 -0.32454 -0.27193 -0.18824 
-0.0049219 0.10819 0.05624 0.082711 0.084519 -0.18216 -0.24612 -0.44604 
-0.015609 0.17955 0.13878 0.14239 0.056404 -0.034681 -0.13382 -0.71124 
-0.046847 0.12201 0.060679 0.1031 -0.0054151 0.14733 0.23808 -0.38307 
-0.033859 -0.07825 -0.05178 0.023851 -0.054082 0.33361 0.50789 0.1881 
0.098659 -0.064111 -0.089595 0.011191 -0.034352 0.42798 0.63547 0.51364 
0.11691 0.0011614 -0.03501 0.009711 0.018754 0.34314 0.4801 0.39444 
0.14371 0.085506 0.046375 0.060022 0.050814 0.16048 0.25535 0.1761 
0.23397 0.1927 0.12644 0.12628 0.056076 0.077943 0.11247 0.18054 
0.15949 0.18711 0.13056 0.14437 0.038483 -0.055068 -0.064768 0.26521 
0.040785 0.20125 0.12727 0.14963 0.078436 -0.095843 -0.076606 0.19879 
0.0069159 0.19418 0.05772 0.14256 0.0786 -0.063124 -0.021528 0.050979 
0.0067515 0.10343 0.054925 0.11477 0.075148 -0.0040998 0.023357 -0.1016 
-0.086142 -0.1136 -0.038627 0.044402 0.032236 -0.0032777 0.052459 -0.15273 
-0.1478 -0.23625 -0.20534 -0.088937 0.033058 -0.024816 -0.13168 -0.13349 
-0.087293 -0.29774 -0.3497 -0.23362 -0.029748 -0.1644 -0.44539 -0.10078 
0.037826 -0.19597 -0.25565 -0.22655 -0.075455 -0.22129 -0.50507 -0.080059 
0.13384 0.0028056 0.078272 0.013328 -0.018239 -0.12445 -0.30646 -0.064604 
0.076299 0.082053 0.27672 0.20503 0.014972 0.015794 -0.08384 0.051143 
0.020069 0.031249 0.26833 0.26718 0.0011614 -0.028926 -0.043724 0.2948 
-0.013636 -0.0004827 0.1003 0.18383 -0.051122 -0.14796 -0.22014 0.30039 
0.028454 0.067749 0.031414 0.10228 -0.05326 -0.19334 -0.37272 0.1276 
0.20635 0.17955 0.045389 0.087643 -0.02235 -0.10554 -0.3275 0.11872 
0.31749 0.2024 0.069064 0.12003 0.034209 -0.02235 -0.11607 0.19418 
0.28149 0.17544 0.047526 0.1031 0.075148 0.088136 0.17149 0.10573 
0.15374 0.10211 0.014808 0.074819 0.047362 0.086657 0.31947 -0.14451 
-0.011498 0.048677 0.02122 0.069064 0.064625 0.049006 0.28708 -0.25401 
0.044731 0.10869 0.096028 0.11313 0.12266 0.080409 0.22674 0.024015 
0.1641 0.2662 0.17396 0.17741 0.14683 0.13088 0.30549 0.1516 
0.20767 0.27803 0.22345 0.23759 0.10754 0.12858 0.26028 0.088136 
0.16311 0.073668 0.060679 0.16475 0.070544 0.052787 0.21967 0.063803 
0.036675 -0.095185 -0.10883 0.016781 -0.053753 -0.026789 0.11609 0.19336 
-0.0054151 -0.056712 -0.14763 -0.060494 -0.1136 -0.068714 0.00099702 0.30105 
0.01267 -0.14303 -0.13695 -0.079566 -0.052602 -0.032379 -0.069043 0.33953 
-0.011992 -0.17756 -0.053424 -0.039778 0.016945 0.0092177 -0.10784 0.37586 
0.011191 -0.051615 0.076134 0.054925 0.029769 -0.0052507 -0.19268 0.2708 
0.077778 0.06183 0.10195 0.13549 0.043745 -0.043888 -0.29265 0.066598 
0.17265 0.11576 0.10178 0.14058 0.025001 0.06742 -0.19942 0.031742 
0.21638 0.12003 0.080902 0.13088 0.093726 0.2052 0.0041209 -0.023336 
0.19665 0.13927 0.069886 0.12217 0.12776 0.21868 0.061172 -0.20238 
0.088136 0.08304 0.10376 0.12562 0.061666 0.0079024 -0.11968 -0.534 
-0.045203 0.037168 0.10984 0.12924 -0.049149 -0.18627 -0.2203 -0.62805 
-0.0059084 0.070873 0.09422 0.15456 -0.10604 -0.21718 -0.26864 -0.3298 
0.14174 0.11806 0.031907 0.10425 -0.096172 -0.057041 -0.12281 0.10162 
0.16607 -0.01232 -0.096994 0.0088889 0.032893 0.1909 0.26028 0.26998 
1.0539e-005 -0.13284 -0.13777 -0.051944 0.10293 0.22164 0.4288 0.35679 
-0.12281 -0.0052507 -0.0095255 -0.009361 0.07038 0.040128 0.21934 0.2828 
-0.054904 0.14058 0.14815 0.10359 0.051472 -0.095514 -0.063618 0.19188 
-0.0029489 0.16837 0.17725 0.19122 0.051636 -0.10768 -0.1746 0.10458 
-0.017911 0.12266 0.10392 0.16097 0.043087 -0.12067 -0.16473 0.095699 
-0.10554 0.05213 -0.00031829 0.087643 0.048348 -0.092719 -0.1381 0.11592 
-0.016431 0.10984 -0.0004827 0.063639 0.10113 0.089123 0.25715 0.14519 
0.13269 0.24005 0.089123 0.091753 0.12776 0.23463 0.58335 0.16722 
0.072024 0.1054 0.10129 0.10688 0.053116 0.17149 0.52614 0.019576 
-0.090581 -0.12478 0.021384 0.091589 0.029441 0.16064 0.31684 -0.05326 
-0.091568 -0.13875 0.013492 0.072188 0.070873 0.1858 -0.011827 0.0093821 
0.080573 0.074654 0.10425 0.12529 0.17232 0.3216 -0.31829 -0.066413 
0.14683 0.24137 0.19435 0.20109 0.18366 0.30862 -0.2767 -0.65912 
0.029769 0.18613 0.14124 0.17774 0.069722 0.087972 -0.1741 -0.89982 
-0.0073881 0.067256 -0.0064016 0.076792 -0.039942 -0.19696 -0.074962 -0.1621 
0.16262 0.0067515 -0.090746 0.00297 -0.121 -0.35052 0.016616 0.47467 
0.19007 0.057391 -0.074962 -0.010348 -0.11837 -0.31747 -0.020541 0.42584 
-0.046683 -0.035996 -0.0021268 0.024837 -0.063946 -0.14665 -0.14566 0.051472 
-0.39935 -0.20945 -0.094199 -0.023665 -0.020706 0.02122 -0.052437 -0.37979 
-0.46183 -0.20271 -0.099131 -0.044546 0.011026 0.21786 0.24877 -0.40494 
-0.16079 -0.018075 -0.0039354 0.0074092 0.093069 0.41072 0.45905 0.071531 
0.21901 0.12743 0.081231 0.085999 0.17824 0.43291 0.41877 0.55507 
0.40299 0.20619 0.15292 0.17824 0.25683 0.30385 0.21178 0.64484 
0.31815 0.2103 0.15028 0.18152 0.18037 0.10162 0.061666 0.50427 
0.11148 0.12546 0.12168 0.16064 0.032729 -0.070687 -0.0091966 0.19353 
0.015959 0.16031 0.083697 0.14913 -0.086307 -0.18594 -0.045039 -0.087622 
0.069722 0.15012 0.01711 0.082546 -0.075455 -0.26667 -0.11491 -0.17723 
0.055254 0.074161 -0.02087 0.039141 -0.089924 -0.22885 -0.13399 -0.16983 
0.13993 0.11872 -0.0021268 0.074326 -0.054082 -0.14763 -0.11672 -0.12971 
0.15522 0.20734 0.09981 0.12414 0.00066819 -0.038956 -0.12248 -0.12116 
0.11757 0.23315 0.15818 0.17182 0.005765 0.028454 -0.097651 -0.0050863 
0.050321 0.071366 0.08978 0.14174 -0.05178 0.03092 0.014972 0.0060938 
-0.080059 -0.2254 -0.051944 0.036346 -0.083347 0.067585 0.085999 -0.11968 
-0.38817 -0.607 -0.30646 -0.16523 -0.098309 -0.019226 0.0689 -0.3035 
-0.5031 -0.58201 -0.42845 -0.27472 -0.028433 0.029769 0.1539 -0.3127 
-0.14451 0.0067515 -0.070359 -0.10324 0.14765 0.21178 0.30894 0.036675 
0.13467 0.38129 0.27047 0.16196 0.25222 0.32325 0.43702 0.21819 
0.050814 0.29892 0.29596 0.26209 0.18021 0.2491 0.37816 0.23956 
-0.06 0.070708 0.19353 0.22608 0.06479 0.070051 0.20865 0.25041 
0.026481 0.084848 0.15176 0.19057 -0.025638 -0.027118 0.0013258 0.27557 
0.26258 0.18711 0.093891 0.16853 -0.075291 -0.041093 -0.14352 0.23693 
0.25535 0.14913 -0.028269 0.07038 -0.098802 -0.11113 -0.35381 0.11872 
0.11329 0.023193 -0.098473 -0.004593 -0.058685 -0.13136 -0.44276 -0.096172 
-0.0029489 -0.027775 -0.08121 -0.023172 0.030098 -0.0032777 -0.22228 -0.21702 
-0.078744 -0.11031 -0.071509 -0.032379 0.095535 0.10524 0.041443 -0.21915 
-0.12231 -0.16325 -0.042408 -0.030735 0.073339 0.16558 0.18629 -0.057534 
0.043909 0.01152 0.059528 0.059857 0.080409 0.16574 0.15341 0.17281 
0.19961 0.16623 0.12924 0.13006 0.019905 0.072024 0.14634 0.30796 
0.15505 0.18366 0.08419 0.12332 -0.048656 -0.049149 0.041278 0.17462 
0.051965 0.096028 0.012506 0.075312 -0.061316 -0.077757 0.031907 -0.032379 
0.046375 0.026481 -0.041422 0.029934 -0.01939 -0.03353 0.18136 -0.086636 
0.049992 0.019411 -0.013143 0.021549 -0.017417 -0.11738 0.14848 -0.0044286 
0.03388 0.072846 0.066269 0.081724 -0.026953 -0.22984 -0.060165 0.1008 
-0.10258 0.0041209 0.06594 0.11329 -0.035667 -0.23543 -0.18364 -0.0060728 
-0.27275 -0.15306 -0.030077 0.052952 -0.026296 -0.080881 -0.038462 -0.084334 
-0.18298 -0.12396 -0.074469 0.0047785 0.044731 0.1978 0.17297 -0.055561 
0.040456 -0.020377 -0.00031829 0.03536 0.095042 0.25452 0.24055 0.0075736 
0.075805 0.016616 0.034044 0.050814 0.071366 0.11658 0.15999 -0.16111 
-0.017582 0.0098754 0.043087 0.07449 -0.0054151 -0.066413 -0.10521 -0.3686 
-0.063618 0.039634 0.031578 0.098659 -0.040106 -0.17065 -0.33622 -0.34871 
-0.029255 0.054267 0.041443 0.090438 -0.062138 -0.11557 -0.32339 -0.069372 
0.016288 0.13467 0.05772 0.10014 -0.023007 0.0065871 -0.11607 0.13779 
-0.0050863 0.094055 0.02681 0.081724 0.038155 0.072353 0.072353 0.24038 
0.037004 0.034702 -0.0075525 0.048019 0.10392 0.1077 0.11707 0.35399 
0.1761 0.13878 0.13171 0.11987 0.18037 0.16114 0.013164 0.32555 
0.2514 0.25173 0.17725 0.22493 0.16574 0.17774 0.0018191 0.21901 
0.20947 0.2417 0.13779 0.19073 0.10491 0.13154 0.1128 0.23841 
0.06035 0.098823 0.028125 0.11559 0.082875 0.10408 0.23364 0.293 
-0.047341 0.032564 -0.0073881 0.063474 0.0051074 0.064296 0.27475 0.147 
0.041114 0.090767 0.046868 0.05624 -0.034352 0.01415 0.23381 -0.11541 
0.14568 0.11691 0.077614 0.087479 -0.031721 0.0011614 0.16525 -0.25286 
0.14552 0.10672 0.10885 0.13713 -0.079566 -0.11491 -0.071509 -0.19597 
0.045553 0.025166 0.019083 0.085341 -0.13234 -0.26946 -0.26798 -0.024323 
-0.025967 -0.13366 -0.19893 -0.066413 -0.087129 -0.31928 -0.31418 0.13072 
-0.082196 -0.2231 -0.30843 -0.18808 -0.0036066 -0.18084 -0.17065 0.016452 
-0.040106 -0.15322 -0.17427 -0.14878 0.12529 0.15768 0.11642 -0.10078 
0.049992 0.0079024 0.13384 0.046704 0.22263 0.49358 0.27968 -0.0054151 
-0.037147 0.062159 0.19501 0.17676 0.17988 0.52745 0.24515 0.086163 
-0.057205 0.0065871 0.11231 0.14897 0.1197 0.31453 0.17692 0.15259 
0.074326 0.10721 0.10425 0.14733 0.082382 0.12842 0.10211 0.096357 
0.23808 0.29924 0.19484 0.20191 0.10655 0.075312 0.075476 0.024837 
0.33657 0.40463 0.20355 0.22427 0.056733 -0.084005 -0.0087034 0.04095 
0.15045 0.2491 0.14075 0.17922 -0.098309 -0.39573 -0.25138 0.23216 
-0.18726 -0.16276 -0.12774 0.012999 -0.19334 -0.57149 -0.46577 0.030756 
-0.25072 -0.28393 -0.23806 -0.096829 -0.12922 -0.30218 -0.22425 -0.70105 
-0.021856 -0.015609 -0.059836 -0.038133 0.02122 0.15061 0.24269 -0.60585 
0.22296 0.25502 0.20372 0.14765 0.16755 0.39493 0.51956 0.14338 
0.32933 0.40578 0.3119 0.27919 0.18596 0.41302 0.53222 0.61492 
0.3563 0.33459 0.22641 0.25206 0.12743 0.31453 0.25617 0.65849 
0.26488 0.16722 0.031249 0.13598 0.11263 0.19501 -0.023007 0.55458 
0.021384 -0.048327 -0.13645 0.017274 0.096686 0.14765 -0.026131 0.28741 
-0.15109 -0.1381 -0.11475 -0.033201 0.086985 0.16031 0.17429 -0.018075 
-0.18117 -0.098638 -0.04619 -0.014458 -0.03764 0.051965 0.25321 -0.093541 
-0.12297 -0.068714 0.014315 0.019083 -0.182 -0.18331 0.085177 -0.10965 
-0.093376 -0.046354 0.058871 0.058542 -0.16029 -0.23198 -0.02235 -0.26552 
-0.11228 -0.02942 0.054267 0.081724 -0.014129 -0.15996 -0.12429 -0.45394 
-0.20123 -0.10735 -0.033201 0.06183 0.013164 -0.22704 -0.35118 -0.59566 
-0.22589 -0.15964 -0.067399 0.0092177 0.016616 -0.25088 -0.45673 -0.17197 
-0.109 -0.047505 0.017274 0.044073 0.085177 -0.088115 -0.31829 0.28576 
0.034044 0.090109 0.10113 0.10721 0.13713 0.13565 -0.15651 0.33394 
0.065776 0.14897 0.13943 0.14798 0.13088 0.23019 -0.11015 0.060186 
0.14519 0.20717 0.17544 0.18119 0.14683 0.21309 -0.12577 -0.080552 
0.22312 0.22526 0.12694 0.18991 0.095864 0.15209 -0.12412 -0.12264 
0.16985 0.082711 -0.012814 0.083368 -0.020377 0.057227 -0.092554 -0.088937 
0.15966 0.041772 -0.040271 0.035195 -0.06148 0.047526 0.12168 0.025001 
0.16853 0.15456 0.022864 0.060844 0.024015 -0.02235 0.30056 0.10556 
-0.0021268 0.11872 0.082382 0.091753 0.090931 -0.12297 0.1955 0.027796 
-0.23527 -0.05178 0.094877 0.12595 0.11954 -0.070687 0.040621 0.029112 
-0.28837 -0.10538 0.047033 0.12168 0.021713 -0.018568 0.15883 0.13631 
-0.24086 -0.087622 -0.024816 0.057391 -0.00064712 0.090931 0.35695 0.16015 
-0.066906 -0.029913 -0.02498 0.034209 0.022206 0.1664 0.31026 0.24055 
0.1054 -0.016924 -0.052931 0.004943 0.038812 0.12464 0.11921 0.3221 
0.15045 0.038648 -0.017088 0.012506 0.035031 0.0021479 -0.080388 0.31881 
0.086657 0.1567 0.11181 0.09126 -0.0082102 -0.12297 -0.26535 -0.012978 
-0.025309 0.065118 0.050321 0.099316 -0.13218 -0.29002 -0.42779 -0.73525 
-0.020212 0.034702 -0.041257 0.036839 -0.1575 -0.352 -0.56672 -1.0415 
0.053116 0.10819 0.00050378 0.046704 -0.063618 -0.26174 -0.55242 -0.45821 
-0.093048 0.018096 0.039963 0.072024 0.016452 -0.11196 -0.24809 0.062981 
-0.29889 -0.19285 0.013328 0.061337 0.017274 0.038155 0.11707 0.23003 
-0.11031 -0.22902 -0.032379 0.017932 0.01974 0.11773 0.24597 0.38721 
0.22328 -0.022185 0.040621 0.06035 0.06331 0.16706 0.19846 0.4944 
0.293 0.15949 0.0592 0.097015 0.11395 0.12414 0.10721 0.42107 
0.21474 0.17939 0.08304 0.12283 0.15982 0.09126 0.077943 0.36797 
0.15604 0.16393 0.12201 0.14716 0.17429 0.10787 0.037661 0.30105 
0.15144 0.23397 0.1276 0.15933 0.13499 0.15176 -0.010841 0.11 
-0.023994 0.042429 0.03388 0.093562 0.099645 0.092576 -0.026624 -0.10538 
-0.26354 -0.1912 -0.05178 0.029276 0.064625 0.072846 0.051143 -0.29495 
-0.20222 -0.14961 -0.059507 0.023522 0.010369 0.10573 0.19237 -0.25845 
1.0539e-005 -0.067564 -0.069208 -0.0090322 -0.060823 0.089452 0.27951 -0.19794 
0.097344 -0.054904 -0.080881 -0.026296 -0.12215 0.00066819 0.22871 -0.065097 
0.1248 0.099152 0.018754 0.032729 -0.041093 0.0082312 0.1909 0.078272 
0.11543 0.2463 0.078107 0.074983 -0.03764 -0.035667 0.17774 0.23118 
0.13384 0.21621 0.05772 0.082217 -0.042244 -0.12626 0.10228 0.33574 
0.24005 0.1567 0.036017 0.1151 -0.020706 -0.15388 0.091425 0.33788 
0.24959 0.086985 0.065283 0.11411 0.044731 0.061172 0.22657 0.1853 
0.12809 -0.011005 0.04095 0.09685 0.072188 0.27475 0.17922 0.11148 
0.0060938 -0.082525 -0.023665 0.046868 0.083533 0.37044 0.10639 0.14042 
0.069558 -0.013143 -0.0031133 0.037168 0.12924 0.43308 0.20142 0.21112 
0.21424 0.12891 0.074326 0.078272 0.13006 0.35251 0.37619 0.28313 
0.20849 0.16788 0.079751 0.1391 0.097015 0.20602 0.38211 0.22723 
0.072353 0.11658 0.10063 0.14568 0.071531 0.10622 0.26998 0.14535 
-0.11508 0.058213 0.06331 0.11773 0.011684 -0.025474 0.20076 -0.15783 
-0.19663 -0.0095255 -0.023336 0.049828 -0.078086 -0.23773 -0.13053 -0.37452 
-0.13958 -0.11738 -0.080059 -0.013307 -0.11738 -0.50786 -0.50178 -0.21866 
0.031414 -0.080881 -0.03353 0.020727 -0.074304 -0.56311 -0.644 0.24778 
0.12184 0.007738 -0.029584 0.040456 -0.016924 -0.41776 -0.73459 0.29086 
0.26094 0.046046 -0.00097594 0.04095 0.011191 -0.24941 -0.66652 0.14502 
0.31355 0.12184 0.052623 0.080738 0.097179 0.036346 -0.21077 0.13828 
0.31585 0.18744 0.14453 0.14996 0.14996 0.4025 0.40463 0.12233 
0.2246 0.15703 0.12727 0.15045 0.14798 0.60588 0.71801 0.057062 
0.14108 0.056569 0.078929 0.1197 0.090109 0.57957 0.69154 -0.034023 
0.15209 0.056076 0.057884 0.13203 0.041443 0.34676 0.3997 -0.13678 
0.038977 0.055254 0.08008 0.12497 0.0021479 0.12217 0.171 -0.2402 
-0.12741 0.066763 0.038483 0.089287 -0.090253 -0.11508 0.073832 -0.19449 
-0.030077 0.1174 0.078929 0.10754 -0.058685 -0.11952 0.097508 0.058871 
0.17626 0.2024 0.092411 0.12513 0.032236 -0.0090322 0.1909 0.31092 
0.21605 0.22723 0.028619 0.077614 -0.0503 -0.018239 0.12973 0.33344 
0.18399 0.19353 -0.026624 0.041443 -0.14648 -0.1575 -0.02498 0.26554 
0.13828 0.18267 -0.018239 0.046868 -0.045532 -0.11113 -0.11278 0.15982 
0.0074092 0.074161 0.020891 0.064132 0.10524 0.010369 -0.073154 0.0069159 
-0.20584 -0.073154 0.0060938 0.053445 0.12529 -0.026131 -0.049642 -0.10505 
-0.24234 -0.19959 0.042429 0.069393 0.027961 -0.10324 -0.13103 0.00017495 
-0.12166 -0.16539 0.084355 0.086821 -0.0060728 -0.14846 -0.25483 0.067091 
-0.056219 -0.16062 -0.038956 -0.074962 -0.054246 -0.19942 -0.22852 0.00050378 
-0.0014692 -0.10275 -0.16358 -0.10834 -0.03205 -0.12922 -0.064768 -0.10061 
0.08304 0.046868 -0.083183 -0.1062 0.084026 -0.0011404 -0.044874 -0.11475 
0.16442 0.21671 0.10672 0.061008 0.17462 0.13467 -0.073811 -0.030899 
0.065612 0.20832 0.20372 0.13072 0.11642 0.14897 0.0036276 -0.058685 
-0.081868 0.070708 0.14733 0.090603 0.018425 0.079422 0.01152 -0.11343 
-0.070359 0.025001 0.072846 0.085341 -0.052273 -0.01232 -0.0072237 -0.1085 
0.040128 0.057227 0.022206 0.022042 -0.0072237 0.058049 0.18037 -0.069043 
0.14404 0.16771 0.05065 0.0082312 0.060022 0.18218 0.41368 -0.011498 
0.1687 0.19994 0.097015 0.061008 0.054925 0.1733 0.44015 0.041278 
0.14437 0.16015 0.10145 0.055747 0.02533 0.057227 0.29974 0.042265 
0.11428 0.11839 0.094384 0.026974 -0.028433 -0.0406 0.090767 0.023686 
0.023193 0.0059294 0.019576 -0.010019 -0.052273 -0.16934 -0.1723 -0.026131 
-0.18512 -0.18183 -0.11903 -0.073976 -0.040271 -0.32191 -0.35447 -0.096007 
-0.26206 -0.16161 -0.13497 -0.039942 -0.018239 -0.32421 -0.37173 -0.10817 
-0.14895 -0.018404 -0.0075525 0.011684 0.0011614 -0.093212 -0.42204 -0.068879 
-0.068221 0.01563 0.044073 0.028947 0.018918 0.19336 -0.28558 -0.011498 
-0.030899 -0.023501 0.013164 0.028125 0.043745 0.3364 0.065447 0.16015 
-0.0019624 0.017603 0.027961 0.039963 0.085341 0.26735 0.16245 0.40973 
-0.065097 0.028783 0.024837 0.049828 0.093233 0.13187 0.036017 0.38096 
-0.057863 -0.025802 0.039634 0.050321 0.097015 0.0056006 -0.092554 -0.051944 
0.010533 0.021056 0.10474 0.064954 0.09126 0.023357 -0.07414 -0.3007 
0.033551 0.059857 0.063803 0.024344 0.05065 -0.077757 -0.12741 -0.31649 
-0.019719 0.050486 0.033222 -0.036983 -0.048327 -0.19844 -0.19877 -0.33046 
0.033551 0.070708 0.04654 0.0093821 0.020891 0.0013258 -0.015609 -0.22047 
0.066105 0.083533 0.047197 0.057884 0.07449 0.34676 0.30335 0.01711 
0.041936 0.052787 0.017274 0.053938 0.11872 0.44935 0.58171 0.2736 
0.057884 0.027796 -0.0019624 0.088465 0.16475 0.49243 0.76273 0.44508 
0.094877 0.048841 0.0324 0.052459 0.13368 0.43291 0.88538 0.47155 
0.054596 0.064625 0.037661 0.032893 0.10819 0.34742 0.73264 0.22509 
-0.028104 0.02829 0.011355 0.0014903 0.030263 0.23545 0.3946 -0.035174 
-0.072989 -0.020377 -0.023007 -0.045368 -0.058356 -0.055232 0.12497 -0.12264 
-0.12626 -0.055726 -0.032708 -0.091568 -0.18709 -0.4421 -0.26864 -0.061809 
-0.17493 -0.042408 -0.028762 -0.075949 -0.23033 -0.62969 -0.70713 -0.052437 
-0.12955 0.0018191 0.028947 -0.029748 -0.11048 -0.40494 -0.73706 -0.12478 
-0.011827 0.075641 0.063474 0.053445 0.093398 0.34462 -0.085649 -0.099953 
0.014643 0.016945 0.046211 0.08978 0.16755 0.6381 0.19649 -0.2642 
-0.021199 -0.0034422 0.020727 0.073175 0.15012 0.28872 -0.28952 -0.52858 
0.10984 0.10359 -0.0024557 0.055747 0.10425 -0.18315 -0.62542 -0.35562 
0.25008 0.24943 0.028454 0.080244 0.038648 -0.42352 -0.30268 0.026974 
0.20323 0.16294 0.10014 0.076956 -0.045696 -0.48912 -0.26765 0.31651 
0.0062583 -0.061973 0.097344 0.094384 -0.10094 -0.44917 -0.74873 0.3216 
-0.098967 -0.10998 0.058706 0.044731 -0.11968 -0.5049 -0.65781 0.26603 
-0.10423 -0.063782 0.041936 -0.019719 -0.10916 -0.42812 -0.13021 0.15176 
-0.0091966 0.047526 -0.024487 -0.013965 0.0065871 -0.13481 0.14437 0.024015 
0.10869 0.026152 -0.06444 0.0090533 0.12875 0.26455 0.18119 0.056898 
0.21523 0.070544 0.03388 0.055911 0.20339 0.51298 0.26981 0.098166 
0.14831 0.14897 0.15818 0.10984 0.18925 0.59848 0.37487 0.044731 
0.082711 0.18646 0.14453 0.12677 0.15078 0.41368 0.35958 -0.026131 
0.091096 0.16738 0.090438 0.05624 0.080409 0.15703 0.2754 -0.029091 
0.068078 0.080409 -0.0055795 0.0051074 0.02829 -0.021692 0.16903 0.02533 
-0.0013048 0.004943 -0.062467 -0.0082102 0.00033937 -0.036654 0.18596 0.056898 
-0.059014 -0.017417 -0.071838 -0.047505 -0.029255 -0.020541 0.22493 0.03799 
-0.05441 0.0062583 -0.020377 -0.045203 -0.078579 -0.1187 0.19599 -0.038133 
-0.020048 0.070708 0.027139 -0.025474 -0.094034 -0.19679 0.11132 -0.07562 
0.048019 0.083533 0.053116 -0.013307 -0.058685 -0.13991 0.039799 -0.044874 
0.10852 0.011355 0.014479 0.00050378 -0.021692 0.0074092 0.036839 0.062159 
0.095864 0.01152 0.02533 0.05624 0.021713 0.083533 -0.0054151 0.12431 
0.082053 0.070873 0.037168 0.040785 0.033058 -0.014787 0.012506 0.1664 
0.040785 0.062817 0.041607 0.029605 -0.0057439 -0.11672 -0.031228 0.10688 
-0.0054151 0.055747 0.053445 0.033715 -0.0040998 -0.099789 0.016781 0.054925 
0.073997 0.10474 0.090438 0.01563 -0.0047575 0.011355 0.26784 0.10869 
0.18202 0.21556 0.14617 0.074161 0.07449 0.13582 0.3558 0.20701 
0.20651 0.30237 0.14075 0.12891 0.11691 0.087808 0.0013258 0.2098 
0.23594 0.33262 0.16623 0.11888 0.1322 0.019411 -0.25927 0.16031 
0.14174 0.085177 0.046375 0.054925 0.044073 -0.026296 -0.10719 -0.0027845 
0.03947 -0.092719 -0.07562 -0.0049219 -0.057534 -0.18232 0.016945 -0.13267 
-0.012814 -0.098802 -0.13793 -0.1085 -0.13958 -0.17279 -0.018568 -0.14254 
-0.080881 -0.14303 -0.14139 -0.12642 -0.098967 -0.047176 -0.37929 -0.14303 
-0.20847 -0.19071 -0.1427 -0.072003 0.018425 0.078272 -0.45328 -0.21126 
-0.24661 -0.22902 -0.1279 -0.02794 0.15127 0.29645 0.047526 -0.16818 
-0.14139 -0.084169 0.027632 0.12595 0.34133 0.49818 0.4288 0.049992 
0.097015 0.11214 0.19616 0.30648 0.40858 0.44442 0.59618 0.28839 
0.24482 0.19501 0.25337 0.27064 0.22789 -0.059507 0.23726 0.41121 
0.24499 0.13664 0.18678 0.14157 0.046046 -0.46824 -0.42829 0.45314 
0.15982 0.086328 0.0421 0.049992 -0.036654 -0.44259 -0.65699 0.37372 
-0.011005 0.0023123 -0.045532 -0.061809 -0.14434 -0.32849 -0.27884 0.23973 
-0.07003 -0.0098543 -0.082525 -0.10801 -0.18446 -0.0095255 0.30418 0.17593 
-0.017911 0.067091 -0.0088678 -0.068714 -0.18364 0.24745 0.55146 0.1419 
0.015465 0.13236 0.062981 -0.060987 -0.11639 0.36879 0.59683 -0.053588 
-0.023829 0.13467 0.064954 -0.010019 0.0046141 0.33295 0.56329 -0.34542 
-0.044546 0.065776 0.014479 -0.0070593 0.11329 0.36994 0.41828 -0.52611 
-0.098802 -0.017253 -0.018404 -0.035667 0.087972 0.3387 0.089452 -0.59122 
-0.082032 -0.0027845 -0.013471 -0.058521 -0.02087 0.1174 -0.1039 -0.56113 
-0.010183 0.053116 0.030427 0.011684 -0.035832 -0.052109 0.10063 -0.23872 
0.080409 0.059035 0.1003 0.023522 -0.038133 -0.16194 0.11247 0.25896 
0.17528 0.076627 0.096521 0.053445 0.0034632 -0.23691 -0.10193 0.55047 
0.16952 0.037661 0.0047785 0.018096 0.053938 -0.23707 -0.47038 0.49243 
0.029934 -0.056548 -0.079237 -0.10275 0.072517 -0.069701 -0.52233 0.2833 
-0.063453 -0.098638 -0.054739 -0.090581 0.12184 0.10129 -0.18413 0.056733 
-0.1256 -0.057863 0.024179 -0.031557 0.14831 0.14831 0.12858 0.026481 
-0.14993 -0.013307 0.067256 0.040292 0.098823 0.08863 0.1225 0.060679 
-0.015773 0.080573 0.15374 0.12431 0.056076 -0.042737 -0.09798 0.021384 
0.12973 0.13401 0.10754 0.15785 -0.0049219 -0.10127 -0.18808 -0.047834 
0.13351 0.15308 0.091753 0.14042 -0.010019 -0.10637 -0.16901 -0.16818 
0.062159 0.11773 0.059857 0.11428 -0.019555 -0.056712 -0.11294 -0.22968 
-0.012814 0.046868 0.031578 0.082711 -0.00031829 -0.0024557 -0.094363 -0.19301 
0.0088889 0.044073 0.012999 0.063639 0.018096 0.08567 0.037826 0.0088889 
0.054432 0.068407 0.031578 0.054596 -0.0073881 0.073832 0.080573 0.08008 
-0.006566 -0.018075 -0.038791 0.035031 -0.019555 0.053609 0.064461 0.10162 
-0.16391 -0.071016 -0.065919 0.0028056 -0.020377 0.073668 0.029934 -0.013965 
-0.18808 -0.050136 -0.0052507 0.025495 0.0052718 0.15308 0.030427 -0.037147 
-0.13185 0.032729 0.021713 0.048513 0.025659 0.1756 0.13253 -0.055068 
-0.021034 0.0016547 -0.015609 0.027961 0.017438 0.21441 0.34495 0.017932 
0.065118 -0.0054151 -0.029584 0.0047785 -0.03057 0.15555 0.42946 0.147 
0.16903 0.069393 0.03651 0.046375 -0.021856 0.13072 0.40118 0.26718 
0.21112 0.086821 0.099974 0.1174 0.04654 0.14321 0.42371 0.3096 
0.22509 0.14617 0.14157 0.15587 0.10376 0.13878 0.46366 0.19418 
0.22822 0.17462 0.16245 0.18218 0.14782 0.11017 0.49112 0.084355 
0.17297 0.12908 0.080902 0.14026 0.10556 -0.021199 0.38408 0.00033937 
-0.02087 -0.080388 -0.059014 0.023357 -0.033365 -0.20682 0.22657 -0.0503 
-0.14698 -0.13366 -0.13711 -0.057534 -0.13119 -0.23428 -0.1205 -0.1649 
-0.11212 0.023522 -0.11278 -0.043395 -0.20107 -0.25039 -0.60405 -0.20732 
-0.087458 0.079258 0.0014903 0.01711 -0.14533 -0.16161 -0.91988 -0.18282 
-0.073318 0.15374 0.16673 0.14601 0.0080668 -0.0771 -1.1118 -0.073482 
-0.022679 0.3073 0.27705 0.25732 0.12447 -0.047669 -0.95046 -0.028597 
0.055254 0.34364 0.25189 0.25978 0.16393 -0.14369 -0.4587 -0.1108 
0.11362 0.051143 0.025824 0.12809 0.084684 -0.32421 -0.12264 -0.28179 
0.18514 -0.090088 -0.14961 0.0090533 0.01152 -0.55965 -0.13168 -0.28837 
0.35564 0.082546 -0.043066 0.0098754 0.01563 -0.37732 0.046375 0.075148 
0.39049 0.27902 0.1544 0.1391 0.06742 0.31782 0.71866 0.28593 
0.041772 0.11724 0.17347 0.18366 0.069393 0.78723 1.2371 0.1807 
-0.19252 -0.05178 0.071366 0.13236 0.020891 0.7693 1.2298 0.37093 
-0.095021 -0.11689 -0.10669 -0.0027845 0.0060938 0.57842 0.84576 0.59831 
0.039799 -0.21175 -0.28837 -0.12462 0.090109 0.38129 0.45346 0.49424 
0.029276 -0.19531 -0.2254 -0.13991 0.17593 0.2417 0.095206 0.31832 
-0.069208 -0.066084 0.016945 -0.0059084 0.19846 0.088794 -0.045861 0.17577 
-0.11442 0.022042 0.18843 0.13565 0.12168 -0.038627 -0.092719 0.027303 
-0.03353 0.084026 0.20273 0.18958 0.052459 -0.13136 -0.17871 -0.066248 
0.079258 0.087314 0.16821 0.18958 0.0227 -0.1649 -0.21438 -0.073318 
0.10935 0.039141 0.071037 0.15423 -0.063453 -0.23658 -0.28607 -0.12856 
0.10984 -0.012978 0.016616 0.097179 -0.10521 -0.25894 -0.29429 -0.12166 
0.11263 -0.014129 -0.022514 0.053281 -0.039613 -0.19104 -0.22869 -0.12445 
0.10195 0.028619 -0.046519 0.020891 -0.0013048 -0.1233 -0.17558 -0.12938 
0.077285 0.1248 -0.049642 -0.0029489 0.02681 -0.079237 -0.11212 -0.11163 
0.032564 0.16097 -0.014787 0.005765 0.0024767 -0.054246 -0.068714 -0.085156 
0.07038 0.20125 0.028783 0.055911 0.0042853 -0.028269 -0.054575 -0.020048 
0.12661 0.18744 0.072681 0.094384 0.055582 0.004943 -0.022185 0.040621 
0.086163 0.09833 0.056076 0.097508 0.065776 0.048348 0.023357 0.091918 
0.017438 -0.009361 0.043745 0.087314 0.068242 0.041936 -0.051287 0.04095 
-0.01232 -0.001798 0.040621 0.092576 0.10491 0.047033 -0.10686 0.041936 
0.017767 0.05772 0.080409 0.097344 0.062981 0.045553 -0.053753 0.032236 
0.029276 0.14075 0.04358 0.11099 0.072517 0.056076 0.0079024 0.0592 
0.026152 0.091096 0.03388 0.098001 0.055911 0.03947 0.080738 -0.031228 
-0.053917 -0.096336 -0.048656 0.030427 0.040456 0.018096 0.016123 -0.049314 
-0.1552 -0.28722 -0.080059 -0.015609 0.021878 0.0051074 -0.079237 -0.025802 
-0.065262 -0.18528 0.0042853 0.024179 0.018754 0.026974 -0.030735 0.10113 
0.081067 0.052787 0.12135 0.093562 0.062981 0.10688 0.056076 0.16229 
0.14223 0.15752 0.12497 0.13417 0.060022 0.08304 0.1008 0.17758 
0.13993 0.13976 0.066105 0.13006 0.031414 0.074326 0.11872 0.17265 
0.11362 0.10869 0.044073 0.10343 0.0014903 1.0539e-005 0.14223 0.087808 
0.08008 0.085835 0.044731 0.092576 -0.030077 0.022371 0.19106 -0.024323 
0.066598 0.10425 0.0024767 0.064296 -0.041586 0.043416 0.20849 -0.059178 
0.042429 0.05476 0.02533 0.060844 0.039634 0.18859 0.18037 -0.016102 
-0.0022913 0.058542 0.084519 0.10178 0.14042 0.24071 0.11691 0.040785 
-0.0064016 0.09274 0.087479 0.14535 0.18563 0.26472 0.12809 0.12332 
-0.015609 0.10836 0.058706 0.11642 0.1442 0.24745 0.15275 0.14206 
0.04358 0.10721 0.029112 0.084684 0.0227 0.086492 0.14667 0.10589 
0.044073 0.030427 0.0016547 0.045389 -0.0503 -0.065919 0.015465 -0.0032777 
0.055747 0.0041209 0.027139 0.050486 -0.055726 -0.12593 -0.0055795 -0.079237 
0.029112 0.031742 0.028125 0.060844 -0.025474 -0.091732 0.057555 -0.013965 
-0.027611 -0.02646 -0.037805 0.051472 0.0023123 -0.11968 -0.13119 -0.024158 
-0.041586 -0.060165 -0.013965 0.039141 -0.021363 -0.19466 -0.30563 0.026974 
0.0093821 0.00050378 0.012506 0.052294 0.018589 -0.14336 -0.23116 0.15472 
0.10902 0.11181 0.067749 0.08304 0.070708 0.011355 -0.15388 0.24219 
0.24663 0.30763 0.15818 0.14913 0.083204 0.10376 -0.08269 0.17889 
0.27195 0.4094 0.19501 0.19205 0.10984 0.11987 -0.11508 0.078272 
0.13467 0.18054 0.038483 0.1299 0.088958 0.16212 -0.10505 0.025988 
-0.04619 -0.20304 -0.1621 -0.027611 0.068242 0.22296 -0.043888 -0.013965 
-0.095185 -0.25894 -0.11376 -0.049149 0.098001 0.23512 -0.090581 -0.021034 
-0.031721 -0.016102 0.074983 0.058213 0.10869 0.22559 -0.038462 0.03947 
-0.066906 0.056569 0.13072 0.12036 0.013657 0.14519 0.22674 0.063474 
-0.099624 0.023851 0.076463 0.10228 -0.12708 -0.20715 0.43423 0.053445 
-0.082525 -0.015444 -0.008539 0.059528 -0.22721 -0.35825 0.46843 -0.0004827 
-0.050136 0.039141 -0.029913 0.040292 -0.15848 -0.23313 0.16492 -0.020212 
-0.0029489 0.058377 0.01415 0.055418 -0.019719 0.041443 0.056404 -0.046354 
0.042923 0.071859 0.014643 0.057227 0.027961 0.232 0.23578 -0.087293 
0.18317 0.1927 0.052623 0.083697 0.11 0.42502 0.33821 -0.089924 
0.20471 0.19747 0.10622 0.11609 0.20454 0.3706 0.059857 -0.218 
0.072681 0.053609 0.1026 0.13171 0.21654 0.057555 -0.17986 -0.2185 
-0.025802 -0.059343 0.0079024 0.094877 0.12266 -0.1917 -0.17328 -0.071181 
0.016452 -0.011663 -0.026789 0.040456 0.039141 -0.33309 -0.1963 0.059857 
-0.0060728 -0.053588 -0.06 0.004943 0.0065871 -0.34624 -0.27522 0.13828 
-0.044546 -0.05885 -0.020048 0.022371 0.0092177 -0.17032 -0.36992 0.18958 
-0.1062 -0.062631 0.012342 0.034044 -0.019226 -0.091897 -0.25878 0.10293 
-0.098967 -0.033037 0.030592 0.052459 -0.12018 -0.18627 -0.091732 0.00050378 
-0.049807 0.027961 0.036017 0.095371 -0.16259 -0.21241 0.0090533 -0.049478 
0.013821 0.06742 0.030592 0.084519 -0.056877 -0.050958 -0.032543 -0.030242 
0.093233 0.13384 0.016288 0.070873 0.035688 0.096028 -0.053917 0.0041209 
0.16393 0.12562 -0.018239 0.043745 0.0056006 0.14321 -0.0054151 0.033551 
0.13713 0.04506 0.02122 0.044896 0.025495 0.063639 0.022042 0.052294 
0.032071 -0.038956 0.049006 0.065612 0.045389 0.013657 0.089452 0.07449 
-0.010512 0.0088889 0.041114 0.10688 0.049499 0.035688 0.18448 0.061666 
0.036017 0.08863 0.074654 0.11773 0.056076 0.12151 0.19353 0.037004 
0.0072447 0.065447 0.059693 0.10704 0.041443 0.10967 0.16048 -0.060329 
-0.22754 -0.083347 -0.023829 0.051472 0.043087 0.068407 0.10606 -0.16802 
-0.39064 -0.1843 -0.057205 0.0031344 0.038155 -0.0098543 0.038319 -0.20288 
-0.2282 -0.12938 -0.034023 0.013492 0.0013258 -0.03764 0.037004 -0.15125 
0.063803 -0.0095255 0.01267 0.06183 -0.0095255 -0.054575 0.069229 -0.056877 
0.30418 0.12151 0.031249 0.070051 0.0039565 -0.025474 0.079258 0.036346 
0.44048 0.20569 0.056076 0.091096 0.0064227 0.029112 0.062159 0.10803 
0.34232 0.21375 0.047855 0.085012 0.0046141 0.018918 0.038155 0.094384 
0.17676 0.17593 0.098659 0.1128 -0.024323 -0.044546 0.02829 0.085012 
0.044238 0.16706 0.11214 0.12661 -0.004593 -0.064933 -0.033201 0.033715 
-0.1284 0.035524 0.029769 0.11 0.039634 -0.010183 -0.0087034 -0.026296 
-0.25647 -0.098144 -0.052109 0.039141 0.058377 0.029276 0.039305 -0.050958 
-0.20699 -0.051287 -0.024158 0.030098 0.084355 0.053774 0.08863 0.033551 
-0.058192 0.044896 0.060022 0.077614 0.12776 0.12825 0.13467 0.11872 
0.012342 0.058049 0.12825 0.13253 0.10014 0.1276 0.15522 0.12365 
-0.0098543 0.040456 0.099645 0.12595 1.0539e-005 0.061501 0.095864 -0.013471 
-0.018733 0.04095 0.020069 0.088136 -0.058521 0.010204 0.024344 -0.0019624 
0.075312 0.040292 -0.046025 0.043745 -0.051287 -0.022679 0.037332 0.093069 
0.090767 0.050814 -0.025309 0.02829 -0.0026201 -0.027118 -0.12379 0.068242 
0.03536 -0.001798 -0.046354 0.01004 0.0227 -0.035667 -0.28854 -0.021199 
-0.052273 -0.027611 0.0067515 0.036675 0.02533 -0.031557 -0.22113 -0.025802 
-0.073154 -0.010512 0.081067 0.08304 -0.010841 0.00066819 0.01974 0.096028 
-0.0088678 0.10935 0.14108 0.14831 0.055418 -0.0042642 0.2371 0.14667 
0.10967 0.19402 0.11247 0.17478 0.081231 0.031578 0.18596 0.15538 
0.16212 0.17363 0.077614 0.13828 0.051801 -0.0068948 0.037661 0.12957 
0.22115 0.16525 0.074654 0.12266 0.0064227 -0.017911 -0.055232 0.20832 
0.30549 0.23266 0.1197 0.15423 0.079422 0.097179 -0.060494 0.33377 
0.27721 0.2343 0.13236 0.15456 0.17001 0.35514 -0.011334 0.2948 
0.10441 0.027796 -0.031721 0.065776 0.11855 0.29448 0.045389 0.18136 
0.055582 0.033387 -0.055561 0.044073 0.075805 0.20257 0.05065 -0.029255 
0.050979 0.094877 0.049828 0.081067 0.016781 0.047033 0.053774 -0.19005 
-0.13727 -0.097158 0.048184 0.08156 -0.034845 -0.12725 -0.026953 -0.25565 
-0.39902 -0.364 -0.12346 -0.012649 -0.092719 -0.30054 -0.12659 -0.19005 
-0.44867 -0.30646 -0.10078 -0.046354 -0.0965 -0.25269 0.024179 -0.033859 
-0.2328 -0.0083746 0.038483 0.030263 -0.0073881 0.0065871 0.12644 0.13039 
-0.0032777 0.1761 0.11839 0.1396 0.074819 0.23693 0.16229 0.0031344 
0.19122 0.29957 0.19435 0.2006 0.088794 0.29974 0.25617 -0.071181 
0.24515 0.30253 0.17593 0.20799 0.01267 0.18432 0.32177 0.069229 
0.071859 0.10951 0.057062 0.13631 -0.054739 0.043909 0.10902 0.23529 
-0.040271 -0.055068 -0.07414 0.021878 -0.044546 -0.051615 -0.38685 0.18613 
0.03536 -0.040435 -0.087458 -0.025967 0.019576 -0.14615 -0.6879 0.15341 
0.066763 0.060022 -0.084498 -0.0060728 0.097508 -0.1307 -0.30185 0.17741 
0.098494 0.08156 0.020562 0.041607 0.15933 0.029769 0.24729 0.12957 
0.13894 0.068407 0.14042 0.13105 0.17018 0.11592 0.31503 0.04095 
0.13943 0.053774 0.10589 0.13434 0.13023 0.14289 0.12858 0.047033 
0.11937 0.1174 0.071366 0.099481 0.096686 0.14617 0.022864 0.097837 
0.075148 0.10343 0.029276 0.067585 0.075476 0.12825 -0.0055795 0.073339 
-0.091404 -0.076771 -0.061973 0.018425 -0.0060728 0.060679 -0.0013048 -0.056548 
-0.1575 -0.13958 -0.075949 -0.0075525 -0.049149 -0.03205 0.034044 -0.19268 
0.015959 0.067256 0.088465 0.08008 -0.051615 -0.05441 0.090931 -0.18315 
0.12957 0.12677 0.097672 0.11757 -0.047998 -0.065097 0.039963 -0.17246 
0.022864 0.04095 -0.0070593 0.059857 -0.059178 -0.12955 -0.046354 -0.13514 
-0.032379 0.049499 0.0072447 0.038648 -0.062138 -0.17295 -0.05737 0.034537 
-0.013143 -0.03764 -0.018239 0.03092 -0.037805 -0.11179 1.0539e-005 0.19731 
0.023193 -0.10653 -0.13695 -0.028433 -0.027775 -0.022185 0.037497 0.18465 
-0.047998 -0.068714 -0.109 -0.052273 0.0069159 0.055582 0.037826 0.088958 
-0.086964 0.034209 0.032564 0.03388 0.056733 0.10885 0.029934 0.029769 
-0.043888 0.087314 0.15292 0.13434 0.15292 0.17412 -0.014293 0.04506 
0.086985 0.095042 0.14716 0.15867 0.16788 0.1858 -0.0021268 0.13319 
0.18662 0.10359 0.060186 0.1271 0.10737 0.12628 0.02829 0.22115 
0.20717 0.071695 0.016123 0.11066 0.10589 0.08715 0.078929 0.22559 
0.1784 0.055911 0.010204 0.074654 0.093398 0.058871 0.17692 0.078436 
0.15407 0.059693 -0.00097594 0.050157 0.061501 0.044731 0.19747 0.035853 
0.15637 0.089616 0.032071 0.068571 0.02829 0.046704 0.20553 0.17873 
0.18498 0.078436 0.046046 0.071531 0.01152 0.03092 0.10655 0.2121 
0.1276 0.066434 0.032893 0.065776 0.0093821 0.05476 0.083204 -0.024816 
-0.012978 0.049828 -0.017911 0.068078 -0.025802 0.037661 0.023357 -0.22935 
-0.091404 0.0069159 -0.01528 0.044073 -0.1284 -0.18019 -0.15109 -0.3474 
-0.13859 0.011026 0.020891 0.052952 -0.20699 -0.36071 -0.33523 -0.44358 
-0.13251 0.10408 0.081889 0.099645 -0.11196 -0.28147 -0.27308 -0.64761 
-0.096007 0.12381 0.065118 0.097508 -0.059343 -0.087951 0.079258 -0.63841 
-0.011005 0.063474 0.089287 0.11083 -0.014458 0.010204 0.23167 -0.15931 
0.090274 0.085177 0.082053 0.15259 0.056076 0.039963 0.042265 0.44755 
0.1174 0.08008 0.016781 0.094055 0.11658 0.049992 -0.02087 0.61064 
0.18399 0.11806 -0.10373 0.0021479 0.19418 0.41072 0.27392 0.50476 
0.18054 0.057555 -0.13563 -0.050793 0.25403 0.68151 0.4898 0.41203 
0.11017 0.0227 0.075641 0.061337 0.28773 0.69729 0.57957 0.39641 
0.038483 -0.055397 0.21786 0.16574 0.18119 0.37931 0.42716 0.26685 
0.073997 0.033551 0.17708 0.21046 -0.021034 0.039141 0.22739 0.05213 
0.11839 0.1031 0.020233 0.10803 -0.17986 -0.19581 0.0786 -0.070359 
-0.016431 -0.1815 -0.23214 -0.081868 -0.21406 -0.364 -0.15322 -0.15092 
-0.13596 -0.32027 -0.34098 -0.2185 -0.16621 -0.41185 -0.37699 -0.14139 
-0.075949 -0.14517 -0.11672 -0.12363 -0.030077 -0.31632 -0.36614 -0.17394 
-0.09798 0.036675 0.15472 0.066598 0.12924 0.0059294 -0.15996 -0.3035 
-0.11097 0.09274 0.22641 0.19681 0.18284 0.11378 -0.059836 -0.21948 
-0.012814 0.16196 0.15423 0.19731 0.18695 0.045718 -0.013636 -0.074798 
0.12546 0.1756 0.11346 0.16623 0.12579 -0.039942 -0.06855 0.044896 
0.21161 0.18876 0.10573 0.14963 0.010369 -0.21175 -0.2032 0.17659 
0.17544 0.20142 0.062323 0.11724 -0.082032 -0.25368 -0.0095255 0.23151 
0.12546 0.15867 0.054925 0.094548 -0.12314 -0.11557 0.37619 0.22394 
0.18481 0.13351 0.061501 0.10935 -0.074304 0.17412 0.73889 0.22115 
0.2052 0.11 0.032071 0.10524 -0.0027845 0.3928 0.83688 0.16393 
0.15357 0.050814 0.035031 0.089123 0.043909 0.36748 0.49062 0.072188 
-0.008539 -0.03057 0.0064227 0.063474 0.027468 0.13236 -0.034352 -0.028433 
-0.11672 -0.048985 -0.011498 0.044073 -0.06 -0.1501 -0.52628 0.049499 
-0.16703 -0.063782 -0.040764 0.00297 -0.15289 -0.42434 -0.96641 0.017603 
-0.17279 -0.079566 -0.081045 -0.03057 -0.20025 -0.5682 -1.0149 -0.18528 
-0.14336 -0.063289 -0.044217 0.02122 -0.010183 -0.32454 -0.47153 -0.30284 
-0.091568 -0.065919 0.0062583 0.047526 0.21687 0.10622 0.019083 -0.18643 
-0.017911 0.020727 0.035688 0.069229 0.26866 0.30171 0.18876 -0.054739 
0.16853 0.17939 0.13023 0.13368 0.21786 0.29875 0.22378 0.053938 
0.27721 0.21013 0.183 0.18218 0.17001 0.21835 0.17314 0.075805 
0.16985 0.11658 0.18235 0.19862 0.16048 0.13697 0.04654 0.069393 
0.018096 0.023193 0.063474 0.16738 0.092904 0.031578 -0.052602 0.060844 
-0.047012 0.0083956 -0.00097594 0.084355 -0.027447 -0.11491 -0.13514 0.070544 
0.021549 0.12776 0.027796 0.074326 -0.10406 -0.17986 -0.11179 0.14848 
0.12809 0.10606 -0.038956 0.027796 -0.069208 -0.089102 0.049499 0.19895 
0.18169 -0.059343 -0.10932 -0.045861 -0.038956 0.048348 0.25321 0.13105 
0.035853 -0.071181 -0.066906 -0.027118 0.041936 0.20142 0.43143 0.11444 
-0.073976 0.026974 0.089945 0.096193 0.081724 0.24236 0.45083 0.047362 
-0.081374 0.052787 0.12825 0.13927 0.07038 0.14963 0.414 -0.039449 
0.019247 0.076134 0.10491 0.13993 0.0046141 0.0028056 0.27738 -0.018568 
0.12661 0.067749 0.039305 0.099645 -0.060329 -0.12166 0.15374 -0.02087 
0.19895 0.14387 0.058871 0.092411 -0.047998 -0.157 -0.071345 0.075805 
0.10852 0.092904 0.049828 0.081231 0.032071 -0.10176 -0.39968 0.075148 
-0.098638 -0.067728 -0.043395 0.045224 0.034209 -0.16194 -0.62854 -0.10028 
-0.11672 -0.064275 -0.049478 0.014315 0.0024767 -0.21406 -0.66143 -0.25516 
-0.054904 0.055747 0.036675 0.061008 0.029112 -0.15832 -0.47399 -0.38784 
-0.031721 0.072188 0.061008 0.086163 0.068736 0.071859 -0.14846 -0.3229 
0.046375 0.11642 0.10441 0.1197 0.16081 0.378 0.11329 0.056404 
0.17725 0.24959 0.20487 0.18251 0.21901 0.43768 0.13335 0.38638 
0.19205 0.26784 0.17544 0.20783 0.11148 0.17725 -0.02087 0.36616 
0.18909 0.2297 0.097344 0.16689 -0.006566 -0.02087 -0.19729 0.33706 
0.26291 0.21358 0.065612 0.13319 -0.025474 0.025166 -0.060165 0.32308 
0.27343 0.2468 0.084026 0.1299 0.043087 0.09126 0.22838 0.27853 
0.12266 0.03651 0.016123 0.080409 0.013821 -0.01528 0.22197 0.079094 
-0.13563 -0.24036 -0.11196 -0.02646 -0.030899 -0.055397 0.16344 -0.11722 
-0.26371 -0.3571 -0.18709 -0.10867 -0.017088 0.022535 0.20898 -0.17295 
-0.28656 -0.32701 -0.23461 -0.13711 -0.006566 0.19501 0.33278 -0.24612 
-0.2328 -0.13349 -0.031392 -0.040271 0.009711 0.32128 0.43439 -0.24414 
-0.080881 0.10113 0.1248 0.091096 0.026317 0.30171 0.32999 -0.078415 
0.013657 0.22624 0.1636 0.1562 -0.013636 0.04654 0.20076 0.079587 
0.093233 0.21885 0.13845 0.15883 -0.039284 -0.13563 0.094877 0.030427 
0.16969 0.17593 0.1179 0.15916 0.053116 -0.027447 0.14617 0.0093821 
0.16377 0.098988 0.12957 0.19353 0.14617 0.2218 0.21474 0.0019835 
0.062652 0.00066819 -0.0013048 0.095864 0.10672 0.15735 0.03651 -0.018239 
0.022371 -0.052109 -0.081868 0.0064227 0.039799 0.0070803 -0.097158 0.13861 
0.048841 0.03388 -0.04471 0.0046141 -0.01676 -0.08828 -0.077757 0.17495 
-0.027775 0.04358 0.069064 0.066434 -0.004593 -0.060494 -0.10489 -0.10982 
-0.052931 0.053116 0.14338 0.1373 0.013492 -0.037969 -0.14484 -0.1404 
0.0021479 0.061337 0.10918 0.16936 0.020398 0.030756 -0.055726 0.04506 
0.09833 -0.001798 -0.004593 0.085506 0.0036276 0.048677 0.026974 0.24926 
0.11148 -0.026296 -0.079401 0.0082312 -0.055397 0.013492 0.094548 0.256 
0.079587 -0.0072237 -0.071181 -0.012485 -0.025145 0.0011614 0.15604 0.20947 
0.023851 -0.004593 -0.059507 -0.021856 0.007738 0.025988 0.12792 0.054432 
-0.089595 -0.049478 -0.02794 -0.01528 0.00099702 1.0539e-005 0.077614 -0.10784 
-0.11919 0.0087245 0.03092 0.067256 0.051143 0.044402 0.083697 -0.1404 
-0.097158 0.066105 0.10556 0.12283 0.061501 0.12628 0.11658 0.016945 
-0.022679 0.033058 0.10951 0.13976 0.097344 0.11428 0.15949 0.11609 
0.054103 0.041443 0.067749 0.11411 0.10803 0.053609 0.12579 0.083368 
0.08567 0.034044 0.043745 0.090931 0.073997 0.056404 0.08304 0.086821 
0.061008 0.009711 0.058706 0.076956 0.038155 -0.047505 -0.019719 0.036346 
0.0052718 0.051472 0.0059294 0.078929 -0.028597 -0.11064 -0.053753 0.0090533 
0.029934 0.10392 0.0067515 0.061501 -0.078086 -0.12922 -0.11804 0.0016547 
0.033387 0.099152 0.018096 0.061995 -0.022185 -0.081374 -0.075784 0.059693 
0.08008 0.090931 0.019411 0.061008 -0.013143 -0.0022913 0.17774 0.088465 
0.067913 0.020562 0.03651 0.064625 0.014315 0.038812 0.18054 0.031414 
-0.0039354 -0.034352 0.031907 0.055418 0.015794 -0.0027845 -0.065426 -0.072332 
-0.09239 -0.099953 -0.0054151 0.044402 -0.018239 -0.055561 -0.21981 -0.15059 
-0.12856 -0.079566 -0.0088678 0.044238 -0.0027845 -0.035174 -0.16062 -0.12083 
-0.050629 0.05476 0.041936 0.069229 0.085012 0.10704 0.098988 0.023851 
0.11855 0.16525 0.10622 0.11806 0.11921 0.15686 0.27376 -0.004593 
0.20701 0.20997 0.087643 0.11395 0.10425 0.098988 0.24696 -0.094034 
0.24384 0.16508 0.048513 0.086492 0.045882 0.037004 0.18054 0.17774 
0.2292 0.14486 0.041443 0.087972 0.058049 0.059693 0.085177 0.42157 
0.17018 0.10556 0.075641 0.12595 0.077614 0.064954 -0.030406 0.39477 
-0.013143 0.035853 0.060186 0.11099 0.02533 -0.039284 -0.10373 0.092904 
-0.18101 -0.055561 0.011026 0.068571 -0.051122 -0.11196 -0.11722 -0.24332 
-0.19712 -0.093541 -0.016431 0.042758 -0.040106 -0.07825 -0.15191 -0.31632 
-0.094692 -0.048163 0.014315 0.048184 -0.0032777 -0.0040998 -0.14073 -0.090746 
-0.013471 0.02829 0.080902 0.094384 0.032729 0.06594 0.00050378 0.069886 
0.018589 0.085999 0.063639 0.12743 0.047362 0.11083 0.016945 0.070708 
0.093069 0.088301 0.037004 0.098659 0.086163 0.14798 0.033058 0.086163 
0.15407 0.090931 0.04095 0.089945 0.10211 0.06594 -0.025802 0.17741 
0.099316 0.095699 0.037661 0.078765 0.024015 -0.08121 -0.13695 0.1761 
0.036675 0.14404 0.079587 0.096686 -0.0047575 -0.1912 -0.11639 0.16229 
0.041278 0.15538 0.12957 0.13351 0.0044497 -0.15947 -0.011827 0.15209 
0.015465 0.12661 0.055254 0.13861 -0.0077169 -0.066248 0.037332 0.065776 
-0.059672 -0.0029489 -0.03764 0.04917 -0.034188 -0.012156 0.032729 -0.041093 
-0.018404 0.018918 -0.037476 0.024344 -0.022679 0.044731 0.044402 -0.12067 
0.10425 0.10885 0.059364 0.074819 0.032071 0.17824 0.062817 -0.2037 
0.098166 0.073668 0.061995 0.084355 0.052623 0.28395 0.14387 -0.32849 
0.08419 -0.048656 0.038812 0.065118 0.08567 0.3267 0.18383 -0.28295 
0.054103 -0.12346 -0.014293 0.06331 0.097672 0.16853 0.075805 -0.18972 
0.026317 -0.067564 0.02122 0.058871 0.053938 -0.085485 -0.096665 -0.049314 
-0.034188 -0.011334 0.010369 0.050979 -0.032215 -0.34115 -0.22129 -0.038956 
0.012835 0.078765 0.048184 0.073832 -0.033365 -0.3982 -0.24743 -0.05326 
0.072517 0.12644 0.08567 0.10195 0.046211 -0.12807 -0.0082102 0.019576 
0.037497 0.11592 0.087643 0.11017 0.11822 0.12562 0.23611 0.21539 
-0.088773 0.10145 0.044567 0.11724 0.089287 0.22049 0.28214 0.40036 
-0.13103 0.031742 0.043251 0.09422 0.00066819 0.12694 0.19829 0.45609 
-0.063453 0.040785 -0.0022913 0.051801 -0.053753 -0.056877 -0.13563 0.56707 
0.01004 0.033058 0.038483 0.067913 -0.09946 -0.16243 -0.33441 0.47615 
-0.026624 0.027303 0.027796 0.063803 -0.067564 -0.096172 -0.24776 0.13105 
-0.018733 0.014479 0.03388 0.058871 -0.040764 -0.074304 -0.029913 -0.1866 
0.093069 0.07449 0.052459 0.086492 -0.016431 -0.092719 0.013164 -0.35101 
0.16738 0.12414 0.042923 0.097508 0.036182 -0.031392 -0.17525 -0.35627 
0.10852 0.047691 0.025001 0.079258 0.084026 0.10852 -0.16638 -0.16884 
-0.042901 -0.060658 -0.066084 0.010204 0.021384 0.1026 0.0026412 -0.061151 
-0.029091 -0.0029489 -0.037311 0.0054362 -0.045532 0.098988 0.21835 0.032071 
0.084355 0.19402 0.080409 0.0786 0.062488 0.14831 0.2685 0.068242 
0.16294 0.22378 0.14108 0.147 0.13401 0.15637 0.19862 0.044896 
0.094877 0.12529 0.099974 0.16821 0.13927 0.14256 0.10326 -0.060658 
-0.028104 0.034702 0.015465 0.09833 0.1077 0.11148 0.074326 -0.054904 
-0.11952 -0.12807 -0.063946 0.022042 0.11724 0.096357 0.16952 0.068571 
-0.097816 -0.29297 -0.13859 -0.054575 0.018754 -0.081868 0.062817 0.091753 
-0.054575 -0.24349 -0.12922 -0.0868 -0.097158 -0.43174 -0.16638 0.072188 
-0.066577 -0.031886 -0.025474 -0.026131 -0.10571 -0.59434 -0.45032 0.028619 
0.01267 0.12085 0.046211 0.076792 -0.023007 -0.33687 -0.33589 0.088465 
0.13434 0.24532 0.14782 0.15308 0.040292 0.031249 0.030756 0.14815 
0.17001 0.29497 0.19122 0.20471 0.096357 0.3198 0.2828 0.24301 
0.03536 0.1031 0.082711 0.15242 0.099645 0.38852 0.32917 0.21391 
-0.093048 -0.1769 -0.0771 0.025659 0.08008 0.30187 0.29119 0.018096 
-0.068714 -0.14714 -0.041586 0.0034632 0.07449 0.2024 0.26833 -0.12412 
0.037661 0.063145 0.019083 0.071366 0.066927 0.15094 0.2297 -0.033037 
0.12924 0.13499 0.068242 0.096686 0.05772 0.071037 0.023851 0.07301 
0.15801 0.14634 0.073339 0.10639 0.021713 0.034702 -0.17542 0.11313 
0.14913 0.14996 0.075312 0.11017 0.049664 0.057391 -0.1524 0.16196 
0.097672 0.083368 0.034209 0.08008 0.048513 0.03651 -0.043395 0.15949 
0.0056006 -0.019884 -0.031228 0.025001 -0.0054151 -0.049478 -0.018568 0.07301 
0.020891 0.012342 -0.039284 0.020233 -0.061973 -0.15717 -0.10456 -0.038956 
0.14387 0.15144 0.029276 0.056404 -0.032872 -0.099953 -0.14303 0.02122 
0.26389 0.26554 0.14223 0.14404 0.046704 0.019576 -0.034845 0.053774 
0.28527 0.28379 0.22542 0.22016 0.11609 0.10458 0.10293 0.044567 
0.15555 0.13401 0.2149 0.22953 0.12332 0.12546 0.21885 -0.028104 
-0.068386 -0.049642 0.024344 0.10704 0.084026 0.069722 0.34314 -0.1353 
-0.14763 -0.16736 -0.16523 -0.028269 -0.0406 0.046704 0.37652 -0.16358 
-0.12198 -0.25384 -0.2305 -0.12478 -0.041257 0.0786 0.17676 -0.018897 
-0.016266 -0.1667 -0.12873 -0.097322 0.00033937 0.12217 -0.10653 0.03536 
0.042265 -0.023172 -0.027282 -0.020377 0.044731 0.15193 -0.12741 0.054596 
0.063145 0.059857 0.072024 0.054267 0.11083 0.20586 -0.022514 0.11526 
0.044567 0.072188 0.17166 0.14141 0.14157 0.23315 0.20914 0.17528 
-0.011005 0.057884 0.14667 0.16919 0.064954 0.17133 0.40874 0.1738 
-0.035174 -0.016266 0.044731 0.12316 -0.0031133 0.020727 0.36271 0.12118 
-0.0011404 0.029276 0.011355 0.079587 -0.037147 -0.086636 0.1904 0.084026 
0.09833 0.16212 0.049006 0.087972 -0.032215 -0.22458 -0.067728 0.012177 
0.10376 0.13565 0.021549 0.069393 0.027632 -0.22787 -0.3109 -0.21965 
0.051143 -0.011334 -0.028433 0.013821 0.034866 -0.075784 -0.42303 -0.38242 
0.11346 0.041607 0.062488 0.077943 0.078272 0.036346 -0.3224 -0.18183 
0.19961 0.22986 0.2029 0.2029 0.054596 0.1179 -0.087458 0.077449 
0.1054 0.31585 0.20454 0.22624 -0.010841 0.10014 0.028783 0.22592 
0.0067515 0.21161 0.091918 0.16459 -0.076113 0.020891 -0.014622 0.07449 
-0.015444 0.022864 -0.095185 0.025988 -0.12198 -0.11886 -0.084663 -0.088937 
0.06183 -0.045861 -0.19087 -0.083512 -0.077264 -0.27768 -0.17756 -0.19827 
0.14815 -0.0073881 -0.06 -0.032872 0.048348 -0.21356 -0.047834 -0.069372 
0.037661 -0.030735 0.077614 0.094713 0.16064 -0.043066 0.19057 0.019411 
-0.080059 -0.077264 0.18333 0.17478 0.14897 0.15193 0.37076 0.071202 
-0.030242 0.030263 0.20158 0.21276 0.084684 0.27228 0.49095 0.079258 
-0.038133 0.068242 0.094384 0.16229 0.0021479 0.28362 0.36073 0.076627 
-0.023336 -0.063289 -0.074962 0.0324 -0.010348 0.26833 0.14256 0.30911 
0.11329 -0.084663 -0.1279 -0.040764 0.026646 0.18925 0.052787 0.39773 
0.20832 0.019576 -0.066084 -0.0004827 0.080409 0.087808 -0.056383 0.30056 
0.052952 0.040292 0.033387 0.052787 0.11395 0.019247 -0.039449 -0.071838 
-0.2014 -0.0091966 0.094055 0.098988 0.020233 -0.066084 0.0039565 -0.38505 
-0.30235 -0.045861 0.0421 0.08156 -0.10867 -0.2282 0.0085601 -0.4125 
-0.24776 -0.084827 -0.045696 0.022864 -0.16621 -0.29495 -0.071181 -0.23411 
-0.10489 -0.055232 -0.051615 -0.0034422 -0.14155 -0.27719 -0.1912 -0.099624 
0.05213 0.069558 -0.041422 0.018096 -0.056055 -0.1838 -0.21373 0.0085601 
0.24071 0.18465 0.044896 0.069558 0.06742 0.0026412 -0.15092 0.0067515 
0.33278 0.20816 0.13647 0.14453 0.18942 0.15144 -0.076771 0.036839 
0.17445 0.051965 0.1008 0.13976 0.15933 0.14798 -0.055232 0.015137 
-0.0019624 0.00050378 0.033222 0.086492 0.056076 0.030756 -0.064768 -0.00097594 
-0.054739 -0.024487 0.016452 0.059528 0.024015 -0.026131 -0.038791 0.0227 
-0.12527 -0.047341 -0.010019 0.056404 -0.012485 -0.066577 0.014315 0.068242 
-0.15174 -0.058028 0.013657 0.057555 -0.039449 -0.045861 0.067585 0.07449 
-0.041915 0.11707 0.11329 0.12118 -0.0029489 0.038812 0.099316 0.10885 
0.10918 0.25058 0.23118 0.21704 0.031907 0.19714 0.098001 0.1687 
0.16212 0.25304 0.23118 0.24581 0.070215 0.12529 0.082711 0.16015 
0.053774 0.069064 0.044073 0.11329 0.078272 0.10721 0.11461 0.086163 
-0.0044286 -0.15322 -0.29067 -0.11343 -0.039778 0.055418 0.14486 0.0087245 
0.054925 -0.15109 -0.36532 -0.22507 -0.077264 0.0039565 0.092411 -0.02087 
0.00017495 -0.11097 -0.17673 -0.157 -0.068386 -0.039778 0.045718 -0.056548 
-0.12856 -0.063124 0.054432 0.0028056 0.011191 0.012506 0.058706 -0.016266 
-0.14319 0.010204 0.1955 0.15407 0.053774 0.068571 0.095864 0.009711 
0.026317 0.12381 0.21457 0.19994 0.0592 0.045718 0.065776 0.056733 
0.14765 0.12414 0.09274 0.16081 0.051801 0.018425 0.032564 0.034373 
0.043909 0.010369 -0.025967 0.093069 0.032893 0.035688 0.023357 -0.087622 
-0.05178 -0.018075 0.005765 0.069558 0.054267 0.10819 0.088794 -0.13119 
0.023028 0.10852 0.09422 0.11592 0.089287 0.13417 0.11066 -0.0090322 
0.12201 0.28346 0.16426 0.17001 0.072846 0.091589 0.073832 0.13795 
0.16229 0.32884 0.18991 0.19681 0.037004 0.057884 0.00050378 0.19188 
0.15686 0.30352 0.21638 0.22887 0.031907 0.094713 -0.014951 0.24433 
0.10326 0.27392 0.14272 0.22296 -0.037476 0.074819 0.0062583 0.24515 
0.083368 0.11921 -0.071509 0.06331 -0.04619 0.018754 0.0079024 0.21128 
0.16853 -0.14056 -0.26946 -0.11261 -0.013307 0.047691 0.041772 0.14798 
0.17692 -0.23543 -0.27259 -0.17953 0.041607 0.084684 0.13499 0.085177 
-0.035832 -0.14862 -0.011827 -0.050136 0.062652 0.061995 0.077778 0.0013258 
-0.27588 -0.15503 0.1664 0.10425 0.019083 -0.031557 -0.11311 -0.090253 
-0.30531 -0.21241 0.058542 0.1248 -0.03616 -0.023665 -0.076606 -0.14698 
-0.17016 -0.14369 -0.075291 0.025659 -0.006566 0.027468 0.0080668 -0.19367 
0.11905 0.16212 -0.017417 0.029769 0.052787 0.094713 0.043087 -0.23707 
0.25551 0.32473 0.13072 0.12233 0.15357 0.11543 0.081724 -0.10702 
0.22937 0.32144 0.20372 0.1881 0.15587 0.099152 0.031578 0.18596 
0.099481 0.23003 0.16426 0.19698 0.10852 0.15472 0.061337 0.47287 
0.081231 0.17215 0.077285 0.16821 0.10967 0.24071 0.14354 0.49095 
0.096357 0.12283 0.065776 0.1294 0.033715 0.12562 0.072846 0.25748 
0.14946 0.18744 0.10244 0.13631 -0.051287 -0.078744 0.04654 0.24992 
0.19106 0.17149 0.064625 0.10754 -0.14073 -0.17279 0.011191 0.41943 
0.082875 -0.027611 -0.063618 0.017274 -0.15421 -0.15914 0.10392 0.47895 
0.057227 -0.10916 -0.11113 -0.043888 -0.10127 -0.12462 0.31634 0.094055 
0.011848 -0.03501 -0.084334 -0.022843 0.0018191 -0.071838 0.27376 -0.279 
-0.11607 -0.078744 -0.044874 -0.0059084 0.087643 -0.031721 -0.031721 -0.26798 
-0.13086 -0.13974 0.024344 0.041772 0.17182 0.15094 -0.10193 0.027468 
-0.020048 -0.010676 0.13171 0.12464 0.23907 0.32456 -0.069701 -0.015773 
0.14519 0.17676 0.22624 0.21112 0.2292 0.30056 -0.11491 -0.39294 
0.15407 0.19484 0.2052 0.21852 0.15933 0.089123 -0.3446 -0.54058 
-0.010183 0.016781 0.053445 0.13072 0.1008 -0.057041 -0.46544 -0.41234 
-0.13547 -0.10472 -0.10965 0.020233 -0.016431 -0.16375 -0.30284 -0.21225 
-0.042737 1.0539e-005 -0.11837 -0.034845 -0.10604 -0.26486 -0.043395 0.10162 
0.15308 0.17577 0.040456 0.042758 -0.072332 -0.14451 0.20027 0.37323 
0.20701 0.20651 0.11428 0.12546 0.027139 0.018589 0.3101 0.39641 
0.11115 0.019905 0.036675 0.085341 -0.030242 0.032564 0.29316 0.2708 
-0.035996 -0.12412 -0.019226 0.040456 -0.02235 -0.01528 0.22394 0.10869 
-0.074633 -0.14796 -0.063289 0.031249 0.017603 -0.062467 0.076463 0.051801 
-0.01939 -0.051287 -0.024158 0.028619 0.010533 -0.10094 -0.073976 -0.017582 
0.0098754 0.06183 0.03651 0.060022 0.0047785 -0.071674 -0.12198 -0.0026201 
-0.020048 0.0324 0.053938 0.084026 -0.0087034 0.053609 -0.071509 -0.024652 
-0.08532 0.010369 0.06035 0.086492 0.012013 0.12365 -0.039613 -0.029584 
-0.01939 0.045389 0.08008 0.10376 0.075312 0.10408 -0.068221 -0.028433 
0.066598 0.086985 0.054432 0.13499 0.13121 0.076299 -0.066413 -0.0011404 
0.087972 0.092904 0.041443 0.1026 0.084684 -0.001798 -0.055068 -0.019555 
0.071202 0.076134 0.021878 0.077285 0.016452 -0.054246 0.091425 -0.030735 
-0.013636 0.028454 0.0023123 0.053774 -0.034352 -0.042737 0.22427 -0.03501 
-0.01232 0.021056 0.014643 0.049499 -0.0050863 0.009711 0.23068 -0.030077 
0.0011614 0.029605 0.049828 0.071859 0.045718 0.051308 0.087808 -0.024158 
0.0037921 0.052952 0.035031 0.10672 0.050486 0.028947 -0.091239 -0.06 
0.01004 0.09422 0.053445 0.10113 0.03799 -0.041093 -0.12182 -0.026624 
0.025988 0.070708 0.037168 0.086657 0.020891 -0.028597 -0.016431 0.00083261 
0.028125 0.052623 0.06331 0.093562 0.031414 0.039799 0.058706 0.026481 
0.055747 0.096686 0.097179 0.11526 0.025824 0.026974 -0.01528 -0.025145 
0.069886 0.13565 0.12085 0.13072 0.015465 -0.026296 -0.12116 -0.040764 
0.084026 0.13483 0.10524 0.16179 0.0065871 -0.11475 -0.17493 -0.054082 
0.070708 0.14798 0.11428 0.159 -0.028597 -0.17032 -0.096665 -0.015938 
0.031907 0.1784 0.064132 0.12612 -0.037805 -0.063453 0.034866 0.019247 
-0.04471 0.048677 -0.08532 0.016781 -0.008539 0.10162 0.10113 0.07449 
-0.1866 -0.17657 -0.16999 -0.067892 -0.015773 0.15209 0.13072 0.018425 
-0.18611 -0.16276 -0.012649 -0.010348 0.012013 0.12792 0.16081 -0.020212 
0.048841 0.11855 0.18777 0.14815 0.047526 0.092082 0.1345 0.061501 
0.17889 0.22164 0.21786 0.21638 0.048513 0.038319 0.012013 0.10195 
0.21868 0.10622 0.032729 0.1151 0.0098754 -0.01676 -0.045039 0.041114 
0.056569 -0.11903 -0.16802 -0.037147 -0.034681 -0.034845 -0.087786 -0.043559 
-0.12231 -0.23116 -0.15635 -0.088608 0.012013 -0.02087 -0.014787 -0.052602 
-0.1501 -0.13892 -0.014293 -0.021856 0.039634 -0.077264 0.13056 -0.00015387 
-0.11031 -0.029255 0.093562 0.084026 0.06183 -0.04323 0.37603 0.15341 
-0.022185 0.083533 0.082217 0.12053 0.049828 0.06183 0.16771 0.14404 
0.068571 0.14864 0.076299 0.1179 0.036017 0.14437 -0.18693 0.052952 
0.1271 0.20421 0.090438 0.12447 0.052952 0.11625 -0.21011 0.045718 
0.19369 0.24301 0.12398 0.1493 0.016616 0.013164 -0.05737 0.13105 
0.21852 0.27179 0.15012 0.13993 -0.040106 -0.047341 0.095535 0.15555 
0.15242 0.21128 0.084026 0.12842 0.027139 -0.009361 0.09126 0.08715 
0.0070803 0.076627 -0.01117 0.096686 0.084684 0.010697 0.063803 0.11872 
-0.14895 -0.15043 -0.091404 0.0060938 0.085835 -0.048492 0.078436 0.12957 
-0.13727 -0.1376 -0.07003 -0.0138 0.030263 -0.13284 0.022535 0.12135 
-0.05589 0.016123 0.051965 0.051636 0.029276 -0.088773 -0.034845 -0.027447 
-0.011663 0.11132 0.086985 0.094548 0.046211 0.063803 -0.053588 -0.15717 
0.044073 0.048184 0.050321 0.085341 0.050486 0.3124 0.079751 -0.085156 
0.089452 -0.012814 0.0044497 0.089123 0.022042 0.45938 0.21852 0.10408 
0.16903 0.094713 0.075805 0.1105 0.042594 0.55211 0.30187 0.17758 
0.20405 0.21161 0.12957 0.14765 0.035195 0.42847 0.33048 0.20438 
0.14535 0.17856 0.07597 0.12299 -0.031557 0.11987 0.14469 0.11362 
-0.038791 -0.096665 -0.059343 0.02533 -0.05178 -0.17394 -0.12067 0.0085601 
-0.14073 -0.25845 -0.16884 -0.079072 0.00297 -0.27259 -0.17312 0.071037 
-0.062138 -0.087786 -0.1205 -0.0406 0.12398 -0.18528 0.0051074 0.10606 
-0.051287 0.005765 -0.030242 -0.0050863 0.13631 -0.21915 0.15127 -0.12248 
-0.065919 0.0046141 -0.013143 0.013328 0.053116 -0.26108 0.089452 -0.24151 
-0.052602 -0.060165 0.015959 0.039305 0.0046141 -0.20025 -0.071674 -0.11475 
-0.011498 0.0036276 0.047855 0.062817 -0.015444 -0.065919 -0.055232 0.073175 
0.049006 0.068736 0.11395 0.11395 0.01004 0.063968 -0.085156 0.16508 
0.09126 0.051472 0.068736 0.1345 0.061008 0.183 -0.11228 0.12908 
0.088301 0.047362 0.0082312 0.084519 0.041443 0.19862 -0.11031 0.13023 
0.1225 0.086985 -0.022843 0.044402 0.01826 0.12217 -0.080881 0.11362 
0.16853 0.1003 0.011355 0.04917 0.0090533 0.06035 -0.020212 0.055747 
0.15949 0.12562 0.036182 0.060186 0.010862 0.051636 0.093562 -0.020212 
0.11757 0.12217 0.049828 0.067256 0.037661 0.034044 0.1659 -0.12231 
0.06742 0.089287 0.069064 0.1008 0.037332 0.039141 0.19533 -0.12873 
0.094055 0.11987 0.074326 0.11444 0.049664 0.04917 0.17215 0.054103 
0.070215 0.082053 0.063639 0.10869 0.12118 0.08863 0.1026 0.12529 
-0.056712 -0.038627 0.00297 0.067749 0.16146 0.13549 0.03799 0.056898 
-0.092554 -0.11968 -0.0077169 0.041772 0.13861 0.13993 0.10063 0.033058 
-0.047834 -0.098967 0.016945 0.036182 0.040292 0.12825 0.14157 0.043416 
-0.048492 -0.029255 -0.025474 0.023522 -0.055726 0.016781 0.10688 -0.0054151 
-0.033037 0.005765 -0.060165 0.0072447 -0.12034 -0.034023 0.075148 0.03388 
0.12447 0.11461 0.011355 0.041278 -0.076771 -0.047505 0.056076 0.15785 
0.20849 0.14667 0.038648 0.065447 0.0023123 -0.067235 -0.057205 0.1202 
0.072517 0.087972 0.045882 0.080409 0.050979 -0.073647 -0.14993 -0.0032777 
-0.016102 -0.021528 0.078272 0.094548 0.071695 -0.04619 -0.1598 -0.07003 
0.049664 0.015301 0.10129 0.12085 0.062323 -0.030899 -0.05885 0.0060938 
0.10096 0.04095 0.034209 0.11428 -0.0029489 -0.080881 0.0037921 -0.017253 
0.0088889 -0.011334 0.017438 0.084026 -0.07003 -0.13333 -0.16983 -0.14698 
-0.037311 0.12513 0.054925 0.095864 0.0023123 0.053116 -0.13596 0.031742 
0.022042 0.23808 0.11181 0.1373 0.036182 0.19813 0.032071 0.33772 
0.075148 0.077943 0.034537 0.09126 0.050979 0.22279 0.07301 0.38046 
0.058871 -0.080552 -0.0019624 0.060679 0.033058 0.15703 0.070051 0.26077 
0.063968 0.012506 0.049499 0.11017 0.022535 0.097344 0.14617 0.17955 
0.050157 0.10228 0.08419 0.1225 0.0098754 0.048019 0.17429 0.05624 
0.04095 0.02681 -0.031392 0.054267 0.014972 0.039141 0.11543 -0.0029489 
0.026481 -0.020377 -0.0406 0.022864 0.04095 -0.015773 0.085341 -0.29955 
-0.046354 -0.030077 -0.0080457 0.020069 -0.020048 -0.23263 -0.030242 -0.70631 
-0.073976 0.017932 0.040128 0.051143 -0.044052 -0.41776 -0.14204 -0.65403 
0.057391 0.089287 0.097344 0.12381 0.046375 -0.18907 -0.050793 -0.15848 
0.17215 0.16212 0.11428 0.15061 0.13269 0.22509 0.14075 0.24005 
0.16607 0.14946 0.089287 0.14058 0.12168 0.41943 0.18366 0.41696 
0.14667 0.14305 0.095042 0.13499 0.068078 0.39921 0.10441 0.41614 
0.10688 0.15834 0.14601 0.16525 -0.00081153 0.26718 0.13878 0.37833 
0.038483 0.12398 0.12003 0.14864 -0.06148 0.11313 0.1322 0.16574 
-0.10489 -0.035174 -0.075455 0.063145 -0.070194 -0.11656 -0.0057439 -0.071181 
-0.066906 -0.029091 -0.16572 -0.049314 -0.034845 -0.23691 -0.11557 -0.14303 
0.076134 0.054103 -0.049807 -0.01528 0.037661 -0.31451 -0.16917 -0.03057 
0.041607 0.081724 0.083697 0.073175 0.080902 -0.33375 -0.17131 0.040292 
-0.061645 -0.023665 0.11066 0.1128 0.082053 -0.12889 -0.16309 -0.014622 
-0.052766 -0.21175 0.044567 0.07597 0.02829 0.12316 -0.035174 0.015301 
-0.026296 -0.19794 0.0092177 0.069229 -0.0029489 0.21342 0.13138 0.0786 
0.081231 0.032236 0.039634 0.079094 0.036017 0.18498 0.18004 0.094713 
0.14913 0.18728 0.038155 0.08156 0.051636 0.10458 0.090438 0.034866 
0.11214 0.11247 -0.0050863 0.049335 0.017767 0.013821 0.050321 -0.088444 
0.0036276 -0.0059084 -0.056219 0.0034632 -0.0050863 -0.021363 -0.0024557 -0.15848 
0.0014903 0.06594 0.012342 0.032071 0.030427 0.028125 0.0075736 -0.060329 
0.012342 0.093891 0.064461 0.087972 0.049664 0.068736 0.047526 -0.055561 
-0.012814 0.047033 0.035688 0.092247 0.038648 0.016123 0.10129 -0.070359 
-0.024487 0.0085601 0.031907 0.079751 0.029112 0.048348 0.17363 0.024179 
0.044402 0.063145 0.055911 0.090438 0.073668 0.097179 0.16673 0.15407 
0.079751 0.07301 0.044073 0.088794 0.065776 0.087479 0.073668 0.15341 
0.10688 0.066434 0.029769 0.064132 -0.0050863 -0.021199 0.014808 0.071859 
0.13697 0.05476 0.048841 0.07301 -0.011498 -0.071838 -0.025967 -0.02235 
0.11625 0.027303 0.021549 0.096028 0.011684 -0.048163 -0.070687 -0.069536 
-0.0095255 -0.043559 0.0064227 0.071859 0.049006 0.027139 -0.12922 -0.13234 
-0.064111 -0.057699 -0.0054151 0.051143 0.045553 0.0059294 -0.084827 -0.2203 
-0.043559 0.022371 -0.00031829 0.041607 -0.026624 -0.054082 -0.010348 -0.18528 
-0.001798 0.053116 0.022535 0.041443 -0.027775 -0.049642 0.052952 0.019247 
0.045389 0.048019 0.059528 0.074654 -0.040271 -0.0011404 0.070051 0.23381 
0.060844 0.057884 0.046375 0.11757 -0.036654 0.01415 0.060844 0.31667 
0.083862 0.10573 0.066763 0.1128 0.013164 0.01974 0.013986 0.20438 
0.091753 0.12102 0.02829 0.091425 0.037497 -0.052766 -0.10801 0.049006 
0.028125 0.075476 0.010862 0.066598 0.049335 -0.029091 -0.030242 -0.016102 
0.024179 0.082711 0.046211 0.079587 0.10113 0.079751 0.17544 -0.014129 
0.013657 0.057555 0.053609 0.083862 0.12825 0.11444 0.16853 -0.017746 
0.081395 0.063968 0.016616 0.090274 0.10376 0.093726 0.08863 -0.073647 
0.057227 -0.0014692 -0.034188 0.037004 0.047526 0.081395 0.20898 -0.194 
-0.038133 -0.026624 -0.031557 0.019576 -0.018568 0.072681 0.28823 -0.10209 
-0.10308 -0.074798 0.009711 0.038812 0.0039565 0.051965 0.15768 0.1955 
-0.038627 -0.012649 0.051965 0.070051 -0.016102 0.034702 -0.014787 0.28346 
0.021713 0.089123 0.10195 0.10491 -0.0138 0.0036276 -0.1815 -0.0032777 
0.086163 0.14453 0.090931 0.14535 0.018096 -0.023501 -0.30021 -0.094527 
0.11954 0.1105 0.050321 0.11526 0.037168 0.0059294 -0.29643 0.027961 
0.1544 0.13499 0.030756 0.088465 0.021713 -0.0029489 -0.17262 0.13401 
0.16146 0.15785 -0.0019624 0.056898 0.040621 -0.012156 -0.0052507 0.13598 
0.016945 -0.022514 -0.012649 0.03388 0.013164 0.06594 0.052294 0.10852 
-0.13711 -0.12198 -0.0031133 0.021056 -0.051287 -0.068386 -0.14106 0.028454 
-0.061645 0.013328 0.045882 0.071037 -0.089924 -0.17114 -0.30037 0.11937 
0.079587 0.22641 0.1128 0.13401 -0.023172 -0.052109 -0.087786 0.29678 
0.16804 0.28264 0.17955 0.1927 0.11017 0.14075 0.13434 0.26225 
0.11625 0.11132 0.11674 0.17018 0.16623 0.159 0.17412 0.15423 
0.038977 0.013164 0.019247 0.095864 0.10573 -0.022185 0.13105 0.01415 
0.051636 0.010204 0.0034632 0.055089 0.071695 0.046211 0.26768 -0.18594 
0.070544 0.071695 -0.015938 0.042265 0.091425 0.19073 0.28428 -0.33885 
-0.094034 -0.014293 -0.035996 0.035031 0.11543 0.26883 0.24877 -0.23099 
-0.20189 -0.087622 -0.0047575 0.036839 0.10014 0.24318 0.28379 0.040456 
-0.11163 -0.049971 0.026974 0.054103 0.0087245 0.11543 0.3484 0.06479 
-0.0096899 -0.023336 0.047855 0.072681 -0.07414 -0.023336 0.26192 -0.11261 
0.063145 0.086985 0.099481 0.10244 -0.085156 -0.087786 0.041443 -0.074633 
0.21441 0.18383 0.12036 0.13516 -0.025474 -0.11311 -0.17476 0.19451 
0.24236 0.18711 0.049006 0.13779 0.031578 -0.073482 -0.17871 0.33163 
0.08156 0.059857 -0.0050863 0.076299 0.052952 0.0031344 0.098494 0.18826 
-0.004593 -0.0016336 -0.021034 0.038977 0.056898 0.038648 0.052623 0.067091 
0.031085 0.10655 0.057391 0.078765 0.037168 0.0037921 -0.44407 0.0023123 
-0.0044286 0.11576 0.11806 0.10918 0.039141 -0.086964 -0.67885 -0.018075 
-0.070194 -0.025474 0.034209 0.076463 0.019576 -0.14369 -0.41004 0.0054362 
-0.08828 -0.17082 -0.032872 0.060515 0.032729 -0.13892 -0.097322 0.011026 
-0.14204 -0.12494 -0.023665 0.037661 0.048677 -0.071509 -0.065591 0.013164 
-0.081539 0.040785 0.066269 0.086492 0.025659 -0.11212 -0.21093 -0.028433 
0.062159 0.1613 0.095699 0.11395 -0.03501 -0.12001 -0.12609 -0.06148 
0.029112 0.10343 0.093726 0.11674 -0.054575 -0.031721 0.088136 -0.05885 
0.051472 0.088301 0.095535 0.12529 -0.032543 0.084355 0.2172 0.039634 
0.1641 0.2172 0.10458 0.16689 0.054267 0.20224 0.28083 0.092411 
0.058542 0.083368 -0.0095255 0.081724 0.064954 0.17988 0.28954 0.13203 
-0.16983 -0.23543 -0.21044 -0.075291 0.028947 0.11296 0.256 0.052623 
-0.0073881 -0.11541 -0.10258 -0.060165 0.043087 0.10507 0.20668 0.1197 
0.16656 0.18563 0.12579 0.079258 0.086328 0.067913 0.041443 0.047033 
0.095699 0.2001 0.15604 0.14486 0.076792 -0.030406 -0.11623 -0.037805 
0.0092177 0.058542 0.038648 0.11707 0.048184 -0.014951 -0.014129 0.053609 
0.021713 -0.049478 -0.01232 0.06479 0.040621 0.050157 0.21391 0.13647 
0.0046141 -0.031721 0.030427 0.07449 0.051308 0.013328 0.25173 0.1276 
-0.087622 -0.057699 0.051965 0.084848 0.044238 -0.058685 0.040621 0.053938 
-0.14665 -0.038462 0.050157 0.0786 0.042429 -0.055232 -0.20699 -0.016102 
0.0085601 0.071531 0.072188 0.091918 0.081889 0.073832 -0.14122 0.04917 
0.13631 0.17084 0.048348 0.10589 0.068571 0.1664 0.01004 0.1276 
0.076956 0.012999 -0.039613 0.048677 0.014808 0.068571 -0.042901 -0.030735 
-0.050958 -0.12511 -0.11031 -0.027282 -0.11985 -0.11459 -0.12083 -0.22737 
-0.10012 -0.0771 -0.078086 -0.033859 -0.17789 -0.17986 0.021878 -0.21603 
-0.037969 0.01974 -0.019226 -0.0019624 -0.10932 -0.12823 0.25946 -0.025802 
0.023522 0.073339 0.025659 0.03799 -0.032543 -0.064111 0.32489 0.04095 
0.050979 0.096686 0.1054 0.10589 -0.0067304 -0.029255 -0.010348 0.0059294 
0.0074092 0.075312 0.078929 0.13631 0.026974 -0.0072237 -0.26831 0.0072447 
-0.062631 -0.027775 0.015959 0.086985 0.070708 0.092247 -0.20584 0.047197 
-0.064111 -0.063618 -0.011992 0.053774 0.11115 0.10918 -0.085978 -0.016431 
0.0042853 -0.043395 -0.032543 0.029441 0.15078 0.15324 -0.035667 -0.037969 
0.027632 0.024673 -0.0075525 0.016616 0.1299 0.13319 0.038648 0.074654 
0.13187 0.11609 0.037168 0.051965 0.11609 0.18563 0.18826 0.24269 
0.20734 0.22608 0.10244 0.14206 0.1299 0.13516 0.18646 0.28741 
0.15324 0.17265 0.093398 0.13582 0.10556 0.082546 0.092904 0.20339 
0.030427 0.063145 0.038319 0.093726 0.03947 0.059035 0.12875 0.19254 
-0.013965 0.024837 0.026152 0.074819 -0.021856 0.10655 0.19073 0.16969 
0.0062583 0.031742 0.048184 0.06742 -0.025309 0.059035 0.17889 0.11888 
0.034702 0.027961 0.035853 0.062323 -0.051615 -0.0075525 0.092082 -0.046847 
0.018096 -0.051451 -0.030077 0.062323 -0.036818 -0.025474 0.054267 -0.25746 
0.023028 -0.037969 -0.02498 0.03947 0.0065871 0.018918 0.10211 -0.26585 
0.041607 0.041114 -0.016924 0.030756 -0.012485 0.016945 0.1835 -0.081045 
0.010533 0.069229 0.018096 0.05065 0.02533 -0.0024557 0.24219 -0.019719 
0.092576 0.15292 0.068407 0.083368 0.055582 0.046868 0.18103 0.071859 
0.090767 0.16212 0.12102 0.12003 0.044073 0.062981 0.084026 0.11231 
0.066763 0.062981 0.014643 0.094877 0.016123 0.045224 0.015137 0.089287 
0.032729 -0.0075525 0.038648 0.084684 -0.035996 -0.0052507 0.015959 0.11 
0.036182 0.069886 0.047362 0.090438 -0.066248 -0.021856 -0.043724 0.073832 
0.054925 0.064296 -0.071509 0.012177 0.0044497 -0.013636 -0.03616 -0.015609 
0.09422 0.013164 -0.15536 -0.068057 0.062323 0.026974 -0.026953 -0.087129 
0.053774 -0.093705 -0.096336 -0.067564 0.10573 0.066269 0.010204 -0.066906 
-0.028926 -0.17821 0.079751 0.054432 0.11674 0.13434 0.14371 -0.072167 
-0.047834 -0.044217 0.13532 0.1345 0.098988 0.24663 0.32555 0.016452 
0.066434 0.13532 0.21704 0.21424 0.14486 0.3461 0.40529 0.17215 
0.20257 0.25962 0.20273 0.23282 0.1756 0.27869 0.15571 0.2634 
0.18876 0.25436 0.12151 0.18843 0.12973 0.072024 -0.056877 0.19944 
0.03799 0.13368 0.048513 0.11099 0.030098 -0.14681 -0.20978 0.039634 
-0.041093 0.054103 0.023357 0.078436 -0.039449 -0.26568 -0.19696 -0.044381 
-0.025638 0.037826 0.0016547 0.079258 -0.095021 -0.28969 -0.17493 -0.10193 
0.017767 0.040785 0.012342 0.065118 -0.1233 -0.20189 -0.089595 -0.10571 
0.05476 0.10063 0.070544 0.096193 -0.064604 0.020069 0.033551 -0.027447 
0.20224 0.21983 0.1368 0.15094 0.02829 0.22822 0.22312 0.11592 
0.3027 0.13368 0.03947 0.091425 0.085341 0.29135 0.35695 0.2269 
0.20569 0.026646 -0.059672 0.020233 0.033387 0.14387 0.30105 0.2371 
0.076134 0.044567 -0.050958 0.033551 -0.0088678 -0.037969 0.14585 0.099481 
0.084026 0.085835 0.072024 0.084684 0.005765 -0.11705 0.014643 0.048019 
0.1151 0.077778 0.077121 0.10951 0.061666 -0.069043 -0.055726 0.045553 
0.0065871 0.038812 0.050814 0.098988 0.068407 -0.063453 -0.16818 0.016616 
-0.25598 -0.15109 -0.058521 0.01563 -0.076113 -0.30777 -0.41349 -0.22672 
-0.31731 -0.27538 -0.15109 -0.072003 -0.21093 -0.52825 -0.62706 -0.26798 
-0.093048 -0.11146 -0.048985 -0.0011404 -0.088115 -0.3224 -0.44983 -0.12593 
0.059693 0.070215 0.12891 0.11609 0.09274 0.12612 0.047691 0.0098754 
0.031742 0.077614 0.18037 0.18202 0.18235 0.41203 0.4043 0.059857 
-0.069208 -0.0044286 0.10178 0.14716 0.098001 0.31716 0.36369 0.079258 
-0.10982 -0.0090322 0.020069 0.078765 0.010369 0.075476 0.12529 -0.046683 
-0.041422 0.072846 0.030263 0.062981 -0.011663 -0.03764 -0.036325 -0.19712 
0.18991 0.18678 0.062323 0.11625 0.027468 -0.031886 -0.028433 -0.14714 
0.2999 0.24005 0.094384 0.13319 0.071037 -0.047341 -0.0068948 0.045718 
0.23578 0.15834 0.069886 0.11888 0.016616 -0.079237 -0.037476 0.2657 
0.12003 0.056898 0.029276 0.087314 -0.025309 -0.11639 -0.11459 0.37767 
0.015137 0.0070803 0.018918 0.066269 0.0060938 -0.095514 -0.21718 0.33426 
-0.017746 0.019083 0.052294 0.075805 0.050814 -0.014458 -0.22803 0.21654 
-0.037805 -0.021692 0.057555 0.10113 0.047526 0.050814 -0.0004827 0.19879 
0.01974 0.068407 0.061666 0.10737 0.041443 0.09981 0.34248 0.14305 
0.10195 0.14042 0.11559 0.14174 0.0042853 0.1248 0.35876 0.11987 
0.098823 0.15883 0.1031 0.14206 -0.020048 0.043909 0.13746 0.065118 
-0.029255 0.082875 0.092904 0.12694 -0.05178 -0.10291 -0.1256 -0.051944 
-0.086142 0.035524 0.018425 0.073339 -0.054082 -0.17213 -0.22293 -0.3104 
-0.1769 -0.1136 -0.12379 -0.023336 -0.034023 -0.09798 -0.2157 -0.62838 
-0.25993 -0.29676 -0.24595 -0.12264 -0.0060728 -0.020377 -0.13349 -0.57577 
-0.15766 -0.23231 -0.14846 -0.1062 0.089287 0.092082 -0.075784 -0.19433 
0.051801 -0.026131 0.051472 0.022864 0.16262 0.13516 -0.015773 0.19501 
0.082217 0.052459 0.12217 0.10935 0.15686 0.1248 0.024344 0.33854 
-0.042408 -0.016266 0.090767 0.10967 0.075148 0.067091 0.036017 0.26011 
-0.067399 -0.0032777 0.048348 0.08978 0.0031344 0.0083956 0.015794 0.048841 
-0.017911 0.10556 0.065118 0.12529 0.014643 0.010862 -0.023172 -0.091897 
0.055911 0.18744 0.086985 0.12957 0.01267 -0.026953 0.0090533 -0.074798 
0.12579 0.19961 0.099481 0.13878 0.0021479 -0.090417 0.042758 0.051965 
0.15259 0.18103 0.099645 0.13927 0.022042 -0.074962 0.11658 0.13319 
0.10063 0.13023 0.048513 0.099152 0.043087 0.036675 0.1322 0.055911 
-0.031392 0.0026412 -0.028762 0.03651 -0.0075525 0.028783 0.02122 -0.14319 
0.0014903 -0.014622 -0.065919 0.0324 -0.012649 0.028783 0.007738 -0.092226 
0.14798 0.039305 0.0079024 0.049499 0.026317 0.12316 0.11757 0.02122 
0.17462 0.061008 0.047197 0.079422 0.079094 0.19122 0.15324 0.026974 
0.11937 0.064132 0.098823 0.11642 0.1008 0.17034 0.10211 0.0046141 
0.11773 0.12217 0.18169 0.17626 0.12332 0.17643 0.025824 0.072353 
0.052952 0.096193 0.12003 0.14815 0.15604 0.19468 0.03799 0.096357 
-0.01939 0.0098754 -0.091239 0.051143 0.12661 0.1858 0.17215 0.14437 
-0.048327 -0.053095 -0.12609 -0.030406 0.10606 0.18103 0.17412 0.26948 
-0.034352 -0.053424 -0.042573 -0.0096899 0.068407 0.12529 0.057227 0.27096 
0.016945 0.01826 0.023686 0.031085 0.020891 0.043909 -0.089595 0.20882 
0.031085 0.0065871 0.034537 0.043251 -0.037476 -0.013965 -0.22178 -0.022514 
-0.044381 -0.045696 0.018425 0.039963 -0.094692 -0.13168 -0.26453 -0.33605 
-0.031721 -0.004593 -0.023665 0.049828 -0.096172 -0.26601 -0.23888 -0.58892 
0.072353 0.043909 0.01711 0.059857 -0.039449 -0.15388 -0.03205 -0.47909 
0.13762 0.066927 0.047033 0.077778 0.026974 0.08419 0.17971 -0.23379 
0.1544 0.10737 0.071859 0.099645 0.064132 0.20799 0.25074 0.014315 
0.14502 0.13351 0.076792 0.10951 0.078436 0.17117 0.23085 0.26422 
0.12924 0.10606 0.059857 0.090274 0.095535 0.081889 0.11576 0.47171 
0.074654 0.087314 0.021713 0.085341 0.098001 0.026974 0.092082 0.43176 
0.0072447 0.089123 -0.0014692 0.058049 0.027468 -0.041257 0.10836 0.31733 
-0.053095 0.058706 -0.039284 0.019905 -0.021692 -0.19712 0.026152 0.14519 
-0.10012 -0.016102 0.0032988 0.032729 -0.025802 -0.22129 -0.053753 0.11461 
-0.047176 -0.052766 0.050486 0.067749 0.010862 -0.07562 -0.082361 0.087479 
0.042265 0.091918 0.12628 0.11773 0.08156 0.16426 -0.009361 -0.11393 
0.077121 0.12858 0.11214 0.14568 0.096193 0.28675 0.071695 -0.17312 
0.054103 0.077778 -0.011498 0.087643 0.054432 0.24334 0.018754 -0.16802 
-0.036983 -0.024323 -0.027118 0.043251 0.023686 0.12201 -0.061973 -0.11524 
-0.051122 -0.006566 -0.036325 0.019247 0.0069159 0.058213 0.05772 -0.1838 
0.043745 0.010204 0.0079024 0.037332 0.022371 -0.0057439 0.16146 -0.13136 
0.16294 0.06035 0.030098 0.054432 0.037004 -0.034845 0.25633 0.046375 
0.21474 0.10195 0.055089 0.074326 -0.017088 -0.084334 0.18514 0.22296 
0.21934 0.12266 0.019411 0.094548 -0.057205 -0.081045 -0.015444 0.32128 
0.13993 0.067091 0.02829 0.077285 -0.061316 -0.078908 -0.12445 0.2588 
0.033715 0.031578 0.027139 0.073339 -0.032379 -0.057534 -0.19992 0.11115 
-0.052273 0.015959 0.01267 0.062159 0.021878 0.022206 -0.19696 0.11888 
-0.092883 0.015959 0.031578 0.060515 0.027632 0.0065871 -0.036489 0.16344 
-0.065097 0.065283 0.081395 0.094055 0.022371 -0.02794 0.057391 0.088136 
0.063145 0.1345 0.077285 0.13483 0.038977 -0.03912 0.034702 -0.038956 
0.15226 0.15456 0.09833 0.14519 0.087972 0.049828 -0.024816 0.017438 
0.21704 0.17199 0.069722 0.12546 0.15752 0.22805 -0.11442 0.1368 
0.15028 0.10277 -0.017582 0.059364 0.071037 0.16015 -0.096665 0.0786 
-0.15964 -0.19383 -0.12314 -0.043066 -0.07266 -0.010841 -0.028597 -0.082032 
-0.29856 -0.25746 -0.087458 -0.042737 -0.062138 0.011355 0.069393 -0.16621 
-0.095843 -0.045203 -0.0059084 0.041936 0.030756 0.16031 0.37142 0.014808 
0.070215 0.11674 0.078765 0.093233 0.060844 0.1465 0.59026 0.14058 
0.020398 0.13647 0.10129 0.12332 0.029276 -0.095678 0.43472 0.084355 
0.037826 0.13302 0.13927 0.15834 0.031907 -0.21422 0.22164 0.078107 
0.12332 0.22394 0.17988 0.18925 0.038812 -0.18167 0.0592 0.13746 
0.12365 0.22098 0.14486 0.17248 -0.070359 -0.13547 -0.26519 0.14124 
0.012999 0.067585 0.0014903 0.11954 -0.085485 -0.038791 -0.54305 0.04917 
-0.082361 -0.080717 -0.12215 0.0021479 0.0088889 0.17347 -0.54436 -0.22622 
-0.040928 -0.066577 -0.12478 -0.043724 0.024179 0.21556 -0.31435 -0.24299 
0.15538 0.18613 0.065612 0.05476 0.091096 0.23644 0.31338 0.18925 
0.30253 0.31059 0.25239 0.20224 0.10474 0.16311 0.64418 0.44245 
0.19961 0.24762 0.2948 0.27064 0.12809 0.070708 0.4944 0.4385 
0.0082312 0.030592 0.071531 0.17462 0.12497 0.035031 0.26653 0.19106 
-0.14961 -0.27357 -0.24283 -0.06 0.065776 -0.02498 0.14913 -0.075949 
-0.26568 -0.46084 -0.33145 -0.19729 0.020891 -0.07414 0.075476 -0.26305 
-0.2254 -0.30777 -0.14402 -0.12971 0.028454 0.0019835 0.032236 -0.18167 
-0.086636 -0.042079 0.065283 0.017274 0.053445 0.019905 0.030427 -0.068057 
0.10819 0.13779 0.16673 0.12118 0.062323 -0.059343 -0.028926 0.030427 
0.13072 0.19698 0.19846 0.19731 0.070051 0.06742 -0.043724 0.063968 
0.09685 0.16853 0.14782 0.19303 0.014808 0.031907 -0.23017 0.041936 
0.04654 0.11543 0.03092 0.11937 -0.026624 -0.075291 -0.28278 -0.011334 
0.075476 0.059857 0.0051074 0.072846 -0.016266 -0.073647 -0.18594 0.013492 
-0.020212 -0.026131 0.0070803 0.058871 -0.018733 -0.00064712 0.024344 0.037332 
-0.043395 -0.029913 0.024344 0.054596 0.00033937 0.093726 0.23035 0.050157 
-0.0090322 0.0592 0.054103 0.074983 0.0026412 0.081231 0.16969 0.018425 
0.040621 0.075805 0.013821 0.09274 0.04917 0.087972 0.054267 -0.11837 
0.061666 0.088958 0.0083956 0.058377 0.076627 0.068736 0.0046141 -0.11245 
0.074654 0.077285 0.027303 0.065118 0.029276 0.053116 0.032236 -0.010348 
0.025495 0.0051074 0.012999 0.057062 0.011684 -0.016595 0.016288 0.094384 
0.014808 -0.0098543 0.043087 0.068571 -0.015773 -0.0771 -0.021692 0.057391 
-0.025474 0.027796 0.058706 0.082875 0.030263 -0.063289 0.0064227 0.051143 
-0.01676 0.036346 0.016452 0.09422 0.036675 -0.024158 0.024508 0.043251 
-0.041422 -0.050958 -0.0073881 0.058213 0.019083 -0.06 0.0051074 0.041278 
-0.048492 -0.053753 -0.02235 0.033715 -0.036325 -0.14599 -0.11853 -0.0049219 
0.018589 0.045224 0.0018191 0.039141 -0.033037 -0.15996 -0.14944 0.0064227 
0.082546 0.065118 -0.010512 0.027468 0.0062583 -0.017088 0.020562 -0.047834 
0.047855 0.026974 0.0095465 0.035031 0.028125 0.10376 0.21178 -0.13974 
0.039963 0.034373 0.054925 0.10359 0.13171 0.3392 0.42946 -0.051451 
0.025495 0.097015 0.10458 0.13286 0.15522 0.35038 0.35103 0.058871 
0.051143 0.086657 0.091918 0.13351 0.072517 0.16327 0.12924 0.11806 
0.050486 0.10195 0.088958 0.12825 0.016781 0.023357 -0.050629 0.091425 
-0.0072237 0.020727 0.074983 0.11296 -0.061316 -0.1404 -0.14122 0.094877 
-0.035503 0.052294 0.073668 0.10293 -0.15174 -0.26831 -0.24184 0.17297 
0.041114 0.14568 0.084519 0.14601 -0.11755 -0.22343 -0.35299 0.30401 
0.082382 0.11214 0.061501 0.12266 -0.01232 -0.11903 -0.33194 0.12973 
-0.023665 -0.094692 -0.090088 0.017767 0.0019835 -0.084005 -0.19614 -0.21965 
-0.0503 -0.14023 -0.17525 -0.077593 0.016288 0.031907 0.030263 -0.53335 
0.076134 0.071531 -0.079072 -0.053588 0.041772 0.15522 0.054103 -0.47843 
0.079587 0.18235 0.07597 0.036675 0.14108 0.22575 0.03651 -0.14484 
0.13121 0.24795 0.17084 0.15703 0.25436 0.32259 0.079916 0.26061 
0.26948 0.37619 0.28182 0.2662 0.26488 0.30944 0.023851 0.4773 
0.18284 0.18498 0.18415 0.23151 0.1294 0.14535 -0.11146 0.34791 
-0.109 -0.23181 -0.16588 -0.0013048 0.024837 -0.044381 -0.038133 0.10885 
-0.22589 -0.36219 -0.28722 -0.1524 -0.067235 -0.20995 0.10787 -0.030077 
-0.15421 -0.20189 -0.10094 -0.098473 -0.084498 -0.25598 0.099481 -0.11442 
-0.066741 -0.0054151 0.11362 0.070873 0.014808 -0.067399 0.086328 -0.1404 
0.0592 0.15522 0.16196 0.17396 0.032564 0.10359 0.04917 -0.078415 
0.099481 0.16541 0.10491 0.15374 -0.022679 0.075312 -0.01676 -0.10768 
0.064296 0.1008 0.025001 0.096193 -0.13267 -0.089924 0.018096 -0.097487 
-0.03764 0.014315 -0.010019 0.047691 -0.1427 -0.03057 0.091589 -0.082854 
-0.0026201 0.043909 0.026152 0.058706 0.014643 0.16508 0.14157 0.10129 
0.11362 0.099481 0.095699 0.09274 0.15883 0.29826 0.12316 0.087972 
0.17182 0.13138 0.089452 0.15045 0.16146 0.26159 0.10244 0.052952 
0.13088 0.14946 0.10113 0.14404 0.10606 0.12677 0.012506 0.11839 
0.04917 0.12595 0.066269 0.11905 0.077614 -0.025309 -0.067399 0.31125 
-0.046025 0.071859 0.03092 0.088136 0.048677 -0.21767 -0.20879 0.32374 
-0.086964 -0.0026201 -0.030077 0.031249 -0.058028 -0.42894 -0.2864 0.20816 
-0.040928 -0.042901 -0.034516 0.014479 -0.012814 -0.2693 -0.033201 0.090438 
0.028454 -0.024652 -0.022021 0.045389 0.068571 0.079916 0.15604 0.012506 
0.069393 0.0031344 0.0034632 0.049664 0.072846 0.22822 0.11526 -0.042737 
0.14404 0.0689 0.039799 0.073997 0.096193 0.24762 0.070708 -0.19778 
0.19205 0.13746 0.088958 0.11083 0.095535 0.23562 0.094384 -0.41053 
0.18021 0.1345 0.15456 0.15851 0.054596 0.062652 -0.023665 -0.47695 
0.040292 0.10129 0.15374 0.16985 -0.023007 -0.12166 -0.17706 -0.23527 
-0.0036066 0.077778 0.04358 0.14996 -0.084005 -0.22557 -0.24628 0.1008 
-0.018239 -0.027611 -0.071838 0.037497 -0.11952 -0.22557 -0.15224 0.256 
-0.084498 -0.12593 -0.12544 -0.034188 -0.088608 -0.12725 -0.0027845 0.22674 
-0.053753 -0.075291 -0.088937 -0.034188 -0.00031829 0.01974 0.071695 0.27146 
0.077614 0.065612 1.0539e-005 0.012177 0.091918 0.19895 0.10162 0.39362 
0.2149 0.20569 0.11888 0.1026 0.17988 0.32933 0.084848 0.39822 
0.2953 0.16689 0.1465 0.17577 0.18267 0.20109 0.14996 0.36106 
0.19714 -0.0090322 0.054267 0.11822 0.12299 0.018096 0.28987 0.14601 
0.04917 -0.12741 -0.036654 0.044238 0.038812 -0.03057 0.3803 -0.038298 
-0.023665 -0.071016 -0.020048 0.031414 0.074983 0.083697 0.29579 -0.095349 
-0.057699 0.031249 0.10704 0.10162 0.13746 0.18185 0.20931 -0.0771 
-0.050629 0.20832 0.20323 0.18004 0.081395 0.13713 0.13828 -0.34542 
-0.071016 0.21062 0.11263 0.16393 -0.011992 0.014479 0.18662 -0.76895 
-0.058685 0.059528 -0.046025 0.062159 -0.054739 -0.029748 0.24038 -0.66274 
0.043745 0.078929 -0.025309 0.034044 -0.023336 -0.034188 0.027303 -0.0052507 
0.062652 0.11773 -0.047669 0.010204 0.01004 -0.069208 -0.23411 0.37241 
-0.037476 -0.12379 -0.098967 -0.028597 0.022535 -0.19268 -0.40346 0.42255 
-0.11722 -0.28886 -0.092226 -0.054246 -0.08532 -0.35841 -0.29561 0.37964 
-0.10554 -0.26009 -0.062467 -0.025802 -0.1667 -0.42714 -0.13415 0.40282 
-0.077757 -0.17706 -0.021199 0.028619 -0.13908 -0.21537 -0.046847 0.31684 
-0.053588 0.011684 0.078272 0.092247 0.018425 0.10228 0.083204 0.038155 
0.061337 0.23052 0.16048 0.16377 0.10672 0.25518 0.088465 -0.26519 
0.12201 0.32226 0.17117 0.19698 0.10228 0.20783 0.036182 -0.41661 
0.091753 0.25156 0.17215 0.1955 0.063474 0.15308 0.029441 -0.28179 
0.13335 0.1904 0.15538 0.19747 0.06183 0.18087 0.07038 -0.040764 
0.21885 0.17478 0.024673 0.1465 0.11757 0.20816 0.23512 0.19336 
