0.17741 0.015794 0.059857 0.053116 0.014972 -0.095021 -0.098309 0.71357 
-0.087622 0.15719 0.096521 0.058377 0.026646 0.047362 -0.082032 0.059528 
-0.079895 0.41269 0.1641 0.079422 0.095699 0.29234 0.10145 -0.57034 
0.38425 0.55705 0.19385 0.12529 0.1054 0.3951 0.21243 -0.48057 
0.87108 0.50345 0.15407 0.06183 0.049499 0.18563 0.016616 -0.18528 
0.7356 0.10967 0.038155 0.051801 -0.0064016 -0.069701 -0.194 0.14206 
0.17149 -0.27588 -0.08828 -0.0013048 -0.041257 -0.13316 -0.20945 0.65701 
-0.51082 -0.35595 -0.12412 -0.024158 0.036346 0.13171 -0.01528 0.67279 
-0.58284 -0.022021 -0.065755 0.0024767 0.14354 0.42568 0.19764 0.31108 
-0.18528 0.37159 0.066763 0.066269 0.19698 0.56346 0.31963 0.057391 
0.028454 0.33459 0.16886 0.10737 0.19583 0.4847 0.44426 -0.2744 
-0.051451 -0.12856 0.092411 0.074326 0.12102 0.24992 0.33328 -0.56409 
-0.027447 -0.6583 -0.066084 0.01563 0.019576 -0.094692 0.033715 -0.36926 
0.027303 -0.89835 -0.20847 -0.071181 -0.058685 -0.33243 -0.22803 0.009711 
-0.088444 -0.86464 -0.24842 -0.10768 -0.10094 -0.29215 -0.22524 0.40266 
-0.1986 -0.437 -0.22145 -0.058356 -0.010676 -0.10916 -0.070687 0.26866 
-0.32076 0.25288 -0.14023 -0.024652 0.043251 0.022042 0.051472 -0.13892 
-0.14434 0.82833 0.045224 0.047197 0.082053 0.068242 0.011191 -0.36433 
0.22148 0.86006 0.16656 0.10359 0.12694 0.10688 0.028454 -0.12544 
0.37915 0.56691 0.21112 0.13121 0.13023 0.12628 0.13023 0.12447 
0.24647 0.25502 0.23693 0.15193 0.11 0.13368 0.21079 0.25189 
0.18366 0.11559 0.19813 0.159 0.12447 0.17643 0.21901 0.32982 
0.17774 0.11132 0.15209 0.17643 0.10639 0.15637 0.171 0.22378 
-0.065755 0.07301 0.071859 0.13664 0.076956 0.11099 0.058049 -0.02498 
-0.59829 -0.25384 -0.00081153 0.074654 0.036017 0.073175 0.073339 0.041607 
-0.54913 -0.32947 -0.010019 0.045389 0.017274 0.041278 -0.01528 0.19846 
-0.032872 -0.10998 0.041772 0.062323 -0.0083746 -0.035174 -0.18956 0.12085 
0.2611 0.05476 0.055747 0.092904 0.028783 -0.011992 -0.18742 0.21769 
0.32867 -0.0050863 0.024015 0.094055 0.070215 -0.011334 -0.10982 0.34725 
0.12546 -0.26486 -0.010183 0.054103 0.064132 -0.022514 -0.058356 0.081724 
-0.10406 -0.43338 -0.0503 0.013164 0.05772 0.028619 0.085341 -0.49455 
-0.081374 -0.25434 -0.015609 0.021878 0.076134 0.17117 0.21424 -0.5687 
-0.027611 0.093891 0.046375 0.057227 0.078436 0.14848 0.21901 -0.33704 
-0.031392 0.28609 0.097344 0.098659 0.048348 0.00297 0.2001 0.022206 
-0.093705 0.25567 0.076956 0.13894 0.031742 -0.10291 0.1465 0.31026 
-0.26206 0.12266 0.075641 0.12546 0.057884 -0.10028 0.10589 0.2468 
-0.3663 0.043745 0.051308 0.10721 0.067256 -0.02087 0.079587 -0.074798 
-0.080881 0.17363 0.022371 0.078436 0.065283 0.0069159 -0.045368 -0.21011 
0.41795 0.34166 0.11411 0.13072 0.11642 0.079751 -0.15273 0.077449 
0.63531 0.30122 0.19961 0.19106 0.1202 0.11642 -0.094856 0.27919 
0.49375 0.16738 0.15818 0.22838 0.1294 0.18399 -0.013471 0.31486 
0.22887 0.03947 0.067749 0.159 0.06331 0.053938 -0.059014 0.28626 
0.00099702 -0.053917 -0.010841 0.071037 -0.018733 -0.057534 -0.12659 -0.10012 
-0.23033 -0.006566 -0.03353 0.034702 0.0085601 0.054432 -0.05441 -0.47219 
-0.2328 0.020891 -0.001798 0.044238 0.039141 0.069722 0.071695 -0.28508 
-0.17739 0.035688 0.077778 0.068078 0.004943 0.026646 0.10737 0.0092177 
-0.06 0.09126 0.059693 0.090767 0.05213 0.21013 0.21753 0.079094 
-0.040764 -0.012978 0.0090533 0.089452 0.098659 0.3877 0.33098 -0.088115 
-0.099131 -0.085156 -0.060658 0.021878 0.064132 0.18563 0.25288 -0.22885 
-0.047998 -0.1113 -0.072167 -0.013307 -0.037476 -0.26091 -0.075127 -0.20715 
0.10524 -0.026789 0.00066819 0.018754 -0.10982 -0.51345 -0.20173 -0.048656 
0.23233 0.15768 0.12381 0.1003 -0.11426 -0.49093 -0.18167 0.17001 
0.28921 0.27803 0.13056 0.13582 -0.10143 -0.45821 -0.23773 0.13746 
0.29809 0.3124 0.092247 0.147 -0.071345 -0.25795 -0.15388 0.12349 
0.31799 0.39707 0.089123 0.14371 0.0032988 -0.0049219 0.0054362 0.02829 
0.46333 0.5679 0.16525 0.18711 0.043909 -0.0014692 -0.025967 0.089616 
0.54915 0.53748 0.22213 0.23874 0.073175 0.014972 -0.11804 0.14141 
0.3849 0.2754 0.18843 0.22986 0.11905 0.052952 -0.13547 0.12513 
0.1853 0.031414 0.099316 0.15587 0.053281 -0.031392 -0.12593 -0.053588 
-0.03616 -0.12741 0.0324 0.09981 0.011191 -0.13925 -0.15947 -0.16111 
-0.15585 -0.18594 -0.030242 0.072024 -0.0138 -0.1889 -0.2693 -0.10061 
-0.22852 -0.29577 -0.077264 0.0072447 -0.019719 -0.10834 -0.25549 0.13039 
-0.22573 -0.36926 -0.094034 -0.026624 0.025824 0.13483 0.0018191 0.48322 
-0.24431 -0.34526 -0.071509 -0.024816 0.077285 0.41861 0.30007 0.40562 
-0.18331 -0.12231 -0.0067304 0.0072447 0.055911 0.43982 0.39082 -0.039613 
0.047033 0.088465 0.024179 0.037168 0.050321 0.25485 0.36961 -0.34131 
0.15061 0.1151 -0.0019624 0.068242 0.029276 0.13056 0.26028 -0.46018 
-0.084991 -0.14336 -0.047834 0.027468 0.0052718 0.0028056 0.028619 -0.47054 
-0.31566 -0.37535 -0.058356 -0.0016336 -0.030735 -0.15043 -0.18446 -0.097816 
-0.18676 -0.26798 -0.05885 -0.010348 -0.064768 -0.22392 -0.26798 0.29448 
0.10129 -0.10357 -0.017253 0.0054362 -0.068386 -0.17887 -0.17953 0.51035 
0.43587 -0.03616 0.033551 0.033058 -0.050793 -0.21225 0.0026412 0.56412 
0.64616 0.22115 0.0018191 0.053609 -0.039284 -0.12725 0.063968 0.46103 
0.59815 0.46004 -0.042573 0.028947 -0.012156 -0.066248 -0.001798 0.08304 
0.32637 0.51446 -0.034845 0.016288 -0.00064712 -0.0040998 -0.052109 -0.54272 
-0.11853 0.366 0.026481 0.047526 0.0039565 -0.021199 -0.089431 -0.86596 
-0.47597 0.10145 0.03388 0.065447 -0.0096899 -0.018404 -0.2083 -0.25417 
-0.52447 -0.16424 0.010533 0.048513 0.0014903 -0.027775 -0.12281 0.67016 
-0.24168 -0.20074 0.046211 0.065118 0.054267 0.040621 0.075148 0.80728 
0.076463 -0.098802 0.04654 0.11313 0.095371 0.24088 0.24926 0.40085 
0.23989 -0.042244 0.065776 0.11263 0.019576 0.20027 0.22378 -0.00064712 
0.13105 -0.072825 0.13549 0.14864 -0.0098543 -0.0055795 -0.041915 0.01004 
-0.13744 -0.14402 0.098166 0.13713 -0.051451 -0.13316 -0.16194 0.14124 
-0.32323 -0.23954 0.0324 0.085177 -0.019884 -0.15405 -0.039942 0.038648 
-0.40034 -0.39343 -0.12708 -0.031886 0.0054362 -0.11557 0.038648 -0.11672 
-0.29939 -0.56212 -0.26091 -0.13958 -0.031064 -0.10045 -0.014951 -0.1792 
-0.11886 -0.53203 -0.2573 -0.1792 -0.037476 -0.10209 -0.011334 -0.12412 
-0.018897 -0.16424 -0.11903 -0.11327 0.0039565 -0.036818 0.068571 -0.11672 
0.01826 0.15637 -0.004593 -0.020706 0.033715 0.073175 0.12135 0.00017495 
0.028454 0.24712 0.068407 0.067749 0.032071 0.17955 0.17544 0.15012 
0.11526 0.39855 0.15719 0.14535 0.10343 0.33969 0.17528 0.2389 
0.21687 0.60094 0.23677 0.23282 0.10688 0.32308 0.12233 0.16985 
0.23545 0.57908 0.21375 0.27442 0.073668 0.15653 0.11658 0.050157 
0.20997 0.48207 0.2394 0.27524 0.069558 0.062817 0.19714 -0.012156 
0.13319 0.41614 0.20158 0.25551 0.036182 -0.037147 0.16985 0.036839 
0.05065 0.29349 0.14617 0.2121 -0.011663 -0.11508 0.038155 -0.12166 
0.023028 0.13434 0.055089 0.13138 -0.040435 -0.10193 -0.12692 -0.26618 
0.0082312 -0.090581 -0.020048 0.052952 -0.031721 -0.012814 -0.14763 0.050157 
-0.03764 -0.27094 -0.061645 0.026974 -0.0059084 0.08715 0.10589 0.41302 
-0.16638 -0.3663 -0.031886 0.019411 0.021549 0.10655 0.19122 0.25189 
-0.32273 -0.34164 0.0095465 0.041607 0.054432 0.059528 0.11313 -0.012485 
-0.28114 -0.21274 0.014479 0.051308 0.09422 0.12201 0.085341 -0.033037 
0.0085601 -0.081374 0.035524 0.060844 0.11526 0.19632 0.10984 0.078107 
0.18383 -0.035996 0.01415 0.045224 0.1105 0.17297 0.00297 0.14305 
0.28297 0.057062 -0.035667 0.030098 0.11083 0.12053 -0.025802 -0.0029489 
0.13894 0.066269 -0.14582 -0.044381 0.046868 0.065118 0.010369 -0.50112 
-0.054575 0.043087 -0.18594 -0.10653 -0.011663 -0.064768 0.05772 -0.88799 
-0.0072237 0.171 -0.082854 -0.064768 -0.0406 -0.14073 0.11165 -0.6315 
0.092411 0.32489 0.047197 0.029441 -0.055397 -0.16358 0.14256 0.06479 
0.096357 0.3563 0.12792 0.10951 -0.090746 -0.12544 0.19681 0.8936 
0.18235 0.37701 0.18711 0.17544 -0.056219 -0.10784 0.27228 1.0791 
0.28083 0.39575 0.23003 0.27277 0.018754 -0.050793 0.15357 0.31207 
0.33295 0.55376 0.29316 0.3147 0.06331 0.057227 -0.067564 -0.62871 
0.30072 0.55902 0.25419 0.30122 0.07597 0.11247 -0.21586 -0.97151 
0.15587 0.36764 0.13236 0.21802 0.019411 0.11609 -0.28525 -0.52102 
0.09274 0.12497 0.087808 0.15522 -0.012649 0.13467 -0.28475 0.35416 
0.18004 -0.025802 0.071202 0.12118 0.032893 0.20947 0.10293 0.79232 
0.32111 -0.18742 0.0227 0.10195 0.11855 0.42814 0.48717 0.57924 
0.4265 -0.22145 -0.03616 0.04917 0.15357 0.57908 0.64238 0.18103 
0.32621 -0.14007 -0.045861 0.017438 0.14946 0.36172 0.49358 -0.1741 
0.13105 -0.084169 -0.047998 0.0034632 0.0324 -0.038791 0.10737 -0.32109 
-0.1358 -0.218 -0.064768 -0.022185 -0.033365 -0.37798 -0.26618 -0.3931 
-0.24645 -0.29692 -0.076606 -0.047505 -0.054739 -0.38587 -0.36729 -0.050793 
-0.42237 -0.16934 0.0064227 0.0060938 -0.05441 -0.24464 -0.22359 0.24959 
-0.64712 -0.063453 0.064296 0.11083 -0.083018 -0.19202 -0.10324 -0.0082102 
-0.43256 0.064132 0.20783 0.19928 -0.018239 -0.059836 0.056569 -0.1672 
-0.0073881 0.075476 0.20175 0.23315 0.064954 0.2218 0.25321 0.005765 
0.084684 -0.24431 -0.027775 0.092904 0.079094 0.34018 0.19418 0.02122 
-0.27489 -0.41727 -0.25319 -0.10784 -0.017911 0.15472 -0.095349 -0.39721 
-0.2665 -0.11245 -0.29988 -0.21488 -0.070687 0.11165 -0.19104 -0.75333 
0.30072 0.49391 -0.20567 -0.1598 -0.016266 0.20092 -0.086142 -0.47514 
0.80531 0.89656 -0.015773 -0.045203 0.024015 0.24515 0.07301 0.53551 
0.70699 0.65504 0.054267 0.03947 0.023193 0.046211 -0.11886 1.0871 
0.20092 0.20849 0.095206 0.099645 0.052623 -0.024323 -0.14714 0.89344 
-0.23938 -0.033694 0.13582 0.14667 0.0592 0.025988 0.10195 0.33361 
-0.39228 -0.021363 0.19073 0.18942 0.051308 0.0021479 0.28362 -0.37666 
-0.27357 0.20569 0.2463 0.25271 0.048513 -0.099789 0.26357 -0.81071 
-0.037476 0.44705 0.24663 0.29152 0.012835 -0.16654 0.13088 -0.51444 
0.10195 0.30681 0.1613 0.23627 0.017603 -0.09798 0.08863 0.20799 
0.13319 -0.010019 -0.0047575 0.11247 0.059035 0.054432 0.091918 0.62462 
-0.093048 -0.5608 -0.19794 -0.059014 0.053774 0.057391 -0.031228 0.44376 
-0.24677 -0.95753 -0.26091 -0.16523 0.020233 -0.064111 -0.021856 0.12497 
-0.26881 -0.82831 -0.15273 -0.13612 0.010862 -0.13448 0.073832 -0.042901 
-0.14714 -0.35545 -0.025967 -0.010183 0.048019 -0.036489 0.061995 -0.043066 
0.14108 0.14371 0.055911 0.060186 0.07449 0.11 0.0087245 0.17708 
0.14634 0.11855 0.025824 0.063474 0.072517 0.17182 -0.083183 0.17528 
-0.076277 -0.2106 -0.032543 0.027139 -0.00015387 0.12727 -0.1205 -0.085485 
-0.37551 -0.34082 -0.037147 0.0034632 0.016288 0.15489 -0.09946 -0.49866 
-0.50836 -0.096994 0.073668 0.066434 0.090109 0.20487 -0.1182 -0.78112 
-0.33309 0.21128 0.12201 0.13121 0.079422 0.10014 -0.20452 -0.31369 
0.093726 0.55458 0.13319 0.17001 0.051143 -0.07562 -0.17641 0.48848 
0.36731 0.69499 0.12529 0.17626 0.045389 -0.06148 0.087972 0.64747 
0.4727 0.65898 0.069886 0.13532 0.049335 -0.018897 0.19024 0.34018 
0.51413 0.58187 0.027303 0.096357 0.039799 -0.0406 -0.029255 0.30023 
0.45396 0.49013 0.040456 0.082217 0.013492 -0.056383 -0.145 0.32341 
0.16656 0.16081 0.055254 0.078929 -0.055397 -0.26387 -0.21455 0.32325 
-0.44654 -0.5128 -0.049314 0.050321 -0.082196 -0.32224 -0.077757 0.16673 
-0.62262 -0.81351 -0.14632 -0.041915 -0.03353 -0.22129 0.20076 -0.29002 
-0.32684 -0.77339 -0.11064 -0.049642 0.13105 0.11165 0.3854 -0.78671 
-0.052109 -0.68872 0.009711 0.02122 0.26883 0.34068 0.39592 -0.5978 
0.1248 -0.48797 0.053116 0.055254 0.2052 0.26981 0.24532 -0.096665 
0.077285 -0.1866 0.03799 0.053445 0.067091 0.083533 -0.022514 0.23397 
-0.059507 0.15111 0.032729 0.070051 -0.068057 -0.032872 -0.35973 0.41187 
-0.26289 0.24811 0.012013 0.062652 -0.076935 -0.20715 -0.5049 0.39378 
-0.12757 0.31108 -0.01528 0.047526 -0.035832 -0.16621 -0.25532 0.3073 
0.19517 0.35794 0.016452 0.055747 -0.009361 -0.14763 0.066434 0.066598 
0.56938 0.45198 0.037004 0.08978 0.045882 -0.15405 0.057391 -0.065919 
0.77424 0.49671 0.12957 0.12612 0.016781 -0.099789 0.0087245 -0.21274 
0.30171 0.26159 0.19057 0.18218 0.031249 -0.026131 0.0062583 -0.074798 
-0.32092 -0.10521 0.10392 0.18777 0.049992 -0.018075 0.026317 0.13203 
-0.3686 -0.23576 0.087314 0.1567 0.1197 0.058377 0.10491 0.24055 
-0.17197 -0.11113 0.11543 0.15999 0.15949 0.091425 0.062981 0.049664 
-0.059672 0.089452 0.071695 0.12875 0.083204 -0.0016336 -0.032872 -0.22195 
0.071202 0.18432 0.018589 0.070051 -0.01117 -0.084005 -0.11491 -0.15191 
0.40052 0.3193 0.044238 0.066434 -0.044546 -0.092061 -0.021034 0.12431 
0.58927 0.56231 0.13499 0.15982 -0.058685 0.0093821 0.23414 0.32276 
0.53682 0.85217 0.20882 0.22065 0.042758 0.19994 0.34117 0.27162 
0.43702 0.96857 0.24038 0.26291 0.12497 0.31371 0.32062 -0.23625 
0.15604 0.52581 0.15144 0.21161 0.067091 0.19862 0.05213 -0.69135 
0.033222 0.007738 0.033222 0.12381 0.013328 -0.018404 -0.25763 -0.4319 
0.11329 -0.18841 0.017932 0.073832 0.053445 -0.04882 -0.30202 0.45363 
-0.052273 -0.39376 0.045224 0.082875 0.078929 0.0041209 -0.041751 1.0075 
-0.27555 -0.65732 -0.01232 0.07301 0.055418 0.049664 0.19188 0.78887 
-0.23428 -0.84508 -0.11574 -0.01939 -0.001798 0.0098754 0.14141 0.38342 
0.0028056 -0.68116 -0.20567 -0.10867 -0.097158 -0.14615 -0.042408 -0.01232 
0.049006 -0.33737 -0.21011 -0.14467 -0.072167 -0.19301 -0.0868 -0.2134 
0.063145 -0.00081153 -0.099131 -0.092061 -0.0014692 -0.12675 0.02681 -0.19942 
0.12727 0.2879 0.023357 0.0059294 0.077614 0.1225 0.23085 -0.12856 
0.12858 0.45922 0.089123 0.10803 0.11181 0.29875 0.37849 -0.23905 
0.10951 0.45379 0.12151 0.14042 0.042923 0.27327 0.28642 -0.26979 
0.10704 0.38277 0.13861 0.16426 -0.0039354 0.10836 0.12151 -0.27144 
0.081067 0.38457 0.12299 0.16229 -0.040764 -0.096007 -0.087622 -0.3931 
-0.00031829 0.35153 0.1008 0.14157 -0.059507 -0.17624 -0.13399 -0.0072237 
-0.042244 0.21737 0.085012 0.12464 0.041772 0.063803 0.0023123 0.51923 
0.057391 0.12053 0.084848 0.14404 0.16179 0.21704 0.042923 0.76141 
0.29349 0.1613 0.14897 0.18119 0.16541 0.093562 0.078272 0.57727 
0.51791 0.32982 0.22131 0.23151 0.08419 -0.12429 0.10737 0.19501 
0.69696 0.61229 0.2657 0.27902 0.029112 -0.13366 0.13467 -0.23938 
0.70551 0.9158 0.29661 0.31322 -0.028597 -0.13119 0.027632 -0.37403 
0.35893 0.80811 0.27064 0.29037 -0.056219 -0.066413 -0.1644 0.31042 
-0.050629 0.40661 0.13812 0.22789 0.021384 0.35909 -0.24299 0.97088 
-0.32388 -0.024323 -0.081374 0.1003 0.14782 0.621 0.075641 0.91925 
-0.52217 -0.62213 -0.2619 -0.09946 0.11444 0.57382 0.47254 0.10573 
-0.94964 -1.3921 -0.40346 -0.26239 0.056404 0.34758 0.37455 -0.96707 
-0.84738 -1.4016 -0.3839 -0.31106 -0.006566 0.052623 0.062981 -1.3184 
-0.14878 -0.48896 -0.27275 -0.26716 -0.084005 -0.19285 -0.10373 -0.80463 
0.42305 0.25123 -0.084827 -0.14928 -0.092226 -0.32191 -0.2642 -0.099295 
0.58483 0.40595 0.073832 0.031907 -0.058028 -0.31879 -0.31731 0.49161 
0.45577 0.15587 0.14009 0.13072 0.016616 -0.30958 -0.084498 0.64846 
0.19583 -0.18052 0.15028 0.16886 0.085341 -0.13925 0.12677 0.29628 
-0.17558 -0.68839 0.047033 0.11 0.069064 -0.099953 0.19599 -0.4153 
-0.49389 -1.1277 -0.13333 -0.025638 -0.060494 -0.14155 0.26817 -0.63298 
-0.41645 -0.6338 -0.1575 -0.099131 -0.099624 -0.066084 0.2685 -0.26042 
-0.17871 0.28478 -0.092883 -0.06444 -0.038791 0.1544 0.090438 0.22986 
0.096521 0.78969 -0.012485 0.022535 0.080573 0.41499 -0.099953 0.49062 
0.28741 0.76782 0.11428 0.11247 0.17988 0.49112 -0.29561 0.26948 
0.24828 0.55244 0.20306 0.19501 0.17067 0.39789 -0.30284 0.10063 
-0.02646 0.37389 0.27392 0.26784 0.27129 0.42798 0.082875 -0.019061 
-0.30925 0.21687 0.24121 0.26603 0.19237 0.32276 0.34117 -0.051451 
-0.25384 0.10376 0.1904 0.22756 0.067256 -0.079401 0.24334 -0.13333 
-0.15273 -0.059836 0.11313 0.20355 -0.029913 -0.36926 0.10704 -0.43355 
-0.094199 -0.13612 0.0054362 0.10721 -0.073154 -0.3377 -0.0042642 -0.81285 
-0.0049219 -0.14484 -0.11327 -0.0070593 -0.13974 -0.23231 -0.32635 -0.51444 
0.093726 -0.1284 -0.18084 -0.088444 -0.14829 -0.13021 -0.50589 0.62363 
0.14568 -0.29084 -0.18265 -0.12396 -0.093541 -0.046519 -0.39919 1.0825 
0.026317 -0.43536 -0.19498 -0.15158 -0.0029489 0.056569 -0.22113 0.54143 
-0.15405 -0.27736 -0.12083 -0.092719 0.079258 0.31157 0.15209 0.12727 
-0.14023 0.04654 0.033551 0.030427 0.13351 0.39345 0.37948 0.028125 
0.027632 0.33229 0.15604 0.13401 0.052787 0.10063 0.24597 -0.13695 
0.058049 0.36189 0.16163 0.16771 -0.035503 -0.16292 0.066763 -0.42862 
-0.046354 0.19698 0.067585 0.12628 -0.073482 -0.2305 -0.067892 -0.875 
-0.15372 -0.028926 0.029276 0.086328 -0.0091966 -0.10373 -0.096172 -0.83718 
-0.054246 -0.020377 0.058706 0.08863 0.068242 0.050486 -0.021199 -0.10308 
0.13861 -0.089431 -0.057205 0.050979 0.050486 0.05213 0.04917 0.67181 
0.055254 -0.49356 -0.23527 -0.099953 -0.011992 -0.028269 0.12628 0.81123 
-0.32076 -0.85182 -0.33868 -0.22047 -0.074469 -0.14599 0.090109 0.43801 
-0.47728 -0.68724 -0.27374 -0.22655 -0.063289 -0.16144 -0.0042642 -0.074469 
-0.28886 -0.15947 -0.067728 -0.10308 -0.013143 -0.15552 -0.056219 -0.36137 
-0.19827 0.22131 0.11132 0.043416 -0.011498 -0.24842 -0.13629 -0.33737 
-0.10456 0.49243 0.21309 0.18563 -0.0029489 -0.20468 -0.13777 -0.1279 
0.21342 0.82767 0.30763 0.29349 0.069393 0.011355 -0.025802 0.070873 
0.49621 0.94687 0.34265 0.35005 0.11576 0.14305 0.0036276 0.20092 
0.52597 0.69861 0.33032 0.36238 0.16574 0.2098 0.074983 0.28708 
0.42239 0.3313 0.23677 0.30812 0.25715 0.27869 0.072188 0.32341 
0.26587 0.093398 0.16492 0.23003 0.12562 0.20799 0.066598 0.2218 
0.44491 0.37816 0.15357 0.2075 0.052952 0.076463 0.2103 0.31536 
0.76355 0.87552 0.1396 0.22065 0.070544 0.21474 0.52153 0.46415 
0.56412 0.84 0.14601 0.20323 0.098659 0.35975 0.48306 0.2537 
-0.058521 0.439 0.052294 0.13417 0.035853 0.16656 0.10293 -0.20156 
-0.7045 -0.21833 -0.12642 -0.0088678 -0.030899 -0.1284 -0.41365 -0.77816 
-0.81893 -0.64038 -0.24891 -0.13892 -0.082525 -0.38521 -0.75777 -0.39097 
-0.42204 -0.77651 -0.28706 -0.2157 -0.064933 -0.35414 -0.46281 0.30237 
-0.13382 -0.90788 -0.28788 -0.21652 -0.014458 -0.12231 -0.0090322 0.41664 
0.023028 -0.80512 -0.25713 -0.21175 -0.018733 -0.08828 0.10113 0.071037 
0.011026 -0.67589 -0.24694 -0.20682 -0.062467 -0.079072 0.26751 -0.2545 
-0.16818 -0.3571 -0.15881 -0.15174 -0.16194 -0.23329 0.16426 -0.37995 
-0.1723 0.19385 0.11477 0.03651 -0.10324 -0.35512 -0.22557 0.55014 
0.05476 0.65175 0.34627 0.24926 0.0026412 -0.3474 -0.20353 1.327 
0.24137 0.69548 0.3216 0.3216 0.032729 -0.23707 0.21572 0.92353 
0.60834 0.54734 0.22608 0.2976 0.03651 -0.069208 0.50016 0.19237 
1.0253 0.55524 0.19517 0.26768 0.13697 0.2297 0.52252 -0.37008 
0.90889 0.53501 0.22148 0.27113 0.24893 0.50739 0.37389 -0.57198 
0.27787 0.36731 0.14124 0.21145 0.18366 0.41433 0.026152 -0.85215 
-0.18742 0.12118 0.071531 0.1368 0.10984 0.21276 -0.30613 -0.47219 
-0.25072 0.091425 0.10211 0.13499 0.14996 0.29924 -0.1205 0.2121 
-0.089266 0.19796 0.11773 0.17955 0.19024 0.47056 0.29431 0.35613 
0.089452 0.30977 0.12431 0.16969 0.065283 0.33147 0.35514 0.22624 
0.14617 0.21654 0.093726 0.1465 -0.061151 0.071695 0.29826 0.27623 
0.030098 0.00050378 0.017438 0.087479 -0.10702 -0.099131 0.21523 0.18136 
-0.1427 -0.25121 -0.028433 0.038483 -0.044052 -0.14665 0.082053 -0.060494 
-0.17328 -0.4056 -0.043395 0.0028056 -0.012485 -0.17739 -0.034681 -0.11853 
0.033387 -0.37863 -0.055397 0.0019835 0.012999 -0.14352 -0.218 0.073832 
0.041443 -0.38768 -0.10341 -0.01939 0.014972 -0.14254 -0.43042 0.11757 
-0.16703 -0.40642 -0.14846 -0.069701 0.0016547 -0.10653 -0.36417 -0.0050863 
-0.18183 -0.17871 -0.16572 -0.10225 -0.056219 -0.10982 -0.24135 -0.32898 
-0.12166 -0.011005 -0.14484 -0.10028 -0.070523 -0.042901 -0.085978 -0.31369 
0.081231 0.089945 -0.023172 -0.022843 0.011355 0.12184 0.32012 0.16344 
0.23973 0.15028 0.08978 0.070051 0.044731 0.16245 0.5217 0.16689 
0.2297 0.21145 0.089287 0.14058 0.048513 0.039634 0.20191 0.054432 
0.088301 0.17939 0.074819 0.12727 0.043251 -0.079401 -0.22951 -0.2254 
-0.084334 0.077943 0.086821 0.12809 0.023357 -0.12494 -0.3423 -0.33605 
-0.15651 0.025824 0.091096 0.13335 0.068736 -0.023336 -0.13563 0.089123 
0.076956 0.29168 0.13762 0.16558 0.095699 0.25271 0.21835 0.51726 
0.3101 0.50542 0.183 0.19747 0.11411 0.46333 0.4459 0.35268 
0.46662 0.39345 0.15933 0.22082 0.11346 0.47056 0.54817 0.0032988 
0.41105 0.19205 0.15587 0.20931 0.1077 0.38951 0.51594 -0.16095 
0.24696 0.055254 0.16656 0.21095 0.070873 0.2486 0.43275 -0.017746 
0.055254 -0.046847 0.14354 0.19024 0.025988 -0.01939 0.28346 0.13384 
-0.15816 -0.34312 0.03536 0.1128 -0.04471 -0.3206 -0.1233 -0.053095 
-0.54354 -0.57527 -0.044217 0.029605 -0.057699 -0.39557 -0.61227 -0.58136 
-0.76402 -0.42122 -0.15306 -0.059343 -0.10489 -0.27604 -0.65945 -0.80364 
-0.36647 -0.12149 -0.22244 -0.1085 -0.042901 -0.082361 -0.291 -0.36647 
0.15423 0.083368 -0.15372 -0.097158 0.013492 0.0051074 -0.11442 0.1516 
0.4071 0.1955 -0.03353 -0.028597 0.0098754 0.024344 -0.18167 0.51545 
0.28889 0.2662 0.059857 0.046211 0.063968 0.19813 -0.11722 0.72787 
0.12612 0.32687 0.18218 0.14848 0.14174 0.47878 0.16426 0.49013 
0.26406 0.50394 0.26636 0.24088 0.16327 0.54126 0.43834 0.16689 
0.45577 0.71866 0.2833 0.31371 0.12858 0.31634 0.48191 0.01152 
0.45149 0.63843 0.29645 0.32621 0.065283 -0.011005 0.29661 0.079587 
0.42058 0.48799 0.24745 0.30072 0.0085601 -0.22885 0.11609 -0.068386 
0.32062 0.39871 0.20964 0.26735 -0.010183 -0.32125 -0.09387 -0.23707 
0.0070803 0.15094 0.11017 0.17462 -0.03501 -0.37469 -0.21586 -0.56771 
-0.40231 -0.45443 -0.039942 0.053281 -0.060165 -0.29659 -0.09946 -0.40395 
-0.58234 -0.86744 -0.20814 -0.073976 -0.055726 -0.16457 0.073339 0.26472 
-0.91742 -1.0156 -0.37847 -0.22228 -0.047505 0.013328 0.19402 0.34133 
-0.94586 -0.71897 -0.4056 -0.30827 -0.075949 0.049006 0.18218 -0.07562 
-0.63528 -0.38899 -0.34937 -0.30646 -0.10324 -0.06707 -0.12955 -0.31945 
-0.28837 -0.25763 -0.18249 -0.20189 -0.068386 -0.05589 -0.43289 -0.2642 
-0.1376 -0.30531 -0.05441 -0.087951 0.025495 0.072846 -0.58678 0.042429 
0.005765 -0.3377 -0.018897 -0.013471 0.12217 0.18119 -0.4005 0.59141 
0.30549 -0.18956 -0.033694 0.031249 0.12184 0.21326 0.10984 0.79462 
0.54734 0.14305 0.026152 0.054267 0.077449 0.1225 0.37044 0.46892 
0.54422 0.56707 0.1368 0.13499 0.037497 0.035195 0.27376 -0.19811 
0.35153 0.77966 0.29234 0.25633 0.078272 0.039305 0.1197 -0.49701 
0.25288 0.66885 0.35465 0.32933 0.12135 0.077778 0.16525 -0.079566 
0.21934 0.53814 0.32012 0.33492 0.10376 0.098659 0.20175 0.33163 
0.15407 0.39575 0.21786 0.30779 0.11806 0.13286 0.16788 0.36156 
-0.068386 0.19616 0.097672 0.19813 0.048841 0.021713 0.017932 -0.037147 
-0.2836 -0.068386 0.026481 0.11395 -0.035338 -0.12642 -0.095185 -0.35183 
-0.28706 -0.13826 0.011684 0.077449 -0.025309 -0.2203 0.018754 -0.19581 
-0.12215 0.030263 -0.067235 0.012177 0.011848 -0.30317 0.029769 0.092247 
0.082382 0.27327 -0.095514 -0.036983 -0.031392 -0.23395 0.0095465 0.22674 
0.27113 0.34709 -0.076771 -0.037805 -0.034023 0.052294 0.080738 0.21474 
0.29908 0.054267 -0.10521 -0.0072237 -0.027611 0.12743 0.035524 -0.029091 
0.24236 -0.27325 -0.10127 -0.038462 -0.0057439 -0.075784 -0.17345 0.11905 
0.030263 -0.55176 -0.10965 -0.058028 0.048513 -0.16917 -0.26206 0.11773 
-0.22852 -0.64531 -0.13481 -0.075949 0.059364 0.15259 -0.12725 -0.095843 
-0.29709 -0.45032 -0.15191 -0.085978 0.10343 0.44689 0.084684 -0.23576 
-0.11491 -0.074304 -0.027611 -0.028597 0.14453 0.36961 0.17001 -0.057699 
0.086163 0.20454 0.058049 0.078436 0.15176 0.21408 0.22361 0.22904 
0.1687 0.38293 0.13088 0.13368 0.074819 -0.0022913 0.14749 0.48618 
0.055747 0.41664 0.12924 0.15735 -0.061809 -0.22918 -0.085485 0.47911 
-0.13974 0.35416 0.11954 0.15555 -0.10949 -0.24102 -0.040435 0.19024 
-0.030735 0.15653 0.10376 0.14305 -0.064111 -0.19334 -0.018239 -0.025967 
0.17626 -0.015609 0.11132 0.14437 -0.023829 -0.12544 -0.11212 -0.36334 
0.41384 0.098166 0.080902 0.13828 0.029769 -0.08532 -0.21932 -0.42352 
0.48733 0.28099 0.0592 0.12743 0.025988 -0.071181 -0.33835 -0.12757 
0.26077 0.21671 0.048841 0.10441 0.052623 -0.02646 -0.17871 0.16344 
-0.013143 -0.079895 -0.00097594 0.063803 0.0592 0.09685 0.18218 0.2269 
-0.23494 -0.49356 -0.084827 0.0019835 0.07449 0.22476 0.451 0.036346 
-0.37222 -0.67129 -0.13925 -0.069208 0.050157 0.24466 0.3974 -0.24365 
-0.40445 -0.5488 -0.13201 -0.092719 0.016288 0.10113 0.093891 -0.24464 
-0.28377 -0.22047 -0.10423 -0.045861 -0.0087034 -0.070852 -0.18479 0.30286 
0.0065871 0.097015 0.03799 0.035195 0.026974 -0.079237 -0.24825 0.73642 
0.31141 0.36994 0.16163 0.14174 0.080902 0.011026 -0.086964 0.2098 
0.48421 0.59733 0.19254 0.19336 0.10836 0.083697 0.0037921 -0.35759 
0.51364 0.69713 0.18794 0.20701 0.086163 0.076463 0.13154 -0.46923 
0.37948 0.66096 0.14239 0.17478 0.052459 0.081889 0.37701 -0.28623 
0.19829 0.53025 0.090603 0.15275 0.0056006 0.034537 0.40792 -0.090581 
0.15966 0.44228 0.079587 0.14091 -0.039284 0.016452 0.25123 0.051965 
0.11165 0.3364 0.11642 0.15078 -0.064275 -0.14434 -0.058356 0.36304 
0.090767 0.27491 0.11066 0.15193 -0.094034 -0.3839 -0.62657 0.48322 
0.23627 0.16738 0.1128 0.15637 0.026646 -0.25154 -0.55143 0.29398 
0.32571 0.0067515 0.10589 0.14289 0.10737 -0.018733 -0.24299 0.011026 
0.032729 -0.18265 0.061008 0.10622 0.046211 0.0032988 -0.22441 -0.25006 
-0.31172 -0.27341 -0.026953 0.076792 -0.021363 -0.081045 -0.10883 -0.2254 
-0.35331 -0.17558 0.0072447 0.064132 -0.031721 -0.10998 0.062817 -0.24941 
-0.15668 0.041607 0.076299 0.10704 0.056569 -0.0068948 0.24729 -0.24645 
0.14239 0.10096 0.14749 0.16179 0.15801 0.13335 0.46168 0.027961 
0.1391 -0.32849 0.0019835 0.076299 0.086163 0.20767 0.42272 0.1197 
-0.17049 -0.98466 -0.23116 -0.077428 -0.069536 0.31388 0.20487 0.035853 
-0.57692 -1.3825 -0.48945 -0.29084 -0.12231 0.293 0.019905 -0.12166 
-0.66159 -1.0052 -0.44769 -0.35578 -0.15257 0.060186 -0.073318 -0.41513 
-0.33654 0.082053 -0.11722 -0.16572 0.019083 0.09422 -0.025474 -0.42056 
0.097672 0.93158 0.26505 0.14108 0.33426 0.60834 0.060022 -0.04323 
0.40907 1.3226 0.4704 0.36632 0.36287 0.62528 0.042758 0.30549 
0.49703 1.2655 0.4995 0.4487 0.1955 0.11773 0.12579 0.71554 
0.47106 0.99192 0.42716 0.45757 0.1396 -0.033201 0.43078 1.1044 
0.29332 0.42173 0.21671 0.34742 0.0324 -0.025309 0.4288 0.71061 
-0.04323 -0.31566 -0.060658 0.11181 -0.020377 -0.10768 0.20964 0.021056 
-0.19022 -0.70023 -0.17377 -0.037969 -0.059014 -0.1741 0.073175 -0.55883 
-0.25598 -0.77471 -0.14665 -0.080552 -0.073647 -0.2859 -0.30629 -0.71815 
-0.29988 -0.74988 -0.17641 -0.12511 -0.17969 -0.42368 -0.5858 -0.63693 
-0.41382 -0.76122 -0.26486 -0.194 -0.1746 -0.27768 -0.35019 -0.35792 
-0.29709 -0.449 -0.19729 -0.14139 -0.057863 0.046375 -0.090417 0.53912 
-0.041915 0.071695 0.0065871 -0.013965 0.065118 0.34709 0.097015 0.93372 
0.24186 0.51446 0.1664 0.12201 0.10819 0.40332 0.28149 0.23627 
0.33196 0.62281 0.2006 0.19221 0.048019 0.23298 0.29859 -0.64153 
0.15752 0.39082 0.11148 0.15801 0.035853 0.056898 0.18202 -0.522 
0.13023 0.30155 0.13072 0.15604 0.070051 0.077778 0.0090533 0.2708 
0.33887 0.46053 0.20257 0.22016 0.14765 0.21671 0.0093821 0.65734 
0.45462 0.45988 0.12858 0.20816 0.15456 0.29579 0.10721 0.37635 
0.31355 0.18152 -0.0091966 0.099645 0.12842 0.22789 0.20043 0.0037921 
-0.02498 -0.087951 -0.072989 0.017274 0.071531 0.1373 0.15801 -0.22096 
-0.33589 -0.19959 -0.060658 -0.0064016 0.037826 0.095042 0.066927 -0.32701 
-0.54798 -0.27768 -0.0087034 0.0075736 0.05213 0.074654 0.039305 -0.11015 
-0.6463 -0.45673 -0.022843 0.0036276 0.043745 0.078436 0.13056 0.21441 
-0.4079 -0.50721 -0.069208 0.0092177 -0.014951 0.0039565 0.26406 0.37126 
0.29892 -0.11146 0.040128 0.057227 -0.054246 -0.044052 0.33607 0.31059 
0.8497 0.50476 0.19139 0.16952 -0.024487 -0.05589 0.27705 0.050486 
0.98255 1.0199 0.29102 0.27195 0.016452 -0.051944 -0.0060728 -0.33227 
0.69186 0.94572 0.26077 0.27705 -0.0098543 -0.066248 -0.32076 -0.38702 
0.24285 0.37224 0.11346 0.1807 -0.045696 -0.11475 -0.34674 -0.096994 
-0.1358 -0.16966 -0.068386 0.051308 -0.0042642 -0.1621 -0.14763 0.22115 
-0.47054 -0.49224 -0.18742 -0.063124 0.042758 -0.12692 -0.1016 0.35498 
-0.51247 -0.58777 -0.1866 -0.11113 0.15801 0.11461 0.038977 0.71225 
-0.3206 -0.66504 -0.20929 -0.14467 0.16196 0.32128 0.34133 0.60588 
-0.21882 -0.51559 -0.20666 -0.16391 0.0036276 0.17906 0.30549 -0.064768 
-0.11311 -0.22721 -0.15766 -0.1427 -0.094692 -0.0098543 0.028125 -0.56639 
-0.083347 0.04654 -0.022514 -0.049314 -0.078579 -0.02646 -0.31254 -0.81351 
-0.025638 0.31569 0.15735 0.13993 0.058213 0.11937 -0.30744 -0.67754 
0.24482 0.74546 0.28773 0.26406 0.15966 0.17051 0.074819 -0.12609 
0.43012 0.8257 0.3193 0.31634 0.17215 -0.00015387 0.29464 0.58796 
0.47418 0.66835 0.31684 0.33541 0.072517 -0.25697 0.27458 1.0782 
0.31157 0.47188 0.19829 0.25271 -0.041751 -0.43273 0.24022 0.75451 
0.073668 0.16574 0.13664 0.19205 -0.12445 -0.52513 -0.07414 -0.078086 
-0.09091 -0.09387 -0.018075 0.10014 -0.1718 -0.43536 -0.42385 -0.21225 
-0.0052507 -0.19942 -0.067564 0.027796 -0.081374 0.058871 -0.31731 -0.1473 
0.28149 -0.052766 -0.029255 0.026974 0.0421 0.34725 -0.056219 -0.22573 
0.45034 0.042594 0.099645 0.099316 0.13434 0.35219 0.084026 -0.12873 
0.47352 0.035524 0.057555 0.094548 0.089452 0.26422 0.19879 -0.018404 
0.33459 -0.068221 0.009711 0.058213 0.071037 0.12135 0.2366 -0.041257 
0.15144 -0.076277 -0.010348 0.038648 0.054103 -0.0024557 0.17988 -0.058521 
-0.13201 -0.0073881 -0.091897 0.009711 0.027632 -0.19548 -0.0080457 -0.099789 
-0.45607 0.082711 -0.17361 -0.080059 -0.071509 -0.43125 -0.25598 -0.25384 
-0.65238 0.014643 -0.23592 -0.14862 -0.070852 -0.37666 -0.24217 -0.3788 
-0.77915 -0.16523 -0.19761 -0.1478 -0.045039 -0.23527 -0.20567 -0.48715 
-0.52924 -0.056548 -0.01232 -0.044052 0.013986 -0.13793 -0.13481 -0.065755 
0.11609 0.32292 0.17955 0.10606 0.040456 -0.00031829 0.14782 0.53304 
0.52712 0.62906 0.2731 0.25535 0.073997 0.075805 0.25962 0.63005 
0.56083 0.57414 0.32308 0.32769 0.12085 0.27623 0.18794 0.40513 
0.39723 0.22394 0.25929 0.30812 0.082382 0.31404 0.096521 0.24762 
0.038483 -0.2111 0.11346 0.20849 0.058377 0.30253 0.10721 0.060844 
-0.26322 -0.58201 0.040785 0.12891 0.12069 0.46136 0.44212 -0.24431 
-0.085156 -0.5442 0.048841 0.098494 0.19451 0.41581 0.58763 -0.42747 
0.15242 -0.26798 0.021056 0.081231 0.089616 0.20355 0.4778 -0.50014 
0.088136 -0.1233 -0.10982 0.0044497 -0.0011404 -0.075949 0.029112 -0.14829 
-0.067399 -0.21241 -0.15931 -0.069536 -0.070852 -0.31336 -0.2203 0.85348 
-0.12379 -0.29232 -0.14533 -0.0868 -0.059507 -0.35595 -0.12412 1.2017 
-0.11146 -0.18479 -0.087458 -0.057699 -0.090088 -0.38077 -0.30136 0.42683 
-0.18052 0.04358 -0.042573 -0.027775 -0.12149 -0.33901 -0.5562 -0.30202 
-0.23461 0.24285 -0.035832 -0.0004827 -0.017088 -0.085813 -0.56935 -0.66208 
0.04654 0.6358 0.0064227 0.061008 0.055747 0.074983 -0.29265 -0.40215 
0.34018 0.89903 0.069558 0.096028 0.023028 0.061008 0.01004 0.013986 
0.34347 0.64106 0.099316 0.12644 -0.024158 0.00066819 0.098001 0.13319 
0.16278 0.0052718 0.030592 0.092247 -0.056548 -0.047012 -0.064604 0.16245 
-0.16128 -0.50293 -0.04882 0.022042 -0.053424 -0.019884 -0.080717 0.088136 
-0.49964 -0.66389 -0.040435 0.0032988 0.064954 0.14108 -0.0027845 -0.25039 
-0.70795 -0.52003 -0.019555 0.034866 0.12168 0.19418 0.022535 -0.71322 
-0.64959 -0.38981 0.0056006 0.04506 0.1128 0.25239 0.13105 -0.72522 
-0.23527 -0.084991 0.08863 0.10162 0.08715 0.30566 0.29382 -0.34411 
0.33229 0.18432 0.17791 0.17577 0.1299 0.29875 0.44426 0.04506 
0.59289 0.39575 0.22444 0.22953 0.15028 0.056569 0.38622 0.094713 
0.68085 0.69039 0.22082 0.23381 0.063145 -0.23576 0.18777 0.22559 
0.6215 0.69104 0.159 0.21243 -0.023994 -0.41859 -0.11442 0.38951 
0.20109 0.30072 0.024344 0.14371 -0.061973 -0.43717 -0.28738 0.36123 
-0.15552 -0.043066 -0.013965 0.073997 -0.11475 -0.39409 -0.18315 0.51315 
-0.33211 -0.35726 -0.070359 0.016616 -0.042737 -0.18972 0.05624 0.5577 
-0.32257 -0.49323 -0.14139 -0.061151 -0.061645 -0.02794 -0.072825 0.19385 
-0.26535 -0.49175 -0.20847 -0.13481 -0.078415 0.062323 -0.30136 0.041114 
-0.17986 -0.28327 -0.10521 -0.092719 0.043416 0.58746 -0.089595 0.2246 
-0.12001 -0.038791 0.025495 0.032071 0.17725 0.81846 0.12644 -0.05441 
-0.083512 0.18925 0.10951 0.10885 0.14108 0.43817 0.15703 -0.41957 
0.078272 0.37257 0.13582 0.15028 0.075476 -0.0031133 0.04095 -0.31895 
0.20816 0.29744 0.085835 0.13138 0.014315 -0.25565 -0.12018 -0.182 
0.2394 0.12069 0.034044 0.089123 -0.0077169 -0.3229 -0.22359 -0.30103 
0.1858 0.053116 0.03947 0.077778 0.019576 -0.22606 -0.085649 -0.20781 
0.25502 0.16623 0.097837 0.10935 0.054103 -0.10291 0.049006 -0.14878 
0.29744 0.19188 0.090931 0.14519 0.027139 -0.11228 -0.0049219 -0.29413 
0.014479 -0.10423 0.014808 0.08863 -0.038462 -0.12856 -0.12379 -0.45311 
-0.40905 -0.43914 -0.074962 0.012835 -0.041257 -0.030242 -0.04471 -0.02235 
-0.31254 -0.3155 -0.062796 -0.0044286 -0.001798 0.13434 0.31371 0.79479 
0.1784 0.13088 0.10573 0.10047 0.10195 0.28116 0.40776 1.0513 
0.45346 0.44015 0.25715 0.22049 0.183 0.31569 0.17758 0.61755 
0.37487 0.29694 0.2953 0.32621 0.2024 0.26505 0.051801 0.062652 
-0.0034422 -0.0026201 0.17577 0.25255 0.10984 0.13006 0.039963 -0.44358 
-0.41185 -0.24431 -0.046847 0.08567 -0.022514 -0.014458 0.038812 -0.66258 
-0.49027 -0.011663 -0.16588 -0.046354 -0.099624 -0.1039 0.0227 0.10672 
-0.17114 0.47171 -0.17936 -0.096007 -0.13284 -0.16901 -0.040271 0.64057 
0.30319 0.49769 -0.16884 -0.12346 -0.10883 -0.14829 -0.045696 0.22657 
0.54767 0.33328 -0.066084 -0.051287 -0.018404 0.076134 0.040128 -0.1672 
0.47944 0.19747 0.053774 0.050321 0.079751 0.24597 0.11954 -0.109 
0.37866 0.17412 0.13976 0.13565 0.12973 0.22328 0.15193 0.24647 
0.17692 0.073339 0.13056 0.14848 0.10935 0.11395 0.085999 0.46612 
-0.01232 -0.012649 0.12316 0.15735 0.071531 0.08419 0.010204 0.34117 
-0.016102 -0.08269 0.10441 0.13434 0.093891 0.098494 -0.023336 0.1442 
0.087479 -0.14089 0.087479 0.13269 0.080902 0.076956 0.0042853 0.052623 
0.11 -0.075949 0.088958 0.17149 0.062488 0.021056 0.082546 -0.182 
0.38984 0.21753 0.12957 0.17462 0.055254 0.041772 0.14996 -0.22606 
0.60111 0.33985 0.12217 0.17051 0.04095 0.11872 0.21309 0.08008 
0.33673 0.20043 0.083862 0.13088 0.019411 0.13319 0.25123 0.31437 
0.035524 0.18185 0.054103 0.11378 0.015794 0.092082 0.20651 0.42239 
-0.25549 0.08304 0.0082312 0.062323 0.026317 0.067913 0.0062583 0.31766 
-0.51214 -0.16588 -0.097487 -0.0013048 0.014479 -0.069208 -0.13464 -0.40247 
-0.51132 -0.29922 -0.1404 -0.052931 -0.0077169 -0.21751 -0.1963 -0.7558 
-0.23263 -0.39244 -0.11738 -0.06444 -0.024652 -0.18939 -0.098967 -0.23691 
0.057555 -0.41135 -0.089102 -0.05178 -0.015773 -0.013471 0.22427 0.24301 
0.1858 -0.20041 -0.059178 -0.028269 -0.028926 0.1003 0.32259 0.46612 
0.33936 0.27277 0.11231 0.073997 0.013821 0.22296 0.2121 0.40085 
0.50016 0.77358 0.27113 0.22148 0.095042 0.24433 0.10672 0.12908 
0.48947 0.87848 0.25337 0.28773 0.077614 0.18366 0.19254 0.0046141 
0.17856 0.45741 0.10622 0.19714 0.069886 0.1807 0.20651 -0.26765 
-0.25204 -0.089431 -0.0078813 0.096686 0.088301 0.33114 -0.02087 -0.88717 
-0.38242 -0.15355 -0.053095 0.027796 0.057391 0.2269 -0.24135 -0.91824 
-0.26996 -0.04619 -0.023336 0.012342 -0.073976 -0.27374 -0.60092 0.1927 
-0.16638 -0.11656 0.0095465 0.029605 -0.10867 -0.5391 -0.57692 1.2746 
-0.10883 -0.31977 -0.027611 0.041607 -0.0032777 -0.32701 -0.24069 0.98436 
0.052459 -0.38751 -0.072167 -0.001798 0.016781 -0.061316 0.036839 0.16788 
0.10721 -0.34937 -0.1427 -0.062796 -0.02235 -0.047834 0.31421 -0.29692 
-0.036983 -0.14303 -0.11261 -0.070194 -0.024816 -0.06855 0.47319 -0.37748 
-0.10784 0.021549 0.030592 0.018754 0.054925 0.031414 0.42058 -0.31945 
0.013492 0.17544 0.14026 0.10589 0.0786 0.095206 0.051965 -0.27933 
0.23134 0.47303 0.22164 0.20619 0.063145 0.063639 -0.24809 -0.088444 
0.40134 0.68775 0.22361 0.25863 0.04095 0.10195 -0.14862 0.12447 
0.43061 0.55129 0.16952 0.22855 0.043251 0.15111 0.044238 0.17232 
0.25666 0.12184 0.033715 0.13006 0.020727 0.074819 0.013164 0.052623 
-0.017746 -0.28147 -0.11672 0.0011614 -0.0026201 0.061995 -0.048163 -0.0095255 
-0.27752 -0.44966 -0.13991 -0.069372 -0.012814 0.039141 -0.091732 -0.10225 
-0.49011 -0.59287 -0.13678 -0.086471 -0.022679 -0.035174 -0.15635 -0.20945 
-0.84425 -0.90936 -0.19022 -0.098473 -0.021692 -0.021034 -0.049478 -0.49619 
-0.93139 -0.89884 -0.14155 -0.09239 -0.0024557 0.036839 0.17149 -0.81449 
-0.51132 -0.38044 -0.027282 -0.02235 0.02533 -0.0034422 0.19616 -0.0016336 
0.037826 0.091096 0.083204 0.063968 0.020398 -0.0039354 0.18678 0.75138 
0.45034 0.26636 0.12118 0.11691 0.0093821 0.0011614 0.087479 0.52877 
0.73346 0.42979 0.16706 0.16689 0.017767 -0.031228 -0.14369 -0.12281 
0.66786 0.54751 0.18119 0.21276 0.0592 0.051636 -0.02235 -0.46512 
0.26011 0.46777 0.14568 0.20175 0.092904 0.089123 0.18415 -0.10686 
-0.040435 0.3484 0.08567 0.15193 0.061995 0.051143 0.12579 0.43587 
-0.20715 0.24926 0.07038 0.12447 0.052787 0.0016547 -0.012649 0.35284 
-0.291 0.10655 0.082875 0.12398 0.0689 -0.060658 -0.13251 0.13664 
-0.070194 -0.010348 0.068736 0.1077 0.028947 -0.11968 -0.15289 0.18925 
0.18284 0.015137 0.063803 0.10228 -0.011334 -0.081045 -0.15487 0.19007 
0.39937 0.31996 0.022371 0.10672 -0.048327 -0.04471 -0.082361 0.095535 
0.57151 0.66161 -0.022843 0.062652 -0.02235 0.10589 0.0098754 -0.0868 
0.47846 0.694 0.036839 0.078765 0.049664 0.27968 0.089452 -0.25516 
0.11954 0.16673 0.037004 0.080409 0.069393 0.33525 0.33788 0.12891 
-0.32125 -0.47679 -0.017582 0.02829 0.10326 0.35498 0.57743 0.47698 
-0.53812 -0.68954 -0.091404 -0.02794 0.14338 0.30253 0.64073 0.097837 
-0.49997 -0.70269 -0.1672 -0.079895 0.063639 0.039963 0.39921 -0.42714 
-0.25697 -0.40576 -0.12856 -0.081045 0.011026 -0.10521 0.016288 -0.80183 
-0.074469 0.077614 0.0031344 0.00017495 -0.042901 -0.21126 -0.30711 -0.84096 
0.17034 0.23364 0.12431 0.10195 -0.022514 -0.25582 -0.47909 -0.18857 
0.26965 0.099481 0.1756 0.17462 0.0019835 -0.2499 -0.48764 0.61722 
0.045389 -0.11837 0.10869 0.14733 -0.0059084 -0.18627 -0.23543 1.0603 
-0.22458 -0.182 0.0082312 0.08419 -0.051287 -0.094034 0.12365 0.95986 
-0.055232 0.15735 1.0539e-005 0.087479 -0.085978 -0.063946 0.21227 0.58072 
0.087808 0.30796 0.04506 0.090767 -0.023172 -0.14254 -0.030735 0.26603 
-0.077428 0.10967 0.026317 0.078436 0.0052718 -0.28771 -0.30268 0.19599 
-0.080388 0.058542 -0.034188 0.032236 -0.023336 -0.29002 -0.050958 -0.14385 
0.16952 0.31289 -0.013471 0.023357 -0.050793 -0.17131 0.22575 -0.54535 
0.74185 0.65504 0.13203 0.11 -0.016595 -0.03912 0.26011 -0.4102 
1.1172 0.92879 0.2292 0.23003 0.034044 0.083204 0.21375 -0.068221 
0.84806 0.76881 0.21161 0.24564 0.13368 0.26521 0.33821 -0.076606 
0.17643 0.19714 0.12973 0.20355 0.24252 0.52515 0.49523 -0.065097 
-0.40149 -0.42187 0.093562 0.1613 0.35103 0.71949 0.27836 0.021056 
-0.62789 -0.56771 0.075476 0.1276 0.39822 0.88818 -0.27242 0.051143 
-0.56903 -0.44999 0.023851 0.072188 0.24811 0.49177 -0.67688 -0.12297 
-0.4393 -0.38192 -0.0503 0.014479 -0.012485 -0.121 -0.68806 -0.055232 
-0.20962 -0.42204 -0.18874 -0.075455 -0.19992 -0.55456 -0.31353 0.52581 
0.22213 -0.039449 -0.17673 -0.10932 -0.2185 -0.59237 0.1008 0.79397 
0.43801 0.55441 -0.09091 -0.06707 -0.15421 -0.40691 0.24252 0.24088 
0.34298 0.75368 0.024015 0.017438 -0.12626 -0.28574 0.27886 -0.052109 
0.27754 0.58598 0.1179 0.094384 -0.091404 -0.18495 0.27327 -0.012814 
0.20849 0.33065 0.15555 0.15374 -0.039284 -0.15947 0.10556 -0.12067 
0.1151 0.11954 0.13812 0.20717 0.022206 0.067749 0.068407 -0.047505 
0.0024767 -0.1205 0.1054 0.17495 0.1391 0.5286 0.096357 0.085177 
-0.13021 -0.32224 0.0069159 0.099152 0.19698 0.67115 0.055582 0.049664 
-0.31106 -0.5345 -0.13793 -0.027775 0.090109 0.16804 -0.19054 -0.1963 
-0.43585 -0.705 -0.194 -0.11311 0.0046141 -0.36121 -0.38685 -0.29297 
-0.33819 -0.68855 -0.11771 -0.11048 0.00050378 -0.45295 -0.34822 -0.21537 
-0.063946 -0.31649 -0.036983 -0.013965 0.046868 -0.23165 -0.088444 -0.035174 
0.15851 0.11937 -0.0095255 0.022206 0.034373 0.0064227 0.074161 0.09274 
0.3313 0.37471 1.0539e-005 0.030756 -0.0077169 0.094384 0.09685 0.14042 
0.31848 0.25173 -0.03501 0.0069159 -0.051287 0.14437 0.085012 0.1391 
0.14174 0.0093821 -0.0059084 0.028454 0.0098754 0.29365 0.077285 0.064132 
-0.077264 0.079587 0.084684 0.070708 0.11263 0.39493 0.086657 0.012506 
-0.15289 0.23759 0.12727 0.13006 0.14437 0.3073 0.072846 -0.037311 
-0.0771 0.30467 0.099645 0.15703 0.071202 0.052787 -0.18216 -0.068879 
-0.084991 0.20076 0.059035 0.12036 -0.009361 -0.079072 -0.11327 0.078765 
-0.085649 -0.035174 0.023851 0.088301 0.02681 0.021549 0.20586 0.30138 
-0.069701 -0.19975 -0.018404 0.046704 0.031085 0.024015 0.30122 0.28231 
-0.051944 -0.18956 0.028125 0.053445 0.0062583 -0.044217 0.15489 0.14716 
-0.049642 0.041114 0.063968 0.077121 0.0060938 -0.083018 -0.032215 -0.40757 
-0.048656 0.21293 0.082053 0.12431 0.0060938 0.005765 -0.14073 -0.78654 
0.072188 0.31355 0.10819 0.14519 0.05476 0.16936 0.057062 -0.29002 
0.19912 0.3198 0.1202 0.15555 0.065447 0.26899 0.24597 0.22707 
0.27557 0.20701 0.057555 0.11543 0.017932 0.082382 0.159 0.2514 
0.29431 0.11132 0.004943 0.066105 -0.040271 -0.19614 0.015794 0.099152 
0.27277 0.10787 -0.014951 0.039305 0.0087245 -0.15405 0.0060938 0.020891 
0.17182 0.086328 -0.008539 0.040456 0.091918 -0.0042642 0.066105 0.064625 
0.058542 -0.0004827 -0.040271 0.041278 0.086657 -0.079072 0.069558 0.23151 
-0.018239 -0.06148 -0.022021 0.027632 0.060844 -0.11968 0.23101 0.43834 
-0.17427 -0.13711 -0.03912 0.010862 0.040292 -0.076771 0.31766 0.15324 
-0.095021 -0.037147 -0.0077169 0.028125 0.020727 0.053609 0.29332 -0.2157 
0.08419 0.16278 0.065283 0.069393 -0.0054151 0.20668 0.24926 -0.23576 
0.017767 0.21013 0.11642 0.10803 -0.015773 0.1202 0.18711 -0.30333 
-0.17246 0.15012 0.10721 0.15867 0.013657 0.18711 0.0052718 -0.18643 
-0.26141 0.076299 0.12595 0.16706 0.083862 0.33607 -0.22293 0.072681 
-0.17016 0.062817 0.11148 0.15686 0.05213 0.12447 -0.41924 0.11066 
0.11526 0.055418 0.064954 0.12513 0.10425 0.17462 -0.10094 0.042429 
0.40069 -0.10275 -0.019719 0.050157 0.11592 0.13762 0.2468 -0.16999 
0.27327 -0.36647 -0.10406 -0.037805 -0.058192 -0.18134 0.21934 -0.18611 
-0.012978 -0.37699 -0.10423 -0.045039 -0.15043 -0.36581 0.10573 0.1493 
-0.1889 -0.011827 0.0054362 0.02681 -0.074962 -0.25204 -0.0047575 0.83326 
-0.22721 0.30911 0.13105 0.12233 0.080573 0.086985 -0.081539 0.70748 
-0.058356 0.40332 0.18728 0.19073 0.16492 0.27705 -0.18298 -0.093212 
0.016945 0.44146 0.16081 0.19517 0.1179 0.22312 -0.29824 -0.77898 
0.10293 0.47007 0.18169 0.20109 0.01826 -0.10423 -0.37173 -0.69727 
0.24811 0.3484 0.19862 0.21424 -0.0034422 -0.23198 -0.033037 -0.12264 
0.23298 0.12168 0.1128 0.20487 1.0539e-005 -0.13744 0.29316 0.17922 
0.033551 -0.074469 -0.01117 0.093562 0.034373 -0.054246 0.33936 0.1128 
-0.0078813 -0.073154 -0.064768 0.023028 0.012342 -0.0091966 0.21474 0.091096 
0.22213 0.11115 -0.019061 0.026317 0.040128 0.0075736 0.17593 0.16048 
0.47582 0.37652 0.075805 0.076956 0.021056 0.01826 0.14667 0.26488 
0.54932 0.49555 0.15127 0.14404 0.10096 0.12497 0.12151 0.20701 
0.52498 0.35597 0.15456 0.16771 0.090109 0.22904 0.18448 -0.020706 
0.42157 0.038977 0.10524 0.15505 0.1026 0.23381 0.13943 -0.12281 
0.072681 -0.35742 0.011026 0.085341 0.048019 0.14667 0.077121 -0.087129 
-0.62279 -0.87944 -0.15437 -0.045861 -0.062467 -0.038956 -0.16835 0.21852 
-1.299 -1.3146 -0.38554 -0.2351 -0.15733 -0.30251 -0.60881 0.57332 
-1.1185 -0.86217 -0.3788 -0.30218 -0.15684 -0.33128 -0.6047 0.50805 
-0.26618 0.24663 -0.12675 -0.15964 -0.076771 -0.16029 -0.25483 0.015794 
0.52531 0.94901 0.12858 0.06183 0.038319 0.063803 0.13631 -0.64071 
0.83178 0.89064 0.28921 0.22904 0.10458 0.14749 0.24334 -0.79263 
0.57234 0.45544 0.25222 0.26768 0.10507 0.085506 0.12381 -0.1358 
0.16245 0.21621 0.17593 0.23479 0.073339 0.03799 -0.0080457 0.82438 
-0.089595 0.093069 0.1077 0.17807 0.037661 0.026974 0.065612 0.88867 
-0.20682 -0.076277 0.041607 0.10951 0.024673 0.034373 0.12595 0.12332 
-0.145 -0.094527 -0.032708 0.071366 0.027468 -0.029091 0.023028 -0.39097 
0.0087245 -0.098309 -0.030077 0.039305 0.032236 0.020233 -0.033694 -0.376 
0.055089 -0.27078 -0.00031829 0.043416 0.071037 0.07449 -0.021034 -0.14287 
0.049499 -0.34213 0.054596 0.078765 0.062488 0.10836 0.11083 0.15653 
-0.025967 -0.2864 0.068078 0.089452 0.019083 0.051636 0.2269 0.27886 
-0.067728 -0.17312 0.089287 0.094713 -0.03912 -0.025309 0.19681 0.22164 
-0.086964 -0.13563 0.046704 0.092576 -0.04471 0.02681 0.10408 0.12431 
-0.082854 0.064954 0.011848 0.087972 0.0024767 0.060515 -0.26026 -0.2305 
0.062817 0.52104 -0.041422 0.03947 0.092247 0.0013258 -0.46906 -0.31649 
0.43341 0.81583 -0.074304 -0.0067304 0.082053 -0.15306 -0.18183 0.041114 
0.4487 0.52268 -0.093048 -0.037805 -0.024158 -0.33622 0.11329 0.01974 
0.18202 0.18448 -0.063618 -0.046847 -0.06148 -0.25598 0.24976 -0.097158 
-0.012814 0.13401 0.073504 0.049499 -0.0050863 -0.050136 0.19764 0.12891 
-0.017746 0.23151 0.16311 0.18202 0.051636 0.062652 0.085506 0.36994 
-0.078415 0.022042 0.14338 0.18103 0.0046141 -0.0039354 0.16689 0.3535 
-0.16884 -0.45969 -0.024323 0.076134 -0.023829 -0.04619 0.24121 0.094713 
-0.15766 -0.85889 -0.2111 -0.08384 -0.034188 0.017932 0.11658 -0.003771 
-0.42796 -1.1966 -0.31139 -0.20156 0.0044497 0.21868 -0.070359 -0.073318 
-0.69842 -0.97693 -0.2642 -0.21784 0.067091 0.41548 -0.17295 -0.18594 
-0.56179 -0.27752 -0.086471 -0.10176 0.062817 0.3775 -0.050958 -0.31369 
-0.12067 0.49177 0.1299 0.079916 0.0052718 0.2006 0.11494 -0.26815 
0.36106 0.87749 0.28445 0.23348 0.062323 0.1026 0.23792 0.0019835 
0.63646 0.81731 0.26751 0.28297 0.08715 0.060679 0.21079 0.12612 
0.54636 0.70009 0.25748 0.28247 0.086985 -0.13136 0.021713 0.025824 
0.29546 0.4362 0.19254 0.22641 0.047526 -0.25417 -0.075127 0.18152 
0.0028056 0.044402 0.037826 0.12398 0.016781 -0.17377 -0.035503 0.23693 
-0.14714 -0.32619 -0.145 0.0098754 -0.024816 -0.067892 0.10655 0.072353 
0.073997 -0.33441 -0.15026 -0.050958 0.013164 0.082711 0.26603 -0.018733 
0.40677 -0.014951 -0.0095255 0.0083956 0.075148 0.20717 0.22065 -0.19137 
0.39954 0.29826 0.095864 0.093726 0.097344 0.1636 -0.035503 -0.27061 
0.24186 0.25502 0.12053 0.12628 0.066269 0.015959 -0.13843 -0.045696 
0.052623 -0.010348 0.09833 0.11132 -0.01676 -0.026296 -0.0503 0.39904 
-0.19893 -0.34279 -0.023007 0.066763 -0.047176 -0.022843 0.007738 0.64024 
-0.14434 -0.3737 -0.031064 0.035524 -0.0096899 0.091589 0.01267 0.48355 
-0.077922 -0.050629 -0.00031829 0.043909 0.054432 0.15916 0.027632 0.08156 
-0.26996 0.26751 -0.0059084 0.040456 0.088465 0.19073 0.060186 -0.23444 
-0.08121 0.62857 0.026317 0.057062 0.063968 0.15522 0.098823 -0.29248 
0.24005 0.69022 0.076463 0.08008 0.016288 0.0087245 0.13631 -0.055726 
0.39839 0.50641 0.14075 0.13927 0.0044497 0.013328 0.19402 0.14305 
0.35153 0.26751 0.15374 0.19928 0.043251 0.032893 0.12924 -0.26141 
0.26061 0.12875 0.1664 0.20339 0.065118 -0.012649 0.10819 -0.3885 
0.092411 -0.10817 0.049992 0.13236 0.04917 -0.062302 0.037332 -0.67672 
-0.35463 -0.71716 -0.15372 -0.025638 -0.050464 -0.19137 -0.38554 -0.88486 
-0.88305 -1.2122 -0.33211 -0.20156 -0.087129 -0.20173 -0.78885 0.30911 
-0.86086 -0.9549 -0.27703 -0.21915 -0.042079 -0.0026201 -0.37814 1.3181 
-0.22737 -0.30383 -0.052766 -0.054246 0.077285 0.15259 0.18646 0.78953 
0.29365 0.084355 0.12447 0.087314 0.11083 0.18777 0.30779 -0.14993 
0.58187 0.36271 0.19205 0.17692 0.10063 0.14058 0.16919 -0.32454 
0.5388 0.40661 0.12168 0.16377 0.03092 0.0090533 0.13532 0.045389 
0.15653 0.24581 0.0051074 0.085012 -0.0040998 -0.032379 -0.040271 0.30779 
-0.12215 0.2634 -0.0050863 0.047362 0.0421 0.086821 -0.039613 0.17133 
-0.075127 0.38425 0.087314 0.1008 0.032729 0.21079 0.2006 -0.02646 
0.18415 0.48684 0.18646 0.20191 0.033715 0.1881 0.3512 0.095371 
0.38704 0.48635 0.22723 0.2463 0.023851 0.096357 0.37701 0.1294 
0.3632 0.47648 0.22131 0.25403 0.022042 -0.027447 0.12973 -0.088115 
0.22838 0.46086 0.16196 0.22213 0.037004 -0.090746 -0.13333 -0.3617 
0.14387 0.59585 0.12102 0.17741 0.044073 -0.0070593 -0.26206 -0.70647 
0.04506 0.57957 0.10277 0.1516 0.041114 -0.050464 -0.35216 0.064954 
0.063639 0.33344 0.061008 0.14519 -0.02942 -0.16161 -0.28393 1.057 
0.12447 0.0031344 0.070873 0.12776 0.0098754 0.086328 0.047033 0.96545 
-0.022514 -0.36269 0.029605 0.091096 0.013657 0.23118 0.28264 0.2583 
-0.26289 -0.64729 -0.072167 0.011848 -0.027611 0.0095465 0.23019 -0.46051 
-0.15947 -0.5488 -0.066084 -0.042737 -0.046354 -0.20715 0.080738 -0.47005 
0.13351 -0.42368 -0.094527 -0.05885 0.0090533 -0.24168 -0.079401 -0.065097 
0.17051 -0.65501 -0.19663 -0.097322 0.082875 -0.10883 -0.15816 0.22263 
-0.12166 -0.9919 -0.31632 -0.19926 0.049335 0.022535 -0.10258 0.13401 
-0.34 -0.80052 -0.30925 -0.24168 0.034537 0.073832 -0.023007 -0.063782 
-0.44144 -0.22211 -0.088773 -0.11607 0.048841 0.051308 -0.018897 -0.29067 
-0.41004 0.36337 0.10145 0.046704 0.062981 0.040128 -0.096172 -0.30514 
-0.38094 0.53551 0.17955 0.14453 0.010204 -0.028104 -0.13284 0.09833 
-0.12708 0.67723 0.23956 0.22033 0.010369 -0.037311 0.0085601 0.5235 
0.17889 0.64057 0.1636 0.24104 -0.0049219 -0.15848 0.060515 0.38096 
0.37767 0.59322 0.14979 0.2098 -0.040928 -0.29528 -0.18117 -0.24793 
0.35202 0.49194 0.15555 0.2052 0.033058 -0.14056 -0.18775 -0.75333 
0.21539 0.27655 0.14157 0.19533 0.10441 0.2024 0.096357 -0.56459 
0.029276 -0.013143 0.080244 0.14075 0.047691 0.1927 0.26603 0.24318 
0.12809 0.068736 0.017932 0.0786 -0.08384 0.028619 0.28116 0.69877 
0.22476 0.11707 -0.0031133 0.077121 -0.10669 -0.10406 0.19237 0.38014 
0.29859 0.08008 0.014479 0.072353 0.024179 0.028947 0.15834 -0.02794 
0.2611 0.041114 0.060186 0.10014 0.18678 0.50476 0.24877 -0.086307 
0.020891 -0.11672 0.058542 0.10293 0.25551 0.90199 0.16278 -0.13218 
-0.13843 -0.1986 0.06742 0.099974 0.19698 0.7527 0.047855 -0.19466 
-0.10078 -0.086964 0.090603 0.10836 0.14469 0.4117 0.05624 -0.16424 
0.035853 0.041278 0.080573 0.11642 0.025001 -0.14254 -0.022185 -0.039284 
0.10737 0.096193 0.045718 0.11691 -0.0503 -0.56689 -0.11179 0.071531 
0.061666 0.068407 -0.011005 0.061501 -0.12593 -0.66488 -0.21274 0.17676 
-0.034516 0.073832 -0.016102 0.04095 -0.081539 -0.46232 -0.27637 0.26242 
-0.0096899 0.12727 0.0093821 0.050814 -0.027775 -0.27111 -0.15569 0.27787 
0.078929 0.10951 0.051801 0.076792 0.0056006 -0.076442 -0.023007 0.1174 
0.21276 0.22444 0.11674 0.12201 0.056569 0.18152 0.16377 -0.095349 
0.27951 0.16936 0.087479 0.15259 0.078765 0.36961 0.29283 -0.31501 
0.19764 -0.1256 0.048019 0.11099 0.12299 0.4972 0.15883 -0.64548 
-0.044546 -0.62295 -0.096007 0.0085601 0.14124 0.38605 0.0085601 -0.6634 
-0.50934 -0.80282 -0.12873 -0.05441 0.11855 0.27343 -0.029913 -0.18068 
-0.86119 -0.5687 -0.15273 -0.098638 0.011848 0.070051 -0.085485 0.41713 
-0.69332 -0.24645 -0.092061 -0.087786 -0.036654 -0.054082 0.092904 0.95115 
-0.071345 0.055582 0.049664 0.033058 -0.027447 -0.046354 0.39312 0.98058 
0.47977 0.39641 0.20898 0.1909 0.07301 0.10392 0.53403 0.439 
0.69154 0.68792 0.27836 0.27294 0.13368 0.20882 0.57628 -0.057041 
0.6483 0.85792 0.22723 0.26587 0.096357 0.12102 0.45938 -0.34756 
0.37076 0.92057 0.12464 0.19747 -0.015609 -0.0868 0.14371 -0.41678 
0.013821 0.7236 0.020069 0.10063 -0.11935 -0.17624 -0.15684 -0.42747 
-0.068221 0.62659 0.028619 0.050979 -0.14007 -0.13136 -0.33391 -0.43371 
0.14404 0.44261 0.051472 0.11132 -0.035996 0.0046141 -0.28936 -0.13382 
0.2218 0.080409 0.090109 0.1345 0.068242 0.028947 -0.41744 0.34232 
-0.086307 -0.40017 0.029441 0.093069 0.078765 -0.037311 -0.37617 0.61804 
-0.57593 -0.57166 -0.11245 -0.013307 0.026974 -0.13941 -0.2032 0.25288 
-0.6583 -0.46018 -0.13366 -0.064933 0.046704 -0.041915 0.10277 0.03651 
-0.32504 -0.27374 -0.0026201 -0.016266 0.10556 0.047526 0.25354 0.17117 
-0.054246 -0.35299 0.078929 0.082382 0.066105 0.040292 0.32423 0.183 
0.049992 -0.51987 0.035524 0.072517 0.00033937 -0.050136 0.1442 -0.33013 
0.010697 -0.6001 -0.043724 0.024673 -0.0036066 -0.06855 -0.1621 -0.72094 
0.054103 -0.55275 -0.085649 -0.018733 0.024837 0.028619 -0.26453 -0.040928 
-0.15832 -0.41875 -0.13349 -0.064604 0.045553 0.18333 -0.15947 0.35383 
-0.13695 0.07449 -0.099789 -0.069701 0.035195 0.19829 0.13549 0.35728 
0.35235 0.621 0.036839 0.028454 0.040785 0.1544 0.39148 0.42042 
0.81222 0.91958 0.13187 0.14338 0.050321 0.05065 0.45971 0.51759 
0.72787 0.91185 0.1664 0.17725 0.030098 -0.038298 0.24499 0.40085 
0.22312 0.60407 0.15735 0.18613 0.018096 -0.10768 -0.019884 0.0689 
-0.23132 0.20947 0.10145 0.15653 -0.00097594 -0.14385 -0.19696 -0.46396 
-0.35611 -0.11722 0.031742 0.092576 -0.051451 -0.1815 -0.19153 -0.49685 
-0.37239 -0.32717 -0.044546 0.020727 -0.048163 -0.22869 -0.098967 -0.35299 
-0.27111 -0.21307 -0.10012 0.00099702 -0.038791 -0.2203 -0.072332 -0.10932 
0.11148 0.01152 -0.047998 0.0023123 0.032071 -0.091732 -0.023665 0.17791 
0.32621 0.11214 0.041772 0.055582 0.019576 -0.1598 0.016781 0.18761 
0.28905 0.16574 0.080409 0.09685 0.022206 -0.2397 0.088794 -0.021363 
0.28165 0.29135 0.11954 0.12677 -0.017911 -0.20123 0.17412 -0.182 
0.23759 0.4505 0.13483 0.14617 -0.036325 -0.12396 -0.080388 -0.25549 
0.18613 0.43308 0.13499 0.16278 -0.063124 -0.13382 -0.61983 -0.17279 
0.11263 0.071366 0.086985 0.16311 -0.011334 0.0024767 -0.57577 0.71258 
-0.065591 -0.7165 -0.042408 0.06331 0.071366 0.14667 0.0592 1.2265 
-0.44604 -1.48 -0.27127 -0.12314 -0.018568 -0.024652 0.17692 0.43637 
-0.73081 -1.363 -0.40132 -0.2647 0.015465 0.15127 -0.064768 -0.57314 
-0.53516 -0.53779 -0.27736 -0.24464 0.14667 0.52745 -0.08384 -0.9452 
-0.047176 0.36534 -0.043559 -0.095185 0.12727 0.45873 0.072517 -0.74659 
0.23085 0.75401 0.079916 0.057884 0.03799 0.11231 0.094055 -0.046683 
0.30072 0.67444 0.06035 0.08304 -0.010841 -0.16983 0.08156 0.33788 
0.30319 0.38194 0.063474 0.095699 -0.03501 -0.34279 0.15719 0.17445 
0.32999 0.25452 0.13713 0.14469 -0.050958 -0.38965 0.088136 -0.14911 
0.2297 0.2024 0.23233 0.21293 -0.010348 -0.27127 0.038648 -0.038956 
0.055254 0.03947 0.17955 0.20816 0.023851 -0.097816 -0.019719 0.28856 
0.037497 -0.028433 0.067091 0.16475 0.025001 -0.044546 -0.21258 0.3951 
0.061995 0.07301 0.025495 0.1077 0.0044497 -0.040435 -0.35249 0.1442 
0.14601 0.27409 0.090438 0.12891 0.041278 0.0421 -0.093705 -0.19564 
0.20454 0.34166 0.13927 0.16492 0.099481 0.12151 0.14469 -0.19318 
0.16262 0.2662 0.08978 0.14585 0.10145 0.18465 0.15883 -0.10045 
0.09833 0.18547 0.09126 0.12891 0.081067 0.21885 0.13286 0.024015 
0.054432 0.031578 0.10819 0.13746 0.048019 0.10425 0.10556 0.041772 
0.014808 -0.098144 0.045553 0.14206 0.039141 -0.0036066 0.073997 0.039634 
0.12842 0.0227 0.10639 0.15127 0.037826 -0.010183 0.062817 0.06331 
0.2218 0.30237 0.17133 0.19468 0.063145 0.095535 0.1248 -0.046847 
0.084684 0.27655 0.1225 0.17297 0.027303 0.17412 0.097837 -0.13678 
-0.1667 0.16426 0.057227 0.10885 0.047691 0.23003 0.1077 -0.1108 
-0.22754 0.12184 0.023522 0.074161 0.065447 0.26784 0.11148 0.30944 
-0.10209 0.01267 -0.023501 0.063145 0.075476 0.24252 0.1562 0.83359 
0.14979 -0.054739 -0.093048 -0.0080457 0.044731 0.12546 0.13598 0.84378 
0.40841 0.0032988 -0.075291 -0.021528 0.020233 0.1419 0.013164 0.11395 
0.60621 0.11198 -0.01939 0.0075736 0.059857 0.25337 0.11083 -0.41809 
0.52679 -0.27801 -0.037805 -0.0039354 0.07038 0.19862 0.29217 -0.17854 
-0.063618 -0.67359 -0.067235 -0.027447 0.018589 -0.00064712 0.26653 0.22328 
-0.82321 -0.57626 -0.084005 -0.042737 -0.004593 -0.12675 0.097837 0.074326 
-0.87187 -0.10719 -0.083347 -0.01939 -0.030735 -0.18331 -0.074469 -0.30169 
-0.29692 0.46826 0.058377 0.060022 0.0052718 -0.072989 -0.1085 -0.42747 
0.27392 0.70929 0.19599 0.17297 0.086657 0.13795 0.066763 -0.18857 
0.39806 0.38293 0.23183 0.23035 0.11313 0.24482 0.23479 0.13171 
0.16426 -0.17591 0.12414 0.17659 0.0689 0.10852 0.20553 0.27212 
-0.18709 -0.51641 -0.029913 0.060186 -0.023994 -0.13908 -0.07266 0.017603 
-0.44078 -0.53746 -0.1552 -0.025309 -0.082032 -0.12363 -0.21817 -0.23411 
-0.4028 -0.19794 -0.11113 -0.045696 -0.0138 0.059364 -0.14089 -0.0029489 
-0.072825 0.29185 0.041443 0.044238 0.053938 0.25535 0.06183 0.62709 
0.23792 0.59733 0.19977 0.17034 0.095206 0.24597 0.27705 1.1868 
0.42223 0.58089 0.21375 0.21523 0.086985 0.1567 0.51232 0.81994 
0.33098 0.42223 0.15933 0.19451 0.028125 -0.024652 0.34216 -0.51576 
0.15653 0.27639 0.097179 0.15966 0.017932 -0.018733 -0.029748 -1.3232 
0.070215 0.21753 0.035688 0.12628 0.040292 0.069229 -0.13727 -0.76829 
0.095042 0.18629 0.03388 0.099481 0.074161 0.11658 0.005765 0.17199 
0.047526 -0.019719 0.03947 0.088794 0.03651 0.05772 0.027796 0.38129 
-0.02794 -0.17213 0.0070803 0.065776 0.00066819 -0.025638 -0.109 0.090767 
0.076299 -0.16342 0.01711 0.053609 -0.025474 -0.11327 -0.16177 -0.062302 
0.16146 -0.097651 0.032729 0.063803 -0.010841 -0.11064 -0.065591 -0.12642 
0.098823 -0.099789 0.025988 0.095535 0.063803 0.0056006 0.081724 -0.074962 
0.022371 -0.0771 0.021878 0.079916 0.088794 0.064461 0.14486 0.21802 
-0.079072 -0.079072 0.005765 0.058377 0.068571 0.013492 0.089123 0.51874 
-0.17016 -0.206 -0.029913 0.036182 0.061008 0.061666 0.060844 0.50049 
-0.18791 -0.17772 -0.0054151 0.035195 0.015794 0.094384 0.23611 0.12201 
-0.065426 0.10967 0.055582 0.063803 0.0047785 0.084519 0.21326 -0.15355 
-0.06444 0.14798 0.059528 0.10228 0.0087245 -0.0068948 0.00099702 -0.23263 
-0.067564 0.13499 0.023522 0.078436 -0.00031829 -0.073154 -0.1649 -0.25746 
0.077614 0.16212 -0.012485 0.060022 0.016616 -0.11294 -0.17279 -0.42187 
0.2953 0.18284 -0.019719 0.033551 -0.052437 -0.19811 -0.17723 -0.030077 
0.30878 0.023686 -0.038462 0.0044497 -0.1011 -0.24234 -0.040106 0.2685 
0.20438 0.061666 0.049335 0.051143 -0.015116 -0.10965 0.044567 -0.088937 
0.027139 0.087479 0.14519 0.13582 0.096521 0.15982 0.11872 -0.22359 
-0.12544 -0.011334 0.14174 0.19632 0.17939 0.32884 0.22148 -0.12478 
-0.077593 -0.15437 0.11181 0.17182 0.16327 0.31848 0.18448 -0.037311 
-0.11245 -0.27653 0.072024 0.1322 0.074654 0.083204 -0.14204 -0.072332 
-0.18249 -0.056383 -0.0036066 0.070708 -0.031392 -0.2282 -0.68428 -0.2134 
-0.31238 0.23414 -0.080881 -0.0067304 -0.10554 -0.27012 -0.62361 -0.20074 
-0.3492 0.44278 -0.14615 -0.075455 -0.14254 -0.17986 0.1179 0.18021 
-0.11031 0.5143 -0.15569 -0.074798 -0.14846 -0.17838 0.33706 0.31503 
0.1955 0.53682 -0.068057 -0.037311 -0.068386 -0.14155 0.037168 0.27606 
0.33525 0.43932 0.014479 0.029276 0.078765 0.0011614 -0.047998 0.43258 
0.48388 0.12003 0.086821 0.092082 0.15522 0.069722 0.087808 0.43193 
0.51035 -0.22655 0.10819 0.12727 0.17478 0.12858 0.16952 0.053281 
0.21638 -0.53499 0.082546 0.11231 0.1276 0.15653 0.15982 -0.31468 
-0.10702 -0.58826 0.014643 0.071531 0.041114 0.097837 0.14831 -0.28969 
-0.25187 -0.35726 -0.041093 0.050157 -0.020541 0.016452 0.16426 0.021713 
-0.13399 0.12677 0.049828 0.079751 0.0074092 -0.024323 0.083862 0.18777 
0.11115 0.53616 0.18695 0.17659 0.062323 -0.00031829 -0.047998 -0.042737 
0.27162 0.58352 0.19254 0.21013 0.065283 0.085177 -0.048656 -0.088608 
0.26291 0.29234 0.10885 0.16393 0.081395 0.12957 0.060515 0.049499 
0.091425 -0.042737 0.015137 0.082875 0.010369 0.07597 0.077614 0.11017 
-0.025967 -0.09387 -0.073647 0.026646 -0.059014 -0.087622 -0.092883 0.0087245 
-0.11557 -0.091404 -0.13251 -0.047341 -0.091404 -0.24776 -0.20353 -0.0044286 
-0.14961 -0.14714 -0.19186 -0.10949 -0.042901 -0.24628 -0.2185 0.086985 
-0.14846 -0.10176 -0.13859 -0.098473 0.041278 -0.13793 -0.15585 0.059528 
-0.042901 -0.10489 -0.050793 -0.041751 0.093398 -0.0031133 0.018096 -0.053424 
0.058049 -0.062631 0.045553 0.02681 0.089452 0.0039565 0.087643 -0.10653 
0.14848 0.074326 0.10688 0.10918 0.090603 0.097015 0.063803 0.1299 
0.14026 0.16311 0.10589 0.14354 0.13171 0.33048 0.025001 0.36221 
-0.033365 0.14831 0.10277 0.14568 0.13499 0.39707 0.01415 0.2902 
-0.34871 -0.10817 0.011191 0.084684 0.11083 0.33673 0.0052718 0.044402 
-0.47021 -0.4689 -0.1376 -0.024816 0.01004 0.19155 0.094713 -0.11557 
-0.22178 -0.18808 -0.16095 -0.088773 -0.031064 0.055747 0.072517 -0.085156 
0.052952 0.25091 -0.032543 -0.03353 -0.10439 -0.1233 -0.055561 -0.067728 
0.28461 0.37981 0.061666 0.065118 -0.075291 -0.23428 -0.092719 -0.020048 
0.34709 0.1978 0.081889 0.10343 0.0054362 -0.22655 -0.14007 0.054432 
0.24729 -0.11015 0.031249 0.086163 0.025659 -0.16605 -0.11245 0.051308 
0.010533 -0.34953 -0.11524 -0.020048 0.00297 -0.10472 0.029605 -0.008539 
-0.19367 -0.47284 -0.17969 -0.097158 -0.025309 -0.081868 0.20997 -0.036818 
-0.14023 -0.25598 -0.03764 -0.033201 0.029112 0.023193 0.25222 -0.18446 
0.0065871 0.15883 0.12825 0.11592 0.060022 0.10474 0.24926 -0.2305 
0.14502 0.4043 0.23052 0.21112 0.037826 0.082546 0.077285 -0.28788 
0.22411 0.36172 0.22394 0.24318 0.046211 0.098823 -0.2009 -0.096336 
0.28099 0.30977 0.21342 0.24877 0.13499 0.17248 -0.15092 0.67394 
0.23085 0.20799 0.18119 0.23249 0.14716 0.25387 0.27721 1.0327 
0.10573 0.066763 0.089945 0.15916 0.074819 0.12924 0.29316 0.36731 
-0.14287 -0.029255 0.021878 0.091425 -0.038462 -0.19219 -0.30004 -0.60306 
-0.32471 -0.087951 -0.044381 0.057555 -0.058685 -0.29955 -0.47186 -0.86316 
-0.21471 -0.00081153 -0.065591 0.010697 -0.0406 -0.2185 -0.32668 -0.4712 
0.04358 0.16574 0.0021479 0.036017 -0.0082102 -0.046354 -0.16062 0.10951 
0.2611 0.24877 0.095864 0.1151 0.047691 0.16722 -0.027447 0.43735 
0.22476 0.15752 0.1373 0.14535 0.074819 0.16508 0.16031 0.31059 
0.10063 -0.053588 0.11066 0.12825 -0.010348 0.017274 0.25058 0.095864 
0.042594 -0.16046 0.028125 0.11313 -0.057534 -0.08121 0.23973 0.021878 
0.0018191 -0.14665 -0.011663 0.062323 -0.073318 -0.079401 0.14848 0.070215 
0.043416 0.048513 -0.03205 0.03536 0.023193 0.076956 0.12201 0.11066 
0.25765 0.38819 0.058049 0.077614 0.17971 0.42075 0.13779 -0.012485 
0.44722 0.6871 0.16179 0.15226 0.20487 0.5263 0.16475 -0.11985 
0.54159 0.76371 0.21309 0.20306 0.094713 0.28001 0.11395 -0.10258 
0.38638 0.61525 0.20454 0.2269 -0.0022913 0.00099702 0.029934 -0.22441 
-0.015116 0.11115 0.13532 0.20372 -0.062138 -0.12429 -0.008539 -0.18479 
-0.34657 -0.5174 0.038648 0.13582 -0.063124 -0.13958 0.042594 -0.037311 
-0.63972 -1.0044 -0.060987 0.043416 0.0032988 -0.04323 0.16886 0.16278 
-0.74445 -0.99584 -0.097322 -0.016102 0.03092 -0.081539 0.14502 0.34775 
-0.38603 -0.41563 -0.077922 -0.036489 -0.0073881 -0.11097 0.10622 0.30878 
0.20257 0.36008 0.068078 0.042758 0.026317 -0.046847 0.1026 0.38211 
0.54471 0.77358 0.098494 0.13319 -0.0027845 -0.085649 -0.054575 0.16196 
0.54915 0.65997 0.078272 0.11707 -0.0022913 -0.14895 -0.084334 -0.40741 
0.39625 0.28757 0.020069 0.085835 0.037168 0.023357 0.10967 -0.13727 
-0.083676 -0.12823 -0.057205 0.020727 0.062981 0.23348 0.37455 0.21901 
-0.46758 -0.46577 -0.10439 -0.036489 0.058706 0.29661 0.4658 0.2195 
-0.28821 -0.44456 -0.063453 -0.042408 0.045389 0.16459 0.13269 0.0019835 
0.079094 -0.17608 -0.076113 -0.021199 0.032893 -0.019884 -0.3742 -0.23198 
0.4288 0.34758 -0.026624 0.0075736 0.037826 -0.0083746 -0.24069 -0.10768 
0.4972 0.72064 0.11987 0.11378 0.092411 0.18465 0.13697 0.051636 
0.29744 0.74448 0.1756 0.17643 0.051308 0.26126 0.23479 0.21802 
0.068078 0.47122 0.20964 0.21474 0.0092177 0.1738 0.171 0.41927 
-0.004593 0.22657 0.19994 0.22476 0.03651 0.088958 0.10063 0.6603 
0.063474 0.074161 0.17955 0.21819 0.075641 0.016123 -0.011498 0.38227 
0.0013258 -0.20896 0.047362 0.16738 0.058377 0.00099702 -0.021528 -0.3788 
-0.14944 -0.55439 -0.1039 0.025495 0.017274 -0.037147 -0.079895 -0.85182 
-0.27522 -0.82025 -0.21817 -0.099789 -0.01528 -0.1085 -0.084498 -0.50721 
-0.38126 -0.77504 -0.24102 -0.16276 -0.04471 -0.16851 -0.036325 -0.059672 
-0.47975 -0.56393 -0.20025 -0.1644 -0.037147 -0.096994 0.19681 0.40529 
-0.37995 -0.17854 -0.082196 -0.09387 -0.019555 -0.004593 0.37372 0.60851 
-0.060987 0.16755 0.050157 0.045224 0.035031 -0.0031133 0.30845 0.36698 
0.25748 0.38901 0.15982 0.14157 0.0421 -0.022679 0.10277 0.015301 
0.41779 0.5286 0.17215 0.18218 0.063803 0.05213 -0.03353 -0.099624 
0.4778 0.63268 0.19632 0.21342 0.058049 0.13746 -0.11343 -0.096007 
0.42913 0.70896 0.18037 0.22131 0.066927 0.089945 -0.22211 -0.07973 
0.21243 0.64928 0.15883 0.19912 0.060515 0.017438 -0.19992 0.020398 
0.011355 0.39806 0.092576 0.15883 0.063639 0.12151 0.035688 0.2223 
-0.06855 0.015794 -0.080388 0.059035 0.046868 0.16048 0.20684 0.34824 
0.0592 -0.32569 -0.19614 -0.069701 0.015137 0.078436 0.14239 0.31338 
0.020069 -0.78276 -0.21208 -0.12988 0.0018191 -0.053588 0.063145 0.061501 
-0.15141 -0.90739 -0.17427 -0.12823 -0.0047575 -0.16079 -0.15503 -0.075949 
-0.121 -0.5391 -0.051615 -0.055397 -0.023665 -0.14221 -0.45542 -0.19071 
-0.040764 -0.26601 0.032564 0.016945 0.012506 0.080902 -0.38949 -0.29462 
-0.25121 -0.3469 -0.031557 0.038812 0.065612 0.30878 0.15834 -0.14171 
-0.44983 -0.34394 -0.055561 0.007738 0.021056 0.23085 0.47467 -0.06148 
-0.41004 0.10721 -0.015444 0.018589 -0.023665 -0.03057 0.26768 -0.011334 
0.050979 0.75073 0.072353 0.079751 -0.018404 -0.18545 0.037497 -0.016924 
0.46481 0.89327 0.17166 0.15686 -0.035174 -0.30646 -0.19794 -0.18742 
0.38819 0.49029 0.21293 0.20421 -0.049807 -0.45673 -0.35841 -0.16259 
0.24844 0.30746 0.22805 0.256 -0.041751 -0.44078 -0.27094 -0.010512 
0.0093821 0.19221 0.19303 0.24926 0.026317 -0.21192 0.012506 0.22608 
-0.099295 0.067913 0.12266 0.20109 0.11362 0.12135 0.11625 -0.14369 
0.16969 0.28691 0.1128 0.17593 0.20964 0.52235 0.2782 -0.42286 
0.36123 0.43538 0.11296 0.16278 0.15867 0.55425 0.22526 -0.24793 
0.047033 0.29053 0.073504 0.11066 0.060022 0.256 -0.22409 0.15094 
-0.49619 -0.18446 -0.047998 0.026317 -0.012156 0.1003 -0.48698 0.86401 
-0.50589 -0.24776 -0.13563 -0.019226 0.062652 0.13171 -0.17624 1.372 
0.062159 0.012177 -0.044052 -0.0004827 0.021713 0.045553 -0.06707 0.49983 
0.69778 0.39099 0.016945 0.032729 -0.023501 -0.1256 -0.010348 -0.498 
0.80843 0.42634 0.017603 0.044567 -0.066577 -0.21619 0.24943 -0.54469 
0.55195 0.26357 0.064296 0.079916 -0.011334 -0.13086 0.33936 -0.24003 
0.19649 0.10852 0.087643 0.10178 0.042758 -0.121 0.17906 -0.078415 
-0.15783 -0.07825 0.12053 0.15012 0.090109 -0.13415 -0.00081153 -0.13284 
-0.43618 -0.24003 0.069722 0.1271 0.080573 -0.12116 -0.10521 -0.16588 
-0.73755 -0.74593 -0.098967 0.0087245 0.021878 -0.062138 -0.090581 -0.15306 
-0.62805 -0.97151 -0.18857 -0.091897 0.0032988 -0.023665 -0.032379 -0.052602 
-0.10423 -0.46331 -0.12198 -0.080059 -0.0034422 0.016452 -0.019884 -0.0082102 
0.15078 0.051143 0.004943 -0.0082102 0.038977 0.068242 0.029769 -0.011827 
0.074983 0.25321 0.051143 0.051308 0.042594 0.048348 0.050321 0.011848 
0.0421 0.24712 0.038483 0.096521 0.0019835 -0.016266 0.073832 0.078107 
0.073175 0.1909 0.04654 0.093069 -0.029255 -0.14977 0.0054362 0.068078 
0.11428 0.19172 0.08008 0.10951 -0.05326 -0.34098 -0.043559 0.050814 
0.14075 0.25189 0.08978 0.1248 0.015794 -0.24957 0.055747 0.097344 
0.16081 0.30418 0.10589 0.13828 0.17034 0.22707 0.19172 0.10918 
0.15768 0.31914 0.10704 0.13713 0.23167 0.57447 0.23397 0.14585 
0.0786 0.26192 0.041936 0.12316 0.19139 0.46777 0.1105 0.1641 
0.066598 0.19698 0.027961 0.091096 0.11773 0.40891 0.036839 0.17199 
0.070215 0.15735 0.01711 0.06742 -0.017088 0.25633 0.0062583 0.067913 
0.04095 0.11329 0.054925 0.082875 -0.1039 0.095042 0.097672 -0.053588 
-0.041093 0.041607 0.058213 0.090931 -0.070687 0.16706 0.094713 -0.12462 
-0.074304 -0.028269 0.069393 0.096028 0.044073 0.20619 -0.082032 -0.059507 
0.032236 -0.086307 0.063474 0.096521 0.11 -0.027447 -0.13021 0.084355 
0.15982 -0.078908 -0.0080457 0.077943 0.055747 -0.25565 0.11378 0.25189 
0.18152 -0.079566 0.0028056 0.053609 -0.0068948 -0.35397 0.18383 0.17281 
0.19418 0.01152 0.016616 0.056404 -0.058521 -0.34674 0.16903 0.159 
0.18728 0.12431 0.046868 0.074161 -0.068057 -0.16079 0.21013 0.1562 
0.037826 0.15193 0.088136 0.10211 -0.015116 0.11724 0.21523 0.24334 
-0.16079 0.11083 0.11576 0.13302 0.041772 0.24828 0.21671 0.057555 
-0.19893 0.1151 0.0592 0.14239 0.099481 0.2565 0.30039 -0.25483 
0.021384 0.095699 0.03388 0.10885 0.23759 0.53584 0.3678 -0.099624 
0.33821 0.005765 0.030263 0.087643 0.22493 0.45873 0.12184 0.05772 
0.39987 -0.15931 -0.0019624 0.053281 0.11198 0.14239 -0.1108 -0.088115 
0.11099 -0.51115 -0.11097 -0.036818 0.024179 -0.094692 -0.42796 -0.28804 
-0.35019 -0.83159 -0.23609 -0.14747 -0.11442 -0.32092 -0.83801 -0.30958 
-0.55554 -0.69151 -0.2157 -0.1524 -0.12774 -0.38422 -0.84442 -0.34756 
-0.35068 -0.017746 -0.003771 -0.021034 -0.060823 -0.29856 -0.55571 -0.30202 
0.05476 0.65668 0.22871 0.15834 0.020891 -0.20468 -0.27423 -0.13711 
0.29941 0.91004 0.33048 0.28971 0.061172 -0.056219 0.091753 -0.080881 
0.43193 0.6968 0.28642 0.29694 0.062981 0.075805 0.54537 0.10754 
0.37356 0.48585 0.18728 0.244 0.041772 0.13351 0.66161 0.293 
0.22756 0.25321 0.12825 0.20487 0.036346 0.14305 0.55639 0.57628 
0.076463 -0.031228 0.050814 0.15949 0.035195 0.17412 0.35449 0.50213 
-0.0067304 -0.25828 0.045224 0.11707 0.025166 0.22772 0.21753 0.20816 
0.013328 -0.29561 0.03536 0.10063 0.056898 0.27655 0.10474 0.24992 
0.017767 -0.33309 -0.010183 0.058706 0.04506 0.17462 -0.13514 0.050486 
-0.12544 -0.20255 -0.086964 -0.014787 -0.019226 -0.059836 -0.2767 -0.27752 
-0.29659 -0.032543 -0.12626 -0.069865 -0.037147 -0.16375 -0.12166 -0.44588 
-0.23346 0.18317 -0.1233 -0.059343 -0.061809 -0.1792 -0.024652 -0.54436 
0.074983 0.42321 -0.050793 -0.022843 -0.0057439 -0.11491 -0.14895 -0.22458 
0.2685 0.4653 0.051636 0.050979 0.072681 -0.030406 -0.11672 0.18432 
0.19155 0.26735 0.10491 0.1054 0.069722 -0.018075 -0.12988 0.29842 
0.05065 0.061008 0.05065 0.089945 0.012835 -0.084498 -0.22787 0.16344 
-0.023007 0.03947 0.075148 0.095535 -0.0004827 -0.088608 -0.14615 -0.080717 
0.11592 0.17906 0.13434 0.14239 -0.00097594 -0.023665 0.043416 -0.28689 
0.35202 0.42749 0.13236 0.19468 0.055254 0.060515 0.17248 -0.15618 
0.54471 0.53238 0.183 0.21654 0.095371 0.097837 0.27951 0.30385 
0.53962 0.40151 0.17939 0.21934 0.068571 -0.028269 0.18646 0.45379 
0.17511 -0.092719 0.060022 0.14108 0.021713 -0.19877 -0.076606 0.26768 
-0.59484 -0.83488 -0.10521 0.00066819 -0.092554 -0.26996 -0.24299 -0.30251 
-1.4417 -1.4889 -0.30235 -0.17591 -0.16358 -0.28081 -0.18676 -0.36367 
-1.2428 -1.2362 -0.34115 -0.21965 -0.12198 0.0047785 0.29744 0.32144 
-0.37058 -0.22129 -0.18463 -0.15816 0.037168 0.3318 0.44886 0.28724 
0.077778 0.41022 0.0085601 -0.01939 0.16574 0.46349 0.15505 -0.097651 
0.3854 0.62643 0.1664 0.12497 0.2172 0.34873 0.013821 0.069886 
0.55261 0.63827 0.22986 0.20503 0.16525 0.12184 -0.024487 0.13565 
0.41121 0.46991 0.16788 0.19435 0.055089 -0.1279 -0.006566 0.0070803 
0.1105 0.20569 0.1026 0.16344 -0.060987 -0.26239 0.096521 0.020727 
0.099481 0.27261 0.042594 0.12562 -0.072825 -0.27177 0.14831 0.28428 
0.42173 0.48569 0.058542 0.11148 -0.076113 -0.24924 0.17528 0.4117 
0.60719 0.53649 0.0786 0.12003 -0.089102 -0.17838 0.3022 0.26833 
0.46218 0.30631 0.039305 0.096686 -0.023665 -0.043724 0.33591 0.093398 
0.19912 -0.064604 0.03092 0.069393 0.0227 0.018096 0.18037 -0.018568 
-0.13859 -0.413 -0.065919 0.0092177 0.096686 0.19024 -0.027282 -0.10341 
-0.40001 -0.65797 -0.16654 -0.047012 0.12447 0.31042 -0.15602 -0.15322 
-0.5585 -0.67918 -0.21866 -0.13136 0.055747 0.18777 -0.13547 -0.082525 
-0.55932 -0.3857 -0.18331 -0.13514 -0.0067304 0.021056 -0.076442 -0.006566 
-0.30761 0.22904 -0.050464 -0.042079 0.017274 0.01974 0.032071 0.09126 
0.03947 0.57118 0.15785 0.1026 0.093726 0.057227 0.0786 0.2121 
0.20405 0.45149 0.19698 0.18761 0.11214 0.14963 0.15324 0.24137 
0.19057 0.18777 0.15686 0.20503 0.084355 0.062159 0.10425 0.17412 
0.12562 0.03536 0.09833 0.16558 -0.0083746 -0.012485 0.097015 -0.052766 
0.036839 -0.2037 0.05772 0.12332 -0.010019 -0.0029489 0.11806 -0.086307 
0.029769 -0.29084 0.012342 0.078107 -0.0024557 0.069064 0.16442 0.051636 
0.10819 -0.090253 0.0037921 0.062323 0.035688 0.12299 0.25699 0.19764 
0.13088 -0.017911 0.012999 0.047197 0.041772 0.1008 0.23775 0.11329 
0.036182 -0.092061 -0.02794 0.037168 0.042758 0.060515 0.088136 -0.030899 
-0.060329 -0.031064 -0.018075 0.061008 0.012999 0.0075736 -0.03764 -0.038956 
-0.013636 0.13647 0.039305 0.077285 0.029934 -0.034681 -0.1011 0.11066 
0.079094 0.32588 0.11362 0.1294 0.035524 0.01826 -0.089266 0.23331 
0.14979 0.37126 0.092904 0.12464 0.053938 0.053445 -0.031886 0.11231 
0.12858 0.17544 -0.016431 0.053116 0.035524 0.042429 0.020069 -0.17887 
0.15785 -0.06855 -0.065262 -0.0062372 -0.0019624 0.012506 0.038648 -0.29002 
0.13762 -0.21373 -0.062138 0.004943 0.036182 0.062652 0.038155 -0.14352 
0.03799 -0.279 -0.017417 0.021056 0.071695 0.13976 -0.012156 -0.067892 
-0.032543 -0.3446 -0.010348 0.026481 0.081395 0.092411 -0.12938 0.024837 
-0.079566 -0.23116 0.027303 0.050321 0.050486 -0.0078813 -0.11015 0.099481 
-0.034681 0.083862 0.098823 0.095535 0.04506 -0.061316 -0.0013048 0.081067 
0.023522 0.2662 0.13023 0.12858 0.011191 -0.13875 -0.11146 0.049828 
0.051965 0.28543 0.13401 0.15094 -0.042737 -0.17723 -0.47761 -0.041093 
0.080244 0.42798 0.16656 0.20734 -0.032872 -0.077593 -0.34608 -0.062467 
0.14453 0.63465 0.27951 0.28264 0.067749 0.11855 0.3216 0.065118 
0.42584 0.70732 0.29217 0.31733 0.12497 0.25485 0.71636 0.23381 
0.55672 0.40315 0.15735 0.24088 0.092082 0.20684 0.48339 0.048184 
0.28379 -0.041093 -0.0064016 0.10195 0.050321 0.17166 0.083697 -0.24562 
-0.012156 -0.31813 -0.1478 -0.039449 0.059035 0.26751 -0.11985 -0.19646 
-0.23872 -0.4615 -0.28344 -0.13826 0.014643 0.17182 -0.27325 0.034373 
-0.3132 -0.28015 -0.29445 -0.20403 -0.024158 -0.12067 -0.33967 0.18958 
-0.1284 0.24005 -0.11886 -0.11935 -0.034188 -0.24529 -0.23938 -0.032872 
0.044402 0.36402 0.0051074 -0.01676 -0.021528 -0.1473 -0.08828 -0.16342 
0.013328 0.022864 0.071037 0.045882 0.030263 0.039963 0.024015 -0.070359 
-0.16095 -0.22951 0.10277 0.094548 0.046704 0.049992 0.0018191 -0.11146 
-0.26239 -0.12034 0.094384 0.14108 0.02681 -0.0771 -0.15207 0.085506 
-0.1843 -0.033365 0.080409 0.13138 0.0056006 -0.13448 -0.22129 0.27146 
0.047362 -0.079401 0.05213 0.10935 0.0069159 -0.05326 -0.059507 0.19303 
0.15193 -0.05589 0.071366 0.11444 0.036182 0.012506 -0.024323 0.026646 
0.097508 0.031414 0.12332 0.14601 0.05476 0.070708 0.011191 -0.030077 
0.14568 0.0056006 0.13335 0.13845 0.040128 0.12776 0.081724 0.00083261 
0.34364 -0.03912 0.046046 0.10721 0.066105 0.19665 0.28839 -0.12478 
0.34544 -0.11048 -0.041093 0.072024 0.096521 0.17265 0.47171 0.059528 
0.20684 0.023028 0.014972 0.067256 0.045553 0.096357 0.40398 0.22641 
0.085177 0.25041 0.088465 0.1077 0.029276 0.0041209 0.15982 -0.11459 
0.035031 0.36172 0.071202 0.10984 0.036346 -0.024652 -0.10604 -0.15996 
0.012835 0.3512 0.047691 0.10803 0.041936 -0.067728 -0.32849 0.21375 
-0.030077 0.24515 0.051965 0.081395 -0.020541 -0.1085 -0.40116 0.027139 
-0.33441 0.0090533 -0.019555 0.066105 -0.085813 -0.1062 -0.37288 -0.43749 
-0.34592 -0.058192 -0.040435 0.029769 -0.042737 0.042265 -0.095021 0.11231 
-0.023829 0.16673 -0.020377 0.03536 0.03536 0.13779 0.22016 0.64468 
0.22016 0.25502 -0.010348 0.031742 0.060844 0.094713 0.21178 0.36435 
0.16558 0.0227 -0.038956 0.014972 0.052459 0.022206 0.031249 -0.12281 
0.033715 -0.083512 -0.012485 0.02681 0.028947 -0.016924 -0.028597 -0.21751 
0.031085 0.10507 0.073668 0.083204 0.012013 -0.035832 -0.03912 -0.090253 
0.099974 0.30056 0.13434 0.17084 0.06035 -0.0088678 -0.025145 0.061172 
0.15587 0.3267 0.18728 0.21046 0.094384 0.046868 0.10359 0.11 
0.064296 0.086492 0.12908 0.18596 0.087479 0.085177 0.12316 0.1562 
-0.060494 -0.29889 0.032729 0.11148 0.058049 0.056076 0.13203 0.12299 
-0.037476 -0.48863 -0.041586 0.03947 0.0324 0.048513 0.15686 -0.043395 
-0.075455 -0.75415 -0.11903 -0.043066 0.021384 0.045718 0.046704 -0.26585 
-0.13974 -0.80578 -0.18742 -0.083512 -0.00031829 -0.0034422 -0.15651 -0.28245 
-0.20222 -0.56689 -0.22326 -0.14484 -0.03616 -0.07562 -0.27177 -0.21241 
-0.26897 -0.23 -0.19794 -0.15158 -0.087786 -0.11722 -0.22441 -0.1746 
-0.24875 0.057062 -0.085156 -0.076935 -0.094692 -0.090746 0.11888 0.21934 
-0.20403 0.21523 0.072188 0.037332 -0.07825 -0.11163 0.293 0.45544 
-0.14122 0.44228 0.18514 0.14535 -0.061809 -0.32191 0.13812 0.24466 
0.13598 0.63235 0.26044 0.24482 -0.039942 -0.32487 -0.023501 0.023522 
0.48306 0.68266 0.26143 0.29168 0.045718 -0.021856 0.090603 0.1664 
0.52778 0.54965 0.2098 0.2662 0.099481 0.15144 0.17741 0.38688 
0.50575 0.38408 0.13351 0.20421 0.079751 0.11937 0.12447 0.38573 
0.41022 0.26636 0.089945 0.15999 0.11017 0.22608 0.097015 0.13828 
0.025495 -0.11639 0.0095465 0.085177 0.16081 0.36961 0.058049 -0.4102 
-0.40313 -0.33276 -0.03912 0.026974 0.18185 0.40102 0.077121 -0.84984 
-0.41711 -0.15552 -0.048492 0.03388 0.13516 0.34265 0.11642 -0.5003 
-0.39951 -0.087786 -0.026953 0.021549 0.0062583 0.13384 0.10113 -0.0070593 
-0.31369 -0.12626 0.00050378 0.03536 -0.045203 -0.07825 0.0056006 0.21128 
0.012342 0.021549 0.034209 0.058871 -0.030077 -0.13086 -0.011992 0.20339 
0.21391 0.17626 0.065776 0.083533 -0.01232 -0.11327 0.029276 0.13845 
0.34364 0.18942 0.094384 0.09685 -0.014787 -0.092554 0.08156 0.12644 
0.32687 0.18859 0.10129 0.14371 -0.0036066 -0.071509 0.10293 0.15735 
0.18958 0.14206 0.078272 0.13483 -0.023829 -0.094856 0.11346 0.16196 
0.053116 -0.015116 0.025988 0.097508 -0.027611 -0.057863 0.15472 0.13697 
-0.014951 -0.16407 -0.037311 0.043416 0.017438 0.016616 0.17084 0.11198 
-0.055726 -0.1062 -0.0868 -0.001798 0.049828 0.11346 0.11148 0.11214 
-0.022514 0.091425 -0.048985 -0.014293 0.062488 0.082546 0.050486 0.15078 
0.093398 0.043416 -0.049478 -0.015444 0.042758 0.090438 0.048677 0.12694 
0.10721 -0.057205 -0.058521 0.015794 0.058377 0.13713 0.057227 0.041936 
-0.0077169 0.02681 0.033222 0.054925 0.076627 0.17199 0.033715 -0.16884 
0.01267 0.2389 0.15144 0.14305 0.072846 0.10754 0.0080668 -0.37288 
0.12644 0.35679 0.17692 0.19221 0.06479 0.060844 -0.024487 -0.28722 
0.21638 0.40019 0.16294 0.19205 0.04654 0.027961 0.057884 -0.012978 
0.19796 0.4122 0.17166 0.18251 0.022042 -0.018239 0.049335 0.23151 
0.0074092 0.25436 0.098001 0.17577 0.024673 -0.035996 0.0085601 0.23923 
-0.25204 -0.029091 0.028947 0.11148 0.066927 -0.0026201 0.018918 0.11296 
-0.29709 -0.24036 -0.034352 0.045389 0.044238 -0.024158 0.0085601 0.016616 
-0.076277 -0.19531 -0.041422 0.014808 0.024015 -0.10784 -0.0055795 0.0092177 
0.2588 -0.050958 0.0011614 0.026646 -0.0091966 -0.1473 0.036182 -0.010512 
0.43373 0.17856 0.060515 0.063803 0.015465 -0.050464 0.0013258 0.13779 
0.329 0.37948 0.096028 0.11378 -0.0026201 -0.0054151 -0.14287 0.26126 
0.11839 0.36468 0.06479 0.12562 0.0075736 0.065283 -0.068714 0.19073 
0.082217 0.21293 0.046375 0.10228 0.054432 0.29185 0.23545 0.062652 
0.15242 0.067585 0.011355 0.073832 0.078436 0.41302 0.42371 0.1225 
0.13598 -0.028433 0.016616 0.067256 0.13762 0.402 0.25765 0.12579 
0.0036276 -0.13875 0.024673 0.056404 0.11855 0.20438 -0.13234 -0.2328 
-0.11557 -0.19564 0.044238 0.066105 0.049335 0.012835 -0.32832 -0.29396 
-0.079566 -0.095349 0.038483 0.089616 0.020398 -0.058356 -0.26749 -0.12659 
-0.050958 0.025001 0.034537 0.082053 0.010369 -0.14895 -0.22606 -0.15454 
-0.066741 0.1544 0.043416 0.08567 -0.045368 -0.11607 -0.05737 -0.084169 
0.063474 0.32292 0.093726 0.11987 0.029441 0.14354 -0.055726 0.19353 
0.24417 0.47911 0.16196 0.15883 0.084026 0.22131 0.0028056 0.4025 
0.24581 0.45626 0.19369 0.19221 0.10951 0.159 0.29727 0.52679 
0.24926 0.2999 0.14601 0.18596 0.070708 0.027961 0.53929 0.39904 
0.17511 0.037826 0.032729 0.1151 0.0075736 -0.052109 0.52877 0.097015 
0.017932 -0.25516 -0.072332 0.022371 -0.04471 -0.14533 0.34347 -0.14829 
-0.13053 -0.49964 -0.15552 -0.060494 -0.045696 -0.16769 0.085012 -0.27127 
-0.22655 -0.51378 -0.16539 -0.095349 -0.031228 -0.16506 -0.0868 -0.31073 
-0.32569 -0.45673 -0.13645 -0.10423 -0.042737 -0.16851 -0.21011 -0.39294 
-0.26913 -0.56048 -0.12626 -0.096172 -0.022021 -0.093705 -0.25121 -0.31435 
-0.14582 -0.58497 -0.1649 -0.078908 -0.0068948 0.076463 -0.26338 0.046704 
0.12908 -0.22047 -0.10784 -0.067399 0.024508 0.20914 -0.35825 0.59963 
0.45955 0.35071 0.026974 0.024837 0.034866 0.20175 -0.38488 0.7578 
0.50032 0.77341 0.19106 0.15275 0.020069 0.066927 -0.24727 0.2246 
0.2537 0.77489 0.24548 0.22164 0.031578 -0.085813 -0.37107 -0.23543 
-0.074633 0.22509 0.16853 0.19369 0.011191 -0.13875 -0.48304 -0.58251 
-0.57231 -0.58382 -0.0059084 0.11247 -0.0082102 -0.18035 -0.27012 -0.57692 
-0.70927 -0.78687 -0.076113 0.025495 -0.0042642 -0.20682 0.0070803 0.39345 
-0.25006 -0.31977 -0.021528 0.029441 -0.0022913 -0.1843 0.29727 0.88045 
0.23381 0.28264 0.072846 0.079751 0.040128 -0.12659 0.41992 0.44459 
0.43752 0.52762 0.15834 0.15407 0.096686 0.0786 0.49736 -0.23724 
0.38211 0.49868 0.19418 0.18662 0.065283 0.19829 0.42469 -0.58004 
0.17281 0.34775 0.15193 0.18843 0.032236 0.22772 0.26521 -0.41037 
0.011355 0.022371 0.087314 0.17265 0.019247 0.23068 0.10787 -0.25138 
-0.1404 -0.26848 -0.032543 0.071859 0.010369 0.12579 -0.006566 -0.15717 
-0.31172 -0.4513 -0.12905 -0.032215 0.0039565 -0.06707 -0.16095 0.10688 
-0.32421 -0.39014 -0.15289 -0.078579 0.051308 -0.03912 -0.35775 0.20783 
-0.18611 -0.28245 -0.11409 -0.077428 0.11296 0.20914 -0.18479 0.28971 
0.059035 -0.09091 -0.042408 -0.040435 0.10145 0.1733 -0.045861 0.27425 
0.2805 0.14026 -0.021692 0.01974 0.034044 -0.022843 -0.028433 0.048841 
0.27392 0.24318 0.022206 0.047033 -0.012814 -0.15848 -0.062302 -0.22622 
0.28067 0.27869 0.066598 0.085012 -0.024323 -0.25417 -0.12412 -0.28722 
0.25107 0.27195 0.097015 0.11263 -0.047505 -0.15125 -0.10439 -0.28969 
0.093233 0.090767 0.070873 0.10277 -0.046025 0.063968 -0.15799 -0.29396 
-0.24612 -0.078579 -0.010348 0.051308 -0.092719 -0.012814 -0.075127 0.023357 
-0.69184 -0.23921 -0.076277 0.00297 -0.13284 -0.28147 0.11132 0.15489 
-0.66143 -0.023007 -0.026624 0.018918 -0.06148 -0.33309 0.091589 0.17528 
-0.24168 0.34955 0.11198 0.10885 0.025659 -0.23181 0.038812 0.45116 
0.15078 0.27376 0.15834 0.16656 0.077285 -0.089759 -0.037311 0.36452 
0.24943 -0.1478 0.073175 0.13532 0.099645 0.046046 -0.0095255 -0.10801 
0.28379 -0.28722 -0.023501 0.049664 0.086657 0.094713 0.11543 -0.40675 
0.27064 -0.075127 -0.059343 -0.00031829 0.045882 0.042758 0.11724 -0.23707 
0.19237 0.2925 -0.031886 0.039634 0.031578 0.049335 0.0592 0.062981 
0.09833 0.48783 0.0786 0.095535 0.047362 0.075148 0.056076 0.14223 
0.048677 0.37964 0.083533 0.11526 0.065612 0.062159 0.0011614 -0.0039354 
0.034373 -0.19022 -0.011663 0.060679 0.07449 0.082875 -0.060987 -0.062631 
-0.13119 -0.72801 -0.10193 -0.020706 0.10737 0.14239 -0.11541 -0.048985 
-0.19794 -0.55768 -0.067564 -0.036983 0.094384 0.13631 -0.095021 0.0064227 
-0.069043 0.0095465 -0.0073881 0.023686 0.019576 0.10951 0.13532 0.072353 
0.0090533 0.32456 0.01152 0.0421 -0.061151 0.069558 0.31634 0.086985 
0.024673 0.39674 0.029605 0.063145 -0.077428 0.023522 0.27754 0.13088 
0.16426 0.54504 0.067091 0.094384 -0.018239 0.065447 0.2736 0.13664 
0.23003 0.51676 0.11099 0.13927 0.076792 0.13664 0.39641 0.1613 
0.10918 0.33805 0.13615 0.14864 0.072846 0.058871 0.44015 0.1664 
0.066105 0.16048 0.088958 0.12727 0.048019 -0.1233 0.37898 0.28034 
0.11905 0.10326 0.055418 0.1322 0.009711 -0.11278 0.24811 0.22526 
0.14864 0.069722 0.030756 0.10408 0.00066819 0.015465 0.16722 0.056569 
0.1391 0.056569 0.043251 0.093069 0.060515 0.081889 0.097508 0.0044497 
0.14617 0.14881 0.059528 0.09981 0.11 0.0689 -0.073811 0.040785 
0.048184 0.12644 0.068736 0.1008 0.078765 0.0065871 -0.18167 0.13861 
0.027139 0.0028056 0.057391 0.087643 0.046046 0.073997 0.050321 0.4773 
0.093891 -0.058356 0.040128 0.10754 0.10852 0.31897 0.36879 0.54126 
0.22871 0.023851 0.09685 0.12908 0.093891 0.42814 0.30368 0.21293 
0.28741 0.1664 0.12118 0.14979 0.051965 0.21342 0.07301 -0.13908 
0.20832 0.30911 0.10524 0.14716 0.084519 0.12151 -0.06148 -0.29972 
0.21079 0.48832 0.073832 0.12036 0.087808 0.19616 -0.15388 -0.16588 
0.24269 0.38589 0.025495 0.072517 0.02122 0.079258 -0.32997 0.050157 
0.033387 0.034866 -0.073482 0.025001 -0.05885 -0.028433 -0.39705 0.085999 
-0.33342 -0.47071 -0.18348 -0.071016 -0.06707 -0.14007 -0.32504 -0.071674 
-0.52776 -0.69776 -0.15224 -0.089595 -0.02498 -0.20584 -0.17443 -0.23231 
-0.30876 -0.46561 -0.030899 -0.023007 -0.00031829 -0.1866 -0.034352 -0.23181 
-0.0057439 -0.074469 0.10524 0.084355 0.038155 -0.10225 0.022535 -0.28574 
0.14453 0.076134 0.13138 0.1322 0.020398 -0.045368 0.088301 -0.15733 
0.31536 0.069722 0.11444 0.14075 0.00297 -0.033037 0.1835 0.1756 
0.40546 0.0019835 0.074654 0.15768 0.0034632 -0.036325 0.24236 0.57431 
0.35103 0.018096 0.040456 0.11346 0.020069 0.042758 0.34331 0.7139 
0.27442 0.28428 0.056404 0.10392 0.024673 0.11461 0.32621 0.43489 
0.090931 0.52071 0.08419 0.12085 0.044567 0.10688 0.19254 -0.10965 
-0.0503 0.56905 0.11428 0.1419 0.072846 0.10228 -0.028597 -0.38965 
0.099645 0.63892 0.19632 0.18974 0.07597 0.16886 -0.071016 -0.080717 
0.38244 0.67411 0.24893 0.27672 0.1391 0.28099 0.042758 0.28198 
0.42831 0.51084 0.2218 0.26965 0.15916 0.25666 -0.096665 0.13532 
0.2736 0.26603 0.12743 0.20306 0.089452 0.058706 -0.25697 -0.053424 
0.045718 0.083862 0.074326 0.14453 0.010369 -0.035338 -0.14319 -0.10308 
-0.33983 -0.4222 -0.041093 0.051143 -0.029748 -0.054082 -0.0040998 -0.1838 
-0.61934 -1.0113 -0.18315 -0.082196 -0.03353 -0.045696 -0.02235 -0.17887 
-0.69151 -1.3896 -0.32076 -0.21175 -0.061316 -0.11689 -0.17591 -0.23083 
-0.55834 -1.2074 -0.39623 -0.26486 -0.10061 -0.21586 -0.48057 -0.30481 
-0.21438 -0.47662 -0.20797 -0.19466 -0.056712 -0.14369 -0.38209 -0.15388 
0.042265 0.18826 -0.021034 -0.051944 0.03799 0.0046141 -0.0042642 0.014315 
0.15078 0.44524 0.12776 0.082217 0.051965 -0.038956 0.098988 -0.049478 
0.25271 0.54702 0.16886 0.15752 0.032729 -0.13432 0.08008 -0.17164 
0.22756 0.51693 0.25452 0.22657 0.021384 -0.094692 0.051636 -0.54387 
0.22065 0.5314 0.24071 0.27902 0.044567 1.0539e-005 -0.0059084 -0.39162 
0.23298 0.47566 0.25929 0.29086 -0.0004827 -0.039284 -0.014129 0.27228 
0.16278 0.48865 0.15982 0.23414 -0.00015387 -0.012814 0.051472 0.45363 
0.0092177 0.35564 0.066269 0.15686 0.023193 0.14042 -0.02942 0.44689 
-0.029748 0.073668 -0.033365 0.059035 0.092247 0.29217 -0.081374 0.50443 
-0.040271 -0.16901 -0.064604 0.0034632 0.069886 0.31651 0.035195 0.12809 
-0.15076 -0.28163 -0.10028 -0.027282 -0.034023 0.020727 -0.017417 -0.52135 
-0.38242 -0.43815 -0.16966 -0.077922 -0.13021 -0.23477 -0.1016 -0.67688 
-0.37929 -0.36762 -0.11968 -0.071674 -0.051615 -0.1695 0.029934 -0.096994 
-0.017253 -0.12018 0.012177 0.0093821 0.057391 -0.063618 0.32621 0.5508 
0.12168 -0.01232 0.077285 0.080573 0.10885 0.060844 0.61788 0.32423 
-0.094527 -0.13086 0.074654 0.090274 0.15061 0.22279 0.50114 -0.047505 
-0.14681 -0.31007 0.014972 0.061337 0.099152 0.16541 0.11625 0.048348 
0.046704 -0.17147 -0.040928 0.04506 0.020891 0.035853 -0.21702 0.31897 
0.18728 0.069558 -0.018897 0.028619 -0.057699 -0.11952 -0.25746 0.49786 
0.27047 0.25156 -0.0073881 0.032236 -0.12133 -0.14303 0.01974 0.4214 
0.27392 0.27721 -0.012649 0.031085 -0.091732 0.12842 0.27031 0.15933 
0.17429 0.43998 0.022535 0.046704 0.028947 0.2828 0.24367 -0.12001 
0.096521 0.75927 0.11757 0.10852 0.14634 0.21375 0.080573 -0.16407 
0.0592 0.84181 0.18004 0.1927 0.17824 0.074819 -0.054246 -0.083018 
0.090767 0.63218 0.19862 0.22575 0.1391 -0.0011404 0.0028056 -0.0014692 
-0.045696 0.18958 0.15999 0.2075 0.042758 -0.055397 0.099645 -0.15618 
-0.16029 -0.24069 0.061501 0.13861 0.00033937 -0.045368 0.13565 -0.11722 
-0.15174 -0.6292 -0.070523 0.037168 0.028454 0.042429 0.13647 0.061008 
-0.13826 -0.93386 -0.1427 -0.055561 0.020069 0.086163 0.096521 0.16574 
-0.20041 -1.1152 -0.20945 -0.14369 -0.010512 0.030098 0.047526 0.1276 
-0.35529 -1.2573 -0.3349 -0.2032 -0.059343 -0.030735 0.0070803 0.05213 
-0.46676 -1.0072 -0.31517 -0.24283 -0.054246 -0.046683 -0.020541 0.0014903 
-0.34937 -0.32175 -0.14566 -0.14878 -0.038627 -0.017088 -0.024816 0.037332 
-0.023172 0.512 0.071695 0.022371 0.033551 0.011026 0.06479 0.12168 
0.33377 1.0782 0.28609 0.20767 0.081067 0.080738 0.14848 0.19435 
0.63646 1.3334 0.40052 0.34166 0.13417 0.10918 0.17676 0.27277 
0.77144 1.2935 0.37668 0.39789 0.10293 0.11 0.17478 0.32851 
0.74941 0.99768 0.28543 0.35186 0.090931 0.13384 0.12381 0.28083 
0.51512 0.48421 0.15637 0.25518 0.058213 0.12414 0.050979 0.14782 
0.20783 -0.024158 0.015959 0.13203 0.024179 0.10343 -0.044052 -0.013636 
-0.038791 -0.29939 -0.052931 0.050486 0.080738 0.16311 -0.044217 -0.042408 
-0.26108 -0.49734 -0.1159 -0.034188 0.085341 0.13762 -0.016431 0.18547 
-0.38291 -0.41974 -0.13514 -0.07266 0.067585 0.10869 0.024344 0.37191 
-0.27061 -0.12544 -0.021692 0.010697 0.033387 0.097508 0.11313 0.31075 
-0.001798 0.10014 0.11066 0.10228 0.033222 0.10376 0.1909 0.17034 
0.19961 0.14519 0.12431 0.14042 0.014315 0.061501 0.19451 -0.0029489 
0.1909 0.068571 0.092904 0.13762 -0.0011404 0.10211 0.12809 -0.15684 
-0.023336 -0.21307 0.016452 0.089123 -0.017253 0.071366 -0.047176 -0.58662 
-0.21126 -0.41316 -0.01939 0.042265 0.028783 0.020398 -0.21767 -0.64811 
-0.064275 -0.32635 -0.074469 0.019083 0.0019835 -0.14911 -0.24513 -0.034188 
0.068242 0.034702 -0.14303 -0.051451 -0.072167 -0.38242 -0.13547 0.3073 
0.10704 0.32982 -0.089924 -0.045861 -0.047012 -0.4444 -0.13596 0.11066 
0.076463 0.28839 0.030098 0.031085 -0.02794 -0.35299 -0.41957 -0.12889 
0.16607 0.18004 0.13467 0.11987 0.040621 -0.098802 -0.36515 -0.10538 
0.19369 0.097015 0.16245 0.16344 0.073339 0.11 -0.15059 -0.025967 
0.17774 0.029112 0.08419 0.15423 0.013821 0.048841 -0.11113 -0.1838 
0.099974 -0.0036066 -0.0021268 0.091589 -0.034023 -0.082361 -0.08532 -0.3885 
0.012835 -0.021692 -0.017746 0.051308 -0.026296 -0.17295 -0.15914 -0.5174 
-0.051122 0.013821 -0.0054151 0.053116 -0.017911 -0.13103 -0.21685 -0.16144 
-0.0034422 0.090274 0.061008 0.087479 0.06183 -0.027775 0.0072447 0.43653 
0.099481 0.18876 0.11066 0.13105 0.077614 0.05065 0.26291 0.39099 
0.14404 0.15999 0.094548 0.12842 0.05213 0.069722 0.25946 0.020233 
0.17051 0.13434 0.076299 0.15078 0.052787 0.086657 0.10688 -0.017582 
0.10754 0.13598 0.087643 0.13795 0.039141 0.030756 0.017438 0.093069 
0.019576 0.24515 0.086328 0.13253 0.0021479 -0.034023 -0.008539 0.069393 
-0.049149 0.31585 0.090603 0.13088 -0.0060728 -0.041093 -0.031721 0.0062583 
-0.10735 0.1687 0.089616 0.12579 0.024015 0.05213 -0.072989 -0.041751 
0.0080668 0.15867 0.13746 0.1516 0.08304 0.078765 -0.044381 -0.045861 
0.22559 0.19385 0.12431 0.17067 0.12529 0.098823 0.01711 -0.24447 
0.25946 0.062488 0.039305 0.11526 0.10589 0.013821 0.027796 -0.49323 
0.057062 -0.096829 -0.044381 0.038812 -0.050793 -0.16884 -0.063289 -0.55669 
-0.1598 -0.13103 -0.10324 -0.025309 -0.12182 -0.17969 -0.19383 -0.042901 
-0.33753 -0.19219 -0.10324 -0.047669 -0.099953 -0.1575 -0.33523 0.80991 
-0.36269 -0.29445 -0.081539 -0.041093 -0.031228 -0.17789 -0.072003 1.0388 
-0.16999 -0.37074 -0.063618 -0.026953 0.010697 0.018425 0.5577 0.37882 
-0.064604 -0.39129 -0.11278 -0.017582 0.018096 0.18202 0.57135 -0.267 
0.012999 -0.05178 -0.014129 0.011848 0.013821 0.036017 -0.066906 -0.27538 
0.12891 0.40776 0.12283 0.10902 -0.0013048 -0.182 -0.53927 -0.2203 
0.15472 0.621 0.2001 0.18942 0.033222 -0.19087 -0.42845 -0.25417 
0.19057 0.61196 0.25206 0.24795 0.11411 0.049499 -0.083512 -0.11705 
0.33953 0.55474 0.2463 0.26422 0.15472 0.26143 0.28921 0.18218 
0.48668 0.43949 0.1636 0.25058 0.13236 0.3678 0.53173 0.38162 
0.29974 0.27031 0.017932 0.12644 0.045718 0.1978 0.42387 0.11642 
0.1003 -0.027282 -0.14254 -0.013471 -0.057534 -0.024652 0.13845 -0.29528 
-0.11656 -0.34526 -0.12281 -0.053753 -0.0034422 -0.12494 -0.12708 -0.19104 
-0.45788 -0.59155 -0.060987 -0.02942 -0.022185 -0.10883 -0.22293 -0.14763 
-0.60552 -0.44752 0.025659 0.026646 0.0069159 -0.058192 -0.067564 -0.20929 
-0.46314 -0.18841 0.016288 0.052623 0.022042 0.029276 0.056404 -0.070359 
-0.18084 -0.18989 -0.06296 0.015301 0.030427 0.035688 -0.018239 0.2491 
-0.012485 -0.22195 -0.1085 -0.032872 0.020069 0.10293 0.14848 0.65948 
0.057884 -0.16029 -0.11705 -0.058028 0.037497 0.17018 0.44212 0.62446 
0.049992 -0.060823 -0.094363 -0.065591 0.037826 0.15357 0.44771 0.30237 
0.12694 0.19599 0.030263 0.012342 0.039799 0.13368 0.26176 -0.157 
0.17248 0.29941 0.17347 0.13253 0.062652 0.11592 0.049828 -0.37699 
0.30451 0.35416 0.18284 0.21638 0.090603 0.095535 -0.0036066 -0.12626 
0.42255 0.38836 0.17297 0.21243 0.10984 0.052294 0.085835 0.22378 
0.34281 0.39296 0.15094 0.20372 0.073832 0.085999 0.22197 0.33805 
0.16229 0.40332 0.14585 0.18563 0.10721 0.20257 0.28165 0.24778 
-0.036489 0.25189 0.10672 0.15768 0.076956 0.17774 0.13203 0.075476 
-0.20403 -0.015444 0.031907 0.10408 0.031742 0.039305 -0.14385 -0.067892 
-0.21702 -0.17854 -0.054246 0.046704 0.0065871 -0.025967 -0.10817 0.056076 
-0.12626 -0.21718 -0.071674 0.0070803 0.030592 0.11247 0.25633 0.2024 
-0.053917 -0.29741 -0.070852 -0.0075525 0.08008 0.23923 0.33624 0.11263 
-0.087129 -0.37156 -0.028926 0.0051074 0.11691 0.32785 0.2828 -0.082525 
-0.25384 -0.60289 -0.099131 -0.037147 0.062652 0.24992 0.10507 -0.1838 
-0.44391 -0.89654 -0.21981 -0.13547 -0.015444 0.11066 -0.020377 -0.23198 
-0.40363 -0.58136 -0.16144 -0.12166 -0.0138 -0.018075 -0.036818 -0.034023 
-0.14747 0.0062583 -0.026296 -0.0055795 0.00050378 -0.041751 -0.036983 0.27409 
0.12825 0.39625 0.063474 0.064954 0.0044497 0.026481 -0.0138 0.32522 
0.35482 0.42617 0.084355 0.098166 0.0032988 0.047691 -0.02646 0.035524 
0.48339 0.32374 0.064625 0.099481 0.0039565 0.004943 0.049992 -0.0052507 
0.38441 0.28428 0.060679 0.088136 -0.018404 -0.058028 0.034044 0.015137 
0.18678 0.39164 0.10096 0.11559 -0.00064712 -0.1473 -0.17789 -0.11919 
0.025988 0.38622 0.10655 0.14864 0.020891 -0.098309 -0.26913 -0.10078 
0.033222 0.40841 0.14897 0.17593 0.0421 -0.053095 -0.20271 0.13434 
0.2394 0.536 0.17856 0.20569 0.060186 -0.059014 -0.14434 0.24943 
0.35531 0.47007 0.18185 0.21408 0.066927 -0.097158 -0.13793 0.14716 
0.21934 0.070051 0.13532 0.19254 0.069229 -0.083018 -0.14188 0.10408 
0.068407 -0.29281 0.07597 0.1299 0.031085 -0.062796 -0.046519 0.028454 
-0.22557 -0.45032 -0.048327 0.038319 0.010369 0.011026 0.1391 -0.34444 
-0.41365 -0.44621 -0.18134 -0.048656 -0.013965 0.10573 0.24795 -0.92251 
-0.13021 -0.23921 -0.13678 -0.071016 0.058213 0.27919 0.28576 -1.0164 
0.095206 0.068078 -0.0019624 -0.0021268 0.13631 0.41828 0.05213 -0.011334 
0.21408 0.43702 0.1077 0.089945 0.14371 0.42962 0.052294 1.2713 
0.12217 0.41137 0.058049 0.086657 0.084848 0.24778 0.23529 1.4633 
0.036182 0.18218 0.030263 0.063474 0.036839 0.02533 0.36221 0.50262 
0.17495 0.08008 0.072846 0.12135 -0.00081153 -0.02942 0.26735 -0.093705 
0.37701 0.17971 0.14289 0.16393 0.011026 -0.071016 0.010697 0.0016547 
0.50312 0.28478 0.1613 0.18843 0.035195 -0.10686 -0.063946 0.20142 
0.29908 -0.05885 0.10047 0.15752 0.016288 -0.11327 -0.17147 0.12595 
-0.15618 -0.45361 0.0324 0.092082 0.017767 -0.059343 -0.255 -0.18282 
-0.52578 -0.57215 -0.064933 0.0070803 -0.009361 -0.067728 -0.29215 -0.46955 
-0.57889 -0.25368 -0.15585 -0.053095 -0.036325 -0.10686 -0.28689 -0.41037 
-0.58333 0.08978 -0.1838 -0.1062 -0.03205 -0.13777 -0.18611 -0.23263 
-0.38422 0.25387 -0.073647 -0.056219 -0.048163 -0.072167 -0.044546 -0.052273 
-0.12248 0.34281 0.092247 0.064954 -0.042901 0.0072447 0.043909 -0.042408 
0.24186 0.44524 0.17215 0.15571 -0.009361 0.085341 0.072188 0.05065 
0.64846 0.37339 0.13713 0.15193 0.018425 0.039634 0.033715 0.08863 
0.89475 0.19402 0.11444 0.1465 0.009711 -0.093376 -0.28508 0.053281 
0.73494 0.08863 0.043416 0.12628 -0.022843 -0.24316 -0.49438 -0.02646 
0.31552 -0.1011 -0.040435 0.046704 -0.059836 -0.29577 -0.40741 0.060186 
0.022206 0.081724 -0.048163 0.016616 -0.013965 -0.19235 -0.010676 0.04358 
-0.078086 0.43932 0.05213 0.069229 0.06742 0.047033 0.33985 -0.27785 
-0.22277 0.378 0.17593 0.15867 0.12201 0.18087 0.39247 -0.37567 
-0.44391 -0.012978 0.23134 0.22065 0.15719 0.23348 0.44475 -0.08269 
-0.30498 -0.26124 0.20175 0.2491 0.15538 0.2394 0.48224 0.50657 
-0.065755 -0.28311 0.10819 0.18662 0.13664 0.20684 0.46875 0.97729 
0.0080668 -0.33079 -0.075949 0.045882 0.025001 0.0421 0.15538 0.71998 
0.040128 -0.30251 -0.20814 -0.089102 -0.10341 -0.17641 -0.33194 -0.28278 
0.15571 -0.14993 -0.19778 -0.12922 -0.10752 -0.26354 -0.53532 -0.76451 
0.10063 -0.087622 -0.10669 -0.095843 -0.031064 -0.18019 -0.44506 -0.50046 
-0.19383 -0.20666 -0.10012 -0.07266 -0.052109 -0.14352 -0.079401 -0.18528 
-0.19729 -0.056877 -0.075455 -0.021692 -0.066741 -0.11376 0.22756 -0.033365 
-0.011005 0.25732 0.0069159 0.024673 -0.048656 -0.092719 0.29776 0.032071 
0.15127 0.46432 0.13499 0.12546 0.019576 0.0072447 0.18136 0.11148 
0.17889 0.41466 0.2269 0.21835 0.1026 0.098823 0.0018191 0.27031 
0.021713 0.28116 0.2468 0.25041 0.13647 0.13138 -0.21323 0.11494 
-0.19202 0.05213 0.1197 0.1807 0.12957 0.13351 -0.28985 -0.32684 
-0.19811 -0.19844 -0.077264 0.06331 0.033222 0.1391 -0.12577 -0.22754 
-0.018239 -0.34427 -0.16753 -0.056877 -0.033859 0.1909 0.02829 0.19994 
0.11707 -0.21192 -0.11376 -0.059014 -0.0031133 0.20257 0.15966 0.59124 
0.086163 -0.091075 -0.0082102 0.0018191 0.036839 0.10589 0.49555 0.61245 
0.10359 0.064461 0.078272 0.067091 0.012177 -0.057699 0.43587 0.11247 
0.29069 0.16673 0.16821 0.10787 0.021384 -0.18676 -0.058192 -0.33112 
0.33196 0.23479 0.098659 0.13483 0.022535 -0.21093 -0.28229 -0.58596 
0.27968 0.21523 0.071859 0.12694 0.030263 -0.13826 -0.08384 -0.31961 
0.16952 0.12233 0.10277 0.14404 0.059528 0.010369 0.19714 -0.092883 
-0.084827 -0.029255 0.085999 0.13056 0.10376 0.03799 0.29415 -0.018239 
-0.23411 -0.11607 0.073339 0.10754 0.072188 0.037004 0.26357 0.025824 
-0.16703 -0.042573 0.054267 0.088136 0.0011614 -0.043559 0.025166 0.025824 
0.03092 0.23003 0.073997 0.098823 -0.028762 -0.055561 -0.12363 0.23003 
0.26094 0.57069 0.095699 0.15407 -0.056712 -0.069208 -0.30004 0.39411 
0.47796 0.80876 0.13795 0.16788 -0.017088 0.06035 -0.25236 0.36172 
0.57414 0.83639 0.17445 0.20372 0.12595 0.512 0.23414 0.44771 
0.47073 0.63859 0.21145 0.23414 0.24186 0.7213 0.49851 0.46941 
0.14782 0.15949 0.18843 0.21737 0.13269 0.41499 0.40217 0.14749 
-0.31353 -0.51033 0.042923 0.11296 -0.025309 -0.040435 0.19879 -0.26519 
-0.74314 -1.0943 -0.11146 0.0032988 -0.054246 -0.22425 0.1105 -0.50737 
-0.70138 -1.2707 -0.23724 -0.11294 -0.025802 -0.062302 0.15538 -0.051287 
-0.36219 -0.82337 -0.24316 -0.16276 0.014643 -0.012649 -0.0059084 0.44985 
-0.15569 -0.19778 -0.21784 -0.17147 0.00297 -0.16325 -0.1547 0.32045 
-0.031557 0.12447 -0.1672 -0.14878 -0.021034 -0.10127 -0.14747 -0.17328 
-0.039942 0.058706 -0.086307 -0.090417 0.03651 0.14469 -0.16309 -0.44341 
-0.05737 0.053281 0.088301 0.049992 0.061008 0.18119 -0.23296 -0.31402 
0.0021479 0.17807 0.18794 0.18547 0.0072447 0.0065871 -0.17032 -0.16325 
0.12464 0.4117 0.20931 0.22213 0.029112 -0.0060728 0.053445 -0.25598 
0.24384 0.5531 0.15407 0.20701 0.059035 0.036182 0.12546 -0.28623 
0.34479 0.60242 0.12431 0.17988 0.064296 0.048513 0.066434 -0.13218 
0.36567 0.55458 0.12414 0.16031 0.061666 0.029441 -0.0031133 0.11083 
0.26603 0.3757 0.14552 0.16821 0.054596 0.081724 0.073175 0.36172 
0.1271 0.35712 0.12579 0.19501 0.045882 0.083697 0.14946 0.50328 
0.1516 0.35761 0.13828 0.1835 0.004943 -0.0047575 0.036017 0.40874 
0.076627 0.25107 0.079094 0.1442 -0.012649 -0.13168 -0.076277 0.14453 
-0.0059084 0.015465 0.055911 0.1151 0.01974 -0.10423 0.03388 0.061337 
0.071037 -0.14336 0.063803 0.10606 0.070544 0.0013258 0.14404 0.20323 
0.1738 -0.15388 0.081889 0.10425 0.046211 -0.00015387 0.025495 0.293 
0.1396 -0.19433 0.020727 0.082711 -0.013143 -0.090417 -0.095843 0.1003 
-0.10784 -0.41365 -0.10916 -0.00064712 -0.043066 -0.11031 -0.18643 -0.18183 
-0.33901 -0.57166 -0.16325 -0.071345 0.0016547 0.069558 -0.19268 -0.58941 
-0.45821 -0.51789 -0.15191 -0.091075 0.078765 0.23496 -0.0088678 -0.50622 
-0.53121 -0.48633 -0.12642 -0.087786 0.031907 0.13203 0.13746 -0.0098543 
-0.43963 -0.21882 -0.08532 -0.079566 0.018589 0.031085 0.12036 0.13171 
-0.026789 0.23183 0.0051074 -0.0090322 0.016452 0.029934 0.11346 0.053281 
0.34265 0.57464 0.095535 0.1197 0.034537 -0.0049219 0.0018191 0.040292 
0.45067 0.67592 0.17676 0.18333 0.029934 -0.017417 -0.064768 0.01152 
0.32407 0.48914 0.13812 0.17067 -0.0034422 -0.13021 -0.20978 -0.072167 
0.11658 0.18925 0.08419 0.1396 -0.041586 -0.25647 -0.37748 -0.20551 
0.059528 -0.057863 0.038812 0.093069 -0.052109 -0.31632 -0.2859 -0.17049 
0.1026 -0.13185 0.032236 0.072517 -0.03616 -0.25516 -0.14928 0.14848 
0.11724 -0.18315 0.027468 0.083862 -0.010348 -0.16703 0.0036276 0.28346 
-0.0091966 -0.30087 -0.025145 0.044402 -0.013307 -0.12971 0.15456 0.30286 
-0.16983 -0.46544 -0.062631 0.0047785 0.01711 -0.12725 0.16969 0.29694 
-0.25401 -0.41596 -0.090088 -0.021034 0.08978 -0.046683 0.28214 0.20438 
-0.22622 -0.12198 -0.1062 -0.048656 0.066105 -0.013143 0.41384 -0.26437 
-0.15437 0.30911 -0.014787 -0.01939 0.017932 0.031414 0.41368 -0.61818 
-0.0032777 0.65372 0.058706 0.051143 0.013328 0.22263 0.42009 -0.571 
0.29711 0.65635 0.12875 0.15555 0.10113 0.52646 0.54011 0.17363 
0.49177 0.31256 0.11592 0.15966 0.25156 0.77555 0.55392 0.8622 
0.49227 0.12381 0.1197 0.16327 0.27491 0.85628 0.33065 0.84707 
0.30681 -0.026296 0.13401 0.17412 0.20651 0.68808 -0.11672 0.1368 
-0.02235 -0.56327 0.0092177 0.078765 0.062817 0.12842 -0.43815 -0.40724 
-0.56261 -1.0828 -0.18117 -0.06296 -0.089266 -0.41974 -0.52677 -0.15125 
-0.7997 -0.60388 -0.19235 -0.094692 -0.17427 -0.5779 -0.42599 0.49654 
-0.35151 0.24515 -0.026296 -0.018733 -0.12708 -0.49652 -0.21027 0.83359 
0.14157 0.70946 0.12842 0.10425 -0.048492 -0.27884 -0.15651 0.35745 
0.37619 0.69828 0.17955 0.171 0.036346 -0.090417 -0.11311 -0.42122 
0.44064 0.46925 0.11494 0.15028 0.019247 -0.064111 -0.065591 -0.65551 
0.32703 0.14897 0.024344 0.085012 -0.026789 -0.082032 -0.036818 -0.38866 
0.17955 0.012177 -0.0029489 0.061172 -0.0034422 -0.0042642 0.01711 -0.032708 
0.12431 0.11559 0.0069159 0.076134 0.024837 0.069064 0.13845 0.19287 
0.17807 0.20684 0.016452 0.068407 0.053938 0.043251 0.19155 0.25666 
0.27064 0.17873 0.037332 0.077614 0.062652 0.092082 0.33788 0.30335 
0.2149 0.064296 0.032564 0.084684 0.11905 0.20421 0.50361 0.45034 
0.11822 -0.0013048 0.0092177 0.055089 0.10672 0.29004 0.53436 0.37422 
-0.081374 -0.024816 0.011191 0.047033 0.081067 0.25206 0.30237 0.12085 
-0.19433 -0.020048 0.0031344 0.073832 0.042758 0.14683 -0.055232 -0.24875 
-0.14221 0.028947 0.036017 0.08156 0.029934 0.099316 -0.22589 -0.56722 
-0.095185 0.053609 0.069722 0.098988 0.051636 0.090274 -0.24003 -0.42533 
0.076299 -0.00097594 0.032564 0.079587 0.054103 0.14141 -0.15651 0.054267 
0.23151 0.11954 -0.0087034 0.045553 0.045389 0.11132 -0.062302 0.08715 
0.21901 0.40907 0.0075736 0.035195 0.0324 0.14585 -0.017746 -0.1113 
0.086492 0.5508 0.033551 0.06479 0.027632 0.075312 -0.065097 0.015794 
0.088136 0.48832 0.062817 0.091096 -0.029913 -0.10587 -0.182 0.62314 
0.14502 0.26044 0.12562 0.14634 -0.0013048 -0.13514 0.039963 1.0167 
0.18119 -0.089924 0.13384 0.16163 0.028619 0.018096 0.24088 0.54504 
0.10474 -0.76073 0.064296 0.11017 0.041772 0.073339 0.14305 -0.15898 
-0.1376 -1.4169 -0.078908 0.0062583 -0.020377 -0.041586 -0.080717 -0.59615 
-0.52036 -1.3756 -0.22409 -0.11376 -0.096007 -0.20107 -0.28015 -0.72916 
-0.74199 -0.59023 -0.26042 -0.14369 -0.088937 -0.20879 -0.33901 -0.48764 
-0.34263 0.30878 -0.10949 -0.084334 -0.016102 -0.024487 -0.028104 -0.02646 
0.077614 0.83178 0.067913 0.041936 0.049006 0.10293 0.23282 0.14223 
0.27951 1.2571 0.14141 0.1299 0.077943 0.12875 0.183 0.088301 
0.47484 1.3821 0.19484 0.19303 0.11378 0.10737 0.11083 0.19928 
0.35416 0.84592 0.22822 0.22526 0.1562 0.18761 0.15308 0.16706 
0.12036 0.10491 0.17133 0.23808 0.1442 0.17774 0.10113 -0.14763 
-0.093705 -0.48008 0.042594 0.13417 -0.0034422 -0.066084 -0.1769 -0.47153 
-0.23822 -0.63183 -0.10932 0.0016547 -0.12478 -0.35315 -0.43338 -0.352 
-0.16572 -0.4541 -0.12577 -0.052766 -0.17936 -0.44358 -0.34197 0.038977 
0.022206 -0.21965 -0.028926 -0.0039354 -0.11574 -0.33243 -0.029255 0.26225 
0.15407 -0.10538 0.048677 0.050814 -0.0016336 -0.023994 0.22739 0.18514 
0.3318 0.22608 0.093233 0.10967 0.081231 0.24121 0.16179 0.064132 
0.38096 0.45379 0.1026 0.15818 0.11362 0.29431 -0.021528 -0.10801 
0.21408 0.25715 0.07301 0.13039 0.085835 0.13647 -0.15454 -0.26667 
-0.010676 -0.050793 0.01974 0.085012 0.028125 0.037497 -0.11261 -0.027447 
-0.084663 -0.042079 0.056733 0.091918 0.02829 0.025495 0.10556 0.3535 
0.047691 0.16853 0.10326 0.11395 0.046868 0.073339 0.30796 0.4339 
0.10852 0.10655 0.070051 0.10507 0.012013 0.00066819 0.3244 0.20701 
-0.038298 -0.15405 -0.059836 0.055911 0.01267 -0.048656 0.26784 -0.027611 
-0.29149 -0.41645 -0.12231 -0.024816 -0.0088678 -0.06296 0.18563 -0.18512 
-0.37502 -0.51641 -0.11426 -0.049642 0.028125 -0.048163 0.026481 -0.20238 
-0.23066 -0.33885 -0.030077 -0.0090322 0.049992 -0.034516 -0.024652 -0.070687 
-0.027118 -0.09091 0.076134 0.071037 0.042429 0.0085601 0.012342 0.031414 
0.1202 0.11559 0.12809 0.12365 0.062817 0.038319 -0.013471 0.061337 
0.2297 0.25995 0.14946 0.17725 0.052459 0.031907 -0.016924 0.087314 
0.28675 0.37948 0.10491 0.16804 0.031907 0.0014903 -0.0042642 0.037168 
0.20257 0.40989 0.12118 0.16459 0.026152 -0.0042642 0.0095465 -0.02794 
-0.018733 0.28708 0.10737 0.15735 0.062652 0.041443 0.024508 -0.13333 
-0.18002 0.043745 0.040456 0.11378 0.085177 0.10869 0.12431 -0.11097 
-0.14648 -0.085649 0.0031344 0.060515 0.063474 0.072681 0.13762 -0.045039 
-0.0034422 -0.0031133 -0.017253 0.03388 0.0037921 0.025495 0.18876 0.10392 
0.0037921 -0.22935 -0.086636 0.0083956 -0.022679 0.10408 0.30977 0.24597 
-0.069865 -0.44095 -0.092554 -0.027282 0.0014903 0.16607 0.29398 0.35482 
0.01711 -0.11475 -0.00081153 0.019247 0.026974 0.096193 0.1659 0.37537 
0.36271 0.47402 0.086492 0.087479 0.058871 0.014643 -0.053753 0.24301 
0.56428 0.85151 0.1562 0.15407 0.080244 0.020727 -0.12133 -0.029913 
0.69285 1.1108 0.29168 0.25387 0.15094 0.12283 0.14634 -0.16769 
0.70929 0.94441 0.36419 0.37109 0.18119 0.23266 0.45198 0.27655 
0.44426 0.44541 0.33311 0.37027 0.16541 0.28691 0.37603 0.58056 
-0.072003 -0.49192 0.15012 0.25239 0.11658 0.15324 -0.11278 0.42962 
-0.70434 -1.6476 -0.15914 0.011684 -0.024816 -0.098309 -0.66751 -0.24941 
-1.1728 -2.0205 -0.36893 -0.20041 -0.098638 -0.20304 -0.6897 -0.94898 
-1.3299 -1.3143 -0.41924 -0.31139 -0.11508 -0.19104 -0.14484 -0.69201 
-0.76616 0.055089 -0.35479 -0.30794 -0.12429 -0.20485 0.049335 -0.07266 
0.068242 1.0924 -0.1746 -0.16375 -0.11097 -0.19745 -0.20386 0.15686 
0.59601 1.255 0.062159 0.0092177 -0.041093 -0.12856 -0.22787 -0.035503 
0.73938 0.94441 0.18563 0.14519 -0.0073881 -0.053588 0.09274 -0.069208 
0.75122 0.65652 0.24795 0.23594 0.06035 0.00017495 0.34561 0.31322 
0.58993 0.42732 0.26932 0.27606 0.11378 0.031249 0.17511 0.65323 
0.39362 0.13056 0.23627 0.27047 0.15078 0.061008 -0.049807 0.61064 
0.11148 -0.10587 0.13549 0.23381 0.14239 0.15752 -0.031392 0.30039 
-0.11623 -0.28114 0.042758 0.1465 0.11181 0.14157 0.014315 -0.056383 
-0.21998 -0.36269 0.013492 0.09126 0.05476 0.049828 0.019576 -0.42681 
-0.18956 -0.34378 -0.032543 0.039141 0.027961 -0.019061 0.082053 -0.78474 
-0.13037 -0.17345 -0.033694 0.017932 0.004943 0.02681 0.18004 -0.58547 
-0.072167 0.074983 -0.0014692 0.026481 -0.004593 0.058049 0.21819 -0.12445 
-0.033859 0.1733 -0.0029489 0.044731 -0.027447 0.00033937 0.025001 0.42486 
0.020398 0.14256 -0.049642 0.033058 -0.0070593 0.023686 -0.081539 0.85348 
0.095371 0.10096 -0.056055 -0.00064712 0.030098 0.11855 0.020891 0.70157 
0.08419 0.07301 -0.018733 0.016781 0.062981 0.11609 0.071037 0.061337 
-0.029913 0.0079024 0.013821 0.042429 0.046868 0.022371 0.016945 -0.31188 
-0.10949 -0.00064712 0.054432 0.068078 0.029441 0.0093821 -0.052602 -0.23494 
-0.13859 0.054103 0.10474 0.1054 0.058871 0.032236 -0.06 -0.068057 
-0.10669 0.08567 0.085835 0.14601 0.03092 0.016616 -0.10341 -0.044052 
-0.032543 0.084026 0.042429 0.10902 -0.010019 -0.055561 -0.089102 -0.079566 
-0.017253 0.058542 0.017274 0.077778 -0.014622 -0.087951 -0.074798 -0.09091 
0.074819 0.35054 0.064625 0.094548 -0.024158 -0.10094 -0.11755 0.022535 
0.19353 0.57809 0.13401 0.13138 -0.053095 -0.096336 -0.20699 0.051636 
0.24893 0.51857 0.13631 0.15686 0.042758 0.051965 0.0018191 0.016945 
0.26965 0.37931 0.11888 0.16706 0.12858 0.16804 0.24088 0.085177 
0.10951 0.17248 0.044567 0.12414 0.15292 0.14831 0.18794 0.098001 
-0.049478 0.073832 -0.0004827 0.073339 0.065118 -0.0040998 -0.063289 0.17034 
0.05213 0.022864 0.010204 0.059693 0.021384 -0.024323 -0.052437 0.17643 
0.036182 -0.3474 -0.022185 0.028783 -0.0090322 -0.012485 0.12283 -0.14714 
-0.13119 -1.0705 -0.18315 -0.093376 -0.077757 -0.087458 0.074983 -0.53137 
-0.3132 -1.516 -0.35085 -0.23411 -0.077264 -0.16506 -0.20879 -0.32092 
-0.28919 -0.96016 -0.3155 -0.22704 -0.091239 -0.28212 -0.37337 0.23068 
-0.23033 0.050979 -0.045039 -0.08121 -0.14467 -0.26815 -0.33227 0.16574 
-0.022679 0.69269 0.19106 0.1174 -0.082361 0.042594 0.083204 0.18613 
0.2851 0.913 0.3341 0.28313 0.11198 0.36402 0.49868 0.46053 
0.37537 0.8308 0.31421 0.31026 0.15867 0.3466 0.43308 0.36041 
0.23923 0.51989 0.16525 0.22789 0.14502 0.28626 0.19747 0.021713 
0.024673 0.14437 -0.030242 0.097837 0.048677 0.11658 0.087314 -0.13826 
-0.0965 -0.069536 -0.13448 -0.023665 -0.064604 -0.029091 -0.074798 0.0059294 
0.078107 0.18054 -0.023665 0.0042853 -0.023994 -0.001798 -0.10225 0.26916 
0.31766 0.51348 0.14585 0.12349 0.04917 0.092904 0.0047785 0.27146 
0.41795 0.52992 0.2075 0.2001 0.12727 0.19122 0.17166 -0.041257 
0.30746 0.27409 0.18119 0.20323 0.1391 0.22937 0.24959 -0.18183 
0.079587 -0.12297 0.064296 0.13384 0.069558 0.09833 0.21079 -0.11015 
-0.098309 -0.4398 -0.1011 0.042594 0.035195 -0.026953 0.18925 0.0074092 
-0.20584 -0.51099 -0.061809 0.0072447 0.054267 0.022042 0.12381 0.058377 
-0.23691 -0.31681 0.029441 0.052952 0.099974 0.0786 0.04654 0.066927 
-0.14023 -0.11837 0.058213 0.082875 0.087972 0.044402 0.049499 0.057227 
0.10195 0.066269 0.023193 0.061008 0.041114 0.078436 0.12809 0.044731 
0.23693 0.21194 0.033551 0.062488 0.050979 0.17643 0.16821 -0.0062372 
0.13319 0.15341 -0.024487 0.060515 0.019083 0.1493 0.18152 0.060022 
-0.012814 0.016288 -0.035503 0.025166 -0.047998 -0.0031133 0.025001 -0.0083746 
-0.12001 -0.085978 -0.0138 0.024015 -0.065262 -0.14993 -0.24579 -0.18232 
-0.12215 -0.0067304 0.035031 0.056404 -0.057041 -0.15421 -0.27752 -0.30202 
0.023522 0.21671 0.14141 0.1294 -0.0090322 -0.11146 -0.26174 0.11822 
0.3803 0.48289 0.18991 0.1904 0.029934 -0.035667 -0.1108 0.60719 
0.39937 0.37159 0.1784 0.20931 0.023193 0.030263 0.15259 0.53534 
-0.024158 -0.090746 0.00033937 0.10935 0.029769 0.18021 0.33328 0.1927 
-0.33276 -0.43404 -0.13695 -0.019061 0.0088889 0.11477 0.083862 -0.18791 
-0.20238 -0.37304 -0.1644 -0.085813 -0.0064016 0.01152 -0.073976 -0.35348 
-0.039613 -0.51477 -0.19729 -0.12856 0.055089 0.020233 0.012999 -0.32224 
-0.27637 -0.95309 -0.25565 -0.20238 0.037332 -0.062138 -0.015938 -0.44522 
-0.40149 -0.89489 -0.26042 -0.2185 -0.019061 -0.21044 -0.060494 -0.3617 
-0.24102 -0.26108 -0.14928 -0.12198 -0.0031133 -0.20057 0.053938 0.075476 
-0.013143 0.40398 0.044073 0.010862 -0.0087034 -0.078579 0.29727 0.30138 
0.24959 0.84625 0.20092 0.15226 -0.03353 -0.019555 0.22674 0.19649 
0.35498 0.8109 0.25567 0.24712 -0.010676 -0.06707 -0.05885 -0.022021 
0.16804 0.42091 0.19829 0.23331 0.058213 0.061501 -0.11639 -0.067235 
0.00066819 0.028454 0.16179 0.22049 0.14683 0.33541 -0.056877 0.026646 
-0.039284 -0.001798 0.14009 0.21079 0.16327 0.3558 0.049664 0.42962 
0.17906 0.2001 0.099152 0.16311 0.035688 0.21934 0.18415 0.47813 
0.37619 0.38507 0.086821 0.1396 0.010369 0.16525 0.20849 0.08304 
0.37652 0.43094 0.08978 0.14157 0.038812 0.085506 0.02829 -0.18759 
0.24515 0.40398 0.065118 0.1197 0.027961 -0.068714 -0.075291 -0.16046 
0.14469 0.25271 0.084026 0.11099 0.064296 -0.15043 -0.10768 0.0039565 
-0.057205 -0.15339 0.046868 0.091589 0.052294 -0.20863 -0.10719 -0.041751 
-0.23527 -0.42911 -0.035667 0.069558 0.017438 -0.19663 -0.13547 -0.30679 
-0.24875 -0.43273 -0.049642 0.021713 0.023028 -0.15257 -0.12314 -0.30859 
-0.11935 -0.047176 -0.035503 0.012835 0.011848 -0.10998 -0.020377 -0.065097 
-0.047505 0.2246 0.014315 0.044896 0.0072447 -0.017746 -0.092719 0.17363 
0.072024 0.34018 0.12694 0.11411 0.020727 0.066434 -0.22951 0.26011 
0.29842 0.35547 0.20569 0.18761 0.016123 0.086657 -0.15405 0.14996 
0.26357 0.11707 0.13779 0.19714 0.01267 0.059035 0.036675 0.029605 
0.22887 0.13467 0.043909 0.12727 0.004943 0.06479 0.20306 0.03651 
0.20487 0.1858 0.0064227 0.079258 0.00050378 0.067749 0.29513 0.13056 
0.034866 -0.13481 -0.11196 -0.015938 -0.0059084 0.0042853 0.32374 0.12381 
-0.43256 -0.85889 -0.26798 -0.15224 -0.0083746 -0.10423 0.16114 -0.04471 
-0.57725 -0.89341 -0.26387 -0.20386 -0.031064 -0.12708 -0.074962 -0.13662 
-0.17476 -0.28985 -0.10456 -0.11343 0.0079024 -0.10176 -0.20945 -0.13612 
0.16146 0.23397 0.055089 0.049006 0.04358 -0.05178 -0.19712 0.025495 
0.25567 0.47418 0.18925 0.1659 0.083862 0.013821 -0.12149 0.11181 
0.15111 0.47336 0.23512 0.23266 0.083368 0.054432 -0.0138 0.13286 
-0.14615 0.29053 0.16015 0.20931 0.038155 0.070215 0.058871 0.078436 
-0.26322 0.14848 0.076956 0.14404 0.013986 0.031578 0.034866 0.055582 
-0.09798 0.21194 0.078272 0.11773 0.013821 0.021878 0.053116 -0.028433 
-0.00064712 0.21885 0.062981 0.13779 0.038812 0.0036276 0.055089 -0.19219 
0.12792 0.11757 0.082875 0.13253 0.050321 -0.0014692 0.059035 -0.20616 
0.30977 -0.050136 0.056569 0.11526 0.038319 -0.0057439 0.025001 -0.016266 
0.28083 -0.22293 -0.025638 0.050321 0.027961 0.023028 -0.011005 0.19336 
0.027632 -0.22524 -0.09798 -0.01939 0.0013258 0.037826 -0.043066 0.34709 
-0.14221 -0.070852 -0.05441 -0.023501 -0.011663 0.060515 0.030427 0.36748 
-0.091075 0.15801 0.055254 0.057555 0.01711 0.084684 0.11214 0.081724 
0.0059294 0.30533 0.11937 0.14009 0.034373 0.039634 0.066763 -0.1524 
0.061008 0.23858 0.096521 0.13549 0.034702 -0.0073881 -0.0057439 -0.18874 
0.054267 0.12283 0.11231 0.14815 0.034044 0.0054362 0.0021479 -0.096994 
-0.0029489 0.057555 0.098494 0.14502 0.053609 0.012177 0.042429 0.0032988 
0.038812 0.076299 0.076792 0.11872 0.077121 0.043251 0.098659 0.075805 
0.11296 0.1003 0.051636 0.091096 0.091753 0.14289 0.23315 0.29661 
0.036017 0.10819 0.016288 0.088958 0.067749 0.21145 0.32029 0.4505 
0.094055 0.13351 0.0044497 0.066434 0.045553 0.23578 0.44426 0.34955 
0.17281 0.14864 0.012835 0.061666 0.068078 0.10721 0.19632 0.024837 
0.12168 0.079916 0.022864 0.059364 0.0018191 -0.03912 -0.12034 -0.16753 
0.080902 -0.0022913 -0.010512 0.03092 -0.020212 -0.12248 -0.10028 -0.23313 
0.0037921 -0.016266 0.029934 0.044896 -0.0062372 -0.013143 0.15752 -0.27818 
0.11559 0.073668 0.082875 0.10721 0.088465 0.11214 0.10145 -0.18939 
0.25271 0.11148 0.091753 0.13368 0.16344 0.18629 -0.068714 0.31223 
0.17478 -0.038462 0.05772 0.10787 0.16114 0.22033 0.1465 0.63021 
-0.013143 -0.067235 0.017767 0.073504 0.055582 0.12727 0.46678 0.6261 
-0.093541 -0.00097594 0.020727 0.062159 -0.023336 0.020891 0.69729 0.28609 
-0.24628 -0.16309 -0.025309 0.019083 -0.055561 -0.14928 0.53238 -0.30152 
-0.43865 -0.26634 -0.041093 -0.00031829 -0.073482 -0.25532 -0.041586 -0.67441 
-0.3589 0.038812 -0.020377 0.04654 -0.033201 -0.22524 -0.59533 -0.35151 
0.028125 0.54751 0.052294 0.08304 0.019411 -0.12116 -0.78983 0.1396 
0.47451 0.84444 0.070873 0.10573 0.041114 0.010697 -0.68642 0.27491 
0.68381 0.63859 0.097837 0.12661 0.078272 0.1368 -0.51658 0.21326 
0.56757 -0.053424 0.084026 0.12233 0.10293 0.25008 -0.25647 0.17133 
0.14913 -0.79608 0.00099702 0.057391 0.074819 0.16114 -0.10489 0.054925 
-0.27242 -1.2395 -0.17065 -0.046354 -0.020377 0.0021479 -0.12692 -0.07825 
-0.46249 -0.89539 -0.21537 -0.12149 -0.03057 -0.045203 0.15275 -0.32175 
-0.40987 -0.020212 -0.040435 -0.03353 0.058049 0.14108 0.59946 -0.34772 
-0.045203 0.61821 0.1179 0.091096 0.099316 0.33065 0.8987 0.098001 
0.40282 0.67904 0.11132 0.12414 0.10935 0.35366 0.92599 0.39263 
0.33032 0.23742 0.011191 0.059857 0.040621 0.20405 0.59059 0.34495 
0.17133 0.033058 -0.13727 -0.043395 -0.069865 -0.14961 -0.13497 0.17495 
0.15209 0.15999 -0.14336 -0.050629 -0.075291 -0.28508 -0.48567 0.062488 
-0.10078 0.21819 -0.0004827 0.012999 -0.009361 -0.13218 -0.22458 -0.0019624 
-0.17887 0.21885 0.14239 0.12217 0.071366 0.03947 0.035853 0.039634 
0.0013258 0.24433 0.19879 0.19501 0.078929 0.030756 -0.057041 0.17149 
0.14223 0.15489 0.1978 0.21194 0.044896 -0.068879 -0.37008 0.1927 
0.15292 0.090767 0.16903 0.20388 0.045389 -0.12412 -0.4758 -0.11393 
0.04654 0.017603 0.12776 0.20602 0.048184 -0.15733 -0.48682 -0.70763 
-0.03616 -0.019061 0.095699 0.16722 0.025495 -0.21044 -0.43569 -0.93221 
-0.039778 -0.075784 0.036017 0.11378 0.019247 -0.12462 -0.15289 -0.30185 
-0.052602 -0.061645 -0.009361 0.067256 0.017932 0.033222 0.19139 0.69548 
0.10063 0.10458 -0.018568 0.036675 0.0090533 0.12858 0.23545 0.90511 
0.18054 -0.067728 -0.038627 0.0083956 -0.0090322 0.13976 0.034537 0.2149 
-0.063453 -0.54025 -0.17641 -0.073482 -0.008539 0.19583 -0.072989 -0.46676 
-0.28936 -0.78227 -0.27045 -0.14648 -0.047176 0.1345 -0.17723 -0.54601 
-0.13053 -0.31665 -0.21915 -0.16144 -0.087293 -0.075455 -0.094363 -0.16177 
0.30335 0.53485 -0.059672 -0.063618 -0.059507 -0.11113 0.1077 0.28609 
0.47402 0.80465 0.026481 0.021056 0.0059294 -0.070852 0.13302 0.36879 
0.20816 0.38277 0.086163 0.082382 0.07038 -0.00031829 0.049499 0.066763 
-0.097816 -0.083512 0.13417 0.13549 0.10967 -0.020377 0.03536 -0.17624 
-0.21734 -0.16654 0.1276 0.18004 0.076792 -0.0072237 0.039634 -0.32125 
-0.30021 -0.090581 0.12365 0.17018 0.083204 0.039963 0.053938 -0.39047 
-0.29676 0.011848 0.16755 0.19599 0.051143 0.011191 0.04506 -0.23691 
-0.22787 -0.0004827 0.1562 0.19731 0.029605 -0.04323 -0.12314 0.12201 
-0.25713 -0.30054 0.072188 0.13582 -0.022021 -0.1501 -0.31533 0.39592 
-0.26437 -0.57346 0.0041209 0.055089 -0.041257 -0.15059 -0.26026 0.55392 
0.12644 0.0093821 0.01415 0.069393 0.016452 0.090438 0.16442 0.40003 
0.62906 0.9934 0.10737 0.12546 0.077121 0.18432 0.37981 -0.021856 
0.5868 1.1368 0.10556 0.13894 0.075148 0.13976 0.13861 -0.30481 
0.12069 0.54291 0.028947 0.090603 0.049499 -0.03912 -0.1376 -0.42993 
-0.29281 -0.031064 -0.025967 0.047197 0.012999 -0.10883 -0.11311 -0.31583 
-0.34444 -0.59911 -0.047669 0.0062583 -0.006566 -0.080881 0.036017 0.012342 
-0.19909 -1.0205 -0.056219 -0.0026201 -0.0044286 -0.021528 0.087643 0.3244 
0.0087245 -0.80397 -0.025967 0.038483 0.0080668 0.023357 0.13384 0.27491 
0.065612 -0.24036 0.016452 0.05065 -0.015609 0.034209 0.20339 -0.0068948 
0.01974 0.26274 0.07597 0.093562 -0.053917 0.053609 0.32259 -0.13284 
-0.011992 0.52433 0.084684 0.10935 0.011355 0.32045 0.27606 0.029276 
-0.0032777 0.41844 0.047691 0.091753 0.11872 0.45281 0.041114 0.18991 
-0.088115 0.12447 0.016781 0.060186 0.090274 0.2052 -0.10143 0.28428 
-0.12494 -0.15372 -0.033037 0.050157 0.020233 -0.0027845 -0.061645 0.22312 
