0.099316 0.1687 0.076792 0.046704 0.038977 0.058213 0.17265 0.2149 
0.0032988 0.19681 0.10359 0.033222 0.075312 0.18383 0.08715 0.13105 
-0.086307 0.15752 0.095042 0.055254 0.050157 0.15078 -0.0031133 -0.021034 
-0.044052 0.1248 0.011355 0.0067515 0.03388 0.085835 0.024179 0.0036276 
0.11658 0.16541 0.004943 -0.010348 -0.0022913 0.08419 0.055254 0.037826 
0.14239 0.23594 0.0044497 0.015465 0.0075736 0.11773 -0.044381 -0.030077 
0.11806 0.25699 0.030263 -0.009361 0.0324 0.071531 -0.12215 -0.21093 
0.1054 0.22657 0.057227 0.021878 0.043251 -0.0011404 -0.034516 -0.22244 
0.084519 0.17824 0.096357 0.075312 0.03651 -0.10867 0.05213 -0.20255 
0.049992 0.16821 0.10392 0.061008 0.021878 -0.083676 0.12135 -0.099953 
0.10902 0.15982 0.067749 0.06742 0.035524 0.022535 0.14535 0.095535 
0.19287 0.11165 0.052623 0.077943 0.06331 0.097508 0.14881 0.31864 
0.1544 0.028454 0.038319 0.037332 0.070873 0.11329 0.097179 0.43078 
-0.009361 0.062981 0.053609 0.027796 0.050321 0.046046 0.069886 0.33788 
-0.13234 0.081231 0.093069 0.067913 0.045224 0.019083 -0.030899 0.18958 
-0.14122 0.06183 0.10441 0.046375 0.066434 0.12842 -0.044217 -0.012978 
0.043745 0.033058 0.049499 0.043087 0.082382 0.16771 0.0054362 -0.15536 
0.23381 0.061337 0.062488 0.051308 0.042265 0.023028 0.038648 -0.22836 
0.1932 0.10129 0.044896 0.026152 -0.0016336 -0.12807 0.041443 -0.255 
0.1368 0.15357 0.041114 0.030756 -0.019061 -0.18052 0.025166 -0.16013 
0.18004 0.20717 0.015959 0.00297 -0.025638 -0.11064 0.059035 0.18202 
0.37652 0.27277 0.031907 -0.037969 0.010204 -0.042737 0.092082 0.43554 
0.37504 0.16114 0.031249 0.0088889 0.028783 -0.014293 0.015959 0.36813 
0.13993 -0.1746 -0.0013048 0.032729 0.041772 0.00050378 -0.084498 0.12612 
-0.1741 -0.5345 -0.075127 0.018096 0.050321 -0.028269 -0.11459 -0.069372 
-0.3423 -0.73147 -0.13136 -0.015773 0.030427 -0.038627 -0.046025 -0.11903 
-0.34 -0.57741 -0.11031 -0.017088 0.01415 -0.022679 0.00099702 -0.076935 
-0.19022 -0.1427 -0.0040998 -0.0004827 0.033715 0.010369 -0.022679 0.0085601 
-0.12314 0.19336 0.076956 0.016452 -0.024487 -0.047012 -0.06707 0.072517 
-0.071181 0.31684 0.08978 0.063639 -0.017582 -0.029748 -0.043066 0.05065 
0.10063 0.38901 0.11691 0.086985 -0.010512 0.013821 0.043745 0.0082312 
0.20355 0.43061 0.14733 0.084684 0.012177 0.020398 0.16426 0.047691 
0.21539 0.41384 0.12908 0.071531 0.012177 -0.059836 0.16212 0.091753 
0.0032988 0.30138 0.08008 0.03536 -0.0070593 -0.16424 0.034866 0.074654 
-0.13612 0.21391 0.024508 0.0051074 0.06035 -0.067564 -0.047998 0.014972 
-0.038956 0.13532 -0.020706 0.020069 0.10113 0.08978 -0.057205 0.0041209 
0.11526 0.0093821 -0.012978 -0.00031829 0.1128 0.16377 -0.020048 -0.044874 
0.083862 -0.14632 -0.013307 0.025001 0.1202 0.23381 0.024837 -0.18709 
-0.05326 -0.27012 -0.026131 0.036017 0.17232 0.3512 0.13105 -0.11508 
-0.19038 -0.27029 -0.016595 0.015465 0.10606 0.21753 0.22164 0.092082 
-0.34213 -0.1279 0.029605 0.017932 -0.013143 0.00050378 0.17577 0.21194 
-0.3908 -0.023994 0.052294 0.033715 -0.040928 -0.12609 -0.051287 0.14091 
-0.12741 -0.0078813 0.0062583 -0.010183 -0.076771 -0.16802 -0.20255 0.11855 
0.35103 0.02681 0.011191 -0.00031829 -0.086471 -0.16473 -0.15289 0.15012 
0.55211 0.11543 0.018096 0.019411 -0.058521 -0.17706 -0.10669 0.042758 
0.3096 0.13154 0.04358 -0.019555 -0.02235 -0.15372 -0.071345 -0.11278 
0.076463 0.062323 0.0042853 0.0083956 0.029441 -0.0049219 -0.0049219 -0.080223 
-0.045861 0.022864 -0.023829 0.02681 0.054103 0.13335 0.052294 0.052459 
-0.1233 0.025824 0.0092177 0.021056 0.07449 0.18974 0.057062 0.047855 
-0.20649 0.070544 0.03536 0.051801 0.069886 0.1835 -0.02794 0.03651 
-0.24365 0.013657 0.022042 0.02681 0.026646 0.12398 -0.020377 -0.018568 
-0.14911 -0.064768 0.0019835 0.01826 0.03092 0.032564 0.053116 -0.032872 
0.010862 -0.15931 -0.0029489 0.042758 0.015301 0.034044 0.12053 0.0095465 
0.16804 -0.033201 0.035031 0.031578 0.018425 0.029441 0.066105 0.060022 
0.20553 0.14009 0.04654 0.036017 0.03947 0.10639 -0.0024557 0.059857 
0.065776 0.21934 0.050979 0.058377 0.043745 0.14157 -0.055726 0.09422 
-0.073154 0.15324 0.078436 0.031085 0.047855 0.13828 -0.069701 0.15768 
-0.08532 0.084684 0.10589 0.03388 0.047526 0.089123 -0.05589 0.12464 
-0.059507 0.0090533 0.095042 0.076627 0.016288 0.051965 0.0098754 -0.017746 
-0.0013048 -0.043559 0.078436 0.03947 0.053609 0.070873 0.11263 -0.13152 
0.0087245 -0.086142 0.041443 0.030098 0.050979 0.071695 0.1544 -0.12231 
0.067091 -0.030077 -0.013143 0.020069 0.0067515 -0.055726 0.12168 -0.040435 
0.20454 0.15785 -0.0011404 0.010533 0.004943 -0.11245 0.13203 0.076792 
0.3244 0.39016 0.031249 0.033222 0.048019 -0.06 0.18909 0.10047 
0.33311 0.39822 0.090603 0.07301 0.064296 0.090767 0.17692 0.0324 
0.23479 0.26439 0.10589 0.065118 0.076627 0.12579 0.13762 -0.034681 
0.15949 0.2001 0.10392 0.037168 0.027632 0.073668 0.035688 -0.020212 
0.095206 0.10096 0.041114 0.059035 0.015794 0.030427 -0.054904 0.021549 
-0.015938 -0.011005 0.015794 0.020727 -0.023994 0.024837 -0.047012 0.12891 
-0.072003 0.0014903 0.015137 0.014643 -0.02794 0.015959 0.0067515 0.16179 
-0.027282 0.022371 0.040292 0.055089 -0.013471 0.022206 0.027796 0.15374 
-0.034023 -0.063782 0.048348 0.038319 0.013821 0.041114 0.012999 0.053281 
-0.058028 -0.10817 0.053938 0.032893 0.022371 0.058542 -0.0138 -0.068057 
0.052294 -0.017417 0.097015 0.073832 0.044567 0.032564 -0.041751 -0.099624 
0.22361 0.16886 0.11263 0.060844 0.070051 0.020727 0.020891 -0.039284 
0.37619 0.30862 0.14634 0.060022 0.054596 0.019576 0.070544 0.045882 
0.36896 0.28445 0.1271 0.053445 0.031085 0.0095465 0.052294 0.038319 
0.19961 0.14963 0.058871 0.021878 0.01563 -0.0088678 0.050157 0.028947 
-0.019226 -0.054082 -0.015444 -0.009361 0.022042 -0.016266 0.055747 -0.055397 
-0.11048 -0.15668 -0.045696 0.0014903 0.021713 -0.018568 0.065612 -0.075291 
0.0047785 -0.11771 -0.065591 -0.037147 -0.0013048 -0.0090322 0.08978 -0.011005 
0.10704 -0.015938 -0.066413 -0.023665 0.0021479 -0.010348 0.14831 0.06035 
-0.0054151 0.02681 -0.024487 0.034866 0.029605 -0.0011404 0.17462 0.027796 
-0.27801 -0.050629 -0.024816 0.0054362 0.036346 -0.011827 0.12792 -0.0013048 
-0.42434 -0.13843 0.024673 0.018754 0.017603 -0.047341 0.08008 -0.057699 
-0.33112 -0.067235 0.10244 0.047691 0.025495 -0.090581 -0.012978 -0.033201 
0.0046141 0.12464 0.096686 0.040785 0.030427 -0.037805 -0.063124 0.028947 
0.26011 0.31569 0.079422 0.063145 0.0098754 0.032729 -0.053588 0.038155 
0.40578 0.41779 0.075312 0.06183 0.039634 0.075476 -0.031721 0.0060938 
0.36435 0.3193 0.060186 0.025659 0.051965 0.022535 -0.029584 0.0042853 
0.244 0.13286 -0.00081153 0.024673 0.03799 -0.021199 0.011355 0.044567 
0.099316 -0.039778 -0.019226 0.064132 0.016288 0.034373 0.12118 -0.05737 
-0.02794 -0.19811 -0.040271 0.016781 0.028947 0.082053 0.25765 -0.13366 
-0.10883 -0.36269 -0.07414 -0.0013048 0.031578 0.038319 0.24318 -0.099131 
-0.17164 -0.45788 -0.053753 0.047855 0.053609 -0.038627 0.061501 -0.0034422 
-0.20156 -0.42894 -0.035503 0.025988 0.075312 -0.021363 -0.15059 0.22378 
-0.23214 -0.2887 0.018754 0.01711 0.039634 -0.022021 -0.32964 0.65323 
-0.20452 -0.086471 0.054267 0.025001 0.021056 -0.044874 -0.30843 0.7744 
-0.13316 0.065612 0.045389 -0.019719 0.0080668 -0.052273 -0.23642 0.20257 
-0.067399 0.10228 -0.0083746 -0.032379 0.00066819 -0.025967 -0.16572 -0.55045 
-0.017088 0.10622 -0.033859 0.0093821 -0.0026201 -0.043395 -0.027282 -0.78901 
0.079094 0.13976 -0.01232 0.00033937 0.022371 -0.049478 0.16673 -0.41974 
0.17939 0.25025 0.022206 0.0088889 -0.00097594 0.005765 0.33098 0.028619 
0.27573 0.25699 0.011191 0.026646 -0.031557 0.046375 0.30089 0.26916 
0.22312 0.076956 0.016616 0.010862 0.014972 0.093891 0.11411 0.31125 
0.088301 -0.089595 0.03947 0.023686 0.040292 0.098494 0.028125 0.27935 
-0.093705 -0.094363 0.0060938 0.045389 -0.00097594 -0.028926 -0.05589 0.041114 
-0.26075 -0.0036066 0.025824 0.019083 -0.049642 -0.13695 -0.11919 -0.21685 
-0.17361 0.19698 0.082546 0.033387 -0.061973 -0.11343 0.012177 -0.23395 
-0.033365 0.39921 0.096028 0.09833 -0.0050863 0.0090533 0.1562 -0.10982 
0.03092 0.36452 0.08863 0.073175 0.051965 0.077121 0.15834 -0.0083746 
-0.034023 0.075641 0.080738 0.063145 0.072681 0.086821 0.055418 0.055582 
-0.10341 -0.21866 0.01004 0.064132 0.10524 0.10326 -0.025638 0.11231 
-0.10242 -0.32257 -0.037476 0.024344 0.13417 0.22624 -0.032543 0.18152 
-0.15372 -0.36762 -0.090417 -0.025145 0.12694 0.22838 -0.14023 0.057391 
-0.13843 -0.31813 -0.1381 -0.059343 0.038812 0.092576 -0.23116 -0.10982 
-0.029584 -0.20386 -0.17361 -0.12609 0.0079024 -0.035832 -0.064111 -0.017088 
0.096357 -0.12412 -0.11985 -0.078908 0.0034632 -0.065919 0.045553 0.32012 
0.078765 -0.088773 -0.038956 -0.001798 -0.022679 -0.041422 -0.026789 0.4995 
-0.066906 -0.042408 -0.013636 0.023686 0.0095465 0.066269 -0.047669 0.17659 
-0.045368 0.10639 0.044238 0.044567 0.082546 0.15193 0.027139 -0.13119 
0.10885 0.1784 0.072353 0.087972 0.060186 0.096028 0.070051 -0.20468 
0.13368 0.17988 0.082382 0.070544 0.016616 0.014479 0.10573 -0.15799 
0.095042 0.16081 0.1151 0.051636 -0.027611 -0.0064016 0.16114 -0.099131 
0.056733 0.1516 0.12628 0.045389 -0.062138 -0.043395 0.084519 -0.021692 
-0.072825 -0.012485 0.043909 0.0036276 -0.033365 -0.080388 -0.11787 0.09422 
-0.12067 -0.076935 0.018918 0.0095465 0.00050378 0.024508 -0.15257 0.16081 
-0.048985 0.041443 -0.0013048 0.058049 0.03536 0.11494 -0.062138 0.055582 
0.032071 0.16393 0.072517 0.0227 0.023357 0.075476 0.028783 -0.014458 
0.16574 0.28478 0.097344 0.01826 -0.020212 0.013328 0.047691 -0.029091 
0.28971 0.33624 0.13138 0.065776 0.0075736 0.01711 0.10688 0.052294 
0.24564 0.29135 0.13203 0.064296 0.034866 0.047362 0.18399 0.15571 
0.10951 0.24532 0.10885 0.060515 0.059364 0.060186 0.15341 0.16031 
0.090931 0.23923 0.092082 0.070544 0.064296 0.047033 0.10359 0.14996 
0.18481 0.2269 0.040292 0.023522 0.044238 0.01267 0.021713 0.14075 
0.18711 0.16558 0.012506 -0.0095255 -0.013471 -0.00081153 -0.026953 0.11428 
0.060515 0.082382 -0.001798 0.00017495 -0.031228 -0.040435 -0.08121 -0.062796 
-0.098638 0.076299 0.022206 0.011684 0.012835 -0.018568 -0.011827 -0.24612 
-0.14073 0.22 0.080244 0.064954 0.037332 0.020398 0.11609 -0.12396 
-0.039778 0.33278 0.084684 0.084026 0.064625 0.066269 0.11855 0.029276 
0.11411 0.29004 0.09274 0.08863 0.073997 0.14996 0.091918 0.060515 
0.13434 0.1174 0.033715 0.058377 0.067585 0.21178 0.14157 0.029769 
0.0054362 -0.1644 -0.0014692 0.033058 0.01415 0.15982 0.15818 -0.040928 
-0.052766 -0.28114 -0.022843 0.0028056 -0.018733 0.020891 0.037826 -0.10439 
0.041278 -0.14813 0.0227 0.031085 -0.0075525 -0.058356 -0.08269 0.03799 
0.15949 0.080573 0.066927 0.064296 0.014479 -0.067399 -0.050958 0.26176 
0.19681 0.041443 0.095042 0.071366 0.034373 -0.040271 0.030756 0.31174 
0.13368 -0.19334 0.057884 0.090603 0.048348 0.078436 0.047362 0.26274 
0.020233 -0.39738 0.011848 0.059528 0.037826 0.027796 -0.077428 0.10425 
-0.039778 -0.36186 -0.006566 0.041607 -0.032215 -0.11491 -0.19482 -0.1575 
-0.033694 -0.069372 0.03947 -0.0047575 -0.058521 -0.18052 -0.20929 -0.10702 
0.041278 0.30664 0.049006 0.01826 0.034702 0.060186 -0.072496 0.053774 
0.1003 0.56083 0.1031 0.057391 0.13861 0.30598 0.17363 0.11066 
0.18383 0.67657 0.15883 0.09833 0.080573 0.29661 0.22904 0.077121 
0.30582 0.64862 0.13006 0.082875 -0.027775 0.024344 0.10737 0.13467 
0.47698 0.62446 0.14157 0.072188 -0.061645 -0.16029 0.16673 0.26735 
0.55211 0.56642 0.16442 0.076627 -0.015938 -0.14911 0.31881 0.17593 
0.37603 0.39592 0.16048 0.08863 -0.021034 -0.15552 0.19221 -0.00097594 
0.049664 0.1544 0.098988 0.063639 0.0227 -0.070852 0.0082312 -0.21044 
-0.18167 0.0041209 0.063145 0.057555 0.092576 0.11477 -0.094363 -0.33013 
-0.29922 -0.15832 0.026646 0.038155 0.087972 0.19435 -0.14073 -0.11409 
-0.26601 -0.25795 -0.016266 0.0031344 0.079422 0.16278 -0.13662 0.33805 
-0.18874 -0.33063 -0.045203 0.018589 0.0046141 0.077121 0.010697 0.44952 
-0.075127 -0.31681 -0.069701 -0.00081153 0.015137 0.044731 0.17939 0.11165 
0.026646 -0.37699 -0.050629 0.026646 0.10047 0.16508 0.18826 -0.14665 
0.075641 -0.28788 -0.073482 0.025495 0.12332 0.17149 0.051143 -0.25072 
0.11231 -0.14862 0.01563 0.026317 0.046704 -0.10637 -0.16753 -0.15602 
0.065447 -0.046025 0.053609 0.03388 0.013492 -0.27111 -0.36548 0.099974 
0.0039565 -0.077757 0.040128 0.025824 0.013986 -0.1598 -0.3566 0.18876 
-0.0087034 -0.18134 -0.037311 -0.0019624 0.0087245 0.040785 0.041114 0.1179 
0.00033937 -0.077593 0.0028056 0.0044497 0.0227 0.24696 0.44327 0.049664 
0.027139 0.19303 0.035524 0.024508 0.061337 0.18037 0.47681 0.094877 
-0.0040998 0.36008 0.10343 0.027468 0.062981 -0.019555 0.32917 0.24466 
-0.14911 0.36912 0.11362 -0.0057439 0.031907 -0.042244 0.20997 0.046704 
-0.22885 0.2879 0.078765 0.010204 -0.035338 0.0082312 0.054925 -0.19285 
-0.11623 0.14124 0.0421 -0.03057 -0.033201 -0.0078813 -0.12182 -0.18808 
0.037497 -0.028597 0.0037921 -0.011992 -0.00097594 -0.001798 -0.21307 0.055582 
0.13976 -0.19137 -0.058685 0.019247 0.063474 0.054267 -0.18561 0.051965 
0.042429 -0.36417 -0.086471 -0.015938 0.05213 0.11444 -0.094199 -0.090088 
0.0082312 -0.23905 -0.079566 -0.023172 0.041936 0.082711 0.0052718 -0.039613 
0.0037921 -0.01939 -0.028269 -0.025638 0.080573 0.020727 -0.023172 0.16541 
0.035524 0.018589 -0.0095255 0.00083261 0.0592 0.0059294 -0.10817 0.2052 
0.092082 -0.029913 0.039634 0.0026412 0.031578 -0.02235 -0.076442 0.0036276 
0.083697 -0.021856 0.03092 0.032729 0.017767 -0.078086 0.033387 -0.10571 
0.0082312 0.017274 0.023193 0.0031344 0.018425 -0.085156 0.052623 -0.013307 
-0.11804 -0.00031829 0.00017495 0.0016547 0.034209 -0.088773 0.030756 0.048513 
-0.15421 0.04917 -0.012156 0.011191 0.00066819 -0.089924 0.0087245 0.024508 
-0.12905 0.078107 -0.0067304 -0.012485 0.031249 0.044238 0.071037 -0.012649 
-0.06148 0.062817 0.011848 -0.016924 0.062981 0.077121 0.086657 -0.037476 
0.029276 -0.12445 -0.0013048 0.009711 -0.001798 -0.088608 0.08156 0.004943 
0.11691 -0.26239 -0.062467 -0.0080457 -0.051944 -0.21471 0.077778 -0.020377 
0.13154 -0.24809 -0.079237 -0.0067304 -0.0095255 -0.15026 0.14634 0.014972 
0.10836 -0.095185 -0.02794 0.038812 0.040292 0.010204 0.16114 -0.051944 
-0.022185 0.13993 0.020562 0.0011614 0.016616 0.05476 -0.022021 -0.32767 
-0.14747 0.29464 0.076299 -0.020377 -0.062631 -0.12001 -0.21126 -0.47482 
-0.10094 0.39296 0.085506 0.0056006 -0.087951 -0.14467 -0.26371 0.048019 
-0.021528 0.31552 0.095864 0.018754 0.053774 0.16607 0.10113 0.41565 
-0.16309 0.14206 0.05624 0.033387 0.14469 0.31782 0.27343 0.3387 
-0.29347 -0.058192 0.033222 0.056898 0.13351 0.19616 0.17676 0.17429 
-0.17673 -0.25039 0.00066819 0.010697 0.10507 0.048019 0.035688 0.027796 
0.095699 -0.30794 0.0034632 0.015959 0.045224 -0.0087034 0.061501 0.029112 
0.3826 -0.043888 0.064461 0.063639 0.065447 0.15489 0.13828 -0.010841 
0.51282 0.31618 0.10113 0.032893 0.071531 0.21178 -0.014129 -0.088608 
0.46826 0.42847 0.038648 0.014643 -0.025967 -0.026131 -0.18282 -0.030406 
0.22608 0.37635 -0.016595 0.044073 -0.069208 -0.28327 -0.24875 0.0013258 
0.18859 0.30615 0.080244 0.069558 0.015301 -0.14747 -0.086471 -0.023007 
0.1197 0.18646 0.11214 0.083533 0.096357 0.073504 0.063145 0.070051 
0.044238 0.040456 0.091589 0.10655 0.078107 0.11954 0.1544 0.13203 
-0.03353 -0.04471 0.081231 0.056569 0.028783 0.015794 0.12398 0.10359 
-0.14665 -0.24201 -0.0080457 0.0095465 -0.050136 -0.16934 0.00099702 0.0037921 
-0.34033 -0.52809 -0.089266 0.0047785 -0.063618 -0.25647 0.028619 -0.084827 
-0.62756 -0.72785 -0.18775 -0.045368 -0.092554 -0.19794 0.062159 -0.14385 
-0.65863 -0.68592 -0.16407 -0.05326 -0.074633 -0.1723 -0.049971 -0.20633 
-0.26305 -0.27029 -0.055561 0.0016547 -0.043724 -0.086142 -0.11426 -0.11343 
0.30664 0.27721 0.088794 0.024508 0.049664 0.046375 -0.096336 -0.021856 
0.5531 0.60029 0.18136 0.063968 0.13319 0.17495 0.061995 0.094055 
0.44442 0.6598 0.16837 0.11592 0.22476 0.37274 0.19336 0.16262 
0.2537 0.53468 0.18646 0.10458 0.23512 0.51643 0.17511 0.20701 
0.22904 0.38918 0.12628 0.085341 0.19928 0.48388 0.080738 0.1465 
0.24071 0.29628 0.10819 0.094055 0.13779 0.44442 0.024179 0.030756 
0.22608 0.29875 0.093562 0.066763 0.053281 0.18909 -0.095349 -0.086636 
0.27919 0.30319 0.12661 0.064461 -0.024323 -0.06444 -0.051122 -0.049314 
0.27409 0.23578 0.081067 0.048841 -0.093212 -0.2203 0.18843 0.090931 
0.22789 0.16163 0.0421 0.01152 -0.082525 -0.22968 0.23414 0.23331 
0.21227 0.14864 0.021384 0.014643 -0.046354 -0.20962 0.095371 0.52844 
0.26291 0.1784 0.045718 0.050486 -0.0022913 -0.17706 0.036675 0.58943 
0.17544 0.081067 0.057062 0.044567 0.02122 -0.10406 0.037004 0.232 
-0.10604 -0.081868 0.062488 0.054925 0.067091 -0.025145 0.038319 -0.29791 
-0.39244 -0.3229 0.042758 0.066269 0.087479 0.11773 -0.0078813 -0.52496 
-0.41513 -0.34542 -0.012649 0.029112 0.080409 0.13828 -0.19153 -0.39195 
-0.24283 -0.22803 -0.024158 0.00050378 0.038155 0.00017495 -0.28558 -0.0062372 
-0.17493 -0.20534 -0.058192 -0.0078813 0.041936 0.064461 -0.088937 0.2514 
-0.29199 -0.25204 -0.046025 -0.028433 0.13615 0.47171 0.22115 0.13154 
-0.33128 -0.1016 -0.0031133 0.0041209 0.1881 0.68693 0.27014 -0.087458 
0.08008 0.31569 0.11362 0.081395 0.12973 0.42946 0.25321 0.015465 
0.56148 0.64945 0.11576 0.060186 -0.011005 -0.0057439 0.20651 0.11181 
0.68118 0.64303 0.1271 0.069722 -0.06 -0.21948 0.057062 0.18037 
0.48569 0.25156 0.093891 0.1003 -0.066906 -0.20419 -0.012485 0.55195 
0.14519 -0.18035 0.041114 0.062817 -0.026131 -0.068714 0.020562 0.44163 
-0.19153 -0.48485 -0.025474 0.042758 -0.033859 -0.034845 -0.10291 -0.15848 
-0.40313 -0.61473 -0.09091 0.015794 -0.0083746 0.11855 -0.17509 -0.60437 
-0.39014 -0.55571 -0.13695 -0.017911 0.04654 0.24367 -0.05326 -0.48928 
-0.36203 -0.4033 -0.093376 -0.016924 0.039799 0.12562 0.10162 -0.047998 
-0.27785 -0.21866 -0.069043 0.0070803 0.018754 -0.070687 0.12595 0.38211 
-0.038956 -0.14895 0.0026412 0.017767 -0.051122 -0.28574 0.066105 0.45133 
0.078107 0.024508 -0.056383 -0.0050863 -0.066413 -0.44983 0.028783 0.29793 
0.081889 0.1442 -0.020048 0.010862 -0.097651 -0.49685 -0.076277 -0.092061 
0.12924 0.31947 0.042429 -0.018404 -0.10998 -0.39129 -0.15783 -0.30054 
0.24992 0.58943 0.073504 0.0052718 0.0039565 0.023193 0.10935 -0.083183 
0.24285 0.68266 0.1151 0.062159 0.098166 0.22 0.2657 0.061501 
0.083697 0.45626 0.14124 0.068407 0.14272 0.27606 0.20454 0.005765 
-0.079895 0.091096 0.12299 0.074983 0.13861 0.24877 0.031085 0.013164 
-0.18907 -0.095185 0.10819 0.06742 0.12743 0.17643 -0.16243 0.020398 
-0.19137 -0.15996 0.099974 0.041936 0.10688 0.19944 -0.24201 -0.034352 
-0.044217 -0.089431 0.056569 0.029934 0.12381 0.44459 -0.047012 0.10918 
0.048841 -0.069372 0.0036276 0.033058 0.085835 0.44574 0.13894 0.17626 
0.01826 -0.11113 -0.024652 -0.010019 -0.059507 0.076463 0.12184 0.11559 
-0.10719 -0.22376 -0.07266 -0.023007 -0.12379 -0.2157 0.050321 0.019083 
-0.20222 -0.17394 -0.058192 -0.025309 -0.12248 -0.33063 -0.018733 0.0074092 
-0.21077 -0.049314 0.0023123 -0.015444 -0.050629 -0.26848 -0.030077 -0.025474 
-0.029584 0.13138 0.096357 0.037332 0.08419 -0.0098543 0.097508 0.02681 
0.18251 0.2366 0.12036 0.079916 0.12414 0.061995 0.10343 0.14387 
0.20421 0.23134 0.08978 0.07038 0.07449 -0.018568 -0.042079 0.023028 
0.14552 0.19895 0.053938 0.041772 0.016452 -0.043066 -0.047669 -0.14254 
0.076956 0.10228 0.0014903 0.032071 0.01004 0.00099702 -0.039942 -0.094527 
0.083368 0.071859 0.00050378 0.00050378 0.011355 -0.018239 -0.045368 0.0088889 
0.058871 0.069886 0.014808 -0.016102 -0.021363 -0.036818 -0.026296 -0.0080457 
0.092247 0.059035 -0.0022913 0.0037921 -0.036325 -0.07414 -0.014293 -0.014622 
0.050486 -0.084991 -0.047669 -0.020706 -0.029913 -0.14402 -0.045039 -0.027282 
-0.15174 -0.35282 -0.10439 -0.036489 -0.034681 -0.18528 -0.08384 0.027468 
-0.33326 -0.34723 -0.089102 -0.021528 0.014315 -0.11327 -0.063782 0.031742 
-0.28558 -0.030735 -0.010019 -0.023501 0.041278 0.0079024 -0.023007 -0.071016 
-0.11771 0.26801 0.085999 0.01415 0.047855 0.029769 -0.0095255 -0.14139 
0.11313 0.39395 0.095042 0.038812 0.042758 0.033387 0.022864 -0.086636 
0.26685 0.32917 0.11329 0.033387 0.07301 0.14058 0.096686 0.081724 
0.3198 0.27721 0.11214 0.061666 0.13467 0.31125 0.21885 0.27754 
0.26373 0.27573 0.10967 0.061337 0.14157 0.38194 0.34988 0.38293 
0.22526 0.35876 0.11099 0.057227 0.10672 0.31716 0.39625 0.30237 
0.2006 0.32736 0.10096 0.052787 0.017274 0.0592 0.13697 0.088301 
0.15982 0.20339 0.045224 0.045389 -0.065426 -0.24118 -0.2111 -0.1159 
0.078272 0.0227 -0.0077169 0.019247 -0.073318 -0.27571 -0.33605 -0.12001 
0.044402 -0.017746 -0.00097594 0.038319 0.0032988 -0.11968 -0.21619 0.054596 
0.12118 0.074161 0.03799 0.06594 0.074161 0.10573 0.040456 0.11559 
0.16196 0.15127 0.097015 0.10556 0.083697 0.18267 0.22904 -0.03205 
0.12464 0.13697 0.095206 0.071037 0.056404 0.060679 0.23446 -0.066741 
0.047197 0.072517 0.0689 0.0421 0.024508 -0.069372 0.0085601 -0.037969 
0.081395 0.042429 0.025166 -0.0095255 -0.00081153 -0.086307 -0.1815 -0.021034 
0.083862 0.011191 -0.0016336 0.0021479 0.0016547 -0.049642 -0.14993 -0.08121 
0.14486 -0.0090322 -0.015444 -0.0054151 -0.010676 -0.044217 -0.12659 -0.11557 
0.19566 0.052952 0.0092177 0.027303 -0.0096899 -0.0965 -0.1108 -0.048985 
0.20273 0.13647 0.031085 0.048677 -0.025802 -0.19515 -0.094856 0.046375 
0.096028 0.11461 0.038155 0.049335 -0.014293 -0.16703 -0.0075525 0.11 
0.019576 0.039963 0.053445 0.051965 0.0075736 -0.10998 0.051636 0.11083 
-0.0024557 -0.0026201 0.033222 0.047362 0.022864 -0.019226 0.16278 0.19829 
0.039305 -0.01528 0.024673 0.028619 0.041607 0.07597 0.26176 0.19566 
0.0047785 -0.02942 -0.0032777 0.012506 0.062817 0.16311 0.2657 0.13039 
-0.082525 -0.089266 0.004943 0.025166 0.065612 0.18481 0.22526 -0.0049219 
-0.10538 -0.10176 0.017274 0.00050378 0.062488 0.21506 0.11691 -0.13218 
-0.040106 -0.06148 0.062323 0.021056 0.051308 0.23693 0.012835 -0.15043 
-0.011827 -0.07562 0.032729 0.058542 0.010533 0.19977 -0.0091966 -0.039613 
0.08978 -0.02498 0.014972 0.032729 0.029769 0.010204 0.014643 0.093233 
0.21457 0.071695 -0.0024557 0.048677 -0.049971 -0.26289 -0.038133 0.10655 
0.20158 0.20076 0.037332 0.057062 -0.076606 -0.37255 -0.065426 0.085506 
0.15834 0.16656 0.06183 0.035195 -0.043724 -0.26174 -0.079072 0.0039565 
0.14305 0.2103 0.11313 0.039799 -0.015609 -0.1552 -0.058192 -0.14451 
0.08419 0.28461 0.12825 0.067585 -0.0032777 -0.055561 -0.084334 -0.22869 
-0.027118 0.28297 0.1294 0.053445 0.084684 0.12184 -0.084991 -0.01117 
-0.097322 0.23331 0.12957 0.073339 0.14798 0.28741 -0.047834 -0.034188 
-0.11475 0.15423 0.10951 0.10524 0.15653 0.32374 -0.053095 -0.13103 
-0.084991 0.01711 0.058706 0.049992 0.1784 0.2833 -0.045861 -0.13185 
-0.0138 -0.18298 -0.0034422 0.024015 0.11099 0.2269 -0.012485 -0.28048 
0.086657 -0.3127 -0.02794 0.0079024 0.016452 0.0039565 0.057391 -0.031228 
0.17939 -0.39935 -0.089266 -0.017911 -0.06 -0.1792 0.14387 0.66359 
0.17034 -0.47679 -0.082361 0.0056006 -0.057041 -0.12083 0.36369 0.62528 
0.072517 -0.44177 -0.063289 0.055582 0.024179 0.067091 0.42223 -0.098144 
-0.044217 -0.19186 0.021713 0.055747 0.038319 0.15735 0.15801 -0.8186 
-0.064111 0.16985 0.090931 0.061008 0.017932 0.019905 -0.2351 -0.7216 
0.02122 0.402 0.14585 0.032236 -0.038956 -0.19367 -0.41037 0.17955 
0.10721 0.49555 0.12529 -0.0138 -0.058356 -0.18594 -0.10883 0.92912 
0.064954 0.40052 0.093891 0.00083261 0.024673 0.10047 0.24449 0.81846 
0.026974 0.12135 0.014643 0.034866 0.16081 0.53682 0.39411 0.30122 
-0.13333 -0.25812 -0.077428 -0.004593 0.096028 0.42338 0.23183 -0.11179 
-0.27949 -0.41283 -0.11015 -0.0075525 0.02829 0.071531 0.029934 -0.46906 
-0.33687 -0.3617 -0.08384 0.004943 -0.027447 -0.14402 -0.085978 -0.51773 
-0.36959 -0.25138 -0.080059 -0.021199 -0.041422 -0.21241 -0.15437 -0.33424 
-0.31155 -0.10143 -0.017911 0.022042 -0.020048 -0.13629 -0.10653 -0.15914 
-0.1427 0.11642 0.071859 0.073175 0.036182 -0.0022913 0.040292 -0.066906 
0.097837 0.29546 0.12825 0.049335 0.07449 0.036346 0.13236 -0.046025 
0.17593 0.27836 0.095535 0.046375 0.064132 0.029769 0.23003 -0.050958 
0.22707 0.077121 0.02533 0.040785 0.045882 0.043416 0.18958 0.059035 
0.23052 -0.14961 -0.040106 0.028454 0.068571 0.14585 0.078272 0.22361 
0.20701 -0.25943 -0.07003 -0.0014692 0.093069 0.30582 -0.047012 0.27557 
0.12792 -0.19367 -0.091732 0.024344 0.12299 0.30566 -0.17279 0.36353 
-0.0070593 -0.109 -0.061151 -0.03353 0.047197 0.22739 -0.23822 0.43242 
-0.14714 -0.013965 -0.012485 -0.018897 0.0088889 0.18794 -0.045203 0.33854 
-0.19811 0.042429 0.039799 0.032564 0.014479 0.13713 0.19649 0.074983 
-0.077264 0.12085 0.091096 0.037332 0.024508 0.067913 0.35975 -0.015938 
0.14305 0.2805 0.12447 0.041278 0.029605 -0.031886 0.27261 -0.088937 
0.22509 0.32095 0.10343 0.079751 0.030098 -0.09387 0.049828 -0.3007 
0.099481 0.14437 0.053938 0.043416 0.0013258 -0.14632 -0.083347 -0.39968 
-0.035996 -0.10521 -0.0013048 0.01711 0.0014903 -0.1062 0.038648 0.15719 
-0.018239 -0.2083 0.004943 0.042923 0.016945 -0.031392 0.097344 0.73494 
0.17774 -0.1746 0.0036276 0.032564 0.0090533 -0.015609 0.0046141 0.74514 
0.15571 -0.096172 -0.021528 0.020562 -0.026296 -0.064604 -0.056877 0.2879 
-0.18709 -0.065919 -0.12001 -0.031064 -0.03501 -0.008539 -0.047176 -0.20337 
-0.54075 0.09981 -0.14139 -0.079895 -0.033859 0.11707 0.067091 -0.66455 
-0.5779 0.24433 -0.12001 -0.088115 -0.04619 0.055747 0.12266 -0.8653 
-0.3229 0.24449 -0.043066 -0.023336 0.01415 0.027139 0.20405 -0.44983 
0.020891 0.20947 0.026646 0.014643 0.045553 0.085012 0.22164 0.24499 
0.28346 0.18087 0.11494 0.069064 0.064625 0.088958 0.13582 0.77835 
0.35975 0.17692 0.12546 0.092082 0.049335 0.016616 0.049499 0.65241 
0.24433 0.12776 0.046046 0.053774 0.023028 -0.073811 -0.052931 0.23414 
0.14453 0.041114 0.012999 0.048513 0.032564 -0.10423 -0.12725 -0.028433 
0.147 0.011684 0.030592 0.047691 0.0011614 -0.1381 -0.1547 -0.042573 
0.12694 0.088301 0.081067 0.053938 -0.009361 -0.15964 -0.20501 0.026974 
0.090603 0.09833 0.11198 0.056898 -0.004593 -0.15602 -0.22704 0.053281 
-0.018568 -0.070194 0.062488 0.046704 -0.011827 -0.13744 -0.081374 0.040292 
-0.099953 -0.26815 -0.027118 0.0085601 -0.035832 -0.15832 0.03388 0.0065871 
-0.097816 -0.24365 -0.049807 -0.0067304 -0.033694 -0.23773 0.064625 -0.04882 
-0.045203 -0.023336 0.0075736 0.007738 -0.046025 -0.19252 0.076463 -0.083183 
0.1202 0.25058 0.12085 0.042265 0.0056006 -0.023172 0.08715 0.0052718 
0.26899 0.47385 0.20635 0.086657 0.10359 0.21967 0.089452 0.068242 
0.28461 0.53978 0.24795 0.11905 0.18218 0.40759 0.062981 0.14568 
0.16969 0.51561 0.20536 0.090109 0.19501 0.44672 0.11198 0.17643 
0.14749 0.51824 0.11658 0.093726 0.091425 0.37126 0.1516 0.10244 
0.16771 0.51183 0.087314 0.061995 0.039963 0.25452 0.098988 -0.036983 
0.076792 0.33574 0.039963 0.011191 -0.057863 0.1664 -0.019226 -0.030406 
0.028783 0.081395 0.038648 0.030263 -0.072332 -0.067399 -0.1547 0.14831 
0.0026412 -0.021034 0.099645 0.058377 0.005765 -0.17246 -0.055561 0.12792 
-0.11409 -0.017253 0.12875 0.038155 0.018096 -0.17739 0.12677 -0.027282 
-0.24645 -0.18545 0.053774 0.058377 -0.023336 -0.25072 0.11855 -0.1912 
-0.30103 -0.53927 -0.066413 -0.0014692 -0.070359 -0.31879 -0.014129 -0.35858 
-0.10258 -0.6001 -0.15224 -0.047505 -0.086964 -0.30662 -0.10423 -0.40346 
0.29892 -0.11031 -0.13777 -0.045203 -0.056383 -0.19926 -0.12642 -0.1547 
0.40085 0.47451 -0.052273 -0.032708 -0.0024557 -0.10341 -0.17262 0.22575 
0.3923 0.76486 0.091753 0.019247 0.054925 0.10655 -0.080388 0.65109 
0.37931 0.64895 0.15949 0.10244 0.10063 0.32111 0.091425 0.69071 
0.1419 0.18843 0.12513 0.10376 0.12694 0.38408 0.17001 0.32325 
-0.18216 -0.14944 0.034044 0.053609 0.10852 0.27721 0.080738 -0.31747 
-0.26272 -0.21291 0.012342 0.020727 0.05476 0.13927 -0.045039 -0.69398 
0.076956 -0.028926 0.048348 0.035853 0.057227 0.060515 -0.041093 -0.3058 
0.42584 0.095864 0.086163 0.048184 0.062159 0.058542 0.073668 0.17462 
0.44064 -0.00097594 0.093398 0.064625 0.043909 0.019411 0.08156 0.23381 
0.22378 -0.25236 -0.0014692 0.048677 0.032236 -0.0138 -0.011334 0.15916 
-0.035996 -0.50901 -0.12133 -0.0088678 -0.0060728 -0.054575 -0.060165 0.076463 
-0.31073 -0.54551 -0.17854 -0.040435 -0.02498 -0.061809 -0.081703 -0.034681 
-0.36515 -0.27785 -0.057699 -0.03205 -0.0062372 -0.058356 -0.061973 -0.038956 
-0.20797 -0.0026201 0.090274 0.020398 -0.0070593 0.01267 0.014643 -0.0016336 
-0.10045 0.082546 0.12858 0.053445 0.040621 0.080244 0.083204 -0.0027845 
-0.0098543 0.10178 0.072188 0.045553 0.068407 0.10737 0.077943 0.026481 
0.091753 0.15851 0.034209 0.034373 0.07038 0.10902 0.05065 0.034044 
0.1271 0.16607 0.013657 0.037826 0.073175 0.12299 -0.058356 0.026481 
0.026317 0.097672 0.022371 0.030756 0.07038 0.18004 -0.03616 0.11066 
0.075641 0.13565 0.037332 0.022535 0.054925 0.13631 0.10622 0.14634 
0.17265 0.30007 0.088958 0.062652 0.038319 0.0070803 0.15308 -0.098802 
0.29974 0.41713 0.1128 0.037661 0.035195 -0.045368 0.17824 -0.3543 
0.30286 0.36682 0.05065 0.010697 0.018754 -0.10834 0.022864 -0.50129 
0.1345 0.16048 0.026152 0.029112 -0.031557 -0.24382 -0.35052 -0.33276 
0.0070803 -0.034352 -0.0095255 0.015301 -0.043724 -0.29561 -0.49668 0.29596 
-0.051451 -0.16983 -0.01528 -0.00097594 -0.018239 -0.1598 -0.24151 0.84691 
-0.063453 -0.19137 -0.008539 0.050979 0.048019 0.12069 0.16952 0.84526 
-0.0031133 -0.21356 -0.0064016 0.0098754 0.062981 0.2782 0.34183 0.25715 
-0.029913 -0.28443 -0.047834 -0.015116 0.049335 0.19122 0.25271 -0.39097 
-0.13234 -0.37469 -0.094527 -0.004593 -0.0032777 0.0052718 0.01826 -0.24036 
-0.11574 -0.15487 -0.071016 -0.035667 -0.011498 0.027468 -0.042901 -0.00064712 
-0.030242 0.15061 -0.0049219 -0.0059084 -0.024652 0.03536 -0.021363 -0.049314 
0.078272 0.27244 0.088136 0.079422 0.071859 0.010533 0.087808 0.026646 
0.20882 0.35383 0.15686 0.073997 0.11017 0.073668 0.17034 0.038155 
0.27557 0.39197 0.18563 0.086821 0.12349 0.1733 0.25387 -0.035503 
0.3119 0.46612 0.14979 0.072353 0.10967 0.4487 0.32966 -0.066248 
0.31832 0.48733 0.12792 0.053774 0.1179 0.56313 0.27475 -0.034352 
0.20882 0.42469 0.10754 0.01415 0.097508 0.27524 0.085177 -0.20436 
-0.027775 0.19681 0.027303 0.044073 0.014643 -0.2619 -0.19268 -0.21504 
-0.22376 0.10244 0.012506 0.01415 -0.051122 -0.68822 -0.25795 0.19106 
-0.38669 0.077614 0.041278 0.014808 -0.078579 -0.70023 -0.16177 0.49506 
-0.25894 -0.0406 0.033058 0.051636 -0.035174 -0.48698 -0.11771 0.26406 
-0.098309 -0.36301 -0.013307 0.031907 0.034209 -0.21521 -0.0067304 0.13499 
-0.094199 -0.85099 -0.12346 0.00066819 0.048348 0.0079024 0.18087 0.17314 
-0.15454 -1.1987 -0.22557 -0.0036066 0.079916 0.22887 0.1932 0.14321 
-0.33572 -1.1603 -0.28969 -0.094856 -0.0088678 0.32358 0.080409 0.017767 
-0.51378 -0.90903 -0.26683 -0.12396 -0.035503 0.256 -0.024323 -0.095514 
-0.51049 -0.34164 -0.121 -0.069536 -0.029913 0.15193 -0.088115 -0.21307 
-0.10373 0.63925 0.12628 0.017274 0.078765 0.18251 -0.017417 -0.23543 
0.33607 1.231 0.35186 0.12349 0.14535 0.18974 0.082875 -0.13925 
0.51676 1.1264 0.33985 0.17692 0.084026 0.061337 0.13582 -0.048656 
0.32193 0.58746 0.17281 0.076134 -0.013143 -0.095021 0.096521 -0.10604 
0.028619 0.14913 0.031414 0.026317 -0.032708 -0.14714 0.067091 -0.30498 
0.062981 0.065118 0.015794 0.026317 -0.023665 -0.13464 0.064954 -0.25878 
0.18629 0.071859 -0.015116 0.040128 0.03092 -0.059178 0.10655 0.15818 
0.26554 0.0032988 0.014479 0.052623 0.061337 -0.014293 0.10639 0.33574 
0.21589 -0.090253 0.05772 0.058871 0.060679 0.004943 0.12398 0.17659 
0.22953 -0.03912 0.072846 0.013164 0.056569 0.063639 0.18498 0.10803 
0.30615 0.20487 0.1077 0.030263 0.060844 0.1197 0.10228 0.085835 
0.35646 0.39329 0.10589 0.061008 0.023357 0.063803 -0.064768 0.017767 
0.26554 0.32226 0.091425 0.029605 0.06035 0.06742 -0.046683 -0.080552 
0.17347 0.14831 0.083697 0.053609 0.12727 0.18267 0.068407 0.033222 
-0.11541 -0.11475 0.017932 0.074161 0.11921 0.16952 0.084355 0.13795 
-0.52299 -0.29774 -0.058028 0.024837 0.051472 0.061337 0.10672 -0.056055 
-0.49044 -0.44835 -0.054904 -0.017746 -0.020212 -0.018897 0.20306 -0.15289 
-0.30761 -0.5294 -0.050793 0.019905 -0.079566 -0.17246 0.052623 -0.32142 
-0.50211 -0.44851 -0.058685 -0.03616 -0.16917 -0.39984 -0.16095 -0.61621 
-0.47465 -0.14698 -0.056219 -0.024323 -0.14533 -0.38242 -0.18989 -0.13136 
-0.22228 -0.028597 -0.0042642 0.050321 -0.026131 -0.16095 -0.16309 0.4316 
-0.055068 -0.052602 0.038155 0.044731 0.029605 -0.069208 0.013657 0.4995 
-0.13793 -0.19104 -0.013307 0.01004 -0.033859 -0.15059 0.080738 0.46284 
-0.30136 -0.40527 -0.14895 -0.0087034 0.0034632 -0.008539 -0.11327 0.11625 
-0.20156 -0.29939 -0.25713 -0.086142 0.075641 0.30007 -0.21636 -0.43042 
0.16706 0.057555 -0.2231 -0.085813 0.088136 0.3877 -0.18249 -0.62295 
0.4755 0.5605 -0.026624 -0.0062372 -0.0059084 0.18958 -0.05441 -0.23362 
0.56033 0.69565 0.15637 0.0062583 -0.018075 0.16722 0.10228 0.41105 
0.48832 0.5868 0.24597 0.086328 0.050486 0.30155 0.10293 0.52844 
0.35564 0.4801 0.31223 0.1881 0.14585 0.2999 0.096357 0.024179 
0.21687 0.38326 0.25962 0.1373 0.080244 0.2417 0.18218 -0.31698 
0.069722 0.30253 0.18383 0.079916 -0.0031133 0.1003 0.076299 -0.19696 
-0.053917 0.16146 0.072188 0.083368 -0.0095255 -0.064768 -0.079237 -0.094363 
-0.07003 0.057884 0.060844 0.068078 0.020891 -0.17394 -0.12823 0.040456 
0.0031344 -0.013965 0.052459 0.062652 0.059035 -0.21143 0.0072447 0.18744 
-0.003771 -0.13777 0.0083956 0.064954 0.022864 -0.23625 0.18037 0.28099 
-0.042737 -0.21389 -0.018897 0.0019835 -0.051451 -0.27736 0.21013 0.27705 
0.063474 -0.029255 0.020233 -0.011827 -0.082032 -0.11771 0.060186 0.43801 
0.1761 0.1955 0.037826 0.016288 0.055254 0.25436 0.099481 0.50493 
0.25913 0.38556 0.034209 0.04917 0.10721 0.41285 0.15966 0.28231 
0.2366 0.56 0.047033 0.033058 0.074161 0.23545 0.061337 -0.017746 
-0.017911 0.50805 0.051801 0.032729 0.012177 0.087808 -0.0049219 -0.17969 
-0.14632 0.30171 0.052787 0.0074092 0.0013258 0.0041209 -0.042408 -0.24858 
-0.056712 0.14765 0.067091 0.024179 0.049992 -0.090088 -0.13711 -0.25894 
0.031414 0.17626 0.11888 0.054432 0.031414 -0.13201 -0.15618 0.025659 
0.17824 0.25617 0.16212 0.068407 0.068407 -0.023007 -0.074962 0.3757 
0.35169 0.35843 0.19698 0.095864 0.076956 0.059364 -0.009361 0.55705 
0.31947 0.23068 0.13878 0.099974 0.029934 0.067913 0.058871 0.21589 
0.21375 -0.026624 0.070215 0.05624 0.015137 0.064461 0.15423 0.1151 
0.0065871 -0.21175 0.011191 -0.0049219 0.038483 0.20816 0.17955 0.26537 
-0.27571 -0.3178 -0.042901 -0.0004827 0.10737 0.54208 0.023357 0.34265 
-0.3178 -0.33835 -0.087622 -0.050136 0.098988 0.46432 -0.053424 0.59815 
-0.0098543 -0.30744 -0.078744 -0.015609 0.034044 0.097179 0.06035 0.43653 
0.23414 -0.17197 -0.047505 0.022864 -0.014293 -0.17575 0.035524 -0.20879 
0.18843 -0.077593 -0.061151 -0.0064016 -0.033365 -0.27653 -0.020706 -0.57346 
-0.01232 -0.10883 -0.10472 -0.026624 -0.011498 -0.21488 0.031249 -0.49471 
-0.061316 -0.051944 -0.097322 -0.038627 0.018918 -0.031557 0.17117 -0.060823 
0.037661 0.14815 -0.023665 -0.030899 0.053281 0.20109 0.2759 0.18169 
0.15768 0.39214 0.068571 -0.0088678 0.063145 0.18202 0.26274 -0.019719 
0.23414 0.46497 0.18284 0.091753 0.067585 0.033387 0.08715 -0.29248 
0.31733 0.40069 0.25814 0.11083 0.099481 0.013657 -0.0040998 -0.24546 
0.39016 0.1738 0.21309 0.097837 0.11691 0.10228 0.038812 0.12743 
0.29102 -0.18446 0.13253 0.14075 0.13368 0.14881 0.085999 0.31108 
0.067913 -0.41037 0.027632 0.034537 0.063968 -0.040271 0.065612 0.25354 
-0.059672 -0.30613 -0.053917 -0.011663 -0.014622 -0.10127 -0.043559 0.22887 
-0.13037 -0.11705 -0.054904 0.00033937 0.0044497 -0.061809 -0.12445 0.074654 
-0.16292 0.1003 0.0047785 0.018096 0.081395 0.091425 -0.071016 -0.047505 
-0.0077169 0.38951 0.085012 0.018918 0.089123 0.12858 0.015959 -0.045203 
0.10293 0.48339 0.11444 0.03799 0.0087245 -0.012978 0.044731 -0.11755 
0.032564 0.21441 0.049006 0.033058 -0.033201 -0.088115 -0.018897 -0.17016 
-0.020706 -0.14418 -0.024652 0.011684 -0.038462 -0.14582 -0.055561 -0.13168 
0.051143 -0.21899 -0.036654 0.0227 -0.01232 -0.12149 -0.022679 -0.069043 
0.11378 -0.079237 0.010533 0.023357 0.037661 -0.064275 0.060022 -0.017911 
0.12447 -0.041422 0.031907 0.033551 0.077778 -0.0022913 0.089452 -0.039613 
0.1271 -0.091404 0.018096 0.03947 0.080573 -0.047998 0.057555 -0.031392 
0.00033937 -0.2767 -0.0040998 0.015465 0.019576 -0.15059 -0.016266 -0.04882 
-0.2425 -0.59846 -0.065919 -0.00015387 0.044731 -0.10867 0.026646 -0.044874 
-0.48337 -0.90837 -0.15273 -0.020706 -0.0090322 -0.086471 0.014479 -0.11705 
-0.52989 -0.6703 -0.1353 -0.043888 -0.087293 -0.1917 -0.097651 -0.22162 
-0.19729 0.015301 -0.034352 -0.017911 -0.14369 -0.194 -0.12708 -0.32339 
0.13927 0.49555 0.094548 -0.0088678 -0.1358 -0.15224 -0.097651 -0.29314 
0.29234 0.64155 0.17363 0.029441 -0.042901 -0.029255 0.047691 0.23019 
0.44031 0.66342 0.2463 0.10277 0.13927 0.32489 0.27113 0.67904 
0.52515 0.65273 0.24219 0.14075 0.26389 0.58384 0.31026 0.52318 
0.40841 0.48964 0.17462 0.12924 0.19303 0.30648 0.066434 -0.047834 
0.045389 0.20832 0.078272 0.082053 0.11724 0.073339 -0.18084 -0.42812 
-0.33737 -0.008539 -0.048985 0.00099702 0.08715 -0.039613 -0.3395 -0.90953 
-0.36367 -0.079895 -0.15487 -0.067728 -0.022514 -0.17032 -0.25384 -0.91051 
-0.14484 -0.18676 -0.14911 -0.040106 -0.034681 -0.033694 0.039799 -0.15388 
0.013164 -0.32224 -0.10604 -0.019719 0.0014903 0.1544 0.2223 0.42255 
-0.031721 -0.43437 -0.11656 -0.024487 -0.029748 0.060679 0.1881 0.40546 
-0.24579 -0.55505 -0.15191 0.0046141 -0.062138 -0.14385 0.038319 0.21326 
-0.40576 -0.60832 -0.13136 0.00083261 -0.066084 -0.24562 -0.026789 0.055418 
-0.34164 -0.48715 -0.069536 -0.0039354 -0.037476 -0.15355 -0.027282 0.056569 
-0.12741 -0.33145 -0.006566 0.043745 -0.0064016 -0.075949 -0.014622 0.13713 
0.032564 -0.065262 0.067091 0.04358 0.010697 0.0087245 -0.031721 0.12908 
0.10819 0.25781 0.065612 0.051472 0.026317 0.045389 -0.052931 0.059528 
0.086821 0.49506 0.12036 0.065447 0.031249 0.022535 -0.0406 0.01563 
0.072188 0.60505 0.15275 0.050814 0.03651 0.021713 0.034537 0.062652 
0.14289 0.66934 0.18202 0.041114 0.014808 0.020233 0.081724 0.069722 
0.18991 0.57694 0.15489 0.057884 -0.012156 0.010697 0.13483 0.091753 
0.20355 0.41055 0.12217 0.054432 0.0031344 0.024837 0.17117 0.016452 
0.18629 0.23019 0.12053 0.04506 0.059528 0.041607 0.14174 0.0019835 
0.13056 0.091753 0.041607 0.082875 0.080409 0.096357 0.13993 0.047855 
0.066927 0.031907 0.057555 0.06331 0.10178 0.093562 -0.010183 0.099316 
-0.0098543 -0.031392 -0.013965 0.04095 0.073668 0.019905 -0.2037 0.19862 
-0.010512 -0.14056 -0.043888 0.018096 0.079751 0.016945 -0.12626 0.2588 
0.071037 -0.0026201 0.016288 0.024837 0.041772 0.13023 0.095371 0.31125 
0.24482 0.39871 0.13713 0.048348 0.0024767 0.14223 0.20651 0.34232 
0.30023 0.47007 0.15949 0.098001 0.016781 0.10836 0.13236 0.26981 
0.25239 0.32654 0.14765 0.078765 0.072188 0.088958 0.043251 0.08715 
0.18317 0.091425 0.079094 0.043745 0.10425 0.10688 0.041443 -0.23296 
0.041607 -0.17279 0.017767 0.061666 0.068407 0.19237 0.084519 -0.66702 
-0.14204 -0.30974 -0.033037 0.0039565 0.038648 0.28445 0.171 -0.46429 
-0.40198 -0.52858 -0.12429 -0.043724 -0.0029489 0.24449 0.19944 0.12201 
-0.51362 -0.57774 -0.21373 -0.036654 -0.047341 0.020069 0.0036276 0.50756 
-0.32109 -0.33687 -0.19433 -0.053095 -0.048492 -0.10949 -0.18643 0.51068 
-0.27209 -0.22326 -0.21291 -0.064933 0.0034632 -0.085978 -0.29577 0.22608 
-0.27341 -0.21373 -0.15865 -0.072496 -0.0078813 -0.021034 -0.11853 0.032236 
-0.16506 -0.02087 -0.013471 -0.055726 -0.02646 -0.043559 0.30007 -0.015116 
0.085012 0.42486 0.20388 0.024673 -0.042901 -0.13382 0.29826 -0.058521 
0.3752 0.80696 0.33229 0.1179 0.0039565 -0.1353 0.14979 -0.027775 
0.54948 0.83096 0.34216 0.13417 0.082382 -0.011827 0.1077 -0.010841 
0.61262 0.50049 0.24449 0.15538 0.096686 0.062323 0.0064227 0.12151 
0.46004 0.086492 0.13664 0.15571 0.098494 0.096686 -0.011827 0.20421 
0.25123 -0.084663 0.10326 0.10754 0.11115 0.090603 0.070873 0.13467 
0.095864 0.02122 0.056076 0.090767 0.071037 0.029441 0.11378 0.26685 
-0.090581 0.0087245 0.0075736 0.03536 0.007738 -0.021528 0.074819 0.27294 
-0.20879 -0.15635 -0.088773 -0.024487 -0.034023 0.0042853 0.11937 0.030592 
-0.23181 -0.14122 -0.1667 -0.047669 -0.0138 0.077614 0.071531 -0.40428 
-0.12659 0.065612 -0.18726 -0.043395 0.034209 0.15144 -0.01676 -0.4878 
0.027632 0.20421 -0.13596 -0.071181 0.043745 0.11231 -0.12133 -0.30399 
0.12497 0.19862 -0.014129 -0.043724 0.032893 0.012342 -0.32849 -0.15684 
0.057555 0.083368 0.071366 0.016452 -0.03057 -0.16555 -0.43486 0.0013258 
-0.043888 -0.023172 0.12085 -0.0042642 -0.14895 -0.28607 -0.26831 0.40841 
-0.10686 -0.026789 0.082711 -0.020706 -0.21586 -0.42829 -0.1815 0.60966 
0.0064227 -0.01676 0.064461 0.048184 -0.10982 -0.18561 -0.038791 0.53353 
0.10951 0.067091 0.066927 0.047197 0.060515 0.13269 0.19106 0.31914 
0.039963 0.10721 0.085341 0.054432 0.082217 0.070544 0.19944 0.25978 
-0.028433 0.20668 0.11559 0.062159 0.017274 -0.14977 0.053445 -0.16111 
-0.0082102 0.27228 0.13319 0.054432 0.012177 -0.1769 -0.036818 -0.75909 
0.22279 0.1784 0.048841 0.052623 0.12792 0.13516 0.14667 -0.4735 
0.60719 0.20175 0.019905 0.078929 0.2006 0.53107 0.37093 0.061008 
0.84888 0.3461 0.043909 0.047691 0.26899 0.87502 0.37915 0.37159 
0.55902 0.24055 0.021713 0.042265 0.23858 0.7647 0.23085 0.34725 
-0.037476 -0.042244 0.0026412 0.023851 0.031414 0.14733 0.09126 0.16459 
-0.26371 -0.10176 -0.034188 -0.027447 -0.11196 -0.32224 -0.030735 -0.081045 
-0.35496 0.016288 -0.03501 -0.034516 -0.14385 -0.48731 -0.21488 -0.41513 
-0.67277 -0.070687 -0.030899 -0.021856 -0.13843 -0.46396 -0.33819 -0.58136 
-0.82863 -0.32898 -0.037805 -0.0095255 -0.11787 -0.43437 -0.38044 -0.50622 
-0.3765 -0.3224 0.0060938 0.03092 -0.057041 -0.35595 -0.26371 -0.095185 
0.043416 -0.29248 0.026481 0.092904 0.023028 -0.11886 0.053609 0.3535 
0.16673 -0.41135 0.058377 0.079094 0.11707 0.17314 0.33229 0.52531 
0.14075 -0.50408 0.077614 0.084026 0.10244 0.16031 0.33213 0.35728 
0.048348 -0.48189 0.0021479 0.053774 0.031742 0.058706 0.12842 -0.045203 
-0.0026201 -0.26174 -0.051615 -0.01232 0.062652 0.17232 -0.047341 -0.29363 
0.079916 -0.030242 -0.094363 -0.04323 0.087479 0.33788 -0.12692 -0.28837 
0.24614 0.23611 -0.037311 -0.0095255 0.044567 0.183 -0.12757 -0.29725 
0.39707 0.62939 0.10885 0.025659 -0.0077169 0.013164 0.085999 -0.0073881 
0.3489 0.87963 0.18383 0.050486 0.017767 0.02122 0.14437 0.24729 
0.095371 0.78344 0.18152 0.076627 0.0041209 -0.014458 -0.085978 -0.05885 
-0.014787 0.4972 0.098823 0.050979 -0.030899 -0.15026 -0.24842 -0.063782 
-0.028269 0.20323 0.073339 0.02829 -0.0073881 -0.074962 -0.018733 0.33328 
0.0088889 -0.031228 0.035853 0.045882 0.02829 0.10425 0.2662 0.48684 
-0.049478 -0.34033 -0.047176 0.00050378 0.021549 0.11378 0.39247 0.35416 
-0.021199 -0.33868 -0.037147 0.014808 0.030098 0.013328 0.23808 0.18004 
0.19912 -0.080881 0.072353 0.049006 0.063145 -0.075949 0.01826 -0.036983 
0.31092 0.089945 0.083862 0.041278 0.029276 0.0046141 -0.087951 -0.12626 
0.2463 0.13993 0.10507 0.044567 0.054925 0.1105 -0.11935 -0.12445 
0.11872 0.19829 0.11247 0.084355 0.089123 0.25058 -0.077428 -0.11919 
-0.14895 0.13713 0.095535 0.062817 0.12497 0.36764 0.13795 -0.16095 
-0.44917 -0.13185 0.07301 0.058213 0.1174 0.3124 0.22789 -0.16457 
-0.50573 -0.26404 0.054596 0.062488 0.048513 0.0095465 -0.023007 -0.15437 
-0.14846 -0.18759 0.01152 0.027796 -0.012649 -0.21817 -0.15783 -0.025309 
0.40513 0.14354 0.00050378 0.016288 0.0054362 -0.16786 -0.032872 0.1442 
0.50673 0.21408 -0.014129 0.039963 0.057555 -0.004593 0.15144 0.27475 
0.09981 -0.28969 -0.091732 -0.0060728 0.049992 0.011026 0.26192 0.20191 
-0.28837 -0.83307 -0.17131 -0.021363 0.0095465 -0.13136 0.26389 -0.10127 
-0.34476 -0.77027 -0.13234 -0.017088 -0.030899 -0.15635 0.19254 -0.30695 
-0.1233 -0.20288 0.00297 0.015465 0.023522 0.061172 0.12924 -0.21455 
0.043416 0.24696 0.090603 0.0056006 0.0028056 0.12447 0.021056 -0.017746 
0.15752 0.44491 0.12546 0.020891 -0.030735 0.023686 -0.12725 -0.095021 
0.19468 0.45116 0.068736 -0.0080457 -0.041751 -0.13826 -0.28262 0.18284 
0.159 0.44837 -0.030242 -0.011334 -0.042737 -0.14188 -0.28673 0.76503 
0.12299 0.45133 -0.0057439 -0.023829 -0.029091 0.053445 -0.069701 0.83063 
0.089452 0.41302 0.060515 0.012342 0.14782 0.48832 0.071366 0.46119 
0.04506 0.20569 0.063145 0.084848 0.2468 0.69976 -0.008539 -0.015938 
-0.069701 0.043745 0.08863 0.088958 0.17478 0.41729 -0.12478 -0.3982 
-0.17065 -0.23181 0.059857 0.046868 0.05476 0.043251 0.030263 -0.46084 
-0.17854 -0.52989 0.013986 0.056076 -0.0013048 -0.15158 0.25058 -0.29347 
-0.035174 -0.42582 -0.012978 0.012506 -0.049314 -0.27982 0.20142 -0.19367 
0.11461 -0.069536 0.014315 -0.00031829 -0.051944 -0.26601 0.044238 -0.048656 
0.13384 0.22904 0.089287 0.023686 0.0046141 -0.20649 -0.078908 0.084026 
0.22098 0.42683 0.10836 0.049499 0.036346 -0.11442 -0.037805 0.30138 
0.46448 0.54389 0.13335 0.054432 0.052459 -0.0095255 0.17741 0.54143 
0.512 0.50739 0.10392 0.052623 0.058542 0.056733 0.22098 0.37455 
0.28971 0.34725 0.087479 0.029276 0.028125 -0.019226 0.023357 -0.091239 
0.048348 0.24367 0.088794 -0.0067304 -0.018733 -0.14451 -0.27374 -0.22392 
-0.11179 0.21375 0.058542 -0.006566 -0.041257 -0.17082 -0.4347 -0.2522 
-0.13234 0.21326 -0.0019624 -0.0062372 -0.012814 -0.064111 -0.23888 -0.11672 
-0.096007 0.02122 0.010862 0.044238 0.040621 0.20043 0.20882 0.26061 
-0.063782 -0.26387 -0.008539 0.069558 0.044567 0.31684 0.37849 0.47204 
-0.035667 -0.49339 -0.054246 0.054267 0.050157 0.24696 0.27738 0.20668 
-0.10867 -0.60668 -0.073318 0.045389 0.083368 0.1516 0.017603 -0.1455 
-0.22688 -0.46084 -0.093048 0.023193 0.097015 0.091918 -0.18643 -0.27571 
-0.25302 -0.19383 -0.10653 -0.0011404 0.052623 0.068571 -0.16884 -0.11903 
-0.20945 0.075312 -0.080717 -0.030899 0.013821 0.057555 -0.097487 0.10425 
0.01974 0.35925 0.051472 0.017767 0.01267 0.069722 0.024837 0.19336 
0.22328 0.60736 0.16508 0.06331 0.00066819 -0.067399 0.12513 0.17363 
0.30878 0.67033 0.27212 0.076627 0.025824 -0.11639 0.27064 0.10014 
0.31026 0.52515 0.24203 0.098823 0.038319 -0.019555 0.32752 -0.0078813 
0.30993 0.3318 0.11822 0.03799 0.029605 0.03947 0.1493 -0.095514 
0.31914 0.29152 -0.00081153 0.043416 0.042758 0.0051074 0.022535 -0.18791 
0.15834 0.22838 0.005765 0.069393 0.059693 0.015794 -0.034845 -0.29741 
-0.0138 -0.011663 -0.030406 0.032564 0.053281 0.019411 -0.038956 -0.25352 
-0.056548 -0.2083 -0.054904 0.0036276 -0.0062372 -0.04882 -0.092226 -0.037805 
-0.08384 -0.32027 -0.048656 0.0088889 -0.03616 -0.15914 -0.2836 0.34331 
-0.15898 -0.35151 -0.012485 0.00033937 -0.028104 -0.18693 -0.40132 0.5577 
-0.13497 -0.26913 0.012835 0.020069 0.02681 0.0056006 -0.0036066 0.52794 
-0.076935 -0.14122 0.01152 0.08008 0.081724 0.1544 0.36764 0.3729 
-0.097816 -0.1011 0.03651 0.048677 0.06331 0.056404 0.3535 0.046704 
-0.10768 0.057227 0.073832 0.050157 0.03536 -0.071181 0.15785 -0.14434 
-0.038791 0.36665 0.13319 0.073668 0.031578 -0.10127 -0.04882 -0.33178 
0.090931 0.56132 0.21243 0.048841 0.079094 -0.009361 -0.10143 -0.39573 
0.07301 0.5388 0.1927 0.086657 0.04654 -0.0024557 -0.017911 -0.26996 
-0.067892 0.36517 0.12562 0.12003 0.029112 0.096028 0.12727 -0.10932 
-0.12412 0.085506 -0.0027845 0.0083956 0.046211 0.19895 0.15111 0.089616 
0.1391 -0.17838 -0.092226 -0.049971 -0.006566 0.1927 0.12217 0.17084 
0.26784 -0.34723 -0.15898 -0.048163 -0.071345 0.00033937 0.011848 0.13598 
0.18859 -0.38439 -0.1205 -0.064933 -0.05326 -0.13349 -0.047341 0.099481 
0.052294 -0.34411 -0.057863 -0.011827 0.013821 -0.052273 0.038319 0.053774 
-0.014787 -0.16983 -0.042408 0.055089 0.081724 0.062981 0.15456 -0.011663 
-0.027775 -0.090253 -0.019719 0.049992 0.068242 0.032564 0.17676 -0.087622 
-0.081703 -0.12692 -0.027447 0.043416 0.021713 -0.071181 0.053116 -0.098309 
-0.0965 -0.14517 0.0019835 0.081724 0.025495 -0.092061 -0.1136 0.078436 
-0.090746 0.0082312 0.0689 0.01152 0.027796 -0.12018 -0.068221 0.13138 
-0.066577 0.19747 0.14683 0.041443 0.035195 -0.095678 0.081067 0.41581 
-0.056712 0.11526 0.11461 0.073504 0.037004 -0.084991 0.093891 0.54767 
-0.12379 0.0042853 0.040128 0.075476 0.0041209 -0.069372 0.093233 0.015137 
-0.17723 -0.047012 0.03947 0.04506 -0.019719 -0.047012 -0.0064016 -0.72242 
-0.057041 0.0032988 0.019247 0.019905 -0.023336 -0.0073881 -0.26502 -0.90509 
0.17511 0.082875 0.038483 0.01826 0.028454 0.14289 -0.22902 -0.2767 
0.32539 0.15818 0.057391 0.023357 0.073339 0.25288 -0.033694 0.50295 
0.29596 0.21293 0.060515 0.02533 0.058542 0.23463 0.12776 0.65306 
0.22953 0.23216 0.034866 0.03799 0.047691 0.17577 0.19764 0.27031 
0.17347 0.3124 0.032564 0.019576 0.03947 0.10524 0.097672 -0.098638 
0.098988 0.28132 0.011684 -0.0049219 0.071202 0.13713 0.067256 -0.14369 
0.011191 0.10343 0.031742 0.0019835 0.081231 0.080573 0.0082312 -0.085978 
-0.028597 -0.16638 0.013164 -0.014129 0.059364 0.0031344 -0.025802 -0.09091 
-0.042244 -0.28344 0.032236 -0.0034422 0.058213 0.069722 0.10589 -0.12609 
-0.072989 -0.20468 0.050979 0.026646 0.065447 0.13056 0.22871 -0.23494 
-0.080552 -0.052602 -0.0088678 -0.0032777 0.031742 -0.0034422 0.13549 0.067091 
0.032071 0.10096 -0.033859 -0.044874 -0.069372 -0.24234 0.10967 0.38589 
0.16804 0.18925 -0.065426 -0.076935 -0.1182 -0.26897 0.16344 0.29612 
0.2121 0.20224 -0.065591 -0.075291 -0.093376 -0.15454 0.13927 0.13697 
0.12398 0.043416 -0.030899 -0.051451 -0.080717 -0.19202 -0.020048 0.20553 
0.027303 -0.10127 0.043909 0.014972 -0.038298 -0.2106 -0.13843 0.22263 
0.075641 -0.21767 0.095206 0.10524 0.049335 -0.10998 -0.18528 0.26603 
0.1197 -0.26864 0.10014 0.10836 0.14765 0.18662 -0.10193 0.28297 
-0.080881 -0.34756 -0.0031133 0.035524 0.14963 0.34824 -0.027611 0.11839 
-0.34855 -0.46183 -0.10423 -0.052437 0.042594 0.34627 -0.12297 -0.13432 
-0.38932 -0.36745 -0.11459 -0.091897 0.031907 0.40019 -0.16555 -0.28377 
-0.22359 0.077943 0.0042853 -0.029255 0.083533 0.50443 -0.11245 -0.52957 
-0.12659 0.56625 0.10063 0.055911 0.069886 0.33213 -0.093048 -0.96378 
0.13565 0.81255 0.12842 0.092411 -0.0083746 -0.10752 0.030756 -0.36121 
0.38721 0.71571 0.1322 0.11329 -0.038791 -0.28673 0.11839 0.31601 
0.38145 0.34939 0.092082 0.085999 0.013657 -0.11491 0.037168 0.25255 
0.25337 0.092576 0.09981 0.076463 0.091753 -0.043395 -0.058521 0.093069 
0.13565 -0.048163 0.087643 0.085835 0.017274 -0.12725 -0.055561 0.21589 
0.081231 -0.043724 0.044238 0.06479 -0.02942 -0.20353 0.0689 0.53633 
0.12776 0.054596 0.016123 0.064296 0.0080668 -0.087622 0.19583 0.58434 
0.17988 0.09685 0.0227 0.050486 0.053281 0.049006 0.13384 0.33426 
0.021878 0.080902 1.0539e-005 0.024179 0.034209 0.040292 -0.10225 -0.21652 
-0.22063 0.037661 -0.0060728 0.023028 0.0032988 -0.022843 -0.12198 -0.58777 
-0.13547 0.034702 -0.0040998 0.027139 0.044567 0.13351 0.084026 -0.39721 
0.13401 0.067913 0.02829 0.041114 0.11757 0.38704 0.20405 -0.0067304 
0.31256 0.064132 0.049664 0.084026 0.075641 0.37964 0.26439 0.28839 
0.26274 0.0065871 0.022864 0.06331 0.0098754 0.15127 0.17873 0.50147 
0.044402 -0.095185 -0.012814 0.035195 -0.024652 -0.049478 -0.02942 0.40019 
-0.1917 -0.20452 -0.071838 -0.015773 -0.035667 -0.15421 -0.18775 0.10902 
-0.31007 -0.23099 -0.080223 -0.038791 -0.018075 -0.17558 -0.24464 -0.30185 
-0.24546 -0.11738 0.0032988 0.0011614 0.0088889 -0.12018 -0.17624 -0.37946 
-0.016266 0.06479 0.12316 0.096357 0.031907 -0.014951 0.040292 -0.17164 
0.12332 0.17577 0.17034 0.21178 0.04506 0.029605 0.16952 -0.064768 
0.09422 0.1761 0.18021 0.20487 0.065118 0.03092 0.13286 0.04358 
-0.001798 0.13286 0.11247 0.15867 0.033387 -0.032543 -0.0062372 -0.018075 
-0.12314 0.092082 0.073339 0.12151 0.018425 0.036017 -0.12018 -0.14418 
-0.20666 0.050814 0.058377 0.09274 0.010862 0.13993 -0.13711 -0.18134 
-0.018239 0.1003 0.045553 0.069558 -0.0077169 0.12546 0.059364 -0.19745 
0.23019 0.34183 0.038483 0.087479 -0.019555 0.036017 0.09833 0.20816 
0.39312 0.53057 0.086985 0.10819 -0.027282 -0.096829 -0.032872 0.81008 
0.37619 0.45609 0.10162 0.12464 0.020562 -0.12856 0.026152 0.61443 
0.32095 0.34035 0.1179 0.13664 0.08419 0.020069 0.13976 0.10178 
0.34429 0.27557 0.090438 0.11937 0.099316 0.11083 0.19649 -0.18134 
0.2828 0.19731 0.063145 0.087479 0.10984 0.074819 0.19599 -0.13859 
0.066598 0.033551 0.013492 0.062323 0.07597 -0.010676 0.071531 -0.10571 
-0.33178 -0.35183 -0.06 0.021878 0.017438 -0.08269 -0.010183 -0.22261 
-0.59155 -0.66603 -0.096172 -0.033365 0.0051074 0.04506 0.0098754 -0.4416 
-0.58004 -0.69513 -0.084005 -0.037805 0.065612 0.30993 0.11691 -0.48863 
-0.34246 -0.29676 -0.047834 -0.017417 0.081231 0.22953 0.067091 -0.10735 
-0.21241 0.0051074 -0.030735 -0.010183 0.015959 -0.046683 0.061337 0.37487 
-0.14089 0.12908 -0.027447 -0.014458 -0.047998 -0.14632 0.15686 0.54587 
0.082875 0.21375 -0.021856 0.025166 -0.028433 -0.11722 0.18777 0.37159 
0.49769 0.3022 0.058871 0.070051 0.0093821 -0.067235 0.14141 0.28461 
0.76996 0.48848 0.14469 0.13762 0.041114 0.024344 0.1174 0.26603 
0.59404 0.41302 0.15522 0.16311 0.079422 0.096028 0.047855 -0.0040998 
0.11378 0.11691 0.11559 0.14075 0.029441 0.031414 -0.048656 -0.40346 
-0.29659 -0.20255 0.051965 0.080244 0.019247 -0.084169 -0.027775 -0.60322 
-0.37025 -0.23379 0.035195 0.073668 0.042265 -0.042244 0.048019 -0.42763 
-0.11097 -0.080881 0.06479 0.10063 0.05065 0.10606 0.23562 0.35153 
0.096193 0.093562 0.072024 0.10556 0.06183 0.085177 0.22575 0.68726 
0.15144 0.15785 0.072353 0.10819 0.026481 -0.061316 0.048348 0.38737 
0.1636 0.20898 0.066434 0.1031 0.0227 -0.11886 -0.036654 0.014808 
0.20092 0.2514 0.05213 0.071859 0.052459 -0.02794 -0.013636 -0.079401 
0.18596 0.12332 0.013821 0.047526 0.066269 0.058706 0.06331 -0.032872 
0.015137 -0.13727 -0.054082 0.031249 0.053609 0.11888 0.12299 0.072024 
-0.19334 -0.40593 -0.055726 -0.00031829 0.023028 0.084519 0.090603 0.14206 
-0.33178 -0.486 -0.078908 -0.024323 0.032236 0.089616 -0.0011404 0.12513 
-0.2859 -0.19745 -0.082361 -0.03912 0.026317 0.087972 -0.054575 0.17412 
-0.044052 0.20438 0.0052718 0.0054362 0.040621 0.068078 0.056569 0.26587 
0.019083 0.3775 0.083368 0.064461 0.023851 0.034537 0.15587 0.21161 
0.048677 0.37339 0.12842 0.13039 0.018589 0.034702 0.068407 0.078272 
0.11313 0.27886 0.10688 0.13927 0.037332 0.04358 0.0095465 0.20421 
0.094055 -0.040271 0.03092 0.089287 0.053445 0.041936 0.057884 0.14058 
-0.036489 -0.30909 -0.047176 0.025166 0.062323 0.045553 0.33722 -0.11541 
-0.26831 -0.534 -0.095349 -0.028597 0.054432 0.01563 0.4311 -0.36038 
-0.45081 -0.59599 -0.11311 -0.069043 -0.02942 -0.10061 0.051965 -0.51707 
-0.29709 -0.39836 -0.06148 -0.057863 -0.017253 -0.14944 -0.32257 -0.33753 
0.062981 -0.050629 -0.0055795 0.026317 -0.0013048 -0.15109 -0.31961 -0.050464 
0.36517 0.39559 0.070051 0.073175 0.018754 -0.0771 -0.19877 -0.016102 
0.46612 0.58861 0.12743 0.12349 0.0036276 -0.065919 -0.20764 0.033058 
0.33755 0.45922 0.16081 0.15949 -0.010019 -0.06296 -0.20518 0.091425 
0.14469 0.19961 0.15571 0.16146 0.01415 -0.029584 -0.15783 0.08419 
-0.0011404 -0.088115 0.13417 0.1465 0.01974 0.0036276 -0.023172 0.10162 
-0.0095255 -0.23247 0.024673 0.10014 0.0014903 -0.0771 0.12595 0.12924 
0.010369 -0.23609 -0.051944 0.020398 0.0036276 -0.050629 0.084519 0.14519 
-0.030735 -0.03501 -0.080717 -0.02235 0.031085 0.10326 -0.058685 0.092247 
0.0041209 0.24466 -0.062796 -0.030406 0.021713 0.24581 -0.037805 0.010697 
0.17117 0.49802 0.039799 0.030756 0.06035 0.31273 0.11198 -0.025145 
0.21424 0.52646 0.14634 0.11132 0.10655 0.18892 0.12644 0.08863 
0.066598 0.37274 0.17511 0.16377 0.11806 0.020398 0.10178 0.22855 
-0.063782 0.22476 0.17971 0.21457 0.11 -0.0077169 0.16442 -0.017088 
0.17133 0.24696 0.19977 0.22065 0.086492 -0.0011404 0.20832 -0.38192 
0.48026 0.28494 0.21654 0.2297 0.049499 0.0032988 0.13812 -0.47514 
0.53353 0.11855 0.13795 0.17955 -0.023994 -0.09091 -0.15865 -0.10275 
0.21802 -0.31024 -0.042244 0.0421 -0.10258 -0.23592 -0.42237 0.34068 
-0.19926 -0.62936 -0.14221 -0.072003 -0.06148 -0.26437 -0.43322 0.75368 
-0.46725 -0.73229 -0.2014 -0.1085 -0.031228 -0.18331 -0.33408 0.62413 
-0.66619 -0.66685 -0.22376 -0.16013 -0.07825 -0.090253 -0.17114 -0.032872 
-0.534 -0.13399 -0.16062 -0.12807 -0.059014 0.057227 0.1396 -0.41398 
-0.29051 0.36221 -0.067564 -0.070523 -0.057699 0.0024767 0.22197 -0.39623 
-0.026789 0.40595 -0.05885 -0.046519 -0.02794 0.075148 0.20914 -0.28541 
0.088301 0.21227 -0.023665 -0.015609 0.092904 0.35646 0.14552 -0.2841 
0.045718 -0.01117 0.054925 0.051143 0.15966 0.49671 0.0082312 -0.16786 
0.21917 0.053445 0.052787 0.097015 0.12036 0.27803 -0.038791 0.33673 
0.52449 0.25354 0.11362 0.12053 0.077121 -0.010512 0.047526 0.54603 
0.56444 0.35038 0.15538 0.15834 0.045882 -0.1279 0.12365 0.16886 
0.43242 0.32555 0.16393 0.17166 0.034866 -0.11574 0.040785 -0.24809 
0.27475 0.25863 0.13697 0.15028 0.028947 -0.07562 -0.11722 -0.19202 
0.16031 0.20635 0.12595 0.13779 0.026317 -0.048327 -0.16638 0.083862 
-0.020377 0.18563 0.039141 0.11115 0.033387 -0.010512 -0.068221 0.098001 
-0.18956 0.15834 0.0069159 0.062323 0.017603 0.069558 0.038319 -0.03912 
-0.16062 0.11609 0.0060938 0.045389 0.036839 0.1276 0.082053 -0.1575 
-0.078579 0.025988 0.024344 0.049335 0.07301 0.099645 -0.058685 -0.18627 
-0.018075 -0.073976 -0.013471 0.016616 0.0021479 0.0088889 -0.17805 -0.036325 
0.005765 -0.097651 -0.038133 -0.014458 -0.046025 -0.092719 0.017767 0.45922 
0.0051074 -0.1376 -0.058192 -0.013471 -0.045203 -0.2208 0.20454 0.90955 
0.039634 -0.089595 -0.039778 0.0016547 -0.028269 -0.25664 0.13483 0.73132 
0.1077 -0.0064016 -0.0026201 0.018918 0.034373 -0.14878 0.056569 0.24959 
0.070708 -0.053095 -0.013143 0.0018191 -0.00015387 -0.062138 -0.036654 -0.20863 
0.070873 -0.0027845 0.029441 0.036182 -0.042079 -0.05178 0.0054362 -0.33835 
0.1003 0.24778 0.12135 0.096028 -0.092226 -0.0098543 0.13993 -0.2231 
0.08304 0.35761 0.20421 0.17478 -0.090088 0.18613 0.30664 -0.034681 
0.13532 0.24285 0.17544 0.22115 0.11559 0.68299 0.36879 0.23973 
0.21687 0.20503 0.17166 0.20619 0.30434 0.97992 0.37274 0.52038 
0.31569 0.33459 0.15127 0.18267 0.29283 0.86006 0.35087 0.50937 
0.11148 0.15242 0.064296 0.11806 0.26833 0.51512 0.25814 0.32325 
-0.081868 -0.17197 -0.071674 0.0044497 0.15111 0.11625 0.13943 0.19928 
-0.073647 -0.094363 -0.11097 -0.067399 -0.025309 -0.21866 0.012506 -0.11787 
-0.065755 0.26587 -0.12593 -0.079895 -0.10127 -0.32504 0.012506 -0.58086 
-0.22507 0.26883 -0.095185 -0.062796 -0.095349 -0.206 0.11362 -0.80381 
-0.36301 -0.12692 -0.023501 -0.018733 0.0047785 -0.055561 0.069558 -0.70779 
-0.24694 -0.46051 0.0085601 0.0085601 0.026152 -0.087293 -0.11837 -0.49898 
-0.1113 -0.62164 -0.056383 -0.035667 -0.067235 -0.20616 -0.23379 0.052294 
0.011848 -0.53483 -0.10045 -0.086142 -0.07003 -0.18726 -0.16588 0.87173 
0.25123 -0.2499 -0.074962 -0.090581 -0.049478 -0.13777 -0.067564 1.1997 
0.2856 -0.044217 -0.020048 -0.023665 -0.03912 -0.075784 -0.13119 0.3558 
0.042923 0.069064 0.076299 0.02533 -0.026131 -0.10406 -0.24118 -0.61424 
-0.14698 0.19796 0.14486 0.087314 0.032071 -0.018404 -0.17032 -0.74297 
-0.21488 0.24745 0.13845 0.10178 0.073175 0.01004 -0.20863 -0.45624 
-0.24316 0.23019 0.16163 0.11444 0.11642 0.12743 -0.058685 -0.15388 
-0.074304 0.31733 0.22016 0.17133 0.1419 0.33706 0.37504 0.3946 
0.22855 0.41335 0.25551 0.21556 0.13615 0.32752 0.49621 0.83047 
0.45544 0.30829 0.19533 0.15324 0.043087 0.13154 0.21227 0.71423 
0.58204 0.24433 0.12135 0.093562 0.02122 0.0093821 -0.024323 -0.021363 
0.52285 0.34512 0.079916 0.050979 0.039963 0.059528 0.029769 -0.58448 
0.3216 0.35991 0.032564 0.012342 0.061501 0.12431 0.11411 -0.42812 
0.042758 0.13302 -0.034352 -0.046519 0.017603 0.10507 0.13171 -0.090581 
-0.27242 -0.25894 -0.068714 -0.084991 -0.052766 -0.0073881 0.085177 0.10113 
-0.41365 -0.4684 -0.15322 -0.11311 -0.067564 -0.092226 -0.0036066 0.023028 
-0.45032 -0.44325 -0.21389 -0.18282 -0.080059 -0.13053 -0.15109 -0.22507 
-0.4416 -0.46923 -0.24151 -0.21143 -0.058521 -0.19893 -0.27292 -0.28147 
-0.35003 -0.46068 -0.18545 -0.16703 -0.044381 -0.2203 -0.35562 -0.12494 
-0.16605 -0.39508 -0.10094 -0.11755 -0.020212 -0.15207 -0.26519 0.0051074 
0.0072447 -0.1455 0.033222 -0.026624 0.029769 0.054596 -0.04471 0.060186 
0.15456 0.12628 0.098001 0.067913 0.06479 0.16903 0.031742 0.017767 
0.14453 0.23298 0.10425 0.068242 0.045224 0.071037 -0.0088678 -0.070852 
0.10606 0.21326 0.1151 0.067585 -0.001798 -0.081539 -0.041257 -0.10637 
0.05476 0.031742 0.031249 0.013328 -0.012485 -0.061316 0.032893 -0.12166 
0.017767 -0.16769 0.01152 -0.010348 0.072517 0.14157 0.11757 -0.12478 
0.11559 -0.05326 0.099152 0.05213 0.12349 0.13927 0.14568 0.0085601 
0.14601 0.13549 0.10343 0.087808 0.11658 -0.065919 0.021878 0.33887 
0.12053 0.22986 0.063474 0.073668 0.042923 -0.26305 -0.13267 0.51134 
-0.035338 0.20421 0.054432 0.033222 -0.0052507 -0.31698 -0.20255 0.37931 
-0.055232 0.17314 0.04358 0.015137 -0.035503 -0.19383 -0.22244 0.075476 
0.012999 0.25978 0.061172 0.03092 -0.021363 -0.068879 -0.089595 -0.27785 
-0.023007 0.2269 0.1179 0.063803 0.030098 -0.0042642 0.027632 -0.41612 
-0.052437 0.13105 0.14206 0.076627 0.028619 0.0013258 0.067256 -0.18561 
0.060844 0.053445 0.076956 0.074819 0.013657 -0.021856 0.089287 0.19369 
0.1858 -0.057699 0.047526 0.027303 -0.028433 0.0085601 0.12266 0.36419 
0.19451 -0.21652 0.0059294 -0.0064016 -0.006566 0.096193 0.10672 0.20224 
0.25946 -0.092226 -0.036489 -0.043066 0.0024767 0.076299 0.068736 -0.020377 
0.23085 0.22509 -0.043066 -0.059672 0.044238 0.029441 0.095206 -0.12478 
-0.0059084 0.38046 0.0028056 -0.046683 0.042758 0.022864 0.12579 -0.14188 
-0.23806 0.43817 0.058706 0.011848 0.013986 -0.028926 0.14749 0.0052718 
-0.13727 0.71686 0.093726 0.066105 -0.0055795 -0.13004 0.047197 0.080244 
0.22312 0.87206 0.15982 0.10885 -0.013143 -0.10982 0.034702 0.23134 
0.59338 0.63958 0.17495 0.12875 0.04917 -0.10127 0.076299 0.23611 
0.56757 0.22197 0.1562 0.13039 0.12957 0.10819 0.19073 0.28987 
0.062159 -0.31945 0.071366 0.066269 0.16706 0.32111 0.25469 0.22838 
-0.48994 -0.84195 -0.024158 -0.015116 0.072024 0.16245 0.12316 0.1077 
-0.67409 -1.0991 -0.1501 -0.061645 0.00033937 -0.071345 -0.056219 -0.0095255 
-0.36236 -0.80216 -0.15191 -0.089924 -0.012485 -0.12708 -0.16753 -0.05737 
-0.025638 -0.28738 -0.099624 -0.067564 -0.0013048 -0.027118 -0.098309 -0.025309 
0.25239 0.36863 0.022535 0.0064227 0.058871 0.11296 -0.0036066 0.025001 
0.44343 0.78476 0.10852 0.068078 0.053445 0.13072 0.038812 0.13302 
0.46234 0.84493 0.18563 0.09981 0.054925 0.11954 0.07038 0.23364 
0.44952 0.75007 0.23151 0.15587 0.08304 0.15012 0.20947 0.21062 
0.44524 0.67016 0.23775 0.1784 0.1294 0.27507 0.36616 0.086492 
0.27803 0.4505 0.20767 0.16212 0.13154 0.35514 0.4043 0.025988 
0.01152 0.09685 0.087643 0.093562 0.06479 0.22427 0.31486 -0.078415 
-0.23855 -0.30547 -0.020212 0.011684 -0.0060728 -0.017417 0.11444 -0.19038 
-0.47202 -0.63101 -0.07973 -0.056383 -0.031064 -0.10669 0.0016547 -0.24661 
-0.47251 -0.741 -0.12692 -0.08269 0.013986 -0.0040998 0.1026 -0.39129 
-0.24875 -0.70697 -0.17657 -0.084827 0.029276 0.037497 0.18646 -0.36154 
0.026152 -0.3594 -0.13908 -0.09239 0.048841 -0.014458 0.11214 -0.13464 
0.16262 0.1299 -0.031064 -0.035174 0.025166 -0.00031829 -0.095021 0.15703 
0.18465 0.51101 0.086821 0.047362 0.012835 -0.087951 -0.44177 0.60752 
0.22263 0.63005 0.1738 0.11148 0.041772 -0.095185 -0.46166 0.98732 
0.29957 0.58467 0.2195 0.15768 0.062981 0.010697 -0.13037 0.59239 
0.27376 0.45823 0.19747 0.1909 0.068407 0.083533 0.19583 0.06594 
0.12381 0.2565 0.12184 0.1271 -0.0022913 0.049335 0.23216 -0.48797 
-0.08384 -0.0068948 0.021384 0.060844 -0.089102 -0.12264 -0.047998 -0.81499 
-0.24513 -0.30268 -0.086964 -0.031064 -0.098309 -0.19433 -0.20156 -0.43486 
-0.20041 -0.5031 -0.14287 -0.080881 -0.0034422 -0.0096899 0.017767 0.099152 
-0.1085 -0.54436 -0.13168 -0.096007 0.073832 0.27212 0.39822 0.33015 
-0.11015 -0.49257 -0.10932 -0.082525 0.13006 0.41105 0.62709 0.33805 
-0.15947 -0.49011 -0.15388 -0.075784 0.099481 0.33558 0.49424 0.19879 
-0.16934 -0.35792 -0.14122 -0.098638 0.025166 0.080244 0.18054 -0.41563 
-0.057041 -0.093541 -0.059343 -0.056548 -0.031228 -0.1381 -0.13136 -0.72703 
0.12924 0.16821 0.045882 0.024344 0.019576 -0.17065 -0.25384 -0.22869 
0.25584 0.34939 0.13319 0.10754 0.084026 -0.0064016 -0.24086 0.19418 
0.26998 0.29579 0.14864 0.1396 0.049006 0.034702 -0.25976 0.42864 
0.08567 0.171 0.066763 0.12727 -0.027447 0.0074092 -0.22984 0.92139 
0.032071 0.23315 0.093398 0.12085 -0.032708 -0.0064016 -0.12922 0.89081 
0.14453 0.40299 0.14305 0.15111 0.024508 0.16886 -0.14303 0.35366 
0.21621 0.53814 0.20142 0.19829 0.055089 0.14502 -0.10817 -0.30679 
0.13549 0.47878 0.14354 0.17577 0.082053 0.071695 0.10228 -0.59846 
0.17215 0.305 0.12858 0.14453 0.037661 0.048513 0.23808 -0.52019 
0.14585 0.025166 0.10787 0.1271 0.10376 0.019411 0.15407 -0.25549 
0.088136 -0.31517 0.026481 0.099481 0.09685 -0.090088 -0.057699 0.048677 
-0.15322 -0.71502 -0.068221 0.0059294 0.013821 -0.19564 -0.11179 0.16525 
-0.43355 -1.0777 -0.19137 -0.10045 -0.056219 -0.10982 -0.042737 0.06479 
-0.59254 -1.0358 -0.24793 -0.17131 -0.037805 0.032729 0.0067515 -0.059507 
-0.65468 -0.47827 -0.20008 -0.16588 -0.0040998 0.18366 0.050979 -0.10341 
-0.46923 0.18432 -0.10472 -0.11426 -0.003771 0.12628 0.01974 -0.13152 
-0.13201 0.68759 -0.0047575 -0.0027845 -0.035667 -0.036654 -0.025967 -0.085156 
0.30977 0.97712 0.08978 0.074983 -0.023172 -0.094856 0.048348 0.17117 
0.50772 0.79791 0.16952 0.15259 0.05213 -0.02498 0.12464 0.45593 
0.34479 0.31108 0.16196 0.16969 0.072353 -0.048492 -0.011827 0.2389 
0.21802 0.017603 0.12727 0.14519 0.014479 -0.12922 -0.13612 -0.28558 
0.35597 0.12283 0.099152 0.11642 -0.033365 -0.13037 -0.12593 -0.45542 
0.41795 0.21506 0.067749 0.10326 -0.0087034 -0.065426 -0.051122 -0.09387 
0.30829 0.15719 0.020398 0.079258 0.041278 -0.019719 0.041278 0.61262 
0.14404 0.11231 0.034373 0.069558 0.018754 -0.13168 -0.081539 0.92122 
-0.0054151 0.17215 0.083204 0.094548 -0.01939 -0.20353 -0.18989 0.56921 
-0.021363 0.30648 0.13943 0.14321 0.041278 -0.065591 -0.084991 -0.031721 
0.054267 0.37422 0.14157 0.15193 0.11181 0.14042 0.12464 -0.26913 
-0.0036066 0.079587 0.091753 0.11017 0.10129 0.12875 0.2172 -0.22688 
-0.16276 -0.48863 -0.069701 0.034044 0.080902 0.11576 0.22361 -0.38981 
-0.26881 -0.91512 -0.18956 -0.088444 0.032236 0.15028 -0.0078813 -0.52315 
-0.2106 -0.82748 -0.19235 -0.13086 0.079751 0.26801 -0.3178 -0.20567 
0.010697 -0.29117 -0.13843 -0.1085 0.22789 0.56165 -0.019061 0.16278 
0.20536 0.23397 -0.011992 -0.02794 0.18267 0.59437 0.31733 0.35745 
0.19813 0.41664 0.052623 0.024344 0.093726 0.45609 0.39641 0.33459 
0.053281 0.45807 0.049006 0.059857 -0.054082 0.077449 0.34446 0.28132 
-0.0052507 0.33706 0.056404 0.082217 -0.1353 -0.34526 0.17528 0.33065 
-0.24464 0.037826 0.042923 0.067913 -0.12626 -0.53072 -0.070523 -0.053424 
-0.3931 -0.10291 0.04506 0.070051 -0.092226 -0.40034 -0.23691 -0.41596 
-0.17969 0.0018191 0.070708 0.090109 -0.0049219 -0.25647 -0.2859 -0.27703 
0.21506 0.28708 0.093233 0.10145 0.038483 -0.1889 -0.23987 0.095699 
0.38359 0.414 0.076299 0.095042 -0.008539 -0.20304 -0.12083 0.08304 
0.17018 0.2953 0.016616 0.084519 -0.016102 -0.23198 0.0074092 -0.15832 
-0.13645 -0.059178 0.017767 0.05213 0.02681 -0.1815 -0.0021268 -0.27653 
-0.22688 -0.22178 0.015794 0.048348 0.06035 -0.057863 -0.15125 -0.20929 
-0.079401 -0.19482 0.020891 0.041278 0.12908 0.19533 -0.15322 -0.11048 
0.039634 -0.075949 0.065283 0.066105 0.050486 0.22394 -0.072989 -0.073811 
0.079094 -0.038133 0.093069 0.089452 0.072353 0.2634 0.036675 0.03799 
0.1202 -0.10669 0.039634 0.09833 0.091753 0.40266 0.1493 0.035031 
0.29267 0.035688 -0.022843 0.034702 0.075805 0.39773 0.26521 0.15209 
0.35186 0.28642 -0.039449 -0.00081153 0.10803 0.36057 0.28478 0.94013 
0.34347 0.41828 0.018425 0.030427 0.1031 0.3216 0.22213 1.2078 
0.18136 0.34561 0.069229 0.055089 0.038977 0.15522 0.18974 0.32637 
-0.14878 0.13499 0.024673 0.033551 -0.042408 -0.096994 0.12908 -0.49405 
-0.41908 -0.052109 -0.023829 0.0032988 -0.082032 -0.2836 0.039799 -0.7267 
-0.44226 -0.075291 -0.050629 0.0090533 -0.070194 -0.34707 -0.058192 -0.47876 
-0.054082 -0.016266 0.015137 0.030592 -0.011498 -0.24875 -0.10916 -0.22392 
0.51315 0.22723 0.1105 0.10063 0.019411 -0.050958 0.025001 0.10129 
0.75895 0.4413 0.2024 0.1807 0.058871 0.11872 0.2029 0.29037 
0.49062 0.26044 0.20651 0.20208 0.06479 0.19649 0.27507 0.2052 
0.13368 -0.082525 0.14453 0.16179 0.09126 0.17988 0.21917 -0.072167 
-0.10028 -0.24546 0.026646 0.097508 0.048513 0.15801 -0.022843 -0.47662 
-0.33441 -0.17493 -0.051615 0.01415 -0.010841 0.11773 -0.29396 -0.80792 
-0.33523 0.0021479 -0.060823 -0.016431 -0.0078813 0.13532 -0.022021 -0.16095 
-0.34444 -0.027282 -0.035503 -0.010841 0.0085601 0.038812 0.12677 0.77736 
-0.36729 -0.27456 -0.069043 -0.042079 -0.060987 -0.15552 -0.026789 0.77128 
-0.31862 -0.44867 -0.093705 -0.071181 -0.075784 -0.29199 -0.16144 0.13499 
-0.10834 -0.25023 -0.0087034 -0.021692 -0.038956 -0.14796 -0.066248 -0.39047 
0.10787 0.045882 0.073175 0.091096 0.02533 0.094713 -0.0019624 -0.53433 
0.29579 0.23397 0.16788 0.15818 0.085835 0.24285 -0.0016336 -0.059836 
0.43834 0.28938 0.1978 0.19484 0.10113 0.23907 0.03947 0.46629 
0.37553 0.29497 0.17133 0.18777 0.068571 0.12003 0.04095 0.62791 
0.27869 0.31585 0.10967 0.14174 0.03799 0.0095465 0.0079024 0.51446 
0.10458 0.15587 0.064625 0.088301 0.031578 0.041607 0.078107 0.11872 
-0.084498 -0.073647 0.011355 0.07597 0.059857 0.13171 0.32604 -0.14303 
-0.19433 -0.18249 -0.011827 0.034537 0.040785 0.11773 0.48618 -0.23444 
-0.1113 -0.084498 -0.013307 0.023193 0.020069 -0.0078813 0.40266 -0.23411 
0.077778 0.2029 -0.0034422 0.019576 0.0011614 -0.088608 0.066105 -0.19959 
0.16837 0.47007 0.024673 0.030263 -0.026953 -0.14451 -0.45426 -0.17098 
0.075476 0.42009 0.027139 0.029276 -0.025638 -0.080388 -0.48633 0.0011614 
0.026317 0.19583 0.060186 0.065118 0.010697 0.028783 0.086985 0.45494 
0.12579 0.074983 0.056569 0.093069 0.0093821 0.039799 0.34166 0.66013 
0.21128 0.025824 0.064625 0.085012 -0.019226 -0.088115 0.10918 0.016616 
0.23085 0.01415 0.055911 0.074983 0.045718 -0.18709 -0.033859 -0.72226 
0.14667 -0.025309 0.028125 0.064625 0.10195 -0.090417 -0.00064712 -0.67392 
0.0032988 -0.069701 0.016123 0.029276 0.065118 -0.14254 -0.10965 -0.08828 
-0.084827 -0.15191 0.00050378 0.022535 0.0064227 -0.20222 -0.1769 0.41285 
-0.094527 -0.26091 -0.0019624 0.046704 -0.017417 -0.12083 -0.089924 0.4168 
-0.14599 -0.40494 -0.025967 0.015301 -0.049642 0.078929 0.15522 0.10063 
-0.21208 -0.52299 -0.078415 -0.03616 -0.07003 0.18695 0.25896 -0.038627 
-0.17821 -0.35414 -0.054246 -0.024816 0.017932 0.36485 0.20882 0.086657 
0.0074092 0.058213 0.086821 0.0592 0.12036 0.41729 0.11691 0.33607 
0.11888 0.38178 0.1687 0.13647 0.12661 0.22575 0.03651 0.4704 
0.20372 0.46004 0.14141 0.15571 0.048841 -0.021034 0.004943 0.34216 
0.14174 0.41105 0.10359 0.13582 0.018918 -0.16786 -0.023665 0.025166 
0.092082 0.38869 0.11346 0.13417 0.041936 -0.16638 -0.0029489 -0.14221 
0.15966 0.35909 0.12085 0.14239 0.04506 -0.14484 -0.012156 -0.085649 
0.20947 0.29612 0.11313 0.13401 0.023028 -0.1085 0.009711 -0.021363 
0.17445 0.077285 0.086492 0.10984 0.025495 -0.068221 0.080738 -0.044217 
-0.024652 -0.15684 0.00017495 0.03947 0.011026 -0.047998 0.0065871 -0.28607 
-0.19482 -0.17016 -0.13777 -0.036489 -0.019061 -0.026624 -0.11705 -0.27703 
-0.1575 0.0028056 -0.19712 -0.12741 -0.018733 0.071202 -0.1279 0.0080668 
-0.064933 -0.068879 -0.17624 -0.14171 0.0047785 0.076627 -0.15898 0.34133 
0.17133 -0.094199 -0.07414 -0.081868 0.059693 0.072681 -0.0088678 0.44459 
0.36057 0.1031 0.065283 0.023522 0.10869 0.15111 0.15505 0.1197 
0.23118 0.14897 0.14815 0.10129 0.10326 0.078272 0.095206 -0.1307 
0.083533 0.02122 0.12283 0.12562 0.055418 -0.024487 0.074161 0.026646 
-0.10998 -0.21998 0.075476 0.087314 0.0026412 -0.13711 0.079258 0.091096 
-0.33326 -0.2402 0.06331 0.06594 -0.023007 -0.13563 0.020398 -0.10489 
-0.44637 -0.087458 0.051965 0.045553 -0.036983 -0.12544 -0.063618 -0.14402 
-0.18693 0.11132 0.070215 0.05476 -0.0031133 0.005765 -0.071674 0.12135 
0.13483 0.22098 0.09981 0.070051 0.072188 0.14289 -0.023994 0.22246 
0.30697 0.25567 0.078765 0.059693 0.062488 0.18119 -0.016595 0.1853 
0.42371 0.29776 0.012342 0.047691 0.078436 0.10211 0.025001 0.21161 
0.42321 0.35728 0.0080668 -0.00015387 0.057555 0.078436 0.11707 0.18744 
0.32736 0.45971 0.047855 0.022042 0.074819 0.10408 0.16952 -0.0055795 
0.088136 0.22 0.09981 0.0592 0.076134 0.11395 0.1054 -0.24529 
-0.13514 -0.15158 0.10491 0.054925 0.025659 0.034373 -0.037969 -0.43601 
-0.28179 -0.39146 0.053609 0.011026 -0.032543 -0.019061 -0.28443 -0.39606 
-0.34624 -0.43158 -0.0050863 -0.0040998 0.011026 0.15538 -0.17723 -0.26881 
-0.22672 -0.23017 -0.0039354 -0.020377 0.084519 0.3563 0.20586 -0.015444 
-0.12412 -0.061151 -0.036489 -0.045861 0.10178 0.27458 0.33657 0.18185 
-0.060329 0.016945 -0.091075 -0.094527 0.041772 0.037661 0.30483 0.16344 
0.02829 0.07038 -0.096665 -0.12462 -0.010676 -0.17756 -0.057041 0.30598 
0.20668 0.20569 -0.00064712 -0.054575 -0.021034 -0.17427 -0.44719 0.50016 
0.31305 0.2925 0.037826 0.0047785 -0.017911 -0.15848 -0.4056 -0.004593 
0.31026 0.30746 0.036017 0.020233 -0.03353 -0.11311 0.03536 -0.32372 
0.23266 0.15752 0.085341 0.03799 0.051143 -0.023994 0.32506 0.060515 
0.079422 -0.013636 0.10589 0.052623 0.047526 -0.012649 0.11477 0.50624 
-0.089759 -0.09946 0.063639 0.034044 0.022371 -0.056548 -0.17098 0.25962 
-0.3862 -0.48485 -0.028926 -0.053588 0.0090533 -0.04882 -0.040764 -0.23576 
-0.5613 -0.80364 -0.10193 -0.1136 0.017932 -0.01232 0.2052 -0.34213 
-0.46216 -0.68987 -0.1547 -0.11639 0.024344 0.017438 0.15341 -0.22014 
-0.16917 -0.15832 -0.14484 -0.13382 0.00297 0.046046 -0.015938 -0.16342 
0.29859 0.69088 -0.024323 -0.057205 0.0093821 0.088794 -0.070359 -0.13201 
0.58105 1.0523 0.15357 0.068242 0.048841 0.15834 0.0032988 -0.012485 
0.54784 0.85151 0.27327 0.14469 0.076134 0.18744 0.12562 0.066763 
0.28264 0.3974 0.29201 0.17643 0.10113 0.18267 0.16952 0.12776 
0.0060938 -0.059014 0.22361 0.14864 0.097672 0.10145 0.16064 0.096686 
-0.21291 -0.60207 0.06331 0.058049 0.067256 0.044731 0.047855 0.070215 
-0.3127 -0.91627 -0.089595 -0.073154 0.027468 -0.026296 -0.022679 0.0054362 
-0.1866 -0.66734 -0.1187 -0.10653 0.0062583 -0.03616 -0.035338 0.012177 
-0.060494 -0.15733 -0.11689 -0.10554 -0.0070593 -0.041422 -0.0052507 0.010862 
-0.051944 0.2662 -0.088444 -0.11787 -0.0059084 -0.032543 0.030098 0.014315 
-0.061316 0.59042 -0.042573 -0.093705 -0.025309 -0.063453 0.012342 -0.012814 
0.061666 0.81929 -0.018239 -0.034188 -0.017911 -0.060823 0.032893 0.029605 
0.20882 0.68956 0.072681 0.013328 0.019411 0.057884 0.10129 0.079422 
0.23035 0.43965 0.12168 0.054925 0.04506 0.071695 0.10819 0.068407 
0.21802 0.15834 0.13483 0.072517 -0.00064712 -0.036325 0.012013 0.039799 
0.15456 -0.061645 0.14108 0.080244 0.016616 -0.10242 0.03947 0.022371 
0.12497 -0.17657 0.13762 0.073997 0.065612 0.01563 0.17297 0.13171 
0.15193 -0.29445 0.070215 0.056898 0.10606 0.20027 0.12957 0.1271 
0.098001 -0.36022 -0.078415 -0.056712 0.070708 0.10014 -0.20551 0.088794 
-0.096665 -0.48386 -0.18956 -0.16473 0.025495 0.026646 -0.36022 0.065776 
-0.32257 -0.56557 -0.20879 -0.19975 0.017767 0.035195 -0.14533 0.038648 
-0.44687 -0.43371 -0.1672 -0.182 -0.034352 0.022535 -0.027775 -0.050464 
-0.33605 0.035688 -0.0078813 -0.092719 -0.091732 -0.072825 0.066927 -0.066084 
-0.0062372 0.62725 0.12809 0.0034632 -0.1039 -0.13859 0.18366 -0.035832 
0.35745 0.91826 0.22345 0.12283 -0.069536 -0.20189 0.24055 0.024673 
0.64402 0.877 0.3461 0.20586 0.0046141 -0.20025 0.1368 0.038155 
0.59519 0.61788 0.40184 0.2731 0.10228 -0.11755 0.037168 0.010862 
0.29119 0.32012 0.31338 0.22427 0.089616 -0.0078813 -0.086636 -0.033037 
-0.0050863 -0.068714 0.10655 0.071531 0.062817 0.048184 -0.12577 -0.1108 
-0.21422 -0.53236 -0.13201 -0.11228 0.047362 0.1368 -0.078744 -0.038298 
-0.54831 -0.78358 -0.33391 -0.23757 0.071531 0.17445 -0.0044286 0.10162 
-0.72785 -0.68658 -0.31862 -0.26174 0.091096 0.14256 0.087479 0.15341 
-0.36565 -0.37173 -0.23872 -0.20436 0.10425 0.25469 0.1493 0.074326 
0.17824 0.10507 -0.03501 -0.062796 0.10063 0.28806 0.13384 0.092082 
0.42913 0.51709 0.085012 0.026152 0.055582 0.25732 0.096521 0.1105 
0.366 0.58417 0.10819 0.044402 0.02122 0.16558 0.093726 0.23348 
0.39641 0.55557 0.11329 0.063474 0.042265 0.039634 0.13236 0.29316 
0.43439 0.4242 0.1026 0.072681 0.044402 -0.056055 0.12957 0.17528 
0.28905 0.32588 0.13943 0.071859 0.021878 -0.08532 0.089616 -0.088937 
0.01415 0.036839 0.12316 0.057227 0.044731 -0.12001 -0.004593 -0.3765 
-0.095349 -0.33079 0.10441 0.033222 -0.0036066 -0.13464 -0.073976 -0.26749 
-0.1935 -0.47679 0.055418 -0.010841 -0.024158 -0.11557 -0.061973 0.11346 
-0.25236 -0.28475 0.015465 -0.050464 -0.039613 -0.08121 0.092411 0.31305 
-0.21915 0.044402 -0.083183 -0.094856 -0.058685 -0.087293 0.1271 -0.15207 
-0.10538 0.19418 -0.15635 -0.16276 -0.038298 -0.070359 -0.0078813 -0.26322 
-0.052602 0.19912 -0.20189 -0.18824 -0.03057 -0.1182 -0.11491 0.14798 
0.017767 0.15061 -0.094692 -0.12001 -0.00064712 -0.047012 -0.051451 0.4071 
0.23742 0.31042 0.082711 0.010862 0.11033 0.16426 0.10359 0.2657 
0.27655 0.32851 0.21145 0.089287 0.16985 0.3124 0.074161 -0.13432 
0.11494 0.010369 0.16179 0.079587 0.11231 0.34298 0.051801 -0.49339 
0.050486 -0.25056 0.042429 0.020233 0.078765 0.22065 0.14042 -0.39343 
-0.030242 -0.42631 -0.072003 -0.085485 0.00083261 0.10474 0.20799 -0.0054151 
-0.15125 -0.47712 -0.13349 -0.13382 -0.029255 0.081889 -0.1039 0.55655 
-0.10752 -0.50869 -0.1358 -0.14467 -0.052109 -0.099789 -0.64383 0.48717 
0.18054 -0.35414 -0.072167 -0.1062 -0.016924 -0.12659 -0.498 0.015301 
0.34462 0.11017 0.062817 -0.00031829 0.060186 -0.020706 0.066598 -0.16095 
-0.003771 0.10885 0.058871 0.037826 0.02829 -0.12478 0.12924 -0.12873 
-0.3571 -0.041257 0.076299 0.03388 0.03092 -0.13497 0.061008 0.22575 
-0.38784 0.1756 0.17939 0.10063 0.074654 0.01563 0.094877 0.50213 
-0.1205 0.51117 0.16459 0.083697 0.073504 0.078765 0.19813 0.4048 
0.16031 0.50608 0.089452 0.014972 0.012342 0.1396 0.39641 -0.24579 
0.28987 0.23693 0.072353 -0.0075525 0.010697 0.22082 0.4459 -0.5904 
0.31075 -0.058192 0.053445 0.0079024 0.054925 0.29612 0.36402 -0.30432 
0.39082 -0.040928 0.051143 0.01711 0.095699 0.23907 0.21967 0.21474 
0.27228 0.05624 0.075476 0.033387 0.096357 0.047197 -0.009361 0.28001 
-0.12757 0.025495 0.04358 0.0031344 0.03651 -0.17361 -0.34855 -0.038791 
-0.437 0.03799 -0.079237 -0.096007 -0.051451 -0.28262 -0.50589 -0.21833 
-0.33457 0.090603 -0.10225 -0.13514 -0.07003 -0.22441 -0.42927 -0.085485 
0.00017495 0.28872 -0.065919 -0.10752 -0.015444 -0.13267 -0.16966 0.11231 
0.16525 0.27721 -0.022843 -0.038298 0.036839 -0.036489 0.13894 0.095371 
0.087314 0.016945 0.020233 -0.018733 0.059693 0.023028 0.24762 -0.10916 
0.071202 -0.29232 -0.010841 -0.041422 0.0083956 0.02533 0.36616 -0.29544 
0.17166 -0.3931 -0.063782 -0.084169 -0.060494 -0.11919 0.2851 -0.34542 
0.1659 -0.27209 -0.10587 -0.12659 -0.081045 -0.28804 0.046375 -0.24677 
0.10343 -0.073318 -0.07266 -0.10916 -0.062796 -0.3492 -0.22359 0.36041 
0.10376 0.093069 0.00083261 -0.03501 0.01974 -0.17871 -0.39179 0.8673 
0.067091 0.19172 0.068407 0.017932 0.10803 0.1687 -0.28459 0.77046 
0.01974 0.25469 0.1105 0.0421 0.16311 0.37948 -0.079237 0.27606 
0.031742 0.16081 0.11707 0.046868 0.11707 0.33114 0.18678 -0.069208 
0.014479 0.17988 0.16163 0.083697 0.095535 0.16097 0.25518 -0.12905 
0.16262 0.45725 0.30237 0.16738 0.11428 0.026317 0.14239 -0.02498 
0.46366 0.83112 0.43341 0.2657 0.094877 0.011191 0.066763 0.075476 
0.64747 0.87075 0.39691 0.28067 0.0080668 0.032564 0.03799 -0.068386 
0.536 0.60489 0.23414 0.14437 -0.0036066 0.074326 0.070708 -0.40724 
0.33229 0.10672 0.075312 0.028783 0.038812 0.17166 0.147 -0.26059 
0.043416 -0.37633 -0.07266 -0.079895 0.037004 0.19632 0.24071 0.11214 
-0.39097 -0.76155 -0.15405 -0.15635 -0.006566 0.037497 0.19533 0.095699 
-0.97233 -1.2896 -0.25286 -0.22984 -0.067564 -0.11508 0.04654 -0.11985 
-1.1815 -1.2975 -0.34575 -0.2739 -0.087951 -0.19137 -0.13448 -0.24234 
-0.70384 -0.44128 -0.19614 -0.1986 -0.034681 -0.10521 -0.099131 -0.026789 
-0.037969 0.55557 0.020562 -0.042244 0.030756 -0.022021 0.042594 0.19566 
0.51578 1.2548 0.18613 0.07597 0.031414 -0.087786 0.041443 0.22641 
0.71801 1.3272 0.2754 0.15127 0.056404 -0.15454 -0.047834 0.19846 
0.53222 0.70962 0.25255 0.1345 0.10211 0.00297 -0.083676 0.0016547 
0.26537 -0.014622 0.1419 0.072353 0.10672 0.086657 -0.032543 -0.06296 
-0.0091966 -0.51345 -0.027775 -0.01232 0.049335 0.0051074 0.0592 0.1271 
-0.086636 -0.37617 -0.056055 -0.058192 0.014315 -0.099953 0.079587 0.34035 
0.055911 0.24433 -0.0068948 -0.029584 -0.0031133 -0.16276 -0.017417 0.23578 
0.077614 0.47369 0.07301 0.01267 -0.037476 -0.10998 -0.084005 -0.064111 
-0.040435 0.29924 0.15538 0.055254 0.023851 0.050486 -0.0031133 -0.42451 
-0.12807 0.058706 0.17824 0.093233 0.038812 0.14864 0.24384 -0.39327 
-0.14533 -0.11689 0.14091 0.10754 0.044402 0.26324 0.49029 -0.18068 
-0.076442 -0.12692 0.14354 0.07449 0.11428 0.49753 0.37685 0.12743 
0.14617 -0.044052 0.12168 0.048348 0.13598 0.55441 0.12858 0.2583 
0.29563 0.057062 0.057062 -0.011334 0.079916 0.4362 0.013657 0.14585 
0.29168 0.081067 0.058706 -0.02498 0.088136 0.29004 0.17725 0.13631 
0.23742 0.12513 0.078436 -0.0087034 0.071037 0.14321 0.29053 0.41713 
0.27787 0.24976 0.076627 0.0085601 0.011355 -0.07414 0.090438 0.72919 
0.36435 0.41532 0.12694 0.041936 0.023522 -0.18956 -0.20222 0.59848 
0.16788 0.35071 0.15851 0.066105 0.025824 -0.16736 -0.25434 0.24203 
-0.25105 0.041772 0.098659 0.023193 -0.030735 -0.14977 -0.18298 -0.33046 
-0.51773 -0.018404 0.064625 0.0031344 -0.055726 -0.18989 -0.0965 -0.64794 
-0.46249 -0.0083746 0.038977 -0.017746 -0.047998 -0.17887 -0.030242 -0.52332 
-0.14517 -0.11508 0.022042 -0.023829 -0.0022913 -0.027447 -0.027282 -0.15026 
0.11806 -0.37798 -0.011005 -0.011005 0.02681 0.048841 0.038977 0.089945 
0.0024767 -0.72242 -0.094527 -0.089102 -0.001798 0.052294 0.10951 0.23348 
-0.20485 -0.93073 -0.17542 -0.16095 -0.021528 0.0032988 0.098823 0.078765 
-0.28097 -0.75777 -0.20732 -0.19926 -0.020048 -0.031228 0.010533 -0.097651 
-0.15421 -0.32224 -0.12412 -0.14319 0.027961 0.05213 0.096357 -0.017582 
-0.027282 0.034702 0.0067515 -0.038462 0.09274 0.15489 0.14058 0.10606 
-0.048492 0.12464 -0.0036066 0.0059294 0.058213 0.10902 -0.012485 0.11461 
-0.13119 0.19353 -0.02235 0.017438 0.044567 0.14223 -0.07825 -0.1838 
-0.061151 0.30138 0.0070803 0.035195 0.010862 0.20355 -0.013143 -0.58695 
0.15818 0.49194 0.076956 0.085177 0.0036276 0.020069 0.0064227 -0.43848 
0.36435 0.57957 0.15883 0.15768 0.063968 0.027632 -0.0029489 0.55787 
0.41351 0.49457 0.17133 0.18366 0.18366 0.31338 0.17495 1.342 
0.31075 0.30681 0.12579 0.1664 0.18678 0.43357 0.35005 1.1138 
0.12217 0.085835 0.0092177 0.12233 0.08156 0.20388 0.27935 0.15292 
-0.047669 -0.066906 -0.034023 0.048019 0.0034632 -0.04619 0.11066 -0.64581 
0.0093821 0.010697 0.0093821 0.052623 -0.043724 -0.25417 -0.18413 -0.81088 
0.25748 0.17347 0.047691 0.081231 -0.040764 -0.32668 -0.44983 -0.55308 
0.38162 0.22608 0.052787 0.079916 -0.055068 -0.30185 -0.40905 -0.085649 
0.3951 0.31601 0.036182 0.071366 -0.024652 -0.1381 0.08978 0.49506 
0.37438 0.49342 0.013657 0.084848 -0.011334 -0.031886 0.32358 0.80728 
0.16722 0.30483 -0.041915 0.02829 -0.0067304 -0.0044286 0.18794 0.48388 
-0.26289 -0.22392 -0.18627 -0.08121 -0.0031133 0.047033 0.020233 -0.34148 
-0.61638 -0.88519 -0.37189 -0.23822 -0.0031133 0.069229 -0.022514 -0.69645 
-0.7678 -1.3676 -0.4273 -0.3326 -0.03205 0.0046141 0.074161 -0.39228 
-0.79213 -1.2936 -0.33885 -0.31862 -0.034681 -0.016924 0.10737 -0.15552 
-0.57873 -0.70976 -0.18528 -0.2083 0.00297 0.047033 0.0075736 0.0074092 
-0.19564 -0.18709 -0.079566 -0.074962 0.044238 0.083368 -0.10291 0.093233 
0.11806 0.058049 0.048677 0.027961 0.059528 0.071366 -0.25746 -0.0019624 
0.23282 0.049335 0.12316 0.10803 0.04358 -0.018404 -0.32339 -0.11755 
0.21835 0.042429 0.14601 0.15144 1.0539e-005 -0.23592 -0.27736 0.041936 
0.16706 0.091096 0.13828 0.15587 -0.033365 -0.28722 -0.31484 0.1613 
0.19122 0.3073 0.17034 0.17906 0.0067515 -0.05178 -0.33408 0.049664 
0.20191 0.44426 0.16738 0.21769 0.072517 0.044402 -0.12429 -0.039284 
0.30829 0.6409 0.16031 0.2121 0.065776 -0.068879 0.23545 0.017438 
0.42436 0.90478 0.076134 0.15456 0.033715 -0.08384 0.50049 -0.11639 
0.41302 0.90412 -0.00031829 0.082217 -0.0034422 -0.036654 0.50871 -0.29528 
0.21474 0.63498 -0.057041 0.014972 -0.017253 0.033551 0.31026 -0.28393 
-0.024487 0.30664 -0.013965 0.019411 0.0098754 0.13516 0.030263 -0.069043 
-0.10242 0.097179 0.031414 0.063474 0.023193 -0.0067304 -0.13201 0.33229 
-0.02942 0.0046141 0.13351 0.15851 0.031249 0.0024767 -0.055232 0.65832 
0.13154 -0.042737 0.16245 0.19484 0.14568 0.17117 0.10293 0.58286 
0.20175 0.0227 0.19057 0.21934 0.1738 0.20849 0.073504 0.25436 
0.2657 0.13467 0.183 0.21621 0.14354 0.058377 -0.025638 -0.029913 
0.22345 0.18136 0.10014 0.15916 0.087972 -0.010019 -0.13349 -0.3127 
-0.022843 -0.12379 0.0016547 0.07038 0.0032988 -0.057863 -0.19022 -0.44456 
-0.43749 -0.59796 -0.1381 -0.0087034 -0.057041 -0.070687 -0.15076 -0.44341 
-0.64383 -0.89506 -0.21044 -0.109 -0.094363 -0.1159 -0.17197 -0.22178 
-0.54486 -0.7706 -0.26667 -0.17525 -0.094363 -0.14287 -0.17854 0.16196 
-0.37979 -0.55242 -0.23954 -0.18676 -0.046683 -0.12725 -0.025145 0.091096 
-0.1912 -0.33934 -0.15355 -0.13316 -0.0055795 -0.065097 0.095371 -0.14237 
0.024015 0.063968 -0.0095255 -0.038298 0.032729 0.078929 0.13384 -0.22376 
0.2662 0.50147 0.1271 0.1008 0.084684 0.15538 0.063145 -0.12133 
0.38277 0.79693 0.25765 0.23003 0.099645 0.086492 -0.055561 0.099152 
0.39132 0.87256 0.3193 0.30845 0.081889 0.0024767 -0.040435 0.38753 
0.31947 0.80515 0.32769 0.34035 0.044238 -0.038298 0.08156 0.58582 
0.31108 0.57612 0.24926 0.30582 0.0056006 -0.037969 0.062159 0.52186 
0.26784 0.2805 0.21572 0.26669 -0.0016336 -0.010348 0.15259 -0.072825 
0.16294 0.091918 0.20914 0.2537 0.0786 0.086163 0.41022 -0.39327 
0.10918 0.098166 0.15226 0.2514 0.11066 0.13253 0.54866 -0.13284 
0.051472 0.091753 0.085177 0.1761 0.089123 0.083204 0.26176 -0.042573 
-0.0064016 -0.13103 -0.049971 0.06035 0.036346 -0.11064 -0.33819 -0.05885 
0.074819 -0.19235 -0.16029 -0.054904 -0.059343 -0.25138 -0.52052 0.15571 
0.1031 0.036346 -0.11705 -0.071674 -0.071838 -0.16703 -0.33326 0.45297 
0.1271 0.33936 0.053774 0.029769 0.028619 0.13483 -0.13053 0.39937 
0.096193 0.32308 0.14272 0.14749 0.12381 0.35761 0.035524 0.20175 
0.076299 0.13499 0.12776 0.15933 0.1442 0.36698 0.14026 0.096521 
0.022535 -0.080059 0.055089 0.11806 0.069558 0.18876 0.17281 0.097015 
-0.047505 -0.19301 -0.054246 0.031742 0.0028056 0.074819 0.21112 0.024344 
-0.073482 -0.19268 -0.1307 -0.042737 -0.0077169 0.040785 0.19073 -0.27686 
-0.13284 -0.13859 -0.071509 -0.048985 0.0062583 0.024179 0.10737 -0.54502 
-0.040271 0.053445 -0.0032777 0.0051074 0.043251 0.049335 0.098001 -0.26864 
0.1128 0.095535 -0.020706 0.046046 0.056404 0.090603 0.18909 0.28165 
0.14042 0.0085601 0.0034632 0.044896 0.072517 0.1179 0.23266 0.61722 
0.032236 -0.13021 -0.025802 0.023686 0.061995 0.12529 0.28741 0.46941 
-0.023829 -0.066906 -0.00015387 0.033222 0.00083261 -0.022021 0.30796 0.058377 
-0.0064016 0.13943 0.10063 0.096357 -0.035832 -0.13596 0.059693 -0.23379 
0.032729 0.23381 0.17873 0.16262 -0.012156 -0.15668 -0.14237 -0.35216 
0.057227 0.19287 0.14108 0.20175 0.0088889 -0.056219 -0.1746 -0.27242 
0.075641 0.0018191 0.053281 0.13203 0.027632 0.043087 -0.13333 -0.0024557 
0.076299 -0.13514 -0.022021 0.060515 0.039799 0.068407 -0.0771 0.22641 
0.062159 -0.18495 -0.055397 0.01152 0.022206 0.042594 -0.088773 0.29349 
-0.016102 -0.15733 -0.03616 0.0047785 0.031414 0.037497 -0.010676 0.16985 
-0.045696 -0.19252 0.0095465 0.026481 0.043909 0.043087 0.16886 0.025988 
-0.067564 -0.18019 0.029769 0.050321 -0.0029489 0.056733 0.17659 -0.01117 
-0.10637 -0.036654 0.030263 0.09274 0.013821 0.026317 0.095371 -0.02942 
-0.13136 0.16015 0.085177 0.11263 -0.0044286 -0.0771 -0.044052 0.16344 
0.004943 0.29645 0.14798 0.15357 -0.0073881 -0.11689 -0.097322 0.3073 
0.16179 0.317 0.13812 0.16558 0.015959 0.030756 -0.071181 0.293 
0.26505 0.24893 0.065447 0.11329 0.043745 0.17889 0.029769 0.041443 
0.16738 0.12809 0.02533 0.06742 0.061501 0.16541 0.055747 -0.54338 
-0.10143 0.06742 -0.0067304 0.068407 0.035853 0.083862 0.048513 -0.87993 
-0.25121 0.049664 0.025824 0.065283 0.015794 0.0085601 0.040621 -0.40461 
-0.06855 0.044402 0.099645 0.11231 0.069722 0.018425 0.1151 0.31322 
0.15456 0.031578 0.15867 0.16969 0.11099 0.12217 0.14963 0.62741 
0.29908 0.038977 0.16377 0.17922 0.084519 0.15505 0.16196 0.4944 
0.31848 0.14815 0.13746 0.1567 0.01152 0.14864 0.15966 0.15193 
0.2611 0.16492 0.078929 0.12825 -0.015116 0.042594 0.12266 -0.0024557 
0.13615 0.04095 -0.063618 0.037168 -0.024652 -0.080552 0.094877 -0.04471 
-0.0036066 -0.17657 -0.20255 -0.09387 -0.0022913 -0.13695 0.026974 -0.1016 
-0.15059 -0.32339 -0.26157 -0.17246 0.0021479 -0.025145 0.013821 -0.10505 
-0.11837 -0.14171 -0.12396 -0.11212 0.066927 0.11132 0.065283 -0.028762 
0.074654 0.34988 0.053445 0.010533 0.072846 0.13039 0.17149 -0.31698 
0.14141 0.55392 0.21243 0.14765 0.069722 0.092082 0.22871 -0.4301 
0.0227 0.25156 0.2126 0.22624 0.0095465 -0.019555 0.04654 -0.14155 
-0.15207 -0.18446 0.15522 0.18909 1.0539e-005 -0.1547 -0.23165 0.26653 
-0.31336 -0.50211 0.017438 0.097015 -0.022679 -0.19992 -0.31533 0.88916 
-0.4028 -0.54782 -0.056055 0.021056 -0.020541 -0.059672 -0.218 0.8058 
-0.37156 -0.52069 -0.074304 -0.026131 -0.00097594 0.053774 -0.23033 0.16541 
-0.15289 -0.12379 0.024344 0.014479 0.052459 0.082875 -0.01117 -0.12905 
0.14157 0.37948 0.10343 0.10639 0.06183 0.047691 0.24893 -0.13958 
0.37159 0.51035 0.099316 0.12431 0.03651 0.053116 0.18481 -0.11015 
0.40167 0.46547 0.10935 0.13154 0.027961 0.035195 0.13187 -0.047998 
0.24137 0.34429 0.12628 0.14486 0.01267 -0.026789 0.11099 -0.14089 
0.15571 0.09274 0.13319 0.15851 0.017767 0.0087245 0.13861 -0.062302 
-0.061645 -0.43881 0.080738 0.11773 0.073668 0.12102 0.15966 0.022206 
-0.41628 -1.0156 -0.050464 0.022371 0.086492 0.16114 0.13335 -0.05441 
-0.4347 -0.89029 -0.18676 -0.05885 0.013328 0.0421 0.048019 -0.12363 
-0.12626 -0.32224 -0.25171 -0.1501 -0.068879 -0.078086 -0.065919 -0.157 
0.053116 0.27327 -0.17262 -0.13875 -0.034681 -0.069536 -0.18808 -0.11672 
0.1807 0.62462 -0.12198 -0.10817 0.052952 0.11165 -0.19975 -0.0095255 
0.24022 0.6672 -0.027611 -0.034845 0.11822 0.26455 0.021713 0.18317 
0.24696 0.55951 0.065118 0.035195 0.096521 0.22838 0.1687 0.24844 
0.19813 0.38326 0.040128 0.080902 0.068571 0.12168 0.12546 0.25699 
0.067585 0.095206 -0.01939 0.034702 1.0539e-005 -0.055561 -0.0067304 0.16936 
0.024015 -0.17887 -0.06 -0.0083746 -0.029584 -0.19202 -0.13201 0.07597 
0.074326 -0.20123 -0.059507 -0.019226 -0.025474 -0.24579 -0.21915 0.012506 
0.068078 -0.109 0.020891 0.029605 -0.01939 -0.1912 -0.19794 0.029276 
0.015794 0.0093821 0.094877 0.081724 0.0064227 -0.091732 -0.16983 0.024673 
-0.059507 0.068242 0.12562 0.1276 0.058871 -0.0078813 -0.15635 0.018918 
-0.077593 0.14453 0.08978 0.14913 0.055911 0.096357 -0.10538 0.01152 
0.028619 0.14174 0.056898 0.11313 0.087808 0.24055 0.074326 -0.025967 
0.11263 0.035853 0.028619 0.08156 0.084355 0.26768 0.27096 -0.04619 
0.028125 -0.11015 -0.0044286 0.045718 0.034866 0.15094 0.25814 -0.016102 
-0.16161 -0.2083 -0.058521 -0.0062372 -0.02942 -0.05737 0.047362 -0.18709 
-0.2032 -0.20863 -0.017582 -0.0019624 -0.03353 -0.14813 -0.12001 -0.17542 
-0.11607 -0.28031 -0.020706 0.033551 0.0047785 -0.15816 -0.12511 0.46859 
-0.042079 -0.050958 0.037332 0.057062 0.011848 -0.087951 0.080409 0.75286 
0.2218 0.48766 0.10688 0.11033 0.012177 0.025001 0.16114 0.24236 
0.20076 0.66161 0.10688 0.12825 0.032564 0.097837 0.030756 -0.69628 
-0.02498 0.37093 0.094548 0.12299 0.10441 0.18448 0.023851 -0.81088 
-0.027118 0.10195 0.11231 0.12825 0.12743 0.24104 0.21424 -0.05178 
0.13467 -0.012978 0.085835 0.12266 0.095699 0.13565 0.12332 0.37389 
0.3655 -0.046847 -0.034023 0.059528 -0.0070593 -0.078908 -0.18578 0.29892 
0.39707 0.039305 -0.11886 -0.034681 -0.066741 -0.22852 -0.49898 0.037168 
0.33887 0.28658 -0.065426 -0.02646 -0.067564 -0.24743 -0.52184 -0.10357 
0.11494 0.27688 0.0056006 0.0098754 -0.031392 -0.097158 -0.11968 -0.10932 
-0.12807 0.1077 0.083697 0.071202 0.015465 0.12497 0.28149 -0.096994 
-0.19383 -0.0080457 0.087808 0.093398 0.089616 0.25551 0.38704 -0.1667 
-0.11672 -0.0059084 -0.0072237 0.068078 0.07301 0.21819 0.32111 -0.11623 
-0.036489 -0.028597 -0.071674 0.0031344 0.019247 0.018589 0.10178 -0.12971 
-0.047834 -0.082361 -0.050136 -0.0050863 0.013164 -0.031721 -0.084991 -0.055068 
-0.078908 -0.066906 0.026481 0.042429 0.072188 0.068242 0.064954 0.14568 
-0.052437 0.030098 0.16525 0.13779 0.092247 0.048513 0.054103 0.5166 
0.13286 0.30746 0.31157 0.25847 0.056569 -0.057205 -0.10472 0.65471 
0.19829 0.55343 0.37635 0.35975 -0.022021 -0.22852 -0.11294 0.49144 
0.19764 0.54488 0.34873 0.38523 -0.053588 -0.30991 0.079587 0.31897 
0.21539 0.22394 0.16804 0.27688 -0.086636 -0.050958 0.35054 -0.011992 
0.11017 -0.085978 -0.030077 0.12201 0.015794 0.11921 0.33081 -0.54075 
-0.048492 -0.11919 -0.14878 -0.0138 0.11428 0.14585 0.075641 -1.1065 
-0.10078 0.050979 -0.076113 -0.024652 0.12447 0.03388 -0.12856 -0.98581 
0.080573 0.18021 0.027139 0.029112 0.10589 0.0092177 -0.030406 -0.20682 
0.12168 0.11642 -0.026953 0.058706 0.032071 0.063145 0.095042 0.48848 
-0.045368 -0.061151 -0.083347 -0.0049219 -0.015938 -0.01676 -0.19038 0.80712 
-0.17739 -0.28985 -0.12001 -0.047505 -0.0042642 -0.049971 -0.3788 0.69811 
-0.25516 -0.48205 -0.14369 -0.078415 -0.019719 -0.032872 -0.15816 0.29431 
-0.20896 -0.32471 -0.093376 -0.066248 -0.061645 -0.004593 0.12447 -0.070687 
-0.056219 0.023028 0.055089 0.027961 -0.008539 0.073175 0.16327 -0.20255 
0.18169 0.28395 0.17692 0.16656 0.055582 0.21375 0.2463 -0.052109 
0.37652 0.35317 0.15324 0.18678 0.089616 0.29563 0.40973 0.17199 
0.44491 0.2948 0.12233 0.171 0.10047 0.24976 0.44557 0.25896 
0.33936 0.23512 0.10014 0.14634 0.053938 0.18728 0.25469 0.17051 
0.084519 0.016616 0.053609 0.10902 0.044896 -0.029913 -0.17591 -0.073482 
-0.17986 -0.22672 -0.018568 0.039634 -0.017253 -0.22918 -0.39179 -0.19186 
-0.35282 -0.486 -0.098473 -0.024323 -0.058192 -0.25598 -0.3104 -0.15635 
-0.44769 -0.68033 -0.14336 -0.040764 -0.022021 -0.12478 -0.084827 -0.044546 
-0.36449 -0.56968 -0.048327 -0.012814 0.037826 -0.037311 0.096028 0.035031 
-0.076771 -0.11475 0.073339 0.069722 0.035195 0.0023123 0.24071 0.067913 
0.15768 0.35794 0.15456 0.15144 0.057062 -0.027282 0.23019 -0.089266 
0.24647 0.54258 0.14404 0.16245 0.037661 -0.072989 0.13549 -0.14056 
0.26389 0.45889 0.1054 0.14321 0.0044497 -0.063618 0.01267 -0.027282 
0.33344 0.37964 0.035195 0.12168 0.025495 0.071366 -0.16342 -0.0068948 
0.31585 0.31864 0.04095 0.10688 0.04917 0.1641 -0.25105 0.24236 
0.24433 0.2075 0.084848 0.12201 0.089287 0.13138 -0.27209 0.58302 
0.18284 0.12644 0.11855 0.14765 0.11937 0.15045 -0.12626 0.45741 
0.045224 -0.01232 0.081395 0.12957 0.1003 0.17692 0.10704 0.08008 
-0.28114 -0.2374 0.0054362 0.061995 0.036346 0.17347 0.32308 -0.26683 
-0.47251 -0.32438 -0.056548 0.022042 -0.025967 0.12924 0.34018 -0.58514 
-0.39458 -0.16753 -0.039778 0.041114 -0.047341 0.014643 0.17001 -0.42401 
-0.14287 0.1636 0.045389 0.074161 -0.038627 -0.040764 -0.0029489 0.031249 
0.14716 0.37323 0.098494 0.11888 0.004943 -0.00097594 -0.086307 0.51594 
0.30598 0.39016 0.13795 0.1613 0.049828 -0.010512 0.079916 0.96167 
0.46925 0.40282 0.15982 0.17988 0.081889 0.073339 0.26126 0.87716 
0.4727 0.37455 0.15538 0.17018 0.076956 0.08156 0.099481 0.063968 
0.40348 0.30615 0.025988 0.12694 0.11691 0.17412 0.065776 -0.50162 
0.21391 -0.075291 -0.10982 0.0065871 0.13072 0.27113 0.30697 -0.55801 
-0.091075 -0.70746 -0.24464 -0.12445 0.068078 0.22049 0.35153 -0.2305 
-0.41875 -1.2213 -0.30235 -0.21307 -0.029091 0.017767 0.28642 0.31026 
-0.42434 -1.179 -0.23296 -0.18956 -0.060987 -0.12412 0.16821 0.36764 
-0.31928 -0.65929 -0.047834 -0.088608 -0.060658 -0.13514 -0.066084 -0.19926 
-0.26289 -0.17377 0.11806 0.07301 0.029276 -0.069372 -0.14139 -0.46857 
-0.16457 0.2754 0.18728 0.17955 0.063145 0.017438 -0.093376 -0.19383 
-0.094692 0.62232 0.21523 0.22312 0.092576 0.036017 -0.060658 0.061172 
-0.010183 0.89031 0.18432 0.22164 0.067585 0.0074092 -0.16161 0.066269 
-0.0029489 0.88456 0.11921 0.17445 0.032236 0.014808 -0.14846 0.041443 
0.13516 0.70189 0.085012 0.13302 0.012177 -0.0057439 -0.026131 0.098166 
0.37389 0.56214 0.088465 0.12776 0.016781 -0.0036066 0.17922 0.0060938 
0.4145 0.42124 0.076956 0.15357 0.0037921 -0.060823 0.27672 -0.11261 
0.33229 0.19747 0.1003 0.1493 0.007738 -0.11048 0.18103 0.0028056 
0.20191 0.066105 0.12924 0.16114 -0.02794 -0.11228 -0.047669 0.22838 
0.027632 -0.027611 0.048841 0.11592 -0.0073881 -0.088773 -0.2739 0.47714 
-0.20222 -0.2282 -0.018239 0.055582 -0.015938 -0.077593 -0.32767 0.33311 
-0.42681 -0.48961 -0.024487 0.023851 0.0018191 0.022864 -0.17131 -0.26371 
-0.5243 -0.66669 -0.06148 0.0059294 0.056898 0.12003 0.10507 -0.69398 
-0.19794 -0.64959 -0.15026 -0.057863 0.050979 0.1807 0.20273 -0.38274 
0.24745 -0.20699 -0.13366 -0.074962 -0.0088678 0.091589 0.12694 0.13615 
0.36073 0.24417 -0.02794 -0.021034 -0.031557 -0.038298 0.0031344 0.18728 
0.28149 0.42025 0.084684 0.070544 0.0064227 -0.1233 -0.17542 0.030756 
0.17511 0.23183 0.15999 0.14321 0.098166 -0.045203 -0.085156 0.18284 
0.031578 -0.049478 0.10803 0.13943 0.15259 0.10063 0.15111 0.27376 
-0.089102 -0.19334 0.019411 0.10425 0.071695 0.088794 0.2468 0.050979 
-0.095678 -0.097651 0.0014903 0.067749 -0.001798 -0.058521 0.17215 -0.14747 
-0.013143 0.03799 0.048019 0.080902 -0.03501 -0.096665 0.085835 -0.11015 
0.084355 0.10787 0.026317 0.07301 0.010862 -0.0022913 0.057884 -0.012156 
0.038483 0.05624 0.014972 0.050321 0.068242 0.080902 0.0060938 0.038648 
-0.13547 0.012013 0.010204 0.043087 0.028454 0.0085601 -0.066741 0.069064 
-0.1279 0.21178 0.04654 0.081889 0.004943 -0.070194 -0.17624 0.12184 
0.0067515 0.31453 0.054267 0.094384 0.017603 -0.057699 -0.14698 0.18333 
0.13943 0.33492 0.079916 0.11263 0.050486 0.033387 -0.066084 -0.035338 
0.2708 0.38145 0.1008 0.1322 0.066105 0.021549 0.0075736 -0.3298 
0.28938 0.30829 0.076463 0.12168 0.048677 -0.082361 -0.069043 -0.46808 
0.17067 0.26225 0.084519 0.10803 -0.027447 -0.22589 -0.31155 -0.47909 
-0.0011404 0.27409 0.078436 0.11 -0.078744 -0.21932 -0.26963 -0.40034 
-0.053753 0.2126 0.044238 0.12891 -0.047669 -0.013143 -0.045696 -0.030899 
-0.012814 0.020891 0.062488 0.11757 0.016616 0.21885 0.27507 0.75664 
0.19336 -0.15947 0.074161 0.12135 0.093069 0.21704 0.36041 1.1458 
0.29842 -0.28196 0.13384 0.15785 0.13006 0.11872 -0.098802 0.45593 
0.26916 -0.38505 0.13072 0.14404 0.14782 0.1853 -0.32076 -0.4541 
0.0023123 -0.5003 0.0047785 0.069229 0.11658 0.27573 0.050486 -0.4467 
-0.23214 -0.69464 -0.18709 -0.050629 0.025001 0.17906 0.31355 0.18054 
-0.35595 -0.62904 -0.27851 -0.1672 -0.08269 -0.0042642 0.0041209 0.6187 
-0.37091 -0.12642 -0.21159 -0.16523 -0.084169 -0.20271 -0.34246 0.15966 
-0.099131 0.56214 -0.0064016 -0.041915 -0.022185 -0.18841 -0.19564 -0.21652 
0.2925 0.96759 0.24597 0.16245 0.065118 -0.073976 0.052459 -0.043888 
0.40118 0.98765 0.34298 0.28823 0.11905 0.097672 0.19139 0.1105 
0.33706 0.81156 0.30812 0.32407 0.13023 0.20947 0.29415 0.031578 
0.25666 0.49917 0.19566 0.2902 0.095864 0.17396 0.22772 -0.00064712 
0.15653 0.040785 0.054267 0.16673 0.038812 -0.0036066 0.08419 0.011191 
-0.14599 -0.45722 -0.089266 0.034537 0.013492 -0.029748 -0.05441 -0.027447 
-0.33441 -0.67787 -0.1547 -0.054575 0.026646 0.092904 -0.09946 -0.074962 
-0.12626 -0.48287 -0.10439 -0.066741 0.031414 0.14009 0.026481 -0.036325 
0.18103 -0.20189 -0.0503 -0.039613 0.0036276 -0.008539 0.20717 0.10425 
0.4242 0.066434 -0.011827 0.027139 0.01415 -0.091075 0.3489 0.18432 
0.41499 0.2662 0.0227 0.055089 0.081231 0.066434 0.29842 0.15308 
0.21753 0.31519 0.055254 0.084684 0.082382 0.20454 0.19977 0.024837 
0.030263 0.2583 0.042265 0.079422 0.016452 0.25091 0.08567 -0.080552 
-0.10867 0.1516 -0.049149 0.017932 0.02122 0.2782 0.0088889 -0.16588 
-0.182 0.016288 -0.070523 -0.024487 0.10343 0.34988 0.011355 0.012999 
-0.20485 -0.049642 -0.046519 -0.0075525 0.09833 0.42009 0.073997 0.24449 
-0.22343 0.064461 -0.0019624 0.043909 -0.0042642 0.14141 0.024179 0.32292 
-0.13711 0.23331 0.064625 0.079587 -0.094692 -0.13974 -0.066741 0.378 
0.0059294 0.17725 0.099316 0.1202 -0.038791 -0.08269 0.067256 0.32571 
0.22246 0.10573 0.11724 0.14535 0.046704 -0.060329 0.147 0.083697 
0.41499 0.098988 0.11066 0.14042 0.049992 -0.17591 0.22328 0.11674 
0.4949 -0.013143 0.061008 0.097344 0.0085601 -0.18019 0.23068 0.183 
0.27179 -0.36137 -0.10538 0.024344 0.0087245 -0.11541 0.055582 0.010204 
-0.18084 -0.67524 -0.2106 -0.094692 0.013492 -0.084827 -0.20715 -0.2933 
-0.58218 -0.68033 -0.25582 -0.16407 0.022864 -0.087129 -0.34329 -0.4319 
-0.7022 -0.45755 -0.23938 -0.18413 0.0019835 -0.11048 -0.28689 -0.34197 
-0.5608 -0.22441 -0.16029 -0.14878 -0.072332 -0.10209 -0.16194 -0.22376 
-0.30333 -0.085813 -0.016266 -0.055068 -0.021199 0.030427 -0.01939 -0.076277 
0.0013258 0.21194 0.097344 0.080573 0.094877 0.20125 0.092082 0.065447 
0.28149 0.54126 0.15374 0.15637 0.11592 0.17314 0.11757 0.16278 
0.40644 0.56362 0.12135 0.16163 0.064132 0.08419 0.12069 0.13795 
0.34923 0.4288 0.081067 0.1345 0.055582 0.1003 0.11543 0.063474 
0.31618 0.32621 0.055747 0.11296 0.027796 0.14486 0.13647 0.013164 
0.29201 0.27524 0.073668 0.1031 -0.029748 0.081889 0.12118 0.053445 
0.23118 0.2098 0.14519 0.15061 -0.0036066 0.094877 0.10606 0.11198 
0.041443 0.24926 0.18004 0.22756 0.052787 0.14091 0.083368 0.19418 
0.012835 0.28149 0.20043 0.24515 0.087972 0.10589 0.13253 0.2029 
-0.053424 0.14174 0.13302 0.19928 -0.047834 -0.15668 0.11937 -0.0044286 
-0.046519 -0.083512 -0.011005 0.090109 -0.11985 -0.41859 0.0324 -0.14862 
0.0016547 -0.24694 -0.092061 -0.0016336 -0.09091 -0.44752 -0.042573 -0.13645 
0.02829 -0.2397 -0.06444 -0.015116 -0.0016336 -0.22129 -0.10653 0.18761 
0.010369 -0.19794 -0.071509 -0.0039354 0.08715 0.01267 -0.094034 0.84313 
0.021056 -0.095678 -0.066906 -0.0138 0.11378 0.090274 0.0069159 0.80219 
-0.080717 -0.023665 -0.00031829 0.022371 0.08978 0.1641 0.041772 -0.47926 
-0.13251 0.019083 0.086657 0.08567 0.042758 0.13762 0.0072447 -1.3715 
-0.076442 0.093891 0.15505 0.15324 0.031742 0.18185 0.090767 -0.88569 
0.013986 0.11559 0.20027 0.1978 0.021056 0.1761 0.1373 -0.30646 
0.087643 0.085012 0.16541 0.19928 0.016781 0.020069 -0.07003 -0.17904 
0.1636 0.062488 0.067091 0.1687 0.01152 -0.098967 -0.3058 0.043909 
0.30878 0.23216 0.049992 0.12414 0.039141 -0.032543 -0.24694 0.58861 
0.25025 0.2662 0.084684 0.12661 0.072846 0.14979 -0.047341 0.85727 
0.1003 0.13467 0.085999 0.12677 0.073997 0.20882 0.11625 0.66161 
-0.13941 -0.021528 0.055747 0.093398 0.048677 0.076792 0.01004 0.17774 
-0.30235 -0.19679 0.005765 0.054103 -0.0024557 -0.14862 -0.19729 -0.17756 
-0.36449 -0.22935 -0.03205 0.039963 -0.038956 -0.20797 -0.21833 -0.27029 
-0.43026 -0.13415 -0.019719 0.032236 -0.028597 -0.21932 -0.073482 -0.24036 
-0.28821 0.037168 0.076134 0.085999 -0.012156 -0.1621 0.091918 -0.24168 
0.044567 0.23315 0.14206 0.14798 0.0083956 -0.08121 0.18794 -0.16572 
0.23808 0.29809 0.13549 0.16262 0.020891 -0.0011404 0.26587 -0.0019624 
0.15094 0.25206 0.11148 0.14272 -0.0096899 -0.0088678 0.28626 0.053938 
0.25962 0.2685 0.12858 0.1659 0.02681 0.01974 0.27146 0.040621 
0.46793 0.32062 0.1539 0.21112 0.067091 0.05772 0.1687 -0.02498 
0.48569 0.36271 0.14749 0.19764 0.073339 0.069229 -0.054246 -0.034188 
0.26094 0.27951 0.087808 0.15982 0.066598 0.01974 -0.21438 -0.026624 
-0.067399 -0.097487 0.0023123 0.085012 0.031414 0.0092177 -0.3349 0.0041209 
-0.24349 -0.30333 -0.07266 0.0041209 0.021878 0.044896 -0.27407 0.030592 
-0.22014 -0.24332 -0.049642 -0.0090322 0.07449 0.2851 -0.1427 0.0090533 
-0.11048 -0.10653 -0.019555 0.035031 0.090931 0.33196 0.040785 -0.0029489 
0.019905 -0.059507 0.055254 0.071859 0.04095 0.081067 0.16048 0.0039565 
0.063145 0.0036276 0.15028 0.14289 0.023193 -0.1011 0.27425 0.027303 
0.14058 0.17199 0.25255 0.23414 0.032893 0.0059294 0.26899 0.083204 
0.13483 0.23808 0.25452 0.26406 0.061172 0.038155 -0.082854 0.1128 
0.053445 0.15127 0.09274 0.1664 0.03947 -0.0050863 -0.093212 0.20388 
-0.014293 0.0018191 -0.099131 0.035853 0.015959 0.089123 0.34725 0.36073 
0.00050378 -0.02646 -0.17312 -0.055561 0.056569 0.14996 0.53732 0.34413 
0.068407 0.039141 -0.13514 -0.073647 0.064132 0.11296 0.244 0.055747 
0.040621 0.14042 -0.089266 -0.054739 0.060844 0.027303 -0.17377 -0.18775 
0.071202 0.34857 0.009711 0.01415 0.033715 -0.069701 -0.28919 -0.29676 
0.15834 0.49687 0.094548 0.081889 0.018425 -0.11886 -0.30185 -0.35249 
0.21506 0.50805 0.12316 0.12644 0.039963 -0.10538 -0.24118 -0.25434 
0.25419 0.39789 0.025495 0.11987 0.032071 -0.029584 -0.23609 0.068407 
0.23759 0.27803 0.033387 0.092247 0.038977 0.056404 -0.2111 0.609 
0.22049 0.12743 -0.011663 0.056569 0.04917 0.13154 -0.018897 0.69778 
0.14009 -0.17821 -0.028597 0.030098 0.046211 0.085999 0.17643 0.20043 
-0.021856 -0.75218 -0.12133 -0.052602 0.0037921 -0.0075525 0.18415 -0.042573 
-0.33753 -1.3881 -0.25549 -0.16539 -0.033694 -0.090253 0.070873 -0.049314 
-0.52644 -1.495 -0.34789 -0.24513 -0.07003 -0.066906 0.12464 -0.060658 
-0.55012 -1.0299 -0.30383 -0.24217 -0.082361 -0.013471 0.23331 -0.14385 
-0.45772 -0.45492 -0.12379 -0.13727 -0.059178 -0.019061 0.37241 -0.20468 
-0.21126 0.03651 0.0080668 -0.021692 -0.033859 -0.032379 0.25683 -0.19614 
0.070873 0.56148 0.0689 0.059693 -0.0011404 -0.0004827 0.028125 -0.080223 
0.32276 0.86516 0.15604 0.13072 0.081231 0.077285 -0.036818 0.18498 
0.329 0.68447 0.15127 0.16327 0.13154 0.1613 0.069064 0.44689 
0.16738 0.32489 0.058706 0.15292 0.11543 0.18432 0.10622 0.35383 
0.14174 0.29546 0.03947 0.11017 0.057227 0.16952 0.066105 0.061995 
0.33689 0.60571 0.072517 0.11378 0.049664 0.11576 -0.13563 -0.13234 
0.49325 0.77407 0.10211 0.13368 0.092247 0.056898 -0.40494 -0.2573 
0.487 0.69285 0.15933 0.1641 0.052459 -0.049807 -0.3303 -0.29955 
0.36402 0.39839 0.15883 0.16179 -0.023665 -0.22359 -0.036489 -0.04471 
0.10606 -0.077922 0.049992 0.13138 -0.045203 -0.20567 0.22098 0.23874 
-0.24743 -0.65353 -0.05737 0.041443 -0.020541 0.023522 0.32226 0.49851 
-0.61588 -1.1658 -0.24086 -0.10587 -0.0040998 0.12694 0.17067 0.42749 
-0.8357 -1.3367 -0.34707 -0.23066 -0.038956 0.019576 0.10359 0.11395 
-0.48846 -0.7655 -0.20781 -0.18956 -0.071674 -0.03205 0.171 0.0052718 
0.11083 0.029605 0.04654 -0.020706 -0.010183 0.013328 0.17577 -0.15865 
0.39641 0.33558 0.17577 0.12825 0.077449 0.088136 0.12118 -0.22261 
0.36649 0.36386 0.13187 0.1807 0.099316 0.099481 0.14404 -0.088115 
0.24022 0.29694 0.11165 0.16212 0.072188 -0.0073881 0.11231 0.084519 
0.072024 0.36139 0.11083 0.15456 -0.041257 -0.23625 -0.031392 0.25929 
-0.07266 0.45494 0.13171 0.16525 -0.12182 -0.40461 -0.22704 0.29448 
-0.13793 0.38375 0.066434 0.12069 -0.11935 -0.3492 -0.26749 -0.032215 
0.00033937 0.046704 -0.044874 0.03947 -0.047012 -0.041915 -0.092226 -0.23494 
0.084848 -0.33885 -0.17032 -0.035338 0.043745 0.14535 0.11625 -0.16309 
-0.060658 -0.42829 -0.1598 -0.080223 0.046704 0.11806 0.095535 -0.11639 
-0.30777 -0.29593 -0.017253 -0.0082102 0.028454 0.11214 0.061172 -0.23296 
-0.3132 -0.084005 0.11378 0.1003 0.13549 0.41302 0.12743 -0.21767 
-0.041915 0.11346 0.15374 0.15028 0.20471 0.51183 0.10392 0.12184 
0.1807 0.23611 0.17478 0.17824 0.16245 0.33788 -0.02235 0.26702 
0.26948 0.29185 0.19879 0.22559 0.159 0.28346 0.062323 0.26455 
0.33328 0.38688 0.20767 0.26209 0.082053 0.16311 0.22822 0.2001 
0.27294 0.43061 0.22213 0.26422 0.01004 -0.11689 0.17281 0.15012 
0.21786 0.36583 0.16985 0.23183 0.063474 -0.1085 -0.092061 0.079587 
0.21161 0.33098 0.16689 0.21852 0.10852 0.013164 -0.26601 -0.020706 
0.099645 0.30516 0.16196 0.19616 -0.015609 -0.18298 -0.37255 -0.3788 
-0.059672 0.18728 0.12036 0.16607 -0.14566 -0.36515 -0.26239 -0.56475 
-0.09946 0.06331 0.082053 0.16607 -0.076771 -0.075784 0.10326 -0.10209 
0.025001 0.078436 0.14338 0.18465 0.026646 0.1733 0.28576 0.39658 
0.07038 0.098001 0.14881 0.19813 0.038648 0.24729 0.28757 0.38721 
0.047691 -0.0075525 0.090274 0.15571 0.056076 0.25206 0.2902 0.10639 
0.00083261 -0.14599 -0.019719 0.07038 0.091096 0.18629 0.25748 0.0062583 
-0.13004 -0.27851 -0.090088 -0.013307 0.017274 -0.091897 0.19632 0.059035 
-0.17493 -0.27785 -0.1113 -0.044874 -0.0087034 -0.28015 0.075476 0.16722 
-0.063289 -0.023172 -0.048656 -0.0042642 0.015301 -0.19696 0.0019835 0.14733 
0.1271 0.30023 0.04358 0.057391 0.064132 0.010697 -0.045696 0.06742 
0.22542 0.4584 0.094877 0.10754 0.05213 0.10458 -0.11393 -0.0068948 
0.19649 0.42288 0.13138 0.14979 0.043416 0.035524 -0.29758 -0.035667 
0.080409 0.27869 0.12809 0.1516 0.0028056 -0.0088678 -0.40839 -0.1039 
0.021878 0.12135 0.14058 0.16558 0.051801 0.13795 -0.27012 -0.157 
0.013986 0.080738 0.14864 0.20882 0.14321 0.29596 -0.048985 -0.12593 
0.20043 0.13269 0.10211 0.17001 0.1784 0.40036 0.072353 0.0079024 
0.3831 0.22279 0.0056006 0.09274 0.14486 0.30335 0.1026 0.12562 
0.32243 0.13746 -0.1113 -0.010348 0.10737 0.28198 0.12118 0.16722 
0.055418 -0.063453 -0.19614 -0.099789 0.12414 0.32045 0.18613 -0.0077169 
-0.22474 -0.12429 -0.11541 -0.094199 0.029276 0.13943 0.16985 -0.0406 
-0.23066 -0.013965 0.031249 0.024344 -0.00097594 0.012013 0.1345 0.26735 
0.037168 0.13483 0.14552 0.12595 0.015137 -0.00081153 0.14026 0.36205 
0.22263 0.076956 0.12595 0.14305 -0.091732 -0.25763 0.10326 0.14716 
0.34331 0.058542 0.083862 0.12069 -0.24102 -0.71848 -0.1256 -0.18446 
0.29546 0.10524 0.081231 0.12431 -0.19909 -0.72407 -0.24201 -0.31665 
0.041936 0.10737 0.08304 0.12283 0.031578 -0.21817 0.11231 -0.060494 
-0.22293 0.10852 0.039799 0.099645 0.25074 0.18744 0.31684 0.29448 
-0.31386 0.048513 -0.13892 0.0065871 0.27014 0.21358 0.037661 0.30878 
-0.30218 -0.27588 -0.31484 -0.17821 -0.028926 -0.2083 -0.40922 -0.1838 
-0.24793 -0.59336 -0.40576 -0.29824 -0.25861 -0.38159 -0.48994 -0.64564 
-0.16342 -0.54157 -0.28327 -0.25417 -0.15733 0.073175 -0.13662 -0.26026 
-0.029255 -0.27522 -0.037805 -0.097158 0.24269 0.97762 0.37208 0.53748 
0.19747 0.047526 0.16623 0.091753 0.43406 1.229 0.59618 0.72541 
0.32818 0.087972 0.14617 0.15176 0.17708 0.48668 0.34364 0.072846 
0.10408 -0.10308 -0.01939 0.059035 -0.10538 -0.28245 -0.050464 -0.6902 
-0.12725 -0.068057 -0.1478 -0.047341 -0.194 -0.54798 -0.28706 -0.77438 
-0.0031133 0.35153 -0.097651 -0.047669 -0.11064 -0.4028 -0.16654 -0.26502 
0.29826 0.8423 0.090438 0.07038 0.045224 -0.085485 -0.035667 0.18004 
0.35268 0.80794 0.14667 0.13993 0.072353 -0.017417 0.11905 0.43045 
0.28889 0.50937 0.11773 0.14206 0.0019835 -0.022185 0.23298 0.54965 
0.3974 0.25584 0.075641 0.15555 -0.018897 -0.089266 0.061172 0.50805 
0.34265 0.02829 0.037661 0.10885 -0.016102 -0.16276 -0.058356 0.27919 
-0.010183 -0.25319 -0.0091966 0.062323 -0.0016336 -0.2374 -0.09091 0.047855 
-0.48156 -0.69645 -0.10045 -0.013471 0.016781 -0.27127 -0.11787 -0.15964 
-0.69891 -0.95638 -0.087293 -0.040106 -0.014129 -0.21915 -0.034188 -0.27012 
-0.95918 -0.87105 -0.011334 -0.0047575 -0.069701 -0.15191 0.16656 -0.27061 
-0.88421 -0.58086 0.034537 0.070544 -0.033037 -0.010019 0.30039 -0.14089 
-0.41316 -0.25582 0.083368 0.10556 0.019083 0.15851 0.32243 -0.028104 
-0.030899 0.10376 0.084848 0.11773 0.0090533 0.17215 0.074161 0.04506 
0.1345 0.32078 0.041772 0.1008 -0.019226 0.042594 -0.31122 0.12365 
0.23183 0.30204 -0.006566 0.055747 -0.017253 0.00099702 -0.49652 0.10704 
0.36435 0.089616 -0.0070593 0.027303 0.040785 0.17478 -0.14648 -0.27851 
0.50213 0.13647 -0.013307 0.042265 0.15686 0.4875 0.30878 -0.46725 
0.58911 0.33476 -0.042244 0.036182 0.22148 0.42321 0.32555 -0.12166 
0.48043 0.31026 -0.096665 -0.018239 0.24647 0.3461 0.12644 0.37455 
0.23348 0.15472 -0.15355 -0.076606 0.1562 0.4071 0.07449 0.50789 
-0.0067304 0.032729 -0.12593 -0.089431 -0.053424 0.0059294 0.041278 0.35038 
-0.12001 -0.030899 0.020727 -0.0095255 -0.2282 -0.5391 -0.1182 -0.006566 
-0.1524 0.023028 0.23134 0.15637 -0.19153 -0.6075 -0.17312 -0.11656 
-0.16243 0.14239 0.35547 0.34117 -0.0080457 -0.30514 -0.0098543 0.05213 
-0.072989 0.26751 0.36665 0.38573 0.099316 0.066269 0.20208 0.17741 
0.11231 0.38688 0.31585 0.36879 0.091425 0.28461 0.36238 0.17445 
0.12858 0.30122 0.1807 0.27688 0.041936 0.30368 0.29365 0.12973 
0.11099 0.22378 0.045553 0.15193 0.082711 0.22657 0.15966 0.14568 
-0.020706 0.086492 -0.030735 0.052952 0.073668 0.099481 0.06594 0.018425 
-0.17509 -0.12856 -0.059343 0.019411 0.036675 0.14075 0.14453 -0.13514 
-0.1667 -0.28015 -0.041751 0.017438 0.023028 0.14782 0.14667 -0.16062 
-0.15799 -0.48205 0.0023123 0.0324 0.054596 0.024508 0.01563 -0.031557 
-0.17805 -0.71239 -0.023172 0.021549 -0.0021268 -0.1376 -0.12938 0.03947 
-0.21077 -0.82337 -0.068714 -0.016595 0.0046141 -0.20584 -0.2545 -0.019719 
-0.19466 -0.59632 -0.054246 -0.021363 0.047691 -0.063289 -0.25368 -0.03764 
-0.071838 -0.15355 -0.0057439 0.00066819 0.0051074 -0.042408 -0.11294 0.0062583 
0.078929 0.29645 0.069722 0.093891 0.0026412 0.0080668 -0.020048 0.086821 
0.15324 0.60949 0.14749 0.15489 0.027303 0.0786 0.021878 0.14568 
0.17856 0.66967 0.15094 0.17741 0.033222 0.052952 0.033222 0.12628 
0.42551 0.55557 0.094548 0.15193 0.024837 0.016452 0.08304 0.14256 
0.61262 0.48947 0.099974 0.14075 0.061337 0.057391 0.21523 0.17018 
0.52614 0.45577 0.15818 0.16706 0.035195 0.072353 0.22312 0.047197 
0.25189 0.4094 0.1978 0.23923 0.054596 0.0689 0.10754 -0.067728 
0.083533 0.31486 0.23496 0.26143 0.053281 0.055254 -0.047505 -0.024487 
0.04095 0.20043 0.26373 0.2851 0.045389 0.012342 -0.14385 0.045224 
0.049499 0.12414 0.21342 0.26603 0.018096 -0.10932 -0.075949 0.039141 
0.095371 0.073175 0.1174 0.19369 -0.0075525 -0.13941 0.10754 0.04506 
0.25041 0.021878 0.060515 0.12332 -0.035338 -0.10094 0.16969 0.05772 
0.28445 0.0227 0.0021479 0.072517 -0.030242 -0.021034 0.00050378 0.076956 
0.098166 0.00017495 -0.084334 0.033551 -0.0016336 0.030592 -0.17098 0.084684 
-0.016266 0.038483 -0.0771 -0.0059084 0.016123 -0.027775 -0.23625 0.13927 
-0.059343 0.017767 -0.061645 -0.011992 0.080409 0.004943 -0.20682 0.24203 
-0.18989 -0.079237 -0.031886 0.0044497 0.1008 0.13516 -0.052437 0.075312 
-0.23411 -0.072989 0.045224 0.041114 0.10113 0.16146 0.14453 -0.21702 
-0.22935 -0.14813 0.038648 0.054925 0.03536 0.025001 0.13236 -0.30432 
-0.093705 -0.13793 -0.023501 0.048348 -0.022185 -0.12116 0.048513 -0.22507 
0.080244 -0.004593 -0.018075 0.035524 0.004943 -0.14895 0.035853 -0.064275 
0.18267 0.080409 -0.0047575 0.039634 0.021056 -0.15224 0.04506 0.10063 
0.2098 0.082546 0.0016547 0.03947 0.016123 -0.078415 0.083533 0.13302 
0.24285 0.10606 0.0011614 0.035031 0.02681 0.0056006 0.09833 0.15045 
0.23693 0.18119 0.039963 0.052787 0.016945 0.016616 0.043909 0.14272 
0.22065 0.22345 0.059857 0.087643 0.00297 -0.070687 -0.04471 0.12447 
0.1756 0.2417 0.047197 0.11017 0.033551 -0.093212 -0.11015 0.077614 
0.12579 0.21967 0.046868 0.1003 0.029605 -0.021199 -0.032215 0.038319 
0.060022 0.18761 0.016616 0.067749 0.032071 0.0227 0.0067515 0.036017 
-0.023994 0.14206 0.005765 0.052952 0.0072447 -0.0026201 0.082875 0.028454 
-0.051615 0.1738 0.048348 0.064296 -0.0052507 -0.023501 0.17001 0.007738 
0.029276 0.33607 0.13631 0.1294 0.055911 0.060022 0.27672 0.010533 
0.19501 0.41631 0.16936 0.20635 0.10244 0.21506 0.24384 0.010204 
0.21523 0.24515 0.13976 0.1904 0.087314 0.19303 0.092576 -0.11113 
0.067256 -0.004593 0.090931 0.15357 0.087479 0.098823 0.084848 -0.23855 
-0.18791 -0.23461 0.025988 0.097015 0.031907 0.010862 0.030592 -0.38998 
-0.4444 -0.36976 -0.022185 0.036675 -0.006566 -0.073154 -0.0052507 -0.25927 
-0.48287 -0.29478 0.0041209 0.033715 0.027796 0.0028056 0.053609 0.41384 
-0.18611 -0.054082 0.070708 0.091589 0.059693 0.10145 -0.082361 0.92895 
0.12151 0.060022 0.035853 0.087314 0.08304 0.043251 -0.31205 0.70864 
0.18974 -0.052437 -0.11212 -0.013143 -0.0036066 0.028454 -0.25006 0.13236 
0.078272 -0.20699 -0.31797 -0.18265 -0.054082 -0.033365 -0.047176 -0.26157 
0.0075736 -0.031064 -0.28196 -0.21619 -0.045203 -0.10932 -0.087622 -0.38751 
-0.077428 0.1516 -0.14895 -0.14139 -0.034681 -0.12856 -0.15092 -0.31188 
-0.065755 0.19501 -0.024816 -0.046519 -0.00097594 -0.075455 -0.17772 -0.14895 
-0.080881 0.076463 0.013492 0.048513 1.0539e-005 -0.065426 -0.18759 0.037661 
-0.23888 -0.071674 0.061995 0.084355 0.04506 -0.052931 -0.16786 -0.037311 
-0.32767 -0.072003 0.10639 0.12776 0.052459 0.010533 0.029441 -0.058685 
-0.17032 -0.020048 0.11231 0.14338 0.06479 0.13565 0.29957 -0.073976 
0.22756 0.032564 0.11592 0.14387 0.048677 0.19155 0.42486 -0.17887 
0.45198 0.083368 0.11674 0.15818 0.071695 0.21885 0.3632 -0.09946 
0.33229 0.076627 0.077614 0.14683 0.049006 0.14321 0.17084 0.028454 
0.011355 0.042758 0.0070803 0.08715 0.004943 0.037004 -0.027282 -0.073318 
-0.16901 0.021384 -0.017911 0.05065 -0.022514 -0.079566 -0.22359 -0.073318 
-0.11064 -0.012649 0.027139 0.059693 -0.047998 -0.062796 -0.069865 0.2565 
0.0059294 -0.07825 0.05624 0.083533 0.026481 0.13154 0.27277 0.39954 
-0.025145 -0.27834 0.020727 0.063474 0.078765 0.23907 0.33065 0.30023 
-0.22343 -0.51641 -0.011498 0.042265 0.089123 0.15604 0.14124 0.050486 
-0.40247 -0.40856 -0.031392 0.054432 0.023851 -0.066906 -0.091897 -0.10965 
-0.2568 0.098659 0.045224 0.077614 0.0024767 -0.11705 -0.20633 -0.13349 
-0.081539 0.36402 0.037497 0.08008 -0.019226 -0.019555 -0.22343 -0.1598 
-0.0068948 0.17265 -0.10258 -0.0073881 -0.019719 0.1179 -0.24875 -0.13037 
0.061172 -0.0082102 -0.13185 -0.05885 0.068242 0.36813 -0.072332 0.05213 
0.16015 -0.0024557 -0.06148 -0.035338 0.12299 0.43456 0.14453 0.10195 
0.14338 -0.088773 -0.01528 0.020398 0.087643 0.13401 0.18284 0.061501 
0.052952 -0.24184 -0.0011404 0.028619 -0.018897 -0.2231 0.16541 0.0421 
0.036346 -0.14911 0.022206 0.052787 -0.050464 -0.32076 -0.06444 0.017932 
0.1294 0.019083 0.061172 0.085999 -0.034023 -0.22129 -0.071345 0.055254 
0.16212 0.049335 0.094548 0.12102 0.073668 -0.03057 0.2537 0.037004 
0.060679 -0.06855 0.070051 0.10688 0.12661 0.12085 0.42354 -0.090746 
-0.056712 -0.11903 -0.0083746 0.06331 0.071037 0.14946 0.25814 -0.14829 
-0.18446 -0.10357 -0.047998 0.047362 -0.013636 0.06035 -0.10094 -0.19581 
-0.34082 -0.020377 -0.028433 0.02122 -0.080223 -0.024652 -0.49915 -0.4204 
-0.28443 0.027468 0.044073 0.062981 -0.036654 -0.00015387 -0.68757 -0.048492 
0.061666 0.14782 0.079587 0.095535 0.0039565 -0.0011404 -0.26009 0.60752 
0.50114 0.39214 0.12447 0.13286 0.044402 0.046375 0.28609 0.78953 
0.78328 0.60867 0.18169 0.18432 -0.0031133 0.049828 0.36041 0.45922 
0.63596 0.57349 0.13516 0.20224 0.020727 0.075805 0.27294 0.058871 
