0.015794 0.022371 0.045389 0.059693 0.03388 0.028619 0.023357 0.025659 
-0.0087034 -0.0077169 0.035195 0.041114 0.02681 0.018425 0.049992 0.036675 
0.0324 0.05476 0.022206 0.043416 0.025166 0.022206 0.029934 0.03388 
0.052459 -0.022843 0.041936 0.022864 0.019576 0.022371 0.014808 0.007738 
0.079422 -0.12429 0.042265 0.01563 0.027468 0.022535 0.022371 0.025824 
0.098001 -0.1182 0.04506 0.04917 0.031578 0.011848 0.031907 0.021549 
0.07449 -0.057205 0.04506 0.012999 0.047362 0.013821 0.024179 0.028125 
0.039799 0.037826 0.077121 0.0080668 0.045718 0.015137 0.018918 -0.0077169 
0.033387 0.049992 0.07301 0.029112 0.01267 0.015959 0.015465 0.026152 
0.040621 0.12217 0.041278 0.0028056 0.016288 0.025824 0.039963 0.031249 
0.063968 0.071531 0.019411 0.01152 0.020398 0.02533 0.016123 0.022206 
0.06035 -0.01232 0.023686 0.021878 0.018918 0.028783 0.0087245 0.030263 
0.03092 0.038319 0.010862 0.011026 0.026481 0.0021479 0.029441 0.042429 
-0.0029489 0.1562 -0.01117 0.029112 0.033551 0.00099702 0.030098 0.0421 
-0.0078813 0.2491 -0.012156 0.011026 0.005765 0.021056 0.019576 0.0227 
-0.0095255 0.27639 0.021384 0.010204 0.02122 0.022864 0.031907 0.015959 
-0.0029489 0.20717 0.051636 0.054432 0.016123 0.014808 0.045553 0.0095465 
-0.0034422 0.16607 0.014479 0.031414 0.034702 0.019083 0.045389 0.013821 
0.0083956 0.14437 0.0044497 0.03947 0.029441 0.042923 0.022535 0.025988 
0.021384 0.16919 0.00099702 0.049664 0.025166 0.024837 0.021549 -0.0021268 
0.033222 0.1128 0.013492 0.025495 -0.011498 0.025166 0.033222 0.0062583 
0.073668 0.093726 0.021878 0.030263 -0.006566 0.020727 0.024015 0.0051074 
0.044731 0.06183 0.0324 0.050486 0.024837 0.0059294 0.019247 0.013164 
0.022535 0.015137 0.095535 0.004943 0.015959 0.00099702 0.014315 0.026152 
0.023686 0.0032988 0.10408 0.053116 0.024837 0.017767 0.036182 0.049992 
0.023193 -0.044874 0.078929 0.022535 0.041114 0.048019 0.036017 0.076956 
0.033551 -0.15322 0.073832 0.016945 0.0421 0.027468 0.028783 0.054267 
0.02533 -0.13333 0.05213 0.024837 0.036675 0.0044497 0.012835 0.072188 
0.0088889 0.080738 0.01974 0.013164 0.004943 0.025495 0.033058 0.076956 
0.011684 0.23923 0.028619 0.026646 0.0083956 0.014972 0.01152 0.074161 
0.023522 0.24663 0.028947 0.042265 0.018754 0.0082312 -0.0029489 0.032564 
0.051472 0.1784 0.028947 0.025988 0.025824 0.0080668 0.03388 0.030756 
0.049006 0.1835 0.01004 0.032729 0.026974 0.040292 0.0592 0.037661 
0.12118 0.23479 0.037497 0.014972 -0.014787 0.039305 0.027468 0.004943 
0.018425 0.12842 0.0021479 0.023522 0.01004 0.041114 0.032893 0.017767 
0.027632 0.11378 0.021878 0.066269 0.02681 0.029769 0.06742 0.012506 
0.0026412 0.1003 0.014643 0.013821 0.020069 0.038155 0.08978 -0.010183 
-0.0032777 0.12875 0.04917 0.012999 -0.0029489 0.034209 0.048348 0.0047785 
0.023028 0.19681 0.051636 0.023028 0.0023123 0.0098754 0.021713 -0.02794 
0.031578 0.17741 0.069229 0.013986 0.014315 0.01711 -0.0087034 0.00099702 
0.02829 0.049992 0.046375 0.023522 0.0039565 -0.010676 0.025988 0.019905 
0.024508 -0.031228 0.036839 0.020562 0.015794 0.016452 0.00083261 0.050321 
0.01152 -0.064275 0.033222 0.00066819 0.0098754 0.0067515 0.018096 0.057062 
-0.00097594 -0.1085 0.041443 0.040128 0.017438 0.032236 0.023028 0.073997 
-0.0036066 -0.11886 0.043087 0.010862 0.039799 0.013986 0.057391 0.062652 
0.0062583 -0.10078 0.049664 0.014808 0.037497 0.030756 0.032893 0.031907 
0.02681 -0.11031 0.053281 0.054596 0.034702 0.049828 0.030427 0.024837 
0.045882 -0.074962 0.041278 0.021384 0.021878 0.040456 0.024179 0.013657 
0.069722 0.021713 0.063639 0.024344 0.012835 0.046868 0.041936 0.030263 
0.050486 0.046046 0.041443 0.028454 0.013986 0.049499 0.02681 0.025659 
0.00297 -0.012814 0.024344 0.01152 0.037004 0.047033 0.0074092 0.031085 
-0.047176 -0.00031829 0.014972 0.027303 0.03799 0.029112 0.045882 0.018425 
-0.036325 0.15111 -0.0064016 0.030098 0.034209 0.02681 0.051801 0.027796 
-0.022185 0.20964 0.014479 0.021549 0.022206 0.035031 0.033715 0.079587 
0.0047785 0.19599 0.0090533 0.055582 0.028454 0.030427 0.01711 0.13203 
0.024015 0.18185 -0.016266 0.012506 0.032893 0.03536 0.016123 0.15242 
0.034702 0.11 -0.00064712 0.014808 0.0072447 0.011026 0.026646 0.070873 
0.069558 0.086821 -0.022021 0.047691 0.0023123 -0.0087034 0.013657 -0.068057 
0.056733 0.058377 0.0032988 0.013657 0.029276 -0.028762 0.013821 -0.12445 
0.028454 -0.056219 0.019905 0.0044497 0.0044497 -0.0049219 0.037497 -0.088937 
0.037332 -0.37863 0.045718 0.044567 0.025495 0.032236 0.048019 -0.064111 
0.05624 -0.53828 0.062981 0.01974 0.045389 0.039963 0.02681 -0.046847 
0.050979 -0.24875 0.038812 0.041278 0.028454 0.043909 0.0069159 0.02681 
0.048513 0.072024 -0.0062372 -0.0011404 0.037826 0.0689 0.021549 0.029276 
0.044073 0.24219 0.033387 0.010369 0.042594 0.034209 0.0018191 0.021713 
0.049828 0.29727 0.071202 0.033551 0.051965 -0.00081153 0.020398 0.075148 
0.047033 0.23118 0.051472 0.028619 0.036839 -0.010676 0.075476 0.10737 
0.04358 0.17149 0.069722 0.022535 0.036675 0.00033937 0.14141 0.12842 
0.045553 0.15818 0.097508 0.053445 0.027632 0.0034632 0.12908 0.032893 
0.038483 0.1391 0.084848 0.024015 0.045882 -0.024323 0.069393 -0.024323 
0.010204 0.030756 0.018754 0.025659 0.044731 -0.048985 0.016616 -0.06 
0.019576 -0.030899 -0.034681 0.032564 0.034044 -0.038627 -0.031392 -0.080552 
0.039634 -0.028433 -0.083676 0.037332 0.0072447 0.0090533 -0.041093 -0.080717 
0.052294 -0.17756 -0.044381 0.047691 -0.0013048 0.061501 -0.01939 -0.056877 
0.016616 -0.19893 -0.014293 0.021878 -0.0068948 0.08008 0.035853 -0.028926 
0.00050378 -0.16769 0.029276 0.010369 0.0082312 0.040456 0.027468 -0.046847 
-0.013636 -0.02235 0.093398 0.063474 0.038977 0.027632 -0.022514 -0.068714 
-0.021528 0.17478 0.042923 0.016945 0.058871 0.014808 -0.031721 -0.049807 
0.029605 0.24844 0.046046 0.032236 0.068078 0.013164 -0.023665 0.036675 
0.040128 0.22723 0.024837 0.056076 0.069393 0.013328 0.047362 0.13499 
0.039963 0.25518 0.0064227 0.040456 0.07301 -0.0013048 0.044896 0.19188 
0.011191 0.2565 0.0082312 0.054925 0.049992 0.0088889 0.028619 0.22164 
0.058049 0.16985 0.030263 0.024508 0.051636 -0.006566 0.031249 0.2098 
0.13253 -0.0049219 0.054267 0.015465 0.028783 -0.0062372 0.050814 0.19599 
0.13762 -0.17295 0.099645 0.056733 0.033551 -0.0021268 0.018425 0.13779 
0.12184 -0.3594 0.10984 0.027632 0.021549 0.016452 0.049828 0.0074092 
0.082875 -0.57182 0.11839 0.017438 0.0052718 0.022371 0.058542 -0.0044286 
0.085835 -0.62575 0.11822 0.032564 0.017603 0.01152 0.059528 0.1008 
0.071366 -0.28114 0.077778 0.013986 0.015794 0.06594 0.059857 0.17051 
0.058871 0.13072 0.01563 0.017767 0.021384 0.061337 0.11313 0.11592 
0.032071 0.2486 -0.030735 0.025001 0.021713 0.056569 0.16985 0.078765 
0.01267 0.25962 -0.074633 0.021549 0.02681 0.041443 0.12316 0.10195 
0.01267 0.31536 -0.084663 0.051801 0.0095465 0.010204 0.01826 0.09833 
-0.0011404 0.36106 -0.092883 0.010533 0.028619 -0.017253 -0.058192 0.10063 
-0.017253 0.37257 -0.041751 -0.010019 0.027303 -0.011827 -0.093376 0.022371 
0.034537 0.34807 -0.0044286 0.033222 0.037497 0.0013258 -0.050464 -0.087129 
0.051965 0.26998 -0.01232 0.025495 0.045553 0.0016547 -0.047341 -0.25434 
0.036017 0.15555 0.010369 0.027139 0.045553 0.013164 -0.013636 -0.28196 
-0.023172 0.093233 0.033551 0.043416 0.033387 0.025988 -0.045696 -0.17706 
-0.10669 0.10162 0.050486 0.029441 0.016452 0.058049 -0.022843 -0.01117 
-0.10587 -0.0022913 0.049335 0.058706 0.016288 0.053116 0.049992 0.19944 
-0.060329 -0.21093 0.065447 0.039634 0.023028 0.041772 0.086492 0.25304 
-0.026131 -0.36713 0.060515 0.038483 0.017438 0.042265 0.050157 0.1955 
0.016288 -0.25894 0.078436 0.074983 0.035195 0.032236 0.026974 0.11691 
0.067091 -0.056877 0.055089 0.055582 0.033058 0.019576 -0.040928 0.099152 
0.090274 0.10408 0.066598 0.049828 0.030263 0.029112 -0.069208 0.082217 
0.15176 0.12529 0.068571 0.06331 0.017274 0.045224 0.018918 0.072681 
0.18744 0.073668 0.045882 0.025824 0.023686 0.032236 0.08863 0.077778 
0.20799 0.10688 -0.021363 0.0093821 0.023686 0.036675 0.087972 0.062488 
0.12135 0.18942 -0.040435 0.013164 0.01974 0.043087 0.068571 0.023686 
0.060844 0.15259 -0.037969 0.0041209 0.018754 0.010533 0.060186 0.012506 
0.051143 0.071531 -0.0087034 0.028947 0.0023123 0.012506 0.035853 -0.012649 
0.019411 0.011355 0.014643 0.0014903 0.0042853 0.030592 0.011026 -0.021692 
-0.064275 0.0070803 0.0065871 -0.0080457 0.027139 0.043251 0.029276 -0.018733 
-0.055397 0.0014903 0.046704 0.061008 0.030427 0.039799 0.028125 -0.029748 
-0.10719 0.13056 0.042265 0.033222 0.01563 0.041936 0.063474 -0.062796 
-0.091075 0.22756 0.039141 0.038483 0.023686 0.050321 0.0041209 -0.032708 
-0.00097594 0.22986 0.051143 0.051801 0.028619 0.0324 -0.013471 0.0052718 
0.031578 0.20586 -0.0027845 0.027961 0.014479 0.018096 -0.010019 -0.048492 
0.024015 0.37224 -0.032543 0.034044 0.035853 0.029769 0.019247 -0.038956 
-0.031557 0.53452 -0.049971 0.0324 0.019576 0.041278 0.011191 -0.038627 
0.01974 0.63794 -0.020706 0.031085 0.020727 0.0083956 0.028783 -0.043724 
0.08156 0.62347 0.00017495 0.051143 0.037661 0.011191 0.043745 -0.043395 
0.12316 0.51446 0.020562 0.027632 0.041114 0.037497 0.041114 -0.060329 
0.067585 0.43686 0.037332 0.042265 0.0095465 0.011848 0.041607 0.027632 
0.030427 0.37405 0.071366 0.038812 0.0082312 0.0080668 0.014643 0.035853 
0.019083 0.30253 0.084355 0.022042 0.013164 0.038155 0.027796 0.040456 
0.058871 0.20043 0.092904 0.033715 0.036346 0.028619 0.018918 -0.03205 
0.030592 -0.036325 0.073832 0.037332 0.031742 0.011355 0.028947 -0.10061 
0.037661 -0.5562 0.060022 0.039634 0.032729 0.011355 0.01563 -0.14237 
0.095042 -0.89752 0.059693 0.029112 0.023686 0.038812 0.021549 -0.098309 
0.17971 -1.3105 0.07301 0.027468 0.0098754 0.0036276 -0.015938 -0.074304 
0.26077 -2.005 0.1151 0.030263 0.030427 -0.018568 -0.058192 -0.079072 
0.27113 -1.9545 0.10376 0.044073 0.016945 0.0032988 -0.020048 0.025659 
0.10902 -0.70911 0.055747 0.038483 0.016616 0.034373 0.034537 0.061666 
-0.13234 0.70124 0.059857 0.026317 0.034373 0.0065871 0.028454 -0.0047575 
-0.26535 1.3714 0.087314 0.03388 0.040621 0.0026412 0.0059294 -0.043395 
-0.30087 1.3462 0.13039 0.031085 0.027796 0.023193 0.0018191 0.037332 
-0.20879 0.99702 0.13171 0.012342 0.025988 0.038319 0.021384 0.18695 
-0.10571 0.43801 0.12661 0.024837 0.01974 0.063145 0.061008 0.18267 
0.036182 -0.28196 0.15209 -0.0039354 0.012013 0.041443 0.09422 0.14075 
0.1442 -0.62887 0.15242 0.011026 0.004943 0.034373 0.07301 0.1567 
0.15505 -0.36285 0.092904 -0.013636 -0.0021268 0.012342 0.047033 0.13138 
0.09833 0.25008 -0.021199 -0.020706 -0.018733 0.0039565 0.023851 0.040292 
-0.017911 0.68512 -0.090417 0.041607 0.015794 0.0034632 0.049006 -0.0073881 
-0.067564 0.60127 -0.121 0.0074092 0.044567 -0.011827 0.061995 0.073339 
-0.011827 0.25715 -0.13497 0.030592 0.024179 -0.021034 0.11428 0.07449 
0.091753 -0.042408 -0.15898 0.025495 0.021384 -0.00031829 0.12858 0.014972 
0.25863 -0.16654 -0.14582 0.0083956 0.035524 0.011191 0.13647 -0.080552 
0.33903 -0.17805 -0.12938 0.027632 0.031249 -0.015444 0.11855 -0.079237 
0.29037 -0.21932 -0.079072 0.026317 0.011848 -0.0024557 0.12447 -0.0050863 
0.12365 -0.25878 0.0011614 0.024508 0.020398 0.036346 0.16015 0.087808 
-0.092719 -0.23132 0.093726 0.035853 0.033222 0.047362 0.098988 0.15752 
-0.19597 -0.10521 0.10343 0.015301 0.036675 0.044896 -0.037476 0.1516 
-0.20962 -0.094199 0.093398 0.0041209 -0.0027845 0.024508 -0.13284 0.13121 
-0.19498 -0.21406 0.15916 0.035524 0.010204 0.023357 -0.16243 0.038319 
-0.18989 -0.37929 0.20849 0.024344 -0.010019 -0.023994 -0.1478 -0.0034422 
-0.12379 -0.44489 0.21654 -0.0078813 0.0044497 0.0088889 -0.061809 0.055089 
-0.082525 -0.3959 0.21934 0.033058 0.010533 0.032071 -0.0039354 0.13697 
-0.072496 -0.2596 0.22904 -0.012156 0.0082312 0.02829 0.022371 0.18843 
-0.030406 -0.038627 0.1396 0.030592 0.055089 0.032071 0.062652 0.15292 
0.066763 0.25403 -0.041751 0.029934 0.055254 0.035031 0.095864 0.084848 
0.18465 0.50164 -0.15832 0.05772 0.070544 0.05476 0.089945 0.017767 
0.19862 0.54751 -0.19515 0.086492 0.045389 0.040292 0.074819 -0.11179 
0.18202 0.37619 -0.18479 0.047362 0.037332 0.033387 0.095699 -0.14319 
0.17577 0.25058 -0.1455 0.026152 0.030098 0.017438 0.12283 -0.12133 
0.099152 0.34331 -0.096994 0.041278 0.027303 0.0095465 0.078436 -0.084827 
0.031085 0.47747 -0.038462 0.043251 0.01826 -0.0034422 0.042265 -0.088115 
0.083204 0.4824 0.0023123 0.029112 0.025166 0.01826 0.027961 -0.021034 
0.17215 0.42584 0.019905 0.027632 0.0039565 0.021713 0.076134 0.050486 
0.16722 0.34627 0.036346 0.023851 0.0056006 0.0034632 0.049828 0.23019 
0.15571 0.35449 0.095864 0.054925 0.016616 -0.0024557 -0.014787 0.36846 
0.20027 0.40677 0.10704 -0.00064712 0.010369 0.040128 -0.075455 0.38079 
0.11724 0.2948 0.11247 -0.010348 0.0039565 0.030592 -0.08532 0.28839 
-0.047505 -0.11919 0.084026 0.032564 0.015301 -0.01117 -0.070359 0.13878 
-0.14221 -0.34855 0.077121 0.0069159 0.0059294 -0.0072237 -0.030899 0.020562 
-0.18282 0.068407 0.0090533 0.027961 0.015794 0.013821 0.029276 -0.05885 
-0.20107 0.57003 -0.023501 0.038155 0.030263 0.010204 0.10178 -0.032708 
-0.21175 0.64271 -0.033694 0.02681 0.042758 0.035031 0.15341 0.056404 
-0.11919 0.38244 -0.028104 0.033715 0.030756 0.059857 0.14798 -0.01232 
0.022535 -0.18167 0.014972 0.042429 0.04358 0.074983 0.14568 -0.099131 
0.085835 -0.93189 0.021713 0.032729 0.068571 0.044073 0.081395 -0.19367 
0.11477 -1.2306 0.012013 0.064625 0.056569 0.023028 -0.031392 -0.20025 
0.11888 -0.47909 0.00099702 0.032071 0.038648 0.031907 -0.095185 -0.096007 
0.11477 0.48602 -0.06296 0.043416 0.047855 0.035195 -0.09239 -0.017746 
0.06594 0.86795 -0.03616 0.05213 0.047691 0.013328 -0.052437 0.055747 
0.058213 0.62002 0.046046 0.010697 0.044402 0.028454 -0.025145 0.027796 
0.073339 0.17347 0.13664 -0.015938 0.022371 0.013986 -0.011992 0.016452 
0.16114 -0.094034 0.17182 -0.012978 0.015465 0.023357 -0.035503 -0.01676 
0.17725 -0.047505 0.1368 0.013492 0.021384 0.020233 -0.038791 -0.047012 
0.12135 0.063474 0.08715 0.065776 0.042594 0.053445 -0.038956 -0.031557 
0.041443 0.031249 0.015465 0.038155 0.03651 0.038155 -0.013307 0.030427 
1.0539e-005 -0.21373 -0.00031829 0.026317 0.034044 0.029276 -0.0075525 0.1294 
0.014808 -0.57807 -0.011992 0.077943 0.12497 -0.0064016 -0.012649 0.10704 
0.043745 -0.5031 0.042923 0.048348 0.041443 0.0095465 0.0051074 0.14881 
0.037497 -0.0070593 0.052459 0.046868 0.02533 -0.021034 -0.0088678 0.17429 
0.018754 0.53074 0.035195 0.039141 0.014479 -0.0062372 0.016616 0.16245 
-0.061973 0.65553 -0.00015387 0.038319 0.01563 0.057884 0.078107 0.087808 
-0.11886 0.45889 0.020233 0.028619 -0.019719 0.0065871 0.094548 0.035688 
-0.14878 0.091589 0.018918 0.028454 -0.02794 0.019411 0.11921 -0.043888 
-0.1187 -0.43223 0.0060938 0.024508 -0.00064712 0.03388 0.13088 -0.086471 
-0.05885 -0.78375 0.0093821 0.068736 0.0421 0.061172 0.14371 -0.14484 
-0.043395 -0.58777 0.01826 0.034044 0.11526 0.063145 0.066434 -0.19729 
-0.041751 -0.049314 -0.0067304 0.037826 0.14239 0.062981 0.032071 -0.18035 
-0.048656 0.37011 -0.020212 0.048348 0.13516 0.05772 -0.017088 -0.13662 
-0.019226 0.52005 0.00099702 0.013657 0.11313 0.02122 -0.031392 -0.073154 
-0.004593 0.36928 0.032564 0.01267 0.095699 0.013492 -0.067728 0.10244 
0.007738 0.00017495 0.051801 0.015465 0.061666 0.049499 -0.089266 0.23101 
0.041278 -0.50688 0.052459 0.0018191 0.03388 0.059857 -0.056712 0.27261 
0.037497 -0.67984 -0.0062372 0.037826 -0.033365 0.02533 0.01152 0.22246 
0.036346 -0.46479 -0.068714 0.028619 -0.059672 -0.05178 0.031578 0.20668 
0.079094 -0.23 -0.059507 0.012835 -0.037476 -0.0406 0.0075736 0.256 
0.11658 -0.2619 0.014315 0.043416 0.027468 -0.010183 0.03651 0.24532 
0.078929 -0.05737 0.075312 0.019905 0.072517 0.0011614 0.058377 0.15768 
0.0013258 0.2736 0.08715 0.03092 0.12085 0.020891 0.0592 0.0592 
-0.069536 0.44393 0.14371 0.0079024 0.087643 0.025988 0.069064 0.051308 
-0.058521 0.48651 0.18317 -0.012814 0.034537 0.066763 0.13565 -0.10702 
-0.040928 0.31305 0.17659 0.0024767 0.012177 0.07038 0.15768 -0.45213 
0.0088889 0.18678 0.11346 0.048348 0.026646 0.081067 0.14733 -0.64844 
0.051308 0.14338 -0.025967 0.046868 0.072846 -0.0060728 0.11543 -0.66751 
0.12332 -0.038462 -0.044874 0.086985 0.098823 -0.028762 0.10556 -0.34855 
0.1613 -0.30563 0.0047785 0.064296 0.13236 0.071202 0.087643 0.053116 
0.10639 -0.51937 0.02829 0.042923 0.11576 0.1368 -0.028597 0.25683 
0.042758 -0.25828 -0.041915 0.077614 0.079916 0.12233 -0.14714 0.25189 
-0.024816 0.25485 -0.049971 0.041936 0.044896 0.10458 -0.094856 0.20076 
-0.029255 0.56379 -0.059836 0.043087 0.0098754 0.06183 -0.006566 0.17725 
-0.0032777 0.62018 -0.022679 0.05065 -0.039449 0.0059294 0.038812 0.11855 
0.029605 0.536 0.029934 0.034702 -0.11097 -0.060658 0.041772 0.061337 
0.054596 0.41088 0.070708 0.021056 -0.084005 -0.042079 0.05624 0.023028 
0.072517 0.29727 0.099316 -0.020541 -0.043395 -0.016266 0.012013 0.073504 
0.11494 0.072846 0.079422 -0.026131 0.01267 -0.014622 -0.079072 0.18958 
0.11247 -0.24365 0.093562 0.010369 0.064296 0.0034632 -0.072989 0.30319 
0.13253 -0.35118 0.060844 -0.018897 0.084026 0.028619 0.061995 0.33229 
0.19024 -0.24546 -0.028597 -0.0014692 0.074161 0.027468 0.11099 0.20487 
0.26028 -0.26009 -0.045696 0.037332 0.054432 -0.013143 0.15423 -0.021199 
0.2371 -0.3543 -0.012814 0.020727 0.048019 0.034044 0.15489 -0.13974 
0.16837 -0.31484 0.012342 0.0042853 0.027632 0.042758 0.13976 -0.17279 
0.10211 -0.24003 0.076463 0.00066819 -0.014458 0.016945 0.11543 -0.15191 
-0.059343 -0.0771 0.10359 -0.020212 -0.020541 0.0059294 0.12677 -0.1552 
-0.17016 0.25239 0.11148 0.0011614 -0.0095255 0.021713 0.1271 -0.11031 
-0.17098 0.46251 0.12743 -0.0098543 -0.020048 -0.0067304 0.16525 -0.098309 
-0.0073881 0.47352 0.14815 0.0024767 -0.0091966 -0.0029489 0.022864 -0.012485 
0.11822 0.4094 0.15686 0.079094 0.025824 0.04095 -0.133 0.060515 
0.1225 0.31453 0.14617 0.058871 0.025001 0.038977 -0.18084 0.10129 
0.064296 0.24992 0.13417 0.047855 0.020562 0.015465 -0.14813 -0.029091 
0.047362 0.26817 0.04095 0.055418 0.013164 -0.0019624 -0.10242 -0.12231 
0.067256 0.32752 -0.088773 0.012177 -0.0062372 0.0028056 -0.054575 -0.050136 
0.059693 0.36057 -0.18397 0.01563 -0.017582 -0.022021 -0.010348 0.031085 
0.0056006 0.34742 -0.15799 0.016288 -0.010019 -0.028104 0.055747 0.082382 
-0.057699 0.27096 -0.093212 0.0023123 -0.0032777 0.026974 0.064132 0.077614 
-0.080388 0.049828 -0.049314 0.033551 0.023357 0.072681 0.029112 0.025495 
-0.086636 -0.17805 0.037826 -0.026624 0.016123 0.079422 0.090931 0.010697 
-0.052109 -0.28788 0.10474 -0.016595 0.01152 0.057884 0.073175 -0.072003 
0.047197 -0.24875 0.12825 0.022371 0.0062583 0.03947 0.047526 -0.034516 
0.13253 -0.194 0.11099 0.017767 0.018589 -0.0064016 0.028619 0.083368 
0.20487 -0.24447 0.10589 0.046704 0.037332 -0.013471 0.021056 0.19073 
0.19846 -0.27884 0.11247 0.071695 0.048184 0.014808 0.030098 0.21621 
0.16755 0.00017495 0.098659 0.051308 0.059857 0.03092 0.039963 0.16015 
0.06742 0.3757 0.053116 0.074654 0.059693 -0.0055795 0.03799 0.11839 
-0.043395 0.54077 0.018096 0.058871 0.051636 -0.030077 0.083697 0.087808 
-0.04619 0.49523 0.017274 0.042594 0.029441 -0.004593 0.079916 0.086821 
-0.023665 0.40463 0.025166 0.047855 0.018425 -0.010183 0.063639 0.13516 
-0.11672 0.45067 0.013164 -0.012814 -0.010512 -0.03353 0.13006 0.15966 
-0.20649 0.78377 -0.09946 -0.012978 0.013328 0.011191 0.13664 0.085835 
-0.17542 0.77046 -0.19022 0.034373 0.035031 0.0085601 0.023522 -0.068714 
-0.065755 0.17906 -0.16868 0.037826 0.017438 -0.0021268 -0.10702 -0.12626 
-0.0040998 -0.37831 -0.078086 0.065776 0.017767 -0.021856 -0.19071 -0.16572 
-0.014129 -0.60635 -0.027611 0.065283 0.03799 0.0080668 -0.12116 -0.091404 
0.017932 -1.0235 -0.025145 0.053116 0.059857 0.019083 -0.066906 -0.053917 
0.090603 -1.2633 0.011355 0.095699 0.066763 0.028947 -0.016924 -0.019061 
0.12661 -0.96789 0.0075736 0.045389 0.075312 0.050979 0.01826 0.015301 
0.1322 -0.12988 -0.024652 0.022371 0.052294 0.039141 0.018918 -0.058356 
0.068571 0.76815 -0.0055795 0.04506 0.041443 0.014643 0.020069 -0.10554 
-0.041751 1.0967 0.034702 0.045718 0.044567 0.022535 0.031742 0.023193 
-0.091404 0.74497 0.1299 0.016288 0.041772 0.050321 0.056898 0.2366 
-0.028762 -0.079401 0.2126 -0.0021268 0.0059294 0.0042853 0.076299 0.2828 
0.039963 -0.55291 0.2417 -0.039613 0.0023123 -0.0014692 0.019576 0.17824 
0.12612 -0.51214 0.20668 0.013821 -0.022679 0.015959 0.0047785 0.1641 
0.26176 -0.3201 0.14206 0.01004 0.027796 0.037497 0.09274 0.1562 
0.25946 -0.10308 0.059857 0.02533 0.041114 0.026646 0.1516 0.15999 
0.085012 -0.16638 0.037826 0.070051 0.027796 0.026317 0.11494 0.047691 
-0.012485 -0.48057 0.059693 0.048513 -0.0042642 0.065118 0.052294 -0.084827 
0.058213 -0.76961 0.041936 0.012999 0.01004 0.038319 -0.065097 -0.13432 
-0.14648 -0.60306 -0.011827 0.057062 0.039305 0.03388 -0.054246 -0.13399 
-0.32257 -0.21077 -0.082361 0.057062 0.048184 0.046868 -0.03616 -0.10637 
-0.23165 0.16278 -0.11376 0.078107 0.037497 0.073997 -0.029255 -0.038956 
-0.08269 0.37685 -0.10801 0.041278 0.0070803 0.037497 -0.032543 0.011191 
0.020398 0.39033 -0.090088 0.010533 0.020891 -0.017746 0.033715 -0.044052 
0.22246 0.52268 -0.075127 0.028783 -0.0078813 0.01152 0.064625 -0.011827 
0.4944 0.61952 -0.049642 0.0021479 -0.0026201 1.0539e-005 0.1294 0.11411 
0.47632 0.40266 -0.0068948 -0.022679 -0.0022913 -0.028104 0.21013 0.2736 
0.26422 0.035853 0.0047785 0.027961 -0.00015387 0.007738 0.22065 0.3364 
0.16229 -0.19909 0.016781 0.035195 -0.021528 0.01152 0.075312 0.34758 
0.04506 -0.1792 0.014972 0.052623 0.012835 0.029112 -0.018897 0.26094 
-0.10883 -0.20534 0.061501 0.062159 -0.0027845 0.03536 -0.039778 0.17412 
-0.21685 -0.20896 0.15735 0.018754 0.0054362 0.053938 -0.022514 0.11165 
-0.14171 -0.012649 0.19681 0.018096 -0.0088678 0.01974 -0.027447 0.017438 
-0.016595 0.15472 0.16245 -0.0021268 -0.0075525 0.010204 -0.029913 -0.098638 
-0.052931 0.16196 0.082546 0.01711 -0.0057439 -0.001798 -0.010348 -0.15076 
-0.13103 -0.089924 0.08863 0.038319 -0.013471 0.016616 0.038977 -0.10258 
-0.14155 -0.06148 0.085999 0.043909 0.0082312 0.028125 0.057227 0.032729 
-0.11656 0.16952 0.076627 0.0421 0.015959 0.046375 0.042265 0.02533 
-0.0091966 0.048513 0.065118 0.071695 0.015301 0.06479 0.061995 -0.036983 
0.099974 -0.24086 0.053609 0.044567 0.039963 0.071037 0.1391 0.017438 
0.17873 -0.085649 0.017603 0.04358 0.026646 0.086985 0.12792 0.12299 
0.20487 0.40677 0.02829 0.040456 0.015137 0.073504 0.03947 0.2269 
0.3096 0.51874 0.073339 -0.0095255 -0.025967 0.046704 0.0085601 0.23397 
0.44952 0.19846 0.11888 0.0016547 -0.036983 -0.012814 -0.012485 0.29464 
0.45527 -0.22672 0.14864 -0.024652 -0.04882 -0.038133 0.0046141 0.32522 
0.317 -0.28031 0.073997 -0.010019 -0.0080457 -0.028926 0.014643 0.24137 
0.097015 0.14091 -0.025638 0.011191 0.037004 -0.039449 0.0080668 0.060022 
-0.12725 0.90807 -0.12873 -0.0062372 0.063803 -0.023172 0.016123 -0.072003 
-0.39343 1.4115 -0.19811 0.018754 0.066269 0.010862 0.12233 -0.12067 
-0.52332 1.4028 -0.25236 0.056733 0.079422 0.088794 0.24499 -0.42089 
-0.44933 1.1406 -0.18824 0.065447 0.094055 -0.0014692 0.23151 -0.80364 
-0.35923 0.87124 -0.12938 0.088465 0.089123 -0.031886 0.13368 -0.93238 
-0.2665 0.658 0.0060938 0.062159 0.071202 -0.014622 0.03947 -0.54107 
-0.17887 0.4824 0.09422 0.032564 0.034373 0.060515 -0.044874 0.015959 
0.0047785 0.56855 0.11773 0.070051 0.032729 0.15555 -0.11738 0.33476 
0.1664 0.4482 0.11855 0.055582 0.059857 0.16706 -0.17213 0.46826 
0.32982 -0.2083 0.11362 0.049006 0.054596 0.14765 -0.23642 0.46596 
0.4436 -1.2508 0.13203 0.050486 0.040128 0.08567 -0.11113 0.35958 
0.42338 -2.8149 0.25271 0.025988 0.038483 0.020398 0.11855 0.19501 
0.23364 -3.113 0.27573 -0.011334 -0.0095255 -0.016595 0.13861 0.20536 
0.00083261 -1.6514 0.22394 -0.031392 -0.032379 -0.044052 0.033715 0.2223 
-0.17197 0.23167 0.14568 -0.066084 -0.044052 -0.050464 -0.043395 -0.022679 
-0.2397 1.4789 0.061337 -0.028433 -0.025145 -0.0052507 -0.016102 -0.31221 
-0.18841 1.7569 0.0034632 -0.0082102 0.013821 0.016616 -0.0026201 -0.43782 
-0.10554 1.6244 -0.075784 0.035688 0.051308 0.0421 -0.0027845 -0.31139 
-0.043559 1.1761 -0.12396 0.082711 0.092411 0.043416 -0.010676 -0.15733 
-0.00031829 0.67361 -0.081374 0.071695 0.08978 0.039963 0.070544 -0.066413 
0.0023123 0.22937 -0.032708 0.077778 0.062159 -0.019061 0.17955 0.013821 
0.034702 -0.10538 -0.003771 0.084848 0.028619 -0.078086 0.26669 0.020562 
0.059857 -0.33802 0.021384 0.045718 -0.0011404 -0.065426 0.21589 -0.0138 
0.0062583 -0.48205 -0.00097594 0.036346 0.01004 -0.018733 0.077121 -0.025145 
-0.019884 -0.66143 0.040128 0.022042 0.032564 0.01711 -0.025145 0.034866 
0.038483 -0.61309 0.029276 0.0036276 0.064461 0.060515 -0.096829 0.10524 
0.085506 -0.37337 -0.0091966 0.032893 0.075312 0.091425 -0.10604 0.068242 
0.1077 -0.23658 -0.047341 0.016123 0.085177 0.052623 -0.0771 0.0028056 
0.026974 -0.27522 -0.04882 0.027632 0.063474 0.0019835 -0.1256 -0.1062 
-0.03616 -0.29462 -0.045368 0.057227 0.046868 0.020891 -0.13744 -0.13316 
-0.082196 -0.22557 -0.0070593 0.065447 0.068242 0.038812 -0.019719 -0.082525 
-0.13547 -0.087951 0.079258 0.048184 0.078272 0.030263 0.094713 -0.023501 
-0.11228 0.012506 0.091918 0.044567 0.073504 0.033058 0.11411 0.026974 
-0.029091 -0.12133 0.069886 0.03799 0.08978 0.048348 0.08156 -0.012978 
0.064296 -0.34805 0.062981 0.047033 0.10113 0.039634 0.075641 -0.055561 
0.14552 -0.4056 0.040456 -0.0031133 0.082546 0.004943 0.047197 -0.023007 
0.18218 -0.14303 0.028783 -0.0054151 0.011355 -0.026953 -0.00064712 0.05476 
0.21145 0.2948 0.012013 0.031578 0.012013 0.014315 0.0018191 0.15357 
0.24038 0.42124 0.018589 0.0083956 0.018754 0.065118 0.0088889 0.17281 
0.2075 0.16689 0.056733 0.023193 0.0080668 0.069886 -0.0029489 0.17248 
0.16245 -0.10324 0.065612 0.012013 0.017438 0.10376 -0.030899 0.18432 
0.03947 -0.11196 0.035524 -0.0096899 -0.029584 0.085341 -0.022021 0.26669 
-0.18183 0.074654 -0.049478 0.034044 -0.031064 0.034537 -0.0016336 0.24285 
-0.3959 0.24005 -0.14352 0.049992 -0.028597 0.018096 -0.038791 0.099481 
-0.32668 0.078765 -0.10045 0.039141 -0.03912 0.00050378 -0.11048 -0.0503 
0.065283 -0.36104 0.03536 0.054596 -0.064275 -0.034352 -0.10817 -0.045039 
0.36994 -0.55143 0.10491 -0.025802 -0.081539 -0.088937 0.034044 -0.035503 
0.42223 -0.13514 0.11231 -0.011498 -0.064604 -0.087786 0.12579 -0.096007 
0.35005 0.38688 0.027468 0.053938 -0.022843 -0.071345 0.15982 -0.037476 
0.16673 0.68989 -0.032543 0.053938 0.041772 -0.019555 0.19106 0.060679 
-0.0060728 0.65356 -0.026131 0.040456 0.1128 0.042923 0.16804 0.13976 
-0.096994 0.3683 -0.025638 0.059528 0.1225 0.026152 0.066763 0.11658 
-0.086471 0.098823 -0.017253 0.017767 0.085835 0.0054362 -0.027447 0.15505 
-0.030406 0.0095465 0.009711 0.0098754 0.11822 -0.0042642 -0.078908 0.2371 
0.019083 -0.25746 0.067091 -0.017582 0.08419 0.043087 0.010533 0.23841 
0.015794 -0.29462 0.062817 0.0039565 0.069886 0.085999 0.12332 0.26077 
0.00017495 0.097837 -0.0032777 0.066763 0.052459 0.17725 0.087314 0.28428 
0.0095465 0.45346 -0.046025 0.029112 0.056076 0.18761 -0.036818 0.26817 
0.037497 0.54027 -0.075127 -0.0021268 0.027468 0.15111 -0.12988 0.095371 
0.066434 0.45527 -0.066248 0.026317 -0.025309 0.12003 -0.1672 -0.080388 
0.13203 0.22855 -0.0503 0.0065871 -0.067892 0.051801 -0.087129 -0.08384 
0.1761 -0.026624 -0.010348 -0.00031829 -0.085978 -0.0057439 0.023193 -0.056055 
0.10129 -0.058356 0.013657 -0.0013048 -0.094856 -0.063289 0.15719 0.00033937 
0.0052718 0.094877 -0.020706 0.0082312 -0.10784 -0.12231 0.20619 0.060515 
0.0037921 0.18974 -0.0090322 0.040456 -0.080717 -0.1404 0.15127 0.12233 
0.052294 0.39723 -0.045368 0.041443 -0.035503 -0.087786 0.077285 0.089452 
0.095699 0.46119 0.024508 0.019411 0.024508 0.010369 -0.027775 -0.087951 
0.11937 0.33624 0.11428 0.01415 0.021713 0.09833 -0.097158 -0.23181 
0.13154 0.038319 0.21769 0.0023123 0.059528 0.18087 -0.13678 -0.16605 
0.14371 -0.21241 0.2759 0.010204 0.08715 0.17149 -0.14023 0.010369 
0.081067 -0.27703 0.25452 0.0324 0.13335 0.15916 -0.027282 0.18777 
-0.0034422 -0.19531 0.17133 -0.013143 0.10967 0.11181 0.013164 0.18876 
-0.1136 0.084519 0.14141 -0.0026201 0.046375 0.0064227 0.022206 0.10425 
-0.18364 0.1613 0.1174 -0.015116 -0.0070593 -0.15536 0.05476 0.032893 
-0.15322 0.059528 0.09274 0.0074092 -0.011992 -0.23592 0.10573 0.11017 
-0.076442 0.044073 0.035688 0.057227 0.067913 -0.11113 0.12875 0.18711 
-0.039778 0.051965 -0.020048 0.052459 0.10622 0.05213 0.1396 0.1784 
-0.054575 0.012999 -0.053424 0.062488 0.059364 0.17593 0.13845 0.16673 
-0.0040998 -0.069536 -0.055068 0.08419 -0.011663 0.20914 0.1733 0.092411 
0.053774 -0.19696 -0.050958 0.070215 -0.074633 0.10622 0.19254 0.012999 
0.11181 -0.3012 0.0090533 0.0421 -0.10242 0.013986 0.24745 -0.059014 
0.24153 -0.31533 0.020233 0.03799 -0.10423 0.0011614 0.19139 -0.064933 
0.38869 -0.3252 0.043416 -0.011334 -0.031064 0.063803 0.078436 -0.15026 
0.29382 -0.27242 0.039963 -0.006566 -0.014129 0.014479 -0.10439 -0.065755 
0.074161 0.064132 0.038483 -0.046683 0.073997 0.066105 -0.085813 -0.029748 
-0.067235 0.4875 0.019247 -0.013636 0.095206 -0.00064712 -0.072167 -0.065426 
-0.1501 0.71176 -0.013143 0.060186 0.088136 0.050157 -0.041257 0.005765 
-0.16818 0.76371 -0.0098543 0.027139 0.069229 -0.015609 -0.042737 -0.016924 
-0.14467 0.58105 0.026646 0.033715 0.059693 -0.013636 -0.020377 -0.0055795 
-0.08532 0.26209 0.035031 0.069064 0.083862 0.0062583 0.047691 0.027303 
-0.014622 -0.023829 0.080244 0.041607 0.062981 0.013492 0.083533 0.093562 
0.078272 -0.12708 0.13549 0.0062583 0.075476 -0.0013048 0.047033 0.10425 
0.08008 -0.18824 0.16048 0.051472 0.023851 -0.0072237 0.022535 -0.011827 
-0.0078813 -0.36055 0.1345 0.049335 -0.0032777 -0.001798 0.063145 -0.068879 
-0.099131 -0.39031 0.11658 0.057884 0.012342 -0.0031133 0.072846 -0.089595 
-0.055397 -0.17904 0.0034632 0.038483 0.029934 0.009711 0.069393 -0.069536 
0.11559 -0.054904 -0.032872 0.029605 0.020398 0.011355 0.021878 -0.1307 
0.19829 -0.084334 -0.0068948 0.010862 0.027961 0.011026 0.020398 -0.133 
0.17182 -0.21504 0.022864 0.0044497 0.041443 -0.0004827 0.053445 -0.10028 
0.12381 -0.4056 0.05065 0.052952 0.051472 0.011191 0.038483 -0.068221 
0.046704 -0.40445 0.063639 0.081724 0.06183 0.00033937 0.054432 -0.014293 
-0.026789 -0.13382 0.052623 0.051965 0.066269 -0.010183 0.063968 -0.0055795 
-0.016102 0.14946 0.034866 0.083204 0.061172 -0.0072237 0.036182 0.040785 
-0.020706 0.1733 0.088465 0.034702 0.026646 0.03092 0.018589 0.056733 
-0.034188 0.14502 0.13516 0.0039565 -0.0057439 -0.010019 -0.0040998 0.038155 
-0.065097 0.23085 0.18004 0.021878 0.011026 -0.012649 0.017438 0.014643 
-0.093048 0.37093 0.17495 0.0062583 0.04095 -0.0068948 -0.0049219 -0.0064016 
-0.052931 0.44228 0.088794 0.01711 0.047691 0.0098754 -0.020048 -0.0044286 
-0.0031133 0.43423 -0.078579 0.072517 0.047033 0.03092 0.020562 0.023357 
-0.023994 0.50394 -0.17394 0.043745 0.030263 0.018425 0.070544 0.10918 
-0.08269 0.46037 -0.20025 0.029934 0.017603 0.029112 0.071531 0.13894 
-0.049642 0.33426 -0.18413 0.042594 0.0064227 0.024508 0.044073 0.054432 
0.039305 0.22641 -0.14813 0.05772 0.054925 0.018918 0.028619 -0.034188 
0.17445 -0.048656 -0.045039 0.080902 0.046375 0.0039565 0.0032988 -0.089431 
0.22739 -0.44506 0.037332 0.026481 0.086163 0.010697 -0.026624 -0.05441 
0.10376 -0.58892 0.098001 0.031907 0.074819 0.0095465 -0.033859 -0.012978 
0.065612 -0.39524 0.08978 0.061337 0.056076 0.029441 -0.023501 0.0041209 
0.12332 -0.15092 0.098823 0.00297 0.046868 0.04506 -0.028762 0.004943 
0.072188 0.064461 0.1391 -0.02087 0.03651 0.021878 -0.034516 0.023193 
-0.0083746 -0.20403 0.1562 0.013328 0.026481 0.010369 0.020069 0.030098 
-0.090746 -0.64054 0.073997 0.015465 0.054267 -0.019061 0.11033 0.0042853 
-0.12445 -0.32323 -0.034188 0.057555 0.08008 -0.013307 0.10441 -0.020377 
-0.068386 0.17906 -0.059836 0.063968 0.052294 -0.033365 0.030592 -0.10472 
0.11822 0.47023 -0.037969 0.029441 0.027632 -0.037147 -0.050464 -0.1256 
0.14683 0.61064 -0.11393 0.052459 0.048513 -0.0013048 -0.0064016 -0.14582 
0.00066819 0.50098 -0.12462 0.019247 0.04095 -0.0016336 0.074983 -0.079072 
-0.12346 0.33969 -0.055726 0.015794 0.043416 0.072681 0.013328 0.14502 
-0.11146 0.33969 0.025824 0.061501 0.081231 0.11773 0.020562 0.30335 
-0.02942 0.34462 0.061995 0.027139 0.041772 0.12365 0.054267 0.28297 
0.079751 0.16196 0.10885 0.023193 0.015465 0.095371 0.07038 0.19139 
0.094055 -0.036654 0.15127 0.03651 0.047526 0.074983 0.047691 0.13253 
0.10852 -0.40626 0.13483 0.026481 0.051801 0.07449 0.022206 0.14667 
0.14338 -0.94685 0.12464 0.01267 0.03947 0.049335 -0.021363 0.16442 
0.2856 -1.2068 0.16558 -0.046847 0.00017495 -0.0072237 -0.077593 0.14848 
0.44837 -0.85017 0.18448 -0.044217 -0.011498 -0.035832 -0.12544 0.15933 
0.47681 -0.40198 0.19599 -0.026131 -0.036325 -0.044052 -0.17131 0.081724 
0.27688 0.10277 0.19994 -0.044052 -0.038791 -0.049314 -0.17854 -0.072332 
0.05772 0.44409 0.13088 -0.02646 -0.0064016 -0.013471 -0.095021 -0.18693 
-0.044052 0.68907 0.0062583 0.035853 0.047526 0.036675 0.098494 -0.25302 
-0.02498 0.60719 -0.16473 0.076956 0.071859 0.050814 0.18826 -0.1307 
0.068078 -0.1016 -0.25368 0.12464 0.080902 0.08156 0.20997 0.10885 
0.074983 -0.72653 -0.19992 0.1128 0.049828 0.08567 0.15933 0.15949 
-0.11672 -0.47251 -0.10735 0.069886 0.033715 0.0689 0.11839 0.14174 
-0.30596 0.26603 -0.1108 0.060022 0.04506 0.054925 0.062159 0.057227 
-0.26272 0.80465 -0.10817 0.040128 0.047033 0.061501 0.043251 -0.011663 
-0.076606 0.89738 -0.048327 -0.0091966 0.012013 0.023851 -0.010183 -0.029748 
0.060515 0.70387 0.0592 -0.021692 -0.045203 0.016781 -0.06296 -0.024487 
0.071202 0.32325 0.091425 -0.037805 -0.085813 -0.023994 -0.049149 0.022371 
0.044567 0.033387 0.10113 -0.032872 -0.069208 -0.0091966 0.0056006 0.095042 
-0.022843 -0.10653 0.098988 0.014972 -0.011663 0.035524 -0.016102 0.1909 
-0.0044286 -0.10521 0.10408 0.043909 0.019576 0.034044 -0.080059 0.16985 
-0.043395 0.01826 0.10293 0.037826 0.060022 0.035524 -0.11426 0.18087 
-0.06 0.17593 0.1077 0.06594 0.040128 0.073668 -0.035174 0.28034 
-0.010676 0.23578 0.13236 0.079258 0.073175 0.069558 0.0042853 0.28297 
0.098659 0.15259 0.084355 0.08419 0.039634 0.071202 0.029112 0.19221 
0.10721 0.096686 0.019905 0.028125 0.020891 0.053609 0.14502 0.025495 
0.071037 0.007738 -0.004593 0.024837 0.056569 0.062159 0.23989 -0.077593 
0.087643 -0.11623 0.040456 0.045718 0.054432 0.05065 0.25452 -0.074469 
0.14502 -0.13678 0.093891 -0.018075 0.026646 0.019576 0.23956 -0.052273 
0.17133 -0.25483 0.14716 -0.046847 0.0039565 0.0069159 0.12957 -0.11459 
0.16031 -0.49751 0.15916 -0.036983 0.0018191 -0.038133 -0.001798 -0.22392 
0.027303 -0.33276 0.075476 -0.025309 -0.016924 0.00017495 -0.1108 -0.21537 
-0.1695 0.29168 -0.015609 0.024673 -0.017253 0.056569 -0.17246 -0.14204 
-0.18857 0.60916 -0.078415 0.038319 -0.010512 0.081889 -0.083018 -0.12577 
-0.045532 0.67427 -0.11343 0.0016547 -0.020541 0.067749 -0.028433 0.074983 
0.038977 0.76191 -0.095843 0.072353 0.010533 0.042265 0.031414 0.16706 
-0.057699 0.73609 -0.093541 0.062323 0.04358 0.0042853 0.12612 0.23956 
-0.21718 0.70305 -0.085978 0.053774 0.027961 -0.060329 0.26981 0.12727 
-0.46528 0.84247 -0.14895 0.086163 0.043745 0.0021479 0.27294 0.090438 
-0.55489 0.65421 -0.17246 0.077285 0.062159 0.038648 0.12694 0.049499 
-0.43749 0.19057 -0.11722 0.1026 0.073339 0.10754 0.0011614 0.030263 
-0.18857 -0.22557 -0.024816 0.077778 0.058049 0.09422 -0.032215 0.018754 
0.14716 -0.48682 0.074654 0.032236 0.063474 0.038319 -0.053424 -0.014787 
0.28741 -0.51164 0.10458 0.066434 0.056076 0.038155 -0.085813 -0.0083746 
0.17314 -0.32865 0.094548 0.016945 0.046375 0.034702 -0.0075525 -0.0027845 
0.20208 -0.28607 0.15045 -0.0036066 0.025001 0.024837 0.0036276 0.1077 
0.35564 -0.3372 0.232 -0.0057439 0.013986 0.020727 0.026481 0.24532 
0.41137 -0.048163 0.29365 -0.033859 -0.011334 0.054103 -0.018568 0.27705 
0.37422 0.25337 0.2805 -0.054904 0.01415 0.018589 -0.088937 0.13236 
0.23792 0.30533 0.23644 -0.011498 0.011026 0.022864 -0.048656 -0.037476 
0.064132 0.43078 0.092904 0.041443 0.030592 0.038977 0.099316 -0.018404 
-0.071674 0.61525 -0.098967 0.081231 0.06331 0.056404 0.1636 0.070708 
-0.14139 0.50394 -0.14155 0.070215 0.04506 0.046375 0.13878 0.026974 
-0.19449 0.087479 -0.073976 0.028947 0.018425 0.012835 0.073997 -0.15602 
-0.13941 -0.43026 0.017932 0.017274 -0.015609 -0.028104 0.01004 -0.34476 
-0.063289 -0.66389 0.0051074 -0.030899 -0.014787 -0.074798 -0.023336 -0.38801 
-0.028926 -0.58481 -0.0096899 -0.0083746 0.0051074 -0.090746 0.037661 -0.36614 
-0.015609 -0.67178 -0.059014 0.048348 0.024179 -0.057534 0.10803 -0.078908 
-0.051944 -0.90328 -0.053095 0.062323 0.030098 0.0065871 0.18892 0.17725 
-0.022514 -0.54009 -0.0019624 0.059857 0.031085 0.029769 0.17889 0.25173 
0.033222 0.1322 0.029276 0.045718 0.0324 0.048348 0.11461 0.16755 
0.098494 0.52334 0.053609 0.023193 0.037168 0.039141 0.054432 0.020069 
0.16936 0.47878 0.055254 0.052459 0.061172 0.028125 -0.097816 -0.025474 
0.29892 0.080902 0.076463 0.031578 0.031742 0.012835 -0.20436 0.037004 
0.37323 -0.21044 0.13056 0.03947 -0.011992 0.0014903 -0.26124 0.08008 
0.33065 -0.133 0.14568 0.044567 0.032729 0.0098754 -0.20025 0.04917 
0.25025 0.098001 0.1396 -0.0077169 0.024015 0.0011614 -0.11952 0.064461 
0.16311 0.24038 0.13582 -0.025967 0.026974 -0.00081153 -0.018897 0.14733 
-0.021363 0.11526 0.036839 0.022371 0.036839 0.022371 0.10688 0.2172 
-0.16605 -0.17854 -0.080388 0.056569 0.017274 0.015465 0.23759 0.26192 
-0.17476 -0.082032 -0.13136 0.083204 -0.00081153 0.004943 0.25189 0.21326 
-0.072167 0.20273 -0.090088 0.01826 -0.010348 -0.0075525 0.12431 0.11592 
0.021056 0.39329 0.018918 0.0088889 0.011355 -0.034023 -0.010183 -0.0060728 
0.035688 0.45938 0.045882 -0.011005 0.040292 -0.066741 -0.055232 -0.0039354 
0.028454 0.55146 0.060515 0.0039565 0.054103 -0.052273 -0.13875 -0.032215 
0.087643 0.57941 0.066927 0.017438 0.055582 0.012506 -0.083676 -0.082361 
0.20454 0.19961 0.11937 0.034866 0.064296 0.060844 -0.056219 -0.071674 
0.39937 -0.85313 0.17495 -0.0044286 0.063474 0.071695 0.015137 -0.093541 
0.40184 -1.9106 0.15242 0.0098754 0.0689 0.069064 -0.011992 -0.094692 
0.14009 -1.8107 0.074819 0.042923 0.048019 0.082711 0.0092177 -0.076113 
-0.096665 -0.67409 -0.033694 0.038648 0.027632 0.026152 0.024179 -0.013143 
-0.14698 0.46908 -0.090581 0.039634 0.0085601 0.0032988 0.044073 0.009711 
-0.043395 0.97268 -0.092061 -0.0040998 -0.0031133 -0.0040998 0.00099702 0.018589 
-0.016102 0.99603 -0.084991 -0.00097594 -0.035667 -0.043066 -0.0016336 0.10556 
-0.13415 0.80202 -0.069372 0.057391 -0.04619 -0.063289 0.044238 0.15374 
-0.22704 0.52301 -0.082361 0.06479 -0.039942 -0.046519 0.04917 0.18695 
-0.14451 0.4311 -0.12922 0.075641 -0.0080457 -0.037147 0.025495 0.19007 
-0.06444 0.35794 -0.075291 0.08008 0.023522 -0.018075 0.033715 0.17955 
-0.0060728 0.30533 0.01711 0.0056006 0.062817 0.034209 0.045553 0.12595 
-0.087786 0.22493 0.059857 0.034537 0.035524 0.068571 0.086821 -0.02087 
-0.10637 -0.10965 0.057391 0.034702 0.016781 0.022206 0.082217 -0.09946 
-0.10308 -0.36121 0.03651 0.025166 0.068571 0.0037921 0.083368 -0.060165 
-0.084334 -0.33457 0.024837 0.046046 0.085341 0.038812 0.11806 0.067913 
-0.032708 -0.21307 -0.013965 0.038812 0.086492 0.081724 0.10967 0.12036 
-0.025802 -0.042901 -0.020541 0.039634 0.062323 0.1248 0.05772 0.086821 
-0.017911 0.11806 -0.0072237 0.063474 0.03092 0.17199 0.039305 0.051965 
-0.013143 0.3244 0.0044497 0.036839 0.060022 0.19632 0.03651 0.010533 
0.13664 0.28839 0.038648 0.028783 0.084026 0.13187 -0.029255 0.019411 
0.3295 0.043416 0.1054 0.036346 0.088465 0.046211 -0.09239 0.0044497 
0.40019 -0.109 0.17182 -0.012485 0.032071 -0.022679 -0.121 -0.018239 
0.35268 -0.040106 0.14634 -0.0091966 -0.015116 -0.070523 -0.086307 0.0088889 
0.28379 0.045882 0.079258 -0.01676 0.035853 -0.054082 -0.025638 0.069558 
0.2218 0.020233 0.024179 -0.0026201 0.035688 0.0019835 0.012999 0.055254 
0.14864 0.066927 0.030263 0.025659 0.040292 0.040456 0.060515 0.054596 
0.086328 0.28691 0.018589 0.017603 0.02829 0.060515 0.1539 0.067091 
-0.080717 0.50164 -0.031886 0.025166 0.0421 0.047362 0.16673 0.019576 
-0.31369 0.42847 -0.073482 0.059693 0.019411 0.057227 0.11 -0.051451 
-0.35808 -0.12116 -0.040928 0.037168 0.016288 0.018425 0.084684 -0.043724 
-0.28278 -0.80545 -0.024323 0.035031 -0.0042642 -0.042408 0.058213 -0.055232 
-0.14698 -0.73738 -0.014293 0.018754 -0.074798 -0.075949 0.021878 -0.055726 
0.0011614 -0.18907 -0.0067304 0.0079024 -0.087458 -0.056055 -0.0070593 -0.13086 
0.072846 0.24055 0.010369 0.04358 -0.038956 -0.074469 -0.045696 -0.12988 
0.098166 0.42469 0.035031 0.050321 0.05213 -0.021528 -0.011827 -0.090417 
0.1008 0.45248 0.048841 0.037004 0.10293 0.071366 -0.015609 0.028947 
0.062488 0.43653 0.067749 0.03947 0.10589 0.17593 0.0324 0.23742 
-0.014622 0.47681 0.10984 0.020069 0.074654 0.22164 0.13056 0.37422 
-0.095349 0.42453 0.1179 -0.027282 0.014315 0.18333 0.1904 0.32407 
-0.045696 0.24153 0.18432 -0.004593 -0.0072237 0.13006 0.086492 0.17971 
0.032071 0.037826 0.22345 -0.01676 -0.0059084 0.051308 0.047197 0.069229 
0.076299 -0.033694 0.22378 1.0539e-005 0.0065871 0.0023123 0.081067 -0.035503 
0.044567 0.051308 0.17133 0.036182 0.041114 -0.041093 0.11099 -0.1233 
-0.09798 0.13499 0.062652 0.074654 0.096686 -0.072496 0.068407 -0.14402 
-0.21504 0.1179 0.0026412 0.097837 0.13993 -0.024816 -0.0019624 -0.18528 
-0.22113 0.010862 -0.059836 0.0689 0.1738 0.026481 -0.028926 -0.23346 
-0.068221 -0.29709 -0.022021 0.031414 0.13467 0.10211 -0.032543 -0.28295 
0.19764 -0.7923 0.043745 -0.025309 0.03651 0.05213 -0.069043 -0.22869 
0.31684 -0.5396 0.076792 -0.067399 -0.015116 -0.0044286 -0.057863 -0.087786 
0.29201 0.099152 0.012506 -0.046847 -0.0034422 -0.068879 -0.077757 0.12398 
0.17347 0.35136 -0.049642 0.021549 -0.0067304 -0.047341 -0.11524 0.31437 
0.1105 0.31618 -0.0068948 0.013986 -0.025638 -0.041257 -0.078579 0.31371 
0.27836 0.12118 0.10787 0.021549 -0.048985 0.0088889 0.035688 0.18004 
0.62413 -0.82173 0.16936 -0.030735 -0.065097 0.0421 0.037826 0.04654 
0.86236 -1.7502 0.18152 -0.032543 -0.072003 0.039634 0.016452 -0.031557 
0.7111 -1.3437 0.14223 0.01152 -0.057205 0.017603 0.11313 -0.10784 
0.16475 0.061172 0.08419 -0.030077 -0.039613 -0.012978 0.16969 -0.14385 
-0.43881 1.315 -0.0057439 -0.00015387 0.00066819 -0.020048 0.12266 -0.064111 
-0.76862 1.7902 -0.10768 0.054596 0.054925 -0.0034422 0.08156 -0.027118 
-0.73525 1.5179 -0.12955 0.063968 0.088301 -0.001798 0.017767 0.0024767 
-0.49997 0.94325 -0.12429 0.090767 0.073175 0.015794 -0.024816 0.0092177 
-0.22425 0.37142 -0.076113 0.064625 0.053938 -0.004593 -0.021856 0.0016547 
-0.046354 -0.21521 0.071531 0.031578 0.048841 -0.0091966 0.010204 0.047362 
0.010204 -0.63528 0.091918 0.049828 0.011355 -0.025474 0.0079024 0.087479 
0.020727 -0.78326 0.10063 0.034373 0.0039565 -0.0073881 -0.0075525 0.12562 
0.068571 -0.68362 0.09981 0.019247 0.0064227 -0.0083746 -0.021692 0.14272 
0.08863 -0.30432 0.10293 0.051801 0.025495 0.0037921 0.038812 0.13697 
0.050157 0.2468 0.025659 0.060844 0.060515 0.044238 0.045389 0.059528 
0.0023123 0.5799 0.011191 0.055418 0.064625 0.038155 0.047362 -0.029091 
0.014643 0.57727 0.032729 0.058542 0.046211 0.027303 0.061008 -0.10489 
0.053116 0.39559 0.080738 0.028947 0.04358 0.054432 0.05624 -0.14171 
0.10819 0.2468 0.065776 0.0689 0.031907 0.038977 0.04917 -0.14287 
0.18678 0.11362 -0.013471 0.047362 0.018425 0.010204 0.010862 -0.12445 
0.24384 0.017438 -0.074633 0.017932 0.0060938 0.0014903 -0.014458 -0.040435 
0.23512 -0.12166 -0.03912 0.020727 0.015465 0.032893 -0.011498 0.058213 
0.30483 -0.85675 0.01152 -0.012156 0.011848 0.040128 -0.044874 0.12694 
0.47599 -1.8547 0.11461 -0.045203 -0.0052507 0.0085601 -0.05737 0.1641 
0.51282 -2.0591 0.26159 -0.046683 -0.059672 0.0095465 -0.079895 0.11 
0.24038 -1.0493 0.24417 -0.031064 -0.060658 0.00050378 -0.068879 0.1562 
-0.14336 0.52186 0.030263 0.030592 -0.068714 -0.017088 -0.038298 0.22986 
-0.33293 1.4529 -0.11968 0.049828 -0.046519 -0.048327 -0.015773 0.21753 
-0.36745 1.6696 -0.11771 0.035524 -0.021199 -0.018075 0.019905 0.022042 
-0.40889 1.6096 -0.1039 0.05624 0.0019835 -0.02498 0.098659 0.034537 
-0.37255 0.97712 -0.060987 0.026317 0.023686 -0.00031829 0.14026 0.22542 
-0.14254 -0.25253 -0.012485 0.026974 0.032893 0.058542 0.16623 0.20586 
-0.0026201 -0.54897 0.055582 0.063968 0.033222 0.08304 0.24795 0.068571 
0.011355 0.21079 -0.015609 0.066105 0.065447 0.10145 0.19714 -0.06148 
0.045882 0.83902 -0.064111 0.048513 0.079094 0.11181 0.072353 -0.097158 
0.037497 0.96233 -0.057534 0.055911 0.083533 0.07449 0.085835 -0.069043 
0.015137 0.60177 -0.047176 0.02122 0.056404 0.020891 0.24663 0.0069159 
0.048348 -0.10982 0.0088889 0.077121 0.048513 0.03799 0.30204 0.15505 
0.18498 -0.62509 0.029934 0.073668 0.054267 0.042429 0.14321 0.22444 
0.29037 -0.79312 0.13319 0.03092 0.038155 0.050486 -0.059014 0.19714 
0.24564 -1.0453 0.23085 0.047362 0.034866 0.025824 -0.1307 0.12217 
0.088136 -1.2007 0.31388 -0.021034 0.013986 -0.0026201 -0.18068 0.044402 
0.023686 -0.86974 0.26899 -0.06 -0.055726 -0.025145 -0.19252 -0.013471 
0.056076 -0.2767 0.12447 -0.038298 -0.052931 -0.046847 -0.15865 -0.064768 
-0.0027845 0.24762 0.0042853 -0.020706 -0.027447 -0.031228 -0.092061 -0.029913 
-0.082196 0.57053 -0.073318 0.039799 0.0087245 -0.015938 -0.035667 -0.046519 
-0.032708 0.64977 -0.1256 0.074654 0.042429 0.032236 0.015465 -0.0024557 
0.032564 0.70157 -0.1279 0.071037 0.077285 0.074326 0.07597 0.057555 
-0.021034 0.72853 -0.1524 0.11066 0.10852 0.097179 0.15144 0.11296 
0.041936 0.63169 -0.16292 0.078107 0.10096 0.11609 0.1562 0.13105 
0.099645 0.55096 -0.12248 0.053116 0.091918 0.073504 0.14782 0.088794 
0.1345 0.53008 -0.067564 0.05213 0.058049 0.056569 0.1197 0.069064 
0.080409 0.41894 -0.0032777 -0.0047575 0.024508 0.036675 0.13434 0.021878 
-0.10127 0.12431 -0.026789 -0.006566 0.035195 0.035524 0.069558 0.052787 
-0.35447 -0.35923 -0.016431 0.025495 0.033551 0.0079024 -0.010019 0.062652 
-0.30679 -0.75054 0.080244 0.018918 0.023357 0.0019835 -0.019061 0.038977 
-0.030899 -0.78523 0.17149 0.0036276 0.021878 0.01563 0.036675 0.022206 
0.19944 -0.42072 0.19254 -0.015773 0.017274 0.017932 0.017274 -0.018897 
0.22772 0.041278 0.16541 -0.023336 0.025659 -0.0073881 0.035195 -0.024323 
0.11461 0.11658 0.12398 0.033551 0.036346 0.031907 0.029605 -0.044381 
-0.040435 0.11313 0.064954 0.046375 0.075312 0.053116 0.027139 -0.041586 
-0.15421 0.24433 -0.016431 0.053609 0.054925 0.043745 0.024015 -0.026131 
-0.18495 0.55935 -0.0098543 0.096357 0.040456 0.034537 0.0093821 -0.0022913 
-0.086471 0.63859 -0.023172 0.065118 0.064296 0.065118 -0.0075525 0.017767 
0.13746 0.47122 -0.043888 0.058542 0.050814 0.045224 0.019576 0.01004 
0.24597 0.24104 -0.058356 0.077614 0.0011614 0.034373 0.016452 -0.018733 
0.23381 0.12365 -0.00081153 1.0539e-005 0.028947 0.013986 0.017603 -0.074962 
0.22246 -0.080881 0.033551 0.0034632 0.062159 0.018754 -0.028597 -0.072332 
0.098659 -0.27292 0.01974 0.013986 0.013986 0.012177 -0.033365 -0.09946 
-0.014458 -0.24891 -0.025309 0.011848 0.014808 0.02533 -0.030077 -0.099789 
-0.20074 0.064296 -0.0075525 0.06183 0.025659 0.030098 -0.034845 -0.066741 
-0.28656 0.28231 -0.028926 0.053281 0.041114 0.03651 -0.0031133 -0.0054151 
-0.096829 0.36041 -0.034352 0.077778 0.061501 0.037497 -0.0059084 0.014808 
0.083862 0.50377 -0.027282 0.077614 0.083204 0.034209 -0.023336 0.0031344 
0.0092177 0.8622 -0.04882 0.040128 0.022042 0.024015 -0.017088 0.041443 
-0.056548 0.76898 -0.1011 0.037826 -0.017911 -0.015116 -0.01232 0.10836 
-0.092226 -0.25697 -0.067235 0.028454 -0.012978 -0.016924 -0.0064016 0.14174 
-0.0083746 -1.3281 0.035031 -0.017911 -0.020048 -0.0019624 -0.0077169 0.19024 
0.10228 -1.4886 0.14289 0.018096 0.010369 0.00066819 0.00297 0.12973 
0.2514 -0.8727 0.15703 -0.027775 0.0069159 -0.018568 0.01152 -0.044546 
0.41203 -0.32471 0.20684 -0.024323 0.013986 -0.026131 -0.047012 -0.30366 
0.59963 -0.35562 0.232 0.032236 0.0052718 -0.027447 -0.12314 -0.498 
0.56296 -0.559 0.22493 0.024015 0.0018191 -0.038627 -0.12642 -0.43815 
0.31782 -0.16966 0.14289 0.035524 -0.0060728 -0.003771 -0.044052 -0.1381 
0.034373 0.50394 0.022206 0.076134 0.021056 0.066598 0.022535 0.18662 
-0.13514 0.79051 -0.019555 0.038319 0.049664 0.081231 0.083697 0.28626 
-0.24168 0.73757 -0.009361 0.021384 0.060844 0.065447 0.1368 0.23742 
-0.2859 0.74957 0.0064227 0.011191 0.017274 0.056404 0.096028 0.13976 
-0.29824 0.81353 0.027796 -0.009361 0.029934 0.03947 0.0421 0.10803 
-0.24529 0.71998 0.050321 0.039305 0.019247 0.011355 -0.0029489 0.14585 
-0.16687 0.39888 0.0689 0.0079024 -0.038462 -0.014129 0.0047785 0.20224 
-0.074469 -0.044052 0.039799 -0.017417 -0.053424 -0.001798 0.06742 0.23479 
0.033222 -0.32832 0.034209 0.022535 -0.013471 -0.022021 0.10852 0.14371 
0.12595 -0.45114 -0.0073881 0.036839 0.050814 -0.0049219 0.15966 0.029605 
0.15867 -0.44736 0.0072447 0.074983 0.081231 0.021056 0.13203 -0.095678 
0.18021 -0.53614 0.063968 0.10737 0.10096 0.070215 0.080409 -0.096829 
0.26159 -0.47367 0.11066 0.061172 0.076627 0.084519 0.028619 -0.011498 
0.36813 -0.27884 0.081395 0.041278 0.034866 0.078436 -0.03616 -0.062796 
0.38293 -0.24414 0.073832 -0.0014692 0.027139 0.034537 -0.048492 -0.14714 
0.18974 -0.30843 0.064954 -0.023665 0.022535 -0.008539 0.014808 -0.15437 
0.099974 -0.38028 0.066763 -0.012814 -0.00097594 -0.025474 0.01004 -0.033037 
0.12973 -0.62756 0.091753 -0.04323 -0.029913 -0.059014 0.0032988 0.04506 
0.10819 -0.72966 0.1784 -0.046683 -0.039449 -0.060494 0.047197 0.072353 
0.066105 -0.20452 0.18761 0.038155 0.017932 -0.029913 0.12529 0.24614 
-0.015773 0.61032 0.16064 0.039141 0.080244 0.032729 0.10096 0.36813 
-0.037147 0.95296 0.09422 0.061337 0.084684 0.10244 0.05213 0.232 
-0.057863 0.60768 0.071202 0.039141 0.0028056 0.068078 0.061995 -0.065262 
-0.082361 0.4288 0.023028 0.044402 -0.023007 0.016123 0.0421 -0.10406 
-0.062302 0.54718 0.051472 0.041772 0.0028056 -0.016266 0.0088889 0.10984 
-0.073318 0.62462 0.034209 0.01004 0.014972 0.031249 0.020562 0.18974 
-0.12757 0.5799 -0.087129 0.012835 0.050486 0.023851 0.042265 0.11921 
-0.14056 0.58335 -0.133 0.0227 0.08978 0.032893 0.1031 -0.033365 
-0.10932 0.61936 -0.076113 0.010204 0.10704 0.073339 0.096686 -0.12314 
-0.024816 0.33492 0.0032988 0.0041209 0.059857 0.078929 0.079751 -0.16703 
0.064132 -0.32668 0.075805 0.032564 0.06331 0.052952 -0.025474 -0.20041 
-0.018075 -0.80019 0.10474 0.023193 0.062817 0.045389 -0.066084 -0.13366 
-0.12609 -0.607 0.088794 0.061337 0.095535 0.10195 0.047526 0.016288 
-0.15931 -0.1769 0.075148 0.066927 0.098166 0.084355 0.17149 0.17297 
-0.13333 0.079258 0.042429 0.056076 0.060186 0.064296 0.19221 0.24893 
-0.06444 -0.1307 0.015301 0.041114 -0.029748 0.048184 0.13319 0.26998 
-0.026789 -0.15816 -0.00097594 0.025659 -0.03057 0.005765 0.063639 0.21621 
-0.083347 0.29563 0.0087245 0.025495 -0.013143 -0.031721 0.065118 0.20109 
-0.16687 0.81468 -0.073318 0.071859 0.0034632 -0.0087034 0.063968 0.18695 
-0.1667 0.85069 -0.095678 0.052787 0.025495 0.010533 0.040621 0.11214 
-0.0080457 0.33246 -0.057699 0.02533 -0.008539 -0.015609 -0.033694 0.064132 
0.1373 -0.17558 0.010204 0.031085 -0.025967 -0.021363 -0.059014 -0.042737 
0.23151 -0.58053 0.04358 0.0069159 -0.031228 -0.0026201 -0.029255 -0.16243 
0.21112 -0.66175 0.071859 0.028947 0.028454 0.0021479 0.0014903 -0.23461 
0.16475 -0.46462 0.069229 0.016616 0.041936 -0.011005 0.044402 -0.22129 
0.11099 -0.30152 0.064461 -0.0042642 0.056569 -0.016266 0.12875 -0.19137 
0.046375 -0.26387 0.056404 0.0024767 0.046704 0.025824 0.10014 -0.17739 
-0.026296 -0.0022913 0.075312 -0.023172 0.067091 0.007738 -0.034352 -0.10373 
-0.0077169 0.52959 0.066927 0.0026412 0.081231 0.0024767 -0.1838 -0.034352 
0.035195 0.75204 0.0056006 0.057884 0.090603 -0.0039354 -0.22672 0.096028 
-0.021363 0.63728 -0.11146 0.07038 0.065776 0.046211 -0.12922 0.27261 
-0.12774 0.48799 -0.15865 0.094877 0.082382 0.1128 -0.0068948 0.37504 
-0.17065 0.3415 -0.14599 0.076463 0.057555 0.17528 0.044731 0.27392 
-0.079401 0.16623 -0.13908 0.054925 0.062817 0.13516 0.097179 0.19501 
0.05213 -0.053753 -0.12708 0.08008 0.049828 0.063968 0.16903 0.27343 
0.21276 -0.16802 -0.080881 0.020233 -0.019719 -0.026296 0.16064 0.28757 
0.36386 -0.07973 -0.031392 -0.011992 -0.090253 -0.03205 0.095371 0.26472 
0.33328 0.25715 -0.0052507 -0.034845 -0.15733 -0.079072 0.0036276 0.19599 
0.1493 0.67756 -0.017088 -0.055397 -0.21504 -0.12938 0.014643 -0.024652 
0.03388 0.4921 0.00099702 -0.02794 -0.15437 -0.16079 0.012013 -0.20764 
0.039634 -0.082361 -0.038133 0.071366 0.019083 -0.11393 -0.020541 -0.29462 
0.035031 -0.80249 -0.071674 0.11263 0.12628 -0.015773 -0.037311 -0.17986 
-0.027447 -1.0953 -0.0091966 0.10458 0.18366 0.059857 0.007738 -0.071509 
-0.072989 -0.76435 0.069064 0.0421 0.159 0.11642 0.038812 0.024015 
-0.074633 -0.23148 0.10935 0.0032988 0.14075 0.11642 0.038155 0.075312 
0.067585 -0.23592 0.15505 0.048677 0.13927 0.12628 0.0093821 0.033058 
0.29069 -0.7558 0.2343 0.031742 0.16097 0.12546 -0.059672 -0.058685 
0.48585 -0.67573 0.25978 0.031414 0.12809 0.1151 -0.133 -0.11607 
0.32867 0.07301 0.2172 0.012342 0.067913 0.039634 -0.11048 -0.1205 
0.0046141 0.40858 0.14815 -0.030899 0.025659 -0.044874 0.055747 -0.043066 
-0.30103 0.44409 0.011684 -0.033365 0.027632 -0.080223 0.24071 0.034866 
-0.4273 0.64566 -0.11196 0.052952 0.073832 -0.024158 0.23973 0.03536 
-0.3492 0.86549 -0.20452 0.09126 0.094713 0.063639 0.15045 0.079751 
-0.19811 0.79462 -0.21488 0.15456 0.047033 0.11576 0.080573 0.18103 
-0.090253 0.69663 -0.17608 0.082546 -0.089102 0.10145 0.033222 0.20273 
-0.023501 0.82274 -0.11787 0.0324 -0.16128 0.02829 -0.047998 0.18267 
0.1008 0.55047 -0.093376 0.0090533 -0.15257 -0.041751 -0.055232 0.18218 
0.29234 0.0028056 0.014643 -0.032543 -0.084005 -0.048327 -0.029748 0.16212 
0.41039 -0.57511 0.17396 -0.025309 0.021549 0.020233 -0.0049219 0.13532 
0.48881 -0.92958 0.29365 -0.027611 0.086163 0.044731 -0.006566 0.12332 
0.59256 -1.0049 0.35761 -0.045368 0.10721 0.057555 -0.026296 0.10622 
0.65504 -1.1242 0.37076 -0.063124 0.071366 0.013986 -0.059178 -0.032215 
0.47632 -0.96937 0.30681 -0.029255 0.056076 -0.023665 -0.051944 -0.17936 
0.11526 -0.79411 0.2121 -0.0082102 0.048348 -0.045368 -0.032872 -0.22113 
-0.13612 -0.92301 0.15735 0.048841 0.03947 -0.046354 -0.031228 -0.15832 
-0.25187 -0.35496 0.079751 0.034866 0.058049 -0.0039354 -0.0072237 -0.079237 
-0.32898 0.64418 0.019247 0.075148 0.071366 0.061501 0.026974 -0.059178 
-0.37584 1.3183 -0.055397 0.15259 0.10803 0.15111 0.074983 -0.032215 
-0.34855 1.531 -0.10143 0.12973 0.14716 0.20405 0.12447 -0.019555 
-0.26535 1.2381 -0.14911 0.10491 0.11033 0.15111 0.147 -0.023007 
-0.17821 0.8474 -0.13711 0.075641 0.049335 0.092411 0.089123 -0.03057 
-0.10489 0.50246 -0.095514 0.01415 -0.0083746 0.032893 0.035524 -0.0503 
-0.07266 0.1835 0.010533 -0.02498 -0.031721 0.031742 -0.0044286 -0.016102 
-0.067728 -0.076277 0.1026 -0.055726 -0.042737 0.0054362 0.041936 0.020891 
-0.013307 -0.2208 0.10754 -0.045039 -0.045368 -0.0014692 0.081724 0.0034632 
0.046046 -0.34756 0.077285 0.032893 -0.012649 0.01415 0.017932 -0.046354 
0.099645 -0.36532 0.0421 0.014315 -0.020212 -0.019719 -0.077593 -0.071838 
0.18514 -0.41086 0.092904 0.026481 -0.024487 -0.070523 -0.088937 -0.050136 
0.23381 -0.60898 0.15209 0.023193 -0.011827 -0.13333 -0.079072 -0.026789 
0.13582 -0.44588 0.16048 -0.010019 -0.025309 -0.0868 0.075312 -0.011334 
-0.014129 0.065612 0.12875 -0.014458 1.0539e-005 -0.071674 0.21062 0.024508 
-0.050958 0.45659 0.095535 0.007738 -0.025309 -0.020048 0.18695 0.11625 
0.011355 0.58417 0.05065 -0.020048 -0.077922 0.062323 0.064296 0.13861 
0.089123 0.42617 -0.0078813 0.056569 -0.049314 0.084519 -0.054904 0.1345 
0.1031 0.11987 -0.058521 0.07301 0.00297 0.056898 -0.063618 0.0786 
0.056076 0.3101 -0.01117 0.071366 -0.019884 0.031578 -0.043888 -0.030406 
0.05065 0.46267 0.061172 0.033387 -0.028597 0.0018191 -0.052931 -0.092061 
0.020562 0.021056 0.053609 0.012342 -0.00015387 -0.0070593 -0.084991 -0.12692 
0.063803 -0.55784 -0.014622 0.007738 0.052294 -0.0036066 0.010533 -0.078415 
0.052952 -0.41497 -0.025309 0.050486 0.081889 0.045224 0.13993 -0.03616 
0.14108 0.026974 -0.03353 0.064625 0.096028 0.0227 0.12217 0.011848 
0.15144 0.29004 -0.018733 0.058213 0.094384 0.013657 0.035031 0.10047 
-0.010183 0.55047 -0.026296 0.033058 0.075312 -0.011663 -0.012156 0.095042 
-0.18824 0.79857 -0.023501 -0.032543 0.035524 -0.033201 0.015137 -0.024487 
-0.24628 0.64698 -0.085485 0.0019835 0.060186 -0.038956 -0.0019624 -0.09387 
-0.23099 0.41236 -0.13086 0.037004 0.078929 0.00297 0.0023123 -0.056383 
-0.19531 0.2052 -0.093212 0.082053 0.061666 0.093398 0.061501 0.028125 
-0.10061 0.040785 -0.018075 0.098001 0.040785 0.13417 0.11494 0.12792 
-0.018733 0.16755 0.034044 0.066598 0.016616 0.14338 0.13878 0.18054 
0.06331 0.33854 0.043745 0.090109 0.010533 0.072188 0.12398 0.024179 
0.12513 0.36419 0.046211 0.10606 -0.0040998 0.017767 0.11017 -0.084005 
0.19632 0.15949 0.057391 0.069886 -0.006566 -0.033694 0.028783 -0.079072 
0.30615 -0.29676 0.089452 0.059035 -0.02087 -0.043888 -0.059343 0.036017 
0.15735 -0.96049 0.13138 0.013657 -0.01117 -0.027611 -0.026131 0.098988 
-0.02087 -1.1946 0.13828 -0.018239 0.023028 -0.034352 0.034537 0.10096 
-0.022679 -0.39409 0.10359 -0.011992 0.044731 -0.041093 0.041114 0.20158 
0.029769 0.56083 0.055582 -0.060494 0.024508 -0.02235 0.037661 0.30105 
0.10129 0.76782 0.027961 -0.037147 0.055418 0.01563 0.047362 0.32884 
0.04095 0.50871 -0.0096899 -0.0072237 0.062488 0.024673 0.085999 0.17873 
-0.098802 0.44245 -0.039613 0.025166 0.073997 0.039634 0.094877 0.028125 
-0.14484 0.40611 -0.082032 0.066763 0.086657 0.081067 0.074326 -0.071016 
-0.16342 0.33246 -0.052109 0.084519 0.09422 0.066598 0.036675 -0.099953 
-0.064933 0.078436 -0.05441 0.060844 0.049499 0.053116 -0.03501 0.0028056 
0.11757 -0.3959 -0.014129 0.061501 0.075312 0.039799 -0.067235 0.043909 
0.19944 -0.63545 0.039141 0.031414 0.07301 0.075312 -0.040764 0.027961 
0.20553 -0.31303 0.049006 0.045553 0.082382 0.083204 0.0080668 -0.02235 
0.17741 0.30483 0.005765 0.047033 0.085177 0.079258 0.054432 -0.070359 
0.0689 0.77243 -0.070359 0.020069 0.03651 0.05476 0.058377 -0.081374 
-0.027282 0.61771 -0.057863 -0.0016336 -0.047341 0.020891 0.032564 0.026646 
0.015137 -0.13596 0.076956 -0.014129 -0.070359 0.032236 0.0047785 0.20175 
-0.024158 -0.7239 0.15966 -0.023501 -0.022514 0.029605 0.02829 0.28214 
-0.10291 -0.42467 0.15275 0.0021479 -0.001798 0.068407 0.062323 0.34183 
-0.056877 -0.090253 0.079422 0.038648 0.031578 0.0079024 -0.037476 0.26455 
0.069886 -0.1455 0.065118 0.057227 0.056404 0.018918 1.0539e-005 0.1179 
0.17067 -0.46249 0.11461 0.080573 0.094384 0.044567 0.047691 0.040785 
0.070215 -0.44374 0.11263 0.035688 0.079916 0.050321 0.046046 -0.049642 
-0.035832 -0.63759 0.13697 0.012506 0.074161 0.046211 0.073339 -0.11672 
-0.047341 -0.94044 0.12168 0.038319 0.08567 0.0088889 0.0592 -0.21471 
0.08978 -0.67968 0.081724 0.023522 0.037168 -0.018075 -0.11903 -0.24414 
0.23249 -0.1695 0.016123 0.030263 -0.022679 -0.073154 -0.20764 -0.20386 
0.32867 0.28773 -0.019061 0.030098 0.011355 -0.055068 -0.15289 0.0032988 
0.33278 0.77506 -0.0088678 0.029934 0.075805 0.05065 0.032893 0.11987 
0.15752 1.048 -0.053588 0.049828 0.089287 0.096521 0.22164 0.15719 
-0.12314 0.80663 -0.082361 0.042594 0.037332 0.11247 0.26225 0.16558 
-0.12133 0.34676 -0.025474 0.013821 -0.040271 0.086328 0.16919 0.10918 
0.19484 -0.56656 0.061337 -0.0080457 -0.076442 0.070708 0.054103 0.031578 
0.39411 -1.091 0.10721 -0.075784 -0.064768 0.014479 -0.014787 -0.04619 
0.35366 -0.78802 0.14354 -0.083676 0.016616 0.0085601 -0.057205 -0.13415 
-0.097816 -0.039284 0.12365 -0.019226 0.017274 0.051308 -0.06296 -0.1376 
-0.6976 0.51989 0.052294 0.033715 0.017274 0.061501 -0.0022913 0.00083261 
-0.86744 0.83786 -0.091075 0.08978 0.048019 0.064132 0.060679 0.21802 
-0.49981 0.68266 -0.17871 0.13335 0.01004 -0.028762 0.023851 0.24252 
0.053445 0.13615 -0.14023 0.11132 0.014315 -0.060494 -0.042408 0.15719 
0.39115 -0.38455 -0.039449 0.12201 0.041607 -0.038791 -0.045203 0.16558 
0.46119 -0.57067 0.076134 0.060022 0.011684 -0.0055795 -0.0098543 0.21441 
0.46497 -0.78704 0.22805 -0.030242 -0.028269 -0.0068948 -0.038462 0.095535 
0.54488 -0.90311 0.36123 -0.059507 -0.078908 -0.092554 -0.071838 -0.27078 
0.48914 -0.27653 0.33821 -0.0965 -0.097651 -0.2037 -0.078908 -0.52957 
0.23693 0.73593 0.13384 -0.066741 -0.069208 -0.19252 -0.023665 -0.56426 
-0.022843 1.1572 -0.025474 0.0013258 1.0539e-005 -0.11623 0.045553 -0.54568 
-0.11261 0.81386 -0.12281 0.054432 0.078436 -0.015444 0.19879 -0.34411 
-0.12692 0.25041 -0.15207 0.083204 0.089452 0.092576 0.22526 0.10852 
-0.157 0.059528 -0.073154 0.071695 0.10474 0.19846 0.12069 0.54011 
-0.23609 0.39937 -0.031721 0.071695 0.11724 0.22394 0.038319 0.61508 
-0.24151 0.71949 -0.071674 0.10672 0.14453 0.1733 0.030263 0.59815 
-0.18709 0.4704 -0.1039 0.082217 0.13631 0.1197 0.058377 0.52498 
0.062817 -0.79855 -0.059836 0.032071 0.082546 0.069393 0.05624 0.31684 
0.37076 -2.0877 0.020398 0.033715 0.02122 0.015137 0.028619 0.037826 
0.51134 -1.7464 0.12595 0.0041209 -0.010183 0.015959 -0.041586 -0.16523 
0.42913 -0.65962 0.1881 0.0072447 -0.018733 0.056076 -0.047341 -0.21833 
0.21309 0.1054 0.19353 -0.024323 -0.062138 0.035688 0.012342 -0.13662 
-0.27061 0.77539 0.10441 -0.031886 -0.048985 0.018096 0.11609 -0.036983 
-0.56968 1.3849 0.027303 0.016288 -0.077428 -0.056712 0.11411 0.00297 
-0.45985 1.522 -0.08532 -0.0087034 -0.024487 -0.14073 0.10507 -0.064111 
-0.1866 1.2556 -0.079237 0.051965 -0.00097594 -0.1621 0.083204 -0.13448 
0.030098 0.89097 -0.062631 0.06331 0.016452 -0.11426 0.060186 -0.21603 
0.11773 0.49424 -0.019226 0.038483 0.053774 -0.048327 0.02829 -0.14928 
0.16903 0.30714 -0.037311 0.036182 0.090767 -0.0031133 0.037826 1.0539e-005 
0.088136 0.43045 -0.061645 0.045718 0.086492 0.013986 -0.0083746 0.11181 
-0.10801 0.66375 -0.1205 0.015794 0.094055 0.075312 -0.0047575 0.17117 
-0.20863 0.76733 -0.1473 0.051472 0.078765 0.15555 -0.018239 0.20832 
-0.16835 0.5018 -0.11541 0.037826 0.058542 0.15407 0.037004 0.23348 
-0.12149 -0.0011404 -0.023336 0.035853 0.088794 0.096357 0.033551 0.23693 
-0.15996 -0.69743 0.094713 0.053116 0.066927 0.095206 0.059857 0.23183 
-0.17904 -1.104 0.1197 0.0070803 0.041772 0.061337 0.094548 0.23512 
-0.069372 -1.1119 0.024015 0.037168 0.045224 0.03536 0.12579 0.20372 
0.11099 -0.73245 -0.048985 0.096357 0.038977 0.020398 0.099974 0.13615 
0.40792 -0.2009 0.037497 0.050814 -0.01232 0.004943 0.0047785 -0.0047575 
0.55261 -0.022843 0.15538 0.0059294 -0.02235 -0.02235 -0.071345 -0.073318 
0.48454 -0.56278 0.24433 0.0072447 -0.023829 -0.030735 -0.068386 -0.12511 
0.29497 -1.0753 0.21917 0.019411 0.033387 0.005765 -0.043395 -0.062796 
0.11247 -0.77651 0.14404 0.063639 0.044238 0.011848 -0.0026201 -0.034023 
-0.098473 0.004943 0.053774 0.04506 0.042265 0.00099702 0.0324 -0.0062372 
-0.34263 0.92254 0.019247 0.021713 0.022535 0.013821 0.069722 -0.025309 
-0.48665 1.4954 0.016616 0.027632 0.039799 0.042265 0.038319 -0.069701 
-0.42451 1.6215 0.021878 0.0051074 0.058213 0.035195 0.024015 -0.092719 
-0.25253 1.1979 -0.018404 0.011355 0.091753 0.052787 0.023851 -0.14106 
-0.079566 0.62955 -0.076606 0.044073 0.096521 0.061501 0.072353 -0.15076 
0.040292 0.17971 -0.11442 0.047362 0.10178 0.066927 0.077449 -0.14566 
0.059035 -0.11031 -0.08269 0.052294 0.077614 0.053281 0.0324 -0.12182 
0.037168 -0.30498 -0.021692 0.017767 0.038977 0.02533 -0.013965 -0.081868 
0.086821 -0.68592 0.071531 -0.018239 0.015959 0.021878 -0.023665 -0.016431 
0.19402 -0.98614 0.087808 0.050321 0.025659 0.018589 -0.028269 0.10984 
0.25469 -0.84787 0.033058 0.077449 0.037826 0.020727 0.015794 0.12316 
0.25354 -0.35397 0.026317 0.07038 0.014972 0.050321 0.038648 0.13615 
0.2491 0.20602 0.053938 0.070873 0.0052718 0.07038 0.01563 0.090438 
0.16558 0.67871 0.063145 0.018754 0.00066819 0.039963 -0.011992 0.1271 
0.0087245 0.7795 0.04095 0.019576 0.016781 0.025988 0.0011614 0.19501 
-0.058685 0.53057 0.079916 0.0042853 0.031907 0.049992 0.030756 0.17692 
0.025988 0.19205 0.028619 0.048841 0.03799 0.013328 0.029112 0.10047 
0.086985 -0.17542 0.014315 0.068242 0.039799 -0.034188 -0.010183 -0.041751 
0.023357 -0.5345 -0.056219 0.027139 0.023193 -0.028433 -0.0032777 -0.24924 
-0.12527 -0.46232 -0.10258 -0.00031829 -0.029255 -0.037147 -0.0072237 -0.33227 
-0.13152 -0.12363 -0.031886 0.013164 -0.011827 -0.032543 0.02681 -0.24234 
-0.024652 0.19139 0.035031 -0.004593 0.0092177 0.053938 0.019247 -0.074304 
0.14946 0.34051 0.11263 -0.00064712 0.032564 0.10458 0.031907 0.0041209 
0.32276 0.094713 0.17067 0.012342 0.0019835 0.055911 0.065118 0.095206 
0.34758 -0.52233 0.22476 -0.015609 -0.070359 -0.011334 -0.037969 0.13105 
0.30467 -1.0628 0.25699 -0.02794 -0.1085 -0.066084 -0.1233 0.059035 
0.22 -1.0078 0.24351 -0.044052 -0.062467 -0.099624 -0.15602 -0.11196 
-0.0011404 -0.047669 0.14009 -0.0098543 0.078929 -0.041422 -0.056877 -0.097322 
-0.24036 0.97729 0.076134 0.082053 0.18465 0.042758 0.1003 0.10672 
-0.38801 1.4705 0.032071 0.081231 0.18629 0.14206 0.21687 0.2103 
-0.34378 1.509 0.0082312 0.076134 0.16146 0.16114 0.21046 0.20273 
-0.21833 1.1632 -0.059014 0.073175 0.13943 0.1419 0.12151 0.031907 
-0.00064712 0.54981 -0.064768 0.063803 0.092904 0.095206 0.11296 -0.095349 
0.19057 -0.028433 -0.03764 0.040128 0.026646 0.048184 0.12908 -0.061151 
0.30549 -0.24891 0.031085 0.0014903 -0.03912 -0.027282 0.13023 0.11066 
0.36698 -0.49816 0.056898 -0.064768 -0.089102 -0.072332 0.20651 0.23052 
0.43406 -0.97858 0.10606 -0.070359 -0.079895 -0.05589 0.1197 0.21802 
0.3803 -0.98877 0.10935 -0.063618 0.00050378 -0.011663 -0.071838 0.18629 
0.11526 -0.78523 0.046375 -0.00097594 0.062323 0.058871 -0.14977 0.085341 
-0.081045 -0.54288 -0.053917 0.093398 0.020562 0.12135 -0.11179 0.018754 
-0.19531 -0.29692 -0.11656 0.091753 -0.019884 0.11855 -0.097322 -0.016595 
-0.20649 -0.2277 -0.13349 0.060022 -0.035338 0.051472 -0.10456 -0.067728 
-0.057863 0.12053 -0.11557 0.057227 -0.04323 -0.060165 -0.080881 -0.11672 
0.077943 0.60703 -0.12314 0.049664 0.054432 -0.090746 -0.04882 -0.11196 
0.10376 0.90363 -0.097158 0.054103 0.086492 -0.072989 -0.00031829 -0.011663 
0.11247 0.88883 -0.065097 0.063639 0.095206 -0.046683 0.0051074 0.060844 
0.028783 0.23183 -0.012156 0.03092 0.08008 0.010862 0.020727 0.091918 
-0.054575 -0.66718 0.14058 0.027961 0.018918 0.063145 0.10441 0.083368 
0.044402 -0.95589 0.22411 -0.014787 -0.080552 0.042594 0.091589 0.12447 
0.2149 -0.69151 0.30434 -0.041093 -0.12182 0.02533 0.020398 0.25206 
0.1613 -0.43519 0.31305 -0.049149 -0.086964 0.047362 0.01004 0.27902 
0.062488 -0.090581 0.29628 -0.057699 -0.014129 0.039963 0.024837 0.18185 
0.080902 0.23035 0.23134 -0.051615 0.03092 0.014972 -0.0067304 0.005765 
0.053281 0.31388 0.12233 -0.015609 0.099152 0.014479 -0.0039354 -0.10078 
-0.067728 0.49523 0.021056 0.026152 0.13631 0.027468 0.01267 -0.021856 
-0.1695 0.63399 -0.038791 0.087314 0.14272 0.023686 0.019083 0.10951 
-0.22244 0.44705 -0.1113 0.055089 0.14453 0.071202 -0.020048 0.18596 
-0.075949 0.21868 -0.10472 0.03947 0.11658 0.074326 0.0069159 0.10902 
-0.034352 0.12546 -0.07414 0.041443 0.054925 0.036017 0.063803 0.0044497 
-0.024652 -0.0083746 -0.084991 0.022535 0.00033937 -0.040928 0.1202 -0.17821 
0.010697 -0.17624 -0.048656 0.046046 0.01711 -0.065755 0.1003 -0.27867 
0.009711 -0.089759 -0.0070593 0.062323 0.042265 -0.035503 0.11263 -0.086636 
-0.02087 0.043087 0.041607 0.072024 0.050486 0.055089 0.16212 0.12875 
0.061995 -0.093048 0.11296 0.053774 0.0227 0.11411 0.10556 0.19994 
0.22739 -0.3058 0.18498 0.023193 -0.045861 0.090931 -0.049971 0.15752 
0.34594 -0.38916 0.16574 -0.022843 -0.14385 0.0079024 -0.1427 0.059035 
0.35564 -0.34049 0.075312 -0.008539 -0.13645 -0.015116 -0.14451 -0.011827 
0.24893 0.028125 -0.076606 0.0011614 -0.049807 0.0047785 -0.11672 -0.046519 
0.10392 0.54208 -0.18841 0.045718 0.057391 0.053938 -0.069372 -0.040106 
-0.047012 0.5651 -0.15043 0.088465 0.13351 0.074654 -0.029748 -0.086636 
-0.19367 0.39362 -0.038791 0.046375 0.11346 0.054267 0.033551 -0.12577 
-0.28426 0.1932 -0.0059084 0.025166 0.018918 0.057227 0.064954 -0.13892 
-0.26059 0.11757 0.02681 0.026152 0.00017495 -0.033201 0.072353 -0.072332 
-0.19235 0.23134 -0.0034422 0.050157 -0.0138 -0.10489 0.091425 0.031249 
-0.1843 0.47204 -0.09387 0.091753 0.0065871 -0.09946 0.11543 0.12612 
-0.17295 0.63152 -0.13991 0.075805 0.03799 -0.025309 0.099645 0.18909 
-0.12675 0.40134 -0.095678 0.061666 0.05624 0.033715 0.096521 0.15555 
-0.018568 -0.40313 0.033222 0.071695 0.050814 0.039141 0.097837 0.10014 
0.0047785 -0.74297 0.058213 0.030098 0.013657 -0.026789 0.09422 0.0087245 
-0.13875 -0.11311 0.013821 0.024344 0.012342 -0.086636 0.074654 -0.06444 
-0.28344 0.57217 0.039634 0.050321 0.017274 -0.096994 0.063639 -0.07562 
-0.17887 0.69417 0.12546 0.028454 0.030098 -0.039449 0.08156 -0.043724 
0.010204 0.70929 0.16804 0.054596 0.055747 0.037497 0.13582 0.049499 
0.055254 0.83704 0.10326 0.082382 0.091096 0.11494 0.13121 0.20684 
0.058871 0.54899 -0.01232 0.078272 0.095699 0.15801 0.088958 0.32226 
0.087314 0.18958 -0.079072 0.11806 0.088958 0.1641 0.034537 0.23512 
0.2297 -0.058356 -0.078415 0.03947 0.031907 0.091425 0.018918 0.0092177 
0.49013 -0.52611 0.0024767 -0.0054151 0.0041209 0.014972 -0.041915 -0.16128 
0.6723 -1.1196 0.078436 -0.0098543 0.0013258 -0.027282 -0.087622 -0.19794 
0.71044 -1.2143 0.18876 -0.085485 -0.023007 -0.036654 -0.1307 -0.21208 
0.56691 -0.70236 0.26291 -0.12494 -0.026953 -0.10587 -0.12067 -0.26996 
0.11773 0.16146 0.23627 -0.10686 -0.03764 -0.14056 -0.11557 -0.26782 
-0.32536 0.67937 0.14831 -0.034023 0.01004 -0.089759 -0.0055795 -0.28492 
-0.49274 0.50345 0.011355 0.050321 0.035853 -0.01676 0.12168 -0.14533 
-0.43256 0.052459 -0.073811 0.10277 0.055582 0.048019 0.22246 0.10047 
-0.24891 -0.31961 -0.10045 0.11806 0.036675 0.10622 0.19468 0.32292 
-0.028104 -0.34164 -0.11886 0.15374 0.059857 0.11444 0.17906 0.37126 
0.085506 -0.0771 -0.16292 0.1128 -0.0062372 0.07449 0.092411 0.33295 
0.053774 0.31996 -0.16687 0.086821 0.013164 0.053938 0.05065 0.20964 
-0.021692 0.5383 -0.098638 0.061008 0.033222 0.046211 0.004943 -0.011992 
-0.20255 0.39049 0.0070803 -0.012485 -0.0072237 0.020233 -0.051122 -0.15832 
-0.34592 -0.1501 0.076956 -0.014622 0.016781 0.019411 -0.064275 -0.063453 
-0.28262 -0.34526 0.058871 -0.0040998 0.020727 0.020727 -0.008539 0.14881 
-0.10143 0.037497 0.049499 -0.0070593 0.0026412 0.051308 0.041936 0.29694 
0.09685 0.4533 0.041443 0.01152 0.012999 -0.0075525 0.066269 0.30697 
0.27771 0.53222 0.066927 0.016123 0.048019 0.020398 0.053281 0.28247 
0.3854 0.40184 0.11461 0.025001 0.080244 0.052623 0.0085601 0.244 
0.40118 0.32456 0.1465 0.03947 0.077121 0.079094 -0.10127 0.1396 
0.29497 0.19796 0.16788 -0.010841 0.055582 0.071202 -0.17641 -0.02794 
0.30451 -0.22474 0.14075 -0.030242 0.033551 0.064625 -0.12001 -0.1963 
0.38556 -0.92958 0.097179 -0.025309 -0.037476 0.042594 -0.0049219 -0.24118 
0.37257 -1.3546 0.083697 -0.026296 -0.016266 0.026481 0.080409 -0.24924 
0.27557 -1.0371 0.10277 0.0079024 -0.023007 -0.0055795 0.097179 -0.15372 
0.097837 -0.6172 0.096686 0.0011614 -0.017417 0.015794 0.077778 -0.070687 
-0.015938 -0.91002 0.12497 -0.028762 -0.0070593 -0.022021 0.012999 -0.020377 
-0.022843 -1.1405 0.17741 -0.0034422 0.010533 -0.066248 -0.02942 0.048513 
0.033222 -0.27489 0.12431 -0.011005 0.024837 -0.083512 -0.016431 0.035688 
-0.009361 0.87157 0.012177 0.020233 0.066269 0.0031344 0.0074092 0.11987 
-0.17427 1.5897 -0.02646 0.097344 0.10458 0.10688 0.073339 0.25452 
-0.37107 1.8151 -0.063782 0.10408 0.10902 0.1567 0.12595 0.34988 
-0.486 1.5116 -0.075455 0.10277 0.11987 0.1516 0.13943 0.34232 
-0.47646 1.1475 -0.064768 0.088301 0.092904 0.10984 0.11576 0.23414 
-0.36334 0.83885 -0.070523 0.044731 0.06479 0.08304 0.07301 0.1077 
-0.20995 0.25091 -0.081539 0.037004 0.033222 0.066763 0.020891 -0.071345 
0.035031 -0.54255 -0.091404 0.023686 0.0069159 0.071037 -0.020541 -0.13316 
0.37109 -0.91824 -0.014293 -0.047998 -0.045203 0.018754 -0.044546 -0.17345 
0.68808 -0.84244 0.072024 -0.0070593 -0.081045 -0.063946 -0.09798 -0.22145 
0.75089 -0.77734 0.1567 -0.029748 -0.015444 -0.072167 -0.10258 -0.21011 
0.5873 -0.40954 0.183 -0.013636 0.040292 -0.079072 -0.07414 -0.15914 
0.18136 0.017603 0.16245 0.0095465 0.063803 -0.047998 0.010533 -0.0049219 
-0.255 0.02829 0.10589 0.00033937 0.093069 -0.015116 0.037168 0.13351 
-0.30465 -0.40247 0.080409 0.0021479 0.10655 0.04095 0.049006 0.18481 
-0.06444 -0.81499 0.040292 0.0023123 0.080573 0.086328 0.019905 0.12562 
0.025495 -0.60289 0.046375 -0.0090322 0.051801 0.10326 0.0042853 -0.024652 
-0.02087 0.11083 0.04654 -0.0072237 0.049992 0.11905 -0.049971 -0.20616 
-0.073482 0.92106 0.042758 -0.029091 0.049006 0.050814 -0.065591 -0.24332 
-0.028104 1.3329 -0.024652 -0.0070593 0.024015 0.012506 -0.0040998 -0.074469 
-0.029913 1.024 -0.018239 0.048513 0.03947 0.045718 0.063639 0.059528 
-0.072332 0.38425 -0.038791 0.089123 0.10228 0.13697 0.13384 0.13368 
-0.056383 0.047197 0.016616 0.13154 0.098823 0.13795 0.27031 0.12924 
-0.043395 0.088465 0.06183 0.14782 0.040785 0.13746 0.31371 0.056569 
-0.017253 0.23693 0.09685 0.10425 -0.0064016 0.029934 0.17807 0.043745 
0.022371 0.26768 -0.0027845 0.054925 -0.051451 -0.056548 -0.020706 0.049006 
0.091425 0.081231 -0.076935 0.034373 -0.065426 -0.084169 -0.076935 0.072681 
0.1179 -0.14911 -0.06855 -0.013636 0.005765 -0.080552 -0.049314 0.084355 
0.036017 -0.20682 -0.039613 0.013986 0.027303 -0.041915 -0.042573 0.058871 
-0.10653 -0.047998 -0.0070593 0.028947 0.086821 -0.0044286 -0.068057 0.064132 
-0.20896 0.15719 -0.01528 0.05476 0.081067 0.039963 -0.016266 0.1853 
-0.12938 0.30451 -0.0068948 0.075476 0.038812 0.047691 0.11148 0.29168 
-0.016266 0.27606 0.037168 0.0016547 -0.011005 -0.017746 0.20471 0.097179 
0.016452 0.0093821 0.070051 -0.030242 -0.022021 -0.031721 0.12924 -0.16342 
0.082711 -0.13941 0.096686 -0.0027845 -0.012156 -0.01676 -0.0014692 -0.30037 
0.16459 0.02829 0.11477 0.0037921 0.07301 0.051308 -0.045696 -0.24776 
0.14749 0.14437 0.091096 0.065283 0.093069 0.087808 -0.0096899 -0.13991 
0.030756 0.23249 0.050486 0.089287 0.11839 0.098166 0.034537 -0.11508 
0.0095465 0.1322 -0.01232 0.063145 0.062323 0.10408 0.096357 -0.041093 
0.12546 -0.17542 0.014643 0.081231 0.038483 0.036017 0.1276 0.025659 
0.18991 -0.87253 0.055254 0.038155 0.029276 0.023522 0.079094 0.09126 
0.14354 -1.5271 0.14371 0.012013 -0.0047575 -0.0036066 0.036017 0.10343 
-0.015444 -0.50721 0.1294 -0.0027845 0.004943 0.0011614 0.01152 0.13713 
-0.095349 1.1746 0.035031 -0.0095255 0.034866 0.0070803 0.058049 0.16706 
-0.1792 1.8206 -0.11261 0.030098 0.067091 0.033058 0.054925 0.13878 
-0.12938 1.3464 -0.18397 0.085012 0.035688 0.054432 0.029934 0.14585 
0.13384 0.59815 -0.17065 0.080244 -0.026131 -0.004593 -0.02235 0.085012 
0.25304 0.16212 -0.10489 0.093891 -0.1108 -0.040435 -0.096336 0.027303 
0.25502 -0.14566 -0.013965 0.040128 -0.16062 -0.056877 -0.1815 -0.0064016 
0.31634 -0.65879 0.099152 0.0013258 -0.17591 -0.080059 -0.15191 -0.023665 
0.29727 -0.75366 0.14387 -0.032543 -0.10916 -0.061151 -0.014951 -0.0013048 
0.16015 -0.3811 0.097015 -0.059507 -0.016924 -0.022843 0.097015 0.0047785 
-0.076277 0.027961 0.050486 -0.019884 0.070215 0.030427 0.080573 0.013164 
-0.27933 0.037168 0.034702 0.030592 0.1202 0.040621 0.082875 0.0021479 
-0.33293 -0.0011404 0.082546 0.014315 0.12497 0.020562 0.034044 0.053609 
-0.22458 0.14321 0.098988 -0.0096899 0.1322 -0.0055795 -0.019555 0.06479 
-0.11738 0.080244 0.058706 0.040456 0.14519 0.030098 -0.092883 0.061666 
-0.077922 0.075312 -0.012649 0.089616 0.17462 0.039799 -0.12774 0.12727 
-0.03764 0.23298 -0.091239 0.15489 0.19698 0.041936 -0.096336 0.19172 
0.030427 0.26554 -0.10867 0.10902 0.18958 0.043416 0.015465 0.19895 
0.080244 0.066105 -0.059507 0.047033 0.094877 -0.038956 0.10967 0.077943 
0.1105 -0.28426 0.019905 0.029769 0.030263 -0.041257 0.13121 0.075476 
0.1322 -0.82732 0.070544 -0.008539 -0.078415 0.00083261 0.19418 0.16689 
0.19122 -1.0315 0.087479 -0.0027845 -0.17493 0.031249 0.35153 0.17544 
0.19895 -0.84064 0.11444 0.080573 -0.18183 0.067913 0.39214 0.1465 
0.30993 -0.43848 0.12644 0.036675 -0.14155 0.098001 0.15472 0.00099702 
0.49309 -0.024323 0.15144 0.030427 -0.067399 0.094384 -0.14846 -0.19581 
0.57891 0.088794 0.1904 -0.013307 -0.02235 0.0062583 -0.29889 -0.31221 
0.4385 -0.14254 0.16245 -0.052766 0.0016547 -0.062138 -0.34493 -0.23329 
0.24203 -0.48501 0.1105 -0.034845 0.033387 -0.12264 -0.30235 -0.1205 
-0.017746 -0.20584 0.019576 -0.048985 0.04358 -0.081374 -0.23461 -0.14944 
-0.2351 0.49029 -0.025309 -0.028762 0.031742 -0.042573 -0.095678 -0.28722 
-0.34082 0.75977 -0.0026201 0.023028 0.0034632 0.023851 0.037332 -0.47268 
-0.29117 0.6432 0.0041209 0.012999 0.020562 0.033222 0.094384 -0.38011 
-0.19383 0.47188 -0.010183 0.012835 0.040292 -0.036489 0.087479 0.080409 
-0.15289 0.36254 -0.063453 0.033715 0.068571 -0.090746 0.031249 0.47566 
-0.11163 0.24269 -0.10702 0.043745 0.1105 0.0046141 0.04654 0.56707 
-0.059672 0.14963 -0.077593 0.10787 0.10178 0.1054 0.042758 0.36041 
0.013986 0.052623 -0.030735 0.079422 0.074326 0.13762 0.1539 0.10113 
-0.048656 0.26192 -0.017417 0.029769 0.056569 0.15094 0.32045 -0.16259 
-0.16111 0.69581 -0.027611 0.049335 0.058871 0.12266 0.32539 -0.21175 
-0.18857 0.80761 -0.081374 0.010369 0.083204 0.051472 0.20997 0.034044 
-0.12922 0.38622 -0.086964 -0.018897 0.074161 -0.012978 0.077121 0.24647 
-0.032872 -0.033037 -0.046354 0.014808 0.060022 -0.06148 -0.0011404 0.25748 
0.022864 -0.38866 0.00033937 0.039799 0.050321 -0.020541 0.020398 0.12677 
0.093398 -0.55275 0.074819 0.060022 0.069393 0.027632 0.030263 0.042758 
0.063474 -0.13892 0.12151 0.058213 0.020727 0.075641 0.017274 -0.024816 
0.033715 0.28461 0.16607 0.034044 -0.037805 0.090109 -0.041586 -0.020706 
0.031742 -0.17739 0.22838 0.033058 -0.12741 0.017274 -0.027611 -0.019061 
0.19287 -0.97085 0.35153 -0.028104 -0.11327 -0.043724 -0.023336 -0.0087034 
0.29842 -1.5473 0.48322 -0.04323 -0.11146 -0.089924 -0.11146 0.039141 
0.17314 -1.365 0.42814 0.0088889 -0.10242 -0.028597 -0.21044 0.079916 
-0.023994 -0.39294 0.16344 0.041772 -0.04471 0.032236 -0.12379 0.13664 
-0.16555 0.97795 -0.18068 0.10655 0.055582 0.091425 0.088958 0.10326 
-0.23625 1.752 -0.34526 0.11905 0.098988 0.13203 0.32637 0.048019 
-0.15339 1.3073 -0.28673 0.038648 0.092576 0.072517 0.38096 -0.059178 
0.10293 -0.16638 -0.15191 0.0032988 0.069229 -0.034516 0.2052 -0.16835 
0.29201 -1.0286 -0.036654 -0.06707 0.050321 -0.089759 -0.066906 -0.1843 
0.32078 -0.51559 -0.0073881 -0.056877 0.086163 -0.084334 -0.24825 -0.12116 
0.25436 0.40529 -0.0091966 -0.022843 0.082217 -0.050629 -0.21323 -0.025638 
0.051636 1.2272 -0.098309 -0.020212 0.12184 0.018918 0.0051074 0.055254 
-0.13678 1.415 -0.218 0.064625 0.11559 0.11773 0.17445 0.1105 
-0.21932 1.1144 -0.17098 0.13056 0.10047 0.1807 0.14946 0.19418 
-0.20288 0.69499 -0.07414 0.11494 0.10343 0.14946 0.077285 0.24762 
-0.20353 0.40562 0.00099702 0.11346 0.061008 0.13039 0.069886 0.2736 
-0.19466 0.15028 0.081067 0.10573 -0.033694 0.096028 0.063474 0.20471 
-0.11261 -0.12922 0.11066 0.056898 -0.04471 0.056569 0.026317 0.13023 
-0.026296 -0.43338 0.11905 0.023686 -0.06148 0.014808 -0.0077169 0.10376 
0.073339 -0.57215 0.10244 -0.0050863 -0.046519 -0.054246 -0.034352 0.072353 
0.07038 -0.5488 0.096686 -0.035996 -0.048656 -0.13514 -0.053095 0.062817 
0.046704 -0.51132 0.16196 -0.026624 -0.048656 -0.13826 -0.056219 0.018425 
0.09274 -0.42204 0.18366 -0.057863 -0.047176 -0.012649 -0.065919 0.017603 
0.15505 -0.24793 0.12776 -0.017746 -0.0016336 0.15999 -0.017582 -0.013471 
0.13812 -0.094363 0.037332 0.04358 0.069558 0.19566 0.035195 -0.032215 
0.11329 0.14091 -0.068714 0.060679 0.10672 0.1391 0.06331 -0.085156 
0.12201 0.39756 -0.083347 0.079751 0.11822 0.096357 0.062488 -0.10949 
0.1419 0.52268 -0.096665 0.065612 0.079094 0.012506 0.037497 -0.075291 
0.15341 0.54554 -0.11508 0.051636 0.053938 -0.042901 0.00099702 -0.044381 
0.12694 0.46415 -0.09798 0.050321 0.022535 -0.109 -0.011663 0.068078 
0.22279 0.24318 -0.016595 -0.015609 0.036017 -0.060165 -0.018733 0.14897 
0.22016 0.11296 0.083862 -0.0026201 0.058706 0.030756 -0.0034422 0.16656 
0.034373 0.27228 0.11559 0.032893 0.074161 0.097672 0.047362 0.074326 
-0.11837 0.60127 0.13631 0.029276 0.05624 0.10704 0.1299 -0.045368 
-0.13547 0.54422 0.082053 0.061337 0.050814 0.012013 0.11625 -0.075784 
-0.10702 -0.26437 0.049335 0.088136 0.06479 -0.0016336 0.12053 -0.047341 
-0.08121 -1.3115 0.045882 0.076463 0.0324 0.037497 0.10803 -0.022514 
-0.075784 -2.0192 0.10869 0.070051 0.019905 0.10376 0.073339 -0.031721 
-0.031886 -1.7941 0.18613 0.0014903 0.0039565 0.086821 -0.0024557 -0.033037 
0.073668 -1.2033 0.26636 -0.025967 -0.014951 0.056404 -0.038627 -0.028762 
0.22953 -0.47712 0.27507 -0.0011404 -0.0049219 0.029769 -0.025802 0.032071 
0.33394 0.24943 0.21062 -0.020212 0.010697 -0.011334 0.005765 0.10852 
0.25271 0.94737 0.032729 0.027961 0.0067515 -0.01939 0.043251 0.11691 
0.07597 1.3615 -0.12757 0.061666 0.048019 0.0028056 0.072846 0.18251 
-0.16539 1.4635 -0.22491 0.063474 0.051636 0.014479 0.098001 0.1904 
-0.40379 1.2231 -0.2185 0.046868 0.059857 -0.021856 0.042923 0.032893 
-0.38883 0.76651 -0.11426 0.040456 0.0324 -0.054082 -0.058685 -0.18035 
-0.13168 0.42469 -0.016102 -0.0022913 0.018754 -0.010676 -0.08828 -0.20386 
0.12497 0.17906 -0.021692 0.017438 0.031085 0.02533 -0.001798 -0.065755 
0.16607 0.27639 -0.035338 -0.0040998 0.04095 0.050486 0.087479 0.027139 
0.044896 0.4658 -0.057863 -0.0090322 0.022864 0.029276 0.16196 0.064954 
0.032893 0.3461 -0.0055795 0.038155 0.025495 0.058049 0.17363 0.072353 
0.19796 -0.14139 0.061337 0.029112 0.038648 0.039305 0.16426 0.037497 
0.30763 -0.70368 0.15571 0.010697 0.010697 0.013164 0.010204 -0.01117 
0.28872 -0.78852 0.22822 0.0082312 0.0018191 0.01711 0.010369 -0.016431 
-0.037147 -0.50129 0.22296 0.00083261 0.011191 0.01152 0.044731 0.13319 
-0.45525 -0.16654 0.21408 0.0069159 0.00050378 -0.014129 0.14848 0.14042 
-0.54732 0.043909 0.171 0.024344 0.0059294 0.018754 0.13943 0.055582 
-0.2836 0.16146 0.16097 0.029441 0.024508 0.00017495 0.055089 -0.11459 
0.072517 -0.15339 0.20684 0.03651 -0.025145 -0.0072237 -0.0098543 -0.10357 
0.39312 -0.7877 0.20849 0.0042853 -0.026296 -0.027611 -0.060329 0.070051 
0.49062 -0.67392 0.14239 0.016452 -0.018568 0.022206 -0.087786 0.16788 
0.36057 -0.36351 0.0014903 0.042758 0.0013258 0.011684 -0.10521 0.15127 
0.27803 -0.51937 -0.059836 0.02533 -0.00031829 -0.013307 -0.12396 -0.0026201 
0.38622 -1.3916 0.029769 0.00033937 0.018754 -0.025638 -0.18364 -0.23346 
0.38375 -1.0486 0.0059294 0.032564 0.042923 -0.0080457 -0.24168 -0.29939 
0.1835 0.33492 -0.045368 0.031907 0.05476 0.012999 -0.16309 -0.057534 
0.031742 1.0993 -0.096665 0.027468 0.049006 0.033387 0.019905 0.23529 
0.011026 0.98337 -0.082525 -0.0138 0.041607 0.042594 0.15818 0.22592 
-0.025145 0.91317 -0.062302 -0.013143 0.04654 0.023686 0.18284 0.14601 
-0.2009 0.87831 -0.064933 0.036675 0.044402 0.0072447 0.19385 0.11231 
-0.43569 0.86203 -0.049642 0.016452 0.055911 0.0031344 0.1419 0.14354 
-0.51082 0.84954 -0.0096899 0.0021479 0.047362 0.054925 0.098166 0.18366 
-0.41316 0.63251 0.011191 0.03536 0.056569 0.057062 0.074819 0.11247 
-0.24102 0.37438 -0.016102 0.031742 0.041278 0.052787 0.071366 -0.037311 
-0.095514 0.1544 -0.13267 0.055747 -0.0039354 0.058542 0.12233 -0.17789 
0.022535 -0.04471 -0.12396 0.049828 -0.068386 0.035524 0.13203 -0.13251 
0.13812 -0.17723 -0.022514 0.045718 -0.092719 0.017438 0.10672 -0.058028 
0.35975 -0.56524 0.065118 0.06331 -0.068057 0.016452 0.046211 0.0324 
0.55326 -0.99255 0.095371 0.073339 0.0019835 0.028454 -0.056383 0.052459 
0.50246 -1.0197 0.099481 0.11263 0.084026 0.037004 -0.084827 0.051143 
0.23611 -0.58464 0.07301 0.11461 0.12924 0.024837 -0.091075 0.034373 
0.12217 0.088136 0.053774 0.055911 0.12743 0.013492 -0.083512 -0.023007 
0.1179 0.67526 0.083862 -0.030899 0.078929 -0.011498 -0.083018 -0.0004827 
0.13582 1.0411 0.12891 -0.060658 0.071202 -0.038627 -0.08532 0.0092177 
0.12579 0.80383 0.147 -0.10604 0.017274 -0.048163 -0.083347 -0.0077169 
0.10918 0.1567 0.18054 -0.036818 0.048513 -0.010841 -0.056219 -0.071509 
-0.080552 -0.23921 0.1202 0.015137 0.067256 -0.0027845 -0.020706 -0.062302 
-0.3737 -0.23839 0.030427 0.050321 0.077285 0.013164 -0.0060728 0.11099 
-0.2596 -0.14829 0.020233 0.086657 0.080573 0.035853 0.021549 0.33278 
0.12299 -0.025802 0.033387 0.061172 0.056569 0.072681 0.025824 0.29596 
0.3826 0.23151 0.022864 0.072353 -0.001798 0.10145 0.051965 0.088301 
0.27672 0.20553 -0.012978 0.054267 -0.090581 0.05624 0.046211 -0.13497 
0.088301 -0.12971 -0.090581 0.011848 -0.069208 0.068736 0.088136 -0.20764 
-0.03205 -0.018733 -0.15207 0.047197 -0.025145 0.030263 0.14354 -0.12905 
-0.074304 0.23134 -0.1547 0.064954 0.025495 -0.0031133 0.24038 -0.036654 
-0.045532 0.18333 -0.077264 0.042429 0.049992 -0.034516 0.30631 0.0023123 
-0.028104 -0.12823 0.013986 0.059364 0.071037 -0.018075 0.17824 0.090438 
-0.077922 -0.41513 0.0028056 0.029605 0.043909 -0.029255 0.030263 0.1197 
-0.11755 0.064132 -0.057534 0.04917 0.08008 0.053116 -0.052437 0.1003 
-0.094199 0.53156 -0.013307 0.072353 0.12184 0.10178 -0.084827 0.088958 
-0.0095255 0.49227 0.031578 0.068407 0.15801 0.12595 -0.076771 0.090438 
0.10622 0.27392 0.080738 0.072353 0.14782 0.1294 -0.016266 0.09833 
0.1539 -0.62312 0.12644 0.058542 0.10441 0.10787 0.030427 0.13203 
0.17643 -1.2954 0.1641 0.031742 0.044073 0.078765 0.031907 0.16327 
0.078272 -0.7359 0.1179 0.01415 0.0026412 0.06479 0.058871 0.13713 
-0.035174 0.12973 0.074326 0.0039565 -0.025474 0.04654 0.081724 0.069064 
-0.11409 0.62873 0.10359 -0.026789 -0.058028 0.041443 0.12595 -0.0080457 
-0.060329 0.39575 0.11905 -0.018568 -0.049478 -0.077922 0.082546 -0.10883 
0.16146 -0.03205 0.08419 -0.0049219 -0.025474 -0.19614 -0.015773 -0.1182 
0.24104 -0.0060728 0.024837 0.034044 0.01711 -0.1769 -0.072496 -0.068386 
0.091753 0.47846 -0.0052507 0.056733 0.022535 -0.053424 -0.035996 0.04358 
-0.1233 0.93323 -0.050958 0.053938 -0.015938 0.041443 0.021713 0.11494 
-0.26272 1.0605 -0.088444 0.066763 -0.034023 0.069229 0.031907 0.10704 
-0.35315 0.75352 -0.097816 0.071695 -0.0072237 0.083204 0.021549 0.13319 
-0.27423 -0.24743 -0.053095 0.039141 0.037168 0.036839 0.017603 0.13072 
-0.089759 -0.6925 0.012013 0.044896 0.080902 -0.013636 -0.047669 0.12217 
0.0062583 -0.20781 0.048184 0.015794 0.099974 -0.0068948 -0.027611 0.0032988 
-0.018404 0.20849 -0.0049219 0.012013 0.053938 0.00050378 0.058213 -0.14961 
0.023522 0.12529 -0.082525 0.036017 0.03947 0.037497 0.13434 -0.076771 
0.073668 -0.2933 -0.036654 0.016452 0.017767 0.092576 0.1151 0.007738 
0.1396 -0.39195 0.054925 0.0023123 0.027139 0.11247 0.061995 0.0037921 
0.19205 -0.291 0.14174 -0.0072237 0.016781 0.066927 0.092576 0.0026412 
0.19862 -0.5465 0.13401 -0.040928 0.043745 0.050321 0.12513 0.057391 
0.23512 -1.2213 0.082711 0.023028 0.058377 0.054925 0.018096 0.11543 
0.26702 -1.3079 0.043416 0.095699 0.089945 0.08156 -0.065591 0.16969 
0.17544 -0.23675 -0.03501 0.10902 0.059364 0.040292 -0.11508 0.16919 
-0.026296 0.78377 -0.027118 0.065118 0.017438 -0.014787 -0.055397 0.10573 
-0.28903 1.0542 0.0042853 0.012999 -0.015938 -0.055397 0.030756 -0.019061 
-0.44736 0.82389 0.042923 0.0032988 -0.016102 -0.10439 0.08863 -0.075291 
-0.39228 0.41614 0.077943 0.021549 0.048019 -0.05589 0.17084 0.01004 
-0.30366 0.10063 0.11526 0.022535 0.042594 0.03947 0.2486 0.0324 
-0.34822 0.49851 0.08156 0.0046141 0.040785 0.09274 0.20701 -0.10817 
-0.40691 1.35 -0.019061 0.020891 0.050486 0.14979 0.040785 -0.38028 
-0.24365 1.6456 -0.091239 -0.017253 0.0080668 0.13795 -0.063124 -0.48633 
0.15933 0.97532 -0.049642 -0.0029489 -0.076606 0.081067 -0.095678 -0.25401 
0.50969 0.050486 0.020398 0.017274 -0.11919 -0.008539 -0.11672 0.014972 
0.64303 -0.46643 0.073997 0.0018191 -0.11903 -0.060494 -0.1159 0.13236 
0.54619 -0.42483 0.057555 0.029112 -0.044874 -0.09798 -0.058192 0.13943 
0.23266 -0.096829 -0.033365 0.016452 0.027796 -0.038133 -0.00015387 0.072517 
0.042594 0.11559 -0.02942 0.021549 0.056076 -0.018239 0.033058 0.035853 
0.13746 -0.303 0.053281 0.034537 0.051801 0.0092177 0.05476 -0.0096899 
0.30023 -1.0693 0.19566 0.0044497 0.04358 -0.016924 0.017438 0.054432 
0.36567 -1.5225 0.29037 0.015137 0.021384 -0.060494 0.0014903 0.15489 
0.18169 -1.0014 0.21523 0.0056006 0.070051 -0.075127 -0.006566 0.20503 
-0.093376 0.16952 0.047526 -0.0022913 0.10935 0.0032988 -0.0091966 0.2149 
-0.27012 0.52416 -0.063782 0.062652 0.11921 0.11165 0.095206 0.20668 
-0.15207 -0.41004 -0.010512 0.022371 0.10787 0.14913 0.091918 0.18613 
0.059857 -0.82337 0.094384 -0.048985 0.041936 0.12529 0.030756 -0.004593 
0.25337 -0.27522 0.20947 -0.071674 -0.011005 0.08008 -0.013143 -0.16588 
0.30829 0.25913 0.20027 -0.089431 -0.056712 0.04095 0.023193 -0.12675 
0.24597 0.56888 0.098823 0.010369 -0.073318 0.040292 0.030592 0.013328 
0.13828 0.93964 -0.058028 0.11461 -0.046354 0.023193 0.038483 0.15292 
-0.0080457 1.1961 -0.15158 0.14667 -0.0095255 0.01152 0.02829 0.20421 
-0.10949 1.0968 -0.22836 0.1345 0.011191 -0.060658 0.044896 0.14404 
-0.14911 0.69746 -0.18035 0.083697 0.010369 -0.067892 0.026317 -0.033859 
-0.21373 0.19369 -0.081703 0.0036276 -0.038133 -0.014951 0.028454 -0.14204 
-0.16818 -0.21422 -0.022185 0.0011614 -0.046847 -0.0019624 -0.01232 -0.15651 
-0.087293 -0.6685 0.016288 -0.037147 -0.026624 0.0013258 0.044238 -0.15322 
-0.0072237 -0.632 0.061995 -0.0064016 -0.011663 -0.0027845 0.072353 -0.18068 
-0.059343 -0.42187 0.077449 0.026646 0.058706 0.013821 0.061172 -0.21899 
-0.010019 -0.39935 0.10754 0.00297 0.095206 -0.043888 0.052459 -0.096172 
0.11444 -0.23559 0.091096 0.0054362 0.10343 -0.053753 0.033387 -0.017582 
0.10507 0.10737 0.083533 0.0080668 0.089616 -0.028926 -0.023501 0.1322 
0.072353 0.062817 0.073175 0.0039565 0.11674 0.04506 -0.023501 0.37455 
0.005765 -0.54551 0.085341 0.057555 0.11362 0.1465 0.036346 0.53288 
0.0039565 -0.48139 0.085999 0.0689 0.070051 0.22394 0.14996 0.49194 
0.20339 0.15357 0.044896 0.038648 0.064461 0.21769 0.062488 0.2999 
0.44426 0.61245 0.059528 0.08567 0.060679 0.1276 -0.094692 0.16771 
0.51841 0.21358 0.073832 0.03651 0.013328 0.039799 -0.1473 0.11872 
0.48388 -0.51033 0.04095 -0.0042642 -0.036818 -0.014293 -0.16523 -0.0082102 
0.28889 -0.47728 -0.0047575 -0.028762 -0.054082 -0.096007 -0.11656 -0.047012 
-0.13448 0.2925 -0.06148 -0.038133 -0.065262 -0.065097 0.0090533 -0.071016 
-0.37715 0.75796 -0.096994 0.0021479 -0.047012 -0.042079 0.1322 -0.050793 
-0.39425 0.68627 -0.12297 0.07449 0.015465 -0.0019624 0.13516 -0.12988 
-0.26289 0.49523 -0.11393 0.094877 0.02122 0.0054362 0.12036 -0.13793 
-0.11311 0.33262 -0.080059 0.13467 0.044896 0.014479 0.079751 -0.1016 
-0.02942 0.091918 -0.060165 0.081889 0.041936 0.070215 0.060679 -0.05178 
-0.01939 -0.094856 0.013164 0.061337 0.061995 0.044567 0.083697 0.0019835 
0.041443 -0.13382 0.095042 0.058871 0.063145 0.011191 0.0689 0.025166 
0.14239 -0.25516 0.20734 -0.021363 0.065612 -0.047341 0.0075736 0.027961 
0.14502 -0.21669 0.23742 -0.034023 0.060186 -0.060823 0.01152 0.075805 
-0.047998 0.24564 0.16919 -0.01939 0.058377 -0.079237 0.076299 0.19681 
-0.2106 0.60867 0.065612 0.0083956 0.054925 0.011026 0.12809 0.2731 
-0.23905 0.44294 -0.034352 0.066434 0.061501 0.10984 0.10984 0.22427 
-0.1746 -0.644 -0.068221 0.090767 0.048184 0.11855 0.10474 0.14552 
-0.035667 -1.9259 0.02122 0.093069 0.026152 0.082217 0.064296 0.16196 
0.051472 -1.558 0.03388 0.091753 -0.0138 0.070544 0.03651 0.20586 
0.15916 -0.25253 0.0011614 0.05065 -0.025309 0.082382 0.079587 0.11855 
0.23446 0.71455 -0.053588 0.046868 -0.053095 0.050321 0.083533 -0.025967 
0.17939 1.3183 -0.048985 0.065776 0.0014903 0.031249 -0.0077169 -0.17065 
-0.0019624 1.3956 0.00066819 0.025001 0.044731 0.03651 -0.059014 -0.2402 
-0.21077 1.0209 0.014643 0.024344 0.091753 0.010533 -0.084498 -0.22589 
-0.34246 0.41516 0.041114 0.014808 0.12529 -0.021692 -0.078086 -0.20337 
-0.10916 0.15768 0.042429 0.0042853 0.14157 -0.017253 -0.1113 -0.12264 
0.25551 0.20586 0.048677 0.017767 0.13549 -0.011334 -0.13645 -0.056219 
0.44393 0.15193 0.074161 -0.011334 0.10524 -0.009361 -0.057534 0.027303 
0.29793 0.16163 0.069393 -0.03616 0.073175 -0.00015387 0.066598 0.063474 
0.059364 0.18317 0.085012 -0.0042642 0.060515 0.059693 0.026974 0.018754 
-0.14171 0.026646 0.093069 -0.035832 0.052459 0.11148 0.0070803 0.039799 
-0.23181 0.073504 0.094384 -0.0075525 0.046868 0.1465 0.095206 0.022206 
-0.16753 0.15653 0.13039 0.039799 0.010697 0.12316 0.17922 -0.0073881 
0.048019 0.04506 0.099974 0.037497 -0.068879 0.059364 0.14782 0.022535 
0.18892 0.12727 0.038812 0.077943 -0.10916 -0.031557 0.11888 0.097015 
0.11757 0.11576 -0.0091966 0.081231 -0.10078 -0.062631 0.061337 0.055254 
0.039799 -0.38225 -0.011827 0.073504 -0.048492 -0.052109 -0.027118 -0.084169 
0.066927 -1.169 0.05624 0.076299 0.0070803 -0.052273 -0.063782 -0.094856 
0.09126 -1.3822 0.12365 0.024179 0.048184 -0.022679 0.0013258 0.083533 
0.10573 -1.0272 0.19172 -0.014293 0.024673 0.013821 0.13845 0.25798 
0.096686 -0.26206 0.18465 -0.044546 0.027139 0.024015 0.29185 0.21605 
0.081724 0.23512 0.095864 -0.056383 0.0085601 -0.053753 0.29431 -0.031557 
0.062323 0.39329 -0.040764 -0.040106 0.022535 -0.084827 0.086163 -0.2568 
0.045224 0.18826 -0.11557 0.014643 0.040621 -0.088773 -0.085649 -0.36844 
-0.070359 0.21013 -0.14106 0.042923 0.059857 -0.099131 -0.14796 -0.17295 
-0.19252 0.56412 -0.10719 0.064296 0.048513 -0.018568 -0.16818 0.091425 
-0.26618 0.70157 -0.030077 0.022042 0.016616 0.07597 -0.088444 0.24926 
-0.19696 0.36748 0.08567 -0.021692 0.015137 0.12743 -0.026624 0.21769 
0.027468 -0.064768 0.20027 -0.011334 -0.009361 0.076134 0.056733 0.1248 
0.20651 -0.32273 0.20405 -0.022514 0.0056006 0.023522 0.062652 0.072846 
0.29546 -0.19712 0.098001 0.028619 0.04506 -0.049642 0.065776 0.089452 
0.25074 0.10556 0.015794 0.083204 0.081889 -0.064768 0.065118 0.11428 
0.025988 0.34133 0.070051 0.08156 0.065612 -0.02235 0.048348 0.067091 
-0.14402 0.42305 0.096028 0.076792 0.05476 0.081889 -0.063289 0.027303 
-0.17443 0.48832 0.0026412 0.051143 0.022371 0.13582 -0.19367 -0.0011404 
-0.1741 0.50114 -0.11163 0.032236 0.018754 0.12595 -0.15503 -0.049149 
-0.14681 0.4288 -0.14319 0.031578 0.0036276 0.11937 -0.037147 -0.089924 
-0.052437 0.29283 -0.13645 -0.00031829 0.049335 0.090931 0.12283 -0.10341 
0.14026 0.25814 -0.09387 0.021878 0.030263 0.036675 0.28083 -0.059672 
0.39263 0.14897 -0.047341 0.023357 -0.042573 -0.05178 0.23315 -0.085813 
0.51117 0.014643 -0.033859 0.009711 -0.069865 -0.13218 0.15357 -0.11245 
0.33229 0.086821 -0.067564 -0.0014692 -0.056383 -0.10094 0.086821 -0.05441 
0.056898 -0.02235 -0.13021 0.04506 -0.0044286 -0.028926 0.10162 0.066434 
-0.084005 -0.37485 -0.13103 0.06035 0.029769 0.021056 0.063803 0.19796 
0.015959 -1.1963 -0.038791 0.055911 0.03651 0.040456 -0.0082102 0.26899 
0.16689 -1.7421 0.099974 0.016945 0.011684 0.01152 -0.054904 0.29744 
0.1955 -1.1741 0.24055 -0.020541 -0.009361 0.0031344 -0.051944 0.25436 
-0.073647 -0.2864 0.28658 0.0014903 -0.032379 -0.0052507 -0.024323 0.15653 
-0.40576 0.56724 0.21391 -0.017253 0.012506 0.027303 -0.043066 0.099645 
-0.4051 1.0924 0.067256 0.010369 0.03799 0.055418 -0.03501 0.090931 
-0.085978 1.2887 0.017932 0.08715 0.057062 0.05213 0.028947 0.086821 
0.17067 1.3457 0.074819 0.077449 0.040785 0.063639 0.050321 0.060515 
0.17133 1.5381 0.067091 0.060515 0.025166 0.059035 0.033058 0.054103 
0.09126 1.2353 0.0026412 0.07038 0.022535 0.056569 0.039305 -0.023829 
0.096686 0.14174 -0.078579 0.047362 0.02122 0.036017 -0.0067304 -0.095514 
0.19961 -1.0629 -0.088444 0.06035 0.013492 0.020233 -0.0064016 -0.15832 
0.29415 -1.9527 0.025001 0.0080668 0.020233 -0.034845 -0.043888 -0.11689 
0.30286 -2.2544 0.1465 -0.02498 -0.00097594 -0.07266 -0.075291 0.014972 
0.23529 -1.5389 0.091096 -0.028762 -0.016431 -0.037476 -0.059014 0.12414 
0.098001 -0.33605 -0.058685 -0.0077169 0.037004 0.030263 0.031578 0.19977 
-0.0057439 0.85743 -0.13382 0.010862 0.065283 0.12776 0.066763 0.18646 
0.013657 1.8311 -0.14911 0.10047 0.080409 0.15111 0.044567 0.089616 
-0.031392 2.0146 -0.10554 0.10918 0.10819 0.1493 0.0088889 -0.095843 
-0.20797 1.5254 -0.078415 0.12924 0.12201 0.14026 0.055418 -0.17575 
-0.30646 0.90051 -0.051287 0.069064 0.092247 0.079094 0.045389 -0.010183 
-0.31797 0.39115 -0.0047575 0.047526 0.05624 0.084026 0.032564 0.072024 
-0.22359 -0.046519 0.04917 0.032564 0.053609 0.009711 0.013986 0.10228 
-0.07003 -0.31912 0.1539 -0.016102 0.013657 -0.03353 0.015137 0.093069 
0.087479 -0.65929 0.19583 -0.02942 -0.1039 -0.088115 0.017767 0.13253 
0.22772 -1.3653 0.22509 -0.016102 -0.182 -0.13021 0.066927 0.076627 
0.32654 -1.9662 0.27869 -0.01232 -0.13892 -0.090253 0.0041209 -0.1917 
0.3655 -1.5331 0.2172 0.020727 -0.053424 -0.056219 -0.083183 -0.50474 
0.21408 -0.54107 0.11313 0.039963 0.051965 0.00297 -0.057699 -0.486 
0.028619 0.21983 0.052294 0.036839 0.098823 -0.0075525 0.036675 -0.088937 
-0.10143 0.69433 0.053281 0.033551 0.16738 0.06331 0.19714 0.21868 
-0.13826 0.95805 0.01563 0.0070803 0.2029 0.090931 0.32177 0.28247 
-0.0965 1.0491 -0.053095 0.01152 0.23085 0.12414 0.22739 0.21391 
-0.10801 1.0833 -0.087951 0.027961 0.22197 0.13187 0.1008 0.11329 
-0.10719 0.97153 -0.10061 0.0037921 0.13203 0.10507 0.0016547 0.080902 
-0.17887 0.58598 -0.081703 0.0014903 0.073175 0.1687 -0.067728 0.064461 
-0.39688 0.21457 -0.096665 0.0080668 0.0786 0.18695 -0.18627 0.044896 
-0.48633 0.034044 -0.10291 0.037004 0.13056 0.18695 -0.26782 0.071366 
-0.29495 0.010862 -0.096336 0.088794 0.12529 0.16393 -0.16638 0.18991 
0.15176 -0.30235 0.04654 0.097015 0.058377 0.091096 0.0037921 0.28741 
0.76043 -0.97365 0.25551 0.029441 -0.11261 -0.054575 0.065612 0.15012 
1.1674 -1.5458 0.44804 -0.016924 -0.21307 -0.14993 0.090109 -0.079072 
1.0227 -1.5881 0.58352 -0.10768 -0.20304 -0.15257 0.12349 -0.2185 
0.66901 -1.2056 0.54208 -0.12856 -0.087622 -0.10193 0.04917 -0.23954 
0.25946 -0.28607 0.32144 -0.05737 0.018754 -0.035667 -0.056219 -0.21027 
-0.21652 0.85052 0.073175 -0.043066 0.070051 0.0065871 -0.023994 -0.098802 
-0.56903 1.4505 -0.12511 -0.014951 -0.0087034 0.042758 0.094384 -0.0096899 
-0.70171 1.5259 -0.22211 0.059693 0.020233 0.061008 0.14765 0.04506 
-0.59122 1.4026 -0.25335 0.10474 0.0786 0.093726 0.15308 0.089123 
-0.35956 1.1983 -0.24184 0.14026 0.084026 0.074654 0.081889 0.082546 
-0.16588 1.0089 -0.18693 0.10589 0.054925 0.010862 0.03651 0.071695 
-0.12757 0.71061 -0.091404 0.035524 0.038155 0.020069 -0.0024557 0.051965 
-0.12346 0.14782 -0.059836 0.049335 0.03651 0.041607 0.04358 0.04654 
-0.0052507 -0.9993 -0.06444 0.025166 0.04506 0.033551 0.1248 0.045553 
0.24071 -2.2474 0.0080668 0.041443 0.095371 -0.040435 0.14141 0.032729 
0.38194 -2.2888 0.066598 0.059693 0.11378 -0.052766 0.0689 0.081231 
0.37964 -1.2199 0.11428 0.015794 0.090109 -0.040435 0.038155 0.13417 
0.34018 -0.21406 0.14174 -0.010512 0.038319 -0.084663 0.047033 0.12612 
0.17774 0.3022 0.12102 0.0054362 0.035853 -0.00031829 -0.067399 0.098988 
-0.063289 0.59437 0.063803 0.037661 -0.029748 0.033222 -0.096172 0.075805 
-0.090417 0.89245 -0.015444 0.066105 -0.050958 0.073997 -0.032215 0.064461 
-0.083676 0.88324 -0.0098543 0.032893 -0.1205 0.017603 0.016452 0.041772 
-0.067399 0.84165 0.086821 -0.020048 -0.19992 -0.06 0.040621 0.0075736 
-0.020706 1.0105 0.11806 -0.0088678 -0.16029 -0.071016 0.026317 0.0227 
-0.011498 0.69154 0.11609 -0.0024557 -0.047341 -0.035174 0.035524 0.029441 
0.034866 -0.088937 0.10524 0.0031344 0.018096 -0.052766 0.026646 0.047033 
0.19024 -0.44193 0.072681 0.029934 0.086821 -0.040928 0.033222 0.019905 
0.24269 -0.19827 0.01415 0.015959 0.10063 0.0047785 -0.009361 0.0047785 
0.16163 0.13516 -0.075127 0.015465 0.14535 0.025988 -0.040271 -0.073318 
0.071202 0.21326 -0.091404 0.022042 0.18235 0.060186 -0.0090322 -0.051287 
0.059693 0.071037 -0.040271 0.0069159 0.21868 0.068571 0.043745 0.05624 
0.017438 -0.54502 0.048019 0.046375 0.1858 0.05213 0.018425 0.16722 
-0.0024557 -1.3337 0.12299 0.027139 0.048019 0.033715 -0.00015387 0.20767 
0.062159 -1.2152 0.15653 0.012342 -0.0057439 0.020727 -0.014458 0.11198 
0.024508 -0.37337 0.098988 0.059857 -0.06444 0.049006 0.01267 0.021713 
-0.051944 0.040621 0.0021479 0.05213 -0.069701 0.058213 0.020233 -0.065262 
-0.13316 0.24285 -0.10998 0.09422 -0.1011 0.063145 0.049335 -0.094692 
-0.218 0.54143 -0.21965 0.11362 -0.12527 0.09422 0.038648 -0.12511 
-0.13941 0.82964 -0.21011 0.085341 -0.12116 0.052294 -0.010183 -0.073154 
-0.021363 0.78213 -0.14747 0.077778 -0.097487 -0.001798 -0.00097594 0.067749 
0.0059294 0.55277 -0.097322 0.01563 -0.051615 -0.10045 0.093233 0.11822 
0.047691 0.40052 -0.12363 0.00033937 -0.041751 -0.12001 0.17988 0.054432 
0.037004 0.26801 -0.15125 0.048841 0.012999 -0.10423 0.24877 0.017932 
-0.014129 0.20454 -0.10308 0.050321 0.076299 -0.038627 0.20767 0.094713 
-0.025474 0.013164 0.025824 0.07038 0.11395 0.015137 0.08978 0.10573 
-0.020706 -0.36729 0.16525 0.089616 0.082382 0.023686 -0.053095 0.034044 
-0.013143 -0.38751 0.24844 0.055582 0.062981 0.015794 -0.091732 -0.091732 
-0.0022913 -0.11196 0.23923 0.0093821 0.07301 0.033715 -0.10423 -0.15405 
-0.0055795 0.074326 0.11773 0.026481 0.08008 0.041936 -0.093048 -0.19778 
0.044073 -0.028269 0.031249 0.0021479 0.071366 0.044567 -0.050629 -0.23938 
0.038977 -0.068714 -0.033694 -0.0050863 0.061995 0.033551 -0.030899 -0.19301 
-0.025967 0.21326 -0.0771 -0.036654 0.032236 0.052459 -0.034681 -0.059672 
-0.017088 0.42814 -0.10225 -0.020706 0.051965 0.074654 -0.016102 0.091589 
-0.0070593 0.35975 -0.10028 0.038319 0.04095 0.089123 -0.00064712 0.29185 
-0.06707 0.16607 -0.1062 0.037332 0.037497 0.081395 0.087808 0.35794 
-0.11787 0.0019835 -0.061645 0.054432 0.046211 0.11428 0.23315 0.32703 
-0.060165 -0.017253 -0.038462 0.071531 0.097837 0.12546 0.31618 0.17478 
0.051636 0.0689 0.047691 0.028454 0.11148 0.1465 0.21687 0.097672 
0.093562 0.32539 0.11888 0.0046141 0.077285 0.14749 0.0067515 0.26784 
0.092576 0.33624 0.12612 -0.011992 0.04654 0.11691 -0.03764 0.31371 
0.20142 -0.026296 0.12085 0.0011614 0.0036276 0.073504 -0.030242 0.19254 
0.18678 -0.062796 0.10113 0.051143 -0.01528 0.084519 -0.0060728 0.065447 
0.075148 0.23167 0.080409 0.086328 -0.017088 0.08715 -0.018897 -0.089924 
0.037004 0.35662 0.079916 0.049499 0.024015 0.049006 -0.010348 -0.23855 
-0.16111 0.19303 0.024837 0.064296 0.0019835 0.011684 0.0088889 -0.12379 
-0.34526 -0.02498 -0.0068948 0.056076 -0.016595 -0.019555 0.059528 0.054103 
-0.25664 0.01974 -0.048327 0.048184 -0.042244 -0.12018 -0.037147 0.0085601 
-0.028269 0.2588 -0.074962 0.050321 -0.043888 -0.18282 -0.091732 -0.15076 
0.082711 0.51446 -0.047176 0.035524 -0.025145 -0.19433 0.0083956 -0.32027 
0.045224 0.54932 0.038483 0.034209 0.0095465 -0.14829 0.13598 -0.22491 
0.10967 0.34281 0.15341 0.0227 0.038648 -0.10834 0.17462 0.019576 
0.33196 -0.28574 0.20191 0.029112 0.035688 -0.0087034 0.077285 0.20865 
0.5508 -1.1009 0.24696 0.049992 0.038648 0.12135 -0.045696 0.28198 
0.60867 -1.3852 0.293 0.0324 -0.0013048 0.17676 -0.089759 0.27244 
0.48405 -0.86727 0.29448 -0.034845 -0.014622 0.13861 -0.056548 0.19139 
0.23858 -0.26009 0.2195 -0.055726 -0.017417 0.0592 -0.0026201 0.063639 
0.070051 -0.58925 0.15472 -0.058028 -0.0032777 0.048677 -0.010348 0.00033937 
-0.025638 -1.4677 0.086492 -0.0055795 0.03092 0.036017 -0.038462 -0.026953 
0.010369 -0.78622 0.07449 0.029769 0.037497 -0.008539 -0.059178 -0.15947 
0.10359 0.48898 0.068736 0.027139 0.034702 -0.060329 -0.057534 -0.18693 
-0.060823 1.41 0.025166 0.034373 0.013986 -0.073647 -0.025309 0.015465 
-0.43355 1.5327 -0.061973 0.045224 0.052952 -0.04323 0.043416 0.21457 
-0.45476 1.1432 -0.13086 0.098988 0.076792 0.029769 0.099316 0.25913 
-0.18298 0.75911 -0.13185 0.10326 0.060844 0.075476 0.090438 0.16064 
-0.0082102 0.39822 -0.047012 0.010533 0.027139 0.02829 0.037168 0.034044 
0.055089 0.16755 0.061501 -0.025638 -0.0029489 0.023193 0.063145 0.00017495 
0.14913 -0.13152 0.093233 -0.0013048 -0.013471 0.031249 0.0085601 0.040292 
0.26833 -0.17904 0.069064 -0.0044286 0.017603 0.026646 -0.0019624 0.075476 
0.21885 0.14174 0.059528 0.061995 0.058542 -0.0078813 -0.043888 0.16706 
0.16886 0.47993 0.083368 0.040621 0.058377 -0.024158 -0.074469 0.15933 
0.171 0.4316 0.11773 0.0072447 0.056733 -0.026296 -0.048327 -0.0019624 
-0.004593 -0.30366 0.15801 0.045224 0.029934 -0.049642 0.0090533 -0.20255 
-0.23954 -1.0651 0.19139 0.057391 0.018425 -0.021528 0.095206 -0.27653 
-0.29034 -1.1142 0.1544 0.059364 0.027961 -0.0080457 0.14338 -0.20222 
-0.082361 -0.69529 0.1026 0.056898 0.034702 0.044238 0.086163 -0.14944 
0.20602 -0.41481 0.11 0.026481 0.0046141 0.039963 0.0056006 -0.14056 
0.44015 -0.56771 0.12135 -0.014293 -0.014622 -0.011827 -0.043395 -0.14155 
0.47089 -0.64466 0.10737 -0.010512 -0.039613 -0.0083746 -0.016924 -0.091239 
0.51791 -0.63035 0.10836 -0.061645 -0.069372 -0.041915 -0.047505 -0.019884 
0.60522 -0.75432 0.062159 -0.035503 -0.075291 -0.049478 -0.12346 0.059035 
0.53452 -0.58432 -0.0024557 -0.041093 -0.033859 -0.025309 -0.10176 0.053116 
0.27047 0.16525 -0.021363 0.0032988 0.041607 0.0069159 -0.059014 0.06331 
-0.011827 0.92796 -0.1621 0.06035 0.11773 0.014972 -0.01117 0.070215 
-0.20107 1.2841 -0.24645 0.082217 0.13236 0.054103 -0.0064016 0.040128 
-0.27407 1.3763 -0.19433 0.029441 0.15472 0.062981 0.07597 0.014808 
-0.33539 1.2849 -0.13547 0.049006 0.14272 0.052459 0.077943 -0.021034 
-0.39623 0.97975 -0.079072 0.036839 0.12644 0.076134 0.066763 -0.019555 
-0.58727 0.68496 0.018096 0.076463 0.10852 0.13006 0.098166 0.05213 
-0.73114 0.25123 0.070708 0.065447 0.098988 0.14798 0.11428 0.13384 
-0.52825 -0.40708 0.037826 0.069558 0.069558 0.12825 0.10096 0.22328 
-0.14287 -0.62443 -0.015773 0.09126 -0.021692 0.076792 0.093891 0.29875 
0.10885 -0.1889 -0.091568 0.070708 -0.014787 0.087479 0.074161 0.32177 
0.1225 0.46251 -0.16473 0.087479 -0.013636 0.053609 0.090109 0.22772 
0.014808 0.81814 -0.15158 0.097344 0.0032988 0.045882 0.1003 0.022371 
-0.05589 0.73116 -0.044381 0.013986 -0.0019624 0.061995 0.084026 -0.099624 
-0.022514 0.36369 0.055911 -0.015773 0.029934 0.012835 0.04506 -0.098309 
0.16114 -0.45015 0.16146 -0.067728 0.036675 -0.018733 -0.0040998 -0.051615 
0.43324 -1.5948 0.2297 -0.022021 0.06594 -0.01676 -0.023994 -0.064933 
0.54307 -2.0966 0.21786 0.027468 0.072353 0.012999 -0.061645 -0.13629 
0.34791 -1.3426 0.21441 -0.004593 0.091425 0.0041209 -0.010019 -0.21504 
-0.021528 -0.0013048 0.1927 -0.028597 0.093891 0.00297 0.18695 -0.21636 
-0.18989 0.85447 0.097508 0.028125 0.092247 0.040456 0.28428 -0.017088 
-0.043888 0.73609 -0.013471 0.064954 0.10425 0.13105 0.18744 0.14519 
0.14979 0.3512 -0.11935 0.077778 0.084026 0.11609 0.022864 0.11494 
0.15571 0.36073 -0.21307 0.10951 0.044402 0.096193 -0.031064 0.069558 
0.085341 0.45462 -0.25352 0.0592 -0.025802 0.060679 -0.009361 0.16442 
-0.061316 0.44491 -0.25993 0.044402 -0.052437 0.046046 -0.0070593 0.25222 
-0.13744 0.34495 -0.17016 0.010697 -0.047669 0.038155 -0.025638 0.21145 
-0.093212 0.5023 -0.064768 -0.00081153 0.0075736 0.048841 -0.017253 0.18629 
-0.058685 0.7333 0.020398 0.030098 0.034209 0.051965 0.044896 0.090109 
-0.025802 0.59009 0.063145 0.035031 0.036182 0.017932 0.10441 0.047691 
-0.079566 0.18563 0.071695 0.068736 0.055254 0.0018191 0.091096 -0.0087034 
-0.18068 -0.15881 0.038483 0.083533 0.070873 0.034866 0.030098 0.0064227 
-0.17443 -0.47893 0.078272 0.047855 0.039305 0.03651 -0.031064 0.03388 
-0.051615 -0.6777 0.14223 0.0098754 -0.023665 0.024179 -0.029748 0.045389 
0.07038 -0.37863 0.1733 -0.013965 -0.075784 -0.0068948 0.025988 0.043909 
0.10096 0.066105 0.15028 -0.009361 -0.073647 -0.0091966 0.069886 0.023193 
0.039963 0.40825 0.10655 0.023851 0.010533 -0.061973 0.071695 0.005765 
-0.085813 0.5679 0.094548 0.01826 0.040292 -0.051287 0.034373 0.0013258 
-0.092719 0.49999 0.069722 0.043745 0.094055 0.039141 0.049006 -0.0077169 
-0.061973 0.39592 -0.00081153 0.062652 0.084026 0.061172 0.067913 0.0024767 
-0.05441 0.34298 0.038483 0.012177 0.073832 0.068078 0.074819 0.012999 
-0.080059 0.4219 0.025495 0.00083261 0.025659 0.071366 0.088465 0.03388 
-0.041915 0.37603 -0.080717 0.023357 0.011355 0.07038 0.079258 0.039963 
0.037497 0.28445 -0.20041 0.053445 0.00017495 0.024179 0.083204 0.027139 
0.030263 0.34791 -0.2961 0.055089 0.043416 -0.018075 0.066434 0.041278 
0.015137 0.36254 -0.31024 0.060844 0.052459 -0.043724 0.029441 -0.0019624 
0.11247 0.13105 -0.17936 0.015794 0.0083956 -0.053917 -0.012156 -0.018733 
0.16081 -0.29363 -0.0060728 -0.0013048 -0.065591 -0.036654 -0.035667 -0.054246 
0.046375 -0.57248 0.13516 -0.018897 -0.16128 -0.0039354 -0.058521 -0.016266 
-0.032708 -0.24201 0.24614 0.00050378 -0.16638 0.0083956 -0.070194 0.057227 
-0.017088 -0.0503 0.24926 0.040456 -0.12198 -0.028269 -0.047998 0.087314 
0.066434 -0.2665 0.19747 0.025166 -0.020541 -0.067564 -0.053424 0.083204 
0.28264 -0.37255 0.18646 0.04095 0.058377 -0.079072 -0.13234 -0.0039354 
0.46349 0.0021479 0.25715 0.028783 0.076956 -0.11015 -0.18841 -0.060165 
0.48865 0.45363 0.33624 0.0092177 0.085341 -0.058356 -0.14188 -0.071181 
0.21506 0.77489 0.33443 0.044238 0.11526 -0.0088678 -0.045532 -0.050958 
-0.071181 0.35334 0.25304 0.055582 0.087479 0.077943 0.010697 -0.014622 
-0.079401 -0.46101 0.06742 0.014808 0.085177 0.085506 0.027468 -0.0073881 
0.049664 -0.98088 -0.076277 0.0075736 0.045224 0.082217 0.032893 -0.038791 
0.12529 -1.1409 -0.12396 -0.03616 0.017932 0.063803 0.096028 -0.10275 
0.2486 -1.387 -0.11278 -0.015116 0.00050378 0.048184 0.17133 -0.091568 
0.27853 -1.3939 -0.058028 0.035524 -0.011005 0.017767 0.12792 -0.077428 
0.14042 -0.25352 -0.079895 0.051143 -0.0059084 -0.039942 -0.031064 -0.0026201 
-0.04882 1.0194 -0.067564 0.0031344 -0.05885 -0.060658 -0.13284 0.08715 
-0.090253 1.5837 -0.042901 -0.010348 -0.043559 -0.066413 -0.109 0.15308 
-0.09091 1.3148 -0.020706 0.012999 0.06479 -0.023501 0.018589 0.21589 
-0.16539 0.71718 0.020398 0.068736 0.14782 0.068078 0.17363 0.21687 
-0.16243 0.085177 0.096357 0.047033 0.11806 0.10507 0.19221 0.1909 
-0.026789 -0.43075 0.17166 0.049992 0.063803 0.13795 0.11707 0.13927 
0.069886 -0.62476 0.16426 0.043909 0.011026 0.089945 -0.016595 0.11231 
0.10244 -0.47712 0.11625 0.015137 0.0090533 0.076463 -0.14204 0.15966 
0.15653 -0.19761 0.072024 0.010533 0.056898 0.027632 -0.13218 0.13203 
0.24581 -0.039613 0.047855 0.032071 0.086821 0.016288 0.0018191 0.061337 
0.22131 -0.13497 0.020398 0.02681 0.073668 0.037826 0.08567 -0.03912 
0.12299 -0.29462 0.0067515 0.029769 -0.0013048 0.035853 0.16771 -0.0965 
0.016616 -0.38422 0.0069159 0.034537 -0.013471 0.00297 0.16442 -0.10489 
-0.087786 -0.35956 0.022864 0.028947 -0.023994 0.011684 0.086821 -0.12396 
-0.21586 -0.29149 0.039963 0.021878 0.010204 0.0060938 -0.016431 -0.15437 
-0.20995 -0.32684 0.056076 -0.0088678 0.012342 -0.037476 -0.068879 -0.13777 
-0.089595 -0.32405 0.074654 -0.065097 0.0047785 -0.091732 -0.049478 -0.1256 
-0.020541 0.075312 0.074983 -0.013307 0.020727 -0.13497 0.023357 -0.1935 
-0.0138 0.4704 -0.031886 0.019576 0.079587 -0.12429 0.077121 -0.1524 
0.052952 0.75484 -0.094527 0.076627 0.085999 -0.017582 0.13417 -0.031064 
0.20158 0.71686 -0.065097 0.11231 0.12842 0.1174 0.17643 0.095206 
0.22707 0.42535 -0.03764 0.10803 0.11526 0.25025 0.18826 0.20109 
0.24088 0.22559 0.025495 0.08419 0.074161 0.2343 0.14765 0.23233 
0.14963 0.34183 0.085506 0.05772 0.022535 0.20586 0.078436 0.28921 
-0.088608 0.59848 0.11329 0.047033 0.013328 0.20849 0.019905 0.32045 
-0.16868 0.52466 0.171 0.043909 -0.0016336 0.19829 -0.049642 0.35219 
0.0034632 -0.38422 0.23611 -0.039284 -0.04323 0.10787 -0.10768 0.36616 
0.24351 -1.6829 0.27869 -0.065262 -0.065591 -0.006566 -0.13974 0.29431 
0.39477 -2.1439 0.28099 -0.086964 -0.072332 -0.10686 -0.21915 0.14239 
0.25765 -1.569 0.13976 -0.089102 -0.061645 -0.19844 -0.10242 -0.091075 
-0.072003 -0.69612 -0.028762 -0.033365 -0.027611 -0.25023 0.15324 -0.14287 
-0.32356 0.55458 -0.20189 0.048019 0.060679 -0.16062 0.22411 -0.1667 
-0.34723 1.5922 -0.32339 0.089287 0.13516 -0.010348 0.10622 -0.27522 
-0.3178 1.8827 -0.32734 0.13631 0.11526 0.11263 0.08978 -0.3423 
-0.27933 1.4524 -0.21948 0.089452 0.064625 0.13319 0.16081 -0.28262 
-0.20584 0.97844 -0.12215 0.079587 0.027139 0.12003 0.15012 -0.1136 
-0.17838 0.87963 -0.06296 0.098494 -0.028269 0.075476 0.080244 -0.011992 
-0.10308 0.78081 -0.035832 0.049499 -0.035503 0.016288 0.020069 0.055582 
0.043416 0.62265 -0.014951 0.0082312 -0.042408 -0.0042642 -0.0082102 0.053774 
0.11987 0.46086 0.013492 -0.006566 -0.042573 -0.023829 -0.048163 0.038648 
0.099152 0.35383 0.020727 -0.053095 -0.014951 -0.020541 -0.036489 0.11822 
0.048513 0.26521 -0.022021 0.01974 0.047362 0.018096 0.038483 0.26587 
0.0095465 -0.0059084 -0.029913 0.063803 0.092576 0.050814 0.10326 0.34692 
0.059693 -0.32915 0.027796 0.052623 0.05772 0.039305 0.014972 0.28083 
0.11296 -0.39014 0.11872 0.059693 0.058049 0.0044497 -0.10275 0.28182 
0.092411 -0.11409 0.13697 -0.0026201 0.018589 0.0064227 -0.14451 0.2514 
0.050321 0.11674 0.10556 -0.0096899 0.029441 0.0013258 -0.089431 0.1664 
-0.076442 0.16952 0.039305 0.025659 0.051636 0.029276 0.0056006 0.026317 
-0.21734 0.24318 -0.045039 0.031907 0.085341 0.028454 0.12513 -0.06 
-0.30827 0.35071 -0.091075 0.039141 0.035195 0.059364 0.21917 -0.12231 
-0.279 0.52926 -0.11031 0.068736 0.020891 0.086328 0.15933 -0.28344 
-0.10406 0.55655 -0.02235 0.054267 0.00017495 0.10392 -0.028104 -0.51132 
0.11773 0.28067 0.0421 0.078272 0.0056006 0.064625 -0.16802 -0.54749 
0.3096 -0.21636 0.040456 0.14042 -0.0044286 -0.004593 -0.14961 -0.2014 
0.44442 -1.2356 0.1442 0.051472 0.011848 -0.0083746 0.093891 0.14091 
0.53748 -1.6558 0.15785 0.088465 0.00033937 -0.010183 0.090109 0.25123 
0.5217 -0.86448 0.15193 -0.0062372 -0.0070593 -0.02235 -0.0042642 0.22361 
0.45248 -0.364 0.22756 -0.029584 -0.017582 -0.072825 -0.096172 0.12743 
0.51611 -0.95096 0.36846 -0.064111 -0.0055795 -0.090253 -0.14566 0.048184 
0.67559 -2.2546 0.56264 -0.11804 -0.010512 -0.10028 -0.1769 0.041772 
0.44426 -1.7355 0.51298 -0.11327 0.025824 -0.074304 -0.089266 0.070215 
0.087643 0.47073 0.17067 -0.031721 0.082711 -0.022021 0.012999 0.084684 
-0.25927 1.7625 -0.21027 0.011355 0.11115 0.056898 0.11148 0.071202 
-0.54568 1.6805 -0.4296 0.15407 0.10754 0.11148 0.14354 0.093562 
-0.62772 1.2581 -0.40346 0.12464 0.10754 0.1396 0.17314 0.081395 
-0.50655 0.80613 -0.25927 0.084684 0.046211 0.12825 0.16097 0.081067 
-0.29856 0.59042 -0.11672 0.10951 0.032071 0.13006 0.14667 0.059857 
-0.13859 0.52729 -0.080552 0.090438 0.040292 0.10951 0.10869 0.036675 
-0.077428 0.37915 -0.021856 0.10014 0.068736 0.072353 0.093891 0.030263 
-0.03057 0.16245 0.087972 0.075148 0.054596 0.046375 0.093233 0.018425 
0.15686 0.021713 0.14831 0.02829 0.041443 0.04095 0.04506 0.01415 
0.36517 0.041772 0.17429 -0.0039354 0.014643 0.0023123 -0.040435 -0.01939 
0.463 0.13203 0.22345 -0.041586 -0.0039354 -0.032872 -0.089595 -0.038298 
0.43439 -0.11064 0.25337 -0.040435 0.0085601 -0.043066 -0.071674 -0.015609 
0.10047 -0.68 0.21145 0.032729 0.062488 0.021384 0.010369 -0.00015387 
-0.38735 -0.81745 0.10589 0.0036276 0.084684 0.042429 0.12546 0.022535 
-0.46347 -0.66554 0.06035 0.056076 0.080244 0.009711 0.13105 -0.021856 
-0.17591 -0.49257 0.026481 0.064625 0.050814 0.020562 0.078436 -0.047505 
0.14881 -0.24266 -0.015938 0.048677 0.031249 0.032236 0.035853 0.00033937 
0.37866 -0.40691 -0.013143 0.017767 0.021713 0.020891 -0.0049219 0.087479 
0.5771 -0.92712 0.038483 0.0024767 0.0069159 -0.0004827 -0.028433 0.089616 
0.55984 -1.1422 0.068078 -0.020048 -0.028269 -0.0090322 -0.010841 0.082875 
0.42091 -0.82929 0.029934 -0.0044286 -0.056877 -0.024652 -0.0027845 0.079751 
0.15604 -0.073647 -0.043066 0.0024767 -0.051615 -0.021856 0.026481 0.034209 
-0.066577 0.79561 -0.086471 0.026152 -0.058356 0.0069159 0.058377 0.05624 
-0.19729 1.1792 -0.089924 0.053774 -0.016431 0.01563 0.055089 0.091589 
-0.40083 1.0309 -0.089102 0.056569 0.040785 0.044402 -0.031064 0.035524 
-0.51395 0.62117 -0.10883 0.069229 0.10754 0.037332 -0.063453 -0.11146 
-0.44539 0.27557 -0.067564 0.08978 0.12924 0.037826 -0.036818 -0.24957 
-0.22162 0.16673 0.0044497 0.0324 0.14535 0.015959 0.082875 -0.28722 
0.042923 0.26455 0.060186 0.023357 0.14124 0.00297 0.18547 -0.1986 
0.28297 0.29168 0.12365 -0.010676 0.089287 0.045224 0.12644 0.10524 
0.39559 0.01826 0.17232 -0.029091 0.075148 0.031414 -0.008539 0.28083 
0.29711 -0.056055 0.14749 0.0042853 0.095535 0.034044 -0.060823 0.29612 
0.17084 0.20208 0.10145 -0.024816 0.053445 0.038155 -0.094527 0.10178 
0.066434 0.45182 0.017932 -0.0082102 0.06183 0.035524 -0.044052 -0.0088678 
-0.056055 0.37011 -0.058685 0.095206 0.094713 0.023028 0.029276 0.085506 
-0.13612 0.24417 -0.092226 0.074819 0.042923 0.049499 0.084684 -0.0070593 
-0.15141 0.31782 -0.16407 0.097508 -0.018733 0.0013258 0.10326 -0.10472 
-0.26206 0.40628 -0.18183 0.093562 -0.087951 -0.042079 0.12825 -0.10489 
-0.31172 0.44886 -0.14763 0.047855 -0.086964 -0.051122 0.11132 0.091753 
-0.22063 0.48141 -0.14582 0.048513 -0.070194 -0.022514 0.13335 0.27507 
-0.12889 0.32128 -0.085813 0.036839 -0.024487 0.011848 0.24745 0.22641 
-0.090746 0.11 0.0054362 0.028454 -0.0057439 0.022864 0.36139 0.14239 
-0.018568 -0.023994 0.05772 0.010369 -0.011663 0.010533 0.20306 0.094713 
0.10655 -0.15388 0.075476 -0.052273 -0.0077169 0.051636 -0.070359 0.051801 
0.14979 -0.16901 0.058871 -0.045368 0.020891 0.066927 -0.25105 -0.03764 
0.072846 -0.06707 0.022371 1.0539e-005 0.035195 0.076956 -0.26157 -0.14944 
0.027961 0.15768 0.0083956 0.023686 0.04917 0.092247 -0.16884 -0.19252 
0.073339 0.29102 0.00050378 0.067091 0.077449 0.079422 -0.095514 -0.17164 
0.13319 0.19813 0.027961 0.084355 0.079751 0.0227 -0.10193 -0.097816 
0.16015 0.14568 0.021713 0.087643 0.092576 -0.021034 -0.066741 -0.029091 
0.06479 0.34923 -0.0055795 0.071202 0.088958 -0.026789 -0.035338 0.0072447 
-0.054575 0.51364 -0.050793 0.036839 0.049992 0.0046141 0.072846 0.026317 
-0.085813 0.11428 -0.037476 0.021713 0.017438 0.037004 0.12349 0.052459 
0.00297 -0.57889 0.0014903 0.039634 0.0028056 0.058542 0.12529 0.11526 
0.11888 -0.64054 0.033387 0.023193 -0.004593 0.045718 0.12414 0.19122 
0.14354 0.11181 0.098659 0.012342 -0.014293 -0.01939 0.043745 0.31766 
0.041443 0.71636 0.13171 -0.0014692 0.016452 -0.074633 0.015465 0.38671 
-0.1159 0.41072 0.17906 -0.006566 0.034537 -0.028762 0.076627 0.34364 
-0.27472 -0.4661 0.17363 0.029276 0.030756 0.047197 0.14535 0.31832 
-0.15651 -1.3888 0.16377 0.00017495 0.01711 0.015465 0.13499 0.1978 
0.16393 -1.496 0.13845 -0.020212 -0.0080457 -0.019061 0.025824 0.041772 
0.30368 -0.44637 0.14338 -0.0059084 -0.019719 -0.0060728 -0.062796 -0.019226 
