0.028454 -0.47432 0.093233 0.020233 0.013328 0.0039565 0.004943 0.03651 
0.019411 -0.33375 0.097179 0.012342 0.020398 0.014315 0.046375 0.024015 
0.0054362 0.0072447 0.10129 0.019576 0.034209 0.027796 0.04095 0.035031 
0.022535 0.32193 0.13154 0.028619 0.025988 0.034866 0.02533 0.02533 
0.028619 0.47402 0.11559 0.016288 0.023851 0.024344 0.034537 0.033551 
0.013164 0.54948 0.12365 0.043251 0.021878 0.014315 0.050979 0.042429 
-0.010348 0.56033 0.12661 0.025988 0.0080668 0.029112 0.038812 0.027468 
-0.042079 0.47073 0.10524 0.041443 0.027468 0.025166 0.038483 0.043909 
-0.0062372 0.18859 0.051965 0.056404 0.013328 0.011684 0.032236 0.034044 
0.0059294 -0.29856 0.019905 0.046704 0.018754 0.031085 0.056404 0.050814 
0.046046 -0.99107 0.044896 0.021549 0.031414 0.02829 0.019411 0.020069 
0.079587 -1.5762 0.064296 0.025166 0.027139 0.019905 -0.0054151 0.0093821 
0.073175 -1.2508 -0.013143 0.037168 0.017274 0.017274 0.024837 0.018096 
0.046868 -0.2568 -0.085485 0.03947 0.021056 0.032236 0.042594 0.0023123 
0.0083956 0.76569 -0.11705 0.023193 0.021056 0.028619 0.026646 0.024508 
-0.0036066 1.2014 -0.15783 0.0067515 0.025166 0.013657 0.029769 0.05772 
0.014479 0.96578 -0.13382 0.053116 0.030592 0.0070803 0.03092 0.036017 
0.019411 0.6483 -0.075949 0.028454 0.036839 0.026152 0.047033 0.026481 
0.041772 0.51348 -0.047834 0.025659 0.013657 0.015137 0.032564 0.031414 
0.05624 0.40726 -0.030077 0.043745 0.010697 0.0034632 0.023028 0.035524 
0.032071 0.39477 0.0056006 0.025495 0.021384 0.013328 0.036675 0.028125 
0.048513 0.33015 0.039634 0.027632 0.01711 0.016616 0.044731 0.042923 
0.011684 0.14864 0.059035 0.024015 0.011191 0.01974 0.022371 0.060022 
0.01563 -0.062302 0.088136 0.0037921 0.035524 0.030427 0.030592 0.051636 
-0.001798 -0.18693 0.1026 0.01974 0.045718 0.032893 0.037826 0.060844 
0.029934 -0.18331 0.15472 -0.0026201 0.029769 0.027303 0.036675 0.024179 
0.018096 -0.16851 0.17248 0.010204 0.028125 0.0095465 0.020891 0.019411 
0.041278 -0.14352 0.12217 0.039963 0.033551 0.026481 0.032729 0.0065871 
0.031742 -0.13826 0.11494 0.0082312 0.020398 0.018754 0.047526 0.027632 
0.019247 0.030098 0.068407 0.018754 0.0324 0.025824 0.028783 0.022206 
-0.0067304 0.35186 0.022206 0.025659 0.050814 0.016616 0.024015 0.050814 
-0.040928 0.42206 -0.057534 0.029769 0.048348 0.031085 0.029276 0.049992 
-0.064604 0.061501 -0.058521 0.069229 0.046375 0.031085 0.069229 0.043745 
-0.014293 -0.80364 -0.035667 0.054596 0.027632 0.047526 0.039799 0.056733 
0.037826 -1.4302 0.0044497 0.035688 0.036346 0.044896 0.045224 0.030098 
0.086821 -0.89473 0.0080668 0.045882 0.027303 0.029769 0.021713 0.051965 
0.062652 0.26948 -0.026131 0.023357 0.034373 0.035688 0.048348 0.036839 
0.0324 1.0059 -0.046847 0.022042 0.030263 0.020727 0.020727 0.045718 
-0.006566 1.1129 -0.045532 0.024673 0.0072447 0.030756 0.020069 0.04917 
-0.0022913 0.96463 0.0051074 -0.025967 0.030098 0.01826 0.0016547 0.047362 
0.01267 0.80153 0.057391 0.011684 0.024344 0.024015 0.031742 0.050979 
0.027961 0.59864 0.055254 0.013986 0.023193 0.044731 0.020562 0.010369 
0.023686 0.29069 0.022535 0.018096 0.040456 0.020069 0.019411 0.014643 
0.059857 -0.29972 0.0016547 0.048677 0.061501 0.01826 0.024508 0.027632 
0.11362 -0.75284 0.00083261 0.0092177 0.039305 0.018589 0.028783 0.023686 
0.13056 -0.29002 -0.012156 0.02681 0.026481 0.013492 0.014315 0.033387 
0.090274 0.37504 -0.023665 0.044402 0.0070803 0.0095465 0.015465 0.026317 
0.027632 0.65487 -0.013307 0.020727 0.022206 0.025659 0.023851 0.027632 
0.011684 0.31947 0.052623 0.027468 0.042429 0.042758 0.030427 0.027961 
0.038648 -0.47728 0.12825 0.022535 0.039141 0.028125 0.023193 0.041607 
0.050814 -0.98877 0.12398 -0.0032777 0.014808 0.057884 0.017932 0.045224 
0.073997 -0.71798 0.11231 0.027468 0.02681 0.019247 0.027796 0.015794 
0.065447 0.085177 0.068736 -0.0073881 0.053445 0.015465 -0.0019624 0.0046141 
0.027632 0.59618 0.030098 0.021878 0.023357 0.0072447 -0.0027845 0.02122 
0.0085601 0.51298 0.039799 0.056569 0.009711 0.037004 -0.025474 0.012013 
-0.033201 0.41466 0.025495 0.029112 0.046211 0.034373 0.030592 0.022864 
-0.021856 0.26373 0.062159 0.047691 0.044238 0.0046141 0.039799 0.034209 
0.0011614 -0.20929 0.11378 0.026481 0.046211 0.033551 0.034209 0.037826 
0.034537 -0.31829 0.098494 -0.024158 0.048348 0.029112 0.049499 0.03536 
0.013164 -0.03205 0.080409 0.025166 0.025824 0.034702 0.080573 0.048019 
-0.025474 0.23068 0.032893 0.014808 0.028783 0.029276 0.043909 0.028619 
-0.032708 0.256 -0.016431 0.018918 0.023686 0.028947 -0.0026201 0.034537 
0.00017495 0.16475 -0.026953 0.051472 0.039141 0.028783 -0.024323 0.023028 
0.038648 0.042594 -0.013143 0.018589 0.039141 0.022864 0.031085 0.038319 
0.085506 -0.042079 0.024344 0.020398 0.040292 0.0054362 0.031414 0.023193 
0.1248 -0.1376 0.059857 0.047691 0.025166 0.0088889 0.019247 -0.020377 
0.13598 -0.1917 0.032893 0.016123 0.025659 0.011355 0.015959 -0.0039354 
0.11099 -0.017911 0.056733 0.033058 0.0087245 0.0083956 0.018754 -0.0049219 
0.071202 0.20914 0.066598 0.026152 0.022535 0.0034632 -0.0014692 0.015137 
0.039141 0.2246 0.029112 0.02829 0.03651 0.024673 0.010204 0.044073 
0.0046141 0.022042 0.0026412 0.065283 0.036839 0.029605 0.01826 0.044402 
-0.034845 -0.24003 0.031742 0.040292 0.03651 0.034373 0.042758 0.074326 
-0.027447 -0.60602 0.072517 0.031414 0.013986 0.037661 0.035688 0.021878 
0.0054362 -0.52513 0.067256 0.041278 0.0092177 0.030098 0.037168 0.010533 
0.011026 -0.0138 0.0088889 0.01563 0.020562 -0.0070593 0.016123 0.0014903 
0.0023123 0.57579 -0.017088 0.023522 0.038977 0.0036276 0.018425 -0.0044286 
0.0046141 0.92435 -0.008539 0.03799 0.057884 0.040785 0.0082312 0.0082312 
0.0026412 0.9278 0.013657 0.022206 0.036182 0.0227 0.011026 0.023028 
-0.011498 0.58976 0.012177 0.042594 0.020233 0.017603 0.017767 0.051308 
0.00099702 -0.0031133 0.03092 0.033387 0.012835 0.035853 0.029112 0.018589 
0.021549 -0.64729 0.038319 0.01267 0.0039565 0.019411 0.033222 0.01711 
0.019247 -0.70154 0.013821 0.058542 0.044896 0.025824 0.023686 0.03092 
0.027139 -0.29478 -0.0064016 0.047197 0.041936 0.025659 0.061501 0.036017 
0.017603 0.075476 -0.021034 0.027139 0.044567 0.025659 0.059528 0.026317 
0.010369 0.31273 -0.046354 0.033387 0.010369 0.026974 0.032236 0.00033937 
0.0070803 0.44196 -0.018568 0.030427 -0.0057439 0.0037921 0.0083956 0.018096 
0.0054362 0.51134 0.0051074 0.047855 -0.015938 0.013328 0.015301 0.035688 
0.024508 0.35909 0.03799 0.039963 0.0031344 0.025001 -0.006566 0.037004 
0.048348 0.094384 0.062323 0.015959 0.014643 0.0064227 -0.014293 0.035031 
0.067091 -0.25253 0.052459 0.037826 0.024508 0.00297 -0.02235 0.011684 
0.064625 -0.36351 0.028619 0.025166 0.012342 0.017603 0.029112 0.059693 
0.059857 -0.056548 -0.0032777 0.0051074 0.03651 0.016288 0.017932 0.018096 
0.053445 0.17725 -0.016595 0.068571 0.0041209 -0.0040998 0.0034632 0.016288 
0.077614 0.044731 -0.0064016 0.024673 -0.018075 0.020233 -0.033859 -0.0064016 
0.11329 -0.13103 0.056076 0.015959 0.0064227 0.0083956 0.029276 -0.010841 
0.062159 -0.17525 0.073339 0.025659 0.02829 0.026974 0.070215 0.03092 
0.0062583 -0.018568 0.047197 0.028454 0.052459 0.034537 0.098988 0.045389 
-0.024158 0.029112 0.020398 0.026974 0.043745 0.035524 0.11346 0.052952 
-0.014458 -0.10209 0.024015 0.016616 0.012835 0.031578 0.10935 0.039963 
0.033387 -0.28245 0.040292 0.025988 0.020562 0.031578 0.077943 0.039799 
0.095042 -0.20814 0.029605 0.06035 0.022864 0.053116 0.04358 0.075641 
0.085999 0.074983 0.026481 0.038812 0.033551 0.025824 0.073175 0.09981 
0.01711 0.33196 0.014643 0.029769 0.045718 0.026646 0.10819 0.090767 
-0.041586 0.46415 0.0052718 0.037168 0.039141 0.029605 0.063145 0.076134 
-0.11508 0.41335 -0.011334 0.044896 0.038483 0.0087245 -0.0047575 0.077121 
-0.14106 0.22756 -0.010019 0.031085 0.021384 0.01004 -0.009361 0.030592 
-0.068714 0.00297 -0.0031133 0.036839 0.04917 -0.011498 -0.0049219 0.015959 
0.032893 0.07301 0.0592 0.016288 0.029276 0.031414 -0.03501 -0.013307 
0.14091 0.19846 0.08419 0.044073 0.018425 0.020891 -0.031392 -0.017746 
0.16475 0.20849 0.11773 0.0041209 0.038648 0.0023123 -0.0067304 -0.014458 
0.12776 0.10721 0.11543 0.016616 0.020069 0.0093821 0.021056 -0.036489 
0.10721 -0.10028 0.12316 0.034537 0.02533 0.045882 0.030263 -0.0040998 
0.10655 -0.60289 0.10803 0.013821 0.030756 0.037497 0.051636 0.022206 
0.098988 -1.298 0.091589 -0.0031133 0.018918 0.026152 0.043909 0.018096 
0.10014 -1.4093 0.10047 0.019247 0.016123 0.026481 0.045882 0.034209 
0.060515 -0.87911 0.06331 -0.012485 0.021713 0.0069159 0.016452 0.083697 
0.038483 -0.28673 0.044238 -0.0013048 0.037497 0.013986 0.025001 0.14354 
0.032564 0.12562 0.044073 -0.0073881 0.022206 0.035524 0.056569 0.13023 
0.060844 0.55672 0.042265 -0.0021268 0.021878 0.038977 0.052623 0.092576 
0.049828 0.98748 -0.031064 0.017767 0.030592 0.025988 0.048019 0.034537 
0.027961 1.3025 -0.091404 -0.0044286 0.02122 0.011191 0.035688 -0.0029489 
0.034866 1.2239 -0.11804 -0.0026201 0.017274 0.013164 0.026974 -0.025145 
0.013821 0.78196 -0.10719 0.034373 0.044073 -0.0075525 0.029441 -0.063453 
0.029769 -0.015444 -0.012156 0.033222 0.05772 -0.023994 0.020727 -0.029913 
0.012835 -0.8898 0.10967 0.061008 0.033222 0.011026 0.034702 0.088136 
0.01267 -1.4304 0.18826 0.047362 0.034209 0.038483 0.079422 0.2121 
0.007738 -1.2752 0.19665 0.031249 0.03651 0.044238 0.078436 0.16952 
0.049664 -0.77569 0.097508 0.052787 0.038155 0.040621 0.044896 0.049006 
0.084684 -0.042079 -0.015116 0.025166 0.031742 0.05624 -0.0021268 0.026481 
0.089616 0.8793 -0.082854 0.0024767 0.040785 0.031249 0.015465 -0.019719 
0.058542 1.1198 -0.11541 0.046375 0.005765 0.013821 -0.0064016 -0.03353 
0.044567 0.293 -0.068057 0.012342 0.013821 0.033551 -0.012814 -0.042901 
0.025495 -0.58777 -0.011005 -0.019555 0.011191 0.0034632 -0.017582 0.016452 
-0.0088678 -0.42286 0.058706 -0.010183 0.026152 0.0082312 0.023851 0.076956 
-0.0083746 0.3244 0.11855 -0.0138 0.024344 0.047197 0.0023123 0.089287 
-0.018404 0.82175 0.10507 0.011355 0.058049 0.046211 0.0044497 0.081067 
0.015137 0.83129 0.075805 0.00083261 0.064132 0.021056 -0.01232 -0.027775 
0.044073 0.64895 0.028947 -0.0013048 0.014972 0.00066819 -0.025145 -0.11179 
0.080573 0.61706 -0.0049219 0.052787 0.01826 0.015137 -0.063946 -0.13119 
0.081231 0.57941 -0.021363 0.023686 0.014643 0.015465 -0.11656 -0.085978 
0.058377 0.43258 -0.026296 0.017274 0.012999 0.024837 -0.071016 0.0085601 
0.027632 0.12628 0.0034632 0.035853 0.031249 0.024344 0.034044 0.060022 
0.050321 -0.45311 0.069393 0.028619 0.043251 0.062488 0.1391 0.085999 
0.05624 -0.9868 0.093891 0.049006 0.019411 0.026317 0.15292 0.089452 
0.077285 -0.87615 0.08978 0.049006 0.028783 0.023357 0.10984 0.082217 
0.046704 -0.21504 0.030756 0.046868 0.03092 0.031742 0.046211 0.053938 
0.014972 0.10063 0.0024767 0.060186 0.017767 0.028454 0.0018191 0.018754 
0.0065871 -0.45311 0.0065871 0.052952 0.045224 0.016781 0.0037921 0.0042853 
-0.024323 -0.63479 0.029112 0.028454 0.043087 0.015137 0.023028 -0.0019624 
-0.011005 -0.29758 0.034537 0.059035 0.054596 0.015301 0.022042 0.0028056 
-0.014951 0.19122 0.023686 0.036017 0.03536 0.025659 0.021549 -0.00097594 
0.0031344 0.75747 -0.028597 0.025988 0.042758 0.03092 0.020562 0.011684 
0.016288 1.0893 -0.024323 0.034866 0.043909 0.044731 0.0421 0.010697 
0.020069 1.1583 -0.024816 0.03092 0.02533 0.034044 0.026974 0.0031344 
-0.00097594 1.0625 -0.077593 0.034209 0.020562 0.010533 0.016616 -0.0029489 
-0.0047575 0.98781 -0.12494 0.017274 0.018589 0.010533 0.010204 -0.019719 
0.014643 0.88949 -0.11919 0.020727 0.015465 0.017274 0.021549 -0.0047575 
0.06035 0.58105 -0.09387 0.041443 0.018096 0.0069159 0.009711 -0.011663 
0.074983 0.20536 -0.056548 0.02533 0.0034632 1.0539e-005 0.0067515 -0.014458 
0.057884 0.011191 0.016945 0.04095 0.0044497 0.040292 0.021056 0.0024767 
0.033058 -0.033859 0.12694 0.041443 0.025824 0.034702 0.033387 -0.00064712 
0.035853 -0.12281 0.18826 0.023193 0.047362 0.027632 0.028619 0.016123 
0.039799 -0.6731 0.19484 0.043087 0.0592 0.027632 0.018918 0.00066819 
0.043087 -0.89703 0.21753 0.011848 0.014808 0.018589 0.024673 0.01711 
0.025001 -0.75415 0.24071 0.017438 0.018589 -0.016924 0.049335 0.011026 
0.032893 -0.90673 0.22756 0.038648 0.018589 -0.010512 0.03799 0.018589 
0.0037921 -0.90278 0.11066 0.020233 0.045553 0.040785 0.046046 0.023851 
-0.028597 -0.34559 0.0036276 0.048677 0.048348 0.029934 0.047197 0.022042 
-0.025802 0.35679 -0.031392 0.063968 0.052787 0.05772 0.065612 0.038812 
-0.031064 0.84493 -0.038791 0.041772 0.040292 0.051801 0.059035 0.026481 
-0.089102 1.2364 -0.047341 0.089452 0.010862 0.059693 0.066763 -0.00081153 
-0.11672 1.0475 -0.035503 0.042265 0.018754 0.030098 0.061995 -0.030242 
-0.084498 0.20602 0.049992 0.01826 0.01563 0.036675 0.066927 -0.13152 
-0.011334 -0.61999 0.060844 0.052787 0.013657 0.02681 -0.0082102 -0.14517 
0.11296 -0.84475 -0.011334 0.026646 0.033551 0.030592 -0.053095 -0.12018 
0.1225 -0.59336 -0.13251 0.039963 0.055582 0.013328 -0.0088678 -0.050464 
0.089287 -0.25713 -0.17246 0.079258 0.03092 0.020398 0.052294 0.074983 
0.1054 0.12562 -0.14204 0.031578 -0.0011404 -0.0014692 0.07038 0.21474 
0.13171 0.60982 -0.02794 0.0044497 -0.018075 -0.013143 0.033058 0.2371 
0.10047 0.7795 0.035524 -0.009361 -0.00081153 0.0016547 0.032893 0.21523 
0.034866 0.30681 0.10819 -0.0027845 0.01267 0.017438 0.023522 0.17445 
-0.020377 0.17314 0.11526 0.019083 0.054596 0.026974 0.010369 0.15209 
-0.014951 0.47122 0.087972 0.0064227 0.046868 0.013328 0.019247 0.15094 
0.041114 0.66276 0.091918 0.019905 0.0072447 0.02533 0.032071 0.059693 
0.047197 0.60308 0.10343 0.035524 0.0023123 0.0070803 0.01267 -0.0138 
0.03092 0.43801 0.13516 0.042758 -0.0034422 0.0059294 0.0079024 -0.045861 
0.0056006 0.12908 0.13203 0.0095465 0.0054362 0.00017495 0.01415 -0.010019 
0.03799 -0.53236 0.16821 0.0093821 0.018918 0.039305 0.06594 0.069558 
0.050486 -1.4888 0.22986 -0.0080457 0.026974 0.035524 0.11017 0.043745 
0.12842 -3.2544 0.27277 0.028947 0.028125 0.041278 0.12069 0.0592 
0.18235 -3.902 0.24417 0.022864 0.020069 0.045224 0.088794 0.021549 
0.15883 -1.8179 0.10524 0.038977 0.011355 0.047691 0.072353 0.021878 
0.11313 0.41664 -0.02794 0.079094 0.013657 0.026646 0.028454 0.0074092 
0.030756 1.4585 -0.15257 0.046211 0.026481 0.00297 -0.0055795 -0.019719 
-0.032543 1.6489 -0.17821 0.026974 0.06035 0.022864 -0.019555 0.0041209 
-0.010019 1.4886 -0.14122 0.029934 0.0324 0.015959 0.020891 0.033058 
-0.0019624 1.2719 -0.091075 0.007738 0.0067515 0.020891 0.014479 0.079094 
-0.00081153 0.99307 -0.071838 0.0042853 0.012177 0.02829 0.0037921 0.099152 
-0.044381 0.66424 -0.024487 0.027468 0.010697 0.020562 0.034537 0.098001 
-0.045696 0.31486 0.055089 0.00099702 0.010533 0.023851 0.05213 0.11378 
-0.017417 0.03799 0.096357 0.030427 0.031578 0.0046141 0.015137 0.082053 
-0.010019 -0.1621 0.089123 0.01152 0.042265 0.040292 0.04917 0.098166 
0.024179 -0.22392 0.088794 0.022042 0.039799 0.023522 0.03799 0.081889 
0.048513 -0.21603 0.079916 0.037826 0.023522 0.013986 0.041278 0.037826 
0.049664 -0.30004 0.10524 0.0069159 0.015959 0.014479 -0.003771 0.0421 
0.059857 -0.37699 0.079094 0.013986 -0.0004827 0.027961 -0.009361 0.075641 
0.089123 -0.29676 0.070215 0.022206 0.014643 0.01152 -0.028762 0.093562 
0.11378 -0.26042 0.047033 0.027303 0.022371 0.0090533 -0.0022913 0.058542 
0.094055 -0.1381 0.015301 0.05065 0.041114 0.051636 -0.020541 0.035853 
0.065612 0.14897 0.0059294 0.027632 0.01711 0.053445 -0.041915 0.018096 
0.039963 0.28362 0.011355 0.013821 0.011684 0.036839 -0.042079 -0.0091966 
0.03092 0.20257 -0.00031829 0.048019 0.033387 0.040621 -0.0064016 -0.054739 
0.017767 0.13664 0.026152 0.014972 0.011191 0.049006 0.059035 -0.019555 
-0.0004827 0.2126 0.050157 0.048677 0.053281 0.04095 0.10376 0.0056006 
-0.010348 0.27064 0.060022 0.023522 0.031578 0.01563 0.10606 -0.018733 
-0.023172 0.28872 0.058213 0.030098 0.035524 0.028454 0.1202 -0.0042642 
-0.02498 0.33837 0.026152 0.044896 0.024673 0.020069 0.11773 -0.034352 
-0.040764 0.37635 -0.027611 0.043087 0.024508 0.027632 0.079751 -0.031557 
-0.042079 0.16475 -0.079072 0.057062 0.058706 0.042758 0.034209 0.0093821 
-0.018404 -0.19104 -0.069043 0.061666 0.052952 0.024673 -0.034845 -0.011992 
0.044567 -0.3058 -0.10045 0.04095 0.055254 0.0079024 -0.049807 0.017932 
0.023522 -0.047012 -0.10554 0.027796 0.056404 0.025495 -0.030077 0.06035 
0.015465 0.17462 -0.095185 0.052952 0.040128 0.037661 0.0042853 0.099481 
-0.0004827 0.44508 -0.071181 0.024508 0.027468 0.025988 -0.014787 0.11937 
-0.0073881 0.78607 -0.057699 0.042429 0.021549 0.012835 0.0064227 0.082217 
-0.026296 0.91366 -0.058028 0.035853 0.033387 0.02681 0.010697 0.034866 
0.0064227 0.71653 -0.091568 0.0090533 0.021384 0.015137 0.041443 0.0036276 
0.15341 0.25436 0.0087245 0.039141 0.023028 0.011026 0.024673 -0.046683 
0.22871 -0.13497 0.050321 0.0079024 0.022206 -0.017911 0.0079024 -0.11705 
0.16492 -0.157 0.14568 -0.010841 0.019083 0.0095465 -0.0036066 -0.080388 
0.04358 0.2343 0.15209 0.020398 0.02681 0.0098754 0.028454 0.014643 
-0.14993 0.57973 0.097837 0.027796 0.043909 0.016288 0.011848 0.073668 
-0.22589 0.61377 0.043251 0.033058 0.041607 0.04506 -0.011992 0.069064 
-0.14878 0.46695 0.023357 0.071695 0.032236 0.046211 -0.021692 -0.0073881 
-0.049971 0.098494 0.01415 0.053116 0.074983 0.028125 0.013986 -0.040928 
0.040785 -0.54535 0.022535 0.042923 0.056733 0.038648 0.025001 -0.017746 
0.10228 -1.2181 -0.0039354 0.025988 0.025824 0.017438 0.014808 -0.071345 
0.15012 -1.1997 -0.014458 0.0024767 0.012999 -0.00097594 0.0042853 -0.093705 
0.15867 -0.43371 -0.045039 0.029441 0.015137 -0.017253 0.025988 -0.084991 
0.14996 0.021384 -0.026131 0.01004 0.024673 -0.010348 0.055582 -0.082196 
0.13812 0.14963 0.033387 -0.0021268 0.033222 1.0539e-005 0.051801 -0.056548 
0.09126 0.27853 0.12398 0.025001 0.034209 0.030098 0.076792 0.065776 
0.024508 0.28889 0.13631 0.0070803 0.019247 0.054925 0.075476 0.24104 
-0.024158 0.21161 0.14601 0.01974 0.028783 0.084848 0.069558 0.27294 
-0.045368 0.035853 0.071366 0.029769 0.03651 0.053281 0.058542 0.20717 
0.04095 -0.26634 0.056733 0.018589 0.045224 0.021384 0.034866 0.10951 
0.077121 -0.255 0.013821 0.071859 0.0689 0.025001 0.005765 0.047033 
0.06594 -0.0022913 0.01415 0.026481 0.064461 0.0079024 -0.001798 -0.013307 
0.0054362 0.19402 -0.0050863 0.015465 0.020727 0.0067515 0.00297 -0.024487 
-0.017417 0.22838 -0.025802 0.034537 0.020727 0.00033937 0.023851 -0.0082102 
-0.031228 0.14831 -0.073976 0.053445 0.065118 0.0070803 0.023028 -0.014129 
-0.015609 0.14864 -0.13021 0.059528 0.0324 0.018754 0.028619 0.014479 
-0.023336 0.037332 -0.13136 0.05213 0.017767 0.020069 0.049006 0.0019835 
0.016945 -0.10472 -0.0050863 0.03388 0.02829 0.019247 0.059857 0.0080668 
0.0079024 -0.098473 0.065447 0.024344 0.047855 0.023686 0.031907 0.011848 
0.029605 -0.029913 0.09685 -0.015116 0.021056 -0.0022913 0.028125 0.010204 
0.070708 -0.097322 0.11428 -0.03616 0.010533 -0.0029489 0.041443 0.024015 
0.10458 -0.21307 0.1202 0.031085 0.026646 0.01826 0.038977 0.021713 
0.1003 -0.15289 0.15094 0.01415 0.021713 0.014643 0.029934 0.041114 
0.082546 0.036346 0.12447 0.019083 0.023522 0.012999 0.0041209 0.023357 
0.058377 0.019247 0.12529 0.022864 0.035853 0.026481 0.015301 0.044073 
0.038812 -0.34838 0.1465 0.0074092 0.042758 0.016123 0.074654 0.042265 
0.019576 -0.5807 0.16623 0.0079024 0.02829 0.02829 0.061337 0.082053 
0.049335 -0.52529 0.16673 0.012506 0.027139 0.0227 0.04095 0.099316 
0.10326 -0.30054 0.13976 0.013164 0.0042853 0.041278 0.0070803 0.061995 
0.07449 0.11083 0.11066 0.022535 0.011026 0.012999 0.024015 0.065776 
-0.011992 0.39954 0.035853 0.017767 0.019411 0.0054362 0.019576 0.051308 
-0.075949 0.47747 -0.085156 0.035195 0.034866 0.018918 0.034044 0.045882 
-0.095678 0.55507 -0.15503 0.053445 0.030592 0.038319 0.05213 0.019905 
-0.0503 0.65405 -0.12807 0.032236 0.0074092 0.038155 0.057227 -0.0091966 
0.022206 0.75566 -0.06855 0.027961 0.016452 0.012013 0.058213 0.0028056 
0.099316 0.86072 -0.022514 0.043745 0.012342 0.020562 0.023357 0.0079024 
0.084684 0.99324 0.015959 0.031578 0.011191 0.0088889 0.044238 0.046375 
0.045718 0.67098 0.040292 0.066927 0.023028 0.004943 0.040785 0.037497 
-0.055232 -0.12346 0.054432 0.046375 0.024508 0.033551 0.043416 0.016123 
-0.03912 -1.5917 0.072846 0.03651 0.004943 0.036346 0.045389 0.057884 
0.010533 -3.1209 0.14239 0.040785 -0.012649 0.043416 0.034373 0.054103 
0.032729 -2.8559 0.12036 0.013821 0.0042853 0.02829 0.033551 0.058706 
0.037168 -0.73919 -0.034681 0.029934 0.0034632 0.034537 0.031414 0.020562 
0.023193 1.2591 -0.11179 0.057062 0.0085601 0.012013 0.0054362 -0.019555 
-0.0042642 2.2288 -0.12659 0.050486 0.037004 -0.017911 0.017603 -0.056877 
-0.03616 2.1933 -0.10028 0.072188 0.018589 0.014643 0.018589 -0.1182 
-0.01232 1.5726 -0.01939 0.045224 0.014479 0.018096 -0.0034422 -0.082032 
0.1054 0.78262 0.14108 0.0069159 0.017438 0.0046141 -0.016924 -0.013143 
0.22822 0.10951 0.30204 0.028454 0.012506 0.025659 -0.0055795 0.098823 
0.29859 -0.5682 0.30812 -0.010348 -0.0024557 0.027303 -0.017417 0.13088 
0.25123 -0.62525 0.24022 -0.041586 -0.00015387 0.024673 0.00083261 0.12332 
0.10211 -0.48665 0.15423 -0.014458 0.0074092 0.029112 0.035195 0.11231 
-0.012485 -0.48238 0.073504 -0.012485 0.012999 0.036182 0.066105 0.065447 
-0.0050863 -0.75087 0.032236 0.014315 -0.003771 0.026481 0.029934 0.022371 
0.03651 -1.1823 0.061501 0.00066819 0.00033937 0.00050378 -0.010183 -0.020706 
-0.00015387 -0.48024 0.01563 0.01004 0.01004 -0.012156 -0.0026201 -0.011992 
-0.023172 0.63679 -0.14451 0.03947 0.015959 0.013821 0.015301 -0.021199 
-0.034681 1.1221 -0.18709 0.06331 0.081395 0.054103 0.010369 -0.0016336 
-0.081539 0.86894 -0.14862 0.032564 0.033715 0.029605 0.026974 0.00297 
-0.10735 0.50871 -0.043724 0.069064 0.035853 0.030427 0.044731 -0.024816 
-0.096336 -0.024158 0.091753 0.034866 0.016288 0.02533 0.012342 -0.0042642 
-0.039449 -0.43897 0.171 0.036675 0.033222 0.012013 0.017767 -0.047505 
0.045718 -0.50129 0.12283 0.049828 0.017438 0.0014903 0.0070803 -0.012156 
0.14552 -0.48961 0.089452 0.020233 0.021713 0.00066819 0.014479 -0.0087034 
0.18103 -0.89719 0.064132 0.049664 0.024508 0.0072447 0.019411 0.0036276 
0.11148 -1.0294 0.056733 0.039634 0.017767 -0.0019624 0.038155 0.064954 
0.042923 -0.40609 0.043416 0.057391 0.039634 0.038648 0.057062 0.099316 
0.0028056 0.19336 0.054103 0.10606 0.054103 0.061008 0.07301 0.11855 
-0.018404 0.77128 -0.0004827 0.086985 0.052459 0.0421 0.058542 0.09422 
-0.027282 1.0699 -0.14599 0.066105 0.053281 0.045718 0.039305 0.058049 
0.059364 0.76717 -0.098802 0.032564 0.042429 0.04506 0.013328 0.03799 
0.17281 0.38211 0.049992 -0.032708 0.015959 0.010369 0.016452 0.0070803 
0.18004 0.5577 0.17676 -0.069372 -0.0034422 -0.0044286 -0.041915 0.0070803 
0.076627 0.63432 0.18711 -0.079072 0.0090533 -0.009361 -0.076113 0.004943 
-0.079401 0.3221 0.13664 -0.030735 0.039141 0.010204 -0.013143 0.033058 
-0.13859 -0.1838 0.093398 0.041443 0.047691 0.025166 0.060515 0.011684 
-0.081539 -0.31928 0.041772 0.034373 0.065612 0.007738 0.082053 0.0070803 
0.045553 0.014972 -0.063453 0.037826 0.067913 0.043909 0.067256 0.017603 
0.17281 0.58072 -0.077757 0.058542 0.050814 0.027303 0.027139 0.01563 
0.19599 0.94046 -0.044381 0.046704 0.013821 0.0041209 0.014808 0.007738 
0.10869 0.99537 -0.060165 0.043251 0.019083 0.032893 0.014479 0.00083261 
0.00066819 0.98929 -0.05326 0.034537 0.011848 0.024673 0.02533 0.035195 
-0.058356 0.64007 0.021056 0.027796 0.012999 -0.0039354 0.043416 0.068407 
-0.076277 0.12957 0.11494 0.062488 0.017932 1.0539e-005 0.073175 0.088958 
-0.10949 -0.41382 0.10507 0.036017 0.048348 0.036017 0.036017 0.12875 
-0.049807 -1.2416 -0.023336 0.042923 0.045389 0.031578 -0.017417 0.10326 
0.009711 -2.6665 -0.023007 0.076627 0.024508 0.014315 -0.03205 0.076134 
0.10869 -2.7993 0.019576 0.0227 0.0056006 0.031414 -0.0098543 -0.0047575 
0.12365 -1.0728 0.00297 0.015794 0.015465 0.011026 0.028125 -0.035996 
0.049664 1.5463 -0.13464 0.051636 0.052952 0.022371 0.10178 0.015301 
-0.057205 2.9927 -0.16473 0.048184 0.070708 0.033551 0.15604 0.070708 
-0.063453 2.5387 -0.082196 0.047526 0.048677 0.055911 0.14387 0.097508 
0.024179 0.77851 -0.011005 0.012999 0.016123 0.018425 0.046211 0.071695 
0.11839 -0.9189 -0.034516 0.0059294 0.010204 0.013328 -0.013307 0.058377 
0.079587 -1.096 0.065776 0.041443 0.02122 0.027796 -0.037969 0.038483 
-0.039942 -0.21406 0.1299 0.0047785 0.054267 0.034209 0.012342 0.048019 
-0.14073 0.52104 0.11773 0.0047785 0.020233 0.015137 0.029276 0.058542 
-0.14829 0.59946 0.093233 0.027139 0.074819 0.038319 0.080573 0.067091 
-0.060987 0.23364 0.09833 -0.013143 0.028125 0.060844 0.11263 0.066105 
0.059364 -0.060494 0.13499 -0.014787 0.016945 0.016452 0.041443 0.019905 
0.12184 -0.059507 0.098823 0.01974 0.049006 0.020069 -0.0021268 0.019247 
0.11954 0.29004 -0.014787 0.025659 0.036839 0.024015 -0.017253 0.03092 
0.094713 0.60703 -0.088937 0.073339 0.020562 1.0539e-005 -0.0090322 0.047197 
0.11642 -0.11886 -0.094363 0.049992 0.035524 0.014479 1.0539e-005 0.062323 
0.17133 -0.79 -0.069701 0.0227 0.043251 0.0044497 -0.013143 0.025001 
0.15472 -0.47054 -0.037476 0.013492 -0.0039354 0.0021479 -0.045861 -0.0068948 
-0.011827 0.7065 0.0056006 -0.020377 0.010369 -0.009361 0.01004 -0.042244 
-0.13892 0.87996 0.036675 -0.0019624 0.017932 -0.0064016 0.025495 -0.045696 
-0.15996 -0.36006 -0.024158 0.043745 0.044896 0.042594 0.054925 -0.020541 
-0.14352 -0.83324 -0.13136 0.059364 0.071695 0.068078 0.077121 -0.027282 
-0.10193 -0.2425 -0.17969 0.10178 0.066763 0.060186 0.09981 -0.049314 
-0.043724 -0.036325 -0.055561 0.059528 0.0062583 0.039799 0.071859 -0.079895 
0.027632 0.019576 0.066763 0.019083 0.022371 0.048348 0.020069 -0.067892 
0.13845 -0.43026 0.1368 0.041772 0.020398 0.0023123 -0.020048 -0.014787 
0.24301 -2.2025 0.26011 0.0064227 0.015301 0.0021479 -0.034352 0.065283 
0.29563 -3.2273 0.32045 -0.008539 0.011026 0.010533 -0.036325 0.19895 
0.20668 -1.8978 0.17314 0.032729 0.021713 0.011191 -0.033201 0.22016 
0.070708 0.81698 0.0039565 0.043416 0.04358 0.0093821 -0.028926 0.22756 
-0.0503 2.1198 -0.10637 0.034866 0.023686 0.01267 0.033387 0.17232 
-0.048327 1.4733 -0.0026201 -0.018897 0.0031344 0.012506 0.045882 0.18514 
-0.00081153 0.66934 0.14174 -0.04471 0.0024767 -0.025802 0.033222 0.14453 
0.057555 0.53419 0.21967 -0.019555 0.0062583 -0.018568 0.029605 0.04917 
0.039141 0.53156 0.19435 -0.0042642 0.03388 0.026646 0.059364 0.058377 
-0.010183 0.20701 0.14798 0.030427 0.054432 0.031578 0.02829 0.059364 
-0.0098543 -0.22968 0.1054 0.050321 0.045224 0.052787 -0.0060728 0.014972 
0.0093821 -0.18002 0.13187 0.012506 0.038812 0.056076 0.011026 -0.10045 
0.0011614 0.3313 0.12529 0.016452 0.025166 0.058377 0.044402 -0.12478 
0.015137 0.66474 -0.040435 0.03536 0.01711 0.031578 0.078272 -0.121 
-0.008539 0.74859 -0.16769 0.044402 0.0227 0.0024767 0.076134 -0.088115 
-0.069372 0.87223 -0.17641 0.066763 0.030098 0.0042853 0.11576 -0.086471 
-0.071509 0.69154 -0.073976 0.050979 0.044073 -0.0064016 0.13368 -0.11919 
-0.031886 0.10606 0.06035 0.023851 0.021713 0.011848 0.066105 -0.074304 
0.04506 -0.32619 0.147 0.065118 0.033387 0.037497 0.0031344 -0.037476 
0.077449 -0.87335 0.1562 0.018754 0.023851 0.041114 -0.02087 0.01267 
0.21046 -2.0075 0.19698 -0.012485 -0.016102 0.031249 -0.046519 0.058706 
0.27672 -2.0706 0.16262 0.00099702 -0.0049219 0.01267 -0.059014 0.15407 
0.20832 -0.36795 0.078107 0.0052718 0.016288 0.01711 -0.043559 0.21079 
0.10507 1.2599 -0.038462 0.012013 0.00083261 -0.010676 -0.038791 0.22115 
-0.013636 1.5251 -0.16523 0.032729 -0.0072237 -0.021528 0.0031344 0.066105 
-0.074798 0.42387 -0.14319 0.049664 0.023851 -0.021363 0.0011614 -0.017088 
-0.072989 0.12118 -0.095021 0.046046 0.005765 0.0056006 0.032071 0.019083 
-0.094034 0.7402 -0.052602 0.037004 0.0072447 0.019411 0.062488 0.11132 
-0.050136 1.3413 0.051636 0.013164 0.02533 0.025659 0.037332 0.13598 
-0.014458 1.361 0.11543 0.011684 0.025166 0.030756 0.013328 0.10819 
0.017932 0.69762 0.15423 0.0060938 0.028454 0.017603 -0.022021 0.029112 
0.068242 -0.72407 0.23085 0.037661 0.015959 0.025166 -0.036983 -0.032872 
0.14338 -1.8883 0.21506 0.025988 0.0034632 0.046046 -0.015444 -0.03501 
0.23167 -1.5476 0.13401 0.012013 -0.0004827 0.033715 0.042265 -0.033365 
0.1761 -0.084663 0.012506 0.048677 0.01563 0.025166 0.085506 1.0539e-005 
0.054925 1.0509 -0.059178 0.03388 0.038977 0.042594 0.12003 -0.014293 
-0.02087 0.94227 0.013164 0.041278 0.053609 0.053116 0.089945 -0.066084 
-0.01939 0.076299 0.050979 0.052787 0.023686 0.035688 0.062817 -0.089431 
-0.041586 0.025824 -0.049642 0.062323 0.045553 0.03092 0.03947 -0.070194 
-0.055068 0.31897 -0.092226 0.020891 0.034209 0.020891 0.036839 -0.065919 
-0.043724 0.21013 -0.12823 -0.0062372 0.027468 0.010862 -0.00031829 -0.050958 
-0.049642 0.5776 -0.1917 -0.012485 0.018425 -0.0014692 0.007738 -0.013143 
-0.044052 0.7282 -0.11935 0.024344 0.04358 0.0098754 0.012342 0.00083261 
-0.047998 0.52712 -0.035503 0.010204 0.038155 0.046704 0.040456 0.034537 
-0.040928 0.4117 0.02122 0.014315 0.027632 0.034373 0.042594 0.031085 
0.01711 0.046211 0.10162 0.066105 0.019905 0.049006 0.010204 0.077614 
0.048677 -0.32388 0.17215 0.030427 0.025495 0.073668 0.022042 0.065283 
0.056733 -0.037969 0.16114 0.025495 0.025001 0.044238 0.012506 0.053281 
0.086492 0.013657 0.067256 0.044238 0.030263 0.03388 0.0028056 0.064625 
0.10145 -0.98992 -0.017088 0.044731 0.031907 0.023357 0.00099702 0.035524 
0.15045 -1.6916 -0.099789 0.061501 0.0062583 0.021878 0.0227 0.026481 
0.13434 -1.2357 -0.12412 0.037332 -0.0073881 0.0019835 0.0092177 0.028783 
0.093069 -0.41727 -0.071838 0.033387 0.010697 0.0018191 0.025824 0.034702 
-0.0040998 0.16475 -0.091568 0.058049 0.0227 0.048184 0.051143 0.062488 
-0.086964 0.70765 -0.12807 0.03388 0.045389 0.055089 0.076627 0.041443 
-0.049478 0.72393 -0.034516 0.031414 0.050321 0.040128 0.068078 0.028947 
0.033058 0.67838 0.012013 0.037497 0.045224 0.037004 0.028619 0.032071 
0.029605 1.0312 0.0324 0.025001 0.038483 0.02829 0.039141 0.055911 
-0.028104 1.2836 0.0019835 0.040128 0.038812 0.019083 0.051143 0.035524 
-0.063782 1.0832 -0.044052 0.057391 0.037332 0.0092177 0.031907 -0.016924 
-0.10505 0.47484 -0.035667 0.042265 0.04358 0.039963 0.052787 0.020069 
-0.06296 -0.13218 0.072188 0.033387 0.03092 0.038483 0.085835 0.035195 
0.024015 0.069393 0.19024 -0.032215 0.033387 0.01267 0.02533 0.065283 
0.089123 0.32752 0.22575 -0.012814 0.0023123 0.019576 -0.040435 0.019576 
0.049335 -0.71963 0.27228 0.024508 0.0075736 0.042265 0.0032988 0.0087245 
0.061172 -2.3498 0.26554 0.028783 0.027139 0.03536 0.06742 -0.020541 
0.086821 -2.2383 0.20734 0.038648 0.023357 0.044896 0.072353 -0.020377 
0.15785 -1.0925 0.10556 0.059857 0.035853 0.048841 0.037661 -0.0011404 
0.21194 -0.84951 0.16377 0.037332 0.04654 0.019411 -0.0040998 -0.021692 
0.2833 -1.0498 0.22312 0.041114 0.036346 0.00066819 -0.033694 -0.059836 
0.27376 -0.54617 0.16245 0.040621 0.023522 -0.00064712 -0.023829 -0.091568 
0.1128 0.68052 0.079587 0.015137 0.022371 0.0085601 -0.034188 -0.088937 
-0.10604 1.5662 0.048348 0.016452 0.014808 0.0085601 -0.015444 -0.0044286 
-0.24809 2.0975 -0.039613 -0.020377 0.025988 -0.0070593 0.04506 0.16426 
-0.29133 2.1035 -0.15585 0.02122 0.044896 0.064461 0.11872 0.3364 
-0.2448 1.9768 -0.1843 0.040621 0.061995 0.051636 0.14946 0.31388 
-0.17887 1.6493 -0.17542 0.039305 0.03651 0.079094 0.098659 0.20257 
-0.10242 1.2193 -0.16555 0.043416 0.043087 0.061172 0.065612 0.074983 
0.00066819 0.74826 -0.121 0.033058 0.044896 0.034866 0.015959 -0.059343 
0.086985 -0.22211 -0.085485 0.041443 0.061995 0.0037921 0.0075736 -0.13563 
0.13779 -1.2165 -0.0503 0.074819 0.048019 0.010204 -0.0055795 -0.15996 
0.13499 -1.4235 0.033387 0.04654 0.043909 0.029769 0.031742 -0.15651 
0.16607 -1.4818 0.11674 0.0082312 -0.00031829 -0.01232 -0.052109 -0.17164 
0.33624 -2.7194 0.29201 0.013657 -0.01117 -0.011827 -0.14385 -0.12856 
0.5776 -3.4422 0.47221 -0.0138 -0.010841 -0.003771 -0.19285 0.018589 
0.49703 -2.0085 0.49555 -0.034023 -0.010019 0.0098754 -0.11212 0.20569 
0.16064 -0.19038 0.32506 0.0059294 0.018425 0.031085 -0.045696 0.34791 
-0.10867 1.1226 0.024179 0.01711 0.025824 0.038483 0.0056006 0.35498 
-0.19646 1.4919 -0.30448 0.08008 0.062159 0.040785 0.038155 0.28494 
-0.18643 1.0993 -0.3492 0.063474 0.045224 0.026317 0.13138 0.16196 
-0.14747 0.80432 -0.25171 0.050157 0.031085 -0.0019624 0.16245 -0.0091966 
-0.088115 0.45938 -0.10423 0.06742 0.022042 -0.011827 0.21391 -0.11705 
0.01563 0.29727 0.042923 0.011355 0.015959 -0.011334 0.18942 -0.19252 
0.076299 0.87601 0.10819 -0.012978 0.017438 -0.033365 0.094877 -0.22178 
0.024344 1.4391 0.0014903 0.0083956 0.044731 -0.02087 0.021549 -0.22557 
-0.08121 1.266 -0.051944 0.01974 0.039963 0.02681 -0.015938 -0.092719 
-0.1455 0.60555 0.070708 0.045389 0.050814 0.02681 0.076463 0.00017495 
-0.13004 0.042594 0.11773 0.054103 0.047691 0.024179 0.2246 0.063145 
-0.02235 -0.73327 0.076463 0.01152 0.058706 0.061337 0.20767 0.16015 
0.10441 -1.3903 0.023851 0.046375 0.024673 0.058377 0.081231 0.21983 
0.2029 -1.1126 -0.033694 0.041936 0.0072447 0.053281 -0.06148 0.23216 
0.18942 -0.73278 -0.039449 0.019576 0.039799 0.038483 -0.11113 0.16294 
-0.0070593 -0.14122 -0.13727 0.0044497 0.02122 0.02829 -0.19778 0.18218 
-0.064768 0.53584 -0.11343 -0.011005 -0.011005 0.022864 -0.1917 0.20849 
-0.0075525 0.84329 -0.065591 0.037004 0.017274 0.0044497 -0.14254 0.13105 
0.15637 0.43242 -0.006566 0.017274 0.0037921 0.011355 -0.039613 -0.0068948 
0.22065 0.1151 0.18169 -0.0032777 0.0062583 -0.013471 0.0060938 -0.17953 
0.11148 0.28872 0.25913 0.025824 0.01563 -0.046519 0.029112 -0.23263 
-0.0095255 0.13203 0.20734 0.0059294 0.0227 -0.011334 0.11839 -0.14648 
-0.0044286 -1.0111 0.16969 0.053281 0.039305 0.058377 0.17873 0.019083 
0.12957 -1.8929 0.070873 0.067256 0.023522 0.032071 0.13631 0.13779 
0.18711 -1.9228 0.034866 0.024508 0.023193 0.017767 0.074819 0.12579 
0.066269 -0.85067 0.0087245 0.026481 0.013657 0.034702 0.049992 0.097344 
-0.071181 1.1553 -0.022021 0.047197 0.033387 0.022042 0.04917 0.068571 
-0.19893 2.4429 -0.065591 0.03536 0.053116 0.029276 0.058213 0.061501 
-0.21882 2.4641 -0.18298 0.055418 0.050979 0.033058 0.088794 0.033058 
-0.17575 1.5892 -0.2841 0.037004 0.023851 0.043745 0.083204 0.061172 
-0.070523 0.27557 -0.17756 0.048348 0.041772 0.020727 0.062323 0.043909 
-0.016431 -0.97381 0.040128 0.052952 0.022371 0.012835 0.025988 0.021056 
0.10376 -1.6448 0.25847 0.010204 0.029112 0.023522 0.011684 0.038483 
0.16656 -1.5601 0.31042 -0.0036066 0.029605 0.0085601 0.00050378 0.028454 
0.14996 -0.3566 0.24647 0.01152 0.03651 0.0031344 -0.0049219 -0.03353 
0.0592 0.65931 0.14864 0.020398 0.014315 -0.0055795 -0.011334 -0.078415 
-0.056383 0.852 0.14782 0.016781 0.036346 0.045224 0.019576 -0.063289 
-0.11919 0.75073 0.13351 0.010862 0.056569 0.033387 0.051636 -0.023007 
-0.086636 0.62478 0.018096 0.0013258 0.032564 0.046046 0.027303 -0.019719 
-0.016595 0.38934 -0.13037 0.03092 0.021384 0.056898 -0.0072237 -0.040106 
0.005765 0.25091 -0.13941 0.019083 0.030098 0.03651 -0.019555 -0.05885 
-0.040928 0.18909 -0.15799 0.018589 0.043251 0.034866 0.020069 -0.02498 
-0.034681 0.46596 -0.12807 0.060515 0.025659 0.04358 0.01826 0.0042853 
0.024015 0.68249 0.035853 0.019905 -0.0075525 0.048677 -0.022185 0.027961 
0.12809 0.50772 0.31322 -0.021856 -0.015609 0.021713 -0.059178 0.046211 
0.13697 0.32539 0.53041 -0.035667 -0.0042642 0.027632 -0.0068948 0.061666 
0.060844 0.049664 0.49309 -0.03353 0.047197 0.026974 0.0031344 0.078107 
-0.013471 -0.010019 0.35745 0.010697 0.064954 0.023028 0.03388 0.092411 
0.0085601 0.32029 0.19764 0.011848 0.052294 0.023193 0.067913 0.1128 
0.046704 0.40184 0.011191 0.040456 0.018918 -0.015609 0.082382 0.12316 
-0.014787 0.030098 -0.15158 0.082546 0.014315 -0.025145 0.054103 0.13236 
-0.054739 -0.82436 -0.28936 0.062981 0.018754 -0.015116 0.044073 0.13039 
0.047197 -1.6898 -0.4227 0.088136 0.024015 1.0539e-005 -0.0042642 0.048677 
0.2223 -1.5412 -0.48304 0.12217 0.031414 0.032893 -0.028104 -0.056383 
0.34281 -0.81153 -0.42368 0.086163 0.016288 0.047526 -0.060329 -0.083512 
0.19731 0.80465 -0.34427 0.065612 0.00050378 0.027796 -0.028433 -0.054739 
-0.10637 1.7643 -0.29199 0.031414 0.044238 0.027632 0.06331 -0.047998 
-0.20074 1.1703 -0.020212 0.014315 0.019576 0.061008 0.031578 -0.078415 
-0.28985 0.11937 0.19764 0.018589 0.044731 0.04654 -0.024158 -0.054575 
-0.34345 0.64172 0.18284 0.01974 0.048348 0.027139 -0.029913 -0.026131 
-0.19071 0.99751 0.15275 0.032564 0.051472 0.038155 0.019905 0.037661 
0.010204 -0.13053 0.20865 0.016781 0.034702 0.021878 0.037004 0.084026 
0.17445 -1.7079 0.19977 -0.010348 0.018918 -0.0013048 0.060515 0.10162 
0.25946 -1.7928 0.13598 0.013328 0.017767 0.028125 0.036839 0.15111 
0.28773 -0.97776 0.14765 0.031907 0.013492 0.012342 0.042429 0.08978 
0.21753 0.044896 0.22246 0.023851 0.025659 0.018918 0.050157 0.10474 
0.19336 0.81633 0.1756 0.068571 0.039141 0.034044 0.041114 0.11757 
0.1738 0.95213 0.03651 0.030263 0.052623 0.047526 0.045224 0.11115 
0.063474 0.63136 -0.098144 0.018425 0.01711 0.046375 0.058049 0.082711 
-0.047505 0.33032 -0.17887 0.029276 0.0023123 0.044073 0.039305 0.032236 
-0.11031 0.3757 -0.15569 0.0051074 0.01826 0.019247 0.026481 -0.0024557 
-0.12149 0.49555 -0.066413 0.0023123 0.023193 0.0056006 -0.0014692 -0.058356 
-0.057205 0.28149 0.066763 -0.0090322 0.013492 -0.0032777 -0.00081153 -0.048985 
0.098823 -0.47695 0.2389 -0.017582 0.022864 -0.0029489 -0.060658 -0.021528 
0.16327 -0.61259 0.30187 0.011191 0.037332 0.029112 -0.11672 0.0052718 
0.10754 -0.19022 0.30056 0.029441 0.026152 0.035031 -0.10061 0.035688 
0.017274 0.27803 0.055747 0.040621 0.048513 0.051143 -0.0075525 0.077449 
-0.060329 0.84296 -0.25911 0.086163 0.034209 0.030427 0.06594 0.090603 
-0.038462 1.2959 -0.38176 0.051801 0.021549 0.037168 0.14289 0.096686 
-0.013471 0.96233 -0.32175 0.045389 0.025824 0.026974 0.20421 0.088958 
0.029276 -0.98746 -0.18183 0.053938 0.034209 0.034373 0.18152 0.11214 
0.11247 -1.96 -0.076442 0.036675 0.020233 0.020562 0.095042 0.16706 
0.1733 -1.227 -0.048492 0.029112 -0.015609 -0.0024557 0.012835 0.22641 
0.25107 -1.1987 0.1659 -0.016431 -0.013307 -0.022514 0.025824 0.15883 
0.21704 -1.3883 0.37997 -0.016102 0.024673 -0.026953 0.047855 0.045389 
0.030427 -0.69365 0.48273 0.0051074 0.046211 0.039963 0.053774 -0.087458 
-0.030406 -0.076442 0.50772 -0.030735 0.062488 0.033387 0.067749 -0.16835 
0.039141 0.15226 0.42321 0.00066819 0.062817 0.042758 0.013492 -0.218 
0.080738 0.48339 0.32391 0.011026 0.049664 0.049828 -0.024652 -0.19745 
0.040621 0.32687 0.25814 -0.004593 0.025988 0.010533 -0.020048 -0.1723 
0.018096 0.044402 0.26472 0.0070803 0.028454 -0.0029489 -0.031228 -0.077264 
0.082711 0.064132 0.22065 -0.001798 -0.0138 0.040621 -0.034681 0.14174 
0.14404 0.3586 0.056733 -0.02498 0.014479 0.053445 -0.043395 0.19468 
0.12365 0.98123 -0.20962 0.020069 0.022535 0.046211 -0.0082102 0.091096 
0.036346 1.2402 -0.45772 0.043087 0.02681 0.02122 0.050157 0.00297 
-0.025145 1.5746 -0.49619 0.038977 0.019905 0.011684 0.097672 -0.077922 
-0.069865 1.5769 -0.31961 0.069229 0.024673 0.0013258 0.097015 -0.013965 
-0.11837 1.0299 -0.14944 -0.019555 0.01415 0.00083261 0.062817 0.049992 
-0.050958 0.51249 -0.1011 0.01004 0.019576 0.017767 0.092411 0.12875 
0.036182 -0.47728 -0.040764 0.069558 0.046211 0.041443 0.12168 0.089616 
0.12414 -2.2804 0.1442 0.058542 0.046046 0.022206 0.098988 -0.0067304 
0.12349 -3.2307 0.23529 0.078765 0.05624 -0.0095255 0.036839 -0.030899 
0.062323 -2.848 0.14782 0.061337 0.04358 0.019411 0.0044497 -0.068714 
0.012835 -1.6035 0.13319 0.041278 0.041936 0.0075736 0.025659 -0.036489 
-0.049807 0.088136 0.17363 0.027139 0.032564 0.0023123 0.034209 -0.021199 
-0.14122 1.718 0.10589 -0.026789 0.037661 -0.0026201 0.04917 0.010533 
-0.17279 2.5105 0.045224 -0.00015387 0.040621 -0.0042642 0.069886 0.014479 
-0.082196 2.4036 0.016452 0.037332 0.061008 0.029934 0.058706 0.078765 
0.015137 1.8837 -0.038627 0.031085 0.020233 0.0011614 0.010369 0.11329 
0.083697 1.2203 0.044073 0.024508 0.037004 0.028454 0.012013 0.071859 
0.056733 -0.074304 0.15045 0.04358 0.016452 0.029112 0.023686 0.079094 
0.051801 -1.1857 0.088301 0.034537 0.034209 0.024179 0.059364 0.036017 
0.12283 -1.759 -0.11163 0.081067 0.020727 0.015959 0.017932 -0.018404 
0.2634 -2.2829 -0.14862 0.054596 0.043087 0.015301 -0.008539 -0.054082 
0.34594 -1.8487 -0.091732 0.044567 0.047197 0.011191 -0.040106 -0.069701 
0.27129 -0.35364 -0.048985 0.04917 0.032729 0.0227 -0.058521 -0.013471 
0.15818 1.1542 -0.15355 0.0026412 0.033551 0.039799 -0.061809 -0.018568 
0.055747 2.0169 -0.19071 0.0039565 0.024837 -0.0077169 -0.02087 -0.051451 
-0.07825 1.7879 -0.1381 -0.0039354 0.022371 -0.013307 0.057391 -0.1912 
-0.31829 1.5118 -0.12494 0.0034632 0.043416 -0.02646 0.10063 -0.24201 
-0.59467 1.4654 -0.088115 0.044567 0.058706 0.046211 0.11066 -0.092883 
-0.67524 1.3226 -0.050464 0.03799 0.030427 0.048019 0.10343 0.08156 
-0.47597 0.90922 -0.03501 0.038155 0.05772 0.054925 0.15144 0.20273 
-0.20485 0.97351 0.03651 0.096028 0.062652 0.082711 0.15505 0.21506 
-0.008539 0.87963 0.087808 0.085341 0.08567 0.082217 0.078436 0.19912 
0.10869 0.25617 0.29727 0.085341 0.098659 0.070051 0.0059294 0.15768 
0.34216 -1.1387 0.54011 0.049499 0.059528 0.046046 -0.040764 0.10014 
0.62528 -2.374 0.63975 -0.0050863 0.01415 -0.0024557 -0.078744 0.043745 
0.633 -2.688 0.50575 -0.021363 -0.036983 -0.027282 -0.11508 0.049335 
0.43373 -2.7094 0.37997 -0.040928 -0.039284 -0.025802 -0.094692 0.070873 
0.17018 -2.1818 0.16114 -0.035503 -0.015609 0.0018191 -0.10949 0.0018191 
0.0075736 -0.79312 -0.27604 0.044402 0.027139 -0.0024557 -0.089431 -0.059343 
-0.1136 0.42107 -0.71848 0.069393 0.049828 0.0070803 -0.022021 -0.082525 
-0.089431 0.74563 -0.84277 0.056569 0.04358 0.019411 0.017274 -0.056712 
0.06479 0.41631 -0.80085 0.058871 -0.037969 0.029605 0.040292 0.034209 
0.06035 1.1787 -0.67737 0.0324 -0.0082102 0.010697 0.03388 0.065118 
-0.0022913 2.1571 -0.36745 0.039963 0.011355 0.010862 0.061995 0.13006 
-0.10686 2.2116 0.12842 0.010204 0.022535 0.039305 0.047855 0.034866 
-0.095021 1.3466 0.73165 -0.021692 0.053938 0.026317 0.084519 -0.071181 
-0.084498 0.75418 1.0426 -0.019555 0.041772 0.037661 0.065776 -0.10291 
-0.079072 0.51775 1.0404 -0.065426 0.057884 0.055254 0.059364 -0.0027845 
-0.060165 0.18629 0.6529 -0.0090322 0.019905 0.046704 0.044402 0.14979 
-0.016102 -0.39113 0.16656 0.086328 0.018754 0.047362 0.070708 0.17478 
-0.03057 -0.37715 -0.29281 0.11592 0.032729 0.054432 0.057227 0.11905 
-0.034352 0.051965 -0.43486 0.11757 0.020891 0.064625 0.01267 0.089452 
-0.025309 -0.010512 -0.24283 0.076956 0.027961 0.023357 -0.00064712 0.043087 
0.01711 -0.3788 -0.015444 -0.0034422 0.028454 -0.014622 -0.015444 -0.065755 
0.024344 -0.83242 0.017603 -0.029748 0.00066819 -0.046519 -0.025638 -0.17279 
0.057884 -1.4664 -0.024816 -0.040271 -0.023501 -0.053917 -0.051122 -0.13086 
0.13532 -1.7369 0.058706 -0.023501 -0.017582 -0.061809 -0.058356 0.005765 
0.14453 -0.85889 0.15226 0.012999 0.01267 0.02681 0.0041209 0.27919 
0.15061 0.68611 0.041936 -0.01939 0.01826 0.099974 0.0080668 0.38918 
0.17051 1.8053 -0.034352 -0.0087034 0.012999 0.081889 0.021056 0.29283 
0.064296 2.108 -0.08121 0.0421 0.037332 0.047855 0.055418 0.13368 
0.025824 2.0014 -0.049478 0.038812 0.0093821 0.024837 0.060515 -0.0055795 
0.046704 1.4967 -0.029091 0.061337 -0.0019624 0.02122 0.096028 -0.071181 
-0.071181 0.21983 0.14387 0.057884 -0.0022913 -0.014458 0.13203 -0.076935 
-0.15454 -1.8702 0.14091 0.070215 0.009711 -0.00031829 0.18613 -0.034352 
-0.036983 -3.9879 0.0041209 0.067256 -0.0044286 -0.0019624 0.082053 -0.017417 
0.23167 -4.1299 -0.075291 0.029769 -0.016266 -0.028762 -0.086307 0.011848 
0.37619 -1.826 -0.027118 0.04358 -0.0039354 -0.015938 -0.17854 0.07449 
0.24417 0.47303 0.15341 0.038648 0.0075736 0.018918 -0.16144 0.058049 
0.073175 1.3429 0.3484 -0.064604 0.025166 0.01415 -0.090417 -0.030077 
0.016781 0.49638 0.39164 -0.08532 0.0046141 -0.0096899 0.00083261 -0.085978 
0.01415 -0.18643 0.18777 -0.068386 -0.013471 -0.015444 0.12513 -0.078908 
-0.04882 -0.0080457 -0.14911 0.0054362 0.010204 0.004943 0.24203 0.03388 
-0.12133 0.44623 -0.30333 0.097508 0.062652 0.042923 0.1858 0.1003 
-0.10686 0.92369 -0.23773 0.13861 0.06331 0.051472 0.033222 0.12529 
-0.081539 1.2635 -0.033859 0.094384 0.0786 0.059528 0.012342 0.14206 
-0.038133 1.2731 0.049992 0.1128 0.048348 0.055089 0.018096 0.11395 
0.033551 0.585 -0.076935 0.07038 0.026317 0.010369 0.037332 0.047197 
0.19287 -0.26535 -0.10505 0.010862 -0.009361 -0.010348 0.044238 0.0092177 
0.18646 -0.077593 -0.067235 0.0065871 -0.030406 0.011848 0.068407 0.038155 
0.01415 0.37438 0.039799 -0.029255 0.0019835 0.015959 0.082217 0.13549 
-0.064275 0.35334 0.22098 -0.013307 0.014643 0.050814 0.072846 0.18103 
-0.11475 0.10326 0.29563 -0.0062372 0.030098 0.074161 0.082711 0.052787 
-0.10489 -0.096172 0.25798 0.00066819 0.046868 0.072681 0.11674 0.00066819 
-0.02087 -0.24118 0.19369 0.050814 0.054267 0.057555 0.11231 -0.021363 
-0.047505 -0.2402 0.098494 0.030756 0.072353 0.057391 0.07449 0.015959 
-0.071016 -0.2231 0.037497 0.013328 0.10606 0.055747 0.073997 0.091425 
-0.0026201 -0.19268 0.046704 0.034702 0.061008 0.030756 0.049499 0.076956 
0.074983 -0.22293 0.043416 0.010862 0.039141 0.023028 0.025659 0.043745 
0.15061 -0.29215 0.0088889 0.013986 0.042758 0.022864 -0.042079 0.023193 
0.1927 -0.23477 -0.06444 0.041114 0.052787 0.01004 -0.098638 0.075641 
0.16393 -0.16523 -0.07825 0.023357 0.024179 1.0539e-005 -0.12889 0.091425 
0.080409 -0.14878 -0.019226 0.061337 0.02122 1.0539e-005 -0.12133 -0.01939 
0.025988 0.013821 -0.057863 0.032729 0.042923 0.045882 -0.078908 -0.109 
0.055911 0.11033 0.0013258 -0.0024557 -0.008539 0.035524 0.021549 -0.13547 
0.049499 0.29398 0.010204 0.0032988 0.0036276 0.025166 0.15226 -0.042408 
-0.11935 0.80991 -0.11524 -0.008539 0.013492 0.029112 0.19977 0.057062 
-0.34394 1.2941 -0.21751 0.060022 0.071695 0.027796 0.18202 0.10606 
-0.40971 1.7356 -0.20288 0.11115 0.070215 -0.028269 0.13993 0.13565 
-0.37847 2.4579 -0.25631 0.11263 0.10162 -0.042901 0.1271 0.10655 
-0.20748 2.5618 -0.19137 0.086657 0.071037 -0.027447 0.10293 -0.026131 
0.14453 1.3686 0.093562 0.027303 0.052294 -0.031392 0.029441 -0.22244 
0.60489 -0.33161 0.41548 -0.03764 0.014808 -0.016431 -0.084498 -0.34263 
0.83162 -1.1532 0.41417 -0.0052507 -0.0039354 0.023686 -0.12281 -0.21603 
0.73823 -1.8495 0.32193 -0.006566 0.021384 0.058377 -0.15914 0.055747 
0.37537 -2.589 0.29365 0.017438 0.043251 0.080244 -0.10932 0.27475 
-0.027775 -2.7455 0.18399 0.053938 0.057062 0.076627 -0.053095 0.25814 
-0.30695 -2.9381 -0.032543 0.034537 0.025001 0.082053 0.020233 0.19731 
-0.39951 -1.4866 -0.29199 0.028947 0.03651 0.032893 0.059528 0.1128 
-0.38981 0.97367 -0.46824 0.066105 0.070544 0.02829 0.071859 -0.0040998 
-0.36499 2.8388 -0.49866 0.047362 0.073339 0.041607 0.043909 -0.06855 
-0.33802 3.7295 -0.28163 0.057884 0.075805 0.051636 0.077449 -0.069208 
-0.33309 3.8543 0.023851 -0.012485 0.086163 0.061501 0.11411 0.011026 
-0.10341 3.1127 0.26373 -0.018404 0.072681 0.039305 0.071202 0.011191 
0.244 0.18432 0.47171 -0.0095255 0.0227 0.025988 -0.0083746 -0.019884 
0.43242 -3.2715 0.59453 -0.061973 -0.019061 -0.0096899 -0.064768 -0.022843 
0.47221 -4.205 0.55326 -0.059836 -0.038298 -0.048163 -0.11048 -0.051944 
0.38688 -2.5027 0.39674 -0.0062372 -0.028269 -0.060165 -0.022679 -0.05441 
0.22361 -0.64367 0.1858 0.060844 -0.0059084 -0.044217 0.14174 -0.10291 
0.11378 -0.80693 -0.031064 0.08863 0.01563 -0.040435 0.19879 -0.1644 
0.23167 -1.069 -0.26354 0.10754 -0.008539 -0.067564 0.070051 -0.27489 
0.22065 -0.046847 -0.46002 0.091096 -0.0082102 -0.016102 -0.027282 -0.30251 
0.1294 1.3494 -0.46709 0.097508 0.013492 0.020727 -0.1016 -0.16523 
-0.017088 1.6708 -0.33506 0.054267 0.012342 0.031578 -0.063453 0.040456 
-0.17427 1.2279 -0.063618 0.024179 -0.017746 0.050814 -0.031721 0.21638 
-0.089924 0.56888 0.15242 0.0011614 -0.036489 0.023357 -0.027611 0.19731 
0.032893 0.25978 0.13943 -0.0072237 -0.023665 0.015465 0.031907 0.16294 
0.070051 0.086492 0.10458 0.03651 0.0065871 0.011355 0.040128 0.089452 
0.04506 -0.27357 0.19155 0.014315 0.033222 0.049499 0.016123 0.059857 
-0.085485 -0.57248 0.2805 -0.00015387 0.050486 0.026974 0.014479 0.067585 
-0.17082 -0.73278 0.26159 0.031907 0.076134 0.043087 -0.0096899 0.07301 
-0.10801 -0.80019 0.16985 0.054925 0.081724 0.056898 -0.044874 0.060515 
0.063968 -1.2456 0.12776 0.048019 0.086492 0.029112 -0.061809 -0.013307 
0.22789 -1.6481 0.18037 0.072353 0.062159 -0.012156 -0.063289 0.012177 
0.17741 -1.2222 0.19237 0.018589 0.031742 -0.011663 0.044731 0.018589 
0.097015 -0.26059 0.18974 0.0028056 0.0080668 0.01826 0.11855 0.0026412 
0.030263 0.56148 0.1031 -0.017746 0.0016547 0.041607 0.1664 0.054267 
-0.017746 0.94506 -0.081045 -0.0068948 0.015794 0.026646 0.14946 0.11099 
-0.088444 1.1192 -0.2813 0.040621 0.01563 0.055747 0.12562 0.093398 
-0.018733 1.1729 -0.39047 0.070051 0.026974 0.042265 0.037826 -0.055726 
0.072353 1.1716 -0.31681 0.077449 0.037826 0.044238 -0.0098543 -0.02794 
0.031742 1.0232 -0.18841 0.10885 0.034209 0.063474 0.016288 0.099481 
-0.11261 0.64024 -0.14254 0.11 0.024837 0.075476 0.12069 0.19007 
-0.14204 0.18711 0.033222 0.060515 0.033222 0.066763 0.12332 0.19813 
0.01711 0.23759 0.24121 0.025001 0.021713 0.037661 0.049006 0.069558 
0.12858 -0.13021 0.26669 0.025988 0.023193 0.0421 -0.0080457 -0.004593 
0.031742 -0.67655 0.20882 0.046868 0.042923 0.029605 0.038155 -0.035832 
-0.029913 -0.87187 0.14157 0.054432 0.041607 0.021878 0.085506 -0.024652 
0.076134 -1.203 0.15999 -0.003771 0.019576 0.01711 0.086328 0.045718 
0.053774 -1.339 0.060186 -0.004593 -0.013636 0.0083956 -0.014293 0.11609 
0.01711 -0.73015 -0.045861 -0.070194 -0.033859 -0.029913 -0.11738 0.18202 
0.069064 0.62988 -0.20271 -0.069865 -0.0078813 -0.0088678 -0.09798 0.15259 
-0.028762 2.2701 -0.35858 0.0026412 0.041443 0.033222 0.033551 0.10277 
-0.20123 3.1274 -0.24365 0.0082312 0.041607 0.036017 0.074326 0.082217 
-0.32092 3.2214 -0.067235 0.026974 0.056076 0.038483 0.050814 0.14634 
-0.31468 2.5861 0.056898 0.01415 0.014479 0.033222 0.052294 0.1544 
-0.22491 1.2611 0.21441 0.019905 0.037004 0.018096 0.067749 0.086985 
-0.1085 -0.69924 0.31486 0.044073 0.044896 0.021713 0.13927 0.048513 
0.0324 -3.4458 0.28445 0.073339 0.052952 0.022864 0.13828 0.050486 
0.18037 -3.4131 0.15703 0.1003 0.075148 0.071037 0.094055 0.19287 
0.42617 -1.638 0.079587 0.12151 0.047033 0.062652 0.016452 0.21819 
0.56428 -1.1313 0.021549 0.035195 0.0090533 0.030427 -0.092226 0.084519 
0.48191 -0.82715 -0.10028 0.025166 -0.0055795 0.042594 -0.058028 0.01711 
0.10211 0.33624 -0.14402 0.0060938 0.03536 0.024015 -0.012649 -0.012156 
-0.21258 1.4855 -0.077593 0.0056006 0.032564 0.027139 0.043087 -0.032215 
-0.37074 1.729 -0.032543 0.011355 0.02533 0.038812 0.098659 -0.039778 
-0.35101 1.4648 -0.031886 0.013657 0.036346 0.036346 0.086657 -0.014622 
-0.19877 1.1448 -0.0073881 0.012177 0.041114 0.012013 0.046046 0.013492 
0.030756 0.71159 0.042758 0.020069 0.020069 -0.03764 0.00066819 -0.013636 
0.20043 0.36468 0.010204 -0.018733 -0.028104 -0.020706 -0.040928 -0.059014 
0.22559 -0.22704 -0.02235 -0.0014692 -0.029255 -0.036983 -0.066906 -0.095185 
0.25419 -1.4084 0.094877 0.028125 -0.012156 -0.023007 -0.055726 -0.071016 
0.28642 -2.2569 0.26505 0.0037921 0.0062583 -0.0072237 -0.024652 0.010369 
0.25271 -1.0922 0.18087 0.034866 -0.018404 0.016781 0.02533 0.10573 
0.096193 0.67131 -0.074633 0.067749 0.012177 0.03388 0.050486 0.2029 
-0.11163 1.7104 -0.24842 0.047362 0.035031 0.035031 0.079751 0.19057 
-0.15388 1.6448 -0.17624 0.072188 0.048348 0.073997 0.087314 0.11198 
-0.1039 1.2696 0.031742 0.034044 0.066434 0.058377 0.08978 -0.0032777 
0.028454 1.034 0.15456 0.0092177 0.069393 0.056404 0.020233 -0.10225 
0.049992 0.89294 0.1465 0.04917 0.037661 0.019576 -0.01676 -0.10686 
-0.02794 -0.36943 0.15078 0.0070803 0.031249 0.02533 -0.014458 -0.085813 
0.022864 -3.9218 0.24203 -0.02087 -0.0077169 -0.012814 -0.011663 -0.033037 
-0.048492 -4.6477 0.1955 0.01267 0.0044497 -0.02235 -0.014622 -0.091404 
-0.19104 -1.8174 0.01826 0.0067515 -0.0031133 0.0034632 0.039305 -0.14139 
-0.17953 1.0625 -0.085813 0.099645 0.055747 0.0098754 0.072024 -0.15717 
0.05065 1.487 -0.070359 0.090109 0.06479 0.034209 0.062981 -0.04471 
0.4533 0.80334 -0.0064016 0.010369 0.007738 0.0023123 -0.016266 0.068736 
0.63596 1.0401 0.11477 -0.01676 -0.018404 -0.00015387 -0.043888 0.11576 
0.53107 0.70913 0.15785 -0.091732 -0.031886 -0.02498 -0.047834 0.12233 
0.33772 -0.45821 0.15686 -0.098802 -0.025638 -0.033859 -0.061809 0.18235 
0.13779 -0.72801 0.021713 -0.055397 -0.0013048 -0.017088 -0.010512 0.21441 
-0.062631 -0.1917 0.024344 0.0052718 0.036346 0.0044497 0.11642 0.089123 
-0.16654 0.15472 0.10491 0.08863 0.062323 0.034702 0.19501 -0.042408 
-0.22409 -0.24118 0.16442 0.12809 0.08008 0.049828 0.15028 -0.056548 
-0.0965 -1.0642 0.35547 0.099974 0.06742 0.062652 0.026481 -0.050136 
0.010533 -0.76533 0.5046 0.06331 0.052952 0.029276 -0.05178 -0.089924 
-0.021363 0.69598 0.42124 -0.017746 0.024015 -0.0090322 -0.069208 -0.16342 
-0.13218 2.0942 0.13631 0.0080668 0.028454 0.01152 -0.0965 -0.15618 
-0.23773 2.4738 -0.26601 0.11198 0.055747 0.013986 -0.034681 -0.084169 
-0.21192 1.3589 -0.44588 0.095699 0.065283 0.017438 0.070051 0.033058 
-0.038956 -0.82304 -0.33408 0.088794 0.043251 0.03799 0.11839 0.1248 
0.057391 -3.0198 -0.14287 0.042594 0.042265 0.01711 0.11247 0.13631 
0.051308 -2.7108 -0.20452 0.024837 0.017274 0.010369 0.068736 0.18251 
0.078107 -0.45542 -0.32947 0.036182 0.013164 0.0067515 0.053609 0.19533 
0.063803 1.0945 -0.28623 0.0324 -0.0050863 0.013986 0.030098 0.054432 
0.13664 1.5794 -0.16375 -0.011498 0.0019835 0.01004 0.0021479 -0.086142 
0.26094 1.3806 0.069393 0.0044497 -0.012649 -0.0075525 -0.040928 -0.15602 
0.19057 0.98567 0.28954 -0.042573 0.017438 0.00297 -0.027118 -0.095185 
-0.009361 1.1417 0.171 -0.0004827 0.032236 0.038648 0.0065871 -0.038956 
-0.20008 1.8559 -0.10028 0.052952 0.055911 0.054103 -0.013965 0.072517 
-0.21422 2.2313 -0.30827 0.063145 0.088958 0.068736 -0.04619 0.1225 
-0.07973 0.73248 -0.2522 0.066598 0.055089 0.083204 -0.043559 0.13582 
0.07301 -2.0805 0.082546 0.06742 0.051143 0.03947 0.054103 0.10737 
0.089287 -2.4034 0.34446 0.020891 0.028454 0.013328 0.10047 0.071037 
0.045224 -1.4472 0.42486 0.054103 0.016288 0.015301 0.11543 0.037497 
0.24449 -1.5586 0.45807 0.024344 -0.010512 0.0056006 0.084355 -0.051122 
0.54899 -2.9652 0.48848 -0.025145 -0.0032777 -0.022021 -0.0078813 -0.075455 
0.6358 -3.2616 0.49605 -0.021199 -0.012978 -0.014458 -0.056219 -0.088115 
0.2685 -0.66438 0.29941 -0.052602 0.0026412 0.0079024 -0.05589 -0.028597 
-0.12396 1.9924 0.076134 -0.044874 0.023851 -0.00031829 0.0046141 0.049006 
-0.20468 2.3992 -0.063289 -0.023336 0.01711 0.021549 0.038319 0.084684 
-0.11672 1.4651 -0.087458 -0.0052507 0.030263 0.015794 0.07301 0.12118 
-0.12396 0.92385 -0.13366 0.042594 0.04506 0.057227 0.10885 0.11083 
-0.15372 1.0401 -0.36137 0.053281 0.066598 0.048019 0.12135 0.10573 
-0.20649 1.7793 -0.59911 0.080902 0.086163 0.051143 0.093891 0.097179 
-0.40001 1.8641 -0.52315 0.14502 0.088794 0.084684 0.070544 0.10836 
-0.50342 0.39362 -0.29758 0.13762 0.079422 0.059364 0.048841 0.13499 
-0.35052 -0.55143 -0.068221 0.084519 0.052623 0.050814 0.038977 0.077285 
-0.082361 -0.28755 -0.0016336 0.063474 0.046375 0.032236 -0.010183 0.030756 
-0.030242 0.94473 -0.053753 0.019905 0.013492 0.027139 0.0051074 0.01415 
-0.14944 1.8497 0.04506 0.026646 0.0324 0.025988 0.10014 0.058542 
-0.2305 1.5827 0.20076 0.023851 0.05065 0.062652 0.15061 0.12694 
-0.15947 1.1387 0.15357 0.035524 0.05213 0.079916 0.13582 0.11362 
0.056404 0.43275 0.012506 0.087643 0.052623 0.064625 0.085999 0.038483 
0.4094 -1.3015 0.027796 0.062159 0.036675 0.033551 0.028783 -0.038791 
0.82899 -3.5974 0.26899 -0.015938 0.0023123 -0.0057439 -0.074633 -0.091897 
1.2703 -3.9246 0.51216 -0.089924 -0.041586 -0.041751 -0.23642 -0.18742 
1.1803 -1.8013 0.40233 -0.13514 -0.045368 -0.06296 -0.25943 -0.19909 
0.44327 0.58467 0.078107 -0.045203 -0.0022913 -0.021199 -0.13251 -0.090746 
-0.33687 3.0376 -0.098144 0.025495 0.021549 0.043745 0.016945 -0.031228 
-0.62821 3.5442 -0.068386 0.0028056 0.019411 0.038483 0.053609 0.018754 
-0.50145 1.1838 0.062488 -0.0049219 0.024179 0.0041209 0.058213 0.030592 
-0.28245 -2.052 -0.049314 0.0082312 -0.033201 -0.021199 0.042429 0.12414 
-0.16703 -3.9708 -0.22441 0.044073 -0.0095255 -0.017417 0.08008 0.18909 
-0.12725 -3.2916 -0.22573 0.11115 0.038483 0.03799 0.1539 0.22016 
-0.086964 -1.5514 0.083697 0.083533 0.070708 0.069886 0.17824 0.22246 
-0.12346 0.49407 0.29678 0.076299 0.08008 0.1077 0.11954 0.14486 
-0.15043 1.8301 0.22608 0.11296 0.082711 0.10129 0.10885 0.12842 
-0.10012 2.1228 0.1419 0.049992 0.061995 0.067585 0.097015 0.027303 
-0.036654 1.8622 0.094713 0.049335 0.049992 0.068078 0.058871 0.03388 
0.038977 1.3691 0.098988 0.0227 0.063639 0.047033 0.049664 0.026481 
0.12464 0.71834 0.075148 0.012506 0.045553 0.004943 0.020398 -0.0078813 
0.16903 0.19599 0.045882 0.016123 -0.0060728 0.007738 -0.0026201 -0.009361 
0.11806 -0.028762 0.020727 0.013164 -0.0095255 0.026152 0.0041209 -0.04882 
0.017767 -0.16375 0.028619 0.02122 0.0042853 0.0021479 0.018918 -0.053588 
-0.043559 -0.2425 -0.028926 0.033222 0.017603 1.0539e-005 0.027303 -0.036654 
-0.064933 -0.43092 -0.0087034 0.0087245 0.031742 0.019905 0.0036276 0.016616 
0.030592 -0.5927 -0.010348 0.019247 0.02533 0.0011614 -0.0068948 0.012506 
0.14848 -0.50079 -0.021692 0.033715 0.030427 -0.0040998 -0.01528 -0.0072237 
0.23989 -0.34361 0.015137 0.010697 0.024344 -0.0022913 -0.038791 0.029769 
0.29119 -0.29396 0.089452 0.018918 0.0090533 0.014643 -0.039942 0.0070803 
0.33673 -0.28788 0.12628 -0.0054151 0.013164 0.0031344 -0.038791 -0.046847 
0.23397 -0.023336 0.031414 0.019411 0.032893 0.0041209 0.022864 -0.063946 
-0.008539 0.25222 -0.027282 0.05624 0.053938 0.030427 0.042594 -0.067728 
-0.15224 0.39625 -0.019884 0.0421 0.075312 0.053116 0.056898 0.0016547 
-0.15092 0.39115 -0.065591 0.031249 0.031578 0.039634 0.033551 0.067585 
-0.050464 0.28675 -0.068386 0.049992 0.027632 0.024508 0.040128 0.18037 
-0.0013048 -0.080223 -0.033365 0.03388 0.025495 0.033222 0.027632 0.2029 
0.025659 -0.61539 -0.090088 0.046046 0.0079024 0.012342 0.0036276 0.25551 
0.007738 -0.67343 -0.15766 0.026317 0.0075736 -0.0004827 0.0098754 0.2856 
0.029112 -0.63907 -0.027118 -0.00015387 0.03388 0.0070803 0.029934 0.34544 
-0.0077169 -0.20156 0.11296 0.059364 0.052459 0.05065 0.039634 0.37142 
-0.053095 0.78443 0.0689 0.010533 0.042923 0.038483 0.034209 0.17708 
-0.047505 1.4258 0.017438 -0.01676 -0.00064712 -0.018239 0.083697 -0.25713 
-0.04323 1.3173 0.13499 -0.031886 -0.015609 -0.034845 0.14502 -0.59204 
-0.03912 0.45478 0.42157 -0.073154 -0.014458 -0.03912 0.097672 -0.57346 
-0.071509 -0.26239 0.51545 -0.01939 0.018425 0.00050378 0.070708 -0.29544 
-0.079401 -0.35085 0.33788 0.076463 0.048019 0.069886 0.053445 -0.019226 
-0.018075 0.40398 0.028454 0.10885 0.024015 0.084026 0.0046141 0.16229 
0.18794 0.33706 -0.1205 0.13138 0.0028056 0.020069 -0.069865 0.045882 
0.28872 -0.16227 -0.18331 0.0786 1.0539e-005 -0.014458 -0.12593 -0.037311 
0.31092 0.073175 -0.27686 0.076299 0.0026412 0.009711 -0.056712 -0.059014 
0.21309 0.40677 -0.30465 0.098988 0.082382 0.0095465 0.040785 0.09981 
0.085999 0.26587 -0.11278 0.041772 0.0786 0.0064227 0.15719 0.26373 
-0.0036066 -0.26979 0.10951 -0.0082102 0.06183 -0.012156 0.20142 0.31453 
-0.059178 -0.33128 0.16656 -0.052931 0.010533 -0.063946 0.21539 0.24219 
-0.11656 0.23973 0.0088889 -0.076442 0.044731 -0.051615 0.12184 0.1853 
-0.078415 0.60045 -0.090253 -0.0040998 0.034373 0.00033937 0.012013 0.17856 
-0.047505 0.82767 -0.14895 0.0047785 0.031414 0.064296 -0.064933 0.16475 
-0.030242 1.081 -0.058521 0.02681 0.031907 0.057555 -0.074633 0.017438 
-0.0096899 0.91251 0.10441 0.079751 0.038812 0.061995 -0.061151 -0.14352 
0.042265 0.80367 0.14913 0.050321 0.041443 0.052787 -0.042737 -0.2397 
0.092904 0.37931 0.13878 0.045718 0.0065871 0.02681 -0.0050863 -0.15273 
0.12201 -0.85675 0.13845 0.053445 0.0093821 0.012013 0.020727 -0.069865 
0.10458 -2.5403 0.095699 0.019576 0.024837 0.012506 0.0070803 -0.051944 
-0.0044286 -2.7633 -0.038462 0.0421 0.033715 0.052459 0.036017 0.0032988 
-0.18907 0.082382 -0.2813 0.086985 0.045224 0.041607 0.1271 0.087479 
-0.21965 2.3674 -0.37946 0.060022 0.062817 0.050486 0.16985 0.19106 
-0.083512 1.9048 -0.22096 0.098659 0.014643 0.03536 0.10984 0.14469 
0.074161 0.36682 0.14042 0.053281 0.032564 0.03536 0.05213 0.092576 
0.12529 -0.94619 0.59355 -0.0031133 0.023193 0.0051074 0.019905 -0.031392 
0.29185 -3.7332 0.83671 -0.045861 -0.022021 -0.026624 -0.05326 -0.15109 
0.59502 -4.6488 0.65816 -0.042244 -0.04323 -0.034516 -0.11804 -0.2083 
0.68036 -3.383 0.30089 0.031742 -0.029091 -0.047012 -0.15503 -0.22589 
0.33196 0.16969 0.0060938 0.054103 -0.020377 -0.030242 -0.085485 -0.15454 
-0.20452 3.3035 -0.3691 0.058542 0.0021479 0.011684 0.03947 -0.098144 
-0.41661 3.8661 -0.69398 0.079916 0.018754 0.012177 0.036346 -0.05885 
-0.20879 3.8722 -0.77142 0.063145 0.0074092 -0.013636 -0.004593 -0.081374 
0.0031344 2.047 -0.62525 0.061172 0.0095465 -0.017911 -0.0014692 0.0083956 
0.028125 0.98107 -0.29774 0.052459 0.031249 0.0021479 0.033222 0.28445 
-0.056055 -0.47514 -0.017253 -0.0004827 0.053774 0.062488 0.083204 0.44064 
-0.081703 -1.7886 0.20043 0.00083261 0.04917 0.081231 0.091918 0.39904 
0.069064 -1.7831 0.29283 0.0067515 0.044073 0.10408 0.1008 0.26274 
0.15768 -0.90936 0.2657 -0.0078813 0.057391 0.11757 0.070544 0.10902 
0.2514 -0.18923 0.26669 -0.023994 0.061337 0.077614 -0.012156 -0.060494 
0.26258 -0.61111 0.29744 -0.053753 0.020398 0.023193 -0.10784 -0.16654 
0.15209 -1.1746 0.29793 -0.065262 0.032893 0.018425 -0.10571 -0.16851 
-0.0004827 -0.41842 0.20175 -0.0062372 0.022535 -0.015116 -0.055068 -0.13497 
-0.092883 0.53304 0.1807 0.012013 -0.0011404 -0.010676 -0.013471 -0.064933 
-0.07562 0.68299 0.24153 0.019247 0.024344 0.031085 0.0041209 -0.030735 
-0.02942 0.52515 0.16278 0.079258 0.023686 0.050979 0.052623 0.027303 
-0.13103 -0.079237 0.083533 0.076463 0.074654 0.059364 0.06479 0.086821 
-0.11656 0.59272 -0.048985 0.067256 0.068571 0.058213 0.060022 0.081889 
-0.1205 2.046 -0.27275 0.070544 0.086492 0.080244 0.031742 0.095699 
-0.031721 1.8809 -0.35595 0.0036276 0.049335 0.050979 -0.0083746 0.10852 
0.030427 0.94835 -0.21652 -0.003771 0.037332 0.047855 -0.051615 0.10113 
0.030427 -0.3178 -0.018075 0.0070803 0.0024767 0.038812 -0.031228 0.059528 
0.12677 -2.1155 0.25419 0.030592 -0.0096899 0.010533 -0.036325 0.027139 
0.3609 -4.3067 0.46382 0.045882 -0.011663 -0.019884 -0.047012 -0.023501 
0.51808 -4.646 0.47961 0.013328 -0.02942 -0.029748 -0.074798 -0.048656 
0.41433 -4.6496 0.16262 0.067256 -0.0014692 -0.008539 -0.053917 -0.044217 
0.08008 1.5565 -0.32504 0.1373 0.0028056 0.024673 -0.0016336 -0.022185 
-0.23642 3.8709 -0.51855 0.082053 0.033058 0.038483 0.042594 -0.018568 
-0.36367 3.8676 -0.34476 0.018425 0.032564 0.047691 0.088465 -0.0049219 
-0.35479 2.6448 -0.011334 -0.037969 0.043416 0.044731 0.1294 0.012177 
-0.26305 1.5185 0.27475 -0.051122 0.068571 0.052623 0.16738 0.11148 
-0.1769 1.1631 0.30286 -0.02087 0.078929 0.044238 0.17626 0.2782 
-0.10637 1.0163 0.1807 -0.020048 0.060515 0.063803 0.15209 0.36238 
0.038155 0.82175 0.051965 0.0041209 0.02829 0.057227 0.080573 0.26948 
0.1664 0.71127 -0.056712 0.069886 0.023522 0.051801 0.059693 0.14272 
0.18498 -0.030077 -0.061645 0.058377 0.030098 0.055254 0.043087 0.0227 
0.17051 -0.80447 0.06183 0.11099 0.02533 0.028619 0.0032988 -0.081539 
0.10326 -1.3331 0.10639 0.11428 0.024015 0.039963 -0.012156 -0.10127 
0.0011614 -1.9486 0.2297 0.054103 0.037168 0.019576 -0.022679 -0.10341 
-0.13941 -0.98417 0.16804 0.030098 0.016452 0.025495 -0.022021 -0.045039 
-0.19548 0.042265 -0.016595 -0.032543 0.00083261 -0.019226 -0.020541 -0.0082102 
0.030756 0.11559 -0.10669 -0.053588 -0.02942 -0.024158 -0.017746 0.010533 
0.32687 0.13417 -0.1792 -0.013636 -0.022185 -0.025802 0.023357 0.024508 
0.34265 0.57562 -0.1815 -0.008539 0.0024767 -0.0078813 0.085999 0.066434 
0.13006 0.7379 -0.086964 0.01974 0.064625 0.0052718 0.12513 0.12332 
-0.044052 0.15867 0.11444 0.03388 0.072846 0.036675 0.13845 0.10589 
-0.11064 -0.27604 0.27672 0.0080668 0.037497 0.046704 0.096193 0.047033 
-0.15848 -0.21685 0.31815 0.031578 0.035524 0.020891 0.061172 0.029769 
-0.16835 -0.19893 0.29711 0.060022 0.029605 0.033222 0.061172 0.039963 
-0.15257 0.038977 0.20586 0.085012 0.056733 0.078765 0.1202 0.12233 
-0.12297 0.49227 0.054267 0.1294 0.070051 0.09685 0.15489 0.14141 
-0.071016 0.88341 -0.10357 0.096521 0.057062 0.064296 0.097837 0.12513 
-0.01117 0.93865 -0.22754 0.084684 0.044402 0.048348 0.02122 0.060186 
0.036017 0.84691 -0.27851 0.04358 0.0074092 0.012013 -0.048656 -0.0075525 
0.049992 0.80235 -0.24382 -0.01232 0.005765 0.00017495 -0.061809 -0.17065 
-0.026624 0.78739 -0.12494 -0.0013048 0.010204 -0.025638 -0.026953 -0.25483 
-0.083183 0.57694 -0.029748 -0.031064 0.020562 -0.01528 0.037661 -0.20781 
-0.054739 -0.14336 0.051965 -0.0087034 0.033387 0.011026 0.055582 -0.047834 
0.070873 -0.56952 0.092082 0.016123 0.033387 0.03651 0.044731 0.044238 
0.066105 -0.077593 -0.026296 -0.0049219 0.010697 0.020398 0.015959 0.13499 
-0.049478 0.72524 -0.15273 0.048019 0.017603 0.016123 0.05213 0.17199 
0.020233 0.53847 -0.11886 0.056733 0.026646 0.015794 0.10326 0.18909 
0.14075 -0.34526 0.015301 0.043909 0.048348 0.033715 0.14502 0.13943 
0.18843 -0.6144 0.18383 0.027303 0.051965 0.049335 0.087643 0.083368 
0.2948 -0.94109 0.41384 0.00066819 0.050321 0.0070803 -0.034845 0.0056006 
0.34873 -1.3247 0.51627 -0.071345 -0.0062372 -0.016102 -0.13168 -0.078415 
0.35054 -0.69102 0.34709 -0.057205 -0.014787 -0.023665 -0.14056 -0.18035 
0.37964 -0.10324 0.30089 -0.079072 -0.036489 -0.025474 -0.11804 -0.15059 
0.36205 -0.58843 0.35925 -0.081703 -0.027775 -0.040928 -0.074469 -0.071181 
0.28362 -1.6099 0.25715 -0.026953 -0.019226 -0.018075 -0.030406 0.015301 
0.032071 -0.51263 -0.17887 0.019576 0.018425 0.016616 0.023686 0.080902 
-0.19318 0.71143 -0.53072 0.11132 0.041114 0.012342 0.095535 0.13582 
-0.29955 0.84181 -0.54486 0.1567 0.026481 0.022371 0.13006 0.14469 
-0.27785 1.0626 -0.38735 0.13039 0.018096 0.024344 0.14848 0.059035 
-0.23411 1.3658 -0.3668 0.14469 0.043087 0.028125 0.08304 -0.064768 
-0.16884 1.1251 -0.42253 0.13335 0.074654 0.051801 0.018918 -0.091568 
-0.15141 0.30977 -0.20485 0.056076 0.071695 0.020891 0.007738 -0.073154 
-0.099624 -0.34361 0.14157 0.016452 0.071366 0.050814 0.024179 -0.011663 
-0.019226 -0.45048 0.32177 -0.023994 0.056569 0.048184 0.022535 -0.034845 
0.11691 -0.41596 0.37964 -0.018404 0.042265 0.038812 -0.012156 -0.13875 
0.22033 -0.36334 0.36928 -0.0072237 0.03799 0.016781 -0.043395 -0.13086 
0.31289 -0.44111 0.2463 -0.034188 0.013986 0.01711 -0.04471 -0.065262 
0.33394 -0.34049 0.18119 -0.058356 -0.0091966 0.0056006 -0.056219 0.040621 
0.22049 0.13417 0.11477 -0.048656 -0.011334 1.0539e-005 -0.040764 0.13516 
0.096357 0.50558 0.025001 -0.014458 -0.0057439 0.051143 1.0539e-005 0.20224 
-0.017088 0.80449 0.031578 0.033551 0.0016547 0.009711 0.084519 0.18333 
-0.13053 1.1355 0.12085 -0.0004827 -0.020377 -0.02942 0.12398 0.11132 
-0.25335 1.618 0.20569 0.0093821 0.0088889 -0.0060728 0.171 0.081067 
-0.27571 1.2497 0.16311 0.068571 0.039963 0.0064227 0.17117 -0.021034 
-0.1575 -0.87105 0.020398 0.074326 0.055582 -0.015773 0.11724 -0.062302 
0.038648 -2.5734 -0.23724 0.11921 0.047526 -0.016595 0.02122 -0.006566 
0.12612 -2.5326 -0.52973 0.15538 0.048677 0.024673 0.059528 0.22148 
0.23479 -2.2766 -0.48879 0.12085 0.032071 0.012342 0.12464 0.26242 
0.48076 -2.2261 -0.19104 0.022535 -0.0036066 0.011191 0.049006 0.12858 
0.65241 -1.8881 0.12546 -0.071345 -0.017417 0.010862 -0.094034 -0.018404 
0.50016 -0.36301 0.18892 -0.13021 -0.044874 -0.044217 -0.10604 -0.038627 
0.078107 1.8474 -0.029913 0.0065871 0.0065871 -0.0032777 -0.066084 0.08978 
-0.24957 2.9353 -0.16144 0.018918 0.026317 -0.017417 0.0095465 0.066105 
-0.303 2.3858 -0.067728 0.049828 0.03388 0.045389 -0.015609 0.031085 
-0.30054 0.96003 0.23973 0.022042 0.023686 0.029934 -0.015444 -0.031886 
-0.16095 -0.66915 0.50937 -0.0014692 0.038155 0.038977 0.040621 -0.058192 
-0.081703 -1.5576 0.53337 0.032729 0.058871 0.06035 0.072024 -0.069043 
-0.065262 -1.4434 0.45807 0.045718 0.06331 0.035195 0.067913 -0.05589 
-0.15059 0.42551 0.2976 0.019905 0.074983 0.031414 0.072188 0.0014903 
-0.27703 2.9181 0.0087245 0.040128 0.062981 0.02829 0.11888 0.050321 
-0.30268 3.5744 -0.1478 0.0052718 0.050979 0.059364 0.12447 0.21112 
-0.15799 2.4526 -0.17838 -0.016102 0.026646 0.038155 0.088301 0.31716 
0.078272 0.93257 -0.19646 0.019576 0.016123 0.022042 0.066927 0.25419 
0.19287 -0.12264 -0.24003 0.012835 0.010533 0.018589 0.054267 0.159 
0.26291 -1.5624 -0.23757 0.038483 0.025659 -0.0064016 -0.022679 -0.0013048 
0.47599 -4.6511 0.042429 0.048841 0.014972 -0.03353 -0.11705 -0.14385 
0.58516 -4.6454 0.27557 0.025659 -0.0078813 -0.026296 -0.14303 -0.21915 
0.2588 -2.1865 0.20569 0.054596 0.017438 0.025824 -0.062138 -0.20797 
-0.24562 2.372 0.070544 0.0085601 0.027632 0.039305 0.016452 -0.11837 
-0.43996 3.8666 0.034866 -0.0011404 0.05624 0.060022 0.097837 -0.047669 
-0.28459 3.8658 -0.064111 0.033715 0.052623 0.079751 0.14371 0.045553 
-0.11689 2.4802 -0.078086 0.016781 0.032236 0.047526 0.12924 0.05065 
-0.065919 0.63547 0.078765 0.01974 0.03092 -0.0068948 0.052459 0.12332 
0.0054362 -1.3697 0.24976 0.045553 0.011026 0.0039565 0.013164 0.2394 
0.026974 -1.7063 0.13532 0.078929 1.0539e-005 0.028125 0.0023123 0.25091 
0.044731 -1.9489 -0.16292 0.13401 0.01711 0.0056006 -0.023665 0.14815 
0.13894 -2.0371 -0.21307 0.078107 0.0036276 -0.015116 -0.051287 -0.050793 
0.31569 -1.0363 0.0034632 0.049499 0.022535 -0.006566 -0.079237 -0.20271 
0.22378 0.15933 0.23414 0.038155 0.061172 0.0085601 -0.077922 -0.16851 
0.019247 1.0728 0.33426 -0.012814 0.061501 0.024673 -0.0004827 -0.0032777 
-0.15372 1.6756 0.24071 -0.038627 0.041607 0.046704 0.028125 0.16558 
-0.14287 1.5828 0.20717 -0.015444 -0.00081153 0.080573 0.044073 0.18333 
0.0062583 1.1368 0.18021 -0.024323 -0.021856 0.058542 0.017438 0.071366 
0.16048 0.33147 0.13582 -0.036983 -0.014129 0.048348 -0.022185 -0.11755 
0.15028 -0.38061 0.061008 0.028783 0.018918 0.069886 -0.0060728 -0.17147 
-0.0013048 -0.35512 -0.12429 0.074654 0.051801 0.050814 0.026152 -0.14665 
-0.047505 -0.28475 -0.2716 0.098166 0.060844 0.038977 0.043087 -0.044874 
0.035853 0.021549 -0.2425 0.03799 0.044238 0.01711 0.018754 -0.0024557 
0.023357 0.69811 -0.076113 -0.010676 0.020233 0.023522 -0.0047575 -0.14089 
-0.031557 1.0935 0.045224 0.0024767 0.022864 0.0064227 0.0051074 -0.20107 
-0.081868 1.0309 0.054432 0.014643 0.004943 -0.011827 0.057227 -0.15043 
0.01415 0.38671 0.092904 0.0090533 0.026152 0.015137 0.040621 0.043416 
0.2925 -0.61424 0.054103 0.016781 0.013164 0.015959 0.01563 0.15193 
0.36254 -1.9147 0.013986 0.049828 -0.019884 0.038483 -0.012649 0.14815 
0.30812 -2.7664 0.045224 0.073339 0.0098754 0.051308 -0.0036066 0.11329 
0.12201 -1.1902 0.00297 0.066434 0.010204 0.063968 -0.013471 0.048841 
-0.10768 0.8303 -0.077593 0.05772 0.041278 0.042429 0.011355 0.038319 
-0.2397 1.5902 -0.052602 0.076134 0.0592 0.02829 0.059035 0.023357 
-0.21702 1.5787 0.0060938 0.033387 0.047855 0.014479 0.068407 0.012177 
-0.14434 1.5126 -0.0088678 0.018918 0.032564 -0.046354 0.055254 0.009711 
-0.1113 1.3561 0.016781 0.02533 0.022042 -0.038133 0.059364 0.018918 
-0.062302 1.1549 0.042923 -0.00081153 0.028125 -0.013143 0.061666 0.064461 
-0.024158 0.90199 0.032071 0.0026412 0.032729 0.047362 0.088301 0.081231 
0.049664 0.29201 -0.01676 0.023851 0.040292 0.07301 0.075312 0.18087 
0.12414 -1.035 -0.012156 0.018096 0.038319 0.068736 0.038483 0.23562 
0.19566 -2.6403 0.0072447 0.062652 0.036346 0.078929 0.011848 0.22756 
0.13499 -2.3317 -0.038462 0.058706 0.004943 0.071531 0.0072447 0.21671 
0.051636 -0.51164 -0.067235 0.043087 0.0039565 0.052459 0.005765 0.084519 
0.093891 0.92928 -0.024816 0.032893 0.0039565 0.042758 -0.0057439 -0.039613 
0.20997 1.3403 0.058213 0.015137 -0.028269 0.037168 -0.0087034 -0.11442 
0.090438 1.0942 0.16541 -0.010676 0.061337 0.039799 0.073832 -0.12231 
-0.1524 0.73396 0.14206 0.01152 0.06035 0.026317 0.13384 -0.080552 
-0.24102 0.054103 0.084848 0.011355 0.063968 0.029769 0.147 -0.021034 
-0.1621 -0.24858 -0.038956 0.049664 0.041278 0.0082312 0.059528 0.004943 
-0.090417 0.82866 -0.26371 0.048841 0.029934 0.011191 0.011848 0.011355 
-0.10045 1.8071 -0.35331 0.048184 0.060022 0.036182 0.090603 0.052623 
0.088958 1.5575 -0.18084 0.021878 0.028454 0.022206 0.11362 0.04358 
0.33048 0.49588 0.19155 -0.059014 -0.0024557 -0.0034422 0.04506 0.053774 
0.26998 -0.57248 0.50082 -0.092883 0.009711 -0.0098543 -0.045039 0.067749 
0.068242 -1.6923 0.65175 -0.068057 0.0059294 0.011848 -0.056548 0.10376 
0.013164 -3.6995 0.60703 -0.027775 0.0018191 0.013657 -0.038627 0.11757 
0.19846 -4.5273 0.317 0.047526 -0.0096899 -0.0054151 -0.017253 0.00297 
0.36764 -3.1806 0.072024 0.081067 0.021878 0.012177 -0.037969 -0.053753 
0.34183 -0.85017 -0.17361 0.12431 0.045224 0.028454 0.0072447 -0.028762 
0.12792 1.6765 -0.46298 0.18498 0.085999 0.029276 0.088794 0.081395 
-0.2134 3.2744 -0.5294 0.12579 0.075641 0.02122 0.14453 0.19237 
-0.34608 2.6777 -0.35644 0.016781 0.016781 0.025988 0.084355 0.171 
-0.14615 0.85332 -0.068879 -0.057534 -0.00031829 -0.011005 0.018096 0.14157 
0.0085601 0.35103 0.038155 -0.079895 -0.0042642 -0.00097594 -0.039942 0.12464 
-0.054904 1.021 0.0052718 -0.039942 0.016945 0.031907 0.0092177 0.11428 
-0.10817 1.3155 0.027796 -0.01117 0.04506 0.03092 0.043909 0.029276 
-0.10209 1.2566 0.10787 -0.0077169 0.045389 0.015465 -0.0049219 0.044402 
0.00066819 1.0264 0.16525 0.01415 0.024015 -0.0027845 -0.010841 0.03388 
0.043087 0.58894 0.16722 0.028783 0.015301 0.037826 0.04917 -0.054739 
0.061995 -0.98565 0.2172 0.007738 0.010697 0.019247 0.07597 -0.10604 
0.11494 -2.9803 0.2782 0.031578 -0.0072237 -0.0016336 0.081889 -0.17016 
0.20619 -3.4538 0.24252 0.0018191 0.027468 0.016616 0.01563 -0.10406 
0.22131 -2.2995 0.12858 0.02533 0.019411 0.015301 0.01711 -0.043559 
0.14305 -0.70187 0.07301 0.040128 0.050321 0.015959 0.019905 0.039634 
0.049992 0.00297 0.029605 0.034702 0.014315 0.0031344 -0.0078813 0.078436 
0.046704 -0.24645 0.048841 0.045553 0.042923 0.030592 -0.039284 0.081889 
-0.049149 0.26143 -0.0067304 0.046375 0.053774 0.03092 -0.037476 0.13417 
-0.15141 1.1874 -0.033037 0.047033 0.073832 0.060186 -0.02087 0.15193 
-0.24135 1.7698 -0.01232 0.082053 0.055089 0.049335 0.057884 0.16048 
-0.29593 1.6532 0.051472 0.049664 0.065447 0.056733 0.14601 0.14815 
-0.16111 1.0644 0.22986 0.03651 0.023357 0.024508 0.15308 0.090438 
0.20997 0.41006 0.3341 0.016288 0.017438 0.021384 0.060022 0.029441 
0.45314 -0.077264 0.25978 0.021384 -0.0090322 0.0024767 -0.023007 -0.071016 
0.69236 -0.77849 0.11411 0.01711 -0.025802 -0.030077 -0.059836 -0.15799 
0.71192 -0.78358 -0.22655 0.037826 -0.01939 -0.026789 -0.033859 -0.22458 
0.30434 0.29201 -0.47416 0.0592 0.00297 -0.0095255 -0.035832 -0.23313 
-0.16062 1.1762 -0.4661 0.063145 0.010533 -0.0088678 -0.041915 -0.19038 
-0.42911 1.111 -0.39244 0.023522 0.019905 -0.0032777 0.014808 -0.11722 
-0.41283 0.81814 -0.15141 0.013492 0.013328 0.012013 0.056898 0.015465 
-0.23247 -0.19498 0.11115 -0.0082102 0.011191 0.030427 0.036182 0.12266 
-0.038956 -2.0111 0.26998 -0.02498 0.0072447 0.026317 0.0093821 0.18646 
0.1105 -2.35 0.29349 -0.010841 0.023357 0.03947 0.031414 0.17577 
0.13319 -1.2745 0.22805 0.043909 0.048348 0.051965 0.024344 0.15292 
0.016781 0.24581 0.15078 0.048677 0.059693 0.052459 0.037661 0.17462 
-0.082525 1.2695 0.10376 0.10228 0.063803 0.048019 0.05065 0.17215 
-0.1187 1.7017 0.081231 0.080409 0.076792 0.045389 0.10721 0.2024 
-0.10078 1.7367 0.10655 0.042429 0.04506 0.03092 0.11707 0.20043 
-0.047505 1.5001 0.05772 0.025824 0.021384 0.013492 0.1516 0.15867 
-0.010841 1.1251 -0.0004827 0.022864 0.028783 0.019576 0.16788 0.072024 
-0.012814 0.74415 -0.057534 0.044402 0.038483 0.061172 0.13631 -0.056055 
0.016616 -0.091075 0.017767 0.017767 0.0028056 0.039634 0.070051 -0.11935 
0.046704 -1.2961 0.13631 -0.0064016 0.0062583 0.020233 -0.00015387 -0.15552 
0.065612 -1.5918 0.14091 0.033387 0.019905 0.020727 -0.057699 -0.16194 
0.10639 -1.0868 0.020891 0.030098 0.031742 0.0056006 -0.065755 -0.16407 
0.11362 -0.50918 -0.042408 0.041278 0.034537 0.0083956 -0.065097 -0.060329 
0.081231 -0.99305 0.058049 0.06035 0.084026 0.042923 -0.026789 0.067585 
0.079751 -1.0346 0.10704 0.0060938 0.031578 0.064461 0.029769 0.063803 
-0.0019624 0.73675 0.0087245 0.0036276 0.020891 0.05213 0.10343 0.055911 
-0.10094 2.01 -0.088608 0.0065871 0.010369 0.0013258 0.055254 0.013821 
-0.080552 1.8663 -0.18068 0.0024767 0.0046141 0.020233 0.071695 0.03388 
-0.10078 0.90018 -0.30448 0.043087 0.028619 0.023686 0.078765 0.077778 
-0.08384 0.31749 -0.31846 0.076792 0.041607 0.02681 0.063803 0.1322 
-0.034681 0.37241 -0.20781 0.074983 0.015794 0.012177 0.016452 0.22411 
0.15127 -0.054575 -0.027282 0.10047 0.017932 0.010533 -0.041422 0.17807 
0.27491 -0.71552 0.061501 0.057227 -0.02087 0.0023123 -0.041915 0.17889 
0.069064 -0.75744 0.22805 0.0042853 0.0064227 -0.020541 -0.0068948 0.077943 
-0.24941 -0.18939 0.40365 0.011848 0.013164 -0.011498 0.027468 -0.042573 
-0.38801 1.521 0.34528 -0.035503 0.034044 -0.0014692 0.06183 -0.042901 
-0.22589 1.2931 0.20931 0.0046141 0.069064 0.03651 0.074819 -0.0014692 
0.070544 -2.0469 0.093562 0.026974 0.025988 0.041936 0.034373 0.15144 
0.1904 -3.2172 0.0072447 0.089452 0.026317 0.10359 0.059528 0.20208 
0.36517 -1.3385 0.1202 0.10228 0.016123 0.049992 -0.0024557 0.074819 
0.67542 0.079751 0.2343 -0.017417 -0.042079 -0.017582 -0.035174 -0.11426 
0.62955 -0.16769 0.1054 -0.043724 -0.055561 -0.080881 -0.067892 -0.18709 
0.35909 -0.88634 -0.10308 0.0046141 -0.038956 -0.075291 -0.025638 -0.20123 
0.013986 0.041114 -0.41283 0.026974 -0.017253 -0.078579 -0.010348 -0.21734 
-0.23806 1.3518 -0.50507 0.062159 0.027632 -0.034681 0.0324 -0.18824 
-0.28558 1.3974 -0.22409 0.075312 0.041936 0.015301 0.007738 -0.18117 
-0.23247 0.93865 0.022206 0.042923 0.073339 0.042429 0.0072447 -0.11985 
-0.16407 0.61837 0.17412 0.0062583 0.076956 0.054925 0.014315 -0.006566 
-0.15487 0.41565 0.22115 0.0046141 0.058706 0.064132 0.069722 0.12661 
-0.10045 0.22953 0.17528 0.021878 0.077614 0.095371 0.093398 0.25123 
-0.02646 0.046375 0.098823 0.055089 0.096028 0.085341 0.11559 0.27491 
0.11674 -0.14714 0.031414 0.034373 0.064954 0.080738 0.10096 0.2103 
0.1932 -0.23625 0.024344 0.030756 0.047033 0.062159 0.02122 0.090931 
0.18876 -0.025309 -0.00015387 0.04917 0.03092 0.031414 -0.038791 0.0093821 
0.13384 0.21408 -0.0095255 0.030098 0.0069159 -0.011498 -0.025967 -0.043559 
0.0019835 0.147 -0.011663 0.044567 0.0069159 0.0034632 -0.0044286 -0.071345 
-0.059178 0.013164 0.019905 0.067256 0.026152 0.0085601 0.013492 -0.068386 
0.021878 0.091096 0.088794 0.029934 0.02681 0.0069159 -0.032872 -0.077757 
0.12217 0.11477 0.15505 0.040128 0.021713 0.012177 -0.056712 -0.043888 
0.14765 -0.1478 0.11691 0.0069159 0.017603 0.040785 -0.016266 -0.05178 
0.096521 -0.24069 0.084355 -0.018075 0.033058 0.036017 0.050486 -0.021692 
-0.00015387 0.86499 0.053281 -0.014293 0.018589 0.021878 0.062981 -0.0029489 
-0.13777 2.4896 0.035853 -0.03205 0.029769 0.04917 0.096686 -0.014293 
-0.23083 2.9327 0.022535 -0.011005 0.049499 0.031414 0.13319 0.011191 
-0.17558 1.768 -0.07414 0.064461 0.046704 -0.014129 0.081724 -0.017253 
0.020891 -0.95589 -0.17213 0.039141 0.017932 -0.014787 0.035031 -0.041257 
0.27853 -3.798 -0.14944 0.077121 0.0039565 -0.0096899 -0.038462 -0.079566 
0.53649 -4.649 0.012177 0.048677 -0.011334 -0.030242 -0.10472 -0.089431 
0.73494 -4.646 0.13006 0.033222 -0.015773 -0.032543 -0.15635 -0.079895 
0.65421 -4.6457 0.046868 0.042594 0.019247 0.0072447 -0.15191 -0.0503 
0.24236 0.61525 -0.13267 0.039305 0.051308 0.039963 -0.037476 0.0034632 
-0.20107 3.8385 -0.019884 0.014315 0.082546 0.06035 0.15966 0.02681 
-0.41333 3.8784 0.28445 0.032729 0.08156 0.095864 0.1853 0.06035 
-0.40757 3.8587 0.45938 -0.0019624 0.07301 0.10556 0.18777 0.062323 
-0.24513 1.6121 0.47434 -0.026131 0.064296 0.077943 0.11461 0.078436 
-0.18134 0.85628 0.42107 -0.034681 0.051143 0.057884 0.12349 0.15456 
-0.18479 0.61985 0.20027 0.0024767 0.06035 0.061666 0.080902 0.20619 
-0.12511 0.064132 -0.085978 0.028783 0.035688 0.062159 0.054596 0.27688 
-0.052109 -0.29511 -0.24546 0.01974 0.027303 0.036839 0.016616 0.24844 
0.030098 -0.17098 -0.26026 0.034866 0.010369 0.039634 0.026646 0.20142 
0.095371 -0.12593 -0.11393 0.036182 0.023028 0.044402 0.023686 0.14026 
0.076299 -0.28771 0.037332 -0.0014692 0.0324 0.034044 0.028783 0.098823 
0.078765 -0.60322 0.033387 0.017274 0.042265 0.033387 0.0054362 0.093726 
0.073339 -0.56163 -0.073976 0.076463 0.042429 0.049992 -0.050958 0.032564 
0.04917 -0.19679 -0.14073 0.062652 -0.0064016 0.031249 -0.12544 -0.028762 
0.014479 -0.043888 -0.055561 0.06183 -0.0027845 -0.0047575 -0.16769 -0.069865 
-0.00064712 -0.1912 -0.05326 0.030592 -0.019555 -0.030735 -0.10028 -0.068386 
0.040621 -0.15651 -0.16111 0.025824 -0.034516 -0.016595 0.038319 -0.011663 
0.057062 0.017767 -0.1404 0.061172 -0.014129 -0.018075 0.088136 1.0539e-005 
0.018589 0.22592 0.067256 0.0092177 0.0046141 0.0023123 0.091425 0.053281 
-0.027775 0.29513 0.18333 0.017438 0.050979 0.046211 0.12743 0.080409 
-0.10061 0.36649 0.23364 0.024015 0.055582 0.049499 0.14404 0.1026 
-0.22474 0.6529 0.16837 0.016781 0.077778 0.039634 0.083533 0.11033 
-0.36713 0.94408 0.099974 0.063145 0.076956 0.047526 0.062652 0.11888 
-0.27522 0.58039 0.077943 0.050321 0.06594 0.028947 0.080902 0.077778 
-0.085978 -1.1019 0.086821 0.051965 0.062652 0.0083956 0.068407 0.015301 
-0.018733 -1.1632 0.087972 0.090603 0.059528 0.019247 0.05772 0.066269 
0.044896 1.0381 0.057884 0.037332 0.037004 0.051143 0.013986 0.077121 
0.24515 1.702 0.064132 -0.027611 -0.0029489 -0.014129 -0.019555 0.075476 
0.56724 0.66342 0.08008 -0.04882 -0.048327 -0.039449 -0.095185 0.069393 
0.92681 -1.6027 0.15242 -0.087786 -0.045039 -0.034023 -0.13333 0.050157 
0.9158 -3.4022 0.10688 -0.041257 -0.020706 0.0080668 -0.15092 0.0085601 
0.51972 -3.3162 -0.058028 0.019905 0.039799 0.021878 -0.096829 -0.037476 
0.055911 -2.7015 -0.13843 0.030427 0.052952 0.031414 -0.05589 -0.015938 
-0.17213 -0.80545 -0.14023 0.052459 0.0079024 0.03799 -0.0059084 0.027961 
-0.32931 1.9419 -0.28722 0.051143 -0.035174 1.0539e-005 0.043416 0.071366 
-0.40346 3.3556 -0.44045 0.079587 0.020233 -0.0096899 0.037826 0.10951 
-0.39738 2.8921 -0.25072 0.08567 0.075641 0.021384 0.004943 0.076463 
-0.3058 1.4311 -0.014293 0.087479 0.04654 0.032071 0.0036276 0.073668 
-0.19942 0.59322 0.19698 0.075476 0.05213 -0.016431 0.072188 -0.036818 
-0.15733 0.6769 0.37076 0.037497 0.058049 -0.012485 0.19829 -0.14648 
-0.093541 0.63185 0.47615 -0.0040998 0.049992 -0.0077169 0.25896 -0.079566 
-0.043888 0.43702 0.3849 0.0021479 0.046375 -0.026624 0.2103 0.073668 
0.0095465 0.21079 0.12135 -0.022021 0.036346 -0.015609 0.14864 0.064954 
0.010204 0.010533 -0.10078 0.0087245 0.012342 0.012013 0.15209 -0.0067304 
0.0032988 -0.87319 -0.26042 0.049006 0.0036276 0.045718 0.13154 0.013492 
0.060679 -1.7229 -0.31468 0.011355 0.014808 0.074654 0.056569 0.037168 
0.12398 -1.1196 -0.14846 0.018754 0.013164 0.087808 -0.019884 0.03092 
0.11444 -0.056383 -0.021363 0.042265 0.042758 0.10704 -0.030242 -0.059507 
0.14617 0.38655 -0.022185 0.032564 0.034866 0.028454 -0.069701 -0.15125 
0.26965 0.305 -0.0077169 -0.010512 0.012835 -0.018404 -0.11639 -0.14517 
0.30253 -0.16703 0.09422 0.0016547 0.035853 -0.014129 -0.099295 -0.047505 
0.30253 -0.030077 0.16558 -0.0014692 0.056404 -0.0070593 -0.036654 0.078436 
0.20997 0.29053 0.22312 0.025001 0.048019 0.012506 0.028125 0.10359 
0.18728 -0.09946 0.32719 -0.031886 0.021713 0.012835 0.099481 0.079094 
0.12562 -0.24513 0.36106 -0.041586 0.010533 0.031578 0.18925 0.064132 
0.025495 -0.10225 0.32226 0.0036276 0.023522 0.0421 0.21112 0.029769 
-0.0062372 -0.071016 0.31585 0.0095465 0.020398 0.022535 0.12628 0.015137 
-0.034681 -0.37798 0.22279 0.04095 0.007738 0.016616 0.0054362 -0.023501 
-0.065097 -0.60076 0.069722 0.05065 0.0062583 -0.0087034 -0.028597 -0.055232 
-0.048985 0.51068 -0.2037 0.066434 -0.035338 -0.027447 -0.023665 -0.085649 
-0.065097 0.49424 -0.47646 0.12792 -0.014458 -0.0091966 0.035031 -0.051944 
-0.10258 -1.7543 -0.55768 0.12316 0.016288 0.024837 0.05624 -0.017746 
-0.11524 -2.8397 -0.26305 0.068078 0.01152 0.012835 0.071366 -0.014951 
-0.18298 -0.8533 0.060186 0.044896 0.03388 0.029276 0.061666 0.034866 
-0.27275 1.536 0.15522 0.011355 0.069558 0.058706 0.10902 0.045389 
-0.22359 2.3992 0.092247 0.018754 0.073504 0.077614 0.095042 0.062488 
-0.11672 2.1864 0.056569 0.035853 0.066927 0.057391 0.11313 0.040621 
0.063145 1.6101 -0.045039 0.021549 0.036346 0.021384 0.053609 -0.029913 
0.32259 0.96808 -0.26305 0.063968 -0.004593 0.014315 -0.020048 -0.10406 
0.47418 -0.38916 -0.35216 0.04654 -0.032215 -0.033365 -0.085813 -0.13251 
0.42486 -0.76977 -0.18232 0.038648 -0.029255 -0.025309 -0.045532 -0.05178 
0.16541 0.17988 0.23249 0.01152 -0.0031133 0.015301 0.0054362 0.06331 
-0.17328 1.5049 0.51989 -0.02498 0.025166 0.02829 0.040785 0.23742 
-0.3788 1.4041 0.50098 -0.014622 0.060844 0.048184 0.070544 0.3101 
-0.29149 -0.15092 0.39296 0.023193 0.057062 0.059528 0.086985 0.24022 
-0.21143 -0.75333 0.21046 0.029441 0.075641 0.058213 0.079258 0.15818 
-0.16029 -0.68313 -0.0004827 0.07449 0.070708 0.086492 0.068407 0.046211 
0.025001 -0.92235 -0.026953 0.055747 0.072681 0.059857 0.049992 0.0069159 
0.36517 -2.338 0.15456 -0.018733 0.054103 0.049499 -0.02498 -0.023994 
0.47221 -2.626 0.317 -0.049314 -0.0090322 0.014808 -0.061316 -0.030899 
0.24712 -0.47926 0.19122 -0.062138 -0.00015387 0.01004 -0.030735 -0.03057 
0.0031344 1.788 -0.048327 0.0064227 0.01826 0.023522 -0.00031829 -0.06 
-0.087951 3.139 -0.2351 0.029769 0.024179 0.039634 0.016123 -0.0019624 
-0.082196 2.7263 -0.36367 -0.003771 0.030098 0.026646 0.00017495 0.039305 
-0.067728 1.1128 -0.37403 0.017603 0.029441 0.025166 -0.05326 0.10408 
0.035853 -0.15799 -0.46791 0.072846 -0.022679 -0.001798 -0.068221 0.12069 
0.1031 -0.875 -0.54486 0.10787 -0.014622 -0.012978 -0.060165 0.15292 
0.049664 -0.97759 -0.34246 0.15472 -0.0029489 0.0039565 -0.038133 0.15637 
0.03651 -2.1068 0.13302 0.091753 0.024673 0.00066819 -0.017088 0.066434 
0.14009 -3.1492 0.47287 0.071202 0.04095 0.03947 -0.015116 -0.060165 
0.13762 -2.2301 0.44804 0.08863 0.078436 0.023193 -0.0050863 -0.15207 
0.024015 -0.11163 0.37816 0.0324 0.09126 -0.010183 0.025166 -0.15273 
-0.077593 1.4501 0.34725 -0.026296 0.060186 0.012999 0.069393 -0.074962 
-0.03353 1.7301 0.25962 -0.012814 0.051636 0.037826 0.064461 0.025824 
0.12003 1.1228 0.2029 -0.048163 0.048348 0.054925 -0.031064 0.15999 
0.15522 0.58483 0.14075 -0.045368 0.027468 0.049499 -0.043724 0.17149 
0.055254 0.60259 0.037004 -0.033037 0.026974 0.050321 -0.0016336 0.14963 
-0.039449 0.64484 -0.039778 -0.026624 0.036675 0.043745 0.04654 0.09981 
-0.047834 0.52696 -0.081374 0.026974 0.041278 0.028783 0.017438 0.024837 
0.031578 0.24729 -0.10932 0.035688 0.038648 0.029441 -0.0091966 -0.032543 
0.061008 -0.088773 -0.079401 0.034702 0.011848 0.013821 -0.010348 -0.08121 
0.058706 -0.18348 -0.016266 0.062488 0.023357 0.014972 0.00083261 -0.024487 
0.022864 -0.12511 0.05772 0.038648 0.043087 0.014808 -0.010512 0.046375 
-0.069372 -0.056055 0.047855 0.03388 0.06183 0.050486 0.012013 0.09685 
-0.11426 -0.16062 -0.036325 0.052294 0.033387 0.032564 0.050979 0.13532 
-0.064275 -0.26864 -0.041751 0.056733 0.012835 0.041278 0.08156 0.13286 
0.049828 -0.23839 -0.018075 0.044896 0.016123 0.033715 0.098659 0.13516 
0.22624 -0.2545 0.012835 0.01563 0.0062583 0.010697 0.13516 0.092247 
0.40858 0.15061 0.051636 0.00066819 0.0021479 -0.0032777 0.14174 0.047526 
0.44738 0.69088 0.10458 -0.0055795 0.013657 -0.008539 0.038483 0.0023123 
0.2588 0.4801 0.15078 -0.034023 0.019576 0.0032988 -0.062138 0.010533 
0.026646 0.056898 0.22707 -0.019719 0.027303 -0.010183 -0.10686 -0.010841 
-0.24891 -0.084005 0.26932 0.017767 0.011191 -0.025967 -0.073647 -0.033201 
-0.49224 -0.017253 0.16048 0.044567 0.034866 0.037332 -0.019884 -0.026953 
-0.48402 -0.14632 0.037661 0.11132 0.079258 0.02533 0.0019835 -0.078579 
-0.16901 -1.1474 0.035688 0.054925 0.020562 0.0065871 0.023851 -0.095021 
0.07597 -0.88486 0.033715 0.023357 0.054267 -0.0032777 0.061008 -0.14451 
0.17215 0.35728 0.0060938 0.059035 0.019411 0.0079024 0.055747 -0.084991 
0.17067 0.76947 -0.10735 0.043087 0.031907 0.027961 0.074983 0.045389 
0.077778 0.58664 -0.22277 0.059528 0.044731 0.041114 0.11526 0.1174 
0.02533 0.48618 -0.1404 0.081724 0.071202 0.064132 0.12464 0.19764 
-0.003771 0.70074 -0.017582 0.017438 0.053281 0.044896 0.10326 0.14108 
0.036346 0.96742 0.10704 -0.027611 0.036346 0.020562 0.065776 0.10803 
0.049499 1.019 0.11428 -0.015609 0.022864 0.040292 0.032236 0.048019 
0.079258 0.90182 0.12102 -0.017417 0.0046141 0.0095465 0.0046141 -0.01232 
0.13516 0.49523 0.047362 0.011848 -0.019061 -0.022514 -0.021528 -0.018733 
0.17741 -0.31566 -0.14188 0.011355 -0.01939 -0.025967 -0.037311 -0.07562 
0.1202 -1.0702 -0.28804 0.033222 -0.019226 -0.026789 -0.012485 -0.07266 
-0.00097594 -0.46824 -0.38176 0.09981 0.016781 -0.021528 0.040785 -0.076442 
-0.0965 0.96167 -0.28278 0.12102 0.031249 0.017274 0.070051 -0.034845 
-0.099131 1.5011 -0.065426 0.077121 0.064461 0.039799 0.075476 0.0067515 
-0.027118 1.1338 0.21391 0.052294 0.050979 0.043909 0.097015 0.047362 
-0.026624 0.45642 0.31207 0.039963 0.050321 0.040785 0.13647 0.083368 
-0.065919 -0.58234 0.30237 0.072846 0.044402 0.049335 0.14585 0.10885 
-0.12018 -1.7612 0.37208 0.035853 0.033551 0.072846 0.12513 0.13006 
-0.10735 -2.5025 0.43275 -0.036325 -0.0032777 0.035688 0.04917 0.097837 
-0.018404 -1.8036 0.24482 -0.044874 -0.018897 -0.013965 0.00297 0.064132 
0.051801 -0.34115 -0.041586 -0.03912 -0.001798 0.0046141 1.0539e-005 0.046704 
0.20849 0.66687 -0.206 -0.012814 0.0016547 0.012013 -0.014951 0.027961 
0.38112 0.59897 -0.18857 0.029934 0.0051074 0.0079024 -0.041422 -0.0083746 
0.47352 -0.096007 -0.028433 0.0085601 0.036017 0.026317 -0.02235 -0.058356 
0.37931 -0.42368 0.086821 -0.008539 0.0026412 0.019905 -0.045368 -0.0049219 
0.041936 -0.058685 0.072517 0.0087245 0.022535 0.022535 -0.033365 0.046704 
-0.27407 0.65241 -0.0098543 0.022535 0.026646 0.016945 -0.015773 0.014808 
-0.29199 1.045 -0.084169 0.062981 0.048348 0.03092 0.027303 -0.024816 
-0.21225 0.90527 -0.2185 0.099481 0.055747 0.034537 0.022864 -0.045696 
-0.11919 0.35514 -0.26749 0.13434 0.077614 0.04654 0.020233 0.012999 
-0.014622 0.041443 -0.22918 0.13549 0.064461 0.04506 0.00297 0.052623 
0.028125 -0.052766 -0.12544 0.083697 0.055582 0.045882 0.044073 0.11691 
0.033058 -0.15635 0.040785 0.023851 0.062488 0.028619 0.077614 0.15012 
0.057555 -0.47827 0.19912 0.01711 0.053445 0.004943 0.11148 0.13549 
0.038977 -0.57264 0.26143 -0.0090322 0.024179 0.030592 0.098659 0.037168 
0.019411 -0.1866 0.2223 0.0092177 0.01415 0.0028056 0.11362 -0.11311 
0.091096 0.11773 0.25058 -0.035996 -0.0052507 -0.03353 0.087972 -0.12708 
0.21046 0.043251 0.22345 -0.041915 -0.0082102 -0.013965 0.0070803 -0.018239 
0.23956 -0.058356 0.12809 0.011848 -0.018897 0.039963 -0.028597 0.04917 
0.16245 -0.026789 -0.027775 -0.010512 0.018589 0.0227 -0.08828 0.016616 
0.07597 0.11362 -0.194 0.030427 0.048019 0.012342 -0.068221 -0.034023 
0.13762 -0.048985 -0.24217 0.016123 0.00066819 0.011355 -0.067892 -0.025802 
0.085341 -0.26453 -0.23231 -0.02646 0.010204 -0.0022913 -0.029584 -0.049807 
-0.13103 -0.57182 -0.12938 0.0046141 0.0075736 0.013328 0.041278 0.0064227 
-0.31583 -0.12248 -0.0013048 0.028125 0.045553 0.048019 0.079422 0.019411 
-0.425 0.92205 0.18267 0.045718 0.081067 0.053609 0.10359 -0.010019 
-0.32898 1.1739 0.31486 0.082217 0.10672 0.040292 0.11954 0.062159 
-0.13136 -0.35118 0.47714 0.05065 0.079094 0.061172 0.067585 0.18613 
0.029934 -1.2877 0.53386 0.065776 0.052459 0.10507 0.069064 0.30763 
0.37816 -1.1307 0.52844 0.055911 0.036675 0.077778 0.022371 0.26159 
0.64879 -1.2834 0.366 0.015301 0.02681 0.049335 -0.029584 0.20947 
0.64895 -1.2093 0.12858 0.010697 -0.0027845 0.017603 -0.095185 0.12069 
0.47911 -1.6229 0.023522 -0.01232 -0.013307 -0.0027845 -0.1256 -0.027282 
0.23644 -0.92564 -0.097487 -0.026296 -0.020706 -0.018897 -0.060494 -0.095514 
0.076463 0.70732 -0.27867 0.0023123 -0.045368 -0.045696 -0.029913 -0.16062 
-0.089431 2.1244 -0.47169 0.02122 -0.020377 -0.016924 0.018918 -0.11393 
-0.33326 2.4662 -0.67655 0.093398 0.0083956 0.0070803 0.10672 -0.003771 
-0.40856 1.7267 -0.62394 0.1493 0.024344 0.014808 0.1738 0.076299 
-0.34822 0.97943 -0.40445 0.10589 0.059364 0.0037921 0.15094 0.06183 
-0.28558 0.85151 -0.18709 0.056076 0.056569 0.035853 0.088136 -0.045039 
-0.18282 0.85365 0.010369 0.029605 0.046211 0.020398 0.026974 -0.0088678 
-0.1838 0.71571 0.14502 -0.023829 0.034866 0.027468 0.031578 0.13072 
-0.15684 0.39658 0.2417 -0.024652 0.033222 0.060679 0.095699 0.22279 
-0.0049219 -0.24924 0.27212 -0.018568 0.045389 0.070873 0.13351 0.15982 
0.11378 -0.84277 0.29842 -0.00097594 0.058871 0.050321 0.096193 0.066598 
0.25189 -0.60668 0.36616 0.035853 0.062323 0.038812 0.020562 0.0044497 
0.32259 0.28165 0.35942 -0.0029489 0.03388 0.03092 -0.040928 -0.087622 
0.28428 0.71768 0.29645 -0.014951 0.031742 0.0016547 -0.032708 -0.047998 
0.34643 -0.27999 0.22065 -0.0026201 0.046868 0.0067515 -0.023172 0.015301 
0.4436 -1.4942 0.25913 -0.011005 0.026152 0.022042 0.016781 0.082875 
0.37718 -1.31 0.28034 0.030592 0.020233 0.0044497 0.027632 0.078107 
0.050814 -0.078579 0.12431 0.037004 0.01826 0.019411 0.045553 0.11132 
-0.15931 0.51282 -0.16259 0.041443 0.0079024 0.022535 0.047033 0.1853 
-0.12083 0.71817 -0.49652 0.098494 0.022042 0.040128 0.064625 0.11132 
-0.0036066 0.34216 -0.5978 0.06183 0.01004 0.015301 0.01563 -0.01117 
0.11132 -1.1358 -0.44078 0.049992 -0.0083746 -0.01232 -0.04882 -0.10867 
0.21128 -2.5787 -0.28229 0.057555 -0.027775 0.032729 -0.094527 -0.10784 
0.13417 -2.3804 -0.10258 0.05213 0.021878 0.019083 -0.032872 -0.075784 
0.035688 -0.3885 0.066927 0.070051 0.031249 0.012999 -0.026131 -0.033859 
-0.024816 1.3319 0.29661 0.047033 0.035524 0.020398 -0.047341 0.013657 
-0.1478 2.6267 0.30007 0.02122 0.02122 0.033058 0.040128 0.024344 
-0.32405 2.7862 0.22526 0.071037 0.044896 0.05065 0.15127 0.070708 
-0.33424 2.1713 0.19928 0.06035 0.065612 0.060515 0.14798 0.073668 
-0.22573 1.4672 0.13845 0.098823 0.08304 0.076792 0.10902 0.044567 
-0.017088 0.49095 0.17347 0.052952 0.07597 0.057062 0.090603 0.046704 
0.069558 0.06594 0.25551 0.0044497 0.073339 0.049006 0.05213 0.016945 
0.17166 -0.17608 0.22937 -0.016266 0.030427 0.013164 -0.0027845 0.018754 
0.26061 -0.86826 0.067749 -0.010183 -0.012649 -0.012485 -0.02942 0.0031344 
0.18974 -1.0707 -0.086471 -0.024158 -0.0070593 -0.011498 -0.02498 -0.0031133 
0.10343 -1.6652 -0.18052 0.028125 -0.00031829 -0.00064712 -0.0059084 -0.022843 
0.12118 -1.6579 -0.10834 0.021056 0.018918 0.02122 -0.029748 -0.038298 
0.27557 -0.77717 0.03536 0.020398 0.031907 0.0016547 -0.058685 -0.049807 
0.31289 0.29135 0.12464 0.018754 0.020398 -0.018568 -0.067564 -0.10653 
0.17297 0.91498 0.15292 -0.032872 0.0095465 0.0047785 -0.027611 -0.12363 
-0.022514 0.96282 0.17774 -0.0036066 0.051308 0.014808 0.029112 -0.066248 
-0.16983 0.76914 0.18415 0.037332 0.035524 0.050979 0.073175 0.0039565 
-0.2573 0.44261 0.17034 0.02681 0.031414 0.043087 0.088136 0.033387 
-0.24875 0.10573 0.10047 0.040621 0.035524 0.048019 0.069064 0.059035 
-0.10341 -0.41185 0.026646 0.05624 0.0080668 0.01826 0.013657 0.048677 
0.037168 -1.1861 -0.12116 0.032071 0.014479 -0.012485 -0.020048 0.0070803 
0.02681 -0.69562 -0.32158 0.085177 0.019411 0.01415 0.019411 0.066927 
-0.092061 1.0447 -0.54798 0.13697 0.037004 0.019411 0.06742 0.11083 
-0.15635 2.1902 -0.53581 0.1345 0.045718 0.046375 0.05476 0.092411 
-0.10538 2.1912 -0.22326 0.080409 0.038483 0.051801 0.029276 0.0070803 
-0.087129 1.6438 0.12431 -0.022021 0.056076 0.061501 0.017438 -0.083676 
-0.11409 1.1983 0.29119 -0.03616 0.07038 0.043087 0.010533 -0.10982 
-0.090253 -0.47005 0.44228 -0.019555 0.065447 0.049006 0.013821 -0.083676 
0.055254 -2.7403 0.55244 -0.019884 0.033222 0.028783 0.010204 0.025166 
0.18794 -2.7916 0.58417 0.016123 0.020398 0.029441 0.013492 0.093069 
0.27458 -1.3289 0.50493 0.00297 -0.012156 0.017932 -0.013471 0.14864 
0.30187 0.10343 0.39066 -0.037147 -0.021363 -0.012156 -0.075949 0.16442 
0.24532 -0.050793 0.21852 -0.03764 -0.03205 -0.028926 -0.096829 0.15834 
0.046211 -0.57264 -0.057205 -0.050629 -0.027611 -0.047669 -0.028762 0.15226 
-0.1917 -0.58185 -0.32898 0.0069159 -0.010019 -0.044217 0.03651 0.05772 
-0.28245 0.20043 -0.50129 0.11378 0.033222 0.0011614 0.14338 0.070708 
-0.24908 1.4521 -0.42253 0.12579 0.049006 0.027632 0.19944 0.09685 
-0.11656 1.7653 -0.21932 0.06742 0.049992 0.028454 0.19632 0.12957 
0.038977 0.22296 -0.077428 0.044402 0.036346 0.061995 0.14371 0.18909 
0.10951 -1.0197 -0.13859 0.030263 0.039963 0.082875 0.14535 0.28395 
0.11806 -1.351 -0.24661 0.074161 0.0059294 0.057555 0.13088 0.23019 
0.094548 -0.92728 -0.086471 0.0090533 -0.0057439 0.0085601 0.032729 -0.12231 
0.01711 0.73823 -0.009361 -0.016266 0.0054362 -0.015938 -0.077922 -0.55045 
-0.04619 1.8012 0.0062583 0.01267 0.004943 -0.025474 -0.13645 -0.63512 
-0.0024557 1.571 0.051801 0.0075736 0.0069159 -0.0095255 -0.13991 -0.4222 
0.079916 0.7499 0.16475 0.02122 0.010862 0.0047785 -0.086142 -0.14434 
0.070544 -0.12379 0.22033 0.03651 0.055747 0.05772 0.057884 0.15144 
0.028947 -0.61851 0.2948 0.035524 0.050486 0.070544 0.18662 0.4413 
-0.024323 -0.43601 0.25288 0.025001 0.030098 0.070051 0.16327 0.49029 
-0.092719 -0.074304 0.17314 0.0031344 0.046704 0.050486 0.077943 0.41022 
-0.14796 0.024179 0.0689 0.013821 0.029934 0.056404 0.055089 0.35251 
-0.090088 -0.12955 0.014479 0.061995 0.026974 0.026974 0.11494 0.28872 
-0.0067304 -0.352 -0.042079 0.028619 0.03388 0.013164 0.21145 0.18728 
0.14321 -0.43026 -0.15224 0.0074092 0.025988 -0.010512 0.16969 -0.01939 
0.29217 -0.8265 -0.33539 0.053281 -0.029748 -0.053588 0.034702 -0.12231 
0.32867 -1.046 -0.40609 0.027796 -0.034681 -0.069536 -0.056055 -0.14467 
0.26965 0.19665 -0.2573 0.030756 -0.03205 -0.066413 -0.028433 -0.18693 
0.1641 1.5596 -0.058521 0.012177 -0.0022913 -0.022679 -0.031886 -0.2522 
-0.073482 2.2809 0.15308 -0.026296 0.025659 0.032071 -0.016924 -0.31303 
-0.21981 2.109 0.29859 0.029441 0.10721 0.039305 0.0095465 -0.19581 
-0.20337 1.4547 0.41647 -0.0040998 0.10967 0.068571 0.024344 -0.13464 
-0.058356 0.11033 0.42683 0.0098754 0.055911 0.045553 -0.028762 -0.10193 
0.20865 -2.63 0.4048 0.017438 0.0064227 -0.009361 -0.13612 -0.063124 
0.40447 -4.6491 0.28478 -0.0068948 -0.018897 -0.0059084 -0.17082 0.0087245 
0.38277 -4.644 -0.22359 0.091096 0.0075736 0.031907 -0.045532 0.1105 
0.29711 -1.2344 -0.6098 0.19303 0.062817 0.062159 0.021384 0.058377 
0.28182 0.99291 -0.43815 0.10869 0.083533 0.077121 0.014479 0.074819 
0.15226 1.984 0.03388 0.026481 -0.0057439 0.063639 -0.020048 0.11576 
-0.062467 2.6106 0.22082 -0.077593 -0.046683 0.014643 0.01152 0.10984 
-0.1769 2.5882 0.18448 -0.094527 -0.006566 -0.02942 0.02829 0.070215 
-0.20682 2.0207 0.20816 -0.018075 0.023357 -0.032708 0.063474 0.027961 
-0.18446 1.2826 0.18777 -0.014622 0.025001 -0.02498 0.067256 0.09685 
-0.11574 0.658 0.098659 0.032893 0.057391 0.00066819 0.075148 0.092247 
-0.088444 0.36961 -0.017746 0.10408 0.052952 0.064461 0.1174 0.11 
-0.07562 0.2491 -0.085649 0.068571 0.052952 0.12135 0.15735 0.11559 
-0.046354 0.20536 -0.069043 0.052623 0.040621 0.11148 0.20569 0.14321 
0.015137 0.13138 -0.0072237 0.037661 0.035031 0.085341 0.19007 0.13697 
0.14453 0.030592 0.019083 0.041278 0.026974 0.064296 0.081395 0.10737 
0.29776 -0.17082 0.1003 0.036839 0.014479 0.019411 -0.090746 0.01267 
0.41631 -1.1053 0.091753 -0.0082102 0.053609 0.010862 -0.15257 -0.054575 
0.48092 -2.1745 0.2001 -0.0055795 -0.0077169 -0.018897 -0.18315 -0.035338 
0.39526 -1.7924 0.16492 0.052623 0.014315 0.0052718 -0.13793 0.11658 
-0.13514 -0.15405 0.053445 0.038977 0.041278 0.031742 -0.07266 0.15456 
-0.47301 1.0263 -0.061973 0.056569 0.074983 0.041443 0.0056006 0.077778 
-0.31007 0.87601 0.009711 0.052952 0.054432 0.079094 -0.004593 -0.049314 
0.036017 0.96825 0.068242 -0.0036066 0.045882 0.054267 0.03388 -0.057534 
0.17528 1.3676 0.03651 0.023522 0.0059294 0.0227 0.075148 -0.085813 
0.19961 0.48487 0.031907 0.014808 0.015794 0.028947 0.056569 0.033715 
0.17034 -1.2523 0.085506 0.019905 0.035524 0.032729 -0.0029489 0.12644 
0.11526 -1.896 0.19237 0.02829 0.059857 0.048184 -0.014951 0.16574 
0.042594 -0.81301 0.26357 -0.0004827 0.053281 0.037004 0.059364 0.19451 
-0.089266 0.90692 0.2805 -0.0062372 0.067256 0.074983 0.13368 0.18613 
-0.23329 1.9616 0.23956 1.0539e-005 0.067749 0.065118 0.14075 0.15752 
-0.29593 1.5989 0.16327 0.01563 0.021384 0.032893 0.12891 0.14157 
-0.29396 0.83655 0.062323 0.061337 0.048348 0.027796 0.081231 0.10639 
-0.12264 0.29201 -0.17082 0.069722 0.0056006 0.028125 0.038977 0.079916 
0.18695 -0.60585 -0.36811 0.078436 0.016288 -0.0090322 -0.022514 0.048019 
0.57299 -1.2601 -0.41776 0.10474 0.0069159 -0.014787 -0.089595 0.037004 
0.71192 -2.6589 -0.20896 0.049828 -0.0040998 -0.0080457 -0.10637 -0.0004827 
0.36583 -3.2072 0.089616 0.022864 0.019247 0.0046141 0.011191 0.0227 
-0.038791 -1.7081 0.22937 0.03092 0.021056 0.026317 0.062817 0.062817 
-0.22392 -0.18627 0.17001 -0.017088 0.027632 0.04654 0.088465 0.060186 
-0.24299 0.53008 0.19649 -0.027611 0.029605 0.043909 0.10014 0.049335 
-0.18742 1.1715 0.24581 -0.018733 0.004943 0.045389 0.08715 -0.0098543 
-0.10637 1.5705 0.18728 -0.0406 0.014972 0.02122 0.060186 -0.0040998 
-0.090088 1.7318 -0.032543 0.027303 0.032729 0.047033 0.043745 -0.033859 
-0.067564 1.581 -0.25861 0.031085 0.032071 0.014315 0.037661 -0.030077 
-0.086964 1.1103 -0.29758 0.039799 0.026481 -0.017582 0.055747 -0.015444 
-0.095678 0.73248 -0.22852 0.082711 0.034044 0.010697 0.045389 -0.028926 
-0.10225 0.49292 -0.10143 0.099152 0.051801 0.040456 0.074654 -0.039449 
-0.092061 0.11822 0.016945 0.066269 0.060679 0.033387 0.086492 -0.066741 
0.00033937 -0.20436 0.046046 0.084519 0.073339 0.022864 0.058871 -0.056877 
0.075476 -0.22195 0.050979 0.031578 0.07301 0.023851 0.0074092 -0.10275 
0.11609 -0.24513 0.056898 0.053774 0.035853 0.0044497 -0.016266 -0.14237 
0.12217 -0.8265 0.12513 -0.0021268 -0.00097594 0.0021479 0.0064227 -0.12248 
0.10113 -1.3189 0.14864 -0.011992 0.014808 0.0011614 0.004943 -0.11787 
0.028947 -1.2273 0.033551 0.022864 0.026974 0.0064227 0.0085601 -0.052109 
-0.081539 -0.49751 -0.036983 0.018918 0.025988 -0.0059084 0.0095465 0.014315 
-0.20353 0.87782 -0.22935 0.0087245 0.060679 0.015794 0.082053 0.074819 
-0.32438 2.1894 -0.40428 0.075312 0.051801 0.048184 0.082546 0.090767 
-0.39212 3.2558 -0.47514 0.060679 0.02533 0.031578 0.039634 0.14272 
-0.206 3.166 -0.21948 0.046211 0.022535 -0.0095255 0.043251 0.16114 
0.21901 2.3944 0.039305 -0.0072237 -0.013471 -0.01939 -0.036983 0.11806 
0.50312 0.75122 0.22575 -0.048163 -0.048327 -0.060165 -0.067564 0.043087 
0.56625 -3.0015 0.41187 0.03651 -0.023007 -0.039942 -0.075127 -0.092719 
0.64747 -4.6475 0.56543 0.024015 -0.0064016 -0.042408 -0.1136 -0.20403 
0.80728 -4.6478 0.63103 0.014972 -0.029748 -0.015773 -0.1307 -0.17065 
0.55277 -4.645 0.21819 0.035195 -0.019884 -0.029255 -0.096829 -0.066084 
-0.034023 -1.217 -0.23576 0.02829 -0.0039354 -0.015116 -0.0031133 -0.017911 
-0.55193 3.2722 -0.45328 -0.0032777 0.020891 0.030756 0.11033 -0.021528 
-0.76238 3.8768 -0.45903 0.016945 0.062159 0.052623 0.23249 0.033222 
-0.62904 3.8569 -0.24858 0.014808 0.1105 0.057884 0.22033 0.051801 
-0.30563 3.8747 0.0046141 0.057391 0.08156 0.061008 0.13894 0.048348 
0.16788 0.35235 0.33509 -0.02794 0.0088889 0.032071 0.0067515 0.033222 
0.55146 -1.2157 0.56872 -0.053588 -0.012485 0.005765 -0.085649 0.022206 
0.51035 -1.346 0.50575 0.049006 0.041278 0.018096 -0.073811 0.094548 
0.33887 -0.94537 0.36041 0.071037 0.032893 0.029276 -0.046025 0.14683 
0.1151 -0.18841 0.159 0.053116 0.019576 0.023357 0.0016547 0.1636 
-0.17262 0.83721 -0.078415 0.047526 0.012999 -0.024323 0.016781 0.030427 
-0.33622 1.0315 -0.2984 0.040621 0.0032988 -0.015938 -0.00097594 -0.1136 
-0.32388 0.4875 -0.34641 0.056898 0.0098754 0.0065871 0.042265 -0.072332 
-0.18397 -0.10916 -0.32323 0.036346 0.034866 0.0324 0.10984 0.064954 
0.060515 -0.47975 -0.15964 0.015959 0.018754 0.062488 0.1322 0.20882 
0.26718 -0.40297 -0.0034422 0.04506 0.029441 0.067091 0.10754 0.18087 
0.25255 -0.31747 0.062488 0.034537 0.031085 0.05213 0.057555 0.11378 
0.14502 -0.20896 0.15719 0.010369 0.037661 0.029276 0.040785 0.026317 
0.028125 0.063968 0.17281 0.057555 0.025659 0.036346 -0.00031829 0.0034632 
-0.13119 0.27836 0.13615 0.021056 0.035853 0.060022 -0.03764 -0.022514 
-0.17854 0.25025 0.171 0.01711 0.048019 0.029276 -0.023994 -0.028104 
0.039305 -0.19926 0.25189 -0.0039354 0.02829 0.027796 -0.012814 0.00033937 
0.39016 -0.74906 0.31832 -0.031557 0.019247 0.018425 -0.034681 0.0021479 
0.48191 -0.64515 0.2685 0.021056 0.020727 0.0059294 -0.023007 0.051143 
0.30664 -0.61029 0.21737 0.0098754 0.030263 0.0069159 -0.018075 0.097837 
0.092576 -1.0863 0.23463 0.017438 0.0090533 -0.0029489 0.011684 0.10935 
-0.051287 -1.0499 0.17084 0.03651 0.0018191 0.024673 0.046211 0.12842 
-0.15043 -0.34592 0.07038 0.011191 0.020891 0.045389 0.11477 0.14272 
-0.22935 0.4505 0.027961 0.033058 0.026974 0.06742 0.15259 0.11724 
-0.28656 0.97005 0.0024767 0.026317 0.069722 0.063968 0.12332 -0.014622 
-0.28804 1.3326 0.0059294 0.029605 0.051801 0.045553 0.04506 -0.046354 
-0.25319 1.4718 -0.083347 0.068078 0.064625 0.035688 0.0019835 -0.030735 
-0.24382 1.787 -0.19877 0.028125 0.037168 0.029605 0.059364 -0.019884 
-0.23642 2.2078 -0.31566 0.028783 0.020069 0.036346 0.13253 0.081395 
-0.11064 2.4776 -0.38307 0.070051 0.032729 0.048348 0.14141 0.1562 
0.088958 2.2777 -0.36236 0.025988 0.04917 0.028454 0.08304 0.12957 
0.1761 1.239 -0.46051 0.047691 0.038648 0.027632 0.010862 0.042429 
0.23298 0.11543 -0.41842 0.10343 0.024673 0.010204 -0.039942 -0.0040998 
0.31453 -0.87977 -0.17838 0.050814 0.004943 -0.015609 -0.082032 -0.026131 
0.44146 -2.2553 0.15324 0.01415 0.0024767 0.00083261 -0.099295 -0.054082 
0.50295 -4.6486 0.59486 -0.039284 -0.023665 0.004943 -0.090746 -0.049478 
0.44031 -4.6468 0.80975 -0.0771 -0.025309 0.0062583 -0.031392 -0.080223 
0.14733 -2.2684 0.548 -0.043559 0.00017495 0.028783 0.056733 -0.03764 
-0.028433 0.32933 0.23742 0.0044497 0.047362 0.056898 0.093726 0.00083261 
-0.05589 1.2076 -0.021363 0.047526 0.060679 0.048184 0.066105 0.012013 
-0.18052 1.9235 -0.22721 0.10441 0.065776 0.060022 0.021549 0.035853 
-0.29922 2.4828 -0.32487 0.072353 0.066434 0.085835 -0.020048 -0.050793 
-0.29889 1.4857 -0.18857 0.059528 0.068078 0.041278 -0.046847 -0.08121 
-0.2476 0.65504 -0.082361 0.0592 0.068242 0.016945 -0.010348 -0.064933 
-0.19893 0.91465 -0.079072 0.010204 0.067091 0.0098754 0.084355 -0.021528 
-0.16342 1.0269 -0.02646 0.013657 0.06594 0.022864 0.10935 0.0062583 
-0.024816 0.63646 0.055418 -0.020541 0.036346 0.005765 0.093069 0.075312 
0.081889 -0.048656 0.17873 -0.019719 0.0324 0.0060938 0.064132 0.27343 
0.11592 -0.38274 0.19172 0.0227 0.00297 0.0080668 0.050814 0.39707 
0.14223 -0.71831 0.12891 -0.0004827 0.018918 0.036182 0.037168 0.31864 
0.18004 -0.95688 0.043087 0.02681 0.0013258 0.018589 0.00033937 0.12036 
0.17166 -0.50096 -0.061316 0.067091 0.021878 0.013492 0.0072447 -0.0075525 
0.12579 0.26735 -0.17969 0.048348 0.024837 0.01711 0.0090533 -0.092061 
0.12628 0.5406 -0.067235 0.043745 0.012999 0.013821 0.0039565 -0.19137 
0.14223 -0.145 0.10819 -0.00097594 0.034044 -0.017582 -0.00015387 -0.20419 
0.19649 -1.4615 0.18284 -0.010676 0.023357 0.00297 0.021878 -0.14007 
0.23414 -1.7955 0.1054 0.03651 0.027303 0.016452 0.031249 -0.0090322 
0.20339 -1.042 0.01415 0.012999 0.016452 0.01152 0.059528 0.082875 
0.18498 -0.54173 0.027303 0.021549 0.029605 0.032236 0.041936 0.082711 
0.14453 0.0016547 -0.077264 0.056569 -0.0068948 0.01826 -0.061316 0.045553 
0.056733 0.92764 -0.27834 0.059528 0.0047785 -0.0077169 -0.11228 -0.0083746 
-0.10505 1.2075 -0.11245 0.071859 0.026646 0.00099702 -0.06707 0.010862 
-0.1621 0.47829 0.24811 0.054925 0.039799 0.020891 0.0019835 0.036675 
-0.13366 -0.63627 0.35334 0.048677 0.064625 0.051143 0.066434 0.10178 
-0.13448 -0.30251 0.18202 0.085506 0.07597 0.045882 0.068571 0.10063 
-0.15832 0.57924 0.040456 0.047197 0.059035 0.035195 0.045389 0.052787 
-0.095021 0.40282 0.041607 0.011026 0.035195 0.030098 0.02681 0.059857 
-0.063289 -0.42878 0.15555 0.037661 0.01974 0.055911 0.047197 0.02829 
-0.0042642 -1.1316 0.2195 -0.0096899 0.0088889 0.023357 0.068242 -0.054575 
0.013492 -1.0149 0.25469 0.011848 -0.0011404 0.0026412 0.091753 -0.10867 
0.062652 -0.51477 0.15078 0.030592 0.028947 0.01711 0.11609 -0.045532 
0.11132 -0.072825 -0.00031829 0.045553 0.053609 0.013986 0.061172 0.061501 
0.15752 0.91103 -0.083183 0.083862 0.046704 0.036675 0.0085601 0.12135 
0.077943 2.107 -0.094692 0.050321 0.056569 0.049664 0.012013 0.17051 
-0.043888 2.694 -0.13382 0.022042 0.04095 0.034044 0.048677 0.1465 
-0.12988 2.1803 -0.17838 0.030756 0.042758 0.036017 0.052294 0.13319 
-0.073811 1.0838 -0.12577 0.029605 0.025988 0.039799 0.038483 0.10096 
0.026974 -0.0067304 0.018918 0.0036276 0.037332 0.077449 0.06183 0.019247 
0.21737 -0.81203 0.09126 0.023851 0.0060938 0.0054362 0.10145 -0.10258 
0.36583 -1.6634 0.0088889 -0.0040998 -0.013143 -0.029913 0.025495 -0.16802 
0.3563 -2.4567 1.0539e-005 0.025988 -0.03616 -0.044217 -0.1187 -0.059507 
0.14733 -1.9779 0.09126 0.017438 -0.018568 -0.0039354 -0.15799 0.019083 
-0.17641 -0.11261 0.099974 0.011191 0.012835 0.022042 -0.028926 0.013657 
-0.27472 0.65191 0.091425 0.050157 0.036017 0.037497 0.078436 -0.003771 
-0.18594 0.49901 0.11346 -0.00097594 0.068736 0.03947 0.092904 0.0095465 
-0.063946 0.60621 0.12595 -0.0060728 0.03536 0.03536 0.068407 0.070873 
-0.047998 1.1509 0.03092 0.0023123 0.046704 0.016288 0.075312 0.058871 
-0.096336 0.2856 -0.11787 0.0090533 0.041936 0.021878 0.065447 0.11822 
-0.13678 -0.66948 -0.22063 0.074654 0.047197 0.03092 0.071695 0.28445 
-0.1912 -0.096994 -0.25302 0.097672 0.077285 0.038483 0.064625 0.40447 
-0.25434 1.2167 -0.10209 0.1026 0.080409 0.056898 0.1031 0.24137 
-0.1575 1.4212 0.077614 0.080244 0.071695 0.054432 0.06035 -0.073811 
0.077449 0.23529 0.14157 0.0075736 0.034537 0.026481 0.025495 -0.25056 
0.3826 -0.57166 0.062817 -0.012485 0.0016547 0.0060938 0.082546 -0.22622 
0.64435 -0.93945 0.18284 -0.017582 -0.047505 -0.00031829 0.055747 -0.109 
0.77177 -1.6042 0.40907 -0.10554 -0.091075 -0.038627 -0.070523 -0.024323 
0.58549 -0.55604 0.45149 -0.13711 -0.038791 -0.045039 -0.13892 -0.0031133 
0.20849 1.1424 0.26866 -0.071838 -0.028269 -0.0077169 -0.080552 0.018589 
-0.065591 1.8 0.05065 -0.078415 -0.013471 0.0067515 0.0014903 0.0075736 
-0.31681 1.7418 -0.082361 -0.010512 0.0065871 0.024673 0.04095 0.03651 
-0.37288 1.1101 -0.28344 0.070051 0.037004 0.038977 0.036839 0.038155 
-0.32832 0.43801 -0.5511 0.14798 0.067585 0.064296 0.039305 0.060679 
-0.25006 -0.47317 -0.46216 0.19533 0.08008 0.051965 0.042923 0.084519 
-0.16424 -1.1603 -0.1524 0.11477 0.06742 0.047033 0.042923 0.076134 
-0.040271 -1.2226 0.11346 0.051308 0.058871 0.055254 0.041114 0.088465 
0.13713 -1.6091 0.29859 0.018589 0.017767 0.01152 0.009711 0.026152 
0.34939 -1.091 0.305 -0.018239 -0.0088678 0.0023123 0.0028056 0.057227 
0.44228 -0.30169 0.2736 -0.042244 -0.010348 -0.0052507 -0.019061 0.011191 
0.43768 -0.0019624 0.21243 -0.051615 -0.013471 0.0047785 -0.054904 -0.0503 
0.2685 0.1562 0.1294 -0.055397 0.017438 -0.0082102 0.0064227 -0.047998 
-0.046354 0.77111 -0.024323 -0.0057439 0.038648 -0.011827 0.028947 -0.0013048 
-0.30991 1.2676 -0.071016 0.0039565 0.048348 0.024673 0.027632 0.060844 
-0.3497 1.049 -0.035996 0.040128 0.03536 0.027468 0.015465 0.041607 
-0.28541 0.56971 0.048184 0.07449 0.057884 0.035195 0.067256 0.07301 
-0.24316 -0.077428 0.070873 0.061995 0.060022 0.071366 0.08304 0.09685 
-0.15668 -0.59566 0.18004 0.044073 0.048184 0.083204 0.087808 0.055254 
-0.071509 0.27409 0.17791 0.035853 0.04917 0.071037 0.084026 0.0227 
0.041114 1.1919 0.028619 0.021549 0.064296 0.049992 0.11017 -0.023007 
0.14437 1.4416 -0.0022913 0.015137 0.027468 0.0083956 0.10228 0.01563 
0.2486 1.0932 0.082217 -0.028104 0.01152 0.015301 0.010862 0.014643 
0.26998 0.48832 -0.0060728 -0.02235 0.012013 -0.0032777 -0.05441 0.029934 
0.27951 -1.0937 -0.14796 0.036346 -0.0019624 -0.068386 -0.062467 0.042758 
0.31914 -3.1679 -0.20616 0.04917 -0.0077169 -0.096829 -0.09946 0.072353 
0.37027 -3.6434 -0.33622 0.09422 -0.01528 -0.10883 -0.13596 0.035688 
0.32489 -2.495 -0.34641 0.14585 -0.006566 -0.059836 -0.10127 -0.063453 
0.07301 -0.98072 0.013492 0.098494 -0.031886 0.049992 0.029276 -0.19153 
-0.088773 0.55524 0.43242 0.034866 0.013492 0.085177 0.10441 -0.29067 
-0.25154 1.3619 0.66161 -0.023501 0.031085 0.084026 0.14058 -0.21175 
-0.31336 1.6828 0.53321 -0.001798 0.055254 0.10918 0.14305 -0.074798 
-0.31731 1.7921 0.14404 0.090767 0.096357 0.13828 0.1396 0.039799 
-0.23905 1.6451 -0.10275 0.069558 0.088301 0.10343 0.085835 0.11773 
-0.1279 1.3359 -0.26026 0.080244 0.070544 0.077285 0.050814 0.095206 
-0.045696 0.96233 -0.34772 0.096028 0.054596 0.051472 0.032236 0.12825 
0.0083956 0.45412 -0.30465 0.054432 0.055418 0.031907 0.023028 0.17856 
0.067256 -0.12231 -0.16013 0.034373 0.025495 0.030098 0.0088889 0.26044 
0.079916 -0.53417 0.073832 0.021713 0.044238 0.033222 -0.004593 0.28214 
0.063145 -0.93501 0.15028 -0.0067304 0.052294 0.031742 0.011355 0.16311 
0.040621 -0.97496 0.18794 0.025824 0.048677 -0.0057439 0.0072447 0.07301 
-0.015116 -0.64827 0.19665 0.0028056 0.0072447 -0.011005 -0.0096899 0.010369 
-0.020048 -0.24283 0.18859 0.010862 0.0080668 -0.038791 -0.0034422 0.010862 
-0.042901 0.61212 0.091589 0.032236 -0.0029489 -0.052437 0.064296 -0.012485 
-0.12314 1.5115 -0.036325 -0.0027845 0.0042853 -0.029091 0.13713 -0.092883 
-0.11393 1.3079 -0.12807 0.032236 0.0085601 -0.036489 0.15933 -0.15224 
0.019905 0.067091 -0.1501 0.066105 0.023851 0.020233 0.13582 -0.15158 
0.24466 -0.38653 -0.17936 0.1026 0.0047785 -0.0050863 0.082711 -0.015938 
0.27425 -0.68017 -0.13366 0.08978 0.0227 0.034373 -0.02498 -0.03764 
0.12349 -2.0371 0.036017 0.08715 0.040292 0.043745 -0.054904 0.012506 
0.052459 -3.5995 0.21605 0.053445 0.040292 0.052952 -0.067892 0.014479 
0.11691 -2.4946 0.31848 -0.0088678 0.022864 0.028454 -0.032215 0.041443 
0.043251 1.0121 0.10014 -0.0098543 0.031907 0.019083 -0.00031829 0.06479 
-0.01117 3.3681 -0.16292 0.024179 0.055418 0.05065 0.082382 0.073997 
0.1368 3.8607 -0.32405 0.021713 0.017603 0.037004 0.14552 0.047691 
0.4413 2.5312 -0.37567 0.0060938 -0.00081153 0.013986 0.051801 0.020069 
0.39608 0.38737 -0.37535 0.04917 -0.030242 0.02533 0.024508 0.01711 
0.12168 -2.1362 -0.071838 0.06035 0.02681 0.035195 -0.016595 0.086821 
-0.047834 -3.8063 0.35958 -0.020048 0.012835 -0.0044286 -0.089102 0.11707 
-0.17131 -2.2569 0.54784 -0.020377 -0.012978 -0.025145 -0.091897 0.13384 
-0.11064 -0.58908 0.55392 -0.04619 -0.0077169 -0.017417 -0.062631 0.12792 
0.030592 0.25304 0.40348 -0.023994 -0.018075 -0.013636 0.011191 0.09685 
-0.0050863 1.0967 0.1442 0.061995 -0.0019624 0.016781 0.11872 0.04654 
-0.14385 1.6428 -0.012814 0.032071 0.03799 0.037661 0.16229 0.0031344 
-0.15898 1.6011 -0.086636 0.020398 0.036182 0.046868 0.13565 0.005765 
-0.088773 1.2198 -0.10653 0.028125 0.052952 0.023522 0.065612 0.0075736 
-0.06 0.72968 -0.063618 0.04506 0.083862 0.035524 0.047197 0.026646 
-0.030242 0.2537 -0.046025 0.062488 0.049828 0.069064 0.049664 0.034373 
0.054432 -0.066248 -0.0027845 0.038483 0.0592 0.050486 0.012013 0.039634 
0.09981 -0.27193 0.01267 0.0039565 0.045389 0.042758 -0.033694 0.028619 
0.11444 -0.37896 0.027303 0.012506 0.037661 0.046046 -0.021034 0.0051074 
0.10787 -0.3982 0.097015 -0.023994 0.044896 0.030756 -0.021528 0.0064227 
0.1031 -0.3303 0.18366 -0.023007 0.027468 0.037004 -0.062796 0.0074092 
0.068078 -0.17739 0.25748 -0.0138 0.040621 0.038319 -0.11015 0.041443 
0.069393 0.23331 0.24022 -0.022843 0.0051074 0.043909 -0.078579 0.055747 
0.11806 0.7259 0.21523 -0.015116 -0.021856 0.019576 -0.045203 0.060022 
0.1128 1.0639 0.1077 0.017274 -0.00031829 0.013821 0.00297 0.12776 
0.020727 1.0602 -0.042244 0.038483 0.012506 0.025659 0.083204 0.18744 
-0.083183 0.41022 -0.1381 0.058542 0.0324 0.013328 0.13499 0.16327 
-0.027775 -0.27357 -0.32208 0.04358 0.031414 0.018918 0.13368 0.13499 
0.10902 -1.6369 -0.19367 0.019411 0.0039565 -0.02087 0.073668 0.10376 
0.19106 -2.2416 -0.015773 0.031907 0.0056006 -0.018075 0.022206 0.015794 
0.12792 -1.0675 0.011026 0.023193 0.012999 -0.019061 0.017932 -0.15125 
0.070215 -0.28212 0.1539 -0.001798 0.032564 -0.012649 0.018425 -0.27505 
0.054925 0.31273 0.40529 -0.026296 0.037004 0.019411 0.033387 -0.22655 
0.12891 0.2297 0.43982 -0.028597 0.049335 0.034373 0.0037921 -0.018404 
0.091425 -0.37107 0.26126 0.016781 0.050486 0.046704 0.016945 0.11395 
-0.092883 0.17117 -0.06148 0.026646 0.015137 0.037497 -0.01528 0.15587 
-0.25812 0.99554 -0.32405 0.077121 0.007738 0.023851 0.0075736 0.15292 
-0.24102 1.2016 -0.33095 0.12661 -0.012156 0.0095465 0.01004 0.13549 
-0.15585 1.3462 -0.43322 0.14848 -0.0044286 0.010369 0.020398 0.072846 
-0.054904 2.1159 -0.56031 0.13335 0.0083956 0.005765 0.023851 0.088794 
0.031085 1.9194 -0.26387 0.1299 0.011191 -0.0057439 -0.0054151 0.13762 
0.086492 -0.39244 0.20997 0.037497 0.021713 0.0072447 -0.00097594 0.094713 
0.092082 -2.2541 0.43094 0.026646 0.04654 0.039799 0.026974 0.042594 
0.13105 -2.3894 0.3854 -0.013143 0.064954 0.065118 0.048019 -0.030735 
0.19994 -1.3589 0.32736 -0.024652 0.068736 0.039305 0.056404 -0.11491 
0.1978 0.074654 0.232 -0.0022913 0.059693 0.0067515 0.095371 -0.07266 
0.075641 1.0817 0.0014903 0.0016547 0.057227 0.012999 0.1396 -0.059507 
-0.056219 1.2167 -0.21225 0.03388 0.038648 -0.00097594 0.076792 -0.05326 
-0.098967 0.9523 -0.25204 0.081067 0.025824 0.014643 0.020891 -0.099789 
-0.12938 0.70337 -0.1815 0.042758 0.025001 0.0056006 -0.017417 -0.13727 
-0.15536 0.44771 -0.1136 0.041443 0.005765 0.016288 0.023686 -0.060823 
-0.13168 0.22164 -0.041093 0.01415 0.017438 0.029605 0.047526 0.012835 
-0.065097 -0.27949 -0.00064712 0.037826 0.020891 0.045882 0.060186 0.13927 
0.052294 -0.84146 0.038319 0.080244 0.043251 0.080573 0.055089 0.14124 
0.14765 -0.6731 0.046211 0.044567 0.028454 0.045882 0.035031 0.11198 
