0.028619 0.063145 0.055089 0.046868 0.060186 0.043909 0.058542 0.14453 
-0.0019624 0.0092177 0.019905 0.071202 0.03388 0.023193 0.051801 0.12365 
-0.038462 -0.15273 0.026481 0.051801 0.0227 0.035524 0.046211 0.12217 
-0.017582 -0.30021 0.024508 0.027961 0.0227 0.018096 0.040785 0.076956 
0.027632 -0.19729 0.025495 0.024673 0.014808 -0.0062372 0.016123 0.041114 
0.059857 -0.28508 0.033551 0.00066819 0.017438 -0.0013048 0.004943 0.00083261 
0.090931 -0.56919 0.054103 0.0036276 0.021549 0.0024767 -0.0026201 -0.035667 
0.088958 -0.43421 0.03536 0.037661 0.033222 0.007738 0.023357 -0.028926 
0.038977 0.025659 -0.0024557 0.02533 0.017932 0.020398 0.040456 -0.039778 
0.0092177 0.29793 -0.003771 0.032729 0.015794 0.022864 0.043087 -0.015116 
0.00297 0.24663 0.0019835 0.020233 0.010697 0.0026412 0.057227 -0.004593 
0.025001 0.14486 0.024179 0.01267 0.034537 0.0065871 0.047362 0.026481 
0.023686 0.24055 -0.015938 0.047197 0.037826 0.032236 0.047033 0.074326 
-0.019226 0.35728 -0.035338 0.060022 0.055418 0.039963 0.039141 0.065612 
-0.035174 0.18152 -0.031721 0.090109 0.045553 0.078107 0.05065 -0.001798 
0.020069 -0.37025 0.0013258 0.058542 0.021384 0.0062583 0.01267 -0.059507 
0.15982 -0.56705 0.072024 0.038977 0.026646 -0.022679 -0.019884 -0.028104 
0.24795 -0.099131 0.13253 -0.011663 -0.029255 0.0036276 -0.048327 0.051965 
0.24762 0.19237 0.1202 0.016452 0.013164 0.027303 -0.0055795 0.13203 
0.10606 0.14946 0.048677 0.0059294 0.043251 0.070544 0.040456 0.13845 
0.029112 -0.14106 0.018425 0.067585 0.082382 0.071037 0.05624 0.11494 
-0.0062372 -0.49751 0.025001 0.046868 0.087972 0.028619 0.031578 0.055254 
-0.064604 -0.44078 0.023851 0.070051 0.060844 0.019411 0.019247 0.00066819 
-0.1284 -0.18643 0.02681 0.083368 0.040785 0.0087245 -0.0059084 -0.071016 
-0.093541 -0.19597 0.021713 0.076134 0.02533 0.0036276 0.0041209 -0.034516 
-0.030406 -0.23576 0.028454 0.0421 0.030592 0.012835 0.027468 0.0095465 
0.05476 0.043087 -0.011498 0.012835 0.01415 0.023686 0.027139 0.026974 
0.11 0.32982 0.03947 -0.016924 0.026152 0.024673 -0.0026201 0.025824 
0.14848 0.41499 0.074326 0.018425 0.038155 0.028125 0.0087245 0.0083956 
0.074819 0.3706 0.057884 0.024508 0.031414 0.054432 0.066105 0.031085 
-0.029091 0.34232 0.0028056 0.0056006 0.01152 0.036182 0.06742 0.037168 
-0.13284 0.24926 -0.035832 0.01004 -0.017746 0.0324 0.11559 0.043251 
-0.12609 0.14321 -0.024652 -0.0042642 -0.016595 0.0019835 0.077943 0.067913 
0.023686 0.042923 0.034866 0.026974 -0.0088678 0.028619 0.021713 0.053938 
0.11362 -0.11294 0.11115 0.0016547 0.013821 -0.0013048 -0.023007 0.079422 
0.159 -0.16079 0.11888 0.033387 0.051965 0.013492 -0.041422 0.076299 
0.10178 -0.082032 0.06331 0.070873 0.040456 0.038977 0.0021479 0.077285 
0.044402 -0.086964 0.030592 0.041278 0.038155 0.020727 0.021056 0.060844 
0.050814 -0.078415 0.021713 0.025824 0.036839 -0.0014692 0.017274 0.00033937 
0.075312 -0.036654 0.041278 0.039305 0.033715 0.03388 0.021549 -0.0040998 
0.084355 0.027961 0.04358 0.014479 0.034537 0.013164 0.04506 -0.042079 
0.038977 0.091425 0.027303 0.066598 0.042758 0.025495 0.00099702 -0.028597 
0.0075736 0.18596 0.029276 0.039963 0.060515 0.0088889 0.0095465 -0.0088678 
1.0539e-005 0.2121 0.020069 0.029112 0.030098 0.021384 0.037332 -0.03616 
-0.062138 0.22131 0.013164 0.053116 -0.014951 0.013492 0.052459 -0.019884 
-0.10916 0.25041 -0.013143 1.0539e-005 -0.0067304 0.017932 0.067749 0.021056 
-0.13218 0.26291 0.0079024 -0.0034422 0.00050378 0.043909 0.075312 0.052459 
-0.015773 0.20717 0.050486 -0.025967 -0.0087034 0.026152 0.034209 0.05213 
0.089452 0.19402 0.081724 -0.032872 -0.0013048 -0.013965 0.0062583 0.024344 
0.09126 0.24137 0.055911 0.031742 0.0069159 0.011848 -0.004593 0.039141 
0.025166 0.24219 0.053774 0.038483 0.020069 0.019083 0.015465 0.027632 
-0.036983 0.19336 0.047197 0.034866 0.036182 0.0067515 0.046704 0.029276 
0.0062583 0.17084 0.028619 0.041114 0.024344 0.017767 0.028619 0.021056 
0.080573 0.15094 0.030592 0.036839 0.01415 0.017603 0.024179 0.015301 
0.059693 0.18629 0.011191 0.032071 0.044238 0.029934 0.032071 0.035195 
0.040456 0.17018 0.023357 0.041607 0.051143 0.054596 0.051801 0.027632 
0.096193 0.16344 0.032729 0.042594 0.085506 0.05772 0.01711 0.041114 
0.14979 0.16327 0.027139 0.087808 0.043087 0.035195 -0.00064712 0.04654 
0.051143 0.18317 0.038155 0.038812 0.016781 0.041607 0.041936 0.030263 
-0.059014 0.19369 0.062817 -0.017746 0.015959 0.027139 0.10277 0.044896 
-0.081374 0.14042 0.044731 -0.0049219 -0.009361 0.015137 0.060515 0.00083261 
-0.053917 0.13335 0.046375 -0.0013048 -0.0039354 -0.0029489 0.052787 0.0018191 
0.034044 0.16475 0.024837 0.018918 0.0083956 0.0047785 0.043745 0.0023123 
0.0036276 0.13335 0.011191 0.01711 0.021549 0.027961 0.057555 0.0062583 
-0.0016336 0.087643 0.011191 -0.012978 0.0227 0.022042 0.012835 0.01152 
0.024837 0.079916 0.015794 0.021549 0.025988 0.020891 0.0041209 0.010204 
0.072353 0.036839 0.047362 0.00297 0.036675 0.043416 0.01974 0.020727 
0.10984 0.032564 0.056898 0.0227 0.051143 0.023028 -0.0098543 -0.018239 
0.088465 0.068242 0.019411 0.040456 0.039141 0.010204 0.01152 -0.034188 
0.013164 0.075805 0.0067515 0.028125 0.042429 0.043087 0.047526 0.037168 
-0.013471 -0.0078813 0.069722 0.048841 0.053116 0.059528 0.073175 0.095206 
-0.023501 -0.091568 0.053938 0.01711 0.026974 0.029112 0.058049 0.067091 
0.013657 -0.060987 0.0023123 0.036675 0.0074092 0.024673 0.032893 -0.026296 
0.039634 -0.039613 -0.0024557 0.072517 0.022042 0.025495 0.030592 -0.0050863 
-0.0082102 0.00297 -0.0060728 0.051965 0.010533 0.022371 0.067091 0.023522 
-0.038462 0.12661 -0.0032777 0.060515 0.0052718 0.021549 0.056569 0.060186 
-0.017253 0.13582 0.015301 0.025659 -0.0021268 0.038155 0.044402 0.0786 
0.040128 0.024508 0.045553 -0.026953 0.014643 0.017438 0.021056 0.03799 
0.099974 -0.16194 0.1641 -0.016595 0.0082312 -0.0080457 -0.027775 0.0227 
0.15653 -0.24266 0.1516 -0.044546 -0.0088678 -0.012649 -0.061151 0.0046141 
0.17725 -0.20764 0.055418 -0.0073881 0.024508 -0.0054151 -0.07003 -0.003771 
0.14437 -0.15405 -0.028597 0.057884 0.054103 -0.0027845 -0.039449 0.020069 
0.069722 -0.16884 -0.036654 0.070051 0.072517 0.010369 0.0036276 0.049335 
0.01826 -0.1478 0.0011614 0.11461 0.086985 0.028783 0.063968 0.075641 
-0.00081153 -0.081374 0.019083 0.096357 0.086492 0.043745 0.090438 0.019083 
-0.037147 -0.028762 -0.0060728 0.069558 0.099481 0.058213 0.1105 0.0019835 
-0.0077169 0.022206 -0.015938 0.072681 0.039634 0.086985 0.055418 0.0060938 
0.0074092 0.038812 -0.0022913 0.038977 0.019247 0.063639 0.027961 0.033387 
0.0034632 0.060186 0.022371 -0.0021268 0.012506 0.038319 0.041114 0.07301 
0.012342 -0.034516 0.065612 -0.018733 0.010204 -0.015116 0.0019835 0.079587 
0.037661 -0.13892 0.10589 -0.059178 -0.025802 -0.011498 -0.025309 0.084848 
0.043416 -0.15125 0.10672 -0.021856 -0.0091966 -0.018568 0.0067515 0.088794 
0.072024 -0.11968 0.06479 0.017438 0.021384 -0.019226 0.0088889 0.069558 
0.13434 -0.12149 0.024179 0.041278 0.040128 0.024015 -0.032708 0.064625 
0.11724 -0.12396 0.012177 0.06479 0.033222 0.014808 -0.023829 0.020069 
0.043745 -0.12314 0.0032988 0.045718 0.044238 0.013492 0.032071 0.01415 
-0.04882 -0.02942 -0.009361 0.068407 0.042758 0.020891 0.098494 0.0059294 
-0.10094 0.041114 -0.024816 0.063145 0.045224 0.0095465 0.10343 0.022042 
-0.089924 0.071859 -0.013307 0.025988 0.047526 -0.011827 0.082875 0.00099702 
-0.041751 0.065447 0.011848 0.054925 0.058871 -0.0019624 0.091425 -0.043395 
0.01563 0.12743 0.043087 -0.0087034 0.067091 0.030756 0.041443 -0.0044286 
0.037168 0.12381 0.066598 0.0042853 0.056733 0.025988 -0.0047575 -0.0039354 
0.035195 0.08863 0.017603 0.018425 0.060515 0.031742 -0.025638 0.0062583 
0.047691 0.1008 -0.0098543 0.018425 0.03651 0.04506 0.018918 0.054596 
0.08978 0.11576 0.0060938 0.0062583 -0.01117 0.034209 0.0011614 0.05213 
0.12283 0.065118 -0.001798 -0.0021268 -0.0029489 0.011026 -0.0077169 0.090603 
0.064625 -0.033201 0.059528 -0.025638 0.0062583 0.011355 0.015137 0.066434 
0.0093821 -0.10784 0.090274 0.016123 0.017438 0.021384 0.050157 0.049992 
0.024015 -0.18101 0.094055 0.022371 0.037661 0.00033937 0.0082312 0.031907 
0.063474 -0.14122 0.069393 0.044073 0.029769 0.016288 0.0044497 0.020233 
0.10655 -0.047669 0.01826 0.11444 0.039799 0.059528 0.011191 0.031085 
0.15916 -0.057534 0.0036276 0.093398 0.06331 0.036017 0.021878 0.025166 
0.11691 -0.0059084 0.0023123 0.091753 0.062817 0.044402 0.029605 0.039634 
0.025988 0.12102 0.00033937 0.054596 0.066763 0.059364 0.061337 0.027139 
-0.020377 0.1664 -0.010348 0.0227 0.04917 0.048513 0.08156 0.038812 
-0.066084 0.14453 0.017767 0.025824 0.028619 0.011355 0.071366 0.022206 
-0.05885 0.14667 0.017603 -0.01232 -0.011663 0.01415 0.055418 0.011684 
-0.070523 0.19484 0.03651 -0.01117 -0.0021268 0.0085601 0.059035 0.013986 
-0.040106 0.18629 0.021056 0.024673 -0.0064016 0.011684 0.073997 0.0056006 
-0.058192 0.1835 -0.006566 0.018425 0.031085 0.033222 0.057884 0.024344 
-0.023994 0.1664 0.027632 0.0092177 0.049006 0.051801 0.029441 0.020727 
0.0324 0.1003 0.020891 0.012999 0.048184 0.036346 0.027139 0.022535 
0.0072447 0.090767 -0.011498 0.035688 0.041443 0.023357 0.042429 0.06594 
-0.056219 0.15818 -0.045203 0.078272 0.03947 0.041936 0.054432 0.073668 
-0.025802 0.082875 0.031907 0.03536 0.027139 0.03799 0.045718 0.06183 
0.07301 -0.0055795 0.11444 0.0080668 0.031414 0.018754 0.019083 0.017438 
0.11346 0.09685 0.10885 0.0013258 0.0042853 -0.0055795 -0.0091966 -0.037476 
0.054267 0.19912 0.037826 -0.011334 0.021878 0.024179 0.023357 -0.027775 
-0.0068948 0.2126 -0.017746 0.033715 0.015794 0.014972 0.031414 -0.028433 
-0.0036066 0.15176 -0.031392 0.034537 0.011355 0.018918 0.039141 -0.016102 
0.061172 0.058542 0.016945 0.053774 -0.0024557 0.024015 -0.0059084 0.0075736 
0.10524 0.018096 0.066269 0.039799 0.018918 0.025166 0.00297 0.0018191 
0.11181 0.066434 0.090603 0.0039565 0.028619 -0.0027845 0.013821 0.020398 
0.11872 0.13713 0.089616 0.021384 0.016781 0.031085 0.028783 -0.0082102 
0.060844 0.18843 0.089287 0.04917 0.030592 0.027303 -0.016102 0.034209 
0.038155 0.22 0.037004 0.027961 0.022206 0.014315 0.0069159 0.083862 
0.0042853 0.19237 -0.0026201 0.048513 -0.019555 0.023357 0.059035 0.11181 
-0.037805 0.066763 -0.026131 0.026974 -0.001798 0.036182 0.032729 0.089287 
-0.017911 -0.19252 0.0069159 -0.024323 -0.032379 0.044402 0.018589 0.060679 
-0.031064 -0.42483 0.02829 0.047197 0.0052718 0.028783 0.045224 0.023522 
-0.081703 -0.45443 0.0019835 0.029276 0.026974 0.047691 0.077449 0.0083956 
-0.15947 -0.070687 -0.0052507 0.035853 0.019083 0.030427 0.072846 0.004943 
-0.17805 0.27096 -0.0050863 0.046211 0.020562 0.011191 0.056569 0.012999 
-0.055561 0.34643 0.013821 0.031578 -0.010348 0.012506 0.025824 0.0041209 
0.10063 0.20487 0.046211 0.041772 -0.00015387 0.01152 -0.0049219 -0.0091966 
0.24433 0.16212 0.12957 -0.028762 -0.01117 -0.032543 -0.047176 -0.029255 
0.2925 0.1733 0.10754 -0.021692 0.0082312 -0.013636 -0.085978 -0.035996 
0.20043 0.25189 0.043909 0.020069 0.02533 0.01563 -0.034023 0.02533 
0.098166 0.34561 -0.052437 0.050321 0.049992 0.018096 0.009711 0.018918 
-0.04471 0.3489 -0.046519 0.099152 0.056404 0.027961 0.051801 0.059035 
-0.12297 0.24729 -0.0067304 0.053116 0.034537 0.044402 0.076134 0.024344 
-0.12182 0.13894 0.071366 0.024673 0.0037921 0.0014903 0.09833 0.0083956 
0.021878 -0.020377 0.14206 -0.020541 -0.037476 -0.011334 0.00297 0.00050378 
0.15999 -0.24677 0.17117 -0.073976 -0.023665 0.0070803 -0.039613 -0.0087034 
0.13302 -0.29314 0.074654 0.0021479 0.01826 0.023686 0.0047785 0.058706 
0.029112 -0.088773 -0.020541 0.065447 0.076463 0.026152 0.070544 0.065612 
-0.0087034 -0.013307 -0.051451 0.083862 0.077778 0.041443 0.060515 0.059857 
-0.0060728 -0.24694 -0.025638 0.078765 0.060186 0.036182 0.034209 0.051965 
0.03799 -0.64926 0.066269 0.022042 0.02829 0.0028056 -0.024816 0.018918 
0.074654 -0.632 0.089452 0.020069 0.03388 0.010369 -0.0057439 0.064461 
0.029769 -0.13826 0.092247 0.061172 0.022371 0.0227 0.0093821 0.061666 
-0.021034 0.31536 0.0056006 0.034702 0.023193 0.0051074 0.031578 0.016123 
-0.034681 0.36534 0.034209 0.0056006 0.024344 -0.0022913 0.037004 -0.0024557 
-0.023007 0.32292 0.028619 0.027303 0.024508 1.0539e-005 0.055418 -0.001798 
-0.012156 0.29382 -0.010019 0.030427 0.036017 0.046375 0.046868 0.040292 
0.01152 0.31404 -0.029584 0.12168 0.070544 0.066269 0.086657 0.059035 
-0.00097594 0.28856 -0.027282 0.083697 0.10293 0.08978 0.092082 0.11461 
0.021384 0.29168 -0.011498 0.044402 0.050814 0.051965 0.016452 0.11806 
0.063474 0.21868 0.025988 0.018918 0.0324 0.0051074 -0.042901 0.10524 
0.072846 0.13203 0.048019 -0.019884 0.033058 -0.02235 -0.049971 0.09126 
0.055911 -0.0060728 0.10704 -0.034516 0.01826 -0.017088 -0.028104 0.023686 
0.084684 -0.25664 0.17314 -0.067235 0.028125 -0.021692 -0.045532 -0.0406 
0.20865 -0.43552 0.19583 -0.043395 0.040621 0.0031344 -0.044052 -0.024816 
0.21967 -0.39195 0.11115 0.034866 0.048841 0.029112 0.010204 0.0074092 
0.1756 -0.22392 -0.0004827 0.061501 0.051143 0.05065 0.056076 0.039305 
0.15324 -0.2037 0.0018191 0.087808 0.016945 0.042594 0.06035 -0.065097 
0.17643 -0.32257 0.0074092 0.10639 0.053938 0.026974 0.055911 -0.06148 
0.023686 -0.12314 -0.0036066 0.086492 0.077943 0.058049 0.089123 -0.010183 
-0.11935 0.13039 -0.021034 0.090438 0.035853 0.037497 0.1077 0.0786 
-0.16736 0.26143 -0.0095255 0.035031 0.045718 0.036839 0.11576 0.18958 
-0.13251 0.27179 0.023193 -0.0044286 0.024179 0.055582 0.097344 0.14486 
-0.071838 0.25995 0.021713 0.033058 0.036017 0.040621 0.05213 0.12431 
-0.0095255 0.19435 -0.0073881 -0.013143 0.012177 0.028947 0.021384 0.093069 
0.01152 0.16755 0.01826 -0.014787 0.033387 0.021549 -0.014622 0.077778 
0.0051074 0.17593 0.055911 1.0539e-005 0.037661 0.028619 -0.0087034 0.050979 
0.018425 0.12431 0.07597 -0.004593 0.043416 0.00017495 0.016616 0.013986 
0.037826 0.1276 0.038977 0.039799 0.034209 0.0087245 0.023522 0.012835 
0.048348 0.15604 0.014808 0.025988 0.022371 0.017932 0.031742 0.0011614 
-0.0059084 0.14239 0.0023123 0.0046141 0.0079024 0.022371 0.047691 0.024015 
-0.05326 0.070051 0.016288 0.023028 0.0016547 0.019247 0.050979 -0.0021268 
-0.0052507 0.013821 0.053281 0.0092177 0.040128 -0.015116 0.022864 -0.006566 
0.087972 0.029605 0.047691 0.026646 0.051143 0.02829 0.0074092 -0.01117 
0.073504 0.14404 0.014808 0.051965 0.077778 0.027303 0.036017 0.010697 
0.0088889 0.14124 0.017767 0.04506 0.027796 0.012506 0.026481 0.0065871 
0.099316 0.047855 0.059693 0.017438 -0.011663 -0.0072237 -0.015116 -0.0054151 
0.15982 -0.0083746 0.029934 -0.031886 -0.031228 -0.016595 -0.040271 0.015794 
0.069064 -0.025802 0.037004 -0.027611 -0.01939 0.0090533 0.028454 0.053609 
0.0074092 -0.01528 0.053609 0.01563 -0.011005 0.048841 0.053116 0.066105 
-0.011992 -0.008539 0.034373 0.032236 0.022371 0.054432 0.081724 0.054267 
0.033058 -0.0013048 0.03388 0.06035 0.043909 0.032564 0.061666 -0.0052507 
0.12842 -0.0014692 0.058377 0.046704 0.039305 0.050814 0.025495 -0.014129 
0.11559 0.01563 0.03092 0.060844 0.032564 0.043745 0.0032988 -0.0088678 
0.0016547 0.13072 -0.0083746 0.080573 0.021056 0.022206 0.01267 -0.023007 
-0.11475 0.19961 -0.041093 0.018096 0.011026 0.012013 0.035195 -0.0060728 
-0.12215 0.16969 -0.045696 0.0069159 0.018425 0.038977 0.028454 0.01004 
-0.13596 0.19944 -0.084991 0.029276 -0.0034422 0.016616 0.06035 0.016288 
-0.18759 0.2297 -0.05589 0.015465 -0.016102 0.0042853 0.089287 0.0065871 
-0.15289 0.079422 0.053938 0.0056006 -0.015773 0.031907 0.090931 -0.02942 
0.092247 -0.12149 0.21506 -0.083183 -0.010019 -0.0039354 -0.015444 -0.02498 
0.37044 -0.21471 0.22674 -0.078415 0.0075736 -0.001798 -0.086307 -0.033037 
0.41959 -0.0771 0.10524 0.032071 0.03799 0.009711 -0.082032 -0.011005 
0.17889 0.073339 -0.057863 0.12233 0.072188 0.043416 0.022206 0.021384 
-0.11672 0.13253 -0.081539 0.11658 0.073832 0.043745 0.069558 0.05065 
-0.15355 0.13286 -0.029584 0.079094 0.053774 0.038319 0.082053 0.064132 
-0.021692 0.10754 -0.015938 0.050814 0.0093821 0.035853 0.049335 0.055418 
0.05213 0.16245 -0.044546 0.051965 0.035853 0.026646 0.032236 0.030098 
-0.024323 0.17166 -0.027611 0.0065871 0.00099702 -0.0040998 0.023028 -0.013307 
-0.0060728 0.12694 0.060022 -0.025638 0.011355 -0.0031133 0.0093821 -0.048327 
0.013657 -0.027447 0.14289 -0.014293 0.0324 -0.0019624 -0.0138 -0.017582 
0.054103 0.0065871 0.10622 -0.039942 0.029441 0.0064227 0.013657 0.0056006 
0.025988 0.042429 0.032729 0.028783 0.032893 0.03947 0.041936 0.074983 
0.0069159 0.007738 -0.010512 0.055747 0.045553 0.029112 0.053116 0.087314 
0.01267 -0.10554 0.01826 0.056404 0.037497 0.031578 0.078272 0.053938 
0.075476 -0.16128 0.020727 0.090767 0.034702 0.017603 0.026974 0.045553 
0.13203 -0.16457 0.0067515 0.061666 0.036839 0.054103 0.0074092 0.0051074 
0.12332 -0.10801 0.027796 0.062323 0.054925 0.05213 0.019576 0.068242 
0.089616 0.010862 0.028783 0.10293 0.082217 0.063968 0.02122 0.083368 
0.044402 0.039963 0.0079024 0.053116 0.068571 0.054103 0.037497 0.11148 
-0.0096899 0.058871 -0.010019 0.035853 0.03536 0.029934 0.043087 0.09685 
-0.034023 0.049006 0.031742 -0.012814 0.0098754 0.015137 0.041114 0.050157 
-0.021692 0.00297 0.046375 -0.025309 -0.0082102 -0.011827 0.024508 0.015959 
-0.0022913 -0.016595 0.035853 0.01826 0.016452 -0.015938 0.014479 -0.07414 
0.01267 0.055911 0.024508 0.0064227 0.03947 -0.012649 0.0047785 -0.094692 
0.025495 0.12447 0.012013 0.015301 0.058213 0.015465 0.024837 -0.028104 
-0.021199 0.20175 0.01711 0.032729 0.072024 0.052787 0.015465 0.054267 
-0.062796 0.23858 0.038648 0.0062583 0.051636 0.0032988 0.038648 0.078272 
-0.14336 0.18596 0.025988 0.011026 0.035688 0.024508 0.076792 0.022042 
-0.1986 0.039634 0.023851 0.025988 0.037004 0.013986 0.086492 0.030263 
-0.13596 -0.043888 0.044073 0.041607 0.011355 -0.0026201 0.047362 0.10096 
0.10902 -0.11722 0.069229 0.078436 0.030592 -0.021363 -0.0080457 0.15357 
0.17593 -0.16523 0.053116 0.051801 0.02681 -0.012649 0.039305 0.16179 
0.16804 -0.12692 0.072517 0.027303 0.051965 0.03799 0.081724 0.13286 
0.28823 -0.085156 0.086657 0.012177 0.062652 0.040621 0.056733 0.12694 
0.36337 -0.082525 0.063474 0.030263 0.055418 0.065447 0.044238 0.072024 
0.30007 0.0227 0.016945 0.086985 0.063968 0.090931 0.028125 0.026974 
0.077121 0.21983 -0.063289 0.077943 0.015794 0.052459 0.0056006 -0.041751 
-0.17838 0.26209 -0.08828 0.073997 0.031907 0.039141 0.028454 -0.066084 
-0.25171 0.12546 0.016123 0.074326 0.053116 0.05624 0.048841 -0.035667 
-0.15733 -0.080059 0.14996 0.00033937 0.061337 0.066927 0.018754 -0.055397 
0.078436 -0.30169 0.20208 -0.035503 0.048677 0.019083 -0.071345 -0.022185 
0.22378 -0.25187 0.13401 -0.011005 0.034866 -0.010183 -0.11771 0.038319 
0.22328 0.021549 0.027468 0.035195 0.051472 0.013986 -0.028269 0.057555 
0.1225 0.17922 -0.0088678 0.078107 0.054267 0.021384 0.05213 0.096686 
-0.024323 0.10359 -0.027611 0.013986 0.023357 0.004943 0.081231 0.044073 
-0.082032 0.032729 0.0016547 -0.0064016 -0.0034422 -0.0031133 0.071037 -0.0090322 
-0.070194 0.076299 0.025166 0.0059294 -0.011663 -0.025309 0.089123 -0.0080457 
-0.0090322 0.067256 0.048677 0.012999 0.026974 -0.031721 0.024508 -0.04323 
0.044238 0.12398 0.024344 0.01415 0.014808 0.01711 0.014808 0.04095 
0.029605 0.16689 0.0069159 0.035524 0.02829 0.048677 0.048841 0.085999 
0.01415 0.12283 -0.012978 0.082546 0.013821 0.056076 0.067749 0.038155 
0.042429 0.046704 -0.010841 0.092247 0.023686 0.045389 0.037004 0.0016547 
0.069886 0.019411 0.01826 0.050486 0.019083 0.043416 0.024508 -0.035174 
0.094548 -0.036654 0.051472 0.018754 0.029769 0.028454 0.038812 0.0052718 
0.11395 -0.08269 0.069393 0.030427 0.033387 0.02681 0.021384 0.020069 
0.1276 -0.013143 0.060844 0.019247 0.029934 0.041443 0.016452 0.071037 
0.10376 0.043909 0.0227 0.010369 0.014972 0.021549 0.0031344 0.078107 
0.07597 0.10129 0.030098 -0.004593 0.031907 0.033387 0.01415 0.11033 
0.0054362 0.12217 0.059528 0.0064227 0.037168 0.028619 0.012342 0.090767 
0.02829 0.093562 0.052459 0.050486 0.025001 0.0087245 -0.0047575 -0.0077169 
-0.0032777 0.0592 0.078929 0.019905 0.018096 -0.020212 0.020727 -0.041422 
-0.055397 0.03947 0.061501 -0.00031829 0.007738 -0.01939 0.029441 -0.061151 
-0.03764 0.050979 0.049499 -0.017746 -0.022021 0.0044497 0.0095465 -0.033365 
0.0039565 0.033387 0.030427 -0.033037 -0.034023 -0.01232 0.0065871 -0.059672 
0.094713 0.052294 -0.028433 0.033058 -0.051944 -0.010348 -0.014951 -0.091568 
0.083204 0.15242 -0.098473 0.044896 -0.038133 0.037497 0.040621 -0.0011404 
-0.023829 0.22772 -0.086142 0.074326 0.0092177 0.041114 0.060022 0.055418 
-0.043724 0.16081 0.042758 0.049335 0.033058 0.038812 0.071695 0.10474 
0.018754 0.019411 0.16673 -0.014622 0.073668 0.055089 0.060844 0.15735 
0.1391 -0.16029 0.18448 -0.0138 0.092904 0.076463 0.011026 0.1225 
0.19024 -0.19054 0.12464 0.031085 0.090603 0.062817 -0.04323 0.11033 
0.095864 -0.065426 0.017603 0.030098 0.049828 0.048841 -0.049642 0.061995 
-0.022843 0.09981 -0.059836 0.07597 0.0042853 0.024673 0.047362 0.022042 
-0.057863 0.183 -0.08384 0.041772 -0.038791 -0.0032777 0.070051 0.0016547 
-0.087951 0.16442 -0.042079 0.043909 -0.049149 -0.0036066 0.061008 0.0018191 
-0.045203 0.14075 0.00066819 0.047691 -0.013965 0.01004 0.0421 -0.0044286 
-0.064275 0.1322 0.048348 0.021384 0.00099702 0.0064227 0.046704 -0.062138 
-0.13793 0.19484 0.036675 0.029276 -0.020706 -0.0016336 0.020562 -0.078086 
-0.1404 0.24581 -0.0059084 0.004943 0.0093821 0.018589 -0.022514 -0.057205 
-0.038133 0.14683 0.036839 -0.035667 -0.0016336 0.023686 -0.04619 -0.028104 
0.13812 0.026646 0.096193 -0.024158 -0.006566 -0.0052507 -0.061973 0.044402 
0.22411 0.020398 0.071366 -0.021363 0.034537 -0.021856 -0.022021 0.0088889 
0.17051 0.083368 0.019411 0.027468 0.049828 -0.0032777 0.031578 -0.030899 
0.0042853 0.14782 -0.022679 0.085999 0.08156 0.0072447 0.10902 -0.010348 
-0.11705 0.14585 0.0039565 0.064954 0.053116 0.022206 0.11214 0.090767 
-0.098967 0.048184 0.044073 0.047691 0.029934 0.043745 0.10047 0.17856 
0.025495 0.029934 0.025001 -0.010512 -0.0503 0.040621 0.10721 0.13565 
0.013657 0.060844 0.03651 0.0054362 0.004943 0.026317 0.12299 0.084684 
-0.084169 0.069886 -0.023501 0.024015 0.028783 0.045224 0.10885 0.045718 
-0.1159 0.10047 -0.041257 0.05213 0.056404 0.051143 0.045882 0.014972 
0.028783 0.09274 -0.033365 0.079422 0.075641 0.046868 -0.03205 0.019247 
0.14305 0.018096 0.052952 0.057227 0.039634 0.025001 -0.038462 -0.01676 
0.12414 -0.067564 0.085177 0.011355 0.044073 0.01415 -0.061973 -0.030735 
0.031907 -0.013471 0.070051 0.036675 0.011684 -0.0090322 -0.022021 -0.020706 
-0.099295 0.14798 -0.025638 -0.0036066 -0.012485 0.0059294 0.071202 0.032071 
-0.19153 0.21309 -0.098967 0.015137 -0.042737 0.023028 0.11296 0.12628 
-0.095514 0.16459 -0.047998 0.018425 -0.023829 0.033222 0.06742 0.11378 
0.14124 -0.085485 0.15308 -0.078086 0.0088889 0.0028056 -0.04619 0.054432 
0.28593 -0.33293 0.28921 -0.078744 0.045882 -0.0080457 -0.0868 -0.027282 
0.19188 -0.22178 0.16311 -0.0014692 0.09274 0.03536 -0.04882 -0.043559 
0.089452 0.029769 -0.045368 0.10211 0.1276 0.059035 0.0042853 -0.024652 
0.2292 -0.0091966 -0.069043 0.15587 0.1562 0.059035 -0.033365 0.023193 
0.22953 -0.11804 0.00017495 0.14552 0.10819 0.069886 0.040292 0.045389 
0.12283 -0.063124 0.01004 0.10343 0.061008 0.035688 0.049664 -0.0021268 
-0.0080457 0.022371 -0.0080457 0.060022 0.044238 0.025659 0.064461 -0.022185 
-0.059178 0.11543 0.018096 0.0090533 -0.0050863 0.028619 0.084355 -0.00064712 
-0.10028 0.19385 -0.019226 0.010369 -0.0138 0.035853 0.07449 0.011684 
-0.11639 0.23068 -0.0087034 0.017767 -0.026789 0.023193 0.058049 0.042923 
-0.089431 0.16525 0.032071 -0.013307 -0.037476 -0.0027845 0.047362 0.0060938 
-0.02087 0.05772 0.11148 -0.023501 -0.012814 -0.00081153 0.055911 0.0024767 
0.03388 -0.033859 0.13187 -0.053095 0.0042853 -0.022514 0.019905 -0.006566 
0.065283 -0.053095 0.056733 -0.0072237 0.031414 0.014808 0.022371 0.005765 
0.01826 0.062652 -0.030406 0.066927 0.035688 0.044731 0.049828 0.055911 
-0.014787 0.11494 -0.044381 0.090274 0.06479 0.061172 0.069558 0.065776 
0.015794 0.010533 -0.0068948 0.1026 0.06594 0.046375 0.012999 0.093398 
0.13121 -0.13004 0.080244 0.049992 0.047526 0.039963 -0.036489 0.069393 
0.13088 -0.11261 0.09274 0.026646 0.044567 0.027303 -0.026624 0.053116 
0.071366 -0.10735 0.081889 0.032893 0.041114 0.01974 0.021878 0.077449 
0.10277 -0.063124 0.053445 0.0018191 0.024344 0.038319 0.025495 0.054103 
0.098166 0.0689 -0.026296 0.045882 0.0227 0.039141 0.035688 0.063474 
-0.05589 0.15686 -0.087458 0.076627 -0.0050863 0.012506 0.067913 -0.016102 
-0.28031 0.26521 -0.0868 0.020727 -0.049642 -0.015773 0.11461 -0.047998 
-0.38603 0.29234 -0.010512 -0.017911 -0.059178 -0.026953 0.093069 -0.064933 
0.037332 0.02122 0.18728 -0.10176 -0.013636 -0.045532 -0.059014 -0.066577 
0.57957 -0.34723 0.37586 -0.14878 0.056404 -0.047998 -0.20238 -0.021692 
0.70847 -0.37058 0.2805 -0.068714 0.12792 0.0079024 -0.20797 0.063145 
0.45527 -0.019226 0.031742 0.12842 0.24893 0.069064 -0.063946 0.16673 
0.018754 0.23759 -0.13925 0.25732 0.19731 0.14913 0.13401 0.18695 
-0.2351 0.25518 -0.19712 0.2953 0.15341 0.14437 0.19385 0.13878 
-0.22458 0.11806 -0.1039 0.14321 0.040621 0.084355 0.13154 0.081395 
-0.12067 -0.056055 -0.0042642 0.056733 -0.029913 1.0539e-005 0.046704 -0.0032777 
-0.050629 -0.12708 0.072681 -0.049642 -0.047012 -0.060987 0.0324 -0.0021268 
0.045718 -0.023994 0.084519 -0.062796 -0.026624 -0.018897 0.00066819 -0.033201 
0.077778 0.072188 0.052952 -0.031886 -0.0016336 -0.006566 -0.00015387 -0.021692 
0.035195 0.059693 0.040785 -0.003771 0.0088889 0.0095465 0.037497 0.022206 
0.013821 0.062323 0.065118 0.047691 0.020398 0.0093821 0.063474 0.015301 
0.039305 0.024179 0.04358 0.032071 0.011684 0.027303 0.027632 0.022535 
0.046211 -0.017911 0.026974 0.0088889 0.01152 0.019905 0.00099702 0.018754 
0.053609 -0.010348 0.0090533 0.059364 0.020727 0.0082312 0.0064227 0.033715 
0.046704 0.072353 -0.0011404 0.040621 0.018096 0.021056 0.016781 0.059528 
-0.023994 0.15571 0.010369 -0.0052507 0.017603 -0.0013048 0.029276 0.044238 
-0.018075 0.21671 0.016123 -0.0014692 -0.0029489 -0.017253 0.012342 0.05065 
0.011848 0.14453 0.066105 -0.035996 -0.0042642 0.029769 0.020727 0.058871 
0.072681 -0.012485 0.13171 -0.02498 -0.011663 0.01267 0.005765 0.049992 
0.11609 -0.053095 0.089123 -0.047834 0.00066819 0.0080668 -0.010348 0.016945 
0.08008 0.058706 0.0087245 -0.0138 -0.003771 0.0092177 0.0054362 -0.010019 
0.015794 0.16262 -0.082525 0.059528 0.0070803 0.025166 0.07038 0.013328 
-0.1381 0.30894 -0.16851 0.1105 0.020398 0.036346 0.10047 0.019247 
-0.20353 0.34298 -0.19318 0.11592 0.0083956 0.0092177 0.08419 0.025495 
-0.026296 0.10852 0.042429 0.05624 -0.0088678 0.023686 0.01711 0.0051074 
0.22296 -0.28985 0.34314 -0.052109 0.012013 0.0023123 -0.05441 0.013986 
0.22575 -0.34394 0.34544 -0.05178 0.070215 0.022371 -0.068714 0.064296 
0.040128 -0.055232 0.1248 0.03947 0.11461 0.086163 0.033387 0.1008 
0.033058 0.072517 -0.050136 0.13631 0.14798 0.099152 0.064132 0.14667 
0.093891 0.13647 -0.12215 0.19468 0.11757 0.061172 0.055089 0.11033 
-0.013143 0.2223 -0.1205 0.10803 0.018425 0.019083 0.057555 0.042758 
-0.11508 0.19944 -0.099789 -0.0019624 -0.055561 -0.0064016 0.062159 0.010533 
-0.045861 -0.015444 0.031907 -0.086964 -0.13037 -0.076771 0.0039565 -0.076771 
0.065118 -0.078908 0.086821 -0.13892 -0.098802 -0.086636 -0.045368 -0.11212 
0.072188 0.013164 0.055911 -0.098967 -0.061316 -0.029584 -0.014951 -0.086964 
-0.014787 0.093891 -0.013143 -0.03353 0.028783 0.041114 0.063145 0.041936 
-0.033694 0.035031 0.00017495 0.058706 0.098659 0.072517 0.11017 0.14091 
0.047033 0.0026412 0.045553 0.12644 0.094877 0.083368 0.068242 0.092082 
-0.012649 0.11609 0.045389 0.057227 0.023522 0.033715 0.044567 -0.031557 
-0.21077 0.26521 0.012013 0.012342 -0.022679 -0.00097594 0.074654 -0.10702 
-0.14862 0.23019 0.065447 -0.0073881 -0.02942 0.0024767 0.036675 -0.05326 
0.08863 0.077285 0.090438 -0.037311 0.036839 0.049992 -0.022679 0.054596 
0.10145 -0.044381 0.073832 0.038648 0.10474 0.062323 -0.021528 0.10162 
0.10935 -0.073811 0.036017 0.1008 0.11954 0.048019 0.030427 0.096686 
0.19172 -0.1838 0.058049 0.068736 0.063639 0.02533 -0.02087 0.072846 
0.22838 -0.17706 0.049664 0.068407 0.026974 0.0014903 -0.041422 0.045718 
0.12233 -0.041093 0.023851 0.022535 0.01563 -0.017417 -0.016431 -0.024816 
0.058213 0.046704 -0.040106 0.063968 0.0064227 -0.028104 0.038483 -0.058521 
-0.0062372 0.11198 -0.031886 0.060679 0.027632 -0.027611 0.042594 0.025824 
-0.073482 0.20027 0.0088889 0.030263 0.021878 -0.019226 0.043087 0.060022 
-0.046847 0.21046 0.059364 0.024837 0.016781 0.0083956 0.046375 0.055747 
-0.072003 0.20701 0.071695 -0.030406 0.01415 0.029112 0.045882 0.078929 
-0.085485 0.19681 0.079422 -0.067399 -0.023336 0.0080668 0.034537 0.11526 
-0.060658 0.096357 0.06331 -0.088115 -0.049314 -0.023007 0.039963 0.13072 
-0.014129 -0.049642 0.058706 -0.10686 -0.029748 -0.0059084 0.03536 0.079094 
0.053116 -0.048163 0.049828 -0.021034 0.0039565 0.013164 0.040456 0.059693 
0.077943 -0.019884 -0.02794 0.040128 0.047033 0.060186 0.054596 0.034866 
0.053116 -0.024652 -0.042573 0.12135 0.088136 0.069064 0.071366 0.030427 
0.0013258 0.034373 -0.021856 0.14733 0.080902 0.069558 0.084519 -0.011005 
0.015301 0.11757 0.025166 0.07301 0.050157 0.03092 0.057227 -0.051287 
0.021878 0.088136 0.064461 0.053938 0.046046 0.012999 0.0051074 -0.049149 
0.12233 0.048019 0.10359 0.052459 0.051636 0.028454 -0.028762 -0.014951 
0.19517 0.00083261 0.099974 0.023357 0.051472 0.026646 -0.058028 0.023357 
0.21983 -0.12429 0.11773 0.012999 0.04654 0.032729 -0.060823 0.084684 
0.14223 -0.109 0.086657 -0.019061 0.048348 0.095535 0.032071 0.12677 
0.016781 0.053609 -0.033037 0.044238 0.056076 0.065283 0.15259 0.1294 
-0.012649 0.13795 -0.10094 0.10672 0.0085601 1.0539e-005 0.16031 0.070544 
-0.077264 0.15094 -0.040928 0.013492 -0.0072237 -0.03057 0.10408 -0.026624 
-0.098144 0.1003 0.053445 -0.020541 -0.018075 -0.023172 0.058377 -0.109 
-0.19054 0.09833 0.060186 -0.0050863 -0.010676 0.0016547 0.058542 -0.13892 
-0.18331 0.085341 0.020398 0.025001 0.013821 0.00099702 0.019247 -0.082854 
0.032564 -0.0091966 0.034537 0.055747 0.028125 0.021878 -0.028762 -0.024323 
0.20668 -0.06444 0.073997 0.051472 0.050321 0.01563 -0.030077 0.093233 
0.29365 -0.1159 0.069229 0.083697 0.056733 0.024344 -0.016595 0.18563 
0.17149 -0.022185 0.017767 0.10589 0.031249 0.045224 0.017932 0.17856 
0.049828 0.068242 0.017603 0.031578 0.010862 0.026317 0.021056 0.1562 
0.1687 0.0013258 0.072353 -0.053095 -0.013965 0.00033937 -0.0138 0.11214 
0.25551 -0.059507 0.1026 -0.046519 0.019083 0.0024767 -0.045368 0.1345 
0.16558 0.018096 0.058213 0.0064227 0.055582 0.037168 0.013164 0.09126 
-0.030735 0.085341 0.0028056 0.081395 0.076627 0.047033 0.078436 0.053281 
-0.16802 0.14157 -0.045368 0.11444 0.058213 0.047197 0.13516 -0.038627 
-0.25204 0.1853 -0.030242 0.10162 0.04654 0.062817 0.10145 -0.17641 
-0.21537 0.099645 0.0026412 0.060844 0.0082312 -0.0098543 0.11658 -0.21077 
-0.07003 0.034702 0.076792 -0.022843 0.023686 -0.034845 0.057391 -0.13053 
0.036675 0.097344 0.052787 -0.0027845 -0.0039354 0.028783 0.017274 -0.091568 
0.016288 0.10491 0.041936 -0.00081153 0.0069159 0.091096 -0.0019624 0.0047785 
0.047526 0.070873 0.046211 0.013328 0.050979 0.10211 -0.0014692 0.062981 
0.14469 0.044567 0.045389 0.036017 0.034537 0.057391 -0.066413 0.0786 
0.20257 0.028454 0.03651 0.029112 0.026317 0.073668 -0.055068 0.049828 
0.081395 0.027632 -0.0031133 0.049828 0.013821 0.034209 0.0014903 0.074161 
-0.056712 0.042429 -0.022021 0.096193 0.046375 0.0227 0.059857 0.10935 
-0.092226 0.074161 -0.047176 0.12529 0.049664 0.023028 0.097837 0.082382 
-0.1376 0.16952 -0.087458 0.13088 0.0072447 0.0056006 0.10803 0.048348 
-0.15585 0.23446 -0.068221 0.028619 -0.020377 -0.017746 0.076299 -0.043066 
-0.0011404 0.11 0.064625 -0.068221 -0.065591 -0.018897 -0.015444 -0.084169 
0.19205 -0.16736 0.24351 -0.12133 -0.040106 -0.060987 -0.048985 -0.064275 
0.2514 -0.25943 0.26126 -0.13432 0.024837 -0.089266 -0.067728 -0.085649 
0.23282 -0.13859 0.14141 -0.032872 0.07449 -0.047176 -0.02942 -0.12725 
0.098001 0.032071 -0.028104 0.070051 0.10178 0.031742 0.027303 -0.050629 
0.020233 0.16722 -0.10225 0.12727 0.14552 0.08715 0.054103 0.089616 
0.032564 0.19961 -0.07266 0.14996 0.13499 0.11905 0.0324 0.1567 
-0.017746 0.052459 0.032071 0.086163 0.12168 0.12299 0.054925 0.15357 
-0.0057439 -0.10061 0.10672 0.059364 0.084848 0.085999 0.03799 0.14058 
0.06183 -0.072003 0.091425 0.064132 0.042429 0.034209 -0.0016336 0.0689 
0.11872 0.077449 -0.014951 0.062159 0.024015 0.030427 -0.027775 0.017767 
0.016123 0.17791 -0.043888 0.045389 0.0088889 0.024015 0.00099702 -0.0059084 
-0.17328 0.29201 -0.059672 0.036346 -0.01117 0.007738 0.070544 -0.022679 
-0.22195 0.32128 -0.048327 -0.033859 -0.06707 -0.017582 0.05065 0.0059294 
-0.15224 0.19698 0.0064227 -0.066248 -0.071509 -0.015609 0.020398 0.029769 
-0.032872 0.0014903 0.10869 -0.11179 -0.06296 -0.022185 -0.0042642 0.044402 
0.20175 -0.25401 0.19353 -0.059178 0.011355 -0.012978 -0.044381 0.012835 
0.32243 -0.29593 0.11033 0.069722 0.053116 0.0082312 -0.052602 0.047033 
0.29974 -0.1187 -0.036489 0.17067 0.13121 0.039963 0.0039565 0.090931 
0.12349 0.06479 -0.091732 0.24005 0.17215 0.053116 0.057391 0.06594 
-0.018404 0.13828 -0.095349 0.19517 0.1562 0.079751 0.088301 0.085177 
-0.085649 0.06183 -0.013965 0.049992 0.047197 0.068736 0.070215 0.062323 
-0.10489 0.046211 0.067749 -0.035174 -0.03616 0.018589 0.059035 0.0028056 
-0.071674 0.082875 0.086657 -0.097651 -0.06 -0.022514 0.047197 -0.021528 
0.024673 0.11576 0.08715 -0.1011 -0.06707 -0.028104 0.009711 -0.087458 
0.036346 0.13845 0.082546 -0.040764 -0.047669 -0.036818 0.033058 -0.099295 
-0.072003 0.21786 0.033222 -0.027118 0.0069159 -0.034188 0.065776 -0.073154 
-0.099789 0.1151 0.016945 0.028619 0.026481 0.026974 0.067749 -0.0080457 
0.038319 -0.12807 0.073504 -0.0042642 0.056076 0.011191 -0.03205 0.085341 
0.22098 -0.145 0.10326 0.032729 0.065283 0.039141 -0.062467 0.11378 
0.21391 -0.018568 -0.010676 0.079587 0.081067 0.044731 -0.047176 0.12529 
0.071202 0.056076 -0.052602 0.098988 0.074819 0.070873 0.054267 0.099316 
-0.091404 0.041278 -0.011498 0.090109 0.052952 0.060679 0.08156 0.070708 
-0.052273 0.044731 0.054103 0.051636 0.018589 0.043087 0.071037 0.072517 
0.037661 0.061008 0.070051 -0.024816 -0.0067304 0.040128 0.060022 0.055418 
0.066269 0.022535 0.042758 -0.0022913 -0.0054151 -0.0049219 0.018754 0.039963 
0.13236 -0.097651 0.059693 -0.0036066 -0.0080457 0.01004 -0.0042642 0.041772 
0.17445 -0.10653 0.076463 0.026974 0.0031344 0.017932 -0.0013048 0.06594 
0.11625 -0.041093 0.059035 0.052294 0.030592 0.02681 0.022042 0.067091 
0.013328 0.058377 -0.0019624 0.053445 0.011848 0.014479 0.038483 0.06183 
-0.049149 0.17988 -0.072496 0.029441 -0.0059084 0.004943 0.058871 0.048841 
-0.070852 0.21194 -0.063124 0.0065871 -0.039942 -0.028104 0.052787 -0.031886 
-0.056877 0.19254 -0.0059084 -0.067564 -0.042408 -0.070852 0.025001 -0.080717 
-0.035503 0.066434 0.059693 -0.058521 -0.035503 -0.051615 0.013657 -0.083018 
0.071037 -0.14139 0.18383 -0.045203 0.007738 0.04917 0.025001 -0.006566 
0.11757 -0.23477 0.16886 0.034044 0.046868 0.043251 0.034866 0.041443 
0.15127 -0.13596 0.021878 0.12135 0.041114 0.052952 0.031742 0.057062 
0.18826 0.011191 -0.088937 0.11329 0.055089 0.079587 0.032893 0.12595 
0.086328 0.11033 -0.041751 0.081889 0.097344 0.1031 0.058377 0.14519 
-0.051287 0.10655 0.091918 0.03092 0.093398 0.056569 0.053281 0.11576 
0.024508 0.11526 0.11559 -0.0059084 0.067585 0.024015 -0.0091966 0.090767 
0.035031 0.24548 0.040292 0.038155 0.028125 0.032071 0.00050378 0.05624 
-0.10587 0.2537 -0.036325 0.0079024 0.027468 0.01711 0.063968 0.062817 
-0.12544 0.12875 -0.038627 -0.01939 -0.017088 0.00099702 0.077121 -0.010183 
0.0052718 -0.027447 0.050979 -0.036325 -0.047012 -0.021692 0.017438 -0.068386 
0.10474 -0.062302 0.040456 -0.036489 -0.035667 -0.034188 0.0059294 -0.040271 
0.065118 -0.027611 -0.0011404 0.04358 0.0023123 -0.0055795 0.043087 0.018589 
-0.0004827 0.061337 0.0080668 0.067913 0.029276 0.042923 0.076956 0.09685 
0.032071 0.11066 -0.0087034 0.047691 -0.0011404 0.049335 0.048019 0.10573 
-0.0027845 0.099974 0.02122 0.10014 0.00050378 0.049006 0.0786 0.10178 
-0.024323 0.026646 -0.006566 0.08567 0.0028056 0.039305 0.08156 0.048841 
0.036182 -0.0067304 0.051965 -0.016102 -0.0044286 0.051472 0.022535 0.0034632 
0.11411 -0.03912 0.11477 -0.072167 -0.014622 0.016288 -0.025638 1.0539e-005 
0.12151 -0.045039 0.13319 -0.12544 0.015301 0.0028056 -0.027118 0.0098754 
0.053609 -0.0032777 0.096686 -0.035832 0.042265 0.058213 0.0085601 0.020562 
0.070708 0.076956 0.040456 -0.022843 0.048677 0.033551 -0.010019 -0.021034 
0.087314 0.12316 0.032729 0.013821 0.05213 0.025001 0.013657 -0.060987 
0.059857 0.18629 0.010697 0.066434 0.03799 0.024673 0.0079024 -0.061645 
-0.044874 0.15752 0.03536 0.045882 0.060515 0.033551 0.037004 -0.075291 
-0.16309 0.13203 -0.040928 0.070544 0.049664 0.023357 0.049335 -0.0138 
-0.14566 0.15522 -0.093376 0.090931 0.065776 -0.012156 0.047855 0.026646 
-0.0042642 0.14272 -0.019061 0.063639 0.021384 0.017767 0.034866 0.0046141 
0.17117 0.039305 -0.010676 0.056404 -0.033037 -0.024323 -0.0016336 0.016288 
0.22246 -0.075291 0.05772 -0.013965 -0.01232 -0.045203 -0.0078813 0.069722 
0.18843 -0.076771 0.10376 -0.022514 -0.01232 -0.013965 -0.008539 0.16146 
0.076956 -0.060329 0.12168 0.018918 -0.0027845 0.0082312 0.045553 0.22394 
-0.11853 0.030427 0.079751 0.032729 0.035524 0.039141 0.08863 0.24088 
-0.19548 0.14223 -0.040928 0.076463 0.0592 0.075476 0.12168 0.22657 
-0.097158 0.18152 -0.07003 0.09981 0.074326 0.10737 0.098001 0.13203 
0.034209 0.14683 -0.042737 0.054103 0.050157 0.12497 0.016288 -0.0026201 
0.1031 0.041443 0.080573 0.0023123 0.0069159 0.065776 -0.047012 -0.10571 
0.13302 0.0082312 0.084519 -0.040435 -0.02087 0.01152 -0.018568 -0.089266 
0.043745 0.10672 0.0079024 0.012342 -0.0082102 -0.019061 0.069229 -0.073976 
-0.0042642 0.10639 0.00066819 0.047691 0.013821 0.00083261 0.093891 -0.042079 
0.013657 0.013657 0.08156 -0.0083746 0.035524 0.019905 0.060022 0.012835 
0.038319 -0.081045 0.13138 -0.0026201 0.040621 0.026152 0.010204 0.00099702 
0.068736 -0.072167 0.043745 0.01004 0.021878 -0.0091966 -0.012978 -0.027775 
0.018754 0.0023123 -0.0060728 0.056569 0.025001 0.00017495 -0.034681 -0.0077169 
0.062488 0.0041209 0.01415 0.090438 0.022042 0.013986 -0.040928 0.0069159 
0.1054 0.022042 0.0032988 0.052294 0.02122 0.0062583 -0.053095 0.025659 
0.037497 0.088958 0.0023123 0.06331 0.02681 -0.010348 0.011026 -0.030242 
-0.027447 0.12792 -0.016266 0.079094 0.044402 0.0074092 0.040292 -0.050629 
0.0095465 0.090109 0.021384 0.042594 0.041114 0.012835 0.049006 -0.030899 
0.027468 0.066763 0.056898 0.031249 0.0074092 -0.0021268 0.057391 -0.025145 
-0.072825 0.029112 0.072681 -0.013143 0.0047785 0.034866 0.077778 0.0014903 
-0.15059 0.051636 0.051636 0.007738 0.039141 0.051801 0.090603 0.045389 
-0.084827 0.13697 0.03799 0.070215 0.058706 0.054925 0.042265 0.096028 
0.010533 0.20882 -0.0021268 0.055418 0.04654 0.027961 0.037168 0.058542 
0.016945 0.17511 -0.0016336 0.017274 0.019411 0.0062583 0.011848 0.075476 
0.014972 -0.013965 0.06742 -0.024816 0.016945 -0.02235 -0.0073881 0.097837 
0.072353 -0.15717 0.09981 -0.025802 0.038812 -0.018239 0.0028056 0.12908 
0.10639 -0.10834 0.03651 0.090438 0.049664 0.045882 0.053445 0.15028 
0.14798 -0.02235 -0.019884 0.12957 0.096193 0.052787 0.020233 0.079751 
0.17988 0.011355 -0.031557 0.11214 0.061172 0.041772 0.0085601 0.036346 
0.063968 0.052787 -0.039284 0.12628 -0.001798 0.041114 0.070708 0.030592 
-0.16851 0.11543 -0.052437 0.061172 -0.044874 0.018754 0.14946 0.0042853 
-0.25072 0.16853 -0.042737 -0.0078813 -0.057699 -0.027282 0.1276 -0.041257 
-0.1353 0.05065 0.05772 -0.047012 -0.02498 -0.02794 0.057884 -0.083183 
0.18744 -0.16062 0.22789 -0.046847 0.08419 0.021056 -0.05178 0.0062583 
0.42206 -0.13349 0.27853 -0.0024557 0.19057 0.064132 -0.15668 0.004943 
0.29974 -0.014951 0.1248 0.09833 0.22723 0.096357 -0.13366 0.056898 
0.13845 0.012177 -0.0014692 0.085999 0.14075 0.14519 -0.049149 0.082217 
0.070708 0.0011614 -0.021363 0.074654 0.044896 0.055089 0.055747 0.019411 
-0.083183 -0.012156 -0.073976 0.055089 -0.011827 0.034537 0.099316 -0.0057439 
-0.14829 0.10803 -0.11639 0.0689 -0.0050863 0.017438 0.10277 -0.014951 
-0.07973 0.16821 -0.12856 0.066927 -0.046354 0.038977 0.088136 0.031578 
0.01711 0.064461 -0.014787 0.0085601 -0.025967 0.023522 0.053281 0.044896 
0.044567 -0.058356 0.1544 -0.029091 -0.037311 -0.022843 0.029934 0.021713 
0.012506 -0.069536 0.22378 -0.063782 -0.028104 -0.0095255 0.0082312 0.015301 
0.012177 0.067091 0.093891 -0.042901 -0.018568 -0.018075 0.0085601 -0.0024557 
0.11477 0.10951 -0.0024557 0.037332 0.047691 -0.0050863 -0.0062372 0.045718 
0.15045 0.066105 -0.034188 0.071695 0.079587 0.031249 0.038155 0.073504 
0.030427 0.033387 -0.0027845 0.1054 0.087479 0.023522 0.10737 0.047691 
-0.02498 -0.034516 0.027303 0.073175 0.087479 0.025824 0.13088 0.020069 
0.036346 -0.06855 0.048348 0.035195 0.040456 0.014643 0.030756 -0.071181 
0.10441 0.0093821 0.051965 0.033058 0.043745 0.018425 -0.046354 -0.096829 
0.087479 0.045389 0.026974 0.034373 0.031085 0.0062583 -0.051944 -0.064933 
-0.0049219 0.061008 0.011848 0.042758 0.042265 0.028947 -0.0068948 -0.046847 
-0.074798 0.099481 0.024673 0.026481 0.03536 0.041114 0.014315 -0.0047575 
-0.0019624 0.070215 0.0689 -0.063124 0.0083956 0.0083956 -0.028104 0.0093821 
0.11346 0.042594 0.094713 -0.055561 0.005765 0.0087245 -0.061809 0.058871 
0.11757 0.089452 0.039963 -0.0087034 0.046211 0.045389 -0.022185 0.098988 
0.070051 0.15505 -0.038956 0.058377 0.082217 0.078765 0.0059294 0.079258 
0.025824 0.12694 -0.018733 0.088794 0.084355 0.071366 0.03947 0.079916 
-0.040271 0.091425 0.034537 0.051801 0.060186 0.055582 0.1031 0.04654 
-0.049314 0.096357 0.052459 0.018425 0.040292 0.066598 0.076134 0.035031 
0.091753 0.0087245 0.041278 -0.025638 0.0026412 -0.004593 0.0039565 -0.0034422 
0.17084 -0.086636 0.047855 -0.056383 -0.037476 -0.052766 -0.016595 -0.04619 
0.11543 -0.12462 0.049499 0.01711 -0.025145 -0.014458 0.036182 -0.059507 
-0.064933 -0.051451 -0.0042642 0.064132 0.01711 0.028619 0.090603 -0.049807 
-0.21192 0.10688 -0.061316 0.10524 0.063145 0.05065 0.13171 0.0056006 
-0.13053 0.19632 -0.026624 0.092247 0.048841 0.069393 0.074983 0.069886 
-0.0014692 0.17034 0.086821 -0.0062372 0.037826 0.03651 -0.0019624 0.099645 
0.1248 0.042429 0.16656 -0.06707 0.013986 0.014315 -0.069701 0.13762 
0.27951 -0.044381 0.15094 -0.053917 -0.014129 0.011684 -0.080717 0.10704 
0.24729 0.025659 0.037168 -0.027611 -0.018897 0.045553 -0.0060728 0.075476 
0.0689 0.043251 -0.062138 0.032236 -0.038956 0.041936 0.029605 0.027303 
-0.076113 0.08567 -0.133 -0.035667 -0.078744 0.018754 0.071695 -0.072496 
-0.16177 0.18678 -0.085978 -0.0068948 -0.04471 0.0024767 0.069064 -0.13596 
-0.086307 0.11691 0.073997 -0.0011404 0.062323 0.0044497 0.045882 -0.20501 
-0.01232 0.050157 0.12365 -0.017911 0.091753 -0.0011404 0.0013258 -0.15092 
0.059035 0.004943 0.1128 0.03799 0.057555 -0.012156 -0.027118 -0.077757 
0.11559 0.010204 0.038977 0.074326 0.038812 -0.026131 -0.021856 0.062981 
0.031907 0.10754 -0.094363 0.062652 -0.012485 -0.034188 0.056733 0.29908 
-0.067892 0.18909 -0.084827 0.018425 -0.049971 -0.020706 0.13779 0.40776 
-0.079566 0.052294 0.056569 -0.049314 -0.018239 0.049335 0.14338 0.4043 
0.10836 -0.16144 0.19533 -0.028926 0.071037 0.0592 0.092082 0.20355 
0.21917 -0.13941 0.1493 0.020398 0.11592 0.071366 0.0592 0.077449 
0.093398 0.0037921 0.048019 0.024837 0.085012 0.07301 0.041607 -0.036325 
-0.080388 0.095371 -0.046519 0.060186 0.042265 0.039963 0.019905 -0.10653 
-0.066084 0.13647 -0.049149 0.047691 0.0070803 0.023522 0.017932 -0.14237 
0.01711 0.072024 -0.052109 0.040456 -0.012978 0.0054362 -0.0095255 -0.23724 
0.093562 0.039634 0.0090533 0.025988 -0.011992 0.0065871 -0.057041 -0.29922 
0.059857 0.079916 0.024837 -0.027447 -0.028597 -0.028597 -0.062631 -0.18857 
-0.069865 0.20898 0.013821 -0.025145 -0.051451 -0.0031133 0.016945 0.11395 
-0.12363 0.24285 -0.014293 -0.0091966 -0.040435 0.062652 0.093726 0.37389 
-0.133 0.22328 -0.0078813 0.01563 0.022371 0.11099 0.13434 0.40957 
-0.08121 0.19418 0.0095465 0.083533 0.029934 0.071366 0.11346 0.32308 
-0.062631 0.069558 0.071366 0.020069 0.013821 0.035853 0.090109 0.12529 
-0.074633 -0.025474 0.10211 -0.01939 0.0011614 -0.039942 0.07301 -0.053917 
-0.00081153 -0.084169 0.059528 0.012999 0.014479 -0.086964 0.084684 -0.13662 
0.15259 -0.16309 0.047197 0.019576 0.051143 -0.094034 0.024673 -0.16111 
0.29612 -0.070523 -0.017088 0.065283 0.020891 -0.04619 -0.038298 -0.15964 
0.28083 -0.015116 -0.0055795 0.057062 0.062488 -0.0055795 -0.064768 -0.1011 
0.13615 0.020069 0.070051 -0.0027845 0.088958 0.02681 -0.042573 0.03388 
0.038319 -0.034188 0.14733 -0.0072237 0.091096 0.061666 -0.02646 0.12825 
0.065118 -0.060987 0.11346 0.0075736 0.075148 0.05772 -0.019884 0.12497 
0.16574 -0.054246 0.0069159 0.098166 0.053445 0.045553 0.010533 0.12612 
0.14206 -0.0098543 -0.095514 0.14765 0.035031 0.066763 0.06742 0.048677 
0.01004 0.090931 -0.052273 0.09833 -0.0073881 0.04358 0.11296 0.01711 
0.064954 0.053774 0.097015 0.019247 -0.0034422 0.007738 0.020727 -0.058192 
0.17906 -0.066741 0.21342 -0.057534 -0.010348 0.017274 -0.061809 -0.11146 
0.11477 0.016452 0.096686 -0.018239 0.016945 0.029276 -0.020212 -0.089102 
-0.11278 0.23594 -0.063618 0.072681 0.039799 0.062323 0.064296 -0.059672 
-0.29265 0.24269 -0.11541 0.08978 0.053938 0.084355 0.10063 0.040128 
-0.20584 0.1151 -0.035338 0.097672 0.06331 0.0689 0.086492 0.11198 
0.0054362 0.016123 0.010697 0.092576 0.038483 0.01415 0.04506 0.18021 
0.073997 -0.060329 0.05476 0.046868 0.04506 -0.004593 0.018589 0.17939 
0.086328 -0.092226 0.12414 0.038977 0.0075736 -0.0049219 0.029769 0.071366 
0.091425 -0.030735 0.072188 -0.008539 0.0095465 0.00297 0.00033937 0.053609 
0.036839 0.027796 0.05213 0.015465 0.013986 0.00033937 0.019905 -0.0014692 
0.044238 0.071202 0.047691 0.048184 0.025001 -0.025145 0.039963 -0.055068 
0.023851 0.13368 0.043416 0.050486 0.079422 -0.022514 0.019576 -0.13908 
0.046046 0.16196 0.035524 0.046211 0.050321 -0.012814 -0.010512 -0.23165 
-0.0090322 0.18103 0.035688 0.038319 0.02122 -0.028104 0.005765 -0.18413 
-0.12166 0.2246 -0.016595 0.0014903 0.0036276 0.025495 -0.017582 -0.086964 
-0.14648 0.21358 -0.0060728 0.030263 0.012013 0.043416 -0.0016336 0.015465 
-0.066741 0.093726 0.019247 0.0098754 0.010862 0.017767 0.017274 0.088301 
0.11543 -0.040271 0.043416 0.0087245 0.0047785 0.0024767 -0.0095255 0.14979 
0.16031 -0.065755 0.037004 0.021878 0.0088889 0.047526 0.015465 0.20142 
0.074819 -0.094363 0.022864 0.017932 0.01974 0.049499 0.087808 0.24992 
0.014479 -0.073976 0.048184 0.047197 0.048841 0.065118 0.14141 0.23282 
-0.020706 -0.0004827 0.00083261 0.14338 0.094877 0.11296 0.10869 0.18826 
-0.065097 0.10967 -0.011663 0.12349 0.11099 0.083697 0.01711 0.078272 
0.012013 0.11181 0.065776 0.032729 0.039634 0.01004 -0.072989 -0.0062372 
0.17166 -0.025967 0.16294 -0.10423 0.0070803 -0.03205 -0.12231 -0.072003 
0.30368 -0.17427 0.1858 -0.12018 0.035688 -0.0016336 -0.14615 -0.029091 
0.40052 -0.24135 0.13467 -0.012978 0.075148 0.057884 -0.1187 -0.0054151 
0.34824 -0.145 0.023851 0.097344 0.083862 0.075476 0.014808 0.063803 
0.11362 0.020398 -0.051287 0.16903 0.098494 0.085341 0.11263 0.093398 
-0.092719 0.12085 -0.02646 0.12973 0.032729 0.077285 0.12776 0.053609 
-0.17164 0.11444 0.029276 0.035688 -0.008539 0.052787 0.11214 0.016945 
-0.17591 0.14946 0.062981 -0.0011404 0.013164 0.012013 0.082546 -0.0019624 
-0.14599 0.23479 0.03092 -0.02794 0.04506 -0.010348 0.041443 0.052952 
-0.17723 0.29349 -0.043559 0.043745 0.057555 -0.0095255 0.09833 0.11017 
-0.19794 0.2103 -0.045532 0.1151 0.019083 -0.044217 0.072188 0.10425 
-0.16095 0.10606 -0.02794 0.098166 -0.031721 -0.066248 0.057391 0.090767 
-0.079566 0.063639 0.018589 0.021056 -0.064111 -0.075127 0.028783 0.040621 
0.0080668 0.021549 0.08419 -0.026953 -0.040106 -0.035338 -0.0082102 0.034702 
0.11757 -0.045203 0.10918 -0.040764 -0.010512 0.03388 -0.023336 0.065612 
0.30155 -0.053753 0.10507 -0.044052 0.032564 0.08419 -0.071345 0.079094 
0.32062 -0.038627 0.098001 -0.089924 0.05065 0.10935 -0.062302 0.074326 
0.19764 -0.017911 0.06183 -0.073647 0.049006 0.1225 -0.04323 0.052952 
0.043909 0.013492 0.0082312 -0.041257 0.026646 0.090603 0.036017 0.026481 
-0.053095 0.044402 0.0065871 0.0026412 0.04358 0.056076 0.060515 0.0064227 
-0.020048 0.070873 -0.0044286 0.060679 0.039305 0.051143 0.035524 -0.02498 
-0.0036066 0.04917 -0.0062372 0.099316 0.040785 0.053116 0.03947 -0.011992 
-0.02235 0.031742 0.022042 0.087972 0.050321 0.029112 0.086657 -0.023829 
-0.046847 0.096028 0.0082312 0.1054 0.054103 -0.0054151 0.10836 -0.010348 
-0.040271 0.1396 -0.0050863 0.05065 0.035853 0.0087245 0.055911 0.0041209 
0.009711 0.17182 0.0085601 0.025988 -0.013636 -0.025967 0.044896 -0.02646 
-0.034188 0.11313 0.031907 0.03092 -0.046683 -0.0072237 0.030263 -0.0072237 
-0.064111 0.028619 0.036839 -0.0044286 -0.021199 -0.021692 0.056076 -0.016102 
0.053281 -0.071016 0.076463 0.030427 0.049992 -0.022185 0.005765 0.013492 
0.25962 -0.12133 0.096193 -0.0091966 0.039799 -0.0088678 -0.060823 0.016945 
0.14535 -0.10489 0.081067 -0.0014692 0.015465 -0.022185 -0.018733 0.00033937 
-0.020212 -0.07414 0.058706 0.034866 0.012999 0.017767 0.021384 0.014972 
0.10096 -0.050958 0.057062 0.010697 0.033551 0.018589 -0.01232 -0.047012 
0.17889 0.018425 0.044567 0.037826 0.082875 0.05476 0.024015 -0.011663 
0.057884 0.092411 -0.01117 0.085012 0.10721 0.083368 0.067256 0.004943 
-0.066413 0.18218 -0.056055 0.093891 0.090931 0.090767 0.080738 0.017603 
-0.09091 0.25469 -0.095843 0.076134 0.038812 0.055089 0.054267 -0.020212 
-0.038791 0.20027 -0.052766 -0.0098543 -0.0073881 0.00066819 0.046868 -0.027611 
-0.052602 0.12875 0.0046141 -0.051122 -0.029584 -0.008539 0.028783 -0.019061 
-0.035503 0.0689 0.059364 -0.035503 -0.051615 0.0014903 0.020069 -0.03353 
0.036017 -0.039942 0.11231 -0.038791 -0.008539 -0.003771 0.021549 0.024673 
0.057391 -0.12149 0.11855 0.0023123 0.01563 0.0075736 0.041607 0.063639 
0.063145 -0.055561 0.080573 1.0539e-005 0.030592 -0.008539 0.024837 0.017603 
0.10672 -0.026131 0.046704 0.042594 0.065776 0.0090533 0.00050378 0.017932 
0.21687 -0.031392 0.039799 0.086328 0.10852 0.03799 0.0018191 0.037004 
0.26718 -0.023829 0.004943 0.068571 0.077449 0.020233 -0.019555 0.018589 
0.17133 0.0047785 -0.025145 0.085177 0.043416 0.00066819 0.0044497 -0.014622 
-0.020377 0.056898 -0.032543 0.085341 0.012342 -0.0098543 0.069886 -0.030406 
-0.19811 0.11707 -0.0014692 0.01563 0.023357 0.022371 0.12266 -0.028926 
-0.26354 0.18547 -0.0019624 0.017767 0.01415 -0.0090322 0.098166 -0.068386 
-0.24661 0.21342 -0.050629 0.034209 0.013657 0.014808 0.090931 -0.082854 
-0.13826 0.13483 -0.053753 0.082053 0.038812 0.047526 0.088301 -0.069701 
-0.074469 0.076956 0.060186 0.018754 0.020233 0.026481 0.020398 0.0095465 
-0.066413 0.20372 0.10113 -0.024487 -0.013636 0.011848 0.037004 0.06742 
-0.059672 0.25896 0.075476 -0.020048 -0.010512 0.04095 0.097672 0.11477 
0.077449 0.075476 0.10376 -0.039778 -0.025145 0.030098 0.034866 0.11642 
0.26357 -0.22852 0.15966 -0.091075 -0.043888 -0.0138 -0.073154 0.087808 
0.46201 -0.36548 0.17018 -0.03912 -0.0083746 0.0031344 -0.14418 0.077614 
0.46037 -0.24069 0.039963 0.03799 0.11691 0.04358 -0.1039 0.10672 
0.26537 -0.06296 -0.15109 0.23545 0.19221 0.073504 0.01711 0.08715 
0.037168 0.072846 -0.21389 0.3027 0.19501 0.065118 0.078929 0.089945 
-0.03057 0.087314 -0.091897 0.18826 0.12332 0.049664 0.090603 0.050157 
-0.041751 0.014479 0.083533 0.081067 0.077614 0.017767 0.044896 0.037004 
-0.059343 0.011191 0.15226 0.0075736 0.015959 -0.0077169 0.075476 0.033715 
-0.098309 0.053281 0.12792 -0.069372 0.0072447 0.0093821 0.043251 0.041443 
-0.068221 0.12069 0.06742 0.0047785 -0.012156 0.0056006 0.041114 0.050814 
0.0016547 0.10326 0.0083956 -0.042737 -0.032708 -0.028104 0.034537 0.039963 
0.041772 0.11642 -0.019555 -0.067564 -0.071509 -0.034681 0.0090533 0.044073 
-0.0059084 0.16656 0.00017495 -0.044546 -0.034352 -0.0088678 0.015794 0.023522 
-0.091239 0.16393 -0.017582 -0.0088678 0.014643 0.017932 0.029769 0.026974 
-0.084169 0.087479 0.014479 0.057391 0.058542 0.036839 0.082053 0.015301 
-0.042901 0.0052718 0.094055 0.051472 0.086821 0.058049 0.057884 -0.0072237 
0.025001 -0.11113 0.16952 0.036346 0.068242 0.049499 0.016616 -0.046025 
0.12924 -0.12314 0.16146 0.038483 0.070708 0.056076 -0.02942 -0.049807 
0.14371 0.054925 0.020233 0.043416 0.061995 0.059035 -0.020048 -0.066906 
0.074983 0.12299 -0.081539 0.063639 0.055582 0.024837 0.00297 0.023851 
0.042429 0.081395 -0.055232 0.053609 0.023686 0.024344 0.0011614 0.11987 
0.062323 0.031414 0.012013 0.018589 0.01415 0.01152 -0.032708 0.15522 
0.10622 0.036675 0.03799 0.026317 0.013492 0.048677 -0.013307 0.18169 
0.051472 0.098823 0.014479 0.0090533 0.017274 0.034866 -0.0077169 0.14206 
-0.03616 0.084026 0.037826 0.005765 0.040128 0.046704 0.0095465 0.058377 
-0.065591 0.0021479 0.082053 0.064625 0.062159 0.040456 0.041936 0.042923 
-0.0406 -0.014129 0.058871 0.05624 0.049499 0.0028056 0.037332 0.092904 
0.032071 0.053116 0.0014903 0.063145 0.021549 -0.02646 -0.018568 0.027796 
0.0421 0.17708 -0.011992 0.061172 0.011355 -0.029748 0.012177 -0.028433 
-0.070852 0.23479 -0.032379 0.03947 0.020233 -0.011992 0.15571 0.0019835 
-0.24793 0.20405 -0.021692 0.036017 0.0082312 0.0042853 0.2343 0.13269 
-0.19663 0.10326 0.038319 -0.054904 -0.058028 0.01826 0.18235 0.23644 
0.11987 0.0019835 0.1105 -0.12971 -0.13464 0.060186 0.030592 0.22098 
0.32292 -0.076113 0.1174 -0.16802 -0.12873 0.029441 -0.089266 0.15176 
0.34216 -0.0014692 0.077778 -0.18084 -0.077264 -0.030406 -0.11541 0.013328 
0.15719 0.01826 0.053774 -0.067399 0.039634 -0.0029489 -0.0050863 -0.080059 
-0.072167 -0.052766 0.094548 0.020069 0.17643 0.057227 0.10787 -0.05178 
-0.045532 -0.022185 0.022206 0.1835 0.24236 0.11872 0.0689 -0.075949 
0.0067515 0.16722 -0.092226 0.3101 0.25633 0.1077 0.039305 -0.082032 
-0.03501 0.2075 -0.087622 0.20208 0.14782 0.073997 0.0042853 -0.096665 
0.024508 -0.0096899 0.067749 0.070051 0.018096 -0.017911 -0.023501 -0.10752 
0.013821 -0.11146 0.16459 -0.038791 -0.054246 -0.064768 -0.012156 -0.030406 
-0.077757 0.03651 0.11609 -0.080717 -0.07562 -0.040764 0.028783 0.011684 
-0.026131 0.13039 0.01563 -0.067399 -0.065919 -0.040928 0.028619 0.035688 
0.10326 0.083862 0.005765 -0.10604 -0.064933 -0.018568 0.0227 0.05476 
0.13532 0.004943 0.048184 -0.070687 -0.027447 0.036346 0.025824 0.085177 
0.071366 -0.0072237 0.023686 0.075148 0.030592 0.055911 0.068736 0.11198 
0.050814 0.018918 -0.003771 0.12151 0.076627 0.030098 0.095699 0.097015 
0.04095 -0.0068948 -0.0011404 0.13647 0.08419 0.046046 0.053938 0.10573 
-0.026624 -0.008539 0.03651 0.052294 0.043251 0.025659 0.0324 0.14305 
-0.10784 0.082217 0.039141 0.0065871 0.019576 0.035195 0.052787 0.10178 
-0.095021 0.092576 0.016616 0.020727 0.024179 0.015301 0.079751 0.12414 
0.012013 0.090274 -0.0059084 0.0080668 0.016945 0.034209 0.05476 0.082711 
0.049992 0.054432 -0.011992 0.00017495 0.0092177 0.018754 0.02829 0.078765 
0.078272 0.016616 0.077285 -0.0096899 -0.0080457 0.0072447 -0.0026201 0.026974 
0.1539 -0.060823 0.11822 -0.02087 0.036675 0.0083956 0.0064227 -0.078744 
0.092904 -0.013143 0.051965 0.0088889 0.045553 -0.0090322 0.011848 -0.13974 
0.020891 0.082053 -0.0077169 0.063474 0.038977 -0.011663 0.040292 -0.13136 
-0.038462 0.1031 -0.017911 0.061501 0.050486 -0.018239 0.051308 -0.091732 
-0.034023 0.11674 0.017932 0.077614 0.073997 0.00033937 0.056733 -0.06 
-0.0096899 0.13319 -0.050793 0.029112 0.062981 -0.0019624 0.033551 -0.012156 
-0.053753 0.11214 -0.045368 0.060515 0.038648 0.0095465 0.053281 0.011191 
-0.076606 0.045553 -0.04323 0.078272 0.0031344 0.025659 0.054925 -0.01676 
-0.026131 0.022864 0.016781 0.049006 -0.013636 0.048841 0.013328 0.039634 
0.067256 0.00297 0.076299 0.029441 -0.012156 0.062159 -0.023172 0.08715 
0.21293 -0.087622 0.12792 -0.01939 0.015301 0.06035 -0.056055 0.077121 
0.29776 -0.17641 0.16262 -0.03205 0.047033 0.047197 -0.029255 0.1026 
0.24104 -0.17032 0.13467 0.036017 0.072353 0.035195 -0.031886 0.06742 
0.10113 -0.045368 0.015137 0.088301 0.070708 0.062652 -0.0040998 0.027468 
-0.0031133 0.17807 -0.10571 0.091918 0.08304 0.085177 0.016452 0.0093821 
-0.034023 0.26735 -0.10982 0.087479 0.036017 0.056076 0.043416 0.051965 
-0.069372 0.15703 -0.06296 0.04358 -0.021856 0.048513 0.044896 0.10343 
-0.12757 0.064954 -0.00081153 0.065283 -0.026789 0.048348 0.066269 0.011684 
-0.27144 0.068078 0.045224 0.027303 -0.00081153 0.011684 0.14239 -0.13547 
-0.22047 0.11033 0.069064 -0.022185 0.0018191 -0.048492 0.081395 -0.17312 
0.14387 0.12184 0.04654 0.027139 -0.022021 -0.072989 -0.019555 -0.13629 
0.2417 0.11231 0.033387 0.022042 0.0036276 -0.061316 -0.016102 -0.070359 
0.13598 -0.017746 0.076627 0.018096 0.00066819 -0.059343 0.014479 0.036675 
0.15127 -0.13103 0.16788 -0.054246 0.023686 -0.042737 -0.012814 0.049664 
0.20734 -0.052931 0.14683 -0.080552 0.041772 0.040456 -0.025145 0.098659 
0.20076 -0.0088678 0.03947 0.041278 0.070051 0.083697 -0.019061 0.17971 
0.17708 -0.050629 -0.046847 0.091589 0.068736 0.11083 0.0075736 0.16722 
0.042594 -0.0032777 -0.087786 0.1294 0.062652 0.095042 0.023193 0.1128 
-0.068879 0.10951 -0.075949 0.15226 0.062323 0.058049 0.062652 0.028619 
-0.14961 0.16525 -0.026953 0.11214 0.062323 0.058213 0.056076 -0.042244 
-0.15207 0.19533 -0.014951 0.088465 0.076299 0.049006 0.052787 -0.031721 
-0.14418 0.20849 0.028947 0.033058 0.083862 0.03388 0.038155 0.029769 
-0.0965 0.15653 0.065447 -0.0032777 0.047855 0.020069 0.029934 0.047691 
0.034537 0.054267 0.045389 0.018918 0.0067515 0.0060938 0.011684 -0.010348 
0.098823 0.0085601 0.0024767 0.015137 -0.012485 0.03799 0.00297 -0.03205 
0.10047 -0.079072 0.0324 0.023193 -0.05885 0.0023123 -0.0087034 0.028783 
0.049992 -0.053917 0.061172 -0.014951 -0.055397 -0.0059084 0.024179 0.059364 
0.11707 0.0090533 0.10178 -0.06707 -0.051944 -0.0059084 0.033715 0.053938 
0.20536 -0.0098543 0.12283 -0.080223 -0.059507 0.011355 0.030592 0.047526 
0.20109 -0.017088 0.098823 -0.049149 -0.023994 0.0080668 0.057391 0.053938 
0.083368 -0.0019624 0.048513 -0.052766 0.0082312 -0.0060728 0.057884 0.061995 
-0.010019 0.022535 0.0092177 0.023028 -0.0062372 -0.00097594 0.066105 0.03536 
-0.058521 0.088465 -0.050793 0.079587 -0.0011404 -0.015938 0.065612 0.014315 
-0.035667 0.08304 -0.030242 0.10869 0.027303 -0.010676 0.037004 -0.0138 
-0.058192 0.050814 0.021549 0.10392 0.072681 -0.0031133 0.048019 -0.0072237 
-0.19794 0.034866 0.067091 0.061172 0.10967 0.0095465 0.1026 0.0026412 
-0.23757 -0.031886 0.12661 0.073668 0.17051 0.054267 0.065447 0.030756 
0.15505 -0.062138 0.11198 0.034702 0.2001 0.11 -0.05737 0.085341 
0.56543 0.031907 0.049992 -0.0024557 0.13302 0.094384 -0.13136 0.038319 
0.59979 0.11559 -0.049314 0.01974 0.051965 0.033222 -0.11689 0.021713 
0.26011 0.11905 -0.072167 -0.010183 0.0070803 0.011684 -0.030077 0.048019 
-0.02794 0.051801 -0.033037 0.023357 -0.014951 0.00050378 0.010697 0.0072447 
-0.10932 0.048184 0.0087245 0.04358 -0.012814 -0.010019 0.080738 0.036017 
-0.14517 0.060515 0.033715 0.03947 0.013821 0.01152 0.12217 0.045224 
-0.16605 0.0067515 0.071202 0.090109 0.037661 0.068078 0.16196 0.068571 
-0.22935 0.012835 0.040785 0.045553 0.016616 0.045882 0.14946 0.074819 
-0.2032 0.04654 0.0087245 -0.0024557 -0.0049219 0.02122 0.098988 0.046211 
0.00017495 -0.048985 0.081395 -0.0098543 -0.037476 0.005765 0.01004 0.012506 
0.1858 -0.10275 0.12842 -0.040435 -0.027611 0.013328 -0.037969 -0.0027845 
0.1733 -0.0022913 0.09274 -0.0095255 0.023686 0.045718 -0.01676 0.036346 
0.010533 0.10852 0.036346 0.024344 0.076463 0.089287 0.027139 0.085999 
-0.11705 0.14519 -0.029584 0.085177 0.10852 0.095699 0.074161 0.075312 
-0.041422 0.12858 -0.041257 0.13023 0.074654 0.053281 0.037332 0.073668 
0.13434 0.11757 -0.0042642 0.060022 0.01974 -0.011334 -0.0029489 0.0083956 
0.15867 0.041772 0.004943 0.025495 -0.0044286 -0.031886 -0.0019624 0.0092177 
0.009711 0.096521 0.027796 0.0082312 0.011848 -0.025474 0.036839 0.046704 
-0.12297 0.21062 -0.0042642 -0.009361 0.0024767 -0.013307 0.0689 0.053116 
-0.060658 0.16804 -0.0049219 -0.0080457 -0.00031829 -0.0091966 0.052459 0.064461 
0.016616 0.039963 0.026974 0.018096 0.01974 0.019083 0.0039565 0.050157 
0.065283 -0.082196 0.11559 1.0539e-005 0.041936 0.011191 -0.011498 0.038648 
0.10277 -0.12609 0.14223 -0.017088 0.026317 0.0051074 0.0075736 0.037826 
0.029112 0.0095465 0.072188 0.0093821 0.080902 0.055418 0.041443 0.062981 
-0.02498 0.13516 -0.031886 0.083368 0.053774 0.062652 0.042923 0.057555 
-0.020212 0.18185 -0.10521 0.10376 0.059035 0.020233 0.066269 0.036675 
-0.050958 0.08156 -0.06296 0.075476 0.024015 0.037168 0.034702 -0.029584 
0.043745 -0.061316 0.031414 0.020562 0.0082312 -0.0091966 -0.0044286 -0.039613 
0.036675 -0.01676 0.058706 -0.046847 -0.011992 -0.023829 -0.020048 0.0072447 
0.020398 0.019905 0.061172 -0.051287 -0.020706 -0.018733 0.0051074 0.053938 
0.054432 0.076134 0.010697 0.029934 -0.024487 0.009711 0.046704 0.031414 
0.05772 0.073504 0.01267 0.03388 -0.02794 0.020069 0.049992 0.075805 
-0.0054151 0.0051074 0.071695 0.017438 0.0062583 0.03651 0.035195 0.066105 
-0.0406 -0.0067304 0.11822 0.0047785 0.029112 0.047855 0.062652 0.040621 
-0.0014692 0.014808 0.12299 0.039305 0.09833 0.060844 0.054103 0.01004 
0.14683 0.00050378 0.0592 0.10951 0.16821 0.08978 0.028619 0.061337 
0.24926 -0.018568 -0.0055795 0.1105 0.14897 0.10425 0.0046141 0.074654 
0.18284 0.014315 -0.027118 0.10935 0.080738 0.067256 0.0044497 0.04358 
0.085835 0.047033 -0.050958 0.10211 0.018096 0.0227 0.012506 0.034373 
-0.0019624 0.067585 -0.017746 0.062817 -0.027611 -0.0067304 0.031907 0.0034632 
-0.018075 0.10326 0.048019 0.017603 -0.031064 -0.016431 0.043416 -0.0091966 
-0.046847 0.10359 0.045389 -0.070523 -0.028597 -0.036654 0.03651 0.025166 
-0.059014 0.11987 0.024344 -0.11557 -0.039284 -0.049642 0.01711 0.01415 
-0.093048 0.11822 0.015794 -0.053095 -0.042408 -0.019226 0.040785 0.033058 
-0.059507 0.10885 0.027303 -0.050958 -0.02498 0.0056006 0.041772 0.042265 
-0.056055 0.11115 0.032071 -0.0055795 -0.026953 -0.0031133 0.038977 0.024179 
-0.062467 0.096193 0.053281 -0.0013048 -0.0064016 -0.001798 0.039799 0.026974 
0.015137 0.028783 0.083862 -0.0090322 0.010533 0.029276 0.007738 0.020069 
0.049664 -0.060329 0.099152 0.028947 0.049828 0.048348 0.052623 0.029605 
0.0019835 0.026974 0.037826 0.069722 0.058213 0.079751 0.076134 0.0087245 
0.053938 0.13927 -0.01117 0.062159 0.046211 0.054267 0.038483 1.0539e-005 
0.11263 0.060022 0.021384 0.072353 0.010204 -0.0050863 -0.003771 -0.010183 
0.12612 0.029441 0.054267 0.04654 0.019411 -0.03353 0.004943 -0.026953 
0.13532 0.053445 0.041443 0.051143 0.035853 0.004943 0.00050378 0.007738 
0.11033 0.020069 0.021878 0.076463 0.054596 0.011191 -0.013307 0.0065871 
0.14026 -0.01676 0.040128 0.034866 0.072024 0.0059294 -0.038956 0.019411 
0.24663 -0.063618 0.078272 0.0056006 0.054103 0.01152 -0.054246 0.029276 
0.23249 -0.091732 0.11477 -0.032379 0.0227 0.0227 -0.056712 0.0047785 
0.10622 -0.070687 0.039634 -0.020212 -0.016924 0.025659 0.010533 0.035524 
0.038648 -0.030242 -0.027611 0.055582 -0.016431 0.034866 0.073339 0.03651 
0.019905 0.029934 -0.027118 0.053281 0.040785 0.062488 0.087972 0.070051 
-0.046847 0.060022 0.023522 0.0013258 0.05213 0.0421 0.080409 0.091425 
-0.13547 0.11198 0.06035 -0.031392 0.034373 0.063968 0.089945 0.071531 
-0.16868 0.13647 0.059528 -0.0036066 0.054596 0.10984 0.09685 0.08419 
-0.094199 0.091589 0.03651 0.055418 0.073997 0.091425 0.078929 0.076134 
-0.020048 0.081889 -0.0138 0.075312 0.039963 0.021878 0.051308 0.041278 
0.015794 0.1419 -0.0073881 0.017932 0.049828 -0.034023 0.0592 -0.0054151 
-0.045203 0.11576 0.027632 0.0013258 0.00050378 -0.022021 0.037826 -0.012156 
0.050321 0.056404 0.094055 -0.051451 -0.013636 -0.018568 -0.025474 0.0018191 
0.099645 0.046375 0.069886 -0.02942 -0.010019 -0.018404 -0.021199 -0.011005 
0.052459 0.074654 0.025824 0.027468 0.005765 -0.01939 0.02681 0.0026412 
-0.023172 0.11033 -0.046847 0.036346 -0.0052507 -0.011334 0.051472 -0.0016336 
-0.086142 0.16985 -0.071509 0.092082 0.017932 0.018754 0.0689 0.0088889 
-0.10275 0.2468 -0.084005 0.073668 0.038977 0.020727 0.068407 0.018425 
-0.058356 0.13565 -0.037805 0.062488 0.047362 0.043416 0.057884 0.0019835 
0.14387 -0.094527 0.13039 0.025166 0.042923 0.016123 -0.022679 -0.00064712 
0.24433 -0.20452 0.23183 -0.050958 0.042429 0.0075736 -0.065262 -0.0019624 
0.20717 -0.19433 0.17084 -0.015938 0.055582 0.039963 -0.061316 0.0095465 
0.16393 -0.048163 0.027468 0.019576 0.082546 0.035853 -0.0070593 0.044567 
0.045553 0.13861 -0.029255 0.039305 0.045882 0.054103 0.0037921 0.033551 
-0.12609 0.16015 -0.050464 0.05213 0.024179 0.050486 0.059364 0.047197 
-0.10735 0.082217 -0.010183 0.01004 0.032236 0.034866 0.092904 0.050321 
0.01711 -0.034023 0.027961 0.011355 0.027632 0.02122 0.071366 0.032729 
-0.006566 -0.045696 0.0018191 0.057227 0.031414 0.0324 0.079422 0.032236 
-0.15783 0.069722 -0.0087034 0.081395 0.0088889 0.020562 0.1128 0.017767 
-0.34805 0.18432 0.0067515 0.079094 0.0090533 0.0031344 0.14256 0.04358 
-0.24513 0.12365 0.043416 0.025659 -0.016431 -0.010019 0.08156 -0.0034422 
0.28773 -0.16391 0.14749 0.023522 1.0539e-005 -0.016102 -0.13168 -0.049971 
0.72952 -0.2693 0.18843 0.038648 0.039634 -0.011498 -0.23099 -0.024158 
0.58105 -0.084498 0.12365 0.049499 0.1128 0.044567 -0.10932 0.028783 
0.22986 0.076956 0.0087245 0.079422 0.1248 0.082053 -0.016595 0.072353 
-0.020212 0.11872 -0.089924 0.075148 0.1008 0.06183 0.056076 0.04506 
-0.15552 0.12447 -0.11393 0.039305 0.062323 0.052459 0.1128 -0.0036066 
-0.15421 0.059035 -0.027447 0.055747 0.009711 0.04358 0.12579 0.014315 
-0.086964 -0.023829 0.035688 0.0011614 -0.017582 0.0075736 0.086821 0.051636 
-0.046025 0.012835 0.070215 0.0028056 0.0039565 0.0019835 0.044238 0.060515 
-0.018239 0.037168 0.025166 0.054103 0.0083956 0.010204 0.049006 0.0056006 
-0.0034422 0.05065 0.038812 0.039141 0.021056 0.025166 0.043909 0.00050378 
0.00050378 0.08419 0.067256 0.037004 0.025988 0.02829 0.034373 0.0028056 
-0.032708 0.091918 0.091918 0.013821 0.024508 0.024015 0.038319 0.048841 
-0.036489 0.079587 0.061666 -0.028433 0.030427 0.027139 0.048184 0.065447 
0.0028056 0.091425 0.07038 0.0046141 0.007738 -0.018897 0.0037921 0.009711 
0.1179 0.068571 0.072024 -0.0042642 0.020562 -0.040271 -0.035174 -0.040928 
0.15785 -0.0096899 0.048677 0.015301 0.025824 -0.029584 -0.04471 -0.016102 
0.12151 -0.057041 0.0070803 0.064461 0.0324 0.0013258 0.027468 0.071695 
0.11543 -0.10176 -0.010348 0.087479 0.044896 0.021549 0.026974 0.087808 
0.12562 -0.057205 0.0021479 0.085177 0.03651 0.043251 0.029769 0.036017 
0.10573 0.0069159 0.013164 0.038977 0.020398 0.029276 0.05065 0.0095465 
0.039141 0.10803 0.034537 0.016781 -0.0054151 0.023357 0.044731 -0.037805 
-0.011005 0.13894 0.024344 0.016616 0.01826 -0.001798 0.034537 -0.003771 
-0.075291 0.14897 0.04506 0.009711 0.048348 0.013164 0.057062 0.019411 
-0.12741 0.20832 0.037661 0.011684 0.055582 0.031085 0.10195 0.060844 
-0.2014 0.19961 -0.0077169 0.034044 0.063474 0.065118 0.11214 0.096521 
-0.30514 0.2486 -0.02087 0.026481 0.061501 0.10951 0.12628 0.096521 
-0.17295 0.14239 0.065118 0.031742 0.03092 0.11822 0.054925 0.13401 
0.33772 -0.093212 0.17281 -0.058521 -0.018897 0.08715 -0.093212 0.090274 
0.66178 -0.27094 0.18843 -0.095514 -0.058521 0.030756 -0.19087 0.020562 
0.45675 -0.16407 0.041114 -0.025474 -0.03912 0.026317 -0.10456 0.0074092 
0.084026 0.068242 -0.11738 0.069886 0.0036276 0.0098754 0.058213 0.034373 
-0.066413 0.059528 -0.11343 0.14338 0.10852 0.02681 0.12661 0.048184 
-0.036983 -0.070359 0.015794 0.14568 0.1396 0.03388 0.071695 0.022371 
0.07301 -0.14714 0.11165 0.097015 0.11165 0.020562 -0.016595 -0.015773 
0.11214 -0.088773 0.086657 0.11921 0.062159 -0.0052507 -0.013307 0.018096 
-0.043724 0.10869 0.027961 0.053774 0.01267 0.029934 0.062323 0.030756 
-0.2254 0.25551 -0.017911 0.020727 -0.012485 0.056569 0.11411 0.059364 
-0.28623 0.26521 -0.058028 0.021056 -0.010841 0.018096 0.12727 0.049006 
-0.26338 0.18958 -0.0040998 -0.010676 0.022042 -0.0090322 0.1322 0.06035 
0.042429 0.047033 0.094877 -0.020706 0.03092 0.035031 0.0051074 0.055911 
0.31864 -0.032872 0.11083 -0.052437 0.023193 0.02829 -0.07266 0.046211 
0.22476 0.007738 0.047691 -0.047998 -0.015116 -0.0034422 -0.046025 0.05772 
0.011026 0.068736 -0.0067304 -0.014787 -0.016924 0.0095465 0.0421 0.037826 
-0.059507 0.092904 -0.012485 -0.0047575 -0.017746 -0.0047575 0.045224 0.029934 
-0.020212 0.036675 0.046375 0.01004 0.00017495 0.014643 0.011191 0.023851 
-0.0073881 0.048019 0.02681 0.052787 0.029769 0.017603 0.039305 0.031907 
-0.046683 0.097344 -0.0027845 0.074654 0.062981 0.046375 0.084848 0.0324 
-0.051615 0.10606 -0.018733 0.097179 0.071366 0.048841 0.057555 0.019905 
-0.023994 0.085506 -0.023829 0.066434 0.044073 0.04095 0.036675 0.027796 
-0.011334 0.093398 -0.011334 0.033715 0.017767 0.038648 0.018754 0.04095 
-0.0087034 0.05624 0.013492 0.020562 0.0011614 0.025659 0.0024767 0.011684 
-0.048492 0.023686 0.03651 -0.049971 -0.0088678 0.013986 -0.015609 0.0092177 
-0.087786 0.059364 0.057555 -0.049314 -0.025638 0.016123 0.023686 0.0026412 
-0.063453 0.037497 0.078107 -0.04323 -0.0027845 0.059364 0.048841 0.011026 
0.11 -0.0004827 0.06331 -0.030077 0.017932 0.063803 -0.027611 0.029276 
0.39921 -0.025309 0.067256 0.0031344 0.0019835 0.052952 -0.13941 -0.013636 
0.2708 0.039634 0.016123 0.065612 0.01415 0.028454 -0.026624 0.029112 
-0.06 0.1932 -0.025474 0.1003 -0.027118 -0.025474 0.099316 0.051801 
-0.21817 0.25041 -0.032543 0.05772 -0.0039354 -0.047669 0.085999 0.026481 
-0.14517 0.097672 0.052787 -0.013471 0.023522 -0.0083746 0.037004 -0.0064016 
0.094384 -0.11113 0.15209 -0.029584 0.072188 -0.0088678 -0.02498 0.0060938 
0.27442 -0.15405 0.072188 0.098659 0.15571 0.005765 -0.067399 0.058871 
0.26801 -0.083512 -0.025145 0.1567 0.19846 0.074161 -0.00064712 0.067091 
0.078107 0.017932 -0.047341 0.15308 0.1641 0.092576 0.079916 0.082382 
-0.062796 0.049664 -0.0077169 0.050979 0.066434 0.032564 0.12135 0.059693 
-0.085156 0.00297 0.054432 -0.033201 -0.027282 -0.018568 0.088794 0.00083261 
-0.084169 -0.067399 0.045389 -0.089266 -0.076606 -0.034188 0.050321 -0.023007 
0.0018191 0.04506 0.014643 -0.10324 -0.08828 -0.052273 0.00017495 -0.052109 
0.11806 0.099645 0.022371 -0.063782 -0.069701 -0.07973 -0.0503 -0.05326 
0.13598 0.061666 0.064954 -0.033201 -0.033365 -0.033859 -0.083676 -0.049971 
0.030098 0.090274 0.06742 -0.0096899 -0.0044286 -0.00031829 -0.046025 -0.0022913 
-0.047176 0.15867 0.0079024 0.040292 0.0085601 0.016288 0.048184 0.039305 
-0.035338 0.16706 -0.041586 0.029441 0.021384 0.0689 0.07301 0.040128 
-0.02646 0.12381 -0.035174 0.080902 0.063803 0.11214 0.070873 0.051308 
-0.045039 0.061501 -0.02646 0.081067 0.073504 0.11148 0.093726 0.056569 
-0.13777 0.081889 0.0083956 0.043745 0.050814 0.037004 0.12316 0.023851 
-0.1358 0.10129 0.03388 0.017438 0.010862 0.0092177 0.078272 -0.00015387 
0.052787 0.029112 0.086657 -0.027282 -0.0044286 -0.024323 -0.0138 -0.0083746 
0.14749 -0.040106 0.14963 -0.054904 0.0034632 -0.031557 -0.041751 0.0090533 
0.1733 -0.12248 0.10211 -0.0014692 0.024508 -0.02235 -0.011334 -0.013307 
0.23364 0.0021479 0.025659 0.050486 0.057062 -0.0014692 -0.0027845 0.059693 
0.25781 0.14585 -0.068714 0.13088 0.083697 0.047855 0.019411 0.080902 
0.086163 0.14437 -0.062631 0.12053 0.079094 0.050321 0.091753 0.068736 
-0.089266 0.027139 -0.027118 0.090109 0.042429 0.05476 0.10885 0.04095 
-0.080881 -0.086471 0.053774 0.021713 -0.03616 -0.012649 0.044896 -0.021034 
0.0079024 -0.11574 0.07597 -0.035667 -0.023336 -0.01232 0.0054362 -0.026624 
0.15604 -0.079072 0.1054 -0.02498 0.0227 0.014972 -0.0060728 -0.025802 
0.22213 -0.052273 0.11428 0.034209 0.086328 0.031742 -0.014458 0.0037921 
0.23759 -0.026131 0.047691 0.044567 0.069722 0.047691 -0.02235 0.02681 
0.11115 0.066434 -0.012649 0.071859 0.061172 0.036182 -0.0062372 -0.055561 
-0.045368 0.12085 -0.039778 0.097015 0.0324 0.038319 0.041114 -0.10373 
-0.15783 0.13253 -0.048985 0.069229 -0.0054151 0.026317 0.071859 -0.14369 
-0.11639 0.090274 -0.0075525 0.067749 0.020069 0.01004 0.064954 -0.12297 
0.0075736 0.040456 0.036675 0.040456 0.019083 0.014315 0.034537 -0.017746 
0.076463 0.042265 0.063803 0.037168 0.021384 0.0031344 0.015465 0.095535 
0.067913 0.036182 0.037004 0.062652 0.025659 0.019576 0.011191 0.1909 
0.016123 -0.00097594 -0.0016336 0.063803 0.055089 0.065283 0.02681 0.23331 
0.01563 0.061172 0.034537 0.026974 0.037332 0.074654 0.069229 0.2588 
-0.027611 0.081231 0.038155 0.015301 -0.0054151 0.0075736 0.11921 0.23808 
-0.12018 0.15209 0.043251 0.015794 -0.011663 -0.025967 0.1248 0.23594 
-0.12527 0.25321 0.0093821 0.037168 -0.030242 -0.054246 0.10507 0.18317 
-0.072825 0.21802 -0.013307 -0.010841 -0.039284 -0.051944 0.03092 0.075148 
0.047033 0.13236 0.020069 -0.047012 -0.068221 -0.07266 -0.056219 0.0034632 
0.052952 0.10524 0.055582 -0.037969 -0.059178 -0.0042642 -0.029584 -0.067564 
0.023357 0.034537 0.036182 -0.015116 0.014808 0.060679 0.029112 -0.1085 
0.12825 -0.14615 0.06479 0.041607 0.074326 0.13384 0.029112 -0.095021 
0.23693 -0.2032 0.071859 0.10507 0.12217 0.16196 -0.0095255 -0.048656 
0.1345 -0.056219 -0.018404 0.13368 0.10951 0.10869 -0.0013048 0.00066819 
0.029934 0.0098754 -0.032543 0.12579 0.071859 0.080902 0.027303 0.035688 
0.029276 -0.020706 0.04358 0.042758 0.078929 0.077121 0.059528 0.081067 
0.048348 -0.027118 0.12003 -0.017417 0.11247 0.076134 0.028619 0.098166 
0.085835 -0.059014 0.10359 -0.023665 0.064625 -0.013471 -0.028433 -0.0042642 
0.15144 -0.052437 0.085341 0.0041209 0.048019 -0.039942 -0.011005 0.0075736 
0.14897 -0.03057 0.073997 0.050321 0.041443 -0.023665 0.0072447 0.018754 
0.058871 0.06331 0.00017495 0.061501 0.013492 0.0065871 0.011355 0.049335 
-0.090253 0.17034 -0.069372 0.098166 -0.022514 0.035031 0.037004 0.086163 
-0.16605 0.22049 -0.065755 0.060022 -0.066084 0.037332 0.093398 0.082382 
-0.15947 0.19139 0.0014903 -0.026789 -0.075291 0.012506 0.069064 0.074983 
-0.08532 0.11625 0.075312 -0.060165 -0.04323 -0.021528 0.042265 0.051801 
-0.014951 0.063803 0.10918 -0.004593 -0.019719 -0.028597 0.014315 0.038483 
0.012835 0.038319 0.074161 0.016616 0.01711 -0.023172 0.017603 0.052787 
0.042594 0.034044 0.01826 0.042265 0.051965 -0.029913 -0.00097594 0.045718 
0.097672 0.016616 0.0034632 0.018096 0.073504 -0.017582 -0.013143 0.031907 
0.12595 0.021878 0.00017495 0.030592 0.10507 0.037661 0.014315 -0.0077169 
0.054596 0.010533 0.0075736 0.064461 0.093562 0.064132 0.027303 -0.015116 
-0.0080457 -0.0016336 0.019905 0.03388 0.11362 0.069229 0.055582 -0.017911 
-0.032708 -0.010183 0.06594 0.037497 0.093398 0.076627 0.038977 0.028947 
0.027632 -0.00015387 0.090109 -0.0098543 0.088301 0.061337 0.044731 0.072517 
0.13302 0.017438 0.064954 -0.0042642 0.083862 0.073504 -0.0032777 0.10277 
0.078929 0.072681 0.045882 0.033387 0.077121 0.07449 0.0098754 0.092082 
-0.023665 0.067913 0.022864 0.00083261 0.055582 0.064296 0.044896 0.058706 
-0.10291 0.03388 0.02829 0.013492 0.01711 0.040621 0.095699 0.02681 
-0.077264 0.069229 0.0042853 0.033551 -0.032215 0.035853 0.10063 0.013657 
0.018754 0.11362 -0.035503 0.0093821 -0.078744 0.02533 0.095042 -0.042408 
0.050979 0.18054 -0.081045 0.045389 -0.087293 -0.013965 0.073175 -0.031064 
-0.0055795 0.2172 -0.025802 0.016452 -0.060329 -0.027282 0.0227 -0.065097 
-0.09798 0.16064 0.095206 -0.023665 -0.0026201 0.0059294 0.00033937 -0.078086 
-0.11771 0.010697 0.23512 -0.054904 0.051965 -0.015938 -0.038462 -0.045861 
0.1276 -0.10719 0.20602 -0.087951 0.07597 -0.011498 -0.090417 -0.042408 
0.3466 -0.11672 0.10408 -0.030899 0.086657 -0.018568 -0.1723 -0.051287 
0.34331 -0.15174 0.014972 0.0786 0.084519 0.011191 -0.1016 -0.01676 
0.19928 -0.092226 -0.064111 0.16804 0.073668 0.010369 -0.0088678 0.007738 
0.084684 0.0065871 -0.11656 0.1927 0.081231 0.029605 0.090931 -0.0060728 
0.045389 -0.00031829 -0.089102 0.16229 0.074983 0.054596 0.077778 -0.034516 
0.0016547 0.024508 -0.0073881 0.060186 0.073668 0.037004 0.060022 0.0095465 
-0.063782 0.077285 0.09126 0.0092177 0.072188 0.01974 0.069886 0.0093821 
-0.15487 0.083862 0.087479 -0.033037 0.055911 0.022371 0.080409 0.01415 
-0.2471 0.10277 0.030427 -0.028269 0.013492 0.016452 0.07301 0.034537 
-0.18446 0.13943 -0.023829 0.012177 -0.012485 0.020398 0.072681 0.0075736 
0.054925 0.092247 -0.0019624 0.022206 -0.04471 0.032729 0.051636 0.019905 
0.17528 0.00083261 0.088958 0.017603 -0.038627 0.034866 0.0023123 0.022864 
0.07301 -0.023172 0.10951 -0.0004827 -0.0050863 0.021878 0.042429 0.01415 
-0.015773 0.025659 0.043745 0.052623 0.027468 0.01563 0.047033 0.0059294 
0.058049 0.082053 -0.023336 0.11066 0.055911 0.011684 0.017603 0.021878 
0.22855 0.070215 0.016781 0.060186 0.054925 -0.020212 -0.064275 0.037826 
0.23446 0.0051074 0.059528 0.039963 0.041278 -0.02087 -0.06707 0.05065 
0.10672 -0.0013048 0.050979 0.01152 0.024179 -0.0072237 -0.0039354 0.074161 
0.016123 0.068571 0.0051074 -0.017417 0.0082312 0.0095465 0.05213 0.048513 
-0.02942 0.14798 -0.032872 0.032729 0.010204 0.028454 0.070051 0.04358 
-0.027611 0.088136 -0.035832 0.042265 0.023851 0.028783 0.062652 0.059693 
-0.008539 0.021384 0.0034632 0.086657 0.018425 0.03388 0.064461 0.045718 
-0.027118 0.022371 0.037004 0.10458 0.012506 0.025166 0.059857 0.011355 
-0.040435 0.039634 0.051143 0.055582 -0.0088678 0.022206 0.058377 -0.0019624 
-0.049314 0.056898 0.015794 0.050486 0.00083261 0.050979 0.044073 0.052952 
-0.057699 0.071695 0.04095 0.01974 -0.022843 0.076792 0.05624 0.076956 
-0.01117 0.060679 0.042758 -0.03057 -0.017582 0.14371 0.01974 0.045718 
0.053774 0.057555 0.038319 -0.018075 -0.048985 0.08567 -0.00031829 0.042923 
0.1128 0.011684 0.054267 -0.089431 -0.03057 -0.026131 -0.028104 0.016288 
0.16196 0.0059294 0.065776 -0.055726 -0.0060728 -0.087129 -0.008539 0.015465 
0.097344 0.013821 0.017603 0.017274 0.015959 -0.064111 0.026481 0.012013 
-0.064933 0.15719 -0.057205 0.089945 0.0039565 0.0014903 0.10244 0.061337 
-0.23066 0.27113 -0.10686 0.1054 -0.023007 0.016452 0.16738 0.069064 
-0.2744 0.091589 0.020562 0.066927 -0.016924 -0.010019 0.12924 0.03651 
-0.010348 -0.18446 0.22246 -0.021034 0.0064227 -0.0059084 -0.030899 0.011191 
0.42683 -0.22557 0.26472 -0.035338 0.057227 -0.017088 -0.18134 -0.0019624 
0.65224 -0.19646 0.15226 0.0059294 0.096521 0.015959 -0.17673 0.035524 
0.5309 -0.077922 -0.05178 0.096521 0.11214 0.072353 -0.058192 0.10195 
0.26094 -0.11376 -0.091239 0.12924 0.085999 0.14042 0.080573 0.14009 
0.016781 -0.11311 -0.011827 0.10918 0.041278 0.082711 0.12168 0.10491 
-0.14632 -0.044546 0.013328 0.11592 0.02829 0.082217 0.18103 0.067585 
-0.19597 0.1026 -0.020377 0.047526 -0.011663 0.055911 0.12595 0.055582 
-0.2499 0.27064 -0.01528 0.034044 -0.008539 0.022371 0.090438 0.038977 
-0.25467 0.32654 -0.0138 -0.031557 -0.035832 -0.026296 0.0689 0.023193 
-0.091239 0.20553 0.023686 -0.086636 -0.065591 -0.028597 0.019411 0.0060938 
0.04917 0.13023 0.049828 -0.098967 -0.056877 -0.050464 -0.031064 0.014315 
0.017603 0.13993 0.074654 -0.061645 -0.049971 -0.028762 -0.0078813 0.0080668 
-0.027775 0.095699 0.090109 -0.016102 -0.00097594 0.019083 0.042594 0.061337 
0.0046141 0.022371 0.063803 0.062323 0.080902 0.07301 0.052952 0.081724 
0.026481 -0.07562 0.018425 0.091589 0.12628 0.077285 0.03651 0.094877 
0.049992 -0.048985 0.025495 0.086985 0.12069 0.078107 0.023357 0.085177 
0.065118 0.051801 0.026481 0.073504 0.076299 0.064625 0.0046141 0.052787 
0.087643 0.09981 0.015137 0.020562 0.018096 0.0082312 -0.00015387 0.051801 
0.072353 0.16722 -0.030242 0.034866 -0.0077169 -0.012649 0.024673 0.014643 
-0.013965 0.14519 -0.012978 0.016945 0.0046141 0.018754 0.05065 0.019083 
-0.025474 0.10556 0.027796 0.013986 0.017767 0.029769 0.04654 -0.0039354 
-0.032543 0.085012 0.032236 0.03388 0.017274 0.026646 0.029769 -0.035996 
0.031742 0.063474 -0.010348 0.0080668 0.019905 0.022206 0.0041209 -0.046025 
0.03388 0.01004 0.0075736 0.010369 0.022864 0.032893 0.018918 -0.05589 
0.026974 -0.0077169 0.030592 0.048019 0.047197 0.0079024 0.05476 -0.011498 
0.021878 -0.02498 0.044073 0.043745 0.062159 0.0016547 0.069393 0.0013258 
0.015959 -0.0022913 0.04358 0.051636 0.050814 0.015794 0.067091 0.044402 
-0.026296 -0.0077169 0.030427 0.017274 0.032729 0.025659 0.068078 0.061337 
-0.12001 0.055418 0.0083956 0.040292 0.062159 0.062652 0.069393 0.060186 
-0.13053 0.10343 0.011684 0.10096 0.076627 0.038319 0.052952 0.081067 
0.076134 0.091425 0.034373 0.043087 0.047362 0.020233 -0.0080457 0.063474 
0.21408 0.031249 0.05624 -0.03616 -0.0024557 0.020727 -0.023501 0.037661 
0.13828 0.016781 0.051636 -0.038956 -0.02942 0.0074092 -0.034845 -0.0016336 
-0.0024557 0.029276 0.022206 -0.045039 -0.0040998 0.015465 -0.0059084 -0.0087034 
-0.15832 0.063803 0.026152 -0.016431 0.00066819 0.019905 0.044402 -0.018075 
-0.16884 0.052623 0.052294 -0.0138 0.05213 0.017603 0.096521 0.0016547 
0.14634 0.0098754 0.042923 0.045553 0.10672 0.037332 -0.01676 0.039305 
0.37257 0.020398 0.0090533 0.12414 0.11115 0.038812 -0.07973 0.048841 
0.26307 0.090274 -0.033365 0.10474 0.10293 0.029441 -0.0060728 0.037168 
-0.00097594 0.11559 -0.057041 0.11395 0.085177 0.03799 0.072188 0.03947 
-0.20337 0.037497 0.0023123 0.091096 0.051143 0.062323 0.095206 0.0095465 
-0.11557 -0.017088 0.074654 0.033387 0.0227 0.049335 0.084684 0.014315 
-0.040928 0.015137 0.08863 0.033387 -0.0054151 0.039305 0.055747 0.029934 
0.00099702 0.097837 0.06742 -0.0082102 0.03651 0.059857 0.041278 0.024015 
0.047033 0.13713 0.064296 0.009711 0.052459 0.051308 -0.016595 0.047855 
0.018918 0.19533 0.01826 0.01826 0.017603 0.012013 0.023193 0.009711 
-0.027282 0.14601 0.0079024 0.054432 -0.010183 0.027796 0.040621 -0.0052507 
-0.025145 0.039963 0.032893 0.029769 -0.012649 -0.011005 -0.00064712 -0.00015387 
0.010862 0.011355 0.04917 -0.0087034 -0.0052507 -0.0029489 -0.0064016 0.012342 
0.036839 -0.0026201 0.049006 -0.024652 -0.01117 -0.0082102 -0.00064712 0.01711 
0.03947 -0.0087034 0.035524 -0.0022913 0.0093821 0.0031344 0.041114 0.026152 
0.032893 -0.014622 0.0227 -0.017417 0.024015 0.0085601 0.03388 0.034373 
0.085341 0.041607 0.00066819 0.039799 0.025824 0.0036276 0.00099702 0.028454 
0.090767 0.072353 -0.018404 0.068078 0.040128 0.036839 0.024015 0.030427 
0.10836 0.037497 0.03799 0.065776 0.074983 0.019247 0.010369 0.042758 
0.098166 0.01974 0.09422 0.044731 0.052459 0.012835 -0.0019624 0.020562 
0.10014 0.015301 0.050157 0.010533 0.013492 0.032729 -0.0073881 0.02122 
0.042594 0.015465 1.0539e-005 0.029441 0.0079024 0.013164 0.022206 0.033222 
0.032564 0.0689 -0.0026201 0.048184 0.019411 0.011026 0.029769 0.01826 
0.043087 0.046704 0.019411 -0.030242 0.00297 -0.00097594 -0.017746 0.013492 
0.013986 -0.0011404 0.11921 -0.065262 -0.006566 0.0013258 0.014972 0.0026412 
-0.13826 0.09981 0.062159 -0.0068948 -0.016431 0.0031344 0.062159 0.04358 
-0.13021 0.19994 -0.054904 0.050814 -0.0075525 0.022371 0.080244 0.034044 
-0.015116 0.095042 -0.029255 0.12168 -0.018897 0.03536 0.031907 0.019411 
0.094055 -0.087293 0.042429 0.087643 -0.0014692 -0.017746 0.027303 -0.022514 
0.21835 -0.16046 0.12562 0.061172 0.054596 -0.042901 -0.02794 -0.012814 
0.2879 -0.07266 0.10228 0.057227 0.090109 -0.013965 -0.070852 0.035195 
0.2389 0.093069 0.054925 0.01563 0.089123 -0.017746 -0.052602 0.060844 
0.23315 0.086657 0.079422 -0.041586 0.0689 -0.021199 -0.039942 0.07597 
0.16738 -0.0088678 0.076627 -0.017253 0.072353 0.025988 -0.019884 0.074819 
0.090603 -0.063453 0.037004 0.013328 0.070215 0.0786 0.027468 0.061337 
0.01004 -0.096829 0.01004 0.092411 0.10951 0.13467 0.07038 0.01004 
-0.044381 -0.054904 -0.014129 0.090438 0.089287 0.18267 0.10688 0.012342 
-0.056548 0.024015 -0.040435 0.087808 0.035524 0.14305 0.078765 0.013657 
-0.036983 0.081231 -0.00015387 0.083862 0.0042853 0.035031 0.065776 0.0039565 
-0.039449 0.063968 0.028783 0.043745 -0.0070593 -0.00097594 0.066927 0.050157 
-0.084991 0.088136 0.049992 0.020233 0.007738 0.034373 0.071037 0.092082 
-0.11755 0.21737 0.019083 -0.0054151 0.0046141 -0.00064712 0.041936 0.075805 
-0.059836 0.20454 0.02533 -0.030735 0.0041209 -0.046354 -0.00097594 0.086328 
0.10737 0.0075736 0.090931 -0.044381 -0.021199 -0.097158 -0.02646 0.068407 
0.16442 -0.038133 0.10474 -0.031557 -0.0090322 -0.041915 -0.025638 0.065447 
0.16788 -0.013965 0.030756 0.030427 -0.021692 -0.022843 -0.0087034 -0.0027845 
0.12069 -0.031392 -0.025967 0.12201 -0.015938 0.0016547 -0.016431 -0.068221 
0.03947 -0.0036066 -0.036983 0.13072 0.025001 0.047855 0.038977 -0.050136 
-0.020212 0.043745 -0.035503 0.073997 0.054103 0.05624 0.05624 -0.0047575 
-0.040271 -0.030242 0.067749 0.026481 0.061172 0.022864 0.085999 0.065447 
0.010697 0.010204 0.070051 -0.049478 0.066434 0.068407 0.10573 0.14058 
0.062159 0.04654 0.072517 -0.039449 0.044402 0.07449 0.068242 0.15538 
0.12332 0.047362 0.046375 -0.14073 -0.045039 0.031414 0.038648 0.1197 
0.0080668 0.12168 -0.0024557 -0.1695 -0.11245 -0.041093 0.058706 0.056404 
-0.18693 0.23841 -0.053753 -0.067728 -0.036654 0.012835 0.096357 0.037168 
-0.15273 0.18498 -0.055561 0.054267 0.053116 0.015301 0.062159 -0.0059084 
0.029934 0.031742 0.032729 0.13762 0.082875 0.0021479 -0.03057 -0.034352 
0.14354 -0.08269 0.11329 0.096521 0.075312 0.032893 -0.047012 -0.038627 
0.17363 -0.12774 0.09833 0.072517 0.093398 0.029441 -0.041915 -0.026131 
0.12003 -0.02235 0.032893 0.095699 0.1031 0.037661 0.00297 -0.0016336 
0.021549 0.039305 0.0044497 0.092904 0.11921 0.070051 0.052294 -0.0091966 
0.017274 0.062817 -0.0039354 0.11674 0.11691 0.082875 0.071366 -0.062302 
-0.0091966 0.077449 -0.033037 0.08978 0.062323 0.10408 0.08863 -0.091075 
-0.047505 0.171 -0.03353 0.042758 -0.0032777 0.1026 0.056404 -0.109 
-0.10669 0.23726 -0.011663 0.062817 -0.037147 0.1031 0.06594 -0.025309 
-0.042244 0.13434 0.023357 -0.018404 -0.050136 0.01415 0.031742 0.0041209 
0.098001 -0.11771 0.07597 -0.064111 -0.087458 -0.073482 -0.038791 0.061008 
0.092247 -0.14977 0.091096 -0.05885 -0.078908 -0.065097 -0.031064 0.1294 
0.059364 -0.05885 0.038812 -0.045368 -0.054575 -0.02794 0.0227 0.16771 
0.005765 0.092576 0.0051074 0.004943 0.004943 -0.010348 0.071531 0.22641 
-0.071674 0.2126 -0.010512 0.013492 0.023851 0.022042 0.08304 0.2121 
-0.20025 0.20931 -0.00015387 -0.036489 0.027303 0.02829 0.097344 0.20684 
-0.2984 0.15209 0.056569 -0.028597 0.031249 0.014972 0.099152 0.12924 
-0.1279 0.08304 0.10819 -0.045039 0.038977 0.0056006 0.030427 -0.013143 
0.28149 -0.038133 0.13138 -0.011334 0.0095465 0.016288 -0.087293 -0.12905 
0.35334 -0.10341 0.065118 0.079094 0.041936 0.024508 -0.090581 -0.14451 
0.24647 0.020398 0.0024767 0.087479 0.049499 0.046704 -0.022185 -0.051287 
0.20076 0.16393 -0.014458 0.08008 0.013657 0.056733 0.0095465 0.031414 
-0.025967 0.22411 -0.023829 0.077285 0.025988 0.057391 0.082546 0.062488 
-0.16391 0.1396 -0.041915 0.073832 0.053609 0.054432 0.095699 -0.011005 
-0.081539 -0.017746 -0.0040998 0.10211 0.053116 0.024837 0.062817 -0.14434 
-0.07562 -0.10932 0.035524 0.0324 0.034373 -0.037476 0.015465 -0.15816 
-0.03205 -0.10867 0.075148 -0.056219 0.013492 -0.089431 0.06594 -0.076442 
0.16656 -0.019226 0.059035 -0.03616 0.020069 -0.083018 -0.081539 0.075312 
0.23742 0.032729 0.031578 0.024508 0.037826 0.025659 0.013657 0.17906 
0.08715 0.059528 0.036017 0.057062 0.046868 0.098001 0.096357 0.19714 
-0.027775 0.077449 0.054596 0.056898 0.078436 0.10359 0.09833 0.16607 
-0.081539 0.082217 0.032071 0.052787 0.061501 0.11757 0.096193 0.065118 
-0.083347 0.11378 0.01711 0.050979 0.017274 0.037004 0.0085601 -0.0004827 
-0.071509 0.16114 0.013821 0.012506 0.00017495 -0.0098543 -0.026624 -0.053095 
-0.015444 0.13483 0.023851 -0.0064016 -0.01117 -0.046683 -0.034516 -0.079566 
0.0093821 0.073175 0.054596 -0.040106 0.022371 -0.05178 -0.0047575 -0.031392 
0.069393 0.00297 0.058706 -0.031886 0.047197 -0.025145 -0.0049219 -0.010841 
0.095042 -0.041093 0.08567 0.0083956 0.048348 0.005765 -0.0075525 0.034209 
0.030592 0.010862 0.054432 0.019905 0.00050378 0.031249 0.037168 0.03947 
-0.076277 0.12973 -0.0004827 0.054596 -0.028269 0.024015 0.087808 0.05065 
-0.11179 0.17034 -0.011663 0.082217 0.028783 0.037661 0.073339 0.07301 
-0.11574 0.14601 0.049006 0.049664 0.081067 0.062323 0.048677 0.046046 
0.025659 0.097179 0.050486 0.052294 0.10244 0.056569 -0.004593 0.05624 
0.21523 0.084355 0.018096 0.030427 0.091589 0.051636 -0.035832 0.044402 
0.33985 -0.050136 0.029934 0.0051074 0.054925 0.024673 -0.062631 0.0070803 
0.33377 -0.14763 0.050157 0.061501 0.016452 0.041278 -0.032379 0.024837 
0.17577 -0.15224 0.013492 0.095371 0.0070803 0.033551 0.037826 -0.0073881 
0.02829 -0.13218 -0.071345 0.11773 0.0087245 0.019247 0.083862 0.0062583 
0.02681 -0.15059 -0.087951 0.13368 0.019247 0.038155 0.066105 0.0085601 
0.092082 -0.14122 0.034537 0.082546 0.048019 0.012342 0.033715 -0.0016336 
0.081395 -0.14632 0.18695 0.012177 0.070215 -0.024158 0.013164 0.021549 
0.073997 -0.059507 0.19172 -0.085978 0.047033 -0.013471 -0.020706 0.010369 
0.045389 0.081067 0.10162 -0.090746 0.034373 -0.0082102 -0.0068948 0.024015 
0.066269 0.17741 0.041278 -0.013471 0.00050378 -0.027447 0.016945 0.0092177 
0.00099702 0.17676 0.015137 -0.0067304 0.0088889 0.00017495 0.056404 0.00066819 
-0.11886 0.22476 -0.02498 0.0064227 -0.0073881 0.01415 0.052459 -0.00064712 
-0.15306 0.26932 -0.086471 0.015794 -0.025145 -0.0029489 0.049828 -0.0032777 
-0.1256 0.20964 -0.084498 -0.011498 0.010697 -0.0090322 0.048841 0.013492 
-0.069865 0.065118 0.00033937 0.031907 0.059693 0.047691 0.059693 -0.0049219 
-0.021692 -0.064933 0.13072 -0.0073881 0.093891 0.085341 0.044238 0.0095465 
0.099645 -0.1501 0.13401 0.060022 0.11346 0.10787 0.020069 0.033715 
0.25913 -0.069208 0.06742 0.10754 0.11066 0.13598 -0.0029489 0.037661 
0.27261 0.031578 0.0088889 0.08863 0.085012 0.14864 -0.027118 0.057062 
0.082711 0.079094 -0.0034422 0.082546 -0.0029489 0.046868 0.012835 0.033551 
-0.12396 0.10573 0.0052718 0.029605 -0.049971 -0.030735 0.069393 0.015137 
-0.12905 0.1322 0.029769 -0.0088678 -0.037805 -0.025145 0.087479 -0.001798 
0.058706 0.063803 0.063968 -0.012978 0.0074092 -0.013965 -0.011827 -0.018075 
0.15522 -0.042079 0.083862 -0.013143 0.036346 -0.0057439 -0.064933 0.00033937 
0.10376 -0.056383 0.027303 0.027139 0.028125 0.057391 -0.030077 0.019083 
0.095864 0.011684 0.019247 0.064132 0.037168 0.07301 0.016945 0.062817 
0.060022 0.043251 -0.035832 0.062817 0.024673 0.089945 0.013492 0.042265 
0.012999 0.057227 -0.0031133 0.060515 0.027961 0.050979 0.027468 0.048184 
-0.022843 0.082875 0.036017 0.043745 0.065776 0.031742 0.046868 0.098988 
-0.048327 0.083862 0.04506 0.012835 0.033551 -0.015938 0.0786 0.056569 
-0.037805 0.049006 0.043087 0.026317 1.0539e-005 -0.00097594 0.069886 0.037826 
-0.03616 0.085012 0.043745 -0.020048 -0.004593 0.018918 0.04506 -0.0029489 
-0.024487 0.072517 0.046375 -0.032215 -0.0044286 0.016945 0.060022 -0.0031133 
0.0019835 0.093233 0.0074092 0.016781 -0.0044286 0.0082312 0.031414 0.0054362 
0.016452 0.11313 0.0060938 0.038483 -0.0062372 0.023686 0.0011614 0.028454 
0.049006 0.091918 0.029605 0.040621 0.024673 0.0031344 0.00017495 0.043745 
0.043909 0.067749 0.047033 0.020233 0.026646 -0.012485 0.041772 0.05213 
-0.01676 0.024344 0.053609 0.026646 0.029112 0.031578 0.037168 0.092411 
-0.012814 -0.0039354 -0.0087034 0.054103 0.040621 0.073668 0.053609 0.11724 
-0.024652 0.027632 -0.0075525 0.030263 0.021384 0.04917 0.067749 0.075641 
-0.036983 0.10639 0.00033937 -0.017253 -0.022679 0.037826 0.059035 0.053774 
-0.037805 0.11017 0.013492 0.0021479 -0.034023 0.011355 0.021713 0.0064227 
0.021056 0.085341 0.027468 0.00297 -0.018568 -0.015938 -0.0013048 0.01711 
0.090603 0.053609 0.08715 0.018754 0.035524 -0.050629 -0.011992 0.050979 
0.0080668 0.13138 0.10162 0.0019835 0.052952 0.0069159 0.036675 0.03092 
-0.14517 0.2195 -0.010676 0.058871 0.034702 0.030427 0.085012 0.073339 
-0.23329 0.32769 -0.1381 0.15818 0.047691 0.065118 0.12562 0.087808 
-0.18759 0.30122 -0.15339 0.14108 0.0087245 0.013821 0.093398 0.086985 
0.072024 0.10293 0.04095 0.044896 -0.039942 -0.03912 -0.022185 -0.00064712 
0.2098 -0.080717 0.21737 -0.055397 -0.012649 -0.087293 -0.09091 -0.045368 
0.18202 -0.13727 0.21589 -0.1039 0.038483 -0.044381 -0.071674 0.0039565 
0.033058 -0.050793 0.10803 -0.025967 0.082053 0.048513 0.0095465 0.034866 
-0.13925 0.07301 0.0056006 0.054267 0.082053 0.063145 0.080902 0.072517 
-0.133 0.10639 -0.051451 0.091425 0.074819 0.069064 0.11625 0.058871 
0.070544 -0.014622 -0.062796 0.094877 0.0052718 0.029276 0.055089 0.023851 
0.30862 -0.16654 0.015959 0.031578 -0.021363 -0.017911 -0.022021 0.012835 
0.29201 -0.15437 0.055254 0.0092177 -0.029091 -0.015938 -0.023501 0.015301 
0.083862 0.054596 0.041443 0.029605 0.021713 0.016452 0.055582 0.056076 
-0.037147 0.058213 0.016123 0.040621 0.028125 0.048841 0.11658 0.055089 
-0.04323 0.0024767 0.040456 0.055089 0.0074092 0.023028 0.072517 0.039799 
-0.0013048 0.020727 0.047362 -0.023336 -0.0062372 0.01152 0.037332 0.010204 
0.027139 -0.02794 0.086328 -0.036983 -0.0054151 0.0044497 0.050486 0.017438 
-0.004593 0.0036276 0.10244 -0.026296 0.0074092 -0.0096899 0.073832 0.0592 
-0.054739 0.096686 0.087479 -0.024487 0.027796 -0.017253 0.052294 0.077121 
-0.035338 0.1225 0.039141 0.01563 0.056898 -0.0036066 0.038977 0.096686 
0.035031 0.095042 0.00297 0.016288 0.073832 -0.0013048 0.0028056 0.068242 
0.1391 0.063803 -0.013965 0.05213 0.023357 0.0016547 -0.0064016 0.065283 
0.12085 0.029112 -0.017746 0.086328 0.020562 0.0069159 -0.00081153 0.054596 
0.06594 0.021713 0.01974 0.080573 0.021384 0.023193 0.055747 0.07301 
0.036017 -0.0057439 0.037332 0.047855 0.045553 0.0059294 0.053938 0.060186 
0.097015 -0.025967 0.10293 0.055747 0.072517 -0.014787 -0.00081153 0.040292 
0.10441 -0.050958 0.081724 0.028619 0.083862 0.044238 -0.023172 0.0227 
0.050321 0.0098754 0.0024767 0.049992 0.064954 0.028619 -0.0080457 0.019247 
0.010204 0.050979 0.021549 -0.020706 0.0087245 0.016123 0.025824 0.012177 
0.056076 0.044731 0.032071 -0.049807 -0.023994 0.0054362 0.010369 0.015465 
0.066434 0.034373 0.071202 -0.046519 -0.0075525 0.023522 0.0031344 0.016288 
0.10293 0.00297 0.048677 -0.015938 0.020891 0.041936 0.010862 0.03092 
0.13713 -0.016266 0.025988 0.049664 0.049335 0.083697 0.039799 0.046868 
0.081395 0.031742 -0.047998 0.11148 0.058871 0.11181 0.059528 0.0013258 
-0.035503 0.12513 -0.06855 0.147 0.073175 0.073339 0.046704 0.010862 
-0.064933 0.061995 0.0085601 0.12595 0.068407 0.0421 0.054103 0.0044497 
0.085835 -0.09387 0.15094 0.0085601 0.027303 0.012342 -0.021528 0.035195 
0.10721 -0.15388 0.16492 -0.053424 -0.024323 -0.01528 -0.024652 0.024344 
0.064132 -0.019226 0.066434 -0.033201 -0.048327 -0.060987 0.046046 0.0056006 
0.032071 0.052459 0.031249 -0.066906 -0.058028 -0.031064 0.048513 -0.003771 
0.090603 0.0044497 0.042429 -0.029255 0.0047785 -0.018404 0.0026412 0.0074092 
0.17626 -0.050136 0.068571 0.011355 0.091425 0.021878 -0.030735 0.052623 
0.12201 -0.064768 0.029769 0.038648 0.13549 0.064461 -0.014129 0.071531 
0.02122 0.055582 -0.0096899 0.10014 0.12908 0.088301 0.06479 0.078765 
-0.014951 0.20306 -0.053917 0.096357 0.080902 0.072846 0.04095 0.082382 
-0.054904 0.23364 -0.057863 0.073668 0.025824 0.031414 0.033715 0.068736 
-0.06707 0.15078 0.01267 0.04358 0.045224 0.081889 0.049992 0.036346 
-0.066577 0.18465 0.037168 0.028947 0.04654 0.053116 0.032729 0.03947 
-0.064111 0.12957 0.039305 0.021878 0.034209 0.019905 0.028619 0.0062583 
0.019576 0.029112 0.04358 -0.0024557 -0.0027845 0.0019835 0.0013258 0.023028 
0.11362 -0.056055 0.064625 -0.016102 -0.014129 0.019411 -0.015444 -0.018239 
0.087314 -0.017088 0.019247 0.049006 0.014479 -0.0016336 0.021549 0.0056006 
0.029276 0.051308 -0.02087 0.036839 0.047362 0.04358 0.023193 0.01152 
-0.011005 0.10047 -0.025802 0.034866 0.051472 0.08008 0.025495 0.00099702 
-0.033365 0.10852 -0.023007 0.051308 0.054925 0.038319 0.053774 0.0059294 
-0.013636 0.085999 0.017932 0.042429 0.050321 0.0019835 0.0421 0.0021479 
0.0026412 0.093562 0.023686 0.054925 0.051308 0.013492 0.017603 0.0037921 
-0.045203 0.13171 0.049006 0.023028 0.046375 0.017932 0.046704 0.009711 
-0.066906 0.087808 0.065447 0.025166 0.051965 0.025495 0.069064 0.0080668 
0.0054362 -0.013143 0.042923 0.040128 0.04917 0.027961 0.037497 0.036017 
0.12398 -0.027118 0.066598 -0.0050863 -0.0044286 0.029112 -0.029913 0.017932 
0.21112 0.0024767 0.05065 -0.0050863 -0.028269 -0.0022913 -0.020212 -0.00015387 
0.1077 0.055254 0.021549 -0.011992 -0.021856 0.0047785 -0.009361 -0.012814 
-0.047669 0.10145 0.00083261 0.013164 0.024179 0.069722 0.060186 0.051801 
-0.059178 0.038155 0.025166 0.061172 0.066434 0.057227 0.086328 0.051801 
0.079258 0.030263 0.025824 0.050486 0.041114 0.023028 0.021056 0.0052718 
0.046704 0.11494 -0.0022913 0.083368 0.0087245 0.013657 0.018754 0.031414 
-0.043888 0.1271 0.013164 0.10967 0.019247 0.010204 0.062981 0.019905 
-0.041422 0.066105 -0.0031133 0.073668 0.01004 0.004943 0.069229 0.022042 
-0.019884 0.060515 0.0085601 0.028783 -0.0067304 -0.004593 0.073832 0.017274 
-0.019884 0.061666 0.040128 -0.060987 -0.01117 -0.0054151 0.048348 0.01826 
0.022371 0.0065871 0.078929 -0.11064 -0.016266 -0.024323 0.0016547 0.02122 
0.062652 -0.0014692 0.070544 -0.058521 0.0011614 -0.0096899 -0.01232 0.023522 
-0.0088678 0.13927 -0.015444 0.01415 0.015465 0.019083 0.0039565 0.050321 
-0.095678 0.26324 -0.053095 0.094055 0.050157 0.017932 0.019083 0.042758 
-0.077593 0.23315 -0.015116 0.092247 0.055089 0.007738 0.0098754 0.027632 
0.056569 0.10507 0.032893 0.038155 0.045389 0.0052718 -0.023007 -0.0024557 
0.15028 -0.12511 0.10376 0.011684 0.041772 -0.0096899 -0.025638 -0.019555 
0.17478 -0.18759 0.077121 0.0037921 0.047033 0.013657 -0.0050863 0.027961 
0.16853 -0.051944 -0.034188 0.079751 0.081395 0.039963 0.04506 0.037497 
0.067585 0.042758 -0.12708 0.15456 0.03388 0.076134 0.10869 0.054267 
-0.078908 0.06331 -0.064111 0.11132 0.033222 0.066434 0.13023 0.058706 
-0.11278 0.048184 0.068242 0.0070803 0.03092 0.055418 0.083862 0.0085601 
-0.028433 -0.071674 0.23068 -0.039942 0.066269 0.055911 0.042594 0.0085601 
0.12546 -0.15059 0.20438 -0.0059084 0.085012 0.01267 -0.0070593 -0.018075 
0.25814 -0.017582 0.086328 0.084684 0.079751 0.010862 -0.032379 0.032729 
0.16706 0.15851 -0.037476 0.068736 0.059364 0.016288 0.0082312 0.091589 
0.0054362 0.16607 -0.066248 0.051143 0.025659 0.0075736 0.050486 0.094055 
-0.053917 0.077449 -0.025474 0.055418 -0.011498 -0.0062372 0.049006 0.076134 
0.00017495 0.0042853 -0.0029489 0.0072447 -0.064111 -0.031064 0.019576 0.033387 
0.059693 -0.060658 0.038483 -0.046847 -0.10505 -0.01939 -0.0039354 0.024179 
0.057062 -0.045368 0.087643 -0.092226 -0.13941 -0.038791 -0.00064712 0.013657 
0.015465 0.079094 0.065283 -0.11475 -0.12527 -0.053424 -0.018075 -0.015444 
0.01004 0.091589 0.043909 -0.035667 -0.089431 -0.025145 -0.016266 -0.020048 
0.016123 0.047855 0.020891 0.021549 -0.031721 -0.033694 0.017274 -0.020541 
0.0059294 0.056076 0.036346 0.064132 0.040785 0.0060938 0.084355 0.03799 
-0.019555 0.049828 0.0044497 0.12003 0.061995 0.066269 0.12579 0.075805 
-0.037969 0.080573 -0.0032777 0.10359 0.062981 0.058377 0.13401 0.044238 
-0.01117 0.11395 -0.0067304 0.085341 0.057391 0.049828 0.093398 0.052294 
0.045224 0.10655 0.013164 0.048841 0.058049 0.05065 0.0064227 0.036017 
0.069722 0.04654 0.057227 -0.020706 0.0067515 0.027632 -0.047669 0.038812 
0.071037 -0.014622 0.096357 0.011026 0.049006 0.0044497 -0.031886 0.039963 
0.097672 -0.022679 0.10606 -0.020212 0.089616 0.018754 0.0088889 0.058049 
0.025166 0.023522 0.040785 0.023522 0.10754 0.081231 0.025824 0.095699 
0.038319 0.027468 -0.017746 0.08863 0.1299 0.13894 0.025824 0.080573 
0.040621 -0.024652 -0.015444 0.083204 0.1493 0.15785 0.072353 0.077449 
0.033387 -0.14171 0.010533 0.10244 0.11231 0.12858 0.09685 0.058871 
0.065776 -0.21291 0.063639 0.025659 0.0037921 0.0072447 0.038483 0.047526 
0.1927 -0.11623 0.11724 -0.03912 -0.05589 -0.081703 -0.020541 0.038648 
0.26554 -0.0032777 0.090109 -0.082032 -0.051287 -0.083347 -0.055726 -0.0091966 
0.15604 0.10228 0.017274 -0.04471 -0.0075525 -0.038133 -0.02235 0.0013258 
0.0019835 0.18333 -0.0055795 0.011191 0.034866 -0.0054151 0.021549 -0.022679 
-0.121 0.1733 0.0019835 0.056569 0.063803 0.0046141 0.065612 -0.039778 
-0.18397 0.10014 0.044731 0.063968 0.085341 0.011026 0.12283 0.0024767 
-0.17739 0.087643 0.058706 0.037661 0.021713 -0.020212 0.10014 -0.014951 
-0.057534 0.11181 0.089945 -0.026789 -0.059507 -0.056383 0.054596 -0.0068948 
-0.0090322 0.11839 0.069229 -0.013636 -0.05737 -0.042408 0.014808 0.041772 
0.013821 0.090109 0.041443 0.086492 -0.022514 0.028454 0.042265 0.11083 
0.099316 0.089945 -0.029255 0.10524 0.024344 0.084519 0.019247 0.13434 
0.16936 0.037661 -0.0091966 0.096521 0.066269 0.11806 -0.0055795 0.12266 
0.081231 0.025166 0.03651 0.059693 0.071366 0.12135 0.030756 0.09422 
-0.0067304 0.047526 0.052952 -0.00081153 0.033222 0.090274 0.066269 0.066434 
-0.0095255 0.048184 0.040785 0.016123 0.036017 0.064954 0.06742 0.025001 
-0.030077 0.056898 0.0054362 0.004943 0.034866 0.088958 0.037661 -0.0096899 
-0.072332 0.09685 -0.0031133 0.016123 0.038977 0.066434 0.076299 0.023522 
-0.065755 0.091918 0.013328 0.04095 0.062817 0.022042 0.042594 0.00066819 
0.070544 0.091918 0.028454 0.027139 0.077449 -0.043066 -0.010512 -0.02646 
0.12118 0.081067 0.034209 0.023522 0.063803 -0.049642 -0.057699 -0.010019 
0.030592 0.082217 0.035195 0.012835 0.052623 -0.055068 -0.020706 0.0014903 
-0.13448 0.14765 0.00017495 0.011191 0.023686 -0.034352 0.024344 0.027303 
-0.22902 0.21983 -0.020048 0.03947 0.026646 0.049664 0.075476 0.07597 
-0.099295 0.11625 0.02829 0.013492 0.048019 0.036839 0.03536 -0.016102 
0.15324 -0.12774 0.13368 -0.013636 0.078107 0.047855 -0.02646 -0.058192 
0.30187 -0.2277 0.17478 0.0046141 0.073504 0.054596 -0.069865 -0.076113 
0.26817 -0.1011 0.11132 0.033058 0.070708 0.056569 -0.026296 -0.019719 
0.13417 0.049664 -0.011334 0.10524 0.048841 0.031907 0.059528 0.026152 
-0.00015387 0.12727 -0.04471 0.10639 0.032729 0.024179 0.062817 0.049335 
-0.085649 0.16886 -0.050464 0.051801 0.010862 0.027632 0.050486 0.050979 
-0.060165 0.13927 -0.0068948 0.034702 -0.031721 0.0059294 0.031085 0.052787 
-0.052273 0.12809 0.0056006 -0.027447 -0.050629 -0.010348 0.067913 0.076956 
-0.080223 0.1373 0.012506 -0.012978 -0.037147 0.068571 0.074161 0.13582 
-0.080223 0.13434 0.026152 -0.013636 -0.016924 0.087479 0.055582 0.12168 
-0.049642 0.14634 0.052294 -0.0026201 -0.01528 0.048513 0.075805 0.12151 
-0.12116 0.19632 0.048677 0.04654 -0.00097594 0.024837 0.14223 0.027139 
-0.061316 0.17445 0.031085 -0.0050863 -0.017253 -0.056877 0.035195 -0.039284 
0.040456 -0.011498 0.070215 -0.063782 0.010533 -0.049478 -0.03205 -0.049971 
0.1567 -0.1307 0.078765 -0.076277 -0.00081153 -0.024158 -0.050793 -0.027775 
0.2491 -0.12757 -0.01117 -0.01528 0.018096 0.027139 -0.042573 -0.0026201 
0.27425 -0.14237 -0.07266 0.14749 0.066927 0.056898 -0.011005 -0.0077169 
0.15867 -0.12314 -0.047505 0.21276 0.071037 0.061995 0.01415 0.031414 
0.038483 -0.077428 0.071531 0.10178 0.041772 0.074654 0.058049 0.032236 
-0.042079 -0.055232 0.14289 0.03388 0.011191 0.035031 0.041607 0.060186 
-0.0062372 0.04358 0.087479 -0.013636 0.004943 -0.0054151 -0.0064016 0.06479 
0.10803 0.10491 0.026152 -0.02646 -0.017253 -0.040764 -0.0406 0.017767 
0.10014 0.030098 0.0026412 -0.0027845 -0.015938 -0.070687 -0.012649 0.014808 
0.017438 0.061172 -0.0034422 -0.014787 0.032236 -0.01939 0.027632 -0.0016336 
-0.0868 0.1128 -0.013471 0.047362 0.05772 0.05772 0.092904 0.013821 
-0.12314 0.13384 0.0087245 0.049992 0.011355 0.081395 0.10524 0.016945 
-0.083018 0.094713 0.043909 -0.00064712 -0.015444 0.05624 0.099316 -0.029913 
-0.034681 0.069886 0.064132 0.031578 -0.020541 -0.0011404 0.05213 -0.0027845 
0.047691 0.013328 0.068571 -0.040435 0.018754 -0.014787 0.00083261 0.026974 
0.11806 -0.021363 0.048019 -0.025638 0.05213 -0.0059084 -0.001798 0.030098 
0.14979 -0.00031829 0.015794 0.064461 0.1008 0.016123 0.024508 0.076956 
0.066269 0.031249 -0.024816 0.064296 0.13532 0.055747 0.058706 0.094713 
0.065283 -0.041422 0.029769 0.043251 0.075148 0.03388 0.034373 0.078272 
0.13203 -0.031886 0.058377 -0.020541 -0.033201 -0.027282 -0.018733 0.046704 
0.081724 0.065118 0.04358 -0.028433 -0.066084 -0.034845 0.0083956 -0.0080457 
-0.022679 0.059693 0.058213 0.0098754 0.0031344 -0.0036066 0.020562 -0.001798 
0.028454 -0.0019624 0.059693 0.016452 0.076627 0.014479 0.020233 0.0065871 
0.11707 -0.03912 0.098166 0.020398 0.090767 0.012013 -0.00031829 0.017274 
0.13023 -0.023501 0.038319 0.061995 0.073668 0.034373 -0.0040998 0.020562 
0.098494 0.05065 -0.022679 0.073668 0.00099702 0.031578 0.021549 0.040621 
0.024673 0.099481 -0.037147 0.1077 0.032564 0.030756 0.034537 0.042429 
-0.019719 0.049335 -0.0042642 0.052952 0.033222 0.043909 0.050979 0.039799 
-0.021692 0.029934 0.034209 0.031085 0.049992 0.070544 0.03388 0.040621 
-0.015609 0.1105 0.031414 0.0421 0.030756 0.041114 0.041772 0.036839 
0.016781 0.15226 0.010697 0.010697 0.011191 0.015794 0.03536 0.021549 
0.054103 0.064625 0.045553 -0.015938 -0.006566 0.025166 0.021384 -0.0050863 
0.031085 -0.078744 0.067256 -0.025309 -0.021363 -0.010676 0.00017495 -0.020706 
0.059364 -0.10275 0.059693 -0.023829 -0.0060728 -0.022679 0.00066819 -0.011498 
-0.020212 -0.049807 0.01826 0.061501 0.023851 -0.0021268 0.085177 0.01415 
-0.11245 0.0090533 -0.01117 0.093562 0.083862 0.018918 0.11181 0.027961 
-0.017253 0.033222 -0.0080457 0.10672 0.11937 0.010862 0.064461 0.074819 
0.16327 0.084519 0.013164 0.11395 0.093069 0.030098 0.0014903 0.042594 
0.16426 0.25978 -0.0031133 0.08567 0.10524 0.07038 -0.0040998 0.016945 
-0.053588 0.31207 -0.024323 0.049992 0.060515 0.020727 0.028619 0.0044497 
-0.16966 0.080902 0.1003 -0.018239 0.019083 0.004943 0.0072447 0.031414 
-0.014293 -0.084334 0.15801 -0.082525 0.0041209 0.0046141 -0.01232 -0.0091966 
0.24663 -0.0068948 0.14058 -0.069701 -0.01939 -0.02235 -0.077264 -0.042079 
0.29892 -0.027775 0.087314 -0.076606 -0.030899 -0.040928 -0.09798 -0.016595 
0.17412 -0.050793 0.0070803 -0.015938 0.017274 -0.0087034 -0.046354 -0.008539 
0.16262 -0.038791 -0.014293 0.044896 0.013657 0.042758 0.01267 0.02829 
0.13483 0.0080668 0.024015 0.01004 0.0052718 0.081889 0.021713 0.026481 
-0.025474 0.046211 0.03947 0.024673 0.019905 0.10984 0.061995 0.070873 
-0.13497 0.054596 0.0047785 0.076299 0.060844 0.1465 0.077778 0.058871 
-0.13596 0.089123 -0.023829 0.11526 0.08715 0.12776 0.089616 0.036675 
-0.044874 0.047855 -0.031886 0.14174 0.10063 0.058871 0.07038 0.052294 
0.00017495 0.019905 0.00297 0.10326 0.077285 0.015794 0.064954 0.041278 
-0.01939 0.058542 0.014643 0.052459 0.08304 -0.02498 0.045718 0.042923 
0.012506 0.091753 0.069393 0.030592 0.055911 -0.032543 0.032564 0.0059294 
0.046704 0.076792 0.076792 0.00033937 0.048677 0.014972 0.0080668 0.03947 
0.012013 0.13056 0.053116 0.004943 0.034537 0.015465 -0.0039354 0.043251 
-0.0406 0.1294 0.036182 -0.0014692 0.012835 0.0019835 0.043745 0.028619 
-0.046354 0.1077 0.025166 -0.035832 0.0098754 -0.01232 0.058871 0.031907 
-0.0082102 0.058871 0.039141 0.0026412 0.017932 0.018425 0.016288 0.03947 
0.036346 0.043251 0.024673 -0.004593 0.043251 0.017932 0.020562 0.038648 
0.038648 0.033387 0.0062583 0.026317 0.055747 0.057884 0.032564 0.052459 
0.061501 0.048348 0.01267 0.037826 0.044073 0.099645 0.019905 0.025001 
0.028947 0.10096 0.0011614 0.03388 -0.024652 0.042429 0.013328 0.028947 
-0.00097594 0.15818 0.01711 0.06479 -0.066577 -0.013636 0.031414 0.010204 
-0.025638 0.15999 0.017438 -0.015609 -0.066413 -0.031228 0.035031 0.031907 
-0.062796 0.092576 0.083204 -0.023829 -0.020212 -0.032543 0.033222 0.029769 
-0.072989 -0.025802 0.097015 0.020398 0.0062583 -0.015116 -0.0049219 0.065118 
0.060515 -0.068221 0.094877 0.017767 0.029934 0.004943 0.0087245 0.045389 
0.19418 -0.084991 0.03947 0.042265 0.013164 0.02122 -0.01528 0.026646 
0.29217 -0.12593 -0.010348 0.052459 0.034209 0.031085 -0.033859 0.023522 
0.23562 -0.092554 -0.0062372 0.056733 0.059528 0.074983 0.042594 0.040621 
0.016781 0.025988 0.019576 0.066763 0.063968 0.1008 0.11066 0.062488 
-0.1381 0.041607 0.010533 0.035688 0.0689 0.085177 0.12842 0.097344 
-0.12182 -0.018568 0.028125 0.049499 0.060022 0.062159 0.09685 0.057391 
0.023193 -0.064768 0.019411 0.065612 0.041607 0.015959 0.012506 0.0095465 
0.11477 0.0093821 0.074161 0.032236 0.029276 0.012835 -0.0057439 0.0059294 
0.091589 0.095535 0.063803 0.052952 -0.022021 -0.014458 -0.01528 0.011684 
-0.0011404 0.19665 0.024344 -0.0059084 0.004943 -0.043724 0.0046141 0.012342 
-0.082525 0.24959 0.02533 -0.0039354 0.017603 -0.0091966 0.02533 0.024015 
-0.072825 0.15735 0.020727 0.051965 0.033387 0.0088889 0.037661 0.041772 
-0.027447 0.12497 0.040456 0.013328 0.045224 0.011355 0.051636 0.037826 
-0.028926 0.11921 0.025988 -0.019226 0.034702 0.03947 0.045718 0.045718 
-0.049314 0.080573 0.014972 -0.031228 -0.0032777 0.026974 0.06331 0.057062 
-0.069043 0.056733 -0.0021268 0.0039565 -0.0032777 0.050486 0.055418 0.053938 
-0.036489 0.069229 0.0011614 0.076792 -0.020541 0.047691 0.046704 0.040128 
0.045553 0.043909 0.007738 0.089945 0.022864 0.031907 0.028619 0.030756 
0.1003 -0.0042642 0.047362 0.064132 0.015465 -0.0011404 0.031414 0.044238 
0.088958 0.016616 0.085012 0.083862 0.032071 -0.0021268 0.018754 0.032729 
0.034044 0.032071 0.04506 0.049664 0.044896 0.027796 0.011355 0.020562 
0.0072447 0.019083 0.032893 0.034866 0.044073 0.021056 0.034702 0.013657 
0.021549 -0.0073881 0.0060938 0.037168 0.044073 0.026317 0.049499 0.0031344 
0.063145 -0.015444 0.026646 0.05065 0.035853 0.030592 0.050157 0.016945 
0.11313 -0.053588 0.026974 0.062981 0.029441 0.031907 0.037661 0.044402 
0.13335 -0.020048 0.025659 0.027468 0.035524 0.014972 0.045389 0.030592 
0.12135 0.020233 0.048841 0.014972 0.030756 0.025001 0.031742 0.052952 
0.049006 -0.0029489 0.054596 0.0060938 0.028619 0.018918 0.02533 0.027796 
-0.095185 0.072517 0.031085 -0.026131 0.012342 0.029441 0.030263 0.03092 
-0.2379 0.18037 0.0067515 -0.013471 -0.017253 -0.0064016 0.10935 0.0092177 
-0.14582 0.14305 0.027303 -0.055561 0.009711 -0.035832 0.034702 -0.036325 
0.21194 0.052294 0.061172 -0.060987 0.0060938 -0.077757 -0.12445 -0.059507 
0.32506 -0.032708 0.075476 -0.021034 0.0019835 -0.044546 -0.13201 -0.053424 
0.15012 -0.021528 0.04358 0.039305 0.052952 0.042594 -0.023994 0.037004 
-0.041257 0.12562 -0.034845 0.1322 0.056569 0.087972 0.075476 0.094713 
-0.049149 0.17363 -0.055068 0.13647 0.021878 0.079751 0.10408 0.073997 
0.013328 0.072517 -0.0004827 0.062159 -0.0004827 0.048348 0.061172 0.045882 
0.17906 -0.073976 0.16262 -0.02498 -0.015938 0.01267 -0.034845 -0.0068948 
0.2463 -0.109 0.17347 -0.09091 0.017274 0.011355 -0.07973 0.015959 
0.13878 -0.019884 0.053281 -0.019226 0.061501 0.026481 -0.016102 0.042429 
0.054103 -0.01939 -0.064111 0.12102 0.10819 0.069558 0.089123 0.066105 
0.051801 -0.11409 -0.083018 0.15127 0.13072 0.075312 0.095042 0.072517 
0.08715 -0.1187 -0.025967 0.12579 0.087643 0.071037 0.081889 0.053445 
-0.014293 0.0044497 0.011026 0.057227 0.032729 0.024673 0.069886 0.032071 
-0.10176 0.15407 0.033222 -0.0077169 -0.01676 -0.015609 0.076627 0.015794 
-0.12231 0.22098 0.048677 -0.0060728 -0.042244 -0.038791 0.046375 -0.0034422 
-0.067399 0.17922 0.055418 -0.039942 -0.029255 -0.0054151 0.0083956 -0.0040998 
-0.046354 0.094713 0.040292 -0.028597 -0.0068948 1.0539e-005 0.036017 0.013164 
0.023193 0.11642 0.015465 0.010533 0.037332 0.0019835 0.0090533 0.010204 
0.062159 0.11017 -0.013471 0.025001 0.074983 -0.013143 0.01826 0.024837 
-0.015938 0.11083 0.0062583 0.056898 0.065118 0.0421 0.036017 0.015794 
-0.08121 0.14683 -0.013307 0.025166 0.039963 0.042758 0.076792 -0.027611 
-0.0077169 0.05772 0.045224 -0.0095255 0.032071 0.0052718 0.019905 -0.013307 
0.094548 -0.075949 0.075641 -0.0068948 0.021549 0.023522 -0.044217 0.024344 
0.14075 -0.037476 0.062488 0.0034632 0.021713 0.0090533 -0.010512 1.0539e-005 
0.12743 0.074983 -0.0080457 0.040621 0.034537 0.021878 0.035524 -0.001798 
0.088136 0.025659 -0.012485 0.073339 0.014643 0.0041209 0.0074092 0.02122 
0.070873 -0.081045 0.059528 0.048019 0.0067515 0.016123 -0.011498 0.042265 
0.12118 -0.14007 0.12727 0.027468 0.021878 0.017603 -0.033365 0.052294 
0.23627 -0.14796 0.12085 -0.003771 0.037168 0.034209 -0.03616 0.048841 
0.26685 -0.037805 0.051308 0.02681 0.068078 0.068736 -0.031392 0.048841 
0.12497 0.080409 -0.0024557 0.06594 0.068736 0.060515 0.0014903 0.063639 
0.00050378 0.13746 -0.014293 0.044896 0.061666 0.079751 0.070051 0.14075 
-0.090253 0.13532 -0.0027845 0.0064227 0.024673 0.095864 0.086328 0.16853 
-0.12905 0.17018 -0.0070593 0.0028056 0.0042853 0.025659 0.0689 0.10408 
-0.14747 0.14913 0.0023123 0.010533 -0.0095255 -0.010841 0.068407 0.069558 
-0.1279 0.11954 0.0064227 0.055418 0.014972 0.025166 0.093398 0.036182 
-0.083512 0.14815 0.021878 0.055418 0.021878 0.035853 0.062159 0.013986 
-0.041751 0.15242 0.020398 0.048184 0.022206 0.041936 0.048677 0.026317 
-0.017417 0.13615 0.018754 0.038648 0.035031 0.052787 0.058049 -0.01939 
-0.051122 0.12546 0.035195 0.036839 0.03388 0.067256 0.10211 -0.017088 
-0.070852 0.083368 0.049335 0.035195 0.023522 0.045389 0.072846 -0.022843 
-0.022514 -0.047834 0.036182 0.025001 0.0016547 0.029605 0.0074092 0.0079024 
0.096028 -0.11672 0.045553 -0.0044286 0.0018191 0.019247 -0.0014692 0.020398 
0.061172 -0.025309 0.020891 0.061501 0.026152 -0.027611 -0.0083746 0.033058 
-0.035667 0.10343 -0.038133 0.011848 0.0070803 -0.037311 0.051472 0.04654 
-0.052109 0.12053 -0.012156 0.0079024 -0.022843 -0.043888 0.032893 0.034702 
0.024508 0.13549 0.05213 -0.042079 -0.027118 -0.0042642 0.004943 0.0052718 
-0.024816 0.086492 0.12973 -0.050136 0.005765 -0.024158 0.0047785 -0.013636 
-0.064933 0.034866 0.14502 -0.012649 0.040456 0.028619 0.025495 0.014808 
0.087972 -0.025638 0.073339 0.0024767 0.083697 0.091918 0.0031344 0.062652 
0.25485 -0.035996 0.0034632 0.054596 0.10787 0.16788 0.016616 0.076134 
0.31749 -0.053917 -0.0011404 0.10293 0.065118 0.15078 -0.02498 0.046375 
0.21062 0.023851 -0.010019 0.062652 0.037004 0.081067 -0.011663 0.01711 
0.057555 0.046868 -0.0052507 0.045718 0.0095465 0.004943 0.045882 0.007738 
0.021878 -0.02087 0.049499 0.032071 -0.0004827 -0.018075 0.0421 0.0087245 
0.09126 -0.039284 0.097508 0.0092177 -0.00031829 -0.026131 -0.01232 -0.032379 
0.047855 0.018425 0.088958 0.03536 0.026974 -0.00031829 -0.02235 0.0019835 
-0.11048 0.092411 0.034044 0.030756 0.063968 0.0083956 0.083368 0.032236 
-0.20123 0.12727 -0.026131 0.026481 0.070544 0.051965 0.094055 0.078765 
-0.14402 0.14124 -0.016431 0.017603 0.044731 0.047691 0.063145 0.084684 
-0.04323 0.058871 -0.0073881 -0.0059084 0.00066819 0.020562 0.058049 0.052787 
-0.017582 0.032071 0.033387 0.039799 0.019905 0.0018191 0.057062 0.055254 
0.02829 0.067256 0.025166 0.015465 0.020891 0.017767 0.044238 0.031085 
0.045882 0.04358 0.041443 0.015465 0.029934 0.013821 0.035195 0.052459 
0.049992 0.026152 0.048019 0.046375 0.020233 0.0082312 0.019083 0.028125 
0.074983 0.037497 0.073339 0.0080668 0.0037921 -0.012156 0.024837 -0.011005 
0.066269 0.037168 0.04917 -0.011827 0.031578 0.01267 -0.0067304 -0.034681 
0.064954 0.0080668 0.040456 0.055254 0.05624 0.009711 -0.010183 -0.027775 
0.081889 0.0052718 0.037826 0.033387 0.057227 -0.00031829 0.0075736 -0.023172 
0.099974 -0.0070593 0.04095 0.025824 0.027303 0.0064227 0.00099702 -0.013636 
0.08567 0.0037921 0.026317 0.033058 -0.0039354 -0.0057439 -0.021034 -0.013307 
0.038319 0.038648 0.02829 0.020891 0.0011614 -0.008539 -0.017417 0.011684 
0.0034632 0.064625 0.027796 0.050486 0.0042853 0.012177 0.061501 0.01004 
-0.0073881 0.082382 0.040128 0.031414 0.034373 0.02122 0.043745 0.032893 
-0.025145 0.099152 -0.0072237 0.063145 0.069886 0.0019835 0.049828 0.020233 
-0.043066 0.10737 -0.040271 0.081067 0.061995 0.0082312 0.039799 0.01711 
0.035031 0.028125 -0.0039354 0.0421 0.055747 0.037497 0.031085 0.031907 
0.18399 -0.078086 0.066927 0.047197 0.050321 0.029112 -0.049478 0.014643 
0.26307 -0.13119 0.12085 0.031414 0.063803 0.012177 -0.052273 0.033387 
0.21523 -0.157 0.11822 0.019411 0.055418 0.040128 -0.0013048 0.059693 
0.10014 -0.11163 0.054267 0.064625 0.060679 0.034209 0.10326 0.084355 
-0.015609 0.020398 0.0036276 0.060515 0.058706 0.02829 0.14141 0.074983 
-0.05885 0.11921 -0.0082102 0.023193 0.043909 0.0079024 0.12036 0.036017 
-0.080881 0.1641 -0.046847 -0.0062372 0.013821 0.0095465 0.06594 0.0016547 
-0.026789 0.21737 -0.033201 -0.0070593 -0.00064712 0.0039565 -0.0049219 -0.016595 
-0.039284 0.23463 -0.013143 0.022371 -0.015116 -0.018239 -0.014293 -0.0057439 
-0.075949 0.20865 0.013328 0.011848 -0.01232 0.00297 0.027796 0.019411 
-0.032872 0.055582 0.071366 -0.010512 -0.004593 -0.010841 0.034537 -0.003771 
0.10178 -0.059836 0.10228 0.0080668 0.0062583 0.0074092 -0.023007 0.016616 
0.14223 -0.10143 0.087643 0.010862 0.055089 0.05476 -0.0098543 0.043745 
0.025659 -0.024323 0.026974 0.049499 0.053938 0.059857 0.064954 0.073504 
-0.037805 0.058049 -0.024323 0.082875 0.048677 0.04506 0.10737 0.07038 
-0.038791 0.069886 -0.032708 0.081231 0.045224 0.020891 0.058213 0.026974 
-0.053917 0.058871 -0.030735 0.094548 0.031414 0.0013258 0.021384 0.01711 
-0.043395 0.075312 -0.008539 0.060186 -0.010183 -0.010512 0.066763 0.0031344 
-0.12478 0.058049 -0.015609 0.05772 0.00083261 -0.030242 0.068078 1.0539e-005 
-0.076606 0.076463 0.051143 0.014315 -0.021034 0.033715 0.069886 0.035195 
0.046375 0.059528 0.10162 -0.0090322 -0.027282 -0.00081153 -0.02235 0.036182 
0.19649 0.042429 0.10228 -0.063124 0.014479 0.0054362 -0.039449 0.029934 
0.17199 -0.035667 0.096193 -0.063124 0.04917 0.0064227 -0.044546 0.052459 
0.095206 -0.046519 0.056733 -0.060823 0.04917 0.040292 -0.0039354 0.070873 
0.03388 -0.0029489 0.02829 0.040456 0.047033 0.038319 0.046375 0.079916 
0.076956 -0.02646 -0.0068948 0.049335 0.048184 0.050321 0.050814 0.066598 
0.13368 -0.0095255 -0.014622 0.092904 0.082875 0.059364 0.02533 0.05624 
0.059693 0.10852 -0.045696 0.13384 0.091425 0.073175 0.070544 0.043416 
-0.061151 0.1322 -0.034681 0.11905 0.028783 0.031907 0.10918 0.058377 
-0.15059 0.16821 0.0093821 0.069393 0.014315 0.034373 0.095699 0.046046 
-0.12757 0.20816 0.043745 0.012506 -0.023829 -0.0077169 0.055911 0.030263 
-0.044546 0.13269 0.067585 -0.038791 -0.020212 -0.025802 0.016288 0.041278 
0.035195 0.017274 0.066927 -0.035503 -0.0044286 0.0079024 -0.0055795 0.0016547 
0.11872 -0.052273 0.069064 -0.056055 0.017932 0.02829 -0.013307 0.0067515 
0.14815 -0.083676 0.047855 -0.00081153 0.029441 0.015137 -0.0050863 0.028125 
0.062159 -0.011827 -0.020377 0.075641 0.013164 0.028783 0.058213 0.044731 
