0.0028056 -0.14287 0.096028 0.12957 0.27935 -0.18084 -0.0036066 0.027961 
0.29826 -0.16605 0.10556 0.053609 -0.34049 -0.48764 0.023028 -0.008539 
0.34955 -0.1279 0.11707 0.023028 -0.76353 -0.42319 0.055254 0.026152 
0.31404 -0.015773 0.078929 -0.011498 -0.75514 -0.061316 0.06594 0.01415 
0.26011 0.012835 0.045224 0.015959 -0.51263 0.08008 0.094548 0.041114 
0.22033 0.013492 0.033058 0.014972 -0.12823 0.062159 0.042429 0.045389 
0.1664 0.081395 0.027468 -0.0042642 0.22707 0.099316 0.029605 0.015301 
0.13943 0.069886 0.0034632 -0.010019 0.34413 0.25107 0.0079024 -0.025309 
0.11576 0.059364 0.04095 0.02533 0.42913 0.2828 -0.019719 -0.095349 
0.052787 0.050814 0.050486 0.097508 0.75697 0.040785 -0.014458 -0.02794 
-0.008539 0.004943 0.029441 0.22345 1.1424 0.074819 0.024344 0.10836 
-0.062796 -0.03501 -0.022185 0.24038 1.1384 0.50509 0.076299 0.20767 
-0.084498 -0.10094 -0.018733 0.18925 0.52811 0.55014 0.081889 0.20076 
-0.095514 -0.13218 -0.012485 0.10343 -0.1935 -0.036983 0.082875 0.069064 
-0.057863 -0.023994 0.046704 -0.049642 -0.59139 -0.77783 0.036017 -0.029748 
-0.028597 0.066598 0.046375 -0.12938 -0.78194 -0.90065 0.054925 -0.078086 
-0.020212 0.074326 0.086821 -0.16983 -0.73623 -0.31303 0.013164 -0.085649 
-0.015773 0.06479 0.05624 -0.09946 -0.34246 0.31601 0.013986 -0.0087034 
-0.038791 0.18284 0.018918 0.065612 0.18267 0.51874 0.044896 0.077943 
-0.059507 0.31042 0.0018191 0.13286 0.41006 0.50953 0.063145 0.11905 
-0.032215 0.27623 -0.0095255 0.11937 0.2976 0.40102 0.041278 0.07038 
0.0065871 0.23003 0.063803 0.045718 0.015301 0.092904 0.032564 0.041772 
0.034702 0.18366 0.11576 -0.026296 -0.25187 -0.28031 0.03799 0.0074092 
0.081724 0.066763 0.14502 -0.013636 -0.29084 -0.45213 0.040128 -0.0095255 
0.12447 -0.023336 0.10507 0.034537 -0.19531 -0.39146 0.0065871 0.0324 
0.15127 -0.056219 0.10458 0.047362 -0.12873 -0.22228 -0.016924 0.023522 
0.16327 -0.083018 0.091753 0.045882 -0.18298 -0.12198 -0.018075 -0.015116 
0.13138 -0.042244 0.063639 -0.0064016 -0.16736 -0.022843 -0.042079 -0.033694 
0.072353 0.047691 0.02533 -0.016102 -0.059507 0.13121 -0.034845 -0.055726 
0.011684 0.1003 0.0052718 0.015959 0.026152 0.32818 0.026974 -0.0050863 
0.020398 0.072681 0.016781 -0.014458 0.11658 0.62199 0.049664 0.081067 
0.010862 0.072024 0.019083 0.043087 0.19385 0.61936 0.057884 0.12924 
0.00050378 0.062159 -0.022185 0.076956 0.3198 0.38162 0.049828 0.0786 
0.0088889 0.051965 -0.011663 0.090603 0.341 0.2121 0.057227 0.05772 
0.0011614 0.057227 -0.0070593 0.057391 0.24877 0.092082 0.054267 0.027139 
0.023357 0.09274 0.0092177 -0.034023 0.15324 -0.087293 0.027632 0.023193 
0.060844 0.087972 0.025659 -0.077593 0.094548 -0.34575 0.01974 -0.0064016 
0.072353 0.077614 0.0028056 -0.035667 0.30467 -0.40379 0.039634 0.005765 
0.062159 0.10326 0.0047785 0.068407 0.61541 -0.22803 0.037497 0.066434 
0.015794 0.060515 -0.014458 0.12233 0.50838 0.1225 0.025988 0.10293 
0.031578 0.051965 -0.024158 0.048348 0.1271 0.4214 0.020398 0.067256 
0.20109 0.036182 -0.015773 -0.023829 -0.39047 0.28593 0.064954 0.043251 
0.31256 0.027632 -0.01676 -0.012649 -0.93567 -0.055397 0.053281 -0.001798 
0.20651 0.031249 -0.051615 -0.018075 -0.94011 -0.255 0.010862 0.0052718 
0.032729 0.031907 -0.03057 -0.010676 -0.75498 -0.23855 0.0046141 0.028619 
-0.19515 0.05065 -0.00031829 -0.011663 -0.54387 -0.19827 0.022371 0.020233 
-0.55012 0.055911 0.025824 -0.082525 -0.31517 -0.0049219 0.023522 0.016123 
-0.61342 0.085341 0.066763 -0.084334 -0.10719 0.19632 -0.0088678 0.012506 
-0.2573 0.090274 0.049992 -0.10505 0.13302 0.23742 -0.025967 -0.017582 
0.15703 0.046868 0.065118 -0.1016 0.32045 0.28642 -0.030899 -0.032215 
0.36649 0.00297 0.0064227 -0.028926 0.74218 0.42058 -0.0083746 0.025988 
0.37849 -0.025802 -0.024487 0.0324 1.1248 0.099316 0.045224 0.071859 
0.26948 -0.12116 -0.047834 0.10672 1.1404 -0.42812 0.036182 -0.0016336 
0.16985 -0.092226 -0.021363 0.082546 0.81518 -0.73278 0.0031344 -0.063618 
0.14256 -0.037311 0.029769 -0.013307 0.26028 -0.68 -0.042573 -0.11015 
0.1128 0.018425 0.085506 -0.027118 -0.018239 -0.19038 -0.044052 -0.080552 
0.0034632 0.10326 0.085177 0.017932 -0.057041 0.38244 0.013821 0.083533 
-0.066084 0.1756 0.024015 0.067585 -0.12873 0.96759 0.070708 0.22263 
-0.10768 0.17363 -0.016102 0.11625 -0.17328 1.0723 0.092576 0.28494 
-0.064933 0.14256 -0.041257 0.14519 -0.11607 0.65372 0.094055 0.20306 
-0.07562 0.10721 -0.021528 0.14667 -0.26108 0.11115 0.089123 0.1003 
-0.054904 0.068571 0.014972 0.054432 -0.59155 -0.30366 0.045718 -0.0091966 
-0.04882 0.027796 0.045718 -0.028926 -0.72341 -0.35463 0.021549 -0.064768 
-0.066084 0.026481 0.077614 -0.051122 -0.60388 -0.45426 0.0079024 -0.068714 
-0.039613 0.056733 0.083862 -0.0965 -0.42072 -0.71535 0.0060938 -0.08121 
-0.014293 0.041607 0.061172 -0.091568 -0.15914 -0.57971 -0.026131 -0.041915 
0.01974 -0.0021268 0.064461 0.0023123 -0.20452 -0.33424 -0.018568 0.00050378 
0.023686 0.037661 0.051472 0.067256 -0.42467 -0.40626 0.014315 0.0023123 
0.020727 0.0065871 0.011355 0.15999 -0.1478 -0.62657 0.038155 0.014972 
-0.018075 -0.012485 -0.025802 0.26735 0.58056 -0.66126 0.071366 0.029112 
-0.029255 0.0039565 -0.016924 0.27655 1.0329 -0.19087 0.07597 0.051143 
0.0052718 0.00297 0.03388 0.19007 0.78871 0.32308 0.083697 0.024673 
0.065612 -0.018568 0.066434 0.0014903 0.41318 0.54751 0.040128 0.009711 
0.14289 -0.079566 0.075476 -0.098144 0.4311 0.7236 -0.0026201 -0.012485 
0.15242 -0.023829 0.071531 -0.12938 0.9592 0.90675 -0.0083746 -0.0026201 
0.09685 0.022206 0.078107 -0.035996 1.414 0.94539 0.013986 0.081889 
0.020233 0.087808 0.017603 0.09274 1.1843 0.84444 0.021056 0.15324 
-0.10719 0.16344 -0.12379 0.147 0.60209 0.56461 0.040128 0.15522 
-0.18923 0.17873 -0.24661 0.050979 -0.22852 0.033551 0.051308 0.096028 
0.29464 0.14469 -0.25023 -0.048985 -1.0116 -0.47317 0.0324 0.0016547 
0.81698 0.10425 -0.17493 -0.11212 -1.2559 -0.69431 0.022371 -0.051615 
0.84346 0.048677 -0.061316 -0.09946 -0.98647 -0.59993 0.019411 -0.048656 
0.44607 0.023851 0.08863 0.00033937 -0.64466 -0.40806 0.035688 -0.033201 
-0.15684 0.050979 0.22904 0.040292 -0.36976 -0.21767 0.020891 0.0079024 
-0.84442 0.045718 0.33706 0.10787 -0.13021 -0.07266 0.043416 0.026974 
-1.314 0.014972 0.34446 0.10244 -0.018733 -0.034845 0.067913 0.07038 
-1.0207 -0.046354 0.32835 0.09833 -0.00015387 -0.023665 0.082711 0.046211 
-0.2231 -0.078086 0.28741 0.087972 0.033058 0.024837 0.054103 0.04654 
0.36353 -0.063618 0.27475 0.05476 0.072024 0.04654 0.024015 0.04358 
0.4459 -0.071345 0.23825 0.0689 0.098166 0.026974 0.03947 -0.010841 
0.34166 -0.1667 0.19747 0.079751 0.093562 0.12825 0.021384 -0.0077169 
0.33229 -0.27308 0.082053 0.11642 0.11181 0.26948 0.016781 -0.0078813 
0.37816 -0.35364 0.034537 0.11099 0.11066 0.32062 0.013821 -0.00064712 
0.37011 -0.2203 0.036017 0.076463 0.13072 0.18169 0.020727 0.026646 
0.19829 -0.053588 -0.026624 0.12825 0.014972 0.029441 0.062323 0.070708 
0.033058 0.11921 -0.13399 0.23298 -0.063289 -0.079072 0.084848 0.083862 
0.030098 0.2634 -0.21274 0.23956 -0.033201 -0.13925 0.014972 0.046375 
0.054596 0.31157 -0.18512 0.12233 -0.032379 -0.11705 -0.026131 0.039634 
0.02122 0.31536 -0.1062 -0.035996 -0.07973 0.064625 -0.012485 0.012999 
-0.025967 0.27606 -0.01939 -0.17542 -0.11623 0.40825 0.0041209 -0.024323 
-0.055397 0.14733 0.058871 -0.20025 -0.0029489 0.67279 0.029934 -0.022679 
-0.065426 0.026974 0.1151 -0.21471 0.06331 0.53814 0.049828 0.013328 
-0.051944 -0.0029489 0.13927 -0.13974 0.11609 0.22115 0.051636 0.090438 
0.057391 0.042265 0.13483 -0.0032777 -0.01939 -0.057205 0.065283 0.079751 
0.12201 0.04506 0.12398 0.044896 -0.26765 -0.42566 0.080573 0.034373 
0.088794 0.035031 0.15374 0.11362 -0.34246 -0.75596 0.059857 -0.004593 
0.03799 0.005765 0.1345 0.15028 -0.25779 -0.81943 0.027961 -0.017253 
-0.041751 -0.072496 0.10211 0.11724 -0.25582 -0.58021 0.010697 0.0041209 
-0.24941 -0.10423 0.086163 0.068242 -0.36959 -0.0026201 -0.00031829 -0.021199 
-0.37913 -0.05326 0.086328 -0.043888 -0.16358 0.54044 -0.011005 -0.024487 
-0.22326 -0.019719 0.070215 0.035524 0.43801 0.75566 0.0069159 -0.0072237 
0.012835 0.022371 0.054267 0.13171 0.81781 0.68447 0.034373 0.021384 
0.15538 0.063474 0.030098 0.12529 0.49736 0.37849 0.057227 0.085506 
0.23282 0.049499 0.048348 0.11165 -0.17772 0.13647 0.039963 0.073175 
0.21128 0.050486 0.053116 -0.004593 -0.5174 0.057884 0.0047785 0.041936 
0.16508 0.078929 0.022864 -0.034352 -0.40708 -0.26206 0.011191 -0.00031829 
0.24055 0.11757 -0.02794 0.037004 -0.1741 -0.56015 0.010369 0.00297 
0.36649 0.085012 -0.080552 -0.0029489 -0.23921 -0.437 -0.038298 0.037826 
0.34906 0.11642 -0.048656 -0.090746 -0.33885 -0.25713 -0.035503 0.013821 
0.17297 0.12776 -0.012485 -0.13432 -0.26782 -0.10554 0.014479 0.013821 
-0.086471 0.18448 0.02533 -0.11985 -0.052602 -0.19383 0.082382 0.069886 
-0.4661 0.27113 -0.024816 0.070708 0.41779 -0.43042 0.091753 0.060022 
-0.59566 0.26242 -0.088444 0.1516 0.62692 -0.48912 0.092247 0.048677 
-0.32882 0.15324 -0.097816 0.1391 0.36156 -0.075127 0.064132 0.020398 
0.023193 0.079751 -0.10209 0.039799 0.11444 0.37734 0.021384 0.030427 
0.26488 0.025824 -0.024652 -0.1256 0.080902 0.71373 -0.014622 -0.05885 
0.33295 0.0056006 0.004943 -0.19054 0.38227 0.86779 -0.023336 -0.095514 
0.27475 0.069886 0.01004 -0.11409 0.61919 0.6626 -0.009361 -0.016431 
0.20125 0.1396 -0.020048 -0.023007 0.48421 0.31305 0.016452 0.093891 
0.11099 0.1761 -0.035667 0.064296 0.34709 0.10556 0.041114 0.1904 
0.059857 0.064132 -0.034681 0.095371 0.32703 0.099481 0.08008 0.17034 
0.0088889 -0.027775 -0.065097 0.095206 0.2246 0.1276 0.078765 0.12858 
0.047362 -0.032708 -0.088937 0.060022 0.015301 -0.044217 0.050979 0.053609 
0.058049 -0.03353 -0.039778 -0.067892 -0.26223 -0.22655 -0.00097594 -0.0088678 
0.029112 -0.041586 -0.038627 -0.073482 -0.39606 -0.36581 0.026317 -0.0068948 
-0.031557 -0.074469 -0.023007 -0.063289 -0.47843 -0.46117 0.022206 -0.0024557 
-0.051287 -0.018733 -0.02646 -0.022185 -0.45081 -0.46232 0.046211 0.0062583 
-0.027447 0.020233 0.005765 0.037826 -0.27966 -0.28344 0.056898 0.052787 
0.02533 0.13121 0.026317 -0.0078813 -0.17098 0.0227 0.047033 0.024015 
0.04358 0.22098 0.03388 -0.02646 -0.18874 0.20175 -0.017253 0.01004 
0.049335 0.25123 -0.0036066 -0.076935 -0.18824 0.20832 -0.012485 -0.035503 
0.086657 0.13121 0.020398 -0.10423 0.15127 0.15078 -0.032215 -0.033694 
0.22805 0.038977 0.042594 -0.04471 1.0033 0.018589 -0.0090322 -0.0036066 
0.39723 -0.019061 0.038648 0.082053 1.5611 -0.056219 0.014972 0.040128 
0.7305 -0.09387 0.00033937 0.17758 1.0237 0.01563 0.062323 0.056569 
1.0194 -0.074633 0.0019835 0.16311 -0.33605 0.077943 0.08567 0.066763 
0.7596 0.015137 0.042594 0.044731 -1.1734 0.29448 0.062652 0.080738 
0.075476 0.096028 0.058213 -0.006566 -0.73771 0.47155 0.017932 0.072846 
-0.58547 0.075641 0.03947 0.045718 0.23101 0.59996 0.012999 0.095699 
-1.0723 -0.0096899 0.016945 0.057391 0.46267 0.56971 0.031085 0.073504 
-1.6366 -0.019061 0.044402 0.011026 0.24614 0.21194 0.016452 0.0036276 
-1.3794 0.012835 0.093891 -0.13612 0.28198 -0.61062 -0.0073881 -0.065262 
-0.34394 -0.033201 0.098001 -0.096665 0.77407 -1.2336 -0.030077 -0.058356 
0.4995 -0.11343 0.073668 0.068242 1.1295 -0.84113 -0.00015387 -0.0039354 
0.7231 -0.15224 0.064132 0.13417 0.82257 0.14108 0.0011614 0.078107 
0.59207 -0.20386 0.079587 0.11543 0.3438 0.80104 0.024508 0.10573 
0.43554 -0.2739 0.049664 0.15242 0.23463 0.92369 0.076792 0.096521 
0.38359 -0.2767 -0.0022913 0.19599 0.17265 0.6501 0.087972 0.07301 
0.34265 -0.0052507 -0.019884 0.22115 -0.41612 0.1761 0.10639 0.09981 
0.24005 0.24022 -0.0098543 0.12677 -1.4097 -0.44276 0.10162 0.090603 
0.11313 0.33344 0.048184 0.014643 -1.9434 -0.81417 0.097179 0.039305 
-0.096336 0.26866 0.08008 -0.014951 -1.4777 -0.65074 0.062488 0.020069 
-0.28492 0.15867 0.11872 -0.072167 -0.57823 -0.22063 0.014479 -0.012814 
-0.32109 0.13795 0.14174 -0.10554 0.10803 0.24252 -0.050793 -0.05178 
-0.22392 0.15176 0.14568 -0.1381 0.4653 0.65849 -0.086142 -0.14796 
-0.072825 0.072353 0.13516 -0.092719 0.76733 0.63991 -0.10258 -0.17328 
0.024015 0.050979 0.11198 0.057062 1.2399 0.20388 -0.064933 -0.046354 
-0.0060728 0.08008 0.072353 0.22674 1.8462 -0.12182 0.035853 0.13384 
-0.039613 0.077285 0.016288 0.37504 1.7949 -0.066906 0.098166 0.27623 
0.17199 0.0786 -0.03764 0.37931 0.57628 0.07449 0.079094 0.24696 
0.38178 0.05476 0.034209 0.12266 -0.79789 0.0039565 0.010369 0.070215 
0.44393 0.054432 0.069393 -0.066248 -1.3722 -0.11607 0.007738 -0.036489 
0.19698 0.045882 0.067913 -0.10538 -1.0047 -0.16292 0.0083956 -0.055397 
-0.1136 0.06742 0.062652 -0.054246 -0.28278 -0.093212 0.029605 0.010369 
-0.51247 0.073339 0.039634 0.022864 0.075805 0.04095 0.064132 0.037497 
-0.92301 0.078272 0.015465 0.017603 0.1197 0.14058 0.089945 0.060515 
-0.81006 0.06183 -0.017253 0.016288 0.080573 0.11477 0.051472 0.05772 
-0.34953 0.078107 -0.016266 0.052787 -0.031557 0.027139 0.013986 0.0032988 
0.08156 0.031414 0.01711 0.046375 -0.12544 -0.040928 0.014972 0.022042 
0.27787 -0.01232 -0.0036066 0.094713 -0.24793 -0.17673 0.053116 0.030592 
0.28741 0.021384 -0.0019624 0.05213 -0.50869 -0.3377 0.06331 0.036182 
0.23183 0.017767 0.023357 0.023193 -0.65304 -0.37962 0.046704 0.029276 
0.21769 -0.026624 0.049335 0.015301 -0.58448 -0.17427 0.047855 0.021384 
0.17725 -0.00097594 0.052952 -0.023665 -0.45509 0.36632 -0.011498 0.00099702 
0.13499 0.088136 0.057391 -0.022514 -0.27785 0.68578 -0.070194 -0.016266 
0.11526 0.17445 0.11181 -0.011498 -0.068714 0.36501 -0.052602 0.0024767 
0.2052 0.19139 0.15522 -0.038462 0.11921 -0.31254 0.037826 0.00033937 
0.26455 0.15752 0.12233 0.047362 -0.28903 -0.84047 0.065447 -0.010676 
0.24778 0.11148 0.10622 0.073832 -1.133 -0.93649 0.090438 -0.03501 
0.20503 0.12661 0.043909 0.092082 -1.4886 -0.5414 0.07301 -0.039613 
-0.032379 0.10655 0.013164 0.076792 -0.89045 -0.066413 0.070051 -0.0034422 
-0.42418 0.033058 0.0067515 -0.026624 -0.096829 0.36649 0.037332 0.0011614 
-0.41135 0.023686 0.022042 -0.10571 0.40792 0.54619 0.0016547 0.023028 
-0.076113 -0.051944 0.06331 -0.2157 0.87354 0.14897 -0.042408 -0.004593 
0.2297 -0.18726 0.08419 -0.23477 1.8423 -0.055232 -0.04619 0.0047785 
0.28658 -0.15273 0.045718 0.033058 3.1846 0.59535 -0.0080457 0.091918 
0.12316 -0.0052507 -0.013965 0.36287 3.6367 1.2905 0.084519 0.20635 
-0.10308 0.14798 -0.083347 0.53025 2.0715 1.2045 0.12595 0.26981 
-0.13086 0.20208 -0.12609 0.41664 -0.38538 0.53485 0.093891 0.18514 
0.045553 0.16508 -0.058356 0.065776 -1.9789 -0.16259 0.018754 0.00033937 
0.1784 0.10228 0.0052718 -0.15717 -2.2127 -0.57856 -0.0067304 -0.086636 
0.21424 0.041114 0.020233 -0.16983 -1.737 -0.61588 0.045224 -0.097816 
0.17117 0.0032988 0.014808 -0.12955 -1.2328 -0.50721 0.064132 -0.045696 
0.14075 0.004943 0.029276 -0.05737 -0.91857 -0.42796 0.055747 -0.020377 
0.12809 -0.040271 0.083862 -0.079895 -0.63989 -0.35627 0.03388 -0.023994 
0.11757 -0.039942 0.1105 -0.087293 -0.25384 -0.2374 0.023522 -0.028104 
0.11937 -0.029584 0.064132 -0.051122 0.075476 -0.091239 0.0093821 -0.038298 
0.1174 -0.03912 0.036675 -0.049478 0.27705 -0.016102 0.0013258 -0.0021268 
0.060515 0.00066819 0.022535 -0.041586 0.44031 0.053609 0.024508 0.023028 
0.073339 0.066763 0.021549 -0.044874 0.51068 0.07038 0.022206 0.031907 
0.060844 0.06035 0.012506 -0.031886 0.45363 0.056898 0.014479 0.055582 
0.077943 -0.017746 0.025988 0.058377 0.34199 0.13171 0.020398 0.028454 
0.092576 -0.044381 0.009711 0.071531 0.35547 0.25255 0.053281 0.037168 
0.061008 -0.039284 0.028783 0.064132 0.46958 0.23923 0.033222 0.048841 
0.023028 -0.041586 0.024179 0.078272 0.58417 0.2417 0.040785 0.038812 
0.025824 -0.015116 0.0018191 0.05065 0.57842 0.16738 0.049664 0.058871 
0.058542 0.027468 0.048019 -0.0004827 0.51496 -0.04323 0.064954 0.025166 
0.1322 0.019411 0.039799 0.02681 0.59042 -0.025638 0.0065871 0.021384 
0.12924 0.030592 0.057227 0.067585 0.74283 0.2754 0.012342 0.051965 
0.094713 0.063803 0.047362 0.13894 0.6215 0.56823 0.047526 0.13647 
0.045224 0.024673 0.022864 0.14815 0.20536 0.43357 0.044896 0.1179 
-0.039778 0.039634 -0.0032777 0.10129 -0.23625 0.0018191 0.012013 0.048841 
-0.12034 0.147 -0.039613 0.083533 -0.4153 -0.25302 0.0088889 0.026646 
-0.10275 0.20635 -0.071181 -0.011005 -0.54831 -0.26733 0.0056006 -0.001798 
-0.056712 0.21326 -0.095349 -0.025967 -0.56853 -0.19498 0.036182 0.0082312 
-0.003771 0.232 -0.091075 -0.084005 -0.56163 0.089287 0.047691 0.043416 
0.02533 0.15522 -0.014787 -0.094034 -0.65107 0.23726 0.044567 0.016452 
0.046046 0.074819 0.031085 -0.071509 -0.50375 0.18859 0.057884 0.039305 
0.0689 0.031085 0.091918 -0.12905 -0.057699 0.14897 0.020233 0.041936 
0.072681 0.014479 0.11757 -0.071181 0.35695 0.041607 0.004943 0.048019 
0.086985 -0.015116 0.12283 0.023357 0.56264 -0.37354 0.0098754 0.0072447 
0.10047 -0.027118 0.10129 0.062488 0.78936 -0.90311 0.035195 -0.066577 
0.079422 -0.0072237 0.092247 0.14617 1.1004 -0.59961 0.019083 -0.092883 
0.13154 -0.08121 0.076463 0.17018 0.66276 0.33969 0.032564 0.005765 
0.159 -0.17295 0.066105 0.14848 -0.068221 0.79906 0.046046 0.1659 
0.1077 -0.15848 0.029605 0.059857 -0.35726 0.68348 0.044073 0.13368 
0.065776 -0.13086 0.028454 -0.056219 -0.53565 0.28856 0.016123 0.071037 
-0.071181 -0.032543 0.02681 -0.047012 -0.58136 -0.20057 -0.0077169 0.022042 
-0.28738 0.065776 0.012342 1.0539e-005 -0.43273 -0.522 0.0085601 -0.011498 
-0.31451 0.094713 -0.034352 0.047033 -0.37863 -0.37304 -0.0032777 -0.029091 
-0.089102 0.12053 -0.069043 0.078929 -0.37617 -0.16079 -0.015116 -0.0004827 
0.088794 0.15374 -0.036818 0.042758 -0.32356 0.0028056 0.014315 0.028125 
0.10376 0.10951 -0.017253 0.011684 -0.24102 0.086163 0.077449 0.056898 
0.064954 0.044896 -0.025802 0.0080668 -0.016924 0.097344 0.047526 0.067585 
0.059035 0.058049 -0.015444 -0.0070593 0.24466 0.24976 0.021056 0.084848 
0.068736 0.16344 0.0060938 0.024508 0.1784 0.3022 0.01415 0.059857 
0.35597 0.24367 0.032729 0.046375 -0.082854 0.0072447 0.06742 0.038155 
1.0886 0.21589 0.036346 0.047033 -0.24349 -0.30169 0.061008 0.012342 
1.4852 0.1562 0.032236 0.076134 -0.21291 -0.30991 0.044896 -0.0039354 
1.131 0.05065 0.047855 0.060844 -0.096665 -0.28377 0.017274 -0.0098543 
0.28527 0.01826 0.051965 0.010533 -0.084334 -0.56689 0.019905 -0.074962 
-1.0411 0.057227 0.053116 -0.018075 -0.27686 -0.5687 -0.0078813 -0.10965 
-2.4572 0.077614 0.026481 -0.10242 -0.43026 -0.2374 -0.017253 -0.081374 
-2.6757 0.066105 0.03536 -0.094527 -0.41579 0.014972 -0.016595 0.011684 
-1.4125 0.034537 0.056404 -0.037476 -0.099624 0.33229 -0.026624 0.15752 
0.12349 -0.060987 0.047362 0.12628 0.59207 0.5896 -0.0078813 0.18761 
0.98814 -0.17197 0.028947 0.28412 1.1387 0.70798 0.025001 0.19205 
1.0768 -0.14813 0.04917 0.20865 0.98288 0.53255 0.055582 0.11329 
0.63892 -0.12297 0.08863 -0.021856 0.46333 0.15094 0.030592 -0.019061 
0.11773 -0.13284 0.14124 -0.13004 0.12562 -0.013965 0.0065871 -0.10143 
0.0227 -0.15684 0.12809 -0.02498 0.78048 0.078107 -0.0027845 -0.066084 
0.21391 -0.092061 0.075476 0.14354 1.1115 0.2394 0.029276 0.075148 
0.28099 -0.030242 0.049828 0.1687 0.81633 0.29941 0.052623 0.14371 
0.23151 0.090931 0.03947 0.1271 0.1807 0.11346 0.057391 0.11494 
0.13795 0.24532 -0.009361 0.040785 -0.48863 -0.16835 0.041443 -0.0088678 
0.073832 0.2805 -0.027118 -0.056219 -0.64383 -0.10521 0.051308 -0.093376 
-0.0014692 0.29234 -0.034352 -0.097816 -0.46265 0.09685 0.027796 -0.04619 
-0.076442 0.25206 -0.021528 -0.019555 -0.16046 0.041936 0.042429 0.0090533 
-0.1741 0.16936 -0.024652 0.011848 -0.19729 -0.065426 0.071202 0.075805 
-0.27357 0.11083 -0.035338 0.062817 -0.48978 -0.16029 0.062817 0.058871 
-0.34131 0.076627 -0.0075525 0.037168 -0.71716 -0.31484 0.06742 0.033387 
-0.29873 0.066598 0.038155 0.0092177 -0.68247 -0.26552 0.055418 0.015465 
-0.19466 0.013657 0.058871 0.010697 -0.36926 -0.0036066 0.052952 0.0088889 
-0.093376 -0.020706 0.070215 -0.013143 0.0080668 0.1927 0.026646 0.016945 
-0.027282 -0.08532 0.089616 -0.0055795 0.27754 0.23545 -0.013307 0.040785 
-0.0032777 -0.098473 0.080409 -0.038956 0.29332 0.12168 -0.023007 0.0042853 
0.075148 -0.041257 0.088465 -0.08828 0.21852 -0.066741 -0.0073881 0.0067515 
0.29612 0.065612 0.079751 -0.05178 0.5041 -0.18594 -0.012156 0.0082312 
0.32226 0.11707 0.053609 0.060679 1.1078 0.054103 0.012177 0.076463 
0.20355 0.13779 0.0072447 0.1955 1.1374 0.37356 0.038483 0.11592 
0.03388 0.076627 0.0090533 0.21654 0.23759 0.39 0.054925 0.073175 
-0.27374 -0.044217 0.0031344 0.12908 -0.52578 0.14519 0.048184 0.025495 
-0.52135 -0.035832 0.0060938 0.055747 -0.52841 0.023357 0.051801 0.007738 
-0.44391 0.037168 0.0072447 0.037826 -0.23263 0.054596 0.057227 0.039305 
-0.081868 0.084848 0.020069 0.020398 -0.14484 0.054596 0.028783 0.012835 
0.24055 0.069393 0.061995 0.0098754 -0.11524 -0.006566 0.0059294 -0.012156 
0.36665 0.093891 0.070215 -0.015773 0.075476 -0.029255 0.013821 -0.016924 
0.35531 0.099645 0.10244 -0.018733 0.25732 0.041607 0.038977 -0.050464 
0.28806 0.10721 0.11329 -0.033365 0.20076 0.095206 0.025495 -0.041915 
0.18383 0.07597 0.091096 -0.022021 0.041278 -0.078908 0.038977 0.0013258 
0.16294 0.11921 0.033058 0.046704 -0.096336 -0.25993 0.036017 0.070215 
0.13631 0.09685 -0.0031133 0.070215 -0.27703 -0.1889 0.0689 0.14058 
0.089287 0.077285 -0.045532 0.07597 -0.64564 -0.093048 0.062652 0.1128 
0.09422 0.10425 -0.023994 0.073668 -1.0057 -0.16572 0.071037 0.10047 
0.12464 0.027303 0.0051074 -0.009361 -0.8357 -0.089266 0.071695 0.072846 
0.1054 0.042429 0.034866 -0.025638 -0.33506 0.0786 0.03388 0.0011614 
0.09833 0.1641 0.027139 -0.0026201 0.17265 0.12973 0.0065871 -0.040106 
0.11576 0.2366 -0.018075 0.0021479 0.47829 0.081395 -0.0049219 -0.068057 
0.11543 0.19994 0.0054362 -0.057863 0.5748 -0.10357 -0.037805 -0.11015 
0.15242 0.073832 0.073997 -0.14615 1.0582 -0.071509 -0.059836 -0.14319 
0.11428 0.024015 0.071202 0.019247 1.9845 0.31667 0.0018191 0.051801 
0.073339 -0.003771 -0.010512 0.2731 1.7295 0.78673 0.064954 0.22263 
0.046704 -0.01676 -0.030242 0.26357 0.11642 0.54389 0.12036 0.21441 
0.085177 -0.011827 -0.0059084 0.11905 -1.3959 -0.22754 0.091589 0.10441 
0.14272 -0.0057439 0.039141 -0.00081153 -1.972 -0.70746 0.048019 -0.021528 
0.22855 0.030098 0.055911 -0.071838 -1.505 -0.60536 0.049828 -0.026624 
0.37701 0.053445 0.053281 -0.060823 -0.62197 -0.2254 0.037497 -0.017746 
0.57086 -0.016924 0.038812 -0.080552 -0.1159 -0.039284 0.010204 -0.0138 
0.66243 -0.12346 0.042429 -0.062302 0.062817 0.0083956 -0.031557 -0.018075 
0.46678 -0.25023 0.068407 -0.055561 0.029934 -0.18939 -0.063453 -0.064604 
-0.044381 -0.35496 0.11329 -0.081374 0.049335 -0.2665 -0.02942 -0.0034422 
-0.65551 -0.24727 0.088794 0.057062 0.48355 -0.12264 0.026646 0.10918 
-1.0901 0.147 0.0072447 0.29398 1.2357 0.43932 0.10178 0.2052 
-0.95129 0.42568 -0.044217 0.30549 0.90511 0.57382 0.092411 0.19418 
-0.30514 0.48191 -0.054575 0.12661 0.074161 0.2223 0.0052718 0.061666 
0.39049 0.33328 -0.0047575 -0.095678 -0.30563 0.093726 -0.044381 -0.040764 
0.76421 0.12431 0.026152 -0.23905 -0.4079 0.013657 -0.066741 -0.13596 
0.70551 -0.037476 0.041278 -0.18134 -0.030899 -0.21685 -0.0095255 -0.16161 
0.37553 -0.076606 0.022371 -0.020048 0.55639 -0.24677 0.047855 -0.064111 
0.033222 0.0011614 -0.00064712 0.15949 0.59502 0.31864 0.086657 0.085506 
-0.22737 0.0021479 -0.0027845 0.21621 0.062652 0.73346 0.10507 0.17741 
-0.1866 -0.056548 0.020891 0.15324 -0.30268 0.52515 0.071037 0.16196 
0.011191 -0.15766 0.048841 0.079751 -0.37304 0.063803 0.01004 0.057884 
0.12792 -0.29149 0.071037 -0.045861 -0.13382 -0.26108 -0.014622 -0.06855 
0.090767 -0.23477 0.039963 -0.070687 0.024344 -0.47284 0.011191 -0.098967 
-0.067892 -0.03764 -0.0080457 -0.036489 0.067091 -0.47547 0.028947 -0.015444 
-0.17065 0.12579 -0.041422 0.015959 0.329 -0.26716 0.016781 0.028947 
-0.16095 0.18646 -0.016102 0.074161 0.47747 0.23677 0.026974 0.1008 
-0.10916 0.17478 0.034373 0.083204 0.51742 0.82701 0.051308 0.11247 
-0.068714 0.15505 0.093398 0.029605 0.25781 1.0245 0.036182 0.11905 
-0.0096899 0.081395 0.12677 -0.021692 -0.16062 0.8497 0.051636 0.11066 
0.00083261 0.046046 0.1031 -0.094692 -0.29758 0.34643 0.026152 0.06479 
0.049335 0.035853 0.096521 -0.031721 -0.10965 -0.2425 0.021384 0.0060938 
0.093726 0.013328 0.022535 0.033387 0.15949 -0.75794 0.042265 -0.024323 
0.10606 -0.062796 0.019905 0.034702 -0.076771 -1.1443 0.037497 -0.10275 
0.03947 -0.17936 0.016781 0.065447 -0.19038 -0.98285 0.032564 -0.14254 
-0.13136 -0.26223 0.041278 0.087972 0.069558 -0.54864 0.039141 -0.067564 
-0.3668 -0.21241 0.051143 0.13762 0.45807 0.091918 0.011684 0.08715 
-0.28508 0.007738 0.01267 0.21326 0.53321 0.6261 -0.039449 0.15571 
-0.061973 0.18596 -0.0004827 0.13236 0.076956 0.68512 -0.076771 0.15209 
0.084355 0.21967 0.031085 -0.0039354 -0.38307 0.41351 -0.033037 0.039141 
0.11477 0.22739 0.034373 -0.058521 -0.5049 0.24417 0.022371 -0.023665 
0.1031 0.2297 0.03536 -0.060494 -0.20551 0.28231 0.054103 -0.012156 
0.069886 0.18136 -0.0027845 0.004943 0.005765 0.18087 0.093891 0.039141 
0.013821 0.11642 -0.0032777 -0.0039354 -0.30744 -0.13859 0.10096 0.066105 
-0.046683 0.10935 0.016123 -0.028762 -0.57412 -0.27834 0.079422 0.03947 
-0.049149 0.11 0.043745 -0.021034 -0.42483 -0.091075 0.029769 0.024015 
0.0062583 0.1322 0.067091 -0.046519 -0.050464 0.069229 -0.018897 0.047033 
0.045224 0.11115 0.085835 -0.069701 0.414 0.031085 -0.039449 0.0095465 
0.032071 0.053609 0.090603 -0.0042642 0.84444 0.2588 -0.021692 0.016123 
0.023686 0.0037921 0.07038 0.09422 1.05 0.3221 0.023851 0.039799 
0.019083 -0.013143 0.065612 0.17939 0.78427 -0.049314 0.051636 0.049006 
0.0054362 -0.0055795 0.05772 0.15999 0.36337 -0.24234 0.084026 0.061995 
0.08419 0.024673 0.06331 0.079422 -0.33934 -0.44604 0.073668 0.038483 
0.16492 0.061337 0.056404 0.0047785 -0.83225 -0.86365 0.072188 -0.03057 
0.17725 0.059528 0.033551 -0.040928 -0.78802 -1.0984 0.030427 -0.093376 
0.11954 0.038483 0.0064227 -0.01528 -0.55505 -0.632 -0.0050863 -0.10439 
-0.0039354 0.0062583 -0.045368 0.039799 -0.53499 0.25715 -0.012156 -0.015773 
-0.27423 0.077285 -0.049314 0.016616 -0.39623 0.90856 0.025495 0.085835 
-0.36137 0.1368 -0.028762 0.088136 0.12875 0.88176 0.0324 0.14765 
-0.084498 0.14667 -0.026296 0.12217 0.16837 0.37076 0.051965 0.11987 
0.3415 0.1026 0.01711 0.12118 -0.21833 -0.22754 0.021384 0.071037 
0.55935 0.012506 0.073175 0.11231 -0.19844 -0.35644 -0.0059084 0.032893 
0.43801 -0.042901 0.065118 0.042594 0.070051 -0.38159 -0.0026201 -0.0096899 
0.18432 -0.018568 0.050157 0.0069159 0.075641 -0.52184 0.019411 -0.0090322 
-0.1935 0.027961 0.012342 -0.015773 -0.11574 -0.76402 0.084355 -0.039449 
-0.58875 0.15571 -0.021528 -0.010183 -0.53006 -0.66685 0.10951 -0.012485 
-0.54995 0.19155 -0.03764 0.034702 -1.1825 -0.51066 0.093233 0.029112 
-0.15996 0.10441 -0.029255 0.01004 -1.0517 -0.13645 0.071695 0.088958 
0.22312 -0.019884 0.04358 -0.0965 -0.56344 0.42354 0.019247 0.056569 
0.41828 -0.099789 0.14831 -0.20732 -0.17114 0.70189 -0.081045 -0.06707 
0.40957 -0.098802 0.17856 -0.28212 0.76043 0.93816 -0.12577 -0.18808 
0.30368 0.0024767 0.12233 -0.14895 2.4557 1.316 -0.092061 -0.13908 
0.17281 0.13121 0.040621 0.050321 3.617 1.593 -0.012814 0.078272 
0.053609 0.14617 -0.0072237 0.30779 3.7017 1.1841 0.091425 0.33048 
-0.029091 0.060844 -0.08121 0.4875 2.8257 0.47747 0.15653 0.37997 
-0.035503 -0.025967 -0.069372 0.40381 0.74152 -0.023665 0.15587 0.28362 
-0.019555 -0.024816 -0.028926 0.12053 -1.5739 -0.58563 0.10803 0.071695 
0.025988 -0.0060728 0.01711 -0.087951 -2.7278 -1.0023 0.0082312 -0.080552 
0.044731 0.03651 0.038812 -0.1598 -2.652 -0.96082 -0.0057439 -0.13744 
0.029934 0.096028 0.0031344 -0.11837 -1.8799 -0.67211 0.0018191 -0.13004 
0.014808 0.12513 -0.0067304 -0.082854 -1.0996 -0.40708 -0.0055795 -0.059836 
0.005765 0.10967 -0.0019624 -0.034516 -0.49619 -0.17558 0.01152 -0.018075 
-0.014622 0.095699 0.010697 0.0060938 -0.18972 0.13943 0.022206 0.022864 
-0.019555 0.087808 0.023522 -0.0088678 -0.010841 0.33295 0.052294 0.029112 
-0.011827 0.046704 0.015959 -0.0022913 0.027961 0.3854 0.038812 0.021384 
0.015465 0.015137 0.044402 -0.018404 -0.038298 0.54718 0.036675 0.03947 
0.0032988 0.0087245 0.040292 -0.0072237 -0.023501 0.57908 0.054267 0.032893 
0.018096 -0.080059 0.00050378 0.010369 0.056404 0.053609 0.053938 0.059364 
0.023028 -0.11952 0.023686 -0.04323 0.20076 -0.33506 0.014808 0.052294 
0.056569 -0.095678 0.058542 -0.070359 0.69992 -0.079401 -0.0050863 -0.020212 
0.057555 -0.04471 0.066105 -0.041586 1.1935 0.47155 0.00066819 -0.085649 
0.057555 0.057555 0.081231 0.031907 1.4786 0.87584 -0.038462 -0.042244 
0.049499 0.1391 0.044567 0.18432 1.8814 1.0087 -0.01528 0.13664 
0.040456 0.17824 0.020398 0.27524 1.485 0.69877 0.0227 0.21194 
0.055747 0.15867 0.0016547 0.23512 0.41351 -0.16818 0.088794 0.16031 
0.03947 0.17018 -0.0060728 0.17067 -0.35397 -0.6703 0.091096 0.11905 
0.01415 0.1756 -0.020706 0.038319 -0.69316 -0.44703 0.065283 0.075805 
0.0044497 0.14387 -0.0029489 -0.080881 -1.0442 -0.28673 0.0085601 0.011355 
-0.017253 0.10803 0.041443 -0.17673 -1.0774 -0.33917 -0.03616 -0.084827 
0.32835 0.055254 0.065447 -0.27209 -0.78556 -0.41694 -0.06444 -0.11541 
0.8622 -0.060494 0.081395 -0.22951 -0.16818 -0.23543 -0.075291 -0.081868 
0.87963 -0.08384 0.073668 -0.092719 0.59848 0.085835 0.021549 -0.016266 
0.46284 -0.0078813 0.077778 0.061995 0.71406 0.41055 0.098001 0.090931 
-0.052273 0.038319 0.049664 0.21671 0.54554 0.58598 0.10178 0.13598 
-0.87648 0.091589 0.019905 0.20914 0.15555 0.44722 0.066105 0.12842 
-1.6532 0.20734 -0.0039354 0.17265 -0.60026 0.060679 0.11329 0.044896 
-1.292 0.22575 -0.036654 0.074326 -1.5437 -0.4564 0.085341 -0.049149 
-0.32043 0.14026 -0.0098543 0.054267 -2.2881 -0.75037 0.051143 -0.09239 
0.39806 0.09833 0.007738 -0.0040998 -2.3062 -0.52085 0.00033937 -0.12462 
0.60325 -0.001798 0.024508 -0.098473 -1.5188 -0.26568 0.0054362 -0.087622 
0.47122 -0.056548 0.041443 -0.15289 -0.20255 -0.27703 -0.037311 -0.047341 
0.27458 -0.06 0.10819 -0.12938 0.94753 -0.063782 -0.088115 -0.049971 
0.24548 -0.06707 0.12727 -0.17936 1.5353 0.088465 -0.088115 0.031742 
0.36649 -0.072825 0.14075 -0.085813 2.4703 0.051472 -0.0406 0.095206 
0.53403 0.007738 0.064296 0.16821 3.8666 0.25173 0.026974 0.22476 
0.5041 0.16952 0.028125 0.34742 3.85 0.67296 0.12151 0.31503 
0.26883 0.15982 -0.03353 0.36353 0.92731 0.63843 0.13582 0.19829 
-0.0098543 0.085177 0.048677 0.15489 -1.8505 0.10244 0.074983 0.055089 
-0.48879 -0.0036066 0.1276 -0.028269 -2.7182 -0.46183 0.028125 -0.081703 
-0.8357 -0.12692 0.12694 -0.083512 -2.1765 -0.67145 0.015959 -0.084005 
-0.5978 -0.30514 0.068736 -0.066577 -1.3209 -0.54749 -0.0032777 -0.0771 
-0.098144 -0.29725 0.015794 -0.025309 -0.74577 -0.29297 -0.0070593 -0.056877 
0.20372 -0.081539 -0.028104 0.0041209 -0.42944 -0.16769 -0.0082102 -0.024323 
0.20257 0.14946 -0.064275 0.01711 -0.13366 -0.080223 0.015959 -0.026789 
0.0067515 0.21457 -0.064768 0.037168 0.054103 -0.0059084 0.025166 0.031085 
-0.059672 0.20388 -0.042244 0.05772 0.13023 0.021549 0.0092177 0.027632 
0.030427 0.13023 0.017767 0.069229 0.20602 0.070708 0.014643 0.02533 
0.11378 0.042594 0.078765 0.11642 0.25962 0.12332 0.048019 0.045718 
0.086492 -0.03616 0.090274 0.054103 0.23348 0.10211 0.054267 0.053938 
0.026152 -0.054246 0.095371 0.055911 0.07597 0.058377 0.058213 0.052952 
-0.0019624 -0.015609 0.074983 0.0083956 0.024673 0.10195 0.062981 0.054596 
-0.020377 0.044567 0.026317 -0.018733 -0.051287 0.22723 0.063803 0.065447 
-0.0072237 0.013164 0.040292 -0.011498 -0.060494 0.29415 0.032729 0.066763 
0.030592 0.014643 0.064132 -0.030735 0.080244 0.37389 0.0083956 0.046046 
0.068242 0.045389 0.097837 -0.012978 0.16327 0.18711 0.0080668 0.042758 
0.067091 0.070215 0.10803 0.041607 0.3415 -0.097487 0.023193 0.018589 
0.055911 0.11477 0.066927 0.078107 0.44837 -0.49981 0.02681 0.044567 
0.083368 0.12924 0.016781 0.1077 0.053281 -0.74922 0.038319 0.039799 
0.40694 0.075312 0.015301 0.074983 -0.22113 -0.74889 0.069558 -0.00081153 
0.72952 0.0016547 0.0016547 0.13746 0.28872 -0.36729 0.059857 -0.0019624 
0.67542 -0.028269 0.0019835 0.19435 0.53715 0.4339 0.029112 -0.00015387 
0.26143 -0.01232 0.020233 0.052294 -0.028597 1.0975 -0.012156 -0.028104 
-0.11968 -0.04882 0.079916 -0.15454 -0.41365 1.2134 -0.027611 -0.12018 
-0.61588 -0.050136 0.086163 -0.16703 0.069393 0.36271 0.02533 -0.053095 
-0.95671 0.030098 -0.01117 0.024837 0.68529 -0.27308 0.055254 0.15144 
-0.55456 0.11609 -0.1353 0.26488 0.63827 0.22723 0.059035 0.25535 
0.0018191 0.12776 -0.1011 0.21572 -0.17608 0.68381 0.07449 0.15801 
-0.082032 0.15127 -0.0095255 -0.006566 -1.0725 0.18448 0.051143 -0.056548 
-0.32125 0.22361 0.050814 -0.11491 -1.0083 -0.94619 0.0054362 -0.090746 
-0.051944 0.25041 0.035031 -0.087951 -0.44966 -1.4023 -0.09091 -0.040435 
0.36879 0.28741 0.0052718 -0.0091966 -0.4079 -0.77668 -0.12741 -0.0072237 
0.59552 0.21539 -0.0050863 0.058049 -0.11853 0.20405 -0.10817 0.024673 
0.52153 0.15522 -0.017088 0.16837 1.2663 1.2446 0.020727 0.064296 
0.30598 0.13121 -0.090253 0.29185 1.8581 1.6655 0.15867 0.10113 
0.20471 0.05065 -0.03912 0.12381 0.78147 1.0856 0.15949 0.096521 
0.33015 -0.097322 0.051636 -0.1085 -0.6075 0.081395 0.099974 0.028125 
0.42157 -0.31336 0.13138 -0.23461 -1.0991 -0.71535 0.017274 0.0060938 
0.34429 -0.39195 0.12776 -0.22096 -0.52825 -0.99897 -0.020541 -0.050958 
0.12283 -0.32799 0.063145 -0.10308 0.19764 -0.60536 -0.063618 -0.033037 
-0.17821 -0.071674 0.025659 -0.025309 0.21523 -0.17657 -0.075291 -0.033201 
-0.58481 0.17166 0.0041209 0.048348 0.10622 -0.080059 0.018918 0.023851 
-0.73262 0.20503 -0.040271 0.1955 0.55277 0.03799 0.12858 0.10211 
-0.46413 0.22131 -0.099624 0.23841 1.1068 0.2588 0.1322 0.1368 
-0.086471 0.21079 -0.050136 0.14881 0.74842 0.41696 0.089287 0.13253 
0.17593 0.15242 -0.023007 0.023522 -0.11163 0.31486 0.00099702 0.041772 
0.27179 0.10622 -0.00015387 -0.070523 -0.58399 0.13171 -0.0091966 -0.030406 
0.24005 0.13023 0.020562 -0.093705 -0.35463 0.081067 -0.041257 -0.041257 
0.16196 0.13187 0.038483 -0.096665 0.17511 0.20635 -0.016266 -0.021856 
0.078436 0.16475 0.031907 -0.0034422 0.62939 0.35021 0.060515 0.05476 
0.049499 0.16689 0.010204 0.09422 0.51084 0.29612 0.053774 0.078929 
0.048677 0.14091 -0.023336 0.081067 0.058706 0.12562 0.047362 0.066598 
0.037332 0.08863 -0.033694 0.06594 -0.1769 0.0095465 0.01711 0.047362 
0.022864 0.039305 -0.024158 0.07038 -0.16884 -0.072332 0.039963 0.030263 
0.0024767 0.015794 -0.031557 0.044402 -0.14911 -0.060987 0.028125 0.036675 
-0.037311 0.0064227 0.014808 0.031742 -0.13645 -0.05589 0.03651 0.041443 
-0.08532 0.049992 0.064461 -0.036654 -0.12511 -0.084498 0.043909 0.070544 
-0.10291 0.066434 0.10096 -0.056548 -0.066084 -0.085649 0.079916 0.055254 
-0.034516 0.0034632 0.10573 -0.023665 -0.1039 -0.072332 0.051801 0.050486 
0.11921 -0.05589 0.073668 -0.044381 -0.19482 -0.095843 0.012999 0.023851 
0.26307 -0.10867 0.076956 -0.051615 -0.1427 -0.20682 -0.019061 -0.036983 
0.24877 -0.20386 0.076299 -0.076606 0.14256 -0.19926 -0.009361 0.0034632 
0.15768 -0.34345 0.10376 -0.079895 0.49029 -0.073647 -0.0060728 0.021549 
-0.090253 -0.32734 0.051472 0.018918 0.60768 0.11165 0.011191 -0.0032777 
-0.31533 -0.07562 0.014315 0.054925 0.53321 0.16903 0.042594 0.010533 
-0.23839 0.14042 0.0056006 0.10293 0.47566 0.12529 0.0085601 0.007738 
0.034702 0.19944 0.019905 0.13746 0.32407 0.11428 -0.013143 0.030756 
0.16525 0.10228 0.04358 0.065283 -0.19515 0.075312 0.0087245 0.036182 
0.20043 -0.026953 0.0059294 0.012013 -0.58547 0.090931 0.080902 0.058871 
0.26225 0.014643 -0.077593 0.016945 -0.67293 0.15456 0.078929 0.049335 
0.26242 0.18251 -0.072989 0.0028056 -0.64285 -0.012814 0.083368 0.0072447 
0.20849 0.27475 -0.12231 -0.069536 -0.63759 -0.23642 0.070215 -0.044546 
0.085012 0.30779 -0.094527 -0.092061 -0.29741 -0.25138 0.081889 -0.028269 
-0.041422 0.22049 -0.024323 -0.021856 0.30187 -0.11837 0.072517 0.053445 
-0.2231 0.042923 0.052623 0.076792 0.21704 -0.25927 0.065283 0.090274 
-0.21126 -0.097651 0.15061 0.022535 -0.29544 -0.47103 0.043087 0.081231 
-0.015444 -0.11031 0.18087 -0.037311 -0.55324 -0.40642 0.013821 0.050486 
0.18284 -0.024816 0.20701 0.012013 -0.30827 0.17774 -0.003771 0.019576 
0.2269 0.030263 0.20372 0.0786 0.50147 0.68496 0.024344 0.059364 
0.15982 0.044402 0.17182 0.21013 0.96792 0.68134 0.084684 0.071531 
0.034373 0.099152 0.14338 0.13861 0.34133 0.17593 0.067256 0.014808 
-0.07003 0.067913 0.12612 0.044238 -0.6149 -0.46101 0.027961 -0.054082 
-0.078415 -0.0039354 0.095206 0.027468 -1.1971 -0.9013 -0.0026201 -0.11426 
-0.041257 -0.052437 0.041772 -0.00097594 -1.3164 -0.83324 0.038483 -0.043066 
0.023686 -0.090417 0.027303 0.029934 -1.1698 -0.45311 0.031578 0.0039565 
0.095206 -0.047669 0.013328 0.014643 -0.81285 -0.012978 0.019411 0.06035 
0.10622 0.032071 0.004943 -0.0029489 -0.23938 0.46218 0.019905 0.049828 
0.14026 0.026317 0.033715 -0.020377 0.33459 0.61771 -0.013307 -0.031557 
0.16771 0.0028056 0.052623 -0.1011 0.93783 0.5069 -0.065755 -0.053753 
0.14568 0.0052718 0.052952 -0.059507 1.6065 0.30483 -0.074304 -0.017088 
0.020562 0.039799 -0.0049219 0.20208 2.3212 0.64435 0.019576 0.12546 
-0.083676 0.1516 -0.065426 0.39937 2.4036 1.0756 0.098494 0.28708 
-0.13448 0.20619 -0.0771 0.44804 1.2482 0.76898 0.12644 0.28593 
-0.098967 0.21178 -0.05885 0.27869 -0.24365 0.12661 0.11181 0.1784 
-0.05326 0.12727 -0.0034422 0.042758 -1.237 -0.34361 0.083533 -0.0024557 
-0.0072237 0.059857 0.089452 -0.1695 -1.3977 -0.67145 0.009711 -0.17838 
0.034044 0.062323 0.13516 -0.26683 -0.98877 -0.99749 -0.01528 -0.2277 
0.047033 0.0324 0.1544 -0.20929 -0.42072 -0.80397 -0.064604 -0.17098 
0.05624 0.018754 0.11987 -0.026131 0.2269 -0.25401 -0.004593 -0.020377 
0.036346 0.0324 0.11905 0.091096 0.46103 0.35301 0.0037921 0.10787 
0.042265 -0.010512 0.071859 0.14552 0.023686 0.88324 0.010204 0.14979 
0.036346 -0.0091966 0.0016547 0.10441 -0.3298 1.0524 -0.016266 0.10178 
0.050321 0.015959 -0.086142 0.059693 -0.32372 0.706 -0.0029489 0.078436 
0.01004 0.016945 -0.10653 0.036182 -0.047176 -0.04323 0.0087245 0.083697 
-0.011992 0.012342 -0.095021 0.0021479 0.45609 -0.57757 0.040292 0.03947 
-0.035832 0.033551 -0.0024557 0.015465 0.94424 -0.44325 0.079916 0.021713 
-0.031721 0.067585 0.083862 0.067913 0.78476 -0.39409 0.048348 -0.010348 
0.0014903 0.09274 0.13203 0.082382 0.34643 -0.50951 0.034209 -0.011005 
-0.009361 0.11 0.15949 0.13499 -0.025145 -0.30136 0.040456 0.035688 
-0.0049219 0.12168 0.15012 0.10491 -0.47449 0.16442 0.10014 0.04917 
-0.0095255 0.10359 0.11937 0.088958 -0.82535 0.30352 0.043745 0.04506 
-0.0052507 0.10359 0.10852 0.073668 -0.99798 0.19418 0.041772 0.00083261 
0.026481 0.17199 0.08419 -0.01676 -1.0136 0.21112 0.0041209 -0.0054151 
0.057062 0.14798 0.073832 -0.081868 -0.63035 0.29711 0.010533 -0.00064712 
0.055089 0.17659 0.075641 -0.098473 0.22739 0.22657 -0.018075 -0.0004827 
0.045553 0.171 -0.0073881 -0.06296 0.91941 0.044567 -0.014787 0.0051074 
0.039305 0.15587 -0.079895 0.029441 1.4658 -0.14763 0.021713 0.0028056 
0.022042 0.10145 -0.14648 0.080738 1.5361 -0.52924 0.018918 0.018754 
0.045389 0.06331 -0.15668 0.096028 1.2246 -0.58908 0.013657 0.062159 
0.029769 0.048677 -0.17624 0.11707 1.0906 -0.061973 0.01711 0.060186 
0.0092177 -0.027282 -0.13744 0.13039 0.51874 0.49802 0.056404 0.080902 
0.023686 -0.14928 -0.021856 0.0088889 -0.71289 0.60818 0.024673 0.045553 
0.072024 -0.20534 0.092082 -0.20107 -1.5779 0.45297 -0.026131 -0.02646 
0.13828 -0.20255 0.13072 -0.25006 -1.3766 0.12694 0.0016547 -0.043066 
0.21474 -0.067235 0.10145 -0.038791 -0.43733 -0.06 0.080409 0.026974 
0.26981 0.063968 0.02122 0.084355 0.01004 -0.022843 0.090438 0.094384 
0.31569 0.12743 -0.017088 0.047691 -0.23527 -0.4518 0.058213 0.027303 
0.60193 0.12431 0.0324 -0.032543 -0.078744 -0.91594 0.030756 -0.018897 
0.69762 0.10359 0.063803 -0.032708 0.35071 -0.68033 0.012013 -0.024323 
0.16097 0.10408 0.063145 0.011684 0.29431 0.011848 -0.0032777 -0.0022913 
-0.37337 0.082053 0.031578 -0.03616 0.087972 0.4579 -0.013143 0.04917 
-0.69513 0.14601 0.041278 -0.022679 0.39329 0.59042 0.0062583 0.087314 
-1.2722 0.18909 0.013492 0.11773 0.91958 0.63531 0.043416 0.14354 
-1.3589 0.10392 -0.023336 0.16327 0.79199 0.3854 0.050979 0.12233 
-0.37272 -0.062302 -0.037311 0.12858 -0.053424 -0.010019 0.031578 0.050486 
0.63103 -0.1233 0.021056 0.021056 -0.77323 -0.22688 0.048841 0.0060938 
0.93766 -0.078415 0.045553 -0.067564 -0.90574 -0.29034 0.019411 -0.045039 
0.66539 0.016781 0.060022 -0.051615 -0.66636 -0.26798 0.026317 -0.031228 
0.10129 0.10852 0.04654 -0.050136 -0.32652 -0.20271 0.036182 -0.048163 
-0.40412 0.14256 0.010533 0.029276 -0.19268 -0.2499 0.051143 -0.0087034 
-0.46495 0.14239 -0.029091 0.11543 -0.32092 -0.55324 0.025166 0.056404 
-0.13333 0.08567 -0.028269 0.12825 -0.42648 -0.69381 0.029934 0.058377 
0.16755 -0.047834 -0.034023 0.12792 -0.56294 -0.62558 -0.00015387 0.057227 
0.33032 -0.12445 -0.042408 0.093891 -0.55768 -0.43815 -0.014622 0.040621 
0.2953 -0.087951 -0.0075525 -0.05441 -0.45098 -0.18101 -0.034352 -0.0024557 
0.17824 -0.059507 0.09126 -0.14993 -0.34065 0.35679 -0.023994 -0.077757 
0.088465 0.0095465 0.11855 -0.24677 -0.047505 1.2088 0.0065871 -0.03353 
0.0042853 0.069229 0.081889 -0.13415 0.77177 1.8508 0.030592 0.13253 
-0.065262 0.062323 0.044238 0.024837 1.2803 1.9786 0.044567 0.19205 
-0.073318 0.043416 0.039963 0.066927 1.6711 1.8092 0.049828 0.14075 
-0.14204 0.078107 0.037826 0.065118 1.6912 1.3227 0.037661 -0.042573 
-0.03205 0.20553 0.021056 0.069229 0.63333 0.26981 -0.013471 -0.06444 
-0.028926 0.17445 0.070708 0.097015 0.13598 -1.1307 -0.0049219 0.054925 
-0.044217 0.0065871 0.041443 0.15028 0.24137 -2.3162 0.048513 0.11362 
-0.0082102 -0.091732 0.011026 0.15966 0.0028056 -2.2464 0.064296 0.093233 
-0.017582 -0.038133 -0.0098543 0.21128 -0.086307 -0.984 0.055089 0.088136 
-0.047012 0.090438 -0.022679 0.23266 0.087643 0.12661 0.048184 0.11378 
-0.053424 0.14256 -0.028433 0.092576 -0.049149 0.24137 0.047855 0.046868 
-0.023336 0.13368 0.029934 -0.046519 -0.21866 0.19829 0.023851 -0.058028 
0.065612 0.11954 0.059528 -0.10472 -0.18463 0.59223 -0.015609 -0.094199 
0.28938 0.040456 0.054925 -0.10719 -0.38669 0.84592 0.0023123 -0.08532 
0.46925 -0.11015 0.058049 -0.084334 -0.67589 0.70239 0.030592 -0.0059084 
0.4676 -0.18249 0.046704 -0.049314 -0.69661 0.39099 0.038977 0.028619 
0.27475 -0.1062 0.034373 -0.0080457 -0.54305 0.12776 0.053609 0.040456 
-0.16966 -0.099953 0.076627 0.038977 -0.34213 -0.10702 0.10047 0.052952 
-0.70812 -0.27374 0.1276 0.019905 -0.16309 -0.20008 0.13154 0.034209 
-0.78474 -0.32076 0.1442 0.03651 0.0075736 -0.17427 0.058213 0.034209 
-0.2961 -0.068879 0.10376 0.040128 0.13171 -0.11442 -0.017088 0.00083261 
0.22575 0.18054 0.04358 0.041772 0.14026 -0.082525 -0.060165 -0.0016336 
0.4676 0.30401 0.043251 0.080244 0.15686 -0.047012 -0.0034422 0.0093821 
0.43078 0.32966 0.031414 0.0421 0.13598 -0.028269 0.014643 -0.0032777 
0.21901 0.20651 0.041772 0.020233 0.055582 -0.021034 0.053445 0.023522 
0.044896 0.098659 0.036182 0.048841 -0.034188 -0.063946 0.073175 0.047197 
0.069064 0.00033937 0.042758 0.066105 -0.1621 -0.009361 0.063968 0.035688 
0.18119 -0.11935 0.08008 0.083204 -0.20025 -0.068714 0.051636 0.037332 
0.28757 -0.12198 0.05772 -0.0024557 0.11198 -0.13727 0.02681 0.022206 
0.26406 0.016452 0.051965 -0.023336 0.41647 -0.18972 0.068571 0.045718 
0.20849 0.11 0.049006 0.016781 0.18169 -0.12675 0.030263 0.010369 
0.12973 0.1151 0.015301 0.019247 -0.056219 0.079587 0.025824 0.024837 
0.057555 0.080573 0.011848 0.067585 0.28001 0.20142 0.042923 0.041443 
0.007738 0.043416 -0.016266 0.10113 0.81337 0.33147 0.088465 0.036017 
-0.033037 -0.006566 0.017274 0.068736 0.28724 0.45149 0.091425 0.049335 
0.0060938 -0.044874 0.081231 -0.008539 -0.80266 0.13105 0.056076 0.019576 
0.051472 0.0037921 0.10244 -0.15289 -1.0146 -0.43075 0.0037921 -0.022514 
0.066598 -0.0040998 0.065776 -0.089924 0.19813 -0.59402 0.017932 0.020562 
0.05624 -0.023665 0.033058 0.1299 1.3796 -0.34394 0.019905 0.071695 
0.076463 -0.014293 0.037168 0.1026 1.0427 -0.058521 -0.0044286 0.046046 
0.078107 -0.023501 0.069393 0.01974 0.11165 -0.15437 -0.022679 -0.0082102 
0.073339 0.0052718 0.053774 0.059364 0.0064227 -0.21241 0.01004 0.028454 
0.029276 0.041278 0.044238 0.15489 -0.13662 0.019411 0.088136 0.10195 
0.010862 0.11296 0.034209 0.11674 -0.67441 0.1276 0.07301 0.082875 
-0.025145 0.13993 0.037497 -0.0503 -1.1938 -0.16621 0.054925 -0.020377 
-0.02942 0.17971 0.041443 -0.10439 -1.1599 -0.33589 0.018589 -0.060494 
-0.020212 0.18415 0.022864 -0.078744 -0.57675 -0.2282 0.007738 -0.062302 
0.0016547 0.18942 0.00017495 0.0026412 0.10967 0.037826 -0.011663 -0.01117 
0.018754 0.18383 -0.036325 0.1179 0.60933 0.26833 0.058871 -0.015609 
0.0056006 0.18695 -0.031721 0.1054 0.53468 0.39132 0.020562 0.013986 
0.012999 0.1151 -0.013471 0.033715 0.39674 0.50328 -0.0027845 -0.035503 
0.081395 0.088794 0.034537 -0.017253 0.31092 0.60851 0.005765 0.010697 
0.31864 0.097015 0.082546 -0.069701 0.010369 0.38721 0.026152 0.061172 
0.43669 0.079094 0.014315 -0.0096899 -0.32273 -0.14829 0.048841 0.15209 
0.45133 0.065447 -0.047505 0.14519 -0.20205 -0.486 0.074326 0.2001 
0.52811 0.077614 -0.048656 0.19073 -0.065097 -0.67655 0.10244 0.1368 
0.27096 0.1054 -0.031392 0.12381 -0.2185 -0.72588 0.11674 0.071695 
-0.4416 0.17856 -0.0029489 0.0051074 -0.27242 -0.50277 0.062652 -0.013307 
-0.8408 0.17955 0.020727 -0.10193 -0.1935 0.12595 -0.089431 -0.15437 
-0.7877 0.16377 0.091589 -0.16818 -0.0073881 0.71784 -0.13168 -0.20699 
-0.85757 0.14141 0.10162 -0.11639 0.96446 0.96233 -0.084663 -0.056548 
-0.68592 0.14042 0.036839 0.16179 2.3467 1.1223 -0.01528 0.20092 
-0.1113 0.13319 -0.069701 0.33246 2.1072 1.0335 0.032893 0.26488 
0.40595 0.070544 -0.080059 0.23825 0.75138 0.52022 0.031085 0.1904 
0.58648 0.011355 -0.0072237 0.082875 -0.54124 -0.12807 0.014808 0.044402 
0.50706 0.016452 0.025001 -0.069701 -1.1665 -0.54699 0.010369 -0.05885 
0.32259 0.01004 -0.0022913 -0.094363 -1.127 -0.48928 0.057555 -0.033201 
0.1733 0.024673 -0.024487 -0.046354 -0.80216 -0.12708 0.043416 -0.0026201 
0.073504 0.055089 -0.0098543 -0.014787 -0.29149 0.44491 0.048019 0.037332 
-0.0059084 0.055582 -0.011992 0.038319 0.091753 0.5748 0.049499 0.063145 
0.032236 0.061008 -0.034516 0.0056006 -0.04471 -0.025802 0.03536 0.0037921 
0.071202 0.085999 -0.015116 -0.052766 -0.31238 -0.90837 0.0041209 -0.028597 
0.039963 0.14617 0.034702 -0.038791 0.038812 -1.2934 -0.008539 -0.042244 
-0.056548 0.15061 0.056569 0.033715 0.42091 -0.80233 0.0036276 0.013821 
-0.14928 0.12447 0.068736 0.15193 0.19484 0.076463 0.0324 0.055089 
-0.14862 0.025495 0.08715 0.12168 -0.16457 0.65339 -0.010512 0.026152 
-0.089102 -0.12938 0.11099 -0.036818 0.053938 0.68249 -0.058521 0.013821 
-0.039778 -0.23247 0.1174 -0.098309 0.75336 0.52383 -0.035996 0.018425 
-0.025145 -0.21998 0.10935 -0.011992 1.4247 0.45577 0.023193 0.051308 
0.0042853 -0.13349 0.07449 0.096028 1.41 0.25863 0.072517 0.083697 
-0.051122 0.019576 0.037168 0.20158 0.48487 0.098001 0.10113 0.1539 
-0.12642 0.13943 0.014643 0.12562 -0.60273 0.12792 0.10408 0.16196 
-0.13103 0.12085 -0.017746 0.078272 -1.0646 0.0056006 0.058213 0.073832 
-0.074633 0.099316 -0.059507 0.024344 -1.0042 -0.24135 0.041443 0.0036276 
-0.024652 0.059857 -0.079895 -0.017417 -0.85165 -0.30909 0.020398 -0.030735 
0.027139 -0.0098543 -0.086142 -0.035174 -0.60733 0.039141 0.017603 -0.039284 
0.079587 -0.11278 -0.021034 -0.058685 -0.29396 0.44952 0.0080668 -0.011005 
0.058213 -0.17624 0.054432 -0.023501 -0.010348 0.44903 0.020398 -0.023501 
0.09981 -0.12692 0.13861 0.0074092 0.15012 0.25173 -0.0044286 -0.020706 
0.14042 -0.061809 0.17018 -0.017417 0.21161 -0.10373 -0.037147 -0.062631 
0.032564 0.074326 0.17199 -0.011992 0.29398 -0.68938 -0.022021 -0.051122 
-0.07414 0.16656 0.14338 0.090767 0.45938 -1.1111 0.01974 0.0083956 
-0.095185 0.14453 0.10178 0.12447 0.26899 -0.86448 0.079094 0.058213 
-0.0027845 0.082546 0.10145 0.10211 -0.17789 -0.121 0.076627 0.12003 
0.1179 0.01974 0.091753 -0.016431 -0.48221 0.3198 0.017767 0.027139 
0.19747 -0.05441 0.064461 -0.1187 -0.42401 0.49769 -0.039942 -0.019061 
0.20635 -0.10604 0.033222 -0.11656 -0.030735 0.47566 -0.029584 -0.024487 
0.16771 -0.084827 -0.012485 -0.01232 0.53912 0.18481 0.011684 0.044073 
0.12694 -0.10587 -0.040435 0.12644 0.64435 -0.084991 0.050321 0.10852 
0.12908 -0.15964 -0.031228 0.2029 0.23496 -0.14467 0.051801 0.073175 
0.12792 -0.11919 0.012506 0.18876 -0.21586 -0.070523 0.039305 0.023028 
0.097672 -0.0014692 0.049335 0.16048 -0.36762 -0.054246 0.032564 0.0083956 
0.07449 0.091096 0.074161 0.062817 -0.34033 -0.019226 0.015465 -0.0034422 
0.048513 0.17067 0.046046 -0.011827 -0.22655 0.0034632 0.048184 0.019905 
0.030263 0.21769 0.044731 -0.046683 -0.14878 -0.10669 0.055089 0.0093821 
0.060679 0.19024 0.045553 -0.11228 -0.1039 -0.38653 0.048841 -0.00097594 
0.18859 0.17495 0.053445 -0.045368 -0.0072237 -0.38439 0.029769 0.010533 
0.25617 0.19336 0.0083956 0.016452 -0.047998 -0.21175 0.090438 0.037332 
0.1978 0.15686 -0.0095255 0.069064 -0.38028 -0.16046 0.091589 0.021056 
0.12398 0.089945 -0.008539 0.077449 -0.99371 -0.26157 0.049664 -0.0031133 
-0.059178 0.050486 0.046375 0.020233 -1.2124 -0.36269 0.0227 -0.004593 
-0.34641 0.023193 0.03388 -0.028597 -0.89128 -0.19778 0.030427 -0.0072237 
-0.38916 -0.0044286 0.036017 -0.033365 -0.46561 0.20767 0.0064227 -0.0052507 
-0.17361 -0.063618 0.059364 -0.062467 0.086985 0.43489 -0.018733 -0.0011404 
0.050979 -0.17049 0.10556 -0.090746 0.621 0.58664 -0.058356 -0.024323 
0.15686 -0.267 0.14042 -0.093541 1.4128 0.69252 -0.084334 -0.032872 
0.2782 -0.2933 0.095699 0.028619 2.3484 0.75385 -0.054246 0.019247 
0.30615 -0.19926 0.020562 0.26784 3.0304 0.82751 0.010533 0.16229 
0.23381 -0.034845 -0.031886 0.34446 2.2706 0.7721 0.12069 0.23841 
0.086985 0.12973 -0.036489 0.24564 0.4676 0.4048 0.11395 0.19517 
-0.055726 0.2537 -0.056383 0.077449 -0.96148 -0.17246 0.069886 0.092576 
-0.082854 0.29645 -0.03764 -0.075291 -1.5956 -0.67902 0.041114 -0.03912 
-0.051615 0.33558 -0.04323 -0.086307 -1.4135 -0.7512 0.061501 -0.041586 
0.036346 0.33541 -0.060658 -0.016924 -0.94915 -0.54732 0.050979 -0.052931 
0.13861 0.25091 -0.050629 -0.053753 -0.95638 -0.40675 0.068078 -0.031721 
0.12398 0.14026 -0.014787 -0.021692 -1.0027 -0.44571 0.048184 -0.058028 
0.026152 0.012506 0.02533 -0.074469 -1.1405 -0.33441 0.063474 -0.055561 
-0.157 -0.12478 0.069722 -0.075127 -1.2808 -0.17197 0.013164 -0.044217 
-0.25088 -0.11804 0.030592 -0.061973 -0.90048 -0.13152 -0.071674 0.0060938 
-0.20797 0.018589 0.024179 -0.082361 -0.25532 -0.14303 -0.095843 0.036675 
-0.10998 0.14289 0.0080668 -0.004593 0.64484 0.027961 -0.058192 0.069558 
-0.0090322 0.17182 0.0098754 0.052294 1.7941 0.72425 0.0054362 0.061172 
0.063639 0.15522 0.0060938 0.077121 2.2865 1.3704 0.036017 0.11691 
0.23644 0.067585 0.012177 0.1322 2.433 1.5838 0.078765 0.13023 
0.38688 -0.0013048 0.037332 0.183 2.6191 1.093 0.067585 0.12414 
0.32029 -0.030735 0.038155 0.097672 1.6445 0.12727 0.040292 0.09685 
0.18958 -0.014293 0.043251 -0.0060728 0.053281 -0.6925 0.031414 0.012342 
0.086328 0.0074092 0.024179 0.0013258 -0.52611 -0.7507 0.033387 -0.021034 
0.24367 0.079751 -0.016102 0.12447 -0.79756 -0.32076 0.029605 -0.030242 
0.39822 0.11362 -0.0031133 0.069393 -1.2517 -0.036983 0.00066819 0.020398 
0.31716 0.096521 0.0051074 -0.0024557 -1.2443 0.061337 0.020562 0.023851 
0.076463 0.051308 0.02122 -0.019226 -0.57133 0.26669 0.026481 0.048513 
-0.49159 0.0024767 0.065283 -0.048327 -0.16703 0.4219 0.037168 0.050157 
-1.3988 -0.039942 0.065612 -0.017911 -0.11755 0.41779 0.069229 0.016123 
-1.4763 0.023193 0.063968 0.018425 -0.037476 0.49243 0.068407 0.051472 
-0.59122 0.14716 0.01711 0.023357 0.2103 0.49029 0.051636 0.023851 
0.28214 0.31289 0.036017 0.084026 0.56773 -0.14911 0.02829 0.031414 
0.62676 0.3757 0.03947 0.049828 0.53222 -0.89736 0.016616 0.026317 
0.61327 0.30566 0.030592 0.040456 0.36912 -0.97036 0.039634 0.00083261 
0.49062 0.19829 0.025659 0.051308 0.24712 -0.56393 0.011848 0.033715 
0.34791 0.035031 0.040621 -0.0138 -0.029913 -0.48337 0.00050378 0.015137 
0.23775 -0.12396 0.048677 -0.058521 -0.24677 -0.68707 -0.047834 -0.0047575 
0.15144 -0.16835 0.076627 -0.066248 -0.075949 -0.43618 -0.072825 -0.00015387 
0.17495 -0.14829 0.055418 0.056404 0.36748 0.15275 -0.02646 0.012999 
0.31749 -0.12297 0.017767 0.15883 0.3244 0.80548 0.013986 0.035031 
0.40578 -0.084663 0.018425 0.11329 -0.18249 1.0138 0.037497 0.020069 
0.26406 -0.11491 0.038483 0.01711 -0.62936 0.8229 0.08008 -0.011827 
0.051965 -0.1598 0.062817 0.022864 -0.77931 0.49934 0.081889 0.0014903 
-0.33687 -0.18742 0.067256 0.018754 -0.61983 0.20043 0.10228 0.021056 
-0.81795 -0.074633 0.072517 0.057062 -0.31747 0.060022 0.10359 0.027303 
-0.77339 0.094713 0.053938 0.046211 -0.055232 -0.084991 0.072681 0.042594 
-0.34838 0.27195 0.043909 0.040128 0.11165 -0.17098 0.029605 0.050486 
0.012999 0.32966 0.004943 0.047855 0.35432 -0.083676 -0.0032777 0.057227 
0.28905 0.29842 -0.00031829 0.044567 0.75582 0.10096 0.016452 0.11214 
0.33377 0.15324 -0.011334 0.089287 0.86236 0.037004 -0.013143 0.12644 
0.26916 0.041443 0.0032988 0.077121 0.4727 -0.49931 -0.035996 0.035031 
0.18366 -0.074798 0.044238 0.053281 -0.13448 -0.88897 0.021384 -0.026789 
0.085341 -0.10735 0.058542 0.050814 -0.58432 -0.95079 0.055582 -0.048985 
0.033222 -0.037476 0.064625 0.018425 -0.57577 -0.69447 0.04654 -0.052766 
0.023686 0.0062583 0.032893 0.021056 -0.6024 -0.17936 0.051143 -0.031064 
0.12135 0.021878 0.01826 0.026974 -0.62164 0.1419 0.044238 -0.015938 
0.18202 0.025988 0.031742 -0.02087 -0.45098 0.16081 0.044238 -0.0083746 
0.13828 -0.006566 0.055089 -0.036654 -0.29429 0.092082 0.038155 -0.017088 
0.019411 -0.034023 0.046375 -0.0082102 -0.14944 0.06742 0.050486 0.014315 
-0.2134 0.036839 0.022864 0.040785 -0.11179 0.1077 0.0592 0.073668 
-0.37863 0.12842 -0.0027845 0.059528 -0.22343 0.097837 0.042594 0.051472 
-0.12314 0.12579 0.020233 0.059857 -0.4125 -0.039284 0.014315 0.012999 
0.17018 0.12595 0.025166 0.0047785 -0.8699 -0.13892 0.0047785 -0.0052507 
0.31026 0.1225 -0.0036066 -0.006566 -1.3104 -0.12133 0.033715 0.011684 
0.24532 0.040292 -0.0095255 0.021713 -0.90032 0.058871 0.01974 0.10113 
-0.038791 0.0060938 -0.0075525 0.065118 0.044731 0.17955 0.00017495 0.10737 
-0.35627 -0.02942 0.040128 -0.01939 0.58943 -0.073482 -0.052766 0.023686 
-0.29676 -0.10998 0.092904 -0.12774 0.81205 -0.54979 -0.097158 -0.13497 
0.040621 -0.19005 0.1174 -0.13892 0.93043 -0.55225 -0.10225 -0.21932 
0.26587 -0.16424 0.1003 -0.030899 1.5151 0.35547 -0.023994 -0.097158 
0.28132 -0.035174 0.037332 0.25025 2.7102 1.4278 0.10474 0.17445 
0.16229 0.041607 -0.042737 0.46645 3.0968 1.7653 0.19221 0.36928 
0.11954 0.066927 -0.046847 0.32884 0.92122 0.96693 0.15275 0.2759 
0.14469 0.095535 -0.009361 0.075312 -1.5588 -0.33622 0.082546 0.082711 
0.14223 0.08156 0.018589 -0.10735 -2.5678 -1.0295 0.035195 -0.027118 
0.06479 0.05772 0.037661 -0.15865 -2.3833 -0.88864 0.020233 -0.049314 
0.026317 0.11115 0.048677 -0.14846 -1.6321 -0.52546 0.028454 -0.055726 
0.086328 0.16492 0.061172 -0.098638 -0.71272 -0.21307 0.018425 -0.05326 
0.15785 0.15193 0.06331 -0.050464 0.098494 0.12431 0.020398 0.020069 
0.15061 0.17659 0.058377 -0.0087034 0.62725 0.56362 -0.021528 0.018918 
0.11148 0.18333 0.031578 -0.023994 0.99044 0.53321 -0.03616 0.038648 
0.017932 0.13154 0.0087245 0.067913 1.3244 0.14305 -0.01676 0.072846 
-0.060987 0.17034 -0.024158 0.16722 1.7686 0.23118 0.057062 0.074161 
-0.12725 0.16442 -0.041093 0.24778 1.447 0.43604 0.05624 0.037826 
-0.20008 0.086821 -0.0091966 0.18563 0.3027 0.23496 0.026481 -0.00015387 
-0.1667 -0.073976 0.051143 -0.00081153 -0.42451 -0.1159 0.0064227 0.0051074 
-0.12281 -0.18413 0.057062 -0.043395 -0.18298 -0.1815 -0.0068948 0.043251 
0.0028056 -0.15306 0.00297 0.0098754 0.21753 0.025988 -0.018404 0.053774 
0.053281 -0.078086 0.023028 -0.0080457 0.048841 0.25123 -0.026953 0.056898 
0.11839 0.045224 0.020727 -0.016431 -0.28673 0.22493 0.01711 0.0324 
0.19796 0.13762 0.03651 -0.050629 -0.49208 -0.14467 0.028454 0.0023123 
0.20257 0.1008 0.017274 -0.03057 -0.583 -0.33063 0.054103 0.00297 
0.20372 0.085506 0.024673 0.028125 -0.3908 -0.27588 0.072188 0.020069 
0.15571 0.068407 0.013986 0.035524 -0.14632 -0.068057 0.078107 0.062817 
0.1151 0.074654 0.018425 0.052952 -0.065097 0.21358 0.047362 0.049006 
0.027468 0.13598 0.034866 0.051472 -0.15618 0.50131 0.048513 0.066598 
0.00033937 0.034209 0.045882 0.00083261 -0.013965 0.66194 0.041772 0.029769 
-0.0052507 -0.068057 0.062159 -0.025474 0.37553 0.78591 0.028454 0.0041209 
0.026974 -0.10653 0.075641 -0.0503 0.658 1.0015 0.014479 -0.030406 
0.050321 -0.036983 0.072188 -0.045039 0.6067 0.83589 -0.018897 -0.021856 
0.073504 0.02829 0.072188 -0.071838 0.13384 -0.2693 -0.026789 -0.0047575 
0.065118 0.048019 0.077614 -0.039613 -0.022021 -1.251 -0.025145 -0.017417 
0.011684 0.085835 0.030592 0.15028 0.71718 -1.0139 1.0539e-005 0.01974 
-0.032872 0.07038 -0.014622 0.30089 0.69203 -0.5585 0.037826 0.06035 
-0.052602 0.079587 -0.035503 0.26998 -0.24349 -0.68395 0.089452 0.055254 
-0.03205 0.076792 -0.025638 0.14206 -0.53828 -0.72982 0.073504 0.048019 
0.01415 -0.012814 0.047855 -0.023336 -0.23609 -0.29166 0.00017495 0.00066819 
0.087808 -0.046847 0.095699 -0.15339 -0.19285 0.13171 -0.045039 -0.0096899 
0.089287 -0.0087034 0.097015 -0.21323 -0.082361 0.44179 -0.010841 -0.012978 
0.035524 0.0079024 0.05476 -0.12609 0.76158 0.73511 0.040785 0.071366 
-0.017253 0.082875 0.020233 0.092082 1.452 0.93701 0.097508 0.15028 
0.0592 0.11674 -0.027611 0.17199 0.69006 0.64418 0.10902 0.13269 
0.22213 0.095699 -0.055397 0.08978 -0.50523 0.094877 0.099481 0.051801 
0.27179 0.12069 -0.094199 0.012999 -1.0884 -0.27818 0.050486 -0.028104 
0.19451 0.12447 -0.051451 -0.05589 -1.1548 -0.41579 0.0047785 -0.057205 
0.007738 0.12776 0.0047785 -0.066084 -0.95556 -0.38899 0.014479 -0.037969 
-0.32372 0.066598 0.026481 -0.024323 -0.66438 -0.32865 0.017274 -0.041751 
-0.53137 0.029605 0.081231 -0.00081153 -0.41842 -0.34345 0.02829 -0.011334 
-0.074469 0.0011614 0.13056 0.035853 -0.18627 -0.3012 -0.02087 -0.016924 
0.61739 -0.06707 0.16097 0.029769 0.015301 -0.22063 -0.01232 -0.0052507 
0.80548 -0.059507 0.18465 0.037168 0.13236 -0.13596 -0.020212 0.042758 
0.46859 -0.010512 0.14289 0.047033 0.21523 -0.14862 -0.017582 0.015301 
-0.10735 -0.0098543 0.15489 0.027796 0.27179 -0.13349 0.012342 0.018425 
-0.86102 0.063968 0.13302 0.041443 0.23183 0.14239 0.065447 0.051143 
-1.1759 0.15587 0.078929 0.071531 0.14535 0.32851 0.065612 0.083697 
-0.6149 0.15505 -0.0022913 0.073504 0.13088 0.25304 0.022206 0.075476 
0.1442 0.10113 -0.058356 0.10524 0.18859 0.13467 0.030098 0.046868 
0.49851 0.057884 -0.10078 0.061666 0.16903 0.032729 0.037004 0.03947 
0.47484 0.059693 -0.14319 0.064132 0.024508 -0.021363 0.025001 0.04095 
0.32851 0.034373 -0.18594 0.036182 -0.20715 -0.33753 0.038812 0.0080668 
0.22296 0.076627 -0.15503 0.010697 -0.33342 -0.39442 0.02533 0.010862 
0.097344 0.099645 -0.082361 0.0021479 -0.13777 0.0019835 0.020562 0.027303 
0.022042 0.11346 0.038977 0.0034632 0.23233 0.2486 0.0021479 0.034373 
-0.013965 0.11494 0.16229 0.022042 0.41976 0.06742 -0.0021268 0.013164 
-0.034352 0.11313 0.22953 0.076134 0.30533 -0.15158 0.051965 0.05772 
-0.046025 0.054103 0.27261 0.037661 0.14321 -0.082196 0.055254 0.046868 
-0.061316 0.026481 0.22394 0.012013 0.22033 0.11543 0.061337 0.048348 
-0.056219 0.031907 0.14996 0.012177 0.19287 0.17758 0.032564 0.057391 
-0.034845 0.0041209 0.044731 0.018918 -0.17969 0.099645 0.050814 0.040128 
-0.035667 -0.025802 0.00050378 -0.0034422 -0.69612 0.09274 0.012999 0.037497 
-0.02235 0.019247 -0.033037 -0.070852 -0.94668 0.10655 -0.00081153 -0.0013048 
0.0016547 0.022864 -0.026953 -0.093376 -0.55489 0.090603 -0.015609 0.0090533 
0.045389 -0.048656 -0.031721 0.030098 0.26768 0.12612 -0.026131 0.040785 
0.056569 -0.098144 -0.037311 0.16508 0.85118 0.22838 -0.021856 0.031249 
0.052787 -0.047834 -0.027447 0.17971 0.69351 0.077778 -0.0091966 0.01152 
0.048841 -0.015609 -0.0027845 0.17166 0.31421 -0.26108 0.033715 -0.0049219 
0.01974 0.035853 -0.00081153 0.10326 0.16031 -0.27867 0.047197 0.049335 
-0.014129 0.08304 0.013657 0.10852 0.076463 -0.092719 0.058871 0.1026 
-0.031886 0.07597 0.0079024 0.068736 -0.255 -0.065097 0.081889 0.087972 
-0.035996 0.10277 0.02829 0.0072447 -0.72686 -0.2032 0.072024 0.033551 
-0.021363 0.17692 0.044402 -0.018075 -0.92268 -0.17295 0.036017 -0.010019 
-0.0055795 0.1807 0.021056 -0.057041 -0.67113 0.088794 0.020891 -0.014787 
0.02122 0.15949 0.04095 -0.073318 -0.34164 0.43883 0.045718 -0.0083746 
0.026481 0.1105 0.080902 -0.061316 0.017274 0.5138 0.038319 0.0051074 
0.04506 0.00033937 0.071366 -0.060329 0.34725 0.37553 0.023028 0.039141 
0.085177 -0.11196 0.086985 -0.041915 0.44919 0.23726 -0.014787 0.0014903 
0.087808 -0.10258 0.071037 -0.0075525 0.58697 0.21917 -0.0027845 -0.028433 
0.048677 -0.010348 -0.020048 0.10491 0.9865 0.07597 0.019576 0.043416 
0.01415 0.03947 -0.056055 0.23792 0.84921 -0.21225 0.065776 0.1368 
0.03092 0.079422 -0.039613 0.19122 0.20158 -0.46331 0.069393 0.15324 
0.044238 0.067585 0.017438 0.10047 -0.62673 -0.45854 0.075641 0.062323 
0.042429 0.029934 0.076956 -0.048327 -0.85067 -0.20485 0.047197 -0.016595 
0.14174 0.0093821 0.077778 -0.094034 -0.078744 0.19665 0.052459 -0.042901 
0.49835 0.0090533 0.038155 -0.021528 0.62298 0.451 0.095206 -0.023829 
0.68907 -0.029091 0.032729 -0.015938 0.53222 0.45018 0.06183 0.043745 
0.49177 -0.01528 0.014972 -0.052437 0.36353 0.50279 0.014808 0.03947 
0.18169 0.036675 0.032893 -0.059343 0.29267 0.63629 -0.036654 0.024179 
-0.47186 0.067256 -0.035832 0.0092177 0.72557 0.87239 -0.0062372 -0.018239 
-1.2398 0.14831 -0.0083746 0.12053 1.2239 1.1468 0.016123 0.034373 
-1.1478 0.10902 0.007738 0.19287 0.76421 0.94391 -0.001798 0.08008 
-0.33375 0.0592 0.0046141 0.094877 -0.20633 -0.036489 -0.08269 0.067913 
0.38852 -0.090088 -0.0016336 0.054432 -0.73492 -1.3342 -0.057205 0.019083 
0.65915 -0.23592 0.022864 -0.01117 -0.7627 -1.7637 -0.0096899 -0.013965 
0.6603 -0.18512 -0.0027845 0.034537 -0.37436 -1.3048 0.071695 -0.026131 
0.61804 0.01004 0.0095465 0.055582 -0.026296 -0.38538 0.094877 0.011026 
0.46678 0.17906 0.023028 -0.0096899 -0.032872 0.24778 0.10639 0.018425 
0.26357 0.25025 0.037661 -0.024323 -0.11639 0.35399 0.091753 0.033058 
0.038648 0.22559 0.050814 -0.013143 -0.28393 0.25748 0.067749 0.0074092 
-0.2619 0.1955 0.040292 -0.004593 -0.39836 0.065118 0.072846 0.0014903 
-0.49586 0.19517 0.011355 0.025988 -0.21471 0.15505 0.065283 0.0082312 
-0.36154 0.1396 0.0046141 -0.016924 0.016123 0.35827 0.019083 0.024344 
-0.03205 0.08715 0.015465 -0.043066 0.18761 0.48289 -0.008539 0.028783 
0.10869 0.034866 0.047691 -0.082854 0.33837 0.42387 -0.03353 -0.0032777 
0.027632 0.0034632 0.052294 -0.079895 0.59634 0.34676 -0.03057 0.0042853 
-0.11261 0.031414 0.04095 0.052294 0.92172 0.27425 -0.006566 0.073997 
-0.17295 0.070215 0.015465 0.22739 1.1202 0.42535 0.050814 0.17347 
-0.089595 0.066269 0.032071 0.25058 0.53501 0.35021 0.092576 0.23118 
0.043416 -0.05178 0.01974 0.18218 -0.42664 -0.1672 0.072517 0.10195 
0.14124 -0.22195 -0.0027845 0.0039565 -0.8186 -0.47087 0.025001 0.021549 
0.16146 -0.28821 0.054596 -0.10587 -0.6338 -0.34411 -0.0072237 -0.045203 
0.14321 -0.22244 0.097672 -0.20123 -0.41694 -0.34822 -0.0057439 -0.10472 
0.11872 0.038977 0.12464 -0.23527 -0.034023 -0.56393 -0.045368 -0.13859 
0.11083 0.3512 0.083862 -0.070194 0.37603 -0.2739 -0.037476 -0.078579 
0.084355 0.42288 0.048019 0.10606 0.62347 0.17051 -0.0004827 0.084519 
0.024837 0.35416 0.021878 0.256 0.61081 0.17462 0.054103 0.16179 
-0.060329 0.26505 -0.015773 0.23726 0.17643 -0.12511 0.086163 0.11148 
-0.056877 0.16771 -0.012156 0.11526 -0.44999 -0.10801 0.051801 0.030263 
-0.029748 0.049992 0.0039565 0.019083 -0.75087 0.0041209 0.052294 -0.0004827 
0.026974 -0.049807 0.042594 -0.021692 -0.70911 -0.049149 0.031085 -0.010019 
0.11691 -0.17246 0.060679 -0.021199 -0.28114 -0.060987 0.026646 0.013164 
0.24433 -0.38587 0.068736 0.019083 0.33689 -0.045532 0.018918 0.033715 
0.27376 -0.47005 0.080738 -0.0026201 0.3831 -0.18117 0.046704 0.010533 
0.17166 -0.38932 0.071366 -0.016924 -0.15783 -0.30103 0.041772 0.0031344 
0.014479 -0.24234 0.061666 -0.016102 -0.66965 -0.32947 0.043909 0.012013 
-0.20995 -0.068879 0.018754 -0.02087 -0.79772 -0.17953 0.051965 0.019905 
-0.364 0.11411 0.016616 0.031085 -0.75251 -0.056548 0.054103 0.045718 
-0.19926 0.19846 0.033387 0.048019 -0.56031 -0.0062372 -0.0034422 0.027796 
0.07449 0.2976 0.06183 0.0026412 -0.31073 0.025988 -0.037147 -0.0032777 
0.24811 0.31157 0.087808 -0.04323 -0.24891 0.096521 -0.061151 0.0095465 
0.24844 0.27162 0.096193 -0.0868 0.10408 0.076956 -0.012814 -0.03616 
0.15571 0.22 0.1003 0.017603 1.1062 0.13532 0.038155 0.095371 
0.056404 0.17478 0.070544 0.19714 1.9021 0.33344 0.075641 0.12513 
0.027632 0.12694 -0.00031829 0.22279 1.4192 0.38375 0.10293 0.13828 
0.059364 0.027796 -0.014458 0.19862 0.14782 0.095699 0.085341 0.060186 
0.1026 -0.010183 0.01267 0.053938 -0.92909 -0.21356 0.051143 -0.018075 
0.14289 -0.023994 0.024673 -0.011827 -0.86185 -0.2185 0.028783 -0.0096899 
0.11198 -0.0044286 0.0085601 0.013492 -0.4587 -0.14599 0.047033 0.027139 
0.034702 0.022864 0.0028056 0.033551 -0.30103 -0.13021 0.047526 0.060679 
-0.043395 0.012506 0.048184 0.032236 -0.30087 -0.16506 0.029276 0.029769 
0.096521 -0.060658 0.092576 -0.045696 -0.54913 -0.22507 0.0072447 -0.042573 
0.28379 -0.0868 0.11855 -0.1233 -1.0636 -0.55423 -0.023336 -0.13415 
0.33246 -0.020212 0.10803 -0.11343 -1.0746 -0.59928 -0.051122 -0.15322 
0.22444 0.014643 0.059035 -0.0004827 -0.13629 -0.24562 -0.011498 -0.044381 
-0.10998 0.044567 -0.01939 0.13351 0.63794 -0.036325 0.080738 0.1128 
-0.51132 0.093069 -0.064604 0.17856 0.57645 0.31766 0.091096 0.16031 
-0.5146 0.066763 -0.035503 0.028947 0.14437 0.65783 0.012342 0.070215 
-0.1524 0.011026 0.018425 -0.24842 0.010697 0.75336 -0.071181 -0.121 
0.15489 0.0062583 0.090603 -0.25302 1.2759 0.79199 -0.017746 -0.04882 
0.2098 0.083697 0.031249 0.14453 3.5267 1.0912 0.061666 0.19632 
0.17232 0.11198 -0.048327 0.45544 3.2601 1.2482 0.12595 0.31914 
0.12135 0.13845 -0.048327 0.33591 0.71225 0.55277 0.09422 0.2269 
0.10162 0.20668 0.00297 0.10589 -1.0016 -0.21636 0.057884 0.098166 
0.048513 0.23183 0.041936 0.018425 -0.87467 -0.52365 0.041278 0.031907 
-0.0027845 0.20947 0.045553 -0.018733 -0.64301 -0.53466 0.040456 -0.030077 
-0.013471 0.17676 0.06183 -0.050464 -1.0619 -0.4906 0.031907 -0.079072 
-0.026131 0.11461 0.052787 -0.066248 -1.2528 -0.38258 0.023522 -0.07414 
-0.025638 0.090767 0.053445 -0.076113 -0.96066 -0.13744 0.029441 -0.049642 
0.40085 0.09685 0.015959 -0.025145 -0.4661 0.091425 0.017438 -0.003771 
0.85135 0.041278 0.030592 -0.017911 -0.046519 0.18859 0.04506 0.045718 
0.72442 0.043087 0.029605 0.023357 0.23118 0.1927 0.023851 0.047362 
0.25798 0.058377 0.031742 0.06183 0.37224 0.1396 0.0046141 0.041114 
-0.36384 0.084355 0.020727 0.054925 0.37767 0.12069 0.041114 0.032564 
-1.2926 0.10951 0.011848 0.057062 0.39082 0.11165 0.11083 0.053774 
-1.6709 0.12102 0.0052718 0.055911 0.38457 0.1368 0.095699 0.045224 
-0.99666 0.11296 -0.010676 0.038155 0.34692 0.15292 0.065447 0.051636 
-0.082525 0.059528 -0.027447 0.051143 0.25025 0.09685 0.012999 0.019411 
0.44393 0.086821 -0.0075525 0.032236 0.12743 0.0069159 0.00083261 0.035853 
0.46793 0.12447 -0.042408 0.051801 -0.015609 0.097179 -0.02235 0.062488 
0.32522 0.1391 -0.056383 0.066434 -0.26042 -0.035338 -0.019555 0.043745 
0.3729 0.098988 -0.014622 0.035031 -0.42352 -0.10341 -0.022843 0.080573 
0.38211 0.04358 0.01152 0.038812 -0.34674 0.14338 -0.0039354 0.065283 
0.33394 -0.048985 0.071531 -0.034681 -0.045532 0.41433 0.0023123 0.030756 
0.23035 -0.098802 0.10721 -0.10604 0.072188 0.32358 -0.01528 -0.051122 
0.053281 -0.10061 0.147 -0.15585 -0.11113 -0.39228 -0.016595 -0.17871 
-0.095349 -0.061316 0.12233 -0.19301 -0.19466 -0.65945 -0.031557 -0.078579 
-0.17641 0.014479 0.064461 0.0082312 0.08978 0.37783 0.043416 0.0786 
-0.19761 0.13121 -0.029748 0.27294 0.64303 0.87963 0.10819 0.23808 
-0.17262 0.20224 -0.068221 0.46316 1.1461 0.80416 0.14667 0.25436 
-0.095514 0.11905 -0.020706 0.2976 0.49457 0.34643 0.073668 0.096193 
0.0052718 0.029934 0.074654 -0.0406 -0.34888 -0.39919 -0.0062372 -0.1085 
0.022535 0.0070803 0.099974 -0.12018 -0.096994 -0.94816 -0.0068948 -0.1963 
-0.0013048 0.045389 0.044731 0.014315 0.41187 -1.0825 0.024015 -0.079566 
0.050814 0.062488 -0.033201 0.11592 0.45774 -0.53499 0.058377 0.060022 
0.067091 0.044073 -0.057534 0.15374 0.14174 0.11461 0.056733 0.12102 
0.052623 -0.042737 -0.042079 0.098001 -0.43306 0.34955 0.060844 0.14486 
-0.0082102 -0.052109 -0.003771 -0.01939 -0.91035 0.20553 0.042265 0.076463 
-0.14599 -0.069372 0.044073 -0.064933 -1.1696 -0.097816 0.0047785 0.015465 
-0.17986 -0.095514 0.078107 -0.11935 -1.1053 -0.24168 -0.021034 -0.036325 
-0.062138 -0.15306 0.08863 -0.13333 -0.74347 -0.16111 -0.046025 -0.037147 
0.099316 -0.18463 0.10014 -0.039778 -0.09798 0.015959 -0.040435 -0.0064016 
0.16426 -0.21685 0.093891 -0.051287 0.35202 0.063803 -0.041751 0.029934 
0.19139 -0.093048 0.029605 0.018425 0.076627 -0.062467 0.029112 0.031414 
0.19566 0.084684 0.018096 0.013328 -0.40001 -0.2647 0.038812 -0.0039354 
0.1733 0.22263 0.004943 0.048184 -0.30744 -0.27472 0.0067515 -0.010676 
0.12365 0.22394 -0.020048 0.13384 0.032236 -0.12248 0.0059294 0.0036276 
0.029112 0.18859 -0.020048 0.09685 0.16294 -0.037969 0.018425 0.0028056 
-0.032543 0.1128 0.017603 0.06479 0.13598 0.0023123 0.02681 0.041936 
-0.031064 0.0070803 0.068078 0.025988 0.21704 0.073339 0.038319 0.018918 
0.0018191 -0.013636 0.058706 0.028125 0.46826 0.16673 0.048677 0.031578 
0.0042853 0.022371 0.023851 0.060515 0.59618 0.062981 0.060844 0.069886 
1.0539e-005 0.028454 -0.0019624 0.085999 0.69088 -0.098473 0.069393 0.080738 
-0.031228 0.054103 -0.019226 0.030427 0.5993 -0.14204 0.05065 0.075805 
0.024179 0.048019 0.00099702 -0.019884 0.25699 -0.025967 0.030756 0.06183 
0.10951 -0.010512 0.036017 -0.092226 -0.16753 0.03651 0.044567 0.062488 
0.29596 -0.08532 0.051143 -0.065426 -0.25828 0.0044497 0.022535 0.037826 
0.55918 -0.16358 0.031085 -0.025309 -0.16802 0.0059294 0.0032988 -0.013143 
0.61492 -0.15635 0.012835 -0.03205 -0.18463 -0.030406 0.0041209 -0.045532 
0.36452 -0.15816 -0.001798 -0.0067304 0.056404 -0.080881 0.026317 -0.069372 
0.07301 -0.067564 0.059035 0.058871 0.39723 0.03388 0.016288 -0.0036066 
-0.26798 0.042429 0.069886 0.054596 0.36485 0.34725 0.062488 0.056404 
-0.52069 0.13105 0.052294 0.094713 0.30286 0.62807 0.030427 0.084519 
-0.45805 0.21391 0.060844 0.10819 0.41976 0.61147 -0.0011404 0.093398 
-0.075949 0.19714 0.056076 0.069886 0.40546 0.4219 -0.01117 0.088958 
0.24976 0.12957 0.087314 0.067256 0.080902 0.086163 0.028454 0.045553 
0.30122 -0.017253 0.13203 0.014808 -0.29215 -0.31303 0.064132 0.00050378 
0.26439 -0.059178 0.12628 0.023193 -0.35019 -0.53581 0.05772 -0.015116 
0.17478 -0.027118 0.11576 -0.040271 -0.081868 -0.50129 0.033715 -0.02646 
0.12875 0.043251 0.057555 -0.04323 0.0021479 -0.18841 0.036675 -0.03616 
0.083862 0.1391 -0.028926 -0.03205 -0.13284 0.10754 0.045224 -0.0067304 
0.044073 0.1276 -0.083018 -0.048492 -0.23165 0.14568 0.040621 0.031578 
0.010862 0.031907 -0.085156 -0.027611 -0.23461 0.06594 0.070873 0.047197 
0.019576 -0.014293 -0.045696 0.0227 -0.31583 0.0324 0.076627 0.038648 
0.024508 0.06183 -0.003771 0.039963 -0.29824 0.081395 0.072188 0.047362 
0.012177 0.12414 0.010862 0.0324 -0.21619 0.084026 0.041936 0.027632 
0.030427 0.14321 -0.016266 0.0092177 -0.066248 0.16064 0.01563 -0.0096899 
0.044073 0.14486 0.037661 -0.012485 0.00297 0.23068 -0.016595 -0.0060728 
0.078272 0.052952 0.10474 -0.042244 -0.048492 0.16081 -0.043395 -0.047012 
0.22707 0.0024767 0.11625 -0.063946 0.16015 -0.076442 -0.022514 -0.03501 
0.42732 0.024508 0.08304 0.048019 0.64698 0.23315 0.034209 0.09422 
0.5046 0.020891 0.042429 0.16097 1.0935 0.73478 0.094877 0.15259 
0.37948 0.066598 0.012342 0.16952 1.0583 0.59256 0.072517 0.12316 
-0.006566 0.09833 0.0052718 0.11691 0.56362 0.082053 0.046046 0.047855 
-0.53137 0.13697 -0.0047575 0.012999 -0.21537 -0.46396 0.037004 -0.0064016 
-1.0807 0.16442 0.007738 0.0047785 -0.55291 -0.62098 0.044238 0.010369 
-1.1474 0.17084 0.012506 0.079916 -0.34082 -0.27785 0.038977 0.022042 
-0.59796 0.15916 0.00083261 0.090438 -0.36976 -0.008539 0.021878 0.021056 
0.077285 0.090109 0.020233 0.06479 -0.51312 -0.023829 0.025659 0.0047785 
0.4681 0.063639 0.02533 0.072846 -0.54009 -0.1011 0.033222 -0.020048 
0.51035 0.057062 0.019247 0.017932 -0.56212 -0.12396 0.0067515 0.005765 
0.43439 0.058542 0.06035 -0.048327 -0.46413 -0.092719 0.015301 0.026152 
0.28971 0.057227 0.039141 -0.066577 -0.0073881 -0.040928 0.027303 0.053445 
0.2024 0.10589 0.020562 -0.015773 0.41631 0.14009 0.014808 0.040621 
0.10704 0.09274 0.007738 0.059693 0.37783 0.34347 0.0062583 0.0046141 
0.058213 0.072517 0.014479 0.020891 -0.055232 0.43637 0.0054362 0.0026412 
-0.068879 0.085835 -0.011005 0.081724 -0.010348 0.57201 0.056733 0.045718 
-0.12198 0.072024 -0.009361 0.13894 0.65471 0.49194 0.074983 0.14272 
-0.1358 0.073504 0.00083261 0.1248 0.96578 0.21769 0.066598 0.15028 
-0.10949 0.087808 0.050321 0.086657 0.56642 -0.021034 0.035195 0.082217 
-0.050136 0.033551 0.06479 -0.10308 -0.16325 -0.2185 -0.03616 0.013821 
-0.010183 -0.044381 0.074983 -0.17624 -0.64137 -0.59517 -0.041257 -0.096829 
-0.035338 0.010369 0.020233 -0.03616 0.13253 -0.84162 0.034373 0.0032988 
-0.069208 0.074326 -0.050793 0.2394 1.5687 -0.19942 0.073504 0.09685 
-0.067892 0.13006 -0.080059 0.42321 1.4975 0.57924 0.093069 0.18514 
-0.047012 0.10195 -0.048492 0.22887 0.11033 0.53616 0.081395 0.14026 
-0.016431 0.1225 -0.0032777 0.036839 -0.9332 0.13746 0.028947 0.036346 
0.056404 0.093726 0.064461 -0.05326 -1.1242 -0.12823 0.031085 -0.019061 
0.20076 0.098001 0.057884 -0.080059 -0.826 -0.13974 0.0052718 -0.037147 
0.28773 0.078107 0.020398 -0.037805 -0.45213 -0.087458 0.01004 -0.031721 
0.23496 0.029441 0.021878 0.017274 -0.12988 -0.054246 0.0093821 -0.0083746 
0.036675 -0.011005 0.023686 0.021056 -0.053095 -0.071181 0.011026 0.03388 
-0.40823 -0.056383 0.066763 0.0052718 -0.21981 -0.0024557 0.0051074 0.090931 
-0.75728 -0.063782 0.069393 -0.026624 -0.40215 -0.099131 0.015794 0.076299 
-0.57034 -0.079895 0.076134 -0.056877 -0.31336 -0.30021 0.0016547 0.031414 
-0.03501 -0.076771 0.11263 -0.090581 -0.025638 -0.16391 -0.02942 -0.035338 
0.37241 -0.082854 0.13516 -0.082196 0.43505 0.40447 -0.051944 -0.10735 
0.47023 -0.056219 0.065283 -0.016431 0.68036 0.30911 -0.046519 -0.11968 
0.38819 0.058706 0.017274 0.10211 0.72376 -0.27604 0.015794 -0.026131 
0.25074 0.21901 0.004943 0.089945 0.76766 -0.27637 0.052787 0.12036 
0.15555 0.22082 -0.019884 0.12431 1.1315 0.37224 0.053774 0.16344 
0.14108 0.15308 -0.013471 0.10902 0.98781 0.74711 0.059528 0.14469 
0.19698 0.074326 0.02681 0.066105 0.14996 0.6307 0.066763 0.096028 
0.16278 -0.035503 0.059035 0.02122 -0.41464 0.34133 0.034209 -0.00097594 
0.075641 -0.081045 0.085835 -0.048656 -0.55275 -0.074962 0.0324 -0.00031829 
-0.070523 -0.01939 0.071037 -0.032215 -0.44851 -0.38768 0.03536 -0.039613 
-0.22737 0.044567 0.045718 -0.01676 -0.61424 -0.60421 0.044238 -0.023994 
-0.23839 0.07449 0.028454 -0.0077169 -0.82617 -0.57297 0.012342 -0.032543 
-0.095678 0.033222 0.031085 0.011191 -0.74988 -0.28886 0.0088889 -0.024652 
0.04506 -0.01117 0.039799 -0.031228 -0.47367 -0.055561 0.012342 -0.0014692 
0.13368 -0.078579 0.073175 -0.052766 -0.15832 0.10819 0.0067515 0.005765 
0.1396 -0.070852 0.09126 -0.012649 0.4362 0.27902 0.035688 0.049828 
0.094877 -0.017746 0.073175 0.069064 0.96627 0.18054 0.051308 0.093562 
0.11132 0.014808 0.044073 0.14042 1.0486 -0.014787 0.039799 0.066434 
0.18711 0.034537 -0.0098543 0.12908 0.60571 -0.039613 0.0039565 0.037332 
0.29628 0.028454 -0.0004827 0.050814 -0.073647 -0.032872 -0.032708 -0.017253 
0.29842 -0.01117 0.00066819 0.035853 -0.37946 0.097015 -0.012485 0.014315 
0.15012 -0.043724 0.011684 -0.031886 -0.42072 0.28987 0.044402 0.023357 
-0.031557 0.0421 0.037497 -0.064604 -0.36433 0.31092 0.051965 0.049006 
-0.22951 0.10096 0.051801 -0.076935 -0.31977 0.32276 0.074654 0.024344 
-0.33227 0.16738 0.10754 -0.088937 -0.53351 0.23315 0.067585 -0.034352 
-0.17657 0.21062 0.06479 -0.036818 -0.89999 -0.29972 0.063968 -0.058192 
0.015465 0.2029 0.023193 0.028783 -0.94915 -0.9235 0.074326 0.0047785 
0.11378 0.15505 -0.015609 0.11247 -0.80216 -1.146 0.058213 0.11181 
0.1835 0.10392 0.012342 0.13072 -0.52694 -0.82337 0.067256 0.11362 
0.44689 0.08156 0.064954 0.010533 -0.46364 -0.64548 -0.0016336 -0.010348 
0.80252 -0.003771 0.10622 -0.121 -0.49931 -0.42303 -0.085813 -0.13974 
0.76963 -0.049807 0.13121 -0.182 -0.022514 0.17593 -0.096172 -0.21093 
0.26784 -0.04619 0.069722 -0.020377 1.3852 0.95131 -0.014787 -0.059343 
-0.32273 -0.070523 -0.027118 0.24828 2.4149 1.5016 0.0074092 0.089287 
-0.85921 -0.040435 -0.079401 0.32012 2.2601 1.3635 -0.0021268 0.21276 
-1.1739 -0.012978 -0.071509 0.22509 1.2195 0.71669 0.043909 0.2417 
-0.7073 -0.055561 -0.011663 0.059857 0.45462 0.23512 0.058049 0.082382 
0.0088889 -0.13645 0.029441 -0.023665 0.45642 0.31256 0.057391 0.0028056 
0.44771 -0.14944 0.038483 -0.013307 0.29037 0.42075 0.065776 0.05213 
0.52975 -0.11442 0.059857 -0.028104 -0.46955 0.35449 0.052787 0.10984 
0.46859 0.039799 0.03947 -0.10719 -1.1376 -0.081045 0.025001 0.089123 
0.31799 0.25452 0.030592 -0.038462 -0.92843 -0.60405 0.007738 0.034209 
0.15308 0.35021 0.007738 0.045553 -0.44637 -0.93073 0.041114 0.019411 
0.045882 0.2708 -0.021363 0.09981 -0.33145 -0.68592 0.073339 0.0036276 
-0.0034422 0.17232 -0.0068948 0.085506 -0.39853 -0.2887 0.059528 -0.017253 
-0.035996 0.12924 0.027632 0.022371 -0.43486 1.0539e-005 0.034866 0.0011614 
-0.065262 0.046046 0.04095 -0.028597 -0.33194 0.14289 0.013492 -0.013143 
-0.0036066 0.018425 0.058542 -0.018568 -0.041751 0.18218 0.03388 0.0093821 
0.40118 -0.0064016 0.050157 0.01974 0.18481 0.13549 0.014479 0.027303 
0.85348 -0.032379 0.043251 0.061008 0.071859 0.0019835 0.00066819 -0.0021268 
0.72327 -0.053917 0.055089 0.0046141 0.038648 0.12316 -0.0024557 0.020727 
0.26521 0.0092177 0.011355 0.025824 0.23775 0.44524 0.020398 0.044896 
-0.38274 0.071037 0.0054362 0.082053 0.40266 0.62824 0.011684 0.070544 
-1.4028 0.087479 0.019083 0.051143 0.48832 0.48832 0.065118 0.068242 
-1.7517 0.076134 0.030263 0.067091 0.52252 0.046211 0.097179 0.048841 
-0.80266 0.032893 0.027632 0.032893 0.49671 -0.51164 0.053116 0.0018191 
0.33492 -0.037476 0.023522 0.093891 0.83277 -0.79657 -0.0004827 0.00099702 
0.77621 -0.10143 0.031085 0.16541 0.86549 -0.35052 0.0042853 0.050321 
0.67953 -0.11294 0.013164 0.080573 0.21802 0.22592 0.046211 0.065612 
0.21868 -0.12396 -0.030242 -0.0042642 -0.27982 0.50147 0.040456 0.10113 
-0.24842 -0.093376 -0.0040998 -0.057863 -0.48221 0.44327 0.03536 0.048841 
-0.28936 -0.033201 0.044073 -0.13497 -0.53877 0.3313 0.0085601 0.021056 
-0.057534 0.02122 0.059035 -0.12988 -0.4564 0.11954 0.02122 0.0021479 
0.15834 0.084355 0.031742 -0.039284 -0.18282 -0.17805 0.036675 0.0072447 
0.2001 0.11674 0.033058 0.088136 0.058049 -0.32832 0.034866 0.023357 
0.15982 0.17708 0.022864 0.18514 0.016288 -0.072496 0.028619 0.047526 
0.10343 0.24121 0.033222 0.12924 -0.19153 0.098494 0.061666 0.055418 
-0.0077169 0.3101 0.013986 0.059528 -0.21323 0.10113 0.019905 0.058871 
-0.14106 0.30023 0.034044 0.050979 0.021713 0.055418 0.051472 0.020562 
-0.18578 0.25732 0.023193 0.0421 0.18087 0.037004 0.053774 -0.010512 
-0.11935 0.1659 0.00017495 0.046046 0.032729 -0.13612 0.026974 -0.031557 
-0.043724 0.088958 0.01415 -0.020541 -0.064275 -0.34789 0.031414 -0.023501 
-0.0032777 -0.021528 0.028454 0.013821 0.040292 -0.33819 0.00099702 0.011026 
0.052294 -0.046847 0.038155 0.069393 -0.011005 -0.13218 -0.0075525 0.042923 
0.078107 -0.010019 0.055911 0.037168 -0.31731 -0.010676 -0.022185 0.05772 
0.080409 -0.026624 0.053609 0.01563 -0.42352 -0.042408 0.0018191 0.022042 
0.039141 -0.050958 0.034866 -0.018239 -0.38833 -0.047012 0.027961 0.022864 
0.023522 -0.031392 0.02681 -0.031886 -0.11228 -0.046683 0.066598 0.012835 
0.080573 -0.1085 0.031907 0.03092 0.22756 -0.015773 0.040621 0.020398 
0.14305 -0.20682 0.048348 0.034209 0.27228 0.053774 0.010862 0.046704 
0.13565 -0.10028 0.030756 0.013657 0.090603 0.018754 0.033551 0.033222 
0.038812 0.073339 0.029605 0.051143 -0.18561 -0.06444 0.048348 0.027632 
0.0054362 0.10967 0.034373 0.021056 -0.43897 -0.15799 0.069393 -0.00064712 
0.058871 0.097344 0.034373 0.025495 -0.4763 -0.22211 0.059693 -0.01117 
0.068407 0.1128 0.0064227 -0.018568 -0.37173 -0.22672 0.066927 -0.011498 
0.03536 0.12053 0.0039565 -0.010183 -0.12922 0.092082 0.034044 0.0072447 
-0.037969 0.12168 0.02122 0.01974 0.031414 0.32703 0.01004 0.030592 
-0.15569 0.15851 0.023686 -0.009361 0.15226 0.39 0.0090533 0.05772 
-0.13168 0.14963 0.025824 0.014643 0.45593 0.38227 -0.0075525 0.073175 
0.04917 0.091589 0.026481 0.043087 0.69417 0.23792 -0.030242 0.086657 
0.33377 0.077778 0.059693 0.065776 0.39477 -0.24875 -0.025967 0.025001 
0.44015 0.033387 0.064625 0.071531 -0.080552 -0.93172 -0.0004827 -0.0027845 
0.42173 0.011355 0.029605 0.045553 -0.35677 -0.8043 0.024015 -0.0095255 
0.39674 0.029441 0.035524 0.013492 -0.38406 -0.031228 0.013821 0.022535 
0.1197 0.046704 0.024015 0.043416 -0.26124 0.46645 -0.0019624 0.012013 
-0.1917 0.070215 0.017767 0.055747 -0.1718 0.32374 0.026974 -0.014293 
-0.23822 0.087808 -0.023172 0.075148 -0.56639 -0.011005 0.046375 0.046046 
-0.25269 0.086328 -0.043066 0.089452 -1.2786 -0.51444 0.060679 0.071531 
-0.35595 0.070215 0.0051074 0.05213 -1.2365 -1.0522 0.073175 0.06479 
-0.26568 0.04917 0.033551 0.076956 -0.40132 -1.1828 0.064132 0.055089 
0.10129 0.046868 0.05476 0.04095 0.45116 -0.41694 0.00066819 -0.032708 
0.43538 -0.030899 0.077778 -0.077593 0.72804 0.78887 -0.064604 -0.11163 
0.54521 -0.055068 0.12151 -0.24464 0.67033 1.3101 -0.09798 -0.19268 
0.41762 -0.001798 0.13319 -0.26897 1.4686 1.5082 -0.063618 -0.070194 
0.14634 -0.0034422 0.077943 -0.03501 3.1014 1.5404 -0.052602 0.23282 
-0.004593 0.039799 -0.0026201 0.31552 3.5064 1.3623 0.05624 0.37701 
-0.05589 0.034044 -0.051451 0.40694 1.5891 0.79528 0.14075 0.39428 
-0.045203 -0.024323 -0.044381 0.27129 -0.49323 0.064461 0.13335 0.20109 
0.011684 -0.08828 -0.018404 -0.010512 -1.2962 -0.41119 0.052294 0.012342 
0.055582 -0.074962 -0.046025 -0.14566 -1.1113 -0.54666 0.038648 -0.10472 
0.076792 0.020891 -0.059178 -0.039942 -0.3959 -0.40724 0.067091 -0.074798 
0.087314 0.11724 -0.069372 0.03799 0.018589 -0.2157 0.080409 0.00033937 
0.093233 0.19385 0.013492 0.030427 -0.26996 -0.19581 0.063803 0.025166 
0.068078 0.18432 0.11494 -0.02498 -0.75383 -0.31205 0.031742 -0.0014692 
-0.0019624 0.070215 0.20027 -0.057699 -0.76024 -0.33161 0.033551 -0.022679 
-0.22606 0.061501 0.21309 -0.021856 -0.3908 -0.16457 0.00033937 -0.025309 
-0.36219 0.078272 0.17248 -0.0049219 -0.026624 0.041772 -0.0095255 -0.0062372 
-0.051615 0.060844 0.085835 -0.0064016 0.35662 0.15752 -0.03616 0.023686 
0.39312 0.027303 0.046211 0.048841 0.44393 0.23216 -0.033201 0.055747 
0.52992 0.044896 0.045224 0.047526 0.33624 0.21441 -0.031064 0.056569 
0.36419 0.046375 0.076792 0.061008 0.28741 0.25485 -0.030735 0.04358 
-0.059507 0.068078 0.078929 0.064625 0.30335 0.27721 0.047526 0.038483 
-0.66027 0.1322 0.040456 0.077285 0.33163 0.28543 0.11165 0.053445 
-0.81088 0.13023 -0.016266 0.13746 0.34331 0.29826 0.067091 0.075641 
-0.40198 0.10589 -0.059507 0.1271 0.29826 0.2001 0.048348 0.065283 
0.075312 0.033551 -0.056712 0.12924 0.19122 0.039634 0.049006 0.059035 
0.33344 -0.031721 -0.056548 0.10425 0.10556 -0.047834 0.047526 0.041114 
0.34314 -0.034516 -0.017582 0.036675 0.098001 0.0046141 0.045553 0.035195 
0.25666 -0.026131 0.035688 0.013328 0.1179 0.072188 0.020891 0.051472 
0.17067 0.019083 0.089123 -0.034352 0.092411 0.080902 0.035524 0.010862 
0.093069 0.0021479 0.10672 -0.087458 -0.047505 0.09833 0.020562 -0.010676 
0.049335 0.0083956 0.10491 -0.045203 -0.083018 0.12792 0.021713 -0.03764 
0.0023123 0.045389 0.11395 -0.023665 -0.068879 0.15193 0.02681 0.0098754 
-0.02646 0.04358 0.08419 0.062981 0.022864 0.16245 0.058213 0.070873 
-0.01232 0.070708 0.028454 0.12085 0.047197 -0.028104 0.028619 0.07597 
0.011191 0.10556 -0.00064712 0.080573 -0.17969 -0.19663 0.025988 0.028947 
0.020398 0.1151 0.015465 0.048019 -0.45492 -0.24316 0.019576 -0.034516 
0.038319 0.094877 0.02122 -0.010183 -0.65501 -0.056055 0.024015 -0.064111 
0.029112 0.087808 0.034209 -0.025309 -0.58958 0.20372 0.041936 -0.0096899 
0.028125 0.090274 0.065447 0.044731 -0.43486 0.37126 0.059528 0.057227 
0.009711 0.081231 0.070215 0.07597 -0.13711 0.47928 0.08156 0.11724 
-0.031392 0.029276 0.075312 0.017932 -0.077757 0.34281 0.029605 0.025988 
0.017438 0.022535 0.055911 -0.08121 -0.31336 -0.40757 -0.036489 -0.032872 
0.072353 -0.00015387 0.021056 -0.13497 -0.39639 -1.4024 -0.083347 -0.091732 
0.093233 -0.0096899 -0.0083746 -0.054904 -0.31238 -1.5812 -0.014787 -0.047998 
0.083697 0.0019835 0.0021479 -0.052602 -0.56442 -0.94668 -0.038956 -0.017911 
0.051308 -0.018897 0.0079024 -0.056712 -0.42286 -0.30843 0.012835 0.020233 
-0.01939 -0.0059084 -0.0049219 0.20849 0.86318 0.28165 0.08715 0.10852 
-0.036325 -0.031557 -0.021199 0.34594 1.5567 0.75221 0.13549 0.14667 
-0.03912 -0.11261 -0.0044286 0.24417 0.52794 0.65832 0.095535 0.08419 
0.057884 -0.13563 0.023193 0.084355 -0.45492 0.31963 0.083697 0.036182 
0.15423 -0.087293 0.036017 -0.02498 -0.64992 0.058377 0.083697 -0.011992 
0.15834 0.044073 0.029441 -0.039778 -0.63265 -0.040928 0.058213 -0.0080457 
0.059693 0.12529 0.020562 -0.068057 -0.68855 -0.1279 0.044731 -0.0078813 
-0.039449 0.2126 0.011191 -0.1062 -0.7895 -0.25812 0.030098 -0.025309 
-0.18216 0.24499 0.012177 -0.065097 -0.68428 -0.36285 0.027303 -0.036654 
-0.24382 0.18087 -0.0088678 -0.051944 -0.55028 -0.38866 0.0028056 -0.0031133 
-0.12001 0.15604 -0.016102 -0.0029489 -0.36959 -0.28048 -0.026296 0.0016547 
0.025824 0.14486 0.0074092 -0.017088 -0.017417 -0.14533 -0.014293 0.00033937 
0.098823 0.11411 0.011684 -0.0087034 0.38408 -0.091239 0.0036276 0.014808 
0.14042 0.051472 0.0064227 -0.0062372 0.49259 -0.015609 1.0539e-005 0.01974 
0.1294 0.0075736 0.0072447 -0.021363 0.71291 0.24893 0.0013258 0.036182 
0.079258 -0.12215 0.025824 0.044567 1.0434 0.33509 0.034866 0.045718 
0.1179 -0.28393 0.03651 0.090109 0.99061 0.19566 0.050486 0.088958 
0.12546 -0.39705 0.036839 0.099481 0.79972 0.032564 0.061337 0.1544 
0.13154 -0.42368 0.041607 0.11937 0.47714 -0.11738 0.04358 0.11888 
0.27475 -0.24727 0.040128 0.042758 -0.050629 -0.2111 0.044567 0.05476 
0.42765 0.0064227 0.023193 0.0031344 -0.25943 -0.030406 0.030592 0.0039565 
0.37044 0.18251 0.03092 0.0088889 -0.15668 0.26505 -0.0098543 -0.040271 
0.13746 0.26143 0.0036276 -0.026624 -0.085978 0.35284 -0.0021268 -0.03057 
-0.17493 0.29398 -0.014622 -0.0067304 -0.064933 0.27606 0.042429 0.025001 
-0.57642 0.32095 -0.0096899 0.020069 -0.056055 0.1687 0.062159 0.076463 
-0.72193 0.29497 0.015794 0.035853 -0.12725 0.0090533 0.068571 0.084026 
-0.40971 0.2075 0.046704 0.051636 -0.17854 -0.14106 0.043416 0.039799 
0.043416 0.10063 0.065283 -0.013965 -0.16457 -0.20074 0.016452 0.017932 
0.33772 -0.020377 0.048019 -0.046519 -0.053424 -0.12215 -0.012156 -0.008539 
0.39493 -0.082032 -0.0090322 -0.024487 0.11181 0.0060938 -0.012485 -0.0016336 
0.28362 -0.064604 -0.033037 -0.034516 0.24005 0.07597 0.0072447 0.027796 
0.15341 -0.055561 -0.020706 -0.026953 0.24071 0.039799 0.024673 0.038319 
-0.039449 -0.031228 0.015301 -0.019555 0.37603 0.09422 0.011026 0.096686 
-0.20797 -0.0075525 0.053445 0.033551 0.63711 0.28494 0.041443 0.088958 
-0.19926 0.039305 0.064132 0.10803 0.69203 0.30056 0.087314 0.076134 
-0.080223 0.047691 0.097837 0.078107 0.51528 0.2828 0.056733 0.038812 
0.079916 0.061008 0.084026 0.044238 0.083204 0.31864 -0.017417 -0.084498 
0.18876 0.12316 0.067091 -0.0095255 -0.18315 0.35317 -0.070194 -0.07003 
0.22 0.082875 0.05476 -0.058192 -0.12133 0.12513 -0.075127 -0.0138 
0.16492 0.045224 -0.0070593 0.044402 0.089452 -0.050793 -0.051615 0.079916 
0.093726 0.051308 -0.04882 0.095535 -0.12314 -0.067235 0.041936 0.14206 
-0.0062372 0.037004 -0.047998 0.094713 -0.41859 -0.069372 0.051308 0.081889 
-0.039449 0.041443 -0.0047575 0.082711 -0.44226 -0.074469 0.064296 0.06742 
-0.039613 0.09981 0.044896 0.015794 -0.24677 -0.039449 0.044073 -0.0090322 
-0.047341 0.11609 0.077778 0.044402 -0.11903 -0.21948 0.055418 -0.024323 
-0.03205 0.13565 0.067585 0.081067 -0.53417 -0.58201 0.082875 -0.006566 
-0.037805 0.1881 0.072353 0.044896 -0.65912 -0.46347 0.062817 0.04095 
-0.057699 0.19566 0.030592 0.095206 0.20799 -0.014293 0.061008 0.12053 
-0.055397 0.1807 0.0046141 0.10211 0.66802 0.35679 0.055089 0.095699 
-0.01528 0.095206 0.0042853 0.034373 0.36567 0.6284 0.044896 -0.0022913 
0.068242 0.035853 0.05476 -0.093541 0.037004 0.73527 -0.057863 -0.19926 
0.14354 -0.069043 0.11954 -0.25039 0.29596 0.44212 -0.099295 -0.19992 
0.14256 -0.057863 0.12973 -0.10521 1.63 0.37274 -0.060658 0.041607 
0.038319 0.027961 0.029769 0.21835 2.7045 0.71209 0.06742 0.30072 
-0.031886 0.10918 -0.059014 0.3267 1.2071 0.66934 0.10343 0.33624 
-0.057534 0.14289 -0.090581 0.22328 -1.2032 -0.1575 0.093891 0.14946 
0.0056006 0.15259 -0.045368 0.0054362 -2.3021 -0.73936 0.044238 -0.037311 
0.05065 0.10129 0.036182 -0.098967 -1.9503 -0.71716 0.023028 -0.090253 
0.065447 0.095535 0.051636 -0.086307 -1.1254 -0.56755 -0.0091966 -0.066577 
0.10606 0.10622 0.061337 -0.058028 -0.39097 -0.38538 0.0034632 -0.015116 
0.14979 0.065283 0.075312 0.00033937 -0.089759 -0.29889 0.044402 -0.013143 
0.14502 0.019247 0.070051 0.014643 0.058542 -0.10801 0.040292 -0.014458 
0.075148 0.00066819 0.04506 0.03388 0.53797 0.23808 0.012342 0.0064227 
-0.03764 0.025988 0.025001 0.16656 0.98847 0.47993 0.057391 0.068242 
-0.093705 0.063474 0.023851 0.19912 0.59815 0.47632 0.10606 0.12858 
-0.06 0.086657 -0.010676 0.11888 -0.34394 0.042429 0.056898 0.045389 
0.057555 0.053281 0.038648 -0.045368 -1.2528 -0.33671 0.00066819 -0.027611 
0.082382 -0.0049219 0.086985 -0.18693 -1.1279 -0.095514 -0.0082102 -0.052766 
-0.0047575 0.0032988 0.076299 -0.13234 0.034537 0.56691 0.027303 0.0227 
-0.031886 0.015301 0.069722 -0.030077 0.92895 0.75352 -0.019719 0.033222 
0.20487 -0.10472 0.07038 -0.05737 1.1821 0.33311 -0.066906 -0.065755 
0.40874 -0.18068 0.085506 -0.077593 1.3676 -0.46939 -0.095678 -0.07414 
0.4385 -0.087129 0.094877 -0.0067304 1.5644 -0.90854 -0.043888 0.012506 
0.2491 0.04095 0.014972 0.28001 2.0202 -0.31468 0.052787 0.183 
-0.18052 0.094055 -0.067399 0.60949 2.1321 0.56329 0.15324 0.31486 
-0.23543 0.056076 -0.087458 0.47254 0.46136 0.74661 0.18448 0.25403 
0.34528 -0.011005 -0.014293 0.1276 -1.6075 0.24663 0.11198 0.087314 
0.64386 -0.083512 0.041936 -0.20485 -2.2863 -0.2568 0.049499 -0.066577 
0.50969 -0.13316 0.081067 -0.28541 -1.8434 -0.3372 0.0093821 -0.11113 
0.010204 -0.054575 0.099974 -0.22277 -1.1131 -0.19794 0.014808 -0.099295 
-1.0098 0.016452 0.082053 -0.17147 -0.58382 -0.015116 0.044238 -0.097322 
-1.6691 0.14157 0.064461 -0.10735 -0.12067 0.10063 0.046868 -0.025638 
-1.021 0.19057 0.034537 0.027303 0.27031 0.10244 0.0052718 0.031907 
0.045553 0.12842 0.012342 0.038483 0.36221 0.061337 -0.046847 0.06035 
0.64271 0.072846 0.028619 0.092576 0.24745 -0.031228 -0.038462 0.036346 
0.70009 0.031742 0.042429 0.036182 -0.027282 -0.12198 -0.030406 0.01974 
0.54652 -0.025309 0.032729 0.031742 -0.1182 -0.13399 0.032236 0.031742 
0.36978 -0.032379 0.0031344 0.063145 0.051308 -0.054082 0.061501 0.04358 
0.21621 -0.02087 0.013164 0.06479 0.37882 0.033551 0.045224 0.051308 
0.1174 -0.006566 0.01415 0.048348 0.4265 0.030756 0.044731 0.04506 
0.045718 -0.017582 0.017767 0.043745 0.35712 0.0093821 0.037826 0.038155 
0.016616 -0.034845 0.025824 0.020233 0.34725 0.025659 0.029605 0.03536 
-0.012485 -0.024487 0.013164 0.036182 0.21934 0.016452 0.0060938 0.021549 
-0.050136 -0.017746 0.0324 0.047033 0.23874 -0.056055 0.016288 0.015959 
-0.078744 -0.040106 0.031414 0.020562 -0.017582 -0.056055 0.050979 0.0032988 
-0.088115 -0.04619 0.014808 0.051308 -0.40379 -0.14582 0.064296 0.026646 
-0.091732 -0.064111 0.045389 0.033715 -0.43947 -0.14813 0.049992 0.059693 
-0.080552 0.043087 0.028619 0.02829 -0.14023 -0.068879 0.043251 0.050321 
-0.017417 0.18859 0.039634 0.030427 -0.17312 -0.050958 0.031414 0.027961 
0.26126 0.18235 0.057555 -0.027447 -0.35479 -0.20156 0.0088889 -0.0047575 
0.38737 0.16755 0.068407 0.011355 -0.35956 -0.36992 0.015794 0.0046141 
0.27425 0.18843 0.042923 0.01004 -0.22639 -0.21291 0.047855 0.021878 
0.020727 0.15916 0.029112 0.039141 -0.089431 0.037826 0.054267 0.016288 
-0.45722 0.13088 -0.0072237 0.071202 0.074983 0.1932 0.052294 0.039305 
-0.9549 0.18646 -0.031228 0.060679 0.040785 0.23249 0.031414 0.050486 
-0.84853 0.19418 -0.011498 -0.0057439 -0.12593 0.25452 -0.006566 0.018096 
-0.23411 0.12151 0.032071 -0.051944 -0.058356 0.3854 -0.043395 -0.0011404 
0.24745 0.070051 0.045553 -0.01939 0.28017 0.52137 0.0018191 0.012835 
0.41351 0.076134 0.020233 0.10096 0.38918 0.39691 0.0227 0.066598 
0.37339 0.055582 0.027961 0.065447 0.1077 0.052787 0.056898 0.080573 
0.2902 0.020233 0.052787 0.025988 -0.22589 -0.27982 0.052952 0.035524 
0.22164 0.032893 0.0098754 0.018425 -0.44111 -0.39064 0.043087 -0.0096899 
0.19813 -0.0050863 0.021384 -0.018897 -0.51526 -0.39869 0.055582 -0.012485 
0.35613 -0.011498 0.017767 -0.011827 -0.6782 -0.37781 0.06331 -0.00081153 
0.48635 0.010533 0.035853 -0.0075525 -0.92679 -0.3058 0.039141 -0.029748 
0.4362 -0.0077169 0.019576 -0.035996 -0.8066 -0.20041 0.025659 -0.030242 
0.26061 -0.012814 0.016123 0.0070803 -0.39244 -0.041422 0.03388 -0.014129 
-0.074469 0.075476 0.00066819 0.01711 0.14864 0.3678 0.023028 0.023851 
-0.64301 0.14486 0.0085601 0.030756 0.54011 0.56905 0.010533 0.082217 
-0.77372 0.17758 0.0047785 -0.010512 0.71488 0.50575 0.0044497 0.076299 
-0.4222 0.18415 0.030592 -0.031064 0.94737 0.1733 0.029769 0.069229 
-0.036818 0.23808 0.018425 0.098494 1.5619 -0.13711 0.038977 0.038319 
0.29119 0.20865 -0.012485 0.19813 1.3388 -0.38653 0.030098 0.022206 
0.43784 0.14749 0.0070803 0.12546 0.27277 -0.54124 0.007738 0.023357 
0.34068 0.062323 0.035524 0.037661 -0.46249 -0.22409 -0.021528 -0.0024557 
0.014972 0.0042853 0.080902 -0.075949 -0.7341 0.29431 -0.029748 -0.0034422 
-0.26765 -0.023336 0.10704 -0.10094 -0.5807 0.5138 -0.034681 0.0051074 
-0.16292 -0.00097594 0.064625 -0.048163 -0.07266 0.52055 0.026646 0.07449 
0.075312 -0.029255 -0.011992 0.046211 0.38704 0.44639 0.050979 0.10474 
0.2052 -0.066906 -0.031886 0.12612 0.38638 0.28247 0.07597 0.083697 
0.19501 -0.061809 -0.027447 0.055582 0.09833 0.13795 0.069722 0.073668 
0.15209 -0.065426 -0.00064712 -0.014951 -0.093048 0.014972 0.075641 0.025988 
0.17856 -0.13037 0.0021479 -0.011498 -0.12626 -0.15421 0.060186 0.0051074 
0.2491 -0.24053 0.051143 -0.034845 -0.09946 -0.22261 0.0092177 -0.0036066 
0.23479 -0.20222 0.10491 -0.041751 0.042594 -0.23132 0.025988 0.027796 
0.13088 -0.020377 0.094877 0.043909 0.29941 -0.18298 0.018589 0.065776 
0.052459 0.20339 0.061501 0.052952 0.37487 -0.045368 -0.011005 0.051965 
-0.12823 0.31207 0.03536 0.060186 0.17166 -0.0013048 -0.028762 0.05624 
-0.31172 0.25551 0.041278 0.04358 -0.18084 -0.045861 0.027303 0.020891 
-0.31402 0.17478 0.056569 0.040456 -0.50869 -0.094199 0.064954 -0.031721 
-0.13629 0.057555 0.049664 0.041936 -0.46988 -0.14911 0.04095 -0.014622 
0.037661 -0.056219 0.034537 0.00017495 -0.097322 -0.40987 0.019083 0.033222 
0.14667 -0.15109 0.048513 0.029276 0.25206 -0.55998 -0.00097594 0.058706 
0.23627 -0.19005 0.078765 -0.020212 0.20487 -0.17065 -0.049807 -0.05441 
0.23364 -0.17673 0.083204 -0.09239 0.016452 0.31437 -0.089924 -0.14484 
0.19237 -0.07825 0.067749 -0.088115 0.093069 0.58368 -0.07973 -0.043724 
0.099152 -0.0042642 0.023357 0.031578 0.74398 0.74974 0.012506 0.15111 
0.0098754 0.053281 -0.031392 0.22657 1.4166 0.75747 0.080244 0.3466 
-0.053095 0.098001 -0.10209 0.30105 1.1195 0.3946 0.12579 0.26751 
-0.045203 0.12398 -0.069701 0.16031 0.35399 -0.02794 0.11083 0.082382 
-0.0064016 0.13138 0.0090533 -0.038298 -0.024487 -0.03205 0.07038 -0.089431 
0.025988 0.096686 0.051965 -0.13267 0.1493 0.098494 0.00017495 -0.14385 
0.012999 0.10655 0.026646 -0.024652 0.62709 0.12825 0.0079024 -0.047341 
-0.01232 0.11806 0.0083956 0.20553 0.63202 0.16969 0.0592 0.070873 
-0.0090322 0.10655 0.030592 0.20569 -0.21126 -0.0019624 0.090109 0.086821 
0.015794 0.10754 0.027139 0.066105 -0.96937 -0.27752 0.033222 0.013492 
0.052459 0.08863 0.05213 -0.046025 -1.0917 -0.35183 -0.03353 -0.029255 
0.058706 0.046211 0.033551 -0.14023 -0.74873 -0.26206 0.0011614 0.0032988 
0.088958 -0.019884 0.045553 -0.12379 -0.42401 -0.28031 -0.0013048 0.01415 
0.073832 -0.049971 0.08156 -0.11031 -0.27127 -0.29725 -0.023336 -0.0021268 
0.060186 -0.067235 0.095864 -0.026789 -0.012978 -0.1187 -0.010019 0.0064227 
0.068407 -0.0052507 0.054432 0.094877 0.21079 0.11411 0.030263 0.047691 
0.044567 0.096028 0.029934 0.13088 0.31848 0.39345 0.07301 0.055582 
0.017274 0.09981 0.066598 0.088136 0.21687 0.51002 0.068407 0.077285 
0.0062583 0.084848 0.050321 0.0689 0.086657 0.45133 0.082711 0.059857 
-0.0011404 0.053116 0.061172 0.04358 0.055254 0.36172 0.097015 0.030098 
-0.020706 0.077449 0.063968 0.041278 0.028783 0.17347 0.068736 0.025988 
0.012506 0.040292 0.070873 0.02829 -0.15339 -0.14139 0.020727 0.020069 
0.084355 0.048348 0.06331 0.058377 -0.26387 -0.51789 -0.009361 0.023028 
0.10606 0.079751 0.042429 0.10195 -0.38899 -0.58004 -0.014129 0.012999 
0.20109 0.062488 0.005765 0.0065871 -0.47498 -0.21225 0.0028056 -0.021034 
0.45757 0.067091 0.019247 -0.049971 -0.38587 0.1567 0.011848 -0.023829 
0.62807 0.058542 0.010862 -0.031064 0.055418 0.24088 0.041936 -0.019061 
0.51611 0.11855 -0.018075 0.017767 0.5531 0.32193 0.053938 0.022371 
0.065447 0.12316 -0.028433 0.10787 0.58993 0.33246 0.043909 0.071859 
-0.41135 0.087808 -0.0082102 0.05772 0.3022 0.16245 0.02829 0.10359 
-0.97874 -0.03057 0.019247 0.076134 0.36221 -0.076606 0.068078 0.093891 
-1.1517 -0.14023 0.027961 0.1687 0.76963 -0.12823 0.076299 0.047855 
-0.63956 -0.091897 -0.00081153 0.085506 0.085341 -0.026296 0.040621 0.0095465 
0.026481 0.094713 0.019411 -0.02794 -0.98137 -0.3446 0.015137 -0.013471 
0.43456 0.18728 0.012999 -0.019061 -1.0642 -0.70401 0.01826 1.0539e-005 
0.63333 0.17034 0.020891 -0.034188 -0.70154 -0.44325 0.004943 0.0059294 
0.65701 0.086985 0.053609 -0.034681 -0.43552 -0.080717 0.023357 -0.037805 
0.55277 -0.022514 0.084026 -0.12544 0.20306 0.27277 0.010862 -0.018568 
0.34939 -0.07003 0.09981 -0.14993 0.89804 0.66359 -0.0052507 -0.021199 
-0.0013048 -0.024158 0.13878 -0.081539 1.2185 1.0015 -0.016102 -0.023172 
-0.4758 -0.011663 0.074161 0.012177 1.1402 0.99965 0.0047785 0.084355 
-0.58859 -0.035503 0.034702 0.15374 0.83491 0.51282 0.069393 0.20931 
-0.30563 0.0044497 -0.004593 0.26554 0.5942 0.041936 0.073668 0.22065 
-0.0044286 0.055418 -0.034516 0.2634 -0.23987 -0.33326 0.050814 0.12069 
0.1738 0.056404 -0.027447 0.13516 -1.1016 -0.69069 0.017932 -0.010183 
0.20421 0.075148 0.0016547 -0.012485 -1.2865 -0.76451 0.01415 -0.080059 
0.13319 0.11954 0.0026412 -0.053753 -0.93485 -0.54782 0.0032988 -0.075949 
0.024015 0.078765 -0.0022913 -0.0068948 -0.4712 -0.29758 0.033551 -0.022185 
-0.038298 0.075148 0.00297 -0.021363 -0.15684 -0.15339 0.050321 0.0059294 
-0.065919 0.048677 0.03092 -0.023007 0.048677 -0.040928 0.047526 -0.0022913 
-0.072989 0.035031 -0.0013048 -0.027118 0.19599 0.08715 0.026974 0.030592 
-0.041257 0.030263 0.0034632 -0.028926 0.2468 0.16344 0.01711 0.02122 
0.051472 0.023028 -0.0034422 0.041114 0.27623 0.15571 0.02533 0.033222 
0.16969 0.025001 -0.0098543 0.042758 0.24252 0.1322 0.012999 0.061337 
0.098988 -0.013307 0.041936 -0.010348 0.16919 0.067749 0.0067515 0.044896 
-0.01232 0.040785 0.0689 -0.014951 0.0056006 -0.062467 -0.027447 0.071202 
-0.15125 0.066598 0.057227 -0.018897 -0.10768 -0.22178 0.023686 0.025988 
-0.27012 0.10984 0.015137 0.039141 -0.12379 -0.34822 0.0070803 0.035031 
-0.25795 0.15259 -0.010676 0.025824 -0.13267 -0.14763 0.0069159 0.025988 
-0.1062 0.14108 -0.0032777 0.029112 -0.071674 0.1738 0.025001 0.018754 
0.061337 0.10162 0.0026412 0.039305 0.075641 0.33788 0.032729 0.0016547 
0.12776 0.066598 0.018589 0.0085601 0.29612 0.31618 0.014315 -0.0087034 
0.10507 0.082053 0.0026412 0.04654 0.5531 0.31256 0.034537 0.03799 
0.069393 0.076956 -0.0067304 0.058542 0.56214 0.2782 0.052294 0.034537 
0.052459 0.052294 0.0046141 0.044402 0.43834 0.096686 0.069229 0.055254 
0.04917 0.025824 -0.011005 0.05624 0.28839 0.052787 0.070051 0.093726 
0.12118 0.009711 -0.032215 0.031578 0.20569 0.18169 0.03536 0.079587 
0.25699 0.05065 0.042429 -0.013143 -0.095843 0.15703 0.00050378 0.050321 
0.28412 0.12003 0.050157 -0.0098543 -0.35529 -0.022679 -0.032708 -0.019061 
0.18267 0.13088 0.033551 0.020069 -0.1016 -0.14385 0.0087245 0.021056 
-0.087951 0.11888 0.027468 0.10014 0.22148 -0.083183 0.087479 0.03947 
-0.41924 0.11132 0.046211 0.10869 -0.016431 0.056569 0.12349 0.015301 
-0.3594 0.12973 0.059035 0.06594 -0.3497 0.22115 0.074983 0.038155 
0.053281 0.090931 0.00066819 0.095042 -0.38044 0.24548 -0.03501 0.046704 
0.32029 0.06035 -0.0060728 0.062159 -0.35036 0.068242 -0.068221 0.0324 
0.28938 -0.001798 -0.027775 0.025166 -0.41579 -0.11541 0.013328 -0.0073881 
0.18662 -0.084663 0.037004 -0.026296 -0.55176 -0.45607 0.048348 -0.03616 
0.33311 -0.12445 0.061666 -0.084498 -0.57725 -0.85954 0.032071 -0.034188 
0.92731 -0.024323 0.089452 -0.087129 -0.2647 -1.1815 0.022042 -0.030242 
1.106 0.083368 0.07301 -0.0138 0.17232 -0.83784 0.018589 0.037332 
0.69186 0.13483 0.069558 -0.00097594 0.23216 -0.0036066 0.01826 -0.0073881 
-0.027282 0.16492 0.085177 -0.045696 0.033387 0.72738 0.016452 -0.060329 
-1.2089 0.17248 0.04506 -0.014458 0.071859 1.2149 0.053281 -0.041586 
-2.1512 0.23364 0.032729 0.11937 0.35235 1.3135 0.074983 0.10178 
-1.6027 0.23151 -0.0059084 0.18843 0.40841 0.99817 0.032071 0.21967 
-0.29363 0.12628 -0.0036066 0.11576 0.19632 0.29316 0.013164 0.18925 
0.6409 -0.057699 0.027139 0.050321 -0.015116 -0.35726 0.021384 0.0689 
0.94243 -0.21619 0.074654 -0.053588 -0.079895 -0.76188 0.0056006 -0.003771 
0.82504 -0.29117 0.13203 -0.10176 0.17248 -0.74922 0.0041209 -0.04882 
0.60555 -0.23362 0.13516 -0.033859 1.0342 -0.16375 0.021549 -0.034352 
0.36106 -0.12938 0.053116 0.080409 1.4099 0.44919 0.057391 0.022535 
0.22082 0.041936 0.020069 0.1294 0.682 0.56083 0.052952 0.079587 
0.13203 0.076627 -0.017253 0.098659 -0.3035 0.26768 0.055254 0.065118 
0.014643 0.12529 -0.015444 0.019247 -0.76435 -0.04882 0.03947 0.026974 
0.018754 0.13549 -0.09239 -0.0032777 -0.61046 -0.1644 0.022371 0.0098754 
0.091918 0.092411 -0.04323 -0.011334 -0.40954 -0.16325 0.005765 -0.0068948 
0.18119 0.10836 0.062488 -0.02235 -0.352 -0.17098 -0.020212 0.00017495 
0.16788 0.15094 0.12414 0.012177 -0.18742 -0.14303 -0.028762 0.015794 
0.048513 0.14157 0.14453 -0.0050863 0.00033937 -0.11097 -0.028104 0.060022 
-0.23905 0.087972 0.14305 0.033715 0.025001 -0.089102 0.013986 0.050321 
-0.48813 -0.038462 0.11033 0.04917 -0.08121 -0.064111 0.037004 0.010369 
-0.2693 -0.13596 0.10836 0.030427 0.020069 0.067256 0.057391 0.033222 
0.16936 -0.16884 0.065612 0.037004 0.18021 0.26439 0.034866 0.01267 
0.2999 -0.069043 0.052952 -0.0096899 0.21227 0.33196 0.0087245 -0.0026201 
0.079587 0.036182 0.034373 -0.034023 0.13467 0.19862 0.029934 0.028619 
-0.32224 0.065118 0.052459 0.0092177 0.10852 0.22197 0.037826 0.047197 
-0.77832 0.11543 0.0044497 0.065283 0.54685 0.32719 0.073997 0.092576 
-0.71831 0.14289 -0.072003 0.1613 0.86746 0.28806 0.067091 0.10622 
-0.27949 0.079422 -0.084005 0.15555 0.38359 0.0016547 0.047526 0.064132 
0.17199 -0.0004827 -0.034023 0.039305 -0.23938 -0.19679 0.0011614 0.031742 
0.39839 -0.035503 0.048019 0.0024767 -0.26453 -0.41859 -0.015116 -0.057699 
0.37652 -0.058521 0.061501 -0.0040998 0.21375 -0.32602 0.014479 -0.056055 
0.28971 -0.030406 0.057227 -0.0034422 0.51512 0.15176 0.029605 0.011026 
0.24088 -0.021199 0.06742 0.034537 0.24022 0.51759 0.014643 0.10902 
0.27705 -0.05589 0.062323 -0.015444 -0.18232 0.32045 0.016452 0.11905 
0.29234 -0.05589 0.070215 0.017932 -0.093212 -0.15898 0.029112 0.03536 
0.17232 0.013328 0.031085 0.058871 -0.0503 -0.37617 0.059528 -0.029584 
0.039963 0.062817 0.026317 0.036182 -0.45065 -0.2106 0.058049 -0.0047575 
-0.029584 0.11313 0.015465 0.038977 -0.91018 -0.025967 0.056404 0.029112 
-0.01528 0.15407 -0.016266 0.011191 -0.66274 0.070051 0.053938 0.010862 
0.0034632 0.18942 -0.013636 0.057391 0.05772 0.063968 0.042758 -0.038956 
-0.0098543 0.10836 0.023357 0.055582 0.18432 -0.031392 0.018589 -0.051615 
-0.056055 0.028947 0.067749 -0.032872 0.17265 -0.37091 -0.019719 -0.019719 
-0.029748 0.065612 0.10359 -0.084991 0.36419 -0.63545 -0.0029489 0.068571 
-0.023665 0.067749 0.064296 0.02533 0.96825 -0.25187 0.00017495 0.13056 
-0.030735 0.11954 0.018589 0.1636 1.3229 0.53485 0.040621 0.1493 
-0.038791 0.15209 -0.028104 0.2001 0.69746 0.82011 0.046046 0.14782 
0.0060938 0.11707 -0.0138 0.11296 0.13253 0.60325 0.071695 0.071366 
0.08419 0.063145 0.00017495 0.052294 -0.2014 0.15735 0.048677 0.054267 
0.09981 0.034044 0.016288 -0.032708 -0.6052 -0.11623 0.01152 -0.02942 
0.036675 0.043251 -0.021363 -0.078086 -0.58859 -0.24414 0.016123 -0.035338 
0.020233 0.066927 0.0098754 -0.040271 -0.47005 -0.30859 0.028783 -0.028926 
-0.064933 0.064954 0.032893 0.0079024 -0.29034 -0.32865 0.017603 -0.035338 
-0.014129 0.098659 0.015794 0.021878 -0.25121 -0.22935 0.030592 0.0013258 
0.064954 0.021878 -0.022843 0.041443 -0.21027 -0.071345 0.026152 0.025659 
0.14239 -0.23724 -0.070523 0.010862 -0.14648 -0.050464 0.01711 0.011684 
0.20388 -0.43437 -0.036654 0.025659 -0.082854 0.0021479 0.0067515 0.01711 
0.19468 -0.37584 -0.02794 0.024673 -0.03616 -0.014951 0.018425 0.01974 
0.17199 -0.18463 0.01826 0.009711 -0.05589 -0.091732 0.049828 0.046046 
0.13713 0.0062583 0.050814 0.027468 -0.079401 -0.13284 0.028454 0.022206 
0.11839 0.1516 0.072681 -0.0090322 -0.22293 -0.15158 0.029605 0.047033 
0.0786 0.2634 0.098659 -0.027447 -0.29544 -0.14467 0.025988 0.022042 
0.030427 0.32226 0.10507 0.013657 -0.13234 -0.06855 0.055911 0.028619 
-0.023994 0.28823 0.13039 0.016616 0.045718 0.013821 0.049992 -0.0055795 
0.049664 0.21441 0.10524 0.020727 0.1299 0.1077 -0.0083746 -0.018239 
0.098988 0.16985 0.091096 0.046046 0.21474 0.16525 -0.035832 0.037004 
0.025166 0.18942 0.058542 0.047033 0.34758 0.24795 0.0098754 0.097508 
-0.006566 0.17922 0.025495 0.076299 0.32982 0.010697 0.069393 0.13023 
0.099481 0.15735 -0.026624 0.023851 0.16755 -0.41037 0.077285 0.083368 
0.23825 0.088136 0.0021479 -0.082854 -0.41579 -0.5613 0.02681 -0.059507 
0.28971 -0.044052 0.017274 -0.12133 -0.63512 -0.40806 -0.035338 -0.14204 
0.23003 -0.098473 -0.0075525 -0.061973 -0.17789 0.24055 -0.052109 -0.13826 
-0.079566 -0.048985 -0.033037 0.027632 0.20602 1.0087 -0.00015387 -0.051122 
-0.47761 -0.048656 -0.0050863 -0.0036066 0.030098 1.2611 0.035195 0.032729 
-0.55225 -0.063289 0.033551 -0.059672 -0.11031 0.7966 0.014315 0.13368 
-0.425 -0.0004827 0.050979 0.081889 0.54833 0.17741 0.058049 0.22263 
-0.23132 0.051472 -0.010183 0.25715 1.3014 0.15045 0.11 0.244 
-0.023172 0.097672 -0.05589 0.34364 1.2875 0.2514 0.11 0.18958 
0.097015 0.084355 -0.037805 0.183 0.21227 -0.03205 0.065612 0.07301 
0.18448 0.081067 0.019576 -0.076277 -0.72341 -0.3954 0.021878 -0.047998 
0.23496 0.0092177 0.087314 -0.18676 -0.91528 -0.52282 0.0080668 -0.098802 
0.26965 0.019083 0.092576 -0.157 -0.62147 -0.36186 -0.024323 -0.11278 
0.22098 0.075805 0.08567 -0.092719 -0.30728 -0.20732 -0.0090322 -0.030077 
0.16294 0.10211 0.096521 0.052459 0.18711 -0.042408 -0.0075525 0.013164 
0.062488 0.11494 0.090438 0.11526 0.46382 0.13828 0.029605 0.01563 
-0.0049219 0.11855 0.050486 0.093233 0.0095465 0.32867 0.012835 0.019247 
-0.047341 0.10688 0.076463 0.028125 -0.3132 0.45462 0.0019835 -0.0059084 
-0.073482 0.076792 0.060022 -0.01232 0.039634 0.42206 0.010369 0.023028 
-0.066248 0.063474 0.050979 0.0065871 0.42387 0.31519 0.037332 0.025495 
-0.093212 0.01004 0.035853 -0.001798 0.32078 0.063145 0.047691 0.010862 
-0.088937 0.065118 0.013492 0.0032988 0.12891 -0.024816 0.062323 0.068242 
-0.018568 0.1756 0.019411 0.058542 0.13072 0.067913 0.062652 0.077285 
0.0023123 0.19862 0.021384 0.061666 0.11658 0.12398 0.076463 0.08008 
-0.020212 0.18794 0.0032988 0.042429 0.019411 0.10688 0.093891 0.097672 
-0.04323 0.16344 0.010204 0.066927 0.012835 0.17396 0.029276 0.035853 
-0.10982 0.16114 0.034373 0.054925 0.032564 0.19829 0.041772 0.020398 
-0.16407 0.1174 0.0074092 0.091918 0.15522 0.023851 0.025001 0.01826 
-0.085485 0.040456 0.016452 0.097179 0.2657 -0.19219 0.0046141 0.088301 
-0.01939 0.062159 0.012506 0.086657 0.15999 -0.22113 0.0056006 0.029441 
0.050486 0.018918 0.023851 0.10408 -0.030899 -0.0095255 0.05772 0.0028056 
0.049006 -0.073811 0.03799 0.063474 -0.19498 -0.001798 0.039141 -0.006566 
0.087479 -0.145 0.017274 0.03947 -0.22145 -0.033365 0.0074092 -0.0049219 
0.12201 -0.30251 0.00033937 -0.017746 -0.24447 -0.056877 -0.054082 0.021549 
0.12924 -0.34526 0.030098 -0.050629 0.012835 0.030756 -0.072989 0.02122 
0.10589 -0.14829 0.037661 -0.023336 0.44639 0.19912 -0.030735 0.050486 
0.084848 0.052623 0.047855 -0.052273 0.52646 0.20421 0.013492 0.045553 
0.087808 0.16952 0.055582 -0.075784 0.36106 0.19402 0.082053 0.059528 
0.071695 0.10343 0.076792 -0.017582 0.25567 0.17741 0.091918 0.11806 
0.14979 0.13713 0.067091 0.068407 0.39608 -0.022514 0.12414 0.13713 
0.29217 0.16689 0.022206 0.12332 0.23068 -0.45065 0.083697 0.10507 
0.30598 0.12069 -0.019884 0.11855 -0.26815 -0.77027 0.03536 0.041607 
0.18383 0.06742 -0.036818 0.024508 -0.74791 -0.83192 -0.013471 -0.049314 
-0.10752 0.08156 -0.018239 -0.011992 -0.92794 -0.44703 -0.057205 -0.10916 
-0.51263 0.13697 0.007738 -0.041422 -0.71881 0.24499 -0.0095255 -0.16177 
-0.58744 0.18383 0.0088889 0.047526 -0.14402 0.74514 0.063639 -0.076442 
-0.26683 0.045389 0.033058 0.11461 0.0042853 0.75303 0.075312 0.050814 
0.12957 -0.11409 0.087479 0.023686 -0.17082 0.37849 0.036675 0.1179 
0.36517 -0.15224 0.12349 -0.035503 -0.17739 -0.14056 0.015301 0.12201 
0.36452 -0.12445 0.11132 -0.036489 0.019247 -0.45278 0.038155 0.085341 
0.22871 -0.052602 0.064461 0.014972 0.28675 -0.48731 0.051308 0.08567 
0.14026 -0.012978 0.051636 0.041114 0.41253 -0.1381 0.02829 0.031414 
0.11642 -0.034516 0.085177 -0.041915 0.11362 0.30303 0.0054362 -0.0026201 
0.10967 -0.083018 0.062652 -0.073811 0.10754 0.59568 0.0059294 -0.039449 
0.09274 -0.040928 0.010369 0.053609 0.51134 0.60061 0.022864 -0.009361 
0.14913 0.005765 -0.00081153 0.062817 0.28445 -0.041422 0.013821 0.0028056 
0.1909 0.004943 0.02533 0.069886 0.0016547 -1.2206 0.032729 -0.0047575 
0.10655 0.01826 -0.021856 0.1539 -0.18183 -2.1344 0.052459 0.027632 
-0.035832 0.10688 -0.023994 0.18613 -0.57018 -1.4712 0.077449 0.069558 
-0.20107 0.16294 -0.040764 0.1539 -0.87138 -0.22113 0.074326 0.13023 
-0.30268 0.16196 -0.016431 0.028454 -0.80282 0.4071 0.07597 0.085999 
-0.18989 0.15571 0.024015 -0.069701 -0.39951 0.51972 0.018096 0.030263 
0.10113 0.084848 0.058871 -0.10242 0.14272 0.39477 -0.0078813 -0.017417 
0.31832 0.029276 0.11609 -0.10357 0.36764 0.35416 -0.024323 -0.13925 
0.35712 0.038155 0.12398 -0.076606 0.39148 0.45001 -0.025474 -0.097651 
0.23627 0.041936 0.061172 -0.051615 0.80235 0.91711 -0.018075 0.13565 
-0.034188 -0.0059084 0.0016547 0.11346 1.2649 1.2025 0.048348 0.19106 
-0.33687 -0.11015 -0.02087 0.19731 1.0034 0.80284 0.14157 0.19764 
-0.34361 -0.13793 -0.0042642 0.11543 0.50295 0.15407 0.083368 0.082053 
-0.098802 -0.10258 0.005765 0.070215 0.19254 -0.35348 0.088301 0.040128 
0.095864 0.045882 -0.0049219 0.063968 -0.00031829 -0.64202 0.052294 0.023851 
0.17166 0.15111 -0.018733 0.063474 -0.34756 -0.7165 0.061337 0.011355 
0.17297 0.12332 0.0014903 0.055089 -0.99354 -0.91166 0.045389 0.017932 
0.12299 0.13088 0.03388 -0.038462 -1.1499 -0.82748 0.030098 -0.013636 
0.18859 0.15423 0.021878 -0.046354 -0.80381 -0.31583 0.018425 -0.041586 
0.58089 0.13006 0.023028 -0.054246 -0.37535 0.38934 0.043745 -0.094692 
0.91646 0.086821 0.074819 -0.13366 0.011191 0.59256 -0.064111 -0.13349 
0.86335 0.072517 0.086492 -0.077922 0.58121 0.52893 -0.059178 -0.07973 
0.28773 0.034209 0.075805 0.066927 1.0953 0.60768 -0.01676 0.050321 
-0.57379 0.13138 0.014643 0.22772 1.0906 0.71307 0.081889 0.20947 
-1.5251 0.31157 -0.027447 0.3198 0.60949 0.74892 0.15834 0.24515 
-1.8585 0.46612 -0.060165 0.23348 -0.16276 0.26998 0.14667 0.19879 
-1.0746 0.38112 -0.062138 0.11214 -0.7609 -0.31797 0.05772 0.1248 
-0.070194 0.19402 -0.018239 -0.010841 -0.82419 -0.36203 -0.026789 0.022371 
0.56313 0.016123 0.059693 -0.15717 -0.42862 -0.14698 -0.016102 -0.014293 
0.73083 -0.11459 0.1105 -0.21307 0.014808 -0.22557 -0.031721 -0.092226 
0.6215 -0.14434 0.12792 -0.16407 0.84346 -0.32734 -0.03057 -0.11097 
0.48503 -0.10406 0.077285 -0.019719 1.4743 0.092247 -0.046683 -0.03912 
0.33311 -0.099953 0.043416 0.093562 1.1997 0.48388 -0.013307 0.026974 
0.19237 -0.071345 0.0095465 0.11444 0.74004 0.50493 0.0227 0.090603 
0.071037 -0.010512 -0.016266 0.14963 0.17001 0.32325 0.070051 0.090109 
-0.017746 -0.038133 -0.038627 0.13006 -0.32915 0.12069 0.052787 0.091918 
-0.03353 -0.206 -0.023665 0.052623 -0.50967 0.040456 0.039141 0.076792 
0.01974 -0.43141 0.010697 0.069886 -0.21652 0.089287 0.04506 0.050157 
0.069722 -0.48731 0.053445 0.034373 0.05624 0.16969 0.034373 0.038319 
0.040456 -0.20419 0.063145 -0.0064016 -0.21159 0.16163 0.013328 -0.022679 
-0.025638 0.22526 0.080573 -0.023007 -0.55143 0.062159 -0.0068948 -0.011005 
-0.15503 0.52696 0.073339 -0.070687 -0.59352 -0.050464 0.0087245 0.015959 
-0.22458 0.52909 0.036182 -0.062631 -0.38258 -0.20748 0.005765 0.00083261 
-0.1746 0.3997 0.0041209 0.0085601 -0.17361 -0.28212 0.02122 0.018754 
-0.018075 0.23545 0.0037921 0.007738 -0.074798 -0.12544 0.024673 0.038977 
0.10343 0.069558 0.030756 0.022864 0.020727 0.063639 -0.0032777 0.029112 
0.099645 -0.024816 0.01826 0.014808 0.026481 0.11905 0.016452 0.013657 
0.0070803 -0.028433 0.028454 0.022864 0.21769 0.2828 0.024344 0.030427 
-0.024158 -0.018897 0.02829 0.094055 0.2782 0.31848 0.023357 0.03947 
-0.0011404 -0.062467 0.11066 0.043251 0.17232 0.24285 0.025001 0.063968 
0.0082312 0.041443 0.070215 0.013492 -0.065097 0.12365 0.023193 0.028454 
0.052952 0.13549 0.044402 -0.014293 -0.1912 -0.050464 0.034044 -0.011663 
0.34364 0.063968 0.024179 -0.047505 -0.19054 -0.11212 0.019411 0.03651 
0.92714 -0.070523 0.039963 -0.048492 -0.14796 0.12644 0.028619 0.10885 
1.1356 -0.12511 0.024508 -0.030735 0.054267 0.34018 0.02122 0.12842 
0.84066 -0.1016 0.013328 0.035031 0.18087 0.16262 0.015794 0.087808 
0.21424 0.027468 0.013328 0.04095 0.10129 -0.23083 0.0324 -0.0096899 
-0.88042 0.12168 0.062981 -0.061973 -0.028433 -0.61966 0.013986 -0.067728 
-1.9422 0.12316 0.095371 -0.15536 -0.038956 -0.82058 0.029605 -0.12873 
-1.9217 0.086985 0.043745 -0.035503 0.26028 -0.79082 0.028947 -0.097158 
-0.89884 0.015794 -0.017911 0.24729 0.88998 -0.26371 0.059528 0.085999 
0.11066 -0.10127 -0.075949 0.39099 0.54948 0.18695 0.039963 0.17297 
0.70009 -0.24299 -0.051451 0.24219 -0.87319 0.43225 0.0032988 0.16097 
0.84757 -0.28344 0.023522 -0.019555 -1.6267 0.57661 0.0039565 0.060022 
0.76585 -0.1986 0.075148 -0.11623 -0.95655 0.71143 0.015794 -0.031064 
0.62478 -0.059836 0.14124 -0.16013 -0.1769 0.81583 -0.0029489 -0.0072237 
0.47073 0.061666 0.16031 -0.18364 0.090767 0.53682 -0.010348 -0.03616 
0.32177 0.14749 0.12694 -0.19794 0.19599 -0.1524 0.0051074 -0.096007 
0.2001 0.23956 0.070873 -0.099295 0.81698 -0.98285 0.015301 -0.060494 
0.097672 0.27672 0.012342 0.17166 1.7966 -0.99732 0.065447 0.0085601 
-0.045696 0.32999 -0.054739 0.33624 1.9835 -0.24793 0.11773 0.1733 
-0.17279 0.31897 -0.074633 0.30796 0.53057 -0.075949 0.12102 0.17018 
-0.2185 0.24564 -0.056219 0.1738 -1.3608 -0.43996 0.1031 0.0689 
-0.13941 0.18547 -0.0060728 -0.017582 -2.0821 -0.47005 0.065776 -0.0062372 
0.081724 0.09981 0.027303 -0.085156 -1.6814 -0.17082 0.034209 -0.047505 
0.20684 0.040621 0.030592 -0.16654 -0.91544 0.094384 0.01415 -0.061973 
0.17577 -0.0087034 0.016616 -0.18939 -0.21192 0.053938 -0.020212 -0.073154 
0.02681 -0.088444 -0.03057 -0.065919 0.65619 -0.16769 -0.008539 -0.032543 
-0.36417 -0.099295 -0.046354 0.0062583 0.97795 0.1179 0.038648 0.011848 
-0.67096 -0.03501 -0.025638 0.098001 0.88949 0.53797 0.062981 0.084684 
-0.54075 -0.001798 -0.024652 0.20076 1.0445 0.71127 0.043416 0.15653 
-0.15898 0.039963 0.0092177 0.21309 0.86795 0.56609 0.00297 0.13812 
0.15012 0.0786 0.062817 0.15078 0.11296 0.15226 0.0046141 0.073175 
0.2297 0.13878 0.10063 0.024673 -0.52365 -0.26305 0.016288 -0.0040998 
0.15292 0.1465 0.08304 -0.023172 -0.75202 -0.54469 0.020891 -0.048163 
0.089945 0.097015 0.097508 -0.052931 -0.89193 -0.44128 0.043745 -0.028433 
0.09833 0.036346 0.085012 -0.056877 -0.69069 -0.24661 0.055582 -0.0042642 
0.17692 0.011355 0.078107 -0.0059084 -0.24234 -0.14254 -0.02646 0.021056 
0.17577 -0.0138 0.060844 0.007738 0.19714 0.21358 -0.033694 0.0074092 
0.25354 0.053774 0.11296 -0.043066 0.56527 0.60489 -0.06 -0.043888 
0.37718 0.075312 0.092247 -0.046847 0.87354 0.63218 0.017603 -0.0067304 
0.32604 0.13319 0.067256 0.072846 1.2524 0.36106 0.051965 0.090438 
0.23052 0.22953 -0.056548 0.25403 1.6836 0.20142 0.14026 0.21753 
0.0014903 0.27294 -0.091404 0.34791 1.5185 -0.042901 0.14469 0.18859 
-0.43026 0.26077 -0.083512 0.1738 0.21013 -0.54946 0.12349 0.056076 
-0.74117 0.147 -0.035667 -0.0050863 -1.2055 -0.62608 0.074819 -0.060823 
-0.6606 0.018589 0.023851 -0.11985 -1.8095 -0.31797 0.0054362 -0.077757 
-0.25795 -0.096994 0.05624 -0.11952 -1.2374 -0.026296 -0.04882 -0.048327 
0.20536 -0.12511 0.066105 -0.0029489 -0.053753 0.35202 -0.078415 -0.015444 
0.42782 -0.076935 0.065447 0.0088889 0.45346 0.65109 -0.055561 -0.001798 
0.4316 -0.07266 0.013328 0.058542 0.14338 0.71899 -0.0057439 0.051472 
0.34495 -0.089266 -0.034023 0.083862 -0.28344 0.57628 0.045882 0.11132 
0.23907 -0.13382 0.020727 0.018918 -0.37551 0.26044 0.051472 0.13253 
0.23003 -0.18841 0.091589 -0.011334 0.11872 -0.12741 0.018096 0.070708 
0.22394 -0.19334 0.11395 -0.019884 0.83918 -0.26026 0.0064227 0.034537 
0.21128 -0.079072 0.1345 -0.088115 0.73543 -0.35759 -0.022021 -0.040271 
0.17741 -0.021199 0.15456 -0.11459 0.32423 -0.41612 -0.062302 -0.11919 
0.080573 -0.0022913 0.096686 0.034044 0.88242 -0.20896 0.010533 -0.055232 
-0.037969 0.11099 0.010369 0.27655 1.6647 0.3928 0.096357 0.1151 
-0.096336 0.29316 -0.053753 0.32243 0.9962 0.66046 0.11674 0.21358 
-0.096829 0.35778 -0.028762 0.13319 -0.50359 0.31092 0.09274 0.12628 
-0.064933 0.2879 0.0018191 -0.0503 -1.4131 -0.10176 0.045882 0.014643 
-0.036983 0.16788 -0.0096899 -0.11031 -1.3742 -0.24546 0.036675 -0.0077169 
