0.10556 0.67559 -0.091239 0.034044 0.023357 -0.0070593 -0.0049219 0.0056006 
0.039141 0.20438 -0.067399 0.012177 0.027468 0.021549 -0.0026201 0.021384 
0.0098754 -0.37946 -0.022514 0.0052718 0.01415 0.012177 0.034044 0.019905 
0.00083261 -0.88256 0.056733 -0.019719 0.012835 0.010204 0.023193 0.0047785 
0.0019835 -0.99617 0.10244 -0.024652 0.016781 -0.0036066 0.009711 0.00033937 
0.010369 -0.77651 0.097672 0.026646 0.023851 0.0079024 0.019083 -0.016431 
0.022206 -0.41398 0.10688 0.0064227 0.039305 0.0039565 0.039141 0.013821 
0.055911 0.05065 0.079422 -0.008539 0.041278 -0.0016336 0.0098754 0.057391 
0.088301 0.39855 0.091589 0.021713 0.034373 0.031742 -0.0054151 0.089123 
0.090603 0.50197 0.068078 0.025001 0.029441 0.023522 0.015794 0.095535 
0.037332 0.38277 0.017603 0.039305 0.028454 0.051308 0.048841 0.047362 
-0.067564 0.27968 -0.0098543 0.06742 0.029769 0.044073 0.048677 0.048019 
-0.11508 0.2098 0.021878 0.058213 0.032071 0.041607 0.051965 0.037004 
-0.095185 0.14634 0.031414 0.042429 0.039963 0.025001 0.057391 0.013821 
-0.043724 0.11444 0.038319 0.032236 0.048677 0.016945 0.041443 0.0082312 
-0.0087034 0.072846 0.048348 0.014808 0.0421 0.031085 0.020562 -0.0098543 
0.012999 0.03388 0.053609 0.055911 0.051143 0.018096 0.018918 0.029769 
0.035524 -0.018733 0.069064 0.033551 0.032564 0.016123 0.02829 0.018754 
0.063145 -0.069372 0.037168 0.042758 0.045224 0.02122 0.044567 0.022042 
0.087808 -0.093541 0.039141 0.032071 0.043251 0.032236 0.021056 0.034537 
0.094548 -0.18298 0.033222 0.029769 0.037661 0.020562 0.017274 0.034044 
0.084026 -0.25056 0.031742 0.021713 0.03388 0.0064227 0.030427 0.038483 
0.039634 -0.23 0.02681 0.012835 0.01415 0.037168 0.020069 0.015465 
0.046046 -0.20468 0.038812 0.029605 0.034209 0.024508 0.0041209 0.034209 
0.067913 -0.14287 0.05772 0.058049 0.024508 0.022042 0.020727 0.027796 
0.083368 0.035688 0.086163 0.023028 0.04506 0.052952 0.046211 0.042594 
0.08008 0.24203 0.020562 0.027468 0.020398 0.019576 0.037826 0.050814 
0.013821 0.35301 -0.011498 0.022042 0.023686 0.0067515 0.00066819 0.033715 
0.012177 0.31519 0.014315 0.027796 0.0324 0.012999 0.038648 0.029934 
-0.045532 0.20471 0.024344 0.053445 0.022206 0.023028 0.046375 0.021549 
0.0036276 0.053281 0.039141 0.03092 0.017932 0.022371 0.042265 0.037332 
0.011355 0.0070803 0.057062 0.023357 0.045224 0.020233 0.04095 0.054596 
-0.018568 0.12579 0.060844 0.058049 0.036346 0.038155 0.022864 0.031414 
-0.032379 0.28017 0.049335 0.016123 0.0324 0.031414 0.0087245 0.04506 
-0.032215 0.38573 0.0016547 0.0085601 0.021713 0.033715 0.009711 0.01563 
0.0060938 0.40578 0.0041209 0.026152 0.013492 0.037826 0.024344 0.020398 
0.028619 0.27228 -0.039613 0.025495 0.0070803 0.023686 0.058377 0.014808 
0.041114 0.19336 -0.042737 0.048184 0.012835 0.01152 0.043745 0.036346 
0.046868 0.19385 -0.037476 0.035031 0.007738 0.020562 0.054267 0.032729 
0.043251 0.26011 -0.0029489 0.021056 0.027796 0.034866 0.024015 0.01152 
0.022371 0.29826 0.0026412 0.036839 0.043087 0.023193 0.044567 0.026646 
0.014972 0.31305 0.011191 0.022535 0.041443 0.020891 0.033058 0.021056 
0.02681 0.29349 -0.00081153 0.046868 0.026152 0.052459 0.045224 0.03651 
0.046704 0.22608 -0.0077169 0.047033 0.017767 0.023357 0.027961 0.0044497 
0.038155 0.17528 -0.0024557 0.013492 0.023686 0.0093821 0.047033 -0.051122 
-0.010512 0.17001 0.010204 0.026646 0.03092 0.010204 0.013164 -0.0868 
-0.030735 0.057062 -0.0024557 0.035853 0.038648 0.030592 0.016616 -0.13234 
-0.02235 -0.36186 0.011684 0.039963 0.026317 0.019905 -0.00031829 -0.16818 
0.019905 -0.8819 0.044238 0.053281 0.026481 0.016781 0.0044497 -0.17756 
0.042429 -0.96608 0.048677 0.033222 0.0324 0.043416 -0.00015387 -0.07973 
0.06331 -0.52118 0.016945 0.042265 0.0070803 0.043087 0.0062583 0.044073 
0.065283 0.095699 0.03092 0.04654 -0.0064016 0.014808 0.013492 0.11724 
0.067585 0.45741 0.026481 0.0088889 -0.0019624 0.011355 0.025988 0.2149 
0.053774 0.70025 0.0026412 -0.0050863 0.010204 0.029276 -0.017088 0.25584 
0.061337 0.87141 -0.023172 0.027139 0.037332 0.027468 0.018425 0.341 
0.062981 0.83721 0.019247 0.040785 0.050321 0.051965 0.041114 0.36205 
0.02122 0.60029 0.091425 0.046046 0.013821 0.072681 0.044731 0.26998 
-0.024158 0.51216 0.12135 0.025988 0.029112 0.031414 0.053774 0.1368 
-0.030242 0.56033 0.066269 0.014808 0.015959 0.020069 0.042758 0.039141 
-0.040764 0.53255 0.028619 0.055582 0.031414 0.015137 0.1003 -0.076771 
-0.042408 0.43998 -0.0062372 0.026481 0.038155 0.00083261 0.13779 -0.16588 
-0.018075 0.20553 -0.010841 0.032893 0.044567 -0.0054151 0.14585 -0.16687 
-0.004593 -0.1085 0.052623 0.043087 0.040456 0.00099702 0.086492 -0.10702 
0.037004 -0.47235 0.090767 0.055582 -0.001798 0.08715 -0.015609 -0.06855 
0.11247 -0.89785 0.12431 0.015301 0.0046141 0.037661 -0.085813 -0.017746 
0.16886 -1.4102 0.11855 0.00050378 0.0044497 0.023686 -0.097322 -0.033859 
0.22575 -2.2904 0.11099 -0.01528 0.0037921 0.028783 -0.065262 -0.014129 
0.24515 -2.4662 0.095699 0.037332 0.038977 0.0064227 -0.0080457 0.025988 
0.25074 -1.1762 0.028947 0.025824 0.062817 -0.0047575 0.0018191 0.098823 
0.24597 0.35301 0.0021479 0.048184 0.07038 -0.0072237 0.015465 0.12875 
0.15324 0.97926 -0.010841 0.056569 0.047197 0.036017 0.01826 0.094877 
0.035688 0.58006 0.039305 0.01826 0.030098 0.01415 0.024673 0.08156 
-0.026131 0.025988 0.11559 0.030263 0.015137 0.0051074 0.029605 0.073175 
-0.014622 0.096357 0.092082 0.015301 0.035524 0.021549 0.0324 0.058049 
0.0080668 0.5776 0.051965 0.010862 0.049992 0.029769 0.056898 0.070544 
0.065776 0.77621 0.057884 0.049992 0.058871 0.012835 0.051472 0.042265 
0.077121 0.46875 0.078929 0.0034632 0.033715 0.015959 0.031249 0.11658 
0.0227 0.11494 0.10408 -0.0029489 0.028619 0.040128 0.061008 0.10984 
-0.042408 -0.0091966 0.10688 0.021384 0.033222 0.031907 0.098659 0.10441 
0.0021479 -0.1205 0.11526 0.010533 0.045389 0.022371 0.049828 0.086821 
0.049828 -0.20649 0.12266 0.040292 0.03947 0.030098 0.047362 0.062652 
0.032071 -0.23806 0.10869 0.031085 0.068407 0.013657 0.071366 0.070215 
0.024837 -0.27423 0.093562 0.016945 0.066434 0.0031344 0.10113 0.012999 
0.015794 -0.23576 0.055747 0.042265 0.053445 -0.0057439 0.074983 0.0026412 
0.046704 -0.14566 0.023193 0.022042 0.037004 0.022371 0.015137 0.0046141 
0.072188 -0.145 -0.01232 0.030263 0.043745 0.014808 -0.020048 0.013657 
0.083533 -0.22244 -0.046847 0.04095 0.052787 0.018918 -0.014951 0.01826 
0.023851 -0.13168 -0.014951 0.0059294 0.054596 0.023522 -0.023501 -0.001798 
-0.068386 0.082875 0.042923 0.025166 0.053774 0.007738 -0.0024557 -0.018568 
-0.10554 0.23907 0.044238 0.013821 0.065447 0.0039565 0.0016547 -0.025638 
-0.058685 0.32489 0.023851 0.0016547 0.031414 0.02533 0.023686 -0.031886 
0.032893 0.3997 0.00033937 0.039799 0.022206 1.0539e-005 0.01974 -0.026296 
0.08156 0.3073 -0.014787 0.015137 0.025495 0.0065871 0.004943 -0.044381 
0.10507 0.17791 -0.0083746 0.0042853 0.055418 0.01267 0.0011614 -0.024158 
0.064461 0.1276 -0.014622 0.052459 0.058542 0.030427 0.016616 -0.021692 
-0.026789 0.065776 0.0060938 0.045882 0.074326 0.040785 0.044073 -0.0050863 
-0.078579 0.025988 0.021549 0.040456 0.067256 0.013492 0.050979 0.00050378 
-0.088608 0.031085 0.031249 0.042594 0.052952 0.03799 0.081231 -0.047505 
-0.049149 -0.048327 0.024837 0.048348 0.037826 0.026646 0.064132 -0.08532 
0.0039565 0.033058 -0.0013048 0.061501 0.038483 0.01563 0.040128 -0.095185 
0.051636 0.40841 -0.044052 0.037497 0.039799 0.021384 0.042923 -0.042573 
0.0421 0.64813 -0.09091 0.013986 0.044238 0.026974 0.044238 -0.0039354 
0.029769 0.70913 -0.057534 0.018754 0.040785 0.022864 0.013492 0.030592 
-0.0014692 0.7453 -0.05737 0.035195 0.052787 0.017767 0.0067515 0.076463 
-0.025638 0.65948 0.0098754 0.023851 0.025001 0.077614 -0.026624 0.10228 
-0.020212 0.42798 0.055254 0.019576 0.024015 0.02122 0.041443 0.058871 
-0.021692 0.24433 0.069558 0.013986 -0.0082102 0.044238 0.043909 0.034209 
0.043909 0.25929 0.024837 0.025001 0.0095465 0.029441 0.032893 0.032236 
0.12398 0.13253 -0.0013048 0.040128 0.012342 0.031414 0.046868 0.099481 
0.035524 -0.042901 -0.058521 0.021878 0.033715 0.030098 0.043909 0.076627 
-0.047012 0.23414 -0.082525 0.031578 0.017438 -0.00097594 0.0036276 0.041114 
-0.082361 0.55622 -0.050958 -0.01117 -0.021034 -0.02087 -0.028762 -0.043559 
-0.15964 0.68989 -0.017253 0.018918 -0.0062372 -0.023829 -0.071674 -0.11031 
-0.22902 0.75171 -0.12412 0.062652 0.027796 -0.011334 -0.079237 -0.056055 
-0.20025 0.81715 -0.16243 0.080902 0.035031 0.038977 -0.035667 0.047691 
-0.14846 0.56806 -0.16835 0.094055 0.014643 0.056569 0.03799 0.15982 
0.033715 -0.057205 -0.062631 0.049335 0.024179 0.067749 0.10014 0.2001 
0.13056 -0.32701 0.052952 0.01004 -0.0070593 0.062981 0.10244 0.16969 
0.13434 -0.33654 0.095371 0.043251 0.015301 0.064625 0.097508 0.061008 
0.16015 -0.36137 0.14108 0.0023123 -0.0029489 0.033387 0.058049 -0.054246 
0.17232 -0.44769 0.16722 0.0069159 -0.006566 -0.0070593 0.043909 -0.096172 
0.17659 -0.69891 0.13203 0.024837 0.011848 -0.013636 -0.016924 -0.085813 
0.19024 -0.77602 0.074654 0.011026 0.021056 0.013164 -0.036818 -0.012156 
0.1544 -0.97085 -0.010183 0.066269 0.025988 0.022864 -0.027447 0.047691 
0.10721 -1.2765 -0.033201 0.032893 0.0088889 0.028125 -0.013471 0.088465 
0.086985 -0.77536 -0.042244 0.042758 0.02829 0.041607 0.0046141 0.091589 
0.056569 0.27853 0.0021479 0.048677 0.047197 0.01826 -0.0062372 0.074326 
0.086163 0.88555 0.034044 0.01152 0.0065871 0.020233 -0.0032777 0.076463 
0.062652 0.95246 0.058213 0.0031344 0.018096 0.014479 0.0042853 0.067585 
-0.00081153 0.71127 0.00066819 -0.0016336 0.011026 0.015465 -0.0027845 0.053281 
-0.11985 0.33805 0.0047785 0.017767 0.013821 0.013328 0.022535 0.053774 
-0.18364 0.059693 0.03388 0.029112 -0.0054151 0.024179 0.050321 0.056404 
-0.14089 -0.050464 0.095371 0.044402 0.0060938 0.030098 0.055418 0.08419 
-0.035996 -0.13892 0.10129 0.050321 0.021549 0.017932 0.020727 0.061008 
0.085177 -0.21586 0.1008 0.089945 0.024837 0.01974 -0.020212 0.045718 
0.17084 -0.14796 0.096521 0.034537 0.022864 0.042429 0.02681 0.059857 
0.15801 -0.01676 0.087643 -0.0047575 0.0034632 0.01004 0.025495 0.073832 
0.15127 0.0074092 0.085506 0.012506 -0.0042642 0.012835 0.039634 0.06742 
0.1738 -0.032215 0.12349 0.0070803 -0.0019624 0.014479 0.046704 0.033551 
0.17018 -0.26075 0.16969 0.023686 0.011684 0.023028 0.070051 0.050814 
0.063639 -0.70713 0.17166 0.024673 0.027468 0.02681 0.080902 0.033222 
-0.056877 -0.94849 0.12283 0.030098 0.060022 0.019411 0.092411 0.063474 
-0.066906 -0.67951 0.056569 0.066927 0.045553 0.049992 0.067913 0.04095 
-0.026789 -0.21291 0.018096 0.01974 0.038483 0.036017 0.097672 0.036182 
0.045553 -0.014787 -0.011498 0.0088889 0.022371 0.01826 0.039963 0.019576 
0.11921 -0.038956 0.0031344 0.011191 -0.023665 0.058213 0.018096 -0.047012 
0.11543 -0.092061 0.012999 -0.001798 0.018754 -0.0052507 0.021384 -0.082032 
0.095042 -0.46084 0.081231 0.016288 0.028783 0.0014903 0.01974 -0.13925 
0.027139 -0.59582 0.15703 0.012013 0.025988 -0.0077169 0.029769 -0.12281 
-0.0013048 -0.17558 0.13121 0.0031344 0.049664 0.01415 0.023193 -0.035338 
-0.045203 0.20635 0.10688 0.067585 0.044567 0.037332 -0.0049219 0.05476 
-0.00097594 0.47122 0.073832 0.040456 0.048677 0.031414 -0.010512 0.10902 
0.027303 0.65701 0.074819 0.023357 0.023851 0.036017 -0.036983 0.095699 
0.072353 0.63711 0.057391 0.028454 0.01711 0.027632 -0.031064 0.10655 
0.092411 0.31388 0.067091 -0.024652 0.020727 0.030263 -0.0080457 0.098988 
0.083533 0.053609 0.041772 -0.0062372 0.014643 0.010533 0.014808 0.09422 
-0.015938 0.16327 -0.010183 -0.0021268 0.021056 0.042758 0.051636 0.10754 
-0.08828 0.26718 -0.006566 0.0067515 0.029769 0.0090533 0.11872 0.10984 
-0.066906 0.2417 0.030263 0.04358 0.028947 0.007738 0.17626 0.10967 
-0.037969 0.29842 0.021549 0.039305 0.015137 0.030756 0.18399 0.072024 
-0.011005 0.35794 0.0028056 0.046046 0.017438 0.038977 0.12102 0.0059294 
0.018425 0.4025 -0.0090322 0.055418 0.020891 0.025824 0.068571 0.0018191 
0.046868 0.24532 0.026646 0.037661 0.023686 0.040292 0.055747 0.0011614 
0.13138 0.016288 0.058542 0.013164 0.03799 0.025495 0.035688 -0.029913 
0.1539 -0.078744 0.082382 0.015301 0.05624 0.013164 0.022535 -0.086142 
0.11724 0.11543 0.075476 0.015301 0.027303 0.014972 0.01974 -0.065097 
0.075312 0.26242 0.082711 0.073504 0.031742 0.035031 0.010533 -0.034023 
0.014315 0.49851 0.15308 0.035195 0.029934 0.015794 -0.028926 -0.047505 
0.0093821 0.69861 0.16294 0.016452 0.029769 0.0080668 -0.031721 0.012342 
0.0060938 0.47188 0.095206 0.021878 0.023522 0.033222 0.0060938 0.013492 
-0.045696 0.15867 0.048019 0.012342 0.031907 0.033387 0.018754 0.09422 
-0.082196 -0.25467 0.065283 0.0051074 0.013328 0.026317 0.01711 0.11822 
-0.13941 -0.44193 0.10178 0.026152 0.015959 0.028454 0.022042 0.1031 
-0.16999 -0.37222 0.079258 0.022535 0.011191 0.029934 0.047526 0.12053 
-0.14254 -0.21932 0.029769 0.038648 0.013657 0.020727 0.024508 0.084848 
-0.093376 0.10392 -0.031721 0.012999 0.01563 0.016945 0.017932 0.055418 
-0.019884 0.20027 -0.1016 0.035688 0.031907 0.027961 0.026317 -0.00031829 
0.068078 -0.30399 -0.16079 0.071037 0.05476 0.01711 0.045553 0.01415 
0.15801 -0.70253 -0.26322 0.044238 0.016945 0.0047785 0.031249 0.070544 
0.24647 -0.56804 -0.36811 0.03947 0.031578 0.010862 0.021384 0.12332 
0.31026 -0.52677 -0.3155 0.051308 -0.0032777 0.024837 -0.0031133 0.1539 
0.37208 -0.20057 -0.1455 0.025988 0.0088889 0.032729 0.02533 0.085177 
0.32423 0.41269 -0.0021268 0.038155 0.004943 -0.0024557 0.02122 -0.0078813 
0.19336 0.72475 0.084848 0.0082312 0.021056 0.028619 0.028619 0.0060938 
-0.021363 0.77539 0.094877 0.0051074 -0.021856 0.016123 0.029441 -0.038791 
-0.15651 0.81074 0.12776 0.026481 0.0095465 0.018425 0.069393 -0.0004827 
-0.24891 0.89541 0.19681 -0.0013048 0.030427 0.033715 0.065283 -0.032379 
-0.26963 0.84855 0.19073 0.015137 0.027468 0.033222 0.060844 -0.0064016 
-0.22195 0.62774 0.17791 0.024837 0.012177 0.014479 0.046375 -0.022185 
-0.17049 0.1927 0.14042 0.021713 0.01974 0.0011614 0.027961 -0.058521 
-0.11261 -0.24776 0.091918 0.037497 0.023851 0.010862 -0.012978 -0.07825 
-0.012814 -0.4638 0.053445 0.011355 0.03651 -0.0044286 -0.010348 -0.077922 
0.05065 -0.45837 -0.034352 0.017767 0.030098 -0.0029489 0.013164 0.028783 
0.10441 -0.32257 -0.12544 0.059364 0.031249 0.01563 0.021056 0.13434 
0.12809 -0.4957 -0.16292 0.017767 0.025001 0.033222 0.018754 0.21128 
0.10951 -0.49257 -0.15076 0.032071 0.04358 0.030263 0.0019835 0.18777 
0.159 -0.17673 -0.14139 0.053445 0.0421 0.043416 0.0079024 0.10178 
0.23956 -0.20764 -0.059836 0.032071 0.068078 0.061337 -0.009361 0.049006 
0.32933 -0.44604 0.051636 0.030427 0.031742 0.022535 -0.035996 -0.031557 
0.34051 -0.49389 0.1761 0.0019835 0.029112 -0.0044286 -0.040764 -0.073811 
0.24893 -0.29133 0.18235 -0.032215 0.016781 0.023522 -0.018733 -0.095185 
0.13615 -0.34115 0.14996 0.016945 -0.00081153 0.0070803 0.0072447 -0.11541 
0.031742 -0.44489 0.10622 0.0095465 0.027139 -0.00064712 0.01267 -0.10258 
-0.063782 -0.3423 0.0227 0.048184 0.064954 0.010862 0.030263 -0.095514 
-0.14451 -0.095185 -0.081703 0.077285 0.062488 0.013986 0.076627 -0.03912 
-0.15536 0.19616 -0.087786 0.03651 0.045389 0.010697 0.096521 -0.049478 
-0.13645 0.56987 -0.05885 0.01826 0.009711 -0.010512 0.049499 -0.012649 
-0.024816 0.87831 -0.060823 -0.00015387 0.012835 0.0067515 0.0018191 0.038483 
0.093891 0.88078 -0.044052 0.0036276 -0.0013048 -0.0042642 -0.030242 0.035195 
0.11247 0.72327 0.022042 0.039634 0.004943 -0.021363 -0.018733 0.036182 
-0.010676 0.63827 0.08567 0.016781 0.032893 0.022206 0.01974 0.032564 
-0.11541 0.65487 0.10967 0.04095 0.050321 0.029934 0.061666 0.05772 
-0.056712 0.55754 0.16804 0.031578 0.040456 0.025166 0.035031 0.093233 
0.032236 0.1927 0.23956 0.0065871 0.051308 0.035031 0.017932 0.10754 
0.053445 -0.17641 0.22559 -0.0014692 0.051965 0.023028 -0.0077169 0.12069 
0.057227 -0.37847 0.17676 -0.0034422 0.046211 0.01152 0.02533 0.049664 
0.057062 -0.36499 0.078929 -0.025474 0.024344 0.025495 0.009711 0.019411 
0.062981 -0.17509 -0.044874 0.016452 0.046375 0.03092 0.011191 -0.078415 
0.057062 0.16689 -0.095021 0.029934 0.055582 0.014643 0.0032988 -0.12708 
0.028454 0.41713 -0.085156 0.045718 0.037168 0.0036276 0.049992 -0.085649 
0.032729 0.45412 -0.11015 0.07449 0.030756 0.0013258 0.034866 -0.030242 
0.048677 0.47369 -0.14615 0.032564 0.017603 0.018425 0.00083261 0.060186 
0.058049 0.34627 -0.13185 0.028947 0.01415 0.014315 0.0034632 0.091096 
0.053774 0.057391 -0.016595 0.01826 0.01415 0.0070803 0.018425 0.13795 
0.030592 -0.15733 0.084684 0.040292 0.028947 0.024673 0.032071 0.071202 
0.059364 -0.20189 0.11329 0.041443 0.033551 0.0085601 0.047197 -0.042737 
0.029769 -0.36828 0.15982 0.018425 0.022864 -0.013471 0.081231 -0.077593 
-0.038462 -0.39524 0.0051074 0.023522 0.050979 0.044567 0.085835 -0.064111 
-0.080552 -0.14648 -0.1838 0.074326 0.030427 0.053938 0.050979 -0.008539 
-0.090417 0.37126 -0.17098 0.066105 0.050979 0.056733 0.0080668 -0.0075525 
-0.1062 0.6723 0.015794 0.0098754 0.037168 0.040621 0.0083956 -0.0032777 
-0.051122 0.27886 0.23825 -0.001798 0.031414 0.038483 0.0044497 -0.011334 
-0.027282 0.059857 0.32687 -0.023336 0.037826 0.017767 -0.0039354 -0.0090322 
-0.082032 0.19369 0.29579 0.02533 0.052952 0.049335 0.018589 0.037004 
-0.073811 -0.13777 0.27935 0.059693 0.053938 0.050979 0.047362 0.047691 
0.026481 -0.45048 0.19698 0.069393 0.038319 0.041772 0.052623 0.13861 
0.12168 -0.43914 0.086163 0.088465 0.05213 0.042923 0.027139 0.23397 
0.14617 -0.28081 0.046375 0.053938 0.040621 0.052623 0.03799 0.27195 
0.13121 -0.15552 0.077943 0.035195 0.042594 0.046868 0.060515 0.18613 
0.15275 -0.11755 0.079751 0.042758 0.026974 0.034537 0.049499 0.068078 
0.14206 -0.11031 -0.02498 0.034373 0.013986 0.027796 0.03947 -0.0050863 
0.15341 -0.23066 -0.14582 0.055418 0.022535 0.026974 0.012999 -0.084334 
0.16738 -0.55768 -0.17575 0.040456 0.030098 -0.0068948 0.020398 -0.05737 
0.085999 -0.76994 -0.12067 0.020727 0.0082312 -0.0029489 0.013328 0.039799 
-0.11952 -0.090746 -0.024816 0.039799 0.016616 0.025166 0.058871 0.067091 
-0.25023 1.0791 0.093069 -0.011663 0.029441 0.029605 0.10047 0.11198 
-0.22688 1.445 0.1419 -0.021363 0.012506 0.014479 0.11822 0.12233 
-0.11393 0.755 0.16163 0.0051074 -0.0031133 0.017438 0.037661 0.15407 
-0.055068 0.037332 0.023522 0.036346 0.0093821 0.033058 0.033222 0.11937 
-0.058521 0.12776 -0.17575 0.085341 0.04654 0.048513 0.053609 0.064625 
-0.02942 0.2731 -0.13464 0.10704 0.080244 0.071037 0.077121 0.089123 
-0.004593 -0.12264 0.078436 0.060186 0.062159 0.066598 0.054103 0.00297 
0.06331 -0.65041 0.22986 0.068242 0.041114 0.041936 0.047362 -0.026131 
0.12661 -1.2232 0.24449 0.028783 0.01711 -0.0014692 0.033222 -0.062631 
0.1345 -1.6234 0.1493 0.03799 0.035688 0.0064227 0.009711 -0.060823 
0.069393 -0.65452 -0.060494 0.084848 0.031249 0.033058 0.0042853 0.0032988 
0.033222 0.17873 -0.16062 0.05772 0.030756 0.011848 -0.0031133 0.044896 
0.073175 0.17199 -0.12149 0.0011614 0.032236 0.00050378 0.0093821 0.11839 
0.18054 0.0042853 -0.12396 0.0083956 0.019411 0.012342 -0.023665 0.12349 
0.24992 0.063474 -0.10258 -0.010019 0.00033937 -0.00097594 -0.035338 0.077778 
0.24433 0.24515 -0.025802 0.022864 -0.00064712 -0.0072237 0.00066819 0.034373 
0.16886 0.1664 0.081395 0.013657 0.0018191 0.0083956 0.079258 -0.0073881 
0.1026 -0.060658 0.15127 0.016781 0.010369 0.0227 0.092247 0.01267 
0.072188 -0.078415 0.17577 -0.00081153 0.040621 0.028125 0.070544 -0.011498 
0.24449 -0.0087034 0.25452 -0.032872 0.0051074 1.0539e-005 -0.016266 -0.020212 
0.3244 -0.00081153 0.22098 -0.043066 0.027632 -0.0027845 -0.049971 -0.015938 
0.17626 0.46415 0.10721 -0.024487 -0.0036066 0.0036276 -0.045039 0.061501 
-0.063289 0.81929 0.086657 0.019083 0.004943 0.023686 -0.015609 0.13976 
-0.22376 0.48191 0.10343 0.066269 0.041772 0.047691 0.031742 0.16969 
-0.26075 0.076299 0.14256 0.061501 0.064461 0.077614 0.093562 0.1784 
-0.23181 -0.18084 0.12431 0.032893 0.054596 0.070215 0.11083 0.12694 
-0.16654 -0.28262 0.04506 0.04506 0.042758 0.032071 0.066763 0.070544 
-0.15454 -0.50655 -0.092061 0.032564 0.018096 0.013821 0.005765 -0.0087034 
0.028454 -0.29018 -0.21192 0.02829 1.0539e-005 -0.02087 -0.074798 -0.094199 
0.18399 0.40743 -0.28821 0.048184 -0.03205 -0.032543 -0.061809 -0.081703 
0.30467 0.73231 -0.22803 0.028619 -0.037969 -0.035832 -0.014787 -0.032543 
0.31404 1.022 -0.16342 0.07038 -0.018568 0.01152 0.077449 -0.025145 
0.15752 1.4738 -0.2111 0.056404 0.0090533 0.015465 0.14206 -0.016595 
-0.043724 1.2478 -0.14418 0.07597 0.04917 0.060186 0.14272 0.01152 
-0.12264 0.86894 0.0016547 0.04506 0.04358 0.063145 0.084026 0.019905 
-0.054082 0.77851 0.10787 -0.011334 0.026317 0.020727 0.035688 0.027796 
0.030592 0.28428 0.091589 0.012835 0.039799 0.01267 -0.026789 0.077943 
-0.02794 -0.68839 0.14223 0.045882 0.066763 0.043745 -0.008539 0.11987 
-0.11294 -0.95622 0.16508 0.030592 0.06479 0.051472 0.038319 0.19369 
-0.19285 -0.56886 0.11148 0.072681 0.062323 0.053609 0.052952 0.19369 
-0.12511 -0.79641 -0.004593 0.049664 0.050157 0.055747 0.029934 0.047033 
0.082546 -1.2783 -0.054739 0.050814 0.034866 0.017603 -0.022185 -0.10225 
0.21194 -1.1667 -0.017582 0.065118 -0.02646 -0.044052 -0.05589 -0.27177 
0.098823 -0.56755 0.031578 0.0021479 -0.0077169 -0.056383 -0.080552 -0.35677 
0.0059294 0.19977 0.066927 -0.00031829 -0.0098543 -0.011663 -0.08828 -0.27325 
0.021384 0.96068 0.11888 0.012999 0.013492 0.01415 -0.068714 -0.052273 
0.11822 1.3092 0.16163 -0.017911 0.040785 0.05476 -0.0072237 0.10819 
0.25025 0.86203 0.16327 0.0023123 0.036839 0.075312 0.047033 0.14815 
0.33525 -0.21011 0.20438 -0.034188 0.02681 0.07449 0.044238 0.023357 
0.2731 -0.42286 0.19928 -0.047998 -0.00015387 0.034373 0.037497 -0.10916 
0.016781 0.20092 0.15275 0.0054362 0.011684 0.018425 0.093069 -0.060658 
-0.14188 0.6843 0.010369 0.0054362 0.017932 0.024344 0.089945 0.064954 
-0.11755 0.88357 -0.097651 0.023357 0.019411 0.01826 0.11954 0.19994 
-0.12379 0.82077 -0.18216 0.0592 0.033551 0.04654 0.10803 0.31388 
-0.27785 0.65898 -0.21603 0.068078 0.062817 0.060022 0.11921 0.33163 
-0.33934 0.26505 -0.14467 0.10737 0.048513 0.06331 0.088465 0.2121 
-0.15503 -0.40823 0.023357 0.066763 0.045224 0.030592 0.041278 0.068407 
0.15259 -0.84212 0.12201 0.023193 0.051965 -0.00064712 -0.0078813 -0.03205 
0.36813 -0.74051 -0.009361 0.048348 0.02829 0.021713 -0.055232 -0.038462 
0.48684 -0.50918 -0.12544 0.0064227 0.0065871 -0.021363 -0.042573 -0.18775 
0.34758 -0.43026 0.00033937 -0.049149 -0.00097594 -0.042244 0.042923 -0.40445 
0.19649 -0.065591 0.23183 -0.050136 0.022535 -0.036489 0.040456 -0.62032 
0.0051074 0.33213 0.40184 -0.031557 0.0090533 -0.047176 0.030263 -0.6976 
-0.23494 0.3387 0.40595 0.037004 0.027632 -0.054739 0.039141 -0.57001 
-0.37946 0.30007 0.27688 0.047197 0.025659 -0.028433 -0.0098543 -0.3155 
-0.34065 -0.28788 0.091096 0.073668 0.04358 0.037661 -0.020706 0.12316 
-0.18824 -1.5943 0.04358 0.086985 0.030427 0.065283 -0.012814 0.44853 
-0.10752 -1.8764 0.037497 0.033222 0.040456 0.081724 0.020727 0.57825 
-0.11212 -0.70039 -0.024158 0.01974 0.046868 0.08419 0.027139 0.48865 
-0.087293 0.99669 -0.16934 0.061995 0.047691 0.07449 0.096357 0.29727 
-0.064933 1.8507 -0.22293 0.041936 0.040785 0.052459 0.077614 0.19353 
-0.017582 1.8296 -0.1723 0.052952 0.04506 0.051143 0.095699 0.12431 
0.080573 1.3385 -0.14139 0.03536 0.046375 0.064132 0.12135 0.062323 
0.24482 0.69006 -0.066906 0.00083261 0.044731 0.0083956 0.12118 0.0026412 
0.36205 0.29744 -0.0055795 -0.0057439 0.038319 -0.0075525 0.061501 -0.073482 
0.32259 0.20767 0.041772 -0.037147 0.027303 0.0088889 -0.0011404 -0.14319 
0.26455 0.1105 0.1419 -0.054904 0.0034632 -0.0087034 -0.040435 -0.15816 
0.21227 -0.53548 0.17922 -0.033365 -0.0054151 -0.013636 -0.078908 -0.14434 
0.065118 -1.2783 0.20043 -0.026953 -0.00081153 -0.019226 -0.061645 -0.16555 
-0.078744 -1.0179 0.068736 0.040785 0.024179 -0.011498 0.0044497 -0.24809 
-0.16966 -0.14665 -0.070359 0.12677 0.04358 0.011191 0.068571 -0.22441 
-0.17673 0.047197 -0.065097 0.10014 0.036182 -0.0059084 0.089945 -0.10554 
-0.16802 -0.50244 0.05213 0.082546 0.03388 0.016452 0.076792 0.10376 
-0.10373 -0.70187 0.12217 0.036017 0.03799 0.038977 0.047691 0.30566 
-0.00097594 -0.5174 0.17363 0.04095 0.033551 0.031578 0.099974 0.42814 
0.1077 -0.99486 0.22887 0.06183 0.041936 0.036017 0.094877 0.38342 
0.041607 -0.88733 0.088958 0.017438 0.030098 0.044567 0.055254 0.23052 
-0.079401 0.81616 -0.12018 0.031414 0.039963 0.019083 0.034537 0.14831 
-0.16934 2.4579 -0.17114 0.032564 0.048513 0.0082312 0.051965 0.19698 
-0.11639 2.7781 -0.15832 0.024508 0.021056 0.032564 0.072024 0.28724 
-0.0021268 1.8387 -0.14977 0.05624 0.040128 0.05772 0.026974 0.27475 
0.28987 -0.06855 -0.071838 0.039963 0.037497 0.071202 0.018425 0.20997 
0.56017 -2.1941 0.13878 -0.0029489 0.0041209 0.081395 0.030592 0.20767 
0.55672 -3.2325 0.35745 0.011355 -0.001798 0.043745 0.018754 0.16114 
0.29678 -2.2312 0.41943 -0.052766 -0.010019 0.0031344 0.018589 0.093398 
-0.046354 -0.19482 0.31601 -0.05441 -0.00064712 -0.0078813 0.004943 0.012999 
-0.32602 1.6151 0.12332 -0.018897 -0.021199 -0.0022913 0.019576 -0.052931 
-0.41398 1.876 -0.017088 0.019083 0.025824 0.013821 0.026317 -0.012156 
-0.31418 0.63333 -0.049971 0.061172 0.087643 0.016616 0.043251 0.052294 
-0.094692 0.088958 -0.18874 0.094713 0.084026 0.071531 0.015465 0.097179 
0.024344 0.84477 -0.37189 0.13236 0.08008 0.065612 -0.01676 0.075312 
0.074326 1.3778 -0.34164 0.15209 0.086821 0.039141 -0.00081153 0.089945 
0.049664 1.097 -0.16506 0.058542 0.015959 -0.017253 0.013821 0.10622 
0.082711 0.30648 0.086492 0.0087245 0.0013258 0.010862 0.047855 0.11263 
0.21474 -0.94767 0.19188 0.0042853 0.0083956 -0.0064016 0.065776 0.18596 
0.35005 -2.2044 0.19402 -0.012978 -0.032872 -0.01528 0.015959 0.16558 
0.34643 -2.1735 0.18251 -0.009361 -0.027447 -0.0096899 -0.069043 0.1978 
0.21227 -0.91988 0.067749 -0.003771 -0.0004827 0.017438 -0.071181 0.14124 
0.067913 0.20767 -0.11228 0.017603 0.015465 0.041607 -0.046683 0.075476 
0.036017 0.089287 -0.19416 0.05624 0.0041209 0.037661 -0.0055795 0.02122 
0.11494 0.23923 -0.20962 0.019411 -0.0080457 0.03799 0.00083261 -0.006566 
0.11378 0.91826 -0.12527 -0.00097594 0.011848 0.0065871 0.017603 0.030263 
-0.038791 1.0574 0.08978 0.011848 0.026646 0.023851 0.03947 0.018425 
-0.15388 0.034209 0.293 -0.0021268 0.034537 0.060679 0.024673 0.018754 
-0.074304 -1.2652 0.42371 0.00066819 0.045718 0.033715 0.032071 0.0072447 
0.053116 -1.297 0.35712 0.0019835 0.06331 0.005765 0.035031 -0.023829 
0.071695 -0.2767 0.21556 -0.0019624 0.024015 0.032893 0.0079024 -0.037311 
0.047197 0.69499 0.15916 0.053445 0.03536 0.026152 -0.018075 -0.01676 
0.0032988 1.1943 0.051143 0.029605 0.034866 0.025659 -0.013143 0.053609 
-0.044052 1.2101 -0.055397 0.024344 0.029112 0.03388 0.034209 0.050979 
-0.11228 1.0005 -0.16062 0.038977 0.061337 0.060186 0.022371 0.00033937 
-0.157 0.83425 -0.21981 0.028125 0.072024 0.03947 0.0031344 -0.0067304 
-0.18824 0.61525 -0.21948 0.02681 0.074326 0.044238 -0.027775 -0.07825 
-0.14846 0.40266 -0.24661 0.029276 0.020069 0.061337 -0.017582 -0.23477 
-0.11804 0.30335 -0.25105 0.023357 0.033387 0.035195 -0.017417 -0.4347 
-0.10702 0.10869 -0.24003 0.072846 0.030427 0.00050378 0.014479 -0.48008 
0.050814 -0.60191 -0.17723 0.043416 0.033715 -0.0098543 0.0227 -0.43042 
0.18185 -1.1994 -0.071016 0.050486 0.028783 0.0019835 0.01152 -0.29626 
0.18366 -0.82666 0.049828 0.079422 0.020069 -0.0062372 0.029605 -0.13251 
0.19731 -0.73886 0.20208 0.047033 0.029934 -0.010348 0.1077 -0.014622 
0.21737 -0.73459 0.42107 0.015465 -0.011005 0.014643 0.1858 0.096028 
0.19024 -0.087129 0.55343 -0.01117 -0.017746 -0.01232 0.072681 0.13072 
0.15193 0.64271 0.46711 -0.032543 -0.0077169 -0.021856 0.015137 0.13927 
0.0689 1.0643 0.22493 0.01974 0.017438 -0.019555 0.05476 0.26801 
0.0074092 0.9786 -0.019226 0.03799 0.05476 0.018096 0.10145 0.31371 
-0.12067 0.96792 -0.23132 0.041607 0.060515 0.042923 0.10935 0.2297 
-0.15437 0.95838 -0.34444 0.072681 0.081231 0.081395 0.039799 0.13417 
-0.10834 0.69137 -0.16473 0.038648 0.054267 0.12266 -0.086142 0.031742 
-0.10784 0.35251 0.10113 -0.017253 0.050157 0.082711 -0.12083 -0.099624 
-0.072332 -0.44539 0.19731 -0.013307 0.021713 0.031907 -0.15585 -0.17838 
0.051636 -0.64877 0.075312 -0.00015387 0.0036276 0.018754 -0.11015 -0.15931 
0.11428 0.014972 -0.022514 0.036839 -0.015609 -0.0032777 0.0079024 -0.16144 
0.11526 0.41055 0.019083 0.036839 0.020891 -0.028433 0.09422 -0.1917 
0.051965 0.42699 0.065118 0.01415 0.027796 -0.055561 0.10836 -0.17641 
-0.028762 0.34627 0.10556 0.033058 -0.012978 -0.03205 0.11576 -0.056219 
-0.0078813 -0.090417 0.081231 0.022042 -0.0034422 -0.032215 0.12809 0.070708 
0.10162 -1.1672 -0.075784 0.070215 0.010204 -0.0050863 0.10754 0.13565 
0.20109 -1.7306 -0.29856 0.12102 0.044567 0.022535 0.068736 0.17528 
0.22855 -0.66291 -0.39228 0.11066 0.050814 0.03536 0.070215 0.079916 
0.11231 0.68167 -0.24398 0.065283 0.038155 0.025659 0.11888 -0.074798 
-0.13875 1.1912 -0.044874 0.0059294 0.024344 0.00050378 0.092247 -0.14862 
-0.3178 0.99192 0.088958 -0.019884 -0.0042642 0.00083261 0.04506 -0.15783 
-0.17394 0.14946 0.19879 0.021384 -0.00081153 -0.016595 -0.011663 -0.078908 
0.11872 -0.71552 0.24334 0.010369 0.015794 0.0074092 -0.010183 0.024673 
0.33229 -1.0794 0.30566 0.024015 0.02829 0.07038 -0.014951 0.16031 
0.4293 -0.92597 0.29859 0.015301 0.01826 0.042429 -0.043066 0.24729 
0.34544 0.033387 0.2172 -0.023994 0.0080668 0.0031344 -0.079566 0.24548 
0.084684 1.034 0.072846 0.0016547 -0.0039354 0.0052718 -0.013307 0.19944 
-0.21241 1.0588 -0.013471 0.021549 0.039799 0.015465 0.062981 0.15374 
-0.35233 0.46284 0.037497 0.039141 0.05624 0.045224 0.10507 0.1419 
-0.30235 0.30286 0.098166 0.066763 0.057391 0.038155 0.11198 0.12365 
-0.14846 0.64517 0.12003 0.031578 0.051308 0.05624 0.089616 0.093562 
0.014643 0.88834 0.034702 0.029605 0.044402 0.034044 0.046704 0.065776 
0.11099 1.1427 -0.2032 0.045389 0.021549 0.037826 0.01826 0.016781 
0.26028 0.97581 -0.29117 0.044238 0.0060938 0.038155 0.029934 0.011191 
0.47204 -0.33506 -0.18364 0.040621 -0.0040998 -0.0049219 0.022535 -0.084169 
0.41696 -1.8385 -0.071838 0.034373 -0.019226 -0.025638 0.029276 -0.10719 
0.22361 -2.1168 -0.020048 -0.00064712 -0.0013048 -0.047505 0.015794 0.027632 
0.10376 -1.4136 0.02533 0.035031 0.01152 -0.0022913 -0.016924 0.17708 
0.0042853 -0.36795 0.075476 -0.00064712 0.028454 0.0088889 -0.061809 0.2075 
-0.17871 0.49243 0.099645 -0.0052507 0.022535 0.023686 -0.01676 0.086328 
-0.38242 0.55211 0.12891 0.03651 0.020891 0.067256 0.031742 0.068736 
-0.53088 0.35942 0.24795 0.031249 0.063803 0.075805 0.12628 0.10228 
-0.47153 -0.10949 0.31388 0.045882 0.069886 0.095206 0.14223 0.1613 
-0.21455 -0.66159 0.34725 0.047197 0.058542 0.077943 0.086328 0.21194 
0.11905 -0.97726 0.37389 0.017767 0.057227 0.055582 0.0062583 0.21391 
0.35942 -0.97398 0.40644 0.016452 0.035688 0.0041209 -0.072003 0.14026 
0.33048 -0.20847 0.35366 0.043087 -0.013307 0.00033937 -0.15257 0.046868 
0.21852 0.35136 0.10145 -0.0016336 1.0539e-005 -0.0072237 -0.1039 -0.081703 
0.17215 1.0851 -0.086471 0.051308 0.026481 -0.025145 -0.048985 -0.14813 
0.08978 1.6075 -0.30268 0.061995 0.0093821 -0.020706 0.016452 -0.29511 
0.060679 0.86861 -0.43042 0.011191 0.0016547 -0.042408 0.11083 -0.32652 
0.065776 -0.23444 -0.45262 0.015959 0.014808 -0.026296 0.23414 -0.25088 
0.033222 -1.0036 -0.2642 0.0042853 0.043909 0.0046141 0.27409 0.0031344 
0.029276 -0.8482 -0.049807 0.073504 0.047197 0.067585 0.1396 0.26373 
0.13894 -0.5705 0.11921 0.036346 0.055582 0.074161 0.0070803 0.33985 
0.22 -0.66438 0.24088 0.030263 0.053116 0.04917 -0.0503 0.22164 
0.16755 -0.9212 0.40595 -0.0050863 0.01974 0.0095465 -0.080223 0.09126 
0.053609 -0.59977 0.38786 -0.093705 -0.014129 -0.020377 -0.12462 -0.033201 
-0.16736 0.3392 0.16031 -0.089431 -0.0068948 -0.0036066 -0.10308 -0.083512 
-0.40905 1.2601 -0.095021 0.016123 0.038155 0.042758 -0.031886 0.011191 
-0.49504 1.6968 -0.21126 0.065612 0.060022 0.058542 0.061337 0.11083 
-0.36565 1.266 -0.16523 0.095864 0.054596 0.084355 0.097015 0.14404 
-0.11015 0.42075 -0.094034 0.074326 0.029934 0.037004 0.081395 0.12858 
0.093726 -0.056712 0.075641 0.048184 0.027632 -0.0042642 0.058213 0.090603 
0.31174 -0.71716 0.22624 0.018918 0.00033937 0.0034632 0.030756 0.053445 
0.39164 -0.85297 0.25025 0.00297 0.028783 0.010697 0.0075736 0.041443 
0.25896 -0.60799 0.22822 0.054103 0.067585 0.029276 0.024015 0.078107 
0.16738 -0.87779 0.26422 0.061008 0.067091 0.03651 0.032071 0.13467 
0.23792 -0.45558 0.22246 0.049499 0.031907 0.064132 0.057391 0.077614 
0.34955 0.22033 0.079094 0.045882 0.039305 0.035853 0.057391 0.055089 
0.20487 0.4658 -0.17476 0.045553 0.038812 0.037332 0.077614 0.070215 
0.052952 0.12036 -0.29018 0.037661 0.043087 0.043251 0.090767 0.09833 
0.0018191 0.10211 -0.16523 -0.0024557 0.022535 0.030098 0.029112 0.010697 
-0.13629 0.84296 -0.097816 -0.031721 -0.011663 -0.0029489 -0.027611 -0.13925 
-0.43371 1.6369 -0.17854 -0.010841 -0.02498 0.0056006 -0.0096899 -0.16013 
-0.4592 2.158 -0.21011 0.018589 0.0028056 0.014479 0.030263 -0.13053 
-0.084334 2.0781 -0.12001 -0.013965 -0.0062372 -0.0040998 -0.009361 -0.094692 
0.35153 0.86647 0.079094 -0.038462 -0.0078813 -0.025145 -0.060329 -0.11261 
0.51331 -1.0596 0.32506 -0.045696 0.016945 0.0074092 -0.037476 -0.1108 
0.2103 -1.9932 0.36123 0.023851 0.062323 0.01563 0.056733 -0.0039354 
-0.23559 -2.2638 0.14535 0.12135 0.061008 0.039963 0.11181 0.077943 
-0.43717 -2.8697 0.005765 0.10639 0.056569 0.057391 0.088301 0.025988 
-0.29429 -2.4447 -0.03501 0.10113 0.055911 0.078107 0.058213 -0.098638 
-0.05441 -0.27029 -0.19186 0.099152 0.050814 0.048184 0.0036276 -0.10784 
0.11198 1.3397 -0.37798 0.099316 0.051472 0.051965 -0.044381 -0.013471 
0.2537 2.568 -0.58974 0.11115 0.055418 0.058049 -0.056219 0.038812 
0.3461 3.529 -0.71798 0.08419 0.055418 0.053116 0.013492 0.1858 
0.15028 3.606 -0.54568 0.058542 0.016945 0.041936 0.050157 0.29316 
0.13894 2.6459 -0.0059084 1.0539e-005 0.024837 0.057555 0.0032988 0.30746 
0.29037 0.49177 0.5041 -0.091239 -0.017417 0.00297 -0.099295 0.21194 
0.31569 -1.5109 0.64632 -0.085978 -0.025309 -0.008539 -0.11393 0.10129 
0.088465 -2.5958 0.54537 -0.048163 -0.017253 -0.016431 -0.078086 0.077121 
-0.0083746 -3.2927 0.47829 -0.067399 -0.0027845 0.0047785 0.0080668 0.014315 
-0.086471 -2.4797 0.35613 -0.0034422 0.0052718 -0.0031133 0.088794 -0.042244 
-0.24793 -0.61901 0.004943 0.090438 0.02533 0.0056006 0.20882 -0.11048 
-0.25878 0.41812 -0.27094 0.14815 0.057391 0.05065 0.20668 -0.15799 
-0.13826 1.2581 -0.24546 0.16081 0.057555 0.058706 0.13203 -0.097651 
-0.12856 2.2171 -0.0064016 0.056076 0.038155 0.053116 0.1276 -0.059672 
-0.16111 1.854 0.11724 -0.048163 0.015794 0.043416 0.17643 -0.039284 
0.071366 0.50838 0.12431 -0.028269 0.016452 0.028783 0.098988 -0.11935 
0.30796 -0.20962 -0.00081153 -0.040435 0.012342 0.0093821 -0.036489 -0.16605 
0.41959 -0.4273 -0.10949 0.017767 0.00033937 -0.016431 -0.13958 -0.13004 
0.23611 -0.41776 -0.043395 0.027632 0.028619 -0.00064712 -0.12001 -0.025967 
-0.044874 -0.36022 0.057555 0.041278 0.043251 0.016616 -0.083183 0.095042 
-0.18676 -0.36992 0.050979 0.081231 0.061008 0.043087 -0.031557 0.1225 
-0.20304 -0.35562 -0.0013048 0.054103 0.071695 0.044731 0.040456 0.078107 
-0.18265 0.11609 0.057391 0.035195 0.067091 0.038319 0.075805 0.14108 
-0.14188 0.51479 0.012506 0.06331 0.020233 0.0227 0.048184 0.25419 
-0.022679 0.86023 -0.082525 0.037826 0.01267 0.01152 0.047526 0.31256 
0.11296 1.0743 -0.21356 0.026646 -0.0032777 0.03092 0.06742 0.21013 
0.14289 1.1989 -0.21389 0.0421 0.020398 0.040456 0.086985 0.10787 
-0.053095 1.0008 -0.027282 0.0093821 0.032564 0.054432 0.049006 0.021384 
-0.23116 0.85644 0.20224 0.032729 0.038977 0.072188 0.039141 -0.024487 
-0.2009 0.59124 0.27212 0.034537 0.035524 0.075148 0.10211 -0.015444 
0.013986 -0.058192 0.34692 0.028125 0.028783 0.043745 0.09274 0.023522 
0.15505 -0.80759 0.39904 0.041607 0.017438 0.012013 0.045224 0.057884 
0.20388 -2.3971 0.39954 0.0018191 0.018096 -0.019226 0.016452 0.068736 
0.40759 -4.6482 0.28609 0.015465 -0.017088 -0.079895 -0.011992 0.0023123 
0.59864 -4.645 -0.22606 0.044402 -0.018733 -0.069208 -0.11343 -0.087622 
0.56428 -2.9759 -0.79723 0.07301 0.017274 0.012013 -0.15355 -0.17361 
0.293 0.83195 -0.67524 0.074983 0.014479 0.030263 -0.12166 -0.26568 
-0.071016 2.8715 -0.10965 -0.0080457 -0.0077169 0.013328 -0.0070593 -0.31336 
-0.18249 3.1425 0.34084 -0.042901 0.01711 0.014643 0.082875 -0.09946 
-0.010019 2.5304 0.59535 -0.015444 0.048184 0.022864 0.15834 0.11296 
0.1539 1.8273 0.72573 -0.038956 0.033222 0.020233 0.18481 0.18761 
0.10178 1.5519 0.78657 -0.084498 0.010862 0.027303 0.1613 0.26537 
-0.043559 1.6731 0.6233 -0.038627 0.033387 0.0592 0.075312 0.36172 
-0.19811 1.7257 0.085999 0.059528 0.052459 0.075476 -0.017417 0.3341 
-0.37206 1.2974 -0.43453 0.14568 0.030098 0.059528 -0.039449 0.046211 
-0.54486 0.32177 -0.68313 0.17593 0.057555 -0.075784 -0.074962 -0.42401 
-0.49175 -0.8995 -0.50194 0.10573 0.048513 -0.1552 -0.079237 -0.43536 
-0.24118 -1.3786 -0.20863 0.039963 0.010204 -0.13349 -0.071509 0.012177 
0.027961 -0.68822 -0.0032777 -0.021528 0.02681 -0.0029489 0.10869 0.35021 
0.12069 0.31832 0.12365 -0.057205 0.051636 0.13795 0.23068 0.46662 
-0.028104 0.72327 0.20405 -0.045532 0.06594 0.18958 0.26307 0.45971 
-0.21274 0.45281 0.22805 -0.044546 0.047526 0.14486 0.20043 0.23907 
-0.16588 -0.29462 0.28198 -0.0082102 0.040128 0.076956 0.13203 -0.027447 
0.058542 -1.2474 0.3854 0.022042 0.050486 0.035195 -0.022021 -0.133 
0.3387 -2.4981 0.38622 0.046704 0.020398 -0.0050863 -0.12083 -0.18134 
0.69269 -4.2601 0.25123 0.064625 0.0037921 -0.05441 -0.15289 -0.29988 
0.84937 -3.5316 -0.10078 0.028125 -0.019719 -0.071674 -0.13349 -0.38505 
0.6039 -0.1695 -0.44818 0.068078 -0.013143 -0.073647 -0.1113 -0.31912 
0.15752 2.4653 -0.52299 0.10293 0.013492 -0.046519 -0.016924 -0.075784 
-0.26404 3.116 -0.31221 0.10195 0.017274 0.0421 0.10918 0.10902 
-0.40708 2.9294 -0.070194 0.078929 0.050814 0.06035 0.14963 0.26718 
-0.22606 2.2356 0.14568 -0.015116 0.01267 0.037497 0.087643 0.28214 
0.0074092 0.90626 0.27244 -0.10637 -0.010019 0.009711 0.004943 0.16163 
0.13072 0.071366 0.2371 -0.072825 -0.0047575 -0.0059084 -0.024652 0.02681 
0.13713 -0.35216 0.17215 -0.082525 -0.009361 -0.014129 -0.0059084 -0.032543 
0.1151 -0.82206 0.13006 -0.023172 -0.0067304 0.0036276 -0.027118 0.00066819 
0.0054362 -0.99946 0.027303 0.07597 0.01152 0.031085 -0.015773 -0.0014692 
-0.10916 -0.93123 -0.029091 0.1031 0.038155 0.057391 0.0592 0.02533 
-0.043888 -1.4749 0.064625 0.063145 0.024508 0.031907 0.054432 -0.0016336 
0.02829 -1.337 0.082875 0.019083 0.02122 -0.01232 0.048513 -0.057863 
-0.08828 0.094548 0.10918 0.01267 0.037497 -0.0073881 0.043745 -0.031721 
-0.22754 0.84674 0.18563 0.087314 0.059035 0.030098 0.099316 0.0083956 
-0.32783 1.3247 0.15785 0.092082 0.090274 0.08156 0.082711 0.1373 
-0.42155 1.9255 0.10392 0.082711 0.090438 0.085835 0.092904 0.19106 
-0.4324 1.7775 -0.055726 0.022042 0.041114 0.04358 0.093726 0.11099 
-0.25138 1.3883 -0.36795 -0.016924 0.0087245 0.0021479 0.12628 -0.026296 
-0.16259 1.0528 -0.57462 -0.0040998 0.029605 0.025001 0.13138 -0.11343 
-0.12642 0.026646 -0.47728 0.071037 0.059857 0.057555 0.10376 -0.074962 
-0.0059084 -1.6249 -0.19992 0.098166 0.062652 0.085835 0.081724 0.0082312 
0.39066 -2.7385 0.11083 0.071366 0.029934 0.053774 -0.036818 0.061501 
0.79906 -1.8061 0.25419 -0.033859 -0.018897 0.0065871 -0.16161 -0.041422 
0.74793 -0.55784 0.2195 -0.059014 -0.031392 -0.03205 -0.17032 -0.11804 
0.47484 0.12924 0.046046 -0.013143 -0.0072237 -0.026789 -0.080717 -0.049807 
0.49276 0.51512 -0.13875 0.033387 0.02681 0.0093821 -0.10505 0.0032988 
0.83129 0.12628 -0.19761 0.067091 0.020398 0.010533 -0.15125 0.069229 
0.7134 -0.38554 -0.041093 0.091096 0.077449 0.036346 -0.052766 0.18383 
0.24515 -0.18035 0.20701 0.049499 0.034044 0.049992 0.029441 0.22789 
-0.18857 -0.054246 0.35876 0.025166 0.046868 0.060186 0.05772 0.22 
-0.59533 0.35301 0.32785 0.035853 0.075641 0.071037 0.11329 0.12299 
-0.85658 0.60489 0.25255 0.060022 0.080573 0.074654 0.15374 -0.017911 
-0.82403 0.19846 0.16574 0.091589 0.080738 0.043087 0.15028 -0.040106 
-0.4324 -0.36515 -0.006566 0.053774 0.035524 0.011684 0.12809 -0.0039354 
0.07038 -0.86069 -0.15141 0.024673 0.012177 -0.01939 0.11658 -0.024158 
0.40052 -0.52891 -0.25943 0.038812 0.021713 0.022371 0.10852 -0.018075 
0.41746 0.38638 -0.2859 0.013164 0.024673 0.067256 0.081067 -0.011334 
0.30566 1.0006 -0.19942 0.026974 0.024344 0.050814 0.011191 -0.021528 
0.17692 1.3089 -0.018568 -0.016595 0.047362 0.048184 -0.012649 -0.062467 
0.11642 1.34 0.23726 -0.053588 0.068736 0.077614 -0.017582 -0.095678 
0.171 0.87798 0.36665 0.0031344 0.048677 0.042594 -0.023829 -0.089759 
0.16442 0.35893 0.42864 -0.026296 0.027961 0.0056006 -0.091075 -0.068714 
-0.001798 0.25946 0.41433 0.013821 0.020727 0.040621 -0.14122 -0.015938 
-0.094692 0.22263 0.19961 0.026317 0.045389 0.013164 -0.091075 0.10178 
0.042429 -1.0644 -0.014951 0.0227 0.045718 -0.0060728 -0.012649 0.17445 
0.19961 -3.1171 -0.17756 0.060844 0.027139 0.0026412 0.011848 0.21457 
0.1909 -2.5257 -0.37206 0.087314 0.011355 0.020562 0.0032988 0.2075 
0.022371 -0.11837 -0.38751 0.11263 0.017274 0.032893 0.042758 0.17363 
-0.11672 0.90232 -0.15799 0.12381 0.031414 0.034866 0.042429 0.11017 
-0.22935 1.2854 -0.016595 0.040292 0.023193 0.023028 0.06035 0.040456 
-0.28393 1.9367 0.062323 -0.024487 0.01711 0.024015 0.10096 0.074983 
-0.31501 1.9937 0.11198 -0.045368 0.025495 0.045718 0.16722 0.087643 
-0.34164 1.1826 0.0083956 -0.02235 0.053938 0.061337 0.18152 0.06742 
-0.24908 0.36139 -0.094363 0.0026412 0.060679 0.073668 0.14354 -0.009361 
-0.013965 0.092082 -0.047012 -0.00097594 0.031742 0.045882 0.07449 -0.16506 
0.26768 0.071531 0.028454 0.0036276 -0.0052507 0.0011614 -0.0047575 -0.19515 
0.61739 -0.47251 0.04917 0.029276 -0.047505 -0.048327 -0.066248 -0.16555 
0.7915 -0.76501 0.0069159 -0.0080457 -0.088937 -0.11787 -0.090088 -0.1085 
0.75352 -0.43141 -0.033365 0.019247 -0.058521 -0.092883 -0.095021 -0.063453 
0.40102 -0.27851 -0.068386 0.052787 -0.029091 -0.044052 -0.063289 0.070708 
0.050321 -0.7068 0.12266 0.04095 0.013986 0.018425 -0.044052 0.18383 
-0.068057 -1.1695 0.41696 0.044731 0.060679 0.040785 -0.0019624 0.20619 
-0.18775 -0.46857 0.46974 0.043087 0.090438 0.086821 0.056569 0.18465 
-0.4832 0.79051 0.29842 0.064461 0.099974 0.13401 0.15341 0.15341 
-0.64745 0.89541 0.11609 0.058049 0.089287 0.093398 0.16097 0.15472 
-0.45459 0.17643 0.010697 -0.012485 0.090931 0.0592 0.10688 0.18728 
-0.2716 0.2736 -0.072332 -0.0070593 0.035524 0.034209 0.08419 0.19435 
-0.18939 0.45511 -0.11031 0.043745 0.025166 0.026152 0.039963 0.10622 
-0.17525 0.41384 -0.14106 0.021549 -0.0044286 0.028619 0.047855 -0.0095255 
-0.218 0.53107 -0.18907 0.047033 0.018425 0.010369 0.077121 -0.023665 
-0.25088 0.74678 -0.21373 0.037332 0.012999 0.040292 0.1026 -0.039778 
-0.15421 0.83704 -0.12215 0.018425 0.030756 -0.0052507 0.09126 -0.033201 
-0.12938 1.1623 0.0085601 0.051308 0.036017 0.02122 0.084355 0.066598 
-0.070194 0.97268 0.050814 0.0075736 0.048348 0.048348 0.060515 0.16541 
-0.059672 0.59042 0.079258 0.024673 0.049006 0.076134 0.085177 0.1853 
-0.0054151 0.17462 0.02829 0.0689 0.0324 0.04654 0.050814 0.038977 
0.13499 -0.26634 0.046704 0.053938 0.011355 0.00297 0.013657 -0.18611 
0.31503 -1.0644 0.12743 0.01563 -0.020706 -0.058356 -0.055068 -0.10078 
0.55918 -2.7907 0.18761 0.015137 -0.022514 -0.067728 -0.072496 0.14946 
0.75796 -3.4944 0.17922 0.022535 -0.01117 -0.016431 -0.089266 0.19714 
0.76454 -2.2238 0.26603 0.01826 -0.015938 0.017767 -0.084334 0.11165 
0.59634 -0.68 0.3313 -0.086307 -0.079072 -0.012156 -0.070359 0.067913 
0.40578 0.46021 0.41154 -0.0868 -0.071674 -0.012814 0.013328 -0.013636 
0.099974 0.43225 0.39888 -0.023007 0.004943 0.0013258 0.087643 -0.14106 
-0.17657 0.1733 0.17725 0.036182 0.070051 0.032729 0.11543 -0.17838 
-0.30827 0.36419 -0.062302 0.10556 0.08008 0.045389 0.089287 -0.18726 
-0.27653 1.061 -0.24579 0.14469 0.099152 0.051472 0.069558 -0.1667 
-0.22524 1.7096 -0.48896 0.098166 0.079258 0.059528 0.032564 -0.089102 
-0.27555 1.6825 -0.68263 0.097837 0.030756 0.020727 -0.00064712 -0.012814 
-0.44325 1.9095 -0.71174 0.083368 0.034044 0.015301 0.011026 0.092904 
-0.44835 1.8918 -0.60437 0.08304 0.025824 0.034373 0.00099702 0.19862 
-0.21718 0.85957 -0.19202 0.078929 0.036182 0.054103 0.033058 0.3027 
0.040456 -0.32684 0.3729 -0.003771 0.043416 0.039963 0.071202 0.33459 
0.17347 -1.1734 0.70962 -0.061316 0.033387 0.037661 0.12497 0.31552 
0.23348 -1.7155 0.7693 -0.056877 0.038155 0.03536 0.053281 0.25189 
0.35153 -1.7661 0.63777 -0.050464 0.013492 0.0083956 -0.0078813 0.14897 
0.51084 -1.6269 0.38688 0.0087245 0.034209 -0.024816 0.0013258 0.039799 
0.37701 -0.70779 0.1756 0.019411 0.023851 -0.0095255 0.062817 -0.077922 
-0.060823 0.25354 0.034702 0.010204 0.040456 -0.0075525 0.083533 -0.18002 
-0.19466 0.33903 -0.051615 0.036182 0.035524 -0.00031829 0.055911 -0.27472 
0.095699 0.18448 -0.091075 -0.010512 0.044073 -0.00081153 -0.027447 -0.3298 
0.33015 0.17232 -0.012978 -0.033201 -0.0031133 0.009711 -0.068879 -0.26897 
0.29448 0.38178 0.14387 -0.0088678 -0.0062372 0.013328 -0.10735 -0.20436 
0.15966 0.98502 0.15341 -0.017582 -0.0013048 0.0082312 -0.071181 -0.1552 
0.073504 1.0061 -0.10341 0.051143 0.0324 0.014479 -0.033859 -0.15092 
0.20865 -0.78885 -0.1547 0.052623 0.020233 0.013657 0.014315 -0.060823 
0.21704 -0.99058 -0.37518 0.084519 0.028947 0.051636 0.029605 0.1396 
-0.056383 0.43834 -0.53746 0.15292 0.079258 0.06331 0.09833 0.31832 
-0.31977 1.5187 -0.46462 0.068407 0.060844 0.11198 0.10803 0.4385 
-0.36449 1.8926 -0.21521 0.043745 0.076299 0.087972 0.083533 0.27721 
-0.39442 1.9911 0.096028 -0.0082102 0.031907 0.023193 0.016945 0.057227 
-0.39442 1.3137 0.29004 -0.0090322 0.032729 0.01974 -0.0014692 -0.13843 
-0.19054 -0.13826 0.26077 0.024837 0.031578 -0.00081153 0.042594 -0.19597 
0.14864 -1.3421 0.27787 0.063639 0.035853 -0.011827 0.03947 -0.087458 
0.37915 -2.3919 0.36287 0.074161 0.032893 0.013986 0.024344 0.014972 
0.5679 -3.6094 0.37718 0.072188 -0.0016336 -0.0024557 -0.0055795 0.012506 
0.82225 -3.1776 0.18383 0.0023123 -0.0096899 -0.032708 -0.028433 -0.083347 
0.99702 -1.8122 -0.10258 -0.022679 -0.024323 -0.037805 -0.1159 -0.121 
0.76273 -0.72604 -0.38406 0.01711 -0.017582 -0.031064 -0.13645 -0.056877 
-0.0047575 1.3234 -0.48452 0.020398 0.024673 -0.00064712 -0.075455 0.0075736 
-0.89095 3.0174 -0.40395 0.030098 0.066763 0.022864 0.052623 0.026974 
-1.1542 3.0064 -0.22787 0.030756 0.066434 0.062159 0.12464 0.088465 
-0.87894 1.9251 -0.051287 0.036017 0.069229 0.10392 0.15785 0.10408 
-0.41168 1.0731 0.009711 0.056569 0.063474 0.055911 0.17774 0.0028056 
-0.12182 0.7675 0.12612 0.019247 0.047362 0.048348 0.13499 -0.085485 
-0.048327 0.36304 0.27705 0.009711 0.049499 0.058213 0.032236 -0.076277 
0.14634 -0.20896 0.43702 0.015137 0.036017 0.027139 -0.049807 -0.056548 
0.38227 -1.2591 0.5725 -0.0075525 0.032071 0.016616 -0.092719 -0.078086 
0.37356 -1.9702 0.51528 -0.010676 0.013657 0.05772 -0.10423 -0.083676 
0.15768 -1.5769 0.28708 0.04654 0.048184 0.038977 -0.0047575 0.037168 
0.020562 -0.73295 0.080244 0.07597 0.064954 0.068571 0.048019 0.19106 
0.05772 0.035524 -0.0096899 0.095535 0.063803 0.044896 0.075312 0.16985 
0.036346 0.54307 -0.094199 0.027468 0.061172 0.056733 0.092904 0.14305 
-0.25039 1.4107 -0.1501 0.032236 0.073997 0.056076 0.17347 0.14157 
-0.55604 2.7111 -0.1501 0.042594 0.067749 0.049335 0.21654 0.24499 
-0.59615 3.054 -0.09798 0.018425 0.010369 0.047691 0.21687 0.23315 
-0.35068 2.4891 -0.10735 -0.0031133 0.0026412 0.0095465 0.079258 0.063145 
0.024673 0.35383 -0.15191 0.039963 -0.01117 -0.013471 -0.055561 -0.04323 
0.55228 -3.1051 -0.11574 0.058542 0.0072447 0.0013258 -0.17032 0.0044497 
1.013 -4.2391 -0.02087 0.08008 -0.020212 -0.0032777 -0.23214 0.08156 
1.23 -3.4239 -0.014458 0.020562 -0.063289 -0.055068 -0.28706 0.062817 
1.0214 -3.2769 -0.0068948 -0.035832 -0.076277 -0.079566 -0.23822 -0.094527 
0.52235 -2.6541 0.054103 -0.014458 -0.038627 -0.024652 -0.083018 -0.1667 
-0.080059 -0.21998 0.15456 -0.014458 0.032893 0.034044 0.1105 -0.206 
-0.66307 2.2934 0.25123 -0.022843 0.05213 0.061501 0.25156 -0.14566 
-1.0351 3.1259 0.34577 0.026646 0.078765 0.082217 0.16689 0.0014903 
-0.9794 2.3996 0.31684 0.027303 0.098494 0.12924 0.19468 0.29924 
-0.46331 1.6004 0.24433 0.037826 0.10984 0.13072 0.14174 0.44952 
-0.20337 1.0789 0.079587 0.038812 0.083697 0.072188 0.1128 0.32128 
-0.23888 1.1027 -0.10916 0.027303 0.039963 0.032236 0.079258 0.17824 
-0.23116 1.4457 -0.10965 -0.0016336 0.041114 0.018918 0.073997 0.15489 
-0.071345 2.0674 0.14058 -0.044546 0.040128 0.0227 0.01415 0.16738 
0.10228 1.5661 0.3313 -0.064604 0.017932 0.044896 0.0065871 -0.045532 
0.25748 -0.066741 0.36386 -0.031557 -0.00097594 -0.020377 0.01267 -0.32339 
0.40611 -1.835 0.34133 -0.060987 -0.023829 -0.063289 -0.032872 -0.36219 
0.66852 -2.8554 0.050157 -0.01232 -0.082196 -0.10357 -0.13563 -0.24924 
0.88176 -3.1457 -0.50079 0.086821 -0.095514 -0.093705 -0.15141 -0.04471 
0.68266 -1.7868 -0.9309 0.19665 -0.049314 -0.045532 -0.074962 0.1756 
0.087479 -0.24858 -0.76846 0.23315 -0.0016336 -0.011334 0.055418 0.25025 
-0.29544 0.077943 -0.37156 0.16393 0.032071 0.047033 0.15045 0.2024 
-0.42072 0.72162 -0.068714 0.12217 0.099481 0.069722 0.18037 0.038319 
-0.40872 1.3642 0.2029 0.098166 0.11444 0.10704 0.13467 0.010533 
-0.34904 1.7295 0.24926 0.045553 0.10096 0.086985 0.066434 0.0090533 
-0.27752 1.9312 0.034209 0.018918 0.058377 0.047033 0.04506 0.040292 
-0.11919 1.1529 -0.14681 -0.0027845 0.027961 0.029769 0.050814 0.097837 
0.25502 -0.486 -0.14369 -0.037805 0.030756 0.01563 0.057227 0.12118 
0.52137 -1.0892 0.058213 -0.03501 0.020398 0.00083261 0.0088889 0.12497 
0.53057 -0.93172 0.30631 -0.097487 0.0046141 -0.004593 -0.069372 0.063474 
0.54175 -0.74215 0.43373 -0.13152 0.00017495 -0.022185 -0.065919 0.076956 
0.51446 -0.49142 0.45511 -0.063618 -0.018239 -0.022843 -0.021034 0.11806 
0.42502 -0.41037 0.42699 -0.049149 -0.020541 -0.023829 -0.018239 0.037168 
0.13878 0.073668 0.29892 0.0026412 0.027961 0.00099702 -0.024158 0.005765 
-0.28245 0.86417 0.079094 0.064954 0.057555 0.027632 0.09126 -0.0004827 
-0.49257 1.2897 -0.18775 0.10869 0.086657 0.07597 0.18646 0.08715 
-0.48271 1.1545 -0.28936 0.13417 0.071859 0.098659 0.21243 0.10277 
-0.39623 0.51331 -0.044874 0.095371 0.069886 0.12135 0.15505 0.098823 
-0.26749 0.020398 0.15094 0.03092 0.067749 0.087643 0.052623 0.091096 
-0.071016 0.028619 0.29793 -0.01232 0.061172 0.0592 0.016452 0.068242 
0.092576 0.33213 0.25929 -0.050958 0.036346 0.016616 -0.048327 -0.0027845 
0.18547 1.6195 -0.013471 -0.041422 0.018096 -0.019884 -0.070852 -0.0027845 
0.045718 2.5466 -0.2402 0.034702 0.009711 0.0024767 -0.057041 0.04917 
-0.019884 1.5712 -0.27851 0.069886 0.016781 -0.013636 -0.090417 0.098166 
-0.064275 -0.4689 -0.39376 0.12776 -0.009361 -0.041422 -0.099953 0.04095 
-0.19219 -2.1683 -0.70204 0.15834 -0.023172 -0.031721 -0.024816 0.021056 
-0.094527 -4.6486 -0.75596 0.15176 -0.022679 -0.073647 0.014972 -0.048985 
0.42864 -4.6477 -0.3035 0.11066 -0.042079 -0.098309 -0.029913 -0.11787 
0.81961 -4.6468 0.12792 0.076627 -0.011827 -0.065919 -0.05326 -0.17904 
0.90659 0.41779 0.35317 0.047362 0.027961 -0.0083746 0.039305 -0.18956 
0.78657 3.8847 0.23463 0.0044497 0.043745 0.041936 0.087314 -0.053095 
0.47796 3.8779 0.14963 -0.024158 0.080738 0.09126 0.0689 0.094548 
0.24301 3.8572 0.22772 -0.037147 0.066105 0.097672 -0.0098543 0.13976 
-0.10012 2.2684 0.4311 -0.094527 0.052459 0.069064 0.041936 0.007738 
-0.45361 1.1537 0.42371 -0.086142 0.070215 0.079751 0.10639 -0.068386 
-0.58563 -0.23773 0.3849 -0.025638 0.05476 0.055582 0.090438 -0.062796 
-0.50885 -1.2614 0.3826 -0.026131 0.066434 0.078929 0.039799 0.072846 
-0.38587 -0.82831 0.31388 0.018589 0.047855 0.054103 0.0227 0.27014 
-0.31106 -0.23691 0.21276 0.040621 0.024015 0.046375 0.056404 0.21523 
-0.22968 0.0088889 -0.023994 0.046211 0.021878 0.067585 0.062323 0.11757 
-0.11574 -0.010841 -0.17197 0.068736 0.032893 0.047033 0.040292 0.1493 
-0.054904 -0.040928 -0.17328 0.068736 0.025659 0.014643 0.012999 0.24614 
0.015137 -0.11524 -0.12248 0.045553 0.019905 0.011848 0.010369 0.29628 
0.06331 -0.36762 -0.11607 0.04917 0.025166 0.0013258 -0.020048 0.21769 
0.049006 -0.44456 -0.10587 0.0024767 0.029934 0.022864 -0.0039354 0.11526 
0.066927 -0.45887 -0.086471 0.0095465 -0.0062372 0.015794 -0.0096899 -0.091239 
0.21802 -0.72588 0.015301 0.015137 -0.004593 -0.02794 -0.067728 -0.36943 
0.42436 -0.99732 0.17462 0.004943 0.007738 -0.067728 -0.08269 -0.36713 
0.46711 -0.46101 0.37027 -0.0072237 0.01152 -0.056877 -0.060165 -0.1746 
0.17939 0.59683 0.43193 -0.02646 0.041607 0.016781 0.048677 -0.078908 
-0.14254 0.94046 0.3244 -0.019884 0.069393 0.046046 0.080902 -0.17295 
-0.16901 0.54373 0.19188 0.040128 0.071037 0.048841 0.071037 -0.20879 
-0.064275 0.47878 0.082546 0.038319 0.062652 0.053445 0.085012 -0.13284 
-0.085978 1.1657 0.037332 0.034702 0.034866 0.064625 0.15209 -0.071345 
-0.18479 1.706 -0.07973 0.021878 0.0042853 0.024344 0.18432 -0.063453 
-0.12774 0.8673 -0.28854 0.022864 -0.012156 0.0037921 0.14864 -0.031228 
-0.20485 0.18892 -0.47695 0.11592 0.00050378 0.021713 0.067749 0.079258 
-0.46791 0.6848 -0.53351 0.19122 0.04506 0.030098 0.046375 0.14617 
-0.52726 0.0013258 -0.31155 0.17429 0.052952 0.0093821 0.052294 0.11214 
-0.083018 -3.2906 0.023522 0.1128 -0.010841 -0.011992 -0.043559 -0.006566 
0.63909 -4.6508 0.11066 0.00099702 -0.035667 -0.046847 -0.17641 -0.1085 
0.8839 -3.3595 0.11691 -0.037311 -0.038627 -0.050958 -0.20452 -0.12182 
0.77621 0.12332 0.18481 -0.062138 -0.023007 -0.044546 -0.20584 -0.0868 
0.76848 2.4074 0.15719 -0.10637 -0.01939 -0.025967 -0.1838 -0.031557 
0.63629 2.9894 0.13434 -0.094692 0.0032988 -0.034352 -0.084498 0.065447 
0.087479 2.398 0.23003 -0.04471 0.018589 0.016945 0.066927 0.15571 
-0.44637 0.81419 0.35136 0.026152 0.066763 0.079422 0.21819 0.18974 
-0.61588 -0.14336 0.34035 0.071859 0.081395 0.087808 0.21819 0.13417 
-0.5442 0.27984 0.11674 0.068242 0.054596 0.073175 0.21243 0.17807 
-0.3543 1.1067 -0.10176 0.10622 0.073997 0.064954 0.19517 0.1955 
-0.26519 1.8801 -0.13284 0.11083 0.079258 0.066763 0.22263 0.10425 
-0.3035 1.7648 -0.061973 0.059364 0.080573 0.044073 0.25288 0.14058 
-0.29807 1.081 -0.034352 0.056898 0.048348 0.057391 0.25419 0.26899 
-0.26354 -0.085978 -0.035832 0.063474 0.053774 0.08008 0.12628 0.37274 
-0.19137 -1.6283 0.005765 0.026317 0.044238 0.064461 -0.029584 0.25239 
-0.055561 -2.224 0.16048 0.039141 0.056404 0.03799 -0.08828 0.027139 
0.026152 -1.7951 0.29365 0.010697 0.038319 0.045389 -0.078086 -0.19301 
-0.019061 -0.44358 0.19336 -0.016595 0.054267 0.033387 -0.024487 -0.31681 
-0.1113 0.43932 -0.12757 0.0090533 0.048348 0.0227 0.042429 -0.2397 
-0.044546 0.7453 -0.34148 -0.0021268 0.027139 0.040292 0.055911 -0.14007 
0.30204 1.057 -0.23395 -0.023829 -0.011827 0.015465 -0.027447 -0.10554 
0.73264 0.78344 -0.0075525 -0.067564 -0.089102 -0.031886 -0.1718 -0.15585 
1.1438 0.027632 0.0074092 -0.12642 -0.1307 -0.11968 -0.3012 -0.2573 
1.2879 -0.82239 -0.053424 -0.092883 -0.16276 -0.18578 -0.31566 -0.25467 
1.0314 -1.5307 -0.14023 -0.012978 -0.13201 -0.1672 -0.26568 -0.12248 
0.51594 -1.507 -0.19186 0.10836 -0.051944 -0.10357 -0.12511 0.13072 
-0.16292 -1.1328 -0.056877 0.20372 0.012177 -0.0024557 0.075312 0.26192 
-0.54157 -1.4306 0.087479 0.21276 0.078436 0.09685 0.26521 0.37093 
-0.59484 -1.2449 0.16837 0.22312 0.10787 0.13319 0.31207 0.41548 
-0.51888 0.27129 0.087643 0.19122 0.12546 0.13828 0.25978 0.34643 
-0.21586 1.3487 -0.16079 0.10162 0.12349 0.10096 0.16837 0.19057 
-0.055397 1.4584 -0.30235 0.045882 0.098494 0.087643 0.074326 0.043416 
-0.22672 0.95098 -0.19531 -0.023007 0.080902 0.085177 0.046375 0.063803 
-0.40806 0.47007 0.01415 -0.047176 0.062159 0.082382 0.06183 0.11559 
-0.27588 0.17215 0.2149 -0.032543 0.043416 0.071202 0.058542 0.10573 
-0.12544 0.066434 0.33509 -0.049149 0.048348 0.05476 0.064296 0.10951 
-0.2499 0.58384 0.31273 -0.047834 0.045718 0.019576 0.079916 0.12168 
-0.34723 1.0856 0.21276 -0.0083746 0.062817 0.053116 0.071037 0.13779 
-0.034681 1.2923 0.073504 -0.001798 0.048019 0.028619 0.042265 0.14617 
0.48766 0.83425 0.034209 0.025166 0.031907 0.0034632 -0.008539 -0.0080457 
0.37405 0.34923 0.01711 0.04095 0.014479 -0.0072237 -0.063618 -0.21817 
0.0041209 -0.13448 0.045882 0.037004 0.015301 -0.037969 -0.11327 -0.43585 
0.18728 -1.5271 0.1345 0.033387 0.0047785 -0.08384 -0.12544 -0.49093 
0.4579 -2.4328 0.17445 -0.017582 -0.014787 -0.082525 -0.065426 -0.3492 
0.35235 -1.4105 0.13187 0.0051074 0.015794 -0.017911 -0.0087034 -0.15026 
0.20931 -0.4273 0.14535 0.011848 0.01267 0.0059294 -0.0052507 0.0065871 
0.16097 -0.15372 0.22263 0.00297 0.022371 0.041772 0.063474 0.17676 
0.1179 0.24449 0.21934 0.061666 0.046211 0.086492 0.1174 0.41647 
0.040456 0.95772 0.14585 0.037661 0.042429 0.096521 0.08978 0.51331 
-0.18298 1.3969 0.0088889 0.0016547 0.00099702 0.12069 0.0786 0.3831 
-0.15224 1.1009 -0.1866 0.041607 0.018918 0.043251 0.085341 0.25502 
0.034866 0.96808 -0.34888 0.030756 0.067091 0.040785 0.061008 0.11707 
0.038319 1.0296 -0.42122 0.058213 0.059528 0.013164 0.016945 -0.0031133 
-0.053095 0.78295 -0.51839 0.12513 0.038319 0.01974 -0.031557 -0.08532 
-0.004593 -1.0984 -0.45459 0.049006 0.013492 -0.02087 -0.097158 -0.17575 
0.2491 -4.3642 0.013164 -0.0087034 -0.035174 -0.052931 -0.17805 -0.23872 
0.28839 -3.2943 0.39625 -0.016595 -0.031557 -0.034188 -0.091075 -0.21784 
0.013328 0.54356 0.6284 0.026974 0.033058 0.015137 0.056569 -0.087786 
-0.31205 3.2847 0.65257 0.099152 0.064461 0.047362 0.17922 0.090109 
-0.46577 3.5297 0.37849 0.083697 0.094713 0.046211 0.21293 0.20438 
-0.43651 1.9467 0.11872 0.087314 0.10014 0.046211 0.18843 0.17396 
-0.24677 0.68627 -0.090581 0.08008 0.052294 0.039799 0.12151 0.095535 
0.04917 -0.34148 -0.20386 0.041114 0.044731 0.010862 0.062159 0.032893 
0.38441 -1.3164 -0.21669 0.021549 0.017603 0.010533 -0.028762 0.005765 
0.44968 -1.8184 -0.15405 0.0019835 0.00050378 0.016781 -0.044052 0.021549 
0.25896 -1.1297 -0.20271 0.016452 0.020069 0.037661 0.00083261 0.055418 
-0.0036066 0.31371 -0.2744 0.058213 0.042429 0.044402 0.04506 0.075641 
-0.049149 0.88275 -0.13645 0.017603 0.021549 0.027961 0.082053 0.10524 
0.02533 1.0098 0.014315 -0.01232 0.010369 0.051308 0.091753 0.18317 
-0.064111 1.0005 0.0046141 -0.0070593 0.025988 0.036182 0.12612 0.25633 
-0.088444 0.15703 -0.016924 0.010862 0.037168 0.039141 0.10606 0.18662 
0.0227 -1.0815 0.11674 0.014972 0.040128 0.049006 0.072188 0.13088 
0.041936 -1.5261 0.33048 0.01974 0.023851 0.035853 -0.061151 0.049499 
-0.11968 -1.3071 0.45248 -0.023829 -0.010348 -0.0064016 -0.12494 0.026317 
0.025659 -0.29232 0.4339 0.0014903 -0.011334 -0.014622 -0.11771 0.050486 
0.39855 0.29168 0.31963 -0.014458 -0.014622 0.024837 -0.095021 0.031742 
0.42321 0.58845 0.24252 -0.021692 -0.0098543 0.0060938 -0.02942 0.0069159 
0.13319 0.90955 0.082711 0.036675 0.027796 -0.008539 0.046046 -0.14582 
-0.23362 0.97614 -0.14023 0.054103 0.047362 0.02122 0.10113 -0.35907 
-0.42631 0.8308 -0.29692 0.085012 0.06479 0.018754 0.1271 -0.45361 
-0.32142 0.62314 -0.41152 0.089945 0.020398 -0.009361 0.1248 -0.41431 
-0.15996 0.53748 -0.36269 0.093069 0.020562 -0.0082102 0.13927 -0.23198 
-0.076113 0.50706 -0.22047 0.092082 0.020562 0.033058 0.12414 0.045553 
0.19402 -0.23773 0.043909 0.034373 0.014972 0.027961 0.047197 0.27721 
0.38852 -1.0465 0.23841 -0.016266 0.0016547 0.012177 -0.00097594 0.3022 
0.43554 -0.95753 0.28067 -0.0039354 0.01563 0.015465 -0.020212 0.20175 
0.50838 -1.2816 0.32752 -0.079566 -0.013636 0.012506 -0.030242 0.1493 
0.27409 -1.2712 0.39148 -0.059343 0.0093821 0.019576 -0.075949 0.12201 
-0.36696 0.64271 0.24581 0.023028 0.084519 0.038155 0.044402 0.10885 
-0.83603 2.9236 -0.0013048 0.034373 0.11674 0.12579 0.12858 0.022864 
-0.90953 3.8719 -0.25615 0.072681 0.10589 0.073504 0.11444 0.022535 
-0.56952 3.8765 -0.3178 0.031414 0.090109 0.067091 0.095206 0.037826 
-0.29478 3.8525 -0.20156 0.066598 0.082217 0.076956 0.082546 0.039141 
0.11148 1.0993 0.13779 0.045224 0.030756 0.018096 0.010697 0.029112 
0.73034 -4.3057 0.49112 -0.047176 -0.058356 -0.05178 -0.14846 -0.046519 
1.2246 -4.6465 0.33805 -0.074798 -0.13053 -0.1039 -0.22672 -0.092554 
1.1458 -4.6445 -0.098638 -0.0060728 -0.15783 -0.13826 -0.18972 -0.12149 
0.66934 -4.6444 -0.37863 0.086985 -0.065097 -0.10324 -0.03912 -0.14829 
0.12924 -0.68642 -0.36614 0.19385 0.044731 -0.035174 0.13467 -0.13843 
-0.14961 3.3378 -0.15947 0.1784 0.09422 0.01974 0.15555 -0.037476 
-0.17476 3.8773 0.033387 0.084519 0.073832 0.027632 0.094548 0.070544 
-0.24168 3.8549 0.058542 0.016288 0.051472 0.069558 0.012506 0.12957 
-0.50869 3.4605 -0.024816 -0.031721 0.042429 0.10639 0.052787 0.11444 
-0.63709 3.1563 0.075476 -0.040435 0.0689 0.12151 0.13039 0.1373 
-0.37798 2.543 0.25288 -0.035174 0.041443 0.085999 0.12957 0.080409 
-0.043559 1.568 0.27951 -0.056548 0.026317 0.031414 0.043416 -0.017911 
0.33295 0.44574 0.15949 -0.037147 0.01711 0.01267 -0.041751 -0.096336 
0.41614 -0.65732 0.12579 -0.026953 0.0056006 0.0046141 -0.036489 -0.023336 
0.27047 -1.2416 0.16377 -0.00064712 0.0074092 0.019411 0.0019835 0.037826 
0.10524 -1.1198 0.11395 0.037826 0.028454 0.045224 0.05624 0.10343 
-0.010512 -0.81713 0.055911 0.035688 0.035524 0.036346 0.071366 0.2172 
0.019905 -0.91166 0.075805 0.015301 0.042923 0.016781 0.047526 0.19566 
0.093891 -1.1489 0.067913 0.061172 0.037332 0.011355 -0.020706 0.0018191 
-0.035174 -1.0925 -0.0034422 0.04917 0.0324 -0.030406 -0.072167 -0.24612 
-0.15174 -0.41004 -0.11705 0.042265 0.01563 -0.092883 -0.099624 -0.1256 
-0.27472 0.1008 -0.18939 0.046046 0.0093821 -0.060329 -0.033365 0.22575 
-0.16473 0.058213 -0.16572 0.061337 0.014315 0.03536 0.036017 0.39312 
0.11247 0.56691 -0.067892 0.074161 0.045553 0.11017 0.11263 0.36616 
0.18695 1.4908 -0.056055 0.038155 0.055747 0.12661 0.16689 0.25584 
0.2121 1.9986 0.0324 -0.018733 0.068242 0.093233 0.16377 0.10228 
0.17445 2.0891 0.20191 -0.048985 0.040292 0.0592 0.087314 -0.022021 
-0.029748 1.8181 0.30039 -0.026624 0.043909 0.050814 0.038648 -0.043066 
-0.060329 0.78229 0.32571 0.057391 0.062981 0.05624 0.035524 -0.028597 
0.19155 -1.595 0.24433 0.073504 0.024673 0.035195 -0.0011404 -0.061809 
0.41828 -3.6418 0.12875 0.040456 -0.02235 -0.010841 -0.036818 -0.04882 
0.45314 -3.0846 -0.088937 0.041443 -0.057863 -0.07825 -0.12198 -0.065426 
0.12398 -2.75 -0.38176 0.022864 -0.051287 -0.056055 -0.10341 -0.04882 
-0.32372 -1.4185 -0.74215 0.088301 -0.012814 -0.013965 0.030756 -0.020212 
-0.49783 0.97137 -0.96247 0.20388 0.040785 0.040456 0.14026 -0.021199 
-0.2328 1.2149 -0.571 0.17856 0.070215 0.031907 0.10622 0.0034632 
0.28741 -0.72374 0.14338 0.036346 0.015959 0.034373 -0.019884 -0.057205 
0.38638 -1.2459 0.55211 -0.06296 -0.0011404 -0.010841 -0.071674 -0.053095 
0.24318 1.2045 0.37175 -0.059672 0.0067515 -0.030406 -0.069865 0.0042853 
0.34396 2.3255 0.18646 -0.017417 0.00050378 -0.027118 -0.095349 0.03388 
0.26653 1.5511 0.26225 -0.029584 0.017603 0.0052718 0.0090533 0.045553 
-0.062631 1.2665 0.35235 -0.01117 0.04917 0.075148 0.11806 0.037168 
-0.20403 1.3434 0.37833 0.022371 0.099152 0.1008 0.14437 0.11707 
-0.14829 1.1965 0.37175 0.016616 0.088958 0.11477 0.11921 0.1368 
-0.25878 0.80416 0.28461 -0.017911 0.080738 0.095864 0.13861 0.15094 
-0.40839 0.36485 0.16788 0.0023123 0.068736 0.055582 0.12398 0.12727 
-0.29643 0.0093821 0.029934 0.01826 0.054925 0.064954 0.082217 0.054267 
-0.13004 -0.27818 -0.097322 0.041936 0.029276 0.034209 0.043416 -0.015116 
-0.077264 -0.45229 -0.19696 0.04358 0.024673 0.0018191 0.034702 -0.088115 
-0.022679 -0.59467 -0.267 0.044896 0.031907 0.0062583 -0.0036066 -0.068057 
0.077943 -0.83324 -0.30185 0.06594 0.0054362 0.00033937 -0.031886 -0.088444 
0.24005 -0.93024 -0.2642 0.019247 -0.0026201 -0.018075 -0.032872 -0.073154 
0.3101 -0.63397 -0.15372 0.016288 0.032729 -0.011334 -0.031392 -0.015116 
0.28214 -0.37913 0.011191 0.005765 0.03092 0.01267 -0.028104 -0.039284 
0.24449 -0.41661 0.16804 -0.028104 0.0054362 -0.0032777 -0.025967 -0.021692 
0.22789 -0.46183 0.27096 0.012177 0.0054362 0.0054362 0.029934 -0.03501 
-0.0011404 -0.2083 0.31026 0.028947 0.0016547 0.047033 0.067585 -0.041586 
-0.1843 0.19583 0.34265 0.03799 0.031249 0.055747 0.068078 -0.035338 
-0.24118 0.34281 0.26126 0.081231 0.025001 0.019247 0.06594 -0.035996 
-0.23921 0.40578 0.11905 0.085835 0.047526 0.028947 0.076463 0.067913 
-0.12626 0.63531 -0.081374 0.10819 0.075641 0.064954 0.066105 0.16097 
0.060022 0.74727 -0.21619 0.11346 0.053281 0.034044 0.03799 0.19303 
0.39526 0.52498 -0.19186 0.067913 0.022042 0.0080668 -0.0087034 0.14716 
0.61015 0.021056 -0.20107 0.055747 0.0032988 0.017274 -0.018075 -0.004593 
0.39806 -0.45114 -0.24266 0.024673 0.020891 -0.0022913 -0.021199 -0.032543 
0.10869 -0.39672 -0.20238 -0.035174 0.022535 -0.01117 -0.010348 -0.021199 
-0.015444 -0.032708 -0.12626 0.0028056 0.019576 0.0056006 -0.015444 0.03388 
0.012342 -0.4564 -0.043395 -0.02794 -0.00015387 0.016945 -0.018733 -0.013143 
-0.10012 -1.2393 0.16853 -0.047998 0.030592 0.007738 -0.0026201 -0.079072 
-0.39458 -0.88289 0.47517 -0.027282 0.0227 -0.018239 0.0421 -0.11985 
-0.51658 0.15144 0.5822 -0.027282 0.053281 0.03651 0.077778 -0.14648 
-0.33342 0.89459 0.43719 0.010533 0.062981 0.069558 0.079422 0.0059294 
-0.05326 1.3032 0.26702 0.021056 0.04917 0.061666 0.044402 0.079751 
0.21506 1.5858 0.044402 -0.012156 0.058049 0.0592 0.031907 0.05772 
0.25617 1.9773 -0.36729 0.064954 -0.01676 0.0018191 0.0060938 0.030427 
-0.04323 2.3367 -0.58662 0.093726 -0.0014692 -0.013636 0.082382 0.10277 
-0.21734 1.7813 -0.44276 0.084355 0.011191 -0.0067304 0.099316 0.29464 
-0.14862 0.040621 -0.17871 0.095535 0.0074092 0.023522 0.16048 0.45149 
0.062323 -1.5807 0.13532 0.058871 0.020727 0.031907 0.28642 0.50476 
0.20438 -2.041 0.32621 0.052459 0.026481 0.057062 0.2371 0.3609 
0.1299 -1.8651 0.41302 0.039305 0.045224 0.066105 0.078436 0.12825 
-0.12659 -1.5835 0.3655 0.055254 0.036839 0.046704 -0.0868 -0.13432 
-0.21356 -0.63084 0.29135 0.10622 0.062323 -0.031557 -0.1358 -0.39524 
-0.16161 0.52811 0.2006 0.064461 0.036017 -0.021199 -0.12198 -0.40001 
-0.15684 1.0171 0.06183 0.071531 0.050979 -0.0044286 -0.049807 -0.19466 
-0.25121 0.92155 -0.10505 0.068078 0.05772 0.016123 0.0046141 0.014808 
-0.26206 0.78542 -0.16753 0.0324 0.063803 0.0095465 0.026974 0.087808 
-0.045203 0.70896 -0.23444 0.03388 0.038648 0.034537 0.0054362 -0.094527 
0.28297 0.53304 -0.22376 0.0090533 -0.016595 -0.017253 0.009711 -0.24118 
0.62774 0.13647 -0.24316 -0.046354 -0.052437 -0.10735 -0.052273 -0.19482 
0.8035 -0.059836 -0.14204 -0.046025 -0.073976 -0.11837 -0.11228 0.11888 
0.66655 0.04358 0.01267 -0.06296 -0.051944 -0.03764 -0.073154 0.38112 
0.32029 0.13779 0.17824 -0.043066 -0.013307 0.036182 0.041443 0.47714 
0.038483 -0.57544 0.26998 0.010369 0.059364 0.07301 0.14453 0.44508 
-0.047834 -2.2661 0.31388 0.0083956 0.049992 0.10704 0.14009 0.27524 
-0.27078 -2.2091 0.20914 0.055747 0.051636 0.089287 0.12858 0.14815 
-0.52315 -0.34378 0.058049 0.063474 0.049335 0.082217 0.10984 0.0421 
-0.60569 1.6484 0.0031344 0.063639 0.065612 0.10326 0.12168 -0.006566 
-0.43273 2.8503 -0.088608 0.056898 0.063474 0.085999 0.079751 -0.0098543 
-0.23181 3.4077 -0.10094 0.039963 0.064461 0.06183 0.038483 -0.025309 
-0.11837 3.0386 -0.031721 0.042758 0.06742 0.051636 0.065118 -0.022514 
0.077614 1.7956 0.072353 0.056404 0.073504 0.03799 0.075805 -0.023336 
0.31684 -0.85691 0.19237 0.012999 0.042923 -0.0067304 0.0074092 -0.045368 
0.46645 -4.649 0.21112 -0.015773 0.0072447 -0.032543 -0.051451 -0.053753 
0.56576 -4.6467 0.16245 -0.011334 -0.02087 -0.011005 -0.10587 -0.088937 
0.72836 -4.6472 0.03947 -0.0088678 -0.01939 -0.0090322 -0.12198 -0.068879 
0.60818 -2.0213 -0.011498 0.023193 -0.0032777 -0.025474 -0.10686 -0.062302 
0.20273 -0.22589 -0.0042642 0.0021479 0.02829 -0.0073881 -0.043395 -0.036983 
-0.23247 2.1264 -0.076277 0.026317 0.053774 0.029769 0.059857 -0.00081153 
-0.52907 3.4692 -0.15257 0.049006 0.039141 0.020398 0.10967 -0.001798 
-0.59862 3.1344 -0.34098 -0.0060728 0.033058 0.031907 0.093562 0.0065871 
-0.53351 2.0108 -0.49948 0.055911 0.032564 0.056404 0.067913 0.034209 
-0.31945 0.30796 -0.27916 0.1368 0.064132 0.033387 0.095371 0.11017 
0.1613 -0.77043 -0.052437 0.091918 -0.0064016 0.010862 -0.01232 0.11033 
0.69861 -0.83751 0.10704 0.077121 -0.0082102 -0.015444 -0.10242 0.11905 
0.96315 -1.7835 0.2708 0.034537 -0.045696 -0.015773 -0.13415 0.074326 
0.83523 -2.0532 0.40989 0.023193 -0.021692 0.0054362 -0.10784 0.057391 
0.29069 -0.49241 0.41039 0.04506 0.03092 0.027303 -0.025967 0.09126 
-0.21965 1.221 0.31059 0.0013258 0.074983 0.059364 0.0421 0.094384 
-0.41711 1.8669 0.16558 -0.041751 0.068407 0.057062 0.08156 0.082382 
-0.18923 1.2627 0.022042 -0.031392 0.096193 0.083368 0.083204 0.069886 
0.1932 0.3392 -0.02235 -0.023829 0.095206 0.09833 0.067256 0.097508 
0.48684 -0.28525 -0.0049219 0.0064227 0.041607 0.085012 0.042594 0.088958 
0.40644 -0.32997 -0.01232 -0.047669 0.026974 0.049828 0.011026 -0.014622 
0.21671 -0.026624 -0.05589 -0.013965 0.007738 0.01267 -0.0032777 -0.087951 
0.077285 0.044238 -0.098144 0.05065 0.012342 0.023851 -0.029584 -0.12873 
-0.18907 -0.29363 -0.052273 0.075641 0.04917 0.025495 -0.012978 -0.11607 
-0.58382 -0.77158 -0.0031133 0.1077 0.079587 0.025824 0.07301 -0.071181 
-0.75646 -0.72883 -0.02087 0.095699 0.083697 0.058049 0.1003 -0.041422 
-0.7096 -0.27851 -0.058028 0.042594 0.081067 0.044731 0.12809 -0.023829 
-0.53631 0.14798 0.012342 0.031249 0.070215 0.045882 0.15834 -0.052273 
-0.33326 0.43686 0.19418 -0.010841 0.041607 0.0088889 0.16804 -0.084005 
0.084519 0.4824 0.47089 -0.03057 0.014972 -0.019226 0.013986 -0.1113 
0.80383 -0.0036066 0.69515 -0.051451 -0.022679 -0.071016 -0.12527 -0.085813 
1.4641 -0.80479 0.62495 -0.12166 -0.082854 -0.10193 -0.20419 -0.085978 
1.5547 -0.29972 0.18942 -0.043559 -0.09091 -0.072496 -0.15076 -0.047012 
0.99981 0.52992 -0.41793 0.13368 -0.067235 -0.040764 -0.092226 0.031085 
0.16393 1.1032 -1.0332 0.26439 0.011684 -0.011498 0.012835 0.060186 
-0.44226 1.2007 -1.2043 0.26801 0.014808 -0.012814 0.062159 0.098659 
-0.70845 1.0493 -0.85708 0.17971 0.048513 0.044731 0.13006 0.14305 
-0.81713 0.9518 -0.3714 0.091425 0.071695 0.040456 0.1225 0.15982 
-0.73952 0.90232 -0.011498 0.041607 0.05476 0.03947 0.085341 0.1807 
-0.67129 1.1391 0.13812 0.016452 0.062323 0.082546 0.1054 0.16837 
-0.50934 1.4133 0.27688 0.00083261 0.080244 0.076627 0.18218 0.14683 
-0.18956 1.1014 0.52909 -0.029091 0.087808 0.0689 0.2121 0.029769 
0.080902 0.14256 0.68151 -0.090088 0.053609 0.032071 0.17692 -0.13185 
0.15604 -0.22491 0.65865 -0.11327 0.030098 0.025988 0.14124 -0.1182 
0.19895 -0.14402 0.45823 -0.066248 0.034866 0.035524 0.082217 -0.076277 
0.46448 -0.73327 0.30253 -0.065591 0.029769 0.018096 -0.014458 -0.10143 
0.66013 -1.6216 0.20865 -0.014622 0.0014903 0.0042853 -0.10834 -0.22557 
0.51183 -1.1655 0.10819 -0.032872 0.011848 -0.039942 -0.11475 -0.33983 
0.18202 -0.15257 -0.003771 0.0013258 0.029276 -0.036325 -0.091075 -0.27834 
-0.11771 0.38622 -0.084827 0.043087 0.05213 0.013328 -0.064275 -0.0091966 
-0.40132 0.68496 -0.14303 0.065612 0.074819 0.045718 0.0079024 0.35909 
-0.59007 0.72031 -0.23757 0.10014 0.097672 0.057555 0.017438 0.41499 
-0.57462 0.71982 -0.22491 0.07038 0.080573 0.040785 0.037826 0.30944 
-0.38274 1.0876 -0.18249 0.064461 0.035853 0.053609 0.11017 0.21145 
-0.2573 1.3132 -0.14073 0.094384 0.058213 0.057555 0.07449 0.14552 
-0.063946 1.1503 -0.0138 0.023193 0.040785 0.045553 0.11411 0.1225 
-0.017417 0.023028 0.16558 -0.042573 0.03947 0.078272 0.16031 0.05624 
0.11592 -1.6958 0.37668 -0.041093 0.0070803 0.06594 0.14979 -0.0078813 
0.32555 -2.2661 0.55343 -0.057863 0.0090533 0.019247 0.07038 -0.051287 
0.30483 -1.4184 0.59404 -0.04882 0.0031344 -0.0083746 0.04095 -0.089102 
0.26636 -0.39869 0.52318 -0.06296 -0.03205 -0.034516 0.016945 -0.10867 
0.5873 -0.70664 0.22098 -0.067564 -0.099624 -0.095843 -0.092719 -0.14188 
0.69071 -0.67458 -0.32454 0.051636 -0.078744 -0.098638 -0.16473 -0.09091 
0.34265 -0.55012 -0.88897 0.19829 -0.003771 -0.034188 -0.12741 0.0042853 
-0.23247 -0.21011 -1.1231 0.28478 0.05772 0.037826 0.016781 0.036017 
-0.84606 1.0375 -0.89391 0.24778 0.099316 0.069558 0.14338 0.089123 
-0.92514 1.7453 -0.45985 0.11477 0.079258 0.076956 0.14239 0.06479 
-0.49405 1.2265 -0.10028 0.0031344 0.067749 0.077943 0.086657 0.031249 
0.042265 -0.31369 0.14371 1.0539e-005 0.062488 0.070873 0.02122 0.0079024 
0.37093 -1.0424 0.43423 -0.027775 0.071366 0.05772 0.034209 0.070708 
0.12661 -0.81482 0.65175 -0.021363 0.055254 0.085341 0.060679 0.13319 
-0.36417 -0.43552 0.76651 -0.045039 0.079094 0.076299 0.062159 0.13203 
-0.39919 -0.02942 0.73428 -0.070194 0.056898 0.038812 0.004943 0.16081 
0.059528 -0.14418 0.53321 -0.058521 0.0037921 0.0083956 -0.060165 0.1641 
0.29152 -0.69891 0.25107 -0.076113 -0.026296 0.00297 -0.051615 0.17676 
0.26866 -0.76994 0.014315 -0.0503 -0.022679 -0.0064016 -0.078086 0.13927 
0.048841 -0.43914 -0.12067 0.0085601 -0.0088678 -0.0070593 -0.043066 0.061666 
-0.034352 -0.23559 -0.11607 0.037497 0.017767 0.0090533 -0.0057439 0.01004 
0.1738 -0.42171 -0.056548 0.074819 0.040292 -0.0049219 0.005765 -0.028269 
0.4436 -0.7244 -0.028597 0.085835 0.055911 -0.0016336 -0.028597 -0.062467 
0.67411 -0.035832 -0.066577 0.09126 0.067091 0.039963 -0.0040998 -0.044381 
0.82751 0.81337 -0.12955 0.096357 0.030098 0.028454 0.038483 0.096686 
0.45609 0.9449 -0.11755 0.037826 0.022535 0.024508 0.1271 0.14585 
-0.26979 0.8206 -0.059507 0.025988 0.00050378 0.0090533 0.21079 0.13565 
-0.5705 0.78344 -0.038462 0.050814 0.018425 0.033058 0.256 0.1853 
-0.38768 0.48832 -0.052437 0.051801 0.045389 0.035688 0.14848 0.19912 
0.10639 -0.30942 -0.0034422 0.056733 0.039141 0.034866 -0.016924 0.10244 
0.33015 -0.8847 0.11115 0.027139 -0.011663 0.015137 -0.061151 -0.068714 
-0.20156 -0.26913 0.11395 0.01152 -0.035996 0.015301 -0.0014692 -0.1187 
-0.76895 0.36238 0.06742 0.044238 -0.013965 0.027796 0.069393 -0.10932 
-0.76912 0.90363 0.019905 0.044731 0.028125 0.046211 0.15292 -0.11755 
-0.55291 1.5782 0.031578 0.06742 0.076956 0.056569 0.1756 -0.016102 
0.075805 1.2956 0.21687 0.041443 0.082546 0.060515 0.087808 0.1248 
0.87025 0.26307 0.2583 -0.012978 0.080902 0.056404 -0.023501 0.15785 
1.216 -0.43207 0.0064227 -0.0054151 0.066598 0.071037 -0.072496 0.16673 
0.9934 -1.2042 -0.38472 0.01563 0.039799 0.018425 -0.13826 0.10918 
0.5799 -1.0412 -0.49635 0.050321 0.031414 -0.01117 -0.12363 0.025988 
0.48503 -1.4838 -0.2106 0.031414 -0.034681 -0.024487 -0.15109 -0.2305 
0.59568 -2.6309 0.2708 -0.048985 -0.060494 -0.12264 -0.21175 -0.33408 
0.71982 -1.4325 0.43637 -0.12083 -0.11903 -0.19712 -0.20814 -0.13218 
0.52712 0.49177 0.32703 -0.090417 -0.10308 -0.12807 -0.092554 0.14058 
-0.19318 2.2499 0.034866 0.021056 -0.056712 0.018918 0.12381 0.24712 
-0.76994 2.6956 -0.068057 0.16015 0.042429 0.098166 0.23594 0.20684 
-0.82107 2.021 -0.099295 0.24482 0.095371 0.11132 0.20208 0.12299 
-0.57067 1.1992 -0.12478 0.18547 0.1151 0.11329 0.11888 0.04095 
-0.36351 0.72491 -0.081374 0.08567 0.095206 0.061008 0.036182 -0.0054151 
-0.47909 0.28921 -0.013636 -0.025474 0.073504 0.046046 0.019247 0.013657 
-0.63726 0.01152 0.0031344 -0.036818 0.088136 0.070051 0.10178 0.08156 
-0.38965 -0.059014 0.017767 0.030263 0.085506 0.081067 0.15456 0.03092 
-0.021363 -0.16654 0.078107 0.0011614 0.064625 0.075312 0.13236 -0.05589 
0.25765 -0.29626 0.17988 -0.023994 0.032564 0.071859 0.11395 -0.028433 
0.49128 -0.2522 0.1881 -0.029584 0.02122 0.042923 0.12809 0.014479 
0.66359 -0.14484 0.20651 -0.049149 0.0044497 0.00050378 0.11592 -0.035832 
0.81781 0.03388 0.24252 -0.046683 -0.0078813 -0.045696 -0.014129 -0.13333 
0.50213 0.19764 0.26159 -0.074304 -0.023994 -0.0503 -0.12642 -0.16851 
-0.45476 0.34084 0.25436 -0.061151 -0.0057439 -0.035996 -0.1256 -0.048985 
-0.71946 0.45346 0.1202 0.010697 0.0034632 -0.017088 -0.063946 0.027961 
-0.00031829 0.047362 -0.13333 0.030098 -0.0034422 -0.010019 -0.087293 0.091096 
0.49851 -0.77273 -0.28114 0.077285 0.029276 0.021384 -0.073318 0.13319 
0.30237 -1.7382 -0.3155 0.12628 0.039799 0.021713 -0.011005 0.11198 
0.2611 -1.8255 -0.36006 0.12562 0.0324 0.022206 -0.015116 0.067585 
0.7425 -0.96691 -0.46166 0.13483 -0.0075525 -0.0059084 -0.13333 0.0074092 
0.78295 -0.025967 -0.45936 0.089123 0.0069159 -0.00031829 -0.11491 0.034866 
-0.032708 1.074 -0.40182 0.09981 0.03799 0.034866 0.099645 0.11099 
-0.78868 1.5654 -0.25615 0.098659 0.058706 0.06742 0.20701 0.063803 
-0.65962 1.1231 0.044073 0.020727 0.054925 0.071366 0.18448 0.0042853 
-0.21438 0.51413 0.33887 -0.015444 0.072353 0.047197 0.12003 -0.058192 
-0.12675 0.2782 0.4653 0.01974 0.096193 0.064132 0.12792 -0.021856 
-0.49159 0.3632 0.38869 0.025659 0.072681 0.092576 0.1368 -0.010676 
-0.85395 0.67592 0.17988 0.033715 0.067256 0.055089 0.16278 -0.01676 
-0.83702 0.93405 -0.021856 0.027303 0.045224 0.034209 0.15127 0.082053 
-0.91758 1.3203 -0.14862 0.079422 0.03947 0.045224 0.15834 0.090931 
-0.59451 1.2122 -0.063124 0.095206 0.064625 0.041607 0.072188 0.10491 
0.72771 0.038648 0.14437 -0.014622 0.012999 -0.030242 -0.1455 0.029934 
1.8206 -2.7439 0.52597 -0.10982 -0.081374 -0.10324 -0.3349 -0.16079 
2.0873 -4.6486 0.9375 -0.18643 -0.1358 -0.1136 -0.40313 -0.33424 
1.4658 -2.5985 0.93273 -0.22754 -0.09239 -0.10982 -0.27127 -0.33194 
0.2366 0.99455 0.45231 -0.056219 0.0034632 0.0028056 -0.00097594 -0.085649 
-0.73295 1.8655 -0.10817 0.084355 0.10787 0.11707 0.22871 0.12365 
-0.92975 0.6164 -0.48797 0.16722 0.13319 0.12858 0.28083 0.21621 
-0.74807 -0.023829 -0.71831 0.20799 0.13286 0.11378 0.25255 0.25123 
-0.52891 0.36254 -0.81877 0.14815 0.09126 0.094384 0.19912 0.23479 
-0.45032 0.97153 -0.69332 0.096686 0.058542 0.093069 0.16327 0.19928 
-0.42993 1.6576 -0.41596 0.075805 0.03799 0.066598 0.12628 0.11937 
-0.38028 2.1999 -0.21734 0.022371 0.040785 0.062323 0.082053 0.14174 
-0.26963 1.6959 -0.15158 0.051472 0.036839 0.058213 0.044402 0.12562 
-0.10061 0.42666 0.11592 0.033715 0.044567 0.016288 0.0098754 0.015301 
0.10639 -0.61539 0.40858 -0.0083746 0.01974 -0.018404 -0.050629 -0.11278 
0.25403 -1.2709 0.52778 0.027303 0.0095465 -0.027282 -0.061809 -0.17295 
0.63613 -1.4679 0.58582 -0.0036066 0.0047785 -0.044381 -0.10538 -0.12248 
1.0292 -1.8475 0.58335 -0.027118 -0.012156 -0.070852 -0.14632 -0.078908 
1.0828 -1.7101 0.51857 -0.058192 -0.02087 -0.06444 -0.1621 -0.0021268 
0.67592 -0.77306 0.34281 -0.050958 -0.011663 0.012177 -0.11426 0.035031 
-0.13826 0.4265 0.26324 -0.051944 0.026481 0.049006 0.020069 0.049664 
-0.82419 1.2468 0.16081 -0.0036066 0.080573 0.083204 0.19747 0.1105 
-0.85708 1.7791 0.033387 0.042594 0.09274 0.10359 0.26866 0.11033 
-0.60306 2.6088 -0.15881 0.12003 0.10129 0.10951 0.20388 0.15637 
-0.30646 2.4467 -0.20682 0.095042 0.06594 0.072353 0.11378 0.19501 
0.099316 0.11033 -0.034516 0.047691 0.034702 0.022535 -0.003771 0.13664 
0.51972 -1.9537 -0.055068 0.055418 0.0227 -0.0082102 -0.12659 0.045224 
0.6774 -2.6821 -0.3737 0.027139 -0.033201 -0.052109 -0.1935 -0.092883 
0.63366 -3.7677 -0.55242 0.010369 -0.064768 -0.084334 -0.18331 -0.18594 
0.41779 -4.6478 -0.25582 0.03799 -0.067235 -0.054575 -0.090088 -0.18035 
0.040292 -3.357 0.072024 0.037826 -0.015773 -0.023007 -0.015116 -0.053753 
-0.36433 -0.42779 0.1853 0.056404 0.016945 0.013328 0.046704 0.063474 
-0.50342 2.0702 0.26948 -0.0031133 0.031249 0.030263 0.079258 0.020233 
-0.35085 3.0636 0.36501 -0.032379 0.039305 0.049992 0.091753 -0.10604 
-0.29002 2.8459 0.30335 0.0098754 0.077449 0.042265 0.12891 -0.21438 
-0.25187 2.1709 0.20109 0.044073 0.056404 0.026646 0.14716 -0.17065 
-0.13119 1.5051 0.065447 0.033715 0.043251 0.030263 0.12595 0.024015 
0.083368 0.98633 -0.11459 0.075805 -0.009361 0.050814 0.010204 0.21819 
0.31059 0.38063 -0.21225 0.011684 -0.0029489 0.039963 -0.025474 0.34002 
0.34873 -0.12889 -0.16555 0.033222 0.013821 0.078107 -0.035832 0.31667 
0.22855 -0.43996 -0.047341 0.020727 0.020069 0.055582 -0.027118 0.24071 
0.05476 -0.50869 0.025824 0.038155 0.037826 -0.019555 -0.0039354 0.10162 
-0.16227 -0.50967 0.047691 0.026152 0.017438 -0.029255 0.024673 -0.05589 
-0.17312 -0.51181 0.00297 -0.013307 0.013164 -0.0013048 0.057884 -0.12478 
-0.10538 -0.44752 0.020727 0.020727 0.019576 0.012177 0.086328 -0.071674 
0.047691 -0.27029 -0.0014692 0.071202 0.043087 0.04095 0.11099 0.067749 
0.13039 -0.018075 -0.011992 0.074161 0.062488 0.069064 0.12612 0.1174 
0.18054 0.032893 0.045389 0.077121 0.066434 0.071366 0.12957 0.048019 
0.22575 0.056404 0.10162 0.03092 0.071366 0.038483 0.04917 -0.035832 
0.21145 -0.13892 0.1442 0.02533 0.015301 0.0054362 -0.06 -0.09091 
0.1516 -0.68214 0.16064 0.041607 0.021056 0.027303 -0.10078 -0.07973 
0.09685 -1.0083 0.16673 -0.0082102 0.022535 0.0083956 -0.10028 -0.046354 
-0.13711 -0.90048 0.23052 -0.018239 0.027139 0.01267 -0.065919 -0.010512 
-0.59862 -0.036325 0.2149 -0.0031133 0.0046141 0.0227 0.03947 -0.0031133 
-0.80299 1.1304 -0.030406 0.0056006 0.007738 0.015465 0.11378 -0.018568 
-0.60668 1.5424 -0.34855 0.067256 0.023028 0.0074092 0.13713 -0.0082102 
-0.073154 1.096 -0.41004 0.098659 0.0075736 0.016945 0.083697 0.01152 
0.69334 0.6404 -0.32931 0.088465 0.010862 0.018425 0.013328 0.027961 
1.4322 0.45133 -0.18528 0.057884 -0.0054151 -0.00031829 -0.072332 0.0064227 
1.2882 0.42798 -0.062302 0.030263 -0.0027845 -0.011498 -0.064768 -0.0077169 
0.11115 0.52202 -0.076935 0.038483 0.038483 0.019576 0.054267 0.060186 
-0.64761 0.58582 0.052952 0.038483 0.062323 0.035688 0.19402 0.067091 
-0.54683 0.87338 0.28067 0.0023123 0.062981 0.06035 0.18974 0.13286 
-0.43042 1.2903 0.37915 -0.020706 0.061337 0.063803 0.15653 0.13121 
-0.37288 1.1655 0.30812 -0.0029489 0.041936 0.056569 0.052787 0.14108 
-0.30646 0.79117 0.094713 -0.010348 0.01826 0.012013 -0.009361 0.12825 
0.016123 0.28478 -0.16062 0.029276 0.0016547 -0.019719 -0.015773 0.083368 
0.58121 -1.375 -0.15174 0.012177 0.015301 -0.021034 -0.017417 0.047033 
0.913 -3.188 0.10178 -0.006566 0.0095465 -0.023501 -0.04471 -0.0026201 
0.87338 -3.2357 0.20043 0.023357 0.02681 0.026317 -0.045368 -0.00031829 
0.60686 -1.5335 0.21145 0.047197 0.06594 0.072353 -0.014458 0.042429 
-0.23839 0.34199 0.26258 0.06594 0.09126 0.11148 0.10277 0.075805 
-1.0891 1.461 0.25847 0.049992 0.10951 0.097015 0.19336 0.10113 
-1.0154 2.2727 0.18152 0.028947 0.084026 0.066927 0.20076 0.059693 
-0.42993 2.738 0.079258 0.013986 0.04358 0.026974 0.14141 0.016123 
0.26636 2.9108 -0.004593 -0.042408 0.010369 -0.045368 -0.047341 -0.10176 
0.82734 2.5731 -0.065097 -0.048492 -0.058521 -0.075127 -0.22162 -0.16079 
0.83869 2.3433 -0.37156 0.0014903 -0.091404 -0.077593 -0.24217 -0.12363 
0.30039 1.4281 -0.68822 0.04095 -0.070194 -0.059178 -0.11574 -0.031228 
-0.16802 -1.1603 -0.75251 0.12464 -0.014951 -0.020048 0.08419 0.024015 
-0.29051 -3.7342 -0.54058 0.18563 0.024015 0.014315 0.14585 0.016945 
-0.071345 -4.278 -0.14566 0.19139 0.082875 0.06479 0.11691 -0.017088 
0.2999 -2.4364 0.25814 0.16903 0.11099 0.082053 0.08156 -0.0068948 
0.58483 -1.2175 0.49621 0.056076 0.098823 0.10113 0.022535 -0.012814 
0.58796 -1.255 0.54439 -0.035832 0.062488 0.09833 -0.012814 0.031085 
0.28987 -0.19005 0.42107 -0.044381 0.045718 0.062817 -0.021856 0.1174 
-0.074633 1.3536 0.23989 -0.074798 0.035853 0.0051074 -0.0075525 0.18646 
-0.17377 1.9677 0.049664 -0.059178 -0.017582 -0.027611 -0.05885 0.14305 
-0.29758 1.4008 -0.083347 -0.06444 -0.034188 -0.041751 -0.088115 0.14387 
-0.5733 0.18037 -0.043559 -0.031228 -0.029255 -0.029748 -0.003771 0.18119 
-0.54814 -0.062302 0.090603 0.015137 -0.0027845 -0.016102 0.087314 0.23611 
-0.3566 0.35695 0.096521 0.030263 0.0088889 0.044896 0.11247 0.30122 
-0.00064712 -0.28689 -0.021034 0.082217 0.045718 0.061666 0.11477 0.25863 
0.16886 -0.97628 -0.090253 0.1202 0.043251 0.055254 0.088301 0.079258 
0.30812 -0.84968 -0.01676 0.050321 0.028454 0.01415 -0.029913 -0.088115 
0.4704 -0.86793 0.11592 0.016123 0.030427 -0.004593 -0.089102 -0.15454 
0.67361 -1.0772 0.16196 0.0069159 0.017438 -0.017088 -0.044381 -0.019719 
0.88702 -1.0961 0.19237 -0.034516 0.012013 0.035195 0.049828 0.11066 
0.66326 -0.59484 0.13746 0.0060938 0.0075736 0.064132 0.027796 0.12398 
0.04095 0.1174 0.051965 0.019576 0.020891 0.052952 0.042758 0.074326 
-0.65945 0.57957 -0.016266 0.045553 0.057391 0.057227 0.097837 0.063474 
-0.78622 0.77752 0.03092 0.044567 0.051801 0.019083 0.083204 0.0042853 
-0.69612 0.64303 0.038319 -0.0049219 0.048841 -0.015444 0.0095465 -0.1279 
-0.74544 0.57036 -0.014787 0.013164 0.057555 -0.02235 0.029276 -0.15799 
-0.93731 0.88637 -0.13596 0.083862 0.062652 0.047197 0.1105 -0.050629 
-0.64383 0.93849 -0.11475 0.076792 0.06742 0.088794 0.14815 0.039634 
-0.0077169 0.244 0.038483 0.05065 0.043909 0.049499 0.096028 0.12908 
0.60851 -0.53532 0.23414 -0.050793 -0.02087 0.015959 -0.034188 0.16278 
1.215 -1.2209 0.40019 -0.12462 -0.054246 -0.044381 -0.19252 0.097672 
1.6779 -1.7408 0.47188 -0.10571 -0.062138 -0.054739 -0.33737 -0.038133 
1.3015 -1.6591 0.28823 -0.097158 -0.030735 -0.043559 -0.26404 -0.02235 
0.20849 -0.58859 -0.076113 0.013328 -0.012814 -0.0039354 -0.024158 0.043087 
-0.59681 0.80219 -0.39639 0.082382 0.0087245 0.025659 0.17889 0.082875 
-0.89867 1.2997 -0.42894 0.11017 0.026481 0.041114 0.24828 0.088136 
-0.87599 0.96956 -0.20666 0.089287 0.048019 0.056076 0.22394 0.059857 
-0.70664 0.34577 0.10441 0.043251 0.073504 0.071859 0.18646 0.12233 
-0.45065 0.019576 0.2297 0.012342 0.085341 0.046868 0.19468 0.11362 
-0.25335 0.38507 0.20684 0.049499 0.060186 0.047197 0.13105 0.083697 
-0.13892 1.0786 0.11033 0.029605 0.075641 0.05476 0.07038 -0.0082102 
-0.25697 0.99866 0.068078 0.058213 0.045224 0.043251 0.064461 -0.10324 
-0.15635 1.0228 0.026481 0.057884 0.04506 0.031907 0.086985 -0.10538 
0.014808 1.6534 -0.029748 0.025001 0.049992 0.016616 0.1105 -0.050793 
0.027139 1.3211 0.099481 0.012177 0.062323 0.047526 0.19747 0.025166 
0.12677 -0.47465 0.44705 -0.016266 0.024179 0.012835 0.15324 0.055911 
0.28773 -2.4711 0.61443 -0.064933 -0.020212 -0.016266 -0.009361 0.03092 
0.3438 -2.0875 0.52022 -0.027118 -0.035503 -0.0095255 -0.090417 0.00066819 
0.42453 -1.0471 0.26801 -0.027282 0.0039565 0.023522 -0.14155 -0.057041 
0.49292 -0.60421 0.056733 -0.026131 -0.0027845 -0.01676 -0.17131 -0.11738 
0.58352 -0.36696 -0.14813 -0.019226 -0.047012 -0.0503 -0.24497 -0.23263 
0.74514 0.3928 -0.49356 0.01152 -0.036983 -0.036325 -0.1986 -0.25121 
0.40496 1.3278 -0.79756 0.11576 0.0054362 -0.014622 -0.039778 -0.20945 
-0.32092 1.6571 -0.78194 0.17363 0.049006 0.034702 0.16294 -0.13382 
-0.56656 1.0015 -0.40971 0.12595 0.08863 0.090767 0.22279 -0.058685 
-0.36499 0.59157 -0.014129 0.11033 0.088958 0.081889 0.15061 -0.068386 
-0.10308 0.40398 0.15193 0.041936 0.068736 0.037168 0.03388 -0.085813 
0.17149 -0.38587 0.28412 -0.0039354 0.052623 0.0016547 -0.0047575 -0.046683 
0.2297 -0.65781 0.33657 -0.0075525 0.041607 -0.010676 -0.046354 0.067256 
0.20306 -0.53368 0.24367 0.0072447 0.032729 0.0067515 -0.035503 0.15407 
0.076792 -0.045368 0.049664 0.044731 0.047033 0.044402 0.016123 0.077449 
-0.056548 0.64649 -0.022021 0.087314 0.026646 0.063639 0.095371 -0.025145 
-0.27736 1.0085 -0.069536 0.053938 0.0051074 0.031578 0.14223 -0.12314 
-0.47301 1.0103 -0.085978 0.076956 0.025495 0.020398 0.1738 -0.094034 
-0.36597 0.83688 -0.058028 0.049499 0.056404 0.044731 0.1659 0.026974 
-0.14846 0.2953 0.0047785 0.033715 0.056569 0.055911 0.12743 0.072188 
-0.121 -0.034188 0.047855 0.065612 0.047197 0.053281 0.074161 0.13121 
-0.18512 0.16541 0.011848 0.037168 0.019905 0.042758 0.067585 0.11231 
0.028619 0.3854 0.038648 0.037332 0.029112 0.055418 0.057227 0.091753 
0.40513 0.40661 0.054432 0.037497 0.031414 0.021549 -0.0068948 0.042758 
0.37011 0.58269 -0.051287 0.044896 0.046868 0.013657 -0.038133 -0.0019624 
0.26126 0.68447 -0.17641 0.073175 0.053938 0.033551 -0.072825 0.0090533 
0.55409 -0.2739 -0.11738 -0.014622 0.0014903 -0.023172 -0.133 -0.027775 
0.95476 -1.9623 0.14174 -0.097651 -0.063618 -0.090088 -0.23296 -0.047505 
0.7601 -1.3978 0.19747 -0.055561 -0.070359 -0.071016 -0.19926 -0.038791 
0.1613 -0.36663 0.02829 -0.026789 -0.012649 -0.0138 -0.087786 0.065776 
-0.36236 -0.84294 -0.083018 0.023851 0.02533 0.023357 0.022042 0.11494 
-0.62953 -0.99387 -0.041422 0.089616 0.070544 0.07597 0.07301 0.070544 
-0.57346 -1.081 0.097179 0.08715 0.10852 0.1174 0.12299 0.11674 
-0.023665 -0.425 0.27179 0.094055 0.10737 0.093562 0.097344 0.086328 
0.63958 -0.7484 0.39378 0.037826 0.065118 0.047033 -0.041257 0.013821 
0.81633 -2.9004 0.56625 -0.019061 0.026317 0.0085601 -0.16177 0.037168 
0.42173 -2.0085 0.38063 -0.010348 -0.036325 -0.015773 -0.074962 0.044402 
-0.058521 1.4322 -0.10702 -0.011005 -0.028926 -0.016595 0.088301 0.089616 
-0.22096 3.4207 -0.48994 0.025166 0.0083956 -0.012649 0.19944 0.071202 
-0.31484 3.4276 -0.68757 0.097672 0.043909 0.036346 0.17593 0.091425 
-0.3862 2.0547 -0.52167 0.12184 0.050321 0.021878 0.14404 0.061008 
-0.38538 0.66013 -0.12905 0.084519 0.037332 0.031907 0.049992 0.030427 
-0.34213 -0.12034 0.1128 0.063968 0.037332 0.024837 -0.059836 -0.038791 
-0.13875 -0.24793 0.21539 0.024508 0.03388 0.01826 -0.14385 -0.082032 
0.0062583 -0.4467 0.19517 0.037168 0.016123 -0.03205 -0.12067 -0.06444 
0.11526 -0.46018 0.10918 -0.01676 -0.0073881 -0.049971 -0.015609 -0.03501 
0.14881 0.023357 0.057062 -0.032543 -0.030077 -0.014622 0.066105 0.21885 
0.13039 0.41565 0.147 -0.03205 -0.032872 0.023028 0.12085 0.54126 
0.063803 0.37668 0.19155 -0.025967 -0.016924 0.076627 0.14108 0.62528 
0.058049 -0.024816 0.21621 0.0021479 0.043416 0.14798 0.20027 0.53304 
0.063968 -0.72045 0.24022 0.014972 0.026974 0.13023 0.13582 0.37027 
0.045718 -1.7862 0.19205 -0.0047575 0.034044 0.061337 -0.013471 0.11921 
0.035031 -2.3432 0.10655 0.037004 0.015137 -0.013143 -0.10834 -0.24135 
-0.036983 -1.5167 0.0047785 -0.017582 0.010204 -0.062467 -0.075127 -0.34213 
-0.17509 -0.32915 -0.019884 -0.012649 -0.0004827 -0.097816 0.038648 -0.054246 
-0.19975 0.45889 0.014808 0.038155 0.051636 -0.004593 0.096357 0.13335 
-0.063946 0.7402 -0.02646 0.034209 0.035853 0.084355 0.10129 0.095864 
0.17133 0.69746 -0.056877 0.048841 0.038977 0.087972 0.024344 -0.054575 
0.34133 0.87206 -0.084991 0.034373 0.026481 0.062323 -0.062796 -0.09091 
0.13368 1.3341 -0.0040998 0.03388 0.051308 0.03388 -0.066906 -0.083347 
-0.065262 1.5457 0.030756 0.064296 0.090438 0.04358 -0.048492 -0.057863 
-0.066413 1.5596 -0.063618 0.041772 0.066434 0.033222 0.054267 0.038319 
-0.011498 1.3196 -0.14928 0.042923 0.040621 0.038155 0.072188 0.087808 
-0.19581 0.68068 -0.089102 0.050321 0.033551 0.076627 0.11313 0.097672 
-0.18627 -0.9965 0.0016547 0.029605 0.013492 0.01004 0.09126 0.045389 
-0.060987 -2.2929 0.044731 0.010204 -0.004593 -0.033037 0.041443 -0.02087 
-0.099789 -1.8605 0.0072447 0.034866 -0.011827 -0.034516 0.039141 -0.018404 
-0.12396 -1.2655 0.078765 0.040785 -0.014951 -0.013471 0.049006 -0.02235 
0.097179 -1.0741 0.14502 0.043251 -0.010019 -0.020377 0.062323 -0.0042642 
0.53781 -0.8339 0.17051 0.010697 -0.0049219 -0.001798 0.020562 -0.015116 
0.84066 -0.021034 0.13105 -0.019719 -0.010676 0.03388 0.0011614 -0.027282 
0.4653 1.2627 0.029769 -0.009361 0.036675 0.046375 0.017274 0.028619 
-0.16753 2.0878 -0.025802 -0.0062372 0.067749 0.04654 0.075641 0.073504 
-0.53894 2.1075 0.060679 0.022371 0.074983 0.075641 0.10951 0.1927 
-0.63167 1.6335 0.1442 0.019247 0.073997 0.069558 0.070708 0.20043 
-0.69793 1.2469 0.1641 0.062652 0.088301 0.079258 0.11329 0.21572 
-0.50918 0.87437 0.094384 0.11642 0.11181 0.1373 0.2001 0.11148 
-0.12577 0.43012 0.021713 0.086821 0.10178 0.090438 0.15867 0.032236 
0.31421 0.22444 -0.049149 0.03799 0.06742 0.025659 0.10047 -0.023336 
0.65504 -0.028926 -0.04619 0.0067515 0.021056 -0.016431 0.038977 -0.082854 
0.55228 -0.65912 0.041443 -0.085485 -0.0078813 -0.011663 0.024673 -0.13316 
0.31618 -0.99173 0.050486 -0.06148 -0.026789 -0.024816 -0.063618 -0.28311 
0.36139 -0.55505 -0.080059 -0.022514 -0.010841 -0.031886 -0.14944 -0.37304 
0.24022 -0.056548 -0.25039 0.016452 0.0095465 -0.029091 -0.13547 -0.28196 
0.012013 -0.35003 -0.18528 0.071859 0.024344 -0.0004827 -0.11097 -0.11771 
0.14387 -1.5586 0.072517 0.066434 0.013164 -0.0049219 -0.10554 0.1756 
0.18514 -2.1785 0.28017 0.026152 0.022371 0.021713 -0.07562 0.3466 
0.079916 -1.3245 0.37274 0.047033 0.045553 0.057884 0.030098 0.34117 
-0.17262 -0.02087 0.36863 0.0095465 0.045389 0.037497 0.086657 0.077121 
-0.43453 1.3048 0.22312 0.031414 0.059364 0.035853 0.1784 -0.1723 
-0.50112 2.2704 0.17906 0.066269 0.090767 0.056076 0.20569 -0.18643 
-0.64235 2.3737 0.21753 0.04358 0.082217 0.063803 0.19994 -0.066906 
-0.34427 2.0295 0.11921 0.010697 0.065118 0.033551 0.14585 -0.006566 
0.24121 1.9158 -0.17772 0.016781 0.038319 -0.0032777 0.12546 -0.03353 
0.64353 1.4628 -0.25549 0.011191 0.034373 0.0047785 0.11115 -0.07562 
0.80153 0.19057 -0.18331 0.056076 0.021549 0.0031344 0.065447 -0.12215 
0.98419 -1.7863 -0.19383 0.054432 -0.0031133 -0.029748 -0.09387 -0.18035 
1.05 -3.3027 -0.17114 0.071037 -0.02498 -0.045203 -0.19433 -0.069043 
0.76141 -4.2154 0.0064227 0.048019 -0.032379 -0.056219 -0.18019 0.055582 
0.35071 -4.6485 0.34512 -0.050136 -0.056055 -0.056877 -0.17345 0.11822 
-0.10291 -2.8342 0.41844 -0.038133 -0.039942 -0.044546 -0.17575 0.12677 
-0.3395 0.54587 -0.081868 0.046211 0.0042853 0.016781 -0.10998 0.089945 
-0.37222 2.7561 -0.534 0.10211 0.033387 0.041936 0.023193 0.062323 
-0.57412 2.6884 -0.40494 0.11822 0.053938 0.051472 0.12003 0.054267 
-0.59188 1.8398 0.00066819 0.049828 0.062652 0.076956 0.13861 0.11987 
-0.38307 1.3005 0.27277 0.0036276 0.058871 0.061995 0.09685 0.13286 
-0.23379 0.90462 0.34347 0.010697 0.03092 0.013164 0.095371 0.055089 
-0.27851 0.73116 0.27327 -0.0138 0.033715 0.0032988 0.11905 -0.0016336 
-0.19909 0.61262 0.1294 0.013821 0.044896 0.031907 0.13286 -0.041586 
0.017438 0.25633 0.050979 0.0421 0.046704 0.014643 0.14733 0.013492 
0.28609 -0.35183 0.097179 0.020727 0.027961 -0.0021268 0.14206 0.098823 
0.47139 -0.87566 0.093069 0.058213 0.021549 0.035688 0.058377 0.17067 
0.47204 -1.1732 -0.047176 0.049335 0.035031 0.051472 -0.021692 0.2006 
0.18744 -1.5134 -0.21422 0.039634 0.043909 0.063145 -0.07825 0.094877 
-0.058192 -0.88634 -0.29889 0.069064 0.025495 0.026481 -0.031721 -0.097487 
-0.17131 0.073668 -0.27538 0.0095465 0.023357 0.0021479 -0.061645 -0.25286 
-0.14615 0.95082 -0.18019 0.01004 -0.021034 -0.03764 -0.040928 -0.33868 
0.0060938 1.5072 -0.1552 0.034209 -0.021199 -0.063946 -0.057205 -0.31336 
0.13039 1.2237 -0.026131 0.039141 -0.031064 -0.04619 0.0021479 -0.15503 
0.038812 0.070051 0.0024767 0.079094 -0.025309 -0.027447 0.011848 0.062652 
-0.0004827 -1.3178 0.007738 0.026481 0.0052718 0.011026 -0.006566 0.17396 
0.078929 -1.1966 0.016945 0.014643 0.053116 0.040128 0.03388 0.22855 
0.14552 -0.50014 0.11724 0.043416 0.055911 0.070708 0.068242 0.26077 
0.08978 -0.60914 0.21408 0.016288 0.1008 0.072353 0.055582 0.24745 
-0.19844 0.015301 0.24696 0.0044497 0.079094 0.085835 0.050814 0.18152 
-0.37091 1.0738 0.23397 0.013328 0.060515 0.077449 0.099481 0.080573 
-0.42993 0.88324 0.26159 -0.01232 0.049006 0.044238 0.079258 0.041607 
-0.28278 0.16804 0.26258 0.043251 0.057391 0.051143 0.076956 0.0062583 
0.073832 0.232 0.22213 0.046046 0.040456 0.075805 0.053281 -0.038791 
0.4293 0.41417 0.056898 0.03092 0.011355 0.021713 -0.0096899 -0.076113 
0.55902 0.13549 -0.15914 0.038319 -0.023501 -0.017417 -0.10867 -0.078086 
0.29793 0.56559 -0.43141 0.0421 -0.0095255 -0.04882 -0.083347 -0.032708 
-0.0019624 0.83967 -0.52924 0.066763 -0.0016336 -0.028762 -0.049149 0.0023123 
-0.01676 0.87009 -0.54601 0.076792 0.00099702 -0.034845 -0.046025 0.091589 
0.053281 0.52104 -0.26585 0.037661 0.0036276 -0.048985 -0.058192 0.13812 
-0.16473 -0.34592 0.36073 -0.0050863 0.0067515 0.0082312 -0.017088 0.17314 
-0.40938 -1.0996 0.87749 -0.059343 0.013492 0.03092 0.069393 0.14749 
-0.43832 -0.17016 0.76799 -0.042244 0.036346 0.058542 0.12595 0.050979 
-0.3423 1.0103 0.26735 0.08567 0.068078 0.083204 0.12677 -0.047834 
-0.1912 1.0412 -0.12116 0.12168 0.093069 0.10458 0.12809 -0.109 
0.12266 0.30862 -0.27867 0.11691 0.091753 0.076792 0.10113 -0.083512 
0.34331 -0.82699 -0.30744 0.10425 0.073997 0.064954 0.022206 -0.015609 
0.30549 -0.92169 -0.25072 0.0227 0.056404 0.062817 -0.011992 0.063145 
0.43867 -0.32142 -0.036818 -0.00081153 0.021056 0.049499 -0.087622 0.10918 
0.43784 -0.13464 0.22937 -0.045203 0.0028056 0.01826 -0.0868 0.10162 
0.18366 0.025495 0.33377 -0.041093 0.024508 0.0079024 -0.059014 0.076134 
-0.14993 0.42584 0.2297 -0.0068948 0.054432 0.029276 -0.031721 -0.0019624 
-0.28837 0.66539 0.11576 -0.024487 0.06183 -0.0013048 -0.019884 -0.061645 
-0.11623 0.70157 0.10704 -0.028433 0.028947 -0.020212 0.016616 -0.012156 
0.22427 0.4094 0.16081 -0.031721 0.012177 -0.0138 0.048348 0.10951 
0.36386 0.15489 0.18465 -0.051615 -0.020706 -0.0011404 0.1345 0.21786 
0.13072 0.14321 0.082711 0.0014903 -0.016431 0.0037921 0.20257 0.19747 
-0.037969 0.2292 -0.12873 0.069229 -0.0083746 0.024015 0.16903 0.1567 
0.1391 -0.20271 -0.20205 0.1151 0.0019835 0.01563 0.026317 0.077121 
0.085835 -0.49635 -0.18857 0.17363 0.040292 0.039634 -0.059178 0.0062583 
-0.11903 -0.14171 -0.19433 0.15374 0.081395 0.049499 -0.045039 -0.034023 
-0.24891 0.40315 -0.047176 0.087643 0.07597 0.070873 0.01974 -0.022185 
-0.29791 0.8308 0.090603 0.038483 0.047197 0.063145 0.065283 0.023357 
-0.061973 0.91481 0.1756 -0.026296 0.029276 0.036839 0.09274 0.080738 
-0.2157 0.26028 0.27458 -0.06444 0.029934 0.041772 0.092247 0.086492 
-0.36367 -0.89078 0.32489 -0.062467 0.015959 0.027303 0.051965 0.13351 
-0.14434 -1.0371 0.24959 -0.053588 0.028125 0.016616 0.027139 0.12431 
0.049499 -0.88453 0.19895 0.01563 0.019905 0.01152 -0.0091966 0.10211 
0.3216 -1.4904 0.1225 0.028454 -0.008539 0.010204 -0.02235 0.047362 
0.54915 -1.0203 -0.19482 0.11313 0.0072447 0.00066819 -0.018404 0.025988 
0.52005 -0.38505 -0.5294 0.14058 0.026481 0.004943 -0.018733 0.063639 
0.48816 0.18399 -0.64729 0.10293 0.015794 0.028125 -0.048985 0.068078 
0.43801 0.67805 -0.48715 0.0074092 0.004943 0.017438 -0.010348 0.025659 
0.086985 0.67296 -0.1279 -0.053588 -0.0088678 0.0079024 0.024837 -0.026789 
-0.33128 0.29004 0.16327 -0.078744 0.0018191 0.042429 0.086492 -0.023172 
-0.44012 0.4533 0.25814 -0.014458 0.033715 0.046046 0.13697 -0.066084 
-0.17509 0.52531 0.27376 0.025001 0.044238 0.045553 0.1345 -0.067564 
0.17199 0.29727 0.35465 0.044731 0.059528 0.015959 0.070215 -0.050464 
0.064625 0.10441 0.34873 0.096193 0.037826 0.038319 0.037168 -0.050793 
-0.23954 0.11543 0.22789 0.090109 0.036839 0.030756 0.0421 -0.046354 
-0.50556 0.33574 0.027796 0.094548 0.056898 0.052623 0.015959 -0.024323 
-0.64679 0.31519 -0.1353 0.11181 0.075148 0.059528 0.043416 0.021878 
-0.60207 0.19796 -0.10817 0.10343 0.083697 0.080409 0.14256 0.1368 
-0.24612 0.32292 -0.016431 0.088301 0.069229 0.065283 0.2343 0.15111 
0.35547 0.73182 0.07301 -0.024652 0.024015 0.041607 0.18087 0.12069 
0.94227 1.1552 0.12562 -0.12297 -0.028433 -0.0022913 -0.021692 0.11017 
1.3303 0.22263 0.232 -0.18742 -0.070852 -0.055561 -0.23543 0.14338 
1.0842 -0.77339 0.30122 -0.21554 -0.087786 -0.082032 -0.30251 0.18119 
0.42749 -0.60602 0.21802 -0.12511 -0.061973 -0.034188 -0.19005 0.17412 
-0.091897 -0.37008 -0.026624 0.016616 -0.018075 0.0227 -0.056055 0.1368 
-0.099789 -1.5208 -0.31402 0.11576 0.01152 0.031742 0.026974 0.067091 
-0.13481 -3.0837 -0.41316 0.17265 0.020398 0.023193 0.11888 0.03388 
-0.30744 -2.5446 -0.38274 0.17363 0.054432 0.03947 0.13631 -0.025309 
-0.53762 0.053445 -0.23165 0.17988 0.10326 0.030263 0.14996 -0.18676 
-0.55867 2.0052 0.011684 0.147 0.11888 0.03388 0.14338 -0.31566 
-0.19663 0.98288 0.21095 0.069393 0.076463 0.044567 0.10524 -0.41349 
0.16771 -0.21126 0.24285 0.021056 0.045389 0.0095465 0.042594 -0.35068 
0.36534 -0.41365 0.329 -0.0004827 -0.00015387 -0.0031133 -0.014951 -0.17049 
0.37208 -0.76632 0.41022 -0.09798 -0.051287 -0.031557 -0.057534 0.023686 
0.036675 -0.33654 0.27228 -0.079072 -0.022185 -0.0059084 -0.044052 0.22411 
-0.2984 0.57398 -0.011992 0.0056006 0.015465 0.0324 -0.027282 0.21589 
-0.4204 1.08 -0.24168 0.076956 0.06479 0.044402 0.07038 0.15785 
-0.34674 1.1723 -0.2185 0.13384 0.065612 0.051308 0.10803 0.064461 
-0.098144 1.0422 -0.16194 0.096193 0.076792 0.040292 0.10918 0.0095465 
0.23003 0.82701 -0.12379 0.036839 0.062652 0.017932 0.061008 0.053445 
0.57168 0.44738 -0.032872 0.03651 0.034866 0.025001 -0.00031829 0.085506 
0.63103 0.14223 0.072517 -0.0055795 0.018589 0.04358 -0.033694 0.098988 
0.44639 0.018425 0.087972 0.0037921 0.035524 0.037004 -0.019719 0.024179 
-0.0070593 -0.1307 0.037497 -0.019226 0.012342 0.02533 0.029934 -0.091239 
-0.091732 -0.413 0.035688 -0.012485 -0.009361 0.01711 0.059857 -0.21866 
-0.13415 -0.69184 0.096686 0.036182 0.012999 0.019083 0.081231 -0.26765 
-0.19679 -0.76747 0.20783 0.024837 0.03388 -0.0095255 0.030756 -0.16983 
-0.11607 -0.50392 0.25781 0.03651 0.039141 0.01267 0.0092177 -0.022021 
-0.080388 -0.22359 0.14502 0.027961 0.049664 0.025001 0.015301 0.15785 
-0.085649 -0.25976 0.020562 -0.0082102 0.088136 0.074161 0.087314 0.26472 
0.11477 -0.71765 0.043745 -0.00031829 0.053609 0.049828 0.021878 0.31815 
0.15916 -0.51395 0.079258 0.0036276 0.036017 0.064296 0.037661 0.31963 
0.054596 0.13236 0.12085 -0.0077169 0.035853 0.0421 0.083862 0.20323 
-0.053753 0.79035 0.11855 0.0083956 0.028619 0.00066819 0.082711 0.060186 
0.071859 1.6049 0.062817 -0.016595 -0.0060728 -0.014293 -0.0067304 -0.15832 
0.25222 1.3048 0.11609 -0.0083746 -0.027282 -0.065097 -0.089595 -0.27736 
0.20931 0.30418 0.1978 0.046868 -0.016266 -0.07825 -0.072825 -0.28081 
0.16541 -0.87862 0.084684 0.072188 -0.01939 -0.061973 -0.061151 -0.27785 
0.2121 -1.0342 -0.2476 0.096357 -0.0406 -0.031886 -0.083018 -0.18167 
0.088794 0.67263 -0.54699 0.1026 -0.03205 -0.0083746 -0.051615 -0.087129 
-0.069208 2.0235 -0.63315 0.095699 0.01004 -0.018239 0.033058 -0.028269 
-0.21521 1.8757 -0.50162 0.15407 0.065447 0.057227 0.13417 0.01563 
-0.43733 0.80317 -0.25697 0.10787 0.13138 0.068242 0.15012 0.097344 
-0.46955 -0.19268 0.077285 0.051308 0.11625 0.072188 0.11757 0.19336 
-0.31188 -0.075455 0.37011 0.01415 0.11494 0.10326 0.12677 0.2172 
-0.1205 0.15242 0.46103 -0.034516 0.095864 0.10145 0.091753 0.22296 
0.040456 -0.11426 0.40003 -0.043066 0.062488 0.074654 0.064132 0.17248 
0.12628 -0.0044286 0.24137 -0.029748 0.042923 0.062981 0.013492 0.14733 
0.21161 -0.50046 0.081395 -0.0090322 0.022206 0.040128 0.015465 0.1054 
0.20372 -1.1002 -0.066084 -0.0031133 0.0074092 0.00017495 -0.037476 0.091589 
0.20783 -1.0082 -0.064111 -0.023007 -0.00097594 -0.019719 -0.063618 0.098166 
0.23989 -0.48123 0.0060938 -0.02235 -0.015116 -0.0054151 -0.043724 0.1054 
0.14091 0.35958 -0.012156 0.025495 -0.01676 0.0065871 0.029276 0.11773 
-0.067892 1.0888 -0.076113 0.025659 0.0028056 0.0072447 0.06742 0.058049 
-0.21126 1.2658 -0.038298 0.032729 0.016945 -0.0047575 0.042265 -0.050136 
-0.36137 1.1105 0.086821 0.055089 0.014479 0.075312 0.017932 -0.11278 
-0.30366 0.70666 0.19024 0.041772 0.047033 0.039141 0.016945 -0.12379 
0.025495 0.11674 0.36748 -0.015773 -0.008539 0.022864 -0.016924 -0.013143 
0.4094 -0.37715 0.53173 -0.049478 -0.013636 0.01711 -0.042079 0.049499 
0.62626 -0.32504 0.43554 -0.064933 -0.0091966 -0.010841 -0.025145 0.11888 
0.39016 0.50969 0.10392 -0.010183 -0.0062372 0.011848 0.030263 0.16393 
0.030427 1.2598 -0.19745 0.04917 0.04506 0.041772 0.098001 0.18974 
-0.083512 1.1795 -0.33819 0.11198 0.08419 0.069064 0.10063 0.25699 
0.0014903 0.44294 -0.25664 0.075148 0.055418 0.049006 0.085999 0.24532 
0.050321 -1.2638 -0.19219 0.0021479 0.03092 0.0059294 0.0054362 0.1904 
0.032564 -2.9622 -0.31599 0.073175 -0.00031829 0.027139 -0.07003 0.063145 
-0.08532 -2.4591 -0.38538 0.10754 0.014972 0.025495 -0.074304 -0.020541 
-0.14533 0.046868 -0.22606 0.1128 0.060679 0.044238 -0.0013048 -0.038791 
-0.25467 1.6257 0.078929 0.10343 0.054267 0.044238 0.03536 -0.032543 
-0.4033 1.348 0.37405 0.020562 0.054925 0.063474 0.097837 0.026646 
-0.48008 0.59519 0.52186 -0.009361 0.048841 0.074161 0.2297 0.064132 
-0.31057 -0.59007 0.49243 -0.062138 0.0092177 0.053938 0.27803 0.027632 
0.061995 -2.3472 0.39526 -0.11705 -0.01939 0.027961 0.1322 -0.072825 
0.28724 -2.309 0.18892 -0.075291 -0.035832 -0.020212 -0.039942 -0.1838 
0.37455 -0.50984 -0.096994 -0.0044286 0.0019835 -0.03501 -0.094034 -0.15224 
0.60768 0.68923 -0.22326 0.047526 0.020398 -0.013965 -0.059343 0.0095465 
0.69285 0.71834 -0.23609 0.10606 0.038648 0.00099702 0.0024767 0.20109 
0.19764 0.72475 -0.21685 0.10507 0.054103 0.062323 0.098001 0.35021 
-0.066413 0.49407 -0.10505 0.061995 0.032236 0.066598 0.16262 0.30187 
0.13384 0.014808 0.027796 0.038977 0.025659 0.061008 0.10277 0.17166 
0.21589 0.22016 0.076627 -0.029913 0.0054362 0.040456 -0.0090322 0.09274 
0.097179 0.54504 0.11181 -0.02942 -0.003771 0.06479 -0.040764 0.092082 
-0.096172 0.59881 0.12464 0.005765 0.046375 0.055582 -0.039284 0.053116 
-0.36088 0.22328 0.078107 0.049664 0.057062 0.04654 -0.031064 -0.039284 
-0.48517 -0.4028 0.06594 0.094713 0.070051 0.03092 -0.015773 -0.088608 
-0.5705 -0.42303 0.1054 0.058377 0.071202 0.026317 0.031907 -0.069372 
-0.46133 -0.0064016 0.12792 0.029112 0.043087 0.036346 0.061337 0.033387 
-0.025802 0.26883 0.087314 0.036675 0.046375 0.023686 0.075476 0.063803 
0.25896 0.19501 -0.016595 -0.022514 0.021549 0.00099702 0.085177 0.075476 
0.33805 -0.11196 0.029112 -0.030899 0.010369 0.012835 0.059035 -0.0082102 
0.29941 0.045553 0.11872 -0.035996 0.0051074 -0.0077169 0.041607 -0.22606 
0.26488 0.24301 0.12628 -0.022021 0.023522 -0.01232 -0.0060728 -0.35414 
0.47155 -0.39886 0.11017 0.007738 -0.00015387 -0.032215 -0.014951 -0.38077 
0.46678 -0.67787 0.04358 0.010369 0.011355 -0.029748 -0.031557 -0.27834 
0.28823 -0.051615 -0.037311 0.054103 0.043416 0.0075736 0.019247 -0.14977 
0.27919 0.43324 0.0052718 0.09274 0.050321 0.044731 0.054432 0.018425 
0.36008 0.48503 -0.060658 0.077778 0.022864 0.033715 0.068078 0.1271 
0.45182 -0.25795 -0.16342 0.041443 -0.0052507 -0.017746 0.045882 0.18613 
0.42847 -1.6453 -0.19646 0.049664 -0.004593 -0.023665 -0.013307 0.27031 
0.14387 -1.3829 -0.12938 0.03388 0.0014903 -0.003771 -0.094856 0.29365 
-0.27045 -0.53532 -0.025802 0.037004 -0.0078813 -0.0057439 -0.11294 0.19418 
-0.57034 -0.44029 -0.011992 0.013986 -0.0019624 -0.023829 -0.045696 -0.06148 
-0.75021 -0.094692 -0.09239 0.020562 0.029934 0.00017495 0.048677 -0.12971 
-0.62575 0.73691 -0.095514 0.059035 0.065776 0.065612 0.039799 -0.021528 
-0.25154 1.2109 -0.046847 0.04095 0.074983 0.077943 0.0014903 0.058049 
0.059693 0.96677 0.057062 0.045718 0.038812 0.048348 0.026317 0.10195 
0.34051 0.65668 0.14256 0.015794 0.012999 0.043416 0.0064227 0.092904 
0.57973 1.1016 0.11411 0.00050378 -0.0031133 -0.0024557 0.016288 0.039634 
0.38803 1.4967 0.091918 0.02122 0.0041209 -0.0047575 0.020069 -0.020212 
0.084355 1.2635 0.15028 0.040292 0.029441 0.0072447 0.071037 -0.10949 
-0.067399 0.88472 0.23266 0.020891 0.033715 0.031907 0.0088889 -0.096172 
-0.18693 0.73511 0.1373 0.064132 0.04506 0.021878 -0.011663 -0.096829 
-0.26502 0.29809 1.0539e-005 0.03651 0.045553 0.031249 0.04506 -0.083676 
-0.20353 -1.0353 -0.05885 0.054596 0.045224 0.060515 0.092247 -0.013965 
-0.057863 -2.2615 -0.067892 0.053938 0.03536 0.04917 0.080573 0.030427 
-0.10752 -1.6454 -0.051944 0.032564 0.045389 0.052952 0.062981 0.024015 
-0.28443 0.044896 -0.041915 0.050321 0.057884 0.048348 0.016945 -0.041915 
-0.2351 0.89393 -0.024652 0.020398 0.074819 0.035688 -0.0016336 0.013328 
-0.099953 1.0028 0.057062 0.037004 0.077943 0.021384 0.01004 0.084026 
0.043745 1.6208 0.14157 0.1008 0.055911 0.021384 0.041443 0.063968 
0.39559 1.5016 0.27425 0.038155 0.029934 0.011848 0.042923 0.045389 
0.86171 0.22197 0.42946 -0.02942 -0.023007 -0.03764 -0.064933 -0.0070593 
0.95443 -0.75103 0.35284 -0.034023 -0.046519 -0.067399 -0.17854 -0.13136 
0.67361 -2.1323 0.13417 -0.043724 -0.054246 -0.086964 -0.21011 -0.26815 
0.49671 -3.8017 -0.16194 -0.035996 -0.063289 -0.10686 -0.16177 -0.17032 
0.14305 -3.0671 -0.49208 0.0069159 -0.020377 -0.090746 -0.071181 0.14765 
-0.29906 -0.80792 -0.67014 0.055747 -0.0032777 -0.0024557 0.046868 0.35465 
-0.61736 1.292 -0.58793 0.14667 0.040128 0.11378 0.15456 0.3609 
-0.69776 2.3776 -0.24299 0.12579 0.096686 0.15949 0.23792 0.28083 
-0.54864 1.9559 0.11362 0.083368 0.092576 0.14075 0.19714 0.17462 
-0.31797 0.37997 0.27902 0.059528 0.085012 0.11642 0.15045 0.067913 
-0.2328 -0.4541 0.28658 0.004943 0.079258 0.062817 0.099152 0.0014903 
-0.22968 0.089616 0.17281 0.0067515 0.065612 0.040128 0.08419 0.054103 
-0.23658 0.75089 0.13467 0.031742 0.049828 0.05772 0.085999 0.068078 
-0.2106 1.046 0.22822 0.011355 0.050814 0.060679 0.069722 0.015959 
-0.23083 1.1821 0.32506 0.025988 0.048348 0.066434 0.11362 0.010204 
0.027796 1.3679 0.34775 -0.050958 0.015301 0.016452 0.061995 0.028947 
0.45149 1.0385 0.49391 -0.064604 -0.032543 -0.010348 0.013328 0.039799 
0.56724 0.53238 0.43554 -0.032379 0.011026 -0.018733 0.01415 0.030756 
0.23578 0.16475 0.17741 0.040456 0.018918 -0.0014692 0.088301 0.093726 
-0.065919 -0.17032 -0.13432 0.11576 0.034866 0.040128 0.10573 0.090767 
-0.096336 -0.77454 -0.34148 0.11428 0.039141 0.027632 0.08419 0.077121 
-0.080388 -1.944 -0.39623 0.064132 -0.0026201 -0.011992 0.036675 0.026481 
-0.26502 -2.046 -0.38603 0.076792 0.00297 -0.019719 0.016288 -0.042573 
-0.36351 -0.73443 -0.33194 0.067091 0.018918 0.00033937 -0.01117 -0.091075 
-0.17575 0.2292 -0.14862 0.044402 0.035688 0.010369 -0.012156 -0.078415 
0.14733 -0.032379 0.12661 0.043416 0.0092177 0.0070803 -0.01939 0.012013 
0.45363 -0.31764 0.2588 -0.0095255 0.019411 0.038812 -0.0032777 -0.004593 
0.89015 0.10458 0.10951 -0.0054151 0.011684 0.022206 -0.032872 -0.1016 
1.4153 0.46432 -0.016431 -0.0088678 0.0052718 -0.0075525 -0.051287 -0.1912 
1.3523 0.31223 0.15341 -0.042244 -0.0096899 -0.042901 -0.094856 -0.24661 
0.52219 0.098823 0.36106 -0.089924 -0.014129 -0.05441 -0.014951 -0.15487 
-0.33934 0.48109 0.34495 -0.06148 0.01563 -0.01232 0.061172 0.12201 
-0.83044 0.89738 0.21539 0.021549 0.043087 0.077778 0.097015 0.39329 
-1.0335 0.87601 0.014808 0.11 0.083204 0.12727 0.13664 0.49523 
-0.98252 0.50673 -0.091404 0.12447 0.092082 0.12036 0.2195 0.38457 
-0.61588 -0.19663 -0.121 0.13516 0.093726 0.1003 0.24449 0.24351 
-0.27653 -0.64367 -0.11837 0.098166 0.04917 0.065612 0.159 0.15094 
-0.078908 -0.29955 -0.06444 0.031578 0.059693 0.040621 0.070215 0.084519 
0.014808 0.31059 -0.072825 0.041278 0.020727 0.024179 -0.057534 0.00066819 
0.29069 0.57102 -0.10489 0.0052718 -0.026624 -0.014622 -0.1427 -0.071345 
0.50082 0.34988 0.0051074 0.0098754 -0.0021268 -0.018733 -0.1011 -0.07414 
0.23167 0.29842 0.18415 0.035031 0.024015 0.0074092 0.040128 -0.10521 
0.0044497 0.73774 0.31141 -0.012156 0.043087 -0.016431 0.090438 -0.12248 
-0.014951 1.3309 0.33361 -0.028104 0.065776 0.02681 0.092247 -0.091897 
-0.07003 1.8875 0.33788 -0.030899 0.073832 0.016123 0.13056 -0.043066 
-0.087786 1.7196 0.38704 -0.051944 0.049006 0.019576 0.17939 0.020233 
-0.15964 0.73938 0.24844 -0.017417 0.0088889 0.044896 0.15834 0.066105 
-0.30843 -0.52118 -0.0049219 0.020562 0.03092 0.075312 0.094055 0.11231 
-0.37715 -2.5517 -0.35151 0.073832 0.02533 0.046375 0.01267 0.11313 
-0.35496 -3.3664 -0.71289 0.15933 -0.0016336 -0.0022913 -0.024487 0.074326 
-0.31846 -2.0246 -0.85872 0.15538 -0.018075 -0.024816 -0.015773 0.068242 
0.11444 -0.31073 -0.82863 0.14387 -0.032379 -0.058028 -0.080881 0.047526 
1.1621 -0.19137 -0.56837 0.079916 -0.059343 -0.079895 -0.23806 0.01711 
2.0483 -0.61227 -0.067399 -0.028597 -0.060823 -0.074304 -0.33391 -0.064111 
1.951 -0.028762 0.36879 -0.096336 -0.032708 -0.026131 -0.29889 -0.11672 
1.0945 -0.066084 0.56428 -0.14369 -0.0032777 -0.00081153 -0.14237 -0.16588 
0.32193 -1.0728 0.74349 -0.133 0.023522 0.022042 0.01711 -0.043066 
-0.24349 -0.73936 0.77062 -0.041915 0.065612 0.061501 0.1294 0.086492 
-0.71963 0.7675 0.63251 -0.010019 0.081889 0.07038 0.17988 0.087314 
-1.1787 1.9317 0.3609 0.01974 0.093069 0.10195 0.18366 0.18152 
-1.3681 2.1422 0.13203 0.081067 0.087479 0.097344 0.17314 0.23101 
-1.0634 1.5828 -0.099789 0.1077 0.092247 0.11526 0.14272 0.0421 
-0.46676 0.74333 -0.27374 0.11592 0.083862 0.063145 0.10129 -0.18775 
0.080738 0.044731 -0.42007 0.097344 0.056898 0.059693 0.035853 -0.25828 
0.52005 -0.30613 -0.42894 0.065118 0.042429 0.026152 -0.017582 -0.13251 
0.49358 -0.4615 -0.36367 0.051472 -0.0050863 -0.0090322 -0.093705 -0.12133 
0.12776 -0.50441 -0.20189 0.0069159 -0.0062372 -0.017253 -0.10998 -0.042901 
-0.076771 -0.48583 -0.052437 0.01152 0.0016547 0.01152 -0.059178 0.082711 
-0.090253 -0.5151 0.016781 0.034044 0.015465 0.0067515 0.0065871 0.18037 
0.025988 -0.57577 0.074161 0.025824 0.027796 0.0023123 0.028783 0.2953 
0.0065871 -0.58941 0.13647 0.017603 0.040621 -0.0049219 0.055254 0.37685 
-0.076442 -0.69562 0.13894 0.043745 0.03388 0.022535 0.073668 0.33624 
-0.13053 -0.77767 0.11428 0.043745 0.0090533 0.014643 0.12727 0.17807 
-0.10357 -0.4564 0.10211 0.068242 0.0082312 0.034209 0.11773 0.057555 
-0.017253 0.15801 0.1197 0.0093821 0.014315 0.045553 0.10984 -0.051451 
0.17412 0.51627 0.16212 0.010533 0.024508 0.036346 0.12612 -0.12281 
0.35399 0.89656 0.15456 -0.010348 0.048841 0.026317 0.097508 -0.14796 
0.48668 1.0463 0.13269 -0.050793 0.04095 0.004943 -0.043724 -0.20271 
0.40924 1.1609 0.19418 -0.069208 0.02829 0.011026 -0.1427 -0.24003 
0.46793 1.045 0.28182 -0.057534 0.02829 0.0013258 -0.15191 -0.22968 
0.48043 0.14157 0.34923 -0.05326 0.026974 -0.021692 -0.14451 -0.12971 
0.18909 -0.80233 0.29053 0.00297 0.025166 0.02681 -0.078744 0.035688 
-0.12231 -2.6288 0.11132 -0.0021268 0.017932 0.050321 -0.010676 0.13171 
-0.38751 -3.4339 -0.034845 0.014315 0.032564 0.040785 0.053445 0.15999 
-0.3959 -0.71848 -0.25187 0.060679 0.02533 0.034537 0.045389 0.12201 
-0.27259 1.5996 -0.28837 0.053609 0.024837 0.027139 0.049828 0.06479 
-0.27094 2.1734 -0.065919 0.066763 0.005765 0.021878 0.083204 0.055911 
-0.23905 2.0766 0.025001 0.10869 0.0056006 0.01152 0.11165 0.0074092 
-0.17262 0.95887 0.044238 0.15407 0.03092 0.026646 0.063968 0.0054362 
-0.24793 -0.48797 0.068078 0.20569 0.061666 0.021713 0.033222 -0.0011404 
-0.38949 -0.35611 -0.0042642 0.16821 0.077943 0.014315 0.072353 0.038483 
-0.34361 0.89821 -0.2032 0.095371 0.070544 0.013328 0.11033 0.1225 
-0.14106 1.1108 -0.47482 0.072353 0.049828 0.012013 0.13746 0.20684 
0.16262 0.42749 -0.58234 0.023851 0.016288 0.037168 0.14568 0.25962 
0.66523 0.0047785 -0.33885 -0.046847 0.0014903 0.0227 0.016452 0.16146 
0.96923 -0.64646 -0.0080457 -0.12166 -0.028269 0.096028 -0.067892 0.028619 
0.79841 -1.6071 0.36189 -0.15421 -0.028269 0.009711 -0.079401 -0.012978 
0.28116 -1.4477 0.57941 -0.080223 0.00083261 0.024344 -0.010348 0.00297 
-0.133 -0.21291 0.55622 -0.0057439 0.062981 0.048184 0.076299 0.046211 
-0.019226 0.76404 0.4778 0.034866 0.078765 0.040128 0.084026 0.059035 
-0.013307 1.0643 0.37866 0.057391 0.039305 0.009711 0.056076 0.11674 
-0.38044 0.87601 0.23627 0.052294 0.027468 0.026646 0.049828 0.082053 
-0.68839 0.63711 0.092411 0.052459 0.039141 0.050486 0.093069 0.10967 
-0.52595 0.42223 -0.010348 0.056898 0.01004 0.041443 0.086985 0.055418 
-0.021692 0.044238 -0.055397 0.016781 0.0034632 -0.027447 -0.0022913 -0.11804 
0.40184 -0.26124 -0.12314 0.0324 0.0044497 -0.01232 -0.067564 -0.25878 
0.41499 0.10343 -0.26667 0.056733 0.028125 -0.040106 -0.019555 -0.15684 
0.16294 0.57595 -0.39968 0.073339 0.029769 -0.0029489 0.057391 0.090109 
-0.13629 0.42732 -0.39129 0.11872 0.056898 0.054596 0.14305 0.21704 
-0.22359 -0.11787 -0.29709 0.080902 0.043909 0.069393 0.11395 0.18021 
-0.12609 -1.105 -0.16473 0.054103 0.03947 0.061501 0.086163 0.10293 
-0.013307 -1.5815 0.025495 0.041114 0.034209 0.024344 0.05624 -0.092061 
-0.020541 -1.0121 0.24976 0.0060938 0.06331 0.022206 0.021056 -0.29544 
0.41006 -0.70006 0.41368 -0.017088 0.0092177 -0.013471 -0.095021 -0.41875 
1.0554 -0.50359 0.48553 -0.03764 -0.01528 -0.040271 -0.23083 -0.35644 
0.86647 0.38622 0.40414 -0.090746 -0.022185 -0.05326 -0.26585 -0.16227 
0.042594 0.9107 0.22131 -0.021528 -0.015116 -0.0004827 -0.16621 0.079094 
-0.39442 1.3452 -0.083018 0.01152 0.012835 0.04506 -0.026789 0.33788 
-0.34657 1.7107 -0.36417 0.05065 0.044238 0.065447 0.10293 0.402 
-0.086142 1.5873 -0.55078 0.1054 0.032893 0.052623 0.16327 0.28576 
-0.07266 1.5307 -0.4906 0.061666 0.012506 0.027961 0.22131 0.14716 
-0.17098 1.4256 -0.26601 0.060844 0.010369 0.029441 0.23874 -0.015609 
-0.13908 0.34577 0.03799 0.064296 0.027303 0.029769 0.16492 -0.060658 
-0.046683 -1.7493 0.24778 0.030427 0.040456 0.019905 0.11872 -0.098473 
0.18383 -2.7426 0.30878 0.016452 0.025824 0.00297 0.058377 -0.099624 
0.25896 -2.3204 0.2103 -0.0014692 0.038319 0.019576 0.056404 -0.11261 
0.050157 -1.3689 -0.036818 0.050486 0.083533 0.052952 0.048348 -0.076113 
-0.24118 0.17774 -0.19137 0.095042 0.086328 0.057884 0.068571 0.013492 
-0.47054 1.7144 -0.059672 0.053445 0.095699 0.054596 0.069229 0.055089 
-0.31155 2.046 0.19912 0.00017495 0.03947 0.049499 0.026646 0.075148 
0.10556 1.3163 0.4459 -0.036489 0.0046141 0.025495 -0.066084 0.049828 
0.39641 0.48898 0.42453 -0.047505 0.0079024 -0.0067304 -0.1113 0.0689 
0.5337 -0.12363 0.19024 -0.013471 0.011026 -0.018404 -0.085156 0.036839 
0.57003 -0.43322 -0.019719 -0.029584 -0.0098543 -0.02087 -0.10143 -0.049807 
0.55129 -1.0892 -0.062796 -0.038956 -0.02646 -0.033201 -0.12774 -0.14484 
0.38836 -1.8666 -0.063618 -0.030735 -0.050464 -0.042901 -0.073647 -0.14204 
-0.016595 -1.4315 -0.028104 -0.012978 -0.014622 0.024015 0.036346 -0.042408 
-0.34148 0.084355 0.058542 0.021878 0.034044 0.043087 0.13845 0.018096 
-0.41908 1.1988 0.23233 0.048348 0.061995 0.064625 0.14831 0.051965 
-0.34542 0.92188 0.43341 0.048019 0.080902 0.070215 0.1174 0.049828 
-0.19597 -0.23987 0.54504 0.081889 0.082053 0.056733 0.10803 0.024344 
-0.10571 -0.86069 0.25995 0.11066 0.060515 0.043087 0.069886 0.030427 
-0.11393 -0.32356 -0.35134 0.15916 0.056404 0.029441 0.054267 0.024179 
-0.21389 0.36353 -0.729 0.18251 0.051801 0.042265 0.043251 0.056569 
-0.3132 0.67427 -0.76139 0.11839 0.056733 0.023686 0.06479 0.08156 
-0.31566 0.3461 -0.61128 0.073832 0.076134 0.030263 0.066434 0.10113 
-0.086307 0.1248 -0.37156 0.021384 0.032236 0.054432 0.037332 0.12677 
0.21293 0.2611 -0.085156 -0.029748 0.009711 0.037826 0.0070803 0.1271 
0.48553 0.09274 0.30056 -0.044381 -0.01939 0.011684 -0.012814 0.13532 
0.5993 -0.31994 0.68381 -0.088444 -0.0031133 -0.020541 -0.049314 0.10688 
