0.0098754 0.071859 0.017438 0.040621 0.032236 0.040128 0.042429 0.015301 
-0.00097594 0.078765 0.0039565 0.039799 0.018754 0.033551 0.041772 0.0227 
0.024015 0.08715 0.02533 0.043087 0.007738 0.042429 0.022042 0.020398 
0.042758 0.089287 0.048348 0.054103 0.022042 0.016452 0.0065871 0.022206 
0.051636 0.072846 0.069064 0.01711 0.035524 0.034702 0.010697 0.040292 
0.034209 0.099316 0.078107 0.028125 0.042265 0.023522 0.01152 0.034866 
0.017932 0.17133 0.063803 0.053445 0.051801 0.017932 0.031907 0.024179 
0.017274 0.13532 0.020069 0.029769 0.039305 0.034702 0.0036276 0.0082312 
0.020727 0.090438 0.01152 0.034702 0.038155 0.041607 0.019411 0.014808 
0.014315 0.0060938 0.030263 -0.0044286 0.016452 -0.0050863 0.027468 0.024344 
-0.0067304 -0.077264 0.021878 -0.008539 0.022042 0.0062583 0.053609 0.014315 
0.00050378 -0.15043 -0.0039354 0.038648 0.023851 0.036675 0.047033 0.030098 
0.044073 -0.32717 -0.001798 0.0039565 0.042429 0.011026 0.026481 0.016616 
0.061995 -0.37913 0.036182 -0.0019624 0.05065 0.0051074 0.048348 0.038977 
0.055418 -0.18808 0.077285 0.0075736 0.018425 0.026646 0.043416 0.0324 
0.03536 0.068242 0.093562 -0.020377 0.067913 0.035524 0.028454 0.023686 
0.041278 0.31667 0.030263 0.057062 0.026317 0.026481 0.015301 0.030756 
0.053938 0.46629 -0.027118 0.026646 0.046375 0.04358 0.079916 0.047197 
-0.008539 0.46958 -0.031392 0.036675 0.021549 0.02829 0.037332 0.019083 
-0.0091966 0.38967 -0.022514 0.042265 0.038319 0.016945 0.042429 0.020069 
-0.046847 0.22148 0.024015 0.014315 0.040292 0.011355 0.018754 0.021384 
-0.015938 0.090274 0.040785 0.018918 0.029112 0.037826 0.0227 0.04095 
0.05624 -0.0057439 0.066598 0.044073 0.017767 0.019905 0.022535 -0.0059084 
0.12973 -0.02794 0.063803 0.034866 0.039634 0.01563 -0.0004827 0.024837 
0.28971 0.0062583 0.048348 0.079094 0.0052718 0.039799 0.0028056 0.0098754 
0.32358 -0.13103 0.0227 0.05065 0.05065 0.019083 0.038648 0.01415 
0.24992 -0.43832 0.045389 0.020727 0.062817 0.00099702 0.012177 0.027468 
0.10704 -0.4735 0.037826 0.041443 0.068736 0.022371 0.010369 0.021549 
-0.037476 -0.27834 -0.012156 0.02681 0.035524 0.044731 0.024673 0.041114 
-0.27308 -0.061316 -0.049478 0.047691 0.057062 0.031085 0.034373 0.057062 
-0.38949 0.12694 -0.017911 0.062323 0.045224 0.056404 0.038319 0.059528 
-0.2619 0.26011 -0.0029489 0.035524 0.060679 0.051965 0.039634 0.055582 
-0.076606 0.27705 -0.0077169 0.065776 0.049664 0.023851 0.066927 0.044731 
0.081889 0.22937 0.014315 0.014479 0.048513 -0.0014692 0.035031 0.029605 
0.13384 0.17067 0.047691 0.012342 0.047197 0.010862 0.015301 0.009711 
0.14075 0.12447 0.052952 0.012342 0.020233 0.011026 0.0064227 0.015959 
0.13269 0.04654 0.052623 0.005765 0.029112 0.012999 0.022206 0.025988 
0.085506 0.0064227 0.051801 0.040292 0.018589 0.012999 0.0080668 0.031907 
0.066598 -0.080223 0.062159 0.024344 0.022371 0.032236 0.0087245 0.027303 
0.041443 -0.14615 0.079587 0.047362 0.020562 0.01267 0.032729 0.04917 
0.041114 -0.14911 0.072681 0.040785 0.025988 0.011848 0.034702 0.028783 
0.065283 -0.099624 0.035853 0.0090533 0.040785 0.023686 0.029934 0.035195 
0.066269 0.025659 0.0060938 0.0054362 0.026317 0.013328 0.013164 0.024179 
0.077943 0.10967 -0.021363 0.041114 0.005765 0.038483 0.047855 0.031907 
0.18317 0.13565 -0.013307 0.036346 0.024015 0.0098754 0.027632 0.019411 
0.24729 0.15735 -0.0088678 0.037168 0.017767 0.051308 0.033715 0.034209 
0.1858 0.11839 0.0044497 0.037826 0.034044 0.031907 0.028125 0.029934 
0.080738 0.11987 0.023028 0.044238 0.049828 0.013328 0.041936 0.030592 
-0.032215 0.093233 0.035524 0.04654 0.074819 0.061172 0.014972 0.036839 
-0.28755 0.085999 0.030263 0.020233 0.070215 0.04095 0.024673 0.038319 
-0.44621 0.11214 0.023193 0.0031344 0.038319 0.023686 0.033058 0.042758 
-0.30366 0.14256 0.039634 0.017274 0.023686 0.039141 0.041443 0.039141 
-0.038133 0.11576 0.051472 0.0023123 0.020727 0.029934 0.017932 0.038648 
0.13467 0.10639 0.043087 0.046211 0.028783 0.011684 0.031907 0.02681 
0.17001 0.11724 0.023522 0.049992 0.033387 0.021056 0.087643 0.012835 
0.15045 0.1567 0.048677 0.025988 0.037168 0.034537 0.028947 0.01974 
0.11839 0.12135 0.065612 0.026317 0.027632 0.034866 0.018589 0.025988 
0.019083 0.14568 0.041607 0.020069 0.01974 0.0098754 0.018096 0.022206 
-0.014787 0.18646 0.03388 0.013492 0.013164 0.052294 0.044402 0.03651 
-0.0064016 0.20092 0.041114 0.015959 0.012177 -0.015773 0.037497 0.01004 
0.022371 0.16146 0.036346 -0.008539 0.042429 -0.019061 0.046211 0.0075736 
0.030756 0.17758 0.043416 0.051143 0.016452 0.0087245 0.027303 0.016288 
0.042594 0.14716 0.043909 0.027468 0.0227 0.023851 0.05213 0.03092 
0.096521 0.036182 0.047526 0.012999 -0.0077169 0.03536 0.029112 0.039634 
0.13927 -0.056877 0.073175 0.050321 -0.015609 0.06479 0.012999 0.028783 
0.13302 -0.10489 0.057227 0.046375 -0.018075 0.055418 0.015137 0.044402 
0.068242 -0.121 0.027468 0.053774 -0.033037 0.026152 0.026481 0.031742 
-0.029255 -0.092061 0.019905 0.054432 -0.021856 -0.029913 0.020727 0.024673 
-0.062631 0.0082312 0.017767 0.040292 -0.0075525 -0.023501 0.018754 0.03092 
-0.050958 0.067585 0.029112 0.063968 0.012177 -0.0072237 0.0421 0.039305 
-0.047834 0.063803 0.025495 0.007738 -0.0016336 0.029934 0.05476 0.039634 
-0.027282 0.074654 0.049006 0.00066819 -0.014787 0.050157 0.027303 0.047691 
-0.029913 0.10935 0.061501 0.036017 -0.0070593 0.051308 0.040292 0.035031 
-0.037476 0.17018 0.041772 0.019905 0.009711 0.0047785 0.0689 0.021056 
-0.0036066 0.18136 0.02122 0.031742 -0.0064016 -0.014622 0.038648 0.025495 
0.017932 0.16706 0.012835 0.029769 -0.0096899 -0.022185 0.016945 0.036346 
0.0421 0.1151 0.013492 0.030098 -0.0044286 -0.017253 0.026152 0.016452 
0.089452 0.060022 0.024673 0.063803 -0.03205 0.0044497 0.035524 0.01415 
0.099974 -0.017911 0.032236 0.023357 -0.045368 0.029605 0.016452 0.0083956 
0.087643 -0.027611 0.040785 0.034866 -0.022021 0.019576 0.0082312 0.014643 
0.094384 0.0080668 0.035688 0.025988 -0.02235 0.00066819 0.029605 0.018918 
0.14765 0.017438 0.046868 0.012506 -0.0138 0.019247 0.040621 0.013492 
0.18761 -0.031392 0.014479 0.027139 0.0090533 0.031907 0.014479 0.023851 
0.13976 -0.03616 0.031578 0.015301 0.014643 0.011684 0.02533 0.0023123 
0.079258 -0.088608 0.055254 -0.0049219 -0.003771 0.012506 0.055911 0.015794 
-0.020541 -0.10554 0.042265 0.030427 -0.039942 0.026481 0.025659 0.038977 
-0.13958 -0.07003 0.046046 0.012342 -0.0049219 0.02122 0.013821 0.061008 
-0.15898 -0.056219 0.031249 0.023851 -0.004593 -0.004593 -0.011663 0.071366 
-0.072332 -0.092883 0.030427 0.046868 -0.025638 -0.010676 0.00099702 0.048184 
0.010204 -0.097816 0.038812 0.029112 0.0079024 -0.0019624 0.013164 0.035195 
0.076956 -0.036489 0.0324 0.049664 0.085999 0.030098 0.025824 0.035524 
0.094877 0.037497 0.016123 0.031414 0.12743 0.075148 0.058706 0.033715 
0.12299 0.10392 0.018754 0.024015 0.11757 0.08008 0.061337 0.037497 
0.12316 0.19221 0.004943 0.035524 0.1202 0.062817 0.018096 0.0069159 
0.17297 0.1881 -0.0072237 0.013986 0.095699 0.039634 0.005765 0.00297 
0.086821 0.14108 0.011355 0.013657 0.099974 0.039963 0.029605 -0.0034422 
0.061995 0.096686 0.042758 0.015465 0.10737 -0.0013048 0.0039565 -0.0036066 
0.023686 0.04358 0.068736 -0.014787 0.13993 0.0085601 -0.0036066 0.035195 
-0.026296 0.020562 0.040128 0.042594 0.13138 0.036839 -0.030406 0.020891 
-0.02087 0.0098754 0.0074092 0.018918 0.11592 0.06479 0.024179 0.041936 
0.021713 0.0023123 -0.0011404 0.0082312 0.061501 0.084684 0.070873 0.040128 
0.034537 -0.059672 0.011848 0.015959 0.0018191 0.12118 0.073997 0.065283 
0.038648 -0.13859 0.027303 -0.0047575 -0.023829 0.1128 0.028947 0.062323 
0.038319 -0.20649 0.0421 0.010862 -0.046847 0.060022 0.009711 0.03947 
0.055089 -0.37847 0.044402 0.01415 -0.12149 -0.010512 -0.011663 0.010369 
0.064132 -0.50885 0.061008 -0.0082102 -0.1935 -0.051944 -0.014293 -0.021363 
0.061666 -0.21998 0.054267 0.045553 -0.20452 -0.10423 -0.016102 -0.0080457 
0.031907 0.12825 0.019411 0.014479 -0.083018 -0.14287 0.013986 0.00033937 
-0.00064712 0.42354 -0.003771 0.01004 0.049828 -0.07825 0.023357 0.00297 
0.0034632 0.6044 -0.00015387 0.0093821 0.14667 0.0069159 0.030263 0.030592 
0.0041209 0.5942 0.0072447 -0.0096899 0.18037 0.091589 0.052459 0.030098 
-0.0075525 0.41696 0.036346 0.0024767 0.22328 0.15193 0.035195 0.050979 
-0.014787 0.18465 0.047197 -0.0031133 0.2371 0.17149 0.042429 0.079258 
-0.0039354 0.0056006 0.040292 0.01974 0.22953 0.14831 0.051472 0.082875 
0.025659 -0.35479 0.063968 0.061666 0.22115 0.13812 0.052952 0.075476 
0.042758 -0.52726 0.073668 0.030263 0.1955 0.10063 0.024837 0.030263 
0.058871 -0.43651 0.066763 0.0011614 0.18744 0.028783 0.0092177 0.020562 
0.052623 -0.26453 0.029441 0.018754 0.18514 -0.0083746 0.0059294 -0.004593 
0.049664 -0.032379 -0.004593 -0.0042642 0.19912 0.051472 0.0090533 0.010697 
0.033551 0.12069 -0.022679 0.026152 0.19353 0.1128 0.0042853 0.038155 
0.016452 0.16196 -0.011827 0.048184 0.1391 0.11559 0.015301 0.05772 
0.023357 0.1345 0.012999 0.064132 0.026481 0.090603 0.053281 0.060022 
0.035031 0.14683 0.058377 0.096357 -0.1039 0.030098 0.066434 0.043745 
0.040128 0.14174 0.06594 0.052623 -0.20699 -0.047341 0.040456 0.028125 
0.046046 0.18596 0.028947 0.014315 -0.20436 -0.070359 0.030263 0.025824 
0.01711 0.21852 0.040456 0.026646 -0.10719 -0.052931 0.043251 0.0037921 
-0.0070593 0.19731 0.02681 0.023522 -0.022021 -0.058521 0.024837 0.016123 
-0.003771 0.12908 0.013986 0.059035 0.0031344 -0.045861 0.025001 0.0324 
0.015137 0.04917 0.030756 0.027139 0.033058 -0.021856 0.021549 0.031414 
0.0059294 -0.0044286 0.034209 0.023522 0.059364 -0.0055795 0.046704 0.047855 
0.044402 -0.065262 0.054432 0.041607 0.060679 0.019083 0.033387 0.033058 
0.02681 -0.11853 0.060679 0.039305 0.054596 0.018589 0.025988 0.048513 
0.045553 -0.10439 0.057227 0.022864 0.075641 0.035195 0.046868 0.024179 
0.05772 -0.085156 0.021878 0.055747 0.059035 0.029276 0.049828 0.034373 
0.06742 -0.016431 0.020562 0.048677 0.048019 0.038648 0.03651 0.040456 
0.070708 0.076299 -0.02235 0.077285 0.0021479 0.055089 0.068736 0.025166 
0.022535 0.090109 0.015465 0.024179 0.022042 0.031085 0.057555 0.037826 
0.032236 0.12168 0.03388 0.053774 0.033551 0.0037921 0.01826 -0.00015387 
0.034866 0.15357 0.016123 0.037826 0.031578 0.022535 0.019576 0.023193 
0.013328 0.15637 0.036182 0.012999 0.037004 0.026974 0.050979 0.018918 
-0.013965 0.14667 0.02122 0.0075736 -0.021692 -0.0036066 0.037497 0.033551 
0.013492 0.16985 -0.0042642 0.033058 -0.10028 -0.030735 0.00083261 0.045882 
0.066434 0.16903 -0.034023 0.067749 -0.10949 -0.036983 -0.06707 0.037497 
0.096521 0.13203 0.0028056 0.071202 -0.076277 -0.013143 -0.067399 0.047526 
0.067091 0.12562 -0.0039354 0.01152 -0.039284 0.0095465 0.031085 0.0092177 
0.023357 0.11526 0.048677 0.021056 0.0092177 -0.0067304 0.046211 0.025824 
-0.021363 0.11987 0.072517 0.042265 0.038155 -0.024816 0.079916 0.047526 
-0.020706 0.10244 0.077778 0.034702 0.058377 -0.025802 0.072517 0.023851 
0.0013258 0.1419 0.083368 0.060679 0.04358 -0.073976 0.081067 0.0421 
-0.0016336 0.13746 0.062817 0.039305 0.0095465 -0.11179 0.047033 0.01974 
0.023357 0.11083 0.062981 0.032729 0.027961 -0.073318 0.057884 0.03651 
0.014972 0.13927 0.016452 0.071695 0.0592 -0.016102 0.055582 0.035524 
0.021056 0.12661 0.031249 0.047033 0.057555 0.053281 0.054596 0.022864 
0.017767 0.093726 0.013328 0.046704 0.030263 0.033387 0.028454 0.028783 
0.01974 0.11132 0.020233 0.044731 0.05772 0.01152 0.01415 0.0092177 
0.02829 0.098988 0.0074092 0.070873 0.037661 0.024673 0.016452 0.031742 
0.036182 0.076956 0.013164 0.11872 -0.02646 0.032236 -0.01117 0.0421 
0.027303 0.11461 0.0069159 0.071366 -0.11541 0.068736 0.013328 0.050321 
0.0095465 0.17774 -0.010019 0.027303 -0.091568 0.10376 0.021713 0.051965 
-0.0067304 0.1664 -0.0021268 0.0011614 -0.064111 0.10984 0.042594 0.012013 
0.0227 0.12924 0.012999 -0.054575 -0.041586 0.009711 0.023357 0.035031 
0.048841 0.049335 0.024673 -0.074633 -0.00031829 -0.037147 0.020233 0.030098 
0.05772 -0.074633 0.050157 -0.044546 0.082875 -0.008539 0.033715 0.020233 
0.069558 -0.18742 0.061501 -0.038133 0.10573 0.021549 0.011848 0.027139 
0.068078 -0.12182 0.079916 0.033058 0.07301 0.033551 0.009711 0.020069 
0.14782 -0.029091 0.030592 0.03536 0.042758 0.063803 0.0041209 0.020727 
0.21868 0.030427 -0.028433 0.024015 -0.0062372 0.065283 0.036675 0.0046141 
0.17429 0.05065 -0.010512 0.022535 -0.018239 0.043909 0.012506 -0.0032777 
0.073832 0.028454 0.026481 0.0075736 0.0098754 0.0064227 0.011191 0.0069159 
-0.045203 0.064625 0.038977 0.023851 0.011848 0.017438 0.0075736 0.023357 
-0.27555 0.077778 -0.0044286 0.038483 -0.0095255 0.0062583 0.030756 0.051636 
-0.3737 0.12069 -0.0050863 0.035195 -0.0050863 0.012177 0.024344 0.038155 
-0.23198 0.078436 0.037497 0.046704 -0.008539 0.016616 0.030263 0.030427 
0.0082312 0.045882 0.049992 0.016945 0.0034632 -0.00064712 0.029276 0.014479 
0.1636 -0.010676 0.033387 0.021878 0.047526 0.01563 0.030592 0.0062583 
0.18843 -0.063124 0.049006 0.041772 0.083697 0.055747 0.020233 0.031907 
0.18432 -0.095514 0.054925 0.0039565 0.066763 0.070051 0.0060938 0.0024767 
0.159 -0.066248 0.056569 0.027961 0.053281 0.065447 0.050321 0.03388 
0.1197 -0.070359 0.058542 0.013657 0.035688 0.075476 0.042265 0.050321 
0.062652 -0.054246 0.056569 -0.0077169 0.037826 0.081395 0.031578 0.040621 
0.035524 0.0065871 0.050157 0.0067515 0.061172 0.082382 0.031414 0.049499 
0.019905 0.024179 0.053938 0.0062583 0.049992 0.0592 0.043909 0.031085 
0.035524 0.045553 0.044567 0.01004 0.018096 0.063639 0.0227 0.026481 
0.015959 0.031907 -0.0098543 0.052623 -0.019061 0.021384 0.013821 0.012177 
0.021384 0.026974 -0.0073881 0.04506 -0.025474 0.014643 0.026646 0.017932 
0.0069159 0.01826 0.0044497 0.0592 0.0060938 0.057884 0.038155 0.022371 
0.028783 -0.0083746 0.017274 0.045224 -0.01676 0.017438 0.013492 -0.0011404 
0.027961 -0.017746 0.013328 0.034044 -0.021856 -0.0096899 -0.024652 0.005765 
0.016123 -0.037476 0.022864 0.035031 -0.042737 0.024179 0.044238 0.02533 
0.010533 -0.046683 0.040128 -0.0034422 -0.12856 0.066434 0.05213 0.043909 
0.0034632 -0.02942 0.051143 -0.020377 -0.17887 0.02829 0.044238 0.039634 
0.029441 -0.046354 0.03651 -0.018733 -0.12314 0.0092177 0.017438 0.037661 
0.015465 -0.032872 0.047526 -0.018075 0.0037921 0.059528 0.052787 0.031907 
0.021384 0.010533 0.055089 0.010862 0.11033 0.046211 0.029112 0.040292 
0.01826 0.0227 0.025166 0.026646 0.17445 0.043909 0.015465 0.034537 
0.02533 0.0023123 0.023193 0.035031 0.22049 0.027632 0.013492 0.033387 
0.047526 0.034866 0.031578 0.050814 0.22148 -0.0024557 0.022864 0.010533 
0.042594 0.068242 0.056569 0.038483 0.19501 -0.11639 0.0072447 0.032893 
0.037826 0.073175 0.061995 0.022864 0.15653 -0.15026 0.014643 0.021713 
0.049828 0.095535 0.023851 0.027468 0.15818 -0.055726 0.040128 0.031907 
0.040785 0.094384 0.037661 0.021384 0.11987 0.057391 0.040456 0.057227 
0.051965 0.066269 0.034537 0.055254 0.063145 0.16722 0.035195 0.01826 
0.061995 0.012177 0.040292 0.019083 0.015465 0.23085 0.025824 0.044073 
0.064954 0.039141 0.031578 0.034373 -0.043888 0.17511 0.042265 0.026974 
0.1687 0.040785 0.054267 0.0592 -0.13333 0.035031 0.06183 0.035031 
0.31338 0.028619 0.055582 0.04358 -0.25121 -0.050136 0.032564 0.019905 
0.32456 0.078929 0.047855 0.040456 -0.24941 -0.070852 0.055254 0.01711 
0.17906 0.060515 0.043251 0.030427 -0.15865 -0.039613 0.073997 0.015794 
-0.018733 0.079422 0.0080668 0.023028 -0.03764 -0.064768 0.029112 -0.0013048 
-0.3178 0.14354 0.015465 0.044731 0.051636 -0.071509 -0.0019624 -0.0075525 
-0.5756 0.14157 0.0034632 0.021878 0.171 -0.0059084 -0.0098543 0.022042 
-0.47514 0.1248 -0.013636 0.052459 0.24729 0.087314 0.0052718 0.048184 
-0.14434 0.11625 -0.057205 0.061172 0.25074 0.16097 0.013328 0.076627 
0.1544 0.081724 -0.052931 0.043251 0.20717 0.15078 0.025988 0.052952 
0.29678 0.030427 0.0051074 0.024179 0.14716 0.1054 0.050321 0.05065 
0.24729 0.022206 0.052787 -0.026953 0.071859 0.075476 0.041772 0.022206 
0.19928 0.037661 0.06479 -0.035996 0.078436 0.068242 0.026481 0.03651 
0.15587 0.019411 0.013821 0.0059294 0.072517 0.051472 0.085012 0.075641 
0.099645 0.082546 -0.012649 0.022206 0.091425 0.014479 0.053281 0.046046 
0.033715 0.12628 -0.035667 0.062159 0.065118 0.027796 0.039141 0.06035 
0.03536 0.094877 -0.0029489 0.051472 0.052459 -0.0055795 0.038319 0.033551 
0.020398 0.073997 0.051472 0.033551 0.014808 -0.057863 0.028947 0.025166 
-0.00015387 0.068407 0.085506 0.038483 -0.031064 -0.14566 0.026481 0.013164 
-0.0060728 0.01974 0.11033 0.0065871 -0.052931 -0.13612 0.013657 -0.0040998 
0.011191 -0.003771 0.081231 0.00017495 -0.050629 -0.047998 0.0060938 0.021384 
0.014972 0.031578 0.066763 0.030756 -0.048163 0.047855 -0.0055795 0.014972 
0.01826 0.033387 0.093891 -0.012485 -0.086471 0.09981 0.010369 0.017932 
0.047362 0.027303 0.10408 -0.026789 -0.073482 0.10113 -0.0039354 0.024344 
0.037004 0.035031 0.069064 -0.0098543 -0.032543 0.067749 -0.017253 0.011848 
0.039963 -0.037476 0.078436 -0.0083746 0.01563 0.064954 0.023357 0.027632 
0.020891 -0.13021 0.081231 0.054596 0.056898 0.047855 0.034866 -0.0070593 
0.009711 -0.13958 0.082711 0.093562 0.11609 0.042265 0.025659 0.034044 
0.027468 -0.0083746 0.034209 0.11477 0.12168 0.063474 0.0090533 0.064954 
0.024015 0.095042 -0.047341 0.17955 0.081889 0.090603 0.037661 0.053774 
0.023028 0.15111 -0.056877 0.12316 0.052787 0.06183 0.037661 0.052787 
0.015465 0.20947 -0.066577 0.076299 -0.0070593 0.0227 0.016616 0.039305 
-0.018897 0.17215 -0.046025 0.010533 -0.047834 0.00099702 0.019083 0.051965 
-0.030242 0.11543 -0.0040998 -0.036325 -0.050464 -0.048163 0.051143 0.019247 
-0.0068948 0.092411 0.051472 0.0051074 -0.071345 -0.08828 0.031085 0.018096 
0.024508 0.056404 0.063968 -0.0068948 -0.090417 -0.11212 0.016288 -0.0026201 
0.065776 0.020562 0.067913 -0.010512 -0.12297 -0.14237 0.02122 -0.011827 
0.081395 0.048019 0.048019 0.0087245 -0.10965 -0.13136 0.0093821 0.00017495 
0.070215 -0.039284 0.070051 0.027303 -0.046683 -0.08384 0.028947 0.016616 
0.080902 -0.16605 0.042923 0.072846 -0.06296 -0.035338 0.027139 0.037497 
0.12497 -0.14665 0.035031 0.069558 -0.035503 -0.01232 0.056569 0.035031 
0.14206 -0.02498 0.040785 0.037661 0.029441 0.03092 0.034373 0.010204 
0.12003 0.024179 0.061666 0.068736 0.11378 0.11181 0.03536 0.037168 
0.026646 0.052294 0.09422 0.032564 0.14289 0.11526 0.0092177 0.033222 
-0.056877 0.11346 0.073997 0.028454 0.1197 0.088301 0.046375 0.029934 
-0.062138 0.11576 0.034537 0.020398 0.052623 0.075312 0.057555 0.013492 
-0.019719 0.074819 0.035688 -0.0052507 -0.027282 0.0021479 0.015465 0.011684 
0.051965 0.086328 0.012506 1.0539e-005 -0.012156 -0.073482 -0.0024557 0.019247 
0.15604 0.058706 0.016781 -0.0064016 0.046704 -0.11179 0.01711 0.013821 
0.29957 0.022042 0.0056006 0.0065871 0.032071 -0.083347 0.004943 0.03651 
0.30105 0.049664 -0.00097594 0.051143 -0.067235 -0.031886 0.036346 0.036839 
0.17001 0.054267 0.023028 0.043416 -0.094527 0.017767 0.058871 0.053116 
0.029276 0.050814 0.038483 0.032729 -0.070523 0.091096 0.019247 0.048841 
-0.18874 0.17051 0.025988 0.03651 -0.0016336 0.087643 -0.0027845 0.030098 
-0.40527 0.31371 -0.026953 0.012835 0.02122 0.033715 0.0021479 0.034373 
-0.44341 0.33837 -0.037805 0.041607 0.095699 0.041607 0.032729 0.0085601 
-0.18463 0.25058 -0.028104 0.035688 0.1664 0.03947 0.029605 0.0032988 
0.12825 0.14338 -0.001798 0.030756 0.17462 0.033387 0.0087245 0.0075736 
0.26143 0.030263 0.0054362 0.033222 0.19221 0.061172 0.025988 0.033058 
0.27409 -0.057699 0.019905 0.01974 0.16262 0.099974 0.064132 0.029769 
0.22871 -0.10078 0.069558 0.022371 0.11592 0.071531 0.061995 0.016781 
0.12628 -0.1575 0.068736 0.017438 0.072024 0.059693 0.058377 0.023193 
0.02829 -0.13136 0.027303 -0.0013048 0.028619 0.0592 0.073175 0.052787 
-0.049314 -0.061645 0.027468 0.022042 0.0026412 0.044731 0.082217 0.039799 
-0.02498 -0.023501 0.028783 -0.0083746 -0.019061 -0.010512 0.053281 0.031249 
0.023522 0.0013258 0.0075736 -0.011992 -0.03912 0.0014903 0.023357 0.030263 
0.060844 -0.00064712 -0.0029489 0.023522 -0.0050863 -0.015444 0.013657 0.032071 
0.090438 -0.070194 0.027139 -0.013471 -0.0040998 -0.02794 0.021056 0.024508 
0.18415 -0.32767 0.065776 -0.0049219 0.0047785 -0.075455 -0.0062372 0.022042 
0.20454 -0.37222 0.063639 0.0095465 0.039963 -0.064604 -0.031064 0.023686 
0.14157 -0.037311 0.014972 0.012506 0.082382 0.0039565 0.005765 0.032893 
0.053116 0.30187 -0.022514 0.062488 0.10096 0.067749 0.027139 0.039141 
-0.17032 0.43686 -0.024158 0.015137 -0.05885 0.12414 0.046704 0.038977 
-0.38538 0.45527 -0.0064016 1.0539e-005 -0.24694 0.09274 0.053609 0.037826 
-0.37847 0.42634 -0.015444 0.019411 -0.17657 0.088136 0.064296 0.053609 
-0.26026 0.3826 -0.00097594 -0.010512 0.019905 0.11231 0.010369 0.014808 
-0.13185 0.33673 0.028125 -0.0016336 0.18744 0.1396 -0.00031829 0.021384 
-0.013143 0.18859 0.037004 0.013986 0.32522 0.14848 -0.021034 0.0060938 
0.091425 -0.011334 0.035524 0.03651 0.36189 0.17824 0.0019835 0.026481 
0.18235 -0.15733 0.022371 0.066105 0.30894 0.17067 -0.014458 0.031907 
0.20914 -0.26108 0.056404 0.040456 0.27754 0.086821 0.017767 0.023028 
0.16738 -0.3663 0.072024 0.036017 0.27688 0.019905 0.058049 0.028783 
0.1544 -0.50573 0.097179 0.028947 0.18695 -0.035996 0.016945 0.0093821 
0.13236 -0.52233 0.08304 -0.0052507 0.086821 -0.1182 0.014479 0.016288 
0.056404 -0.25697 0.069393 0.015137 0.046046 -0.14977 0.035853 0.036346 
0.0039565 0.041607 0.05213 0.01152 0.067256 -0.01939 0.06183 0.06594 
-0.027775 0.21868 0.041607 0.043087 0.021549 0.15292 0.075312 0.080738 
-0.022679 0.22493 0.019411 0.094548 -0.10965 0.18777 0.047197 0.076463 
0.00099702 0.19024 0.029769 0.072681 -0.30942 0.080244 0.030427 0.045882 
-0.0034422 0.2223 0.031742 0.042265 -0.41908 -0.064933 0.034209 0.015301 
-0.023665 0.13187 0.068078 0.026974 -0.3395 -0.16243 0.0070803 -0.017417 
-0.01676 0.1396 0.054103 -0.013471 -0.1963 -0.22441 0.0028056 0.010862 
0.0023123 0.1105 0.051143 0.029276 -0.069208 -0.18709 0.0060938 -0.0031133 
-0.011005 0.063968 0.056898 0.025659 0.062652 -0.078908 0.026317 0.017767 
0.020233 0.039141 0.062488 -0.010512 0.18892 0.090931 0.011355 0.018425 
0.034044 0.036675 0.0069159 0.040621 0.22559 0.15324 0.021056 0.031085 
0.041443 0.0098754 0.029276 0.041443 0.19336 0.23068 0.0024767 0.045224 
0.055254 -0.028926 0.011684 0.034209 0.15867 0.18465 0.020727 0.036182 
0.056898 -0.01939 0.015137 0.064461 0.22411 0.19353 0.02533 0.03947 
0.056569 0.0324 0.031742 0.04917 0.26817 0.19451 0.022206 0.035688 
0.06479 0.062981 0.035853 0.071695 0.21589 0.12694 0.053609 0.041607 
0.05213 0.047691 0.063639 0.03536 0.12233 0.039141 0.049664 0.044731 
0.048348 0.058377 0.077285 0.018096 0.034209 -0.026296 0.027303 0.016123 
0.055254 0.045224 0.071366 0.025659 -0.0073881 -0.10242 0.047526 0.014643 
0.043251 0.035031 0.053774 0.016123 0.010697 -0.1182 0.031907 0.013328 
0.057884 0.092411 0.01711 0.041278 -0.0016336 -0.089102 -0.0004827 0.027139 
0.041114 0.13582 -0.0011404 0.068571 -0.029255 -0.047998 0.0021479 0.054925 
0.033387 0.20947 -0.02087 0.071366 -0.077593 -0.050464 0.03799 0.018754 
0.02829 0.2223 0.014808 0.061337 -0.07003 -0.0068948 0.029112 0.038812 
0.032236 0.18596 0.043087 0.050814 0.0016547 0.071859 0.051143 0.015794 
0.050157 0.15259 0.032071 0.038977 0.0051074 0.066434 0.045718 0.045882 
0.1368 0.15571 0.062159 0.058377 -0.036325 0.019905 0.056898 0.020233 
0.25304 0.14157 0.012013 0.023357 -0.15585 -0.04619 0.048841 0.012013 
0.26389 0.12595 0.024344 0.045224 -0.15585 -0.094199 0.032729 0.034537 
0.19813 0.10967 0.022042 0.0060938 -0.13004 -0.12889 0.035853 0.0064227 
0.076956 0.048513 0.030592 -0.016102 -0.047505 -0.071016 0.03947 0.0092177 
-0.19466 -0.068714 0.032071 0.027468 0.0065871 0.071366 0.017603 0.016616 
-0.39886 -0.14287 0.038648 0.018096 0.064132 0.1031 -0.0073881 0.01826 
-0.28689 -0.054246 0.039963 0.029769 0.11214 0.1248 0.0324 0.036346 
-0.017417 0.024179 0.037661 0.052623 0.12266 0.16212 0.013657 0.038319 
0.15078 -0.074798 0.047691 0.025659 0.13565 0.12085 0.014315 0.066763 
0.21309 -0.20386 0.025659 0.024344 0.069558 0.061008 0.026152 0.023686 
0.18596 -0.12642 0.024344 -0.001798 -0.0039354 -0.0062372 0.048677 0.01826 
0.1031 0.10326 0.016945 -0.0057439 0.016616 -0.035503 0.051472 0.030756 
0.076627 0.2611 0.01826 0.044238 0.021878 -0.050793 0.034866 0.026646 
0.061995 0.23249 0.025001 0.020727 -0.014458 -0.029584 0.023851 0.035195 
0.044896 0.12497 0.031249 0.041936 -0.028762 -0.0011404 0.024837 0.042265 
0.029112 0.065283 0.032071 0.069558 -0.15257 -0.030242 0.01415 0.042923 
0.012835 0.076463 0.02533 0.058871 -0.25138 -0.084827 0.011355 0.047526 
0.0095465 0.068078 0.011848 0.082546 -0.22803 -0.067892 0.011684 0.030098 
0.018096 0.048677 0.010697 0.043909 -0.079566 -0.033694 0.023686 0.030592 
0.02533 0.032893 0.028125 0.01152 0.018754 -0.044874 -0.0060728 -0.00097594 
0.017767 -0.038133 0.014315 0.032893 0.12316 0.014808 0.026317 0.011848 
0.037661 -0.053095 -0.049807 0.016288 0.13894 0.076956 0.058706 0.014315 
0.036182 0.029441 -0.1233 -0.023336 0.15818 0.062159 0.020069 0.0088889 
0.013657 0.0044497 -0.10193 -0.03616 0.11806 0.070873 -0.0042642 0.010697 
0.0062583 -0.094527 -0.012814 -0.049478 0.10885 0.094055 -0.0054151 0.00099702 
0.026481 -0.080388 0.075476 0.01563 0.14354 0.11724 0.0065871 0.013492 
0.03799 -0.050464 0.1105 -0.010841 0.15604 0.10869 0.014315 0.014643 
0.057391 -0.023172 0.16294 0.043909 0.16656 0.078272 0.02122 0.041772 
0.011191 0.0062583 0.15176 0.06742 0.12381 0.05213 0.032729 0.064461 
0.01826 0.067749 0.12776 0.075805 0.017603 0.03536 0.052952 0.052952 
-0.015609 0.076299 0.11921 0.073668 -0.14056 0.0085601 0.040621 0.062159 
-0.018404 0.10491 0.11674 0.035195 -0.2203 -0.038298 0.026317 0.041607 
0.023522 0.12858 0.10704 0.00050378 -0.20995 -0.081539 0.023522 0.029934 
0.037826 0.085835 0.066598 0.032893 -0.10176 -0.063453 0.016123 0.029276 
0.038319 0.050486 0.02533 -0.012485 -0.021363 0.020233 0.0051074 -0.012814 
0.038483 0.072517 -0.012978 0.015137 0.066269 0.0011614 0.0090533 0.019411 
0.011026 0.080573 -0.040764 0.019247 0.10392 0.032893 0.035853 0.012342 
0.0019835 0.074983 -0.054575 0.036346 0.094055 0.017438 0.042594 0.015959 
-0.0031133 0.11378 -0.034352 0.06183 0.11066 0.037332 0.044073 0.020069 
0.067256 0.085999 -0.021528 0.073997 0.1128 0.042429 0.055582 0.026317 
0.19057 0.058542 0.0064227 0.071695 0.092576 0.038977 0.075148 0.03388 
0.22756 0.10408 0.015137 0.066434 0.10803 0.060022 0.054925 0.024015 
0.21753 0.08304 0.039634 0.0098754 0.087643 0.046704 0.035524 0.037497 
0.077614 0.0227 0.060022 -0.035503 0.082053 0.048513 0.032071 0.025824 
-0.2083 -0.035996 0.097508 -0.035174 0.064132 0.05772 0.061172 0.034044 
-0.37699 0.044073 0.077943 -0.047834 0.056404 0.032729 -0.0067304 0.036182 
-0.15405 0.13138 0.023686 -0.0057439 0.058542 0.026317 -0.05885 0.038648 
0.094384 0.17445 -0.044874 -0.011663 0.056898 0.0324 -0.042737 0.040292 
0.18892 0.17922 -0.081045 0.00050378 0.049828 0.035031 -0.013471 0.020562 
0.17856 0.097508 -0.055561 0.044073 0.045718 0.018589 0.03947 0.027796 
0.057227 0.01711 -0.0080457 0.031085 0.053938 0.01152 0.067585 0.02681 
-0.15964 -0.08828 0.07449 0.039141 0.042265 0.016616 0.077943 0.021713 
-0.29232 -0.20337 0.13582 0.051636 0.023522 0.0023123 0.046704 0.031085 
-0.20057 -0.2471 0.16771 0.047033 0.011026 0.0014903 0.038155 0.019905 
0.018096 -0.19646 0.1853 0.076792 0.0095465 0.019247 0.015794 0.022371 
0.18761 -0.13349 0.17626 0.03947 0.032729 0.03947 0.044073 0.047691 
0.24417 0.0036276 0.1544 0.041607 0.026646 0.020727 0.030592 0.035853 
0.17824 0.22279 0.12973 0.054103 0.038812 0.00083261 0.053281 0.048019 
0.088301 0.33262 0.060515 0.034044 -0.0044286 0.01826 0.048677 0.027796 
0.011684 0.28017 -0.034023 0.017767 -0.058028 -0.032215 0.050814 0.023522 
-0.030735 0.10244 -0.056219 0.037497 -0.098967 -0.022514 0.040128 0.033715 
0.0088889 -0.030899 -0.084169 0.065612 -0.12577 -0.014787 0.02533 0.01415 
0.090438 -0.12149 -0.049807 0.11806 -0.10193 -0.0019624 0.043909 0.031085 
0.11839 -0.12708 -0.031557 0.11247 -0.047998 0.0023123 0.028125 0.028783 
0.095042 -0.072825 -0.038956 0.1442 0.0083956 0.031249 0.0093821 0.02681 
-0.035503 -0.036325 -0.054246 0.14338 0.074654 0.028947 0.036675 0.038648 
-0.20616 -0.022021 -0.029748 0.10228 0.089287 0.05772 0.045224 0.041772 
-0.19416 0.028125 -0.030735 0.012835 0.086985 0.034373 0.011684 0.051965 
-0.10932 0.047691 -0.0057439 -0.068057 0.059364 0.004943 0.01267 0.017767 
-0.0019624 0.084026 0.022864 -0.10209 0.048184 -0.053917 0.012999 0.019411 
0.057555 0.090931 0.042758 -0.035832 0.10672 -0.095185 0.026152 -0.0032777 
0.079916 0.076956 0.031742 -0.035996 0.19813 -0.0078813 0.012013 0.022864 
0.062488 0.065447 0.0047785 0.00083261 0.20865 0.12529 0.020069 0.060679 
0.049335 0.06479 0.0095465 0.060022 0.10688 0.18284 0.030592 0.047691 
0.054103 0.055747 0.020891 0.079422 -0.062467 0.16936 0.023686 0.040292 
0.044567 -0.0080457 0.023193 0.04506 -0.19564 0.076956 0.0018191 0.01826 
0.06331 -0.084169 0.022371 0.021549 -0.255 0.0062583 0.016945 0.01711 
0.06035 -0.0406 0.048019 0.0098754 -0.22145 0.0034632 0.051308 0.033222 
0.049335 0.043251 0.046046 0.051801 -0.10801 -0.0016336 0.057391 0.017603 
0.059364 0.073997 0.073504 0.048513 -0.035667 -0.05326 0.052787 0.0026412 
0.061995 0.076134 0.041278 0.047526 0.011355 -0.16638 0.050979 0.02122 
0.044402 0.050486 0.031085 0.066927 0.067749 -0.1108 0.07038 0.038155 
0.014643 0.023028 0.039634 0.048019 0.10441 -0.027775 0.033551 0.050979 
0.097179 0.044402 0.028454 0.052294 0.1567 0.099645 0.040621 0.036017 
0.17807 0.08863 0.0070803 0.01415 0.17577 0.15686 0.023851 0.055254 
0.17215 0.12053 -0.0096899 0.027139 0.22345 0.17725 0.0080668 0.038977 
0.083697 0.14798 -0.024816 0.053938 0.23825 0.1613 -0.004593 0.019083 
-0.011663 0.13072 -0.048163 0.046046 0.23151 0.15308 -0.0050863 0.044402 
-0.24497 0.0786 -0.029255 0.045718 0.15999 0.12792 0.038319 0.040621 
-0.31747 0.049992 0.00066819 0.02829 0.047033 0.0018191 0.068736 0.044896 
-0.15257 0.076134 0.022206 -0.0083746 -0.072003 -0.12593 0.041607 0.016616 
0.068736 0.070051 0.036839 0.004943 -0.1085 -0.14698 0.043251 0.014315 
0.17314 0.12644 0.016945 -0.044874 -0.072332 -0.082854 0.053938 0.010204 
0.18235 0.18925 0.015301 -0.026296 -0.026296 -0.018733 0.060515 0.024015 
0.16837 0.16706 0.028125 0.00050378 -0.016266 0.029605 0.025166 0.039141 
0.17725 0.11477 0.032729 -0.0068948 -0.019884 0.095699 0.0014903 0.030756 
0.18547 0.07597 0.033551 0.0070803 -0.037969 0.089287 -0.02087 0.034702 
0.16738 0.047691 0.023357 0.014808 -0.067235 0.033222 -0.030077 0.016123 
0.11198 0.077778 0.0044497 0.038648 -0.088937 0.0031344 -0.042901 0.0036276 
0.048348 0.15226 0.04358 0.046868 -0.0039354 -0.03912 0.017767 0.021713 
-0.021363 0.15094 0.022206 0.018096 0.08978 -0.032872 0.048348 0.0054362 
-0.021692 0.15193 -0.00097594 0.0085601 0.11773 0.055747 0.047855 0.04358 
-0.048327 0.093398 0.039141 0.02681 0.16377 0.082382 0.034044 0.054103 
-0.008539 0.067091 0.033058 -0.020706 0.14469 0.060844 0.040785 0.027303 
0.023193 0.028619 0.053116 0.015465 0.21457 0.11428 0.041607 0.058049 
-0.018733 0.023028 0.051308 0.019905 0.24795 0.15571 0.053445 0.04095 
-0.015444 0.030592 0.077778 0.055747 0.21506 0.093726 0.069229 0.055254 
-0.0080457 0.011848 0.075312 0.067585 0.11411 -0.016924 0.086328 0.028619 
-0.010183 0.018096 0.053774 0.04654 -0.0004827 -0.022514 0.068736 0.03092 
0.014479 0.057227 0.029934 0.012342 -0.054575 -0.016924 0.048841 0.050979 
0.048348 0.085835 0.025824 0.029441 -0.1746 -0.056055 0.0074092 0.036839 
0.06035 0.074326 0.026152 0.019083 -0.33326 -0.11459 -0.0138 0.045389 
0.062488 0.044238 0.042923 0.032071 -0.3668 -0.13596 -0.022514 0.024673 
0.041936 0.04506 0.023193 0.0098754 -0.26716 -0.12231 -0.0082102 0.029934 
0.030427 0.013328 0.055747 0.011355 -0.19548 -0.070523 0.021056 0.012342 
0.037826 0.012013 0.084026 0.02829 -0.18528 -0.028597 0.01415 0.0037921 
0.021713 0.0064227 0.073997 -0.0040998 -0.10193 0.045389 0.0065871 0.014808 
0.053116 -0.0073881 0.048184 0.0095465 0.08419 0.12431 -0.024487 0.0074092 
0.065776 -0.049642 0.037332 0.0039565 0.21621 0.18465 -0.044217 0.0092177 
0.076299 -0.047834 0.019576 -0.013143 0.27968 0.11839 -0.05589 -0.010841 
0.068407 -0.034845 0.023686 -0.014951 0.32423 0.033551 -0.0082102 -0.023007 
0.04917 -0.038791 0.05772 -0.035503 0.34955 0.070051 0.062981 0.023686 
0.04654 0.01563 0.081889 -0.016924 0.35958 0.11296 0.072846 0.067913 
0.05772 0.018096 0.11115 0.014972 0.36731 0.0786 0.051143 0.037497 
0.048184 0.039141 0.083204 0.014643 0.329 0.052952 0.041443 0.017767 
0.032893 0.048184 0.051308 0.043087 0.23397 0.147 0.056404 0.042758 
-0.038298 0.0092177 0.0014903 0.091096 0.16459 0.26521 0.082217 0.094384 
-0.060329 -0.034681 0.0065871 0.11707 0.073997 0.26176 0.045718 0.098001 
-0.063289 -0.018568 0.024673 0.12546 -0.13432 0.11855 0.03388 0.074983 
-0.021363 0.0062583 0.058706 0.048841 -0.36532 -0.065755 0.0421 0.028947 
0.017603 0.01711 0.08304 0.033715 -0.4781 -0.17049 0.01415 0.0013258 
0.052787 0.06331 0.083368 0.016616 -0.39162 -0.18611 -0.0052507 -0.0034422 
0.0786 0.10244 0.086657 0.0021479 -0.24414 -0.1256 -0.0022913 0.00050378 
0.086492 0.057555 0.057391 0.016288 -0.078908 -0.03501 0.0075736 0.013821 
0.071366 0.034866 0.048513 0.0028056 0.019083 0.00297 0.018096 0.0047785 
0.049828 0.070051 0.032071 0.0072447 0.078436 0.016288 0.013657 0.00083261 
0.048348 0.065776 0.013821 0.038319 0.099645 0.015959 0.0074092 0.0026412 
0.046868 0.041772 0.018096 0.036839 0.096193 0.024179 0.0042853 0.0054362 
0.046211 0.0032988 0.032564 0.041114 0.11477 0.058213 -0.011827 0.023686 
0.03536 -0.10489 0.044896 0.0032988 0.11083 0.049006 0.015301 0.0013258 
0.080573 -0.14303 0.030427 -0.0068948 0.10096 0.029112 0.030427 0.012999 
0.11477 -0.096336 0.047691 0.041607 0.092082 -0.013636 0.028454 0.028454 
0.16311 -0.0090322 0.01004 0.030427 0.19106 -0.024652 0.041278 0.031414 
0.057391 0.069229 0.043745 0.064625 0.21934 0.086821 0.05065 0.057555 
-0.045532 0.11313 0.023522 0.094548 0.21161 0.17133 0.094877 0.054925 
-0.32536 0.088794 0.017603 0.10984 0.15801 0.20602 0.098001 0.060679 
-0.49751 0.013492 0.015794 0.10935 0.10145 0.18448 0.064132 0.049335 
-0.29856 -0.087293 0.012835 0.086163 0.020398 0.13631 0.0016547 0.032236 
0.029441 -0.10669 0.033058 0.027468 -0.0062372 0.056569 0.013657 0.03947 
0.19353 -0.028269 0.09126 0.023193 0.004943 -0.014458 0.004943 0.020891 
0.22082 0.14124 0.088958 0.0019835 -0.0075525 -0.089759 -0.0013048 0.0044497 
0.20092 0.24729 0.063803 0.025001 0.016288 -0.079401 -0.0080457 0.012177 
0.19879 0.17824 0.056404 0.061995 0.015137 -0.012814 -0.01676 0.016452 
0.14404 0.085506 0.04917 0.045389 -0.052602 0.018096 0.0042853 0.045553 
0.076956 0.051801 0.051308 -0.00081153 -0.15799 -0.015116 0.018425 0.018918 
0.032893 -0.038133 0.046704 0.025166 -0.25204 0.0018191 0.076956 0.036346 
0.088465 -0.10143 0.059364 0.0085601 -0.18019 -0.021363 0.066763 0.024179 
0.11905 -0.16013 0.049335 0.049664 -0.086307 -0.027775 0.047691 0.026974 
0.11148 -0.10423 0.037826 0.018754 -0.025145 -0.0055795 0.043087 0.039799 
0.013492 0.024179 -0.020377 0.01711 -0.0083746 0.00017495 0.036017 0.010697 
-0.10686 0.11444 -0.039449 0.037004 0.060679 0.009711 0.033551 0.0067515 
-0.20123 0.15275 -0.030406 0.029112 0.12924 -0.011005 0.011848 0.014643 
-0.20584 0.066927 -0.031721 0.059857 0.15999 -0.068057 -0.0004827 0.026481 
-0.10883 0.03388 -0.045696 0.071859 0.19632 -0.07562 0.043416 0.021549 
-0.019061 0.077943 -0.03205 0.037661 0.19681 -0.017253 0.041772 0.045718 
0.040785 0.069558 0.010533 0.041114 0.15982 0.016945 0.033058 0.053938 
0.039305 0.09126 0.057227 -0.004593 0.087972 -0.034188 0.044896 0.031414 
0.057555 0.13171 0.024837 -0.00064712 -0.0091966 -0.060823 0.040785 0.029769 
0.048348 0.10014 0.024344 0.042923 -0.14056 -0.037311 0.0421 0.05065 
0.034209 0.010697 0.024344 0.047362 -0.1649 -0.022514 0.036675 0.049006 
0.073339 -0.093048 0.028619 0.037826 -0.040435 0.0034632 0.061337 0.060186 
0.18974 -0.072167 0.048184 0.027961 -0.0014692 0.067585 0.028619 0.041772 
0.22345 0.12381 0.060679 0.0026412 -0.0054151 0.1202 0.020069 0.043416 
0.19583 0.28708 0.072024 0.035688 -0.025638 0.11461 0.016781 0.041443 
0.090438 0.39888 0.074161 0.0047785 0.0070803 0.11691 0.040456 0.024179 
-0.042573 0.27639 0.038483 -0.027447 0.0082312 0.11247 0.02122 0.031578 
-0.19235 0.083368 0.027303 -0.0055795 0.010204 0.019411 -0.0057439 1.0539e-005 
-0.19663 -0.034023 -0.0031133 -0.00064712 0.052459 -0.074633 -0.014293 0.0093821 
-0.046847 -0.099295 -0.030077 0.022371 0.073504 -0.050793 0.012835 -0.0095255 
0.060186 -0.061316 -0.010019 -0.020048 0.09833 -0.0090322 0.027796 0.028619 
0.063145 0.015137 -0.014129 -0.003771 0.12809 0.030098 0.027961 0.034209 
0.022864 0.0069159 -0.028597 0.043416 0.086328 -0.018897 0.01974 0.034373 
-0.0032777 0.0036276 -0.0088678 0.038977 -0.0075525 -0.11048 0.01004 0.060186 
0.088794 0.085999 -0.023336 0.039634 -0.021692 -0.17591 0.0090533 0.022864 
0.2999 0.12184 -0.024487 0.050814 0.047526 -0.11804 0.048184 0.044731 
0.4482 0.094877 0.020727 0.02122 0.035195 0.020069 0.074654 0.039141 
0.39855 0.072188 0.085012 0.030592 -0.006566 0.052952 0.059364 0.047855 
0.29152 0.029441 0.091096 -0.011827 -0.06148 0.013328 0.046375 0.026646 
0.14026 0.050321 0.08567 -0.025638 -0.11015 -0.020377 0.057227 0.012506 
-0.2841 0.19599 0.0786 -0.0011404 -0.094034 0.014479 0.072681 0.021878 
-0.62295 0.36008 0.061501 -0.0055795 -0.018075 0.031249 0.031085 0.010369 
-0.57741 0.35071 0.037332 0.019247 0.069722 0.070708 -0.0016336 0.051965 
-0.41168 0.25173 0.024015 0.027139 0.11346 0.1003 0.029441 0.047033 
-0.22359 0.08156 0.00066819 0.035524 0.10984 0.08863 0.0090533 0.022042 
-0.0004827 -0.11689 0.0085601 0.05624 0.11083 0.079587 -0.011334 0.030592 
0.23874 -0.20107 0.0075736 0.01974 0.069229 0.080738 0.004943 0.0028056 
0.34183 -0.12511 -0.0024557 -0.0031133 0.055911 0.076627 0.017603 -0.0019624 
0.33722 -0.022021 0.0083956 0.014479 0.090603 0.065447 0.041443 0.037168 
0.34544 0.079094 -0.0029489 0.042758 0.13138 0.053116 0.04506 0.040785 
0.30697 0.17347 0.0064227 0.04917 0.17462 0.046046 0.00066819 0.046704 
0.23841 0.12644 -0.00097594 0.10129 0.10672 0.03651 0.011355 0.042429 
0.10935 0.10425 0.011355 0.050814 -0.0072237 -0.0042642 0.011355 0.0421 
-0.17328 0.096521 0.0060938 0.068078 -0.14582 -0.034845 0.00066819 0.017603 
-0.41793 0.10458 0.020069 0.023522 -0.17772 -0.068057 0.0090533 0.005765 
-0.39491 0.066105 0.041114 -0.033694 -0.1552 -0.057699 0.039141 0.036346 
-0.19581 0.038155 0.04654 -0.020541 -0.094527 -0.011992 0.036839 0.022042 
0.01415 0.034044 0.064625 -0.023336 -0.069701 -0.0080457 0.02829 0.026974 
0.11806 -0.023007 0.10063 0.0031344 -0.014458 -0.0055795 0.037661 0.025495 
0.13631 -0.037969 0.073668 -0.031392 0.058213 0.048841 0.017767 0.004943 
0.13697 0.0052718 0.03388 -0.014787 0.13483 0.11526 0.027796 0.043416 
0.098166 0.010533 -0.012978 0.032729 0.1225 0.08715 0.016616 0.00083261 
0.076956 0.023028 -0.04471 0.034866 0.13253 0.095699 0.042429 0.027303 
0.026152 0.068078 -0.057863 0.073339 0.1978 0.14864 0.037332 0.019411 
0.0026412 0.043909 -0.020377 0.088794 0.19665 0.14733 0.036839 0.052294 
0.00297 0.016123 0.059693 0.061008 0.080244 0.1003 0.028783 0.072353 
-0.0049219 0.013821 0.097015 0.042758 -0.017582 0.06479 0.053938 0.039634 
-0.0022913 -0.0032777 0.10573 0.0088889 -0.018568 0.054103 0.031249 0.067256 
-0.0011404 -0.011005 0.072681 0.0016547 0.016123 0.048019 0.020891 0.038483 
-0.02498 -0.0013048 0.045718 0.0037921 0.025659 0.029769 0.0092177 0.045882 
-0.00064712 -0.034681 0.063474 0.0037921 -0.0013048 0.073504 0.038812 0.031907 
0.021056 -0.13267 0.061501 0.01152 -0.012649 0.070051 0.040292 0.025988 
0.051965 -0.15421 0.10162 0.025495 -0.027447 0.022535 0.004943 -0.0072237 
0.057884 -0.087951 0.1008 0.066434 -0.026624 -0.047834 0.0087245 0.023851 
0.087808 -0.037476 0.042429 0.062981 -0.0036066 -0.075127 -0.010512 0.028619 
0.094384 0.061172 0.03799 0.070708 0.040621 -0.06444 0.023522 0.056898 
0.072024 0.11888 -0.0027845 0.045882 -0.014787 -0.032708 0.021713 0.019247 
0.096686 0.10918 -0.014129 0.099645 -0.11738 -0.093705 0.043416 0.029934 
0.066105 0.082875 -0.070194 0.073832 -0.13514 -0.13826 0.058049 0.020069 
0.053609 0.091589 -0.073482 0.063474 -0.035174 -0.081045 0.053445 0.046868 
0.05476 0.082711 -0.051615 0.028783 0.083862 0.011191 0.050814 0.032564 
0.069229 0.056404 0.044402 -0.0067304 0.1271 0.051965 0.055254 0.035524 
0.067585 0.034537 0.10195 -0.0029489 0.13302 0.076134 0.045718 0.048677 
0.059693 0.036346 0.12908 -0.00064712 0.064625 0.15472 0.02681 0.014972 
0.063474 0.0021479 0.095535 0.018754 0.045389 0.21358 0.027961 0.0042853 
0.073339 0.016616 0.074654 0.025495 0.048019 0.26159 0.025495 -0.018075 
0.078107 0.053281 0.058542 0.014479 0.1465 0.26998 0.036017 0.023522 
0.078107 0.037826 0.051308 0.041772 0.21276 0.18563 0.043909 0.071859 
0.060515 0.094384 0.040128 0.084519 0.18481 0.030427 0.062159 0.077121 
0.0592 0.13664 0.02829 0.11559 0.070051 -0.018075 0.059693 0.09833 
0.066434 0.10721 0.03947 0.13253 -0.07414 -0.06707 0.045224 0.058213 
0.072353 0.055911 0.043909 0.098166 -0.17641 -0.21159 0.04654 0.025001 
0.096193 -0.0022913 0.029934 0.037332 -0.20847 -0.24941 0.043909 0.024508 
0.11411 -0.084169 0.012177 0.02533 -0.12725 -0.16144 0.01826 0.026317 
0.060844 -0.10423 0.030756 -0.009361 -0.0095255 -0.0138 0.022371 0.034044 
0.0070803 -0.037805 0.030756 -0.017417 0.065118 0.071531 0.0074092 -0.01232 
0.015465 -0.024816 0.060679 -0.027447 0.017603 -0.0013048 0.0080668 -0.035174 
0.060679 -0.038298 0.04506 0.010862 0.057555 -0.092226 -0.022843 -0.013636 
0.08419 -0.016924 0.044238 0.045882 0.17117 -0.040106 -0.021692 0.02681 
0.075805 0.067749 0.041114 0.01267 0.25156 0.085999 0.043087 0.052787 
0.047691 0.12085 0.04654 0.044073 0.20882 0.15966 0.03799 0.042594 
0.027303 0.14782 0.030098 0.047362 0.10293 0.18498 0.035688 0.036182 
0.025495 0.18892 0.010697 0.0324 0.22 0.19616 0.016945 0.03092 
0.0227 0.18103 0.00050378 0.081395 0.45412 0.25354 0.0592 0.071695 
0.0036276 0.16903 0.007738 0.09833 0.32851 0.23183 0.043416 0.080409 
-0.0024557 0.17182 -0.0036066 0.076627 -0.076277 0.098166 0.038812 0.042758 
-0.003771 0.12809 0.02122 0.05213 -0.32684 -0.050629 0.027632 0.035853 
0.0088889 0.063474 0.030263 -0.0072237 -0.32652 -0.11705 0.045553 0.015794 
0.023357 0.040456 0.044896 -0.023665 -0.27209 -0.15289 0.020727 0.0083956 
0.01415 -0.022185 0.0067515 -0.019555 -0.19285 -0.097487 0.019905 0.01152 
0.027468 -0.054575 -0.047998 -0.074469 -0.069865 -0.047669 0.037826 -0.0068948 
0.053445 -0.1136 -0.0096899 0.012506 0.063145 0.048841 0.05213 0.022864 
0.1276 -0.18084 0.018425 0.012013 0.15111 0.12036 0.007738 0.080244 
0.11707 -0.19498 0.059693 0.0013258 0.147 0.14667 0.016123 0.049828 
0.087314 -0.21554 0.091096 0.01711 0.077449 0.08715 0.037332 0.031249 
-0.043066 -0.1016 0.076134 -0.012156 0.039634 -0.006566 0.005765 0.010204 
-0.14287 0.040785 0.084519 0.00083261 0.092247 -0.16555 -0.021363 -0.0055795 
-0.14352 0.17149 0.053774 0.0092177 0.19172 -0.35545 -0.042244 -0.023994 
-0.06444 0.23578 0.0046141 0.043745 0.28609 -0.42155 0.00066819 -0.0014692 
0.027796 0.20273 -0.018404 0.10376 0.26521 -0.24217 0.015137 0.025166 
0.064625 0.13795 -0.0054151 0.069886 0.11674 0.070873 0.053116 0.039634 
0.09274 0.11674 -0.0070593 0.013328 -0.023336 0.28494 0.027796 0.063968 
0.09981 0.029769 0.014479 0.0014903 -0.11294 0.33426 0.035853 0.054103 
0.071366 0.012835 0.049992 -0.0087034 -0.072496 0.28626 0.032893 0.070215 
0.017274 0.06742 0.068078 0.020398 -0.011005 0.23183 0.033058 0.049992 
-0.038627 0.051308 0.038977 0.0072447 -0.010676 0.1294 0.045389 0.01004 
-0.019061 0.047855 0.0087245 -0.0034422 -0.035174 0.070051 0.04095 0.038812 
-0.038133 0.028947 -0.0082102 0.022042 -0.059836 0.016123 0.024015 0.020562 
-0.033201 0.035524 -0.024487 -0.0068948 -0.060329 -0.072989 0.0079024 0.029934 
0.0047785 -0.010348 0.0062583 -0.037311 -0.086142 -0.08828 0.034537 -0.01676 
0.09422 0.011026 0.012999 -0.027775 -0.014129 -0.11163 0.032071 -0.018404 
0.15423 0.056733 0.026317 -0.022021 0.11 -0.09946 0.050814 0.0079024 
0.15259 0.034537 0.036675 0.015137 0.16656 -0.084991 0.02533 0.0036276 
0.094055 0.043087 0.048348 0.02533 0.11 -0.049149 0.049828 0.017767 
-0.080881 0.082053 0.034373 -0.00015387 0.0083956 -0.0075525 0.010533 0.0080668 
-0.37781 0.079587 0.030756 0.057884 -0.010183 0.01004 0.013986 0.039141 
-0.48238 0.089287 0.030427 0.058871 -0.017253 -0.079895 0.020233 0.077778 
-0.17871 0.093069 0.0059294 0.084355 -0.11771 -0.18364 -0.013965 0.050157 
0.17149 0.04095 0.005765 0.077449 -0.35364 -0.30037 -0.026953 0.040292 
0.29711 -0.013636 0.032564 0.009711 -0.42335 -0.17904 -0.018897 0.0090533 
0.2463 0.011848 0.065447 -0.040764 -0.31714 -0.012156 0.038319 0.00017495 
0.147 0.031578 0.064625 -0.0077169 -0.13744 0.091096 0.031578 0.031578 
0.06035 0.023357 0.021384 0.037661 0.057555 0.13203 0.032236 0.024015 
0.021878 0.013986 -0.015773 0.10606 0.16689 0.15489 0.022206 0.04506 
-0.0036066 0.024508 0.01826 0.064954 0.22476 0.16048 0.056898 0.024673 
-0.0031133 0.028619 0.044896 0.012342 0.2246 0.11231 0.045389 0.013821 
-0.0070593 0.076956 0.082382 -0.024816 0.20158 0.08419 0.048019 0.01563 
-0.0075525 0.11411 0.076299 -0.068386 0.24597 0.088465 0.053774 0.035853 
0.0054362 0.15045 0.075476 -0.0064016 0.35449 0.079916 0.0786 0.086163 
0.00033937 0.18037 0.049992 0.022535 0.37718 0.08567 0.048348 0.033058 
-0.0138 0.18794 -0.0073881 0.060679 0.2121 0.096686 0.053774 0.037332 
0.0042853 0.16738 -0.014622 0.094384 -0.086964 0.052623 0.049664 0.023028 
-0.018075 0.13582 -0.028104 0.057391 -0.26913 -0.0077169 0.050486 0.012999 
0.024344 0.21506 -0.012156 0.01826 -0.28886 -0.060658 0.058706 0.018096 
0.027796 0.21178 -0.0070593 0.009711 -0.20436 -0.026953 0.0039565 0.016781 
0.04654 0.20355 0.010369 -0.014458 -0.13727 0.0074092 0.039799 0.025824 
0.064132 0.1516 0.03536 0.020891 -0.076277 0.015137 0.012177 0.013657 
0.083204 0.18547 -0.018733 -0.0073881 -0.015609 0.04654 0.0069159 0.034537 
0.068571 0.13615 -0.068057 -0.0095255 0.0087245 0.051801 0.021384 0.031578 
0.060844 0.040785 -0.084005 0.049828 0.022042 0.042429 0.025495 0.035031 
0.062981 0.037826 -0.040764 0.012835 0.052787 0.028947 0.007738 0.029934 
0.053774 0.057884 0.030756 0.048841 0.028454 0.025166 0.012999 0.019905 
0.045718 0.03536 0.076299 0.058542 0.018096 0.00066819 0.041607 0.023193 
0.02122 -0.039613 0.12085 0.047033 0.021056 0.024508 0.042429 0.036346 
0.036017 -0.19054 0.16903 0.044567 -0.030899 0.07301 0.040128 0.041114 
0.054596 -0.29199 0.18859 -0.00081153 -0.022679 0.086657 0.030427 0.048184 
0.061666 -0.24414 0.20471 -0.0027845 0.019576 0.067256 0.028454 0.024179 
0.061501 -0.23033 0.15292 0.035524 0.094548 0.070215 0.034209 0.029276 
0.074819 -0.35151 0.08978 0.01826 0.15012 0.10721 0.027139 0.030263 
0.0592 -0.39721 0.056404 0.024344 0.17741 0.093069 0.0227 0.036182 
0.049992 -0.073647 0.038648 -0.023501 0.17166 0.06479 0.061172 0.049006 
0.044731 0.3101 -0.044217 0.0065871 0.15818 0.038648 0.033387 0.01826 
0.046046 0.46382 -0.071674 0.085177 0.09126 -0.066084 0.033222 0.039799 
0.028619 0.43225 -0.063124 0.11526 -0.0014692 -0.15816 0.035688 0.024508 
0.032564 0.27491 -0.040764 0.14552 -0.089759 -0.1404 0.077943 0.032729 
0.01415 0.18399 -0.027611 0.14864 -0.18002 -0.03205 0.06742 0.069886 
0.023686 0.13795 -0.023336 0.11 -0.17739 0.0080668 0.048184 0.049828 
0.045224 0.047691 0.022206 0.056076 -0.11557 -0.029913 0.071366 0.041607 
0.098494 0.013657 0.018918 -0.027611 -0.059507 -0.036983 0.052787 -0.0039354 
0.13154 0.0060938 0.0592 -0.055561 0.052787 0.020069 0.035688 -0.013965 
0.15653 -0.024816 0.06479 -0.0077169 0.26751 0.13516 0.00033937 0.0087245 
0.13993 -0.026624 0.057555 0.0047785 0.36517 0.26406 0.021713 -0.0021268 
0.19155 -0.018733 0.083862 0.0087245 0.31092 0.31322 0.026974 0.00017495 
0.16574 -0.02794 0.10819 0.0041209 0.3119 0.33328 0.030263 0.011026 
0.035524 -0.032379 0.070215 0.036346 0.40447 0.32637 0.015301 0.052294 
-0.11311 -0.036489 0.037661 0.10228 0.33311 0.30105 0.0079024 0.044402 
-0.25483 -0.038133 0.023357 0.083697 0.025001 0.12973 -0.051122 0.054103 
-0.36943 -0.027775 0.0082312 0.088794 -0.37584 -0.13448 -0.081539 0.069886 
-0.29758 0.0041209 0.029276 0.075805 -0.50326 -0.22557 -0.037311 0.052459 
-0.022679 0.048513 0.023522 0.011026 -0.40872 -0.23395 0.094877 0.063474 
0.2976 -0.0075525 0.082217 0.010204 -0.26502 -0.26798 0.071202 0.015137 
0.41861 -0.019061 0.052787 -0.0072237 -0.091732 -0.29922 0.071202 -0.020377 
0.3216 -0.07973 0.049828 0.013164 -0.013143 -0.23379 0.076463 0.0067515 
0.14321 -0.16424 0.046211 0.087479 0.10113 -0.09091 0.067585 -0.030242 
-0.10061 -0.16358 0.013328 0.11033 0.24088 0.15094 0.073339 0.032564 
-0.32619 -0.042737 -0.025474 0.14058 0.36024 0.32029 0.08304 0.068242 
-0.28952 -0.045861 -0.02646 0.099316 0.3706 0.28691 0.060022 0.0786 
-0.031392 0.029112 -0.013636 0.029769 0.29431 0.13384 0.022535 0.074654 
0.12842 0.15703 0.0031344 0.021384 0.26324 0.053938 0.0087245 0.057227 
0.27458 0.24384 0.016781 0.0090533 0.14009 0.055747 -0.010348 0.020562 
0.48996 0.22065 0.00099702 0.039634 -0.031064 0.075148 0.020727 0.017274 
0.5508 0.21523 -0.019884 0.038319 -0.18019 0.047033 0.023028 0.019083 
0.31388 0.17528 -0.0027845 0.012342 -0.20551 -0.031886 0.027468 0.048513 
-0.059836 0.1026 0.035524 -0.048985 -0.077264 0.021878 0.049828 0.010369 
-0.43256 0.1031 0.057227 -0.014129 0.05624 0.083204 0.026646 0.043745 
-0.668 0.15653 0.011191 0.025988 0.081067 0.14058 0.0060938 0.049499 
-0.51691 0.10573 -0.0011404 0.075805 -0.052109 0.0786 -0.023994 0.049499 
-0.13021 -0.0075525 -0.010348 0.020727 -0.17904 -0.1039 -0.056055 0.01267 
0.18185 -0.097322 0.013821 -0.0042642 -0.13547 -0.18084 -0.052931 -0.03353 
0.20816 -0.21817 0.020727 -0.023336 0.066269 -0.21504 -0.04619 -0.038627 
-0.043066 -0.15536 -0.01117 0.030098 0.34528 -0.16572 -0.028269 0.011026 
-0.22195 -0.0032777 -0.042244 0.10113 0.46251 0.0065871 0.023686 0.07301 
-0.10932 0.12036 -0.014293 0.13812 0.28461 0.10228 0.043909 0.077121 
0.10573 0.15703 0.014972 0.067256 -0.019884 0.043251 0.071531 0.11296 
0.23923 0.1294 0.067913 0.039141 -0.18002 0.013986 0.061666 0.068407 
0.23545 0.071037 0.098166 -0.041751 -0.16654 -0.0040998 0.043909 0.010533 
0.2001 0.0024767 0.11658 -0.066248 0.015959 -0.082032 0.022371 -0.011334 
0.15193 -0.0004827 0.10737 -0.04619 0.23644 -0.15651 0.013164 -0.0072237 
0.089287 0.058706 0.057227 -0.035503 0.26636 -0.098802 0.034537 0.0023123 
0.052952 0.093562 0.049664 -0.027611 0.14733 0.090109 0.037826 0.01711 
0.0032988 0.1197 0.035031 0.05213 0.070873 0.24712 0.041936 0.04358 
-0.030077 0.15703 0.015137 0.069886 -0.052437 0.27146 0.048677 0.090109 
-0.025638 0.10556 0.014479 0.10162 -0.13185 0.16377 0.082217 0.085835 
-0.039942 0.081724 0.012999 0.056076 -0.22145 0.022535 0.057555 0.041936 
-0.041751 0.0786 0.027961 0.044567 -0.35315 -0.069701 0.028947 0.014808 
-0.011005 0.096521 0.023522 0.047033 -0.38422 -0.10982 0.035031 -0.0032777 
-0.0090322 0.083697 -0.021856 0.019083 -0.31533 -0.16276 0.036182 -0.009361 
-0.014622 0.073175 -0.0024557 0.021056 -0.12478 -0.19087 0.029769 -0.0036066 
-0.023501 0.051308 0.010533 -0.0070593 0.074326 -0.095678 0.0019835 0.0088889 
-0.029255 0.046211 0.037661 -0.023994 0.19879 0.027303 0.023357 0.04506 
-0.020212 0.13483 0.066105 0.0013258 0.26587 0.072846 0.038155 0.042594 
0.0011614 0.14272 0.045718 -0.044874 0.33689 0.051308 0.023851 0.040292 
0.073832 0.13138 0.10228 -0.072989 0.39756 0.089287 0.01563 -0.024652 
0.088465 0.062652 0.084355 -0.0077169 0.4094 0.23545 0.046868 -0.011498 
0.11329 0.075641 0.077121 -0.03057 0.31749 0.25403 0.020727 -0.018897 
0.084848 0.14913 0.055418 -0.014787 0.1299 0.10244 0.0093821 0.023851 
0.042923 0.19665 0.045553 -0.018239 -0.05885 -0.12905 -0.012814 0.060022 
0.013328 0.18317 -0.0047575 0.020562 -0.18693 -0.20995 0.047691 0.045553 
0.016123 0.060679 -0.018733 0.091096 -0.32388 -0.13086 0.078929 0.041114 
0.047855 -0.041586 -0.025638 0.063803 -0.30185 -0.027775 0.0689 0.037661 
0.082217 -0.032215 0.010369 0.052952 -0.23905 0.019576 0.077943 0.029441 
0.038319 0.041772 0.060022 0.049828 -0.12856 0.035524 0.081889 0.035688 
-0.014293 0.14683 0.053445 -0.0021268 -0.0075525 0.088794 0.071037 0.024015 
-0.016431 0.19862 0.025988 0.031414 0.074326 0.086985 0.015959 0.051636 
0.027632 0.2269 0.031249 0.020891 0.092411 0.11313 -0.015938 0.013164 
0.093562 0.17873 0.066598 0.012999 0.071531 0.12809 -0.027118 0.015301 
0.11231 0.13828 0.049499 0.020727 0.064954 0.09981 -0.0088678 0.04358 
0.12661 0.050814 0.071202 0.0062583 0.05624 0.05772 0.030756 0.0095465 
0.24712 -0.081868 0.055418 0.010204 0.021549 0.00017495 0.072681 0.018754 
0.3706 -0.20156 0.06183 0.025988 -0.09798 -0.085978 0.065776 0.010697 
0.36616 -0.49455 0.072024 0.010204 -0.25795 -0.16457 0.024508 0.019905 
0.27771 -0.8288 0.05476 0.014315 -0.34608 -0.19893 0.015301 0.010697 
0.045389 -0.7512 0.098988 0.0065871 -0.28706 -0.14155 0.031414 0.0095465 
-0.33704 -0.17065 0.071859 0.013164 -0.11459 -0.10258 0.060186 0.04358 
-0.51378 0.36797 -0.0016336 0.062652 -0.008539 -0.056548 0.036017 0.028454 
-0.28048 0.60555 -0.048492 0.046211 -0.0062372 -0.019061 0.049499 0.030098 
0.022206 0.54389 -0.032708 0.034209 -0.070687 -0.016595 0.040456 0.016123 
0.21243 0.36452 0.0069159 0.019411 -0.10752 0.062323 -0.0052507 -0.0055795 
0.23759 0.20553 0.02681 -0.006566 0.023686 0.14124 -0.0024557 0.0070803 
0.16952 0.10211 0.013328 0.052952 0.23545 0.24252 0.0052718 0.0013258 
0.11724 0.083368 -0.017746 0.10129 0.45955 0.28478 0.025495 0.033551 
0.077449 0.055418 -0.046354 0.16623 0.49671 0.37027 0.034537 0.059693 
0.055747 0.045553 -0.058521 0.17692 0.30598 0.43883 0.031742 0.021713 
0.07449 0.020562 -0.013307 0.09126 -0.021034 0.32473 0.038155 0.034702 
0.079587 -0.02087 0.030592 0.0095465 -0.17542 0.12332 0.034537 0.037168 
0.041936 -0.019226 0.074654 -0.042244 0.010533 -0.0011404 0.041278 0.073339 
0.012013 -0.0083746 0.078272 -0.0059084 0.30582 -0.038956 0.048841 0.068571 
-0.011334 -0.12757 0.067091 0.0082312 0.29612 -0.11804 0.051965 0.053281 
-0.03353 -0.25598 0.10178 -0.04619 0.039634 -0.29889 0.00083261 -0.0022913 
0.027468 -0.34263 0.10014 -0.068714 -0.069208 -0.58514 -0.056383 -0.060329 
0.11707 -0.34789 0.072681 -0.049642 0.11609 -0.53976 -0.091404 -0.024158 
0.10474 -0.18348 0.035688 0.04506 0.28905 -0.14254 -0.048327 0.050486 
0.032729 0.049499 0.0075736 0.15883 0.21737 0.19007 0.01826 0.11346 
-0.0138 0.16689 -0.032872 0.21934 0.026974 0.21835 0.039141 0.13434 
-0.050464 0.18119 -0.0080457 0.2297 -0.21521 0.19846 0.10507 0.10458 
-0.018239 0.16936 0.026152 0.15028 -0.39935 0.13828 0.095535 0.055418 
-0.036818 0.17544 0.0098754 0.00099702 -0.36976 0.097015 0.051472 0.0080668 
-0.00064712 0.14979 0.035853 -0.063124 -0.16851 0.057555 0.0087245 0.00083261 
0.012177 0.11033 -0.011498 -0.060823 0.029934 0.11247 0.021384 -0.019061 
0.0082312 0.1197 -0.061645 -0.05178 0.19303 0.27606 -0.0083746 -0.020212 
0.017603 0.11559 -0.083018 -0.0068948 0.30631 0.32078 -0.0083746 -0.0029489 
0.012835 0.12858 -0.058685 0.0011614 0.36517 0.18202 -0.0049219 0.013328 
0.017274 0.15028 -0.023994 0.047033 0.35235 0.08715 0.019905 0.057062 
-0.041093 0.17215 -0.034681 0.11806 0.29349 0.058706 0.04358 0.083204 
-0.010676 0.12316 0.01415 0.0786 0.21013 0.044731 0.038319 0.076956 
-0.009361 0.056076 0.1031 0.079916 0.14486 -0.027118 0.035031 0.072517 
0.00050378 0.015301 0.17758 0.029276 0.092247 -0.17608 0.0024767 -0.0013048 
0.018754 0.067091 0.18909 -0.021528 0.068571 -0.26782 0.01415 0.012342 
0.020398 0.10573 0.17692 0.0074092 0.08863 -0.10604 0.010533 0.024015 
0.077121 0.11444 0.15703 -0.026131 0.098988 0.095371 0.052459 0.039634 
0.1151 0.025166 0.13812 -0.03057 0.030592 0.13647 0.025166 0.059364 
0.08715 -0.0026201 0.10047 -0.010348 -0.047669 0.083204 0.0072447 0.026974 
0.010204 0.011355 0.034537 0.0065871 -0.07973 0.040456 0.027139 0.048348 
-0.15783 0.027468 -0.023172 0.093891 -0.02942 0.037661 0.057884 0.048513 
-0.27259 0.062652 -0.031064 0.1248 0.0041209 0.0098754 0.051636 0.037497 
-0.19137 0.10392 -0.038791 0.12809 -0.010512 0.0064227 0.030263 0.047362 
0.041936 0.11477 -0.052109 0.13039 -0.011992 0.0095465 0.0093821 0.048513 
0.2833 0.11954 -0.031228 0.027796 -0.037147 0.01974 0.013164 0.034866 
0.31947 0.12595 0.01004 -0.029255 -0.052109 0.048184 -0.00097594 -0.021363 
0.1955 0.11083 0.02533 -0.039942 -0.12396 0.01267 -0.01232 -0.0070593 
0.03947 0.095206 0.018589 -0.061645 -0.11886 -0.036818 0.01415 -0.011498 
-0.1838 0.10162 -0.0068948 -0.044874 -0.25845 -0.097322 0.02829 0.00083261 
-0.35825 0.13121 0.0054362 -0.01676 -0.42237 -0.10423 0.048841 0.048677 
-0.2647 0.088301 0.025001 -0.015444 -0.45722 -0.13958 0.046211 0.035031 
0.071531 0.016288 0.070708 0.0083956 -0.32175 -0.20863 0.063968 0.012999 
0.35038 -0.037969 0.10458 -0.0138 -0.1085 -0.25187 0.045224 -0.0083746 
0.43867 -0.10373 0.12053 -0.014622 0.07038 -0.20584 0.041443 -0.026296 
0.31733 -0.091239 0.14881 -0.023172 0.22148 -0.070687 0.054103 -0.00097594 
0.1151 -0.040928 0.1225 -0.0013048 0.32555 0.11806 0.045553 0.0021479 
-0.27703 0.0032988 0.090931 0.023357 0.38178 0.18547 0.042594 0.072681 
-0.56508 0.048677 0.019083 0.036346 0.47188 0.23298 0.004943 0.08419 
-0.47219 0.12168 -0.023007 0.023357 0.45429 0.23463 -0.0029489 0.05213 
-0.12873 0.11066 -0.092883 0.086328 0.34051 0.22592 0.016781 0.064296 
0.17856 0.057227 -0.092719 0.067091 0.047855 0.19764 -0.022679 0.070873 
0.26784 0.025001 -0.049971 0.06479 -0.24628 0.059035 0.030592 0.055911 
0.21983 0.013164 0.033387 0.040128 -0.4781 -0.060658 0.065118 0.022206 
0.085999 0.031249 0.086163 -0.023007 -0.49274 -0.10489 0.056404 -0.0088678 
0.036017 -0.0067304 0.094713 -0.0091966 -0.32553 -0.10127 0.039799 -0.0049219 
0.13483 0.0014903 0.075805 -0.027611 -0.14303 -0.087458 0.025988 -0.019061 
0.46053 -0.05178 0.067913 -0.008539 -0.028597 -0.05885 0.066105 0.0087245 
0.59519 -0.095678 0.05065 0.034702 -0.053753 -0.056712 0.04917 -0.011005 
0.41943 -0.048985 0.066763 0.030098 -0.11787 -0.05441 0.033715 0.015959 
0.097179 -0.027118 0.072846 0.0074092 -0.18052 -0.047669 0.040785 0.045224 
-0.2277 0.05476 0.089945 0.0046141 -0.12363 -0.019884 0.024179 0.03388 
-0.6292 0.17248 0.097672 -0.013143 0.012013 -0.0072237 0.016123 0.051143 
-0.89588 0.2024 0.042923 0.017932 0.15341 0.0090533 0.035195 0.013821 
-0.61079 0.1544 -0.001798 0.012177 0.26768 0.089123 0.066763 0.04506 
-0.048985 0.094548 -0.06 0.044896 0.29596 0.1128 0.029769 0.01826 
0.44738 0.020562 -0.064768 0.061172 0.35317 0.15094 0.01711 0.028947 
0.63366 -0.081374 -0.047998 0.038319 0.3364 0.10096 0.02829 0.040128 
0.50493 -0.078579 -0.011005 0.044402 0.24992 -0.026624 0.045389 0.034044 
0.29086 -0.040928 0.031578 0.016123 0.12431 -0.1113 0.020398 0.054432 
0.047691 -0.084991 0.026481 0.029276 0.043745 -0.09387 0.016945 0.047033 
-0.24875 -0.11212 0.0079024 0.088301 0.06035 -0.05326 -0.020048 0.057555 
-0.34986 -0.060494 -0.021363 0.052294 -0.02646 -0.047505 0.019905 0.066269 
-0.1723 -0.0024557 0.00083261 0.028125 -0.065591 -0.06148 0.0227 0.016616 
0.04358 0.056076 0.025988 -0.0090322 -0.071674 0.069722 0.016452 0.0065871 
0.16245 0.1368 0.023357 -0.095843 -0.023007 0.23923 0.039305 -0.052273 
0.18498 0.12497 0.072681 -0.093705 0.12102 0.43012 0.034044 -0.067892 
0.16492 0.10096 0.087972 -0.06444 0.33607 0.51972 0.051965 -0.033859 
0.30582 0.09126 0.049499 0.029276 0.47254 0.44294 0.062323 0.084026 
0.45264 0.065118 0.0039565 0.1664 0.45314 0.30171 0.090109 0.13795 
0.33278 0.055089 -0.025802 0.17133 0.29398 0.11428 0.055911 0.097015 
0.098001 0.074819 -0.0031133 0.1294 -0.034188 -0.11278 0.05065 0.062488 
-0.17723 0.085999 0.013492 0.06479 -0.32783 -0.27982 0.037004 0.034866 
-0.57675 0.11231 0.013328 0.024837 -0.35364 -0.31928 0.022864 0.007738 
-0.66389 0.14815 -0.012156 0.088301 -0.40494 -0.4809 -0.027282 0.018918 
-0.40889 0.15127 -0.0083746 0.048677 -0.49816 -0.35364 -0.037476 0.01711 
-0.086471 0.085177 0.023686 -0.0057439 -0.34888 0.11691 0.0060938 0.057884 
0.13697 0.046868 0.07038 -0.0014692 -0.011498 0.42272 0.03651 0.038155 
0.25683 0.048348 0.035853 -0.039778 0.33755 0.49605 0.026646 -0.052273 
0.24482 0.046211 0.035031 0.01711 0.66523 0.45971 0.0082312 -0.021528 
0.20964 0.025659 0.014808 0.046704 0.69022 0.31289 0.009711 -0.030077 
0.19649 0.059857 0.054596 -0.019719 0.34281 0.12792 -0.0016336 -0.05441 
0.1738 0.030427 0.082875 -0.042901 0.07449 -0.42138 -0.021692 -0.11903 
0.13861 0.041936 0.077449 -0.036983 0.34446 -0.85971 -0.02646 -0.028926 
0.07301 0.077943 0.069886 0.10014 0.75204 -0.41135 0.039963 0.094713 
0.033715 0.16722 0.013657 0.22526 0.48141 0.36682 0.0689 0.20701 
0.05213 0.20355 -0.033037 0.21605 -0.23839 0.56658 0.083862 0.21572 
0.039634 0.15916 -0.081703 0.13039 -0.72982 0.29349 0.093233 0.10474 
0.014972 0.060515 -0.055561 0.039799 -0.7438 0.033222 0.071531 0.0042853 
-0.021034 -0.07003 -0.020706 0.0090533 -0.41908 -0.061151 -0.0064016 -0.038298 
-0.10916 -0.10061 0.0060938 0.033551 -0.13678 -0.019061 -0.027775 -0.041586 
-0.17197 -0.057534 0.024673 -0.030899 0.028619 0.048184 -0.011992 0.0039565 
-0.11294 -0.061809 0.067913 -0.067399 0.12595 0.064461 0.00297 0.016781 
0.03947 -0.089431 0.076299 -0.015116 0.1544 0.038155 0.01974 0.014643 
0.086328 -0.089266 0.067749 -0.0082102 0.054925 -0.020048 0.023193 0.016945 
0.10918 -0.0082102 0.015301 0.037497 -0.13826 -0.11689 0.049335 0.023851 
0.075476 0.1026 -0.0091966 0.025001 -0.17986 -0.19449 0.051472 0.035524 
0.061666 0.20273 -0.0082102 0.025495 -0.13168 -0.09091 0.043416 0.022042 
0.048184 0.13121 0.005765 0.04358 -0.013965 0.0075736 0.043087 0.020891 
0.064625 0.017274 0.024344 0.036017 0.092247 0.053281 0.057555 0.01563 
0.094548 0.0067515 0.057062 0.011848 0.1516 0.061008 0.038812 0.0016547 
0.12217 0.066105 0.089287 0.012506 0.19254 0.089616 0.039305 -0.0016336 
0.15078 0.0056006 0.11017 0.0074092 0.20224 0.14535 0.00083261 -0.011827 
0.14174 -0.014622 0.099316 0.040621 0.38655 0.28839 0.00297 0.020398 
0.096028 0.051965 0.052294 0.0689 0.54011 0.26209 -0.034681 0.052294 
0.077614 0.12036 0.033222 0.10737 0.10556 0.096686 -0.047998 0.065612 
0.067256 0.15653 0.0047785 0.12497 -0.49257 -0.029913 -0.026624 0.095371 
0.051965 0.13417 0.026974 0.051636 -0.70072 -0.13892 0.009711 0.046211 
0.054925 0.027468 0.051636 0.0031344 -0.6075 -0.26502 0.020233 0.019083 
0.045224 -0.063946 0.066927 -0.04882 -0.43601 -0.40971 0.043087 -0.025474 
0.019576 -0.077593 0.09126 -0.064111 -0.21685 -0.4467 0.072681 -0.044381 
0.01563 -0.10768 0.072188 -0.028926 0.01826 -0.27111 0.081231 0.010862 
0.050979 -0.1455 0.018425 -0.049971 0.19122 0.056076 0.036182 0.013328 
0.069393 -0.1889 0.055911 -0.059343 0.31108 0.366 0.029276 0.045553 
0.051143 -0.19153 0.079587 -0.035174 0.47533 0.40825 0.048841 0.034373 
0.020398 -0.1746 0.06183 -0.019555 0.64698 0.28116 0.046704 0.030592 
0.05065 -0.083347 -0.0054151 0.075476 0.6136 0.1442 0.0051074 0.029769 
0.094713 0.055089 -0.0057439 0.10655 0.23792 0.06331 -0.017417 0.034209 
0.094384 0.14239 0.00066819 0.089945 -0.20814 -0.070194 -0.010676 0.054596 
0.10606 0.18399 0.031742 0.10885 -0.47695 -0.33901 0.020562 0.037497 
0.052952 0.21112 0.039799 0.047033 -0.52924 -0.65173 0.03947 0.018425 
-0.011005 0.17791 0.060022 0.03651 -0.40379 -0.56048 0.064132 -0.009361 
0.009711 0.1345 0.089123 -0.0013048 -0.2111 -0.13859 0.037826 0.0098754 
0.025988 0.11954 0.079094 -0.090253 -0.16095 0.1853 0.0064227 0.048184 
0.034209 0.095699 0.089123 -0.069208 -0.088937 0.27606 0.0028056 0.0075736 
0.071366 0.061172 0.076134 -0.099624 0.012835 0.26192 0.018096 0.020233 
0.033387 0.076134 0.029441 -0.028433 0.1687 0.26324 0.014972 0.013164 
-0.0019624 0.11115 -0.0032777 0.065612 0.23364 0.17593 0.027632 0.062488 
-0.019061 0.1419 -0.074798 0.12201 0.19336 0.086163 0.046704 0.071531 
-0.0054151 0.15851 -0.073154 0.13121 0.087479 0.04095 0.054103 0.059857 
0.007738 0.11905 -0.063946 0.12266 0.023028 -0.018733 0.045224 0.068571 
0.094548 0.073339 -0.0080457 0.043745 0.059035 -0.0503 0.036839 0.013328 
0.20208 0.059035 0.047691 -0.0022913 0.093891 -0.035996 0.049335 0.012835 
0.20405 0.082711 0.06183 -0.011005 0.086492 -0.028597 0.049006 0.018918 
0.14733 0.08567 0.10228 -0.038133 0.033058 -0.017253 0.026152 -0.001798 
0.029112 0.10524 0.11888 -0.0016336 0.032564 0.0227 0.0075736 0.0090533 
-0.27111 0.1345 0.069393 0.00050378 0.20323 0.01004 0.021056 0.030427 
-0.51871 0.093891 -0.0055795 0.053938 0.37931 -0.00081153 0.04095 0.057555 
-0.36417 0.052459 -0.02235 0.084519 0.36419 0.029769 0.02681 0.045389 
0.33903 0.033387 -0.011498 0.067913 0.076134 -0.031557 0.023686 0.046868 
0.85431 0.049828 -0.047998 0.065283 -0.29643 -0.11771 0.021384 0.040128 
0.83704 0.057062 -0.037311 0.051965 -0.47071 -0.2111 0.01563 0.010862 
0.50016 -0.001798 -0.010676 0.055747 -0.40149 -0.19153 0.018918 0.0060938 
-0.032215 -0.15454 0.031578 0.058049 -0.14204 -0.033694 0.014808 -0.014458 
-0.95392 -0.11442 0.05624 0.014643 0.12809 0.16048 0.055254 0.016616 
-1.5358 0.10606 0.033222 -0.0042642 0.30335 0.31799 0.08156 0.058213 
-0.92991 0.25798 0.031578 -0.017746 0.24055 0.31371 0.040621 0.059364 
-0.003771 0.244 0.035853 -0.038298 0.17544 0.19501 0.034537 0.02829 
0.51232 0.18958 0.03651 0.024179 0.33985 0.17429 0.012506 -0.025474 
0.45215 0.15999 -0.028269 0.0036276 0.5993 0.24186 -0.027447 0.024179 
0.068242 0.12349 -0.067564 0.046375 0.51627 0.20602 -0.031064 0.083862 
-0.073811 0.10228 -0.02235 0.15242 0.34364 0.17396 0.021713 0.065118 
0.04358 0.092576 1.0539e-005 0.18744 0.2297 0.22641 0.053609 0.094548 
0.16212 0.01974 0.01826 0.17725 -0.052931 0.22197 0.078929 0.074326 
0.17692 -0.023172 0.0090533 0.054925 -0.44933 0.10819 0.07449 0.026317 
-0.024816 -0.03353 -0.011005 -0.086307 -0.61029 -0.065919 0.060844 -0.0032777 
-0.27719 -0.00081153 0.0016547 -0.12527 -0.54519 -0.19515 0.0324 -0.021528 
-0.26009 0.076299 -0.0014692 -0.13464 -0.36449 -0.20879 0.0018191 -0.0096899 
-0.023665 0.022864 0.041607 -0.11245 -0.13037 -0.18117 -0.012156 0.0028056 
0.12168 -0.020377 0.10951 -0.037147 0.16706 -0.17361 0.0227 0.01004 
0.1419 -0.025638 0.12464 0.026974 0.46547 -0.19646 0.01563 0.028783 
0.061995 0.028619 0.12316 0.10047 0.39855 -0.10982 0.041936 0.029934 
-0.0032777 0.06742 0.11033 0.13845 0.017932 0.078107 0.072517 0.046046 
-0.048163 0.054925 0.1026 0.10326 -0.35282 0.26406 0.055911 0.038648 
-0.075291 0.047033 0.079258 0.057391 -0.53039 0.28264 0.047362 0.040128 
-0.061151 0.051801 0.051143 -0.01117 -0.37551 0.29185 0.020069 0.019247 
-0.030077 -0.012814 0.027468 -0.029748 -0.079895 0.26209 0.012342 0.015465 
-0.013471 -0.047998 0.028783 -0.023007 0.16722 0.17314 0.0021479 0.017603 
1.0539e-005 -0.027447 0.064954 -0.0024557 0.35334 0.031249 0.0065871 -0.0068948 
1.0539e-005 -0.062138 0.025001 0.053445 0.53123 -0.057534 -0.0014692 0.0056006 
0.0028056 -0.086307 -0.01676 0.1031 0.66852 -0.092061 0.015137 0.024673 
0.019411 -0.021199 -0.03057 0.15834 0.68891 -0.05441 0.026317 0.067091 
0.045224 0.014479 0.027796 0.19583 0.46251 -0.0027845 0.023193 0.076956 
0.020233 0.055254 0.059693 0.12661 0.092411 -0.012156 0.049664 0.057555 
0.020398 0.12529 0.068571 0.070873 -0.38307 -0.10784 0.072681 0.055911 
0.030756 0.21408 0.046046 -0.031886 -0.95112 -0.14681 0.043251 0.036017 
0.054596 0.17889 0.044238 -0.10883 -1.0333 -0.035338 0.026481 0.024015 
0.11494 0.037004 0.083368 -0.10489 -0.51641 0.16525 0.033222 0.030098 
0.13549 -0.20551 0.11609 -0.089431 0.14486 0.2976 0.0085601 0.0042853 
0.13286 -0.32915 0.11757 -0.067728 0.53682 0.39247 -0.0019624 -0.025967 
0.15045 -0.1358 0.10902 -0.034516 0.68134 0.47977 0.00066819 -0.054575 
0.1539 0.11773 0.11083 -0.058028 0.79709 0.3928 0.00083261 -0.075455 
0.16064 0.13072 0.090603 -0.036818 0.74579 -0.013965 -0.012814 -0.056055 
0.13762 0.014315 0.074654 0.019247 0.51594 -0.67721 0.053609 0.017603 
0.25354 0.0031344 0.017767 0.10096 0.25995 -0.89078 0.10293 0.095371 
0.31947 0.072517 -0.0138 0.21375 0.062652 -0.41102 0.14502 0.12497 
0.24417 0.13171 -0.034681 0.20306 -0.33441 0.028947 0.10655 0.11888 
0.10343 0.13565 -0.037147 0.13598 -0.68773 0.13335 0.07449 0.06742 
-0.10143 0.11099 0.024015 0.031578 -0.74117 0.079094 0.053609 0.022535 
-0.31287 0.1174 0.011355 -0.027611 -0.4781 0.053281 -0.012649 0.0060938 
-0.28821 0.10047 -0.03616 -0.0077169 -0.17608 0.010533 -0.088115 -0.019061 
0.01563 0.10014 0.0037921 0.007738 -0.0062372 0.0044497 -0.12955 0.013328 
0.35317 0.014479 0.055747 -0.00097594 0.080573 0.035524 -0.037311 -0.0039354 
0.46399 -0.043395 0.11559 -0.0052507 0.12299 0.02122 -0.017417 -0.017911 
0.36715 -0.021199 0.11033 -0.0047575 0.14338 0.015465 -0.0088678 -0.0004827 
0.17988 -0.021034 0.060679 0.0074092 0.14897 0.029605 -0.0059084 0.017603 
-0.028597 0.0034632 0.067091 0.004943 0.12644 0.021878 0.049664 0.054267 
-0.08121 0.06594 0.038977 0.030098 0.12908 0.0037921 0.042429 0.050486 
0.0092177 0.029605 0.016452 0.024179 0.11444 -0.019719 0.073997 0.054925 
0.12316 -0.040106 0.007738 0.035524 0.064296 -0.023172 0.060022 0.038483 
0.13762 -0.03501 0.0016547 0.01152 -0.015609 -0.072003 0.039963 0.0013258 
0.14026 -0.032708 -0.021528 0.04095 -0.031064 -0.073647 0.031578 0.025001 
0.10228 -0.039778 -0.045696 0.058213 -0.090088 -0.13119 0.022206 0.0051074 
0.19007 0.057391 -0.063453 0.079916 -0.21685 -0.24382 0.072024 0.018589 
0.37915 0.10902 -0.045696 0.086163 -0.24349 -0.26815 0.066598 0.054267 
0.35646 0.13023 -0.048163 0.05476 -0.22096 -0.20271 0.055254 0.031578 
0.14683 0.12792 -0.028104 0.0042853 -0.33967 -0.17279 0.037826 0.042923 
-0.11179 0.099152 0.021056 -0.055068 -0.44424 -0.1427 0.037826 0.01267 
-0.45525 0.051472 0.054103 -0.088608 -0.29314 0.049664 -0.0026201 0.0037921 
-0.70105 0.0088889 0.063474 -0.087458 -0.033694 0.28428 -0.011992 -0.036818 
-0.23132 0.020562 0.06183 -0.084169 0.30385 0.51348 -0.024487 0.014479 
0.45018 0.00083261 0.072353 -0.060165 0.80597 0.68085 -0.021363 0.091753 
0.66096 0.014808 0.016781 0.059528 0.99209 0.66704 0.0075736 0.10721 
0.43225 0.056898 0.016781 0.0227 0.46843 0.37257 0.055254 0.10984 
-0.049478 0.079258 -0.0016336 0.015137 0.049992 0.0039565 0.043251 0.017274 
-0.5294 0.12217 -0.03353 0.035524 0.36945 -0.021692 0.031414 -0.004593 
-0.85215 0.16064 -0.033694 0.10145 0.78953 0.16541 -0.00097594 0.020727 
-0.62114 0.15144 -0.036818 0.16459 0.50904 0.14765 0.020398 0.056569 
-0.089102 0.10408 -0.011334 0.094713 -0.21011 -0.085156 0.042923 0.072846 
0.28773 0.094877 0.022042 0.018589 -0.71979 -0.24217 0.045389 0.03388 
0.38096 0.067749 -0.00031829 -0.017582 -0.82847 -0.25056 0.043745 0.029934 
0.33213 0.036182 0.0227 -0.022185 -0.67441 -0.28344 0.047855 0.010862 
0.17824 0.031907 0.029441 0.010369 -0.49783 -0.26206 0.076463 0.0041209 
0.039963 0.081231 0.011848 -0.016924 -0.31566 -0.029091 0.04506 0.016123 
-0.029255 0.051801 0.016781 -0.012814 -0.11656 0.20438 0.03092 0.0026412 
-0.083183 0.059857 0.031578 0.0037921 0.067256 0.30007 0.022864 0.0088889 
-0.13875 0.10458 0.044073 -0.0031133 0.24581 0.3466 0.0227 0.0044497 
-0.15273 0.072681 0.048019 0.046375 0.32259 0.40315 0.028619 0.049499 
-0.1427 0.018425 0.017603 0.0421 0.31996 0.3461 0.041114 0.074161 
-0.042737 0.027796 0.034702 0.024673 0.23825 0.057062 0.058871 0.047362 
-0.025309 0.026317 0.045389 0.040621 0.23134 -0.41842 0.046704 0.026481 
-0.022185 0.0093821 0.059035 0.031085 0.24334 -0.44062 0.019411 0.013328 
-0.037969 -0.015938 0.059035 0.064625 0.076299 -0.075949 0.026481 0.010697 
-0.074962 0.039799 0.0082312 0.11247 -0.066577 0.16936 0.049992 0.036182 
-0.084005 0.047526 -0.018897 0.11 -0.030899 0.2126 0.05772 0.037497 
-0.076606 0.056733 -0.051451 0.052952 0.062488 0.2126 0.04506 0.046375 
-0.03057 0.049499 -0.026131 0.0014903 0.13236 0.20208 0.025001 0.045553 
0.0085601 0.009711 0.011848 -0.037476 0.147 0.11658 0.026317 0.0042853 
0.025166 0.0064227 0.031742 0.036839 0.15489 -0.021856 0.0034632 0.0093821 
0.010369 0.071037 0.053774 0.016781 0.23989 -0.071509 0.02829 0.012177 
0.0032988 0.082382 0.065776 0.0098754 0.29661 0.043251 0.046211 0.052952 
0.02122 0.0014903 0.087314 0.035688 0.16623 0.16722 0.027796 0.10162 
0.044896 -0.14566 0.15933 0.027961 0.012342 0.25518 0.036346 0.066763 
0.055747 -0.20567 0.20503 0.08304 -0.020541 0.2833 0.018589 0.1003 
0.045718 -0.11607 0.15078 0.090274 -0.095021 0.16722 0.052459 0.039963 
0.025988 0.042594 0.079094 0.067749 -0.21258 -0.057205 0.041607 0.024673 
0.020398 0.1733 0.050486 0.090438 -0.22343 -0.14303 0.032071 -0.0060728 
0.0034632 0.15144 0.016781 0.0421 -0.24595 -0.20715 0.049335 -0.01232 
0.032236 0.16163 -0.0075525 -0.017088 -0.29396 -0.35167 0.042265 -0.03057 
0.051636 0.1442 0.013328 -0.027118 -0.28985 -0.63676 0.0227 -0.028762 
0.080902 0.029112 0.048841 -0.032543 -0.08828 -0.7609 0.007738 -0.02498 
0.091096 -0.049478 0.079094 0.030263 -0.010512 -0.43289 -0.0060728 -0.0078813 
0.093398 -0.060658 0.048019 0.05624 0.058213 0.15555 0.016945 0.06183 
0.067913 -0.024158 -0.037805 0.13269 0.1733 0.50805 0.034373 0.096193 
0.072517 0.027139 -0.021856 0.11526 0.26554 0.45905 0.007738 0.095864 
0.10096 0.044567 0.013657 0.030427 0.073668 0.10408 0.020891 0.033222 
0.13779 0.027632 0.039799 -0.041751 -0.12873 -0.26305 0.033222 -0.0070593 
0.51101 0.027303 0.061008 -0.022185 -0.087458 -0.37206 0.035031 -0.019555 
1.254 0.018754 0.086657 -0.021034 -0.050793 -0.36795 0.0421 -0.015773 
1.4284 0.049006 0.064625 0.099481 -0.23214 -0.4102 0.044567 0.0093821 
0.87798 0.070051 0.05624 0.12842 -0.03205 -0.24924 0.065447 0.064461 
0.020398 0.12053 0.009711 0.1562 0.17297 0.20947 0.051801 0.054596 
-1.2745 0.21621 0.017603 0.082217 -0.03353 0.439 0.028783 0.029934 
-2.6732 0.24482 0.033222 -0.049478 -0.20551 0.41927 0.015301 -0.027447 
-2.4009 0.19665 0.061666 -0.094199 -0.14944 0.20619 -0.061151 0.010369 
-0.77997 0.076956 0.084355 -0.12478 -0.011827 -0.097322 -0.093212 0.036839 
0.61985 -0.1011 0.087643 -0.081868 0.36797 -0.11245 -0.056548 0.027961 
1.1432 -0.21652 0.06331 0.082217 0.81863 0.056898 0.0028056 0.09274 
1.1075 -0.16259 -0.023336 0.20158 1.0932 0.34824 0.016781 0.16294 
0.90166 -0.081045 -0.080881 0.2098 0.74957 0.46941 0.036839 0.15374 
0.71275 -0.037476 -0.1284 0.1174 0.021056 0.13664 0.06479 0.067749 
0.48141 -0.094199 -0.088937 -0.032708 -0.54206 -0.4444 0.038155 -0.039778 
0.26389 -0.10587 0.01004 -0.084334 -0.53746 -0.53121 0.045389 -0.026953 
0.0054362 0.066269 0.063968 -0.079895 -0.19909 -0.2716 0.037332 0.0042853 
-0.29972 0.25354 0.053938 -0.019555 0.0093821 -0.058521 0.055582 0.024508 
-0.41513 0.33032 0.035524 0.06479 0.041772 0.11066 0.032893 0.01711 
-0.25154 0.29283 0.050321 0.059693 0.17248 0.19418 0.0070803 0.014643 
-0.069372 0.19385 0.048841 0.083697 0.3392 0.22263 -0.0032777 0.032564 
0.04506 0.15324 0.085012 0.0064227 0.2149 0.20487 0.0047785 0.01415 
0.042758 0.099974 0.094877 -0.014951 0.10063 0.18728 -0.0072237 0.03947 
0.0059294 0.046211 0.089616 0.043087 0.1276 0.22805 0.0016547 0.051636 
-0.043066 -0.0073881 0.10376 0.068407 0.17939 0.20076 0.014479 0.0421 
-0.040928 -0.058685 0.077449 0.03388 0.093398 0.10145 0.019247 0.058871 
-0.0047575 -0.12281 0.079587 0.0093821 0.00017495 0.040785 0.0021479 0.019576 
0.047526 -0.11656 0.071202 -0.035667 -0.0080457 0.018589 0.016781 0.011026 
0.10441 -0.061316 0.041114 -0.017253 0.025001 0.028125 0.041278 0.026317 
0.055418 0.00050378 -0.025145 0.041772 0.059528 0.063639 0.062488 0.027961 
-0.025638 0.10425 -0.099131 0.049828 0.067749 0.090438 0.065283 0.060022 
-0.14846 0.14765 -0.1279 0.087972 0.048677 0.065447 0.045882 0.035853 
-0.28262 0.16015 -0.085649 0.025824 0.049335 0.087479 0.034044 0.019576 
-0.28196 0.14519 -0.035832 0.028454 0.044402 0.072681 0.024179 -0.016266 
-0.17427 0.14124 -0.055068 0.056898 0.030592 0.048677 0.013986 0.016616 
-0.015444 0.044402 -0.028433 0.01152 -0.088773 0.0046141 0.027796 0.038483 
0.10639 -0.0771 0.038155 -0.0022913 -0.26174 0.019411 0.048348 0.027303 
0.1516 -0.078744 0.077614 -0.015116 -0.24661 0.02829 0.02122 0.069229 
0.20158 -0.045039 0.077285 -0.034352 -0.18561 0.049335 0.0085601 0.046868 
0.16821 -0.00031829 0.031907 0.0044497 -0.12675 -0.00031829 0.030263 0.03799 
0.13845 0.070708 0.062323 -0.0078813 -0.079401 -0.052273 0.028454 0.0044497 
0.10014 0.070215 0.099316 0.0067515 -0.05885 -0.11146 0.062323 0.0082312 
0.056569 0.075148 0.10852 0.021713 -0.083347 -0.18413 0.073504 0.02681 
0.058871 0.10425 0.10935 -0.0095255 0.068571 -0.14106 0.071859 0.0056006 
0.065283 0.08156 0.079751 0.026481 0.34298 0.019905 0.03388 0.009711 
0.068407 0.06594 0.099481 0.10326 0.36254 0.24762 0.029934 0.01974 
0.0592 0.048184 0.085835 0.13368 0.077449 0.32604 0.047855 0.040785 
0.084848 0.025988 0.099152 0.11905 -0.35923 0.15012 0.059528 0.041772 
0.2103 0.023522 0.091096 0.014479 -0.62887 -0.020212 0.046704 -0.0075525 
0.33311 0.011355 0.052952 -0.028762 -0.82781 -0.098473 0.056733 0.0072447 
0.29661 0.043251 0.035195 -0.031557 -0.78457 0.04358 0.072353 0.038648 
0.17643 0.013657 0.03799 -0.084169 -0.56722 0.18218 0.051965 0.015137 
-0.043724 -0.011334 0.028454 -0.068714 -0.13267 0.060679 0.025824 0.0069159 
-0.3127 0.011355 0.047362 -0.074798 0.293 -0.1547 -0.019884 -0.053424 
-0.4666 0.01974 0.020398 -0.079237 0.50706 -0.20501 -0.021199 -0.075949 
-0.2568 0.061172 -0.026953 -0.041257 0.62988 -0.18167 -0.078415 -0.066248 
0.044731 0.12184 -0.030242 0.029276 0.93816 -0.10357 -0.043724 -0.012485 
0.19172 0.12233 -0.064604 0.19944 1.3944 0.0051074 0.037497 0.098988 
0.18448 0.12102 -0.090253 0.37241 1.496 0.2588 0.11461 0.19994 
0.11033 0.16821 -0.0771 0.31371 0.55655 0.45281 0.11165 0.20717 
0.14913 0.14683 -0.071016 0.17577 -0.73903 0.23134 0.042923 0.10326 
0.19895 0.11329 -0.018075 -0.014787 -1.2661 -0.18002 0.031907 -0.0067304 
0.13812 0.079422 0.017438 -0.10456 -1.1057 -0.32043 0.030592 -0.058028 
0.086657 0.072846 0.033058 -0.056383 -0.6971 -0.22178 0.033222 -0.065919 
0.031742 0.076134 0.056569 -0.085485 -0.33178 -0.065755 0.0324 -0.018075 
0.025166 0.087314 0.094713 -0.072496 -0.12001 -0.018733 0.059528 -0.021528 
0.021056 0.070215 0.093891 -0.023007 -0.025145 0.0082312 0.029769 -0.004593 
-0.0021268 0.059035 0.097015 -0.033037 0.028619 -0.0087034 0.022206 -0.01232 
0.032236 0.11263 0.082382 0.026974 0.083697 0.020562 0.025659 0.0067515 
0.23594 0.15357 0.085012 0.047855 0.062488 0.16262 0.070544 0.033058 
0.37422 0.075312 0.071859 0.0075736 0.045224 0.26521 0.028125 0.0034632 
0.25189 -0.013965 0.03388 0.035195 0.20931 0.30648 0.016452 0.024508 
0.012506 -0.070687 0.0067515 0.044073 0.44146 0.3101 0.0098754 0.03388 
-0.33128 -0.030899 -0.038462 0.041607 0.58549 0.25847 0.030427 0.043087 
-0.71881 -0.01676 -0.043559 0.024015 0.49128 -0.063289 0.0052718 0.064954 
-0.68395 -0.093212 -0.052602 0.021713 0.20914 -0.55554 -0.015609 0.039799 
-0.27061 -0.14402 -0.025638 0.071695 0.00297 -0.84705 -0.023665 0.062323 
0.10244 -0.10834 -0.003771 0.066105 0.052787 -0.48221 0.050486 0.081395 
0.256 0.052952 0.0070803 0.059693 0.28757 0.079094 0.063968 0.092904 
0.25123 0.13878 -0.0070593 0.063474 0.45494 0.38441 0.065776 0.071531 
0.23266 0.11263 -0.008539 0.012506 0.2976 0.52367 0.045882 0.012999 
0.23134 -0.037476 0.0037921 -0.046354 0.095864 0.56888 -0.0068948 -0.028104 
0.30204 -0.11426 0.049335 -0.086636 0.030756 0.37356 -0.03764 -0.0771 
0.27343 -0.079566 0.055582 -0.12083 0.11477 -0.063782 -0.048492 -0.073154 
0.14683 0.050157 0.073175 -0.029584 0.32045 -0.16128 0.0090533 -0.021363 
0.0014903 0.14946 0.062159 0.058542 0.48141 0.073668 0.012342 0.052952 
-0.15585 0.19731 0.052787 0.20717 0.43521 0.21621 0.057062 0.13499 
-0.28574 0.22575 -0.051451 0.29086 0.072353 0.065118 0.069064 0.1465 
-0.25549 0.20487 -0.092883 0.18366 -0.3862 -0.19646 0.090438 0.10408 
-0.12412 0.083204 -0.059343 0.010862 -0.65107 -0.27867 0.043909 0.03092 
0.0065871 -0.053753 0.020562 -0.043888 -0.64696 -0.24299 0.01711 0.0098754 
0.091425 -0.13119 0.067585 -0.072003 -0.48304 -0.15635 0.016452 0.016945 
0.13072 -0.22474 0.10326 -0.057699 -0.3035 -0.094856 -0.0047575 0.013328 
0.11 -0.33506 0.12365 -0.077593 -0.157 -0.022843 -0.010512 0.024673 
0.096521 -0.33276 0.12266 -0.026789 -0.043066 -0.048656 -0.0059084 0.0064227 
0.099152 -0.23543 0.1151 0.044402 0.090109 -0.030735 0.024673 0.013657 
0.051472 -0.069208 0.049992 0.04917 0.084355 -0.097651 0.032564 0.020727 
-0.0064016 0.10869 0.020233 0.058871 -0.054739 -0.16309 0.045389 -0.02235 
-0.014293 0.24976 -0.033201 0.050157 -0.11837 -0.10784 0.048184 0.011191 
-0.018897 0.27096 -0.053917 0.026481 -0.076113 0.084355 0.066598 0.013821 
-0.0016336 0.18859 -0.025145 0.058542 -0.16654 0.20947 0.041607 0.027139 
0.012835 0.13105 0.0039565 -0.0039354 -0.36203 0.16294 0.020233 0.040292 
0.025659 0.058706 0.049828 0.0088889 -0.37929 0.13976 0.027468 0.0046141 
0.023851 0.055089 0.088301 0.035031 -0.059507 0.14174 0.025001 0.03651 
0.020398 0.049992 0.10162 -0.030899 0.16294 -0.060329 0.018096 0.037332 
0.062323 -0.012156 0.10277 -0.036983 0.028783 -0.25615 -0.013307 0.049992 
0.10622 -0.11656 0.12546 -0.038627 0.062652 -0.21307 -0.0054151 0.023686 
0.14157 -0.18808 0.17084 -0.046683 0.26702 -0.14698 -0.023172 -0.0044286 
0.10721 -0.12725 0.16788 -0.031886 0.52367 -0.041422 -0.030899 -0.0014692 
0.054267 -0.045368 0.11296 0.043087 0.97351 0.23907 0.0079024 0.00050378 
0.0060938 0.11609 0.059035 0.17856 1.2354 0.62034 0.060679 0.023357 
0.016123 0.1978 0.03651 0.159 0.90922 0.6769 0.027796 0.015465 
0.02681 0.18037 0.024015 0.12135 0.37109 0.35136 0.040621 0.021384 
-0.014129 0.19122 -0.055068 0.18284 -0.10982 0.17741 0.079094 0.14272 
-0.022021 0.22197 -0.11015 0.20454 -0.4855 0.038155 0.11428 0.17199 
-0.0067304 0.20964 -0.098638 0.15472 -0.68888 -0.32849 0.084519 0.12151 
0.0093821 0.17577 -0.055232 0.1077 -0.76912 -0.67968 0.040621 0.03799 
0.041936 0.12776 0.022042 -0.020212 -0.82304 -0.80545 0.020069 -0.043066 
0.074819 0.095206 0.096028 -0.11278 -0.64729 -0.38965 0.0042853 -0.093048 
0.098166 0.047855 0.12858 -0.1307 -0.2134 0.13138 -0.051944 -0.12281 
0.14913 0.08304 0.10639 -0.09946 0.21885 0.3415 -0.035832 -0.048163 
0.25732 0.11247 -0.001798 0.011355 0.5873 0.50575 0.033058 0.04506 
0.27212 0.10787 -0.032215 -0.00097594 0.66835 0.64747 0.027468 0.097015 
0.17314 0.14848 -0.041751 0.017274 0.40036 0.58582 0.038812 0.093726 
0.010204 0.15505 -0.045861 0.06594 0.21243 0.33328 0.041278 0.075641 
-0.23576 0.11214 -0.018897 0.065118 0.18415 0.18021 0.076627 0.081889 
-0.27916 0.086328 0.039634 0.069393 0.18054 0.071202 0.075312 0.049335 
0.30993 0.066269 0.095535 0.055418 0.051636 -0.073976 0.051143 0.021384 
0.82159 -0.0090322 0.15259 -0.024487 -0.083183 -0.31566 0.019576 -0.020706 
0.77654 -0.017911 0.14108 -0.026624 -0.14073 -0.49668 0.0021479 -0.05178 
0.12776 0.021549 0.083862 -0.0090322 -0.10242 -0.30383 0.018425 -0.0052507 
-0.93205 0.023522 0.036182 0.068736 -0.016431 -0.024323 0.061501 0.040292 
-1.5555 0.08008 0.017932 0.13171 0.06594 0.14469 0.10441 0.073504 
-0.7484 0.14634 0.023193 0.091753 0.14272 0.18876 0.050814 0.057227 
0.51939 0.17544 0.032729 0.094877 0.19829 0.1391 -0.0013048 0.033715 
1.0897 0.18399 0.058049 0.061501 0.1756 0.093891 -0.0050863 0.041772 
0.87584 0.15259 0.079422 0.036017 0.0087245 0.024179 -0.0082102 0.0013258 
0.049335 0.12842 0.042594 0.10474 -0.2619 -0.027282 0.013164 0.029934 
-1.119 0.074326 -0.031392 0.11148 -0.4763 -0.067399 0.058049 0.029605 
-1.3395 -0.021856 -0.074304 0.081067 -0.52628 -0.13711 0.068736 0.015959 
-0.59681 -0.052602 -0.081374 0.048019 -0.43042 -0.21373 0.040456 0.023357 
0.22082 -0.06 -0.058356 0.049499 -0.23231 -0.25927 -0.0024557 0.014643 
0.58154 -0.051287 -0.0088678 -0.013143 -0.18939 -0.32947 -0.03353 0.019576 
0.5503 0.0064227 0.018096 -0.10883 -0.15372 -0.25713 0.0037921 -0.022679 
0.44508 -0.0047575 0.11181 -0.16786 0.21934 -0.061645 0.0046141 -0.023501 
0.26768 -0.019719 0.081395 -0.10587 0.6968 0.37241 -0.010512 0.011848 
0.12513 -0.015609 0.045389 -0.04882 1.0018 0.91234 -0.0016336 0.029276 
0.031414 0.031249 0.053445 0.053281 1.107 1.0598 0.049828 0.065118 
-0.05441 0.081395 0.0227 0.11691 0.97038 0.82915 0.041936 0.085506 
-0.10538 0.13976 0.016616 0.050486 0.5434 0.4071 0.053281 0.052952 
-0.13168 0.15883 0.0067515 0.031742 0.043251 -0.18791 0.045882 0.047033 
-0.17493 0.10556 -0.008539 0.032236 -0.28689 -0.49044 0.097179 0.071366 
-0.18249 0.085999 -0.017417 0.069064 -0.62427 -0.39228 0.076463 0.088958 
-0.14467 0.017274 0.0056006 0.077285 -0.90443 -0.25352 0.079094 0.070215 
-0.060658 -0.15059 0.026317 -0.010676 -0.99058 -0.35512 0.019411 -0.012978 
-0.003771 -0.25894 0.058706 -0.087129 -0.83307 -0.49192 0.0041209 -0.079895 
0.013657 -0.17608 0.05624 -0.10932 -0.48337 -0.45492 -0.0088678 -0.056877 
-0.0078813 -0.065919 0.022371 -0.084498 -0.15454 -0.2573 -0.0075525 -0.026131 
-0.018568 0.041443 0.009711 -0.0016336 0.0046141 -0.080388 0.026152 0.018754 
-0.00015387 0.10967 -0.0016336 0.054432 0.069886 -0.0057439 0.030427 0.060022 
0.046868 0.08863 0.010862 0.06183 0.10145 0.069393 -0.00064712 0.041772 
0.084519 0.045389 0.035688 0.08863 0.13993 0.13746 -0.013307 0.043745 
0.11987 -0.046025 0.046211 0.035853 0.16623 0.15028 0.033387 0.029276 
0.23282 -0.055068 0.038977 0.025495 0.23068 0.17133 0.045882 0.0095465 
0.37487 -0.033201 -0.016924 0.017767 0.28658 0.16212 0.06479 0.012177 
0.39033 0.058706 -0.048163 0.010533 0.2856 0.1493 0.012177 0.037826 
0.23578 0.12299 -0.093376 0.047197 0.21769 0.14798 0.0011614 0.079258 
-0.045696 0.096193 -0.05441 0.023193 0.19731 0.12595 -0.011992 0.060679 
-0.41464 0.12283 -0.0090322 0.033058 0.159 0.075641 -0.031557 0.040785 
-0.59681 0.18662 -0.052602 0.061666 0.06183 -0.0047575 -0.010676 0.047855 
-0.39475 0.12743 -0.075127 0.0047785 -0.14237 -0.083018 0.0079024 0.028783 
0.031907 0.047855 -0.064768 -0.03616 -0.3423 -0.25861 -0.0026201 -0.0029489 
0.34692 -0.010676 0.032729 -0.079895 -0.38718 -0.2573 0.022371 -0.029913 
0.43653 -0.032379 0.019576 -0.07266 -0.25828 -0.080717 0.08008 -0.015444 
0.40134 -0.018897 -0.077922 -0.039284 0.010369 0.085999 0.074983 0.028454 
0.30812 0.021713 -0.085485 -0.049314 0.20799 0.18498 0.05624 0.023851 
0.26817 -0.00097594 0.046211 -0.045368 0.32917 0.2149 0.04506 0.02681 
0.24203 -0.00081153 0.19303 -0.037969 0.42634 0.18744 0.049664 0.00050378 
0.20701 0.026481 0.27672 -0.035338 0.57447 0.058871 0.01004 0.048348 
0.14634 0.047033 0.28839 0.084848 0.78394 0.0036276 0.013492 0.090274 
0.09833 0.052459 0.25995 0.16886 0.69482 0.13795 0.032564 0.081067 
0.044402 0.10359 0.23759 0.20487 0.20323 0.18761 0.053445 0.073997 
0.052294 0.098988 0.19237 0.18761 -0.43273 0.019411 0.045224 0.043745 
0.02681 0.051308 0.13894 0.088794 -0.77717 -0.16391 0.031249 0.01152 
0.064625 0.052459 0.067091 0.022206 -0.82798 -0.24332 0.038648 -0.0027845 
0.059035 0.10392 0.0064227 -0.0026201 -0.61999 -0.15964 0.02829 0.017767 
0.065283 0.084519 1.0539e-005 0.005765 -0.30794 -0.088773 0.030592 0.026646 
0.05213 0.046375 -0.020541 0.021878 -0.12231 -0.064275 0.025988 -0.0067304 
0.056404 0.096028 -0.042408 0.017603 -0.012814 -0.08532 0.043909 0.0042853 
0.040456 0.053774 -0.041915 0.037497 0.30549 -0.012156 0.019905 0.01974 
0.024673 0.012013 -0.092883 0.12118 0.67296 0.12579 0.029605 -0.009361 
-0.0050863 -0.014129 -0.092883 0.14881 0.68825 0.22739 0.037332 0.044567 
0.037826 -0.020541 -0.076442 0.13105 0.50641 0.29842 0.081889 0.088794 
0.27064 -0.073154 0.015137 0.086985 0.39247 0.35728 0.070051 0.10951 
0.44574 -0.14796 0.10967 -0.013471 0.065447 0.20109 0.041114 0.090931 
0.32456 -0.073811 0.18958 -0.071345 -0.34953 -0.12478 0.028454 0.0082312 
0.042758 0.059035 0.1516 -0.11278 -0.42072 -0.38472 0.037661 -0.0067304 
-0.33885 0.17396 0.14848 -0.025309 -0.32339 -0.34493 0.060022 -0.0059084 
-0.75547 0.27951 0.084519 0.085506 -0.19334 -0.047341 0.049499 0.045553 
-0.69513 0.22411 0.058706 0.11691 -0.12642 0.24104 0.062323 0.072188 
-0.303 0.14437 0.077614 0.11329 -0.11607 0.34298 0.059364 0.06479 
0.12595 0.075148 0.1276 0.046868 -0.14632 0.19912 0.0037921 0.042429 
0.4043 0.014315 0.16771 0.066598 0.08715 0.14667 -0.0027845 0.010533 
0.44327 -0.013636 0.15933 0.10359 0.29382 0.075312 -0.021363 0.017274 
0.35268 -0.023336 0.11987 0.053445 0.26242 -0.36844 -0.034516 -0.0070593 
0.20027 -0.043395 0.084026 0.013164 0.19007 -0.55768 -0.012156 -0.019884 
-0.017911 -0.068879 0.030263 0.032564 0.11148 -0.32356 0.014479 0.013164 
-0.11935 -0.042737 -0.01528 0.066105 0.25337 0.12809 0.061172 -0.00064712 
-0.13678 -0.047176 -0.013307 0.12562 0.30187 0.31355 0.068407 0.0032988 
-0.13333 -0.087951 -0.041751 0.13483 0.37126 0.19961 0.068242 0.03651 
-0.08121 0.004943 -0.014951 0.16081 0.29086 0.11757 0.10425 0.086163 
-0.042901 0.099152 -0.004593 0.10441 -0.12182 0.12316 0.07038 0.081889 
-0.013307 0.10902 0.00033937 -0.027118 -0.40823 0.040785 0.025495 0.058049 
0.0062583 0.091918 -0.0004827 -0.08828 -0.26585 0.028783 -0.020706 0.039634 
-0.019555 0.11165 -0.038133 -0.062467 0.14404 0.15555 0.0095465 0.030427 
-0.032708 0.08978 -0.076935 -0.047669 0.36649 0.25485 -0.016266 0.034702 
-0.023007 0.069064 -0.094363 0.0070803 0.14815 0.30303 -0.041586 0.011191 
-0.018404 0.0786 -0.073482 -0.010019 -0.03912 0.27425 -0.0503 0.018754 
-0.01232 0.061995 -0.058356 -0.019226 -0.021528 0.23003 -0.021363 0.013657 
-0.019884 0.067585 -0.032543 0.011026 0.014643 0.1174 -0.023007 -0.031064 
-0.03501 0.0786 -0.034188 0.024673 0.08978 0.014315 0.025824 0.0079024 
-0.03057 0.12003 -0.054246 0.035853 0.12776 -0.074798 0.071202 0.03799 
-0.03057 0.021384 -0.015444 -0.046025 -0.084169 -0.38932 0.077121 0.062652 
0.0024767 -0.023172 0.0046141 -0.12873 -0.14023 -0.61062 0.026646 0.028454 
0.046211 0.004943 -0.047012 -0.031064 0.45757 -0.36893 0.024344 0.047526 
0.095371 0.025495 -0.1376 0.12727 1.1131 0.22427 0.051636 0.087972 
0.15735 0.074819 -0.1233 0.1738 0.72508 0.62577 0.041607 0.059528 
0.12497 0.096357 -0.024652 0.085999 -0.24562 0.36254 0.020398 0.019411 
0.014808 0.062159 0.051965 -0.081045 -0.79723 -0.096007 0.019905 0.024344 
-0.12905 0.073175 0.052952 -0.09946 -0.84425 -0.17197 0.016616 0.012013 
-0.30004 0.073339 0.029441 -0.081703 -0.64679 -0.085978 -0.013307 0.014808 
-0.28969 0.076134 0.048677 -0.083018 -0.36055 -0.021856 -0.029913 -0.011498 
-0.096665 0.081724 0.042429 -0.040106 -0.10406 0.0062583 -0.026624 -0.013965 
0.08008 0.13039 0.004943 -0.037969 0.051308 0.048841 0.0079024 -0.0024557 
0.18087 0.12513 -0.012978 -0.020212 0.062817 0.069393 -0.0014692 -0.012156 
0.17873 0.11148 -0.0072237 -0.012814 0.095535 0.033222 0.0014903 0.023357 
0.15357 0.11099 0.0079024 -0.024652 0.44212 -0.017417 0.017603 0.018918 
0.11674 0.10408 0.0051074 0.014315 0.5628 -0.02087 0.035853 0.02829 
0.086328 0.10145 -0.010183 0.059528 0.29201 0.016616 0.046868 0.051143 
0.033715 0.090603 -0.022679 0.052623 -0.0052507 0.10474 0.054596 0.0689 
0.062981 0.088301 0.0046141 0.072024 -0.17575 0.1562 0.08156 0.065283 
0.26291 -0.0036066 0.010697 0.0037921 -0.24973 0.16426 0.046046 0.020398 
0.4025 -0.049478 0.054925 -0.037476 -0.17986 0.08419 0.02829 0.028619 
0.46333 -0.034516 0.0592 -0.001798 0.17544 0.0085601 0.023686 0.0088889 
0.32933 -0.041422 0.073339 0.031249 0.36961 -0.056877 0.019083 -0.010676 
-0.051451 0.012999 0.052952 0.096521 0.23578 -0.12462 0.009711 0.0075736 
-0.5858 0.086492 0.030263 0.071859 -0.22803 -0.13958 0.017438 0.024344 
-0.80183 0.092247 0.059364 0.018918 -0.72653 -0.16999 0.033715 0.032729 
-0.71322 0.028619 0.048513 0.025824 -0.83044 -0.2032 0.067749 0.02122 
-0.24891 -0.028104 0.074654 0.025001 -0.56919 -0.15964 0.063145 0.021549 
0.22887 -0.038462 0.067256 -0.004593 -0.27686 -0.095514 0.041278 0.037168 
0.49128 -0.025638 0.08863 -0.011663 0.12776 0.0786 0.045224 0.031414 
0.463 0.0042853 0.14256 -0.065591 0.4436 0.27442 0.045882 0.0085601 
0.16771 0.053281 0.17774 -0.042244 0.63547 0.47944 0.041936 -0.01676 
-0.074304 0.059857 0.10852 0.0039565 1.0273 0.59946 0.043087 0.055582 
-0.034023 0.10047 0.062488 0.17281 1.2722 0.41368 0.030263 0.17495 
0.10655 0.15686 -0.0019624 0.25666 0.78542 0.16327 0.038648 0.19681 
0.17412 0.12053 0.024015 0.171 0.056404 -0.065755 0.013328 0.11822 
0.21687 0.083862 0.059364 0.089123 -0.64778 -0.30629 -0.033694 -0.0052507 
0.1927 0.069558 0.076299 0.027632 -0.98072 -0.49487 -0.028926 -0.11738 
0.099316 0.071037 0.11559 -0.00081153 -0.85428 -0.53236 -0.0090322 -0.13826 
0.007738 0.074983 0.081395 0.010862 -0.48715 -0.41628 0.030427 -0.133 
-0.058028 0.13861 0.058049 -0.02794 -0.22951 -0.17756 0.061172 -0.025802 
-0.094692 0.10606 0.032564 0.044402 0.095699 0.11263 0.095042 0.061337 
-0.06148 0.056569 -0.025802 0.10852 0.37126 0.43637 0.10935 0.14075 
-0.03616 -0.016266 -0.0077169 0.10606 0.28642 0.45577 0.079422 0.15735 
-0.025474 -0.056055 -0.0021268 0.075476 -0.011827 0.2537 0.10228 0.11099 
-0.013471 -0.073647 0.044073 0.078272 -0.35101 -0.052437 0.080573 0.051801 
-0.026624 -0.03501 0.062159 0.057884 -0.63956 -0.25352 0.064296 0.0014903 
-0.047176 -0.030899 0.06331 0.065612 -0.60273 -0.14599 0.072024 0.017603 
-0.0095255 -0.12856 0.054596 0.0098754 -0.28673 -0.076113 0.060186 0.032236 
0.079916 -0.093541 0.02533 -0.0091966 0.14881 -0.14681 -0.019061 0.030756 
0.16903 0.051308 0.017767 0.0083956 0.45708 -0.14714 -0.068386 0.037661 
0.51331 0.013986 0.033058 -0.047505 0.53551 -0.027118 -0.084005 -0.00097594 
0.97071 -0.17328 0.098823 -0.13514 0.50114 0.16936 -0.074304 -0.06296 
0.95328 -0.13892 0.11707 -0.10867 0.85085 0.43982 -0.077593 -0.081045 
0.47796 0.01974 0.077285 0.076134 1.6389 0.64534 -0.011827 0.00297 
-0.14944 0.047691 0.03388 0.26768 1.5153 0.63629 0.077121 0.15489 
-1.105 -0.011005 0.028947 0.25748 0.087314 0.38803 0.12003 0.14239 
-1.6749 0.048348 -0.0029489 0.17248 -1.4141 -0.25154 0.11625 0.08156 
-0.92909 0.14716 -0.0034422 0.076627 -1.7666 -0.76221 0.084355 -0.011005 
0.37438 0.1396 -0.013471 0.042265 -1.2482 -0.76928 0.05213 -0.031392 
1.074 0.011191 -0.0080457 0.0024767 -0.59056 -0.57215 0.0019835 -0.022021 
0.97268 -0.040928 0.034209 -0.055397 -0.14056 -0.37321 -0.03057 -0.011005 
0.45248 0.031742 0.093891 -0.1353 0.14486 -0.13843 -0.027282 0.00050378 
-0.29939 0.15785 0.10063 -0.11294 0.6284 0.14568 0.01267 0.03092 
-0.86859 0.17478 0.046868 -0.056219 1.4089 0.55507 0.045882 0.10984 
-0.64054 0.13483 -0.0032777 0.14585 1.7841 0.97975 0.046046 0.11625 
-0.15076 0.11773 -0.02942 0.2223 0.95855 0.84313 0.039141 0.11263 
0.23068 0.03651 -0.059672 0.15966 -0.10571 0.39559 0.057884 0.10721 
0.3586 0.015137 -0.053588 0.10951 -0.52085 0.17429 0.065612 0.03799 
0.36616 0.014479 -0.013965 -0.0067304 -0.53647 0.12579 0.032729 0.025659 
0.29809 -0.012978 0.026646 -0.084827 -0.45591 -0.049478 0.023193 -0.045696 
0.18498 -0.027611 0.051636 -0.069536 -0.27538 -0.16391 0.012177 -0.084498 
0.080573 -0.06148 0.07449 -0.072167 -0.084005 -0.32109 -0.0022913 -0.056548 
0.049335 -0.10571 0.060022 -0.061151 -0.041915 -0.72637 -0.014622 -0.044546 
0.00083261 -0.15372 0.027139 0.016616 0.10376 -0.85395 0.027139 0.020727 
-0.055561 -0.097487 -0.036983 0.05065 0.059035 -0.41382 0.025988 0.041443 
-0.066906 0.020398 -0.094527 0.066598 -0.13333 0.04654 0.024015 0.08419 
-0.05326 0.085177 -0.1136 -0.024487 -0.25976 0.16064 0.00297 0.057062 
-0.052766 0.15949 -0.071674 -0.092719 -0.25154 0.18876 0.025824 -0.014293 
-0.042901 0.24334 0.074983 -0.062631 0.0062583 0.18498 0.0042853 -0.024487 
0.099645 0.22953 0.1202 0.0059294 0.3119 0.18202 0.020069 0.010697 
0.19139 0.21326 0.10491 0.034209 0.31503 0.16574 0.024837 0.061666 
0.17544 0.17495 0.14404 0.048513 0.22361 0.19583 0.052787 0.066927 
0.0056006 0.052623 0.14108 0.031907 0.22345 0.18991 0.032729 0.065283 
-0.21044 -0.031228 0.15999 0.035853 0.22378 0.11329 0.056733 0.052623 
-0.49997 -0.015773 0.14552 0.020233 0.068736 0.10113 0.067256 0.04095 
-0.5973 0.09422 0.063474 0.029605 -0.087458 0.066927 0.051143 0.055254 
-0.3492 0.12924 0.011684 0.037168 -0.061645 0.01711 0.034702 0.052952 
0.16426 0.10441 -0.0034422 0.0039565 -0.053424 -0.056383 0.032071 0.027632 
0.61739 0.10474 -0.020541 0.027139 -0.064275 -0.036325 0.071202 0.029769 
0.65668 0.1322 -0.062302 0.054596 -0.043066 0.041936 0.047691 -0.022514 
0.38638 0.14272 -0.030242 0.042594 -0.07414 0.1299 0.033715 -0.0091966 
-0.069372 0.13598 0.0070803 0.030098 0.099481 0.11839 0.041114 0.0083956 
-0.74363 0.14058 -0.009361 0.059035 0.35794 0.083368 0.055582 0.08156 
-0.93156 0.16475 -0.031886 0.086657 0.32193 0.058871 0.0046141 0.075148 
-0.45657 0.17084 -0.036654 0.071695 -0.003771 -0.059178 -0.059014 0.039799 
0.15357 0.039141 -0.048492 -0.011498 -0.24431 -0.16062 -0.074469 0.013821 
0.524 -0.075127 -0.16473 -0.034516 -0.2448 -0.21159 -0.06 -0.016431 
0.52383 -0.096994 -0.25647 -0.089759 -0.15766 -0.13875 -0.030899 -0.023501 
0.38046 -0.012485 -0.26075 -0.11113 -0.15388 -0.010512 0.0026412 -0.011005 
0.2006 0.11905 -0.12873 -0.03353 -0.11097 0.054432 0.068407 -0.0070593 
0.10507 0.13384 0.09274 -0.021199 -0.013143 0.049499 0.067913 0.028619 
0.071202 0.10063 0.2491 0.0065871 -0.10883 -0.22622 0.066105 0.0227 
0.019247 0.0059294 0.25321 0.03651 -0.27292 -0.41481 0.061172 0.045882 
0.0085601 -0.025309 0.26094 0.031578 -0.3714 -0.34279 0.082711 0.066269 
-0.0075525 -0.012978 0.31289 0.011848 -0.47926 -0.15026 0.071366 0.056569 
0.00297 -0.029913 0.29875 -0.0095255 -0.62493 0.028454 0.037168 0.036182 
0.027796 0.042429 0.24844 0.013657 -0.49816 0.28889 0.031085 -0.011663 
0.062652 0.1613 0.20438 0.033387 -0.13744 0.48964 0.024344 -0.0049219 
0.098494 0.13993 0.14058 -0.01676 0.1396 0.60242 -0.020048 -0.058192 
0.085999 0.12727 0.093233 -0.0042642 0.41269 0.52416 -0.040764 -0.016431 
0.071695 0.10639 0.0095465 0.055254 0.63876 0.39263 0.0026412 0.044073 
0.10556 0.050814 -0.06148 0.15341 0.6506 0.10589 -0.0075525 0.022371 
0.19369 0.021384 -0.084005 0.27672 0.61558 -0.43782 -0.011827 0.040785 
0.29365 0.013164 -0.14122 0.36912 1.0475 -0.64646 0.019576 0.079258 
0.2537 -0.10949 -0.18101 0.38211 0.96529 -0.37255 0.073997 0.12168 
0.10129 -0.24891 -0.11343 0.19287 -0.074798 -0.065262 0.06594 0.10984 
-0.1187 -0.206 -0.009361 -0.084991 -1.0965 -0.024487 0.051636 0.060679 
-0.42056 -0.076113 0.029112 -0.19367 -1.0572 -0.0096899 0.038812 0.055747 
-0.51822 -0.070523 0.067749 -0.14993 -0.56426 -0.043724 0.049499 0.041607 
-0.24102 -0.035667 0.029276 -0.11064 -0.45657 -0.34263 0.0044497 0.0056006 
0.1003 0.073997 0.038812 -0.089431 -0.4666 -0.44325 0.0047785 -0.015773 
0.29332 0.1054 0.073504 -0.1552 -0.40543 -0.021528 0.00050378 -0.11311 
0.40907 0.082875 0.10984 -0.18676 -0.26864 0.42305 -0.031228 -0.18972 
0.55869 0.08978 0.10129 -0.085485 0.48141 0.84674 -0.032379 -0.21521 
0.51002 0.083697 0.053774 0.090603 1.3778 1.0394 0.026152 -0.001798 
0.31552 0.077943 0.030592 0.21654 1.2826 0.89574 0.065447 0.13072 
0.10408 0.057884 0.053938 0.16278 0.48405 0.24976 0.054925 0.11674 
-0.33457 0.06035 0.072353 0.10606 -0.045203 -0.65485 0.014643 0.10869 
-0.68181 0.081231 0.070544 0.12036 -0.026131 -0.91643 0.0039565 0.099316 
-0.54732 0.086985 0.039141 0.11033 0.37159 -0.42516 0.044402 0.12957 
-0.15684 0.064625 0.031085 0.079587 0.57349 0.19944 0.049828 0.11609 
0.16212 0.019247 0.031249 0.077449 0.27623 0.46218 0.018754 0.053445 
0.27327 -0.010676 0.011191 0.041114 0.15292 0.47434 0.052294 0.059035 
0.25485 0.013492 -0.014622 0.072681 0.23315 0.29349 0.079916 0.064296 
0.1835 0.02533 -0.083512 0.088465 0.33311 0.2103 0.065447 0.02122 
0.12727 0.050979 -0.20732 0.060515 -0.015609 0.2052 0.073504 0.012177 
0.081889 0.085341 -0.23329 -0.026624 -0.51 0.074326 0.062652 -0.057863 
0.040456 0.0592 -0.12692 -0.13481 -0.66192 -0.16818 0.021549 -0.03616 
-0.0014692 0.031907 -0.0011404 -0.15043 -0.37222 -0.39886 0.012177 -0.040106 
-0.0080457 0.028125 0.10491 -0.08384 0.054596 -0.53861 -0.01939 -0.0087034 
-0.014787 0.0069159 0.1539 -0.054904 0.24466 -0.40346 0.010533 -0.0014692 
-0.025474 -0.0040998 0.2029 0.01826 0.2685 0.038977 0.015465 0.032071 
-0.028762 0.033058 0.15045 0.02533 0.38244 0.34709 0.0028056 0.049828 
-0.030899 0.080409 0.063803 0.013492 0.37126 0.378 -0.018897 0.028454 
-0.038133 0.097344 0.036017 0.038812 0.32884 0.29826 0.00050378 0.052459 
-0.0096899 0.1054 0.047033 0.0051074 0.23151 0.22805 0.036675 0.061337 
0.080573 0.066105 0.071695 0.025988 0.019576 0.14765 0.072517 0.061666 
0.16788 -0.023829 0.034044 0.027632 -0.20025 0.015465 0.06479 0.035031 
0.14996 0.0093821 -0.035996 -0.0031133 -0.31501 -0.063618 0.047197 -0.00081153 
0.082053 0.13746 -0.10883 0.053609 -0.26091 -0.079072 0.011355 0.00066819 
-0.080881 0.18152 -0.20057 0.093398 -0.13185 -0.077428 0.012835 -0.0019624 
-0.31386 0.16064 -0.19416 0.13023 -0.031886 -0.044217 0.017603 0.015301 
-0.35825 0.14206 -0.11459 0.14683 0.0041209 0.0072447 -0.0034422 0.04506 
-0.13168 0.049664 -0.029091 0.089452 0.051965 0.034373 0.012013 0.039963 
0.10343 -0.07003 0.086328 0.020398 0.13401 0.052623 0.034044 0.042265 
0.15028 -0.087622 0.15176 -0.043395 0.17577 0.10145 0.070051 0.033551 
0.086328 -0.0095255 0.13072 -0.044874 0.1784 0.077285 0.055582 0.043251 
0.11329 0.098823 0.093398 0.030263 -0.068714 0.028783 0.04506 0.069229 
0.21539 0.12151 0.076299 0.016781 -0.43601 -0.10225 -0.01939 0.02829 
0.15735 0.081889 0.0786 -0.029913 -0.63956 -0.13875 0.0092177 0.024837 
0.057062 0.044238 0.062981 0.01152 -0.64564 -0.30004 0.032071 -0.019226 
-0.099131 0.027468 0.061501 0.0034632 -0.65912 -0.53696 0.04506 -0.036489 
-0.23214 0.053774 0.080409 -0.018404 -1.0432 -0.63479 0.076956 -0.051944 
-0.17936 0.034044 0.087479 -0.036654 -1.279 -0.51017 0.053774 -0.029584 
0.0088889 0.034702 0.026152 0.013328 -0.77816 -0.32767 -0.036983 0.021384 
0.17149 0.044731 -0.0078813 0.15933 0.16229 0.0042853 -0.078086 0.091753 
0.20931 -0.0026201 -0.020541 0.16903 0.79939 0.38096 -0.043066 0.08567 
0.18366 -0.014622 0.033222 0.11083 1.1979 0.64468 -0.017088 -0.001798 
0.17544 -0.013471 0.096193 -0.054575 1.1552 0.53567 -0.01676 -0.12215 
0.12053 -0.020048 0.1373 -0.16029 1.0884 0.1322 0.0079024 -0.081045 
0.070215 -0.0095255 0.14765 0.035195 1.7967 0.16755 0.051472 0.10441 
-0.0088678 0.030592 0.069064 0.25699 1.9158 0.52038 0.082875 0.25239 
-0.071509 0.092576 -0.0040998 0.34035 0.60357 0.47796 0.11905 0.22904 
-0.057699 0.092247 -0.014951 0.2029 -1.0039 0.022206 0.09422 0.10935 
-0.023665 0.073832 0.011684 0.0026412 -1.6165 -0.3206 0.082711 -0.015444 
0.0051074 0.071695 0.050979 -0.031064 -1.4176 -0.37535 0.026152 -0.034845 
0.027303 0.067913 0.060679 -0.017417 -0.94537 -0.2716 0.021549 0.014643 
0.0019835 0.042923 0.050814 -0.024816 -0.6223 -0.13843 0.018096 0.0087245 
0.039305 0.031907 0.084684 -0.010841 -0.38866 -0.0087034 0.0023123 -0.012156 
0.061666 -0.038956 0.098988 -0.03205 -0.19597 0.20191 -0.028269 -0.045696 
0.066763 -0.085156 0.056404 -0.021856 -0.0064016 0.27705 -0.023007 -0.02235 
-0.0016336 -0.046025 -0.0013048 -0.00015387 0.13845 0.18185 0.01563 0.018589 
0.032236 -0.021034 0.0098754 -0.021528 0.22098 -0.072825 0.021878 0.0074092 
0.095042 -0.043066 0.018096 -0.022514 0.29645 -0.11656 -0.037476 0.030098 
0.086985 0.01152 0.00297 0.014315 0.5189 0.033551 -0.011827 0.039634 
0.087808 0.10195 0.005765 0.045882 0.63037 0.050979 0.044731 0.065283 
0.081231 0.11757 0.01974 0.055089 0.37718 -0.24365 0.026646 0.040621 
0.13697 0.10129 0.038483 0.0092177 0.18465 -0.53729 0.035031 -0.03057 
0.10589 0.074326 0.043087 0.033551 0.42749 -0.18397 0.027468 0.012177 
0.062817 0.037168 -0.001798 0.13434 0.60637 0.44985 0.066598 0.083862 
0.04358 0.0056006 -0.0098543 0.11411 0.49703 0.70107 0.055911 0.12135 
0.015794 0.022864 -0.00097594 0.04654 0.18514 0.57332 0.067585 0.1003 
-0.032215 0.016781 -0.0138 -0.027775 -0.25976 0.26406 0.03651 0.029276 
-0.056383 0.020398 -0.06707 -0.090746 -0.44999 0.057227 -0.004593 -0.018733 
-0.052931 0.071695 -0.10784 -0.043559 -0.23954 0.06594 -0.0013048 -0.056548 
-0.044874 0.088794 -0.089759 -0.0091966 0.12299 0.20635 0.046046 0.015794 
-0.021692 0.090438 -0.0039354 0.046704 0.29809 0.3022 0.11411 0.072024 
0.073504 0.13302 0.02681 0.038483 0.27376 0.33098 0.097344 0.074983 
0.17692 0.16722 0.096193 -0.05589 0.16936 0.14667 0.08008 0.076463 
0.13368 0.11937 0.15423 -0.059672 0.18892 -0.26437 0.049006 0.038483 
0.055747 0.067091 0.13582 -0.080223 0.38293 -0.58547 0.044896 0.01267 
-0.088608 0.05624 0.13351 -0.02646 0.25485 -0.59862 0.016781 -0.01939 
-0.24102 0.017932 0.11083 0.043087 -0.12774 -0.35266 -0.022679 -0.053095 
-0.22178 0.012999 0.072681 0.045882 -0.37354 -0.014129 0.028125 0.0059294 
-0.080552 0.039799 0.056898 0.032071 -0.26223 0.24976 0.062817 0.035688 
0.053774 0.0786 0.0064227 0.053281 -0.13448 0.33328 0.034044 0.03799 
0.13203 0.093891 -0.052437 0.026974 -0.16703 0.33689 0.020727 0.035524 
0.16344 0.10967 -0.060987 0.058542 -0.15257 0.19764 0.02122 0.051801 
0.13845 0.12381 -0.056219 0.058542 -0.12198 0.053609 0.0054362 0.03536 
0.092082 0.16541 -0.0049219 0.045882 -0.16621 -0.081539 -0.012485 -0.0049219 
0.054267 0.18037 0.0075736 0.068571 -0.17575 -0.1353 0.016945 0.023357 
0.020562 0.075641 -0.018239 0.043416 -0.16029 -0.16062 0.042758 0.023851 
0.026152 -0.11015 -0.0078813 0.054596 -0.093376 -0.20452 0.034044 0.034866 
0.030263 -0.27999 0.0421 0.03947 -0.066084 -0.19663 0.027468 0.058706 
0.01826 -0.35595 0.055911 -0.020706 -0.11294 -0.14813 0.057227 0.04358 
0.23973 -0.28163 0.089945 -0.039613 -0.17739 -0.1404 0.082053 0.01152 
0.58302 -0.17821 0.08863 -0.054575 -0.21159 -0.12692 0.047197 -0.025145 
0.62988 -0.015444 0.068407 -0.048327 -0.19909 -0.11097 0.022042 -0.047341 
0.32539 0.16097 0.050157 -0.0078813 -0.2813 -0.032708 0.030098 -0.032379 
-0.14977 0.28214 0.01004 0.024015 -0.30761 -0.016102 0.027139 0.012013 
-0.90213 0.34857 -0.0029489 0.095206 -0.20781 -0.17838 0.072681 0.07301 
-1.1981 0.2486 -0.0019624 0.1368 -0.25943 -0.3081 0.070544 0.12003 
-0.68609 0.1179 -0.0068948 0.10063 -0.24283 -0.26174 0.059857 0.078929 
0.025659 0.0095465 0.052787 0.056898 -0.2032 -0.25779 0.017274 0.024673 
0.40661 -0.0965 0.098494 -0.0052507 -0.12856 -0.2254 0.0080668 0.029605 
0.2662 -0.087622 0.11214 0.016123 0.49621 0.23003 0.01711 0.046868 
0.16015 -0.07003 0.12842 0.056898 0.87535 0.77868 0.02533 -0.0072237 
0.6409 -0.15289 0.099974 0.023686 0.48503 0.81189 -0.0091966 -0.099624 
1.0394 -0.121 0.058213 0.044238 0.051801 0.36879 -0.0088678 -0.067892 
0.8474 0.05772 0.00066819 0.16574 0.016288 0.35465 0.030263 0.031249 
0.31059 0.20717 -0.028433 0.1442 0.052459 0.4579 0.052787 0.095699 
-0.43914 0.18202 0.0034632 0.045389 0.13072 -0.33506 0.015137 0.050814 
-1.4376 0.099974 0.027303 -0.0060728 0.39263 -0.93583 0.04917 0.092904 
-1.3638 0.086163 0.039799 0.019247 0.52087 -0.50359 0.066434 0.12595 
-0.17493 -0.0029489 0.021056 0.09981 0.66441 0.22592 0.04917 0.13615 
0.84559 -0.081045 0.01152 0.11674 0.62807 0.36863 0.013164 0.075805 
1.0302 -0.11491 -0.011498 0.11674 0.33739 0.01974 0.009711 0.016781 
0.64747 -0.12116 0.011848 0.057555 -0.033859 -0.077922 0.021056 0.010697 
-0.028597 -0.042408 0.019905 -0.042079 -0.41004 0.21391 0.012177 0.013328 
-0.6514 0.12908 0.02533 -0.066248 -0.46988 0.25123 0.02122 0.023686 
-0.67261 0.2075 0.023686 -0.041422 -0.014458 0.081724 0.053116 0.048019 
-0.25894 0.21095 0.030592 -0.033859 -0.0096899 -0.063946 0.0090533 0.00017495 
0.032729 0.14469 0.022864 -0.031392 -0.035338 0.1225 -0.033859 -0.026624 
-0.026624 0.08008 0.023522 -0.0062372 0.5309 0.5023 -0.066084 -0.048985 
-0.15635 0.07449 0.016781 0.093233 0.73757 0.53008 0.018096 0.026152 
-0.066248 0.079751 0.036839 0.072188 0.28658 0.34988 0.029605 0.085506 
0.13598 0.1128 0.038812 0.038155 -0.09946 0.20109 0.021878 0.087479 
0.23446 0.098494 0.019411 0.060679 -0.22162 0.022535 0.031907 0.065118 
0.19944 0.086328 0.0227 0.014972 -0.17558 -0.26864 0.04917 0.0075736 
0.056898 0.11066 0.023851 0.033387 -0.028269 -0.50688 0.032893 0.019083 
-0.038298 0.10441 -0.017582 0.04654 0.13878 -0.4952 0.020398 0.022042 
-0.058028 0.11888 -0.0067304 0.050486 0.244 -0.13777 0.024179 0.056404 
-0.049642 0.14256 0.012177 0.055254 0.25337 0.20586 0.050814 0.077285 
-0.016266 0.043745 0.048841 0.019576 0.18711 0.2999 0.036675 0.057555 
0.023357 -0.077428 0.069393 -0.0060728 0.11165 0.21556 -0.0027845 0.060186 
0.037168 -0.041586 0.029276 0.028619 0.035195 0.10228 0.0064227 0.051965 
0.0090533 0.060186 -0.0087034 0.030263 -0.23691 0.056898 0.026317 0.037168 
-0.012649 0.11773 -0.0083746 0.01415 -0.59566 0.049335 0.038977 0.066927 
-0.044874 0.14519 0.00050378 0.011355 -0.75267 -0.15322 0.044731 0.066598 
-0.045532 0.16755 0.015137 -0.010019 -0.72867 -0.38981 0.05772 0.03092 
-0.031392 0.11839 0.018425 -0.01939 -0.47695 -0.38077 0.040456 -0.023829 
-0.01939 0.095864 0.054267 -0.07825 -0.10801 -0.32898 0.011355 -0.071181 
0.022864 0.10458 0.093233 -0.088444 0.44426 -0.27538 -0.020541 -0.14336 
0.11444 0.047855 0.10113 -0.036818 0.99061 -0.046683 -0.012978 -0.13547 
0.13845 0.033551 0.097179 -0.042079 1.4495 0.52942 -0.016102 0.028783 
0.077778 0.085999 0.075312 0.00083261 1.6114 1.0135 -0.0049219 0.18859 
0.051143 0.19303 -0.0040998 0.13828 1.3877 1.0118 0.017603 0.25123 
0.090109 0.30467 -0.048985 0.25781 0.67756 0.46399 0.042429 0.20536 
0.086821 0.36698 -0.05589 0.2366 -0.61786 -0.13086 0.066598 0.13697 
0.072188 0.25419 -0.021856 0.075148 -1.5724 -0.33687 0.067091 0.076299 
0.062981 0.1174 0.030427 -0.0050863 -1.6208 -0.1917 0.096357 0.0024767 
0.16673 -0.015938 0.059857 0.0032988 -1.2124 -0.076277 0.078929 -0.023007 
0.26636 -0.18348 0.06183 -0.075127 -0.92071 -0.052109 0.03947 -0.099131 
0.2657 -0.27555 0.061995 -0.13892 -0.76895 -0.24069 -0.0055795 -0.16654 
0.20651 -0.22096 0.070544 -0.16342 -0.45509 -0.57692 -0.025802 -0.17904 
0.077449 -0.15487 0.042923 -0.093541 0.19451 -0.98664 -0.022679 -0.13941 
-0.10176 -0.14007 0.033387 0.072024 0.81748 -0.96559 0.013492 -0.0040998 
-0.14846 -0.10472 0.011355 0.15242 0.56099 -0.28541 0.05476 0.14206 
0.00050378 0.020398 0.010204 0.10935 0.054103 0.36172 0.075476 0.16262 
0.042594 0.055089 0.038648 0.075805 -0.094363 0.5138 0.081889 0.1197 
0.013657 -0.024158 0.053116 -0.020541 -0.093212 0.42272 0.035688 0.051801 
0.10672 0.01152 0.0098754 -0.0091966 0.019576 0.40134 0.0088889 0.0074092 
0.31536 -0.050793 0.019411 -0.0098543 0.12908 0.45018 -0.0011404 -0.014458 
0.4658 -0.071181 0.0060938 -0.0040998 0.11691 0.38408 -0.029584 0.013164 
0.39773 -0.031228 0.047691 0.020727 0.025659 0.16262 -0.02794 0.037004 
0.21687 0.052459 0.050321 0.011684 0.023028 -0.0096899 0.012999 0.018096 
0.12809 0.11378 0.05065 0.037497 0.0059294 -0.09387 0.023028 0.020891 
0.13187 0.14782 0.06035 0.044402 -0.025638 -0.1136 -0.015116 0.0060938 
0.12003 0.16771 0.054103 0.0036276 -0.021528 -0.10225 -0.013307 0.0070803 
0.031907 0.12579 0.029769 0.043745 -0.035996 -0.068057 -0.0095255 0.016781 
-0.049478 0.10704 0.031085 0.044731 -0.12133 -0.052931 -0.023829 0.01152 
-0.069701 0.096686 0.0037921 0.053281 -0.23987 -0.13695 0.024344 0.033058 
-0.049149 0.034209 -0.019555 0.093891 -0.34378 -0.34082 0.072517 0.059857 
-0.065919 0.015794 -0.027282 0.064625 -0.51493 -0.44456 0.12957 0.061501 
-0.051287 0.014808 -0.032543 0.050321 -0.437 -0.4056 0.08978 0.046211 
-0.020212 -0.017417 0.011191 0.038812 -0.10768 -0.26141 0.062981 0.018425 
0.026152 -0.013143 0.048348 0.012506 0.15094 0.10178 0.03651 0.01004 
0.052294 0.011355 0.070544 -0.029091 0.51232 0.62002 0.0032988 -0.052437 
0.05624 0.01711 0.090603 -0.074633 1.1774 1.0776 -0.026131 -0.071016 
0.083697 0.019576 0.13516 -0.095021 1.3181 1.0541 -0.027118 0.016945 
0.082217 0.034209 0.14601 -0.037476 1.0452 0.74645 -0.0098543 0.12957 
0.037004 0.059528 0.094713 0.089616 0.92714 0.54718 0.025824 0.20224 
-0.02942 0.094713 0.017438 0.24318 0.46728 0.27754 0.060844 0.15028 
-0.065426 0.10162 -0.015116 0.2366 -0.32125 -0.13678 0.056076 0.073175 
-0.058192 0.096357 -0.02646 0.12661 -0.80052 -0.45492 0.062817 -0.0059084 
-0.024652 0.041936 -0.057534 0.079258 -0.86267 -0.74758 0.024344 -0.032543 
-0.018404 -0.083512 -0.02942 -0.010512 -0.71979 -0.85889 0.015465 -0.017253 
-0.0083746 -0.31287 -0.023994 -0.0026201 -0.45509 -0.55439 0.030098 0.028619 
-0.00064712 -0.40889 -0.1039 0.03536 0.084684 -0.095349 0.030263 0.050486 
-0.0016336 -0.24924 -0.16555 0.051965 0.41318 0.18465 0.057391 0.048019 
-0.043066 -0.056055 -0.13481 0.02122 0.14272 0.20076 0.041607 0.03388 
-0.045696 0.013492 -0.046519 -0.026789 -0.18232 0.1271 0.064461 0.018096 
-0.067892 0.10556 0.040456 -0.068879 -0.26453 0.089945 0.041772 0.021713 
-0.038627 0.19747 0.065447 -0.041093 -0.15092 0.12661 0.030756 0.014479 
-0.023172 0.25091 0.035853 -0.035503 -0.029091 0.14042 0.019247 0.01267 
-0.029748 0.28543 0.015301 -0.0040998 0.057391 0.094877 0.045882 0.026152 
-0.023336 0.29661 0.052294 0.03799 0.088958 0.065776 0.044238 0.025659 
-0.049314 0.28609 0.14091 0.013657 0.13368 0.053774 0.029605 0.040785 
-0.067892 0.20717 0.23167 0.038319 0.15209 0.046046 0.01004 0.057391 
-0.062796 0.13154 0.27343 0.05476 0.16673 0.0056006 0.04917 0.01711 
-0.076442 0.10162 0.2708 0.043087 0.068078 -0.072989 0.031414 0.050979 
-0.059672 0.00033937 0.20536 0.097837 -0.23329 -0.14533 0.05624 0.0324 
-0.055726 -0.084991 0.10836 0.09274 -0.58251 -0.30728 0.092904 0.038155 
-0.05178 -0.19219 0.032236 0.10688 -0.741 -0.048656 0.095699 0.040785 
-0.034023 -0.23017 -0.056219 0.11428 -0.6047 0.16475 0.088465 0.027796 
-0.017253 -0.19022 -0.054739 0.14338 -0.17197 0.12743 0.064461 0.041936 
0.0037921 -0.14944 0.0034632 0.14617 0.28658 0.12957 0.067749 -0.017582 
0.1003 -0.17114 0.063639 -0.032708 0.44442 0.086163 0.036839 -0.038956 
0.28198 -0.15322 0.13138 -0.18134 0.54965 -0.28541 -0.0031133 -0.029255 
0.37931 -0.1792 0.10195 -0.042408 1.192 -0.7073 -0.012978 0.025001 
0.33262 -0.14796 -0.017582 0.16804 1.8234 -0.25088 0.028783 0.16541 
0.10326 0.024179 -0.1039 0.33821 1.647 0.60621 0.044238 0.21276 
-0.32619 0.13812 -0.12725 0.25502 0.72376 0.66868 0.049828 0.16081 
-0.66817 0.20602 -0.07414 0.04358 -0.57445 0.11526 0.0013258 0.057884 
-0.61424 0.20619 0.01152 -0.11491 -1.1755 -0.18084 -0.060658 -0.059014 
-0.25417 0.25978 0.036182 -0.14698 -0.85461 0.099316 -0.10768 -0.095185 
0.054103 0.30007 0.044402 -0.089924 -0.28443 0.35432 -0.078579 -0.07825 
0.16919 0.28658 0.080409 -0.0088678 0.013657 0.31749 0.048677 0.027139 
0.20536 0.22016 0.08419 0.00050378 -0.043724 0.11822 0.09685 0.071366 
0.20191 0.087314 0.10195 -0.013471 -0.32816 -0.14369 0.078436 0.06594 
0.16541 -0.060987 0.092082 -0.010183 -0.46972 -0.47153 0.038977 0.055747 
0.13286 -0.059343 0.099974 0.030756 -0.26272 -0.45657 0.053609 0.014643 
0.14042 0.049992 0.08863 0.050979 0.046375 -0.077922 0.039141 -0.014622 
0.15259 0.11378 0.068407 -0.006566 0.18481 0.19122 0.012177 -0.091404 
0.22279 0.087808 0.048841 -0.048163 0.1687 -0.10554 -0.010512 -0.11755 
0.30927 0.067585 0.065776 0.013657 0.49227 -0.37765 0.012177 -0.036818 
0.25156 0.03536 0.047691 0.080738 0.76667 0.063474 0.024837 0.10589 
0.12546 -0.032872 0.010204 0.14683 0.60752 0.50082 0.037332 0.15571 
-0.065426 0.028125 0.014479 0.10047 0.07038 0.36156 0.024344 0.11543 
-0.33441 0.14946 -0.0047575 0.038812 -0.20912 0.083697 0.024837 0.048184 
-0.36334 0.18613 -0.003771 0.032893 -0.16276 -0.050629 -0.015938 0.029934 
-0.19745 0.12875 -0.0078813 0.0024767 -0.09946 0.016945 -0.016431 0.010862 
-0.0042642 0.068736 0.0036276 -0.023007 -0.069372 0.091753 0.031085 0.029441 
0.063803 0.049664 0.02122 -0.048985 -0.0067304 0.098988 0.032729 0.024179 
-0.011498 0.083862 0.017603 -0.057041 0.058542 0.090109 0.0227 0.021056 
0.21243 0.11559 -0.043888 0.00066819 0.11378 0.055089 -0.015116 0.014643 
0.81452 0.083862 -0.05441 0.0082312 0.1835 0.17725 -0.0060728 0.0065871 
0.96644 0.079751 -0.056383 0.016288 0.17462 0.12513 -0.030406 0.0032988 
0.61952 0.1613 -0.011827 0.06183 0.15489 0.042594 -0.0087034 -0.033037 
-0.011334 0.20684 -0.060987 0.0095465 0.13697 0.10408 0.017767 0.0013258 
-0.99831 0.24104 -0.10028 -0.021692 0.050486 0.22937 0.055418 0.029769 
-1.517 0.25518 -0.081374 -0.046025 -0.11672 0.12217 0.0079024 0.089287 
-1.0646 0.25962 -0.060494 -0.0054151 -0.19482 -0.26322 -0.019226 0.079258 
-0.14648 0.13467 -0.040928 0.05065 -0.16046 -0.51773 -0.0091966 0.0324 
0.52679 0.043416 0.0052718 -0.0059084 -0.25171 -0.35364 0.034044 0.016452 
0.84921 0.01711 -0.0073881 -0.029913 -0.36877 -0.025145 0.070873 -0.023336 
1.1992 -0.031392 -0.084827 -0.0064016 -0.34427 0.19435 0.067256 0.012999 
1.2918 -0.034188 -0.07562 -0.038462 -0.22606 0.26455 0.072024 0.017274 
0.90675 0.013492 -0.012814 -0.051122 -0.017253 0.28083 0.057555 0.017438 
0.23101 0.00083261 0.090109 -0.018568 0.12579 0.18185 0.045553 0.0227 
-0.60092 0.076463 0.15456 -0.041586 0.25699 -0.021034 0.030756 0.032564 
-1.5167 0.18399 0.14256 0.0075736 0.33361 -0.11935 0.030756 0.053445 
-1.5494 0.19007 0.094877 0.038812 0.22427 -0.065262 0.016288 0.082053 
-0.66669 0.13286 0.056569 0.079422 -0.02498 0.12677 0.029441 0.06742 
0.18958 0.043909 0.048677 0.10326 -0.38307 0.11362 0.01974 0.046375 
0.55984 0.020069 0.058542 0.081889 -0.53302 -0.031392 0.014808 -0.0067304 
0.54915 -0.014293 0.058049 0.068736 -0.54173 -0.12774 -0.0138 -0.0059084 
0.40184 -0.0072237 0.062652 0.039634 -0.47547 -0.14714 -0.025967 0.0087245 
0.20947 0.016452 0.058542 -0.013636 -0.43486 -0.17756 0.013164 -0.0075525 
0.11313 0.0028056 0.043251 0.0042853 -0.20419 -0.2522 0.065447 0.014479 
0.056076 -0.047012 -0.0034422 0.025166 0.13171 -0.1917 0.072681 0.024344 
0.077943 -0.099131 -0.012156 0.061995 0.44787 0.024344 0.051965 0.042265 
0.098166 -0.11179 -0.012156 0.11543 0.5845 0.17429 0.060844 0.068407 
0.077285 -0.11163 -0.026953 0.092576 0.39575 0.14174 0.027796 0.038648 
0.018096 -0.023007 0.0036276 0.091096 0.11609 0.098166 0.032729 0.044731 
-0.033859 0.0082312 0.032893 0.035031 0.11 0.15094 0.040456 0.035524 
-0.069043 0.043251 0.067585 0.023522 0.17939 0.18596 0.061172 0.091425 
-0.093376 0.066598 0.091589 0.058871 -0.21143 0.061337 0.066105 0.060515 
-0.096007 0.067091 0.069229 0.017932 -0.69003 -0.14402 0.052952 0.023686 
0.010533 0.027303 0.063639 -0.018568 -1.0358 -0.5049 0.059857 -0.010183 
0.14305 -0.0087034 0.066763 -0.012978 -0.94011 -0.60092 0.038812 -0.021856 
0.17034 0.013328 0.080244 -0.030406 -0.53253 -0.33441 -0.0078813 0.022864 
0.1026 0.03947 0.073668 0.0054362 -0.13382 0.011026 0.009711 0.021384 
-0.012649 0.10063 0.097344 -0.058521 0.15653 0.1932 0.018754 0.015794 
-0.23855 0.15407 0.14272 -0.091239 0.47829 0.20569 -0.022679 0.00033937 
-0.2933 0.075148 0.13368 -0.049478 1.0304 0.23167 -0.052273 -0.025802 
-0.081539 -0.056877 0.095206 0.059693 1.8056 0.36402 -0.042901 0.031907 
0.035853 -0.041093 0.067749 0.31388 2.4187 0.57727 0.050321 0.20799 
0.10178 -0.079401 -0.064604 0.52235 1.8326 0.64007 0.10639 0.24005 
0.11247 -0.023994 -0.088115 0.34544 -0.30942 0.24318 0.11395 0.22822 
0.10622 -0.027282 -0.018568 0.08715 -1.8431 -0.34246 0.059364 0.055582 
0.11214 -0.065426 0.031085 -0.10587 -1.8552 -0.5613 0.066105 -0.0026201 
0.11543 -0.10768 0.083533 -0.13464 -1.2384 -0.4273 0.0093821 -0.071345 
0.14617 -0.13021 0.094877 -0.084991 -0.37239 -0.24562 0.019083 -0.07266 
