0.081231 -0.28327 0.12579 -0.015609 0.036675 0.068078 0.029769 0.036346 
0.053116 -0.24497 0.16294 -0.0034422 0.026152 0.049335 0.0592 0.042265 
0.064954 -0.17164 0.19764 -0.0047575 0.016781 0.024508 0.062159 0.020562 
0.045224 -0.14878 0.15357 -0.014787 0.050321 0.025988 0.044238 0.020891 
0.0088889 -0.043395 0.044896 0.097837 0.077778 0.066927 0.069558 0.07038 
0.016288 -0.063618 -0.021692 0.049992 0.03092 0.066927 0.066598 0.019247 
0.056404 -0.22178 -0.043395 0.040621 -0.018404 0.036675 0.0095465 0.00017495 
0.11181 -0.52611 -0.033037 0.037332 -0.049971 -0.050136 -0.028104 -0.023172 
0.17347 -0.66504 0.014972 0.009711 -0.020541 -0.080717 -0.037476 -0.02498 
0.15571 -0.25023 0.045718 0.058871 0.0018191 -0.050793 0.0072447 0.013492 
0.085999 0.14502 0.068407 0.057391 0.014808 -0.021363 0.044402 0.025166 
0.02681 0.20668 0.047197 0.063803 0.01152 -0.006566 0.072681 0.040621 
-0.0044286 -0.038627 -0.0004827 0.073832 0.026974 0.046704 0.081724 0.033551 
0.03651 -0.27111 -0.0060728 0.052294 0.070051 0.050814 0.03651 0.027796 
0.084355 0.11707 -0.00015387 0.057227 0.079094 0.04917 0.0041209 0.036839 
0.079916 0.52909 -0.0004827 0.036675 0.09274 0.055089 -0.00015387 0.022864 
0.05624 0.38737 -0.010348 0.038648 0.072024 0.058213 0.0056006 0.031578 
0.011026 0.12644 -0.0060728 0.047197 0.040292 0.040456 0.024837 0.0024767 
0.018918 0.38605 0.010369 0.0070803 0.010697 0.034702 0.047197 0.047197 
0.063639 0.74694 -0.0029489 -0.015444 0.0041209 0.035524 0.074983 0.040292 
0.093562 0.7818 -0.034352 -0.012649 -0.011827 0.0098754 0.082217 0.037168 
0.055418 1.044 -0.038462 -0.0098543 -0.003771 0.020727 0.066763 0.063803 
-0.0064016 1.1716 -0.027118 0.023028 -0.043724 0.024673 0.046704 0.03092 
-0.075127 0.56181 -0.03353 0.0047785 -0.045696 0.027139 0.04654 0.034209 
-0.21471 -0.39853 -0.028926 0.010204 -0.018897 0.0047785 0.01974 0.034373 
-0.22655 -1.0757 -0.031228 0.04917 0.058871 0.0324 -0.015116 0.015301 
-0.024487 -0.99749 -0.047341 0.049335 0.10162 0.042923 -0.0095255 0.022042 
0.1419 -0.66192 0.041772 0.051801 0.14749 0.056733 0.022535 0.026646 
0.22624 -0.59418 0.18613 0.037826 0.15571 0.032236 0.016945 0.050814 
0.26735 -0.52282 0.32128 0.015794 0.10885 -0.031721 0.0059294 0.013328 
0.2121 0.23923 0.29201 -0.0096899 0.077943 -0.13941 0.019247 0.0041209 
0.088794 0.77046 0.14996 -0.026624 0.10622 -0.094856 0.049664 0.030756 
0.0052718 0.69795 0.053116 -0.013143 0.10244 0.08419 0.040292 0.036017 
-0.044381 0.16097 0.020562 1.0539e-005 0.050814 0.18974 0.044073 0.055747 
-0.041586 -0.50359 0.011191 -0.0096899 -0.017253 0.14683 0.036346 0.044402 
-0.039778 -0.19433 -0.053753 -0.006566 -0.0064016 0.025659 0.039963 0.045882 
-0.049478 0.39411 -0.038956 0.033222 0.021878 -0.023994 0.044731 0.043416 
-0.027282 0.52301 0.086657 0.024673 0.010533 -0.018897 0.02681 0.030263 
0.0056006 0.42831 0.14716 0.052787 -0.0088678 0.024344 0.037004 0.037332 
0.041278 0.2828 0.080244 0.01415 -0.021692 0.0069159 0.01974 0.013986 
0.059364 0.10047 -0.016431 0.0083956 -0.031392 -0.013307 0.013328 0.025824 
0.042265 -0.048492 -0.084827 0.016452 -0.020706 -0.046519 0.030263 -0.0073881 
0.016616 -0.19318 -0.056055 -0.012978 -0.095021 -0.072989 0.038319 0.015137 
-0.038956 -0.20403 0.03536 0.021713 -0.23198 -0.10702 0.029112 0.04358 
0.0054362 0.0095465 0.095864 -0.028433 -0.14582 -0.090581 0.0052718 -0.0062372 
0.026152 0.13401 0.16574 -0.011498 -0.01676 -0.037476 -0.012156 -0.0022913 
0.016123 0.14058 0.16048 0.01974 0.098494 0.028125 0.017767 0.012177 
-0.015938 0.12217 0.036675 0.04917 0.2024 0.08419 0.017932 0.010697 
-0.025309 0.064296 -0.088444 0.071531 0.25123 0.12842 0.037332 0.052459 
0.0065871 -0.014622 -0.17065 0.054925 0.23085 0.13943 0.032729 0.026152 
0.012177 -0.18627 -0.18561 0.027468 0.17018 0.1026 0.030263 0.034866 
0.0072447 -0.23247 -0.090746 0.02122 0.13943 0.057062 0.021549 0.028783 
0.004943 -0.1524 0.066763 0.0093821 0.13023 0.027632 0.02533 0.020398 
0.024015 -0.26535 0.21276 0.01004 0.14256 0.073339 0.02829 0.031414 
-0.026789 -0.15668 0.24811 0.04506 0.1567 0.080738 0.014479 0.0067515 
-0.065591 0.06035 0.25929 0.011355 0.17824 0.09274 0.010533 0.028947 
-0.10932 0.40595 0.17939 0.0070803 0.1345 0.14552 0.0047785 0.039634 
-0.088937 0.524 0.076299 0.016616 0.0016547 0.065447 0.058542 0.040128 
-0.021528 0.487 0.020069 0.0024767 -0.097816 0.0087245 0.052623 0.041278 
-0.021856 0.26061 0.0044497 0.042758 -0.19663 -0.034681 0.047033 0.052294 
0.01004 0.096357 -0.0057439 0.034044 -0.16325 -0.038956 0.052952 0.058706 
0.11378 0.076792 -0.070194 0.03799 -0.1016 -0.049314 0.068407 0.034866 
0.26685 -0.20057 -0.036983 0.042758 -0.013636 -0.033201 0.047197 0.027632 
0.31256 -0.52809 0.0051074 0.012835 0.035195 -0.010348 0.0054362 0.024673 
0.27343 -0.27226 -0.0075525 -0.022514 0.061501 0.0062583 0.026152 -0.012485 
0.088465 0.18711 -0.0965 0.017274 0.038319 0.024508 0.025988 0.039141 
-0.21077 0.30138 -0.10439 0.031249 0.036839 0.051965 0.035031 0.026974 
-0.35101 0.25715 -0.078744 0.057391 0.059364 0.083533 0.013657 0.024508 
-0.1552 0.46333 -0.020212 0.036346 0.086492 0.094877 0.01563 0.024344 
0.4214 0.33689 0.10589 0.0082312 0.099974 0.10935 0.0085601 0.012177 
0.94145 -0.46742 0.17856 0.021878 0.097015 0.10408 0.033058 0.030263 
0.84346 -1.0598 0.13171 -0.021199 0.062817 0.069393 0.058377 0.033715 
0.39099 -0.70204 0.012177 0.010369 0.02681 0.054103 0.025495 0.04506 
-0.17673 0.14519 -0.15059 0.041772 0.0021479 0.055747 -0.0044286 0.045718 
-0.92745 0.74398 -0.27604 0.10113 0.0324 0.033222 0.0031344 0.04654 
-1.5507 0.94095 -0.26502 0.15834 0.065283 0.027303 0.010533 0.050814 
-1.2512 0.71028 -0.16128 0.13384 0.089123 0.013328 -0.035174 0.034702 
-0.35874 0.13467 -0.0095255 0.1248 0.092082 -0.018404 -0.066577 0.013328 
0.46234 -0.53976 0.12233 0.098659 0.033551 -0.037476 -0.035503 0.024673 
0.81074 -0.97858 0.18991 0.013492 -0.021692 -0.0040998 0.00083261 0.043251 
0.76618 -0.85215 0.2292 -0.021692 -0.074469 0.030427 -0.010676 0.041607 
0.5965 -0.449 0.1544 -0.050464 -0.08384 0.0031344 0.022206 0.017603 
0.38737 0.11543 0.10951 -0.014622 -0.049807 0.010862 0.092247 0.020891 
0.25288 0.60423 -0.025967 0.057391 -0.00015387 0.0059294 0.16229 0.047526 
0.13171 0.65109 -0.1307 0.049335 -0.018404 0.030592 0.15275 0.067913 
0.067585 0.4242 -0.09798 0.039799 -0.025309 0.017438 0.087314 0.051143 
-0.044052 0.44755 -0.023501 0.011684 -0.050136 0.0016547 0.067585 -0.013143 
-0.14681 0.55902 0.0044497 0.0011614 -0.023829 0.01826 -0.0059084 -0.021363 
-0.14221 0.57858 -0.027611 0.028125 -0.029584 -0.011334 -0.061809 -0.05326 
-0.094692 0.32489 -0.024323 0.016288 -0.00081153 -0.036489 -0.07266 -0.082196 
-0.052109 0.12973 -0.10538 0.037004 0.020069 -0.017088 -0.03616 -0.089924 
-0.10982 0.36073 -0.12429 0.080902 0.036839 -0.021363 0.013821 -0.041257 
-0.15881 0.54685 -0.11146 0.070051 0.029934 -0.018733 0.034209 0.078929 
-0.11426 -0.038133 -0.033859 0.067749 -0.01939 0.023522 0.061172 0.13088 
-0.026296 -0.6246 0.021549 0.10277 -0.012814 0.036346 0.087808 0.15768 
0.099974 -1.3899 0.19714 0.067091 0.0026412 0.021549 0.036017 0.10145 
0.21309 -2.2447 0.41055 0.040128 -0.0083746 0.0024767 -0.021528 0.057062 
0.293 -1.555 0.36748 -0.0073881 -0.0096899 -0.022185 -0.030077 0.014972 
0.24449 0.50887 0.10967 -0.024816 0.024344 -0.045532 -0.020706 -0.0091966 
0.13088 1.8824 -0.019555 0.020069 0.040456 -0.053424 -0.023501 0.034373 
0.05213 1.7173 0.011191 -0.016266 0.018754 -0.031557 -0.019884 0.044402 
0.022371 0.44245 0.13269 -0.011005 0.0018191 -0.03764 0.019083 0.067091 
0.0014903 -0.70878 0.17117 0.015959 -0.0032777 -0.019719 0.047362 0.0079024 
-0.028762 -1.2267 0.12957 -0.014458 -0.019555 0.022371 0.060679 -0.033859 
-0.09946 -1.011 0.071859 0.041772 0.0098754 0.024015 0.083533 -0.022185 
-0.15257 -0.21504 -0.030077 0.038812 0.042265 0.03388 0.11296 -0.0026201 
-0.10637 0.35942 -0.15043 0.049664 0.030263 0.0044497 0.073668 -0.00064712 
-0.0042642 0.64057 -0.25384 0.085177 0.011684 0.026646 0.055747 -0.0091966 
0.01826 0.85316 -0.20353 0.070873 0.023851 0.0082312 0.026317 -0.0052507 
0.081724 0.55293 -0.069536 0.08008 0.030098 0.010862 0.029769 0.031249 
0.14256 -0.049971 0.02533 0.10195 0.022042 0.033551 0.029112 0.03799 
0.12118 -0.063124 0.13762 0.064132 0.036017 0.029605 0.036346 0.049664 
0.037332 0.081067 0.24236 0.055089 0.070215 0.038155 0.061666 0.06183 
0.099974 0.0056006 0.31634 0.011355 0.081231 0.043251 0.066763 0.050979 
0.22756 -0.21767 0.36616 -0.037311 0.039634 0.017767 0.016945 0.067913 
0.329 -0.38406 0.29037 -0.048656 -0.00031829 -0.014293 -0.010512 0.048513 
0.33739 -0.066248 0.1978 -0.062467 -0.009361 -0.0052507 -0.019555 0.047526 
0.35268 0.24729 0.14946 -0.010841 0.034044 0.021056 -0.0031133 0.035853 
0.21983 0.34725 0.094548 -0.0083746 0.087643 0.022371 0.019083 0.050157 
0.028619 0.20668 0.089123 0.013821 0.081231 0.033222 0.033222 0.039141 
-0.099295 0.17281 0.09833 0.020069 0.073668 0.046046 0.043087 0.018918 
-0.15717 0.35695 0.045389 0.020562 0.062488 0.055089 0.031578 0.037826 
-0.18528 0.26061 -0.021034 0.0028056 -0.0029489 0.076299 0.021549 0.087972 
-0.15898 0.25584 -0.15388 0.081067 0.02829 0.054925 0.052952 0.11494 
-0.15717 0.066269 -0.22622 0.064625 -0.003771 0.10162 0.061008 0.11214 
-0.089595 -0.62361 -0.25894 0.058542 0.020891 0.03092 0.041772 0.030427 
0.040621 -0.99601 -0.17345 0.042265 0.027796 0.0075736 0.013657 -0.1205 
0.10376 -0.44292 -0.15026 0.032564 0.057227 0.0014903 0.023357 -0.18561 
0.083368 0.56971 -0.19235 0.06594 0.059857 -0.004593 0.01711 -0.10604 
0.0093821 1.1113 -0.053753 0.0047785 0.048019 0.017603 0.020069 0.033387 
0.027303 0.95032 0.17199 -0.031557 0.057062 0.071366 0.032729 0.12217 
0.029934 0.55951 0.329 0.01152 0.074654 0.079258 0.059857 0.13269 
0.041936 -0.25993 0.39132 0.02681 0.10359 0.083697 0.041443 0.11987 
0.083368 -1.1415 0.36287 0.040785 0.076627 0.069886 0.018096 0.049664 
0.10589 -1.0305 0.2223 0.01004 0.055747 0.06331 0.026152 0.054432 
0.054925 -0.15322 0.0324 0.019411 0.037004 0.047362 0.033222 0.031742 
0.08978 0.19353 0.038977 0.026481 0.0060938 0.034866 0.037826 0.045224 
0.066763 0.3854 0.069722 0.0042853 0.00066819 0.031907 0.056898 0.062323 
-0.019061 0.90034 -0.067728 0.0042853 0.0028056 0.0075736 0.038977 0.053774 
-0.1205 1.1677 -0.26881 0.045224 0.020398 -0.018568 0.034537 0.037332 
-0.13958 0.76388 -0.39573 0.030427 0.025659 -0.019884 -0.0057439 0.0037921 
-0.087129 0.086492 -0.23872 0.047197 0.049006 0.03651 -0.016595 0.017767 
-0.038956 -0.13201 0.041772 0.019576 0.056898 0.073339 0.058213 0.074819 
-0.030242 0.17067 0.25502 0.0032988 0.050486 0.11378 0.1368 0.12102 
-0.052602 0.64484 0.28461 0.01974 0.02829 0.085341 0.10145 0.08419 
-0.029584 0.53814 0.25978 -0.0070593 0.017767 0.043745 0.052787 0.047197 
0.00033937 0.087808 0.23381 -0.023007 0.013164 0.021713 0.024179 0.015959 
0.041278 -0.32865 0.26981 -0.016266 0.033222 0.01563 -0.019555 -0.033694 
0.03947 -0.62279 0.23627 -0.010019 0.032893 -0.0049219 -0.03057 -0.043559 
-0.011827 -0.33704 0.007738 0.05772 0.044073 0.012506 -0.016266 -0.07825 
-0.090253 0.23775 -0.26963 0.071366 0.034209 0.041607 0.030427 -0.097816 
-0.12708 0.44886 -0.45459 0.094877 0.042923 0.034209 0.037004 -0.072332 
-0.12429 0.081395 -0.40724 0.10211 0.01563 0.0059294 0.047855 -0.10028 
-0.1113 -0.55949 -0.30942 0.042758 0.019576 0.032071 0.042265 -0.015938 
-0.082032 -0.56656 -0.18841 0.034537 -0.010183 0.045718 0.046046 0.036017 
0.015301 -0.077922 -0.017417 -0.015609 -0.023007 0.012835 0.020233 0.086985 
0.10606 0.16706 0.10244 -0.024652 -0.022679 -0.0059084 -0.0057439 0.089945 
0.071859 0.66227 -0.031228 0.034044 -0.0075525 0.03388 0.024673 0.11724 
-0.0406 0.96183 -0.12264 0.051636 0.013328 0.047691 0.048677 0.17232 
-0.053917 0.42255 -0.069043 0.053774 0.016781 0.070051 0.029769 0.15324 
0.01415 -0.33178 0.072353 0.039141 0.032071 0.070708 -0.0039354 0.13647 
0.082546 -0.86546 0.17018 0.0088889 0.029441 0.037004 -0.025474 0.12908 
0.097179 -1.3293 0.22 0.051965 0.062981 0.009711 -0.03912 0.062159 
0.045718 -1.3002 0.17363 0.062488 0.049828 0.0060938 -0.014787 0.024179 
0.026152 -0.41546 0.18235 0.082546 0.036017 0.024508 0.028125 -0.0052507 
0.11362 0.28576 0.14946 0.080738 0.023686 0.00083261 0.057555 -0.011992 
0.21243 0.36715 0.15407 0.0037921 -0.023336 -0.07003 0.044073 -0.024158 
0.1031 1.1269 0.13154 -0.026953 -0.059507 -0.12429 0.041607 -0.034516 
-0.16424 1.9468 0.011355 -0.02942 0.0013258 -0.14928 0.083862 -0.006566 
-0.26486 1.7287 -0.10275 -0.026131 0.02533 -0.084991 0.11543 0.022206 
-0.22129 0.69137 -0.14681 0.023686 0.033387 0.011684 0.096193 0.040128 
-0.065426 -0.59089 -0.065591 0.056569 0.0059294 0.10655 0.029112 0.033715 
0.096686 -1.1718 0.0039565 0.054103 -0.0077169 0.14585 0.016781 0.022864 
0.18909 -0.72505 0.005765 0.082875 0.012835 0.11822 -0.018897 0.032729 
0.23282 -0.44999 -0.035503 0.040785 0.021056 0.12661 -0.045203 0.032564 
0.31766 -0.5779 0.059693 0.025495 0.034702 0.060186 -0.042079 0.032236 
0.33032 -1.3528 0.18498 -0.0072237 0.051965 -0.0054151 -0.052766 -0.038133 
0.26242 -1.7272 0.16755 -0.025145 0.063474 -0.017746 -0.065919 -0.038627 
0.12233 -0.26963 0.0592 0.018918 0.079258 0.019905 -0.03353 -0.0083746 
-0.026789 0.98534 0.10211 0.01415 0.07449 0.0011614 -0.0016336 -0.028104 
-0.063453 1.5215 0.14617 0.0024767 0.030263 -0.010676 0.063968 -0.011827 
0.017767 1.7612 0.11872 -0.0024557 -0.00031829 -0.01117 0.11247 -0.020048 
0.073339 1.4015 0.12085 -0.021856 -0.041257 -0.035832 0.093233 -0.0083746 
0.033715 0.83984 0.15324 0.012177 0.00066819 -0.023665 0.05065 0.0095465 
-0.030242 0.22312 0.10819 0.069229 0.04506 0.01004 0.048019 0.070215 
-0.071674 -0.44128 0.015301 0.063803 0.03799 0.014479 0.10507 0.14963 
-0.19745 -1.335 -0.0047575 0.098166 0.011026 0.028947 0.10277 0.18383 
-0.18134 -2.0519 -0.023172 0.032236 0.025001 0.036839 0.044896 0.15571 
0.1756 -2.2551 -0.16259 -0.011663 0.023522 0.015959 -0.090253 0.080573 
0.51397 -1.6206 -0.34493 0.037826 0.030756 -0.010348 -0.14484 0.020562 
0.49424 -0.30547 -0.4684 0.021878 0.045553 0.0067515 -0.11672 0.0047785 
0.27623 1.0222 -0.4763 0.045224 0.042758 0.021878 -0.040764 -0.066248 
0.13335 1.3791 -0.2933 0.051143 0.01004 0.0090533 -0.068057 -0.1062 
0.020233 0.60538 0.067091 0.029605 0.017767 0.016781 -0.14336 -0.098638 
-0.11311 0.25715 0.41943 0.015959 0.027796 0.041278 -0.10258 -0.074469 
-0.18759 0.73396 0.61114 -0.029913 0.04654 0.062323 0.083533 0.0064227 
-0.045696 1.0971 0.67904 -0.033365 0.052294 0.11033 0.18728 0.065447 
0.19731 1.1746 0.55474 -0.031721 0.029769 0.13269 0.20997 0.14354 
0.35251 0.96118 0.16656 -0.027118 0.023522 0.09685 0.2098 0.18185 
0.37159 -0.46462 -0.13316 0.022864 0.012177 0.065118 0.12612 0.10392 
0.34232 -1.532 -0.19646 0.01563 0.0011614 0.020727 0.033551 0.066598 
0.024179 -0.887 -0.024323 0.029112 0.017603 -0.0034422 -0.027611 0.080573 
-0.39968 0.32802 0.19007 0.064132 0.015959 -0.0057439 -0.036654 0.097179 
-0.49898 0.6307 0.33311 -0.011498 0.024015 -0.077593 -0.064111 -0.033859 
-0.34065 0.23907 0.29612 -0.011005 0.012177 -0.11343 -0.010348 -0.10275 
-0.26124 0.10721 0.10655 0.012999 0.075641 -0.091239 0.038812 -0.097487 
-0.27752 0.22937 -0.081539 0.036017 0.11083 -0.013636 0.073175 -0.050793 
-0.19729 0.58828 -0.24349 0.12184 0.12612 0.13319 0.11691 0.023028 
-0.0080457 0.78903 -0.37337 0.11855 0.056404 0.14798 0.10869 -0.061973 
0.18514 0.038155 -0.48402 0.10524 -0.011005 0.11115 0.068571 -0.079072 
0.27705 -0.68658 -0.51378 0.096028 -0.089759 0.036017 0.00099702 -0.0042642 
0.26159 -0.73031 -0.32372 0.015794 -0.085813 0.019247 -0.012649 0.08715 
0.17166 -0.24579 -0.12922 0.040621 -0.019884 0.034209 0.01004 0.17067 
0.025988 -0.36301 0.1008 0.038319 0.043416 0.044567 0.017274 0.17626 
-0.037476 -0.75185 0.37126 0.012835 0.033222 0.053281 -0.0047575 0.11691 
-0.00031829 -1.2204 0.52153 0.005765 0.036182 0.015301 -0.014458 0.053609 
0.10047 -0.66817 0.35547 0.0088889 0.0070803 0.0024767 0.0044497 0.0044497 
0.22756 -0.15043 0.059857 0.066763 0.00066819 -0.013307 0.018754 0.0060938 
0.35301 0.68611 -0.1478 0.06742 -0.03353 -0.017911 -0.0036066 -0.041586 
0.439 1.1968 -0.095514 -0.017088 -0.067892 -0.062467 -0.06707 -0.071838 
0.44278 0.5309 0.016288 -0.046025 -0.11935 -0.068057 -0.038956 -0.065426 
0.2491 -0.30958 0.034537 -0.040928 -0.10094 -0.043724 0.024673 0.040785 
-0.1039 -0.37124 -0.011334 -0.0088678 -0.073154 -0.077593 0.067913 0.13203 
-0.43092 0.64747 0.012177 0.024508 -0.038298 -0.08384 0.11411 0.13384 
-0.55932 1.4691 0.060186 0.0227 -0.016595 -0.02794 0.15999 0.12135 
-0.51674 1.5657 0.12924 0.03536 0.021056 0.011848 0.13483 0.048513 
-0.34592 1.1613 0.11099 0.057391 0.034537 0.0090533 0.11954 0.052787 
-0.16013 0.45149 0.10014 0.032071 0.058706 -0.010512 0.082711 0.026646 
0.04917 -0.32273 0.19122 0.037826 0.10622 0.017932 0.041114 -0.022514 
0.19303 -1.019 0.19517 0.0085601 0.19583 0.023522 -0.015773 -0.048492 
0.24532 -1.2778 0.056569 -0.009361 0.23331 0.070873 -0.052437 -0.084498 
0.24022 -0.8653 -0.12083 0.04654 0.24285 0.18136 -0.064275 -0.085485 
0.17232 -0.083676 -0.15487 0.025988 0.21178 0.22427 -0.052273 -0.045696 
0.093726 0.3119 -0.017746 0.057391 0.14256 0.21178 -0.0068948 -0.025802 
0.010369 0.24795 0.053774 0.028619 0.06331 0.17347 0.10556 0.032564 
-0.0068948 0.0082312 0.13713 0.0069159 -0.012156 0.09274 0.21112 0.0083956 
-0.043559 0.011026 0.21474 0.060515 -0.046683 0.026646 0.1516 0.0046141 
-0.058685 0.15851 0.21983 0.048513 -0.071838 -0.025309 0.083862 0.0092177 
-0.021856 0.15226 0.19435 0.047362 -0.073154 -0.062467 0.022535 0.019247 
0.0028056 0.34331 0.027961 0.071695 -0.080388 -0.087293 0.038977 0.024015 
-0.023501 0.94983 -0.21554 0.042923 -0.067564 -0.087129 0.085506 0.0062583 
-0.0057439 1.3545 -0.17246 0.02122 -0.02794 -0.031886 0.058213 0.067256 
0.047855 1.4837 -0.054739 0.016616 0.0064227 -0.024158 -0.034845 0.11165 
0.072681 1.448 -0.089924 0.029934 0.046046 -0.023665 -0.065097 0.089123 
0.06742 1.1777 -0.26815 0.1031 0.044402 -0.027282 -0.028597 0.066598 
0.086328 0.028454 -0.24135 0.046046 0.089616 0.046211 -0.051451 0.031742 
0.20273 -2.0471 0.0016547 0.022206 0.11132 0.029605 -0.022679 0.0072447 
0.31305 -3.1804 0.22608 -0.014129 0.081724 0.025001 -0.061316 -0.023336 
0.20536 -2.6623 0.32308 -0.038462 0.09422 0.096193 -0.055397 0.0023123 
0.009711 -1.3419 0.30483 -0.011005 0.10408 0.099316 0.013164 0.037661 
-0.19071 -0.05885 0.15292 -0.010512 0.1008 0.10491 0.11494 0.050814 
-0.27029 0.57628 0.022535 0.017438 0.078929 0.087972 0.17297 0.028125 
-0.19235 0.86368 -0.056877 0.045389 0.026974 0.047691 0.1373 -0.023336 
-0.050136 1.1427 -0.070687 0.050814 0.035524 0.054925 0.058542 -0.06296 
0.0082312 1.0674 -0.12379 0.065283 0.049664 0.081395 0.062981 -0.044052 
-0.011334 0.99866 -0.13777 0.09685 0.045553 0.076956 0.070873 0.0098754 
0.037168 1.2621 -0.16128 0.095864 0.051636 0.1031 0.087479 0.08419 
0.23759 0.82833 -0.040764 0.10425 0.035688 0.11313 0.013164 0.10573 
0.34331 -0.096829 0.13467 0.033222 0.010204 0.051308 -0.051287 0.077614 
0.28708 -1.0389 0.2343 -0.018075 -0.0067304 0.016288 -0.091897 0.04654 
0.12497 -1.2367 0.26192 -0.020212 0.030263 -0.0070593 -0.05589 0.033222 
-0.15191 -0.31698 0.13401 0.030592 0.09274 0.022206 0.051801 0.090603 
-0.29889 0.8012 -0.0026201 0.061008 0.060515 -0.036654 0.072353 0.10326 
-0.16983 1.0092 0.02829 0.039634 -0.025474 -0.16786 0.058377 0.077449 
0.024837 0.38688 0.1858 -0.0067304 -0.087622 -0.30415 0.028619 0.032071 
0.096521 -0.0095255 0.20175 0.011684 -0.06707 -0.27193 0.047033 0.045553 
0.14864 -0.68954 0.10129 -0.02942 -0.04323 -0.080059 0.0054362 0.044402 
0.16837 -1.1578 0.0065871 -0.04619 -0.038791 0.1031 -0.030899 0.00083261 
0.093562 -0.82025 -0.17213 0.03799 0.019576 0.19517 -0.042573 0.031907 
-0.034681 -0.48172 -0.27078 0.089616 0.092904 0.20158 0.051472 0.041443 
-0.10982 -0.15848 -0.20633 0.13384 0.13878 0.13878 0.086657 0.071037 
-0.09946 0.083368 -0.094034 0.092247 0.097344 0.08715 0.08156 0.082875 
-0.062467 0.1784 0.035853 0.058049 0.069064 0.01974 0.063803 0.050157 
0.042594 0.093562 0.16114 0.029769 0.019083 -0.00081153 0.045389 0.040621 
0.1322 -0.11245 0.20339 -0.031886 -0.021692 -0.010183 -0.0039354 0.027632 
0.14782 0.14042 0.21408 -0.067728 -0.017253 0.0037921 -0.017746 0.0021479 
0.087972 0.48651 0.21194 -0.031721 0.015137 0.00297 0.025495 0.012506 
0.029441 0.60029 0.22904 -0.023172 0.026152 0.029112 0.030098 0.0227 
0.053774 0.34528 0.17643 0.025166 0.016616 0.057884 0.031414 0.059857 
0.10836 0.40891 -0.010348 0.056404 0.013986 0.025166 0.055254 0.078436 
0.10129 0.56592 -0.11146 0.075148 -0.0072237 -0.023994 0.079258 0.068571 
0.0324 0.40792 -0.10078 0.085177 -0.015444 -0.054739 0.053281 0.085177 
-0.097816 -0.1917 0.011026 0.078929 -0.012649 -0.032872 -0.0067304 0.093562 
-0.2282 -1.5821 0.22674 0.051472 -0.0087034 -0.031886 -0.087458 0.074983 
-0.36811 -2.5389 0.35498 0.026646 0.0082312 -0.04882 -0.10604 0.053281 
-0.18479 -1.1925 0.08715 0.028125 0.0044497 -0.022843 -0.12396 0.0046141 
0.1636 0.39641 -0.22524 0.0031344 0.0051074 -0.0067304 -0.10949 -0.013965 
0.26357 1.2473 -0.30366 -0.001798 0.041443 -0.0083746 -0.031721 -0.05441 
0.15292 1.2916 -0.19318 -0.0073881 0.041114 0.042923 0.029605 0.0080668 
0.051636 1.3423 -0.0047575 -0.0016336 0.048677 0.037661 0.067749 0.020233 
0.06331 1.373 0.14157 -0.021199 0.039141 0.056404 0.14864 0.023686 
0.19632 0.11148 0.25535 0.0067515 0.024344 0.060844 0.16755 -0.0032777 
0.30779 -2.1964 0.38227 -0.022679 -0.011992 0.058213 0.055911 -0.059507 
0.32045 -2.4683 0.33081 -0.001798 -0.014458 0.031742 -0.033201 -0.109 
0.13039 -0.40609 0.046211 0.07301 0.015465 0.030263 -0.044217 -0.084498 
-0.18841 1.4927 -0.30481 0.13154 0.074654 0.089452 0.079094 -0.042079 
-0.52989 2.5335 -0.49372 0.15735 0.065447 0.11247 0.15538 -0.0072237 
-0.60437 2.5218 -0.52381 0.16475 0.033551 0.10343 0.17708 0.057555 
-0.48271 1.544 -0.38357 0.088794 0.0013258 0.08304 0.12283 0.11444 
-0.20781 -0.28064 -0.11853 0.034044 -0.0021268 0.051965 0.080244 0.1322 
0.044238 -1.3673 0.11642 0.017438 0.048841 0.035853 -0.013471 0.15883 
0.25354 -1.5019 0.19616 0.0069159 0.095206 0.033551 -0.02087 0.16558 
0.49095 -1.0739 0.24466 -0.023501 0.085177 -0.021199 -0.052931 0.16804 
0.70469 -0.32734 0.27919 -0.068057 0.024015 -0.098144 -0.12462 0.13138 
0.71127 0.019247 0.41154 -0.11607 -0.036489 -0.085485 -0.18972 0.040621 
0.44327 0.1202 0.48109 -0.09239 -0.026131 -0.038791 -0.18265 -0.040928 
0.029441 -0.67721 0.42683 -0.075784 0.011026 -0.0039354 -0.076771 -0.058521 
-0.23675 -1.1765 0.21342 0.0032988 0.053938 0.041607 0.005765 -0.044052 
-0.34213 -0.68987 -0.021034 0.059857 0.05624 0.11411 0.078929 -0.017582 
-0.3617 1.0169 -0.18561 0.079751 0.067913 0.15571 0.10145 0.012177 
-0.28245 2.2459 -0.33737 0.10852 0.047526 0.14124 0.13417 0.031742 
-0.15865 1.7476 -0.4324 0.079094 -0.014293 0.086821 0.14733 0.0018191 
-0.03501 0.86647 -0.46495 0.091425 -0.024652 0.020891 0.15111 0.018589 
0.067585 0.77111 -0.35627 0.10359 -0.042408 -0.027611 0.11921 -0.017746 
0.090931 0.54159 -0.16786 0.070215 -0.11968 -0.041422 0.081067 -0.021856 
0.093891 -0.69414 -0.067235 0.074161 -0.12297 -0.03353 0.074819 -0.0019624 
0.19862 -2.1287 -0.073154 0.018589 -0.035667 -0.044052 0.057391 -0.020048 
0.24351 -2.0716 -0.20764 0.036839 0.048184 -0.022185 0.06183 -0.024816 
0.15259 -1.0276 -0.35118 0.13171 0.12118 -0.001798 0.029276 -0.013307 
0.041443 -0.17032 -0.14878 0.10113 0.1636 -0.003771 -0.011005 0.030263 
0.098166 0.34972 0.21753 0.043251 0.18136 0.010862 -0.05589 0.081395 
0.17133 0.91728 0.32982 0.013986 0.16278 0.031742 -0.067399 0.12644 
0.27721 0.6432 0.43489 -0.028269 0.14601 0.076792 -0.084827 0.11642 
0.37783 -0.56393 0.65652 -0.032708 0.060679 0.0052718 -0.098967 0.063968 
0.31453 -0.48863 0.66063 -0.10291 -0.08121 0.0042853 -0.036818 -0.028269 
-0.031064 0.37603 0.60867 -0.047012 -0.11196 0.035195 0.10211 -0.040271 
-0.32356 0.72475 0.45034 0.011684 -0.0771 0.0054362 0.13023 -0.01676 
-0.43371 1.1496 0.18974 0.04654 -0.10439 0.012506 0.15801 0.085177 
-0.31649 1.608 -0.16818 0.014808 -0.15733 0.013986 0.15982 0.13976 
-0.10801 1.5419 -0.41185 0.013986 -0.14402 0.010533 0.11872 0.10639 
0.036182 1.1738 -0.4569 0.026646 -0.073154 0.012013 0.068242 0.08008 
0.10869 0.75878 -0.3931 0.11313 0.11148 0.030098 0.055747 0.012999 
0.094384 0.20816 -0.34296 0.10721 0.22164 0.028783 0.060679 -0.0062372 
-0.014787 -0.21866 -0.22359 0.10162 0.2953 0.025988 0.016123 -0.033694 
-0.025309 -1.3534 -0.01528 0.085177 0.27853 0.029112 -0.017582 -0.032215 
0.073504 -2.5371 0.2611 0.029441 0.16886 0.016123 -0.051944 -0.0054151 
0.14831 -1.0263 0.28954 0.024508 0.053938 -0.022843 0.0047785 -0.004593 
0.39247 0.37997 0.26242 -0.0042642 -0.073318 -0.064275 -0.020541 -0.0075525 
0.60061 -0.47219 0.35334 -0.038956 -0.072989 -0.056548 -0.013965 -0.083347 
0.56477 -2.0012 0.45905 -0.037805 -0.052931 -0.015116 -0.016102 -0.076606 
0.29974 -1.2837 0.37241 -0.030406 -0.010183 0.0092177 0.026481 -0.062796 
-0.030406 0.804 0.13976 -0.015773 -0.010841 0.020891 0.042265 -0.053095 
-0.53072 1.1156 -0.042573 0.0026412 -0.064275 0.058049 0.063639 -0.019555 
-1.0397 0.50279 -0.11393 0.010369 -0.033365 0.073504 0.075805 -0.013471 
-1.0723 0.66161 -0.16194 0.071859 0.050814 0.087972 0.05624 0.0083956 
-0.62624 1.654 -0.13793 0.073339 0.13302 0.099645 0.059857 -0.042901 
0.011191 2.1195 -0.038956 0.043251 0.19977 0.057884 0.081231 -0.017911 
0.45412 1.2407 -0.0054151 0.040621 0.21161 0.0075736 0.090603 0.030427 
0.5993 0.0062583 -0.064768 0.010204 0.21062 -0.019884 0.0023123 0.036182 
0.52959 -0.70368 -0.38916 0.091753 0.22328 0.024673 -0.084991 0.13056 
0.40726 -0.89489 -0.62805 0.19796 0.23627 0.11494 -0.054246 0.1756 
0.31782 -1.2264 -0.29758 0.14453 0.094713 0.1807 0.036839 0.25469 
0.20865 -1.7725 0.25419 0.041607 -0.13958 0.1516 0.020727 0.20783 
-0.0054151 -0.7068 0.49999 -0.086636 -0.24973 0.046375 0.035031 0.10293 
-0.17032 0.5947 0.3461 -0.055068 -0.21932 -0.019555 0.13056 0.056404 
-0.18216 0.99784 0.15127 0.017767 -0.075291 -0.03616 0.1516 0.078272 
-0.16227 0.80153 0.075805 0.021878 0.016452 -0.022679 0.082053 0.087314 
-0.1547 0.37455 0.16936 0.0026412 0.017438 -0.043888 0.036182 0.023028 
-0.12642 -0.029255 0.28839 -0.0062372 -0.069701 -0.0868 0.010204 -0.072496 
-0.022514 -0.41135 0.26998 -0.036325 -0.18249 -0.19548 -0.057534 -0.091732 
0.082875 -0.6731 0.21194 -0.016595 -0.26174 -0.38061 -0.081703 -0.073976 
0.057884 -0.2254 0.16442 -0.023336 -0.14106 -0.37387 -0.07003 -0.067728 
-0.018404 0.37455 0.078436 -0.01528 0.065447 -0.1552 -0.057205 -0.15437 
-0.12001 0.46432 -0.050136 0.017767 0.27623 0.096521 -0.0406 -0.17608 
-0.20814 0.00099702 -0.11343 0.058542 0.36665 0.28132 0.049335 -0.21965 
-0.21373 -0.31353 -0.14484 0.096028 0.35794 0.36863 0.084848 -0.133 
-0.12478 0.29102 -0.30317 0.087643 0.27327 0.35449 0.12727 -0.017582 
0.020398 1.3813 -0.39442 0.030592 0.17396 0.2856 0.099645 0.085341 
0.070051 1.8202 -0.36811 0.019576 0.072188 0.23644 0.031907 0.1613 
0.11543 1.4316 -0.32109 -0.0054151 0.0051074 0.15357 -0.0047575 0.19764 
0.12053 0.88998 -0.15174 -0.017417 -0.046847 0.081724 0.089287 0.17971 
-0.047998 0.29875 0.12792 -0.0050863 -0.077428 0.071037 0.17676 0.24976 
-0.044052 -1.2213 0.49227 -0.052766 -0.089431 0.067091 0.14963 0.26143 
0.30286 -2.8261 0.64386 -0.02646 -0.03205 -0.039613 0.085506 0.2583 
0.48388 -2.8187 0.46119 0.058213 0.065612 -0.182 0.040128 0.28083 
0.34364 -2.5139 0.10047 0.097508 0.086163 -0.18364 -0.039778 0.18646 
0.097179 -1.888 -0.27686 0.11378 0.020891 -0.0087034 -0.044874 0.055911 
-0.011663 -0.17098 -0.55423 0.083368 -0.11097 0.050979 0.028619 -0.084991 
0.16212 0.41088 -0.54699 0.097508 -0.13267 0.049006 0.04358 -0.093212 
0.49424 -0.03501 -0.32915 0.10293 -0.14796 0.013821 -0.056548 -0.034023 
0.49703 0.13351 -0.0011404 1.0539e-005 -0.18397 -0.1381 -0.094856 -0.054904 
0.15061 1.2632 0.47813 -0.047012 -0.10834 -0.16342 -0.043559 -0.043066 
-0.26272 2.8506 0.70337 -0.075949 0.02829 -0.071345 0.025824 -0.015444 
-0.44769 2.7878 0.65454 -0.051615 0.096521 0.0227 0.080244 -0.0004827 
-0.3469 1.4972 0.42239 -0.00015387 0.08863 0.091096 0.090767 -0.016431 
-0.12412 0.43373 0.046868 0.04506 0.073668 0.083697 0.049992 -0.026131 
0.038155 -0.20978 -0.15964 0.072517 0.057884 -0.0047575 0.041772 -0.021363 
0.098823 -0.62657 -0.073647 0.12135 0.15259 0.0019835 0.044896 0.018918 
0.14552 -0.7632 0.22953 0.090109 0.24203 0.10326 0.10704 0.065612 
0.017932 -0.49866 0.47089 0.013821 0.23446 0.12579 0.062159 0.070544 
-0.1279 -0.19515 0.48651 -0.057041 0.13894 0.098166 0.00066819 0.041278 
-0.087951 0.10129 0.32358 -0.066577 0.044731 0.12217 0.010369 0.00050378 
0.057062 0.28099 0.025824 -0.04471 -0.0067304 0.20175 0.0072447 -0.014622 
0.15966 0.22509 -0.2402 -0.0072237 -0.026624 0.22279 -0.0027845 0.048677 
0.19024 -0.029255 -0.47087 0.025166 -0.043559 0.11444 0.00033937 0.093069 
0.21917 -0.55883 -0.72571 0.079587 -0.045368 0.075641 0.033387 0.10836 
0.2856 -1.347 -0.88158 0.071366 -0.08269 0.030427 0.017603 0.077943 
0.34791 -1.6224 -0.69809 0.12003 -0.10965 -0.040435 -0.070852 0.036675 
0.38211 -1.6172 -0.14402 0.045389 -0.12379 -0.090253 -0.10373 0.057884 
0.25748 -1.083 0.34331 0.021384 -0.11952 -0.0868 -0.0059084 0.06035 
0.063474 -0.2568 0.50953 0.027632 -0.075127 -0.079566 0.03536 0.063803 
-0.063453 0.46695 0.47648 0.013328 0.00297 -0.087622 0.0060938 0.024673 
-0.11804 1.2468 0.35794 0.0324 0.040292 -0.045039 0.00099702 -0.020048 
-0.14878 1.738 0.17906 0.060515 0.077121 -0.049314 0.0051074 -0.02942 
-0.16292 2.0213 -0.024652 0.077285 0.073175 -0.017417 0.033387 -0.052766 
-0.18824 1.8808 -0.21784 0.083204 0.051472 0.027961 0.052459 -0.029584 
-0.16243 1.3739 -0.36384 0.031085 0.050321 0.059528 0.093562 -0.0055795 
-0.10505 0.47073 -0.28837 0.05476 0.07597 0.041607 0.078272 -0.037147 
0.0059294 -0.44867 -0.085649 0.061501 0.067749 0.025166 0.020891 -0.033365 
0.041443 -0.68675 0.12316 0.038812 0.045389 0.053445 0.013657 0.046868 
0.014972 -1.1364 0.30122 0.065776 0.047526 0.072353 0.016452 0.1442 
0.057062 -1.7857 0.25041 0.020069 0.044896 0.084355 -0.014293 0.11428 
0.099974 -1.045 0.10852 -0.026789 0.038483 0.051308 -0.038133 -0.022843 
0.15768 0.49342 0.11477 -0.052109 0.047855 -0.027118 -0.061316 -0.1085 
0.21769 1.6973 0.14634 -0.048492 0.022864 -0.077264 -0.089759 -0.11196 
0.047526 1.9105 0.052294 -0.026131 -0.011992 -0.056055 -0.080223 0.0083956 
-0.26815 1.8005 -0.057863 0.021384 -0.016431 -0.00031829 0.00066819 0.094055 
-0.38192 1.4483 -0.12511 0.050486 0.028619 0.035195 0.1026 0.10359 
-0.28607 -0.42105 -0.097651 0.12053 0.048513 0.051636 0.11526 0.099316 
-0.067892 -2.6607 -0.0026201 0.082546 0.029276 0.030592 0.047855 0.046375 
0.012342 -2.5744 -0.061973 0.037497 -0.0078813 -0.022185 -0.021199 0.013821 
0.016945 -0.45673 -0.31238 0.063803 -0.038133 -0.066248 -0.05441 -0.027775 
0.13565 0.97992 -0.48534 0.053445 -0.014787 -0.044546 -0.040435 -0.036983 
0.33985 0.57579 -0.38028 0.052294 -0.025638 -0.029913 -0.0088678 -0.030406 
0.34791 -0.086471 -0.12527 0.032893 0.0070803 -0.026296 0.028454 -0.060165 
0.1031 0.40841 0.0014903 -0.0095255 0.039963 -0.0087034 0.085506 -0.02942 
-0.17361 1.5172 -0.010348 0.012342 0.047691 0.0083956 0.13467 -0.0049219 
-0.31501 1.997 -0.0082102 0.0034632 0.078929 0.049828 0.16163 0.019576 
-0.24266 1.206 0.098166 0.021056 0.12201 0.092082 0.10458 0.014972 
0.0087245 0.0031344 0.3295 -0.003771 0.10392 0.085835 0.083368 0.01267 
0.21835 -0.7997 0.47385 -0.026789 0.047033 0.025166 0.026152 -0.010512 
0.46596 -1.3261 0.49177 0.041936 -0.0016336 -0.050958 -0.010348 -0.012649 
0.71735 -1.4721 0.45659 0.05476 -0.011005 -0.040106 0.022042 0.014315 
0.63103 -0.66554 0.52909 -0.0024557 -0.010019 -0.074633 0.092411 0.024673 
0.27672 0.30467 0.60505 -0.0034422 -0.0016336 -0.06148 0.18465 0.06594 
-0.12741 0.67329 0.45544 -0.029748 0.046704 -0.013471 0.13664 0.11806 
-0.57166 0.6963 0.14289 0.013164 0.076299 0.047362 0.059364 0.14239 
-1.0542 0.10293 -0.10423 0.040785 0.039963 0.036017 -0.031721 0.091753 
-1.2477 -0.17838 -0.35315 0.065447 0.050814 -0.013636 -0.081539 0.016288 
-0.72094 -0.028762 -0.56837 0.11132 0.047362 -0.014951 -0.063618 -0.016266 
0.23989 -1.0437 -0.82452 0.090109 -0.0004827 -0.027775 -0.040106 -0.0078813 
0.90116 -1.7845 -0.85231 0.11757 -0.084169 -0.083183 -0.039449 0.0036276 
0.91448 -0.69612 -0.35003 0.076627 -0.18726 -0.11294 -0.0080457 0.073832 
0.46382 0.39674 0.39543 -0.056712 -0.3035 -0.19433 0.065447 0.030263 
0.12349 0.62018 0.72705 -0.11031 -0.19926 -0.12281 0.11066 0.011191 
0.034866 1.0388 0.67214 -0.027775 -0.052602 0.0016547 0.11165 0.050814 
0.025988 1.4666 0.52498 0.0019835 0.084355 0.084519 0.065118 0.03536 
0.073339 0.88637 0.50049 0.009711 0.22411 0.14897 0.076299 0.055418 
0.04358 -1.1706 0.40414 0.0054362 0.26455 0.19385 0.073997 0.072846 
0.054432 -3.087 0.28132 0.070873 0.32933 0.25814 0.052623 0.083204 
0.11559 -1.8163 0.18284 0.10902 0.41927 0.18711 -0.0029489 0.052623 
0.060022 0.32128 0.047033 0.051308 0.45494 0.16475 0.00066819 -0.014787 
-0.0055795 0.42864 -0.091239 -0.024652 0.29842 0.15292 -0.068057 0.0080668 
-0.013636 0.14223 -0.24809 -0.02942 0.13943 0.15193 -0.068221 -0.015773 
-0.094199 0.97038 -0.36417 0.016616 -0.0026201 0.090438 -0.028762 0.020233 
-0.16358 1.5968 -0.1815 0.031249 -0.16621 0.0093821 0.10376 0.084848 
-0.22557 1.6377 0.044402 -0.043888 -0.19761 -0.015116 0.11198 0.07038 
-0.27111 1.1868 0.13762 -0.046354 -0.087458 0.097179 0.10984 0.10524 
-0.1667 0.49786 0.09981 0.029605 0.015794 0.1299 0.097672 0.08304 
-0.084334 -0.75037 0.071859 0.076463 0.0083956 -0.0049219 0.06183 0.069886 
-0.11163 -1.4906 0.051308 0.097672 -0.080388 -0.20945 0.072188 0.028619 
-0.059672 -0.9674 0.11658 0.067091 -0.081703 -0.22902 0.10211 0.016945 
0.13697 0.16574 0.21309 -0.00081153 -0.052766 -0.095185 0.071531 0.021384 
0.35054 -0.062467 0.058542 0.032893 0.032236 0.11477 -0.018075 0.024837 
0.36665 -0.81367 -0.15618 0.056569 0.13647 0.22624 0.024673 0.04358 
0.26801 -0.77504 -0.16506 0.061666 0.15127 0.23874 0.14469 -0.0054151 
0.25452 -0.29133 -0.079895 0.028454 0.049499 0.18383 0.12875 -0.017088 
0.33657 -0.043559 -0.091404 -0.025474 -0.040764 0.09981 -0.041257 -0.0062372 
0.22542 -0.035832 -0.13349 0.012013 -0.063782 0.013328 -0.14139 -0.011992 
-0.0095255 0.16607 -0.39606 0.039141 -0.046847 -0.013636 -0.16095 0.0031344 
-0.13925 1.2427 -0.54519 0.055911 0.034373 -0.030242 -0.063453 0.020233 
-0.18989 1.9411 -0.45542 0.13713 0.16607 -0.014458 0.014808 0.015465 
-0.32125 1.532 -0.25828 0.10935 0.19122 0.0054362 0.07301 0.020069 
-0.36121 0.68414 -0.1427 0.071202 0.12217 0.071695 0.1271 0.055747 
-0.22836 -0.31435 -0.038956 0.0088889 0.10688 0.11724 0.08715 0.10491 
0.026481 -1.0253 0.19303 -0.046354 0.11691 0.16344 0.0070803 0.11066 
0.11757 -0.61144 0.44886 -0.014293 0.10622 0.1174 -0.032872 0.081067 
0.098823 0.37981 0.56806 -0.035503 0.14716 0.069393 -0.0013048 0.045718 
0.13417 0.43949 0.54734 -0.064111 0.084848 0.044567 0.0028056 0.025166 
0.33854 -0.17016 0.46201 -0.045696 -0.034352 0.017932 -0.0052507 0.023193 
0.48964 -0.33704 0.37668 -0.037476 -0.1159 -0.01939 0.013657 -0.029584 
0.45149 -0.64893 0.2486 0.039634 -0.12379 -0.04882 0.035853 -0.023665 
0.20651 -0.62164 0.0023123 0.086657 -0.077428 -0.036489 0.021384 -0.049478 
-0.063782 0.3484 -0.23263 0.08156 -0.078579 0.036675 0.049499 0.030263 
-0.11212 0.69811 -0.46775 0.091589 -0.12133 0.032729 0.025001 0.084519 
0.013986 0.10819 -0.54124 0.073832 -0.15618 -0.042408 0.012013 0.011848 
0.11872 -0.028597 -0.49816 0.07301 -0.048327 -0.061151 0.00083261 0.0074092 
0.066763 0.40414 -0.3566 0.061008 0.075148 -0.053095 0.0227 0.014972 
-0.041751 0.71061 -0.22606 0.036017 0.11 -0.010183 0.065447 0.037004 
-0.10193 0.54932 -0.13875 0.009711 0.055418 -0.022514 0.049828 0.026646 
-0.10357 0.26406 0.0064227 0.012835 0.035688 -0.021528 0.032236 0.00017495 
-0.10472 0.29776 0.25025 0.00017495 0.035031 0.0095465 0.05213 0.053609 
-0.09798 0.54027 0.57776 -0.02794 0.048019 0.04506 0.070708 0.052952 
-0.0095255 0.22592 0.91876 -0.066906 0.042265 0.047197 0.032729 0.025988 
0.16081 -0.1307 1.0018 -0.068221 -0.014129 -0.0016336 -0.017088 -0.045039 
0.17363 -0.066248 0.72738 -0.019061 -0.057041 -0.053917 -0.031392 -0.092554 
0.089452 -0.048656 0.43637 0.026646 -0.040435 0.0034632 -0.015609 -0.024323 
-0.051944 -0.089266 0.17544 0.064296 0.00083261 0.0036276 -0.0050863 0.019905 
-0.10965 -0.045039 -0.34213 0.075805 -0.069536 0.0085601 0.027961 0.059857 
-0.087458 -0.058356 -0.93715 0.10721 -0.10784 -0.01939 0.024508 0.055254 
-0.069043 0.0062583 -1.1545 0.16475 -0.042901 -0.023172 -0.0096899 0.070544 
-0.03616 0.43439 -0.96937 0.16492 0.0056006 -0.034845 -0.0083746 0.099481 
0.18547 -0.84623 -0.51691 0.12612 0.020069 -0.031886 -0.038791 0.053609 
0.52433 -2.6306 -0.099953 0.04917 0.0087245 -0.019226 -0.057205 0.033551 
0.54734 -3.0791 0.024179 0.026481 -0.037969 -0.06296 -0.073647 0.018754 
0.31766 -1.4692 0.18892 0.014808 -0.054739 -0.091568 -0.089431 -0.027118 
0.056569 1.1432 0.5143 -0.073976 -0.020048 -0.092554 -0.053095 -0.06707 
-0.095349 2.4565 0.76667 -0.12412 0.053609 -0.050629 -0.00031829 -0.092883 
-0.1723 1.6486 0.70354 -0.076771 0.1345 0.022371 0.031249 -0.024158 
-0.21455 0.70847 0.40611 -0.0040998 0.14256 0.084519 0.059857 0.019247 
-0.23888 0.46843 0.1909 0.065118 0.082382 0.075312 0.081231 0.065776 
-0.19696 0.53518 0.088465 0.060844 0.054267 0.073997 0.11362 0.072517 
-0.12379 0.48125 0.010697 0.034702 0.021384 0.082546 0.083697 0.04654 
-0.12445 0.30911 -0.040928 0.032236 0.052787 0.10721 0.069229 0.071037 
-0.08828 -0.073976 -0.075127 0.040128 0.05065 0.094548 0.050157 0.054596 
-0.088608 -0.21915 -0.054246 0.082382 0.073997 0.052623 0.014808 0.045389 
-0.10045 0.052787 0.078272 0.096686 0.08156 0.0592 0.049335 0.071366 
-0.036818 0.13631 0.14469 0.020727 0.076956 0.08304 0.099974 0.052787 
0.078436 -0.2471 0.11444 0.016781 0.055582 0.057062 0.1636 0.011191 
0.27277 -0.73722 0.11181 -0.0067304 -0.00064712 0.030427 0.10195 0.015959 
0.34429 -1.0511 0.10441 0.022864 0.010533 0.025001 0.042265 0.14881 
0.26324 -0.62723 -0.064768 0.07597 -0.0090322 -0.0052507 0.004943 0.20273 
0.17593 -0.29117 -0.21438 0.048841 -0.03616 -0.079072 -0.0036066 0.056733 
-0.066248 -0.57182 -0.17657 -0.024652 -0.047012 -0.15865 -0.049807 -0.045368 
-0.33671 0.13384 -0.22425 0.024344 0.033387 -0.16621 -0.037311 -0.097322 
-0.32076 0.97236 -0.35759 0.091589 0.091753 -0.070523 -0.014951 -0.10176 
-0.0073881 1.009 -0.40017 0.12924 0.10195 0.11674 -0.034352 -0.073647 
0.19205 0.76454 -0.38916 0.061008 0.094384 0.19829 -0.026131 -0.029913 
0.22493 0.27672 -0.27637 -0.0096899 0.048841 0.22296 -0.035996 -0.0067304 
0.19912 0.22394 -0.23379 -0.006566 0.0095465 0.14848 -0.0047575 0.034044 
0.15176 0.46021 -0.33622 0.0098754 0.014643 0.11872 -0.0068948 0.075476 
-0.0075525 0.94621 -0.26831 0.065283 0.044731 -0.047505 0.075476 0.12316 
-0.078415 0.96611 0.20964 0.067256 0.061666 -0.12725 0.16722 0.14091 
0.12891 -0.17739 0.68989 0.00297 0.094877 -0.074798 0.20619 0.17248 
0.29546 -1.7888 0.93454 0.010369 0.13499 -0.001798 0.14272 0.14782 
0.1613 -1.6925 0.85875 -0.027282 0.11559 0.08008 0.14437 0.063145 
0.015137 -0.86892 0.63037 -0.0095255 0.071037 0.12414 0.11346 -0.019719 
-0.12396 -0.46972 0.42634 -0.0014692 0.005765 0.10425 0.07038 -0.052602 
-0.25121 -0.46364 0.30763 -0.071509 -0.10752 0.041772 -0.027775 -0.024652 
-0.18824 0.43489 -0.09091 -0.063453 -0.16457 0.005765 -0.12675 -0.010512 
-0.094692 1.5564 -0.449 0.033058 -0.14698 0.0074092 -0.12527 0.040128 
0.0067515 2.2346 -0.40379 0.056076 -0.04882 0.0013258 -0.098967 0.085835 
0.16294 1.7941 -0.28344 0.085177 0.044402 -0.0138 -0.068057 0.083368 
0.22378 0.9643 -0.24365 0.014972 0.14469 0.022042 0.019247 0.04654 
0.11937 0.60703 -0.20847 0.048841 0.25255 0.03947 0.11132 -0.0138 
-0.072332 0.42634 0.0016547 0.096193 0.27376 0.014972 0.12858 -0.017417 
-0.19515 -0.28311 0.26143 0.061008 0.16541 -0.008539 0.14831 -0.041257 
-0.11755 -1.1047 0.32867 -0.0090322 -0.080552 -0.0088678 0.15999 -0.001798 
0.078272 -2.7707 0.28576 -0.032543 -0.22557 -0.00081153 0.14075 0.042265 
0.19994 -3.8516 0.1858 -0.017088 -0.13793 -0.016924 0.049664 0.036346 
0.09981 -2.1147 -0.1108 0.091753 0.070873 0.019905 0.019411 0.019576 
-0.12067 1.0712 -0.44193 0.13697 0.1978 0.044567 0.025988 0.024673 
-0.17657 2.5055 -0.50129 0.11905 0.21062 0.063639 0.027139 0.024673 
0.02533 2.1956 -0.35167 0.069393 0.19649 0.082711 -0.0077169 0.0031344 
0.2685 1.8101 -0.19646 0.020891 0.15111 0.070051 -0.041093 -0.001798 
0.32917 1.0223 0.078107 0.013492 0.053774 0.037661 -0.039778 0.0028056 
0.27409 -0.72933 0.54192 -0.046025 -0.061151 -0.012649 -0.065262 -0.0060728 
0.095699 -1.3668 0.80235 -0.063782 -0.086964 -0.023172 -0.027611 0.0098754 
-0.16079 -0.65238 0.57053 -0.023994 -0.049642 -0.012978 0.014643 0.025659 
-0.23576 -0.0021268 0.33788 -0.058028 -0.035174 0.016288 0.041278 0.025001 
-0.16917 0.37142 0.21424 -0.018897 -0.020048 0.031907 0.040785 0.054596 
-0.10324 0.79495 0.039634 0.037332 -0.061973 -0.13793 0.063474 0.040292 
0.0024767 0.79775 -0.070852 0.041443 -0.18002 -0.29297 0.043087 0.0093821 
0.16475 0.47319 -0.087786 0.093233 -0.16062 -0.35775 0.063803 0.0065871 
0.13532 0.14108 -0.15816 0.068736 -0.16161 -0.28278 0.061337 -0.014622 
-0.052602 0.12233 -0.15437 0.10507 -0.030899 -0.085978 0.054596 -0.020048 
-0.10883 -0.41661 -0.047505 0.12595 0.14026 0.099481 0.10474 -0.004593 
-0.001798 -2.247 0.098659 0.082217 0.26373 0.20569 0.076792 0.009711 
-0.065262 -1.9901 0.052623 0.052952 0.29875 0.25206 0.068736 -0.0026201 
-0.24398 -0.1667 -0.2351 0.010204 0.28116 0.27968 0.0786 -0.0026201 
-0.31287 1.2795 -0.14862 -0.076771 0.22559 0.30779 0.075476 -0.0042642 
-0.13481 2.1338 0.15259 -0.052931 0.16821 0.2925 -0.0070593 -0.053424 
0.1664 2.2808 0.21358 -0.030406 0.13253 0.26537 0.01415 -0.11935 
0.38194 1.1185 0.10819 -0.0060728 0.13483 0.2098 1.0539e-005 -0.11491 
0.48964 0.23693 -0.090746 0.025824 0.090109 0.14124 -0.039613 -0.034023 
0.45544 0.51463 -0.28903 -0.023336 0.0032988 0.10655 -0.085156 0.077285 
0.27754 -0.42566 -0.34937 -0.018075 -0.044546 0.23841 -0.072989 0.16969 
0.15818 -3.3618 -0.3446 0.17232 0.024508 0.28872 -0.032872 0.24778 
0.22509 -4.6516 -0.24924 0.25913 0.0028056 0.14124 -0.089595 0.2371 
0.37734 -4.6473 0.021713 0.24647 -0.133 -0.083183 -0.16391 0.12924 
0.21391 -1.7403 0.31042 0.11214 -0.18298 -0.2208 -0.051122 0.0095465 
-0.25927 3.144 0.3775 0.0013258 -0.17147 -0.26453 0.14946 -0.092226 
-0.3012 3.872 0.38277 -0.075784 -0.1455 -0.28706 0.20898 -0.12231 
0.16196 3.8631 0.36057 -0.18397 -0.089431 -0.22951 0.11313 -0.12462 
0.378 1.6208 0.31519 -0.21077 -0.041915 -0.13251 0.041772 0.0037921 
0.15686 0.48026 0.2486 -0.099295 0.046704 -0.0040998 0.033222 0.056569 
-0.17591 0.13056 0.13302 0.01004 0.095535 0.093891 0.051965 0.077614 
-0.69266 0.15292 -0.029091 0.10803 0.10474 0.16574 0.042429 0.10277 
-1.0544 0.26176 -0.11524 0.11378 0.13746 0.19533 -0.031886 0.17511 
-0.78079 0.14765 -0.075455 0.11921 0.18744 0.20454 -0.079072 0.19353 
-0.099624 -0.24776 0.0062583 0.10162 0.1442 0.18448 -0.069701 0.10343 
0.45527 -0.41744 0.0018191 0.028454 0.12283 0.14453 -0.02794 0.0059294 
0.61492 -0.41333 -0.046683 0.020891 0.094055 0.10737 0.039963 -0.039284 
0.62034 -0.53795 0.0054362 0.0036276 0.031249 0.12464 0.041936 -0.057205 
0.548 -0.13004 0.077285 -0.016102 -0.036983 0.12661 0.029441 -0.031064 
0.36813 0.77572 0.15308 0.030592 -0.034845 0.075805 0.020562 -0.022679 
0.19451 1.0812 0.062488 0.0059294 -0.024652 0.042594 0.034866 -0.001798 
0.046868 0.54915 -0.27325 0.020562 -0.045203 0.029605 0.0093821 0.053938 
-0.028762 -0.1963 -0.38192 0.080738 -0.085978 -0.03616 -0.0068948 0.08863 
-0.023501 -2.1199 -0.121 0.078107 -0.13382 -0.088937 -0.027118 0.11543 
-0.043888 -2.8748 0.049828 0.08978 -0.14928 -0.064275 0.0031344 0.10491 
-0.062302 -1.1749 0.045553 0.057062 -0.062467 -0.042408 0.0031344 0.081395 
0.026317 0.23348 0.14486 -0.011663 -0.027447 -0.047834 0.013328 -0.035503 
0.17117 0.9278 0.12085 -0.0040998 -0.067728 -0.05885 0.038812 -0.033201 
0.2486 0.7162 -0.12166 0.023522 -0.087293 -0.067728 0.031414 -0.0090322 
0.17314 0.31371 -0.30958 0.076792 0.064461 -0.046847 -0.056219 0.0021479 
0.04917 0.54323 0.0062583 0.083204 0.17725 -0.018075 -0.05885 -0.0098543 
-0.009361 0.75697 0.35778 0.0083956 0.2223 0.01974 -0.038298 -0.0077169 
-0.13843 0.74842 0.53321 -0.0080457 0.16015 0.007738 0.042758 0.089616 
-0.18019 0.5845 0.5776 -0.022843 0.028125 -0.075455 0.083862 0.12924 
-0.032708 0.55721 0.49194 -0.074304 -0.20584 -0.13777 0.050157 0.1391 
0.10672 0.50789 0.26505 -0.091732 -0.32635 -0.11393 0.051636 0.12332 
0.056898 0.55491 -0.028433 -0.06444 -0.20238 -0.02498 0.10573 0.090603 
-0.097322 0.48076 -0.23231 0.038977 0.016945 0.037826 0.15078 0.075476 
-0.30859 0.82274 -0.41283 0.12464 0.21095 0.0227 0.14897 0.094713 
-0.50178 1.4266 -0.55719 0.15472 0.32884 -0.04619 0.11494 0.1077 
-0.52841 1.7293 -0.58991 0.15456 0.30171 -0.089595 0.15472 0.086163 
-0.39836 1.2824 -0.43618 0.098659 0.15966 -0.14418 0.2588 0.0026412 
-0.14171 -0.36006 -0.13464 0.071037 -0.023994 -0.21932 0.38277 -0.0052507 
0.11395 -2.4108 0.052623 0.078765 -0.11311 -0.121 0.27212 -0.0052507 
0.24811 -4.1169 0.073504 0.043416 -0.12642 -0.042408 0.052459 -0.1866 
0.4459 -3.6804 -0.034023 0.060186 -0.14698 -0.033365 -0.12511 -0.27029 
0.65553 -1.6788 0.032071 -0.0021268 -0.20501 -0.07414 -0.22244 -0.24464 
0.76881 -0.27374 0.27212 -0.12018 -0.20403 -0.1011 -0.24299 -0.11491 
0.48076 0.62922 0.46432 -0.10308 -0.081045 -0.062796 -0.13316 0.04917 
0.03651 1.7882 0.46547 -0.098638 0.060186 -0.0047575 0.0036276 0.15374 
-0.20189 2.4113 0.15094 -0.074633 0.12529 0.069064 0.092904 0.1322 
-0.20468 2.3156 -0.28443 0.0085601 0.21128 0.15144 0.10162 0.059693 
-0.19137 1.6987 -0.37025 0.060022 0.22608 0.11247 0.091753 0.033387 
-0.17016 0.96627 -0.14878 0.097015 0.19862 0.1105 0.13598 0.034702 
-0.12609 0.37159 0.077121 0.080738 0.14453 0.094055 0.14815 0.052459 
-0.046847 -0.41809 0.18251 0.034866 0.11033 0.093233 0.088958 0.056898 
0.0080668 -1.01 0.11658 0.053938 0.13598 0.053938 -0.0090322 0.033551 
-0.035338 -1.3454 0.084684 0.0421 0.13845 0.020069 0.01152 0.022371 
-0.17361 -1.5136 0.26636 0.078436 0.1539 -0.015116 0.071202 0.015137 
-0.27226 -0.021692 0.26044 0.09685 0.10145 -0.12149 0.12233 0.04095 
-0.22935 1.5649 0.019411 0.053445 0.058871 -0.25204 0.11592 0.06035 
0.004943 0.92796 -0.13958 0.037497 0.0052718 -0.20485 0.068078 0.024344 
0.24663 -0.2185 -0.17098 -0.018733 -0.0022913 -0.021528 0.022206 0.012177 
0.30418 -0.072332 -0.067235 -0.041422 0.023851 0.15982 -0.017253 -0.0057439 
0.34495 0.34035 0.054432 0.0021479 -0.0042642 0.23907 -0.07825 -0.016431 
0.38721 -0.6754 0.013164 -0.021528 -0.01676 0.20191 -0.10719 -0.066084 
0.42502 -2.9432 -0.11294 -0.0032777 0.0037921 0.1368 -0.11294 -0.095678 
0.38523 -3.2334 -0.27061 0.0062583 0.0095465 0.11822 -0.035503 -0.010512 
0.23775 -0.80101 -0.43585 0.031907 0.037497 0.13105 0.055254 0.036675 
-0.01528 1.1568 -0.25976 0.062981 0.055582 0.12398 0.075641 0.061172 
-0.25401 1.8711 0.045553 0.04654 0.049335 0.080902 0.018096 0.077614 
-0.3594 1.9561 0.34413 0.0069159 0.012177 0.088136 -0.11837 0.14815 
-0.40116 1.9832 0.52663 0.023851 -0.012485 0.071366 -0.028104 0.20536 
-0.41563 1.7099 0.56116 0.015959 0.057555 0.080409 0.067585 0.17084 
-0.33474 1.0217 0.56576 0.037004 0.097508 0.05213 0.11198 0.098001 
-0.094692 -0.13136 0.49621 -0.0016336 0.094384 0.030263 0.12316 0.021549 
0.085012 -0.8431 0.39148 0.0088889 0.10343 0.017438 0.10392 -0.016266 
0.23282 -0.45163 0.022371 0.082546 0.036017 0.032729 0.019905 -0.019226 
0.48437 -0.33424 -0.37255 0.036346 -0.064604 0.028947 -0.093048 -0.063124 
0.69466 -1.2288 -0.34871 -0.029091 -0.09387 -0.033365 -0.206 -0.10127 
0.58105 -1.4583 -0.1205 -0.010019 -0.022514 -0.044217 -0.2397 -0.096994 
0.2029 -0.67622 -0.041915 0.033387 0.067256 0.031907 -0.13826 -0.0013048 
-0.12708 -0.17624 -0.069372 0.098659 0.08304 0.07038 -0.036818 0.06742 
-0.24546 -0.6435 0.12776 0.070215 0.14502 0.10556 0.03651 0.059035 
-0.26124 -0.9378 0.41581 0.050486 0.15752 0.099645 0.082217 0.10244 
-0.26601 0.21704 0.47763 0.077614 0.076134 0.14058 0.098166 0.14996 
-0.19202 1.5126 0.34923 0.0227 -0.089759 0.10655 0.081231 0.17511 
-0.020377 1.3364 0.085177 -0.0016336 -0.16851 0.051308 0.095699 0.17199 
0.072024 0.4949 -0.19729 -0.026789 -0.16259 0.029112 0.036839 0.078436 
0.013164 0.52153 -0.4102 -0.011827 -0.056877 -0.014622 0.00033937 0.0079024 
0.00066819 0.90297 -0.52463 0.099974 0.081724 -0.02942 -0.011498 -0.032379 
0.11625 0.98025 -0.54387 0.12447 0.081231 -0.0057439 -0.047834 -0.039613 
0.23479 0.7698 -0.41513 0.14256 -0.045039 0.025001 -0.079237 0.00033937 
0.1904 -0.20551 -0.082854 0.092904 -0.13432 0.013657 -0.071345 0.021713 
0.16771 -1.666 0.42897 0.021384 -0.10061 0.0082312 -0.031228 0.02122 
0.16081 -1.6862 0.76191 -0.057863 -0.05326 -0.043724 -0.011827 1.0539e-005 
0.11625 -0.68329 0.57842 -0.057699 0.045882 -0.014293 0.010862 0.025495 
0.048348 -0.23329 0.27179 -0.059507 0.11543 0.058049 0.052294 0.046211 
0.076463 0.094384 0.2343 0.0023123 0.20372 0.1687 0.14765 0.093069 
0.10458 0.27557 0.39214 0.015959 0.26159 0.27113 0.15094 0.085835 
0.09422 0.29612 0.40907 0.013657 0.29217 0.36386 0.14831 0.046704 
-0.032708 0.60916 0.21523 0.030098 0.12776 0.27507 0.19336 0.054432 
-0.24464 0.58236 0.11461 0.015959 -0.073811 0.059364 0.2052 0.025988 
-0.56163 1.008 0.078929 -0.023336 -0.12001 -0.2254 0.073832 -0.040106 
-0.74248 1.2295 -0.043395 -0.037311 -0.016266 -0.33046 -0.055726 -0.030406 
-0.55554 0.64599 -0.27538 0.086657 0.17758 -0.15585 -0.084334 0.015959 
-0.11837 0.18777 -0.60552 0.1613 0.19533 0.12776 -0.037311 0.060679 
0.24367 -1.5215 -0.81022 0.1493 0.12924 0.26948 -0.020706 0.067091 
0.72804 -2.3855 -0.68033 0.11888 0.025001 0.33755 -0.027447 0.059528 
0.94884 -1.4626 -0.47564 0.13236 -0.13662 0.24236 -0.0070593 0.066269 
0.89853 -0.53713 -0.24825 0.050486 -0.2744 -0.0047575 -0.0060728 -0.015116 
0.77161 0.97499 -0.055561 -0.02646 -0.21159 -0.13892 -0.057534 -0.068057 
0.49358 1.7708 0.16344 0.00083261 -0.026789 -0.15816 -0.081868 -0.072989 
-0.05326 0.38984 0.31864 0.072681 0.093233 -0.10768 0.022864 -0.0082102 
-0.71239 -0.49619 0.2731 0.14552 0.093562 -0.088444 0.085506 0.033058 
-1.0471 0.78509 0.09422 0.089123 0.068736 -0.072989 0.12858 0.054925 
-0.84162 1.8201 0.011026 0.0013258 0.078272 -0.050464 0.15719 0.059528 
-0.26568 1.2716 0.1003 -0.08121 0.15571 0.015301 0.13647 0.046704 
0.24334 -1.3332 0.30779 -0.14895 0.19237 0.06594 0.022371 0.0024767 
0.37718 -1.9044 0.35794 -0.11623 0.12184 0.064132 -0.008539 -0.017088 
0.18596 -0.42451 0.22279 -0.099131 0.081395 0.028947 0.058213 -0.040764 
-0.031886 0.40874 0.067091 -0.0503 0.023851 0.033222 0.06183 -0.025638 
-0.068879 0.45149 -0.0052507 0.034373 0.026646 0.033715 0.050486 -0.020212 
0.056898 -0.40626 0.015137 0.056569 -0.019226 0.044731 0.031578 0.014972 
0.17462 -0.49257 -0.0088678 0.036182 -0.07266 0.057884 0.066763 0.0072447 
0.10737 0.17741 -0.098638 0.060844 -0.042408 0.065118 0.04506 0.034373 
0.010533 0.59124 -0.1889 0.035688 0.048513 0.058871 0.071366 0.093726 
0.048513 0.64797 -0.13662 0.028619 0.061995 -0.02087 0.077778 0.12447 
0.22953 0.46793 0.023686 -0.037147 0.050814 -0.055397 0.085506 0.1465 
0.23035 0.15768 0.072846 -0.034023 0.039799 -0.049971 0.05065 0.11444 
-0.033037 0.11099 0.10425 0.044567 -0.024487 -0.051122 0.037661 0.025824 
-0.23905 0.21967 -0.001798 0.099316 -0.12659 -0.061973 0.087972 -0.041915 
-0.33128 0.1345 -0.066741 0.12102 -0.11935 -0.014129 0.099645 -0.12001 
-0.28722 0.43801 -0.2448 0.11806 -0.0016336 -0.0070593 0.077943 -0.19877 
-0.28804 1.5286 -0.54387 0.10622 0.17495 0.0080668 0.0067515 -0.20633 
-0.25878 2.0363 -0.41004 0.13713 0.13664 0.027303 -0.1011 -0.11656 
0.01563 1.4007 -0.013471 0.058871 -0.07003 0.0042853 -0.11607 -0.014787 
0.27491 0.098659 0.3124 0.014315 -0.18101 0.035031 -0.053588 0.083533 
0.46645 -2.2112 0.5018 -0.057699 -0.15569 0.047362 -0.017417 0.15489 
0.52663 -4.1922 0.53847 -0.13021 -0.0052507 -0.0031133 -0.021856 0.17807 
0.46218 -3.6513 0.4949 -0.094527 0.10425 -0.10604 -0.025474 0.1659 
0.26274 -1.9614 0.2292 0.014972 0.17281 -0.14533 0.0051074 0.18761 
0.025495 -0.03616 0.0044497 0.077778 0.1909 -0.064111 0.046211 0.24071 
-0.12346 1.9212 -0.19301 0.13664 0.20569 0.081724 0.062652 0.25863 
-0.18956 2.4437 -0.36301 0.080409 0.094877 0.13088 0.078436 0.2417 
-0.03912 2.0037 -0.2157 0.037661 -0.0091966 0.08978 0.099316 0.17297 
0.29004 1.1128 0.15851 -0.028926 -0.10225 -0.033694 0.11937 -0.033859 
0.42371 0.38227 0.39132 -0.04882 -0.12067 -0.13415 0.14782 -0.16802 
0.26899 -0.43355 0.48947 -0.079401 -0.12873 -0.2208 0.13384 -0.15552 
0.15555 -1.3405 0.49128 -0.099295 -0.13859 -0.18479 -0.028926 -0.14385 
-0.04471 -1.3046 0.30039 -0.064768 -0.10752 -0.1085 -0.109 -0.094527 
-0.52809 -0.0082102 -0.024816 0.065447 -0.033201 -0.0091966 -0.064768 -0.043724 
-1.0868 1.3549 -0.18578 0.15341 0.072517 0.11395 0.075476 0.034373 
-1.0593 1.792 -0.23938 0.20339 0.094384 0.12497 0.13056 0.070544 
-0.46216 1.1657 -0.26782 0.19402 0.11165 0.094877 0.07597 0.026317 
0.16558 0.39132 -0.28311 0.13943 0.12053 0.093233 0.016288 0.074161 
0.49342 0.87042 -0.26338 0.15653 0.090931 0.072517 -0.022679 0.08008 
0.61097 0.87469 -0.16621 0.072024 0.049006 0.0046141 -0.028762 0.075805 
0.84461 -1.2834 0.18925 -0.0087034 -0.0083746 -0.034023 -0.041586 0.066434 
0.99324 -3.3741 0.51331 -0.080388 -0.0080457 -0.058356 -0.10686 0.0079024 
0.77868 -3.1924 0.59815 -0.14434 0.015794 -0.0095255 -0.059672 0.025659 
0.2925 -0.92153 0.39066 -0.1062 0.012177 0.066763 0.013986 0.04917 
-0.084991 1.4242 0.072681 -0.050958 0.0088889 0.091425 0.053938 0.076463 
-0.27867 2.3248 -0.12231 -0.025967 0.025001 0.050321 0.082875 0.042758 
-0.38587 1.7147 -0.1353 0.047033 0.073504 0.047526 0.056733 0.045389 
-0.50622 0.87404 0.022535 0.088958 0.16311 0.12266 0.073997 0.10984 
-0.51921 0.18399 0.14815 0.13845 0.16146 0.11806 0.026974 0.11313 
-0.36285 -0.79181 0.26061 0.12135 0.096686 0.086492 -0.017253 0.043416 
-0.19186 -1.1298 0.45264 0.078107 0.047526 0.0090533 0.013328 -0.047176 
-0.13793 0.51397 0.44689 0.08567 0.055418 -0.0062372 0.062652 -0.040435 
-0.10045 2.0657 0.18383 0.041278 0.062323 -0.0091966 0.082053 0.0592 
0.11674 1.6619 -0.16243 -0.051451 -0.048163 -0.10998 0.029441 0.052952 
0.36024 -0.24069 -0.59846 -0.052273 -0.1769 -0.12264 -0.05441 -0.021528 
0.43965 -2.3842 -0.81515 -0.0078813 -0.18232 -0.014787 -0.098309 -0.049642 
0.46152 -3.4856 -0.89407 0.063803 -0.032215 0.12809 -0.097158 0.026481 
0.46333 -2.4547 -0.82387 0.1465 0.1881 0.18218 -0.018897 0.082217 
0.30434 -0.079895 -0.4541 0.15209 0.317 0.14601 0.09274 0.0060938 
0.19369 1.0475 0.062488 0.052294 0.19912 0.056733 0.061995 -0.013307 
0.13812 1.7157 0.44639 -0.06148 -0.04323 -0.010676 -0.004593 -0.014129 
-0.070194 2.4233 0.60308 -0.10784 -0.13021 0.026152 -0.046025 -0.031886 
-0.15898 1.8054 0.5919 -0.021692 -0.13908 0.047855 -0.01232 -0.088773 
0.083533 0.66704 0.46925 -0.014293 -0.10949 0.068078 0.0095465 -0.072332 
0.23068 -0.88453 0.40595 0.052623 0.0069159 0.095699 0.096521 -0.0087034 
0.057555 -1.5187 0.33607 0.10622 0.16853 0.056076 0.20224 -0.00064712 
-0.1598 -1.4881 0.28198 0.088958 0.23397 0.043745 0.20257 -0.027775 
-0.47301 -0.38455 0.17182 0.077121 0.15686 0.031578 0.095206 -0.02498 
-0.71601 0.73856 0.013164 0.05476 0.057227 0.025988 0.021384 0.021056 
-0.58744 0.84082 -0.22113 0.045224 -0.049807 0.0026412 -0.019061 0.089945 
-0.1182 0.68332 -0.25467 0.072024 -0.096172 -0.05326 -0.053753 0.041607 
0.21112 0.48388 -0.11903 -0.056548 -0.15224 -0.083018 -0.044052 -0.015609 
0.28067 0.33213 0.083533 -0.047012 -0.10505 -0.080552 0.072846 -0.073647 
0.25847 0.11017 0.13516 -0.028269 0.015301 -0.033365 0.21638 -0.08384 
0.30746 -0.069701 0.013821 -0.00015387 0.13976 0.041936 0.30615 -0.029584 
0.22361 -0.065262 -0.23313 0.044731 0.16163 0.012835 0.17807 0.024837 
0.065447 -0.15766 -0.30563 0.049499 -0.044381 -0.11952 -0.0075525 0.067913 
0.042265 -0.19827 -0.32832 0.054432 -0.22639 -0.13448 -0.10143 0.1442 
0.077449 0.0051074 -0.27193 0.053445 -0.23642 -0.039284 -0.096336 0.15374 
0.06594 0.075641 0.055254 0.014808 -0.083347 0.073832 -0.037476 0.1179 
0.10425 0.18711 0.50197 -0.045861 0.0592 0.12003 -0.023994 0.031907 
0.11987 0.21687 0.72869 -0.054246 0.17593 0.12809 -0.015444 0.0093821 
0.040621 0.37619 0.44228 -0.030735 0.31552 0.10293 0.027303 -0.0050863 
-0.02498 -0.12544 -0.08828 0.085999 0.42519 0.12513 0.1003 -0.021692 
-0.10719 -1.449 -0.56689 0.14963 0.41384 0.17199 0.15226 0.0019835 
-0.1741 -1.7099 -0.80989 0.22657 0.40184 0.26718 0.14897 -0.0040998 
-0.077593 -0.60569 -0.6902 0.21967 0.34512 0.35284 0.077121 -0.02498 
0.098001 0.28823 -0.4005 0.15768 0.24548 0.35186 -0.006566 -0.053917 
0.19895 0.38556 -0.055726 0.062159 0.14996 0.19501 -0.036818 -0.041093 
0.34955 0.42732 0.33492 -0.040928 0.071531 -0.094527 -0.094363 0.011355 
0.39625 0.72524 0.6187 -0.13267 -0.037476 -0.12133 -0.11656 0.068571 
0.25469 0.60834 0.62725 -0.11935 -0.14023 0.060515 -0.051451 0.16558 
0.080573 0.56559 0.35482 -0.10604 -0.29709 0.17429 0.023357 0.19122 
-0.089102 0.83671 0.17396 -0.025802 -0.41826 0.14321 0.011684 0.19829 
-0.26141 1.0036 0.13335 0.065283 -0.50046 -0.010019 0.088465 0.17906 
-0.32388 0.24532 0.14206 0.040785 -0.47794 -0.2568 0.14321 0.053281 
-0.24299 -0.79789 0.16097 0.046375 -0.29593 -0.47202 0.097672 -0.030735 
-0.10308 -0.82683 0.040785 0.071859 -0.047669 -0.41694 0.010862 -0.042901 
-0.07414 -0.10324 -0.091568 0.10491 0.18744 -0.21685 0.010204 -0.0050863 
-0.057041 0.59585 -0.14287 0.11263 0.28001 -0.025967 0.056733 0.021878 
-0.023007 0.73609 -0.054575 0.047526 0.33739 0.13812 0.043416 0.066105 
0.0090533 0.1733 -0.023007 0.029112 0.34627 0.16853 0.062652 0.1391 
0.050979 -0.27966 0.0023123 0.065447 0.28231 0.12233 0.11855 0.13236 
0.074326 -0.1353 0.028947 0.016945 0.171 0.061501 0.072517 0.077614 
0.10606 0.062981 0.095535 0.030427 0.081231 0.1202 -0.065426 0.01826 
0.12727 0.057555 0.15686 -0.0138 0.04917 0.23759 -0.1478 0.042265 
0.09126 -0.03353 0.1105 -0.029255 0.095371 0.34084 -0.13793 0.053774 
0.051636 -0.099131 -0.064275 0.0075736 0.22575 0.47221 -0.048327 0.019083 
0.051636 -0.26272 -0.092061 0.010697 0.32851 0.48076 -0.038133 0.0019835 
0.015794 -0.1376 0.09833 0.0087245 0.35761 0.38573 -0.038133 0.022535 
-0.16736 0.70518 0.3216 0.0090533 0.16541 0.22559 0.066763 0.094384 
-0.32865 1.6918 0.25551 0.01267 -0.015938 0.0074092 0.18942 0.036017 
-0.32931 1.9978 0.0090533 0.044073 -0.19893 -0.19202 0.21474 -0.010512 
-0.11064 1.4258 -0.11903 0.031907 -0.30547 -0.1741 0.16278 0.074326 
0.23858 0.78344 -0.035338 0.090109 -0.3007 -0.10784 0.044402 0.11346 
0.75533 -0.61227 0.00050378 0.14913 -0.24677 -0.089102 -0.10653 0.10967 
1.2262 -3.1482 -0.050958 0.041114 -0.27292 -0.19038 -0.24513 0.0067515 
1.0957 -4.5087 0.060844 -0.014951 -0.24579 -0.24529 -0.24694 -0.051944 
0.27096 -3.1881 0.2833 -0.032543 -0.15092 -0.19663 -0.12971 0.010862 
-0.62772 -0.75909 0.30812 -0.016595 -0.010841 -0.10028 -0.028762 0.084026 
-1.0139 0.69713 0.19353 0.0087245 0.084026 -0.01528 0.0041209 0.09422 
-0.67984 1.3462 0.072024 -0.032379 0.00297 -0.0064016 0.017438 0.00033937 
-0.21965 2.1395 -0.21899 -0.0095255 -0.067564 -0.065262 0.046868 -0.10291 
0.0072447 2.094 -0.56541 0.093562 -0.006566 -0.042573 0.056898 -0.17854 
0.14026 0.91234 -0.75563 0.14437 0.11132 0.032236 0.073832 -0.1621 
0.16179 -0.077428 -0.65057 0.10622 0.20536 0.078765 0.084026 -0.034845 
0.11724 -0.014129 -0.2014 0.010369 0.10063 0.069229 0.10228 0.10951 
0.013492 0.25206 0.32917 -0.049642 -0.024487 0.068078 0.11099 0.13878 
-0.024158 0.51117 0.59026 -0.052766 -0.038133 0.062817 0.11822 0.10869 
0.12003 0.54751 0.55409 -0.089595 -0.0039354 0.012177 0.11888 -0.0019624 
0.37274 0.5605 0.47254 -0.033365 -0.010676 -0.079401 0.063803 -0.019061 
0.40743 0.45445 0.38721 0.026646 -0.071838 -0.19646 0.05213 -0.0021268 
0.1807 0.19517 0.23775 0.13006 -0.02646 -0.28081 0.058542 0.057227 
-0.056548 -0.51296 0.22279 0.1613 0.021549 -0.30317 0.021878 0.14058 
-0.34033 -1.4639 0.27951 0.03536 0.080738 -0.17739 -0.035174 0.097179 
-0.52809 -1.7234 0.18646 -0.099624 0.056569 0.019083 -0.054246 0.058213 
-0.37173 -0.9993 -0.089431 -0.079237 0.0085601 0.11609 -0.076113 0.0689 
-0.033859 -0.31681 -0.28212 -0.076442 -0.078579 0.15275 -0.059836 0.082875 
0.31503 0.056733 -0.23822 -0.023336 -0.074962 0.14634 0.0080668 0.12085 
0.41154 0.73609 -0.16325 0.0072447 0.0051074 0.10622 0.061501 0.096686 
0.28412 1.7421 -0.21702 0.051472 0.054432 0.065776 0.10984 0.011848 
0.1197 1.4873 -0.32339 0.11346 0.11198 0.064954 0.08715 -0.084334 
0.045224 0.072024 -0.33605 0.10211 0.11576 0.0092177 0.038812 -0.068879 
0.0041209 -0.45229 -0.37222 0.12924 0.03651 -0.037969 0.059857 -0.015609 
-0.14582 0.28938 -0.26338 0.12381 -0.057699 -0.10193 0.079587 -0.048327 
-0.14418 0.84214 -0.039778 -0.0057439 -0.13991 -0.17838 0.060515 -0.076771 
0.25173 -0.58497 0.1932 -0.06148 -0.13333 -0.21981 0.040785 -0.14171 
0.6432 -2.1351 0.33114 -0.03353 -0.039284 -0.18611 -0.00064712 -0.14813 
0.67674 -2.4032 0.41664 0.037168 0.13335 -0.10637 -0.0080457 -0.072825 
0.36583 -1.2665 0.39444 0.080738 0.2537 -0.00031829 0.047855 0.050814 
0.0039565 -0.55867 0.37635 0.017767 0.21276 0.099481 0.11674 0.14881 
-0.6075 -0.40626 0.26768 0.038155 0.1128 0.13812 0.091589 0.1761 
-1.1972 0.85973 0.0062583 0.069722 -0.010019 0.060515 -0.02942 0.14765 
-0.83357 2.1298 -0.23181 0.029441 -0.02794 -0.010019 -0.09239 0.038155 
-0.1667 2.3686 -0.28525 0.012835 -0.030242 -0.011498 -0.018733 0.034537 
0.22279 1.7061 -0.12741 0.024344 -0.023172 0.01415 0.0689 0.070544 
0.38852 1.0034 0.15176 -0.012485 -0.019719 0.027139 0.093233 0.091753 
0.32703 0.26899 0.38803 0.00099702 0.01826 0.057391 0.091918 0.10573 
0.2172 -0.094363 0.52581 -0.0060728 0.073504 0.061995 0.12085 0.056569 
0.097837 0.061995 0.58286 -0.0004827 0.090109 0.027139 0.11132 0.028125 
0.050157 0.37422 0.47665 0.0044497 0.15834 0.018918 0.11132 0.011191 
-0.038133 0.3438 0.082546 -0.020541 0.17873 0.031907 0.11 0.00017495 
-0.038791 -0.12494 -0.32471 0.034537 0.18136 0.09685 0.10392 0.022206 
-0.042244 -0.35282 -0.61424 0.093726 0.091918 0.052787 0.032564 -0.0014692 
-0.013307 -1.3219 -0.58267 0.074326 -0.1427 -0.13941 -0.035667 -0.021034 
0.19073 -3.0058 -0.38833 0.048841 -0.22852 -0.24858 -0.096665 -0.058192 
0.28099 -2.188 -0.34756 0.018589 -0.12149 -0.17065 -0.077593 -0.087622 
0.27491 -0.26026 -0.33326 0.056569 0.11773 -0.0080457 -0.045696 -0.031721 
0.080573 0.84724 -0.12856 0.13779 0.2195 0.19944 0.0087245 0.043416 
0.058213 1.2854 0.29711 0.080902 0.18777 0.2999 0.015959 0.075312 
0.092904 1.0978 0.70436 0.014972 0.14946 0.27442 0.057884 0.062981 
0.063803 0.76602 0.66013 -0.049642 0.17396 0.22 0.010204 0.020069 
-0.0022913 0.25156 0.37849 -0.036654 0.23775 0.1299 -0.021692 -0.02646 
-0.081045 0.066434 0.21934 0.00050378 0.25008 0.14979 -0.0040998 -0.061645 
-0.15191 0.22953 0.17067 -0.01676 0.24745 0.27951 0.039799 -0.05178 
-0.15881 0.47993 0.15785 -0.033037 0.14749 0.33032 0.17034 -0.029748 
-0.16572 0.46875 0.18202 -0.047012 -0.0059084 0.21145 0.21835 -0.019226 
-0.23033 0.46251 0.014479 -0.03912 -0.0503 0.19007 0.16886 0.065612 
-0.25483 0.39066 -0.33885 0.072353 -0.025802 0.31782 0.061172 0.13088 
-0.1644 0.2075 -0.62049 0.11872 -0.053095 0.37783 0.0060938 0.18547 
0.023357 0.15144 -0.64482 0.1419 -0.13103 0.22131 -0.012649 0.17626 
0.25419 0.094055 -0.31484 0.12612 -0.18791 -0.048656 -0.028104 0.071531 
0.28346 0.06183 0.020233 0.056404 -0.22261 -0.26667 -0.054739 -0.00097594 
0.15801 0.34117 0.11165 0.02533 -0.25647 -0.36992 -0.040271 -0.046847 
0.183 0.45938 0.17265 -0.027611 -0.19745 -0.33112 -0.017746 -0.062138 
0.29776 -0.38258 0.17873 -0.067399 0.026317 -0.12198 -0.0032777 -0.049971 
0.26603 -1.5803 0.17692 0.0060938 0.27919 0.0018191 0.00050378 -0.029584 
-0.044381 -1.1913 -0.01117 0.067091 0.41844 0.11987 0.055911 0.025001 
-0.30284 0.11872 -0.27588 0.094384 0.38786 0.21589 0.15061 0.085835 
-0.37715 1.1294 -0.20748 0.12924 0.24301 0.21687 0.11954 0.09981 
-0.066413 1.3729 0.18333 0.013821 0.12957 0.19353 0.090767 0.057884 
0.22065 1.1527 0.6044 -0.024816 0.042429 0.21769 0.0070803 0.086163 
0.35991 0.1978 0.63613 -0.023336 0.037661 0.21375 -0.0062372 0.1008 
0.32177 -0.91133 0.34709 -0.008539 0.052294 0.15604 -0.051287 0.063145 
0.32177 -1.8868 0.1493 0.017932 -0.012156 0.1008 -0.027775 0.047855 
0.19221 -2.483 -0.062302 0.0070803 -0.09239 0.077778 0.023357 0.027632 
-0.049478 -1.2097 -0.41004 0.026152 -0.14763 0.015137 0.0026412 0.046868 
-0.060329 1.754 -0.76895 0.06594 -0.15832 -0.025145 -0.094363 -0.00031829 
-0.041586 3.6658 -0.98894 0.075148 -0.12149 -0.029913 -0.10784 -0.016431 
0.0034632 3.3174 -0.86086 0.09685 -0.078086 -0.021528 -0.10456 0.032564 
-0.0073881 1.2673 -0.32553 0.047526 -0.029748 0.0095465 -0.016431 0.057555 
0.092082 -0.84064 0.16015 0.039799 0.034537 0.044567 0.085506 0.081724 
0.27721 -1.9585 0.40513 0.040292 0.089452 0.046868 0.10622 0.076956 
0.39904 -3.0492 0.61656 -0.027118 0.053116 0.0060938 0.055747 0.089945 
0.45166 -3.7325 0.79528 -0.042737 -0.018733 -0.034352 -0.047012 0.046375 
0.27754 -2.0073 0.71192 -0.013471 -0.038462 -0.016924 -0.059507 0.00050378 
0.034373 0.40726 0.43669 0.01415 -0.056383 -0.045532 -0.011992 -0.012978 
-0.15174 1.8974 0.093562 0.0085601 -0.059836 -0.066413 0.05476 -0.045039 
-0.26289 2.4271 -0.20255 -0.018897 -0.046354 -0.074633 0.079422 -0.03353 
-0.21291 2.0116 -0.31665 -0.00081153 -0.017746 -0.074304 0.089945 0.028783 
0.16393 1.1828 -0.27982 0.047855 0.0095465 -0.050136 0.10672 0.0324 
0.39444 0.44771 -0.10045 0.035853 -0.019555 -0.084663 0.07597 0.052952 
0.34972 0.0046141 0.1008 0.06035 -0.025145 -0.1256 0.0227 0.029769 
0.15374 -0.38636 0.28149 0.015794 0.0037921 -0.13464 -0.020377 0.041443 
-0.12034 -1.1052 0.3803 0.0064227 0.057555 -0.16194 -0.028597 0.0592 
-0.50885 -1.4846 0.38145 0.083862 0.035853 -0.18348 -0.028104 0.11839 
-0.70582 -1.6144 0.33936 0.082875 0.0092177 -0.11196 -0.011498 0.18202 
-0.44703 -0.77849 0.463 0.073504 0.0037921 0.0013258 -0.014951 0.15144 
-0.091732 0.57069 0.66539 -0.0016336 0.029605 0.10984 0.055582 0.11592 
0.065776 1.6723 0.56247 -0.036325 0.065447 0.13828 0.10573 0.065612 
0.005765 1.8669 0.1664 -0.039449 0.11083 0.1026 0.16015 0.033387 
-0.031064 1.4659 -0.31451 -0.047834 0.067749 0.014315 0.18826 -0.051451 
0.01563 1.1182 -0.8556 -0.061151 0.0044497 -0.11968 0.1248 -0.1404 
0.074983 0.60045 -1.6052 0.099481 0.032236 -0.21027 0.023193 -0.11491 
0.23496 -1.0195 -2.0344 0.2246 0.098659 -0.20304 -0.057041 -0.051122 
0.62347 -3.341 -1.6149 0.25798 0.045224 -0.15996 -0.13168 -0.0036066 
1.0329 -4.339 -0.35512 0.16969 -0.041257 -0.1016 -0.19844 0.0051074 
0.90495 -2.6632 0.94654 0.0032988 -0.11475 -0.05589 -0.19466 -0.043066 
0.39428 -0.4855 1.998 -0.1917 -0.11459 -0.016102 -0.14319 -0.025474 
-0.20074 1.1432 2.0628 -0.29709 -0.12281 -0.039778 -0.038298 -0.051287 
-0.71371 1.9901 1.268 -0.15898 -0.095678 -0.04882 0.047033 0.005765 
-0.92366 1.962 0.26932 0.097508 0.065447 -0.011992 0.15423 0.047691 
-0.77849 1.8332 -0.40297 0.23545 0.12332 0.057391 0.20931 0.085341 
-0.58497 1.4899 -0.60059 0.18892 0.12595 0.064132 0.24696 0.095042 
-0.37765 0.77407 -0.35183 0.12168 0.1322 0.078929 0.20734 0.084848 
-0.20715 0.33673 0.012177 -0.0034422 0.12316 0.10458 0.17396 0.085506 
-0.047669 0.19336 0.14371 -0.046519 0.088136 0.062817 0.12003 0.079258 
0.059528 0.092082 0.078272 -0.046354 0.06183 0.020891 0.078107 0.026317 
0.12497 0.13187 -0.009361 -0.070194 0.054432 0.017438 0.0087245 -0.0068948 
0.19747 -0.024487 0.0087245 -0.018897 0.085341 0.018918 -0.0088678 -0.016431 
0.16459 -0.17986 0.036346 -0.025309 0.13664 0.067091 0.0079024 0.0098754 
0.065447 -0.012485 -0.0024557 0.042923 0.14535 0.12233 0.022042 0.048677 
-0.0077169 0.047855 -0.056055 0.086492 0.00050378 0.13187 0.0421 0.049499 
0.0095465 -0.20879 -0.032215 0.053281 -0.18742 0.038483 0.021056 0.018096 
0.049828 -0.3589 0.026974 0.045718 -0.19597 -0.056712 0.027796 -0.044052 
0.075312 -0.30136 0.14272 0.056898 -0.087622 -0.087951 0.036017 -0.040928 
-0.061151 0.19172 0.34347 0.068736 0.11247 -0.008539 0.080573 0.034537 
-0.25269 1.021 0.52285 -0.0064016 0.19731 0.12036 0.11674 0.10162 
-0.30563 1.6031 0.68956 -0.090581 0.09126 0.17774 0.10392 0.14568 
-0.23576 1.8528 0.77424 -0.084663 0.0019835 0.15078 0.051308 0.061666 
-0.15026 1.6568 0.35958 -0.0054151 0.060022 0.10819 0.0059294 0.013328 
-0.008539 0.55737 -0.4666 0.05213 0.14338 0.090274 0.0052718 -0.010512 
0.25995 -1.3258 -1.1228 0.13023 0.24943 0.095864 -0.021856 -0.017253 
0.58352 -2.6497 -1.375 0.17445 0.23594 0.052952 -0.10817 -0.020377 
0.6215 -2.5892 -1.3373 0.22065 0.26948 0.10326 -0.11113 -0.019226 
0.53123 -1.6647 -1.0146 0.18284 0.14289 0.11115 -0.089102 0.0056006 
0.52959 -1.8023 -0.25631 0.035853 -0.048985 -0.0032777 -0.11656 -0.044052 
0.24137 -0.83784 0.4584 -0.056877 -0.13136 -0.086636 -0.081045 -0.053753 
-0.17295 1.0306 0.52482 -0.027282 -0.14434 -0.070523 0.059857 -0.017911 
-0.41217 2.4343 0.28971 -0.01528 -0.10587 -0.010512 0.13434 0.026481 
-0.38949 2.341 0.13368 0.058706 -0.053588 0.066105 0.14058 0.08156 
-0.088937 0.51528 0.25271 0.046046 -0.044381 0.10787 0.097672 0.087479 
0.25567 -1.0858 0.5868 -0.012814 -0.023665 0.084848 0.017438 0.049828 
0.31388 -1.5996 0.73149 -0.038791 0.016123 0.066598 -0.0049219 0.057391 
0.29069 -0.78786 0.7578 -0.063124 0.059035 0.072846 -0.021856 0.055418 
0.29053 0.50427 0.73379 -0.056877 0.08863 0.076792 -0.018075 0.077449 
0.25304 1.8724 0.39378 -0.053424 0.02122 -0.014787 0.0065871 0.044731 
0.11444 2.2121 -0.028762 -0.0070593 0.019247 -0.05885 0.033222 0.039963 
-0.13974 1.2152 -0.31435 0.048348 -0.039613 -0.11097 0.075476 0.042265 
-0.50162 0.017274 -0.39984 0.082711 -0.017417 -0.090088 0.08567 0.053938 
-0.47728 -0.63331 -0.35858 0.085341 -0.065591 -0.060494 0.093398 0.034537 
-0.1353 -0.81433 -0.33391 0.096028 -0.026624 0.023522 0.0324 0.0031344 
0.15999 -0.79263 -0.29166 0.063968 0.098166 0.12316 0.0024767 0.0021479 
0.27803 -0.59023 -0.21882 0.070215 0.14289 0.16344 -0.01232 0.09126 
0.2805 -0.38439 -0.16111 0.029934 0.14716 0.18448 0.016616 0.15407 
0.21194 -0.34427 -0.1427 0.0087245 0.23562 0.20257 0.0098754 0.12562 
0.15275 -0.33654 -0.028926 0.024837 0.28116 0.15209 0.027796 0.026974 
0.1539 -0.20452 0.065612 0.0019835 0.26291 0.037826 0.01563 -0.015444 
0.16738 -0.13284 0.1197 -0.0095255 0.17856 -0.026789 0.0032988 -0.077264 
0.3221 -0.57593 0.20569 -0.037969 0.11017 0.010697 -0.057041 -0.08384 
0.48158 -0.77306 0.24663 -0.031228 0.051636 0.1128 -0.079401 -0.052766 
0.54998 -0.042408 0.087479 0.038977 0.060679 0.27442 -0.012978 -0.087129 
0.41039 0.62709 -0.13415 0.074326 1.0539e-005 0.34742 -0.0032777 -0.038627 
0.16525 0.49621 -0.19087 0.061501 -0.14566 0.18119 0.067913 -0.026789 
-0.16917 0.44228 0.016616 0.038319 -0.29528 -0.037147 0.12644 0.08863 
-0.6971 0.80071 0.39312 -0.031228 -0.26897 -0.089595 0.13072 0.19895 
-1.1315 1.0896 0.6016 -0.022185 -0.22211 -0.096336 0.062323 0.21441 
-0.96822 0.89097 0.51857 0.022042 -0.24793 -0.11343 0.013986 0.16738 
-0.28854 -0.28114 0.28165 0.043087 -0.25319 -0.21258 -0.040106 0.069558 
0.31716 -1.2974 0.01563 0.11313 -0.085978 -0.21455 -0.0036066 0.011191 
0.50394 -0.82551 -0.29429 0.11559 0.18054 -0.15733 0.066927 -0.028926 
0.40562 0.50328 -0.58974 0.082711 0.35334 -0.07003 0.16459 -0.041751 
0.11115 1.4922 -0.73031 0.068407 0.38359 0.067749 0.19024 0.02533 
-0.25647 1.7856 -0.65781 0.025988 0.27129 0.11905 0.15176 0.090109 
-0.40774 1.79 -0.31353 0.025495 0.11428 0.11132 0.091918 0.088794 
-0.36006 1.1649 0.056569 0.065283 -0.00097594 0.11 0.038319 0.068736 
-0.083018 -0.58892 0.44738 0.049992 -0.025145 0.085177 0.052294 0.033222 
0.31157 -2.6826 0.75418 0.036675 -0.078579 0.1202 -0.035174 -0.034845 
0.54866 -3.0538 0.77703 -0.053917 -0.085485 0.1733 -0.10817 -0.1307 
0.55737 -0.80759 0.60127 -0.048985 -0.054739 0.22657 -0.1016 -0.14171 
0.53863 -0.57034 0.5041 -0.071181 -0.022843 0.22378 -0.081045 -0.15059 
0.42584 -2.0469 0.49901 -0.14517 0.005765 0.16294 -0.1307 -0.12231 
0.14634 -1.6007 0.30483 -0.14319 0.074654 0.12661 -0.089266 -0.053095 
-0.21159 1.0269 -0.15092 -0.039449 0.13138 0.11017 0.035524 0.029605 
-0.48945 2.7597 -0.63709 0.08978 0.12694 0.078765 0.14601 0.13056 
-0.52381 2.6265 -0.67326 0.18794 0.065118 0.025988 0.17873 0.18728 
-0.32536 1.4743 -0.37403 0.13516 0.020727 -0.052766 0.1881 0.19583 
-0.14665 0.35597 -0.18627 0.097672 -0.028269 -0.19531 0.14667 0.18415 
-0.0091966 -0.041586 -0.14517 0.096028 -0.091897 -0.45246 0.022371 0.14453 
0.015959 -0.082854 -0.10456 0.027796 -0.049971 -0.54617 -0.058685 0.056404 
-0.024158 -0.1358 -0.010183 0.034373 -0.0503 -0.29232 -0.070687 0.037661 
-0.11968 -0.29413 0.13516 0.03536 -0.10258 0.16344 -0.028104 0.044238 
0.022206 -0.36186 0.23381 0.0085601 -0.063618 0.37323 0.020398 0.1516 
0.18958 -0.34427 0.08156 0.011026 0.042265 0.27902 0.10228 0.21375 
0.19205 -0.35003 -0.0031133 0.0060938 -0.0049219 0.13335 0.14486 0.14601 
0.099152 -0.21932 0.15374 -0.016102 -0.21504 -0.0047575 0.11773 -0.036983 
-0.032708 0.33114 0.52548 -0.030899 -0.22524 -0.031064 0.055747 -0.11541 
-0.109 1.2887 0.75105 -0.040764 -0.035832 -0.03764 0.030756 -0.12034 
-0.10275 1.5481 0.68216 0.048019 0.30977 0.033222 -0.0016336 -0.12429 
-0.1016 0.51463 0.28083 0.081889 0.51331 0.1105 -0.027118 -0.043066 
-0.13497 0.064461 -0.29445 0.08863 0.38704 0.11362 0.0032988 0.045882 
-0.080881 -0.29084 -0.71486 0.087808 0.14617 0.057391 0.03947 0.1128 
0.17462 -1.0282 -0.96082 0.099481 -0.0057439 -0.052931 0.012013 0.079258 
0.57382 -3.623 -1.1469 0.1276 -0.08384 -0.20189 -0.094527 0.010204 
1.0103 -4.6465 -1.0246 0.12217 -0.13892 -0.32372 -0.21965 -0.054575 
1.0677 -2.7057 -0.57478 0.055418 -0.17673 -0.29281 -0.21504 -0.076935 
0.80054 2.0011 -0.028926 0.017438 -0.1621 -0.17262 -0.072989 -0.028104 
0.45659 3.8691 0.24219 -0.086964 -0.098309 -0.060329 0.072188 0.029605 
0.13171 2.4085 0.46168 -0.074962 -0.0052507 0.03947 0.15078 0.13056 
-0.054082 0.65158 0.89886 -0.073976 0.020233 0.084355 0.15292 0.15012 
-0.22425 -0.1695 1.2233 -0.13448 -0.019555 0.040292 0.12398 0.090931 
-0.75531 0.20553 1.0299 -0.075455 -0.012485 0.0072447 0.16755 0.10047 
-1.6007 1.0319 0.40989 0.050979 0.028947 0.015959 0.15308 0.088794 
-1.5129 1.2121 -0.10883 0.1026 0.033222 0.0037921 0.094877 0.038483 
-0.61062 0.89886 -0.4153 0.13565 0.050979 0.00297 0.012835 0.0072447 
0.14321 0.49966 -0.44621 0.11444 0.095535 0.030756 0.017932 -0.016595 
0.38227 0.12447 -0.2402 0.076463 0.088958 0.029112 0.057555 0.027961 
0.42666 -0.065919 -0.03057 0.037004 0.048019 -0.023665 0.025988 0.06594 
0.62396 -0.28706 0.10326 -0.021199 0.0092177 -0.041751 -0.03205 0.10885 
0.79791 -0.59056 0.11329 -0.011663 -0.048985 -0.024158 -0.057534 0.10343 
0.84066 -0.71371 0.073175 -0.0014692 -0.064604 -0.03501 -0.02794 0.09126 
0.67822 -0.67918 0.054432 0.0046141 -0.043066 -0.011498 -0.016431 0.036839 
0.35284 -0.77421 0.0024767 0.031414 0.04917 0.0023123 -0.013307 -0.019555 
-0.13333 -0.29067 -0.019884 0.070051 0.087643 0.022206 0.021549 -0.0013048 
-0.50014 0.38885 -0.08121 0.11444 0.14601 0.094877 0.046375 0.044402 
-0.55965 0.86647 -0.13481 0.10622 0.19764 0.14946 0.039305 0.017767 
-0.47317 1.268 -0.1598 0.050157 0.16837 0.17725 0.092082 -0.0036066 
-0.38044 1.4965 -0.18972 0.046704 0.090438 0.17676 0.15259 -0.069701 
-0.11146 1.3329 -0.059836 0.049499 0.019411 0.11822 0.17708 -0.13284 
0.13335 0.80876 0.15522 0.039963 -0.015773 0.0044497 0.23529 -0.18479 
0.25715 0.067091 0.51775 0.020562 -0.082196 -0.16046 0.26242 -0.19597 
0.21737 -0.61703 0.79413 -0.1039 -0.11261 -0.23905 0.11247 -0.069043 
-0.1233 -1.6308 0.71455 -0.079895 -0.095678 -0.15635 -0.098638 0.082875 
-0.29281 -3.2708 0.59289 -0.014129 -0.082032 -0.066413 -0.15881 0.14683 
-0.10965 -2.9481 0.27392 -0.040106 -0.042901 -0.018239 -0.18282 0.093891 
0.05624 -0.50441 -0.34427 0.0024767 0.052787 0.041278 -0.13168 0.020233 
0.092411 1.546 -0.91018 0.052294 0.071366 0.12266 -0.11261 -0.029748 
0.087643 1.9441 -1.1106 0.14108 0.027468 0.091918 -0.038791 -0.073318 
0.14354 0.91629 -0.74725 0.16212 -0.012649 -0.001798 0.048677 -0.081539 
0.13384 0.88423 -0.10341 0.074654 -0.009361 0.0047785 0.10787 -0.083512 
0.045882 0.68216 0.41253 0.019247 0.057062 0.057884 0.10737 -0.011663 
-0.043724 -0.15569 0.48717 0.022206 0.12727 0.14913 0.10474 0.10047 
-0.097816 -0.28048 0.26209 0.090767 0.15785 0.17955 0.10474 0.11822 
-0.033694 0.18267 0.091589 0.13615 0.21671 0.16738 0.10803 0.12727 
0.010533 1.0976 0.079751 0.12677 0.28987 0.15637 0.10113 0.094548 
-0.066741 1.6544 0.25847 0.073668 0.22838 0.14535 0.095699 0.08567 
-0.15388 1.2621 0.4122 -0.023665 0.1248 0.10491 0.064625 0.020233 
0.047033 -0.80183 0.45856 -0.14796 0.0034632 0.012999 0.015137 -0.038791 
0.54389 -2.7705 0.47566 -0.19663 -0.089595 -0.091075 -0.0052507 -0.072989 
0.65734 -1.9802 0.2634 -0.15585 -0.067892 -0.055232 0.06035 -0.060823 
0.18991 0.016288 0.0092177 -0.048492 0.042265 0.09981 0.079916 0.0041209 
-0.29807 1.0865 -0.089595 0.056076 0.13187 0.24877 -0.019719 0.00297 
-0.53581 1.1052 -0.088444 0.069722 0.069393 0.22805 -0.087458 -0.050629 
-0.45755 0.78591 -0.15569 0.087314 0.00066819 0.15522 -0.18117 -0.012485 
-0.22885 0.5018 -0.16835 0.10639 -0.043724 0.062159 -0.14977 0.088136 
0.034702 -0.38883 -0.12215 0.040128 -0.12445 0.0065871 -0.028269 0.15078 
0.25699 -0.98548 -0.21817 0.037661 -0.14418 -0.022185 0.077285 0.14749 
0.3198 -0.58547 -0.44588 0.029605 -0.099624 -0.069701 0.11132 0.10343 
0.23841 0.031085 -0.51756 0.019411 -0.072167 -0.098144 0.096357 0.083533 
0.15028 0.079258 -0.30366 0.051965 0.018096 -0.047669 0.029934 0.050486 
0.10162 -0.0057439 0.014972 0.049006 0.15735 0.0023123 -0.046519 -0.0034422 
0.066269 -0.52233 0.36073 0.10885 0.19813 0.043909 -0.076113 -0.001798 
0.10688 -1.3446 0.54422 0.058542 0.035195 0.036839 -0.06707 0.013821 
0.10014 -0.90821 0.44212 -0.0057439 -0.098309 0.026646 0.018918 0.052623 
0.00017495 0.30418 0.3849 -0.027611 0.0070803 0.027632 0.075476 0.06742 
-0.01939 1.4478 0.32604 -0.0057439 0.2685 0.10622 0.11378 0.10967 
0.022206 1.5156 0.21358 0.00099702 0.31651 0.12349 0.098988 0.087314 
0.12168 0.60604 0.18021 0.0018191 0.16623 0.059035 0.062323 0.090274 
0.077285 0.015465 0.19501 -0.040106 -0.040435 0.043745 0.042758 0.05213 
-0.053753 0.29596 0.08863 -0.0503 -0.072989 0.041278 0.027961 0.0080668 
-0.13103 0.7453 -0.18643 0.0052718 0.019083 -0.0096899 0.0074092 0.029112 
-0.1279 0.82668 -0.47169 0.092904 0.16574 0.021713 0.026974 0.025001 
-0.034352 0.34216 -0.59369 0.18202 0.20487 0.094055 0.0080668 0.029934 
0.089945 0.11329 -0.53762 0.15505 0.12447 0.11674 -0.0078813 0.038155 
0.23003 -0.23066 -0.48189 0.1613 0.026317 0.042594 0.01415 0.043087 
0.45938 -1.6341 -0.47087 0.11329 -0.073318 -0.027282 -0.05326 0.047033 
0.50772 -2.9004 -0.3765 0.030427 -0.1353 -0.081868 -0.072496 0.044896 
0.29661 -1.9049 -0.18052 -0.072989 -0.17706 -0.11393 -0.070359 0.026152 
0.0095465 0.28445 0.15966 -0.098309 -0.14944 -0.071509 -0.0088678 0.072681 
-0.13218 1.508 0.45379 -0.074633 -0.049478 0.041772 0.046868 0.13943 
-0.027447 1.4247 0.50871 0.022042 0.015959 0.071859 0.051143 0.15374 
0.030263 1.1391 0.40085 -0.018404 0.053938 0.019905 0.050157 0.070544 
-0.11738 1.0066 0.32423 -0.019061 0.039141 -0.020377 0.08567 0.0088889 
-0.26256 0.87716 0.3027 0.049335 -0.023336 -0.038298 0.13269 -0.086636 
-0.21504 0.27606 0.30122 0.03536 -0.0044286 -0.037311 0.11987 -0.066084 
-0.071016 -0.65419 0.29037 0.034702 -0.00097594 -0.064933 0.086657 0.013657 
0.010862 -0.67129 0.25617 0.028783 0.028947 -0.10949 0.079751 0.071859 
0.085999 -0.51937 0.18235 0.030098 0.033715 -0.14171 0.08304 0.080738 
0.17199 -1.1693 0.086821 0.077449 0.025166 -0.078908 0.028783 0.055747 
0.19533 -1.5198 -0.14254 0.047362 -0.0055795 -0.0067304 0.0095465 0.049335 
0.095206 -0.87566 -0.28426 0.047362 0.00050378 0.068736 0.023028 0.032564 
-0.10028 0.34133 -0.30366 0.053116 0.019576 0.063639 0.052459 0.038483 
-0.14698 1.2303 -0.21258 0.015794 0.020891 0.045553 0.0070803 0.071202 
-0.079895 1.666 -0.25384 0.038483 0.056569 0.043251 -0.0060728 0.014643 
0.10096 1.8229 -0.41694 0.036839 0.07597 0.046868 0.0098754 0.017767 
0.18892 1.5989 -0.35808 0.05476 0.070544 0.12875 0.053445 0.019411 
0.18892 0.73231 -0.0049219 0.01267 0.081889 0.1396 0.033222 0.029276 
0.21769 -0.51987 0.38803 -0.10554 0.089452 0.069229 -0.011992 -0.023007 
0.24334 -1.7918 0.67345 -0.087458 0.096357 -0.034516 0.00297 -0.073482 
0.10606 -1.4255 0.60292 0.0018191 0.11 -0.011498 0.019083 -0.024158 
-0.040764 -0.37403 0.29875 0.005765 0.092576 -0.037969 0.034537 -0.0022913 
-0.048492 -0.15668 0.11132 0.041443 0.00099702 -0.10045 0.023686 0.0014903 
-0.013143 -0.61358 -0.13826 0.023193 -0.10604 -0.11557 0.045553 -0.035832 
-0.051122 -1.0343 -0.54157 0.14634 -0.099953 -0.042244 0.097344 -0.063124 
-0.17361 -0.49307 -0.78589 0.2925 -0.052602 0.02829 0.15226 0.020727 
-0.2157 0.71801 -0.68395 0.27064 -0.077757 0.049499 0.11987 0.044402 
-0.15964 1.1958 -0.15372 0.085012 -0.14451 0.074654 0.088301 0.046211 
-0.050136 1.2492 0.39312 -0.057534 -0.091732 0.051308 0.040785 0.064625 
0.079916 1.3671 0.68085 -0.121 0.024837 0.035195 -0.00064712 0.089287 
0.25091 0.78903 0.62396 -0.037476 0.10244 0.03092 -0.0029489 0.096028 
0.40167 -0.71798 0.59305 -0.084169 0.15735 0.049828 0.0060938 0.025001 
0.34955 -0.51132 0.70222 -0.0965 0.092247 -0.018733 -0.026624 0.016616 
0.20421 0.46547 0.64714 -0.12248 0.03092 -0.050958 0.025659 0.032071 
0.015465 0.32407 0.41006 -0.12807 0.0052718 0.014479 0.023028 0.024673 
-0.19679 -0.77734 0.11395 -0.041915 0.024837 0.037168 0.070051 0.037168 
-0.39212 -1.506 -0.12346 0.030756 0.044073 0.038155 0.069886 0.034373 
-0.1963 -0.82814 -0.3714 0.093398 0.048841 0.077285 0.049006 0.023851 
0.27294 0.19254 -0.67047 0.13615 -0.0040998 0.019247 0.0041209 -0.010348 
0.4219 0.89705 -0.87483 0.14289 -0.12363 -0.079237 -0.016595 -0.03353 
0.13631 1.0519 -0.6879 0.13203 -0.23148 -0.194 0.0019835 -0.009361 
-0.27999 0.74102 -0.18923 0.082546 -0.25269 -0.23938 0.043745 -0.031064 
-0.84392 0.6039 0.16804 0.045882 -0.1187 -0.19104 0.058213 -0.030406 
-0.89982 0.45379 0.35416 0.086492 0.071037 -0.034352 0.033222 -0.024158 
-0.53631 0.20027 0.40973 0.095206 0.24038 0.15341 0.028783 -0.0064016 
-0.099624 0.33558 0.33328 0.05624 0.32867 0.22065 0.061172 0.056569 
0.30681 0.36386 0.17495 0.026974 0.36337 0.25288 0.051472 0.061337 
0.55162 0.00050378 0.21408 -0.038298 0.31881 0.21934 0.011684 0.073668 
0.69861 -0.94208 0.2948 -0.076606 0.24663 0.20125 -0.038298 0.049006 
0.61722 -1.4432 0.28297 -0.032379 0.17067 0.19731 -0.017911 0.028125 
0.39148 -0.68313 0.25765 -0.06707 0.11214 0.1659 -0.028597 0.02122 
0.13927 0.56527 0.15308 -0.062796 -0.00081153 0.084026 -0.041586 -0.018075 
-0.089266 1.3176 0.11444 -0.11179 -0.018404 -0.010512 -0.034352 -0.022185 
-0.182 0.97778 0.34084 -0.088444 -0.034681 0.053938 -0.003771 0.0019835 
-0.22721 0.39658 0.13549 0.036017 0.020727 0.20224 0.047033 0.073339 
-0.31829 0.43965 -0.27045 0.11888 0.080902 0.28609 0.086163 0.15012 
-0.34756 -0.25286 -0.32125 0.20684 0.079094 0.3096 0.15242 0.22033 
-0.30284 -1.644 -0.1085 0.25271 0.011026 0.16344 0.15851 0.2491 
-0.2231 -1.4056 0.0070803 0.15489 -0.11952 -0.043559 0.13417 0.15045 
0.007738 0.063803 0.061008 0.065283 -0.21258 -0.22869 0.050157 0.04358 
0.40134 0.65257 -0.28163 -0.048492 -0.30761 -0.31698 -0.04882 -0.05589 
0.69186 -0.44522 -0.82535 -0.056877 -0.32339 -0.29758 -0.11491 -0.10308 
0.61788 -1.8417 -0.94898 0.057227 -0.21307 -0.21636 -0.1113 -0.11442 
0.34824 -2.4757 -0.40067 0.045718 0.021056 -0.074962 -0.10456 -0.13349 
0.025001 -0.74067 0.28954 0.034537 0.14897 -0.010019 -0.084827 -0.11146 
-0.19844 2.2137 0.51939 0.039305 0.20503 0.041772 -0.05885 -0.058685 
-0.25779 2.811 0.40578 0.033058 0.37701 0.090274 -0.0052507 0.016781 
-0.11985 1.5325 0.2708 0.034044 0.55557 0.23529 0.026481 0.1299 
0.11378 0.13023 0.17297 -0.02794 0.5702 0.29267 0.028947 0.13072 
0.14634 -0.19285 0.07301 -0.046354 0.3826 0.21539 0.049499 0.12398 
0.018589 0.10474 -0.019884 -0.034352 0.037661 0.097837 0.064625 0.098823 
-0.045368 0.17528 -0.046847 -0.049478 -0.23296 0.026152 0.093233 0.073997 
0.017767 -0.037805 -0.011992 -0.035503 -0.2596 0.0093821 0.076792 0.072353 
0.07449 -0.11771 0.023028 -0.00081153 -0.21734 0.040456 0.064296 0.06479 
0.11411 -0.12379 0.025659 0.023522 -0.12067 0.022206 0.075148 0.052623 
0.34396 -0.1473 -0.0138 0.042265 -0.1621 -0.077264 0.098166 0.020891 
0.46678 -0.069865 -0.15026 0.068407 -0.14698 -0.10982 0.064461 0.017274 
0.34018 0.0062583 -0.11853 0.097837 -0.079072 -0.1501 0.042923 0.0069159 
0.040456 0.13253 0.026317 0.1105 0.043416 -0.12593 0.012506 -0.032708 
-0.29084 0.25847 0.0051074 0.022206 0.13286 0.0065871 -0.00097594 -0.004593 
-0.63002 -0.05326 -0.08384 0.0324 0.22394 0.171 -0.026624 0.037826 
-0.61046 -1.1325 -0.092883 0.03536 0.26735 0.19122 -0.027775 0.0039565 
-0.016431 -1.7776 0.025001 0.034702 0.26126 0.040128 -0.035503 -0.039613 
0.51528 -1.217 0.13943 0.056076 0.1909 -0.06855 -0.048163 -0.084169 
0.59733 -0.025638 0.30911 0.020233 0.10425 0.064625 -0.038298 -0.07562 
0.35219 1.0935 0.38852 -0.0064016 0.0026412 0.20799 0.018425 -0.023501 
0.0088889 1.8761 0.28445 -0.012814 -0.20567 0.20947 0.073997 0.068571 
-0.34148 1.6765 0.086328 -0.03501 -0.31221 -0.014951 0.048677 0.11263 
-0.48797 1.099 -0.0016336 0.044567 -0.18907 -0.093048 0.018425 0.1516 
-0.24086 0.78936 0.015137 0.078107 0.044402 -0.061645 0.01711 0.21621 
0.24729 -0.47531 0.1225 0.078272 0.20767 -0.10653 0.063145 0.17528 
0.38162 -1.5599 0.18202 0.049499 0.1687 -0.17328 0.11707 0.13927 
0.060844 -1.2758 0.045389 0.044731 0.02533 -0.18167 0.11494 0.08008 
-0.27111 -0.038462 -0.15552 0.076627 -0.13152 -0.16884 0.073339 0.095864 
-0.18907 0.55392 -0.291 0.019083 -0.20419 -0.14139 0.0039565 0.066269 
0.10869 -0.13119 -0.16555 -0.073154 -0.21291 -0.095678 -0.046847 -0.021363 
0.24121 0.36731 0.044567 -0.096665 -0.12626 -0.03912 -0.037476 -0.076442 
0.25946 1.3895 0.20865 -0.092226 0.011355 0.026317 0.0064227 -0.17821 
0.18761 1.5952 0.30187 0.0013258 0.13467 0.01563 0.035688 -0.2476 
-0.043066 1.4534 0.34051 0.094548 0.19139 0.022371 0.078272 -0.12478 
-0.10817 0.27919 0.35087 0.097179 0.13598 0.060186 0.071037 0.038977 
-0.027611 -1.858 0.13088 0.084848 0.061008 0.062159 0.06035 0.075148 
-0.045368 -2.2405 -0.42105 0.077614 0.0026412 0.047855 0.025988 0.052459 
-0.11837 -0.7147 -0.76698 0.095535 0.0095465 0.020562 0.083204 0.069722 
-0.16144 0.35169 -0.50227 0.13582 0.020891 0.051965 0.1174 0.091753 
-0.14829 1.0093 -0.019884 0.06479 0.031414 0.060022 0.11806 0.078436 
-0.1672 1.1891 0.38589 0.0019835 0.028125 0.061337 0.041443 0.071366 
-0.26223 0.90314 0.45774 -0.014622 0.029276 0.051801 0.017603 0.056404 
-0.30596 -0.085978 0.41006 -0.049478 0.010697 0.046704 0.039963 0.071531 
-0.086307 -0.85921 0.36978 -0.035503 -0.047012 0.011026 -0.0039354 0.089452 
0.010697 -0.33424 0.24055 -0.024323 -0.090581 0.0064227 0.019083 0.069229 
-0.033201 0.38079 0.087808 0.0037921 -0.10982 -0.012649 0.040621 0.097672 
-0.0050863 0.59897 -0.025145 0.040456 -0.077264 -0.023665 0.049006 0.013657 
0.038155 0.38014 -0.043888 0.042265 0.00066819 -0.0016336 0.034044 0.0013258 
0.18448 -0.57741 -0.066084 0.056076 0.04506 0.02533 -0.0064016 -0.021034 
0.46382 -1.2823 -0.023172 0.062323 0.0070803 0.024837 -0.099131 -0.035667 
0.71866 -1.2604 0.039634 0.047033 -0.023501 -0.049971 -0.13267 -0.021856 
0.63613 -0.38209 -0.001798 0.045389 -0.0055795 -0.050793 -0.068714 0.018096 
0.18284 0.70189 -0.037311 0.036182 0.081889 -0.059507 -0.0050863 0.016288 
-0.1062 0.84658 -0.07003 0.0036276 0.12891 -0.020377 0.034537 -0.028433 
-0.24118 0.3877 -0.07973 0.0079024 0.11214 0.051965 0.077943 -0.034352 
-0.26437 -0.17131 -0.13777 -0.024816 0.11395 0.16426 0.19944 0.0019835 
-0.2106 -0.19696 -0.21208 -0.0060728 0.15522 0.26784 0.2297 0.020727 
-0.099624 0.17824 -0.25483 -0.00015387 0.18136 0.30598 0.10606 0.039799 
0.04095 0.15604 -0.19416 0.015137 0.14141 0.33081 0.0046141 0.076956 
0.16212 0.069229 -0.039778 0.081067 0.092411 0.19698 0.031414 0.083533 
0.24252 0.50394 0.13943 0.046868 -0.11064 -0.14402 0.096521 0.0042853 
0.18761 0.80843 0.25485 -0.0027845 -0.22885 -0.39425 0.2006 -0.080552 
0.049335 0.32078 0.36452 -0.039778 -0.13366 -0.33063 0.13861 -0.059178 
-0.10505 0.46152 0.42601 -0.049642 0.081889 0.045389 0.035853 0.021549 
-0.18315 1.4756 0.42173 0.005765 0.21802 0.33426 -0.14928 0.052952 
-0.080059 2.0113 0.22197 -0.0054151 0.17166 0.3341 -0.28245 -0.0039354 
0.011848 1.8867 -0.17904 0.00083261 0.049664 0.19501 -0.17772 -0.012649 
-0.065262 1.3961 -0.51082 0.11214 -0.085485 0.0018191 0.0079024 0.038155 
-0.0060728 -1.0323 -0.56656 0.10474 -0.14007 -0.11261 0.12497 0.01415 
0.30023 -4.6486 -0.50425 0.11576 -0.047341 -0.1307 0.091096 0.0028056 
0.45034 -4.6496 -0.67063 0.22838 0.0786 -0.06148 0.043416 0.032729 
0.41696 -3.3777 -0.34427 0.19172 0.13828 0.033551 -0.02087 0.11954 
0.37323 -0.91709 0.44557 0.0037921 0.13878 0.1151 -0.04619 0.20882 
0.43456 0.91021 0.92846 -0.18857 0.090767 0.089287 0.005765 0.1659 
0.69104 1.6417 0.98189 -0.21537 -0.0014692 0.042429 0.076792 0.065447 
0.82225 1.6835 0.86286 -0.16259 -0.0059084 0.0088889 0.086163 -0.059507 
0.54554 2.1471 0.5748 -0.11097 0.083533 0.057555 0.049664 -0.092883 
0.046868 2.2418 0.24712 -0.00064712 0.21753 0.068571 0.078272 -0.073976 
-0.57346 1.1795 -0.056055 0.077614 0.21885 0.097344 0.070544 -0.035338 
-1.2573 0.40332 -0.42944 0.12727 0.14223 0.12743 0.044073 -0.01528 
-1.2793 0.17659 -0.74511 0.21408 0.063474 0.10524 0.025001 -0.00081153 
-0.57889 -0.51658 -0.66685 0.17495 -0.035667 0.051308 0.00017495 0.0098754 
0.26242 -0.55801 -0.33013 0.088136 -0.066906 0.0072447 -0.078086 0.045882 
0.59157 0.16426 -0.069043 0.012506 -0.094199 -0.10341 -0.10291 0.02829 
0.44541 0.44228 0.09422 -0.07414 -0.10801 -0.14977 -0.1718 0.015137 
0.2006 0.32078 0.057555 -0.064768 -0.042244 -0.10916 -0.051122 0.007738 
-0.047012 0.035853 -0.046354 0.015137 0.037168 -0.0068948 0.083368 0.056404 
-0.15421 -0.34065 0.077778 0.0018191 0.093562 0.0786 0.19353 0.15324 
-0.086307 -0.84343 0.31174 0.022535 0.066927 0.11247 0.14239 0.17478 
0.012013 -0.98318 0.39148 0.0047785 0.066105 0.091425 0.067091 0.1419 
0.074654 -0.60224 0.28593 0.0064227 0.026481 0.00297 0.026317 0.071366 
0.095699 -0.24151 0.23496 0.039634 -0.040271 -0.097816 0.0088889 0.06331 
0.16738 -0.18611 0.15374 0.045553 -0.22096 -0.20452 0.019411 0.074654 
0.095371 -0.20386 0.069722 0.024015 -0.35118 -0.26174 0.037332 0.082382 
0.016123 -0.066248 -0.11574 0.040785 -0.33178 -0.16753 0.079916 0.041278 
0.22542 0.11313 -0.30136 0.017274 -0.14089 -0.041915 0.0052718 -0.014951 
0.41532 0.21474 -0.28706 0.043416 0.1299 0.036182 -0.06444 -0.040106 
0.15999 0.50986 -0.11064 0.06331 0.43373 0.060679 -0.043724 -0.023336 
-0.2254 0.67082 0.076956 0.089616 0.62084 0.11642 0.048513 0.004943 
-0.53927 0.62034 0.1373 0.11757 0.61147 0.2394 0.090274 0.041278 
-0.86809 0.37586 0.14864 0.092411 0.40809 0.26603 0.10408 0.0083956 
-0.81269 0.34002 0.18185 0.12924 0.14881 0.19813 0.051965 0.0024767 
-0.38094 0.59881 0.32588 0.095864 -0.074962 0.13549 -0.012814 -0.03353 
0.23298 0.82619 0.44952 -0.022679 -0.1547 0.10178 -0.051615 -0.13152 
0.55951 1.1151 0.34183 -0.12889 -0.16309 0.10737 -0.023172 -0.13251 
0.43587 0.7818 0.086492 -0.15158 -0.22293 0.048841 0.063639 0.013821 
0.03799 0.90988 -0.20896 -0.029255 -0.27144 0.032071 0.13072 0.18596 
-0.19794 0.73346 -0.33178 0.076134 -0.21044 -0.035667 0.15308 0.1909 
-0.24908 -0.56196 -0.30317 0.098001 -0.14615 -0.11903 0.093398 0.17215 
-0.0965 -1.7194 -0.41217 0.090603 -0.055726 -0.16539 0.0082312 0.1054 
0.10688 -1.9716 -0.34559 0.047362 0.014643 -0.19285 -0.080881 -0.00064712 
0.22772 -1.2747 -0.11327 0.00050378 0.078765 -0.14714 -0.1062 -0.058521 
0.14831 -0.51937 -0.026296 0.025824 0.10113 -0.062467 -0.088608 -0.12133 
0.027139 0.0021479 -0.2208 0.013986 0.10589 0.0039565 0.017932 -0.075455 
0.052623 0.18383 -0.36926 0.094384 0.13795 0.077121 0.053609 -0.0027845 
0.05772 0.4316 -0.096665 0.13779 0.1368 0.12612 0.095699 0.031414 
-0.02942 0.60341 0.22887 0.094055 0.15818 0.16574 0.11395 0.063145 
-0.145 1.0722 0.4436 0.077285 0.088301 0.12858 0.11296 0.019411 
-0.18874 1.8852 0.61393 0.012506 -0.0055795 0.040785 0.074326 -0.00097594 
-0.17575 1.8411 0.69039 -0.05885 -0.040106 0.014479 0.06479 -0.0022913 
-0.099789 0.8497 0.57283 -0.05326 -0.018733 0.093069 0.070708 0.0072447 
-0.089759 0.3951 0.20175 -0.011334 0.098659 0.19862 0.085999 0.075641 
-0.076606 0.31947 -0.018568 0.04654 0.15555 0.27392 0.072517 0.06331 
0.067585 -0.17789 0.034866 0.038483 0.15637 0.26801 0.081395 0.069393 
0.34281 -0.85165 0.056076 -0.031721 0.014315 0.21112 0.044731 0.048841 
0.62018 -1.2508 -0.02794 -0.036489 -0.075291 0.10902 -0.028104 0.030263 
0.64682 -1.1899 -0.15372 -0.055068 -0.11376 1.0539e-005 -0.10275 0.010697 
0.53863 -1.5055 -0.23839 -0.0082102 -0.11212 -0.084991 -0.10768 -0.056877 
0.30582 -1.0591 -0.33063 0.071366 0.00297 -0.16259 -0.076771 -0.096994 
-0.075291 0.041443 -0.37979 0.10474 0.091918 -0.17657 -0.010183 -0.064933 
-0.43437 0.53468 -0.11985 0.097837 0.10376 -0.22425 0.0014903 -0.0073881 
-0.53351 0.46284 0.14765 0.012177 0.063803 -0.14993 0.022535 0.051143 
-0.47942 0.057062 0.19862 -0.011663 0.027796 -0.084663 0.025988 0.090931 
-0.49142 -0.46331 0.10672 0.031742 0.015959 -0.0031133 0.034209 0.12546 
-0.42648 -0.4952 0.041114 0.049006 -0.0032777 0.057227 0.065776 0.1031 
-0.13234 -0.2111 -0.00064712 0.034537 -0.029913 0.13154 0.14749 0.11658 
0.30746 0.23019 0.049664 0.015959 -0.13218 0.15571 0.15308 0.12003 
0.70979 0.66704 0.13319 0.02533 -0.18348 0.092082 0.091753 0.049006 
1.024 0.66539 0.15949 0.060844 -0.07414 0.0056006 -0.017911 -0.018568 
1.02 0.46645 0.20553 0.044402 0.023686 -0.10324 -0.11623 -0.10012 
0.49292 0.24548 0.18119 0.041278 0.11559 -0.16128 -0.10801 -0.071016 
-0.051615 0.0054362 0.058213 0.12447 0.20914 -0.086307 -0.0068948 -0.00031829 
-0.29561 -0.28443 -0.073154 0.12497 0.24712 0.071037 0.10441 0.10441 
-0.35792 -0.59533 -0.1501 0.080573 0.15785 0.12283 0.13401 0.12891 
-0.34657 -0.26585 -0.20534 0.0060938 0.030098 0.047691 0.093233 0.095371 
-0.22244 0.60719 -0.41349 -0.098967 -0.1187 -0.09091 0.082053 0.042923 
-0.042079 0.75303 -0.52102 -0.092554 -0.1524 -0.10193 0.12168 0.015794 
0.14272 -0.37732 -0.22376 -0.093541 -0.11919 -0.10538 0.042758 0.03947 
0.1567 -1.205 0.24959 -0.077428 -0.088937 -0.095021 -0.0036066 0.059857 
0.13154 -1.3043 0.58845 0.00017495 -0.034188 -0.064111 0.0039565 0.060679 
0.27343 -1.2461 0.7328 -0.02646 -0.012485 -0.073811 -0.028433 0.051801 
0.38721 -0.3349 0.66128 -0.026789 0.019411 -0.091239 -0.093048 0.0044497 
0.34923 0.31305 0.63333 0.032729 0.030263 -0.091897 -0.092719 -0.025638 
0.20421 0.621 0.35925 0.069229 0.08715 -0.032708 -0.011334 0.022535 
0.11395 0.55359 -0.12067 0.12365 0.092247 0.039634 0.079916 0.081231 
0.027961 0.94704 -0.4735 0.094877 0.059035 0.067091 0.10967 0.10145 
-0.089924 1.4314 -0.65715 0.080244 0.031742 0.057062 0.09274 0.026152 
-0.21471 1.6105 -0.77043 0.10885 0.018096 0.061172 0.087314 0.0090533 
-0.45936 1.5582 -0.68231 0.10228 0.04095 0.05624 0.083862 0.012506 
-0.60454 0.81912 -0.47482 0.10359 0.052459 0.091589 0.091753 0.061172 
-0.37798 -0.48928 -0.061973 0.055418 0.077285 0.066598 0.066763 0.10573 
-0.010019 -0.92235 0.31256 -0.009361 0.070708 0.036017 0.054925 0.11346 
0.23446 -0.425 0.44903 -0.0021268 0.061501 -0.012978 0.004943 0.081724 
0.35202 -0.16605 0.46185 -0.05441 0.0039565 -0.025309 -0.023007 0.027139 
0.38688 -0.81762 0.34216 -0.018733 0.033387 -0.020706 0.012506 0.0034632 
0.29957 -0.62641 0.20158 0.03536 -0.016431 -0.026953 0.0023123 0.0031344 
0.12694 -0.44835 0.0088889 -0.0029489 -0.062138 0.061337 0.034209 0.013821 
0.16755 -0.25631 -0.1792 0.0075736 -0.08532 -0.013965 0.068242 0.0044497 
0.40496 -0.55735 -0.17657 0.01004 -0.037969 -0.063453 0.076134 -0.032708 
0.4944 -0.4541 0.033058 0.0059294 -0.00015387 -0.040106 -0.0040998 -0.062467 
0.37142 0.42486 0.26274 0.042594 0.1105 0.03947 -0.041257 -0.060987 
0.072846 0.88916 0.47681 0.0324 0.24038 0.14387 -0.047834 -0.10817 
-0.3081 1.5042 0.55573 0.038648 0.19336 0.19731 -0.0090322 -0.10143 
-0.72686 1.1919 0.48207 0.011848 0.098988 0.1858 0.0036276 -0.039284 
-0.75136 0.31897 0.093069 -0.052602 0.13615 0.19484 -0.027775 0.10852 
-0.36186 0.076956 -0.3492 -0.029748 0.20306 0.17626 -0.01528 0.19747 
-0.066741 -0.23214 -0.45098 0.0013258 0.15555 0.21786 0.034537 0.22624 
0.098166 -0.86168 -0.24464 0.025495 -0.030899 0.14782 0.069393 0.22822 
0.2149 -1.2947 0.13894 0.032729 -0.16917 0.015794 0.035853 0.087643 
0.24795 -0.94997 0.44952 0.0023123 -0.14139 -0.10669 0.012835 -0.064933 
0.14502 0.1345 0.43028 0.043251 -0.033694 -0.082361 -0.011827 -0.14089 
-0.15668 0.87239 0.14831 0.19073 0.068078 -0.0078813 0.041936 -0.09798 
-0.32668 0.70716 -0.11886 0.20125 0.1322 0.090109 0.085341 -0.056383 
-0.21471 0.29119 -0.29215 0.13943 0.17166 0.12003 0.13121 -0.042244 
-0.02646 0.36106 -0.42779 0.015301 0.093891 0.066598 0.069229 -0.037805 
0.19435 -0.39623 -0.571 -0.048327 -0.092226 -0.013636 -0.008539 -0.021034 
0.38688 -1.0406 -0.6583 -0.052602 -0.16802 -0.030242 -0.073811 -0.029255 
0.49588 -0.38883 -0.6121 -0.035338 -0.068386 -0.050629 -0.10784 -0.0032777 
0.43357 -0.15914 -0.42418 0.061008 0.092082 -0.0021268 -0.12609 0.016452 
0.10787 -0.32931 -0.18643 0.086985 0.15801 0.076956 -0.059507 0.052787 
-0.31616 0.91991 -0.060823 0.10869 0.093562 0.11132 0.061501 0.063474 
-0.58727 1.6744 0.14157 0.11839 0.093726 0.10754 0.13845 0.081067 
-0.58925 1.41 0.35597 0.053445 0.14881 0.13056 0.13368 0.13697 
-0.40757 0.71439 0.55672 0.0082312 0.08567 0.12283 0.10376 0.1391 
-0.10949 -0.10932 0.72294 -0.010841 -0.022679 0.061172 0.073339 0.13516 
0.23693 -1.2252 0.7772 -0.076442 -0.06296 -0.0014692 0.0056006 0.053281 
0.46645 -2.1116 0.70748 -0.10456 -0.073482 -0.040764 -0.046025 -0.09239 
0.50871 -1.9582 0.46843 -0.052766 -0.063946 -0.087293 -0.092883 -0.2037 
0.35778 -0.7969 0.17922 -0.018733 -0.051122 -0.11212 -0.066906 -0.23247 
0.13072 0.54718 -0.14122 0.063803 -0.009361 -0.032872 -0.025802 -0.10538 
-0.047012 1.1943 -0.37584 0.069722 0.090274 0.097344 0.028783 0.040292 
-0.12297 1.1041 -0.437 0.0689 0.19073 0.17412 0.053116 0.10343 
-0.12379 0.76339 -0.38653 0.064625 0.20635 0.15587 0.070708 0.12201 
-0.13777 0.40924 -0.26223 0.060022 0.20832 0.13121 0.096521 0.12644 
-0.11755 0.17445 0.031085 0.048841 0.1271 0.015465 0.085506 0.11444 
-0.10916 0.16459 0.3124 0.0042853 0.065447 -0.082854 0.09685 0.11921 
-0.11475 0.31832 0.5041 -0.033365 0.025824 -0.065919 0.067256 0.09981 
-0.086964 0.40776 0.45774 -0.0503 0.029769 -0.03616 0.075476 0.12085 
-0.066248 0.30418 0.15176 -0.06855 0.029112 0.019411 0.065612 0.1225 
0.036017 0.088301 -0.15372 -0.017417 0.0082312 0.076792 0.074819 0.16393 
0.089287 0.027961 -0.32717 0.077778 -0.029913 0.09833 0.016781 0.1202 
0.17971 0.052459 -0.45426 0.070215 -0.012485 0.074983 0.0021479 0.03947 
0.22411 -0.22458 -0.54436 0.076134 -0.010676 0.10096 -0.01939 -0.0075525 
0.15966 -0.56853 -0.56672 0.12579 -0.11196 0.098988 0.005765 0.030098 
0.00050378 -0.27768 -0.45213 0.17166 -0.17082 0.014315 0.067256 0.076299 
-0.072496 0.61525 -0.13514 0.15653 -0.18035 -0.045039 0.10787 0.094548 
-0.054246 1.461 0.28724 0.024837 -0.10357 -0.06296 0.15883 0.10145 
-0.010841 1.4166 0.6695 -0.059343 -0.042408 -0.14796 0.12579 0.032071 
0.30681 0.45922 0.59798 -0.098473 -0.0004827 -0.23938 0.031742 -0.057699 
0.78903 -0.5955 0.25551 -0.14533 0.059035 -0.18167 -0.035996 -0.09387 
1.0978 -2.336 0.093562 -0.095349 0.077614 -0.09091 -0.087786 -0.10817 
0.98058 -3.5605 0.17955 -0.043395 0.076299 -0.0072237 -0.10538 -0.038627 
0.33295 -2.065 0.30138 0.048348 0.12562 0.045882 -0.075949 -0.0054151 
-0.56771 0.59766 0.24384 0.12431 0.13631 0.057555 -0.044546 0.024837 
-1.1825 2.5478 -0.075291 0.14552 0.13795 0.018425 -0.044874 0.067091 
-0.99831 2.8271 -0.22655 0.16344 0.12299 0.01563 -0.0011404 0.087643 
-0.49537 1.9937 -0.0039354 0.10918 0.054267 0.07038 0.080902 0.12069 
-0.06855 0.30467 0.28971 -0.010512 -0.027282 0.050321 0.1294 0.12283 
0.19106 -0.82781 0.3928 -0.053917 -0.070194 -0.033201 0.11642 0.098988 
0.2611 -1.1012 0.32276 -0.087458 -0.16243 -0.09239 0.086492 0.059528 
0.23479 -1.0157 0.32374 -0.038791 -0.21208 -0.083018 0.077614 0.022371 
0.070215 -0.36301 0.17988 -0.018075 -0.21389 -0.10784 0.095864 0.022864 
-0.088444 0.706 -0.12889 0.011191 -0.16802 -0.12166 0.082711 0.018918 
-0.16621 1.1757 -0.33227 0.10408 -0.043888 -0.068879 0.089616 0.038812 
-0.18348 0.66276 -0.23658 0.11543 0.098001 -0.044052 0.061501 0.042923 
-0.048327 -0.20863 -0.047176 0.073175 0.22871 -0.011498 0.027796 -0.018239 
0.24893 -0.45755 0.04506 0.085012 0.30368 0.098001 0.0041209 -0.011498 
0.73543 -0.71765 -0.018404 0.048513 0.26094 0.19517 -0.029748 -0.016595 
1.1593 -0.98581 -0.035503 0.034537 0.2075 0.25041 -0.022514 0.0018191 
1.13 -0.46544 0.061995 0.020727 0.16179 0.25765 -0.040764 -0.0503 
0.694 -0.10669 0.24564 -0.065755 0.058377 0.17626 -0.055397 -0.11442 
-0.083676 0.11214 0.35136 -0.04471 -0.014951 0.066927 -0.047341 -0.10308 
-0.89571 0.24071 0.30171 -0.023172 -0.059178 0.066434 -0.027775 -0.051615 
-1.5593 0.35383 0.12266 -0.036489 -0.16292 0.04095 0.019247 -0.0034422 
-1.3105 0.46612 -0.045203 0.0087245 -0.28311 -0.10406 0.015465 -0.054246 
-0.40132 0.73872 -0.32717 0.053609 -0.19597 -0.19515 0.018589 -0.064275 
0.26817 1.0079 -0.70532 0.22279 -0.026131 -0.060658 0.08715 0.050321 
0.45692 0.88883 -0.77882 0.33673 0.065447 0.1197 0.12447 0.15982 
0.47582 0.46941 -0.31402 0.23644 0.1322 0.10195 0.080244 0.19533 
0.38934 -0.23461 0.22033 0.050979 0.051801 -0.092883 0.10458 0.12612 
0.22838 -1.9337 0.4778 -0.052602 0.10491 -0.23543 0.036346 0.045718 
-0.047505 -2.3962 0.41746 -0.040106 0.27129 -0.25664 -0.039284 -0.015444 
-0.23379 -1.2204 0.31651 0.065283 0.42354 -0.145 -0.08269 0.026646 
-0.16835 0.12135 0.27557 0.046046 0.46629 -0.010841 -0.041586 0.087643 
-0.016431 0.66293 0.20536 -0.017417 0.38359 0.11132 -0.03353 0.026646 
0.075148 0.73149 0.16114 -0.12018 0.14535 0.25337 0.0013258 -0.027447 
0.039634 0.96397 0.019247 -0.16309 -0.073154 0.39082 0.021549 -0.044381 
0.018918 0.60078 -0.1575 -0.076935 -0.10604 0.46991 0.024015 0.066598 
0.055089 0.23183 -0.37124 -0.00097594 -0.053753 0.46152 0.030098 0.1368 
0.06035 0.5873 -0.45278 0.08304 -0.092554 0.33837 0.094713 0.09126 
0.058871 0.88522 -0.24414 0.12332 -0.19942 0.17001 0.11954 0.054432 
-0.026296 0.82685 0.020398 0.07449 -0.25615 -0.034188 0.14305 0.034044 
-0.15503 0.58105 0.10589 0.056076 -0.24727 -0.22507 0.11214 0.053774 
-0.2499 0.075312 0.097672 0.056076 -0.14928 -0.2859 0.047033 0.04917 
-0.080388 -0.81466 0.15555 0.0042853 -0.081374 -0.21554 0.0051074 -0.0070593 
0.17528 -1.3658 0.23331 -0.0019624 -0.069536 -0.12988 -0.077428 -0.052273 
0.26094 -1.008 0.24696 -0.042408 -0.058356 -0.078908 -0.12692 -0.11409 
0.20175 -0.27982 0.22098 -0.035996 0.04095 -0.03205 -0.18413 -0.080717 
0.037168 0.22444 0.21079 0.038812 0.244 0.063968 -0.080717 0.049992 
0.034044 0.14552 0.32555 0.029934 0.38145 0.16508 0.046375 0.14075 
0.060844 0.092576 0.36485 0.02681 0.33788 0.14124 0.12102 0.12875 
-0.012156 0.46086 0.10787 0.070708 0.22624 0.045882 0.12858 0.10721 
-0.066577 1.0077 -0.25549 0.096193 0.14206 0.011355 0.098166 0.1003 
-0.093705 0.98074 -0.40757 0.085177 0.077614 0.0065871 0.052787 0.097508 
-0.10801 0.30549 -0.48008 0.060186 0.087808 0.041936 0.078436 0.062981 
-0.084334 -0.559 -0.64926 0.05772 0.099152 0.0592 0.10129 0.036839 
0.073339 -1.1617 -0.68099 0.081724 -0.0087034 0.055582 0.021549 -0.024323 
0.19057 -0.62756 -0.47136 0.033058 -0.18364 -0.0047575 -0.075949 -0.041751 
0.11346 -0.004593 -0.057534 -0.0022913 -0.26946 -0.12149 -0.099789 -0.071016 
0.063803 0.46415 0.15785 -0.044381 -0.21702 -0.12922 -0.014293 -0.071016 
-0.021199 1.0791 0.21868 0.0054362 -0.065919 -0.072167 0.044402 0.010533 
-0.10965 1.4852 0.24828 0.075805 0.03799 -0.027611 0.0689 0.11642 
-0.15306 1.6004 0.31207 0.10902 0.075312 -0.0013048 0.08715 0.14371 
0.020398 0.52268 0.40611 0.038483 0.041607 0.040292 0.09833 0.049335 
0.39049 -1.9771 0.54882 -0.034188 0.021713 -0.0073881 0.014972 -0.017417 
0.6284 -2.859 0.44837 -0.06707 0.0085601 -0.0029489 -0.020212 -0.010019 
0.59502 -1.5517 0.24186 -0.072332 0.0085601 -0.021199 -0.0083746 -0.053753 
0.43817 -0.057699 0.090931 -0.081703 -0.021363 -0.053424 -0.016595 -0.035338 
0.23266 0.27458 0.08567 -0.073482 -0.024158 -0.12856 -0.0096899 -0.018075 
-0.03616 -0.37617 0.012342 -0.07003 0.0021479 -0.14056 -0.060329 -0.025145 
-0.43618 0.073504 -0.41069 0.025495 0.024179 -0.075127 -0.051122 -0.0027845 
-0.58234 1.0501 -0.64301 0.18087 0.051801 0.0075736 -0.08121 -0.010183 
-0.35578 1.5111 -0.40593 0.25452 0.082382 0.063474 -0.092226 0.025495 
-0.046354 0.86236 -0.049807 0.21753 0.074654 0.080244 -0.010676 0.042265 
0.26833 0.16541 0.22887 0.16656 0.015137 0.086657 0.051308 0.015301 
0.43735 0.076627 0.24203 0.075476 -0.016595 0.10622 0.038483 -0.032379 
0.4219 -0.34476 0.14519 0.00297 -0.016924 0.053445 0.065283 -0.066248 
0.19385 -0.57889 0.082546 -0.022021 -0.041093 -0.030899 0.22345 -0.030242 
-0.17657 0.046211 -0.065426 -0.083347 -0.059178 -0.033694 0.30352 0.049335 
-0.27226 -0.1062 -0.045532 -0.09946 -0.068057 -0.037311 0.19616 0.053938 
-0.17756 -0.84113 0.19139 -0.081703 -0.036818 -0.065755 0.037168 0.016781 
-0.14287 -0.55637 0.34446 -0.036818 0.023357 -0.14813 0.016123 0.060022 
-0.095349 0.42913 0.23545 0.035853 0.10458 -0.12889 0.13023 0.15538 
0.037168 0.88949 0.044238 -0.0050863 0.097015 -0.0064016 0.24992 0.15407 
0.2001 0.65931 -0.0771 -0.0052507 0.044073 0.088301 0.14585 0.11395 
0.29661 0.49144 -0.018075 0.067256 0.045224 0.17051 -0.028433 0.1174 
0.31536 0.41236 0.18629 0.080244 0.10507 0.20323 -0.1575 0.048348 
0.1881 0.51446 0.3267 0.052787 0.05624 0.20306 -0.20173 -0.021034 
-0.0031133 0.3073 0.33476 0.030427 -0.062467 0.10211 -0.12708 -0.12462 
-0.018568 -0.40379 0.35843 0.0031344 -0.10078 0.028619 -0.064933 -0.10653 
0.032236 -1.3735 0.37208 0.023193 0.00297 0.027139 -0.025638 -0.013143 
0.0041209 -2.0201 0.36715 0.013986 0.16952 0.082875 0.014972 0.10244 
0.082711 -1.1007 0.32687 0.033058 0.16952 0.11461 0.053938 0.16508 
0.16196 0.19484 0.18958 -0.02942 0.090767 0.089945 0.031578 0.071531 
0.091096 1.2244 -0.21438 -0.059178 0.058049 0.0080668 0.039634 -0.052602 
-0.071509 1.5644 -0.67606 0.035688 0.073175 -0.036325 0.14519 -0.092554 
-0.15125 1.0914 -0.82255 0.10441 0.10392 0.060186 0.2246 0.021713 
-0.17673 0.49934 -0.54732 0.090767 0.1271 0.15176 0.18794 0.17478 
-0.14106 0.30862 -0.24447 0.042923 0.078929 0.15489 0.13417 0.20027 
-0.074469 0.22296 -0.18791 0.022864 -0.021856 0.058213 0.093562 0.14042 
-0.080059 0.2902 -0.29856 0.10178 -0.025309 0.035195 0.098494 0.041443 
-0.1376 0.31601 -0.24875 0.15522 0.017274 0.021384 0.042923 0.0051074 
-0.14139 0.37044 0.21095 0.098166 0.018589 0.045553 -0.0055795 0.015465 
-0.054739 0.34676 0.54521 0.035031 -0.045696 0.052952 -0.033365 0.015959 
0.19616 -0.51444 0.7504 -0.076113 -0.11952 0.050157 -0.052109 0.027139 
0.27672 -0.60799 0.93323 -0.13053 -0.099953 0.027796 -0.033365 -0.003771 
-0.049149 0.62281 0.83918 -0.075949 -0.055397 -0.058521 0.0088889 0.031085 
-0.3497 1.448 0.28445 0.016945 0.064132 -0.057534 0.10836 0.06594 
-0.34279 0.44343 -0.33967 0.14831 0.24449 -0.00015387 0.13582 0.084684 
-0.085485 -1.1833 -0.66143 0.1733 0.28132 0.044731 0.071531 0.073339 
0.31815 -1.6851 -0.46495 0.11625 0.15637 0.040785 -0.030735 -0.0090322 
0.57299 -1.6643 -0.11656 0.081724 0.013492 0.0026412 -0.088937 -0.043395 
0.64353 -1.6545 -0.014129 -0.025309 -0.049314 0.014972 -0.13695 -0.042408 
0.62561 -1.9542 0.0031344 -0.060658 -0.008539 0.028454 -0.14319 -0.03353 
0.50032 -0.87237 0.051965 -0.030242 0.041278 0.038648 -0.071509 0.00017495 
0.15111 1.0855 0.0069159 -0.01117 0.056569 0.012342 0.040128 0.025001 
-0.13843 1.7957 -0.094199 -0.0054151 0.011026 -0.017911 0.084684 0.048677 
-0.15717 1.377 -0.157 0.0098754 0.0021479 -0.012649 0.071695 0.02533 
-0.14254 1.1789 -0.074469 -0.020541 0.012177 -0.047998 0.051636 -0.0096899 
-0.22655 1.2186 0.012999 0.029441 0.021384 -0.085813 0.035853 -0.019226 
-0.45065 0.94737 0.020562 0.037661 0.052623 -0.11705 0.0039565 -0.042079 
-0.63775 0.54702 0.01826 0.0786 0.062817 -0.072167 -0.01528 -0.024816 
-0.47268 0.29497 -0.013636 0.11132 0.034702 0.014315 -0.0062372 -0.023007 
-0.13843 0.18481 0.04506 0.057227 0.043087 0.087314 0.0070803 0.0082312 
0.094055 -0.0062372 0.13615 0.055254 0.032564 0.12398 0.037826 0.045553 
0.16212 -0.1986 0.19813 0.036675 0.034209 0.08008 0.043251 0.045553 
0.2029 -0.32536 0.1077 0.062488 0.045718 -0.00015387 0.049828 0.085177 
0.26883 -0.37008 -0.077264 0.054596 -0.037147 -0.066741 0.0075736 0.056569 
0.43735 -0.58991 -0.087622 1.0539e-005 -0.12445 -0.12626 -0.031392 0.055254 
0.49424 -1.0292 0.11526 -0.047669 -0.15487 -0.12281 -0.041422 0.045389 
0.41713 -1.4572 0.3096 -0.04882 -0.10834 -0.04619 -0.023994 0.030263 
0.20175 -1.2699 0.24992 -0.04882 0.039305 0.025495 -0.015609 0.051308 
-0.18068 -0.8921 0.14881 0.026317 0.19829 0.076299 0.039634 0.022042 
-0.6874 -0.066577 0.12612 0.06479 0.30566 0.13615 0.10145 -0.02235 
-0.80282 0.81123 0.044896 0.094384 0.28231 0.15735 0.071695 0.015465 
-0.40658 1.2642 -0.22195 0.10343 0.12612 0.13384 0.014972 0.016616 
0.047526 1.239 -0.51263 0.050157 0.0072447 0.097837 0.016123 0.021384 
0.25683 0.87601 -0.63413 0.042265 -0.06 0.10228 0.067091 0.0031344 
0.30944 0.48043 -0.36384 0.041114 -0.092719 0.070708 0.032729 0.036839 
0.34742 -0.25927 0.10195 -0.013143 -0.17049 -0.0024557 -0.013471 0.025166 
0.35449 -0.45098 0.39444 -0.057205 -0.25861 -0.062467 -0.092883 0.033058 
0.17659 -0.01232 0.44689 -0.091568 -0.17525 -0.093212 -0.074798 0.056404 
-0.1279 -0.11985 0.57414 -0.05441 -0.0044286 -0.087293 0.0023123 0.028125 
-0.26256 -0.57083 0.6067 -0.014129 0.1442 -0.074798 0.074161 0.01267 
-0.18676 0.19714 0.30894 -0.0029489 0.23775 -0.010019 0.062488 0.01004 
-0.14023 1.5511 -0.14287 0.099316 0.2389 0.028783 0.10195 0.053774 
-0.14993 2.023 -0.33802 0.14354 0.094877 0.05476 0.11625 0.11362 
-0.19663 1.3822 -0.18841 0.1128 -0.00015387 0.10014 0.12661 0.14289 
-0.15026 0.31223 0.095206 0.047362 -0.10357 0.046868 0.11839 0.10902 
0.32177 -0.65304 0.24252 -0.046683 -0.15733 0.0034632 0.052294 0.05065 
0.85299 -0.68132 0.22197 -0.054082 -0.054739 0.028619 0.029769 0.0041209 
0.9597 -0.50934 0.12513 -0.0019624 0.028783 0.01826 0.029112 0.0042853 
0.65504 -0.48928 -0.083512 -0.0062372 0.091753 0.0090533 0.055418 -0.016431 
0.26011 -0.45295 -0.30169 0.0070803 0.10869 -0.0070593 0.055911 0.00017495 
-0.22737 0.19796 -0.50934 0.017438 0.087479 0.031085 0.042429 -0.010676 
-0.83899 -0.094692 -0.58695 0.063145 0.0019835 0.036839 0.046375 0.037661 
-0.87927 -1.1857 -0.48928 0.15735 -0.038462 0.070544 -0.021199 0.036839 
-0.59599 -1.583 -0.24316 0.16541 -0.029913 0.11148 -0.079401 0.019576 
-0.7798 -0.80447 0.049499 0.12168 -0.041915 0.086163 -0.065919 0.035031 
-0.8995 0.73067 0.17511 0.095535 -0.014129 0.097837 0.011848 0.036346 
-0.39425 1.8817 0.25354 0.026317 0.12266 0.22049 0.017932 0.06035 
0.27162 1.5741 0.44804 0.0046141 0.2029 0.30648 0.025824 0.0075736 
0.73987 0.71899 0.58598 -0.065097 0.2103 0.31684 0.060022 -0.029913 
0.87519 0.53173 0.51364 -0.059178 0.18596 0.25206 0.1128 0.0024767 
0.78575 0.83606 0.23085 0.013164 0.19681 -0.029584 0.11214 -0.022514 
0.57365 0.91481 -0.11146 0.017767 0.19698 -0.30399 0.080902 -0.036818 
0.30714 0.36402 -0.32125 0.054596 0.19188 -0.39951 0.098659 0.00017495 
0.093891 -0.42187 -0.30531 0.072846 0.16492 -0.19679 0.13171 0.077285 
0.12776 -1.7928 -0.037476 -0.0060728 0.061995 -0.015444 0.0592 0.14749 
0.17232 -2.5708 0.23035 -0.042573 -0.03912 0.041772 -0.048492 0.086163 
0.052623 -1.6553 0.33246 -0.084991 -0.11952 0.078107 -0.12067 0.049828 
-0.21685 0.066434 0.29497 -0.10472 -0.14796 0.16081 -0.10834 0.0042853 
-0.33523 1.1438 0.35695 -0.0082102 -0.2014 0.26011 -0.061316 0.018754 
-0.24628 1.2262 0.4824 0.029112 -0.22145 0.29546 0.028619 0.10162 
-0.097651 0.95904 0.41253 0.045718 -0.23527 0.19566 0.10803 0.10836 
0.081724 0.94079 0.14815 0.047362 -0.20468 -0.035503 0.13203 0.0067515 
0.21227 0.13401 -0.22277 0.018096 -0.086142 -0.20666 0.06183 -0.061151 
0.15637 -0.68313 -0.56722 0.078436 0.1008 -0.21192 -0.04619 -0.018568 
-0.010019 -0.097322 -0.76583 0.11609 0.27195 -0.14352 -0.097322 0.016945 
-0.04471 0.1174 -0.74347 0.13039 0.29875 -0.087951 -0.041257 -0.045861 
0.03651 -0.14533 -0.74791 0.11576 0.21852 -0.031557 0.049499 -0.0096899 
0.11346 -0.86135 -0.50392 0.041278 0.080409 -0.00064712 0.061666 0.026317 
0.073339 -2.3306 -0.060987 0.013986 -0.012814 0.021549 0.069064 0.048184 
0.055254 -2.6665 0.31322 0.025495 0.023357 0.048841 0.054925 0.041114 
0.037168 -1.739 0.6215 -0.0032777 0.057884 0.077449 0.072517 0.011355 
-0.0070593 0.38244 0.62544 0.051636 0.064954 0.082546 0.098659 0.014479 
-0.09091 1.889 0.46744 0.03799 0.019247 0.078107 0.12661 0.055911 
-0.073976 1.9884 0.32703 0.0095465 -0.015773 0.025824 0.082875 0.040128 
0.17692 1.2101 0.079916 -0.026131 -0.078908 -0.058685 0.022371 0.081889 
0.39658 0.38129 0.054103 -0.069701 -0.087458 -0.063618 -0.048327 0.049499 
0.40217 0.24351 0.21309 -0.080059 -0.077428 -0.03501 -0.036325 0.059528 
0.29069 0.20142 0.34035 -0.068714 -0.086307 -0.034023 -0.022021 0.042923 
0.15028 0.18432 0.37685 -0.022679 -0.045696 -0.020706 0.016452 0.048513 
-0.018568 0.029441 0.34775 0.067256 0.01415 0.034373 0.0421 0.070708 
-0.17887 -0.19038 0.414 0.055254 0.066434 0.063474 0.058213 0.09685 
-0.25713 -0.41711 0.3364 0.018425 0.050157 0.10145 0.0786 0.13171 
-0.2841 -0.42582 -0.023994 0.062652 0.024344 0.09422 0.1105 0.082382 
-0.27818 -0.19153 -0.42007 0.080738 0.02829 0.089945 0.081067 0.025495 
-0.1187 -0.1108 -0.64564 0.098659 0.022864 -0.01676 0.026317 -0.050958 
0.094713 0.020233 -0.7946 0.012999 -0.049478 -0.095021 0.020727 -0.049807 
0.42584 0.19944 -0.83094 -0.016102 -0.063124 -0.085813 -0.0083746 -0.053095 
0.6044 0.8594 -0.60141 0.005765 -0.045861 -0.073318 -0.085813 -0.073482 
0.46152 1.8012 -0.20567 0.019411 -0.025309 -0.12412 -0.09798 -0.084498 
0.16492 2.0315 0.21178 0.036839 -0.018568 -0.14698 -0.045532 -0.086142 
-0.068386 0.97614 0.51627 0.093233 0.02681 -0.032215 0.0018191 -0.021856 
-0.26502 -0.051122 0.63235 0.13056 0.0054362 0.071202 0.033715 0.048677 
-0.40165 -0.41924 0.50854 0.14502 -0.059672 0.08567 0.090603 0.093233 
-0.26502 -0.71239 0.42042 0.067091 -0.15503 0.066763 0.13631 0.11707 
-0.057041 -0.94323 0.24269 -0.0073881 -0.1552 0.018918 0.14782 0.066763 
0.075148 -1.3005 0.016288 -0.0026201 0.023522 0.0080668 0.14535 -0.024323 
0.14848 -1.6752 -0.14911 0.010369 0.20027 -0.0073881 0.084848 -0.11491 
0.16229 -1.0251 -0.19367 0.048184 0.34265 0.0047785 0.021056 -0.098473 
0.13746 0.18087 -0.28738 0.063145 0.39608 0.042429 -0.03616 -0.01117 
0.089452 1.1192 -0.24529 0.070873 0.28938 0.14206 -0.028762 0.086985 
0.032893 1.5358 -0.0075525 0.095699 0.10852 0.1807 0.013821 0.17676 
-0.21291 2.1124 0.29546 0.0324 -0.089924 0.14239 0.076956 0.19747 
-0.30037 2.2834 0.4362 -0.045039 -0.12889 0.11625 0.096686 0.17084 
-0.063124 1.8676 0.29809 -0.047012 -0.1136 -0.038791 0.07449 0.079916 
0.10178 0.26932 0.040456 -0.056877 -0.09091 -0.17032 0.036346 -0.06707 
0.1054 -1.5105 -0.1478 -0.0034422 -0.034516 -0.19942 0.012506 -0.12215 
0.037168 -1.8207 -0.40609 0.012835 0.064954 -0.10242 -0.0138 -0.074962 
-0.18479 -0.7068 -0.80858 0.10935 0.20832 0.067913 -0.0054151 0.047526 
-0.18413 -0.31501 -0.84573 0.2024 0.27458 0.10704 0.022535 0.068571 
0.20931 -1.9368 -0.27768 0.14765 0.12809 0.04506 0.015137 -0.04882 
0.42568 -2.7794 0.49523 0.059693 -0.025967 0.016452 0.0039565 -0.097816 
0.16788 -1.2559 0.95542 -0.0087034 -0.026624 0.032071 0.011026 -0.052437 
-0.14517 1.1281 0.91547 -0.052766 0.0054362 0.019083 0.00297 -0.008539 
-0.24579 2.8245 0.43127 -0.046354 0.024344 0.026152 -0.033859 0.067256 
-0.18101 2.9006 0.11428 -0.048656 0.028783 0.044402 -0.054904 0.076956 
0.007738 1.3471 -0.053917 -0.042079 0.01826 0.0082312 -0.050136 0.074819 
0.17281 0.59223 -0.23362 0.037826 -0.034023 -0.049807 0.027303 0.027796 
0.26406 0.049499 -0.28459 0.033387 -0.022185 -0.0090322 0.012835 -0.0040998 
0.28362 -1.298 -0.194 0.054925 0.049828 0.058542 -0.0070593 0.012177 
0.22427 -2.0933 -0.10406 0.06479 0.094877 0.16262 -0.00031829 0.041772 
0.10047 -1.7655 -0.027611 0.016452 0.11526 0.20931 0.032729 0.066105 
-0.058521 -0.61161 0.028454 0.043251 0.14831 0.20816 0.077121 0.069393 
-0.11952 0.10787 0.088136 0.019576 0.12792 0.14289 0.083533 0.098659 
-0.05326 0.24795 0.15719 0.0085601 0.069722 0.053774 0.07449 0.057884 
0.043909 0.10721 0.1733 -0.022514 0.02681 -0.028597 0.020398 0.048677 
0.032236 0.38704 0.1248 -0.060494 0.029769 -0.093048 -0.017253 0.020233 
-0.069865 0.50657 0.021056 -0.0064016 0.032729 -0.11179 0.0014903 -0.0044286 
-0.10505 0.19024 -0.012485 0.025001 -0.041422 -0.047998 0.035853 0.039141 
-0.052437 -0.068386 0.07301 0.040456 -0.089431 -0.020377 0.012342 0.036675 
-0.03764 -0.064768 0.14798 0.092411 -0.06296 0.007738 0.019083 0.052459 
-0.022021 0.15999 0.0786 0.067091 0.06479 0.083862 0.06183 0.07301 
-0.03912 0.37241 0.014643 0.093233 0.098659 0.11378 0.089287 0.091425 
-0.038956 0.36304 0.11674 0.071859 0.070544 0.11099 0.092082 0.13023 
-0.0060728 0.041936 0.36304 0.0065871 -0.030899 0.1105 0.089123 0.097837 
0.10474 -0.54749 0.45938 -0.063124 0.0070803 0.085012 0.067091 0.010369 
0.26274 -0.86628 0.31651 -0.11755 0.098659 0.042758 -0.022679 -0.076277 
0.28362 -0.57149 0.040128 -0.10275 0.20635 0.043251 -0.069043 -0.11327 
0.25567 0.050979 -0.31007 -0.06296 0.22904 0.11263 -0.10258 -0.071181 
0.1909 0.26274 -0.5687 -0.045368 0.16278 0.1225 -0.076277 -0.040106 
0.11362 -0.39606 -0.65814 0.0019835 0.064296 0.13779 -0.080059 0.0085601 
0.18383 -0.98203 -0.60585 0.060679 0.016288 0.16574 -0.034188 0.03388 
0.29892 -0.23263 -0.48106 0.15144 -0.038956 0.13335 0.036346 0.056733 
0.23808 0.76766 -0.0098543 0.17988 -0.11952 0.073997 0.090274 0.10836 
-0.0091966 1.2085 0.56264 0.1003 -0.30876 0.0085601 0.16706 0.12628 
-0.24825 1.5495 0.61097 0.031742 -0.3372 -0.039942 0.18613 0.17774 
-0.29922 1.4689 0.38063 0.06594 -0.15881 -0.084498 0.19698 0.14256 
-0.23609 0.49588 0.22624 0.08156 0.14223 -0.044052 0.12414 0.04917 
0.0074092 -0.4393 0.039799 0.080409 0.28741 0.029934 0.0075736 -0.016431 
0.16853 -1.0476 -0.090746 0.044731 0.22592 0.070544 -0.044874 -0.026296 
-0.090417 -0.95556 0.060022 0.0018191 0.12201 0.083533 -0.003771 0.073339 
-0.64597 0.21506 0.31092 -0.016266 0.047526 0.073997 -0.026624 0.063474 
-0.75596 1.1826 0.3831 -0.12297 -0.042244 0.01563 -0.1011 0.017274 
