0.0689 -0.051615 0.024344 0.038155 0.051143 0.022206 0.021056 -0.0082102 
0.073504 -0.044874 0.038155 0.036017 0.047855 0.029605 0.011848 -0.0011404 
0.064625 -0.066413 0.061995 0.0324 0.035524 0.021713 0.01711 -0.030735 
0.062652 -0.18874 0.068407 0.0064227 0.052952 0.031085 0.059857 -0.023007 
0.096193 -0.22145 0.068571 0.049335 0.043251 0.014808 0.027961 -0.040928 
0.11888 -0.13086 0.036017 0.028783 0.034044 0.014479 -0.0016336 -0.020541 
0.12332 -0.065591 0.033715 0.0042853 0.018589 0.012999 -0.0036066 -0.012649 
0.078272 -0.063782 0.013821 0.007738 -0.00031829 0.036346 0.014643 -0.014787 
0.01826 -0.02235 -0.0021268 -0.011005 0.0098754 0.023028 0.017603 0.010533 
-0.031392 0.012999 -0.00097594 0.031742 0.0070803 0.0090533 0.028125 0.0080668 
-0.029091 0.041114 0.0042853 0.014972 0.0060938 0.0046141 0.047197 0.0088889 
-0.036818 -0.039613 0.050321 0.0093821 0.0069159 0.017603 0.047197 0.026317 
-0.019884 -0.1256 0.051143 0.034702 0.018754 0.017603 0.036017 -0.0019624 
-0.023501 -0.046025 0.027303 0.0074092 0.028125 0.0011614 0.055418 -0.0004827 
-0.023665 0.069886 0.016781 0.027139 0.049499 0.020233 0.060022 -0.02498 
-0.014787 0.10129 0.014479 0.030756 0.05624 0.022371 0.047362 -0.03057 
0.017274 0.053938 -0.00081153 0.013164 0.027632 0.015794 0.042429 -0.0078813 
0.027139 0.046868 0.01711 0.036346 0.031742 0.011191 0.049992 0.024837 
-0.021034 1.0539e-005 0.018589 0.0082312 0.0074092 0.0324 0.06035 0.048677 
-0.011005 -0.046519 0.048841 0.0026412 0.029769 0.012177 0.042265 0.058213 
0.054267 -0.075949 0.063474 0.030263 0.031414 0.025166 0.021056 0.056404 
0.12612 -0.099624 0.066598 -0.015773 0.044896 0.029934 0.017603 0.055089 
0.14075 -0.13744 0.052459 -0.018075 0.04654 0.021549 -0.0057439 0.06331 
0.13253 -0.12922 0.054925 -0.01939 0.018754 0.0042853 -0.01676 0.060679 
0.067913 -0.11755 0.015301 -0.029255 -0.010676 0.015301 0.00017495 0.034044 
0.03799 -0.10801 0.038483 0.033222 -0.0082102 0.030592 0.027961 0.038155 
0.034209 -0.16046 0.017767 0.028619 0.019247 0.004943 0.040128 -0.0040998 
-0.0016336 -0.15405 0.010204 0.035853 0.02829 0.0039565 0.037661 -0.017417 
-0.029748 -0.022021 0.019576 0.03799 0.048841 0.024837 0.079916 0.015465 
-0.043395 0.1225 0.011684 0.027632 0.054103 0.023193 0.0786 0.071859 
-0.043888 0.19402 0.019905 0.050157 0.031414 0.037826 0.049664 0.10524 
-0.011498 0.14897 0.030263 0.010697 0.022371 0.034702 0.035688 0.11609 
0.018918 0.10293 0.037826 -0.00015387 0.030592 0.016781 0.05213 0.090931 
-0.0080457 0.11609 0.016123 0.017767 0.0079024 0.021713 0.052459 0.074326 
-0.033201 0.093233 0.016288 -0.006566 0.010533 0.017767 0.043087 0.028454 
-0.014458 0.066434 0.059693 0.0032988 0.016452 0.01267 0.05213 0.0047785 
0.032236 0.048513 0.078272 0.0016547 0.03388 0.0014903 0.026481 -0.029091 
0.068571 0.048841 0.091096 -0.010841 0.049664 -0.011827 0.0021479 -0.041586 
0.076463 0.035524 0.0786 0.030427 0.011191 0.016781 -0.020706 -0.03912 
0.082546 -0.0077169 0.064132 -0.00031829 0.041278 0.036839 0.010533 -0.03501 
0.14601 0.023028 0.043909 0.010697 0.034866 0.026974 0.01152 0.027303 
0.16558 0.057391 -0.0036066 0.065612 0.054596 0.068407 0.021878 0.10524 
0.11132 0.11313 -0.010019 0.046868 0.05065 0.047691 0.0047785 0.11395 
0.041443 0.12792 1.0539e-005 0.033387 0.061995 0.046046 0.029769 0.12908 
-0.054904 0.12743 0.017603 0.013492 0.03536 0.041443 0.050157 0.12497 
-0.082854 0.14124 0.063639 0.0018191 0.01711 0.043745 0.056733 0.15653 
-0.093376 0.18235 0.057391 0.051965 0.021056 0.042429 0.061337 0.14272 
-0.08384 0.14733 0.068078 0.036675 0.016781 0.01711 0.073668 0.12513 
-0.03764 0.13023 0.037332 0.021549 0.010862 0.012013 0.06742 0.088136 
0.025166 0.16048 0.039305 0.019576 0.010697 -0.00081153 0.01563 0.023522 
0.065118 0.13927 0.027632 -0.0067304 0.012999 -0.0031133 -0.0011404 0.027139 
0.068242 0.12168 0.022042 0.035853 0.03651 0.019083 -0.00015387 0.060844 
0.018918 0.12085 0.021713 0.0024767 0.01267 0.0080668 0.0227 0.056898 
0.044567 0.073997 0.04917 0.030592 0.018754 0.0065871 0.061008 0.0227 
0.060022 0.018589 0.087808 0.062323 0.031742 0.035195 0.12497 0.0013258 
0.066434 0.017274 0.088958 0.0324 0.046375 0.047197 0.088958 0.0044497 
0.036182 0.098494 0.016616 0.04358 0.049828 0.025988 0.024015 -0.0073881 
0.026317 0.14387 -0.015444 0.069393 0.035031 0.028947 -0.0021268 0.0014903 
0.02681 0.10589 0.0011614 0.050157 0.046046 0.033387 -0.0036066 0.025495 
0.033222 0.11494 0.028125 0.0421 0.0324 0.011684 -0.016102 0.012999 
0.062817 0.1151 0.029605 0.035195 0.035853 0.024344 -0.012485 0.038648 
0.016781 0.11296 0.0064227 0.030427 0.026152 0.040292 0.025495 0.023357 
0.035853 0.13795 0.013657 0.049992 0.010862 0.030756 0.012342 0.030592 
0.030756 0.085177 0.028125 0.036839 0.034209 0.03092 -0.0044286 0.015465 
0.027303 0.074326 0.022371 0.038483 0.031742 0.037168 -0.0070593 -0.031557 
0.020727 0.095371 0.013986 0.048677 0.064132 0.01267 0.066434 -0.016102 
0.030756 0.097837 0.0051074 0.039634 0.0227 0.011026 0.045553 -0.022021 
0.036675 0.1026 0.0059294 0.087808 -0.011663 0.0227 0.044731 0.024508 
0.013328 0.11576 0.0018191 0.048184 0.017274 0.016452 0.043909 0.051965 
-0.010019 0.087808 0.015301 0.019905 -0.0019624 0.013492 0.06331 0.082875 
-0.004593 0.059857 0.036839 0.03799 0.017767 0.023028 0.044238 0.10622 
0.016945 0.040621 0.055747 0.0060938 0.015465 0.038812 0.038319 0.095699 
0.043745 -0.011827 0.068407 0.028125 0.025495 0.02829 0.032564 0.061337 
0.075476 -0.051122 0.056898 -0.014951 0.040128 0.016945 0.017767 0.044238 
0.089945 -0.049971 0.048348 0.0042853 0.0019835 0.026974 0.028783 0.038155 
0.078107 -0.024323 0.034537 0.026646 0.013821 0.048513 0.06742 0.059035 
0.035688 -0.031557 -0.010841 0.021384 0.024179 0.024015 0.097672 0.056076 
0.045389 -0.021363 0.0036276 0.029441 0.032564 0.032236 0.055254 0.037826 
0.066105 0.009711 0.023357 0.022535 0.024837 0.035031 -0.025474 -0.017253 
0.049335 -0.019061 0.052787 0.016452 0.022864 0.020562 -0.040106 -0.035338 
-0.0090322 -0.0029489 0.061008 0.031578 0.038155 0.031907 0.0044497 -0.055561 
-0.056219 0.042265 0.053445 0.0023123 0.032729 0.025166 0.0079024 -0.037969 
-0.03057 0.019905 -0.00081153 0.028619 -0.0087034 0.010369 -0.0016336 -0.013471 
-0.0068948 0.064132 0.00066819 0.031578 0.0075736 0.0051074 0.00083261 -0.025967 
0.0044497 0.082217 -0.0083746 0.030756 0.041936 0.011848 0.01152 -0.041915 
0.012835 0.051472 -0.012156 0.061337 0.040292 -0.0024557 0.025495 -0.027611 
0.04506 0.031907 0.022535 0.016452 0.042594 -0.0031133 0.024837 -0.036983 
0.060186 0.031085 0.033058 0.0013258 0.02681 0.007738 0.034209 -0.034352 
0.073175 0.0062583 0.066105 0.0047785 0.023193 0.046211 0.039963 -0.037311 
0.039305 0.0227 0.072353 -0.030406 0.0026412 0.033551 0.025824 -0.012978 
-0.02646 0.035853 0.029441 -0.0070593 0.022371 0.019247 0.021384 -0.014622 
0.0095465 0.041278 0.00083261 0.015137 0.031742 0.043909 0.012999 -0.0073881 
0.051801 0.0082312 0.00297 0.028454 0.035031 0.036675 0.014479 0.041278 
0.028783 0.018754 -0.011992 0.034209 0.054103 0.01974 0.045389 0.089287 
0.0037921 0.023686 -0.0052507 0.0072447 0.053281 0.02681 0.076134 0.12316 
0.025659 -0.032215 0.039634 -0.014951 0.050157 0.01826 0.034537 0.16492 
0.049335 -0.080717 0.072846 -0.0052507 0.025166 0.0088889 -0.014787 0.18021 
0.051801 -0.052437 0.074161 -0.074798 0.027139 0.0056006 -0.026789 0.16377 
0.073832 -0.048492 0.079258 -0.026789 0.015137 -0.0011404 -0.018075 0.056404 
0.14157 -0.078086 0.033058 0.0019835 0.010697 -0.010512 -0.025145 0.015465 
0.12332 -0.079895 0.024837 0.018754 0.023028 -0.0022913 -0.020377 -0.021363 
0.055747 -0.13037 0.013164 0.036346 0.037826 0.020562 0.016123 -0.039449 
-0.0016336 -0.027611 0.019411 0.040292 0.054596 0.04095 0.080409 -0.082361 
-0.019061 0.13039 0.020069 0.06594 0.058542 0.036675 0.075805 -0.17032 
-0.042737 0.1733 0.023851 0.021878 0.036017 0.015301 0.084026 -0.12577 
0.0088889 0.13236 0.01267 0.018425 0.049664 -0.0052507 0.085012 -0.065755 
0.052787 0.12513 0.053774 0.01974 0.017767 -0.0091966 0.026974 0.015959 
0.069229 0.050486 0.017438 -0.0021268 0.015959 0.0090533 0.010204 0.10326 
0.082875 -0.0082102 0.026974 -0.0026201 0.050486 0.0056006 -0.013307 0.11165 
0.052787 -0.0090322 -0.0062372 0.016945 0.053609 -0.0032777 0.00066819 0.095042 
0.031414 0.018754 0.014808 0.00297 0.028619 0.00066819 -0.0024557 0.1128 
0.009711 0.034373 0.026974 0.0090533 0.020069 0.036182 0.0070803 0.14108 
-0.0013048 0.040292 0.01152 0.018918 0.023028 -0.00031829 0.041114 0.14469 
-0.019555 0.085012 0.023851 0.031414 0.039305 0.01152 0.048841 0.050486 
-0.027775 0.079916 0.037168 0.060844 0.03651 0.02122 0.050979 0.0021479 
-0.027611 0.098988 0.061008 0.030592 0.033058 0.020727 0.076463 0.026974 
0.011684 0.071037 0.042594 0.031742 0.046046 0.020069 0.073668 0.023028 
0.03536 -0.014951 0.050979 0.038648 0.029112 0.031742 0.041607 0.04654 
0.12825 -0.097816 0.057884 0.024344 0.015959 0.060022 0.024673 0.01563 
0.22756 -0.12741 0.08008 0.051636 0.016781 0.060679 -0.016431 0.0051074 
0.20388 -0.080223 0.070544 0.063803 0.038319 0.034209 0.018425 1.0539e-005 
0.1031 0.033387 0.071037 0.069558 0.02829 0.0080668 0.0227 -0.023994 
0.030756 0.11263 0.10885 0.075641 0.037661 -0.0088678 0.016123 0.015465 
-0.0039354 0.082546 0.09422 0.045882 0.031742 -0.015116 0.040621 0.027468 
-0.019884 0.046868 0.061337 0.061666 0.060022 0.00017495 0.043087 0.052952 
-0.026789 0.07449 0.01267 0.08008 0.032236 0.020069 0.025495 0.047197 
0.023193 0.10803 0.0067515 0.058542 0.0227 0.026974 0.013164 0.010862 
0.088136 0.12447 0.016288 0.049006 0.024508 0.030592 0.027632 0.01267 
0.072188 0.13368 0.013821 0.044731 0.026152 0.045224 0.029112 0.054103 
0.033387 0.089123 0.0098754 0.06183 0.027303 0.042265 0.043416 0.075148 
-0.018075 0.053774 0.021549 0.069393 0.038155 0.045389 0.053774 0.062981 
-0.050793 0.083368 0.045389 0.054103 0.038648 0.058213 0.08156 0.062323 
-0.049971 0.13927 0.047691 0.039963 0.0021479 0.028454 0.053938 0.068407 
-0.0078813 0.13187 0.038483 0.044731 -0.001798 0.026646 0.056898 0.018425 
0.0028056 0.11806 0.035031 0.032729 -0.01117 0.032071 0.049499 0.020891 
-0.003771 0.11954 0.026481 0.070708 -0.0022913 0.013492 0.035688 -0.015116 
-0.01676 0.099645 0.020562 0.024015 0.0021479 0.0092177 0.018425 -0.040435 
0.022371 0.05476 0.046046 0.017438 0.025824 0.0079024 0.034702 -0.037311 
0.13993 0.013164 0.067749 0.046868 0.032564 0.012177 0.016616 -0.052602 
0.25978 -0.019061 0.10589 0.079916 0.044238 0.0047785 -0.0095255 -0.02498 
0.21408 0.0083956 0.071366 0.088465 0.032236 0.017932 -0.023994 -0.014951 
0.078436 0.089616 0.020398 0.082711 0.040621 0.061337 0.0098754 0.030592 
-0.084498 0.071859 0.0013258 0.066269 0.039634 0.05476 0.053774 0.1202 
-0.19301 0.057391 0.013164 0.090767 0.033715 0.049992 0.039799 0.20487 
-0.10719 0.061666 0.0019835 0.048184 0.041278 0.057884 0.017932 0.24959 
0.03536 0.07038 0.027303 0.045224 0.056569 0.038648 -0.0034422 0.17577 
0.094384 0.065776 0.063474 0.048841 0.033715 0.031249 0.013328 0.087972 
0.093562 0.11296 0.03388 0.025659 0.018096 0.026974 0.012506 0.045389 
0.046046 0.171 0.022535 0.041772 -0.00097594 0.022535 0.011026 -0.07414 
-0.023665 0.14437 0.027303 0.026317 0.0023123 0.009711 0.057555 -0.16588 
-0.068714 0.13434 -0.012485 0.020891 0.0090533 -0.0011404 0.063968 -0.22935 
-0.068714 0.032729 0.025988 0.025988 0.014479 0.0059294 0.053445 -0.2476 
-0.017911 -0.10932 0.077449 -0.0087034 0.016781 0.0047785 0.040456 -0.16128 
0.044073 -0.1159 0.080573 0.0039565 0.021056 -0.0013048 0.031414 0.011355 
0.09833 0.0075736 0.024179 0.013492 0.032071 0.0069159 0.027303 0.14239 
0.053938 0.10228 -0.013471 0.038648 0.016123 0.032564 0.017932 0.15851 
-0.018897 0.15061 -0.014622 0.091589 0.041936 0.056569 0.05213 0.16081 
-0.01676 0.16952 0.0032988 0.041278 0.023357 0.048348 0.021878 0.12003 
0.016452 0.14371 0.0036276 0.014808 0.012835 0.044238 0.023851 0.080244 
0.027632 0.096521 -0.014129 0.016781 0.033387 0.040621 0.012013 0.079916 
0.017274 0.019247 0.020727 -0.00015387 0.041607 0.00050378 0.035688 0.03799 
0.016945 -0.02794 0.074326 0.027303 0.053609 0.020069 0.015301 0.047033 
0.054103 -0.0060728 0.0090533 0.023851 0.029769 0.011355 0.010533 0.047362 
0.028619 0.095535 -0.046354 0.047526 0.023522 -0.020377 0.0054362 0.020233 
-0.010841 0.1567 -0.053917 0.050814 0.016616 0.026152 0.048348 -0.0011404 
-0.031886 0.16048 -0.0055795 0.037497 0.021713 0.03651 0.05213 -0.038462 
-0.011827 0.19961 0.06479 0.005765 0.039799 0.02829 0.021713 -0.01232 
0.035688 0.17297 0.091589 -0.021528 0.053281 0.025659 0.004943 0.012013 
0.050979 0.11461 0.080902 -0.045039 0.028454 0.037497 -0.0011404 0.042923 
0.021878 0.14765 -0.0054151 0.030592 0.032893 0.037497 0.036346 0.085341 
-0.045203 0.22427 -0.062302 0.04358 0.046868 0.025495 0.06742 -0.037476 
-0.11508 0.10162 -0.050136 0.040621 0.023357 0.040456 0.080409 -0.068714 
-0.062796 -0.034681 0.01152 0.054103 0.031578 0.0037921 0.035031 -0.073318 
0.090274 -0.16802 0.086328 -0.0072237 0.024508 -0.0078813 -0.038298 -0.084169 
0.20832 -0.23905 0.13483 -0.022021 0.03799 0.012999 -0.066413 -0.021856 
0.26537 -0.20189 0.11017 -0.003771 0.0421 0.042265 -0.054246 0.0689 
0.18859 -0.18561 0.040621 0.0082312 0.029112 0.053281 -0.027282 0.17199 
0.10573 -0.3954 -0.0057439 0.050814 0.027139 0.032893 0.014479 0.17166 
0.020069 -0.55604 -0.017253 0.031414 0.029769 0.041443 0.045553 0.14815 
-0.01117 -0.29215 -0.013143 0.031414 0.029605 0.013328 0.046046 0.084026 
-0.048492 0.24301 0.00297 0.029605 0.021878 -0.0040998 0.030592 -0.033859 
-0.085485 0.57184 0.0041209 0.0095465 0.025988 0.005765 0.044238 -0.025802 
-0.041586 0.5873 0.091096 0.040621 -0.022679 0.0019835 0.081231 0.072024 
1.0539e-005 0.33969 0.055418 -0.010183 0.0037921 -0.018733 0.068242 0.062488 
0.11642 0.0592 0.03092 -0.025967 0.013328 -0.016431 0.034044 0.086985 
0.14568 -0.16342 0.035195 0.01267 0.004943 0.031085 0.06479 0.11017 
0.1271 -0.29445 0.0421 0.025001 0.034209 0.055747 0.074983 0.11937 
0.065612 -0.47876 0.037826 0.044896 0.042923 0.060186 0.007738 0.056569 
0.057391 -0.4763 0.016452 0.10063 0.063968 0.047691 0.016123 0.0014903 
0.053774 -0.26733 -0.004593 0.045224 0.058213 0.025824 0.026317 0.0092177 
-0.030077 0.0016547 0.016123 0.058542 0.040456 0.011191 0.044073 0.0032988 
-0.12856 0.17412 0.056733 0.0011614 0.025824 0.051636 0.054267 0.015301 
-0.11196 0.24581 0.087479 -0.0087034 0.02829 0.012835 0.028619 0.0047785 
0.032236 0.20454 0.097508 0.0019835 0.00297 -0.008539 0.019576 0.022371 
0.2172 0.13664 0.08008 -0.034352 0.023028 0.027139 -0.038133 0.041607 
0.27672 0.10014 0.04095 -0.0098543 0.022535 0.034702 -0.06444 0.031578 
0.20832 0.05772 0.01563 0.01004 0.050814 -0.0019624 -0.033694 0.0095465 
0.12973 0.012013 -0.0042642 0.01711 0.029934 -0.019884 0.0023123 -0.056055 
0.026152 -0.003771 -0.033859 0.079587 0.025001 0.014808 0.039141 -0.038956 
-0.0098543 -0.0091966 -0.00015387 0.075476 0.034537 0.021878 0.061337 -0.0095255 
0.015794 -0.059507 0.034537 0.058213 0.043251 0.011848 0.051308 0.016123 
0.034373 -0.054082 0.058871 0.062981 0.043745 0.038319 0.040785 0.053774 
-0.016266 0.011848 0.01711 0.032564 0.042594 0.019905 0.038812 0.018096 
-0.079072 0.066927 0.0042853 0.044731 0.052787 0.019083 0.071366 -0.083183 
-0.096007 0.061172 0.036675 0.0074092 0.043745 0.032729 0.066763 -0.091897 
-0.064933 0.092247 0.038812 0.01826 0.022864 0.029112 0.050814 -0.016102 
-0.061316 0.1368 0.027961 0.01152 0.0092177 0.017438 0.056076 0.086985 
0.02681 0.17643 0.05476 -0.01676 -0.0013048 0.025988 0.018425 0.15292 
0.1105 0.14239 0.10836 -0.043066 0.0034632 0.048677 -0.015444 0.21572 
0.16886 0.077121 0.10688 -0.0027845 0.017438 0.034866 -0.053753 0.21737 
0.25469 0.070215 0.066598 0.014479 0.022042 0.018754 -0.064933 0.11839 
0.16558 0.11674 -0.017582 0.074161 0.035524 0.014479 -0.025802 0.092904 
0.0070803 0.17067 -0.044874 0.05624 0.02122 -0.0068948 0.01563 0.038812 
-0.11639 0.19336 -0.039942 0.049828 0.030098 0.0016547 0.059693 -0.0096899 
-0.16062 0.16903 -0.011498 0.036346 0.02533 0.023357 0.10573 0.0047785 
-0.16029 0.1368 -0.0091966 0.029605 0.026152 0.029276 0.13056 0.069064 
-0.035832 0.064625 0.036839 0.041772 0.023522 0.021384 0.081231 0.085506 
0.090767 0.043251 0.096521 0.020727 0.034373 0.017932 0.022371 0.032893 
0.10228 0.094877 0.13269 0.016288 0.062652 0.06742 0.048841 0.0087245 
0.0037921 0.099974 0.06742 0.041443 0.046704 0.078436 0.096521 -0.0406 
-0.052437 -0.031392 0.037004 0.027468 0.025659 0.053938 0.085177 -0.07562 
0.017274 -0.16523 0.01415 0.0083956 -0.0032777 0.027632 -0.014622 -0.07973 
0.11346 -0.17131 0.027468 0.00099702 0.00017495 0.012177 -0.044052 0.0026412 
0.12151 -0.004593 0.041443 -0.0059084 0.011191 0.015959 -0.056055 0.095206 
0.049335 0.20816 0.041443 0.036182 0.01267 0.019576 -0.017253 0.14469 
0.01267 0.39674 0.078765 0.026317 0.029769 -0.0059084 0.019905 0.17577 
-0.029913 0.42272 0.078436 -0.0052507 0.01826 -0.0034422 0.058542 0.13499 
-0.049478 0.40792 0.037004 0.016123 -0.0070593 -0.0077169 0.053938 0.061172 
0.00083261 0.27919 0.042265 -0.014951 -0.027611 -0.004593 0.034373 -0.050958 
0.023028 0.13878 0.078929 -0.0026201 -0.0091966 -0.031721 0.042594 -0.10784 
0.004943 0.078107 0.068407 0.0088889 0.037004 1.0539e-005 0.023686 -0.23707 
0.04095 0.011026 0.053281 0.068407 0.095535 0.070873 -0.0083746 -0.32027 
0.079751 0.0018191 0.0052718 0.14321 0.14979 0.085177 0.011355 -0.23148 
0.067913 0.03799 -0.012156 0.10376 0.14174 0.096028 0.078765 -0.050464 
0.010204 0.043745 -0.0090322 0.091589 0.062817 0.069064 0.11395 0.031085 
-0.030899 0.033387 0.024673 0.05476 0.034537 0.031249 0.076463 0.12233 
0.022206 -0.042901 0.027632 0.0098754 0.0072447 0.022371 -0.0059084 0.20503 
0.064954 -0.036818 0.020069 0.012013 -0.019719 0.021713 -0.0067304 0.22674 
0.087972 -0.058521 0.021384 -0.01528 -0.043395 0.015959 -0.0011404 0.22082 
0.074983 -0.081374 0.043416 -0.015609 -0.034516 -0.0021268 0.048348 0.21342 
0.061666 -0.073647 0.059035 0.011355 0.0031344 0.026974 0.077121 0.2389 
0.040456 -0.086142 0.075805 0.0072447 0.004943 0.032071 0.055747 0.19616 
0.073175 -0.067892 0.070873 0.032729 0.018425 0.025988 0.025495 0.077943 
0.030427 -0.0044286 0.056898 0.026646 0.02533 0.02681 0.010697 -0.017582 
-0.065097 0.034537 0.039634 0.04358 0.039305 0.037332 0.066434 -0.096994 
-0.071016 0.061501 0.026317 0.084355 0.049499 0.044402 0.076463 -0.14944 
-0.0091966 0.050321 0.058542 0.037497 0.069393 0.021878 0.060022 -0.20222 
0.076956 -0.015773 0.087314 0.015465 0.034044 0.0034632 0.024508 -0.30531 
0.060186 -0.023829 0.082546 0.0069159 0.033715 -0.014458 -0.0044286 -0.27571 
0.031414 -0.020048 0.063803 -0.0067304 0.0051074 -0.0083746 -0.057863 -0.12675 
0.023193 0.065118 0.023851 0.013328 0.01152 0.032564 -0.028269 0.053116 
0.045553 0.12464 -0.00064712 0.012835 0.017767 0.040456 0.024673 0.093069 
0.10737 0.1733 -0.0034422 0.01563 0.0082312 0.018425 0.052952 0.11559 
0.099974 0.14437 -0.009361 0.064625 0.010533 0.0019835 0.046868 0.1026 
0.053116 0.081067 -0.00081153 0.042594 0.046868 0.012177 0.029112 0.050814 
0.036346 0.071366 0.037332 -0.015609 0.064132 -0.011498 0.030263 -0.023501 
0.033551 0.080738 0.0069159 0.0056006 0.03799 -0.029584 -0.0016336 -0.16802 
0.0059294 0.042594 -0.018568 0.025824 0.029769 -0.054904 -0.0052507 -0.18101 
-0.023007 0.01415 -0.015609 0.081724 0.047526 0.01826 0.01974 0.0039565 
-0.00081153 -0.019061 -0.0013048 0.094548 0.045389 0.025001 0.054925 0.13269 
-0.0096899 -0.08532 0.018096 0.072846 0.05065 0.029441 0.049006 0.14387 
-0.028926 -0.051287 0.055254 0.092082 0.061172 0.03947 0.046375 0.049335 
0.023357 0.019083 0.023686 0.037004 0.046704 0.024179 0.028454 -0.049642 
0.15127 0.019083 0.031742 0.015959 0.0088889 -0.0040998 -0.049642 -0.12001 
0.16558 0.085835 -0.015444 0.016945 -0.021692 -0.0070593 -0.072003 -0.13168 
0.079422 0.10902 -0.016595 0.020069 0.010369 0.0079024 -0.029091 0.014972 
-0.026296 0.1248 0.024673 -0.0091966 -0.0059084 0.036675 0.0069159 0.23742 
-0.016102 0.064296 0.068078 -0.051287 0.0060938 0.075148 0.023522 0.34084 
-0.028597 0.062817 0.072517 -0.0503 0.029605 0.091096 0.057227 0.26998 
0.021056 0.074983 0.052952 0.018589 0.064625 0.09422 0.038648 0.19205 
0.094877 -0.0042642 0.027796 0.045224 0.049664 0.065118 0.00066819 0.12431 
0.095042 -0.011498 -0.0047575 0.054103 0.031249 0.053609 -0.0011404 0.039634 
0.018918 0.03651 -0.0088678 0.041443 0.021056 0.010697 0.02829 -0.045039 
-0.05589 0.081395 -0.022843 0.028783 -0.0044286 -0.0073881 0.061172 -0.066084 
-0.051944 0.092247 0.01974 0.042429 -0.0070593 -0.025802 0.058213 -0.045861 
0.0070803 0.076627 0.038483 0.0028056 -0.0052507 -0.054246 0.0042853 0.031907 
0.026317 0.040621 0.052459 0.011355 0.014643 -0.090581 -0.023172 0.031249 
-0.00064712 0.015301 0.032564 0.015301 0.041443 -0.046683 -0.0078813 -0.066906 
-0.039613 0.041607 0.014972 0.032236 0.049664 0.014808 0.039141 -0.13448 
-0.056055 0.091425 -0.049642 0.092576 0.049499 0.025495 0.14815 -0.1792 
-0.040106 0.12497 -0.050136 0.037168 0.040785 0.0065871 0.20454 -0.1233 
0.021384 0.067256 -0.0027845 -0.0034422 0.023522 0.039799 0.17248 -0.022679 
0.066269 -0.010019 0.044402 0.016123 0.0064227 0.063639 0.10228 0.079094 
0.036182 -0.081045 0.10129 -0.034516 0.017274 0.090438 0.031249 0.13351 
0.095864 -0.10341 0.13516 -0.025309 0.034537 0.1151 -0.063124 0.18333 
0.23808 -0.11245 0.11329 -0.034023 0.015959 0.075805 -0.12494 0.26439 
0.25699 -0.071674 0.064461 0.01563 0.027139 0.037826 -0.11607 0.33015 
0.14091 -0.0087034 -0.016266 0.049335 0.018589 0.037497 -0.03205 0.38046 
-0.0068948 0.11411 -0.040764 0.035524 0.020069 0.038977 0.066434 0.33278 
-0.12166 0.12957 -0.034516 0.035688 0.020562 0.02681 0.091096 0.232 
-0.13514 0.1299 0.029934 0.045882 0.043416 0.019247 0.080409 0.10211 
-0.063618 0.13401 0.095864 0.033715 0.060186 0.03651 0.058213 -0.014458 
-0.030077 0.13795 0.058542 0.072846 0.06183 0.03388 0.08304 -0.069536 
-0.033037 0.15374 0.033058 0.048841 0.066598 0.017603 0.064132 -0.075949 
0.10096 0.11609 0.040292 0.04506 0.046211 0.020562 -0.022843 -0.10012 
0.16936 0.096686 0.055089 0.045882 0.031414 0.0067515 -0.03912 -0.10686 
0.031578 0.16492 -0.0014692 0.022535 0.036839 0.0047785 0.01267 -0.17328 
-0.029584 0.23578 -0.011827 0.019576 0.033551 0.024015 0.095699 -0.14829 
0.02681 0.17856 0.035031 0.0095465 0.027796 0.028947 0.081231 -0.036983 
0.1225 0.052294 0.10129 -0.030077 0.015959 0.011355 0.073997 0.042758 
0.11987 -0.02498 0.10326 -0.0027845 0.0093821 -0.010183 0.046868 0.071531 
0.05213 -0.030077 0.065612 0.0032988 0.023357 0.0083956 0.099481 0.10491 
-0.076113 -0.048492 0.026974 0.019247 0.036346 -0.014951 0.082546 0.16475 
-0.13119 -0.074633 0.030427 0.073668 0.049006 0.037497 0.03092 0.20767 
-0.076771 -0.1039 0.035524 0.032729 0.031907 0.066105 -0.054904 0.21128 
-0.040106 -0.1108 0.011848 0.057555 0.031907 0.035524 -0.0868 0.1276 
0.0072447 -0.18298 0.029112 0.0069159 0.0042853 0.025824 -0.049478 0.089945 
0.049664 -0.34411 0.038812 0.0085601 0.0019835 -0.0016336 -0.00081153 0.025988 
0.082875 -0.55176 0.074983 0.046704 0.012835 -0.0060728 0.069229 -0.0095255 
0.20586 -0.60339 0.10145 -0.011663 0.004943 -0.028433 0.063968 -0.042079 
0.33328 -0.43634 0.079094 -0.0064016 -0.028926 -0.042244 0.11411 -0.033365 
0.3318 -0.10078 0.042429 0.056569 0.021549 0.009711 0.073832 -0.053095 
0.23759 0.29349 -0.0052507 0.12908 0.070051 0.048841 0.033715 -0.017253 
0.13647 0.50887 0.0072447 0.14371 0.099645 0.0421 -0.0060728 -0.028433 
-0.029913 0.57135 0.014643 0.034866 0.056076 0.034373 0.028947 -0.019226 
-0.18824 0.53238 0.0088889 0.0082312 0.021713 0.026974 0.025495 0.012506 
-0.18594 0.47122 -0.0039354 0.019083 0.00083261 0.0072447 0.0019835 -0.008539 
-0.098144 0.33394 0.033222 -0.035338 -0.025802 -0.02794 -0.02646 0.00017495 
0.014479 0.14305 0.042923 -0.025967 -0.040435 -0.017911 -0.055561 -0.017746 
0.070708 0.00099702 0.052952 -0.029913 -0.018075 -0.016595 -0.041915 0.021713 
0.084355 -0.083347 0.083697 1.0539e-005 0.022371 -0.0052507 -0.013471 0.043909 
0.063474 -0.17098 0.10491 0.048348 0.023193 0.012177 0.0082312 0.017932 
0.067091 -0.18611 0.073997 0.034866 0.051472 0.03799 0.016452 -0.018075 
0.026481 -0.17262 0.038155 0.060022 0.066269 0.037168 0.03947 0.0039565 
0.068571 -0.23905 0.016616 0.063145 0.040456 0.04654 0.016781 0.055418 
0.13483 -0.3035 0.026481 0.070051 0.049664 0.068571 0.00083261 0.12233 
0.14897 -0.35841 0.074161 0.076463 0.037004 0.031249 -0.00081153 0.12973 
0.079422 -0.30087 0.08978 0.044567 0.0070803 0.019247 0.013492 0.11888 
-0.011992 -0.090088 0.045882 0.022206 0.0046141 0.020727 0.071037 0.03536 
-0.053588 0.1368 0.0014903 0.050979 0.0034632 0.00033937 0.1031 -0.043559 
-0.051287 0.22575 -0.01232 0.025824 0.0072447 -0.010676 0.073175 -0.16868 
0.01152 0.24844 -0.0057439 0.014643 0.0064227 0.0044497 0.031085 -0.28738 
0.075148 0.2172 0.023357 0.0039565 0.0098754 -0.03205 0.01563 -0.30711 
0.027796 0.17626 0.0047785 -0.001798 0.010369 -0.035174 -0.00097594 -0.2208 
-0.079237 0.20323 0.0051074 0.045882 0.025495 0.0051074 0.0019835 -0.047669 
-0.097816 0.21342 -0.0044286 0.022042 0.036017 0.053445 0.029112 0.21901 
0.031414 0.1738 0.038483 0.0074092 0.01004 0.063474 0.01415 0.33837 
0.20257 0.11543 0.051636 0.0072447 0.0016547 0.06183 -0.038133 0.28001 
0.18415 0.097508 0.012506 0.014315 0.015137 0.053609 -0.011663 0.13943 
-0.0072237 0.18744 -0.072496 0.059857 0.0088889 0.027303 0.075312 0.040456 
-0.15635 0.24696 -0.06707 0.05213 -0.0029489 0.018425 0.08156 0.019905 
-0.19992 0.20586 0.037168 -0.01117 0.013492 0.022206 0.059035 0.00083261 
-0.10045 0.13171 0.15045 -0.028269 0.017932 0.053281 0.00050378 0.0079024 
0.10869 -0.012156 0.19188 -0.066413 0.040456 0.0069159 -0.018897 -0.039613 
0.35103 0.017438 0.10589 0.039305 0.038648 0.020398 -0.060823 0.037004 
0.3318 0.14272 0.013821 0.084026 0.073175 0.052787 -0.076442 0.088794 
0.056076 0.20503 -0.015938 0.09833 0.069722 0.051965 0.075312 0.12381 
-0.11623 0.14091 0.018754 0.065118 0.042429 0.04506 0.15604 0.11609 
-0.10143 0.11543 0.0324 0.0093821 0.034373 0.038812 0.12118 0.082053 
-0.062796 0.098823 0.028125 0.0011614 0.0051074 0.0065871 0.034702 0.01152 
-0.072496 0.17084 -0.019226 0.045389 0.0062583 -0.0087034 0.04654 -0.063782 
-0.068057 0.18004 -0.040435 0.063968 0.0062583 0.024179 0.014315 -0.13727 
-0.074798 0.16393 -0.073647 0.073832 0.047033 0.058049 0.029934 -0.16375 
-0.01939 0.13713 -0.036818 0.063145 0.040128 0.029769 0.028619 -0.25631 
-0.0011404 0.1128 0.016452 0.03092 0.025166 0.017932 0.020069 -0.24924 
0.015137 0.15719 0.024179 0.051801 0.028125 0.01711 0.01974 -0.10587 
0.018425 0.15292 0.036675 -0.0019624 0.051801 0.009711 0.0070803 0.014808 
0.025659 0.15308 0.044073 -0.017911 0.049828 0.033715 0.036346 0.18054 
-0.0078813 0.14782 0.069722 0.0051074 0.01826 0.067749 0.029605 0.25518 
-0.052273 0.099645 0.036346 0.01152 0.01563 0.054103 0.060186 0.26916 
-0.068879 0.1516 -0.047669 0.051965 -0.0055795 0.0592 0.057555 0.14667 
-0.040106 0.12217 -0.087129 0.032564 -0.0090322 0.05476 0.077285 0.055089 
0.034702 -0.03205 -0.018733 0.0051074 0.009711 0.01826 0.034209 0.039305 
0.14469 -0.145 0.091753 0.0056006 0.040621 0.014479 -0.0014692 0.054596 
0.10737 -0.10176 0.13516 -0.0062372 0.040621 0.048184 0.0041209 0.10704 
0.022042 -0.083018 0.10885 0.022371 0.075312 0.05624 0.086985 0.078272 
0.021056 -0.080223 0.030263 0.070544 0.082053 0.03536 0.10343 0.12924 
0.08863 0.02829 -0.01939 0.10063 0.061337 0.041936 0.072681 0.11099 
0.048841 0.070544 -0.05178 0.092082 0.043087 0.040621 0.077285 -0.011992 
-0.053588 0.084684 -0.045368 0.037826 0.0227 -0.017911 0.02829 -0.074633 
-0.095843 0.10392 -0.019719 0.034866 0.0088889 -0.042244 -0.0044286 -0.15487 
-0.029748 0.12792 0.032893 0.023028 0.0087245 -0.036325 -0.021692 -0.23839 
0.029769 0.14519 0.08304 -0.013965 -0.0013048 -0.0040998 0.024344 -0.3104 
0.021056 0.15226 0.061995 0.0069159 0.021384 0.034209 0.053938 -0.20584 
0.056569 0.23808 0.0021479 0.01974 0.048348 0.069886 0.013657 0.010369 
0.13878 0.21145 -0.043888 0.043087 0.059364 0.082217 -0.020377 0.17248 
0.19698 0.01826 0.013657 0.051308 0.040785 0.037332 -0.021363 0.2371 
0.15127 -0.24168 0.14289 -0.03764 0.031414 -0.0040998 -0.018733 0.17922 
0.09422 -0.36334 0.16048 -0.068386 0.015301 -0.0021268 0.0019835 0.093398 
0.0031344 -0.24135 0.091425 -0.033365 -0.0021268 -0.015116 0.041607 0.094384 
-0.0024557 -0.10834 0.04506 0.0082312 -0.013636 -0.0095255 0.026646 0.072681 
0.014479 -0.11196 -0.0031133 0.093398 0.016616 0.019411 0.019411 0.019247 
0.033551 -0.12462 -0.022185 0.092247 0.029276 0.04095 0.032236 0.0054362 
0.084684 -0.13678 0.067256 0.070215 0.017767 0.048184 0.086492 -0.023829 
0.14996 -0.064768 0.055089 0.03092 0.048513 0.040128 0.082875 0.083204 
0.16903 -0.0019624 0.033058 0.012342 0.068736 0.059857 0.086492 0.14897 
0.12201 0.024179 -0.024158 0.033058 0.041114 0.043909 0.099316 0.18235 
0.0056006 -0.12412 -0.0088678 0.03799 0.029605 -0.0047575 0.069722 0.12908 
-0.0014692 -0.30284 0.056404 0.021056 0.0079024 -0.013471 -0.023501 0.0227 
-0.10489 -0.23444 0.12053 0.044896 0.014315 -0.023665 -0.033201 -0.032215 
-0.18348 -0.082525 0.11592 0.01267 0.00033937 -0.014951 -0.039449 -0.023007 
-0.011498 0.087314 0.10392 0.016945 0.038483 0.013492 -0.10176 0.016781 
0.085506 0.18613 0.052294 0.049664 0.045553 0.017438 -0.10669 0.007738 
0.088301 0.23446 -0.00015387 0.078272 0.058213 0.0227 -0.024816 0.0082312 
0.010533 0.18366 -0.010019 0.085999 0.044402 0.036675 0.090767 0.069722 
0.014643 0.09981 0.011191 0.033551 0.038977 0.027632 0.08008 0.031907 
0.17791 0.010369 0.055582 -0.059178 -0.032872 -0.047834 0.023851 -0.025309 
0.30763 -0.023172 0.10293 -0.020541 -0.026296 -0.049478 0.043087 -0.090746 
0.21358 0.0075736 0.05213 -0.0032777 0.0062583 -0.0073881 0.1054 0.01267 
-0.05326 0.084519 -0.035503 0.056076 0.052459 0.00050378 0.1276 0.1276 
-0.16227 0.031742 -0.025145 0.058377 0.056569 0.014479 0.10211 0.19468 
-0.031064 -0.13843 0.061172 0.023028 0.020891 0.036017 0.024179 0.20142 
0.22361 -0.21422 0.13286 0.0082312 0.034866 0.044731 -0.082854 0.17741 
0.24926 -0.12725 0.12135 -0.022514 0.038648 0.016288 -0.091075 0.14897 
0.10244 -0.025474 0.084355 0.040128 0.023522 0.0056006 -0.033037 0.14223 
-0.085813 0.09833 0.018589 0.09126 0.030263 0.025495 0.0079024 0.097672 
-0.11689 0.15867 -0.026624 0.087972 0.05624 0.021056 0.011848 0.037004 
-0.065591 0.10885 -0.014787 0.04917 0.03092 0.020398 0.041936 -0.021692 
-0.097487 0.050979 -0.0060728 0.012013 -0.015444 0.051636 0.087808 0.012835 
-0.080717 -0.0032777 0.051636 -0.008539 -0.014622 0.056733 0.12381 0.072353 
-0.07414 0.03388 0.041936 0.015465 -0.014787 0.061501 0.15127 0.074326 
-0.11196 0.13993 0.012999 -0.0027845 -0.020212 0.07449 0.15703 0.011026 
-0.020377 0.19336 0.037497 -0.0032777 -0.034023 -0.0016336 0.068078 -0.047505 
0.077285 0.16442 0.08863 -0.024323 -0.053917 -0.08121 -0.048492 -0.07562 
0.088465 0.1636 0.085835 -0.029913 -0.02235 -0.091897 -0.065426 -0.031392 
0.10573 0.14568 0.080902 0.0036276 0.014972 -0.030899 -0.042737 0.032071 
0.19353 -0.040271 0.06742 0.028619 0.080244 0.012342 -0.020541 0.09685 
0.27623 -0.206 0.048019 0.08419 0.11658 0.054925 -0.0080457 0.11214 
0.29267 -0.15421 -0.0096899 0.17297 0.16985 0.10573 -0.0077169 0.096521 
0.11066 0.05065 -0.068386 0.14469 0.15768 0.085999 0.053116 0.076134 
-0.22244 0.25913 -0.098473 0.11378 0.098166 0.06183 0.1225 0.039141 
-0.35101 0.36221 -0.068714 0.06183 0.061008 0.048677 0.13434 0.021384 
-0.22063 0.36468 0.016452 -0.018897 0.0047785 0.048348 0.070215 -0.027118 
0.045882 0.23578 0.1151 -0.07562 -0.032379 0.032729 0.018918 -0.040928 
0.13582 0.12875 0.1761 -0.09946 -0.028433 0.0079024 -0.031228 -0.043888 
0.080244 0.082546 0.14831 -0.074469 -0.026624 0.021056 -0.0039354 -0.033859 
-0.024816 0.11033 0.040292 -0.013965 -0.0072237 0.013657 0.02533 -0.0087034 
-0.14221 0.13384 -0.025967 0.031742 0.010533 0.030263 0.11296 -0.028104 
-0.13201 0.17149 -0.060823 0.080738 0.038155 0.067749 0.088465 0.00050378 
-0.029091 0.055089 -0.041093 0.06479 0.034044 0.042923 0.032564 0.0070803 
0.16344 0.0098754 -0.025474 0.019905 0.025824 0.011191 0.0082312 -0.062467 
0.26603 0.036017 0.040785 0.0082312 -0.0050863 0.016616 -0.031557 -0.091075 
0.16919 -0.023007 0.11839 -0.037311 0.014972 0.012177 -0.055561 -0.070852 
0.099645 -0.15487 0.17051 -0.037969 0.009711 -0.0062372 -0.01528 -0.055726 
0.077285 -0.10094 0.11576 0.053938 0.058542 -0.0026201 0.036839 -0.003771 
0.073668 -0.017088 0.021384 0.10096 0.087314 0.045718 0.036182 0.12414 
0.052787 0.11165 -0.028597 0.11543 0.10639 0.066927 0.023851 0.27244 
0.092576 0.17988 -0.010512 0.063639 0.080409 0.08715 -0.036654 0.29612 
0.21539 0.18103 -0.026296 0.040456 0.054103 0.095864 -0.055726 0.24976 
0.16837 0.16097 -0.01528 0.062981 0.036346 0.045718 -0.050958 0.1465 
-0.013143 0.1419 -0.0022913 0.025495 0.026317 0.034537 0.058871 0.11477 
-0.14977 0.13582 0.020233 -0.0087034 0.0024767 0.042923 0.14075 0.10787 
-0.18002 0.14486 0.0028056 -0.009361 -0.022679 0.010204 0.19188 0.0080668 
-0.21981 0.18646 -0.043066 -0.028597 -0.025967 0.016616 0.18794 -0.14698 
-0.17641 0.13335 0.014808 0.023522 0.00033937 0.011191 0.12513 -0.31731 
-0.037805 -0.066577 0.10178 -0.025474 0.025659 0.049335 0.020398 -0.40297 
0.19879 -0.19334 0.1544 -0.015609 0.047855 0.019905 -0.06444 -0.35036 
0.60177 -0.1746 0.15209 0.024179 0.013328 -0.017253 -0.14763 -0.20584 
0.75549 -0.1159 0.064461 0.027796 0.025001 0.0013258 -0.13563 -0.088608 
0.55014 -0.10406 -0.0039354 0.048184 0.0042853 -0.0070593 -0.031557 -0.087622 
0.15785 -0.065755 0.025495 0.047033 0.029769 -0.010019 -0.015444 0.024179 
-0.13958 -0.040928 0.031907 0.028783 0.0421 0.042594 -0.0042642 0.18514 
-0.40576 0.080573 0.0062583 0.058871 0.032729 0.048513 0.0072447 0.21095 
-0.60076 0.19764 -0.036325 0.083533 0.052623 0.052294 0.055911 0.2006 
-0.55406 0.084684 -0.025967 0.039141 0.052294 0.037661 0.020233 0.11855 
-0.24645 -0.12379 0.037661 0.020891 0.054432 0.053938 0.024179 0.069722 
0.072846 -0.15437 0.11017 -0.00015387 0.041936 0.036017 0.04358 0.070873 
0.16475 -0.020706 0.077449 0.055418 0.042265 0.03799 0.03388 0.075312 
0.11921 0.1345 -0.0054151 0.058542 0.032071 0.027796 0.013492 0.097015 
0.14157 0.14305 -0.008539 0.062488 0.025824 0.025001 0.025659 0.052459 
0.17001 0.098001 0.013164 0.056076 -0.038462 0.017767 0.041443 0.0046141 
0.13088 0.099645 0.016945 0.0047785 -0.035996 0.010369 0.049992 -0.00097594 
0.076299 0.15045 -0.042737 0.0062583 -0.045039 0.01415 0.017767 0.025659 
0.047526 0.085506 0.033222 -0.020212 -0.0060728 0.0052718 0.021384 -0.0013048 
0.16508 -0.062631 0.095535 -0.0050863 0.028947 0.02533 -0.0075525 -0.047834 
0.12595 -0.064275 0.090109 0.014479 0.047033 0.0090533 -0.0011404 -0.025638 
0.030427 0.020069 0.069064 -0.0029489 0.049006 -0.014458 0.012999 0.0016547 
-0.027611 0.064625 0.048841 0.00033937 0.0016547 -0.015773 0.040128 -0.009361 
-0.053424 0.067256 0.0093821 0.043251 0.0037921 0.013821 0.03799 0.0041209 
-0.076935 0.073668 0.01152 0.036017 0.01974 0.016616 0.030427 0.016616 
-0.073647 0.088301 -0.0090322 0.023686 0.047362 0.025659 -0.0049219 0.084026 
-0.087622 0.11 -0.037311 0.022535 0.031085 0.017767 0.020398 0.091753 
-0.077428 0.12414 -0.042244 0.038155 0.027468 -0.0054151 -0.01117 0.004943 
-0.01528 0.098166 -0.041257 0.054103 0.0051074 -0.032215 -0.020706 0.029605 
0.025166 -0.0022913 0.03388 0.018918 -0.0067304 -0.010512 0.034537 0.051636 
-0.047012 -0.012156 0.086492 0.029934 0.025495 0.03536 0.13006 0.041114 
-0.2282 0.016288 0.055582 0.039634 0.038812 0.046868 0.17412 -0.0014692 
-0.2642 0.004943 0.035524 0.042594 0.063803 0.06479 0.085999 -0.057205 
-0.010348 0.023028 0.043087 0.066434 0.048513 0.060679 0.0023123 -0.014129 
0.2103 0.080409 0.020398 0.041936 0.041114 0.034209 -0.070687 0.047033 
0.23019 -0.028597 0.01711 -0.010676 0.041772 0.018754 -0.063453 0.072024 
0.13171 -0.1672 0.037168 0.0095465 0.052952 0.031085 0.0023123 0.044896 
0.051636 -0.13432 0.027303 0.0072447 0.055911 -0.0040998 0.088136 -0.046847 
0.06742 0.020069 0.0037921 0.033058 0.055911 -0.015116 0.085177 -0.024158 
0.16015 0.12464 0.025001 0.065776 0.0042853 -0.031886 0.044402 0.086492 
0.09981 0.19928 -0.026953 0.041607 -0.044217 -0.022185 0.039963 0.22641 
-0.080223 0.26817 -0.08269 0.079094 -0.063618 -0.004593 0.042594 0.27195 
-0.20732 0.29842 -0.058521 0.03651 -0.021034 0.0032988 0.076792 0.21654 
-0.22376 0.25765 0.025659 -0.02235 0.0054362 0.019247 0.090931 0.14881 
-0.084991 0.069393 0.17495 -0.05737 0.022206 -0.00081153 0.10803 0.046375 
0.071366 0.016781 0.22279 -0.075455 0.037004 0.027961 0.080573 -0.016102 
0.14486 0.10885 0.11017 0.011191 0.071037 0.059364 0.02681 0.050321 
0.085999 0.15867 -0.012485 0.040785 0.082875 0.07301 0.023686 0.12875 
0.15111 -0.050629 -0.01232 0.042594 0.078765 0.053609 0.0034632 0.082217 
0.33492 -0.28755 0.033551 0.043087 0.030756 0.038977 -0.075127 -0.030242 
0.39099 -0.23855 0.053116 0.015465 0.010204 0.012342 -0.074798 -0.15964 
0.22887 -0.12248 0.024015 0.042594 0.02829 -0.0060728 0.00099702 -0.16687 
0.039799 -0.078415 0.0034632 0.07301 0.057884 0.01415 0.062652 0.030098 
-0.031392 -0.013965 0.018096 0.075312 0.072681 0.074326 0.090767 0.15883 
0.0072447 -0.055068 0.012342 0.099974 0.067256 0.039634 0.06035 0.12233 
0.065118 -0.23083 0.056404 0.078929 0.056733 0.040785 0.079916 0.092904 
0.11724 -0.23938 0.082546 0.048841 0.03388 0.03799 0.054596 0.084848 
0.077778 -0.041422 0.0324 0.058213 -0.0022913 0.0028056 0.044896 0.084519 
0.0092177 0.22493 0.046375 -0.0057439 -0.035996 -0.027611 0.062817 0.086985 
-0.035996 0.35531 0.0090533 -0.011663 -0.026131 -0.010183 0.052952 0.054925 
-0.013143 0.35219 -0.019061 -0.013471 -0.0077169 0.0047785 0.0028056 0.050814 
0.0062583 0.23956 -0.02646 0.017438 0.015794 0.01267 -0.011827 -0.006566 
-0.058192 0.14042 -0.032872 0.083204 0.010204 0.012342 0.026481 -0.020706 
0.015959 0.018754 0.029276 0.065612 0.02533 0.04095 0.058706 0.070051 
0.25715 -0.0022913 0.098988 0.02681 0.023686 0.01152 -0.012978 0.11872 
0.28691 -0.018239 0.15719 -0.03764 0.0014903 0.0047785 -0.04619 0.15193 
0.089123 -0.077264 0.14601 -0.049478 0.014479 0.049335 0.034209 0.10228 
-0.090581 -0.075949 0.025659 0.019905 0.045224 0.047855 0.076134 0.13023 
-0.082196 -0.0055795 -0.075784 0.086821 0.064461 0.052294 0.043416 0.15028 
0.059035 0.0075736 -0.023994 0.08419 0.073504 0.042265 -0.042573 -0.02498 
0.092411 -0.050793 0.053609 0.059528 0.04506 0.037332 -0.020377 -0.22162 
0.012177 -0.011005 0.080573 -0.0075525 0.049335 0.011191 -0.035503 -0.39557 
-0.0004827 0.10606 0.0421 1.0539e-005 0.069886 0.017603 -0.0060728 -0.44407 
0.046211 0.11247 0.0421 0.019576 0.06479 0.016452 0.049992 -0.3035 
0.20355 0.021713 0.062323 0.01711 0.053609 -0.012978 0.055582 -0.11113 
0.36616 -0.020541 0.054925 0.061008 0.025659 -0.013471 0.0031344 0.13828 
0.39608 0.036182 0.0098754 0.035031 0.020727 0.044073 -0.031886 0.24548 
0.1756 0.088136 0.0034632 0.063145 0.016781 0.051308 0.017603 0.19681 
-0.22228 0.090274 -0.0078813 0.071366 0.026481 0.050979 0.039799 0.075641 
-0.59582 0.14765 -0.032872 0.10491 0.08156 0.05476 0.057062 0.049992 
-0.57988 0.20997 -0.056877 0.12792 0.060844 0.066269 0.046868 0.071202 
-0.27801 0.23496 -0.013307 0.041772 0.057884 0.038155 0.01974 0.068078 
0.12414 0.13006 0.068736 -0.052437 -0.018733 -0.003771 -0.065591 0.075805 
0.29365 0.0324 0.12266 -0.062302 -0.032872 -0.0077169 -0.088773 -0.0019624 
0.16475 0.034044 0.10622 -0.077264 -0.016431 -0.0029489 0.0070803 -0.044381 
0.056733 0.028783 0.039963 0.0037921 0.01974 0.023193 0.025166 -0.068057 
0.06183 -0.018239 -0.05326 0.076792 0.03947 0.024179 0.020069 -0.11179 
0.092904 -0.015444 -0.052273 0.11559 0.0324 0.02122 0.039799 -0.087458 
0.045389 0.0051074 -0.0072237 0.1151 0.045718 0.032236 0.13434 -0.043559 
-0.057041 -0.017253 0.08863 0.018425 0.034702 0.024673 0.17215 -0.0026201 
-0.15832 0.013657 0.11872 -0.034188 0.0036276 0.032071 0.15489 0.05624 
-0.13941 0.21621 0.02533 -0.012814 -0.009361 0.0064227 0.065118 0.08008 
0.015959 0.25567 -0.015609 -0.029913 0.034209 -0.0075525 0.0059294 0.083368 
0.15127 0.17626 0.041772 0.00099702 0.069886 0.014972 -0.066577 0.042923 
0.11395 0.13861 0.099152 0.019083 0.088794 -0.0026201 -0.079566 0.01711 
-0.08532 0.12233 0.059857 0.069064 0.11362 0.023028 -0.028597 0.014315 
-0.21258 0.14174 -0.047669 0.14683 0.086821 0.034866 0.054267 -0.0077169 
-0.11048 0.12891 -0.083018 0.10113 0.00099702 0.033058 0.033058 -0.025802 
0.094548 0.060186 -0.011663 0.011355 -0.077428 -0.021692 -0.021528 -0.051451 
0.14338 -0.040764 0.081067 -0.037969 -0.0406 -0.001798 0.018918 -0.024652 
0.025495 -0.056877 0.10836 -0.017746 0.036182 0.038648 0.071695 -0.022679 
-0.10653 0.055418 0.032236 0.051636 0.058542 0.086985 0.052294 0.025824 
-0.057534 0.076956 -0.021199 0.042429 0.056076 0.10162 0.023193 0.058706 
0.094384 0.01826 -0.024323 0.047691 0.03651 0.075476 -0.0016336 0.048184 
0.072846 0.038319 -0.0050863 0.10178 0.026646 0.035688 0.012177 0.031742 
-0.087951 0.01415 0.049664 0.03388 0.0087245 0.026646 0.066763 0.066105 
-0.1016 -0.039778 0.10392 -0.012814 0.010204 0.03092 0.073832 0.1271 
-0.014458 0.018754 0.10803 -0.041093 0.00083261 -0.0062372 0.025824 0.17593 
0.0085601 0.064132 0.05213 -0.026953 0.0093821 -0.03501 0.013164 0.16015 
0.025659 0.082875 -0.0052507 0.032236 -0.033201 -0.029091 0.031907 0.12858 
0.10852 0.072517 0.031085 0.0034632 -0.018075 0.005765 0.055911 0.11198 
0.24005 -0.0032777 0.079422 0.0026412 -0.014458 0.035853 0.079587 0.077614 
0.16804 -0.027611 0.09833 -0.011334 -0.010183 0.032729 0.10244 0.072517 
0.019576 0.032729 0.099645 -0.044546 0.010369 0.05772 0.1544 -0.0042642 
-0.045532 0.092082 0.04917 -0.015609 0.041443 0.025166 0.096028 -0.061316 
-0.026131 0.073504 0.072681 0.004943 0.084848 0.012999 -0.0036066 0.053774 
0.024837 0.097179 0.063639 0.022864 0.087314 0.048348 -0.060987 0.16804 
-0.032379 0.11198 -0.015773 0.13203 0.10244 0.047362 -0.022843 0.20882 
-0.018075 0.061501 -0.046847 0.12053 0.076792 0.051801 0.0024767 0.14108 
0.11543 -0.010183 -0.048656 0.10293 0.01415 0.022864 -0.012649 0.040785 
0.20438 0.027796 -0.057863 0.08715 -0.0075525 0.026317 -0.024323 0.010862 
0.19714 -0.074633 0.019411 0.041278 0.0026412 0.017932 0.0018191 0.043745 
0.12332 -0.17082 0.13236 0.023193 0.0227 0.015301 0.029934 0.11296 
0.014643 -0.082525 0.14568 -0.020706 0.046211 0.063803 0.07301 0.088958 
-0.18528 0.083533 0.059693 -0.029913 0.00297 0.032893 0.15407 0.057391 
-0.2282 0.2195 -0.070359 0.061337 -0.044874 0.0054362 0.15423 0.015301 
-0.09091 0.23726 -0.1205 0.025495 -0.10324 -0.0054151 0.055582 -0.034845 
0.029605 0.065447 -0.020706 -0.014458 -0.096007 -0.045368 0.0028056 -0.077264 
0.037004 -0.035832 0.14469 -0.070194 -0.071838 -0.07266 -0.020377 -0.08828 
0.13516 -0.018239 0.27031 -0.15717 0.0054362 -0.071674 -0.065591 -0.045203 
0.34166 0.081067 0.22246 -0.071016 0.095699 -0.014129 -0.11294 -0.018897 
0.38375 -0.015116 0.10672 0.0036276 0.15949 0.055911 -0.097322 0.019411 
0.29234 -0.25138 0.031414 0.073339 0.15489 0.085012 -0.0050863 0.04506 
0.18678 -0.41974 -0.042901 0.15653 0.078765 0.084848 0.047526 0.066598 
0.069229 -0.38422 -0.11968 0.20027 0.037168 0.08419 0.072517 0.098988 
-0.027775 -0.29988 -0.11261 0.18383 0.023522 0.08715 0.11494 0.07038 
-0.19301 -0.12067 0.044073 0.054267 0.026646 0.06331 0.15045 0.038319 
-0.21751 0.060515 0.16853 -0.023007 0.028454 0.019576 0.063803 0.025659 
0.0018191 0.12069 0.17281 0.007738 0.03092 -0.012649 -0.043066 0.014315 
0.22033 0.22361 0.090767 0.04095 0.048184 -0.0054151 -0.012978 0.068736 
0.22115 0.23874 -0.023994 0.053116 0.068736 0.045389 -0.0022913 0.10754 
0.047691 0.18991 -0.033365 0.047855 0.041772 0.051143 -0.0044286 0.080409 
-0.012156 0.13302 -0.024652 0.052952 0.024179 0.012342 0.010369 0.064132 
-0.034023 0.10392 -0.02235 0.076627 0.059364 0.028454 0.019083 0.052787 
0.05065 0.04358 0.01974 0.0032988 0.040128 0.00033937 -0.014622 0.015301 
0.11165 0.028947 0.048513 -0.017417 0.0036276 -0.019719 -0.014293 -0.037476 
0.076792 -0.0078813 0.048184 0.0083956 -0.010348 -0.014951 0.00017495 -0.058028 
0.03536 -0.016102 0.032893 0.0065871 0.013657 -0.014787 0.029605 -0.1575 
0.012342 0.012999 0.027961 0.031742 0.023357 -0.026296 0.047033 -0.25532 
-0.026296 0.024508 0.044731 0.049664 0.040621 -0.01676 0.047197 -0.22507 
-0.022185 0.030756 0.049499 0.023686 0.032729 -0.0054151 0.045882 -0.16588 
-0.031886 0.0592 0.048841 0.034209 0.040456 0.00017495 0.045882 0.030098 
-0.060165 0.070873 -0.017911 0.0085601 0.026974 0.0095465 0.04506 0.17281 
-0.052109 0.037332 -0.0014692 0.026317 -0.0052507 0.043909 0.054596 0.12168 
0.0052718 -0.044217 0.032071 0.034537 -0.0049219 0.014315 0.059035 -0.046025 
0.039799 -0.025802 0.075148 -0.0067304 0.00017495 0.019411 0.021878 -0.1644 
0.017932 0.012999 0.065776 0.033715 0.032564 0.049006 0.014808 -0.039778 
0.029605 0.019905 0.062652 0.041772 0.072517 0.062323 0.0087245 0.078272 
0.15834 0.030592 0.099645 0.048348 0.12118 0.088301 -0.018733 0.08304 
0.21917 0.05624 0.086985 0.056898 0.11937 0.066927 -0.049807 0.095699 
0.098823 0.14321 0.015794 0.041936 0.096193 0.061995 -0.0090322 0.12135 
-0.052602 0.22361 -0.024323 0.061995 0.064625 0.062488 0.077943 0.084519 
-0.15141 0.24811 -0.058192 0.099481 0.039141 0.037168 0.11395 0.00099702 
-0.22951 0.26373 -0.10258 0.080902 0.0031344 0.0064227 0.098659 -0.052109 
-0.25352 0.33015 -0.057699 0.084848 -0.0016336 -0.030406 0.058871 0.11477 
-0.1598 0.26011 -0.037805 0.040292 -0.0019624 -0.012649 0.045718 0.26373 
0.065118 -0.019226 0.065776 -0.021363 -0.0021268 -0.003771 -0.029255 0.16229 
0.23085 -0.16966 0.18794 -0.050629 -0.056383 -0.038133 -0.054904 -0.13201 
0.21917 -0.054904 0.16475 -0.057205 -0.043559 -0.058521 -0.041093 -0.37337 
0.17232 0.12398 0.041278 -0.017417 -0.014787 -0.05178 0.0024767 -0.29199 
0.11329 0.16245 0.00297 0.014643 0.0075736 0.009711 0.0021479 -0.00081153 
-0.0027845 0.12217 0.037826 0.0082312 0.025001 0.028125 0.01974 0.24844 
-0.11689 0.16903 -0.0080457 0.068078 0.055747 0.049335 0.084355 0.22082 
-0.18545 0.23414 -0.058521 0.059693 0.063145 0.076463 0.15949 0.11987 
-0.1182 0.25617 -0.010183 0.061008 0.043416 0.0421 0.18103 0.038319 
0.01563 0.16442 0.073997 0.033058 0.028783 0.038648 0.09685 -0.073318 
0.19435 0.10408 0.11954 -0.00081153 0.027961 0.027468 -0.015773 -0.10752 
0.14404 0.14223 0.068078 0.030098 -0.0068948 0.060515 -0.018733 -0.0031133 
-0.043724 0.13647 0.0028056 0.0039565 0.024179 0.02681 0.0046141 0.10343 
-0.028926 0.13171 -0.038956 -0.015609 0.028619 0.044567 0.024837 0.19221 
0.040785 0.12908 -0.054082 0.068242 0.048348 0.042758 0.060679 0.1927 
-0.018075 0.11296 -0.011005 0.043909 0.058213 0.016616 0.082053 0.14371 
-0.052766 0.10343 0.007738 0.029934 0.0023123 0.024508 0.045389 0.10376 
-0.025309 0.10277 0.01711 -0.0011404 -0.022514 0.022535 0.020562 0.11872 
0.028125 0.030756 0.053938 -0.01528 -0.037476 -0.010512 -0.0082102 0.089287 
0.030592 -0.11409 0.086657 0.0095465 -0.017417 -0.010676 -0.029748 0.072846 
-0.01117 -0.18331 0.047197 -0.0040998 0.025824 0.016452 -0.0021268 0.13088 
0.072024 -0.16358 0.04095 0.00297 0.034537 0.049828 -0.011992 0.17593 
0.19829 -0.13333 0.069064 0.032236 0.051472 0.033058 -0.030077 0.19402 
0.18432 0.0082312 0.04506 0.042923 0.029769 0.032236 0.0092177 0.12349 
0.11329 0.11526 0.014972 0.046211 0.0090533 0.0059294 0.041278 -0.07562 
-0.022514 0.16837 0.018918 -0.010019 -0.047834 -0.042901 0.094384 -0.20304 
-0.091732 0.19303 0.030263 -0.021528 -0.081045 -0.059836 0.087314 -0.21899 
-0.016431 0.07038 0.054596 0.0014903 -0.031064 -0.030899 0.078272 -0.16851 
0.28362 -0.12034 0.073668 0.040785 0.083862 0.014972 0.046704 -0.12018 
0.42288 -0.086964 0.025166 0.12036 0.17166 0.11165 0.026481 0.020398 
0.17626 0.029605 -0.018897 0.16196 0.22707 0.21506 0.035853 0.14864 
-0.18052 0.043087 -0.091732 0.18136 0.21605 0.17922 0.03947 0.20306 
-0.34098 0.073668 -0.065097 0.15226 0.10951 0.077614 0.032564 0.18218 
-0.22606 0.085012 0.022206 0.017603 0.025001 -0.0055795 -0.025474 0.13467 
0.0421 0.042429 0.080409 -0.06707 -0.060658 -0.053917 -0.074469 0.085835 
0.18119 -0.0039354 0.078929 -0.062796 -0.07414 -0.088937 -0.044546 0.096686 
0.088794 0.0227 0.049828 -0.057863 -0.04619 -0.053095 0.0024767 0.089123 
0.011684 -0.0054151 0.019411 -0.0095255 -0.020048 -0.0078813 0.034537 0.098494 
0.1026 -0.076935 0.035688 0.031742 0.0095465 0.010533 0.038812 0.12546 
0.12661 -0.1358 0.086328 0.063639 0.035853 0.031742 0.057227 0.080738 
0.072024 -0.16605 0.081231 0.073668 0.035195 0.067091 0.065283 0.035688 
0.048841 -0.13004 0.049335 0.058542 0.030592 0.066434 0.050979 -0.11837 
0.038155 -0.059836 0.015959 0.034209 0.035524 0.054103 0.023686 -0.22458 
0.073339 -0.0064016 0.061337 0.010862 0.051965 0.030263 0.013492 -0.21406 
0.11691 -0.062796 0.077943 -0.020706 0.078107 0.051308 0.013492 -0.19663 
0.067913 -0.0047575 0.024015 0.026481 0.071859 0.069393 0.040292 -0.14467 
-0.057205 0.08567 -0.075455 0.056898 0.051965 0.048019 0.064461 0.01415 
-0.12215 0.074819 -0.054904 0.024344 0.0090533 0.03799 0.093562 0.2851 
-0.12626 0.049828 0.017603 0.035524 0.010369 0.025824 0.038319 0.51956 
-0.1011 0.069229 0.08863 0.0092177 0.020891 0.0324 -0.032215 0.54471 
-0.023172 0.078272 0.076463 0.020727 0.053774 0.055911 -0.010348 0.45774 
0.064132 0.10458 0.042923 0.059857 0.073997 0.0072447 -0.032379 0.22838 
0.079422 0.068407 0.054925 0.02122 0.023522 -0.027611 -0.050793 -0.092554 
0.082546 0.056569 0.073339 0.035195 0.020069 -0.084663 -0.090417 -0.30514 
0.087479 0.083862 0.022371 0.00017495 0.014315 -0.054246 -0.12922 -0.47186 
0.0065871 0.1174 -0.025474 0.0028056 0.024508 -0.034352 -0.0052507 -0.55669 
-0.11985 0.11576 -0.015773 0.029934 0.011026 0.01563 0.17396 -0.5248 
-0.16621 0.12875 -0.042737 0.023357 0.0024767 0.08304 0.24877 -0.37337 
-0.1039 0.081067 0.0064227 0.014972 0.0036276 0.075312 0.17281 -0.19581 
-0.015938 0.010533 0.08008 -0.019061 -0.0029489 0.062488 0.075476 0.034537 
0.15851 -0.19054 0.17034 -0.038298 0.013821 0.10096 0.017932 0.22131 
0.4094 -0.29314 0.16607 0.0028056 0.010204 0.090109 -0.053588 0.23989 
0.29332 -0.11919 0.10589 0.013492 0.014479 0.049499 -0.045039 0.24745 
0.021713 0.11099 -0.00097594 0.01711 -0.0052507 0.011848 -0.015116 0.19944 
-0.037805 0.22476 -0.018733 0.020562 0.031414 0.01826 0.037004 0.20635 
-0.06444 0.25699 0.033222 -0.0032777 0.076299 0.039634 0.15522 0.27343 
-0.11574 0.22345 0.0689 -0.016102 0.03947 0.037168 0.19533 0.37619 
-0.12412 0.11806 0.053609 -0.028104 -0.012156 0.041607 0.1271 0.3581 
-0.068057 -0.034023 0.032564 -0.023829 -0.021363 0.0021479 0.013328 0.16903 
0.01152 -0.18643 0.016123 0.052623 0.024179 0.0098754 -0.01939 0.14486 
0.16229 -0.3132 0.059035 0.04654 0.070215 0.034537 -0.087622 0.097344 
0.30582 -0.23099 0.10967 0.031085 0.07038 0.010862 -0.11097 0.045224 
0.30549 -0.015773 0.052787 0.024015 0.048184 -0.0082102 -0.055068 -0.17377 
0.17922 0.1955 0.0032988 0.022042 0.017767 -0.053424 -0.033859 -0.47087 
0.076627 0.23825 -0.010183 0.068078 0.021878 -0.07266 -0.047012 -0.57544 
0.010204 0.23414 0.013657 0.057555 0.03388 -0.072825 -0.0024557 -0.32142 
-0.088773 0.22148 0.024673 0.019247 0.0024767 -0.025145 0.12644 -0.079895 
-0.13168 0.15933 0.046046 0.0037921 -0.020048 0.025001 0.1516 -0.021692 
-0.071345 0.1853 0.037168 -0.021363 -0.042244 0.05065 0.13023 -0.10242 
0.027796 0.15094 0.00033937 -0.030899 -0.033694 0.0227 0.086492 -0.19383 
0.0054362 0.11198 0.0070803 -0.018075 -0.029913 -0.0016336 0.075805 -0.10308 
-0.055726 0.077778 -0.00081153 -0.018897 -0.018404 0.0021479 0.059528 0.13532 
0.028947 -0.030406 0.041443 0.016616 0.011355 0.06331 0.026481 0.35712 
0.43078 -0.09798 0.080573 -0.0062372 0.075805 0.055418 0.014479 0.35646 
0.69976 -0.053917 0.073175 0.047033 0.098494 0.072681 -0.017746 0.24795 
0.49342 -0.0029489 -0.0083746 0.12743 0.087314 0.063639 0.015137 0.08715 
0.08715 0.05065 -0.024816 0.10458 0.10967 0.07449 0.042429 -0.020541 
-0.22902 0.049828 0.067585 0.066434 0.063145 0.046211 0.020891 -0.048492 
-0.46051 -0.037476 0.16574 -0.052109 0.011026 -0.014293 -0.038298 -0.039613 
-0.65238 -0.11804 0.14305 -0.084498 0.021549 -0.020706 -0.082854 0.025824 
-0.58678 0.0032988 0.038977 0.056733 0.060515 0.027139 0.026152 0.093398 
-0.27259 0.058377 -0.0771 0.12102 0.098001 0.039963 0.09685 0.14141 
0.10244 0.046211 -0.10637 0.12069 0.075476 0.064625 0.072517 0.19714 
0.39049 0.042594 -0.024323 0.11444 0.061172 0.043909 0.0023123 0.041443 
0.40973 0.19024 -0.010348 0.019905 -0.0098543 0.032071 -0.017417 -0.039284 
0.29168 0.25403 0.0074092 0.0036276 -0.044052 -0.017417 -0.0062372 -0.064275 
0.09981 0.36271 -0.0011404 -0.015444 -0.050629 -0.018239 0.020233 -0.057699 
-0.064111 0.36879 -0.0039354 -0.027775 -0.052931 0.0037921 0.074161 -0.024487 
-0.14007 0.23973 0.044731 0.0056006 -0.011992 0.00050378 0.091425 -0.013307 
-0.06148 0.01563 0.099481 0.010697 0.026152 0.033551 0.043416 0.020891 
0.051472 -0.063289 0.080738 0.013821 0.049335 0.043087 0.031249 0.015465 
0.052623 0.066598 -0.054904 0.066434 0.078272 0.024837 0.051472 0.051308 
-0.016431 0.18267 -0.087622 0.10392 0.095864 0.029934 0.069886 0.08978 
-0.12692 0.20175 -0.039613 0.12513 0.064954 0.031414 0.040292 0.068571 
-0.16638 0.18761 0.025001 0.057062 0.028125 0.016616 0.01563 0.06742 
-0.033365 0.085341 0.069886 -0.0064016 0.025495 0.017438 -0.014129 0.092904 
0.22296 -0.095514 0.12447 -0.038298 -0.0036066 -0.0057439 -0.10127 0.076956 
0.20553 -0.19433 0.17429 -0.074798 -0.017253 0.035524 -0.0771 0.10787 
0.019905 -0.10127 0.073339 0.0031344 0.023851 0.042265 -0.00064712 0.13203 
0.052952 -0.0047575 -0.015444 0.062981 0.03947 0.045389 0.040456 0.17462 
0.11806 0.037661 -0.078908 0.095699 0.0074092 0.049499 0.039634 0.16656 
0.085177 -0.034516 -0.024323 0.062488 0.00066819 0.021384 0.042594 0.16311 
0.0054362 -0.11656 0.048348 -0.012156 -0.022514 -0.0026201 0.046868 0.09274 
-0.072825 -0.026953 0.046046 -0.0062372 -0.010183 -0.0098543 0.063145 -0.049478 
-0.16276 0.081395 0.015465 0.03536 0.0093821 0.031414 0.0786 -0.16243 
-0.19992 0.11132 0.032564 0.055089 0.051636 0.0046141 0.099974 -0.1358 
-0.17213 0.046868 0.055747 0.04917 0.058706 0.026646 0.097672 -0.013143 
-0.10719 -0.079237 0.082711 0.0072447 0.036675 0.060186 0.022864 0.095371 
0.063639 -0.0406 0.035031 0.036182 0.076134 0.050486 -0.056383 0.11543 
0.21391 0.095371 -0.0040998 0.067585 0.064132 0.046375 -0.071016 0.12299 
0.23578 0.16541 -0.0029489 0.077943 0.049828 0.047855 0.00297 0.12414 
0.26899 0.21983 -0.0055795 0.070873 0.025001 0.013821 0.034209 0.075641 
0.27376 0.21556 -0.0098543 0.038977 0.013328 -0.021856 0.048348 0.035031 
0.14881 0.20487 -0.025967 0.0227 0.016288 -0.022679 0.057555 -0.024323 
-0.032872 0.18481 -0.012814 0.013657 -0.0077169 0.0069159 0.018096 -0.070852 
-0.12757 0.10573 0.031742 -0.0078813 -0.024652 0.00033937 -0.041093 -0.060658 
-0.23625 -0.00015387 0.10277 -0.027282 -0.020212 0.012999 -0.046519 0.051801 
-0.23165 -0.14451 0.1419 -0.037969 -0.0057439 0.031907 -0.023829 0.12628 
0.044567 -0.17525 0.10129 -0.017417 0.007738 0.028619 -0.054082 0.11231 
0.20914 -0.16999 0.061995 0.051801 0.040621 0.053938 -0.029091 0.0786 
0.18942 -0.12938 0.069886 0.027961 0.048348 0.051472 0.0324 0.051472 
0.045553 0.068078 0.020891 0.050157 -0.0019624 0.10474 0.13269 0.080573 
-0.14434 0.24696 -0.066741 0.044731 0.010533 0.027303 0.18613 0.045224 
-0.16029 0.18152 -0.017417 -0.014129 0.022371 -0.0011404 0.14141 -0.015444 
0.060679 -0.1284 0.11329 -0.01676 0.049499 0.0013258 0.058542 -0.016431 
0.37767 -0.31122 0.25123 -0.012649 0.044238 -0.020212 -0.045039 -0.043888 
0.49523 -0.29051 0.17232 0.0044497 0.068736 0.012342 -0.076935 0.061666 
0.33476 -0.10341 0.028125 0.075641 0.11346 0.098166 0.00033937 0.041936 
0.10162 0.15423 -0.10965 0.13056 0.11494 0.066927 0.11691 -0.10439 
-0.022021 0.15209 -0.1136 0.16344 0.08304 0.051308 0.13302 -0.18791 
0.046046 -0.063946 -0.01232 0.12168 0.0072447 0.031742 0.01004 -0.13497 
0.21605 -0.29939 0.15851 -0.029913 -0.05178 0.0088889 -0.11031 0.019905 
0.22246 -0.28755 0.16475 -0.057863 -0.029913 0.00017495 -0.11952 0.18021 
0.081889 0.021713 0.017438 0.024508 0.016781 0.049335 -0.017911 0.33377 
-0.072167 0.24943 -0.095514 0.096193 0.070215 0.090109 0.073504 0.38671 
-0.14615 0.25946 -0.079566 0.12151 0.077285 0.0592 0.076792 0.28395 
-0.17164 0.18152 0.022864 -0.0070593 0.0034632 0.01826 0.026974 0.031907 
-0.14056 0.1419 0.098659 -0.0082102 0.0060938 -0.0091966 0.022042 -0.2716 
-0.097322 0.16229 0.098166 -0.009361 0.00099702 -0.053753 0.052952 -0.50622 
-0.038956 0.13072 0.060186 -0.0138 0.028947 -0.04882 0.069064 -0.41398 
-0.0032777 0.13434 0.018589 0.0090533 0.017932 -0.0070593 0.081231 -0.20633 
-0.016924 0.16558 0.013986 0.0075736 0.029441 0.023522 0.074161 0.012177 
0.0019835 0.14091 0.0041209 0.0075736 0.01711 0.035688 0.047033 0.18432 
0.0024767 0.085835 -0.022679 0.042594 -0.0082102 0.035031 0.043087 0.18465 
-0.0098543 0.081724 0.0090533 0.032236 -0.034681 0.036346 0.050486 0.13286 
0.013821 0.041443 0.012177 0.021549 0.0090533 0.048184 0.10293 0.084684 
0.048348 -0.019719 0.037004 0.072353 0.074983 0.072353 0.12973 0.044731 
0.12842 -0.10965 0.067091 0.10096 0.09685 0.062817 0.027303 0.022042 
0.13664 -0.15964 0.16903 0.10228 0.11477 0.046375 -0.059178 -0.0016336 
0.045224 -0.10752 0.15226 0.024508 0.073175 0.029112 -0.062467 0.024179 
0.0044497 0.036839 0.07038 -0.015609 0.00099702 0.028947 0.020727 0.10819 
0.11214 0.16673 -0.012649 -0.037805 -0.041586 0.031249 0.028454 0.12908 
0.20405 0.22608 -0.028433 -0.019719 -0.028762 0.013328 0.077778 0.073832 
0.095206 0.19221 -0.0050863 0.015301 -0.033694 -0.014458 0.081395 0.037332 
-0.071674 0.17889 0.015301 -0.012649 0.0064227 0.0074092 0.064625 -0.013471 
-0.1552 0.20635 0.0052718 0.0046141 0.045882 0.0024767 0.037661 -0.050136 
-0.15865 0.26242 -0.059507 0.051472 0.048348 0.0044497 0.014972 -0.061316 
-0.20945 0.31799 -0.059672 0.028619 0.018096 0.021056 0.053281 -0.050629 
-0.21718 0.20372 0.042429 0.0023123 -0.014129 -0.013307 0.051143 0.019576 
-0.14385 -0.030735 0.17511 -0.036983 -0.0022913 -0.029091 0.056076 0.058049 
0.031414 -0.13103 0.15111 -0.016924 0.014972 0.012013 0.038483 0.059857 
0.2976 -0.08384 0.015137 0.076956 0.048348 0.035195 0.00066819 -0.080881 
0.33246 0.0018191 -0.068879 0.076463 0.00033937 0.042758 0.051965 -0.19992 
0.071695 0.19895 -0.015938 0.037168 0.029605 0.015465 0.046211 -0.22162 
-0.084498 0.21704 0.084848 0.012999 0.051801 0.019411 -0.029748 -0.16325 
-0.011334 0.11033 0.096686 -0.040764 0.055089 0.0082312 -0.07562 0.0083956 
0.4413 0.055089 -0.0019624 0.0026412 0.016616 0.038319 -0.07266 0.21737 
0.98189 0.028454 -0.091568 0.069229 0.0227 0.057884 -0.045039 0.31322 
0.97975 -0.075127 -0.043559 0.053774 0.017932 0.071859 0.017603 0.27327 
0.49259 -0.14665 0.045718 0.022864 0.019083 0.036839 0.066269 0.18678 
-0.21258 -0.21422 0.096686 0.010862 0.05772 0.04095 0.062981 0.14124 
-0.82156 -0.22425 0.10606 0.045389 0.13647 0.059693 -0.0072237 0.13549 
-1.2859 -0.20912 0.077121 0.1128 0.12447 0.08567 -0.035667 0.10819 
-1.0873 -0.094363 0.02681 0.065118 0.085177 0.049664 -0.04323 -0.06 
-0.41563 0.033058 -0.017582 0.022206 -0.03205 -0.034188 -0.020541 -0.29117 
0.10672 0.16344 0.0072447 -0.019719 -0.064111 -0.093541 0.043416 -0.25878 
0.37849 0.2948 0.02533 -0.03912 -0.041422 -0.016431 0.13697 0.021384 
0.37011 0.31338 0.015465 0.0083956 -0.042737 0.055254 0.18021 0.20355 
0.3364 0.2537 0.027632 -0.025967 -0.025474 0.065283 0.18909 0.21769 
0.27228 0.13647 0.094384 -0.022843 0.019576 0.054925 0.11428 0.11937 
0.2246 -0.018897 0.10195 -0.0004827 0.016123 0.024673 0.0051074 -0.032215 
0.12497 -0.03057 0.033058 0.042429 0.020891 1.0539e-005 -0.052931 -0.041586 
0.04095 -0.017582 -0.017088 0.08863 0.043745 0.0065871 -0.045203 0.092904 
0.038155 -0.089431 0.039634 0.023851 0.060844 0.050814 -0.038298 0.30434 
0.055418 -0.080881 0.040128 0.045718 0.086328 0.082382 -0.02235 0.34643 
0.047033 -0.075127 0.023193 0.074326 0.097179 0.093891 -0.0077169 0.28346 
-0.03501 0.0034632 -0.017582 0.058871 0.095371 0.082053 0.024837 0.10408 
-0.16128 0.037332 -0.072167 0.10211 0.031907 0.026481 0.037826 -0.13136 
-0.21159 -0.048327 -0.037805 0.060186 0.0062583 -0.043888 -0.029255 -0.27736 
0.0075736 -0.2277 0.15094 -0.024487 -0.0064016 -0.083018 -0.14582 -0.37058 
0.30187 -0.26404 0.26225 -0.069208 -0.045532 -0.10094 -0.21669 -0.35825 
0.25584 -0.089924 0.17906 -0.08384 -0.011827 -0.049149 -0.12642 -0.27736 
-0.017911 0.066269 0.01563 0.017603 0.061501 -0.0070593 0.082053 -0.087129 
-0.11541 0.11 -0.068714 0.099152 0.062323 0.0421 0.16919 0.099645 
-0.10571 0.20372 -0.10193 0.10145 0.047526 0.086492 0.24647 0.23512 
0.095864 0.28099 -0.026624 0.078272 0.035853 0.086657 0.29119 0.25978 
0.41006 0.15078 0.064296 0.0062583 0.044567 0.047691 0.21046 0.20454 
0.47961 -0.036654 0.11329 -0.042573 0.032071 0.043745 0.056733 0.11921 
0.27195 -0.095678 0.11543 0.00033937 0.014479 0.027961 -0.04882 0.071859 
-0.064768 -0.13744 0.078272 1.0539e-005 0.034209 0.033387 -0.078579 0.05624 
-0.44621 -0.097322 0.049006 0.082382 0.045389 0.069064 -0.074962 0.023357 
-0.67458 0.010533 -0.020377 0.14617 0.06035 0.073339 -0.051287 0.014808 
-0.63348 0.21293 -0.094527 0.13664 0.052294 0.045389 -0.044874 -0.013143 
-0.38603 0.33689 -0.083018 0.12464 0.037004 -0.00064712 0.0069159 -0.029913 
-0.088773 0.31897 0.010369 0.027468 -0.0062372 -0.014293 0.084026 -0.097487 
0.075312 0.22657 0.077121 -0.063453 -0.025309 -0.06296 0.018096 -0.08384 
0.022864 0.15259 0.13088 -0.034845 -0.010841 -0.045532 -0.001798 -0.046683 
0.030427 0.073668 0.057227 -0.042244 -0.018239 -0.022185 -0.019226 -0.039613 
0.13878 0.019083 -0.014293 0.0024767 -0.027611 -0.011498 0.030098 -0.0088678 
0.23315 -0.034845 0.0051074 0.013821 -0.018568 0.0051074 0.071202 -0.036654 
0.3147 -0.018568 0.043745 0.024015 0.013164 0.0074092 0.068571 -0.016595 
0.32867 -0.043559 0.069722 0.040128 0.042923 0.044731 0.065612 0.014808 
0.2754 -0.10719 0.093069 0.041936 0.052952 0.046868 0.061995 0.028454 
0.15999 0.014972 0.042594 0.061172 0.057062 0.038155 0.033551 0.038483 
0.11378 0.17396 0.0095465 0.068571 0.062159 0.026481 0.041772 0.036839 
0.044896 0.23266 0.012177 0.026646 0.039305 -0.0088678 0.032071 0.0324 
0.01826 0.17297 0.0083956 0.033222 0.013821 -0.018897 0.041443 0.0074092 
-0.013471 0.20191 -0.03057 0.0072447 -0.03501 -0.01232 0.031742 0.026481 
-0.08828 0.20438 -0.063782 0.018096 -0.084498 -0.009361 0.027139 0.011684 
-0.10538 0.23644 -0.060494 0.020727 -0.10258 -0.026296 0.020891 -0.052273 
-0.15816 0.17939 0.03799 -0.058685 -0.049314 -0.019226 0.044731 -0.097487 
-0.20074 0.082053 0.11411 -0.071674 0.073668 0.0051074 0.044567 -0.11722 
-0.13727 0.093233 0.079422 0.027303 0.18119 0.032893 0.031085 -0.040928 
0.033222 0.13762 0.038648 0.11148 0.23446 0.081889 0.032729 0.091753 
0.12562 0.12135 0.048019 0.15324 0.18267 0.15242 -0.027447 0.15472 
0.26784 0.03651 0.066269 0.066434 0.093726 0.087808 -0.071016 0.12036 
0.24992 0.010204 0.044402 0.010862 -0.0052507 0.027961 -0.042573 0.19468 
0.11033 -0.0026201 -0.017088 0.030427 -0.052109 0.012177 0.073504 0.32111 
0.098166 -0.12511 -0.06148 0.013657 -0.042573 -0.028926 0.047362 0.30286 
0.1026 -0.14829 -0.043724 0.0324 -0.023829 -0.043066 0.0034632 0.16294 
0.078272 -0.11179 0.0079024 0.0032988 -0.023007 0.0052718 -0.023665 0.08978 
0.10458 -0.11146 0.060186 0.040128 -0.00031829 0.063145 0.043087 0.041772 
0.083368 -0.080552 0.094384 0.072517 0.023522 0.080573 0.06479 -0.021856 
0.027468 -0.056877 0.094877 0.040785 0.027303 0.083862 0.13105 -0.023336 
-0.03616 -0.047012 0.086821 -0.017088 0.0032988 0.066105 0.13499 -0.091732 
-0.017746 0.048841 0.048513 -0.017417 -0.023007 -0.019555 0.086985 -0.11837 
-0.01528 0.18695 -0.0077169 -0.035667 -0.018733 -0.061316 0.039305 -0.024652 
-0.09946 0.27738 -0.060987 0.028125 0.010204 -0.012814 0.009711 0.12924 
-0.14665 0.23068 -0.029584 0.0023123 0.040785 0.054925 -0.023007 0.19205 
0.075641 -0.0057439 0.097672 -0.0080457 0.062159 0.038319 -0.12363 0.16278 
0.38704 -0.26042 0.20536 -0.0032777 0.073668 0.032236 -0.16407 0.12776 
0.35449 -0.25861 0.16015 0.004943 0.0689 0.029769 -0.11426 0.059693 
0.12381 -0.049314 -0.012156 0.084684 0.070544 0.018918 0.084026 0.013164 
-0.030406 0.1391 -0.053753 0.028783 0.02533 0.011684 0.17034 -0.063946 
0.017932 0.11477 0.032893 -0.0027845 0.036182 0.021549 0.13023 -0.16818 
0.090767 0.066105 0.073339 0.010369 0.033715 0.073668 0.062652 -0.19219 
0.15308 0.024508 0.055582 0.031578 0.07301 0.10474 0.04095 -0.04882 
0.22509 -0.066741 0.012177 0.066105 0.043416 0.14075 0.043745 0.1419 
0.16969 -0.0049219 0.020233 0.073175 0.015959 0.059364 0.044073 0.20109 
0.073504 0.080244 0.026481 0.0421 0.014643 -0.0049219 0.023028 0.19139 
0.015137 0.0087245 0.070544 0.01711 0.0070803 -0.020212 -0.021199 0.13697 
-0.065755 -0.01939 0.11773 -0.037147 0.015794 -0.026131 -0.044381 0.071531 
-0.14796 0.0046141 0.06742 -0.0083746 0.022206 -0.016595 0.02533 0.054267 
0.011684 -0.0019624 -0.037476 0.081724 0.0090533 0.01152 0.010862 0.027468 
0.17445 -0.049807 -0.039284 0.099152 0.016945 0.06594 -0.026953 0.051636 
0.13845 -0.018075 0.00050378 0.073175 0.028783 0.083697 -0.015444 0.02681 
-0.0031133 0.037497 0.062159 0.01004 0.018589 0.041772 0.015137 -0.13267 
-0.048656 0.052294 0.079587 -0.029748 0.06183 0.051308 0.037826 -0.16062 
0.066927 0.01711 0.077614 0.016781 0.046868 0.019905 0.040128 -0.099624 
0.10343 -0.0014692 0.034044 0.02122 0.059693 0.026152 0.081724 0.025495 
0.10869 -0.05885 0.024837 0.033058 0.02829 0.030592 0.16212 0.10787 
0.094384 -0.052931 0.02829 0.048348 0.028947 0.041114 0.080409 0.070873 
0.054925 0.032893 0.01974 0.026646 -0.035996 0.0041209 0.0093821 0.13483 
-0.01117 0.081889 0.029605 0.01711 -0.012156 -0.014622 -0.018733 0.19517 
-0.031228 0.089123 0.027303 0.024015 0.0034632 0.00033937 0.0013258 0.24548 
-0.012485 0.11083 0.030592 0.012342 0.025824 -0.015444 0.036675 0.19698 
-0.033859 0.12628 0.052459 0.029934 0.031578 -0.030406 0.12398 0.01563 
-0.052273 0.14157 0.027961 0.025824 0.0092177 -0.0096899 0.15801 0.0034632 
-0.061316 0.20438 -0.023172 0.033387 0.020727 0.0051074 0.11592 0.09274 
-0.093376 0.24104 -0.057205 0.058871 0.01826 0.023851 0.077121 0.072353 
-0.12527 0.27376 -0.094034 0.043416 0.03092 0.046211 0.058377 -0.02646 
-0.20863 0.25041 -0.041586 0.040621 0.0051074 0.047526 0.024508 -0.22951 
-0.14073 0.033715 0.056733 -0.030077 -0.0055795 0.029934 -0.02235 -0.45114 
-0.026789 -0.061645 0.093233 -0.023501 0.0072447 -0.016266 -0.062631 -0.44539 
0.0059294 0.11181 0.033551 0.057555 -0.0055795 -0.0022913 -0.023501 -0.15224 
-0.040928 0.25584 -0.021528 0.04358 1.0539e-005 0.0064227 0.031085 0.14568 
0.067585 0.12497 0.052294 -0.012649 0.0098754 0.025659 -0.0138 0.24022 
0.34133 -0.11574 0.19451 -0.074304 0.024508 0.02681 -0.11015 0.26472 
0.42551 -0.26256 0.22197 -0.052273 0.073832 0.035688 -0.083018 0.22855 
0.15061 -0.20584 0.018589 0.14897 0.15456 0.088794 0.058706 0.17774 
-0.098802 -0.023501 -0.1986 0.2657 0.18777 0.13154 0.20914 0.10787 
-0.25401 0.1128 -0.19235 0.22361 0.07449 0.093233 0.26653 0.02122 
-0.1478 0.05772 -0.036654 0.10096 0.0070803 0.048841 0.17676 0.08008 
0.064461 -0.009361 0.13746 -0.068714 0.0019835 0.0042853 -0.00031829 0.18629 
0.22986 0.062323 0.17117 -0.10571 -0.06148 -0.032215 -0.082032 0.15686 
0.16656 0.074326 0.08978 -0.065755 -0.041093 -0.071838 -0.073482 0.016123 
-0.093705 0.088301 0.024508 -0.0082102 0.0067515 -0.049149 -0.025802 -0.16079 
-0.26864 0.11987 -0.013965 0.068407 0.046211 -0.011498 -0.0078813 -0.15355 
-0.20814 0.14535 -0.016924 0.034044 0.01415 -0.035174 -0.0052507 -0.12757 
-0.11212 0.15028 0.0088889 0.042594 -0.017911 -0.057863 0.041114 0.016452 
-0.048163 0.13302 0.011355 0.041607 -0.0016336 0.012177 0.048019 0.15587 
-0.019555 0.12233 0.047526 0.018589 0.014808 0.046375 0.07038 0.19155 
-0.019061 0.060515 0.065776 0.026646 0.015465 0.074983 0.06594 0.11937 
-0.028762 0.057884 0.04506 -0.0022913 0.017767 0.061337 0.10178 -0.027282 
-0.033201 0.082382 0.0044497 0.0032988 0.033715 0.076299 0.075805 -0.109 
-0.092226 0.099152 0.0036276 0.021384 0.022535 0.045389 0.04095 -0.11968 
-0.094034 0.063474 0.050157 0.026974 0.0227 0.022864 -0.0024557 -0.061645 
0.06035 -0.033037 0.067749 -0.0027845 0.024508 0.034537 -0.029091 -0.048985 
0.36731 -0.18545 0.12595 -0.0060728 0.03388 -0.019555 -0.07562 -0.071674 
0.37241 -0.13695 0.12217 -0.0040998 0.067091 -0.011663 -0.043724 0.0087245 
0.13845 0.034373 0.034537 0.071037 0.077285 0.037168 0.01415 0.081889 
-0.10341 0.13171 -0.0068948 0.083368 0.086163 0.053445 0.0044497 0.10918 
-0.13382 0.15078 -0.06707 0.077285 0.072517 0.036346 -0.033037 -0.0049219 
-0.017746 0.11592 -0.048656 0.084355 0.043745 0.027961 -0.087293 -0.20452 
0.11247 -0.042737 0.0074092 0.086163 0.046704 -0.012978 -0.066741 -0.29281 
0.033715 -0.10834 0.048348 0.085506 0.037826 -0.0406 0.0095465 -0.27094 
-0.18989 -0.03353 0.082546 0.038483 0.024015 -0.017746 0.1225 -0.076606 
-0.087458 0.029112 0.13943 -0.074469 -0.01117 0.047855 0.083533 0.19731 
0.25304 0.025495 0.15094 -0.086964 -0.0096899 0.041772 -0.031228 0.21293 
0.3096 0.10787 0.12908 -0.055068 0.037332 0.070051 -0.089595 0.13812 
0.17001 0.10556 0.040128 0.054596 0.097179 0.083368 -0.073811 0.072188 
0.017932 0.072024 -0.043724 0.13368 0.1567 0.097015 -0.014951 0.070544 
-0.05885 0.079916 -0.11755 0.14404 0.09833 0.067091 0.034866 0.0021479 
0.02533 0.017603 -0.094692 0.14338 0.024015 0.060679 0.0046141 -0.08121 
0.16015 -0.14961 0.053938 0.038155 -0.01939 -0.0029489 -0.040435 -0.057205 
0.22542 -0.23675 0.20454 -0.087951 -0.016924 -0.030077 -0.043724 0.037332 
0.24269 -0.12429 0.1807 -0.056055 0.007738 -0.011498 -0.029091 0.14239 
0.20076 0.047691 0.057884 -0.0138 -0.010512 0.013492 0.058049 0.15489 
-0.021034 0.16689 -0.047834 0.042594 -0.025638 0.020069 0.12809 0.12579 
-0.24184 0.27623 -0.093376 0.090931 -0.0027845 0.044238 0.17462 0.13039 
-0.29495 0.23118 -0.032215 0.049499 0.018754 0.068571 0.14733 0.083368 
-0.1353 0.13779 0.076299 0.045389 0.076134 0.052952 0.077449 0.010204 
0.080244 0.025495 0.098494 0.023028 0.084355 0.041443 0.019905 -0.030077 
0.13878 -0.056219 0.11822 0.023357 0.07449 0.057062 -0.032215 0.00066819 
0.17051 -0.069372 0.079916 -0.023501 0.012013 0.020727 -0.071345 0.0087245 
0.25502 -0.031721 0.048019 -0.0062372 -0.024323 -0.01117 -0.086636 -0.06148 
0.19435 0.04095 0.009711 0.031249 -0.013143 -0.021034 -0.0036066 -0.030735 
0.058377 0.058049 0.0023123 0.041114 0.023522 0.033222 0.023357 0.058871 
-0.028597 0.08304 -0.020377 0.035524 0.041278 0.051636 0.049664 0.070873 
-0.033037 0.10063 -0.006566 0.057227 0.035853 0.024837 0.074819 0.033058 
-0.0062372 0.058542 0.02122 0.036346 0.025988 -0.0016336 0.081889 -0.042408 
0.0098754 0.07301 0.007738 0.011191 -0.019884 -0.07266 0.097508 -0.021363 
0.048184 0.099481 0.021384 -0.004593 -0.059343 -0.0503 0.11181 0.12825 
0.043745 0.064296 0.032071 -0.037311 -0.034023 0.021056 0.15505 0.22296 
-0.0050863 0.098659 0.041443 -0.0014692 0.0075736 0.039963 0.1493 0.20569 
-0.064275 0.12266 0.024015 0.037826 0.051308 0.06183 0.097508 0.11888 
-0.0024557 0.025988 0.059035 0.056898 0.077285 0.062652 -0.0047575 0.04654 
0.0054362 0.046046 0.035853 0.051636 0.0689 0.034537 -0.020706 -0.019226 
-0.046847 0.16837 0.026646 0.038483 0.066927 0.014808 -0.024323 -0.010676 
0.0064227 0.093233 0.044238 0.04095 0.073997 0.01152 -0.054575 -0.013471 
0.18333 -0.086964 0.065118 0.016945 0.054267 0.041772 -0.052766 0.026152 
0.28658 -0.14484 0.062323 0.029112 0.024344 0.028619 -0.041751 0.061172 
0.15883 -0.051615 -0.022843 0.057884 0.0036276 0.024015 0.020069 0.11165 
0.0060938 0.046211 -0.030242 0.009711 -0.034023 0.05476 0.1008 0.2736 
-0.038298 0.046211 0.030756 -0.030242 -0.041751 0.016123 0.10885 0.28741 
-0.00031829 0.0092177 0.069393 -0.032543 -0.0080457 0.0065871 0.089945 0.17922 
0.05065 -0.066577 0.061995 -0.038298 -0.001798 0.011355 0.073997 0.12612 
0.14996 -0.089595 0.064132 0.027303 -0.0095255 -0.016266 0.018425 0.065776 
0.15324 -0.037311 0.020562 0.051143 -0.013307 -0.036654 0.014643 0.054432 
0.047526 0.031249 0.018425 0.05065 -0.011498 -0.031392 0.014479 0.028783 
0.054925 0.055747 0.018589 0.031578 0.0072447 -0.0027845 0.027303 -0.1358 
0.039141 0.099974 0.077285 0.023357 0.042758 -0.006566 0.071695 -0.26157 
-0.083018 0.13351 0.049006 0.071037 0.10458 -0.014787 0.14124 -0.29709 
-0.22918 0.19254 0.023686 0.085012 0.11905 0.012506 0.17412 -0.18298 
-0.13925 0.25765 1.0539e-005 0.03799 0.07301 0.040456 0.15686 -0.0060728 
0.0046141 0.23578 0.0023123 0.024837 0.024673 0.03092 0.10014 -0.034023 
0.03092 0.21621 -0.021199 -0.023829 -0.0073881 0.043909 0.020891 -0.035832 
0.016781 0.24071 -0.039613 0.0013258 -0.011992 0.032236 -0.009361 0.040456 
-0.0088678 0.21046 -0.049149 0.030098 -0.0031133 0.035195 -0.050464 0.10606 
-0.22474 0.15308 -0.018404 0.00033937 0.0042853 0.028454 -0.068221 0.13154 
-0.35118 0.027961 0.081889 0.0095465 0.035524 0.055254 -0.16687 0.12727 
-0.12198 -0.084169 0.17593 -0.0095255 0.045553 0.038977 -0.19235 0.16031 
0.1807 -0.13547 0.14798 -0.028269 0.029605 0.033551 -0.054246 0.13976 
0.33558 -0.042244 0.053938 0.058706 0.05213 0.026152 0.12792 0.064296 
0.44196 -0.021856 0.00017495 0.062817 0.073997 0.032564 0.16459 0.090767 
0.31733 -0.085649 -0.012814 0.047855 0.042594 -0.0036066 0.1544 0.1664 
0.031085 -0.1815 0.037004 0.027468 0.054103 0.021384 0.15719 0.20668 
-0.012814 -0.16983 0.034866 0.015137 0.048841 0.022864 0.053445 0.073997 
0.10556 -0.17936 -0.00031829 0.085999 0.035853 0.0227 -0.0042642 -0.14287 
0.031085 -0.14517 -0.022514 0.066434 1.0539e-005 0.01826 -0.028104 -0.23033 
-0.14846 -0.15503 0.013164 0.03536 -0.015444 0.0324 0.014479 -0.18972 
-0.24382 -0.07562 0.046211 0.014972 0.036346 0.075312 0.026974 -0.063782 
-0.194 0.13236 0.078765 -0.033859 0.052294 0.046868 -0.0060728 -0.0027845 
-0.11311 0.22953 0.090603 0.0046141 0.048019 0.034537 -0.019719 0.071366 
0.023028 0.28067 0.030098 0.066105 0.064625 -0.013471 -0.080552 0.12497 
0.14009 0.29037 -0.014951 0.10129 0.075641 1.0539e-005 -0.05589 0.037168 
0.18991 0.28412 -0.014622 0.091753 0.074983 0.037826 -0.010019 -0.094856 
0.24696 0.20734 0.0098754 0.044402 0.058706 -0.0054151 0.11822 -0.12462 
0.36698 0.056404 0.047691 0.02533 0.042923 -0.0022913 0.13779 -0.050136 
0.42913 -0.05589 0.087479 0.0067515 -0.0013048 0.022042 0.088794 0.060186 
0.61804 -0.049807 0.069722 -0.016924 0.007738 0.0227 0.038483 0.026481 
0.76108 -0.03616 0.071037 -0.031721 0.013328 0.00297 0.0016547 -0.09946 
0.44261 0.025001 0.082711 -0.045532 0.0051074 0.0018191 -0.075949 -0.11228 
-0.25121 0.11148 0.071366 0.0026412 0.016452 0.046868 -0.1136 0.10326 
-0.85379 0.10984 0.042758 0.08008 0.031907 0.090438 -0.14171 0.317 
-1.2683 0.067749 0.026317 0.078107 0.066598 0.11444 -0.11738 0.40907 
-1.3276 0.03092 -0.013471 0.061501 0.038319 0.12957 -0.059343 0.36846 
-0.76665 0.0018191 -0.020048 0.095864 0.04917 0.064625 -0.0013048 0.13845 
-0.033694 -0.0050863 -0.048163 0.045224 0.047855 0.013986 0.092247 -0.11442 
0.43094 0.038483 -0.0050863 0.044073 0.010369 -0.025474 0.2394 -0.23987 
0.54471 0.11954 -0.024816 -0.0042642 -0.04882 -0.060823 0.41516 -0.19663 
0.40989 0.20257 0.0095465 -0.032215 -0.070194 -0.079237 0.38096 -0.10571 
0.29826 0.19681 0.024015 -0.030735 -0.0868 -0.071674 0.1756 -0.053917 
0.19418 0.06331 0.09126 -0.059672 -0.039284 -0.05589 -0.046519 0.016781 
0.18119 -0.079401 0.16146 -0.034516 -0.0036066 -0.035174 -0.16177 0.060022 
0.29908 -0.14829 0.15407 0.034702 0.052623 0.0046141 -0.21554 0.079751 
0.42091 -0.14139 0.061666 0.12858 0.13878 0.096357 -0.22458 0.066434 
0.29957 -0.083018 -0.055397 0.20668 0.13795 0.13286 -0.15322 0.028783 
0.007738 0.0054362 -0.058521 0.12036 0.092576 0.11411 -0.036818 0.1419 
-0.26223 0.076956 -0.022843 0.0421 0.034209 0.098988 0.086985 0.30878 
-0.38324 0.14913 -0.0021268 0.0021479 0.0047785 0.068571 0.12694 0.45314 
-0.35299 0.26011 -0.023829 -0.016595 0.0090533 0.076792 0.10474 0.44245 
-0.26157 0.26455 -0.036489 0.0046141 -0.03057 0.064132 0.12924 0.26094 
-0.071345 -0.044217 0.0689 -0.036983 -0.040764 0.059364 0.065447 -0.07266 
0.063803 -0.2762 0.22312 -0.10439 -0.046847 0.062817 -0.011498 -0.3372 
0.18613 -0.22244 0.22033 -0.088115 0.0018191 0.02533 -0.060165 -0.50836 
0.30138 -0.067235 0.10589 -0.031886 0.055254 -0.046847 -0.05441 -0.57889 
0.27277 0.22345 -0.064111 0.086657 0.10606 -0.092883 -0.053588 -0.54864 
0.14321 0.35432 -0.13201 0.14683 0.10392 -0.040435 0.050321 -0.36515 
-0.014951 0.27442 -0.04882 0.10129 0.084519 0.0064227 0.1493 -0.1256 
-0.12067 0.093233 0.046375 0.087314 0.035688 0.0021479 0.17297 0.16673 
-0.12314 0.041443 0.088794 0.050157 0.0087245 0.00297 0.095864 0.3147 
-0.0057439 0.00297 0.0065871 0.065447 -0.017088 0.039634 0.029276 0.33739 
0.08419 0.012013 0.028125 0.060515 -0.015938 0.057555 0.014972 0.33903 
0.033058 -0.0064016 0.057062 -0.026789 -0.033365 0.023357 0.018918 0.24121 
-0.033201 -0.017417 0.094055 -0.071674 -0.025145 0.033222 0.024508 0.12924 
0.01415 -0.082525 0.078765 -0.06296 -0.018897 0.026317 0.047526 0.052952 
0.10458 -0.096829 0.05772 -0.026953 0.019411 0.010533 0.087314 0.020233 
0.21145 -0.032708 0.00083261 0.042758 0.076299 0.034702 0.057062 -0.011827 
0.24663 -0.028433 0.010697 0.077285 0.060186 0.066105 -0.0062372 -0.098309 
0.19418 -0.044217 0.054267 0.067913 0.088465 0.044402 -0.038956 -0.13711 
0.053938 0.041936 0.072846 0.074983 0.064296 0.038483 -0.0060728 -0.1935 
-0.052109 0.058542 0.041607 0.057062 0.054925 0.044731 0.015301 -0.17032 
-0.12462 0.054103 0.016123 0.047033 0.040292 0.03947 0.022371 -0.04882 
-0.057041 0.12365 -0.0024557 0.023851 0.033715 0.024508 0.0088889 0.044896 
0.00099702 0.12908 -0.017746 0.024673 0.023686 0.012999 0.014808 0.072846 
0.055582 0.13762 -0.024487 0.044402 0.0026412 0.0075736 0.031085 0.061172 
0.097344 0.10556 0.022535 -0.01232 -0.02942 -0.012978 0.029769 0.06331 
0.18958 -0.027282 0.055747 -0.037969 -0.068057 -0.041093 0.00033937 0.073339 
0.23496 -0.07562 0.048677 -0.031557 -0.081045 -0.047669 0.018589 0.15012 
0.16327 -0.012485 0.030756 -0.03057 -0.068386 -0.0087034 0.074819 0.21786 
0.010697 0.038319 0.055582 -0.017417 -0.011663 0.034044 0.12858 0.15571 
-0.025309 0.072681 0.10836 -0.023501 0.053609 0.076956 0.14996 0.0072447 
0.16673 0.045718 0.085835 -0.00064712 0.08715 0.058542 0.083533 -0.11508 
0.17659 0.050814 -0.015773 0.10425 0.10474 0.041772 0.037168 -0.13547 
0.073504 0.13203 -0.13678 0.17018 0.11921 0.039963 0.029934 -0.076935 
-0.10669 0.25058 -0.16276 0.19961 0.10704 0.041443 0.03947 0.0023123 
-0.073318 0.1003 0.052294 0.10491 0.081724 0.014972 0.0046141 0.027961 
0.20799 -0.23461 0.2999 -0.059836 0.032071 -0.042244 -0.17114 -0.11327 
0.59009 -0.28574 0.27968 -0.084663 0.035524 -0.034681 -0.27768 -0.21159 
0.48405 -0.03501 0.074983 -0.01117 0.064461 0.0046141 -0.16144 -0.020706 
-0.010841 0.14305 -0.12429 0.048184 0.11231 0.04654 0.046375 0.20569 
-0.30991 0.19402 -0.13234 0.14913 0.08715 0.050814 0.16163 0.42091 
-0.26996 0.14289 -0.038462 0.062652 0.024508 0.052952 0.17593 0.59157 
-0.17624 0.081395 0.013164 0.033551 -0.015609 0.025001 0.13549 0.56691 
-0.084169 0.057555 0.030756 -0.024323 -0.048656 0.053116 0.10277 0.39049 
-0.037969 0.14749 0.050321 -0.024158 -0.060165 0.0074092 0.086657 0.073997 
-0.046025 0.16475 0.039305 -0.0047575 -0.024158 0.017767 0.097344 -0.21669 
-0.05326 0.1562 0.013492 -0.023829 -0.003771 0.027796 0.069229 -0.25088 
-0.033859 0.1105 0.025824 0.0036276 0.0090533 0.028783 -0.0068948 -0.2083 
-0.026296 0.096686 0.017603 0.0054362 0.030592 -0.0080457 -0.048985 -0.23033 
0.0037921 0.070215 0.033222 0.032729 0.045882 -0.020048 -0.05885 -0.29709 
0.0062583 0.041278 0.040785 0.050157 0.023028 0.0067515 -0.055561 -0.14846 
-0.006566 0.064954 0.020398 0.028783 0.044567 0.0092177 -0.039942 0.081067 
0.010533 0.036675 0.016945 0.051801 0.045882 0.03388 0.014972 0.20454 
0.083862 0.012506 0.042758 0.056076 0.05624 0.062159 -0.019884 0.24581 
0.075148 0.043251 0.044567 0.020891 0.053609 0.055911 0.0028056 0.19287 
0.00099702 0.08156 -0.020377 0.042758 0.0421 0.031742 0.056569 0.19106 
-0.12166 0.17544 -0.052437 0.03092 0.059364 0.016288 0.15094 0.1664 
-0.30432 0.32555 -0.0965 0.045553 0.012177 0.028125 0.14502 0.11905 
-0.35545 0.32489 -0.069208 0.062652 0.0028056 0.030756 0.083862 0.090109 
-0.14829 0.14815 0.022535 -0.065919 -0.025802 -0.02794 0.0051074 0.050157 
0.32917 -0.033694 0.14535 -0.11853 -0.036489 -0.03616 -0.15799 0.01974 
0.68874 -0.21998 0.22296 -0.076935 -0.028433 -0.042901 -0.22803 -0.03205 
0.52844 -0.29791 0.20273 -0.0019624 0.049335 0.0070803 -0.12067 -0.072989 
0.24351 -0.2836 0.10819 0.076627 0.12694 0.063639 -0.0073881 -0.08828 
0.064625 -0.31616 0.087972 0.095535 0.15587 0.10376 0.061172 -0.094692 
-0.078086 -0.21784 -0.025638 0.13269 0.14502 0.13368 0.14256 -0.035667 
-0.18167 0.080573 -0.12988 0.17626 0.11674 0.13187 0.17396 0.051801 
-0.17131 0.30582 -0.14007 0.12414 0.079422 0.094055 0.14568 0.1539 
-0.087129 0.25978 -0.058685 0.047362 -0.014129 0.023193 0.036346 0.15259 
0.0047785 0.13861 0.03092 -0.028926 -0.095678 -0.040764 0.0037921 0.0018191 
-0.070523 0.16574 0.063968 -0.069701 -0.087951 -0.023829 0.083204 -0.13744 
-0.23888 0.17297 0.055582 -0.056055 -0.057205 -0.0013048 0.15818 -0.12889 
-0.24973 0.13582 0.028454 -0.05326 -0.019226 0.0041209 0.12776 -0.081539 
0.0046141 0.11428 0.058377 -0.014129 0.036839 0.01415 0.0046141 -0.08269 
0.18876 0.0052718 0.092411 0.025824 0.10162 0.0034632 -0.078415 -0.067728 
0.13319 -0.08532 0.092082 0.042265 0.09274 0.019905 -0.074304 0.22904 
-0.0036066 -0.031228 0.038155 0.074819 0.065283 0.057555 0.0056006 0.45166 
-0.080881 0.039141 -0.0096899 0.06331 0.032564 0.056076 0.063639 0.38737 
-0.094856 0.061337 -0.02087 0.061501 0.013986 0.043909 0.067256 0.21276 
0.00099702 -0.0021268 0.037004 0.042758 -0.0091966 -0.014951 0.0227 -0.021856 
0.17906 -0.075949 0.077614 -0.025309 -0.0024557 -0.029584 -0.034188 -0.15026 
0.28494 -0.12659 0.11674 -0.062138 -0.010841 -0.050958 -0.016266 -0.26913 
0.2685 -0.05589 0.096686 -0.052273 -0.045368 -0.026296 -0.0083746 -0.4615 
0.044567 0.063639 0.0028056 0.00066819 -0.0067304 -0.024158 -0.0044286 -0.57757 
-0.12544 0.077285 -0.025145 0.053774 0.012999 -0.037805 0.039634 -0.52135 
-0.11064 0.037826 0.01711 0.032564 0.042594 0.0082312 0.066598 -0.19268 
0.0074092 0.0080668 0.045553 0.038155 0.049828 0.090438 0.069229 0.23775 
0.020069 0.0079024 0.0592 0.050157 0.054596 0.11494 0.090109 0.44738 
0.034866 0.057227 0.031742 0.062488 0.06742 0.13138 0.084848 0.42831 
0.039799 0.082546 -0.0062372 0.090438 0.074819 0.10293 0.055911 0.27507 
0.075148 0.058049 0.0056006 0.060186 0.038977 0.044402 0.015301 0.12809 
0.014479 0.14091 -0.011992 0.028619 0.0075736 0.00066819 0.019905 0.029769 
-0.10423 0.25666 -0.040764 0.024837 -0.030406 -0.02498 0.090438 -0.024652 
-0.18019 0.15768 -0.00031829 -0.054575 -0.080717 -0.035667 0.085835 -0.072496 
-0.092883 -0.10949 0.11576 -0.060494 -0.047012 -0.060823 0.00033937 -0.075291 
0.13993 -0.34526 0.22411 -0.070687 -0.020212 -0.075127 -0.04323 -0.031886 
0.34955 -0.32997 0.21375 -0.009361 0.037004 0.013657 -0.029913 -0.0036066 
0.40924 -0.18528 0.093069 0.13549 0.074819 0.071695 0.021549 0.062981 
0.26554 0.043251 -0.03764 0.14124 0.13516 0.1031 0.067913 0.12464 
-0.0075525 0.25567 -0.088444 0.14206 0.11526 0.10063 0.11494 0.11313 
-0.20353 0.26094 -0.06296 0.10918 0.069064 0.047526 0.14617 0.054925 
-0.18364 0.11691 0.028783 -0.017911 0.00033937 -0.025145 0.079751 -0.097651 
0.013986 -0.011663 0.10145 -0.057205 -0.029584 -0.045039 -0.023994 -0.17082 
0.14585 -0.11278 0.10474 -0.0031133 0.0062583 -0.017417 -0.084827 -0.16111 
0.23364 -0.038956 0.061995 0.011191 0.023357 0.014972 -0.091404 -0.037147 
0.36863 0.083204 0.0039565 0.10918 0.038977 0.050486 -0.009361 0.054432 
0.3974 0.11839 -0.037969 0.079258 0.026481 0.056076 0.042594 0.068571 
0.20043 0.14552 -0.010676 0.042429 0.0079024 0.02122 0.094548 0.079094 
-0.13333 0.16886 0.010369 -0.001798 -0.023336 0.0062583 0.10474 0.059528 
-0.40922 0.12085 0.039634 -0.049971 -0.024487 0.012506 0.042923 0.15834 
-0.59533 0.12316 0.042758 -0.021856 -0.012978 0.02829 -0.039778 0.25913 
-0.4957 0.17199 -0.0026201 0.023522 0.032564 0.032893 -0.10932 0.21128 
-0.1769 0.13713 0.0069159 0.052459 0.028783 0.016288 -0.079072 0.17034 
0.097344 0.090109 0.048184 0.038319 -0.0087034 -0.0026201 0.013986 0.13746 
0.1419 0.055582 0.063474 0.021878 0.0098754 0.029112 0.097344 0.18629 
0.18909 0.034044 0.0098754 0.093069 0.13368 0.071037 0.10293 0.13236 
0.34117 -0.040106 0.011191 0.12529 0.17824 0.071037 0.042758 -0.12018 
0.39658 -0.0050863 0.010369 0.10211 0.13072 0.012342 0.0072447 -0.37387 
0.27129 0.098988 -0.025309 0.09126 0.055418 -0.047505 0.047526 -0.44276 
0.11839 0.10326 -0.0088678 0.0024767 -0.023501 -0.028269 0.099316 -0.2351 
0.071202 0.043087 0.03947 -0.068221 -0.042408 -0.0050863 0.094877 0.12381 
0.073175 0.030427 0.078107 -0.039613 -0.022185 0.052294 0.072188 0.25814 
0.46629 -0.0029489 0.052623 -0.033201 -0.0014692 0.068407 0.10951 0.31207 
1.0347 0.03536 0.01152 0.019247 0.0037921 0.048513 0.094877 0.2565 
0.99176 0.065776 -0.0039354 0.0421 0.018589 0.02122 0.051472 0.13713 
0.39049 -0.027611 0.020398 0.024508 -0.038791 -0.034352 -0.055397 -0.018075 
-0.3377 -0.14369 0.1105 -0.012978 -0.10472 -0.057534 -0.13678 -0.084827 
-1.2829 -0.0087034 0.16442 -0.042079 -0.068386 -0.041257 -0.097487 -0.073318 
-2.0339 0.13417 0.14996 -0.021363 0.048513 0.020069 -0.053588 0.075641 
-1.5425 0.098988 0.13927 0.056076 0.19369 0.13056 -0.061645 0.183 
-0.36006 0.01563 0.059528 0.13417 0.26044 0.14897 -0.094527 0.072846 
0.55622 0.02533 -0.055726 0.24647 0.27212 0.1299 0.0069159 -0.17164 
0.78788 0.071202 -0.12642 0.20684 0.20898 0.13976 0.069393 -0.15191 
0.64484 0.11115 -0.067399 0.14634 0.11559 0.08156 0.093069 0.0092177 
0.4556 0.11033 0.0072447 0.053445 0.00066819 0.020069 0.057884 0.1664 
0.25781 0.10967 0.042265 -0.052766 -0.064275 -0.0039354 0.045553 0.24055 
0.12151 0.10425 0.030427 -0.065755 -0.088937 -0.030242 0.066105 0.23216 
0.086328 0.1562 0.021713 -0.072825 -0.059343 -0.059836 0.033058 0.23693 
0.14897 0.077943 0.04358 -0.082854 -0.050629 -0.05589 0.027796 0.12842 
0.16804 0.007738 0.05213 -0.050629 -0.041915 -0.06296 0.042594 0.031249 
0.048841 -0.0095255 0.039963 -0.04619 -0.028597 -0.07266 0.05772 -0.014293 
-0.1381 0.032564 0.0047785 -0.02087 -0.069208 -0.039613 0.063639 0.082382 
-0.14615 0.11855 0.0042853 0.031578 -0.035832 0.027303 0.11872 0.10326 
0.027303 0.044402 0.066598 0.023522 0.00297 0.044238 0.14733 0.025001 
0.15851 -0.16062 0.15653 0.013492 0.058049 0.063968 0.12085 -0.017417 
0.32966 -0.22047 0.15061 0.034866 0.11444 0.070215 0.022206 -0.096172 
0.23874 -0.099789 0.044238 0.11132 0.18366 0.066269 -0.022185 -0.16325 
-0.20123 0.059035 -0.046025 0.19747 0.18876 0.061337 0.013328 -0.18002 
-0.58875 0.096193 -0.025145 0.14963 0.098988 0.045553 -0.031392 -0.1427 
-0.70253 0.13943 -0.014951 0.065118 0.051472 0.0421 -0.029584 -0.070523 
-0.50392 0.16558 0.031742 0.034702 -0.025145 0.011191 0.052294 0.054267 
-0.13284 0.11247 0.045882 -0.031557 -0.017417 0.011026 0.075312 0.024344 
0.13039 0.035688 0.058049 -0.020048 -0.014622 0.028125 0.019905 0.040456 
0.23907 -0.003771 0.031578 -0.022514 -0.00031829 0.029112 -0.023665 0.056898 
0.25748 -0.03353 0.044238 -0.0019624 0.015465 0.018589 -0.028433 0.049664 
0.22049 -0.015938 0.06742 0.015959 -0.017582 0.0072447 -0.030735 -0.011005 
0.20027 0.0067515 0.070051 -0.0024557 -0.0055795 -0.020212 -0.045532 -0.066906 
0.18761 -0.022021 0.042923 0.023028 -0.014293 -0.013636 -0.02794 -0.13563 
0.15242 -0.00015387 0.01267 0.029769 0.0067515 -0.031886 0.053445 -0.05885 
0.033058 0.065612 -0.015938 0.0092177 0.013328 0.00017495 0.10704 0.11099 
-0.068221 0.081067 -0.025474 0.062488 0.025659 0.01415 0.17807 0.21062 
-0.091239 0.11691 -0.055561 0.025988 0.029769 0.021056 0.20586 0.26554 
-0.049149 0.16097 -0.014458 0.012342 0.026646 0.061172 0.17544 0.29168 
0.031085 0.16442 0.0074092 0.009711 0.026152 -0.010183 0.044073 0.23611 
0.040292 0.15407 0.02681 0.019247 0.034702 -0.004593 -0.030242 0.10655 
-0.00081153 0.16886 0.014972 0.055747 0.033058 0.019576 -0.045203 -0.21586 
0.058871 0.071531 -0.02235 0.009711 -0.037311 -0.071345 -0.048327 -0.39787 
0.072681 0.01826 -0.02235 0.0051074 -0.04471 -0.11163 -0.0077169 -0.085649 
0.074654 -0.047341 0.072353 0.038812 -0.011663 -0.0078813 0.0093821 0.4094 
0.21885 -0.14895 0.17692 -0.050958 0.055582 0.08978 -0.01676 0.55063 
0.35695 -0.18841 0.19188 -0.083018 0.051308 0.12414 -0.09091 0.23151 
0.41433 -0.12577 0.10507 -0.020212 0.064461 0.13483 -0.092883 -0.098309 
0.36567 -0.059178 -0.031064 0.09126 0.11017 0.16015 -0.041257 -0.17114 
0.10178 0.051801 -0.13251 0.20914 0.093726 0.16163 0.10869 -0.1187 
-0.20238 0.18317 -0.16917 0.15456 0.032071 0.11099 0.22394 -0.056548 
-0.21225 0.2024 -0.08532 0.084848 -0.010841 0.014315 0.18974 -0.12593 
-0.029091 0.12546 0.095371 0.0044497 0.0026412 -0.087951 0.0062583 -0.16144 
0.059035 0.088136 0.16196 -0.073811 0.013164 -0.13267 -0.049642 -0.17345 
0.0060938 0.11296 0.11477 -0.061645 0.048184 -0.097651 -0.0036066 -0.097487 
0.0021479 0.13861 0.021549 0.00066819 0.061337 -0.032708 0.054432 0.11642 
-0.014458 0.18399 -0.031228 0.052623 0.06742 0.01415 0.089123 0.28214 
-0.024158 0.1567 -0.039613 0.089616 0.03092 0.059364 0.049664 0.22033 
0.023522 0.071531 0.0031344 0.01974 0.01004 0.042429 0.011684 0.083697 
0.14913 -0.009361 0.035688 0.004943 0.022371 0.030756 -0.03353 0.028947 
0.18136 0.0069159 0.039141 0.026646 0.016123 0.026481 -0.0024557 0.068242 
0.13878 0.044567 0.051636 0.0016547 0.025495 0.06183 -0.0072237 0.0080668 
0.073832 0.077285 0.098166 0.010204 0.028619 0.030098 -0.0073881 -0.057699 
-0.045532 0.12908 0.072846 0.00297 0.024837 -0.018239 0.049664 -0.093212 
-0.10686 0.1687 -0.00097594 0.0075736 0.019905 -0.011498 0.082875 -0.040106 
-0.041751 0.028619 -0.021856 0.05476 0.020562 -0.0064016 0.043909 0.042594 
0.12546 -0.07973 0.027632 0.025001 0.031249 0.015465 0.024673 0.012342 
0.24564 -0.049149 0.072024 0.054267 0.032893 0.039634 0.062488 -0.011498 
0.23545 -0.041751 0.063474 0.046046 0.035031 0.063145 0.049828 0.040128 
0.13269 -0.10554 0.075148 0.0037921 -0.015116 0.057884 0.033222 0.099481 
0.036675 -0.07414 0.07301 0.021384 -0.033859 0.058706 0.017767 0.079916 
0.023686 -0.064933 0.059857 -0.011663 0.010204 0.051965 0.00017495 -0.031886 
0.1026 -0.040271 0.059364 0.0026412 0.059035 0.053774 -0.067892 -0.058521 
0.10425 -0.012156 0.022371 0.066763 0.11148 0.099974 -0.044874 0.016123 
0.004943 0.048841 -0.013636 0.11231 0.12414 0.11592 0.037004 0.084026 
-0.047998 0.096686 0.056569 0.061666 0.072353 0.094877 0.037826 0.027139 
-0.032708 0.027468 0.09833 0.012999 0.033222 -0.011992 0.0036276 -0.08269 
0.059693 -0.021692 0.12398 -0.051615 -0.0034422 -0.067728 -0.030406 -0.10686 
0.041772 0.076956 0.037004 -0.036983 -0.025309 -0.071181 -0.0042642 0.045882 
-0.057534 0.24712 -0.025802 -0.013965 -0.015773 -0.033365 0.024508 0.19007 
-0.26519 0.35432 -0.051451 0.048348 0.0075736 0.015137 0.10935 0.18826 
-0.37354 0.2662 -0.031721 0.045389 0.022535 0.036675 0.10721 0.053281 
-0.25204 0.15357 0.068242 0.021056 0.0095465 0.0065871 0.04917 -0.088444 
0.08156 0.036839 0.10145 0.022371 0.019905 -0.015444 -0.096336 -0.19712 
0.32407 -0.12544 0.1197 0.04506 0.027632 -0.0027845 -0.13448 -0.25302 
0.41335 -0.17641 0.084848 0.05624 0.044073 0.014479 0.031249 -0.27966 
0.37504 -0.15799 0.015794 0.099316 0.048841 0.022535 0.18991 -0.3224 
0.13795 -0.16177 -0.014293 0.071202 0.08419 0.063474 0.2195 -0.19614 
-0.10867 -0.086471 -0.020706 0.08567 0.068736 0.070873 0.16574 -0.0039354 
-0.24924 0.058706 -0.041915 0.06479 0.025495 0.065118 0.11559 0.21243 
-0.30136 0.09274 -0.015938 0.00050378 -0.0088678 0.051308 0.033715 0.26685 
-0.16227 0.073504 0.11148 -0.013307 -0.008539 0.055089 -0.062631 0.17708 
0.074161 0.11313 0.20109 -0.051944 0.030098 0.029276 -0.16687 0.14782 
0.15259 0.15883 0.1276 -0.041257 0.05065 0.025166 -0.15816 0.17445 
0.077285 0.12349 0.010697 0.011191 0.066598 0.035524 -0.058028 0.18613 
-0.050958 0.064625 -0.023336 0.029769 0.06479 0.015794 0.084355 0.087479 
-0.12067 0.039305 -0.028762 0.049006 0.01826 -0.031064 0.17133 -0.11228 
-0.017417 -0.035174 -0.0088678 0.03092 -0.034188 -0.084169 0.14453 -0.27275 
0.050814 -0.12264 0.010533 0.024179 -0.032543 -0.11968 0.082546 -0.36778 
0.081889 -0.084498 0.034702 0.066927 -0.033037 -0.072332 -0.010512 -0.14319 
0.10359 -0.027118 0.03536 0.038155 -0.014787 0.01004 -0.020048 0.23134 
0.04506 0.05772 0.06035 0.03799 0.012342 0.11231 0.030427 0.3923 
-0.035338 0.13878 0.070051 0.050979 0.036839 0.10803 0.073504 0.35136 
-0.096665 0.20553 0.012177 0.012835 0.029934 0.085999 0.096521 0.17067 
-0.0040998 0.22361 0.016781 0.029934 0.014972 0.057062 0.048348 -0.019719 
0.14321 0.15341 0.046704 -0.037311 0.00099702 0.014315 -0.052109 -0.010676 
0.20553 -0.030077 0.11461 -0.073976 0.0072447 -0.021692 -0.17032 0.096357 
0.15982 -0.097322 0.11773 -0.021199 0.030263 -0.0004827 -0.1039 0.13828 
0.079916 0.016781 0.028619 0.05772 0.073832 0.04358 0.027961 0.16262 
0.19895 0.1299 -0.084827 0.15012 0.13203 0.071202 0.10211 0.18317 
0.27064 0.094548 -0.093048 0.17939 0.13171 0.072024 0.096357 0.14223 
0.062981 0.040621 -0.033365 0.10277 0.069722 0.042429 0.12908 0.0098754 
-0.28623 0.027139 0.01563 0.059528 0.044567 -0.011827 0.12858 -0.10258 
-0.61079 0.14223 0.024344 0.045389 0.017767 -0.018404 0.10721 -0.19745 
-0.46298 0.35071 -0.036654 0.026646 -0.0034422 -0.017088 0.073668 -0.14796 
0.11872 0.46744 -0.086636 0.011191 -0.034681 -0.045368 0.074326 -0.036983 
0.48635 0.25271 0.015137 -0.079401 -0.048327 -0.041093 0.066434 -0.020706 
0.40233 -0.12379 0.21868 -0.15964 -0.03912 -0.034023 0.045553 0.047526 
0.011355 -0.35331 0.3831 -0.18068 -0.041586 -0.020048 -0.040106 0.13171 
-0.58514 -0.20107 0.16311 -0.018897 0.057391 0.045389 -0.10423 0.16344 
-0.92202 -0.03616 -0.13234 0.23529 0.14354 0.12957 -0.12248 0.17659 
-0.58908 -0.0019624 -0.24612 0.31042 0.1539 0.13943 -0.11689 0.15505 
-0.034516 -0.062467 -0.15832 0.22213 0.12858 0.10458 -0.034023 0.17577 
0.37027 -0.025474 -0.035996 0.090274 0.070051 0.066105 0.0037921 0.16081 
0.51249 0.15275 0.052459 -0.0032777 0.018096 0.021549 0.027961 0.1567 
0.38244 0.24022 0.056569 -0.056055 -0.028269 -0.017088 0.055911 0.1373 
0.18185 0.23118 0.077614 -0.09091 -0.049642 -0.015609 0.12233 0.090931 
0.077121 0.17084 0.077614 -0.092226 -0.041586 0.01711 0.15867 0.070873 
0.12595 0.01267 0.08156 -0.022843 -0.024652 0.021384 0.12908 0.030756 
0.14683 -0.080717 0.086985 -0.0090322 0.016945 0.013657 0.083862 0.063639 
0.090438 -0.035174 0.040621 0.030592 0.049499 0.033387 -0.009361 0.029441 
0.044567 0.013328 -0.018568 0.08863 0.070544 0.014479 -0.062796 -0.041093 
-0.003771 0.0047785 -0.027447 0.077943 0.052623 0.016945 -0.066084 -0.073482 
-0.04882 -0.0031133 0.015794 0.067749 0.021549 -0.0050863 0.0064227 -0.080717 
-0.053095 -0.0138 0.066598 0.0079024 0.0070803 -0.0077169 0.032071 -0.036654 
-0.0073881 -0.04882 0.086492 0.010862 0.0044497 -0.013143 -0.021692 -0.10308 
-0.0011404 0.036839 0.024673 0.031907 0.0064227 0.0013258 -0.0004827 -0.030735 
-0.088937 0.13664 -0.028762 0.027468 0.022535 0.029769 0.043909 0.11115 
-0.20879 0.20619 -0.043395 0.048019 0.022206 0.01004 0.03947 0.10063 
-0.25121 0.17478 -0.030899 0.026974 0.014972 0.017932 0.055911 0.069722 
-0.23165 0.13976 0.01004 0.0079024 -0.00031829 0.031085 0.069886 0.033715 
-0.089431 0.059528 0.062981 0.027468 0.014972 0.034044 -0.0029489 0.061008 
0.20372 -0.097816 0.16673 -0.049971 0.069064 0.051308 -0.1108 0.054925 
0.56691 -0.1233 0.14617 -0.025638 0.093069 0.07301 -0.19942 -0.029584 
0.4921 -0.012485 0.029769 0.053774 0.11559 0.1026 -0.1011 -0.023501 
0.11494 0.095699 -0.054904 0.072517 0.094548 0.089452 0.063803 0.04095 
-0.121 0.11329 -0.042408 0.078765 0.04917 0.06594 0.21589 0.086328 
-0.10752 0.061501 -0.0032777 0.04917 0.013328 0.039634 0.40496 0.065118 
0.055582 -0.043724 0.052787 0.0090533 -0.012485 -0.025638 0.43521 -0.051944 
0.19205 -0.14484 0.091753 -0.023994 -0.0096899 -0.051451 0.20503 -0.13875 
0.16952 -0.054246 0.080902 -0.042737 -0.010183 -0.012156 -0.026953 -0.14566 
0.12316 0.004943 0.0090533 0.021878 -0.0083746 -0.0095255 -0.10143 -0.098638 
0.10096 0.024179 0.0019835 0.041114 0.01004 0.0074092 -0.10637 -0.0019624 
0.13434 -0.00097594 0.033387 0.03947 0.042594 0.029112 -0.08269 0.024673 
0.11099 -0.052437 0.016616 0.07038 0.056733 0.046704 -0.035667 0.053116 
0.091753 -0.016595 0.041114 0.029276 0.034373 0.032236 0.026152 -0.0068948 
0.15703 -0.042737 0.10852 -0.014293 0.031907 0.028947 0.0028056 -0.066413 
0.24729 -0.085485 0.12973 -0.022679 0.041443 0.04358 -0.021528 -0.10456 
0.19468 0.073504 0.076956 -0.032872 -0.0083746 0.022042 0.029934 -0.039449 
0.061337 0.30977 0.014808 0.020562 -0.014293 0.020069 0.072517 0.11806 
-0.056548 0.32621 -0.034188 0.024673 -0.0049219 0.046046 0.11378 0.23529 
-0.11228 0.26899 -0.0090322 -0.014129 -0.042901 0.017767 0.11099 0.26702 
-0.087458 0.20454 0.033058 -0.0077169 -0.023994 0.0087245 0.092576 0.19681 
-0.047341 0.11592 0.051143 -0.010019 0.017932 0.0046141 0.059528 0.022864 
0.11017 0.025166 0.069393 -0.01117 0.029934 -0.045368 -0.006566 -0.28344 
0.232 -0.012156 0.059528 -0.014951 0.030263 -0.042079 -0.037969 -0.42894 
0.25518 -0.05885 0.058706 0.0034632 0.055747 0.046704 -0.0073881 -0.14615 
0.27738 -0.15454 0.019411 0.086985 0.072188 0.094548 -0.0075525 0.23348 
0.25222 -0.20584 0.043745 0.067256 0.08156 0.093726 0.010369 0.38162 
0.13335 -0.10357 0.064625 0.086657 0.056569 0.10655 0.076956 0.28626 
0.053281 -0.01676 0.038812 0.11033 0.050321 0.099645 0.12908 0.11132 
0.016452 0.041936 0.014972 0.067091 0.025988 0.048513 0.097015 -0.047669 
-0.03764 0.11691 0.020727 0.044896 -0.012814 -0.031228 0.078272 -0.27472 
-0.093541 0.15768 0.01711 -0.0014692 -0.031886 -0.061973 0.054596 -0.36499 
-0.065426 0.14437 0.0095465 0.013986 -0.036654 -0.097816 0.031578 -0.19301 
-0.042901 0.16459 0.020233 -0.0026201 -0.011827 -0.087786 0.021549 0.056076 
-0.030735 0.091425 0.067256 -0.078415 -0.010512 -0.038627 -0.0040998 0.30829 
-0.0138 0.078436 0.079422 -0.056548 -0.0029489 0.041772 0.0059294 0.36369 
0.018096 0.094877 0.050486 0.011848 0.047197 0.076299 -0.020212 0.22296 
0.019247 0.053774 0.0060938 0.085999 0.086163 0.098659 -0.0082102 0.033387 
-0.025802 0.010697 -0.0052507 0.15587 0.093562 0.1105 0.023686 -0.06707 
-0.12807 0.055418 -0.030899 0.10524 0.090603 0.072188 0.057391 -0.074469 
-0.088773 0.099974 -0.017253 0.06594 0.069229 0.04654 0.053445 -0.058356 
0.041936 0.13401 0.02829 0.040128 0.026646 0.012999 -0.010348 -0.024487 
0.12957 0.06331 0.071859 -0.013965 0.013164 -0.014951 -0.065755 0.0032988 
0.11346 -0.080223 0.10277 -0.0060728 -0.010183 -0.02235 -0.12544 0.005765 
0.044567 -0.16375 0.094877 -0.02087 -0.0072237 -0.0087034 -0.093541 0.060844 
-0.056219 -0.027775 0.023193 0.026317 0.0062583 0.0067515 0.012342 0.025659 
-0.090417 0.12677 -0.059836 0.082546 0.043909 0.011684 0.093562 -0.028269 
-0.087458 0.10524 -0.018568 0.061172 0.061995 0.028619 0.10639 -0.043066 
-0.099624 0.069229 0.036346 0.057227 0.051143 0.036839 0.090438 -0.067399 
-0.082196 0.11329 0.037497 0.08008 0.068571 0.039963 0.03651 -0.082525 
0.019411 0.063474 0.023028 0.034044 0.060186 0.030263 -0.015116 -0.0077169 
-0.014951 0.03799 0.013328 0.029276 0.0051074 0.048677 -0.004593 0.10524 
-0.15684 0.1322 0.0031344 0.012506 -0.027118 -0.00097594 0.0021479 0.14437 
-0.12593 0.183 0.039305 0.0011614 -0.044546 0.020069 -0.033365 0.16985 
0.0090533 0.036839 0.076463 0.041772 -0.0032777 -0.016595 -0.065262 0.1738 
0.063639 -0.08532 0.097672 -0.010676 0.025495 -0.030077 -0.076277 0.093562 
0.051143 -0.10406 0.079587 -0.0052507 0.044731 -0.015773 -0.01117 0.02533 
0.15538 -0.086471 0.073175 0.048348 0.058871 -0.0138 0.011355 0.069558 
0.18448 -0.039449 0.046046 0.040785 0.044238 0.046046 0.036346 0.17347 
0.034866 0.075476 -0.0029489 0.081395 0.068407 0.073504 0.1225 0.19254 
-0.091568 0.17478 -0.093376 0.085177 0.050157 0.091918 0.10984 0.14881 
-0.056219 0.090438 -0.040435 0.080409 0.058049 0.098494 0.050979 0.12562 
-0.058028 0.0092177 0.033551 0.09422 0.06479 0.064954 0.060844 0.074983 
-0.10768 0.022371 0.07038 0.042923 0.077285 0.055254 0.070873 0.04917 
-0.050793 0.046211 0.036346 0.020891 0.069064 0.085177 0.030756 0.08304 
0.10951 0.026646 0.042429 0.026481 0.037004 0.038319 -0.022021 0.038155 
0.11395 0.055089 0.034373 0.028783 0.014479 0.0028056 -0.0090322 0.00033937 
0.011355 0.095371 0.024015 0.019576 -0.0075525 -0.044546 1.0539e-005 -0.14846 
-0.042244 0.12168 0.024837 -0.013965 -0.0083746 -0.099624 0.012835 -0.33375 
-0.11196 0.14453 0.004943 0.015465 -0.004593 -0.074798 0.0021479 -0.2887 
-0.13284 0.21161 -0.021528 0.032893 -0.019226 0.033387 0.010204 -0.17082 
-0.10653 0.24597 -0.016102 0.02681 -0.0098543 0.098659 0.034044 -0.098144 
-0.064111 0.094384 0.024015 0.042265 0.015137 0.063803 0.035031 0.027632 
-0.045039 -0.0034422 0.047855 0.016781 0.011848 0.088794 0.054596 0.23085 
-0.13612 0.053609 0.023028 0.051308 0.040292 0.071695 0.12201 0.38967 
-0.087622 0.058871 0.061337 0.028947 0.042265 0.040621 0.09422 0.39049 
0.18317 -0.077922 0.13384 -0.038133 0.045553 0.018589 -0.049478 0.38638 
0.42371 -0.18972 0.16574 -0.047341 0.036675 0.035524 -0.13152 0.20125 
0.4214 -0.16703 0.13072 -0.041257 -0.016431 0.02681 -0.11163 -0.016266 
0.27047 -0.043724 0.034373 0.0054362 -0.0050863 -0.064933 -0.0021268 -0.098967 
0.00017495 0.026317 -0.027447 0.076134 0.024508 -0.07003 0.1077 -0.052437 
-0.059507 0.0059294 -0.042408 0.063639 0.074983 0.022206 0.14617 0.077449 
-0.0014692 -0.06296 0.0095465 0.086492 0.10754 0.079258 0.14617 0.025659 
0.048677 -0.093376 0.0227 0.10063 0.093398 0.063639 0.10622 -0.2739 
0.11198 -0.090417 0.038155 0.037332 0.049335 0.00017495 0.044896 -0.47564 
0.42897 -0.1011 0.027632 0.044238 0.024837 -0.053753 -0.019884 -0.42007 
0.70798 -0.028926 0.030263 0.026974 0.0075736 -0.04471 -0.02646 -0.1233 
0.56675 0.1008 0.035853 -0.017746 -0.00097594 0.02829 -0.011663 0.171 
0.099152 0.15604 0.071037 -0.0138 -0.01939 0.067091 0.020727 0.29497 
-0.37518 0.16508 0.082382 -0.071181 -0.006566 0.059035 0.035524 0.23907 
-0.70943 0.19139 0.067913 -0.05441 0.015794 0.029112 0.032236 0.081067 
-0.75481 0.19517 0.031907 -0.013471 0.037661 0.020233 -0.0016336 -0.017253 
-0.35858 0.18662 -0.029584 0.043416 0.038319 -0.0040998 -0.0060728 -0.0406 
0.13861 0.14765 -0.060658 0.10376 0.056076 0.023851 0.037497 -0.0096899 
0.45675 0.14815 -0.0055795 0.11181 0.053774 0.08156 0.07038 0.06183 
0.48832 0.063968 -0.035503 0.074819 0.01563 0.040128 0.12595 0.034702 
0.12825 0.11839 0.0087245 0.080573 -0.031721 -0.015938 0.15456 0.029934 
-0.23247 0.21852 0.051801 -0.05885 -0.070359 -0.020541 0.13549 -0.051122 
-0.31813 0.1322 0.097672 -0.10406 -0.034352 -0.04323 -0.055726 -0.079895 
-0.19252 -0.072496 0.18711 -0.13793 -0.011663 -0.060987 -0.22704 -0.145 
0.011684 -0.26206 0.23907 -0.11508 0.028947 -0.018404 -0.22063 -0.11886 
0.21227 -0.24266 0.091589 0.050979 0.14321 0.090109 -0.066741 0.0023123 
0.30187 -0.16687 -0.07973 0.19155 0.18974 0.15209 0.090931 0.11378 
0.27343 -0.12988 -0.094363 0.22328 0.16623 0.14272 0.16212 0.17232 
0.23019 -0.11179 -0.011827 0.16344 0.10244 0.080902 0.15209 0.16048 
0.23052 -0.055068 0.063145 0.070051 0.014479 -0.018568 0.081067 0.12644 
0.23085 0.049335 0.08715 0.011191 -0.053917 -0.065097 0.035195 0.15768 
0.13056 0.11625 0.041772 -0.035667 -0.057534 -0.055232 0.018425 0.1835 
0.05624 0.15982 0.044073 -0.053095 -0.049642 -0.054904 0.071366 0.10047 
-0.047012 0.20783 0.025988 -0.048163 -0.064768 -0.036983 0.093069 -0.04882 
-0.07003 0.2006 0.02829 -0.053588 -0.0098543 -0.023336 0.085177 -0.17016 
0.36419 0.17939 -0.00081153 -0.026131 0.053609 -0.015773 0.022864 -0.14073 
0.70074 0.16442 -0.04323 0.073175 0.058213 0.019247 -0.0013048 -0.072496 
0.39822 0.12694 -0.050958 0.094055 0.077121 0.021713 -0.0096899 -0.011334 
-0.32257 0.054432 0.021056 0.091096 0.055089 0.058871 0.035853 -0.0011404 
-1.0486 0.064625 0.042758 0.035195 0.03947 0.032729 0.070215 0.0056006 
-1.5974 0.18267 0.007738 0.03947 0.029934 0.035853 0.075641 0.038155 
-1.3511 0.2246 -0.0078813 0.048019 0.056076 0.057391 0.005765 0.062981 
-0.534 0.2029 -0.014458 0.01152 0.042923 0.038977 -0.043724 0.10984 
0.28872 0.045553 0.033222 -0.0067304 0.023028 0.021878 -0.052766 0.11905 
0.76371 -0.066906 0.06742 -0.016431 0.0026412 0.014808 -0.052109 0.13384 
0.75056 0.010204 0.044567 0.022371 -0.014622 0.00033937 0.015794 0.16738 
0.41565 0.17429 -0.031886 0.070708 -0.034188 -0.00097594 0.10688 0.14979 
0.04506 0.18202 -0.016924 0.038812 -0.033201 0.00066819 0.1738 0.12398 
-0.1478 0.037168 0.088301 -0.0088678 0.014808 0.017767 0.13417 0.070215 
0.063968 -0.061645 0.15341 -0.016595 0.07038 0.037004 0.051801 0.11806 
0.30944 -0.11607 0.1322 0.0085601 0.11576 0.065283 -0.0055795 0.2024 
0.35301 -0.042408 0.040456 0.098001 0.14897 0.094548 -0.022021 0.21243 
0.26965 0.060515 -0.019061 0.086985 0.11954 0.096686 0.0080668 0.14437 
0.070215 0.11674 -0.03501 0.084026 0.072517 0.073175 0.045882 0.030098 
-0.091239 0.068571 -0.025145 0.089616 0.045389 0.05624 0.086163 -0.0019624 
-0.088115 0.024837 0.0046141 0.056898 -0.0072237 0.01974 0.053116 -0.036818 
-0.073318 0.011848 0.0028056 0.041607 -0.013307 -0.023172 0.02829 -0.1016 
-0.0011404 -0.039284 0.01004 0.00066819 -0.027282 -0.036654 0.00297 -0.091568 
0.040456 0.0026412 -0.014787 -0.052437 -0.03057 -0.039778 -0.0016336 -0.031721 
-0.042573 0.06594 0.060022 -0.0019624 -0.021692 -0.039449 0.020562 -0.052602 
-0.089102 0.10162 0.058542 -0.037311 -0.015444 -0.0029489 0.034537 -0.058685 
-0.11639 0.091918 0.072024 -0.019719 -0.0073881 0.053774 -0.00031829 -0.012978 
-0.032543 0.069064 0.070544 0.014972 0.013986 0.064625 0.0080668 0.053774 
0.069558 -0.045696 0.078272 0.012013 0.032236 0.063639 0.058706 0.025824 
0.13187 -0.073482 0.034209 0.046375 0.027139 0.051143 0.057884 -0.049149 
0.17544 -0.043724 -0.012814 0.035195 0.02681 0.02533 0.079916 -0.17493 
0.22115 -0.14204 0.033715 0.0051074 0.023686 0.0087245 0.028783 -0.24316 
0.24712 -0.16506 0.093891 0.016123 0.015301 0.023522 0.00066819 -0.11771 
0.25978 -0.084005 0.085177 -0.032708 0.0036276 0.013492 -0.026296 0.071366 
0.22016 0.14453 0.067749 -0.02235 0.015465 0.034044 -0.006566 0.19583 
0.055582 0.24597 0.034866 0.033387 0.020233 0.034866 0.017932 0.2394 
-0.01528 0.18843 0.025988 0.074161 0.036346 0.032893 0.028125 0.27392 
0.075476 0.092247 0.061008 0.096357 0.058049 -0.011005 0.044731 0.25206 
0.10211 0.059693 0.023522 0.068736 0.058706 -0.034516 0.06742 0.16146 
0.074326 0.084848 -0.025309 0.036675 0.024015 0.010697 0.050486 0.070873 
0.20882 0.074654 -0.019555 0.03947 0.0067515 0.0021479 0.028783 -0.019061 
0.2588 0.017932 -0.023665 0.0080668 -0.0096899 0.02122 0.015137 -0.09946 
0.26077 -0.052437 0.035853 -0.019719 0.01267 0.063803 -0.0027845 -0.059672 
0.25633 -0.10012 0.1077 -0.053095 0.040128 0.07038 -0.083018 -0.059507 
0.15522 -0.12494 0.14552 -0.051615 0.063968 0.06479 -0.17328 -0.11837 
-0.11278 0.00297 0.10063 0.0018191 0.09685 0.061172 -0.1016 -0.23411 
-0.24217 0.079258 -0.00031829 0.067091 0.052952 0.072846 0.010369 -0.2374 
-0.14023 -0.0090322 -0.082032 0.11296 0.010697 0.039799 0.053445 -0.13481 
0.062488 -0.076935 -0.096665 0.12299 -0.047669 -0.0096899 0.056898 -0.061973 
0.12316 -0.085649 -0.050958 0.089945 -0.050793 -0.037311 0.06183 -0.042901 
0.041772 -0.08532 0.057391 0.028783 -0.0080457 -0.043888 0.16393 0.069558 
0.17791 -0.042408 0.16656 -0.063946 0.048841 -0.022843 0.23775 0.20602 
0.42107 0.0032988 0.20388 -0.063453 0.083862 0.023357 0.18514 0.33098 
0.36353 0.049335 0.17067 0.012999 0.10704 0.013821 0.048348 0.25008 
0.25337 0.0059294 0.10967 0.012506 0.079094 0.007738 -0.076606 0.031742 
0.070708 0.12036 0.035688 0.025988 0.025824 0.028454 -0.097651 -0.030899 
-0.12363 0.31618 -0.074469 0.055582 0.013657 0.051801 -0.034845 0.086985 
-0.19202 0.28527 -0.055232 0.08156 0.01415 0.060515 -0.017911 0.15719 
-0.056548 0.10655 0.012342 0.070544 0.031742 0.041772 -0.076935 0.1299 
0.081724 0.00083261 0.015465 0.028125 0.035524 0.030263 -0.043888 0.11872 
0.037168 -0.0503 -0.00064712 0.067585 0.052459 0.0019835 -0.0034422 0.084519 
-0.03501 -0.0044286 -0.011498 0.077614 0.052952 -0.0070593 0.028783 0.11148 
-0.086307 0.066927 0.00017495 0.079587 0.071037 0.014315 0.058871 0.16607 
-0.13843 0.12266 0.0072447 0.079916 0.028619 0.012013 0.12447 0.089616 
-0.18413 0.10688 0.028783 0.0095465 0.015794 0.0023123 0.14338 0.08863 
-0.22524 0.14289 0.027961 0.00033937 -0.012485 0.032729 0.20092 0.066763 
-0.22803 0.2006 0.022371 0.02829 0.023357 0.077121 0.19385 0.031085 
-0.21488 0.12332 0.034044 0.0067515 0.034373 0.080573 0.12381 0.011355 
-0.041915 0.0689 0.030592 0.005765 0.028783 0.020233 -0.018733 -0.044217 
0.095042 0.045389 0.021878 0.026152 0.019411 0.021549 -0.10637 -0.11722 
0.10113 0.019411 0.033222 0.037497 0.023357 0.0016547 -0.062302 -0.21784 
0.0026412 -0.029091 0.099974 0.031414 0.010862 -0.023172 -0.028269 -0.25269 
-0.070852 -0.052109 0.12184 -0.027282 0.039963 -0.020212 -0.0039354 -0.18084 
-0.13843 0.04917 0.020069 0.022864 0.054103 0.012177 0.057884 -0.0039354 
-0.07562 0.14765 -0.071016 0.087479 0.080573 0.044238 0.14502 0.14354 
0.005765 0.15834 -0.067564 0.084684 0.089945 0.056076 0.11461 0.18103 
0.052623 0.10606 -0.019061 0.085012 0.079422 0.05476 0.035524 0.22049 
0.044896 0.088794 0.052952 0.06594 0.052294 0.052787 0.016123 0.17906 
-0.041586 0.12151 0.029441 0.0016547 0.0227 0.013986 0.03799 0.080902 
-0.06148 0.086657 0.042594 0.013821 1.0539e-005 0.0227 0.057227 0.042923 
-0.070523 0.093069 0.029441 0.024015 0.02681 0.0064227 0.06594 0.014972 
-0.046519 0.13582 0.018589 0.029276 0.018096 -0.01939 0.068736 0.01826 
-0.065262 0.14141 -0.025474 0.023357 -0.023007 0.0051074 0.051801 -0.011498 
-0.083512 0.13203 -0.029255 -0.0042642 -0.022185 -0.027611 -0.0062372 -0.066248 
-0.14319 0.10951 0.034373 0.019411 -0.0016336 -0.0042642 -0.047834 -0.1016 
-0.089759 0.0060938 0.14913 -0.0096899 0.023522 0.0069159 -0.069372 -0.10637 
-0.012156 0.0023123 0.16771 -0.033694 0.033551 0.014808 -0.0503 -0.047998 
-0.036325 0.13795 0.083533 0.0062583 0.067091 0.016781 0.03651 0.052787 
0.043251 0.11921 0.044567 -0.0029489 0.065118 0.043909 0.040128 0.070708 
0.20487 -0.017088 0.068571 0.0021479 0.031085 0.026152 -0.028926 0.064461 
0.21227 -0.084663 0.040621 0.014315 -0.0060728 -0.004593 -0.068057 0.037661 
0.099645 -0.017253 -0.010348 0.032729 -0.0004827 -0.0029489 -0.0088678 0.01004 
0.00099702 -0.021528 -0.050793 0.092904 -0.014293 0.01563 0.072517 -0.054246 
0.050321 -0.086307 -0.049642 0.079751 0.027961 0.01563 0.10967 -0.082361 
0.035524 -0.02646 -0.0077169 0.10145 0.057227 0.057227 0.10524 -0.028926 
-0.026789 0.016123 0.050814 0.083204 0.059528 0.080244 0.096521 0.029441 
-0.051451 -0.00097594 0.13664 -0.0062372 0.039305 0.045718 0.096357 0.0016547 
-0.10521 0.044731 0.12513 -0.029255 0.0041209 0.020398 0.088958 -0.03912 
-0.084005 0.070215 0.071037 -0.023007 -0.010183 0.0098754 0.062652 -0.074469 
0.13499 0.035853 0.0041209 0.027796 0.011026 0.0095465 -0.058356 -0.01676 
0.30927 0.068736 0.01152 0.062652 0.01415 0.0014903 -0.10998 0.058213 
0.30631 0.13878 0.0075736 0.028947 0.023686 0.0042853 -0.085485 0.10129 
0.15851 0.23775 -0.014293 0.037004 0.013986 -0.034516 0.011684 0.12776 
0.063803 0.11066 0.02829 0.026646 0.024837 -0.024487 0.042758 0.13795 
0.064296 -0.02942 0.12628 0.03092 0.027468 -0.014458 -0.008539 0.11839 
-0.039284 -0.082196 0.15028 0.040621 0.091753 0.030098 -0.028269 0.019411 
-0.18084 0.017603 0.066763 0.073997 0.10326 0.030098 -0.026953 -0.094856 
-0.26322 0.11954 -0.075455 0.11296 0.10228 0.015301 0.043087 -0.21093 
-0.1039 0.11214 -0.078086 0.12085 0.088136 0.0039565 -0.0055795 -0.21389 
0.1225 0.067256 0.0032988 0.031578 0.029112 -0.0090322 -0.041751 -0.098473 
0.19353 0.044731 0.038977 -0.0083746 -0.013965 0.045553 0.02533 0.10096 
0.22559 0.0032988 0.043416 0.00033937 -0.017746 0.088794 0.073339 0.23611 
0.24762 -0.014622 0.031742 -0.010348 -0.016102 0.10277 0.087972 0.21819 
0.30796 0.060515 0.016781 0.030756 -0.013636 0.073504 0.12365 0.20125 
0.72245 0.025659 0.034044 -0.00015387 -0.048492 0.01826 0.15916 0.12316 
1.0575 0.016123 0.028947 -0.011005 -0.056055 -0.036489 0.11822 -0.012485 
0.70222 0.098494 0.028454 -0.02235 -0.027447 -0.045203 0.081724 -0.011334 
-0.16884 0.06742 0.090767 -0.062467 0.00050378 -0.038956 0.032564 0.046046 
-0.91807 -0.12856 0.1733 -0.046683 0.029605 -0.0088678 -0.076113 0.10935 
-1.2773 -0.33671 0.19977 -0.019884 0.059857 -0.024487 -0.28212 0.13401 
-1.1542 -0.25384 0.028125 0.13417 0.10622 0.044567 -0.28212 0.12431 
-0.52957 0.074654 -0.16079 0.29069 0.17199 0.11888 -0.13086 0.17626 
0.13549 0.24844 -0.16375 0.22049 0.14601 0.1368 0.071202 0.15785 
0.44623 0.23003 -0.013965 0.080409 0.085341 0.091589 0.13615 0.014479 
0.50673 0.1248 0.098988 -0.038627 0.040292 0.014315 0.1345 -0.093212 
0.55935 -0.047998 0.15094 -0.084991 0.018918 -0.025967 0.078272 -0.10817 
0.61229 -0.07562 0.11806 -0.0067304 -0.010348 -0.024652 0.040292 -0.044217 
0.50427 -0.1478 0.062488 -0.011005 -0.018568 -0.0031133 0.021549 0.01267 
0.31092 -0.068221 -0.00097594 0.027796 -0.012649 0.040621 0.050321 0.053609 
0.12135 0.072517 -0.047834 0.061995 -0.025638 0.01415 0.072188 0.045882 
-0.034845 0.055418 0.0056006 0.026974 -0.031557 0.0013258 0.090274 0.061995 
-0.11212 0.0079024 0.068407 0.01415 -0.012649 0.0042853 0.10967 0.11461 
-0.080717 0.012013 0.083697 0.00083261 0.030756 0.02533 0.084519 0.22509 
-0.08532 0.0087245 0.047691 -0.028269 0.0060938 0.038483 0.079422 0.31141 
-0.12083 0.057555 0.025495 0.032893 0.024344 0.023193 0.070051 0.27688 
-0.1256 0.11 -0.013636 0.034209 0.023851 0.030263 0.034866 0.28642 
-0.0965 0.09274 -0.010019 0.041607 0.028947 0.032893 0.061501 0.40957 
-0.10028 0.10178 -0.004593 0.058542 0.039799 0.047033 0.056733 0.26521 
-0.10817 0.12661 0.018589 0.020069 0.040621 0.061501 0.020727 -0.025145 
-0.10735 0.11576 0.03536 0.011684 0.027468 0.08419 -0.043066 -0.32125 
-0.071838 0.074983 0.061172 0.0024767 0.025659 0.058377 -0.05178 -0.52546 
-0.031557 0.052459 0.042923 0.0018191 0.004943 0.017767 -0.073811 -0.40954 
-0.026131 0.093726 0.01004 0.028947 -0.014129 -0.016266 -0.035667 -0.23362 
-0.045861 0.07449 -0.024816 -0.022021 -0.023829 -0.036654 0.0034632 -0.21817 
-0.014129 0.06479 -0.0096899 -0.0011404 0.0051074 -0.027611 0.076956 -0.23724 
0.018425 0.0051074 0.044731 0.0056006 0.0023123 -0.04619 0.031249 -0.20304 
0.12464 -0.069701 0.080738 -0.018733 0.0065871 -0.015444 0.015137 -0.088608 
0.077121 -0.0054151 0.038483 0.044567 0.0026412 -0.0057439 0.045224 -0.023665 
-0.01939 0.16377 -0.010676 0.020891 -0.013965 0.0054362 0.09126 0.090931 
-0.083512 0.2514 0.0075736 0.048184 0.026974 0.036839 0.15045 0.28198 
-0.020048 0.14913 0.045718 0.042265 0.061666 0.1026 0.1151 0.43949 
0.19484 -0.096665 0.16936 -0.060165 0.076956 0.12546 0.014972 0.40463 
0.31864 -0.20962 0.18004 -0.056055 0.042429 0.045553 -0.034845 0.2394 
0.20257 -0.05885 0.041772 0.012835 0.033715 -0.012978 0.032564 0.090438 
0.025988 0.098494 -0.10078 0.052952 0.055418 -0.040271 0.11592 -0.031392 
-0.018404 0.062817 -0.11376 0.13105 0.018754 -0.034023 0.11494 -0.095514 
0.10096 -0.1136 0.044731 0.036675 -0.013471 -0.023336 0.022042 -0.046847 
0.24334 -0.16753 0.15555 -0.0021268 -0.011334 0.041443 -0.043395 -0.0095255 
0.23989 -0.03616 0.07301 0.037168 0.031249 0.080573 0.021056 -0.054246 
0.038319 0.091753 -0.024158 0.059857 0.080573 0.093233 0.071366 -0.13316 
-0.13958 0.24088 -0.058192 0.078929 0.090109 0.075641 0.086821 -0.18939 
-0.20633 0.31634 -0.062631 0.046046 0.046211 0.041443 0.057391 -0.14336 
-0.11804 0.25518 -0.044381 0.035031 0.021878 0.017274 0.087479 -0.042901 
0.040785 0.14174 0.047033 -0.010019 0.00099702 -0.023501 0.048513 0.08419 
0.19155 0.10408 0.11477 -0.059672 0.012835 0.0064227 0.023851 0.10524 
0.15505 0.13565 0.078436 -0.03501 0.021713 0.0034632 0.014972 0.013328 
0.015137 0.21276 0.0065871 0.058542 0.048019 0.0024767 0.012013 -0.10127 
-0.10127 0.21046 -0.058521 0.071202 0.067585 0.0013258 0.009711 -0.20156 
-0.073318 0.071202 0.0060938 0.052787 0.034702 -0.023994 0.06183 -0.26568 
0.061008 -0.035503 0.055089 -0.046354 -0.031228 -0.038791 0.14946 -0.17279 
0.17182 -0.05737 0.057391 -0.042901 -0.040271 -0.0039354 0.10869 0.043416 
0.18103 -0.087129 0.047691 0.020727 0.012013 0.089123 0.078436 0.22986 
0.098001 -0.0503 0.035688 0.050979 0.042265 0.092411 0.035688 0.32867 
0.0056006 0.033387 0.035688 0.058049 0.048184 0.097672 0.040128 0.32736 
-0.019061 0.066269 0.063474 0.047526 0.047526 0.071531 -0.020706 0.20175 
0.018754 0.058213 0.080902 0.036017 0.043745 0.023851 -0.048163 0.15505 
0.047855 0.055582 0.032564 0.057062 0.047691 -0.014458 -0.010676 0.14108 
0.088465 0.062981 0.016452 0.010697 -0.0073881 -0.006566 0.063968 0.073339 
0.08567 0.056404 0.045718 -0.014293 -0.01232 -0.0060728 0.073339 0.019576 
0.036839 0.03799 0.023357 0.01415 0.015137 -0.0052507 0.098988 -0.046354 
-0.042244 0.035195 0.00050378 0.017767 0.048513 0.0085601 0.089452 -0.098638 
-0.13086 0.0085601 0.010204 0.072353 0.084684 0.0062583 0.053445 -0.16638 
-0.17871 0.044896 0.037332 0.092411 0.11855 0.013986 -0.044546 -0.15865 
-0.17509 0.16689 0.037497 0.097179 0.14091 0.046375 -0.13382 0.0227 
-0.080881 0.14009 0.012342 0.11066 0.11888 0.082382 -0.11639 0.19237 
0.17495 0.053609 0.01563 0.05624 0.049499 0.04506 -0.11179 0.23792 
0.28806 0.05772 -0.0077169 0.02122 -0.015609 0.035853 -0.040106 0.23808 
0.10606 0.060679 -0.028926 0.014808 -0.07003 -0.0042642 0.052294 0.19073 
-0.060987 0.044238 0.020069 -0.03205 -0.07266 -0.016102 0.10096 0.18284 
0.059528 -0.074304 0.12069 -0.024652 -0.0068948 0.014808 0.015959 0.11543 
0.341 -0.24776 0.21408 -0.041915 0.064461 0.052623 -0.12626 0.039305 
0.34117 -0.21932 0.17544 0.00050378 0.095371 0.050157 -0.11952 -0.083676 
0.10721 -0.017417 0.043251 0.094384 0.098988 -0.0040998 0.0090533 -0.12774 
-0.15848 0.16508 -0.072989 0.11395 0.053938 0.012013 0.11296 -0.018568 
-0.26486 0.21079 -0.062138 0.11247 0.02829 0.049499 0.14157 0.12875 
-0.18331 0.13713 -0.0078813 0.044567 0.017274 0.058542 0.14585 0.18218 
0.073832 0.044567 0.040621 0.0080668 -0.0080457 0.060022 0.090438 0.1008 
0.2223 -0.035503 0.04506 0.025659 0.01415 0.021713 0.0093821 0.041607 
0.22312 -0.096994 0.082711 0.009711 0.024179 -0.0044286 -0.030735 0.0014903 
0.065283 -0.078415 0.099316 -0.0088678 0.012342 -0.010183 -0.012978 0.012013 
-0.23609 0.023686 0.060679 0.015959 0.024508 0.042758 0.029441 0.070544 
-0.40823 0.10573 -0.029584 0.0059294 0.015137 0.049664 0.0080668 0.062981 
-0.32849 0.16952 -0.030735 0.057227 0.024015 0.02533 -0.0068948 0.013657 
-0.14303 0.085177 -0.014787 0.007738 0.027961 0.01004 -0.070359 -0.028597 
0.057555 0.10606 0.020233 0.0056006 0.024837 0.012013 -0.054904 -0.072989 
