0.12299 -0.086964 0.041443 0.027468 0.011684 -0.0080457 0.080738 0.040456 
0.18777 -0.17279 0.041607 0.016123 0.026974 -0.034188 0.030427 0.029276 
0.24943 -0.2282 0.050979 0.029441 0.017438 -0.015938 -0.037147 0.018589 
0.21687 -0.17262 0.077121 -0.027447 0.01826 0.0062583 -0.065591 0.032071 
0.12233 -0.032379 0.053938 0.0088889 0.010533 0.016123 -0.041093 0.038977 
0.01711 0.10589 0.0052718 0.0023123 0.012835 0.026974 -0.044381 0.024837 
-0.098802 0.17429 -0.0016336 0.027303 0.032564 0.0421 -0.040435 0.049828 
-0.13021 0.19468 0.011355 0.072024 0.03536 0.051636 -0.052109 0.0070803 
-0.10719 0.13631 0.014315 0.046868 0.0592 0.045553 -0.061316 0.023193 
-0.047998 0.10688 0.027796 0.03947 0.041278 0.03536 -0.069043 0.012342 
0.026152 0.095699 0.028619 0.040785 0.051636 0.042594 -0.06148 0.028619 
0.076134 0.063803 0.045882 0.013986 0.032564 0.032071 -0.038956 0.029605 
0.10474 0.042758 0.067091 0.01711 0.016781 0.015137 -0.052766 0.0083956 
0.12792 0.051801 0.072517 0.0062583 0.00066819 0.026317 -0.079566 0.015301 
0.11576 0.044731 0.046375 0.011848 -0.043559 -0.010512 -0.11261 -0.014951 
0.10737 0.0421 0.023357 0.034209 -0.010512 -0.0062372 -0.086142 0.01267 
0.11444 0.070873 -0.0019624 0.0056006 -0.0029489 0.0024767 -0.090746 0.01563 
0.077121 0.041607 0.016781 0.0056006 0.019576 -0.0004827 -0.01117 -0.0026201 
0.057062 0.016616 0.018754 0.01974 0.034866 -0.011005 0.033387 0.028783 
0.057391 0.049499 0.025988 -0.0026201 0.018918 0.016123 0.029441 0.020727 
0.067256 0.048348 0.040128 0.011848 0.004943 0.035031 -0.019719 0.026481 
0.091425 0.041607 0.061008 -0.01528 0.014808 0.01152 -0.031721 -0.0067304 
0.12497 0.058542 0.03536 0.027468 0.017438 -0.0062372 0.061666 -0.024487 
0.09981 0.041772 0.0075736 0.050321 0.038812 0.038812 0.18399 0.010204 
0.10376 -0.018075 0.0062583 0.035688 0.029605 0.022042 0.21539 0.022864 
0.068736 0.00017495 0.017767 0.021384 0.0324 0.012013 0.17593 0.017603 
0.023357 0.055582 0.017438 -0.00015387 0.018425 0.0037921 0.073175 0.036675 
-0.070523 0.091589 0.042923 -0.0090322 0.0085601 0.013986 -0.065591 0.015301 
-0.073154 0.084848 0.047691 0.025495 0.014479 0.0037921 -0.18397 0.029112 
-0.01939 0.13286 0.045224 0.013986 0.02533 -0.013471 -0.27489 0.0083956 
0.046868 0.13894 0.041772 0.023193 0.031578 0.013492 -0.23724 0.019411 
0.071202 0.13795 0.0092177 0.034702 0.03536 0.0075736 -0.1621 0.046868 
0.16558 0.18004 -0.0040998 0.01826 0.036346 0.00083261 -0.16786 0.012835 
0.17232 0.1738 0.0036276 0.045882 0.013492 0.037497 -0.20403 -0.0021268 
0.15686 0.12792 0.016616 0.014972 0.005765 0.01267 -0.1256 -0.042573 
0.13631 0.12792 0.036182 -0.015609 0.023851 0.055418 0.15489 -0.043559 
0.12381 0.083204 0.044238 0.039305 0.014479 0.029769 0.29513 -0.013307 
0.088136 0.029276 0.032071 -0.00081153 0.047197 0.034044 0.32423 0.013164 
0.02122 0.06594 0.073668 0.014315 0.038812 0.070051 0.25995 0.065283 
-0.05441 0.040292 0.05624 0.0421 0.054103 0.082053 0.18481 0.068736 
-0.14944 0.0059294 0.012506 0.02122 0.041114 0.047197 0.11576 0.038319 
-0.20485 -0.080059 0.004943 0.037332 0.0056006 0.010204 0.050157 0.051308 
-0.16769 -0.2739 0.027303 0.025001 0.037004 0.00066819 -0.044874 0.03651 
-0.10505 -0.32092 0.019083 0.034044 0.032564 0.012013 -0.13053 0.033715 
-0.027775 -0.15569 0.013821 0.026317 0.019247 0.00083261 -0.19548 -0.0049219 
0.042758 0.039305 0.026974 0.02122 0.018589 0.01004 -0.18315 -0.003771 
0.093233 -0.030077 0.039141 0.038648 -0.0039354 0.011684 -0.15339 0.01004 
0.14749 -0.090581 0.05476 0.016452 0.027139 0.026152 -0.12018 -0.0083746 
0.19994 0.056733 0.057884 0.038319 0.028125 0.017932 -0.014951 0.0085601 
0.14996 0.2024 0.030427 0.037826 0.0064227 0.0087245 0.030098 0.019576 
0.040785 0.28412 0.016616 -0.0014692 0.013986 0.011848 0.052952 0.023028 
0.010862 0.23545 0.015465 0.030427 0.022206 0.011355 0.075641 0.038648 
-0.090417 0.17034 0.018096 0.048348 0.056569 0.029276 0.0069159 0.019083 
-0.15437 0.11083 0.012013 0.048184 0.04358 0.029769 -0.096994 0.029441 
-0.11903 0.089452 0.018425 0.044567 0.025495 0.016123 -0.1016 0.026317 
-0.041586 -0.028926 0.047526 0.0037921 0.032729 0.007738 -0.022679 0.052459 
0.037332 -0.14451 0.058213 0.028783 0.035031 0.024344 0.036839 0.053445 
0.075641 -0.084991 0.014808 0.032564 0.028619 0.035524 0.096193 0.040621 
0.070051 0.015794 -0.0054151 0.023686 0.032893 0.039799 0.076627 0.045224 
0.066763 0.043909 0.021878 0.061337 0.037332 0.03536 0.050979 0.029769 
0.050321 0.029605 0.022864 0.050321 0.044896 0.045224 -0.022185 0.03799 
0.022535 0.0083956 0.029605 0.067913 0.057884 0.036675 -0.075949 0.026974 
0.01711 -0.0082102 0.035853 0.045882 0.041114 0.028454 -0.021528 0.026317 
-0.02235 -0.0031133 0.052952 0.016616 0.020891 0.048184 0.073832 0.042429 
-0.04619 -0.040435 0.058542 0.013492 0.023686 0.038155 0.15012 0.055089 
-0.032872 -0.088608 0.051472 0.032236 0.022371 0.01711 0.16492 0.045553 
-0.018075 -0.072825 0.027632 0.012835 0.016616 0.021384 0.11461 0.012835 
0.013657 0.0080668 0.043745 0.041772 0.0092177 0.0037921 0.051965 0.00033937 
0.079422 0.021549 0.022535 0.0087245 0.027961 -0.04471 0.0065871 -0.0052507 
0.10918 0.046211 0.027961 0.020891 0.035031 -0.021199 0.023357 0.011684 
0.10162 0.13105 0.0075736 0.038812 0.031085 0.027961 0.046868 0.051308 
0.045224 0.12743 0.0082312 0.042265 0.030427 0.049664 0.057062 0.05624 
-0.011498 0.12957 0.017438 0.072517 0.041607 0.050486 0.058049 0.074654 
-0.032708 0.15111 0.026481 0.055089 0.055582 0.095042 0.086821 0.094384 
-0.031721 0.16229 0.036182 0.05065 0.058542 0.074983 0.12053 0.068078 
-0.016431 0.16558 0.028783 0.067256 0.065447 0.035688 0.11855 0.058542 
0.0018191 0.13319 0.021878 0.024344 0.036017 0.042265 0.06742 0.032564 
-0.010512 0.10589 0.036017 -0.0060728 0.03092 0.02533 0.083204 0.028783 
-0.034516 0.065447 0.020069 0.021549 0.0056006 0.023193 0.054103 0.020069 
-0.028597 0.096521 0.040621 0.01152 0.0052718 0.018754 0.085341 0.037497 
-0.027282 0.085341 0.025495 0.06331 0.00066819 0.02533 0.09126 0.052952 
0.036675 0.00050378 0.047197 0.036839 0.025988 0.004943 0.10293 0.02829 
0.057884 -0.080059 0.06035 0.026481 0.024179 -0.0036066 0.094055 0.019411 
0.088465 -0.13662 0.047033 0.018918 0.0065871 -0.0011404 0.13368 0.01711 
0.086657 -0.070852 0.051308 -0.0070593 -0.0044286 -0.030406 0.21046 0.02681 
0.035688 0.097015 0.035853 0.020727 0.0064227 -0.0064016 0.27162 0.028454 
0.012177 0.19533 0.017932 0.050814 0.040292 0.035524 0.27688 0.020233 
0.010204 0.19402 0.015794 0.028454 0.032236 0.03536 0.18284 0.025824 
0.0047785 0.18695 0.022042 0.044567 0.01974 0.0019835 0.058706 0.019083 
0.054925 0.18021 0.049664 0.021056 0.018425 0.013821 -0.084663 0.0052718 
0.13894 0.12349 0.0689 0.012177 0.04506 0.041443 -0.14714 0.019411 
0.15555 0.079422 0.057227 0.035853 0.07301 0.045882 -0.15996 0.023686 
0.13203 0.095042 0.029605 0.021713 0.045718 0.038977 -0.15191 0.04358 
0.083697 0.063803 0.007738 0.031578 0.055747 0.054596 -0.21027 0.063145 
0.059528 0.044731 0.0080668 0.00066819 0.023522 0.016945 -0.32569 0.014643 
0.054925 0.069393 -0.024158 -0.004593 0.01711 0.017603 -0.39409 -0.0026201 
0.064625 0.081067 -0.03353 0.021713 0.033715 0.017274 -0.14089 -0.0067304 
0.023028 0.089287 -0.039613 0.01826 0.026152 0.01711 0.21128 0.009711 
-0.030735 0.085506 -0.01939 0.01267 0.047526 0.016452 0.38112 0.029769 
-0.03912 0.078107 0.029441 0.038319 0.023193 0.0014903 0.38885 0.014972 
-0.01528 0.059857 0.044896 0.020233 0.012506 0.016945 0.24318 0.02829 
0.034702 0.040128 0.03651 0.048184 0.019576 0.0075736 0.15966 0.026974 
0.093562 0.048513 0.0044497 -0.00097594 0.0095465 0.016781 0.17084 0.030263 
0.11247 0.022864 0.0037921 0.01152 0.019411 0.034702 0.17939 0.04917 
0.090274 0.025166 0.025824 0.017274 0.022371 0.01563 0.09981 0.039799 
0.019083 0.027961 0.069229 0.013164 0.031907 0.012835 0.017767 0.048184 
-0.041257 -0.010512 0.090931 0.031742 0.025495 0.03536 0.030263 0.029934 
-0.047176 0.00017495 0.12694 -0.0049219 0.016288 0.067749 -0.0022913 0.034044 
-0.017582 0.02681 0.12003 0.038155 0.027468 0.049664 -0.010512 0.034044 
0.031578 -0.0031133 0.10178 0.057062 0.041607 0.020891 -0.018568 0.041607 
0.05624 -0.07266 0.11198 0.030263 0.034044 0.0079024 0.021713 0.045224 
0.063968 -0.06707 0.10441 0.014315 0.01152 -0.021692 0.040621 0.0041209 
0.050814 -0.053917 0.033222 0.043745 0.0324 -0.038462 0.089945 0.0024767 
-0.0004827 -0.0022913 -0.040764 0.094548 0.076134 0.023357 0.12168 0.027796 
-0.029584 0.044731 -0.057534 0.18317 0.069229 0.061172 0.069393 0.052294 
-0.030735 0.060515 -0.046847 0.12908 0.061666 0.069064 -0.030077 0.075805 
0.021878 0.027303 0.0042853 0.073339 0.013164 0.054432 -0.1016 0.051308 
0.020562 0.028125 0.016288 0.028454 0.013821 0.017932 -0.14418 0.022371 
0.072517 0.033222 -0.032872 -0.046519 0.0064227 0.014643 -0.17246 0.033387 
0.16015 0.049664 0.0023123 -0.0077169 0.013164 0.0088889 -0.21537 0.031414 
0.1659 0.040621 0.023357 -0.026296 0.036017 0.048019 -0.43371 0.03388 
0.13302 0.05065 0.051965 -0.012649 0.02681 0.025988 -0.71338 0.0064227 
0.10606 -0.0027845 0.074819 0.037168 -0.00031829 0.004943 -0.6098 -0.0029489 
0.066763 -0.012814 0.076792 -0.0059084 -0.020212 -0.0016336 -0.033859 -0.012485 
0.085341 -0.0011404 0.08567 0.00297 -0.013965 -0.00031829 0.38901 -0.00031829 
0.14321 -0.023172 0.1003 -0.0060728 0.023686 0.044073 0.45757 0.048841 
0.15883 -0.029748 0.067091 0.029441 0.036346 0.056569 0.32325 0.053774 
0.079422 0.015794 0.014479 0.094384 0.061172 0.049664 0.19205 0.077614 
0.015794 0.0093821 0.0047785 0.064954 0.059364 0.0044497 0.17117 0.053938 
-0.043395 0.039305 -0.012156 0.069393 -0.0049219 0.0054362 0.14683 0.01415 
-0.042901 0.041114 0.013986 0.070708 0.0041209 0.012835 0.11625 0.037497 
-0.045532 0.033551 0.012506 0.043909 0.011026 0.018425 0.10129 0.0080668 
-0.063946 0.026481 0.036017 0.063639 0.020727 0.013492 0.068736 0.018096 
-0.10258 0.026646 0.069229 0.0324 0.0039565 0.022371 0.0689 0.015794 
-0.10078 0.01415 0.094713 0.0088889 0.00033937 -0.019719 0.10096 0.021878 
-0.051451 0.0090533 0.051143 0.013328 0.011191 -0.0014692 0.12135 0.022864 
0.045553 0.0087245 0.03536 0.016288 0.01974 0.035853 0.027796 0.028783 
0.10376 0.027796 0.014808 0.031414 0.01711 0.054267 -0.065919 0.035853 
0.1368 0.026317 0.0046141 0.031414 0.022535 0.033222 -0.16457 0.024673 
0.14141 0.04095 0.0034632 0.013492 0.020069 0.011026 -0.23855 0.016288 
0.080902 0.06594 0.0028056 0.030263 0.01563 0.019083 -0.27226 0.043745 
0.012506 0.035853 0.011684 0.020562 0.025659 0.0065871 -0.22409 -0.0078813 
-0.035996 0.033058 0.026974 0.013328 0.050486 0.0064227 -0.1307 -0.008539 
-0.027775 0.057227 0.035195 0.03092 0.02122 0.021878 -0.070687 0.0016547 
0.056733 0.024673 0.0051074 0.0014903 0.0036276 0.015794 0.0039565 0.031414 
0.1003 0.041772 0.01267 0.015465 0.009711 0.0047785 0.056898 0.026317 
0.15078 0.08156 0.017438 -0.012814 0.028947 0.023357 0.15423 0.041772 
0.13762 0.074819 0.0090533 0.013657 0.032729 0.03536 0.23167 0.05772 
0.077449 0.058213 -0.011992 0.056898 0.047197 0.036839 0.24597 0.045882 
-0.031557 0.064625 0.0014903 0.0041209 0.038155 0.036017 0.18152 0.076792 
-0.067892 0.051965 0.032729 -0.003771 0.038977 0.051636 0.16393 0.071037 
-0.070852 0.06035 0.043087 -0.020541 0.0034632 0.015959 0.1026 0.02122 
-0.075291 0.071366 0.004943 -0.0044286 0.017932 1.0539e-005 0.049664 0.0046141 
-0.071509 0.062652 -0.0029489 0.027961 0.021549 0.00083261 -0.094199 -0.0088678 
-0.0055795 0.036346 -0.0032777 -0.017417 0.023193 0.015794 -0.22869 -0.010019 
0.058542 0.047855 0.024673 -0.0075525 0.021056 0.013164 -0.09387 -0.0027845 
0.053938 0.063639 0.029769 0.011191 0.04095 0.037661 0.19912 0.0093821 
0.012835 0.039141 0.020562 -0.0098543 0.034866 0.051636 0.28987 0.032071 
-0.034681 0.037332 0.027303 0.019083 0.026974 0.025001 0.27409 0.026646 
-0.069701 0.067256 0.072846 0.023522 0.0021479 -0.012485 0.21556 0.025659 
-0.081868 0.074654 0.032564 0.0047785 0.021878 0.010204 0.22279 0.015794 
-0.10225 0.072517 -0.01676 0.056898 0.056733 0.012177 0.21046 0.031249 
-0.084498 0.11296 0.00083261 0.012999 0.033551 0.018589 0.086985 0.047855 
-0.041093 0.089287 -0.0011404 0.023357 0.048677 0.051801 -0.053095 0.032893 
0.033222 0.058706 -0.022514 0.025166 0.051472 0.051308 -0.15306 0.036675 
0.083204 0.068571 -0.028433 0.024015 0.032893 0.054432 -0.18315 0.055089 
0.10935 0.051636 0.0095465 0.032729 0.018754 0.06183 -0.15487 0.055582 
0.066105 0.063968 0.052952 1.0539e-005 0.011355 0.059528 -0.062467 0.090274 
0.0047785 0.081067 0.055582 0.03799 0.032893 0.057555 -0.0059084 0.06479 
-0.045861 0.081724 0.048019 0.083368 0.068242 0.033222 0.048841 0.049499 
-0.059672 0.078107 0.055254 0.079258 0.077449 0.020398 0.090603 0.032071 
-0.039942 0.074326 0.066269 0.071531 0.062488 0.01563 0.1299 0.025659 
-0.030406 0.058542 0.072681 0.040456 0.052623 1.0539e-005 0.22016 0.037826 
-0.025145 0.036182 0.090109 0.016452 0.0095465 0.0044497 0.2121 0.0075736 
-0.036654 -0.0032777 0.10244 0.023522 -0.013636 -0.055397 0.18744 0.015465 
-0.01117 0.018425 0.092411 -0.01939 -0.028762 -0.038791 0.11937 0.0018191 
0.057227 0.021549 0.082382 0.0032988 -0.0059084 0.0056006 0.078107 0.0060938 
0.088958 0.021549 0.079258 0.026152 0.0095465 0.044073 0.028454 0.038812 
0.022206 0.047855 0.010697 0.01826 0.054103 0.035524 0.020398 0.030756 
-0.025802 0.055911 -0.028433 0.094384 0.057884 0.046211 0.053445 0.027961 
-0.0075525 0.057227 -0.045368 0.039963 0.036839 0.056404 0.0075736 0.023028 
0.092411 0.069393 -0.0070593 0.062488 0.025988 0.038648 -0.036654 0.019576 
0.12414 0.03651 0.01152 0.073339 0.0072447 0.012177 -0.018075 0.018096 
0.096193 0.00083261 0.024673 0.060679 0.019576 0.018754 -0.012814 0.012177 
0.041607 0.043087 0.036346 0.068407 0.029605 0.0054362 -0.027282 0.023193 
-0.0055795 0.065447 0.058049 0.046868 0.041936 0.016123 -0.040106 0.018425 
0.03947 0.071202 0.034209 0.041114 0.046046 0.031085 -0.055726 0.018425 
0.10622 0.051308 0.04917 0.040292 0.032071 0.011848 -0.073318 0.028947 
0.14239 0.029769 0.066269 0.004943 0.021549 -0.01117 -0.051287 0.037661 
0.11526 -0.022679 0.065776 0.010697 0.033387 0.017603 -0.0054151 0.027632 
0.090931 -0.020048 0.051143 0.046375 0.047197 0.042758 0.060186 0.024508 
0.037332 0.024179 0.033058 0.052787 0.044567 0.024344 0.081395 0.044402 
0.0011614 0.046375 0.031578 0.06479 0.041443 0.014808 0.075805 0.037168 
0.0021479 0.05624 0.041114 0.040128 0.02681 0.0227 0.075148 0.029112 
0.024179 0.079587 0.062981 0.031249 0.019083 0.0036276 0.069229 0.025001 
0.027796 0.07449 0.08567 0.050486 0.016616 -0.032543 0.021549 -0.011663 
0.035853 0.055089 0.037826 0.03536 0.009711 0.0047785 0.036839 0.01826 
0.064296 0.054925 0.06742 0.051965 0.02533 0.0019835 0.072353 0.0080668 
0.056076 0.044402 0.044896 0.024673 0.013164 0.0019835 0.00050378 0.00017495 
0.094713 0.033551 0.01974 0.015301 0.01415 0.016452 -0.014951 0.03536 
0.055089 0.038483 0.031414 0.039305 0.033058 0.024508 0.03388 0.024344 
0.034209 0.03651 0.029769 0.026646 0.056404 0.037332 0.12398 0.040456 
0.018425 0.021056 0.030263 0.04095 0.040456 0.038483 0.13713 0.074654 
0.030592 0.029276 0.048841 0.052787 0.03092 0.047526 0.1756 0.04654 
0.041607 0.017767 0.025495 0.027796 0.031249 0.045389 0.25025 0.06479 
0.058706 0.0072447 0.0072447 0.057227 0.045553 0.04358 0.26801 0.055254 
0.055747 0.01415 -0.0031133 0.030263 0.025495 0.055089 0.18695 0.053116 
0.076956 0.01711 0.0087245 -0.0088678 0.01974 0.050157 0.064132 0.043909 
0.068571 0.034866 -0.011663 0.025824 0.01004 0.023357 -0.028926 0.028125 
0.06035 0.056076 0.0014903 0.01152 0.038319 0.020398 -0.1108 0.028947 
0.020727 0.10145 -0.044874 0.031414 0.04358 0.020233 -0.17723 0.01415 
0.036675 0.074161 -0.03205 0.021878 0.018918 -0.0029489 -0.22178 0.014315 
0.034702 0.0592 0.010862 -0.015116 0.017932 -0.0055795 -0.29889 0.01711 
0.027468 0.076792 0.015465 0.027139 0.0092177 0.0083956 -0.36121 -0.0042642 
0.004943 0.053116 0.041936 0.010862 0.029605 0.0074092 -0.38603 0.024344 
0.020233 0.038319 0.072517 -0.0044286 0.045553 0.011684 -0.23609 -0.0055795 
0.096686 0.058049 0.073175 0.012342 0.044896 0.03536 0.077943 0.028125 
0.14387 0.037661 0.072024 -0.004593 0.017767 0.037497 0.36139 0.035853 
0.11707 0.042758 0.066105 0.038483 0.0227 0.024837 0.35876 0.024179 
0.08863 0.059857 0.046868 0.016781 0.023851 0.017603 0.256 0.048841 
-0.012485 0.056404 0.049335 0.020069 0.042923 0.039141 0.15999 0.047362 
-0.10867 0.054103 0.037826 0.049006 0.059528 0.047526 0.085177 0.049664 
-0.078579 0.060679 -0.0050863 0.020398 0.038155 0.032071 -0.037147 0.049499 
0.071695 0.05213 -0.018897 0.0227 0.050321 0.040128 -0.060823 0.031085 
0.14535 0.064132 -0.0040998 0.015465 0.010697 0.034209 -0.029584 0.046704 
0.12332 0.094713 -0.00064712 0.025495 -0.0032777 0.0093821 0.018589 0.035524 
0.027139 0.067749 0.028125 0.04506 0.01974 0.033387 0.052459 0.023686 
-0.11343 0.019083 0.026317 0.025166 0.032893 0.04358 -0.029913 0.024508 
-0.14073 0.012013 0.042265 0.022206 0.034702 0.027796 -0.14073 0.018425 
-0.0072237 0.03799 0.066105 0.045718 0.027961 0.029276 -0.18808 0.032071 
0.1179 0.049828 0.041936 0.016452 0.031414 0.015301 -0.16111 -0.0024557 
0.17988 0.073997 0.023686 0.03092 0.026646 0.0034632 -0.15372 -0.00031829 
0.1516 0.045224 -0.0050863 0.018425 0.016452 0.00099702 -0.076113 -0.010183 
0.047526 0.046375 -0.04882 0.011026 0.026646 0.015301 0.032893 0.00297 
-0.030735 0.031578 -0.026131 0.037168 0.011848 0.0047785 0.096521 0.023851 
-0.070194 0.018918 0.022206 0.0060938 0.022206 -0.0021268 0.046704 0.013492 
-0.026296 -0.010183 0.065776 0.022206 0.051472 0.02533 0.019905 0.04917 
0.0037921 -0.018075 0.098823 0.039963 0.044896 0.026646 0.031578 0.048513 
0.038155 0.054267 0.062159 0.031414 0.065447 0.012506 0.023193 0.043251 
0.024179 0.052787 0.059035 0.056733 0.020398 0.041607 0.046868 0.058706 
0.044896 0.033387 0.037661 0.0037921 0.027303 0.012342 0.048841 0.055582 
0.079751 0.058871 0.046046 -0.0013048 0.0075736 0.0016547 0.041936 0.037168 
0.15587 0.050486 0.025988 0.017932 0.016781 0.016945 0.017438 0.020891 
0.13762 0.053938 0.022042 0.024837 0.041443 0.046375 0.038319 0.020069 
0.11592 0.084848 0.0026412 0.051308 0.063968 0.029276 0.056404 0.024344 
0.12628 0.08156 0.019905 0.035524 0.050321 0.0070803 0.074983 -0.0078813 
0.11839 0.025988 0.066269 0.020562 0.043745 0.045389 0.085999 -0.013307 
0.085999 -0.040106 0.066927 0.041772 0.01004 0.016452 0.054925 -0.0078813 
-0.0059084 -0.038627 0.044402 0.023028 0.00033937 0.00099702 0.01267 -0.017911 
-0.081045 -0.040764 0.0093821 0.021056 0.0095465 0.0028056 0.0047785 0.026646 
-0.10373 0.034044 0.00099702 0.034044 0.01826 0.0095465 0.011848 0.025001 
-0.09239 0.080244 0.016781 0.021713 0.040128 0.0056006 -0.04882 0.036017 
-0.058521 0.08715 0.02533 0.05065 0.040128 0.0014903 -0.22803 0.038648 
-0.014129 0.11198 0.03799 -0.0077169 0.055254 0.039141 -0.14632 0.028454 
-0.0087034 0.14256 0.039141 0.032564 0.030592 0.015137 0.22559 0.052787 
-0.04323 0.13812 0.033058 0.063474 0.042758 0.017932 0.50706 0.030756 
0.0028056 0.10277 0.023851 0.046211 0.036839 0.039305 0.51726 0.04917 
0.041772 0.074161 -0.0052507 0.040456 0.020727 0.021549 0.36863 0.042265 
0.062323 -0.001798 0.0062583 0.021056 0.025495 -0.0032777 0.22148 0.014808 
0.052787 -0.085978 0.026481 0.023357 0.029276 0.012999 0.090767 0.035688 
0.01267 -0.15322 0.039141 0.04095 0.018754 0.013492 -0.010183 0.00066819 
-0.0406 -0.18676 0.056404 0.007738 -0.0011404 0.020398 0.016452 0.016123 
-0.041751 -0.074469 0.053445 -0.012978 -0.0040998 0.019576 -0.036489 0.028947 
-0.021528 0.0689 0.052294 0.0067515 0.026646 0.030427 -0.14139 0.018425 
-0.013965 0.14617 0.029605 0.024344 0.047855 0.037168 -0.16177 0.048841 
0.005765 0.15456 0.015137 0.0689 0.049992 0.04358 -0.15372 0.035031 
0.020233 0.1465 -0.0087034 0.059693 0.076956 0.049992 -0.18019 0.045553 
0.063803 0.12875 0.0047785 0.057062 0.065612 0.040785 -0.28541 0.029441 
0.086657 0.064954 0.028783 0.067749 0.01826 0.028125 -0.27275 0.024837 
0.076134 0.031414 0.041607 0.029605 0.018096 0.020891 -0.039284 0.02533 
0.022864 0.047033 0.046046 0.010862 -0.0090322 0.009711 0.30631 -0.021692 
-0.011992 0.036346 0.065283 0.0069159 0.0023123 0.0062583 0.39428 0.030098 
0.00017495 0.0070803 0.0786 -0.040271 0.024673 -0.0027845 0.2754 0.020233 
0.058049 0.02533 0.071037 0.0090533 0.020727 0.016288 0.12776 0.022535 
0.059693 0.0064227 0.030592 -0.0022913 0.04654 0.012835 0.1197 0.0227 
-0.038791 0.025001 -0.01232 0.020233 0.03799 0.032893 0.1008 0.04917 
-0.10193 0.05476 -0.0087034 0.037004 0.015959 0.076463 0.011191 0.048184 
-0.087129 0.039141 -0.013965 0.018425 0.023028 0.02681 -0.021692 0.034044 
-0.056383 -0.034023 0.044402 0.00050378 0.028454 0.0054362 0.00066819 0.044402 
-0.02942 0.01152 0.037497 -0.004593 0.0079024 0.038155 0.046211 0.048348 
0.036346 0.035031 0.040621 0.01711 0.03092 0.019576 0.07038 0.051472 
0.024837 0.052952 0.044731 0.069064 0.043909 0.010533 0.02122 0.034702 
0.049006 0.038977 0.048019 0.063639 0.067256 0.013821 -0.061809 0.017932 
0.053774 0.073175 0.010533 0.050979 0.025001 0.042923 -0.056383 0.022864 
0.004943 0.05065 0.0059294 0.037497 0.029276 0.0093821 0.0060938 0.026646 
-0.01939 0.026974 0.0014903 0.019905 0.028125 0.010369 0.039305 0.041772 
-0.00097594 0.049499 -0.009361 0.052787 0.019905 0.038648 -0.071838 0.03651 
0.0324 0.042429 0.007738 0.017603 0.025495 0.012506 -0.23987 -0.00064712 
0.073668 0.059857 0.030592 -0.0013048 0.022864 0.010533 -0.36713 0.0013258 
0.082875 0.098494 0.031742 0.043909 0.04917 -0.0034422 -0.31928 0.021713 
0.027961 0.074819 0.047855 0.040128 0.030098 0.03388 -0.040435 0.026974 
-0.04471 0.074326 0.029934 0.030427 0.037332 0.033222 0.23298 0.065447 
-0.034188 0.070544 -0.010183 0.032564 0.028947 0.025659 0.36435 0.057391 
0.033222 0.028619 0.017932 0.037168 0.021878 0.028125 0.3022 0.052459 
0.12792 0.00066819 0.068242 0.029112 0.0093821 0.0080668 0.19303 0.023193 
0.19435 0.013821 0.10556 -0.0024557 -0.0040998 -0.019884 0.1077 0.0044497 
0.2052 0.018754 0.10491 -0.023501 0.011684 0.0075736 0.040128 0.02829 
0.13236 0.035853 0.09126 0.00033937 0.02533 0.0070803 0.005765 0.020891 
0.039634 0.072353 0.060022 0.0023123 0.034209 0.023522 0.011848 0.024837 
-0.035338 0.072024 0.031742 0.040785 0.046868 0.038977 0.038483 0.018096 
-0.05885 0.071202 -0.0077169 0.026317 0.037661 0.021878 0.058049 -0.0040998 
-0.0073881 0.076627 -0.073154 0.025988 0.02122 0.016945 0.073668 0.045718 
0.022864 0.064296 -0.077428 0.03947 0.029934 0.0227 0.10392 0.041114 
0.01267 0.042265 -0.043888 0.040621 0.035688 0.038648 0.072188 0.033387 
0.032071 0.061172 -0.023665 0.018096 0.056733 0.012177 0.011684 0.028783 
0.029276 0.082711 0.020562 0.059693 0.034044 0.01826 0.018754 0.014643 
-0.0047575 0.095371 0.059035 0.077449 0.0095465 0.019576 0.082875 0.032564 
0.00050378 0.066105 0.1077 0.098659 0.026646 0.01152 0.12184 0.016452 
0.020562 0.083204 0.15916 0.028947 0.034702 -0.014129 0.078272 0.012835 
0.042758 0.032236 0.17001 0.019411 0.026974 0.02829 0.039799 0.024179 
0.072188 0.031249 0.14256 0.04917 0.032564 0.023851 0.031249 0.037826 
0.088465 0.083862 0.049664 -0.010019 0.036182 -0.0040998 -0.0503 0.026317 
0.1225 0.063803 0.022864 -0.0026201 0.025659 0.010533 -0.078908 0.023522 
0.13006 0.025824 0.0054362 -0.030077 -0.0021268 0.012506 -0.031064 0.026646 
0.10408 0.025001 0.011191 0.0014903 -0.0049219 0.015137 0.01974 0.02122 
0.082875 0.016288 0.041114 0.031085 -0.0055795 0.0080668 0.0075736 0.019576 
0.07038 0.0023123 0.036017 0.046868 0.026974 0.035031 0.054925 0.043251 
0.047033 0.024015 0.026646 0.053116 0.0060938 -0.0039354 0.16607 0.0069159 
0.0028056 0.032893 0.032236 0.085341 0.038319 0.03651 0.25896 0.043909 
-0.060658 0.067091 0.049992 0.046704 0.05213 0.0227 0.27524 0.05476 
-0.070194 0.062323 0.066927 0.051472 0.030756 0.034537 0.31864 0.038812 
-0.061973 0.092576 0.040621 0.024508 0.027961 0.023686 0.30993 0.050979 
-0.019226 0.069558 0.052787 0.010369 0.032236 0.011848 0.24005 0.028619 
0.027961 0.071202 0.047691 0.033387 0.034866 0.013164 0.079422 0.045553 
0.11115 0.063145 0.055089 0.0093821 0.030427 -0.00081153 -0.12609 -0.0013048 
0.14765 0.030756 0.046704 0.027468 0.049664 -0.024487 -0.23198 -0.0054151 
0.13302 0.019411 0.020562 0.032236 0.031249 0.021056 -0.37173 -0.010348 
0.12003 0.012506 0.025824 0.024673 0.011191 0.023851 -0.42977 -0.012814 
0.1151 -0.020048 0.041443 0.048348 0.010369 0.0075736 -0.39902 0.012013 
0.12151 -0.035667 0.069064 0.023522 0.029441 0.0087245 -0.35463 0.024673 
0.056733 0.0039565 0.053938 0.038483 0.044402 0.049499 -0.3303 0.039799 
-0.030899 0.020398 0.042923 0.043745 0.052787 0.042594 -0.20715 0.042923 
-0.043888 0.052623 0.021056 0.052787 0.068242 0.02681 0.13565 0.026152 
0.0080668 0.076792 0.029441 0.068571 0.057555 0.030592 0.36073 0.019247 
0.058542 0.072846 0.059364 0.014643 0.026646 -0.010676 0.37553 -0.00081153 
0.14437 0.027632 0.042923 -0.0016336 -0.0049219 -0.017417 0.23841 -0.0013048 
0.21375 0.020562 0.076956 0.026646 -0.0022913 0.028454 0.11822 0.013986 
0.15785 -0.010841 0.06479 0.013328 0.016123 0.018096 0.0689 0.020398 
0.028125 0.021056 0.037661 0.051143 0.039305 0.060186 0.054267 0.04654 
-0.11031 0.068736 -0.015116 0.03947 0.045882 0.097837 0.08419 0.047855 
-0.15372 0.094877 -0.035503 0.016123 0.043745 0.055254 0.05065 0.056404 
-0.10571 0.035524 0.014808 0.021713 0.023028 0.010204 -0.027447 0.03092 
-0.062796 0.0037921 0.047855 0.01267 0.033551 0.020891 -0.08384 0.041936 
-0.0044286 0.033715 0.027796 0.00083261 0.022864 0.020069 -0.069865 0.040292 
0.018589 0.036839 -0.012485 0.027303 0.04917 0.031249 -0.062302 0.02533 
0.042758 0.043416 -0.017417 0.026152 0.028454 0.044731 -0.082361 0.045553 
0.051801 0.076956 -0.010676 0.047362 0.024015 0.024673 -0.053753 0.017603 
0.063803 0.062652 -0.0042642 0.027796 0.022206 -0.013307 -0.0042642 0.020398 
0.058871 0.069229 -0.016102 0.014643 0.014972 -0.00064712 -0.01528 0.0098754 
0.045224 0.087479 -0.0031133 0.032564 0.013821 0.023851 0.027468 0.011191 
0.029112 0.042594 0.012177 -0.0026201 0.019411 0.020233 0.081724 0.022206 
0.027796 0.021549 0.018096 0.024179 0.010204 0.016452 0.065118 0.021878 
0.027796 0.045224 -0.027447 0.033058 0.021384 0.031742 0.031907 0.031578 
0.03799 0.077449 -0.065755 0.047197 0.016288 0.043087 0.0064227 0.026152 
0.044567 0.062817 -0.024816 0.043416 0.049828 0.035853 -0.016266 0.024508 
0.10359 0.062323 0.052294 0.020891 0.050321 0.045553 -0.06 0.042923 
0.12908 0.040292 0.026974 0.0039565 0.016288 0.044073 -0.032872 0.0227 
0.0018191 -0.015938 0.062981 0.0083956 0.034044 0.0013258 0.011355 0.028619 
-0.069043 -0.04882 0.082053 -0.0083746 -0.0021268 0.021713 -0.011663 0.023193 
-0.11689 0.017603 0.075805 0.007738 -0.024816 0.024344 0.01152 0.025988 
-0.05737 -0.0034422 0.044731 -0.021363 -0.0082102 0.010533 0.1225 0.06331 
-0.022679 0.019247 -0.013307 0.01004 0.044238 -0.0060728 0.17412 0.052623 
-0.027447 0.067256 -0.010348 0.03536 0.030263 0.013328 0.12365 0.049828 
0.0051074 0.050486 -0.0049219 0.040785 0.037168 0.032729 0.090109 0.03092 
0.0042853 0.044567 -0.01939 0.030756 0.02681 0.018754 0.027632 0.03651 
-0.0011404 0.11 -0.023665 0.04358 0.025001 0.012506 0.020069 0.04654 
0.066434 0.13713 -0.015938 0.019083 0.026317 0.044238 0.098001 0.015137 
0.093891 0.16706 0.012342 0.07449 0.032893 0.028947 0.17692 0.040785 
0.061995 0.24564 0.051965 0.046046 0.046046 0.019083 0.25814 0.029441 
0.029112 0.26389 0.058542 0.048513 0.065776 0.042265 0.29678 0.01711 
-0.029255 0.22624 0.030427 0.032236 0.047855 0.029112 0.27919 0.0592 
-0.026789 0.17889 0.048677 -0.017582 -0.0047575 0.016288 0.20257 0.028619 
-0.037805 0.11017 0.068407 -0.044217 -0.0011404 0.032893 0.10277 0.033222 
-0.045039 0.046375 0.061666 -0.024816 -0.015116 0.020562 -0.06148 0.033058 
-0.03205 -0.0029489 0.068078 -0.020048 -0.015609 0.0016547 -0.17575 0.025988 
-0.0042642 -0.067564 0.044567 0.021713 0.017603 -0.0068948 -0.25121 0.032564 
0.018425 -0.17377 0.055582 0.028947 0.031578 0.00297 -0.27851 -0.017911 
0.037168 -0.34707 0.063639 0.010204 0.040456 -0.0024557 -0.39294 0.011355 
0.057062 -0.47021 0.066927 0.011026 0.035524 0.0056006 -0.425 0.0024767 
0.070215 -0.33852 0.03651 0.015137 0.038812 0.03947 -0.042901 0.024179 
0.040785 -0.0019624 0.041114 0.055747 0.049828 0.031085 0.3632 0.035195 
-0.0011404 0.2565 0.031907 0.056076 0.03536 -0.0088678 0.44853 0.017932 
0.0013258 0.27984 0.043416 0.031907 0.061501 0.041936 0.36797 0.043909 
0.011191 0.2565 0.045224 0.0786 0.055747 0.031414 0.28001 0.050979 
0.018425 0.24334 0.029769 0.075805 0.061337 0.031414 0.17791 0.061501 
0.024673 0.14963 0.032236 0.08978 0.022042 0.034373 0.070215 0.062323 
0.049828 0.1054 0.044567 0.09126 0.02681 0.044073 -0.010512 0.040785 
0.087643 0.094055 0.025659 0.03651 0.031742 0.0014903 -0.068221 0.029441 
0.090109 0.045389 0.043909 0.048184 0.0046141 -0.046025 -0.1256 -0.010183 
0.069886 0.0074092 0.059693 0.020069 0.013821 -0.058521 -0.082196 -0.00081153 
0.012013 0.021056 0.047526 0.024673 0.0056006 -0.045861 -0.025638 0.00083261 
-0.0024557 0.0093821 0.03947 0.036675 0.027632 0.0079024 -0.065919 0.012999 
0.0098754 -0.001798 0.059364 -0.0095255 0.019576 0.039799 -0.11557 0.036839 
-0.0013048 0.016616 0.072188 0.023028 0.020398 0.05065 -0.044381 0.040456 
-0.0068948 0.026152 0.078929 -0.00031829 0.020069 0.05065 0.0059294 0.034702 
-0.02646 0.0083956 0.077121 -0.0077169 0.020891 0.027961 0.033715 0.014479 
-0.013965 0.0036276 0.057062 0.017274 0.0059294 0.023522 0.11937 -0.0055795 
0.0085601 0.0082312 0.05476 -0.0031133 0.01267 0.0082312 0.085012 0.010533 
0.13647 -0.033037 0.047526 -0.0087034 0.053116 -0.017253 -0.014293 0.039141 
0.17906 0.017274 0.020562 0.055254 0.076299 0.042265 -0.064604 0.038977 
0.10063 0.04654 0.038483 0.08008 0.040128 0.061337 -0.041257 0.058706 
-0.014951 0.06479 0.034373 0.10441 0.066269 0.04506 -0.049314 0.051636 
-0.13152 0.077943 0.041278 0.042265 0.047033 0.038319 -0.16013 0.044238 
-0.15602 0.094055 0.052623 0.039799 0.020069 0.023193 -0.19893 0.024344 
-0.087293 0.046704 0.053281 0.029605 0.013492 -0.018075 -0.18446 -0.0031133 
0.090438 -0.023665 0.046704 -0.0054151 0.0014903 -0.030077 -0.069536 -0.0057439 
0.20997 -0.029748 0.063968 0.0042853 0.0037921 0.0037921 0.080244 0.0021479 
0.2583 0.014808 0.030098 0.00099702 -0.013307 -0.0091966 0.20734 0.010204 
0.25008 0.071202 0.011355 0.0042853 0.016123 0.0060938 0.24351 -0.0095255 
0.18777 0.087643 0.017603 0.025824 0.011848 0.014643 0.23282 0.014479 
0.1248 0.054925 0.012177 0.016123 0.034866 0.026646 0.19533 0.020069 
-0.016595 0.03388 0.034209 0.039963 0.047691 0.05476 0.16081 0.045553 
-0.10571 0.071366 0.022864 0.061995 0.055747 0.068407 0.14996 0.08304 
-0.10094 0.1202 0.025988 0.06331 0.06183 0.034702 0.096028 0.049992 
-0.060987 0.13171 -0.0049219 0.088465 0.044731 0.029934 0.070215 0.065447 
-0.04323 0.13779 -0.021034 0.06035 0.032071 0.038483 0.042429 0.028947 
-0.0040998 0.13943 -0.0072237 0.052623 0.03388 0.030427 -0.073647 0.059857 
0.040128 0.089123 0.025495 0.052623 0.049335 0.020398 -0.20764 0.050321 
0.11017 0.05213 0.040456 0.01004 0.034702 0.015465 -0.32487 0.0070803 
0.13286 0.065118 0.062323 0.015794 0.026974 0.02122 -0.30037 0.0014903 
0.12003 0.05624 0.050814 0.0034632 0.0070803 0.0034632 -0.18759 -0.030899 
0.089945 0.036346 0.047197 -0.016595 -0.01117 -0.0098543 -0.024323 -0.023994 
0.058213 0.031907 0.01152 -0.011005 -0.025967 -0.0032777 0.09274 -0.024652 
0.061995 -0.011827 0.016288 -0.015444 -0.004593 -0.011992 0.19944 0.0062583 
0.085506 -0.017088 0.013492 0.0064227 0.024508 0.018754 0.23216 0.03388 
0.12464 0.056569 0.012177 0.048019 0.044731 0.058706 0.24844 0.036839 
0.079094 0.051472 0.023686 0.042265 0.060679 0.10392 0.21704 0.045553 
0.050979 0.025988 0.045882 0.062652 0.062323 0.1174 0.16081 0.042923 
0.0070803 0.045553 0.068736 0.011684 0.066763 0.07038 0.05772 0.060022 
-0.0091966 0.081889 0.051308 0.020727 0.023522 0.029934 0.022371 0.051143 
-0.020048 0.087972 -0.006566 0.036839 0.037004 -0.00097594 0.017438 0.038319 
-0.01528 0.1077 -0.025145 0.042429 0.042923 -0.0004827 0.022371 0.049335 
0.022206 0.089616 -0.020377 0.061501 0.040785 0.028947 0.034866 0.045224 
0.049828 0.053774 -0.0064016 0.03799 0.028454 0.0026412 0.025659 0.030427 
0.087314 0.047526 0.013328 0.016616 0.037826 -0.0049219 0.053938 0.029769 
0.08304 0.050486 0.010204 0.04358 0.050814 0.018096 0.054596 0.025824 
0.12053 0.024837 0.019083 -0.0095255 0.01711 0.052787 0.063639 0.075476 
0.25781 0.018096 0.063145 0.0065871 0.021713 0.049335 0.088465 0.035195 
0.28313 0.035688 0.087808 0.010862 0.016288 0.048184 0.085341 0.015959 
0.10195 -0.011005 0.041114 0.00099702 0.0074092 0.059035 0.11954 0.031578 
-0.088444 -0.0082102 0.0067515 0.027961 0.0041209 0.04654 0.16344 0.0075736 
-0.2351 0.074326 0.0087245 0.019576 0.019411 0.0060938 0.18498 0.035524 
-0.39277 0.051143 -0.033859 0.045882 0.048019 0.021549 0.14371 0.025001 
-0.33194 0.015137 -0.014458 0.08863 0.061337 0.046211 0.054267 0.05476 
-0.1205 0.031907 0.0072447 0.055254 0.025495 0.025988 -0.028433 0.047855 
0.054103 0.022206 0.026317 0.0011614 0.0037921 0.055089 -0.020048 0.013657 
0.12266 0.02829 0.064296 0.0064227 0.014972 0.030756 -0.051615 0.047855 
0.11987 0.031742 0.077614 -0.0016336 -0.0060728 0.0060938 -0.070194 0.028947 
0.10162 0.010533 0.053116 0.01415 0.0024767 0.013492 -0.10078 0.015959 
0.098001 0.031578 0.052623 -0.008539 0.025824 0.029769 -0.1917 0.016781 
0.11329 0.035688 0.049006 -0.01117 0.0324 0.018425 -0.30662 0.0026412 
0.091753 0.053774 0.042429 0.0021479 0.02533 0.01152 -0.22129 0.02122 
0.026646 0.050979 0.022206 0.014972 0.023028 0.032236 0.12694 0.033058 
-0.04471 0.066763 0.010533 0.017274 0.020727 0.036346 0.3244 0.034373 
-0.084334 0.083697 0.01152 0.04358 0.040785 0.037332 0.33361 0.049006 
-0.088115 0.051801 0.027961 0.03651 0.062488 0.04654 0.29628 0.058542 
0.016945 -0.025802 0.064296 0.041936 0.043745 0.019411 0.21062 0.043087 
0.081395 -0.060823 0.081067 0.0046141 0.024508 0.010697 0.11362 0.011684 
0.055582 -0.019884 0.045224 0.01267 0.028125 0.0042853 0.075148 0.020562 
0.031414 0.039141 0.016945 0.035195 0.024508 0.021056 0.042758 0.032236 
0.03092 0.090438 0.014479 0.010862 0.034866 0.0095465 0.0087245 0.041278 
-0.012649 0.059857 0.037168 0.038483 0.011026 0.011355 -0.044381 0.026974 
-0.06148 0.046868 0.057227 0.0024767 0.023686 0.030592 -0.084991 0.019905 
-0.092883 0.065118 0.054103 0.044073 0.034537 0.019576 0.0070803 0.040292 
-0.072003 0.038155 0.057391 0.077285 0.039634 0.030592 0.071366 0.021713 
-0.023501 0.021384 0.032893 0.062323 0.065447 0.037826 0.1031 0.037826 
-0.032708 0.051965 -0.0034422 0.07038 0.037497 0.02829 0.085341 0.059693 
-0.018733 0.056404 0.0074092 0.041607 0.032071 0.012177 0.046211 0.035524 
0.034373 0.056898 -0.0029489 0.0044497 -0.0016336 0.015959 0.0039565 0.049499 
0.11148 0.10047 0.014643 0.0062583 -0.0075525 0.011191 -0.082196 0.012506 
0.1562 0.1197 0.024015 -0.052109 -0.014293 -0.014293 -0.20008 0.0013258 
0.1008 0.068736 0.045389 -0.036654 -0.0024557 -0.012814 -0.36186 0.00099702 
0.052623 0.051472 0.066763 0.0034632 0.011191 -0.0044286 -0.41842 -0.012649 
0.0786 0.0042853 0.094713 -0.019719 -0.0068948 -0.0078813 -0.30974 0.0060938 
0.046704 -0.047505 0.079258 0.0016547 0.0054362 0.0028056 -0.065262 0.018096 
-0.010019 -0.020541 0.045553 0.007738 0.049992 0.031578 0.10441 0.012177 
-0.049807 0.029934 0.037497 0.075805 0.0592 0.053281 0.22739 0.039305 
0.047691 0.0060938 0.040292 0.1197 0.082053 0.072681 0.21112 0.019411 
0.19583 -0.0503 0.039141 0.035688 0.055911 0.023686 0.20191 0.037826 
0.28067 -0.074469 0.034866 0.015137 0.059857 0.027303 0.08419 0.041607 
0.21654 -0.055561 0.04506 0.010533 0.029769 0.013492 0.061172 0.031742 
0.13664 0.0026412 0.033222 -0.012649 0.014479 0.0070803 0.071695 0.057884 
0.055418 0.077285 0.0093821 0.045389 0.024673 0.022042 0.06594 0.027632 
-0.0064016 0.077449 -0.050629 0.055089 0.024179 0.0047785 0.056076 0.030263 
-0.03764 0.11378 -0.020377 0.060515 0.034702 0.010697 0.019247 0.0070803 
-0.027282 0.12349 -0.0068948 0.069558 0.03092 0.030427 0.0052718 0.019247 
-0.022679 0.1202 -0.016266 0.0324 0.033058 0.024508 -0.042079 0.017932 
0.0062583 0.098001 0.0060938 0.042594 0.045389 0.0095465 -0.091897 0.0075736 
-0.031228 0.087972 0.028125 0.012013 0.017932 0.012177 -0.12725 0.020727 
0.0011614 0.075312 0.059364 -0.011663 0.01711 0.024015 -0.059836 0.011355 
0.024673 0.054596 0.074819 0.025166 0.014808 0.0093821 0.034702 0.018918 
0.048348 0.024344 0.068407 -0.0031133 0.013492 0.0088889 0.080573 0.028783 
0.072517 0.0028056 0.059035 0.016616 0.023686 0.019411 0.067256 0.045224 
0.055911 0.00050378 0.041607 0.023851 0.039305 0.014808 0.081067 0.04095 
0.033387 0.028783 0.029769 0.025988 0.040621 0.01004 0.084684 0.037168 
0.048677 0.041772 0.032564 0.043745 0.036182 0.037168 0.077449 0.024508 
0.11839 0.035031 0.014808 0.035195 0.046868 0.026317 0.057062 0.025988 
0.10935 0.032729 0.028619 0.048019 0.027303 0.023193 0.01415 0.028619 
0.062817 0.054267 0.058542 0.062488 0.038319 0.033222 0.017274 0.050157 
-0.022021 0.026646 0.070051 0.039963 0.023522 0.024673 0.01711 0.029276 
-0.02942 0.021384 0.051965 0.018918 0.02681 -0.0083746 0.0037921 0.039799 
0.023686 0.036182 0.030263 0.0026412 0.016288 -0.0082102 -0.0067304 0.011355 
0.055418 0.026317 -0.0036066 0.0052718 -0.0019624 0.037332 0.0036276 0.016452 
0.061501 0.0592 -0.037805 0.040785 0.0031344 0.019576 0.0098754 0.031578 
0.049664 0.10573 -0.031228 0.039799 0.010533 0.023686 0.014479 0.017767 
0.056076 0.076299 0.0083956 0.031085 0.031414 0.048677 0.06331 0.047197 
0.053281 0.042265 0.06331 0.024837 0.036017 0.036839 0.12003 0.036675 
0.0227 0.031414 0.0689 0.0069159 0.048184 0.032729 0.10803 0.013328 
0.021878 0.030756 0.051636 0.046704 0.044402 0.038319 0.083862 0.034866 
0.047855 0.044402 0.015301 0.044896 0.054596 0.050486 0.098659 0.043251 
0.048677 0.0592 0.012999 0.048513 0.040292 0.043251 0.11822 0.060186 
0.032893 0.10228 0.013492 0.069722 0.055418 0.046046 0.079587 0.061501 
-0.022843 0.091589 0.026317 0.03799 0.062159 0.051143 0.013986 0.051143 
-0.1016 0.078107 0.036839 0.040128 0.045553 0.036182 -0.026296 0.066598 
-0.12922 0.063968 0.0227 0.015794 0.05772 0.037004 0.045882 0.036017 
-0.12133 0.031578 0.030592 0.026481 0.01826 0.030427 0.039799 0.010533 
-0.031721 0.013821 0.06331 0.009711 0.015137 0.027303 0.022371 -0.0004827 
0.060679 0.049335 0.072846 -0.011663 0.022371 -0.029913 0.059693 0.01152 
0.079916 0.053609 0.033551 0.0041209 -0.036489 -0.0082102 0.088794 0.0016547 
0.041114 0.11033 0.017438 0.029112 -0.020541 -0.012978 0.073832 0.024344 
0.0069159 0.15489 -0.032379 0.013328 -0.0091966 -0.0040998 0.098659 0.038977 
0.049664 0.067091 0.0014903 0.044567 0.032564 0.018425 0.11017 0.032893 
0.058871 -0.067564 0.070708 0.012999 0.056898 0.031414 0.075641 0.035195 
0.099645 -0.093376 0.10819 0.011355 0.064461 0.024673 0.044731 0.043909 
0.12546 -0.010019 0.08008 0.044896 0.074326 -0.0039354 0.088136 0.0227 
0.080409 0.070544 0.034702 0.050157 0.052623 0.053938 0.098494 0.039141 
0.048184 0.078765 -0.014129 0.049006 0.065283 0.052623 0.081395 0.020398 
0.049992 0.099316 -0.016924 0.073997 0.056076 0.046868 0.0064227 0.043251 
0.024837 0.076299 -0.017746 0.0592 0.044896 0.04654 -0.12626 0.034209 
-0.021528 0.073339 0.0046141 0.049499 0.034209 0.038319 -0.10686 0.029934 
-0.070194 0.11099 0.017767 0.0079024 0.015465 0.0092177 -0.046025 0.030756 
-0.084005 0.10014 0.020727 -0.0034422 -0.0027845 0.011355 -0.14089 0.0065871 
-0.035996 0.093233 0.03092 0.018918 -0.0060728 0.036017 -0.28952 0.022864 
-0.0096899 0.074983 0.062817 0.013657 0.0042853 0.020891 -0.16868 0.016945 
-0.0068948 0.0036276 0.078436 0.026481 0.00066819 0.034044 0.12381 0.033222 
-0.022679 -0.089266 0.071859 -0.006566 0.012835 0.023686 0.29037 0.035688 
-0.03912 -0.096172 0.046704 0.030263 0.0087245 0.013657 0.293 0.03536 
-0.022021 -0.019226 -0.0014692 0.065447 0.034702 0.011355 0.1493 0.041607 
0.034537 0.060186 -0.018075 0.043087 0.051636 0.025495 -0.032215 0.019905 
0.082875 0.10803 -0.021363 0.045718 0.020727 0.00297 -0.11491 0.0060938 
0.15719 0.10392 -0.010019 0.04095 0.025495 0.014972 0.0046141 0.023686 
0.16146 0.01004 0.033551 0.047197 0.022535 0.020398 0.04358 0.031578 
0.12677 0.051143 0.0689 0.066927 0.0227 0.029769 0.075312 0.042758 
0.078929 0.047526 0.078929 0.027139 0.0062583 -0.00064712 0.12135 0.03651 
0.028454 0.028947 0.06479 0.00297 0.03536 -0.00015387 0.13631 0.023028 
-0.0019624 0.0056006 0.084519 0.0065871 0.054925 0.049992 0.15308 0.041114 
-0.018568 0.038812 0.023357 0.027468 0.05772 0.026152 0.14042 0.030263 
-0.01676 0.048019 -0.013143 0.073997 0.036182 0.0024767 0.060844 0.038977 
0.013821 0.060679 -0.019719 0.030756 0.0092177 0.0019835 -0.084663 -0.0073881 
0.049006 0.076134 0.021056 -0.018239 -0.033859 -0.0047575 -0.17986 0.0054362 
0.021878 0.040621 0.060186 0.013328 -0.010183 -0.01676 -0.22688 -0.0013048 
-0.022021 0.015137 0.070051 0.0062583 0.017438 0.0032988 -0.11886 0.013821 
-0.024652 0.06594 0.033058 0.015959 0.026317 0.032729 -0.092719 0.04506 
-0.0024557 0.038483 0.033058 0.037332 0.039634 0.049006 -0.24414 0.041607 
0.10047 0.040621 0.059857 0.028783 0.028783 0.04654 -0.2642 0.039634 
0.19007 0.049335 0.061337 0.048348 0.02829 0.054596 0.089452 0.017932 
0.13171 0.052294 0.036675 0.012999 0.038155 0.037826 0.35169 0.038319 
0.0088889 0.059693 0.034537 0.041114 0.040621 0.0059294 0.36764 0.047033 
-0.0072237 0.067256 0.086821 0.043745 0.045224 -0.025474 0.25156 0.0082312 
-0.017582 0.065612 0.068242 0.021384 0.038812 -0.01232 -0.00031829 0.010697 
-0.016431 0.1128 0.014972 0.044567 0.03536 0.025659 -0.17772 0.0087245 
-0.0050863 0.1345 -0.0138 -0.0052507 0.016616 0.04654 -0.24299 0.0051074 
0.0067515 0.069229 0.0079024 -0.025474 0.0019835 0.060515 -0.14928 0.025495 
0.03388 -0.029584 0.087972 -0.014787 -0.0082102 0.00050378 -0.074798 0.010204 
0.05065 -0.11327 0.092247 -0.011498 -0.00097594 -0.008539 0.005765 0.014808 
0.042265 -0.075127 0.054267 0.01711 0.03536 0.00083261 0.19188 0.03388 
-0.00064712 -0.020706 0.021878 0.048677 0.064132 0.026152 0.29711 0.064954 
-0.02646 0.074326 -0.023172 0.057884 0.082875 0.039141 0.29974 0.054432 
-0.049971 0.1322 -0.023994 0.087479 0.093562 0.052294 0.21934 0.042923 
-0.009361 0.0786 -0.015116 0.064625 0.058706 0.0592 0.085341 0.031085 
0.14782 0.047033 0.026974 0.061172 0.024344 0.026317 -0.11968 0.010862 
0.29776 0.08156 0.072517 0.035688 0.016123 0.028125 -0.15503 0.013986 
0.39625 0.09981 0.075476 -0.047505 -0.016266 0.016781 -0.084498 0.022535 
0.41368 0.069558 0.068736 -0.076113 -0.044217 -0.030242 0.038648 -0.015773 
0.34314 -0.008539 0.07301 -0.087458 -0.040928 -0.061151 0.072846 0.0032988 
0.14141 -0.049149 0.10441 -0.080223 -0.035832 -0.03616 0.081395 -0.010183 
-0.2328 -0.031886 0.093726 -0.013965 -0.012485 0.010369 0.11954 0.0036276 
-0.4735 0.022206 0.070708 0.020891 0.0227 0.018754 0.10293 0.030427 
-0.39097 0.050486 -0.011005 0.061172 0.080573 0.045389 0.055254 0.037497 
-0.13168 0.063803 -0.066741 0.10392 0.096521 0.09274 0.05213 0.086657 
0.02122 0.099316 -0.072825 0.10754 0.10589 0.077285 0.099316 0.094384 
0.099481 0.090109 -0.050629 0.091918 0.062652 0.044731 0.037661 0.075805 
0.13664 0.045882 -0.028926 0.059364 0.048677 0.035853 -0.062302 0.041278 
0.13203 0.068571 0.0021479 0.062159 0.027468 0.035031 -0.13037 0.041936 
0.088794 0.082711 0.027961 0.058377 0.020233 0.035195 -0.18019 0.043909 
0.043087 0.040785 0.041278 0.026974 0.020398 0.035031 -0.26502 0.026317 
0.061172 0.042265 0.054596 0.0090533 0.01826 0.053774 -0.40478 0.011848 
0.054596 0.0088889 0.035031 -0.013471 -0.0070593 0.018425 -0.29413 -0.014293 
0.038977 -0.042573 0.053938 -0.055397 -0.013307 -0.033037 -0.025638 -0.045696 
0.078107 -0.06 0.099974 -0.038627 -0.028762 -0.046683 0.21375 -0.04471 
0.12529 -0.0073881 0.11642 -0.0406 -0.017911 -0.029748 0.36649 -0.03764 
0.14437 0.0021479 0.077121 0.04095 0.027961 -0.00015387 0.45462 0.038977 
0.031414 0.016288 0.029934 0.10639 0.076956 0.051636 0.46497 0.094713 
-0.10127 0.063145 0.027303 0.097672 0.077778 0.072681 0.36665 0.11724 
-0.15076 0.057227 0.0087245 0.10014 0.046704 0.062652 0.2269 0.1202 
-0.019061 0.03947 -0.020541 0.066763 0.052952 0.046211 0.015959 0.070708 
0.11083 0.036017 -0.080881 0.086492 0.052787 0.044402 -0.12527 0.042758 
0.12661 0.058377 -0.050464 0.0592 0.030098 0.028125 -0.09798 0.023028 
0.086328 0.10145 -0.055232 0.041443 0.033715 -0.0049219 -0.13974 0.0090533 
-0.015609 0.12612 -0.023829 0.024673 0.0069159 0.021549 -0.15914 0.022535 
-0.048985 0.13631 -0.022514 0.042429 0.041114 0.034537 -0.15964 0.0093821 
-0.056548 0.065612 -0.0027845 0.027468 0.044731 0.017767 -0.069536 0.021878 
-0.057041 0.037004 -0.008539 0.056733 0.035853 0.0013258 -0.041257 -0.0022913 
-0.066413 0.10408 -0.012978 0.034044 0.031414 0.0039565 -0.025309 -0.0138 
-0.071838 0.06594 0.03536 -0.006566 0.03651 0.0098754 0.042758 -0.0021268 
-0.062796 -0.023336 0.11905 -0.0036066 0.025824 0.011355 0.10869 0.023028 
-0.018404 -0.037969 0.15686 -0.014129 0.015301 0.023522 0.089123 0.0069159 
0.040456 -0.02646 0.12694 0.011191 0.010369 0.017274 0.064625 0.014643 
0.10951 0.04506 0.068242 0.047526 0.013657 0.018589 0.033387 0.042265 
0.19517 0.14289 0.02681 0.060679 0.013821 0.034702 0.077285 0.049828 
0.20471 0.14519 0.0065871 0.079916 0.037497 0.051965 0.068242 0.06183 
0.12743 0.03947 0.056898 0.044896 0.03947 0.035031 0.074819 0.06035 
0.038648 -0.001798 0.1003 0.027468 0.031085 0.026152 0.11378 0.048348 
-0.049642 0.010369 0.052459 0.057391 0.0227 0.040621 0.17314 0.059035 
-0.086964 0.072517 0.018096 0.039634 0.011848 0.014479 0.20964 0.029112 
-0.081868 0.13499 -0.020212 0.082546 0.023028 0.014479 0.1687 0.012506 
-0.030899 0.092576 -0.03353 0.075312 0.018425 0.018425 0.12036 0.026317 
-0.029091 0.051143 -0.0082102 0.055582 0.023686 0.01974 0.064296 0.011026 
-0.013636 0.02122 -0.00097594 0.052952 0.025495 0.0079024 0.06035 -0.00031829 
-0.030242 -0.0016336 0.046704 0.024015 0.031578 0.009711 0.049828 0.014972 
-0.033859 -0.10291 0.098494 0.0083956 0.04095 0.060679 0.076627 0.029276 
-0.064768 -0.13103 0.14585 0.0056006 0.039141 0.033222 0.022864 0.063968 
-0.084827 -0.047998 0.084684 0.0072447 0.051308 0.03092 -0.048492 0.069064 
0.049828 0.10293 0.032071 0.029769 0.035195 0.037332 -0.18611 0.04506 
0.090603 0.19632 -0.026131 0.0051074 0.01152 0.036182 -0.21455 0.010204 
0.058049 0.23118 -0.041586 0.013164 0.012835 -0.0047575 -0.0868 0.010369 
0.10195 0.1465 -0.008539 0.018754 0.025659 0.0074092 0.033387 0.022206 
0.24285 0.08008 0.047197 -0.0019624 0.015794 0.022535 0.078765 0.0098754 
0.39115 0.023028 0.11148 0.0082312 0.019576 -0.0029489 0.066269 0.031907 
0.41779 -0.073647 0.13532 -0.0040998 0.028783 0.0093821 0.13269 0.019083 
0.23052 -0.058192 0.072024 0.021549 0.030592 0.033551 0.19057 0.040621 
-0.12922 0.043909 -0.0059084 0.071859 0.04654 0.033222 0.21342 0.061666 
-0.46084 0.13845 -0.020706 0.070544 0.066434 0.035688 0.16689 0.058213 
-0.4569 0.16262 -0.034681 0.051801 0.060186 0.039963 0.079094 0.05476 
-0.21685 0.15242 -0.014458 0.034044 0.051801 0.029769 0.051801 0.04917 
-0.033201 0.11198 0.0088889 0.022535 0.0047785 0.028454 0.025495 0.034209 
0.058377 0.08863 0.052787 0.033551 0.023357 0.023028 0.076463 0.041278 
0.0227 -0.0013048 0.12809 -0.024652 0.0065871 0.035853 0.098166 0.043745 
0.0083956 -0.12018 0.12184 -0.017088 0.0019835 0.012835 0.19862 0.063639 
0.11115 -0.21702 0.061666 -0.0024557 -0.0019624 -0.025638 0.24844 0.015137 
0.22164 -0.17312 0.022864 0.0026412 0.019905 0.0098754 0.2075 0.01826 
0.23068 -0.06296 -0.024816 0.025001 0.034702 0.023686 0.087314 0.011026 
0.15999 -0.041586 -0.022021 0.042758 0.035688 0.02681 -0.12905 -0.0082102 
0.1276 -0.012156 0.016123 0.035853 0.040621 0.0227 -0.41481 -0.0029489 
0.087643 0.041772 0.034373 0.051308 0.033715 0.023851 -0.41661 0.012013 
-0.011992 0.092247 0.045882 0.041443 0.029934 -0.0021268 -0.28081 0.045224 
-0.1427 0.19435 0.022535 0.037168 0.025659 0.033058 -0.39014 0.049992 
-0.18709 0.25288 -0.0022913 0.043251 0.028454 0.048184 -0.6874 0.012506 
-0.11393 0.10474 0.013492 0.015301 0.025166 0.013328 -0.44539 0.012013 
0.030756 -0.14402 0.095699 0.014315 0.018425 -0.018075 0.13582 -0.022185 
0.21276 -0.18101 0.10178 -0.071674 -0.0040998 -0.014458 0.34084 -0.023829 
0.43406 -0.035174 0.067256 -0.088444 0.0083956 -0.0087034 0.25173 -0.018404 
0.41499 0.10293 -0.012814 0.0011614 0.036346 0.038977 0.22361 0.02122 
0.16936 0.16097 -0.051122 0.040621 0.048677 0.029441 0.27984 0.076792 
-0.03205 0.12579 -0.029255 0.073339 0.088465 0.066763 0.19813 0.07449 
-0.077593 0.076956 -0.014622 0.073997 0.081724 0.051143 0.080573 0.077285 
-0.064604 0.069558 -0.01939 0.039799 0.054432 0.042758 -0.045203 0.056733 
-0.017911 0.082875 -0.018239 0.054925 0.019083 0.041607 -0.10538 0.022864 
0.015301 0.047033 -0.0014692 0.019247 0.020233 0.016616 -0.035174 -0.00097594 
-0.018075 0.047526 0.0056006 0.02533 0.0047785 0.0059294 0.092411 0.0028056 
-0.098638 0.017603 0.025495 0.0060938 -0.0039354 0.013986 0.12842 0.010204 
-0.15552 0.00033937 0.026646 -0.026296 -0.01117 0.025824 0.0324 0.017274 
-0.13859 0.059035 0.044402 -0.0064016 -0.015116 0.015137 -0.035996 0.033715 
0.00099702 0.061172 0.080738 -0.045861 0.0021479 0.0093821 -0.051944 0.037332 
0.075148 0.019247 0.10639 -0.019719 -0.0057439 0.031578 -0.067728 0.033715 
0.099645 0.032236 0.064625 0.0046141 0.0092177 0.018918 -0.19301 0.035195 
0.13088 0.039305 0.059035 0.014315 0.0092177 0.0093821 -0.35907 -0.0042642 
0.25913 0.00050378 0.040292 0.0069159 0.025166 0.0018191 -0.26831 -0.026296 
0.42584 0.0421 0.0095465 0.011355 0.039799 0.00066819 -0.022185 -0.017253 
0.48503 0.10195 0.029112 -0.026131 0.066927 -0.016595 0.15752 -0.011005 
0.37109 0.10277 0.031249 0.0018191 0.03651 0.0031344 0.18563 0.022371 
0.13779 0.14469 0.036182 -0.042573 0.01974 0.013492 0.18892 0.019576 
-0.19071 0.23578 0.018096 0.018918 0.016616 0.023193 0.15604 0.031742 
-0.49093 0.28083 -0.021034 0.07038 0.037826 0.032236 0.13368 0.029605 
-0.47991 0.22246 -0.039778 0.051143 0.023357 0.04506 0.1202 0.044238 
-0.31928 0.077778 0.004943 0.03388 0.024673 0.012999 0.064461 0.03799 
-0.12297 -0.034023 0.073832 0.015959 0.014972 -0.0057439 0.024179 0.0092177 
0.029112 -0.14434 0.085177 0.053281 0.042923 0.024015 0.058049 0.020562 
0.11806 -0.1524 0.0227 0.092247 0.055089 0.0421 0.15193 0.033551 
0.15949 -0.24957 0.005765 0.041607 0.044073 0.053774 0.14404 0.063968 
0.18711 -0.30531 0.046046 0.038483 0.020727 0.0083956 0.089945 0.050486 
0.1756 -0.13234 0.056733 0.039305 0.011026 0.024179 0.11543 0.027961 
0.12908 0.12053 0.022864 0.0034632 0.011191 0.014972 0.15193 0.063639 
0.072517 0.22772 0.036839 0.005765 0.025824 0.0046141 0.11822 0.037497 
0.037168 0.21095 0.022371 -0.004593 0.021878 0.0070803 0.11181 0.032236 
0.0075736 0.17133 0.050979 0.021878 0.028454 0.01267 0.11494 0.020562 
0.037004 0.087808 0.099152 0.059364 0.039634 -0.008539 0.10277 -0.0022913 
-0.011005 0.090438 0.074819 0.052294 0.034044 0.022864 0.10145 0.031414 
-0.10571 0.14535 0.02681 0.064954 0.052294 0.030592 0.091096 0.018918 
-0.16276 0.073832 0.023851 0.046211 0.046868 0.033058 0.077778 0.029441 
-0.093212 0.021549 0.045718 0.036675 0.038977 0.0056006 0.031578 0.011848 
0.054925 0.049992 0.016288 0.044731 0.020398 0.014808 -0.031228 0.012506 
0.071366 0.11115 0.0042853 0.023851 0.030263 0.026317 -0.014458 0.045718 
-0.02942 0.11017 -0.011827 0.056076 0.029441 0.030263 -0.022185 0.064132 
-0.067399 0.088794 0.0093821 0.069558 0.027961 0.025659 -0.15207 0.056076 
-0.039613 0.054103 0.058706 0.050979 0.025495 0.024015 -0.26946 0.030098 
-0.13399 0.013328 0.061008 0.058706 0.034209 0.0062583 -0.098473 0.027961 
-0.19679 -0.014129 0.069393 0.032564 0.034044 0.010533 0.16804 0.033387 
-0.12626 0.025495 0.033715 0.06035 0.047691 0.042265 0.33854 0.041936 
-0.026953 -0.023829 -0.012485 0.10376 0.039963 0.033715 0.35235 0.069558 
0.048019 -0.060494 -0.018568 0.10014 0.046211 0.031249 0.27672 0.048841 
0.041278 -0.0004827 0.01415 0.082382 0.039963 0.062981 0.19418 0.04095 
0.02829 0.0079024 0.070544 0.025001 0.022535 0.03536 0.12151 0.046868 
0.051636 -0.044381 0.10491 -0.016102 0.016123 0.032236 0.063968 0.047033 
0.18136 -0.10406 0.13697 -0.0029489 0.0067515 0.014315 0.0093821 0.045389 
0.27162 -0.071016 0.13121 -0.017088 -0.0044286 0.037497 -0.025638 0.045389 
0.26735 0.035853 0.085835 -0.011663 0.022371 0.02122 -0.041257 0.02122 
0.19418 0.13631 0.038812 0.016781 0.027632 0.025659 -0.10209 0.014808 
0.076792 0.2195 -0.025309 -0.0013048 0.007738 0.026152 -0.15898 -0.0054151 
-0.083183 0.17265 -0.02646 0.0075736 -0.0050863 0.023028 -0.13645 0.016781 
-0.21998 0.095699 -0.0064016 0.00050378 0.0037921 0.014315 -0.066084 0.012342 
-0.22392 0.031414 0.013164 0.077943 0.046868 0.057555 0.0046141 0.043416 
-0.030077 -0.046847 0.03651 0.10704 0.061666 0.09274 -0.031886 0.05772 
0.21868 -0.058521 0.079094 0.038977 0.064132 0.052787 -0.1256 0.040128 
0.28823 0.052623 0.076134 0.045224 0.061995 0.012835 -0.22326 0.056733 
0.15834 0.18761 0.020562 0.090274 0.051965 0.0074092 -0.26437 0.0324 
0.033387 0.25189 -0.014129 0.098823 0.045224 0.032729 -0.19877 0.040292 
-0.042901 0.23562 -0.023501 0.072353 0.013821 -0.014951 0.012506 0.016945 
-0.042573 0.11247 0.00033937 0.025495 0.0052718 -0.011334 0.17807 -0.010183 
0.1077 0.00099702 0.086657 -0.0064016 0.01004 1.0539e-005 0.15966 -0.0059084 
0.23742 -0.029091 0.11954 -0.011005 0.038319 -0.017746 0.10425 -0.05885 
0.32391 0.0042853 0.069558 -0.013471 0.034866 0.0070803 0.020398 -0.010019 
0.19862 0.12957 0.019576 0.05476 0.024344 0.061172 0.014972 0.016452 
-0.031721 0.18152 -0.0068948 0.0421 0.026317 0.052294 0.063474 0.063474 
-0.19186 0.04917 0.034209 0.025166 0.033222 0.04506 0.094877 0.09981 
-0.18857 -0.09798 0.051308 -0.0031133 0.0036276 0.03651 0.090931 0.065283 
-0.060494 -0.12675 0.098166 -0.047012 -0.00064712 0.0051074 0.076792 0.042758 
0.15703 -0.12462 0.08863 -0.059178 -0.0054151 -0.0062372 -0.056219 0.020233 
0.32111 -0.091075 0.040128 -0.012485 0.012999 -0.0040998 -0.20995 -0.0096899 
0.34742 -0.0057439 -0.01117 0.040292 0.03092 0.0087245 -0.20008 0.0054362 
0.26061 0.098166 -0.051615 0.11115 0.01415 0.0023123 -0.064275 -0.0070593 
0.044402 0.17922 -0.056548 0.041772 0.021549 0.026481 0.093398 -0.013143 
-0.11376 0.2098 -0.014622 0.01974 0.017603 0.031249 0.14897 0.013986 
-0.095678 0.16755 0.039799 0.029276 0.013328 0.050157 0.16673 0.045224 
0.058213 0.071202 0.044238 -0.012978 0.027796 0.035524 0.099645 0.039305 
0.11987 -0.0090322 0.054432 -0.015609 0.030592 0.025824 0.074654 0.035195 
0.07597 -0.021363 0.039305 -0.016595 0.030592 0.03092 0.091425 0.05624 
-0.018404 -0.029091 0.025001 0.020069 0.01415 0.029769 0.12003 0.054925 
-0.028433 0.065776 0.00017495 0.064625 0.019247 0.039141 0.093398 0.038319 
-0.054082 0.19632 -0.061151 0.058377 0.038648 0.018096 0.060186 0.024344 
-0.10505 0.14354 -0.036654 0.076792 0.049499 0.0016547 0.047033 0.00066819 
-0.06 -0.057863 0.068242 0.023522 0.035524 -0.003771 0.019905 0.011848 
0.062652 -0.1552 0.14437 -0.029584 0.025659 -0.0032777 0.01563 0.015794 
0.1516 -0.086471 0.075148 0.050979 0.059528 0.012013 0.0083956 0.057227 
0.16952 0.037004 -0.034352 0.091589 0.045224 0.02681 -0.0062372 0.075641 
0.090438 0.11905 -0.060658 0.11083 0.04095 0.062817 0.0041209 0.05476 
-0.0075525 0.029441 -0.023829 0.10589 0.0324 0.040292 0.069722 0.073997 
0.037332 -0.081868 0.038977 0.012999 0.007738 0.016945 0.10672 0.012013 
0.039141 -0.059672 0.054267 -0.034023 0.011355 0.0060938 0.099316 0.014315 
-0.10061 0.033058 -0.0067304 -0.026131 -0.01232 -0.015609 0.059693 -0.006566 
-0.19449 0.080902 0.02681 -0.088444 -0.02794 -0.04619 -0.047176 -0.037311 
0.01152 -0.0014692 0.064625 -0.11031 -0.031721 -0.041257 -0.11771 -0.008539 
0.34807 -0.054739 0.070544 -0.065755 0.0031344 0.0082312 -0.074633 0.016781 
0.28461 -0.094692 0.061008 0.0093821 0.03799 0.044402 0.05772 0.055254 
-0.10521 -0.011827 0.020233 0.06183 0.069064 0.056076 0.19599 0.071037 
-0.31797 0.081889 -0.013965 0.081889 0.0592 0.073175 0.20816 0.049828 
-0.23444 0.074326 -0.037805 0.10524 0.064461 0.052952 0.16344 0.068242 
-0.063618 0.067091 -0.036489 0.088465 0.067091 0.039141 0.14075 0.0324 
-0.013143 0.08008 -0.0057439 0.076299 0.069393 0.046375 0.18728 0.018589 
-0.07266 0.09126 0.033715 0.097508 0.039634 0.044567 0.09685 0.017767 
-0.07003 0.05476 0.063803 0.048184 0.037004 0.025988 0.12792 0.024673 
0.11757 0.046868 0.071037 -0.0039354 0.0093821 0.025988 0.15259 0.064625 
0.36156 0.026152 0.06594 -0.01232 0.0023123 0.012506 0.15061 0.027139 
0.28954 0.070873 0.0069159 -0.03616 0.044238 -0.030242 0.099645 0.056569 
0.040128 0.11757 -0.019061 0.0075736 0.020069 0.0059294 0.062323 0.050814 
-0.23346 0.12431 0.0018191 0.010862 0.038977 0.032729 0.0051074 0.0592 
-0.43421 0.16558 0.0069159 0.041443 0.045718 0.025166 -0.068386 0.062652 
-0.42303 0.12825 0.051308 0.049335 0.013164 0.028454 -0.13464 0.012013 
-0.17558 -0.0013048 0.080902 0.014643 0.025166 0.029769 -0.097322 0.010369 
0.056898 -0.12889 0.093069 0.03947 0.030098 0.026974 -0.010841 0.014808 
0.18021 -0.096829 0.05065 0.042923 0.037497 0.029605 -0.028269 -0.0022913 
0.22509 -0.016266 0.021056 0.064132 0.060679 0.062159 0.0069159 0.023851 
0.18942 -0.0050863 0.012506 0.066105 0.053445 0.040456 -0.0064016 0.051472 
0.12875 0.058213 0.0026412 0.014643 0.020562 0.01711 -0.059507 0.052787 
-0.0068948 0.17117 0.015794 0.0041209 -0.010841 0.00099702 -0.074469 0.0060938 
-0.090417 0.22657 -0.0013048 0.02122 0.0032988 0.0039565 0.098823 0.0088889 
-0.10752 0.17676 0.026646 0.01826 0.012342 0.012999 0.19879 0.022206 
-0.061151 0.088958 0.074654 0.038483 0.0060938 0.0054362 0.14617 0.023851 
-0.017417 0.09274 0.073668 -0.014622 -0.0067304 0.012342 0.10376 0.029769 
0.068078 0.094548 0.10178 -0.048327 -0.011992 -0.0042642 0.19616 0.011848 
0.27064 0.048019 0.12464 -0.030077 -0.029748 0.0014903 0.26028 0.0065871 
0.36665 -0.043724 0.12135 -0.034845 -0.031064 0.017438 0.16738 -0.011992 
0.27425 0.028454 0.08419 0.0023123 0.036675 0.027303 0.023851 -0.040271 
0.15637 0.19928 0.030756 0.028947 0.057227 0.038155 -0.14599 -0.037476 
0.0689 0.30105 -0.022185 0.080902 0.10688 0.042594 -0.25023 0.016945 
-0.1136 0.26653 -0.067728 0.16853 0.12069 0.081724 -0.29363 0.082053 
-0.36137 0.16952 -0.084991 0.14404 0.12447 0.063474 -0.33293 0.074819 
-0.45213 0.048348 -0.035832 0.13088 0.12891 0.057391 -0.29889 0.086657 
-0.24793 -0.2545 0.018425 0.12168 0.073339 0.063803 -0.4033 0.036182 
0.065118 -0.48797 0.067256 0.097344 0.054925 0.024344 -0.39524 -0.015609 
0.20142 -0.30284 0.10211 0.10606 0.019576 -0.0096899 -0.1016 -0.014458 
0.11378 -0.035174 0.10935 0.027468 -0.0138 0.019247 0.26702 0.022864 
-0.012814 0.13631 0.10737 0.010697 -0.0042642 0.031414 0.47796 0.092904 
-0.088608 0.14141 0.1054 -0.022514 -0.011498 0.0054362 0.47681 0.10195 
0.063968 0.098001 0.070873 -0.10784 -0.048985 -0.023501 0.33361 0.01826 
0.33953 0.072353 -0.027611 -0.13053 -0.071509 -0.061645 0.15818 -0.044381 
0.48783 0.024508 -0.00064712 -0.076606 -0.081374 -0.047669 0.026317 -0.044052 
0.45116 -0.053095 0.061995 -0.047505 0.0083956 -0.0034422 -0.046847 -0.015116 
0.29546 -0.038791 0.08156 0.041278 0.05476 0.064625 -0.10965 0.041114 
-0.017253 0.061995 0.041772 0.043251 0.088136 0.067749 -0.15996 0.040785 
-0.36285 0.14848 0.0082312 0.068242 0.088301 0.077943 -0.19367 0.061995 
-0.40198 0.22509 -0.023007 0.076792 0.07449 0.067913 -0.2328 0.057884 
-0.10472 0.20109 0.0093821 0.069229 0.070051 0.050979 -0.24184 0.013328 
0.46547 0.066434 0.062652 0.069722 0.05476 0.017438 -0.18841 -0.016266 
0.68858 -0.027775 0.058871 0.016452 0.034373 -0.0016336 0.012999 -0.066248 
0.44639 -0.052273 0.074654 -0.014951 0.0093821 0.0032988 0.1664 -0.034681 
0.072681 -0.046683 0.0421 0.057227 0.047855 -0.0019624 0.19681 -0.016595 
-0.2083 -0.034681 -0.0098543 0.040128 0.06742 0.018589 0.11707 0.026974 
-0.49734 -0.035503 -0.040106 0.077449 0.05213 0.060844 0.025166 0.060515 
-0.63446 0.06183 -0.049149 0.076463 0.019083 0.030263 -0.11015 0.090109 
-0.48106 0.13121 -0.012156 0.039305 -0.0138 -0.012156 -0.16407 0.077943 
-0.21044 0.10819 0.070544 0.030592 -0.015773 -0.0047575 0.0028056 0.022371 
0.10145 0.017274 0.13368 0.0072447 -0.039942 -0.0096899 0.19813 0.021549 
0.37191 -0.043724 0.1373 -0.022021 0.020233 -0.010841 0.25995 0.024344 
0.43637 0.029441 0.031085 0.039963 0.040785 0.0090533 0.25123 0.022864 
0.27886 0.15489 -0.043888 0.069229 0.063968 0.06035 0.24121 0.069229 
0.041114 0.073504 -0.018733 0.053938 0.049828 0.058706 0.22164 0.047691 
-0.052602 0.01152 0.022206 -0.02794 0.021384 0.035853 0.14223 0.039141 
0.094713 0.021384 0.074326 -0.10341 -0.048163 0.021549 0.032893 0.0088889 
0.26406 0.01974 0.084848 -0.090088 -0.03912 0.0039565 -0.035832 0.0036276 
0.1784 0.087972 0.072681 -0.050464 0.0018191 -0.015116 -0.014458 0.033222 
0.0060938 0.18514 -0.015444 0.044238 0.04917 0.0324 -0.099953 0.030592 
-0.027282 0.2833 -0.073811 0.15111 0.08156 0.03947 -0.24135 0.04358 
-0.020541 0.26488 -0.069865 0.13615 0.098988 0.040785 -0.14615 0.039799 
-0.1159 0.15094 0.00017495 0.082382 0.067913 0.037661 0.16196 0.03092 
-0.13843 0.0067515 0.08008 -0.014951 -0.030899 0.0095465 0.34133 0.026152 
-0.11903 -0.042244 0.073339 -0.044381 -0.063453 -0.0011404 0.40184 0.0065871 
-0.03764 -0.060823 0.059035 -0.022679 -0.059178 0.013821 0.35005 0.0034632 
0.16492 -0.11113 0.11231 -0.019719 -0.02498 0.013164 0.19237 -0.010841 
0.25995 -0.1935 0.15916 -0.048492 -0.024158 -0.030899 0.050486 -0.0087034 
-0.0083746 -0.15207 0.1077 -0.070852 0.0090533 -0.030735 0.073668 0.021878 
-0.34213 0.082546 -0.038791 0.010533 0.062652 0.01415 0.11987 0.055747 
-0.41546 0.32259 -0.13925 0.10737 0.054925 0.024344 0.064296 0.086492 
-0.34789 0.50427 -0.14533 0.12398 0.023522 0.013986 0.00297 0.076134 
-0.17016 0.4704 -0.040928 0.080902 0.00083261 0.043909 -0.067892 0.080244 
0.13976 0.15127 0.067585 -0.0013048 -0.0075525 0.028125 -0.15898 0.060022 
0.55524 -0.20797 0.19418 -0.056877 0.012835 -0.0026201 -0.24283 0.0060938 
0.73987 -0.30268 0.13631 -0.020541 0.033222 0.0075736 -0.24727 -0.00081153 
0.52433 -0.21093 0.019083 0.063968 0.10113 0.045882 -0.036983 -0.019226 
0.083368 -0.050464 -0.058028 0.077285 0.13236 0.070215 0.22871 0.025988 
-0.18495 -0.028269 -0.05326 0.12381 0.088958 0.0592 0.32243 0.028125 
-0.18693 -0.0503 0.04917 0.059693 0.028783 0.069393 0.28626 0.035688 
-0.13991 0.0070803 0.12184 -0.0021268 -0.0011404 0.052787 0.28099 0.064625 
-0.046025 0.088301 0.14404 -0.035338 -0.021856 0.0067515 0.17544 0.048513 
0.082382 0.1077 0.12135 -0.051944 -0.019555 0.0011614 0.096028 0.072517 
0.19517 0.055747 0.071531 0.015137 0.005765 0.0087245 0.010204 0.054596 
0.17034 0.018918 0.044402 0.02681 0.020233 0.020069 -0.0073881 0.065612 
0.051472 0.10425 -0.031886 0.032236 0.0047785 0.017438 0.025166 0.06479 
-0.10768 0.23726 -0.096336 0.046868 -0.010676 0.013986 0.050321 0.016288 
-0.13711 0.22674 -0.11837 0.037004 -0.017253 -0.020212 0.019083 0.0080668 
-0.041257 0.10672 -0.031064 0.053445 0.015959 -0.012156 -0.075127 -0.0060728 
0.11 -0.11508 0.11559 -0.0082102 0.036839 0.0041209 -0.087129 -0.027775 
0.16426 -0.22507 0.14157 -0.0044286 0.070544 0.021056 -0.10061 0.023686 
0.1955 -0.17164 0.10754 0.053938 0.12217 0.045882 -0.11393 0.035853 
0.20208 -0.07414 0.021878 0.099316 0.14371 0.075805 -0.030735 0.058213 
0.25271 -0.032215 -0.033037 0.12266 0.12201 0.066105 0.062159 0.065118 
0.24564 0.04095 -0.061809 0.11132 0.066763 0.046704 0.0087245 0.073175 
0.10803 0.073504 -0.045532 0.039305 0.015137 0.031578 -0.097651 0.054432 
-0.037969 0.094055 -0.0019624 0.030263 -0.018075 0.021878 -0.14566 0.023028 
-0.15931 0.047691 0.084355 -0.023336 -0.066413 -0.010512 -0.1473 0.016616 
-0.13185 0.035853 0.11099 -0.05737 -0.055068 -0.031392 -0.20386 0.00099702 
-0.064604 0.1271 0.079422 0.0016547 -0.038791 0.0023123 -0.31254 -0.0059084 
-0.10998 0.21194 0.039799 0.015465 -0.020048 0.0042853 -0.24382 0.012342 
-0.098967 0.18678 0.066763 0.040292 0.014808 0.023686 0.10162 0.026974 
0.010204 0.053445 0.086821 0.0028056 0.055089 0.041772 0.28691 0.039963 
0.17692 -0.0054151 0.095864 0.024179 0.090931 0.047197 0.11937 0.042594 
0.24236 0.022371 0.044567 0.093726 0.1179 0.061666 0.030756 0.051636 
0.11954 0.049664 -0.023007 0.11773 0.077943 0.0786 0.17791 0.06594 
-0.045039 0.020562 -0.035338 0.092904 0.069886 0.049499 0.2463 0.025495 
-0.06855 -0.006566 0.014479 0.082053 0.05624 0.029112 0.15209 0.020398 
-0.025145 0.012342 0.015794 0.015794 0.042429 0.0026412 0.064296 0.0042853 
0.088136 0.068407 -0.020541 0.02122 0.028454 0.02122 0.085999 0.038319 
0.13697 0.098988 -0.062302 0.028454 0.027139 0.020398 0.10984 0.048348 
0.035853 -0.0032777 -0.082854 0.049006 0.031578 0.031907 0.053938 0.05624 
-0.091732 -0.14977 -0.042573 0.064296 0.023028 0.050979 -0.043559 0.055418 
-0.12922 -0.092883 0.017603 0.022535 0.013821 0.048513 -0.20386 0.0016547 
-0.15569 0.085835 0.044896 0.00033937 0.005765 -0.0070593 -0.29215 -0.037147 
-0.17953 0.2417 0.063474 -0.026624 -0.037969 -0.008539 -0.2647 -0.031886 
-0.20912 0.30911 0.054596 -0.00081153 -0.036489 -0.0014692 -0.15848 -0.029091 
-0.33178 0.27228 0.067091 0.029441 0.018425 0.024344 -0.086636 0.013164 
-0.25713 0.12858 0.1248 -0.026296 0.039305 0.031742 -0.056055 0.017767 
0.13615 -0.021692 0.13467 0.0019835 0.064625 0.022042 -0.10143 0.015794 
0.4653 -0.086964 0.0227 0.066434 0.092904 -0.0049219 -0.012485 -0.014622 
0.52482 -0.071674 -0.11722 0.078929 0.069393 0.026974 0.056404 0.039634 
0.33624 0.017438 -0.15141 0.08567 0.030592 0.041114 0.17774 0.073997 
0.097672 0.039141 -0.072003 -0.0072237 -0.033859 0.018754 0.2052 0.051308 
-0.16243 -0.064768 0.045553 -0.039778 -0.075949 -0.0054151 0.19632 0.03092 
-0.28459 -0.088115 0.098494 -0.064275 -0.084663 -0.026296 0.13138 0.00297 
-0.2014 0.023686 0.15966 -0.092719 -0.042737 -0.010019 0.072024 0.0092177 
-0.017417 0.15456 0.19122 -0.034023 0.019905 0.0075736 0.022371 0.024344 
0.044731 0.21572 0.15357 0.049006 0.1128 0.041607 0.034044 0.038648 
-0.064933 0.26291 0.01826 0.15456 0.17659 0.10951 0.087643 0.098001 
-0.15947 0.14486 0.0031344 0.19583 0.15061 0.097508 0.15456 0.090767 
-0.0091966 -0.056548 0.0083956 0.16837 0.12283 0.062652 0.17199 0.076956 
0.14864 -0.18874 0.0072447 0.12414 0.069393 0.037332 0.17889 0.047197 
0.10244 -0.22376 -0.021528 0.058871 0.02533 0.026974 0.23298 0.030263 
0.040128 -0.31484 -0.013471 -0.028762 -0.028762 -0.015116 0.28724 0.0019835 
0.069393 -0.38866 0.04358 -0.034188 -0.063124 -0.023994 0.31684 -0.030077 
0.044896 -0.20995 0.045882 -0.067564 -0.060987 -0.026789 0.2879 -0.0072237 
-0.069372 0.14815 -0.026953 0.0031344 -0.016924 0.0039565 0.21523 0.014972 
-0.22326 0.44919 -0.056548 0.055747 0.036182 0.04506 0.1225 0.04654 
-0.32668 0.48766 -0.040764 0.043251 0.068736 0.080409 -0.0014692 0.08419 
-0.21044 0.26718 -0.0091966 0.043251 0.089945 0.087314 -0.17279 0.069722 
0.1784 0.016288 0.093891 0.0016547 0.065118 0.027961 -0.41497 0.038977 
0.55425 -0.1205 0.18415 -0.06855 -0.0095255 -0.0088678 -0.72768 -0.027775 
0.58204 -0.18709 0.18596 -0.034845 -0.029091 -0.040106 -0.87829 -0.029913 
0.34331 -0.17871 0.11642 0.00297 -0.047998 -0.0040998 -0.53828 0.026646 
0.12677 0.016123 -0.019719 0.069393 -0.0034422 0.035031 -0.064111 0.016781 
-0.055397 0.1835 -0.096665 0.10145 0.020562 0.073175 0.37783 0.025495 
-0.20682 0.25847 -0.0075525 0.046375 0.028619 0.037661 0.71011 0.0090533 
-0.12231 0.19714 0.14272 -0.013471 0.022206 -0.0011404 0.74366 0.013821 
0.07449 0.05624 0.22411 -0.093376 -0.00015387 -0.010512 0.48059 0.033715 
0.14798 -0.057205 0.22213 -0.12182 -0.023336 -0.038791 0.17412 0.0324 
0.13171 -0.0004827 0.11329 -0.033365 -0.014787 -0.0047575 0.14519 0.060844 
0.069229 0.041936 0.01004 0.055089 0.022864 0.052294 0.20734 0.059693 
0.026481 -0.061151 0.015959 0.11263 0.049664 0.059857 0.12299 0.034044 
0.016452 -0.095843 0.042429 0.10836 0.082382 0.036839 0.030427 0.048348 
0.064132 -0.046847 0.068571 0.072024 0.11198 0.059528 -0.036654 0.069064 
0.00083261 0.065447 -0.021856 0.10228 0.11099 0.10984 0.04095 0.078272 
0.0047785 0.079094 -0.053424 0.11362 0.10902 0.079916 0.054103 0.079094 
0.13779 0.085835 -0.070523 0.10293 0.075476 0.060022 -0.063124 0.055418 
0.21194 0.13269 -0.055397 0.078436 0.027961 0.04917 -0.19054 0.00083261 
0.16722 0.20191 -0.016102 0.0069159 -0.016266 -0.0013048 -0.25763 -0.012814 
0.12414 0.26603 0.015137 -0.057534 -0.053588 -0.0091966 -0.33276 -0.014951 
0.081231 0.2537 0.019576 -0.077593 -0.038462 -0.019555 -0.29051 -0.04619 
-0.02942 0.23266 0.012342 -0.1358 -0.03764 -0.031886 -0.16588 -0.053753 
-0.15141 0.22674 0.040621 -0.012649 -0.0082102 -0.0032777 0.060022 -0.0059084 
-0.13086 0.15818 0.048677 0.030756 0.0044497 0.025001 0.23512 0.051965 
-0.053753 0.10852 0.059364 0.041443 -0.0044286 0.029441 0.19764 0.070873 
0.12184 0.12332 0.060844 -0.032872 -0.045532 -0.020048 0.04358 0.0047785 
0.38885 0.0023123 0.10819 -0.11393 -0.059343 -0.056055 -0.099295 -0.030406 
0.39214 -0.14566 0.10507 -0.050136 0.0047785 -0.01676 -0.06707 -0.0070593 
0.11658 -0.13103 0.081889 -0.0031133 0.080409 0.044073 0.061666 0.048513 
-0.18068 -0.03353 -0.0029489 0.060844 0.14979 0.08304 0.14223 0.095864 
-0.3127 0.044073 -0.068221 0.15883 0.16229 0.12464 0.11576 0.069064 
-0.30514 0.10474 -0.098638 0.17297 0.11658 0.091918 0.0324 0.049006 
-0.19893 0.071202 -0.066741 0.13039 0.064132 0.052787 -0.014458 0.010862 
-0.09387 0.097344 -0.054082 0.11477 0.044402 0.021878 -0.0068948 0.0026412 
-0.042737 0.24926 -0.088444 0.10951 0.028947 0.0067515 -0.0057439 0.041443 
-0.11163 0.36419 -0.086142 0.13532 0.027796 -0.013471 0.0070803 0.0421 
-0.11853 0.36994 -0.003771 0.0034632 -0.0087034 -0.040106 0.035031 0.035853 
0.10573 0.32506 0.13056 -0.10028 -0.063453 -0.05178 -0.047505 -0.036654 
0.43883 0.19024 0.25337 -0.2009 -0.089595 -0.069043 -0.084005 -0.0965 
0.47846 0.13565 0.20717 -0.26157 -0.086142 -0.083512 -0.016595 -0.059178 
0.2223 0.16886 0.014315 -0.14648 -0.04471 -0.014622 0.13762 -0.014951 
0.20849 -0.010512 -0.05178 -0.031228 0.012999 0.0079024 0.11757 0.036675 
0.26735 -0.19515 -0.019884 0.080409 0.10902 0.069393 0.073997 0.064625 
0.088136 -0.25368 -0.044052 0.1858 0.15111 0.12003 0.17939 0.10606 
-0.24118 -0.29314 -0.033859 0.21062 0.20043 0.17001 0.32358 0.15867 
-0.37633 -0.39376 0.0013258 0.21852 0.17084 0.12513 0.27475 0.12414 
-0.25647 -0.37798 0.027632 0.17199 0.09981 0.06742 0.19484 0.0786 
-0.13662 -0.28064 0.0036276 0.09422 0.055089 0.039305 0.23578 0.020069 
-0.063289 -0.18084 -0.012978 0.069229 0.014315 -0.00081153 0.25222 0.0054362 
0.057062 -0.05885 0.0044497 -0.017088 -0.03353 -0.019555 0.17034 0.007738 
0.43587 0.089945 0.0072447 -0.029255 -0.042244 -0.008539 0.088136 1.0539e-005 
0.71636 0.21737 0.00033937 -0.010841 -0.021692 0.012177 0.017603 -0.0073881 
0.56247 0.25123 -0.0031133 -0.0032777 -0.013471 -0.0060728 -0.086142 0.011191 
0.0069159 0.29744 0.043745 0.026481 -0.053588 -0.0042642 -0.13168 0.0064227 
-0.47136 0.40233 0.074819 -0.014787 -0.027447 -0.00064712 -0.22573 0.013986 
-0.79082 0.34561 0.086328 0.014315 0.026317 -0.0087034 -0.39836 0.01711 
-0.80907 0.25567 0.020727 0.050486 0.040292 0.02533 -0.47514 0.029112 
-0.50425 0.13976 -0.030406 0.026974 0.070051 0.0324 -0.24776 0.019247 
-0.19679 0.0018191 0.0060938 0.043909 0.055089 0.029276 0.12825 0.044567 
-0.0067304 -0.089595 0.037826 0.053116 0.021056 0.022371 0.33426 0.029112 
0.065612 -0.10554 0.03388 0.030427 0.042594 0.037332 0.40167 0.034044 
0.22657 -0.093541 0.01004 0.061008 -0.0022913 0.020891 0.28576 0.038977 
0.20849 -0.011827 0.0093821 0.044896 -0.013965 0.016616 0.1493 0.029276 
0.26735 0.038319 0.032564 0.041607 -0.016102 0.024344 0.084026 0.021878 
0.46119 -0.13086 0.091589 0.047362 0.039963 0.029769 0.055089 0.026317 
0.43702 -0.31681 0.17445 0.020233 0.083862 0.03536 -0.033859 0.067256 
0.23134 -0.22688 0.15505 0.044731 0.11428 0.01974 -0.12626 0.12908 
0.1174 -0.07414 0.062159 0.11855 0.11773 0.052623 -0.15668 0.089616 
-0.020048 -0.017746 -0.0049219 0.16245 0.08304 0.032564 -0.048163 0.072188 
-0.21981 0.0031344 -0.041422 0.15275 0.05624 0.026317 0.079258 0.04095 
-0.32405 -0.027447 -0.044381 0.11806 0.0036276 0.044073 0.0092177 0.0090533 
-0.20551 -0.073647 0.019083 0.035524 -0.022185 0.022042 -0.10637 0.0069159 
-0.067892 -0.088608 0.062817 -0.051287 -0.052109 -0.025638 -0.066413 -0.0036066 
-0.038627 -0.11491 0.080573 -0.12462 -0.023501 -0.010676 0.082217 -0.010676 
0.022864 -0.37584 0.16459 -0.096665 -0.024158 -0.011992 0.17708 0.0028056 
0.1202 -0.44769 0.16903 -0.12067 0.00017495 -0.0049219 0.18465 0.0026412 
0.14256 -0.1667 0.10918 -0.074469 -0.0027845 0.0074092 0.10655 -0.017417 
0.12497 0.13187 0.029441 0.0019835 -0.015116 0.0062583 -0.11179 -0.055561 
0.14782 0.30829 0.02122 0.0072447 -0.0036066 0.02681 -0.27653 -0.041915 
0.14897 0.48931 -0.014458 0.075148 0.0087245 0.028783 -0.3132 -0.046683 
0.097837 0.48931 -0.041751 0.10918 0.014808 0.0062583 -0.31024 -0.051287 
-0.0080457 0.40299 -0.054904 0.050814 -0.016924 -0.047176 -0.36301 -0.036654 
-0.20041 0.32604 -0.0049219 0.031907 -0.018239 -0.040764 -0.42056 0.010204 
-0.25927 0.18909 0.058871 -0.0087034 -0.015938 0.01711 -0.47909 0.045882 
-0.13727 0.08304 0.10556 0.020233 0.040128 0.027632 -0.10949 0.046046 
0.050321 0.030756 0.1054 0.053774 0.093233 0.058049 0.32736 0.084355 
0.24186 0.054925 0.055582 0.064625 0.1396 0.091096 0.54373 0.13434 
0.19566 0.14042 -0.019555 0.12102 0.17297 0.12332 0.61114 0.15472 
0.043251 0.16656 -0.016595 0.098823 0.13861 0.085341 0.53797 0.12694 
-0.031721 0.15292 0.046375 0.044073 0.082546 0.073504 0.4122 0.079916 
-0.044052 0.14009 0.046704 0.023851 -0.012978 0.045882 0.30944 0.039963 
-0.087622 0.23742 -0.0044286 -0.0095255 -0.047834 -0.0027845 0.27623 -0.0027845 
-0.091568 0.20947 -0.00031829 -0.058356 -0.055232 -0.022843 0.13664 -0.017911 
-0.010512 0.058542 0.014972 -0.025638 -0.050629 -0.038462 -0.029255 -0.015773 
0.096521 -0.22918 0.067256 0.00017495 -0.022843 -0.009361 -0.20879 -0.03912 
0.13187 -0.35249 0.018096 0.063968 0.027139 -0.010512 -0.25286 -0.0060728 
0.052459 -0.3857 0.025659 0.018918 0.048184 0.0039565 -0.30284 0.012342 
0.010533 -0.25532 0.048348 0.060844 0.062159 0.034702 -0.49866 0.022042 
0.16886 -0.12626 0.068736 0.057555 0.096028 0.035853 -0.64827 0.02533 
0.4122 -0.047505 0.081395 0.0019835 0.043416 0.023028 -0.40609 0.011684 
0.41548 0.074819 0.064132 -0.088115 -0.048656 0.012506 -0.040271 -0.001798 
0.16278 0.20931 0.097015 -0.16654 -0.048656 -0.023172 0.26768 -0.024487 
-0.059507 0.39312 0.093891 -0.16506 -0.029584 -0.025145 0.35695 -0.0034422 
-0.083512 0.72442 0.0044497 -0.042244 0.0032988 -0.0078813 0.33361 0.021384 
0.074654 0.92879 -0.11787 0.087479 0.0039565 0.0059294 0.45083 0.032236 
0.037661 0.83803 -0.17591 0.18974 0.040292 0.050979 0.59815 0.086492 
-0.08121 0.43538 -0.069043 0.171 0.019576 0.052459 0.57562 0.078436 
0.12661 -0.083183 0.17412 0.041607 0.022371 0.043251 0.3313 0.044896 
0.47336 -0.45098 0.28067 -0.030899 0.033058 0.019576 0.070051 0.015465 
0.47599 -0.54782 0.19912 0.014643 0.068736 0.045718 -0.048327 0.070215 
0.25535 -0.39491 0.018425 0.097672 0.097672 0.0786 -0.12462 0.11346 
0.32276 -0.27061 -0.063618 0.10556 0.070544 0.048184 -0.14007 0.067749 
0.83606 -0.54519 -0.017746 -0.0027845 -0.003771 0.0042853 -0.24168 0.012013 
0.90495 -0.78852 0.10244 -0.13053 -0.037147 -0.023501 -0.35595 -0.0052507 
0.35547 -0.63907 0.15456 -0.11919 -0.0091966 -0.038956 -0.40083 -0.032215 
-0.32471 -0.23527 0.059364 0.0021479 0.054103 -0.014458 -0.30284 0.0065871 
-0.81433 0.15111 -0.033694 0.20635 0.10639 0.049335 -0.028433 0.05772 
-1.3825 0.48322 -0.053095 0.15768 0.10639 0.073668 0.31207 0.13647 
-1.4552 0.74678 -0.0062372 0.075312 0.095371 0.07301 0.46152 0.12398 
-0.79756 0.73182 -0.02646 0.03947 0.074161 0.052294 0.40266 0.080902 
-0.011992 0.256 -0.037147 -0.017088 0.031414 0.046375 0.25913 0.051308 
0.52614 -0.37962 -0.020212 0.0083956 0.027961 0.034866 0.097672 0.0079024 
0.84773 -0.5687 0.02122 -0.0067304 -0.022514 0.0011614 -0.048327 -0.035667 
0.83819 -0.25631 0.079587 -0.037805 -0.042408 -0.0072237 -0.11837 -0.062138 
0.54093 0.012999 0.10293 -0.01232 -0.012978 -0.01117 -0.071509 -0.026953 
0.26866 0.15801 0.089287 0.0056006 0.062652 0.016452 -0.00097594 0.026317 
0.12085 0.17018 0.055747 0.059528 0.093726 0.054596 0.049828 0.04095 
0.065283 0.21885 0.061337 0.1054 0.091753 0.055418 0.078272 0.061008 
0.0062583 0.33476 0.0032988 0.084848 0.073504 0.036675 0.072024 0.055582 
-0.13448 0.52515 -0.034681 0.08863 0.032729 0.025988 0.090603 0.043087 
-0.22672 0.65767 -0.033037 0.0074092 -0.006566 0.05476 0.12612 0.050814 
-0.19663 0.64879 0.016781 0.0014903 -0.018733 0.014315 0.16656 0.0421 
-0.16539 0.44426 0.11921 0.020398 0.016123 -0.011005 0.11905 0.01563 
-0.14615 0.0046141 0.13582 -0.052931 -0.016924 -0.0070593 0.098659 -0.031064 
-0.090253 -0.51756 0.070873 -0.014458 -0.021199 -0.035338 0.046868 -0.025638 
-0.033694 -0.94931 0.014643 0.03947 0.026317 0.021056 -0.094692 -0.011827 
0.019083 -0.94142 0.0016547 0.078765 0.047691 0.041278 -0.18775 -0.024487 
-0.0075525 -0.69529 -0.029091 0.099152 0.061337 0.029441 -0.095349 0.00066819 
-0.08121 -0.41924 -0.015116 0.04917 0.044073 0.007738 -0.0096899 -0.0049219 
-0.17986 -0.20419 -0.0054151 0.037661 0.0016547 -0.0072237 0.009711 0.025166 
-0.23822 0.027468 0.017274 0.019247 -0.009361 -0.0083746 -0.063453 0.044731 
-0.12379 0.084848 0.07301 -0.03912 -0.015773 -0.0075525 -0.13826 0.034702 
0.085999 0.078765 0.11115 -0.02498 0.018425 0.011026 -0.075291 0.043745 
0.16804 0.29875 0.069558 -0.0070593 0.059035 0.042923 0.00066819 0.049006 
0.014643 0.70765 -0.062467 0.095535 0.090931 0.058542 0.11033 0.10178 
-0.37633 1.0529 -0.23033 0.22016 0.093233 0.078272 0.26965 0.17955 
-0.59911 1.0773 -0.2397 0.18909 0.087808 0.086163 0.42124 0.1322 
-0.34115 0.58056 0.027303 0.0042853 -0.030899 -0.022679 0.3022 0.03651 
0.49144 -0.003771 0.30483 -0.15931 -0.07414 -0.057699 0.10425 -0.064275 
1.2014 -0.45854 0.32719 -0.17295 -0.056383 -0.060329 -0.020541 -0.069372 
1.1231 -0.79213 0.21737 -0.0406 0.00033937 0.00017495 -0.070523 -0.035832 
0.38573 -0.87418 -0.010183 0.049006 0.054103 0.041114 -0.17904 0.014315 
-0.44489 -0.52332 -0.10653 0.12217 0.095206 0.081231 -0.16079 0.076463 
-1.0115 0.10195 -0.12067 0.14469 0.10228 0.09981 0.070708 0.083862 
-1.1811 0.65093 -0.12314 0.14157 0.081067 0.075805 0.27261 0.11806 
-0.83225 0.81896 -0.11031 0.14864 0.049664 0.066598 0.26521 0.08715 
-0.21455 0.67427 -0.04882 0.063968 0.024673 0.057884 0.064132 0.058542 
0.27836 0.48043 0.018425 -0.017746 -0.035174 0.0056006 -0.094527 0.0095465 
0.48405 0.3946 0.049828 -0.0406 -0.057863 -0.021528 -0.088115 -0.023829 
0.44245 0.27836 0.088301 -0.069865 -0.045861 -0.023665 -0.011992 -0.014293 
0.32621 0.14585 0.059693 -0.066741 -0.038462 -0.015773 -0.0062372 -0.021692 
0.17133 0.061501 0.061501 -0.043724 -0.028762 -0.026296 -0.11524 -0.0078813 
0.098988 -0.040764 0.04506 -0.027611 -0.0080457 -0.03205 -0.38406 0.021384 
0.20438 -0.17131 0.040292 0.056569 0.010533 0.037168 -0.39146 0.037168 
0.4505 -0.26223 0.04358 0.062817 0.033387 0.031907 0.063145 0.06035 
0.48322 -0.22754 0.058049 0.069064 0.027139 0.040621 0.3438 0.038648 
0.25041 -0.11015 0.04654 0.085341 0.020727 0.040621 0.3683 0.02681 
-0.025802 0.080902 0.047033 0.03536 0.039963 0.036346 0.2246 0.0421 
-0.2836 0.15292 0.060844 0.072024 0.068407 0.026974 0.046375 0.049006 
-0.42747 0.1008 0.023357 0.040128 0.076956 0.033222 -0.20501 0.047033 
-0.39277 0.08304 0.0064227 0.061008 0.069064 0.045224 -0.34098 0.0098754 
-0.27834 0.23858 -0.028762 0.060186 0.041772 0.012835 -0.21192 0.014315 
-0.15076 0.33509 -0.075949 0.039963 0.040292 -0.0027845 -0.088444 0.016781 
0.004943 0.29875 -0.045368 0.049335 0.019083 0.035524 -0.11787 0.013492 
0.19353 0.18103 0.058871 0.030098 0.033551 0.024015 -0.24151 0.017603 
0.32407 -0.054739 0.10507 -0.006566 0.0085601 0.012177 -0.23428 0.005765 
0.35235 -0.23625 0.18514 -0.0039354 0.022206 0.0227 -0.0044286 0.0090533 
0.28478 -0.19893 0.16262 -0.055397 0.0023123 0.0056006 0.091753 -0.027447 
0.15768 -0.025309 0.064625 -0.035667 -0.014129 -0.021692 0.13187 -0.024487 
0.11674 0.13088 -0.086307 0.016288 0.03388 -0.0062372 0.1008 0.027139 
0.03947 0.24186 -0.13399 0.091589 0.074983 0.049335 0.14683 0.040292 
0.045553 0.26948 -0.080223 0.13138 0.082546 0.073997 0.17314 0.071695 
0.25156 0.21178 0.0088889 0.079258 0.053281 0.062981 0.20569 0.046375 
0.24071 0.17363 0.10787 -0.014951 0.018754 0.038977 0.25173 0.045553 
0.019411 0.1539 0.16377 -0.035174 -0.01232 -0.027611 0.28971 0.013657 
-0.1769 0.054267 0.17215 -0.081045 -0.052273 -0.073318 0.23512 -0.034845 
-0.40872 0.044238 0.067091 -0.069701 -0.034681 -0.030899 0.14469 -0.027775 
-0.57577 0.11378 -0.047012 -0.038956 -0.011827 -0.01676 0.043416 0.031578 
-0.48221 -0.0027845 -0.031886 -0.072003 -0.0055795 -0.020541 0.04506 0.046211 
-0.22228 -0.33112 0.081889 -0.050958 0.016781 0.010697 0.053281 0.064461 
0.035524 -0.5391 0.092082 -0.02942 0.055911 0.055254 -0.060329 0.033058 
0.25074 -0.47514 0.021713 0.095535 0.10343 0.1031 -0.35841 0.025495 
0.35498 -0.22343 -0.050464 0.20191 0.11576 0.10787 -0.47284 -0.036818 
0.30582 0.0016547 -0.026953 0.19205 0.10293 0.066927 -0.1575 -0.016924 
0.24762 0.093726 0.033222 0.093726 0.085506 -0.011992 0.20438 0.040456 
0.25091 0.16212 0.052787 0.014808 0.021384 -0.042573 0.42551 0.036017 
0.22624 0.23858 0.076134 -0.024487 -0.020706 -0.035832 0.39954 0.018096 
0.22937 0.26521 0.062981 -0.010512 -0.006566 -0.02794 0.27277 -0.030242 
0.23216 0.24022 0.058049 -0.033694 0.0044497 0.00033937 0.1008 -0.035174 
0.055747 0.17149 0.046868 -0.020706 -0.0029489 0.0021479 -0.091075 -0.00031829 
-0.19005 0.14502 0.0227 -0.00015387 0.0039565 0.02829 -0.16375 0.036346 
-0.21734 0.058542 -0.0090322 0.010369 0.014643 0.042594 -0.11919 0.065118 
-0.034023 -0.066248 0.033551 0.031414 0.043416 0.044073 -0.0503 0.065776 
0.028619 -0.2693 0.089452 -0.0052507 0.03536 0.043909 -0.16901 0.051308 
0.065118 -0.35726 0.11658 -0.012649 0.022206 0.010533 -0.41711 0.030592 
0.24778 -0.30383 0.098166 -0.025474 0.0031344 -0.038627 -0.86234 -0.017088 
0.37109 -0.31073 0.11773 -0.035996 0.027961 0.0054362 -0.93419 -0.017253 
0.32933 -0.41563 0.11148 -0.0014692 0.037826 0.0070803 -0.44752 -0.004593 
0.27754 -0.40576 0.068078 0.034209 0.044402 0.03092 0.24581 0.030756 
0.1544 -0.30876 0.0082312 0.056733 0.057391 0.014315 0.68578 0.059035 
0.0011614 -0.11294 0.0028056 0.090109 0.051472 0.057555 0.78772 0.074161 
-0.038791 0.17906 0.010533 0.030427 0.062981 0.042923 0.7213 0.13335 
-0.10176 0.32456 -0.033365 0.027139 0.056569 0.038648 0.49917 0.068407 
-0.064933 0.25584 -0.045696 0.053445 0.022535 0.065776 0.25074 0.05624 
0.11625 -0.028104 0.01267 0.039963 0.015137 0.015794 0.014808 0.030427 
0.0065871 -0.091568 0.050157 0.026974 -0.011663 -0.020541 -0.091404 0.015465 
-0.22557 0.18087 0.038648 0.010533 0.02122 0.015137 -0.11903 0.020891 
-0.33063 0.47023 0.0031344 0.039634 0.044896 0.042265 -0.10669 0.049664 
-0.18315 0.51742 -0.016924 0.10145 0.086985 0.032564 -0.09946 0.052459 
0.17988 0.36863 0.036839 0.052294 0.099152 0.024344 -0.14977 0.032071 
0.39707 0.12908 0.080573 0.025659 0.065612 0.025495 -0.19909 0.051143 
0.34561 -0.12198 0.11214 -0.013307 0.047197 0.010369 -0.17805 0.07597 
0.20158 -0.2813 0.13697 -0.039942 0.01563 -0.0070593 -0.13744 0.058377 
0.20027 -0.28771 0.080244 -0.010841 -0.020048 -0.0047575 -0.11722 0.050321 
0.51167 -0.14254 0.0060938 -0.020212 -0.044381 -0.017088 -0.05589 -0.0039354 
0.79035 -0.049314 -0.02646 0.029441 -0.015116 0.013821 -0.021034 0.01152 
0.65438 -0.05178 -0.058521 0.083204 0.04095 0.048019 0.022535 0.01004 
0.18054 0.03651 -0.039942 0.12266 0.058377 0.047033 -0.003771 0.0031344 
-0.43552 0.18366 -0.01528 0.13878 0.038319 0.032236 -0.0024557 -0.018568 
-1.1287 0.1761 0.055747 0.088794 0.041936 0.039141 0.054925 0.0069159 
-1.4138 0.095042 0.076627 0.071859 0.048841 0.075312 0.12858 0.043087 
-0.93254 0.064461 0.058377 0.078929 0.051965 0.048184 0.16574 0.033387 
-0.13875 0.018096 0.049664 -0.0021268 0.0227 0.016781 0.17084 0.0026412 
0.36534 0.072517 0.027303 -0.053917 -0.0034422 0.00050378 0.19583 0.022535 
0.48635 0.02681 0.018754 -0.018568 -0.011663 -0.0014692 0.2657 0.015137 
0.36517 -0.11952 0.0070803 0.030592 0.02122 0.02533 0.3313 0.060679 
0.19616 -0.025309 -0.0036066 0.081395 0.0082312 0.064132 0.35153 0.10408 
0.079422 0.060679 -0.027447 0.027796 -0.040106 0.044238 0.35498 0.088794 
0.070544 0.01152 -0.010019 0.0031344 -0.079072 0.026646 0.28987 0.087643 
0.051636 0.030098 0.066763 -0.02942 -0.059836 -0.00097594 0.21605 0.037497 
-0.040435 0.19649 0.12497 -0.06444 -0.02235 -0.018404 0.22098 0.030592 
-0.11097 0.31618 0.088794 -0.016102 0.047197 0.018425 0.19139 0.031578 
-0.11787 0.30862 0.004943 0.06479 0.12595 0.053116 0.22197 0.068242 
-0.038627 0.20602 -0.086142 0.14091 0.13023 0.11231 0.15587 0.10145 
0.14075 0.091589 -0.081539 0.21293 0.13582 0.096028 0.072846 0.081724 
0.14502 -0.0050863 0.0095465 0.14108 0.083862 0.062323 0.090767 0.070873 
0.017274 -0.016102 0.056404 0.02681 0.013164 0.060515 0.15637 0.043251 
-0.14303 0.079258 0.066434 -0.040435 -0.024323 0.026317 0.058377 -0.0083746 
-0.24842 0.11872 0.03799 -0.039778 -0.042737 -0.021528 -0.27752 -0.040271 
-0.26765 0.13993 0.023357 0.012835 -0.019884 -0.0095255 -0.50342 -0.045368 
-0.16769 0.10014 0.016616 0.020398 -0.00015387 0.0037921 -0.30514 -0.015609 
-0.043888 0.034209 0.056898 0.037004 0.014315 0.012177 0.17034 0.024837 
-0.039613 0.021384 0.029769 0.053609 0.0036276 -0.0034422 0.47352 0.027961 
-0.17082 0.090603 0.060022 0.06742 0.012835 0.029112 0.49144 0.057062 
-0.21652 0.096028 0.022864 0.062488 -0.0052507 0.034702 0.36928 0.04358 
0.03388 0.052294 0.024673 0.035524 -0.018404 0.014315 0.16903 0.037826 
0.19566 0.088958 0.0083956 -0.0049219 -0.02498 0.0024767 -0.02498 -0.011827 
0.12266 0.0786 0.040128 -0.0024557 0.015137 0.0056006 -0.074633 -0.035996 
0.012342 -0.07825 0.09422 -0.07825 0.0039565 0.012177 -0.086307 -0.062467 
0.062323 -0.071016 0.09126 -0.076442 0.019905 0.031249 -0.13662 -0.066741 
0.26537 0.2001 0.06479 -0.056548 -0.015773 0.0041209 -0.21784 -0.042573 
0.39049 0.37422 0.03651 -0.053753 0.030098 -0.001798 -0.19416 -0.030242 
0.19369 0.39658 0.034373 0.067256 0.06742 0.017438 -0.050958 0.012177 
0.021384 0.3484 0.027468 0.094877 0.07597 0.055911 -0.036489 0.060679 
-0.02942 0.23742 0.010204 0.092247 0.059693 0.033387 -0.056383 0.082053 
-0.066906 0.12233 -0.0096899 0.092247 0.025988 0.029769 -0.0019624 0.12414 
-0.082361 0.13121 -0.079566 0.084519 0.015794 0.072517 0.030263 0.14042 
-0.050464 0.078436 -0.074798 0.078929 0.034044 0.055089 -0.026131 0.13664 
0.0028056 0.016452 -0.026953 0.058377 0.021056 0.0031344 -0.10176 0.097179 
0.068078 -0.011827 0.077614 -0.019884 0.0046141 0.0088889 -0.11393 -0.0040998 
0.11181 -0.073154 0.11757 -0.014129 0.0039565 -0.0049219 -0.051451 -0.084498 
0.098659 -0.085813 0.086328 -0.0019624 0.038155 -0.0070593 -0.0047575 -0.11163 
0.12628 -0.0068948 0.033715 0.037332 0.060515 0.0052718 0.023686 -0.065426 
0.17396 0.094055 -0.0049219 0.070051 0.047197 0.031414 0.060022 -0.017417 
0.26357 0.11083 0.0079024 0.040128 0.040785 0.020562 0.048019 0.041114 
0.25518 0.12118 0.019411 0.019905 -0.0050863 0.0069159 0.087314 0.087972 
0.12957 0.13138 0.034537 -0.0138 0.0052718 0.031414 0.10721 0.085341 
0.0324 0.13483 0.03651 -0.011498 -0.0013048 0.026481 0.055911 0.09422 
-0.012649 0.1368 0.033387 -0.013307 -0.0013048 -0.004593 -0.096665 0.079094 
-0.049971 0.14058 0.050979 -0.048985 0.022864 0.0227 -0.2665 0.054925 
-0.060987 0.073668 0.068407 -0.021856 0.011026 0.024673 -0.3663 0.089945 
0.0034632 -0.032543 0.081067 0.036839 0.043909 0.024508 -0.42467 0.059857 
0.08419 -0.1284 0.065612 0.032893 0.036346 0.023193 -0.55176 0.031414 
0.19007 -0.13826 0.060679 0.032893 0.047526 0.015137 -0.60816 -0.012814 
0.1756 -0.075127 0.010369 0.040128 0.051143 -0.0040998 -0.19926 -0.030406 
0.06331 0.0227 0.0042853 0.07597 0.051636 -0.0064016 0.21621 -0.028104 
-0.035503 0.076627 0.0028056 0.080409 0.052952 0.023193 0.40381 -0.033201 
-0.070687 0.096028 0.026974 0.043745 0.031907 0.0059294 0.40644 0.010369 
-0.061973 -0.02794 0.044402 0.032071 0.016123 0.0023123 0.37931 0.023028 
-0.051615 -0.24546 0.029276 0.042265 0.03092 0.029934 0.33361 0.053116 
-0.095185 -0.24694 -0.037969 0.053445 0.025166 0.022371 0.26916 0.086328 
-0.10127 -0.046683 -0.062138 0.045224 -0.00064712 0.015301 0.20882 0.094384 
0.070215 0.073504 0.023193 0.0095465 -0.029091 0.028125 0.14568 0.085835 
0.26932 0.030098 0.19385 -0.05885 0.0062583 0.017932 0.097837 0.023357 
0.33311 -0.13908 0.29924 -0.10406 -0.03057 0.012177 0.077943 0.023193 
0.30829 -0.28837 0.18514 -0.085649 0.031085 0.014479 0.076627 0.044896 
0.25403 -0.25993 0.04654 0.032071 0.093891 0.10376 0.017932 0.10984 
0.046375 -0.022185 -0.04619 0.11658 0.11872 0.11822 -0.076771 0.14502 
-0.20205 0.23956 -0.084991 0.16064 0.11674 0.11592 -0.20057 0.088301 
-0.27785 0.26307 -0.091568 0.14568 0.098823 0.088794 -0.30037 0.072188 
-0.23872 0.18218 -0.050136 0.1031 0.083697 0.071531 -0.33539 0.067749 
-0.15881 0.078929 0.0095465 0.072188 0.050321 0.021878 -0.43717 0.023522 
0.016781 0.073997 0.064132 0.0047785 -0.034188 -0.010512 -0.46808 -0.036489 
0.056404 0.18136 0.051636 -0.066248 -0.090253 -0.054246 -0.27275 -0.10291 
0.11296 0.18152 0.047855 -0.038956 -0.091897 -0.085978 0.097837 -0.10735 
0.15949 -0.089759 0.070544 -0.040764 -0.044052 -0.075291 0.35679 -0.10784 
0.15226 -0.47054 0.11 -0.021034 0.013492 -0.0049219 0.43127 -0.045203 
0.12365 -0.58843 0.1105 -0.0096899 0.016781 0.0021479 0.2657 0.0095465 
0.15275 -0.42796 0.11313 0.024015 0.087972 0.016288 0.10408 0.0019835 
0.097344 -0.13908 0.068242 0.10162 0.12644 0.08715 0.12825 0.042758 
-0.029091 0.019083 -0.00015387 0.11428 0.11115 0.077121 0.16738 0.088958 
-0.091075 0.037332 -0.018733 0.12069 0.07449 0.077778 0.15061 0.076956 
-0.14023 0.10392 -0.023336 0.11099 0.047197 0.059857 0.081889 0.049006 
-0.098967 0.22345 -0.010019 0.051965 0.012342 0.039799 -0.0070593 0.012177 
0.029441 0.27425 -0.0055795 0.04654 0.022206 0.0052718 -0.053588 -0.0070593 
0.14601 0.24976 0.010204 0.049335 0.047526 -0.0021268 -0.065919 -0.0080457 
0.13171 0.21638 0.0070803 0.027632 0.043909 0.028947 -0.01528 -0.019226 
0.023193 0.28116 0.0032988 0.042594 0.0098754 0.015794 0.090109 0.027468 
-0.072003 0.31338 0.04095 -0.022514 -0.0011404 0.027961 0.024179 0.015465 
-0.084827 0.2805 0.069722 -0.044546 0.0014903 0.046046 0.042758 0.044238 
-0.07562 0.28067 0.054925 -0.028597 0.010697 0.040128 0.19796 0.072846 
-0.015444 0.22739 0.043251 -0.030077 0.005765 0.051308 0.36337 0.057227 
-0.001798 0.085506 0.049992 -0.033694 -0.034516 0.075641 0.32752 0.03947 
0.10721 0.014808 0.024344 -0.042408 -0.024652 0.052952 0.2269 -0.026131 
0.47155 -0.041257 -0.0082102 -0.0062372 -0.027118 0.01826 0.19287 -0.03764 
0.59749 -0.049314 -0.070523 0.086985 -0.014951 -0.013965 0.12924 -0.0052507 
0.31667 -0.15651 -0.0068948 0.062323 0.019247 -0.023172 0.070544 0.0074092 
0.10326 -0.53302 0.147 0.017274 0.035195 -0.040764 -0.13481 -0.024487 
-0.1108 -0.56705 0.17429 0.063145 0.066434 -0.026131 -0.34329 -0.015938 
-0.47695 -0.23855 0.12003 0.071202 0.11576 0.020891 -0.583 -0.00097594 
-0.48452 0.098001 0.069722 0.092411 0.14289 0.031907 -0.49257 0.038319 
-0.26124 0.36468 -0.0083746 0.085341 0.12201 0.058706 -0.091075 0.069064 
0.011026 0.5115 -0.093048 0.1391 0.11411 0.087643 0.21753 0.077778 
0.12924 0.51545 -0.075127 0.11543 0.048348 0.07301 0.22805 0.055582 
0.17725 0.43012 -0.033201 -0.0036066 -0.017911 0.043087 0.19731 0.035524 
0.19221 0.32687 -0.0039354 -0.043888 -0.05885 -0.0075525 0.20964 -0.0062372 
0.15571 0.23874 0.017274 -0.066906 -0.059507 -0.020212 0.18021 -0.035174 
0.05213 0.08419 0.032236 -0.09387 -0.046847 -0.024816 0.1516 -0.039284 
-0.044052 -0.064933 0.010369 -0.019226 -0.038627 -0.011005 0.1368 -0.034023 
-0.062796 -0.16572 0.018096 -0.010183 -0.0027845 0.029934 0.15259 0.026974 
-0.12198 0.00099702 0.016945 0.0024767 -0.013307 0.015465 0.19616 0.047855 
-0.17131 0.26274 -0.017088 0.019905 -0.022185 0.013164 0.24745 0.065118 
-0.13103 0.32802 0.03536 -0.01528 0.0074092 0.00017495 0.2126 0.075805 
0.040456 0.17199 0.14223 0.00017495 0.039634 0.014479 0.08715 0.080573 
0.20355 0.090274 0.13861 0.028454 0.097508 0.0039565 -0.0057439 0.083533 
0.34594 0.086985 0.033551 0.085506 0.14042 0.037826 -0.073318 0.054596 
0.33689 0.13582 -0.089924 0.17988 0.11724 0.072846 -0.07562 0.091425 
0.1151 0.071366 -0.079072 0.13417 0.036839 0.047362 -0.057534 0.096521 
-0.17525 -0.054246 -0.030406 0.051308 -0.009361 0.023193 -0.027118 0.080902 
-0.33309 -0.025967 -0.013471 0.0087245 -0.020212 0.036182 0.01004 0.066269 
-0.46544 -0.046354 -0.014951 -0.0049219 -0.0039354 0.015301 0.044896 0.029769 
-0.54058 -0.34674 0.0786 0.015137 0.03536 0.011684 0.055582 0.044238 
-0.26798 -0.46429 0.24712 -0.075127 0.0421 -0.015609 0.0088889 0.0069159 
0.2366 -0.36548 0.28297 -0.10653 0.017932 -0.016102 -0.077757 -0.013636 
0.49621 -0.18117 0.19632 -0.063946 0.036839 -0.015116 -0.07973 -0.026953 
0.53353 -0.094199 0.045718 0.0324 0.051636 -0.0082102 -0.02942 0.00033937 
0.451 -0.13119 -0.081374 0.15193 0.093069 0.069393 0.0095465 0.06183 
0.20914 0.027961 -0.13382 0.18826 0.084848 0.073997 0.06742 0.093726 
0.066269 0.29875 -0.11163 0.1442 0.091096 0.056898 0.060515 0.09981 
0.17478 0.38408 -0.042244 0.098659 0.036017 0.031907 0.11066 0.029934 
0.30418 0.41664 -0.0083746 0.02681 0.0047785 0.012177 0.14075 0.023028 
0.2833 0.37619 0.023851 0.014643 0.0069159 -0.004593 -0.053753 0.038483 
0.1299 0.19698 0.11083 -0.025474 -0.020706 -0.0021268 -0.36762 0.032236 
-0.13793 0.03536 0.15144 -0.078744 -0.036654 -0.023829 -0.39195 0.018425 
-0.63232 0.07038 0.094877 -0.037147 -0.025474 -0.020706 -0.056712 0.05065 
-0.90196 0.10902 0.017767 0.011848 0.005765 0.0083956 0.15801 0.057884 
-0.60569 0.08156 -0.0021268 0.075148 0.052623 0.058871 0.12858 0.049828 
-0.16358 0.072681 0.013986 0.091096 0.057062 0.0324 0.12398 0.025001 
0.10392 0.1003 0.01004 0.037168 0.033222 0.016781 0.22575 0.040621 
0.18909 0.056569 0.017438 0.0059294 0.056404 0.021549 0.26537 0.050814 
0.28214 -0.020541 0.044896 -0.0072237 0.010697 0.010862 0.21885 0.054267 
0.74892 -0.13053 -0.0060728 -0.05885 -0.021199 0.0056006 0.11987 0.054432 
1.1475 -0.27226 0.05213 0.030263 0.015137 0.015301 0.095042 0.037661 
0.89738 -0.36384 0.033387 0.018589 0.047691 0.031907 0.048677 0.062981 
0.293 -0.27489 0.059857 0.039963 0.049828 0.040456 -0.015609 0.041443 
-0.28459 -0.088608 0.082711 0.1003 0.027303 0.056076 -0.041093 0.045718 
-0.87796 0.14552 0.051801 0.075148 0.045224 0.073339 -0.047998 0.047033 
-1.1032 0.27655 0.0056006 0.10967 0.054596 0.065283 -0.041422 0.024508 
-0.64975 0.23216 -0.0027845 0.086328 0.060186 0.025824 -0.047834 0.0046141 
-0.064768 0.16541 -0.024158 0.085341 0.046868 0.028454 0.051636 0.005765 
0.27442 0.14749 -0.0088678 0.074983 0.035195 0.024837 0.067091 -0.00015387 
0.35021 0.067749 0.0064227 0.03651 0.036017 0.031907 0.09685 0.0021479 
0.28445 -0.037969 0.015137 0.013657 0.0060938 0.021384 0.12579 0.011684 
0.20339 0.044402 0.059035 -0.0096899 -0.026296 0.023193 0.12546 0.024015 
0.15324 0.21638 0.10885 -0.043559 -0.027282 0.0083956 0.082053 -0.00081153 
0.13943 0.27014 0.11839 -0.052273 -0.0095255 0.0039565 0.024179 0.01152 
0.14289 0.2246 0.088301 -0.084498 0.018425 0.027796 -0.038791 0.017932 
0.11494 0.091425 0.021549 -0.049314 0.044073 0.022864 -0.032872 0.020398 
-0.0077169 -0.082196 -0.018897 0.031742 0.071202 0.025824 0.011684 0.037004 
-0.12511 -0.11031 -0.025638 0.055747 0.052952 0.046211 0.044896 0.043087 
-0.10604 0.043087 -0.01676 0.081067 0.0023123 0.041278 0.01152 0.021878 
-0.05441 0.14897 -0.0091966 0.064954 -0.0064016 0.016945 -0.053753 0.01152 
-0.020048 0.16262 0.023686 0.047362 0.013657 0.025988 -0.10456 -0.0029489 
-0.025638 0.14617 0.049006 0.074983 0.0092177 0.058377 -0.13316 0.029934 
-0.06707 0.068407 0.034866 0.04917 0.049006 0.083204 -0.052931 0.038977 
-0.11278 0.0028056 0.037168 0.044567 0.07038 0.068407 0.089945 0.062817 
-0.083347 -0.018239 0.059693 0.03799 0.07038 0.055582 0.14996 0.031742 
-0.034845 0.013164 0.032236 -0.01117 -0.0050863 -0.0067304 0.13532 -0.0062372 
0.062488 -0.073811 0.055911 -0.014787 -0.063782 -0.038956 0.029769 -0.0095255 
0.10836 -0.2545 0.099152 -0.10489 -0.08532 -0.051944 -0.15273 -0.032215 
0.088136 -0.33112 0.096686 -0.097158 -0.079072 -0.061316 -0.40593 -0.034681 
0.10606 -0.26798 0.080902 -0.060823 -0.038791 -0.032872 -0.63463 -0.030406 
0.11543 -0.099624 0.069558 -0.05326 0.039634 -0.0078813 -0.24875 -0.0062372 
0.03388 -0.0095255 0.083697 0.038155 0.098823 0.054925 0.32341 0.042923 
0.010697 -0.042244 0.080244 0.11609 0.15259 0.073668 0.55902 0.055089 
0.14946 0.041278 0.066105 0.16114 0.13319 0.071202 0.48569 0.06742 
0.21342 0.14798 -0.0095255 0.15587 0.10984 0.072681 0.3415 0.069229 
0.077285 0.24778 -0.073318 0.11231 0.06183 0.061666 0.22427 0.065776 
-0.05178 0.23726 -0.087786 0.072681 0.024673 0.02681 0.093233 0.055254 
-0.11015 0.19829 -0.033201 0.041607 0.012506 0.032893 -0.095349 0.018589 
-0.14599 0.14453 0.04358 -0.0052507 0.0044497 0.0014903 -0.18972 0.036182 
-0.10998 0.20914 0.051472 -0.031228 -0.064933 0.044073 -0.14237 0.053938 
0.0227 0.21589 0.081231 -0.055068 -0.019226 0.0023123 -0.085156 0.03536 
0.25271 0.18859 0.076792 -0.043066 0.015465 0.04654 -0.13185 0.029112 
0.23151 0.1299 0.02122 0.076463 0.020233 0.015465 -0.23181 0.024508 
0.10195 0.097015 -0.024816 0.089287 0.042758 0.020727 -0.29248 0.073175 
0.073997 0.019247 -0.031721 0.076463 0.043087 0.029605 -0.15766 0.065612 
0.050486 0.011355 0.014808 0.016781 0.01152 0.017932 0.11691 0.038648 
0.072517 -0.045532 0.0786 -0.017582 -0.020706 0.0052718 0.21983 0.047197 
0.16969 -0.10965 0.1294 -0.009361 0.007738 0.031742 0.17232 0.025001 
0.080244 -0.066413 0.05624 -0.042737 0.0041209 0.024837 0.08419 0.055089 
-0.076442 -0.025474 -0.014787 -0.022021 0.0031344 0.0075736 -0.037476 0.02533 
-0.080552 -0.07973 0.0056006 0.0059294 -0.00015387 0.01152 -0.096172 0.020562 
0.16722 -0.24283 0.055911 0.013657 0.059693 0.033058 -0.086964 0.0011614 
0.5217 -0.33901 0.076134 0.0592 0.073668 0.034373 -0.051287 -0.022514 
0.65997 -0.27588 0.076956 0.021713 0.063968 0.01267 -0.024323 -0.030735 
0.4773 0.019905 0.044402 -0.0059084 0.036839 0.027468 0.079422 -0.035832 
0.14897 0.19501 0.020069 0.05772 0.028619 0.032893 0.20438 0.020069 
-0.13678 0.08156 0.020891 0.013657 0.019411 0.039305 0.25156 0.032564 
-0.35759 -0.0021268 -0.011827 0.026317 -0.0059084 0.011355 0.18284 0.020069 
-0.35282 0.14749 -0.0068948 0.052952 -0.0031133 0.0018191 0.050486 0.031742 
-0.17657 0.25584 -0.016102 0.063639 0.012177 0.0088889 -0.018897 0.031742 
0.011848 0.037826 -0.016102 0.071695 0.025988 0.0060938 0.041936 0.067585 
0.088794 -0.182 0.004943 0.02122 0.018754 0.010369 0.073997 0.070051 
-0.023007 0.031414 -0.013636 0.0062583 -0.001798 0.0080668 0.030592 0.079587 
-0.19038 0.44541 -0.046519 0.05213 0.0042853 0.03947 0.10967 0.089945 
-0.10702 0.59387 0.00017495 0.036017 0.026481 0.043909 0.057062 0.050979 
0.080902 0.50739 0.081067 0.0065871 -0.0054151 0.013657 -0.037805 0.012013 
0.085999 0.30286 0.16146 -0.074304 -0.010183 -0.011827 -0.071509 -0.034845 
0.031414 0.081395 0.18383 -0.094363 0.026317 -0.0088678 -0.031721 -0.012978 
0.11247 -0.041915 0.081231 0.029769 0.077285 0.019247 -0.028597 0.04095 
0.23742 0.0064227 -0.094856 0.13779 0.10918 0.031249 0.027303 0.048513 
0.23742 -0.031228 -0.13464 0.17889 0.10836 0.059693 0.10343 0.032564 
0.19994 -0.099131 -0.076771 0.15407 0.088794 0.019411 0.17478 0.0014903 
0.20471 -0.074304 -0.023829 0.091589 0.046868 0.011848 0.23529 -0.014787 
0.11658 -0.09387 0.037661 0.084355 0.029441 0.014315 0.21819 0.016781 
-0.12938 -0.2208 0.067091 0.0070803 0.0324 0.047033 0.16426 0.037826 
-0.24595 -0.36121 0.086657 0.02122 0.048184 0.047033 0.075148 0.077614 
-0.22063 -0.39787 0.088794 0.032564 0.024837 0.037004 0.024344 0.054596 
-0.13464 -0.21077 0.044402 -0.0075525 -0.00015387 0.037826 -0.025309 0.033058 
-0.057205 0.13417 0.02681 -0.028269 -0.014293 0.013657 -0.10719 0.010369 
-0.017088 0.37438 0.007738 -0.023665 -0.011663 -0.015773 -0.095021 0.0046141 
-0.03205 0.43653 0.0088889 -0.00097594 0.018754 0.014315 -0.096007 0.03651 
0.024837 0.37701 0.03388 0.040456 0.016945 0.009711 -0.081703 -0.018568 
0.13023 0.25551 0.037826 0.016781 0.041114 0.0013258 -0.04471 -0.0022913 
0.18678 0.22624 -0.006566 0.01826 0.012342 -0.011827 0.027139 -0.0031133 
0.12151 0.256 -0.063124 0.038648 0.042594 -0.00015387 -0.020048 0.025495 
-0.0072237 0.27277 -0.043724 0.059528 0.039305 -0.00015387 -0.0021268 0.021878 
-0.15602 0.28954 -0.025967 0.1008 0.048348 0.025988 0.12464 0.057555 
-0.22524 0.2486 0.028619 0.041443 0.022535 0.02829 0.27902 0.053116 
-0.16769 0.18695 0.09685 0.02533 0.0064227 0.033387 0.22805 0.06331 
0.081395 0.087314 0.11822 0.012835 -0.016431 -0.0034422 0.072681 0.051636 
0.32884 0.00033937 0.13072 -0.012485 -0.016266 -0.0080457 -0.036489 0.041443 
0.305 0.063639 0.05476 -0.018404 -0.008539 0.009711 -0.090581 0.039799 
0.043745 0.013492 -0.016924 0.041278 0.035195 0.023028 0.041443 0.049335 
-0.084991 -0.18348 -0.014951 0.071859 0.033551 0.086163 0.18794 0.047033 
0.011848 -0.22935 0.0085601 0.12085 0.095535 0.080409 0.20783 0.085177 
0.0046141 -0.1746 0.0082312 0.096193 0.079587 0.093562 0.10474 0.11132 
-0.26354 -0.23362 -0.0004827 0.064954 0.059528 0.091753 0.040456 0.058213 
-0.51312 -0.38965 0.034209 0.058542 0.016452 0.09422 -0.044546 0.004943 
-0.51197 -0.38258 0.10343 0.036839 0.019576 0.038648 -0.19482 -0.0029489 
-0.12823 -0.14221 0.15456 -0.010841 0.0324 -0.0077169 -0.32536 0.012342 
0.25995 0.21786 0.093891 -0.055068 0.022042 -0.03353 -0.26272 0.017274 
0.34265 0.41565 0.026481 -0.060658 0.0031344 -0.017746 -0.094692 0.013986 
0.18103 0.52071 -0.045039 0.0042853 -0.0138 -0.0039354 0.093069 0.026481 
0.075312 0.4025 -0.058192 0.01563 0.014972 0.018425 0.23594 0.029934 
0.058542 0.10277 0.044402 0.031414 0.032893 0.033551 0.27343 0.024344 
-0.0083746 0.0046141 0.083533 0.043909 0.039141 0.060022 0.26817 0.037661 
-0.12955 0.058049 0.01267 0.039799 0.036017 0.057884 0.2246 0.047855 
0.11362 0.097672 -0.0073881 0.064625 0.03947 0.088136 0.14042 0.06183 
0.36994 0.10096 0.030427 0.040621 0.02829 0.057062 0.053116 0.033551 
0.305 0.10326 0.041114 0.019905 0.014479 0.0041209 -0.038627 0.069722 
0.12447 0.066598 0.049828 -0.0011404 -0.0032777 -0.0014692 -0.12083 0.094877 
-0.032543 -0.098638 0.073175 -0.071674 -0.008539 -0.020706 -0.10587 0.035688 
-0.25088 -0.16687 0.081724 -0.052766 -0.021363 -0.022843 0.037004 0.016781 
-0.39294 -0.13744 0.075148 -0.035996 0.021713 0.016616 0.13384 -0.0032777 
-0.27867 -0.0771 0.011026 0.050157 0.072188 0.063474 0.14026 0.040292 
-0.076442 -0.0034422 -0.036489 0.15472 0.1105 0.0689 0.14601 0.042429 
-0.035338 0.07597 -0.044217 0.1733 0.11987 0.07038 0.21621 0.039634 
-0.041257 0.083862 -0.011334 0.095699 0.085012 0.070708 0.171 0.040456 
-0.02235 0.004943 0.011191 0.014643 0.029441 0.027961 0.12069 -0.010183 
0.016123 -0.1187 0.06594 -0.054082 -0.018897 -0.011663 0.086163 -0.021034 
0.005765 -0.267 0.10655 -0.069208 -0.035338 -0.0083746 0.09422 -0.010183 
0.061008 -0.23905 0.075476 -0.047176 -0.036654 -0.008539 0.13302 0.048184 
0.21342 -0.089759 0.03388 0.013492 0.0059294 0.011684 0.12957 0.086163 
0.19024 -0.01117 -0.0090322 0.077943 0.035524 0.042923 0.064132 0.1174 
0.14272 0.051801 0.021713 0.067749 0.042429 0.045718 -0.12346 0.077449 
0.032236 0.14535 0.062488 0.044402 0.027468 0.026481 -0.13908 0.060679 
-0.065919 0.23118 0.086328 0.021384 0.055582 0.03092 -0.057699 0.077614 
-0.10094 0.26192 0.089287 -0.014293 0.066927 0.037661 -0.071016 0.093891 
-0.045532 0.29135 0.042758 0.038648 0.05065 0.050979 -0.21258 0.058542 
-0.0022913 0.32703 0.012342 0.033551 0.042594 0.069229 -0.24266 -0.00064712 
-0.0013048 0.25173 0.014315 0.017767 0.032729 0.055911 -0.1307 -0.063453 
0.032729 0.19172 -0.0031133 0.054925 -0.023994 0.026317 -0.15536 -0.091732 
0.14239 0.14174 -0.017253 0.027632 -0.014951 -0.0082102 -0.41579 -0.089431 
0.26998 -0.065097 0.050979 0.046375 0.033715 -0.044052 -0.62147 -0.070523 
0.25074 -0.29117 0.1003 0.030098 0.056898 -0.0062372 -0.21866 -0.018733 
0.20125 -0.34608 0.097179 0.03651 0.073832 -0.0068948 0.42897 0.032729 
0.33311 -0.43404 0.098166 0.019411 0.039799 -0.0062372 0.77226 0.019905 
0.56296 -0.6098 0.10819 -0.017911 0.024015 0.0039565 0.79643 0.039305 
0.64073 -0.52792 0.065447 0.016123 -0.00081153 -0.0070593 0.55129 0.028619 
0.49046 -0.39458 0.034866 0.031742 -0.012485 -0.01117 0.12201 0.0227 
0.11395 -0.17591 0.022864 0.011848 -0.0016336 0.025988 -0.26026 0.0014903 
-0.36318 0.2537 0.019083 0.04654 0.012835 0.0062583 -0.35118 0.039963 
-0.63101 0.60094 0.01711 0.044238 0.034702 0.0062583 -0.29347 0.044402 
-0.58366 0.63909 0.0031344 0.037168 0.016781 0.030098 -0.24464 0.0421 
-0.24217 0.53501 0.027139 0.0421 0.033387 0.026152 -0.2647 0.037497 
0.098494 0.38721 0.033387 0.022206 0.016123 0.040785 -0.29807 0.013657 
0.23808 0.29579 0.041936 0.067749 0.047197 0.052787 -0.29709 0.021384 
0.24104 0.24844 0.016452 0.050979 0.064132 0.0786 -0.36581 0.0044497 
0.27442 0.20043 0.039634 0.039799 0.05213 0.064954 -0.59352 -0.028762 
0.28675 0.091589 0.049992 0.054267 0.021713 0.022206 -0.75991 -0.023172 
0.45133 0.011026 0.058706 0.0056006 0.0082312 0.0080668 -0.46594 -0.021363 
0.67953 0.011848 0.04095 0.017767 0.0011614 -0.02087 0.12168 0.011191 
0.62117 -0.030406 0.01711 0.039634 -0.00064712 -0.031557 0.49325 -0.012156 
0.34248 -0.06707 0.0088889 -0.0054151 -0.0060728 -0.029913 0.53847 -0.018733 
0.077778 -0.26042 0.071531 -0.054575 -0.027611 -0.030899 0.38556 -0.01676 
-0.40017 -0.53548 0.11888 -0.1598 -0.037311 -0.050629 0.25008 0.0041209 
-0.97661 -0.4661 0.088136 -0.13826 -0.020706 -0.057863 0.25091 0.020727 
-0.96 -0.13382 -0.010019 0.024837 0.01152 0.011026 0.24433 0.060679 
-0.38916 0.11148 -0.085156 0.13664 0.055254 0.06183 0.24055 0.090438 
0.080573 0.14157 -0.046847 0.17248 0.059035 0.14108 0.067749 0.13664 
0.27623 0.17215 -0.0029489 0.14782 0.058377 0.080409 0.035195 0.074654 
0.39855 0.17626 0.033058 0.11033 0.047197 0.056733 -0.084663 0.044896 
0.47287 0.078436 0.13269 0.021056 0.048348 0.0056006 -0.20304 0.0039565 
0.42453 -0.041915 0.19764 -0.041093 0.02829 -0.0095255 -0.18972 -0.0096899 
0.19912 -0.056548 0.15209 -0.047341 0.019083 0.0067515 -0.11607 0.028619 
-0.0096899 0.021549 0.016616 0.046868 0.072188 0.038977 -0.016102 0.029605 
-0.11722 0.12973 -0.099295 0.041114 0.044896 0.040128 0.022042 0.06594 
-0.20205 0.32506 -0.14533 0.068078 -0.0087034 0.027139 0.038977 0.043416 
-0.24102 0.43538 -0.0771 0.023193 -0.011498 -0.0021268 0.16146 0.026152 
-0.24973 0.32867 0.036182 0.026317 0.049006 -0.0034422 0.31371 0.039634 
-0.13678 0.05772 0.068078 0.051801 0.077614 0.047362 0.36435 0.044731 
0.10688 0.0070803 0.028947 0.11428 0.083368 0.049828 0.33377 0.076134 
0.24926 0.2172 -0.037476 0.16442 0.092247 0.046211 0.2662 0.067913 
0.28543 0.17676 0.018425 0.13138 0.08978 0.065776 0.24811 0.076299 
0.13056 -0.069865 0.10885 0.026317 0.071037 0.075148 0.3022 0.090438 
-0.10719 -0.057863 0.13812 0.018425 0.048677 0.048019 0.3775 0.072353 
-0.28344 0.17051 0.083368 -0.0070593 0.028619 0.033551 0.32933 0.071859 
-0.25269 0.30253 0.036839 -0.058356 0.0036276 0.018096 0.15259 0.016452 
-0.15306 0.23035 -0.00031829 -0.089924 -0.039613 -0.047505 -0.017582 -0.037969 
-0.16375 0.22016 -0.072332 -0.0868 -0.089595 -0.06707 -0.18676 -0.05885 
-0.26946 0.24762 -0.11722 0.018096 -0.023829 -0.030077 -0.32421 -0.019555 
-0.27949 0.21704 -0.10653 0.10425 0.037168 0.047855 -0.31977 0.054432 
-0.1667 0.15703 -0.036818 0.13269 0.080573 0.058871 -0.19104 0.061337 
-0.030077 0.13006 0.060844 0.12628 0.090767 0.056076 -0.004593 0.065776 
0.083533 0.011848 0.1248 0.055089 0.082217 0.071202 0.15324 0.060844 
0.093398 -0.10817 0.11198 0.029276 0.051965 0.033058 0.29711 0.076134 
0.13088 -0.11212 0.067749 0.015465 0.027303 0.038648 0.2879 0.075312 
0.18958 -0.096336 0.0095465 0.064954 0.051636 0.046868 0.27655 0.036346 
0.33377 0.0088889 -0.028104 0.1151 0.066598 0.048348 0.38688 0.050486 
0.57266 0.13056 -0.01232 0.078272 0.02681 0.022864 0.44459 0.045224 
0.4778 0.16146 0.010697 0.044073 0.025988 0.049335 0.36221 0.050486 
0.10655 0.12316 0.041772 0.0090533 0.03092 0.02533 0.22953 0.044073 
-0.28623 0.087643 0.10787 -0.052109 0.028454 0.012013 0.081231 0.025659 
-0.59533 -0.065097 0.10343 -0.037311 0.018918 0.024508 -0.040435 0.031249 
-0.67852 -0.25434 0.077285 -0.023829 -0.004593 0.0227 -0.12264 0.025001 
-0.43667 -0.31172 0.03799 0.016945 0.0083956 0.0082312 -0.17147 0.018754 
-0.070852 -0.34542 -0.017746 0.096686 0.037004 0.0026412 -0.16276 0.022535 
0.16377 -0.3686 0.0075736 0.07597 0.053774 0.02829 -0.12297 0.0054362 
0.16294 -0.14533 0.033551 0.047197 0.041114 -0.00031829 -0.044874 -0.0064016 
0.15226 0.17265 0.080573 0.0014903 0.05772 0.029276 0.066927 -0.055561 
0.21276 0.26801 0.067749 -0.037476 0.017603 0.016945 -0.049149 -0.0027845 
0.41236 0.17149 0.071531 -0.021692 0.010862 -0.0044286 -0.21702 0.014479 
0.60785 0.051636 0.059528 -0.032708 -0.014787 -0.015938 -0.37173 -0.024816 
0.41664 0.22033 -0.00081153 0.029934 -0.010512 0.023028 -0.27884 0.0039565 
0.026646 0.54027 -0.088444 0.10639 0.013492 0.048348 -0.098967 -0.0026201 
-0.32388 0.55869 -0.094856 0.091425 0.021384 0.041772 0.11526 0.041443 
-0.37124 0.31684 0.057555 0.049828 0.043251 0.048019 0.25387 0.095371 
-0.12116 0.064132 0.1567 -0.050793 0.047197 0.027139 0.25584 0.035195 
0.026152 -0.036654 0.16311 -0.063124 0.0098754 -0.011827 0.17396 0.0324 
0.079422 -0.157 0.12414 -0.019555 0.012506 -0.018239 0.13993 0.0075736 
0.11839 -0.15454 0.069393 -0.011827 0.024344 0.016288 0.15686 0.0046141 
0.0080668 -0.17772 0.058049 -0.036818 0.012177 0.01563 0.22246 0.028619 
-0.091239 -0.28903 0.044567 -0.032872 0.0054362 0.00297 0.16475 0.058871 
-0.024487 -0.31402 -0.0080457 0.00099702 0.023357 0.015959 0.021549 0.080573 
0.043909 -0.35578 -0.040928 0.093069 0.037332 0.020069 -0.098309 0.078929 
-0.029584 -0.50326 -0.029913 0.060186 0.028783 0.028454 -0.19909 0.082711 
-0.068057 -0.6925 0.045553 0.055089 0.00083261 0.035688 -0.30547 0.05065 
-0.0082102 -0.48402 0.038648 0.053609 0.017438 0.03947 -0.51214 0.018754 
0.17643 0.031742 0.032071 0.033058 0.027632 0.015137 -0.71239 0.0079024 
0.30549 0.35531 0.031085 0.041114 0.024508 -0.0047575 -0.38126 -0.038133 
0.32933 0.34232 0.056404 0.028125 0.024015 0.022864 0.19977 -0.041915 
0.28428 0.19073 0.08567 -0.0059084 0.03092 0.019905 0.50673 -0.069208 
0.16706 0.080409 0.043909 0.038977 0.044073 0.024508 0.52877 -0.086471 
0.039141 0.15028 0.00033937 0.016616 0.040292 0.066927 0.34035 -0.04471 
-0.043559 0.31223 0.0013258 0.038648 0.017932 0.05065 0.12118 -0.044217 
-0.041093 0.3877 0.012177 0.055254 0.026481 0.025166 -0.014129 0.0070803 
-0.048492 0.34544 0.026974 0.022535 0.015465 0.014315 -0.081374 0.03092 
-0.077428 0.28494 0.046704 0.039963 0.0227 0.02681 -0.096829 0.066927 
-0.043066 0.15094 0.050321 0.0070803 0.018918 0.01415 -0.28327 0.12266 
0.021713 0.036182 0.041443 0.024015 0.038977 0.014479 -0.45739 0.159 
0.047197 0.04095 0.027961 0.02829 0.026152 0.050979 -0.28147 0.15078 
0.047033 -0.02646 0.0093821 0.012342 0.044073 0.020069 0.04095 0.10967 
0.11313 -0.10423 0.027632 0.0016547 0.005765 -0.0032777 0.14256 0.040456 
0.27031 -0.12511 0.028125 -0.024158 -0.0080457 -0.015116 0.11115 0.018425 
0.46267 -0.10176 0.0085601 -0.0090322 -0.014129 -0.014787 0.07301 0.034866 
0.43916 -0.021363 0.0041209 0.07449 0.019083 0.012999 0.077121 0.025824 
0.11132 0.0786 -0.014458 0.065612 0.029112 0.028125 0.14091 -0.011992 
-0.27768 0.061995 0.026481 0.068078 0.04095 0.042923 0.20849 0.012506 
-0.44456 0.011355 0.084684 0.058213 0.055747 0.040621 0.12973 -0.008539 
-0.33885 0.13878 0.059528 -0.00081153 0.0592 0.0037921 -0.043724 -0.048492 
-0.17608 0.36008 -0.052437 0.039963 0.079916 0.044567 -0.12593 -0.033037 
0.033222 0.3678 -0.051944 0.052623 0.03651 0.047362 -0.17805 -0.038462 
0.19402 0.22164 -0.044217 0.045553 0.029112 0.03947 -0.12133 -0.036325 
0.22115 0.12875 -0.0032777 0.0016547 -0.011663 0.072353 -0.0022913 -0.013143 
0.38244 -0.064275 0.06331 -0.061151 -0.034516 0.033387 0.12595 0.045389 
0.44623 -0.2545 0.13368 -0.037805 0.014972 -0.022185 0.11905 0.12053 
0.27951 -0.21225 0.13532 0.024837 0.015465 -0.023994 0.12908 0.047362 
-0.00031829 -0.090746 0.0592 0.065776 0.06742 -0.0042642 0.13565 0.057555 
-0.20008 0.086328 -0.064275 0.13746 0.091589 0.025166 0.08715 0.065118 
-0.1963 0.25337 -0.064111 0.1026 0.061666 0.042923 -0.014458 0.090931 
0.016616 0.30171 -0.025474 0.071202 0.058706 0.049828 -0.057205 0.094055 
0.11428 0.16064 0.019247 0.025659 0.018425 0.012999 -0.038298 0.090767 
-0.010183 0.040456 0.042758 -0.0059084 -0.0042642 0.0031344 -0.046025 0.047033 
-0.2693 0.049006 0.054432 0.016123 0.018096 0.032893 -0.089431 0.030098 
-0.53269 0.065447 0.038812 0.04506 0.020398 0.040456 -0.048985 0.048677 
-0.49981 0.085835 0.043745 0.052459 0.031249 0.02829 0.013986 0.020069 
-0.10752 0.24614 0.044402 0.047691 0.023851 0.013986 -0.026789 -0.015444 
0.32062 0.34561 0.020069 0.0074092 0.040292 0.024179 -0.063289 0.0021479 
0.54373 0.36649 0.047855 -0.030735 0.019576 -0.0062372 -0.043066 -0.018404 
0.45412 0.34364 0.084026 -0.03057 0.0016547 -0.0073881 0.027632 -0.018239 
0.20717 0.27853 0.046704 -0.043888 -0.018568 0.009711 0.10195 0.013821 
0.041772 0.147 0.014479 0.0026412 -0.0021268 0.01267 0.1733 0.019247 
-0.048985 -0.1404 0.011848 -0.0034422 0.024344 0.017767 0.30352 0.061666 
-0.062467 -0.47186 0.055089 0.04654 0.039634 0.0421 0.33706 0.051308 
-0.14566 -0.3737 0.058049 0.07301 0.071366 0.037826 0.30171 0.06035 
-0.31879 -0.095021 0.030098 0.086821 0.11461 0.029769 0.26965 0.080409 
-0.44802 -0.056877 0.0069159 0.10852 0.097508 0.056733 0.23118 0.05772 
-0.30268 -0.18019 0.013821 0.091918 0.070051 0.055747 0.11083 0.057555 
-0.060165 -0.09091 -0.017088 0.076792 0.044731 0.020398 0.0013258 0.0036276 
0.094055 0.14617 -0.013143 0.039141 -0.008539 0.00066819 -0.083512 -0.10324 
0.11888 0.22887 0.039799 -0.019226 -0.0075525 -0.022185 -0.12314 -0.11393 
0.03092 0.11757 0.080573 -0.02235 -0.0004827 -0.018897 -0.056383 -0.050958 
0.092082 -0.056219 0.1151 0.013986 0.038812 -0.026131 -0.037311 0.029769 
0.25058 -0.17065 0.092247 0.048348 0.055911 0.021384 -0.023994 0.064625 
0.24926 -0.13284 0.031085 0.097015 0.05476 0.049499 0.081724 0.14749 
0.19649 -0.04619 0.025659 0.052294 0.030592 0.069558 0.20257 0.16344 
0.14881 0.015465 0.038977 0.041278 0.030592 0.053116 0.25633 0.14321 
0.081724 -0.018239 0.023193 0.019083 0.022206 0.047526 0.22772 0.1105 
0.087314 0.0080668 0.021384 -0.03501 0.023193 0.011684 0.11494 0.057555 
0.092082 0.037168 0.022042 0.0026412 0.019083 0.0067515 0.046704 0.015465 
0.04095 0.029276 0.028454 0.0016547 0.020398 0.028783 0.0083956 -0.0047575 
-0.045203 0.0074092 0.073668 0.0016547 0.0013258 0.0083956 -0.064933 -0.0054151 
-0.1986 -0.076442 0.075148 0.025001 0.0062583 0.019411 -0.15766 0.014808 
-0.38126 0.0083956 0.036675 0.009711 0.033058 0.054103 -0.23625 -0.015938 
-0.40099 0.15028 0.03092 0.043909 0.040785 0.036839 -0.19761 0.0041209 
-0.16835 0.18152 0.0044497 0.050321 0.072188 -0.0029489 -0.10423 -0.038627 
0.18498 0.069558 0.019576 0.034702 0.057391 0.011191 0.02122 -0.019226 
0.39954 -0.025474 0.024673 0.013328 0.048677 0.035195 0.16574 -0.003771 
0.37307 -0.025474 0.011355 0.024179 0.025988 0.023851 0.23775 0.01004 
0.17725 -0.029748 0.0016547 0.0324 0.039141 0.049499 0.25502 0.033715 
-0.033201 -0.023829 0.042923 0.061337 0.026646 0.063474 0.19895 0.051308 
-0.10012 0.025495 0.023357 0.049828 0.015959 0.058049 0.14108 0.044073 
-0.056877 -0.032215 -0.0082102 0.062817 0.034209 0.032236 0.079258 0.059693 
0.019411 -0.033037 0.0070803 0.085341 0.026152 0.042758 0.097344 0.071859 
0.12431 0.094877 0.029441 0.036675 0.026481 0.0082312 0.088136 0.065776 
0.16886 0.18415 0.040621 0.049828 0.02533 -0.010841 0.059035 0.041443 
0.091918 0.26768 0.007738 0.029276 0.0090533 0.0088889 0.0227 0.018425 
-0.038462 0.35416 -0.045203 0.034702 0.013657 0.030592 0.058213 0.030263 
-0.095021 0.2514 -0.029748 0.026152 0.01267 0.026974 0.091425 0.072517 
-0.051944 0.010369 0.051472 -0.037476 -0.0039354 0.023357 0.024344 0.049828 
0.090603 -0.10702 0.13697 -0.029255 0.0034632 0.027961 -0.18824 0.018589 
0.33624 -0.18545 0.16294 -0.060658 0.010697 0.005765 -0.40708 -0.010019 
0.39247 -0.22343 0.11921 -0.030735 0.052459 0.011191 -0.35364 -0.018568 
0.21654 -0.028597 0.052459 0.060515 0.084519 0.066269 -0.133 -0.02087 
-0.0011404 0.21457 0.00033937 0.09274 0.07449 0.053609 0.048019 0.027796 
-0.10637 0.2759 -0.012814 0.070873 0.02681 0.041772 0.11181 0.014643 
-0.1381 0.22542 0.025495 0.053609 -0.0014692 0.031085 0.14371 0.01004 
-0.082361 0.11642 0.042758 0.016945 -0.028433 -0.015444 0.11231 -0.0044286 
-0.072989 -0.016266 0.029112 0.026481 -0.011498 -0.032215 0.091589 0.023357 
-0.093376 -0.10686 0.020727 -0.06444 -0.028104 -0.040764 0.12644 0.074326 
-0.0088678 -0.21192 0.04917 -0.10916 -0.025309 -0.012156 0.09126 0.08419 
0.076134 -0.21027 0.034537 -0.03353 0.011355 0.017438 0.046704 0.12858 
0.10178 0.071859 0.01974 0.0421 0.057227 0.056076 0.021056 0.13976 
0.035853 0.41581 -0.016102 0.090438 0.071695 0.06742 0.057227 0.11839 
0.0024767 0.48766 -0.0062372 0.085012 0.054432 0.042923 0.093726 0.076463 
0.0087245 0.19616 0.038812 0.018918 0.032729 0.018425 0.13976 -0.046683 
0.00050378 -0.058028 0.056898 0.042758 0.031907 0.027632 0.16574 -0.065919 
-0.0091966 -0.071016 0.04358 0.0016547 0.023851 0.035853 0.1345 -0.10373 
-0.031064 0.0028056 0.028783 0.025824 0.016123 0.033387 0.15078 -0.029584 
-0.02498 -0.016595 0.055582 0.031249 0.023028 0.026481 0.14913 0.063639 
0.086492 -0.033859 0.04095 0.0013258 0.029934 0.03947 -0.044381 0.039141 
0.32736 -0.008539 0.035031 -0.0062372 0.019411 0.0054362 -0.33753 0.0021479 
0.37257 0.091918 0.025495 -0.011827 0.0067515 -0.0031133 -0.33605 -0.041422 
0.20224 0.12069 -0.00097594 0.016781 0.004943 0.0019835 -0.11196 -0.053424 
0.08304 0.098988 -0.022185 0.1008 0.035195 -0.0016336 0.036346 -0.0077169 
0.047691 0.13368 0.01004 0.056076 0.03092 -0.028762 -0.1085 0.013164 
0.038483 0.28971 0.011684 0.032729 0.015959 -0.001798 -0.45459 0.031414 
-0.0011404 0.37586 0.049499 0.021384 0.043416 -0.0022913 -0.55932 0.017603 
-0.085813 0.3119 0.054267 0.007738 0.033551 -0.0019624 -0.19268 0.052952 
0.027139 0.12381 0.067091 0.035524 0.051801 0.019247 0.19599 0.068242 
0.083204 -0.13021 0.084519 0.046375 0.08156 0.039963 0.19057 0.044896 
0.10458 -0.31862 0.10096 0.033058 0.07301 0.033058 0.032729 0.044402 
0.14075 -0.41497 0.094877 -0.0098543 0.050979 0.025001 -0.09239 0.023357 
0.18465 -0.55423 0.087643 0.010204 0.016781 0.033387 -0.088773 0.019247 
