0.053938 0.41417 -0.034681 0.053116 0.023686 0.093233 0.091425 0.073339 
0.086985 0.28132 -0.02087 0.047691 -0.0027845 -0.015609 0.13467 0.094548 
0.072681 0.20914 -0.015444 0.033715 0.022371 -0.040435 0.082711 0.064461 
0.050979 0.10195 -0.0062372 0.058706 0.034866 -0.020212 0.043416 0.081724 
0.0324 0.076627 -0.024652 0.046704 0.029112 -0.011992 0.02829 0.067585 
0.041114 0.09685 -0.02498 0.065612 0.021713 -0.10554 -0.039449 0.083533 
0.090109 0.11872 -0.0036066 0.031907 0.03388 -0.14434 -0.077593 0.095042 
0.13138 0.098988 0.012013 0.048348 0.028125 -0.11015 -0.13201 0.077449 
0.096193 0.058377 0.011848 0.039634 0.019247 -0.083183 -0.13514 0.055911 
0.028125 0.060844 0.049828 0.030427 0.012013 -0.065919 -0.098638 0.0075736 
-0.12823 0.072188 0.055747 -0.017746 -0.0070593 -0.047012 -0.18841 0.016616 
-0.17575 0.086657 0.058871 -0.00064712 -0.0138 0.099316 -0.109 -0.023994 
-0.052766 0.09422 0.050321 -0.008539 0.024837 0.2417 0.11987 -0.043395 
0.087314 0.066598 0.0059294 0.022371 0.053609 0.43982 0.24795 0.033058 
0.08419 0.096028 -0.03912 0.090109 0.098494 0.52005 0.3757 0.054925 
0.016452 0.1276 -0.00064712 0.061008 0.11428 0.45988 0.41318 -0.040928 
-0.0044286 0.069064 0.014643 0.055418 0.06035 0.13943 0.341 -0.041915 
-0.051122 -0.060658 0.087643 0.00033937 0.030756 -0.12264 0.28214 0.02533 
-0.029748 -0.10982 0.12661 0.0013258 0.025659 -0.05441 0.18876 0.072517 
0.084684 -0.088773 0.1105 0.025824 0.017767 0.079422 0.012835 0.025166 
0.074326 0.1276 0.030098 0.037168 0.046046 0.069393 -0.17904 0.0041209 
0.011026 0.21687 -0.011992 0.059035 0.06331 0.026646 -0.26371 0.010862 
-0.011334 0.19172 -0.054082 0.058049 0.075148 -0.11163 -0.23905 0.057884 
0.038483 0.14749 -0.040106 0.073832 0.065612 -0.206 -0.1917 0.076134 
0.087643 0.016945 -0.0057439 0.027303 0.050157 -0.23609 -0.10324 0.077285 
0.14075 -0.25236 0.029112 0.019411 0.015137 -0.17821 -0.046025 0.065283 
0.17544 -0.42927 0.069393 -0.016266 -0.0087034 -0.072003 0.037168 0.044073 
0.17889 -0.255 0.098988 -0.0013048 0.021713 0.021056 0.07597 0.027139 
0.091425 -0.086636 0.10244 -0.0016336 0.038812 0.11872 0.11148 0.032893 
0.0087245 -0.018733 0.034537 0.01974 0.049335 0.15505 0.12792 0.040456 
0.051965 0.033222 0.026646 0.062488 0.050814 0.20734 0.098823 0.014808 
0.06035 0.030756 0.0085601 0.023851 0.045882 0.17988 0.080902 0.017767 
0.023686 0.092904 0.019411 0.067913 0.046704 0.15456 0.14453 0.00066819 
-0.042573 0.15144 -0.0029489 0.041278 0.038155 0.10688 0.10293 -0.006566 
-0.070194 0.2662 -0.020377 0.041772 0.05065 0.068571 0.065776 0.0036276 
-0.05178 0.32193 -0.025967 0.013821 0.047526 0.026646 0.035524 0.026646 
-0.072167 0.21342 0.020233 0.035031 0.04095 -0.0039354 -0.045039 -0.0070593 
-0.14747 0.15456 0.0034632 0.030427 0.041607 0.025988 -0.0064016 0.016123 
-0.16917 -0.065097 0.020398 -0.019555 0.051472 -0.0050863 -0.057205 0.062652 
-0.12659 -0.19038 0.06035 0.050486 0.037004 0.062323 -0.031064 0.016781 
0.068736 -0.24464 0.11921 0.025988 0.08863 0.061337 -0.016266 0.066763 
0.26505 -0.18265 0.0592 0.030427 0.036182 0.049828 0.021878 0.058542 
0.24811 0.0054362 0.067091 0.01563 0.03388 0.0074092 0.028619 0.071037 
0.14568 0.16294 0.032564 0.027303 0.0324 0.03092 0.069722 0.021713 
0.086492 0.21967 0.044731 0.021384 0.021878 -0.031228 0.048184 0.01152 
0.083697 0.21095 0.04917 0.035031 0.014315 -0.095843 0.048184 0.027961 
0.063639 0.3022 0.087972 0.037661 0.026974 -0.14714 0.014643 0.034373 
0.12908 0.25699 0.070215 -0.010512 0.016288 -0.15684 -0.023336 0.067585 
0.19122 0.13121 0.052623 0.059364 0.016616 -0.10834 -0.033859 0.057884 
0.15028 -0.2499 0.051636 0.027632 0.024508 -0.054904 -0.018404 0.028125 
0.10524 -0.49751 0.060844 0.00083261 0.028619 -0.0052507 -0.0091966 0.038483 
-0.02087 -0.064275 0.025001 0.0018191 -0.0032777 -0.010348 -0.016595 0.050979 
-0.1427 0.47533 -0.021034 0.012506 -0.012485 -0.018239 -0.0060728 -0.0016336 
-0.1187 0.57414 -0.019719 0.020891 0.017274 -0.011498 0.030098 -0.00031829 
-0.092554 -0.18463 0.062488 0.046375 0.036839 -0.02235 0.027632 0.0098754 
-0.017088 -0.9115 0.11855 0.042429 0.035031 -0.0080457 0.038319 0.023522 
0.071531 -0.83653 0.14404 0.023522 0.022206 -0.0095255 0.037168 0.02122 
0.061666 -0.29166 0.11625 0.052787 0.030263 0.011848 -0.014129 0.048184 
0.0018191 0.19731 0.087479 0.027468 0.014808 -0.063453 0.032729 0.036839 
-0.029584 0.26389 0.066105 0.03947 0.014479 -0.14665 -0.010676 0.051472 
-0.013471 0.097672 0.045224 0.01826 0.011026 -0.1358 -0.021856 0.059528 
0.026646 0.15834 0.021056 0.011355 0.012177 -0.015116 -0.017582 0.051965 
0.03651 0.22049 0.021549 0.050321 0.021878 0.13319 -0.011992 0.0324 
0.067749 -0.13366 0.01152 0.038812 0.047526 0.093069 0.029934 0.048841 
0.065283 -0.39672 0.029112 0.047526 0.028783 0.020398 0.01267 -0.015773 
0.057062 -0.52348 0.030098 0.028619 0.020398 -0.048985 0.020233 0.026481 
0.040785 -0.20995 0.0074092 0.04358 0.021878 -0.024487 0.034537 0.046704 
0.023851 0.43669 -0.01117 0.018096 0.016452 -0.050629 0.0098754 0.034044 
0.048841 0.74629 -0.032215 0.018096 0.012999 -0.0044286 0.011684 0.036346 
0.044567 0.71866 -0.056877 0.023851 0.016452 0.0070803 0.020398 0.035195 
0.029605 0.31256 -0.031064 0.029605 0.01974 0.031742 0.01563 0.02829 
0.07597 -0.16111 0.028454 0.048184 0.012506 0.033058 0.031414 0.058213 
0.081889 -0.26223 0.052623 0.015301 0.013328 0.049499 0.021713 0.032564 
0.050979 -0.12988 0.037826 0.053938 0.026152 0.061008 0.024673 0.0098754 
0.031578 0.092082 0.010533 0.039305 0.016123 0.062981 0.043416 0.021549 
0.022535 0.14256 0.053281 0.034866 0.0026412 0.023028 0.031907 0.058213 
0.025001 -0.019555 0.062323 0.020398 0.010697 0.058377 0.063968 0.028454 
-0.0040998 -0.27703 0.010369 0.032236 0.036182 0.09833 0.092576 0.011684 
-0.033201 -0.22655 0.023851 0.041278 0.038155 0.057062 0.063145 -0.0087034 
-0.046519 -0.039449 0.0087245 0.049664 0.042923 0.077778 0.079587 0.0052718 
-0.030242 -0.1815 0.028783 0.048184 0.024508 0.067256 0.078765 0.034209 
0.013492 -0.52792 0.082546 -0.010019 0.016945 0.068736 0.063145 0.022864 
0.01004 -0.41563 0.16558 -0.00015387 0.031907 0.039634 0.058871 0.00083261 
-0.034023 0.012342 0.14765 0.0074092 0.0041209 0.056076 0.037004 0.016288 
-0.049478 0.29415 0.058871 0.01711 0.025166 0.033387 0.048677 0.0085601 
-0.052437 0.47303 -0.004593 0.027632 0.04358 0.072846 0.059035 -0.025967 
-0.013965 0.5337 -0.076442 0.025659 0.0421 0.040621 0.06331 0.010204 
0.031085 0.51035 -0.097816 0.068736 0.013328 0.066269 0.058377 0.032729 
0.039634 0.42979 -0.074962 0.028454 0.015137 0.03388 0.057062 0.032893 
0.0072447 0.34692 -0.0055795 0.03947 0.020398 0.047855 0.068571 0.014808 
-0.00015387 0.29974 0.041443 0.011684 0.014643 0.035195 0.043745 0.014643 
-0.056548 0.20651 0.037497 0.015794 0.0026412 0.044567 0.031742 0.016616 
-0.013636 0.066269 -0.010676 0.017767 0.030098 0.043251 0.049006 0.026481 
0.013657 0.0075736 -0.049149 0.043251 0.044238 0.047033 0.036182 0.014643 
0.027796 -0.018897 -0.047176 0.06035 0.038155 0.032564 0.045718 0.021878 
0.088958 0.084848 -0.0087034 0.037497 0.02681 0.029112 0.026317 0.057227 
0.072188 0.11132 0.010862 0.062981 0.015794 0.03092 0.020233 0.056404 
0.058871 0.11888 0.032564 0.035524 0.01974 -0.01232 0.024344 0.037661 
0.034373 0.16212 0.024673 0.057227 0.02829 0.010697 0.029112 0.030098 
0.020069 0.2343 0.032729 0.032893 0.043909 0.00099702 0.084355 0.018096 
-0.014293 0.30944 0.022864 0.020233 0.041607 0.042265 0.068736 0.031414 
-0.051122 0.33755 0.037332 0.016452 0.017603 0.01415 0.031907 0.004943 
-0.0771 0.35958 0.052459 0.0060938 0.017438 0.037332 0.011848 0.014808 
-0.025967 0.2149 0.060844 0.018425 0.029276 0.0075736 -0.01232 0.0039565 
0.027303 0.16722 0.073832 -0.003771 0.018589 0.0092177 -0.0057439 0.0090533 
0.070708 0.14765 0.10145 0.03651 0.027961 -0.032708 -0.01676 -0.013143 
0.063474 0.17971 0.091589 0.0014903 0.028947 0.0070803 0.0056006 0.012835 
-0.0019624 0.1613 0.071859 0.034866 0.02829 0.044073 0.064132 0.013986 
-0.001798 0.071859 0.039799 0.014643 0.035688 0.1368 0.066927 0.025495 
0.041772 0.071037 0.0098754 0.056569 0.060679 0.1202 0.1003 0.022371 
0.097179 0.15916 -0.018239 0.075641 0.071037 0.065776 0.092411 0.018096 
0.11066 0.25354 -0.040928 0.044073 0.055911 0.063968 0.058377 0.037004 
0.078436 0.30566 -0.022843 0.08156 0.047362 0.15653 0.030756 0.079751 
0.055089 0.086821 0.012177 0.03092 0.044896 0.19944 -0.018897 0.040785 
0.018754 -0.49783 0.088136 0.030263 0.047526 0.14601 -0.036325 0.055582 
0.0019835 -0.77734 0.092082 -0.016431 0.053774 0.053445 -0.011827 0.063145 
-0.038462 -0.23379 0.03536 0.012177 0.039799 -0.080881 0.02533 0.047362 
-0.066084 0.33361 -0.024158 0.023851 0.03092 -0.074469 0.058871 0.02829 
0.0062583 0.53896 -0.03912 0.038155 0.02533 -0.11327 0.035031 0.012835 
0.11362 0.3928 -0.0062372 0.077449 0.045553 -0.035338 0.004943 0.054596 
0.12957 0.1442 0.039799 0.037004 0.034702 -0.071181 0.055418 0.045882 
0.15966 0.020069 0.03536 0.048348 0.036182 0.0056006 0.030098 0.042923 
0.13417 0.0065871 0.070873 0.022864 0.023851 0.020562 0.0013258 -0.0036066 
0.12973 -0.11607 0.086492 0.021549 0.044238 0.031414 -0.097322 0.041772 
0.11214 -0.58152 0.15653 -0.028433 0.013492 0.015959 -0.10423 0.053445 
0.0028056 -1.0381 0.2001 -0.011334 0.007738 0.036346 0.10967 0.020398 
-0.14106 -1.0225 0.19336 -0.0067304 0.0042853 0.0059294 0.19237 -0.0004827 
-0.15996 -0.51559 0.12217 -0.0082102 0.0051074 0.01826 0.13121 -0.0055795 
-0.044874 0.16492 0.073997 0.025001 0.014479 -0.014951 0.015465 0.034373 
0.061995 0.47698 -0.0014692 0.030756 0.023851 -0.026624 -0.0059084 0.050814 
0.096028 0.35219 -0.052931 0.070873 0.04654 -0.020377 0.03947 0.047033 
0.13499 -0.065262 -0.087951 0.053609 0.050979 0.00297 0.078929 0.060515 
0.11428 -0.17493 -0.10604 0.060679 0.042429 0.05624 0.052952 0.06594 
0.10425 0.075805 -0.076606 0.036839 0.022042 0.082382 0.057884 0.073339 
0.099316 0.19369 -0.038133 0.014479 0.024508 0.1008 0.025166 0.076134 
-0.04882 0.13861 0.009711 0.0083956 0.020233 0.15111 -0.0011404 0.068407 
-0.1524 0.064954 0.033715 0.030592 0.036017 0.20536 -0.0072237 0.049006 
-0.040106 -0.035996 0.066105 0.048019 0.034537 0.14469 -0.050629 0.0059294 
0.20191 -0.17345 0.066927 0.013164 0.022535 0.044402 -0.023336 -0.022843 
0.47254 -0.096336 0.067913 0.037168 0.0067515 -0.042408 -0.010676 -0.001798 
0.48191 -0.23181 0.073339 -0.0060728 -0.010019 0.022371 -0.042737 0.037497 
0.26817 -0.44917 0.12316 0.0013258 0.0082312 0.058377 -0.0027845 0.085177 
0.0021479 -0.38176 0.10754 -0.022021 0.026152 -0.02646 0.054596 0.06183 
-0.092554 -0.255 0.078929 0.016452 0.017767 -0.15931 0.13812 0.066598 
0.016288 -0.15289 0.032071 0.041114 0.0087245 -0.17887 0.22148 0.044402 
0.12233 -0.15996 -0.0096899 0.021056 0.017603 -0.13596 0.26472 0.049828 
0.082217 -0.19038 0.017274 0.049335 0.0083956 -0.077922 0.23792 0.023522 
-0.024816 -0.20649 0.053116 0.026317 -0.031557 -0.018239 -0.0027845 0.060186 
-0.057699 -0.020541 0.053938 0.030756 0.0039565 -0.020377 -0.28952 0.081724 
0.048513 0.19583 0.053116 0.034209 0.011191 0.021056 -0.37107 0.11395 
0.048677 0.2195 0.0324 0.047197 0.028125 0.007738 -0.20649 0.093726 
-0.090581 0.28412 0.036839 0.030427 0.033551 0.026974 0.023686 0.039141 
-0.16605 0.31371 0.00083261 0.038648 0.02122 0.0083956 0.08156 -0.021034 
-0.12544 0.26751 0.010204 0.067913 0.01711 0.028454 0.13927 -0.098638 
-0.035174 0.19106 0.040456 0.034373 0.032071 0.030263 0.1248 -0.1358 
0.064461 0.14174 0.032893 0.032729 0.019576 0.020069 0.09126 -0.11212 
0.1373 0.13631 0.024179 0.012342 0.0023123 0.0039565 0.065612 -0.0068948 
0.064132 0.22098 -0.010841 0.030592 0.019576 0.035853 0.061337 0.056733 
0.025824 0.28001 -0.030077 0.0421 0.030263 0.050979 0.11 0.11576 
0.0054362 0.244 0.0031344 0.036675 0.0095465 0.072353 0.11477 0.091425 
0.076956 0.15587 0.033222 0.048677 0.020562 0.067091 0.042265 0.096357 
0.12266 0.096686 0.049499 0.028125 0.0028056 -0.0082102 0.0019835 0.090109 
0.11115 0.052952 0.046704 0.049335 0.016452 0.017603 -0.046519 0.068242 
0.064296 0.064132 0.026974 0.06035 0.04095 0.00050378 -0.1011 0.040785 
0.016781 0.11674 0.024179 0.054103 0.04095 0.0093821 -0.085813 0.013986 
-0.017417 0.25748 0.011026 0.027796 0.021549 -0.028762 -0.11722 0.015301 
-0.080059 0.35366 -0.0026201 0.044731 0.011355 -0.022185 -0.081703 0.014972 
-0.11837 0.46629 0.004943 0.036675 0.015794 -0.039284 -0.055561 -0.0011404 
-0.12577 0.44196 0.0047785 0.013328 0.012342 -0.034188 0.0079024 -0.036654 
-0.083347 0.35514 0.031578 0.040128 0.010533 -0.0019624 0.088465 -0.02794 
-0.013307 0.38934 -0.0042642 -0.019884 0.0080668 0.038319 0.11115 0.0067515 
-0.011498 0.39543 -0.028104 0.042265 0.014972 0.029605 0.081231 0.010697 
-0.037476 0.38786 -0.043559 0.028947 0.031907 0.04358 0.12085 0.0031344 
-0.076771 0.32835 -0.037147 0.04358 0.01711 0.06331 0.1174 0.035688 
-0.069701 0.25748 -0.003771 0.055747 0.034866 0.016781 0.13976 0.051472 
-0.042079 0.11707 0.037332 0.051472 0.044731 -0.0021268 0.08978 0.02681 
-0.051451 0.028619 0.052952 0.058377 0.037004 -0.018568 0.041607 0.014972 
-0.044546 -0.0047575 0.035524 0.029112 0.032729 0.0064227 0.034702 0.028619 
0.04358 -0.19367 0.033387 0.042923 0.017767 0.0051074 0.025001 0.050979 
0.089616 -0.27999 0.046868 0.0016547 0.016781 -0.015444 -0.11837 0.02829 
0.1008 -0.29511 0.074654 0.018425 0.03651 -0.043559 -0.1917 0.0062583 
0.029769 -0.18446 0.064296 0.021384 0.025001 0.016616 -0.094692 -0.047012 
-0.030735 -0.39853 0.048019 0.02681 0.031249 0.041607 -0.0011404 -0.054904 
-0.064111 -0.77635 0.086985 0.0031344 0.021056 0.05065 0.057062 -0.030242 
-0.066741 -0.42418 0.10754 -0.0055795 -0.0024557 0.082217 0.097508 0.015465 
-0.074633 0.32325 0.099316 0.035853 0.010697 0.084519 0.089287 0.063474 
-0.026789 0.87354 0.095371 0.01826 0.026646 0.1271 0.11181 0.064461 
0.016945 0.99718 0.05213 0.063968 0.023522 0.085012 0.14141 0.033551 
0.02122 0.7504 -0.010183 0.037497 0.032071 0.043087 0.11658 0.043251 
0.0039565 0.32029 -0.066084 0.044731 0.027303 -0.023336 0.097179 0.037004 
-0.081868 0.03388 -0.086636 0.04358 0.032236 -0.0087034 0.10573 0.035853 
-0.096665 -0.083183 -0.079895 0.038155 0.033058 -0.00031829 0.050157 0.031742 
-0.071181 -0.25154 -0.034845 0.040621 0.029934 0.03092 0.028125 0.025001 
0.005765 -0.44193 0.0034632 0.027632 0.010862 0.013657 -0.034352 0.027139 
0.08715 -0.46249 0.04917 0.043416 0.013821 0.037826 -0.036654 0.0037921 
0.12891 -0.31139 0.040621 0.019576 0.011191 0.03947 -0.0067304 -0.0036066 
0.19533 -0.20123 0.061008 0.019411 -0.019884 0.14749 0.04654 0.085012 
0.18317 -0.12938 0.05213 0.0046141 -0.0011404 0.073668 0.066598 0.044238 
0.22789 -0.11968 0.055911 0.023686 0.01826 0.075641 0.079094 0.0067515 
0.20898 -0.2933 0.10145 0.009711 0.038155 0.0421 0.062652 0.038319 
0.2297 -0.33441 0.12842 0.013657 0.043909 0.071366 0.070215 0.019411 
0.22049 -0.21833 0.092904 0.049664 0.0095465 0.08008 0.05065 0.02829 
0.10819 0.0051074 0.10228 0.0060938 0.028947 0.0085601 0.03092 0.045224 
-0.070687 0.20536 0.079258 0.053938 0.058871 -0.008539 0.024837 0.027632 
-0.12511 0.11559 0.025824 0.021713 0.034044 -0.063782 -0.0073881 0.03092 
-0.090417 -0.18479 0.028454 0.026481 0.037826 -0.060165 0.01267 0.031085 
-0.04882 -0.28656 0.0064227 0.024179 0.032564 -0.052273 0.0088889 0.051308 
0.012835 -0.091732 -0.01676 0.01267 0.039634 -0.014458 0.024179 0.059364 
0.042265 0.039963 0.0087245 0.037168 0.038812 -0.044217 0.053445 0.050486 
0.041607 0.029769 0.033715 0.0065871 0.021384 0.014808 0.066434 0.047855 
0.076792 -0.0078813 0.040292 0.035195 0.033222 0.024673 0.073832 0.036182 
0.096357 0.0059294 0.049006 0.015301 0.035853 0.11444 0.086492 0.02829 
0.12776 0.07038 0.065118 0.040785 0.061172 0.15916 0.094877 0.018096 
0.11954 0.044896 0.039141 0.034044 0.042758 0.19501 0.10129 0.00099702 
0.12727 0.060515 0.041936 0.034209 0.048513 0.25962 0.066434 0.017603 
0.18547 0.10639 0.051636 0.026974 0.070873 0.32259 0.047197 0.027961 
0.17856 0.16689 0.063968 0.023686 0.061337 0.25995 0.025824 0.04506 
0.18481 0.21358 0.055254 0.030427 0.055747 0.066763 -0.0138 0.082382 
0.16031 0.37652 -0.0026201 0.02533 0.044073 -0.11623 -0.031557 0.098988 
0.058706 0.56494 -0.09091 0.088958 0.056569 -0.22524 -0.029584 0.080738 
-0.069701 0.61475 -0.12083 0.055911 0.044896 -0.1838 -0.003771 0.034537 
-0.18561 0.49013 -0.075455 0.057062 0.052623 -0.16276 -0.02794 0.01415 
-0.23033 0.2394 -0.016266 0.036839 0.032729 -0.13333 -0.096172 0.020398 
-0.18232 0.10885 0.019247 0.027796 0.034537 -0.10604 -0.10127 0.015959 
-0.047176 -0.05441 0.081724 0.015301 0.033058 -0.10834 -0.091239 0.024015 
0.092576 -0.15224 0.089123 0.01711 0.026646 -0.13267 -0.047834 0.01415 
0.16623 -0.17032 0.064625 0.051636 0.019247 -0.11886 0.031578 0.035195 
0.2223 -0.17624 0.056898 0.022206 0.029605 -0.10949 0.066105 0.029934 
0.24581 -0.34476 0.066269 0.04095 0.03388 -0.073154 0.18284 0.027961 
0.20158 -0.78852 0.08156 -0.0070593 0.015137 -0.021034 0.23348 0.016616 
0.11625 -0.92103 0.15982 0.011848 0.011026 0.072188 0.16229 0.028619 
0.052787 -0.80331 0.2514 -0.00064712 0.020069 0.20076 0.059035 0.025659 
0.016123 -0.51066 0.27096 -0.028926 0.016288 0.27228 -0.046025 0.048348 
0.0052718 0.024673 0.16163 0.0036276 -0.0016336 0.32193 -0.066577 0.08715 
-0.086636 0.60982 0.00083261 0.0083956 0.041114 0.46004 -0.028597 0.058049 
-0.18561 0.77489 -0.11738 0.055418 0.066434 0.6016 0.043416 -0.01232 
-0.27916 0.72689 -0.14303 0.1151 0.029441 0.45215 0.099645 -0.022021 
-0.26091 0.78673 -0.12067 0.087479 0.075476 0.051308 0.058542 -0.024652 
-0.12083 0.7065 -0.032379 0.019905 0.00066819 -0.31977 -0.0095255 0.044567 
-0.082032 0.47632 0.037661 0.02681 0.00297 -0.51608 -0.04619 0.072353 
-0.051615 0.40414 0.072188 -0.0073881 -0.035667 -0.41283 -0.030899 0.038155 
-0.027118 0.25288 0.071531 -0.0029489 -0.0082102 -0.18923 0.055747 0.045882 
0.16229 -0.014458 0.061501 0.024015 0.026317 0.066927 0.071202 0.069722 
0.71357 -0.22441 0.071202 0.029934 0.033715 0.26784 0.10967 0.074983 
0.98337 -0.30991 0.08978 0.056569 0.03799 0.29382 0.076299 0.08304 
0.62067 -0.56459 0.099481 0.025988 0.024344 0.083368 -0.008539 0.014315 
-0.0021268 -0.51526 0.075805 0.031578 0.022206 -0.065262 -0.041586 -0.020212 
-0.37107 -0.14204 0.035031 0.048184 0.0079024 -0.17131 -0.054246 -0.035996 
-0.41431 0.1664 -0.046025 0.042594 0.014972 -0.070523 -0.0055795 -0.011992 
-0.29824 0.42864 -0.09239 0.068242 0.02829 -0.018239 0.076956 -0.023994 
-0.1136 0.44557 -0.088608 0.027303 0.018589 0.023028 0.086985 0.039799 
0.051143 0.18892 -0.045532 0.042758 0.0085601 0.014479 0.051965 0.060022 
0.074983 -0.15339 0.023522 -0.016595 -0.0080457 0.01826 0.038483 0.058377 
-0.012485 -0.29577 0.06479 0.0023123 0.0031344 0.022206 0.0046141 0.027961 
-0.095021 -0.27012 0.082053 -0.022679 -0.020541 0.057227 0.0095465 0.014808 
-0.087293 -0.19975 0.092576 0.009711 0.014808 0.061337 -0.034845 0.009711 
-0.070523 -0.14369 0.10113 0.010369 0.0083956 0.07449 0.0041209 0.021878 
-0.080552 -0.077922 0.051472 0.014643 0.037168 0.076299 0.10967 -0.0040998 
-0.096994 0.10343 0.0067515 0.044896 0.029605 0.073668 0.14946 -0.004593 
-0.06296 0.16179 0.022371 0.012999 0.024179 0.074161 0.14305 -0.0078813 
0.0044497 0.032564 0.057062 0.054267 0.028125 0.039963 0.10704 -0.0047575 
0.1128 0.033551 0.078929 0.032564 0.018096 0.033551 0.027796 -0.029748 
0.16229 0.33706 0.074654 0.031742 0.022042 -0.0049219 0.010204 -0.011663 
0.17708 0.51463 0.012506 0.013821 0.013164 -0.010676 -0.027775 0.049499 
0.10935 0.42305 -0.049478 0.009711 0.010533 -0.033859 -0.021528 0.091918 
-0.031886 0.3392 -0.090253 0.028125 0.021056 -0.028597 -0.0138 0.078272 
0.053445 0.31733 -0.076442 0.0090533 0.01004 -0.071016 -0.023665 0.069722 
0.17692 0.24367 -0.052437 0.067091 0.023686 -0.07266 -0.037969 0.051636 
0.2297 0.21112 -0.049478 0.03536 0.036017 -0.060987 -0.057041 0.03536 
0.22986 0.25551 0.0090533 0.042594 0.031085 -0.031557 -0.034352 0.025495 
0.076956 0.37504 0.087314 -0.0027845 0.013492 -0.056055 -0.021856 0.022042 
-0.10587 0.18169 0.12612 0.0056006 0.01563 -0.084991 -0.015116 0.023851 
-0.182 -0.10916 0.090767 0.020891 0.0062583 -0.093048 0.070708 0.015794 
-0.15273 -0.18002 0.0062583 0.015959 0.01826 -0.11294 0.15489 -0.015609 
-0.083018 -0.19301 -0.055232 0.05624 0.019247 -0.064604 0.22131 0.012013 
-0.073154 -0.15141 -0.065262 0.041114 0.018754 -0.039449 0.27458 0.017438 
-0.072167 0.010697 -0.013636 0.061995 0.025495 0.010533 0.18037 0.025988 
-0.0034422 0.16245 0.039799 0.063145 0.023522 -0.00081153 0.055089 0.021549 
0.029276 -0.073976 0.066269 0.053445 0.01152 0.067585 -0.066741 -0.0019624 
0.041936 -0.19761 0.093562 0.036839 0.016452 0.084684 -0.096665 0.00066819 
0.049828 0.053281 0.047033 0.019083 0.06331 0.097015 -0.094363 0.013164 
-0.033201 0.14979 0.063145 0.029112 0.010204 0.060186 -0.14665 0.0092177 
-0.013636 -0.36367 0.1054 0.020233 -0.010841 0.017603 -0.16473 0.027961 
0.017767 -0.75103 0.13302 0.021713 0.025988 0.071037 -0.10012 0.0069159 
0.052952 -0.41957 0.14387 0.0087245 0.035853 0.13812 0.011848 0.027796 
0.043087 0.11263 0.07597 0.051801 0.039963 0.083368 0.096357 0.055911 
-0.004593 0.5041 0.0072447 0.027796 0.037497 -0.050629 0.08863 0.053774 
-0.03353 0.39099 -0.0047575 0.055582 0.022371 -0.10505 0.072517 0.037497 
-0.029748 0.10589 0.032729 0.042758 0.032564 -0.13234 0.074983 0.044896 
0.016781 0.079258 0.050486 0.040621 0.033551 -0.060494 0.077285 0.043909 
0.057391 0.15834 0.052952 0.04654 0.050979 -0.022021 0.089123 0.023193 
0.053445 0.23183 0.02122 0.032236 0.060679 0.057391 0.070708 0.050979 
0.025659 0.14272 0.028947 0.057227 0.056733 0.055089 0.043251 0.02122 
-0.035338 0.034866 0.018096 0.0093821 0.055747 0.077121 0.048348 0.01974 
-0.079895 -0.046354 0.010862 0.029441 0.02681 0.075476 0.046046 0.011355 
-0.05737 -0.05178 -0.00097594 0.0034632 0.042758 0.074161 0.061501 0.012013 
-0.0078813 -0.051122 0.011026 0.011355 0.044896 0.048184 0.051472 0.027303 
0.14765 -0.25746 0.035853 0.00297 0.034373 0.076134 0.054103 0.082546 
0.32588 -0.51789 0.083533 -0.0034422 0.031414 0.059693 0.040785 0.10967 
0.33492 -0.34723 0.071366 0.034702 0.015137 0.055747 0.00033937 0.10573 
0.20471 0.11642 0.029276 0.0011614 0.02681 0.080902 0.0023123 0.071531 
0.03388 0.34298 -0.032872 0.07301 0.045553 0.099316 -0.0060728 0.038155 
-0.065426 0.27869 -0.031392 0.056898 0.049499 0.041443 -0.02498 0.0024767 
-0.060165 0.1031 0.0072447 0.083204 0.049828 -0.037805 -0.004593 0.01563 
-0.060165 -0.031392 0.015137 0.059857 0.062323 -0.02235 0.046375 -0.004593 
-0.051451 -0.073482 0.01415 0.062981 0.049992 -0.0014692 0.12677 -0.012814 
-0.059178 -0.091732 0.017603 0.065118 0.054103 0.043909 0.14321 0.024015 
-0.065426 -0.11804 0.073668 0.024673 0.054596 0.029605 0.090931 0.018918 
-0.059507 -0.25039 0.12201 0.0014903 0.033222 0.051801 0.050157 0.0031344 
-0.085156 -0.26815 0.14782 -0.0077169 0.012835 0.049335 0.0080668 0.0067515 
-0.024487 -0.31501 0.15949 -0.0047575 -0.00081153 0.089287 -0.0026201 0.033387 
0.11313 -0.46561 0.13384 -0.044546 -0.010512 0.12332 0.011026 0.036017 
0.26159 -0.48879 0.097508 -0.034681 -0.020377 0.15226 -0.018239 0.079422 
0.30796 -0.12396 0.026152 -0.016102 0.012506 0.14881 -0.013471 0.081724 
0.19221 0.53995 -0.069043 0.017767 0.058706 0.18892 -0.043888 0.074983 
0.068078 0.96331 -0.1136 0.070544 0.069722 0.28313 -0.056219 0.011848 
0.054432 0.92369 -0.12149 0.078272 0.081395 0.23463 1.0539e-005 -0.0031133 
0.06183 0.72557 -0.069701 0.10589 0.058706 0.086985 0.037497 -0.056548 
0.053116 0.47369 -0.034681 0.039305 0.033222 -0.097487 0.11362 -0.020212 
-0.061645 0.30829 0.047197 0.042758 -0.0083746 -0.10998 0.080244 0.043909 
-0.052109 0.057227 0.0087245 0.015301 0.0046141 -0.19087 0.044073 0.092082 
-0.070523 0.096357 -0.024487 0.023851 0.01004 -0.15043 0.058377 0.14798 
-0.17131 0.17133 0.022042 0.016781 0.020891 -0.069208 0.021384 0.13138 
-0.10061 0.077449 0.054925 0.0092177 0.010204 -0.024652 0.035524 0.028454 
0.051143 -0.057041 0.098659 0.040128 -0.0062372 0.029934 0.05624 -0.027447 
0.18136 -0.10094 0.090931 -0.0032777 0.021384 0.045389 0.009711 -0.0095255 
0.15259 -0.068221 0.087314 0.041772 0.029934 0.07038 0.024837 0.026152 
0.081724 -0.24727 0.082217 0.0044497 0.026317 0.055089 0.0039565 0.017274 
0.040785 -0.54716 0.075805 0.0070803 0.031085 0.070873 -0.0072237 0.009711 
0.033387 -0.40593 0.050814 0.020727 0.022371 0.052623 0.055418 0.029112 
0.050321 -0.004593 0.016781 0.023522 0.025824 0.043251 0.073997 0.015794 
-0.021692 0.30138 0.0044497 0.039799 0.03388 0.0080668 0.13171 -0.0052507 
-0.079401 0.33163 -0.02942 0.03947 0.042758 0.049006 0.13927 0.0072447 
-0.086307 0.28313 -0.041257 0.055911 0.058871 0.082875 0.11905 0.022535 
-0.039449 0.17363 -0.015609 0.015959 0.032071 0.087972 0.11477 0.028947 
0.070708 0.096193 0.034537 0.030098 0.0085601 0.027961 0.076792 0.018754 
0.15719 0.1031 0.063968 0.013657 0.01563 -0.020212 -0.026953 0.052294 
0.20388 0.27524 0.081067 0.015465 0.02122 -0.048492 -0.15043 0.073504 
0.1054 0.45149 0.040785 0.032071 0.030263 -0.019061 -0.067892 0.043251 
-0.031392 0.36583 0.012506 0.01711 0.013164 0.034209 0.027303 0.0039565 
-0.082525 0.22559 -0.0021268 0.05476 0.014972 0.072353 0.02681 -0.020706 
-0.10965 0.077943 0.014315 0.037826 0.02681 0.11707 0.048184 -0.023994 
-0.086471 -0.042573 0.04506 0.056898 0.034044 0.13072 0.05772 0.0088889 
-0.074962 -0.16539 0.09422 0.013657 0.035688 0.08863 0.038977 0.056569 
0.043909 -0.12297 0.11806 0.019905 0.027303 -0.01117 0.03947 0.065447 
0.17528 0.12102 0.098494 0.0090533 0.0065871 -0.063124 0.017767 0.06742 
0.23479 0.21638 0.078107 0.0046141 -0.003771 -0.1108 0.0083956 0.057391 
0.27639 0.31749 0.059364 0.013986 0.00050378 -0.1182 -0.038791 0.045389 
0.15801 0.34495 0.038483 0.0062583 0.0054362 -0.13481 -0.06855 0.041936 
-0.01528 0.049992 0.013657 0.029605 -0.0047575 -0.082196 -0.00031829 0.037826 
-0.027611 -0.55686 0.022864 0.036017 0.022864 -0.059178 0.066927 0.051472 
0.10129 -0.99535 0.042594 0.05624 0.026646 -0.027775 0.098001 0.068242 
0.23956 -0.90278 0.049664 0.033058 0.03947 -0.0031133 0.14058 0.070873 
0.24696 -0.6223 0.02829 0.050321 0.033222 0.0041209 0.091425 0.050157 
0.056076 -0.29413 0.0041209 0.063968 0.030098 -0.0019624 0.034537 0.016781 
-0.1136 0.12891 -0.023501 0.050979 0.023686 -0.010183 0.034866 0.0018191 
-0.091404 0.40661 0.021384 -0.0004827 0.057884 0.022371 -0.021692 -0.027611 
-0.030077 0.32341 0.041278 0.013328 0.0056006 0.021384 0.080409 -0.0031133 
-0.038462 0.012506 0.08715 0.020727 0.016123 0.068736 0.067749 0.01004 
-0.069701 -0.15191 0.13302 -0.011827 -0.0034422 0.14979 0.0093821 0.013492 
-0.074962 0.050321 0.12365 -0.014458 0.0095465 0.24384 0.04917 0.01004 
-0.031557 0.47303 0.08863 0.0034632 0.012013 0.11017 0.094877 0.037661 
0.0082312 0.57924 0.048348 0.00099702 0.017932 -0.011498 0.086821 0.019411 
0.054267 0.42831 0.02681 0.029441 0.052952 -0.12511 -0.034023 0.0592 
0.12233 0.24285 -0.017911 0.034044 0.020233 -0.13119 -0.13727 0.013821 
0.12612 0.066598 -0.063453 0.072681 0.01563 -0.10291 -0.1644 -0.0067304 
0.083697 -0.036654 -0.092061 0.03651 0.053116 -0.032215 -0.11607 0.010697 
0.0042853 -0.10768 -0.060987 0.074161 0.048184 0.042923 -0.0073881 0.044896 
-0.02646 -0.065097 0.014972 0.027139 0.043909 0.1026 0.080738 0.05624 
0.0069159 -0.13629 0.08008 0.034702 0.027303 0.053609 0.11773 0.030756 
0.029934 -0.21356 0.078272 0.034866 0.00050378 0.031249 0.18629 0.058871 
0.039141 -0.19531 0.048184 0.02681 0.029276 0.051472 0.18481 0.043909 
0.057062 -0.12889 0.021384 0.060679 0.02122 0.074819 0.20306 0.045718 
0.049335 -0.046519 0.009711 0.009711 0.014808 0.099974 0.14305 0.022535 
0.01267 -0.018075 0.017274 0.062488 0.018096 0.053938 -0.025802 0.0065871 
-0.05589 0.029934 0.027303 0.021056 0.028783 0.012835 -0.065591 -0.0073881 
-0.06444 0.02829 0.04358 0.044238 0.02122 -0.043888 -0.08121 0.00297 
0.058706 0.040785 0.074819 0.027632 0.019905 -0.036654 -0.08384 0.028454 
0.183 0.039963 0.0592 0.038812 0.023028 -0.013965 -0.025802 0.044073 
0.14009 0.032236 0.043251 0.022864 0.025824 0.013657 -0.0032777 0.049664 
0.049335 0.12102 0.026646 0.01826 0.012177 0.026317 0.037332 0.050979 
-0.0098543 0.13993 -0.0029489 0.050486 0.021878 0.074161 0.058706 0.041114 
-0.011005 0.21835 -0.015609 -0.0016336 0.04358 0.047033 0.065447 0.031742 
-0.0055795 0.33344 -0.029748 0.028125 0.016288 0.011191 0.062488 0.039634 
-0.10998 0.43883 -0.038627 0.0227 0.020891 -0.013636 0.020727 0.022042 
-0.19087 0.45774 -0.04471 0.032071 0.033222 -0.022185 0.0064227 -0.03764 
-0.21619 0.32095 -0.026624 0.036017 0.047033 0.022371 0.015959 -0.033037 
-0.17641 0.17856 -0.05441 0.045389 0.033551 0.027961 -0.023665 -0.014458 
-0.092719 0.072846 -0.0022913 0.049992 0.061501 0.042429 0.065447 0.0032988 
-0.014622 0.091753 0.016616 0.027468 0.056076 0.0016547 0.068736 0.016288 
0.018918 0.12069 0.035195 0.052459 0.047362 0.015794 0.057391 0.028454 
0.027303 0.2126 -0.0090322 0.043416 0.065612 0.027303 0.048841 0.048841 
0.044402 0.24745 -0.015116 0.039963 0.039141 0.031249 0.010697 0.067749 
0.16541 0.15768 0.015959 0.027303 0.031085 0.0065871 0.059693 0.071859 
0.25896 0.0044497 0.034044 0.02681 0.048841 0.11428 0.095535 0.054925 
0.11987 -0.145 0.079916 0.036017 0.048019 0.15785 0.12233 0.064625 
-0.069701 -0.056383 0.096521 0.035853 0.033058 0.061666 0.12299 0.085177 
-0.1136 0.13795 0.09981 0.060515 0.034702 0.074983 0.0592 0.11559 
-0.037147 0.24022 0.066763 0.019576 0.10458 0.17856 0.076792 0.059364 
0.013821 0.27129 0.024837 0.080573 0.061008 0.22739 0.055254 -0.019719 
-0.028433 0.1927 0.076134 0.048348 0.058049 0.092247 -0.00081153 -0.045532 
0.0023123 0.20027 0.053938 0.0087245 0.010533 -0.0771 -0.04471 -0.11475 
0.10326 0.14798 0.0786 0.0019835 0.020562 -0.23461 -0.20468 -0.056712 
0.13615 -0.12478 0.057062 0.016945 -0.0029489 -0.2596 -0.31139 0.0036276 
0.12825 -0.51395 0.071037 0.037497 0.022206 -0.22524 -0.20337 0.061172 
-0.021363 -0.5248 0.12069 0.022206 0.03536 -0.12626 0.0083956 0.046375 
-0.062467 -0.47876 0.094877 0.038648 0.037497 -0.058356 0.16212 0.070215 
0.0021479 -0.61128 0.10507 0.011684 0.019411 -0.0016336 0.18514 0.077778 
0.096357 -0.36976 0.11609 0.031249 -0.020377 -0.03205 0.15012 0.083862 
0.13417 0.32078 0.066927 0.022042 0.011355 0.047362 0.14979 0.058542 
0.099974 0.81205 -0.0055795 0.027139 0.029934 0.065118 0.097672 0.021384 
0.038483 0.69959 0.016288 0.01711 0.019576 0.17051 0.090767 0.023686 
0.00050378 0.13088 0.097672 -0.020541 0.021056 0.22411 0.025824 0.037497 
0.0065871 -0.29593 0.10458 0.018918 1.0539e-005 0.21638 -0.038462 0.042923 
0.053281 -0.33457 0.1003 -0.013307 0.024673 0.26159 -0.077428 0.044896 
0.084026 -0.10078 0.078929 0.053774 0.029441 0.20997 -0.10702 0.037004 
0.061666 0.072188 0.044731 0.021056 0.034373 0.024673 -0.050629 0.033551 
0.072188 0.050814 0.048513 0.035031 0.031907 -0.1723 -0.00031829 0.028947 
0.086163 -0.11393 0.081889 0.011355 0.016945 -0.25943 0.011684 0.024837 
0.086657 -0.0095255 0.09833 0.0042853 0.0042853 -0.25878 0.053116 0.050486 
0.085835 0.12414 0.062981 0.024179 0.0088889 -0.15026 0.062323 0.027796 
0.034866 -0.044874 0.038319 0.035031 0.01711 -0.035338 0.1294 -0.0031133 
0.025166 -0.22178 0.0069159 0.058213 0.014808 0.10376 0.20964 -0.0138 
0.040785 -0.20304 0.030592 0.018096 0.019905 0.19205 0.16903 0.018754 
0.073504 -0.1233 0.067749 0.013492 -0.0024557 0.29513 0.14289 0.046704 
0.078272 -0.18824 0.078929 -0.0059084 0.012177 0.36386 0.04506 0.039141 
0.027961 -0.14106 0.068571 0.03651 0.028619 0.32029 -0.026789 -0.0077169 
-0.034352 0.08863 0.00017495 0.030756 0.034373 0.19764 -0.0406 -0.0064016 
-0.038956 0.21901 -0.05326 0.023686 0.036675 0.031249 -0.060165 0.013821 
-0.033859 0.18695 -0.021363 0.047526 0.031907 -0.15224 -0.022021 0.044073 
-0.026296 0.077285 0.03092 0.020891 0.023522 -0.26157 -0.028433 0.025001 
-0.0029489 0.022535 0.05476 0.02681 0.010862 -0.22293 -0.021034 0.044402 
0.11148 -0.12757 0.083368 -0.0042642 0.0075736 -0.14007 0.030756 0.041114 
0.17001 -0.20501 0.060515 0.0079024 0.026974 -0.039284 0.031742 0.033551 
0.15226 -0.03205 0.009711 0.00033937 0.017603 0.0088889 0.032893 0.004943 
0.11888 0.26225 -0.057699 0.02829 0.036017 0.054925 0.068242 -0.018733 
0.030592 0.20306 -0.053917 0.025001 0.025001 0.066763 0.087479 -0.028597 
-0.075127 -0.3178 0.03947 0.0018191 0.016945 0.068078 0.070215 0.032564 
-0.12445 -0.43388 0.11428 0.01004 0.040785 0.0016547 0.064296 0.026317 
-0.078086 -0.22211 0.10655 -0.013471 0.00066819 0.060679 0.090603 0.051143 
0.073997 -0.17575 0.055254 0.0024767 -0.0052507 0.030098 0.10458 0.04358 
0.19895 -0.072167 0.00297 0.027632 0.04358 0.073832 0.04917 0.045224 
0.18794 0.28362 -0.11952 0.058213 0.067091 0.11839 -0.017582 0.023522 
0.092411 0.66671 -0.15865 0.04654 0.032236 0.018425 -0.033037 0.0032988 
-0.098473 0.80942 -0.13941 0.041772 0.024015 -0.041915 -0.02235 0.020233 
-0.15536 0.7527 -0.09239 0.054103 0.041772 -0.065097 0.029769 0.044073 
0.045882 0.46267 -0.045861 0.04358 0.032236 -0.043066 0.030592 0.013164 
0.044567 0.20471 -0.016266 0.063474 0.035688 -0.044381 0.047033 0.0065871 
-0.11919 0.10047 -0.010348 0.041772 0.043087 0.016781 0.057227 0.0069159 
-0.22885 0.0054362 0.0072447 0.039963 0.010204 0.03536 0.055418 0.026974 
-0.16638 -0.13744 0.038483 0.023357 0.015794 0.015137 0.052787 0.055747 
0.016288 -0.24562 0.048677 0.005765 0.011355 -0.023994 0.036675 0.082382 
0.16886 -0.13958 0.042429 0.0065871 0.026152 0.014479 0.085999 0.062817 
0.13762 0.022042 0.01974 0.010697 0.02681 0.076792 0.08715 0.079258 
-0.067399 0.15752 0.047855 0.030427 0.038319 0.063639 0.055418 0.062981 
-0.15848 0.23594 0.049664 0.025988 0.041443 -0.0036066 -0.00031829 0.020562 
0.0042853 0.30451 0.027139 0.055911 0.050486 -0.068714 -0.092554 0.019905 
0.27162 0.35005 0.0054362 0.04358 0.035195 -0.06148 -0.099624 0.0079024 
0.38885 0.10277 0.01267 0.058542 0.033715 -0.022843 -0.06707 0.020069 
0.23562 -0.51181 0.061008 0.031907 0.045224 0.032893 -0.047341 -0.013471 
0.079916 -1.1639 0.12644 0.015137 0.021713 0.083862 0.034044 0.010369 
-0.015938 -0.94701 0.13236 0.012342 0.011848 0.21243 0.051143 0.029441 
-0.06707 0.15916 0.077778 -0.0031133 0.020233 0.18711 0.034866 0.046375 
-0.049971 1.1639 0.0044497 0.040621 0.024015 0.042594 0.0067515 0.046211 
0.075148 1.4197 -0.043724 0.0042853 0.027139 -0.097158 -0.012156 0.026317 
0.079094 0.89821 -0.059014 0.046375 0.026646 -0.11607 0.05476 0.0016547 
-0.010019 0.27327 -0.035174 0.04654 0.067749 -0.07562 0.072681 0.0024767 
-0.11212 -0.010183 -0.020706 0.058871 0.065612 -0.065262 0.047033 -0.025802 
-0.15487 -0.01939 0.012835 0.045224 0.06479 -0.075949 0.082875 -0.004593 
-0.13333 0.1419 0.029112 0.047033 0.044238 -0.033365 0.14354 0.025659 
0.025001 0.23266 0.061666 0.055254 0.026481 -0.019226 0.24597 0.049006 
0.23512 0.11395 0.10573 0.0060938 0.018425 -0.019555 0.2708 0.071695 
0.27392 -0.11574 0.12579 0.020727 0.011355 0.038483 0.19879 0.11329 
0.056076 -0.18134 0.10441 -0.0022913 -0.0055795 0.045882 0.15061 0.12727 
-0.09091 0.043251 0.019576 0.023357 0.027961 0.07038 -0.023172 0.090767 
-0.052109 0.20701 -0.064933 0.040292 0.046211 0.049992 -0.19071 0.040456 
0.10129 -0.012814 -0.026624 0.036675 0.041114 0.061337 -0.26059 0.019905 
0.2223 -0.11952 0.047033 0.025495 0.03092 0.029605 -0.28443 0.0018191 
0.14864 -0.052931 0.045553 0.021549 0.059693 0.10277 -0.2476 0.031249 
0.028947 -0.026953 0.0028056 0.035195 0.043909 0.11757 -0.18413 -0.0004827 
-0.090581 -0.19992 0.021056 0.044238 0.039305 0.0592 -0.11935 0.013492 
-0.10817 -0.48994 0.046211 0.054103 0.049499 -0.0059084 -0.0064016 -0.036818 
0.055254 -0.3229 0.031414 0.016945 0.054925 -0.048656 0.15259 -0.012978 
0.19649 0.0034632 0.053116 0.030263 0.043251 -0.056383 0.27228 -0.01676 
0.21358 -0.24628 0.080409 0.035853 0.032893 -0.041915 0.38638 -0.057699 
0.15522 -0.38192 0.098001 0.040128 0.04095 -0.010676 0.40003 -0.011827 
0.08156 -0.18019 0.089945 0.065776 0.020891 0.027796 0.33755 0.022371 
0.0072447 0.068736 0.12398 0.013492 0.012506 0.083533 0.20816 0.039799 
-0.081045 0.21704 0.11806 0.039141 0.01711 0.076134 0.01152 0.026974 
-0.1621 0.4025 0.06594 0.01711 0.01415 0.12168 -0.18676 0.010697 
-0.15931 0.7134 0.016123 0.031578 0.031742 0.19813 -0.17953 -0.0052507 
-0.1376 0.71159 -0.028762 0.04095 0.030756 0.24137 -0.12149 0.050321 
-0.049478 0.45955 -0.044381 0.033058 0.027468 0.099152 -0.10061 0.078436 
0.0069159 0.098001 -0.028926 0.03947 0.035031 -0.058521 -0.043066 0.064132 
0.064461 -0.13777 0.034373 0.009711 0.0011614 -0.12264 0.013657 0.040456 
0.06594 -0.18528 0.049828 0.035688 0.013328 -0.085485 0.050486 0.023357 
0.019905 -0.14681 0.03092 0.019083 0.026481 0.016288 0.08304 0.0064227 
0.041443 -0.16243 0.0085601 0.023193 0.030263 0.077285 0.082711 0.019576 
0.064132 -0.2208 0.0056006 0.012999 0.056076 0.079587 0.033222 0.027468 
0.04654 -0.15848 0.02122 0.04095 0.047033 0.03947 0.045553 0.046046 
0.0087245 -0.070852 0.03651 0.06183 0.0421 0.0018191 -0.0040998 -0.0016336 
-0.040928 -0.023665 0.082053 0.037497 0.029112 -0.040764 0.019083 0.017438 
-0.022679 -0.20682 0.159 0.041443 0.016781 -0.03353 -0.0039354 0.011191 
0.018918 -0.49882 0.23496 -0.010841 0.0098754 -0.021199 -0.011827 0.022371 
0.029441 -0.62114 0.17856 0.00066819 0.016945 0.0016547 0.032236 0.0070803 
0.058213 -0.58843 0.075312 -0.013636 -0.0029489 0.0042853 0.052952 0.024344 
0.03388 -0.12133 -0.059014 0.028947 0.0079024 0.038977 0.029769 0.025659 
0.019247 0.2976 -0.077922 0.05065 0.049006 0.033058 0.038648 0.062488 
0.021878 0.42666 -0.064111 0.036182 0.043909 0.059693 0.0023123 0.078272 
1.0539e-005 0.23923 -0.025474 0.043416 0.036346 0.080409 0.053116 0.048677 
-0.021856 -0.039449 0.023028 0.040785 0.030098 0.10984 0.030592 0.020727 
-0.058521 0.03651 0.048348 0.052459 0.019411 0.097672 0.048348 0.034866 
-0.04882 0.17593 0.071859 0.022864 0.02533 0.048677 0.059035 -0.00081153 
0.017438 0.27606 0.074819 0.043416 0.026152 0.029934 0.0324 0.016945 
0.024837 0.3244 0.074161 0.026974 0.010862 0.027796 0.023193 0.045882 
0.015794 0.32539 0.060515 0.030098 0.019576 0.048841 0.0060938 0.1465 
0.013657 0.32637 0.036017 0.028619 0.0227 0.020562 0.01826 0.12201 
0.051472 0.36156 -0.0029489 0.052459 0.044896 -0.0138 0.11099 0.046375 
0.0037921 0.23956 0.011355 0.069722 0.031578 0.0037921 0.09126 -0.01232 
0.047362 -0.17345 0.033058 0.041114 0.035031 0.026974 0.147 -0.016431 
0.051801 -0.33079 0.064296 0.041114 0.0067515 0.00017495 0.12201 -0.028926 
0.086492 -0.38932 0.070873 0.023851 0.033222 0.015301 0.10704 0.016452 
0.083862 -0.25187 0.045553 0.013821 0.005765 0.0024767 0.068736 0.062488 
0.070708 -0.031886 0.0421 0.0034632 0.0067515 -0.0060728 0.0054362 0.060022 
0.032564 0.093891 0.013986 0.0092177 0.018425 0.0082312 -0.089266 0.098166 
0.030592 0.17281 0.023522 0.026317 0.01974 -0.023665 -0.1723 0.14963 
0.020233 0.19139 0.024837 0.017438 0.031249 -0.031886 -0.20847 0.10918 
0.01004 0.22986 0.046375 0.061501 0.0324 -0.012156 -0.050464 0.029769 
0.042265 0.26735 0.066434 0.039141 0.03947 0.02122 0.089616 -0.033201 
0.033222 0.28938 0.051143 0.041114 0.016288 0.027961 0.15719 -0.067564 
0.025988 0.15768 0.033551 0.029769 0.020562 0.038977 0.1641 -0.097487 
0.016781 0.0085601 0.019083 0.059857 0.010697 0.0018191 0.08715 -0.077593 
0.031249 0.058213 -0.011992 0.026974 0.012342 0.027468 0.079751 0.015137 
0.10589 0.14913 -0.050629 0.01563 -0.00081153 0.007738 0.056076 0.087643 
0.23167 0.22855 -0.071674 0.043087 0.0082312 0.024179 0.01004 0.11559 
0.20783 0.17708 -0.050958 0.01974 0.022371 -0.011992 0.01152 0.094548 
0.071037 0.17824 -0.027282 0.047691 0.022371 -0.038791 -0.035503 0.063145 
-0.018897 0.171 -0.011992 0.018096 0.01826 -0.074304 -0.044546 0.049006 
0.055089 0.1927 -0.029913 0.03388 1.0539e-005 -0.079566 -0.022021 0.05476 
0.12924 0.18267 -0.0044286 0.0042853 0.0011614 -0.081868 -0.01117 0.037332 
0.15604 0.067091 0.01974 -0.0024557 0.015465 -0.096336 0.037497 0.048677 
0.10721 -0.018897 0.041443 0.0075736 0.013657 -0.12198 0.038155 0.048184 
0.0011614 -0.10291 0.039799 0.0072447 0.029276 -0.11245 0.048841 0.02681 
-0.099295 -0.15783 0.040785 0.053116 0.036017 -0.06444 0.060186 0.0046141 
-0.099624 -0.36745 0.030263 0.055089 0.035195 -0.035832 0.041114 -0.0031133 
-0.078086 -0.47942 0.057391 0.041278 0.035688 0.070051 0.064625 -0.013965 
-0.121 -0.1062 0.018425 0.027961 0.020727 0.14387 0.038483 0.0098754 
-0.24332 0.20471 0.0069159 0.035853 0.012013 0.31897 0.01415 0.031907 
-0.1695 0.36468 0.010862 0.028947 0.047691 0.51956 0.019576 0.032564 
0.044896 0.52055 0.01711 0.020069 0.042594 0.65684 0.049992 0.038319 
0.2588 0.58598 0.023028 0.051636 0.042758 0.38474 0.050486 0.041607 
0.34528 0.43702 0.018096 0.020233 0.023028 -0.033037 0.036017 0.034373 
0.27836 0.21885 0.020069 0.053938 0.011355 -0.30004 0.028454 0.045882 
0.19024 0.12414 0.047691 0.016781 0.034702 -0.27292 0.034044 0.044567 
0.12118 0.27623 0.030592 0.0051074 0.017767 -0.20025 0.042594 0.049992 
0.18991 0.47303 0.0011614 -0.0078813 0.033715 -0.20863 -0.014951 0.064461 
0.29612 0.37783 -0.054082 0.022864 -0.016595 -0.22441 0.01711 0.06331 
0.31536 -0.2083 -0.035996 0.0070803 0.0062583 -0.15174 0.0026412 0.039141 
0.064461 -0.83784 0.025001 0.014643 0.029934 -0.05589 0.044731 0.00297 
-0.14681 -0.59928 -0.0032777 0.019247 0.043909 0.0013258 0.056733 0.010369 
-0.28788 -0.19268 0.021549 0.016616 0.030592 0.12332 0.079258 -0.068386 
-0.34197 -0.14993 0.065612 0.051143 0.065776 0.15785 0.11428 -0.047176 
-0.38817 -0.23822 0.070544 0.020891 0.037004 0.16837 0.058871 -0.024816 
-0.39606 -0.26354 0.080244 0.0074092 0.054267 0.097015 0.051308 0.044731 
-0.22063 -0.41004 0.083862 0.017438 0.046046 0.079422 -0.00064712 0.065447 
0.057062 -0.3954 0.10162 0.0092177 0.037661 0.089123 -0.0090322 0.096028 
0.26176 -0.27604 0.10606 0.020398 0.055582 0.098988 -0.0014692 0.074326 
0.33213 -0.17147 0.16607 0.00297 0.033222 0.058542 -0.042737 0.062981 
0.29694 -0.14122 0.18267 0.042265 0.025659 0.020233 -0.027775 0.044567 
0.17462 -0.017911 0.13631 -0.014293 0.022206 -0.0016336 -0.0138 0.047362 
-0.052437 0.42173 0.05772 0.035688 0.045718 0.017767 0.010369 0.015301 
-0.15059 0.89409 -0.045368 0.035853 0.038155 0.041607 0.085506 0.0024767 
-0.045696 0.83178 -0.064604 0.062488 0.052623 -0.023665 0.075312 0.0098754 
0.098659 0.40151 -0.0082102 0.0324 0.011684 0.053445 0.10491 0.020562 
0.1562 0.064132 0.040128 0.027139 0.048677 0.041936 0.1391 0.0085601 
0.18826 -0.19893 0.098494 0.047855 0.046375 0.032893 0.13088 0.012999 
0.083862 -0.26108 0.079422 0.026152 0.057062 0.025495 0.062817 0.026646 
-0.014951 -0.24612 0.046704 0.044896 0.037004 0.076792 0.030098 0.032236 
-0.072332 -0.20485 0.054432 0.026481 0.032564 0.11231 0.047033 0.010204 
-0.067399 -0.10817 0.0592 0.051143 0.030263 0.16755 0.029112 0.012013 
-0.050629 -0.08384 0.024837 0.0227 0.028125 0.21243 0.0075736 0.013492 
-0.01939 -0.085813 -0.0031133 0.06183 0.057227 0.059035 0.013821 0.02829 
0.018425 -0.088115 0.01563 0.086657 0.0421 -0.1575 -0.00031829 0.036017 
0.014315 -0.055561 0.081724 0.016945 0.032071 -0.25483 -0.033365 0.0324 
-0.05885 0.016781 0.11115 0.025988 -0.0039354 -0.18676 -0.012649 0.016452 
-0.07562 0.034044 0.12398 -0.016266 -0.0049219 -0.0091966 -0.014787 0.029605 
-0.091897 -0.035503 0.10277 0.0098754 0.0074092 0.1516 -0.0096899 0.01004 
-0.052437 0.0079024 0.06183 0.0074092 0.019905 0.08567 0.035853 -0.0031133 
0.017438 0.13105 0.029276 0.016452 0.016452 -0.012649 0.040292 0.016452 
0.10737 0.13203 0.015137 0.024179 0.0044497 -0.074633 0.048841 0.030098 
0.15374 0.11954 0.0085601 0.018589 0.016123 -0.0042642 0.038648 0.055582 
0.11559 0.11066 0.0023123 0.048184 0.013657 0.09422 0.026646 0.051308 
0.078107 0.11247 0.004943 0.032729 0.025495 0.15324 0.0034632 0.051143 
0.021713 0.15719 -0.011334 0.0592 0.06594 0.13401 0.033222 0.047855 
-0.014129 0.20076 -0.034681 0.05065 0.058706 0.094384 0.087643 0.034702 
-0.027775 0.16985 -0.00015387 0.066434 0.085835 0.029769 0.06594 -0.0014692 
0.0067515 0.12217 -0.041422 0.083368 0.052459 -0.031886 0.040785 -0.0027845 
-0.014622 0.23529 0.07449 0.033222 0.01563 -0.088937 -0.041422 0.021878 
-0.073482 0.30155 0.077778 0.089616 0.047526 -0.0868 -0.11968 0.12431 
-0.074633 0.30155 0.025166 0.048184 0.018589 -0.10653 -0.074469 0.015959 
-0.0044286 0.34068 0.012342 0.066927 0.047197 -0.13859 -0.090417 0.0021479 
0.093233 0.2394 -0.048985 0.026646 0.011848 -0.052273 -0.064275 0.024673 
0.1641 0.021056 -0.03912 0.014479 -0.0083746 -0.012485 0.083862 0.053938 
0.16081 -0.044381 -0.04471 0.016288 -0.00031829 0.046211 0.1932 0.039141 
0.082217 0.17856 -0.0087034 0.0023123 -0.001798 0.11477 0.30862 0.037168 
0.020562 1.0539e-005 0.049992 -0.012485 0.031742 0.20421 0.31815 -0.0004827 
0.046375 -0.83242 0.076627 0.01415 0.043087 0.23381 0.16262 0.011191 
0.085341 -1.277 0.092247 0.039634 0.053609 0.18448 -0.020541 0.0227 
0.062159 -0.54716 0.077449 0.034866 0.057062 0.044238 -0.12067 -0.0039354 
0.039634 0.49325 0.043251 0.048019 0.048184 -0.046354 -0.1159 -0.029748 
0.048677 0.97318 0.01563 0.02122 0.022371 -0.09091 -0.045368 0.0095465 
-0.0060728 0.96644 0.0592 0.024179 0.027139 -0.073976 -0.041257 0.04358 
0.0039565 0.68167 0.0052718 0.0056006 -0.00081153 -0.064275 0.0037921 0.041607 
-0.00064712 0.33607 -0.0068948 0.015465 0.012999 -0.064111 0.095864 0.059693 
0.013986 0.036675 0.018754 0.029934 0.017274 -0.014951 0.079751 0.074983 
-0.006566 -0.1353 0.024015 0.024015 0.0056006 -0.041586 -0.078579 0.072024 
-0.030242 -0.14385 0.02681 0.041443 -0.00097594 -0.013471 -0.072332 0.013821 
-0.044052 -0.14155 0.046046 0.0095465 0.010697 -0.019061 0.024673 -0.0082102 
-0.074798 -0.059672 0.017274 0.017438 0.016781 0.010697 0.052787 0.013657 
-0.047669 0.024837 -0.0072237 0.012177 0.021056 0.026646 0.090438 0.020069 
0.0042853 0.13056 -0.051287 0.032071 0.029605 0.06479 0.13236 0.026646 
0.079094 0.15703 -0.022185 0.044567 0.028947 0.039634 0.11132 0.043087 
0.23775 0.04654 0.012835 0.013492 0.011355 0.045389 0.061666 0.076956 
0.317 -0.066577 0.032236 0.049664 0.0032988 0.010862 0.0069159 0.09685 
0.21375 -0.10456 0.025001 -0.0036066 0.0064227 -0.017746 -0.039284 0.077121 
0.033387 -0.045696 0.053116 0.037004 0.0064227 -0.033365 -0.0031133 0.040128 
0.0032988 -0.015938 0.055418 0.027139 0.026317 -0.01676 -0.0070593 -0.0054151 
0.11888 -0.031886 0.057062 0.031085 0.027468 0.016123 0.018096 -0.049314 
0.19024 -0.036489 0.086492 -0.0036066 0.042594 0.0093821 0.031907 -0.063124 
0.1733 -0.074798 0.080244 0.013328 0.032236 0.02829 0.037168 0.00066819 
0.05772 0.011684 0.090274 0.02681 0.026152 0.016945 0.057555 0.016452 
-0.080717 0.070544 0.068407 -0.0068948 0.025824 0.040785 0.056898 0.054103 
-0.15388 0.14321 0.053774 0.048184 0.019411 0.0044497 0.03536 0.029769 
-0.17131 0.1909 0.022371 0.024673 0.015301 0.016781 0.038155 0.045224 
-0.15076 0.19188 0.0072447 0.056569 0.021549 0.0056006 0.018918 0.057555 
-0.14451 0.19451 0.074983 0.052459 0.031578 0.023686 0.040128 0.049992 
0.025824 0.06742 0.04654 0.019247 0.012177 0.0070803 0.01563 0.057391 
0.041607 -0.015609 0.0047785 0.057884 0.00099702 0.0032988 0.019905 0.027139 
0.10672 0.0082312 0.019411 0.07301 -0.042737 -0.003771 0.042923 0.01267 
0.078107 0.16821 -0.018404 0.044402 0.026646 0.01152 0.0037921 0.047197 
0.069558 0.14075 -0.051944 0.033715 0.041114 -0.022021 0.047855 0.039305 
0.067256 0.11099 -0.033201 0.071202 0.045389 0.028125 0.061995 0.013986 
0.12612 0.12217 -0.028433 0.06742 0.067091 0.040785 0.071859 0.01267 
0.25485 0.15045 0.013986 0.045882 0.050979 0.025659 0.043416 0.030263 
0.20668 0.14387 0.04654 0.012999 0.053116 0.037004 0.0070803 0.067749 
0.021878 0.039634 0.064296 0.020562 0.046868 0.016616 0.00033937 0.088465 
-0.085813 -0.02794 0.054432 0.070215 0.052952 0.045389 0.014808 0.034044 
-0.08828 -0.080059 0.045389 0.038812 0.053116 0.051143 -0.018075 0.01563 
-0.061645 -0.18035 0.047526 0.079258 0.055254 0.071037 0.041278 0.0026412 
-0.064111 -0.62854 0.07597 0.039963 0.027961 0.057884 0.029934 -0.023007 
-0.053753 -1.0692 0.14206 0.0093821 0.017438 0.04654 0.011026 0.025166 
-0.023336 -0.64844 0.16442 -0.016431 0.007738 0.024508 0.024673 0.044402 
0.019905 -0.2037 0.10787 -0.014293 0.0090533 0.029769 -0.027118 0.057227 
0.10162 0.25271 0.037826 0.0047785 0.015794 0.011191 -0.0039354 0.046868 
0.13236 0.66918 -0.030242 0.023357 0.024015 0.0072447 0.015959 0.057884 
0.17445 0.88735 -0.069372 0.058706 0.037332 -0.0050863 0.0046141 0.033715 
0.13401 0.7943 -0.11574 0.045718 0.055254 -0.0075525 0.041936 0.045718 
0.0064227 0.42469 -0.098309 0.051472 0.045882 0.0032988 0.067749 0.022371 
-0.036818 0.073339 -0.068221 0.023851 0.041772 -0.0031133 0.093562 0.0060938 
-0.036325 -0.22622 0.01152 0.03388 0.076956 0.042923 0.13647 -0.014787 
-0.035174 -0.25746 0.10918 0.031907 0.051472 0.034702 0.12266 0.017932 
-0.045532 -0.17723 0.17314 0.0018191 0.041278 0.047691 0.14206 0.010533 
-0.13629 -0.17756 0.17824 0.046046 0.025824 0.017438 0.11674 0.01152 
-0.1062 -0.12971 0.1105 0.02829 0.0072447 0.062652 0.048348 0.018918 
0.0056006 -0.099295 -0.0098543 0.058377 0.029605 0.04654 -0.10423 0.046704 
0.090767 -0.06 -0.019555 0.033387 0.024508 0.12529 -0.14944 0.031907 
0.06479 -0.05737 -0.0054151 0.038483 0.037661 0.24729 0.013492 -0.015938 
-0.042244 -0.050464 0.012013 0.019247 0.034537 0.23183 -0.0027845 0.0069159 
-0.084498 -0.061151 0.017767 0.010369 0.039799 0.056404 -0.064933 0.023193 
-0.121 -0.062631 0.02829 0.026974 0.023193 -0.10801 -0.029255 0.033222 
-0.1718 -0.032379 0.051143 0.021878 0.021549 -0.11886 0.027468 0.020727 
-0.034188 -0.013307 0.057062 0.040128 0.02681 -0.062138 0.050979 0.078929 
0.31651 0.06594 0.05213 0.014479 0.026317 0.014315 -0.022514 0.12792 
0.45938 0.086492 0.053445 0.021878 0.02533 0.082217 -0.012649 0.10639 
0.27524 0.16015 0.01826 0.01415 0.031578 0.20372 0.10277 0.036017 
-0.036983 0.33065 -0.022843 0.024015 0.018754 0.19369 0.12792 0.048677 
-0.11393 0.43357 -0.037311 0.018589 0.0074092 0.028619 0.088465 0.017932 
-0.081045 0.38622 -0.02235 0.01415 0.086163 -0.084991 0.057062 0.0072447 
-0.10883 0.21737 -0.006566 0.036839 0.01974 -0.12889 0.033222 -0.004593 
-0.18068 0.16969 -0.019884 0.029441 -0.0042642 -0.065262 0.10573 -0.010183 
-0.17065 0.047197 0.047526 0.044567 0.019083 -0.048492 0.04095 0.028783 
-0.066084 0.086163 0.0689 0.018754 0.016781 -0.028269 0.048348 0.017274 
-0.00031829 0.13171 0.077943 -0.006566 0.02681 -0.031064 0.050979 -0.017582 
0.099974 0.08419 0.06183 0.0064227 0.012177 0.024179 0.024179 0.021056 
0.17051 0.018918 0.062981 0.024508 0.0051074 0.058706 0.057227 0.05213 
0.15456 -0.44999 0.10392 0.027632 0.020891 0.13302 0.066105 0.05624 
0.060515 -0.67557 0.15571 0.010862 0.0060938 0.16903 0.061008 0.053938 
0.13384 -0.48304 0.15094 0.022206 0.009711 0.20602 0.04506 0.085341 
0.4048 -0.42747 0.11033 -0.0024557 0.030427 0.2486 0.0026412 0.095371 
0.51002 -0.28278 0.061008 0.038483 0.062981 0.28247 0.024508 0.087479 
0.30993 0.2149 -0.025638 0.038483 0.058542 0.13582 0.03092 0.039141 
0.032893 0.67625 -0.063124 0.051965 0.02681 -0.070523 0.022371 0.0016547 
-0.1912 0.75319 -0.047176 0.053938 0.040785 -0.21389 0.045718 -0.015938 
-0.24497 0.58401 -0.017253 0.060022 0.0324 -0.19515 0.040292 -0.0054151 
-0.17936 0.27047 0.041278 0.060186 0.024508 -0.15158 0.0083956 -0.0060728 
-0.11212 0.14749 0.085177 0.0227 0.022042 -0.021034 -0.00081153 0.0098754 
-0.077593 0.20668 0.066763 0.054432 0.034866 0.11378 -0.017253 0.025988 
-0.072332 0.2366 0.028125 0.017932 0.047691 0.17939 0.070873 0.032564 
-0.049314 0.12217 0.0075736 0.039141 0.048019 0.10803 0.096686 0.0039565 
0.01152 -0.041422 0.0056006 0.02829 0.025001 -0.0098543 0.097672 0.012999 
0.063145 -0.083676 0.025824 0.022042 0.018425 -0.04882 0.072024 0.021384 
0.089616 -0.071838 0.062159 0.041607 0.025495 -0.091075 0.028454 0.04095 
0.073668 -0.009361 0.082382 0.02681 0.026317 -0.051287 0.0087245 0.023851 
0.084355 0.0080668 0.076299 0.035524 0.0088889 -0.050629 -0.049149 0.038155 
0.081231 -0.039284 0.050321 0.019411 -0.0032777 -0.027775 -0.055397 0.041278 
0.080573 -0.010512 0.022535 0.028619 -0.0052507 -0.018897 0.0026412 0.034209 
0.12283 -0.041586 0.024179 0.0032988 0.01415 0.0018191 0.046704 0.015959 
0.18843 -0.12116 0.048348 0.0028056 0.019247 -0.026953 0.081067 0.019905 
0.24022 -0.34279 0.070708 0.0093821 0.011026 -0.0078813 0.11773 0.0080668 
0.10737 -0.37058 0.058377 0.023357 0.023028 0.013986 0.15341 -0.017746 
-0.0067304 -0.16736 0.01563 0.036346 0.031578 0.075641 0.1904 -0.036983 
-0.10505 0.03536 0.014808 0.031414 0.037826 0.15949 0.1567 -0.073154 
-0.099789 0.017438 0.010862 0.052459 0.024508 0.12842 0.15604 0.0083956 
-0.076935 -0.027447 0.013986 0.024179 0.010533 0.023522 0.057555 0.12809 
-0.042079 -0.059178 0.0065871 0.04358 0.010369 -0.08384 -0.11393 0.2121 
0.0034632 0.05624 0.012835 0.025824 0.0098754 -0.1376 -0.19942 0.11888 
-0.028926 0.34248 -0.02942 0.041278 0.019576 -0.12133 -0.13563 0.0079024 
-0.055232 0.5212 -0.047505 0.045553 0.013164 -0.0088678 -0.057205 -0.096665 
-0.085156 0.41976 -0.054739 0.048513 0.051636 0.04506 0.020233 -0.045368 
0.0087245 0.32604 -0.023336 0.098988 0.011191 0.060022 -0.047998 0.011848 
0.13319 0.13631 0.052459 -0.0034422 0.0082312 -0.025309 0.027796 0.1077 
0.084684 0.12332 0.077285 0.011355 -0.029255 0.024015 0.029441 0.074161 
0.018589 0.25715 0.033222 0.016616 0.005765 0.057555 0.10589 0.07038 
-0.01939 0.27919 -0.017088 0.023028 0.010204 0.073175 0.14289 -0.01117 
-0.014622 0.080244 -0.013471 0.029276 0.0018191 0.13483 0.11148 -0.10225 
0.013986 -0.23017 0.00033937 0.02829 0.0085601 0.13631 0.068242 -0.13201 
0.010862 -0.27111 0.055089 0.045553 0.0093821 0.018096 0.018918 -0.081045 
-0.029913 0.11214 0.081231 0.0032988 0.0019835 -0.12527 -0.032872 0.015137 
-0.039449 0.33722 0.098659 0.054103 -0.0055795 -0.13349 -0.016431 0.098988 
-0.02498 0.1396 0.037661 0.030263 0.005765 -0.10768 -0.029913 0.10935 
-0.0042642 0.0227 -0.025638 0.048841 0.034209 -0.012485 -0.013471 0.08978 
0.017932 0.040456 -0.056877 0.01711 0.074161 0.0059294 0.023028 0.043745 
0.018425 0.055747 -0.068057 0.063639 0.06331 0.033551 0.012999 0.028947 
0.034209 0.086985 -0.027118 0.073504 0.072681 0.015794 0.048348 0.025001 
0.050486 0.055089 0.0095465 0.025988 0.057062 0.043416 0.02681 0.046704 
0.11247 0.035524 0.018425 0.034702 0.02681 0.079751 0.011848 0.069722 
0.12266 0.022042 0.025166 0.012506 0.032564 0.080902 0.034702 0.052294 
0.072517 0.026481 0.029934 0.039305 0.037661 0.05213 0.016616 0.044402 
0.019411 0.021384 0.072846 0.026317 0.024344 0.062981 0.044238 0.037661 
-0.013307 0.0041209 0.053445 0.041443 0.043251 0.047691 0.013821 0.02122 
-0.012814 0.057227 0.06183 0.037332 0.044402 0.027468 -0.00031829 0.01267 
0.019411 0.090274 0.054267 0.01974 0.04358 0.058049 0.0227 0.019083 
0.024508 0.11937 0.047526 0.030592 0.02533 0.034373 0.016123 0.053116 
0.040785 0.10672 0.07301 -0.011827 0.0095465 0.040292 0.026481 0.050814 
0.041114 0.071531 0.091425 0.020398 0.012177 0.019411 0.014808 0.032893 
0.042265 0.06479 0.11559 -0.0087034 -0.0059084 0.03388 0.026646 0.05476 
0.06479 0.032236 0.049499 0.036182 0.026974 0.022042 0.034866 0.039799 
0.056076 0.079258 0.027139 0.056733 0.05065 0.037332 0.040621 0.037168 
0.043745 0.085999 0.00066819 0.052294 0.044896 0.028619 0.038483 0.011355 
0.027303 0.03092 0.0090533 0.060022 0.056733 0.038319 0.034373 0.0031344 
0.0227 -0.083347 0.029112 0.035195 0.041607 0.02681 0.029276 0.023357 
0.048019 -0.12642 0.023193 0.070873 0.044073 0.032729 0.042758 0.03536 
0.040128 -0.095843 0.020398 0.046046 0.04654 0.03092 0.054267 0.004943 
0.01974 -0.072003 0.016945 0.046046 0.048348 0.034209 0.040128 0.012013 
0.02829 -0.041586 0.036182 0.0067515 0.042594 0.030427 0.03651 0.034702 
0.066763 -0.0013048 0.066927 0.0088889 0.041607 0.021713 0.021384 0.049006 
0.10129 0.096193 0.042923 0.023522 0.01004 -0.026296 0.04654 0.048184 
0.07301 0.16771 0.028783 0.013986 0.02533 0.023357 0.031742 0.018918 
0.049992 0.28478 0.041278 0.047033 0.040128 0.073668 0.051472 0.019083 
0.026481 0.19829 0.054925 -0.0055795 0.074161 -0.009361 0.050979 0.037332 
0.031414 -0.42286 0.1248 0.016945 0.01826 0.021878 0.016288 0.025001 
0.02829 -0.94455 0.13499 -0.029255 0.0090533 0.013657 0.038155 0.047033 
0.017603 -0.55028 0.087643 0.018425 0.016945 0.010862 0.027139 0.036017 
-0.016431 0.12513 -0.024652 0.038648 0.029112 0.0047785 0.01711 0.021384 
-0.00081153 0.4071 -0.043724 0.027303 0.022371 0.016452 0.046375 -0.00064712 
0.051472 0.34692 -0.021528 0.046704 0.021549 -0.0021268 0.016452 0.0092177 
0.087314 0.22082 0.032236 0.024015 0.031085 0.00297 0.043416 0.03092 
0.099481 0.039799 0.060679 0.039305 0.034702 0.026646 0.038648 0.03536 
0.042758 -0.0049219 0.065612 0.019576 0.032071 0.02122 0.018918 0.017274 
0.03092 -0.029255 0.020233 0.03947 0.013492 0.020891 0.038812 0.029276 
0.036675 -0.096829 0.031742 0.027961 0.0069159 0.0098754 0.026481 0.037004 
0.039141 -0.22704 0.030263 0.028783 0.015959 0.027303 0.025824 0.056733 
0.037826 -0.087293 0.018425 0.020727 0.019247 0.023522 0.023522 0.050979 
-0.014129 0.15735 0.027632 0.012342 0.014315 0.034702 0.040785 -0.0072237 
-0.054904 0.14831 0.025988 0.046375 0.036839 0.028454 0.055582 0.014808 
-0.025638 0.071037 0.017932 0.034209 0.033551 0.049499 0.044073 0.014479 
0.023028 -0.010841 0.031085 0.050979 0.038483 0.028619 0.045389 0.036346 
0.13023 -0.01676 0.030098 0.0095465 0.04358 0.02122 0.042429 0.051472 
0.13467 -0.013471 0.052623 0.017438 0.013164 0.004943 0.021713 0.053116 
0.089287 -0.034188 0.050321 0.0060938 0.020891 0.025001 0.023193 0.049664 
0.084355 -0.03912 0.035688 0.0083956 0.016945 0.012506 0.015959 0.077285 
0.068736 -0.12988 0.031578 0.01267 0.020562 0.011355 0.023028 0.035195 
0.070215 -0.088608 0.046046 0.0037921 0.0052718 0.027139 0.031907 0.022206 
0.038812 0.052294 0.058213 0.040621 0.010369 0.010369 0.024673 0.033058 
-0.014951 0.15883 0.044073 0.015137 0.023851 0.037332 0.012999 0.043251 
-0.056548 0.18711 0.023193 0.042265 0.02829 0.032236 0.036839 0.014479 
-0.047834 0.17265 0.013164 0.0090533 0.030263 0.036017 0.031414 0.019411 
0.0018191 0.16393 0.037004 0.027961 0.021713 0.024837 0.05065 0.01974 
0.02681 0.099974 0.040785 0.014808 0.011848 0.0227 0.032071 0.043251 
0.014972 0.093891 0.0044497 0.023851 0.014315 0.019247 0.03092 0.038648 
0.01415 0.075641 0.0019835 0.053774 0.0046141 0.017767 0.031414 0.032236 
0.01826 0.10441 0.0032988 0.012177 0.014972 0.018096 0.020398 0.03947 
0.030756 0.1031 0.0069159 0.052459 0.029441 0.011684 0.040785 0.03092 
0.011026 0.089287 0.027632 0.014479 0.058871 0.029605 0.036182 0.026646 
0.0021479 0.11296 0.042429 0.026974 0.026152 0.028125 0.026974 0.016123 
0.0093821 0.17199 0.064132 0.024837 0.011848 0.045224 0.038319 0.026974 
0.038319 0.21375 0.020727 0.0072447 0.057227 0.013821 0.024673 0.03536 
0.054432 0.21095 0.037497 0.041772 0.018754 0.044073 0.035853 0.043416 
0.0011614 0.1761 0.070708 -0.001798 0.060186 -0.0040998 0.045389 0.0023123 
0.040128 0.10622 0.067585 0.063474 0.020233 0.0324 0.028454 0.029276 
0.01826 -0.15914 0.029276 0.014643 0.028454 0.0088889 0.10606 0.0227 
0.02533 -0.2864 0.054103 0.044402 0.023686 0.035031 0.030592 0.041772 
0.043745 -0.11639 0.034044 0.035195 0.033387 0.023851 0.035195 0.016452 
0.042923 0.18004 0.00066819 0.046868 0.043745 0.020069 0.032236 0.035524 
-0.00097594 0.32818 -0.0032777 0.034209 0.032564 0.020727 0.025824 0.018754 
-0.02235 0.40661 -0.017746 0.0324 0.044567 0.025001 0.033058 0.011026 
-0.057863 0.38425 -0.015773 0.048513 0.028947 0.009711 0.023851 0.0093821 
-0.066248 0.32029 -0.022185 0.02829 0.064461 0.011684 0.027303 0.013492 
0.0047785 0.18514 0.00017495 0.048348 0.034044 0.016288 0.023686 0.01974 
0.029112 -0.011663 0.03947 0.026974 0.037826 0.01267 0.015301 0.037004 
0.066269 -0.09946 0.06479 0.036675 0.054103 0.055582 0.054432 0.027468 
0.12036 -0.25795 0.087643 0.03388 0.047855 0.03092 0.019247 0.03092 
0.10145 -0.33539 0.12349 0.051636 0.04917 0.049006 0.030756 0.0072447 
0.019247 -0.18052 0.11839 0.044073 0.048841 0.040621 0.041607 0.025659 
-0.02794 -0.041422 0.10277 0.034044 0.030756 0.048019 0.014808 0.011848 
-0.05885 -0.042408 0.084848 0.034866 0.032071 0.0052718 0.046704 0.020398 
-0.0075525 -0.22096 0.093891 0.020891 0.03388 0.0072447 0.025659 0.038812 
0.060679 -0.072332 0.030592 0.037168 0.046211 0.0014903 0.022206 0.055911 
0.16673 0.32933 -0.029584 0.022206 0.031414 -0.013307 0.026481 0.06594 
0.1174 0.56905 -0.086142 0.025166 0.027632 -0.015444 0.010862 0.021713 
0.015465 0.51035 -0.086964 0.043416 0.045718 0.0095465 0.033387 0.0013258 
-0.059672 0.2588 -0.060329 0.058542 0.055089 0.036346 0.036017 -0.0039354 
-0.095185 0.069558 -0.017088 0.058542 0.043251 0.045553 0.03388 -0.014293 
-0.042573 -0.060823 0.019083 0.020398 0.037168 0.048348 0.043416 -0.011005 
-0.010841 -0.097816 0.039141 0.049664 0.027139 0.050814 0.016781 0.040785 
0.022206 -0.13037 0.043251 0.014808 0.028783 0.058213 0.031249 0.028454 
0.08156 -0.13037 0.061501 0.019905 0.027796 0.064954 0.044402 0.033551 
0.086821 -0.090417 0.0786 0.018096 0.043087 0.061501 0.031742 0.031085 
0.081395 -0.066577 0.063145 0.031249 0.020398 0.03536 0.063474 0.028783 
0.047526 -0.023336 0.084519 0.030592 0.014643 0.027632 0.023522 0.03799 
0.0069159 -0.0052507 0.065283 0.019411 0.030427 0.0083956 0.015959 0.035031 
-0.045368 0.035853 0.026481 0.060022 0.035195 0.013492 0.036346 0.03947 
-0.00031829 0.027303 0.047033 0.018096 0.036346 -0.0013048 0.023357 0.037497 
0.14831 0.042758 0.059035 0.0051074 0.0072447 -0.014787 0.0324 0.079587 
0.22871 0.099481 0.052294 -0.0073881 -0.010676 -0.01232 0.00033937 0.0786 
0.1026 0.18958 0.017767 -0.0049219 0.0067515 0.010862 0.022535 0.035524 
0.062981 0.17807 -0.0138 0.017603 0.0083956 0.011026 0.031249 0.039634 
0.026646 0.15933 -0.060658 0.03388 0.017438 0.0044497 0.016123 0.0324 
-0.058192 0.056076 -0.013307 0.038977 0.012999 0.076463 0.01152 0.0064227 
-0.06707 0.051308 -0.0021268 0.033551 0.031578 0.042429 0.051143 -0.014458 
-0.063618 0.050979 -0.020541 0.062652 0.05624 0.073339 0.063968 1.0539e-005 
-0.11935 0.10195 0.0064227 0.026481 0.031085 0.035853 0.0592 0.013164 
-0.098309 0.17544 -0.0016336 0.040456 0.03092 0.029934 0.034209 0.03651 
-0.054739 0.17149 -0.017253 0.034702 0.022371 0.024344 0.01152 0.012835 
0.074654 0.14009 -0.019226 0.033715 0.013164 -0.0027845 0.0019835 -0.01676 
0.093398 0.15522 -0.019061 0.036346 0.027303 0.0013258 -0.039778 0.01267 
0.080738 0.18876 -0.0026201 0.029605 0.041772 0.014972 0.037497 0.044896 
0.060186 0.21095 0.027468 0.04358 0.027139 -0.010512 0.026317 0.044896 
0.046704 0.15292 0.0227 0.019083 0.021549 0.024179 0.022864 0.042429 
0.14864 -0.016102 0.041443 0.040292 0.018918 0.034044 0.012506 0.052459 
0.23068 -0.12067 0.046211 0.027961 0.014643 0.00050378 -0.0062372 0.072188 
0.18646 -0.37683 0.042923 0.023686 0.034209 -0.0016336 0.05476 0.047197 
0.060679 -0.53236 0.088136 0.010369 0.011026 -0.0044286 0.095206 -0.0055795 
-0.070852 -0.43306 0.12513 -0.0022913 0.0046141 0.009711 0.097179 0.013328 
-0.11196 -0.32158 0.20783 -0.0034422 0.0021479 -0.026624 0.076627 0.034209 
-0.06 -0.23905 0.21802 -0.01528 -0.0068948 -0.036818 0.030098 0.045389 
0.022042 -0.1108 0.19714 0.025988 -0.00097594 -0.086964 0.0039565 0.067256 
0.059035 0.26258 0.14124 0.0032988 0.014643 -0.10012 -0.020541 0.037004 
0.069064 0.33673 0.093891 0.026646 0.028947 -0.11343 -0.068879 0.059693 
0.10984 0.25452 0.031085 0.024837 0.018754 -0.098802 -0.048492 0.071366 
0.037497 0.36386 -0.052437 0.041443 0.01152 -0.080223 -0.048656 0.020398 
-0.12642 0.47911 -0.10686 0.072353 0.044731 0.057062 -0.0090322 -0.028269 
-0.18167 0.39132 -0.098967 0.059035 0.047526 0.20914 0.048184 -0.027118 
-0.077757 0.1322 -0.056877 0.0689 0.036346 0.24071 0.047526 -0.027118 
0.027961 0.0042853 -0.031064 0.036839 0.048677 0.14239 0.1562 -0.012156 
0.10129 -0.053917 -0.0019624 0.055254 0.030427 -0.019226 0.26505 0.01711 
0.094713 -0.040106 0.046375 0.018754 0.027468 -0.040928 0.34988 0.048184 
0.022371 -0.093048 0.072517 0.024015 0.039141 0.1054 0.32095 0.071695 
-0.053095 -0.16934 0.05624 0.024344 0.043087 0.25403 0.16903 0.070708 
0.067749 -0.18265 0.066927 0.017274 0.04358 0.2731 0.0090533 0.063968 
0.30418 -0.24661 0.081395 0.038648 0.049335 0.3466 -0.18463 0.066434 
0.41762 -0.25401 0.099645 0.021549 0.054267 0.28593 -0.40215 0.064132 
0.39033 -0.22968 0.094055 0.071531 0.060186 0.061666 -0.50129 0.042758 
0.27886 -0.12725 0.068571 0.026317 0.041278 -0.15618 -0.36006 0.005765 
0.10524 -0.034352 0.063474 0.017274 0.024837 -0.31616 -0.091404 -0.008539 
-0.1501 -0.010183 0.073997 -0.019719 -0.040435 -0.3908 0.076792 0.015301 
-0.26009 -0.00097594 0.052952 -0.012156 -0.0091966 -0.30646 0.25781 0.0021479 
-0.20518 -0.035338 0.0042853 -0.010512 -0.019061 -0.14385 0.42239 -0.004593 
-0.12527 0.13631 -0.0073881 0.0090533 0.028783 -0.00015387 0.38556 -0.0034422 
-0.023829 0.25025 -0.0087034 0.061995 0.051143 0.1151 0.28856 0.024837 
-0.0090322 0.25255 -0.026953 0.031742 0.033387 0.12299 0.042594 0.028783 
-0.045532 0.19649 -0.035996 0.058213 0.050486 0.12595 -0.084663 0.019576 
-0.048985 0.13056 0.0019835 0.017932 0.053938 0.076792 -0.10225 0.055582 
0.005765 0.097508 0.0014903 0.02681 0.060679 0.11576 -0.055726 0.043087 
0.075641 0.017767 0.0037921 0.031742 0.044567 0.10672 -0.043888 0.053281 
0.18596 0.0087245 0.016945 0.022371 0.045718 0.099645 0.0023123 0.045553 
0.21062 -0.019555 0.032893 0.049006 0.048348 0.089616 0.0046141 0.053281 
0.08304 -0.059507 0.042923 0.019905 0.051636 0.077614 0.033715 0.039141 
-0.084334 -0.01232 0.047855 0.036675 0.038812 0.075805 0.035031 0.012835 
-0.065919 0.14223 0.0070803 0.0074092 0.046046 0.058706 0.022864 0.0227 
-0.0022913 0.28576 -0.00097594 0.051636 0.047526 0.053609 0.049335 -0.018075 
0.092411 0.25748 -0.036325 0.040128 0.063803 0.023193 0.048513 -0.0049219 
0.16853 0.19303 -0.0091966 0.042429 0.047855 0.036675 0.031742 0.01415 
0.16031 0.048513 0.012999 0.038648 0.027139 0.0060938 0.0072447 0.019247 
0.019083 -0.010676 0.017767 0.007738 0.026481 -0.0050863 -0.0068948 0.042265 
-0.10423 -0.026789 0.034866 0.030263 0.025988 -0.032872 0.0044497 0.041772 
-0.11853 -0.16917 0.0324 -0.0054151 0.021056 -0.031228 -0.010512 0.047855 
0.0059294 -0.11294 0.016781 0.036182 0.022371 -0.038791 0.014315 0.032729 
0.025495 0.13746 -0.016266 0.035524 0.039141 -0.031064 0.023193 -0.0083746 
-0.048985 0.40858 -0.061809 0.04358 0.030756 -0.022679 0.023851 -0.0082102 
-0.036983 0.41516 -0.085978 0.047526 0.029769 -0.024652 0.035195 0.017767 
0.050157 0.32177 -0.057863 0.030756 0.021878 -0.033201 0.0018191 0.065118 
0.069886 0.34939 -0.021692 0.052952 0.027961 -0.040106 -0.0016336 0.089945 
0.053281 0.36139 -0.012814 0.028783 0.01415 -0.037476 0.004943 0.086657 
0.033387 0.31914 0.010862 0.056733 0.016781 -0.068386 0.016452 0.064461 
0.020069 0.027961 0.058049 -0.0062372 0.00066819 -0.03616 0.045553 0.0011614 
0.044402 -0.22441 0.08156 0.030427 0.0036276 -0.065262 0.060844 -0.0004827 
0.1105 -0.2305 0.049992 0.025659 0.007738 -0.036489 0.0689 -0.0062372 
0.18267 -0.014293 0.051801 0.034702 0.011355 -0.018733 0.065118 -0.0016336 
0.089452 0.17807 0.050321 0.030263 0.0044497 0.022535 0.040128 -0.0047575 
-0.02794 0.17971 0.060679 0.023522 0.014315 0.023522 0.054432 0.0051074 
-0.10571 0.063968 0.075312 0.039963 0.012835 0.016945 0.017274 0.031249 
-0.19498 -0.14221 0.092576 0.013657 -0.0095255 0.028454 0.014972 0.039963 
-0.23362 -0.13382 0.069558 0.038648 0.0047785 0.052459 0.021549 0.036182 
-0.11409 -0.0077169 0.054596 0.029769 0.004943 0.10655 0.012835 0.035031 
0.0039565 -0.2522 0.081724 0.020562 0.018918 0.11017 0.049006 0.04095 
0.15966 -0.44325 0.14338 0.051636 0.0023123 0.075148 0.034866 0.048677 
0.11378 -0.23099 0.050157 0.021549 -0.0072237 0.067913 -0.017911 0.0085601 
0.027961 0.26537 0.018096 0.079422 0.031249 -0.024487 0.0227 0.030427 
0.025824 0.46678 -0.059178 0.055254 0.013492 -0.066413 0.046046 0.027796 
0.025824 0.45757 -0.0067304 0.065612 0.015959 -0.071838 0.063968 0.017932 
0.059364 0.2468 0.031085 0.05772 -0.018897 -0.066413 0.038977 0.033387 
0.082875 0.26603 0.070215 0.020233 -0.0019624 -0.058028 0.0014903 0.051801 
0.062652 0.3535 0.04506 0.013821 0.0042853 -0.040435 0.049992 0.054432 
0.04917 0.23479 0.023357 0.013328 -0.0032777 -0.0032777 0.086163 0.018918 
0.016123 0.011191 0.020727 0.029112 0.011684 -0.045696 0.090767 0.024508 
-0.021528 -0.26618 0.0421 0.036017 0.032564 0.064461 0.11559 0.010204 
0.10639 -0.57544 0.059364 0.047855 0.031907 0.16081 0.11296 0.029112 
0.25814 -0.64367 0.11773 -0.00031829 0.0080668 0.1761 0.10376 0.079916 
0.24186 -0.5608 0.099481 0.00050378 -0.009361 0.051801 -0.10209 0.095699 
0.10852 -0.33885 0.084684 -0.016266 -0.012814 0.00017495 -0.24973 0.09126 
0.04506 0.07301 0.054596 -0.016431 -0.033365 0.036346 -0.1279 0.087314 
0.0056006 0.28658 0.092411 -0.0138 -0.010676 0.12595 -0.040271 0.048019 
-0.075949 0.048513 0.13664 0.0051074 0.026646 0.24548 0.032071 -0.0036066 
-0.096336 -0.037147 0.12184 0.049664 0.055418 0.33624 0.20027 -0.064111 
-0.096007 0.14404 0.095864 0.040621 0.074654 0.30385 0.25913 -0.068714 
-0.065426 0.34709 0.043416 0.068736 0.073832 0.072517 0.23151 -0.05885 
0.014972 0.32884 -0.0091966 0.062817 0.038977 -0.097651 0.094384 -0.018404 
0.087314 0.095535 -0.033859 0.063968 0.046868 -0.1843 0.030756 0.012342 
0.1738 0.0014903 -0.034681 0.046868 0.035195 -0.13267 -0.02646 0.042429 
0.17001 -0.045696 -0.022843 0.023851 0.041114 -0.086142 -0.056055 0.062323 
0.060844 -0.11278 0.031907 0.0074092 0.0065871 -0.015116 -0.059014 0.080244 
-0.057863 -0.086471 0.027961 0.0082312 -0.0072237 -0.0004827 -0.077593 0.057555 
-0.077922 -0.021363 0.020069 0.031085 0.0036276 -0.0068948 -0.1182 0.028454 
-0.044874 0.025495 0.027796 0.029769 0.0046141 -0.06707 -0.10916 0.046046 
-0.043724 -0.021528 0.044073 0.035524 0.033387 -0.057699 -0.06148 0.031742 
0.016123 -0.060987 0.048677 0.027961 0.036182 -0.042573 0.056569 0.029441 
0.087314 -0.077757 0.046046 0.013492 0.04506 -0.049807 0.11724 0.016288 
0.092576 0.0092177 0.031085 0.020398 0.031249 -0.041586 0.15226 0.046046 
0.073504 0.058542 0.029276 0.039141 0.016616 -0.090253 0.20487 0.041772 
0.052294 0.11214 0.059035 0.051308 0.027303 -0.011663 0.17445 0.048019 
0.042594 0.16853 0.05772 0.017274 0.044073 0.035031 0.1516 0.053609 
0.072188 0.15933 0.048677 0.018754 0.026646 0.15752 0.15144 0.026646 
0.090109 0.20569 0.029276 0.0023123 0.026646 0.28247 0.078272 0.031085 
0.090767 0.23414 -0.0040998 0.028454 0.04654 0.46119 0.061008 0.01415 
0.051965 0.25206 -0.049149 0.03388 0.062488 0.63629 -0.027118 -0.034352 
-0.018404 0.28461 -0.062467 0.029605 0.044238 0.64649 -0.028104 -0.070359 
-0.091075 0.26126 -0.038791 0.057062 0.052459 0.35416 0.015465 -0.04471 
-0.16802 0.13187 -0.0016336 0.057062 0.083533 -0.054575 0.044567 0.031907 
-0.1011 -0.084334 0.040292 0.067091 0.061666 -0.33671 0.037004 -0.004593 
-0.0022913 -0.18463 0.076134 0.026646 0.0421 -0.46462 -0.003771 0.055911 
0.079587 -0.23066 0.046211 0.043909 0.029441 -0.42747 0.043416 0.042758 
0.15324 -0.23559 0.08156 0.028454 0.030263 -0.28886 0.078929 0.038977 
0.20405 -0.21471 0.067913 0.034373 0.03799 -0.14944 0.10704 0.04917 
0.12513 -0.20814 0.058871 0.031414 0.046211 -0.056219 0.076627 0.055582 
-0.03501 -0.18479 0.071366 0.022206 0.04917 0.0052718 0.032071 0.034537 
-0.074469 -0.18561 0.066105 0.052952 0.044731 -0.0059084 0.034044 0.045224 
0.043087 -0.12873 0.062817 0.030756 0.043251 -0.010676 -0.058192 0.0421 
0.10589 0.059364 0.036675 0.038977 0.031249 -0.018404 -0.15437 0.041443 
0.077778 0.30023 -0.0016336 0.016452 0.03799 0.016123 -0.093705 0.073997 
0.054103 0.40036 0.020562 0.035688 0.038319 0.037826 -0.026131 0.044238 
0.00083261 0.4778 0.005765 0.011848 0.046211 0.045389 -0.013965 -0.0032777 
-0.019061 0.41894 -0.011992 0.029605 0.07301 0.053281 -0.0004827 -0.029913 
0.0014903 0.27721 -0.07003 0.058049 0.057884 0.064461 -0.0406 -0.015116 
-0.016595 0.34479 -0.066906 0.033222 0.047362 0.079094 -0.035667 0.023851 
-0.018568 0.36632 -0.052437 0.036675 0.032564 0.064132 0.076956 0.019083 
0.0021479 0.43078 -0.036818 0.0065871 0.038977 0.13368 0.17922 0.030592 
0.031907 0.38244 -0.01939 0.01563 0.026152 0.17626 0.29201 0.024673 
0.041936 0.13795 -0.012814 0.023357 0.041936 0.2708 0.32308 0.026974 
0.024673 -0.2037 -0.0034422 0.028947 0.050979 0.21441 0.22493 0.026317 
0.0098754 -0.51526 0.057884 0.037497 0.051472 0.10425 0.052294 -0.0036066 
0.0019835 -0.45015 0.085835 0.027468 0.051965 0.0075736 -0.070687 0.0079024 
0.032564 -0.2185 0.095042 0.046868 0.035524 -0.042244 -0.095021 0.0095465 
0.027961 0.050321 0.061995 0.012506 0.02681 -0.18594 -0.10456 0.039634 
0.026646 0.13516 0.022535 0.025824 0.00066819 -0.24234 -0.11196 0.060022 
0.019576 -0.08384 0.022206 -0.0068948 -0.010512 -0.21817 -0.10817 0.06035 
0.044731 -0.21652 0.042594 -0.0039354 0.0011614 -0.14287 -0.11968 0.064461 
0.070051 -0.16227 0.051472 -0.015609 -0.00031829 -0.050136 -0.071509 0.077449 
0.069886 0.01152 0.038812 -0.003771 0.00083261 0.01267 0.0079024 0.054596 
0.054596 0.097015 0.012013 0.04358 0.0227 0.1151 0.092904 0.025659 
0.048841 0.13236 -0.0029489 0.033058 0.036675 0.13401 0.099645 0.014643 
0.089452 0.13154 -0.0060728 0.079258 0.033715 0.10441 0.055911 0.026152 
0.11329 0.10195 -0.015609 0.031907 0.034044 0.010697 0.027468 0.035195 
0.14815 0.11839 0.025001 0.032729 0.028619 -0.048985 0.027632 0.0324 
0.10902 0.13417 0.031742 0.022371 0.01563 -0.096172 0.0056006 0.039963 
-0.010019 0.18596 0.0013258 -0.0050863 0.013821 -0.043724 0.031249 0.044402 
-0.07266 0.28034 0.045553 0.0046141 -0.010183 0.013164 -0.0026201 0.042758 
-0.1085 0.36402 -0.00081153 0.013821 -0.010019 0.036017 0.022206 0.013986 
-0.19663 0.37372 -0.023172 0.036839 0.01415 0.012177 0.009711 0.0080668 
-0.10489 0.090603 -0.00097594 0.0092177 -0.018733 0.033387 0.010204 0.025988 
0.055254 -0.0075525 -0.017088 0.020233 -0.036489 0.013821 0.02681 0.040456 
0.14026 0.13154 0.0036276 0.0054362 -0.016924 -0.011827 0.014972 0.048513 
0.12365 0.21589 -0.015773 0.031414 0.0069159 -0.031064 0.02829 0.058377 
0.025824 0.19764 -0.0049219 0.038812 0.0032988 0.0090533 0.068571 0.041443 
-0.096172 0.14289 0.024837 0.049992 0.012013 0.027632 0.047197 0.026317 
-0.16523 0.2029 0.048513 0.063474 -0.022021 0.010204 0.062323 0.030263 
-0.082361 0.11987 0.078272 0.031742 0.0074092 0.025001 0.062817 0.024508 
0.050321 -0.047669 0.090931 0.070873 0.0054362 -0.0004827 0.061172 0.010369 
0.21112 -0.25006 0.076299 0.029769 0.017603 0.033222 0.067256 0.03799 
0.28773 -0.83126 0.11066 0.028783 0.0036276 -0.0054151 0.042429 0.057391 
0.20602 -1.4148 0.16755 -0.0034422 -0.013307 0.0098754 0.039963 0.086492 
0.1128 -0.93271 0.15357 0.0032988 -0.028926 -0.0044286 0.03947 0.073339 
0.034373 -0.075455 0.10376 0.0098754 -0.017746 -0.017911 0.020398 0.065283 
-0.040271 0.51167 0.089616 0.0062583 -0.0004827 -0.0019624 0.058542 0.015794 
-0.090253 0.55639 0.058542 0.039141 -0.0062372 0.011026 0.030098 -0.008539 
-0.12396 0.39428 0.038155 0.032236 0.014315 0.011848 0.051143 -0.0083746 
-0.097651 0.43078 0.0039565 0.082546 0.012013 -0.0078813 0.070708 0.0079024 
-0.060165 0.30894 -0.010676 0.051636 0.010862 0.012177 0.054103 0.0051074 
-0.023665 0.23874 -0.0042642 0.050157 0.017274 -0.0004827 0.056898 0.01711 
-0.0054151 0.11691 0.004943 0.047855 -0.0034422 -0.014622 0.039305 0.040128 
0.015959 -0.048656 0.061501 0.038155 0.016288 -0.037969 0.031085 0.037497 
0.025001 -0.047669 0.088465 0.038977 0.034537 -0.024487 0.049664 0.028454 
0.030592 -0.063289 0.14239 0.011848 0.01152 -0.032872 0.031578 0.020891 
0.069886 -0.074798 0.14272 0.01415 0.014643 -0.023172 0.038812 0.033222 
0.096686 -0.14714 0.13417 -0.0019624 0.016452 -0.0075525 0.040128 0.051636 
0.10836 -0.12889 0.10754 0.0062583 0.014643 0.0056006 0.025001 0.040621 
0.090603 -0.11015 0.084684 -0.030077 0.03092 0.0013258 0.045718 0.052294 
0.10441 -0.11524 0.0324 0.022042 0.021384 0.00017495 0.02122 0.04917 
0.073339 0.02829 -0.03353 0.03799 0.039305 0.015301 0.01152 0.045553 
0.026481 0.076299 -0.05178 0.038812 0.036839 0.071695 0.012013 0.007738 
0.026646 0.041772 -0.040271 0.057555 0.054432 0.23463 0.020891 0.0046141 
0.026646 -0.068221 0.0072447 0.029441 0.052294 0.3119 0.053445 0.029112 
0.024837 -0.2647 0.059528 0.037004 0.045553 0.23052 0.025659 0.035853 
-0.0052507 -0.30679 0.077121 0.041114 0.032071 0.020233 0.019576 0.025495 
-0.013307 -0.13481 0.055089 0.028125 0.017603 -0.087786 0.011026 0.0031344 
-0.038791 0.086657 0.042594 0.059857 0.039634 -0.19268 0.020562 0.01563 
0.015794 0.16311 0.036839 0.037168 0.025166 -0.15552 0.076299 0.016616 
0.054596 0.1322 0.0060938 0.025001 0.01563 -0.088444 0.094055 0.021549 
0.097508 0.088794 0.029605 0.014643 0.034537 -0.061809 0.08978 0.046375 
0.066269 0.070215 0.048019 0.03092 0.051308 -0.029913 0.080244 0.018918 
0.092247 0.16541 0.066598 -0.0072237 0.073832 0.009711 0.0592 0.02122 
0.042429 0.23611 0.034702 0.022864 0.055254 0.060515 0.044402 0.035524 
-0.011992 0.26126 0.026152 0.007738 0.032564 0.08978 0.053281 -0.0077169 
-0.069208 0.2195 0.0056006 0.028947 0.075312 0.1659 0.032893 0.0024767 
-0.1552 0.16196 -0.037147 0.066434 0.061501 0.20421 0.026317 0.027303 
-0.1358 0.075805 -0.029255 0.037004 0.069886 0.29661 -0.0057439 0.047526 
-0.043724 0.078765 -0.026789 0.061995 0.068078 0.24433 -0.010512 0.043251 
0.018754 0.14864 -0.034845 0.035853 0.095371 0.094055 -0.011663 0.034537 
-0.008539 0.17692 -0.034681 0.055911 0.071695 -0.069536 -0.016266 0.036675 
0.0079024 0.19451 -0.019061 0.030756 0.064296 -0.10308 0.01415 0.042923 
0.09126 0.11905 -0.0021268 0.033715 0.049335 -0.097816 -0.00097594 0.027796 
0.20438 0.073339 0.013657 0.053938 0.061337 -0.045368 0.016123 0.0082312 
0.24696 0.011026 0.0088889 0.027303 0.060515 -0.00064712 0.052294 0.021878 
0.24548 0.014315 0.011191 0.045718 0.068078 0.029769 0.048677 0.016616 
0.31585 0.098494 0.032564 0.018096 0.085012 0.034209 0.053445 0.019411 
0.31141 0.048513 0.038977 0.048513 0.052294 0.048677 0.023522 0.014479 
0.10458 0.14009 0.0070803 0.017603 0.044402 0.072024 0.0227 -0.0022913 
-0.13662 0.29349 -0.00097594 0.050321 0.0592 0.060022 0.047362 -0.0090322 
-0.25943 0.34627 -0.044217 0.051308 0.05213 0.070544 0.026974 -0.0072237 
-0.2402 0.26685 -0.055232 0.042265 0.06183 0.044896 0.069886 -0.0073881 
-0.18052 0.13006 -0.065097 0.054596 0.056404 0.063145 0.086657 0.0065871 
-0.12889 0.072681 -0.080552 0.03092 0.054925 0.044896 0.067585 0.01415 
-0.15355 0.14881 -0.063618 0.053609 0.048841 0.046868 0.037004 0.033058 
-0.21274 0.23562 -0.031721 0.018425 0.03947 0.034866 0.019411 0.042758 
-0.084498 0.12908 0.013328 0.024673 0.021878 0.027632 0.013328 0.085999 
0.091753 0.011684 0.055582 0.017438 0.037497 0.010862 -0.014458 0.12694 
0.28001 -0.03205 0.093398 0.021713 0.034373 0.0085601 -0.028597 0.086328 
0.25173 -0.019061 0.11806 0.016123 0.030427 -0.0040998 -0.0049219 0.05772 
0.048677 0.081231 0.092411 0.016781 0.028619 0.010369 0.010369 0.012177 
-0.070523 0.17051 0.026317 0.053281 0.038812 0.020069 0.046868 0.0028056 
-0.017253 0.22542 -0.01232 0.029769 0.025166 0.0046141 0.065118 -0.0052507 
0.12118 0.23233 -0.020541 0.05624 0.029769 0.031907 -0.0073881 -0.010019 
0.25666 0.2611 0.018754 0.0085601 0.028783 0.0054362 -0.023829 0.019411 
0.25962 0.076627 0.054432 0.028947 0.017767 -0.003771 -0.018404 0.033058 
0.19928 -0.28854 0.070873 0.0087245 0.022206 -0.038627 -0.013143 0.025659 
0.068571 -0.25943 0.030263 -0.032872 0.0079024 -0.063946 -0.023336 0.041443 
-0.038627 -0.080552 0.069393 0.034209 0.03388 -0.01939 0.017438 0.028619 
-0.077593 -0.27061 0.16837 0.02681 0.060022 -0.0088678 0.0095465 0.01415 
-0.036325 -0.93369 0.16541 0.016945 0.0088889 -0.0050863 0.014643 0.065447 
0.082875 -0.85987 0.11017 0.0069159 0.0070803 -0.031886 0.026974 0.077778 
0.075312 -0.11672 0.037004 0.027796 0.0093821 -0.011992 0.034373 0.060186 
0.025001 0.536 -0.027282 0.0059294 0.016452 0.00297 0.027139 0.040456 
-0.055397 0.70946 -0.038956 0.027632 0.053116 0.031742 0.041114 0.064625 
-0.060658 0.53123 0.015301 0.033222 0.021549 -0.0032777 0.033222 0.0092177 
-0.035503 0.27803 0.057555 -0.0019624 0.0059294 -0.017088 0.025824 0.034209 
1.0539e-005 0.083862 0.069064 0.032729 0.01415 -0.0057439 0.058871 0.0064227 
-0.0055795 -0.0027845 0.03799 0.011355 0.0074092 0.028947 0.052623 0.013986 
-0.053588 0.014315 0.027139 0.048513 0.025988 0.0324 0.042758 0.013164 
-0.096994 -0.023007 0.040785 0.045882 0.023686 0.048348 0.02681 -0.00064712 
-0.099953 -0.044217 0.048677 0.049664 0.024508 0.040128 0.0075736 -0.0091966 
-0.018897 -0.13547 0.05065 0.024673 0.019411 0.018425 0.01974 0.027139 
0.088958 -0.17493 0.062652 0.037004 0.01974 0.00017495 0.0085601 0.024344 
0.16262 -0.21422 0.047197 0.042429 0.019411 0.0041209 0.020562 0.024837 
0.13812 -0.19614 0.044567 0.013492 0.012999 0.019576 0.040128 0.011355 
0.040456 -0.12955 0.048348 0.046211 0.014479 0.020727 0.021384 0.016616 
0.065447 -0.055726 0.025659 0.00017495 0.012013 0.022206 0.035853 0.034044 
0.15324 -0.0078813 0.0059294 0.028783 0.026152 0.01415 0.071531 0.022371 
0.27179 -0.014622 0.042429 0.0054362 0.0079024 0.026974 0.059364 0.048348 
0.32358 0.07449 0.043909 0.015465 0.00099702 0.020562 0.08156 0.044238 
0.21901 0.16919 0.0079024 0.027303 0.01415 0.032893 0.057227 0.0324 
-0.0044286 0.22296 -0.011827 0.019905 0.01152 0.026317 0.075148 -0.0022913 
-0.20189 0.21819 -0.0011404 0.063145 0.025001 0.0421 0.054103 -0.0073881 
-0.24595 0.11954 0.00297 0.03536 0.023851 0.02122 0.041278 0.011026 
-0.18528 0.021878 0.017603 0.041114 0.0093821 0.046375 0.047526 -0.0011404 
-0.084991 -0.054739 0.030756 0.032893 0.0034632 0.027796 0.048677 0.02122 
-0.0034422 -0.083018 0.047855 0.013986 0.014479 0.038319 0.032729 0.03947 
0.044731 -0.018075 0.026317 0.033222 0.00033937 0.019083 -0.014129 0.025659 
0.056733 0.1248 0.0085601 0.043087 0.013986 0.013328 -0.047998 0.0062583 
0.032564 0.16048 -0.0057439 0.061172 0.01004 0.015465 0.046704 -0.0055795 
0.0023123 -0.047505 0.043087 0.029605 0.0019835 0.038648 0.081231 -0.0083746 
0.01415 -0.522 0.10425 0.029769 -0.030899 0.017274 0.096521 0.039634 
0.056569 -0.89078 0.15768 -0.0072237 -0.023994 0.023193 0.037826 0.073504 
0.071859 -0.40757 0.15259 -0.020377 -0.026624 0.017932 0.040785 0.067256 
0.01004 0.34051 0.067256 -0.0072237 -0.0083746 0.013492 0.054925 0.049335 
0.0072447 0.52038 0.024508 0.020233 0.020562 0.018918 0.040785 0.038812 
0.0227 0.30237 -0.030406 0.042758 0.020398 0.018425 0.038483 0.031249 
0.061666 0.24203 -0.078086 0.019247 0.022371 -0.0083746 0.037826 0.015959 
0.059364 0.36402 -0.04471 0.10277 -0.0072237 0.059364 0.060186 0.015794 
0.033058 0.3489 -0.0031133 0.058871 0.035688 0.038812 0.018754 0.011848 
0.044073 0.20503 0.059035 0.095371 -0.017582 -0.0019624 -0.0024557 0.029934 
0.039963 0.02122 0.14058 0.0018191 0.014972 0.042923 -0.0073881 0.037661 
0.088465 0.0014903 0.13121 -0.00097594 0.029276 0.014972 0.11707 0.060679 
0.10343 0.16146 0.10244 0.0046141 0.012013 0.069393 0.1539 0.023851 
0.045224 0.23496 0.07038 0.017603 0.020233 0.048841 0.17067 0.060022 
-0.033037 0.20092 0.048841 0.051308 0.026974 0.076956 0.17051 0.032893 
-0.075127 -0.036325 0.049992 0.020562 0.024673 0.053116 0.15275 0.011191 
-0.053917 -0.17279 0.043909 0.047691 0.030427 0.029769 0.20997 0.038155 
0.019411 0.028947 0.028783 0.019247 0.0227 0.043909 0.1909 0.060022 
0.066105 0.13746 -0.01232 0.030263 0.004943 0.031414 0.060679 0.081067 
0.11461 0.0087245 -0.0032777 0.029112 0.021384 0.020727 -0.1256 0.06742 
0.054596 -0.11952 0.035853 0.045882 0.02681 -0.012156 -0.25368 0.072188 
0.034537 -0.093212 0.0227 0.041936 0.02122 -0.035338 -0.28212 0.06742 
0.041936 0.0087245 0.038483 0.024015 0.018918 -0.049642 -0.33605 0.077778 
0.034044 0.12266 0.064132 0.038648 0.02681 -0.00031829 -0.19515 0.016616 
0.031578 0.11428 0.08567 0.016123 0.033715 -0.0014692 0.034209 -0.009361 
-0.00064712 0.15456 0.093398 0.036839 0.036839 0.039141 0.13795 -0.015116 
-0.0040998 0.19928 0.063474 0.016452 0.025988 0.018589 0.17807 0.016452 
0.0051074 0.11937 0.027632 0.013657 0.039634 0.032564 0.20027 0.00083261 
0.027303 0.010533 0.0037921 0.027468 0.029441 0.032236 0.20553 0.00033937 
-0.045696 -0.064604 0.0021479 0.036839 0.04095 0.040292 0.14996 -0.009361 
-0.09946 -0.0406 0.015794 0.082546 0.020562 0.033222 0.04095 0.035031 
-0.056712 0.05213 0.015301 0.027303 0.035195 0.026317 0.041443 0.057555 
0.010533 0.097837 0.033715 0.040292 0.027961 0.035853 0.012013 0.024344 
0.05213 0.19583 0.012013 0.01563 0.032729 0.033387 0.0059294 0.00033937 
0.056898 0.22789 -0.02498 0.017603 0.032893 0.082546 0.066927 0.029441 
0.13434 0.24137 0.004943 0.024015 0.036346 0.038319 0.08978 0.012999 
0.16969 0.17922 0.012177 0.026152 0.018425 0.0042853 0.070215 0.049499 
0.17182 0.089616 0.0060938 0.022206 0.020562 -0.11228 -0.016924 0.064461 
0.25403 0.051801 0.017438 0.0093821 0.023686 -0.1381 -0.091732 0.089945 
0.20388 0.0054362 0.0044497 0.050486 0.026974 -0.15273 -0.11426 0.066105 
-0.0072237 0.050321 -0.0087034 0.030427 0.037661 -0.090417 -0.14089 0.03388 
-0.25631 0.089616 -0.028762 0.051143 0.051636 -0.066577 -0.1501 0.025659 
-0.26124 0.14815 -0.063782 0.047855 0.041114 -0.035667 -0.15651 0.019083 
-0.15437 0.096193 -0.066906 0.057884 0.041607 -0.0014692 -0.11064 0.00033937 
-0.12478 0.038648 -0.049314 0.054596 0.035524 0.00050378 -0.0004827 -0.0088678 
-0.1039 0.069229 0.013986 0.025495 0.026646 0.083533 0.13582 -0.017253 
-0.052931 -0.009361 0.019905 0.088136 0.024837 0.12612 0.34446 0.041607 
0.0087245 0.052787 0.035195 0.0014903 0.01152 0.19862 0.38605 0.016616 
0.09981 0.1294 0.010533 0.044238 0.026974 0.36731 0.27902 0.00083261 
0.11362 0.31733 0.0059294 0.033058 0.087808 0.51923 0.17511 -0.010841 
0.19994 0.37997 0.022371 0.046704 0.082711 0.34725 0.035853 0.024508 
0.29382 0.27738 0.094877 0.0032988 0.055089 0.012342 -0.1085 0.099645 
0.28921 -0.22704 0.11263 0.025824 0.012342 -0.26716 -0.10998 0.099152 
0.16294 -1.1792 0.14716 0.0070803 0.0093821 -0.23691 -0.12494 0.10704 
0.14519 -1.3922 0.14091 -0.0044286 -0.015773 -0.12741 -0.078744 0.1151 
0.27639 -0.50688 0.04506 0.044402 0.01004 -0.042901 -0.066741 0.11477 
0.27902 0.4847 -0.019555 0.017767 0.016945 -0.098473 -0.054739 0.049664 
0.081889 0.89031 -0.022514 0.038977 0.024015 -0.11475 0.0024767 -0.012978 
-0.15174 0.80317 -0.082854 0.044238 0.030427 -0.047012 0.023028 -0.029255 
-0.24069 0.6672 -0.085978 0.034373 0.048348 0.064954 0.05213 -0.021363 
-0.22474 0.40907 -0.050958 0.037497 0.071037 0.15078 0.063803 -0.010348 
-0.19646 0.1442 -0.022021 0.053116 0.033715 0.10277 0.067749 -0.02646 
-0.12544 -0.068221 0.0036276 0.076299 0.016616 0.12727 0.09833 -0.004593 
-0.081868 -0.17706 0.048019 0.010369 0.027303 0.029276 0.071202 0.016781 
-0.021692 -0.22359 0.062652 0.027303 0.021056 0.01563 0.064132 0.018754 
0.022535 -0.20929 0.092904 0.029769 0.011026 -0.013143 0.085835 0.016123 
0.067256 -0.18726 0.11115 0.015465 0.013164 0.030263 0.082546 0.029112 
0.11362 -0.18364 0.12365 -0.0082102 0.0023123 0.06183 0.073504 0.048677 
0.18596 -0.084169 0.14338 -0.025145 -0.0095255 0.080409 0.041278 0.064461 
0.23101 -0.014293 0.094548 0.0065871 0.020398 0.094055 0.045553 0.078436 
0.19912 0.026974 0.075476 0.0088889 0.017932 0.11494 0.059364 0.073339 
0.18383 0.017438 0.08715 0.044238 0.023357 0.12661 0.039141 0.083862 
0.19468 -0.0016336 0.052623 0.030263 0.04095 0.13779 0.029769 0.063968 
0.15176 0.08978 0.01826 0.039305 0.042923 0.11066 0.023522 0.029934 
0.1225 0.07038 -0.0031133 0.046211 0.038155 0.027468 0.017438 0.01826 
0.020398 0.058213 0.0013258 0.032071 0.02829 -0.032379 0.035524 0.013657 
-0.047341 0.039305 0.015301 0.027632 0.009711 -0.071016 0.039634 0.013821 
-0.069208 0.066269 0.024508 0.027796 0.020891 -0.019555 0.050814 -0.0022913 
-0.079566 0.10129 0.03799 0.057884 0.024015 -0.0095255 0.029441 0.0041209 
-0.045039 0.10129 0.08156 -0.0014692 0.014808 0.011848 -0.00015387 0.038812 
-0.0054151 -0.034023 0.11477 0.01563 0.0028056 -0.004593 0.0041209 0.042429 
0.026317 -0.076935 0.098823 -0.0090322 0.0021479 -0.030899 -0.013143 0.048513 
0.007738 0.12365 0.041114 0.00083261 0.013328 -0.035667 0.036675 0.029441 
0.0021479 0.26554 -0.013471 0.016452 0.022864 -0.023665 0.090438 0.041936 
0.0088889 0.26899 -0.042244 0.029276 0.022535 0.00066819 0.057884 0.019083 
-0.015938 0.22707 -0.079401 0.058706 0.059693 0.0051074 0.037332 0.01267 
0.0074092 0.062817 -0.034681 0.041936 0.045553 -0.013307 -0.041093 0.017767 
0.0088889 -0.29741 0.027303 0.058542 0.031414 -0.026624 -0.071674 0.012177 
0.024344 -0.59352 0.070873 -0.023665 0.053116 -0.0075525 -0.032872 0.047362 
0.031742 -0.44128 0.11888 0.028454 0.041443 -0.039778 -0.021692 0.013986 
-0.0091966 -0.15536 0.11724 -0.0067304 0.037332 -0.049478 0.066598 0.0082312 
0.0039565 0.10145 0.087972 0.023522 0.058213 -0.038462 0.05772 0.023522 
0.029441 0.28149 0.05065 0.038812 0.07301 -0.026296 0.017767 0.043416 
0.039963 0.32062 -0.0027845 0.01152 0.044567 -0.053095 0.019576 0.0592 
0.032893 0.41055 -0.039942 0.066105 0.053609 -0.077593 0.0028056 0.061666 
-0.025638 0.378 -0.046847 0.024344 0.049664 -0.087129 -0.026953 0.034373 
-0.058028 0.27557 -0.041422 0.044073 0.039799 -0.07562 -0.039449 -0.010019 
-0.058028 0.17281 -0.0014692 0.020233 0.026152 0.025166 0.019576 -0.0021268 
-0.023007 0.22624 0.03947 0.0042853 0.041114 0.15785 0.091425 -0.010676 
-0.035832 0.24943 0.045718 -0.012814 0.051801 0.2366 0.056733 -0.01939 
-0.021034 -0.043724 0.074819 0.015794 0.045882 0.19057 0.082875 -0.003771 
-0.014293 -0.3229 0.093233 0.047362 0.056569 0.067585 0.051143 0.015959 
0.027303 -0.39984 0.064132 0.040292 0.095042 -0.038462 0.0037921 0.048513 
0.049006 -0.22606 0.014479 0.060679 0.057227 -0.059836 0.0421 0.057062 
0.076792 -0.038627 0.0042853 0.031249 0.051308 -0.075455 0.048019 0.074654 
0.05476 0.047197 -0.016102 0.04095 0.050979 -0.047505 0.027961 0.053938 
0.00083261 0.09981 -0.003771 0.028125 0.040128 -0.040435 0.014315 0.0080668 
-0.058192 0.082875 -0.013143 0.040128 0.050321 -0.014458 -0.019555 -0.0067304 
-0.056219 0.05624 0.016123 0.042429 0.055582 -0.013143 -0.00015387 0.015301 
-0.028597 -0.023994 0.042429 0.020398 0.059035 -0.014951 -0.0060728 0.037168 
0.0016547 -0.097322 0.042265 0.036675 0.040128 -0.0016336 -0.0098543 0.023686 
0.028619 -0.1769 0.051143 -0.009361 0.037826 0.027303 0.014643 0.032071 
0.084355 -0.10423 0.063968 0.034044 0.045718 0.051308 0.017274 0.050979 
0.16294 0.061337 0.064625 0.0056006 0.043745 0.044073 0.047362 0.092247 
0.13861 0.19007 0.056076 0.0082312 0.036017 0.070051 0.03536 0.052787 
0.089616 0.33147 0.043909 0.029769 0.04506 0.057391 0.036182 0.025988 
0.017603 0.39049 0.013328 0.041936 0.057555 0.077449 0.047197 0.021713 
-0.037476 0.32276 0.028947 0.051472 0.047855 0.053774 0.051308 0.021878 
-0.032708 0.22509 0.051801 0.011848 0.029441 0.049664 0.049664 0.018096 
0.014643 0.052787 0.063803 0.031742 0.021713 0.04358 0.044896 0.028454 
0.052294 -0.17197 0.053774 0.0023123 0.021384 0.039799 0.037497 0.039305 
0.066763 -0.13366 0.044896 0.017767 0.028783 0.022371 0.040785 0.038977 
0.06183 0.11444 0.017932 0.014643 0.025001 0.04506 0.040292 0.037497 
0.034702 0.20668 0.017438 0.04358 0.042923 0.045553 0.032564 0.020233 
0.024673 0.19599 0.017274 0.073339 0.064296 0.07301 0.058871 -0.057041 
0.067913 0.19221 0.023522 -0.0027845 0.00297 0.084026 0.016123 0.026152 
0.059364 0.20586 0.046704 0.05476 0.035195 0.038977 0.050814 0.045389 
0.062488 0.13746 0.093562 0.03651 0.057555 0.049006 0.053609 0.058871 
0.06331 0.015301 0.060679 0.0021479 0.011848 0.015959 0.02829 0.045553 
0.05624 -0.047998 0.076299 0.0095465 0.022371 0.025659 0.04654 0.045389 
-0.014951 -0.12396 0.034866 -0.004593 0.025988 0.036182 0.03799 0.066598 
0.0060938 -0.085485 0.030098 0.026152 0.026974 0.036017 0.055418 0.017603 
0.027468 0.01826 0.021056 0.0013258 0.045224 0.044073 0.05476 0.021384 
0.083862 0.077285 0.0079024 0.051143 0.034044 0.051801 0.039634 0.034866 
0.11017 0.051965 0.0082312 0.038319 0.027139 0.071037 0.047691 0.04358 
0.070215 -0.029584 0.009711 0.032564 0.020727 0.053609 0.022371 0.04095 
-0.0138 -0.041915 0.020233 0.015959 0.027961 0.052459 -0.0032777 0.023522 
-0.090088 -0.13481 0.020398 0.02122 0.043745 0.06742 -0.0036066 0.01974 
-0.036654 -0.12001 0.039799 0.028947 0.023686 0.077778 0.090438 0.034702 
0.014972 0.019576 0.059528 0.025659 0.027632 0.05624 0.15785 0.033058 
0.1225 0.24417 0.039799 0.053445 0.029112 0.047526 0.14009 0.0087245 
0.18678 0.45231 0.00033937 0.037497 0.029769 0.0051074 0.095206 -0.0070593 
0.1858 0.40003 -0.017088 0.054103 0.021549 0.023522 0.10014 0.02681 
0.072024 0.30418 -0.0044286 0.023193 0.012506 0.0080668 0.077614 0.03536 
-0.022679 0.11543 -0.0011404 0.029934 0.0036276 0.027796 0.077449 0.026646 
0.040292 -0.19696 0.081395 0.0082312 0.00083261 0.0098754 0.019905 0.047197 
0.12184 -0.62262 0.1271 0.017932 0.0065871 0.020562 -0.047012 0.097179 
0.060679 -0.77865 0.10228 0.016945 -0.0027845 0.0051074 -0.18315 0.095699 
-0.079566 -0.23329 0.05476 0.00050378 0.0075736 -0.030406 -0.36647 0.033058 
-0.17295 0.38211 0.028783 0.028125 0.01563 -0.05178 -0.21406 0.0082312 
-0.097651 0.61097 0.014315 -0.004593 0.020398 -0.0087034 0.004943 -0.00031829 
0.083368 0.46333 0.040128 0.032236 0.013986 0.027468 0.1105 0.014479 
0.2879 0.2218 0.059035 0.032729 0.013986 0.037661 0.17429 0.053938 
0.3678 0.084684 0.051472 0.032071 0.013986 0.059857 0.13746 0.078765 
0.28642 -0.076442 0.0085601 0.044238 0.024508 0.044896 0.1373 0.07597 
0.10458 -0.5003 0.028125 0.031907 0.012177 0.06183 0.094548 0.058542 
-0.061645 -0.94504 0.049335 0.048184 0.024015 0.024344 0.049664 0.0075736 
-0.16046 -0.58695 0.03388 0.023686 0.030756 0.037332 0.047197 -0.0098543 
-0.16802 0.053774 -0.046683 0.042923 0.035195 0.03536 0.020398 -0.012814 
-0.12264 0.41844 -0.073976 0.016288 0.016452 0.02829 0.02681 0.0028056 
-0.085813 0.47418 -0.085978 0.039634 -0.012649 0.02681 -0.00064712 -0.016595 
-0.055726 0.45462 -0.083512 0.041772 0.016781 0.0046141 -0.031557 -0.00081153 
-0.06 0.47451 -0.055397 0.037332 0.039963 -0.006566 -0.0049219 0.014479 
-0.012814 0.3826 0.012342 0.046868 0.016781 -0.039284 -0.042573 0.047362 
0.05065 0.26817 0.0069159 0.030427 -0.0078813 -0.095843 -0.060165 0.048184 
0.14026 0.071366 0.064132 0.040456 0.0013258 -0.07973 0.023193 0.039141 
0.1659 -0.11574 0.033715 0.012013 0.025659 -0.090746 0.068571 0.055747 
0.024344 -0.10275 0.017438 0.086821 0.032893 -0.10291 0.13269 0.015794 
-0.044052 -0.036983 0.01152 0.042429 0.052294 -0.051944 0.067585 0.014808 
-0.066906 0.097672 0.030592 0.041114 0.058542 -0.039613 0.01152 0.053116 
-0.072989 0.25337 0.10622 0.044073 0.029276 0.0036276 0.047855 0.05065 
-0.089759 0.38277 0.17593 -0.0062372 0.036675 0.054103 0.034209 0.047691 
-0.080717 0.013821 0.18777 0.013657 0.026646 0.21161 0.04095 0.0085601 
-0.010348 -0.68066 0.22805 -0.014458 0.017603 0.35136 0.0324 0.028947 
0.13434 -1.0761 0.23956 0.010697 0.0047785 0.39641 0.023851 0.032893 
0.26126 -0.6514 0.15275 0.014808 0.038319 0.39904 0.067585 0.032729 
0.40282 0.29678 0.013657 0.039634 0.067913 0.31486 0.090931 0.01711 
0.36468 0.79923 -0.10357 0.055911 0.060186 0.09126 0.044567 -0.01676 
0.20882 0.84576 -0.16407 0.054432 0.042758 -0.21225 0.020727 -0.025802 
0.065776 0.46629 -0.12609 0.062652 0.015301 -0.30333 -0.034516 0.016616 
-0.0014692 -0.31188 -0.018404 0.0041209 -0.00064712 -0.34345 -0.017582 0.031249 
-0.14763 -0.75695 0.066927 0.0032988 -0.0049219 -0.25927 -0.011827 0.029441 
-0.24497 -0.55801 0.057884 -0.0073881 -0.016595 -0.21225 0.0013258 0.067913 
-0.24776 -0.018075 0.016781 0.021384 0.0023123 -0.079566 0.031414 0.06742 
-0.18298 0.46399 -0.01528 0.035524 0.026481 0.010862 0.059693 0.037332 
-0.084827 0.64501 -0.017911 0.075476 0.041114 0.10507 0.08863 -0.031064 
-0.035174 0.48487 0.011355 0.076956 0.031085 0.13351 0.092247 -0.02942 
0.00017495 0.29267 0.038977 0.04095 0.037661 0.15045 0.095042 -0.022021 
-0.028104 0.21556 0.039305 0.064296 0.047362 0.13943 0.086657 0.0070803 
-0.053917 0.21227 0.035688 0.03388 0.023193 0.13549 0.07038 0.0062583 
0.0011614 0.26389 0.041114 0.032564 0.02829 0.12579 0.091918 0.016616 
0.059857 0.16031 0.04095 0.014972 0.017932 0.081889 0.05624 0.0069159 
0.089616 0.022206 0.052787 0.0072447 0.027139 0.090274 0.048677 0.012013 
0.03092 -0.066906 0.069064 0.0039565 0.0070803 0.034209 0.071859 0.01152 
0.013986 -0.062302 0.061172 0.01152 0.012342 0.076956 0.042594 0.02681 
0.00099702 -0.066577 0.049499 0.02681 0.0019835 0.057391 0.062817 0.03947 
0.014643 -0.11426 0.026317 0.01563 0.018425 0.025166 0.044896 0.031414 
0.10688 -0.10735 0.026646 0.041607 0.0098754 -0.0067304 0.038319 0.046704 
0.20931 -0.16309 0.041772 0.032893 0.016452 -0.011827 0.047362 0.036017 
0.23874 -0.18759 0.046868 0.028454 0.025824 -0.019555 0.024508 0.068407 
0.23858 -0.19942 0.061172 0.010204 0.0098754 -0.012485 0.0087245 0.090274 
0.20257 -0.13514 0.059364 0.013328 0.0046141 0.004943 0.030263 0.062981 
0.1659 -0.024323 0.057391 0.038155 0.015465 0.0052718 0.021384 0.034373 
0.12908 -0.00015387 0.056404 0.025001 0.018425 -0.0049219 0.022535 0.03651 
0.042429 -0.012485 0.013986 0.070215 0.017438 -0.027611 -0.01232 0.051472 
-0.062796 -0.0082102 0.0074092 0.0074092 0.013657 -0.0091966 -0.014787 0.061501 
-0.12593 0.015301 -0.010348 0.042758 -0.0024557 -0.012156 0.030263 0.014643 
-0.14204 0.09422 -0.013636 0.028783 0.0051074 0.004943 0.022206 -0.014622 
-0.15931 0.1733 -0.02235 0.034702 0.019247 -0.0095255 0.054103 -0.023665 
-0.1062 0.21901 -0.020377 0.034702 0.0092177 -0.023501 0.025824 -0.0059084 
-0.051122 0.22822 -0.026953 0.032071 0.032071 -0.039942 0.00083261 -0.006566 
-0.035338 0.2662 -0.0040998 0.085012 0.0080668 -0.033201 0.0227 0.0065871 
-0.0021268 0.20734 0.0095465 0.036017 0.020562 -0.01939 0.023686 0.015465 
0.024344 0.15144 0.043251 0.032893 0.016616 -0.013143 0.034209 0.054267 
0.037168 0.11444 0.0421 0.021549 0.019905 0.005765 0.027961 0.025988 
0.011191 0.066105 0.034537 0.027796 0.019576 0.0085601 0.02681 0.029934 
0.024837 0.04095 0.034866 0.045882 0.020233 -0.0031133 0.015794 0.072024 
0.054596 0.0592 0.045389 0.031414 0.028454 -0.0040998 0.019247 0.055089 
0.075312 0.1613 0.040785 0.061337 0.022864 0.014972 -0.0024557 0.031085 
0.096521 0.15834 0.049664 0.02533 0.019905 -0.022679 0.00083261 0.05624 
0.11115 0.080409 0.051143 0.047855 0.042923 0.021056 0.046046 0.076792 
0.090438 -0.02087 0.038483 0.02681 0.037497 0.026974 0.10491 0.036346 
0.084684 -0.039449 0.020233 0.037332 0.039963 0.0087245 0.073668 0.036182 
0.076627 0.047033 0.00297 0.031742 0.052623 -0.031721 0.0059294 0.033387 
0.05476 0.069393 -0.0073881 0.033058 0.016452 -0.042901 -0.017253 0.045882 
-0.021034 0.15851 0.00297 0.039305 0.0032988 -0.031721 -0.048656 0.063145 
-0.064768 0.23775 0.0036276 0.025001 0.018425 -0.0014692 -0.062467 0.053774 
-0.016924 0.31207 -0.0052507 0.027303 0.013821 0.022206 -0.08269 0.039963 
0.085835 0.18119 0.01267 0.012177 0.020727 0.046046 -0.068221 0.037661 
0.15259 -0.032379 0.064132 0.012177 -0.0047575 0.055089 -0.006566 0.049499 
0.1368 -0.4638 0.13203 -0.042244 -0.0062372 -0.0011404 0.029605 0.076627 
0.15834 -1.0802 0.18119 -0.020212 1.0539e-005 0.01563 0.045718 0.062817 
0.053281 -0.96066 0.14206 0.017767 0.028947 0.054596 0.050157 0.025495 
-0.078086 -0.2208 0.073668 0.034373 0.039799 0.072681 0.092082 -0.0098543 
-0.15487 0.46678 0.035853 0.085835 0.063968 -0.015773 0.099645 -0.018404 
-0.15816 0.74777 0.069886 0.03651 0.037168 -0.031228 0.094055 -0.028104 
-0.098144 0.65635 0.12776 0.034866 0.034044 -0.05589 0.12299 0.0054362 
-0.048985 0.41664 0.11165 0.013986 0.023357 -0.048985 0.081395 0.027303 
-0.03205 0.091096 0.050321 0.031414 0.034209 -0.025309 -0.018733 0.03388 
-0.0068948 -0.14467 -0.042244 0.032071 0.024837 0.0026412 -0.075455 0.023522 
0.046211 -0.11771 -0.10489 0.022371 0.032729 0.032071 -0.049642 0.0052718 
0.11526 0.090767 -0.14977 0.050979 0.034537 0.10918 0.025988 -0.00031829 
0.13154 0.17659 -0.12626 0.022864 0.033058 0.16952 0.050486 0.040456 
0.064954 0.13023 -0.07825 0.044567 0.039799 0.2075 0.011684 0.034044 
0.0075736 0.082875 -0.050958 0.016616 0.042923 0.18366 -0.037805 -0.0077169 
-0.041915 0.0083956 0.017438 0.021549 0.047526 0.095535 -0.045203 0.031742 
0.037661 -0.068879 0.087479 0.043251 0.056569 0.013492 -0.0078813 0.10014 
0.13516 -0.16111 0.13023 0.0042853 0.019247 -0.070852 0.011684 0.027796 
0.17643 -0.20288 0.10277 -0.0016336 0.0088889 -0.1353 -0.020377 0.0085601 
0.088136 -0.14681 0.096521 0.011684 0.030592 -0.15618 0.0087245 0.036675 
-0.11607 -0.121 0.055582 0.052623 0.035031 -0.1113 0.032564 0.048841 
-0.14336 0.022371 0.028125 0.018754 0.0062583 -0.031557 0.063968 0.030427 
0.031742 0.011848 0.049664 0.035688 0.015794 0.028125 0.14469 0.044402 
0.26751 0.029605 0.071695 -0.0044286 0.0065871 0.12184 0.2583 0.039634 
0.32243 -0.011498 0.061008 0.01004 0.024344 0.23003 0.34955 0.029934 
0.1807 0.025001 0.017603 0.033058 0.017438 0.31684 0.27294 0.025988 
0.0093821 0.087314 -0.022185 0.036182 0.046868 0.36698 0.066927 0.029605 
-0.051287 0.10047 -0.017417 0.069393 0.064296 0.32062 -0.13251 0.018918 
-0.071509 0.091425 0.026317 0.042758 0.068571 0.086492 -0.16325 -0.02087 
-0.098144 0.062323 0.023851 0.051472 0.037332 -0.075949 -0.12988 -0.025967 
-0.074633 0.093562 -0.00064712 0.025824 0.023686 -0.11311 -0.077922 -0.017253 
-0.026624 0.095864 -0.0034422 0.031907 0.0088889 -0.012814 -0.041751 0.01974 
0.0083956 0.094055 0.00050378 0.018918 0.023357 0.04358 0.00099702 0.041772 
0.053774 0.069558 0.052294 0.013821 0.019905 -0.0070593 0.046868 0.054432 
0.078436 0.025659 0.08156 0.037004 0.020727 -0.10324 0.07597 0.042923 
0.10326 0.067585 0.050321 0.0085601 0.034866 -0.11574 0.091096 0.025166 
0.10096 0.12069 -0.0055795 0.047526 0.032893 -0.06296 0.087808 0.00066819 
0.091096 0.14963 -0.0016336 0.029605 0.031578 0.0051074 0.10293 0.011355 
0.063968 0.14108 -0.00097594 0.053938 0.032729 0.080409 0.066763 0.011848 
0.040785 0.11477 -0.014787 0.041936 0.040456 0.10967 0.051636 0.030427 
0.0021479 0.093562 -0.0026201 0.041443 0.039141 0.10474 0.04358 0.036675 
0.0036276 0.024015 0.01826 0.039799 0.041443 0.059528 0.010862 0.039799 
0.041114 0.00050378 0.064461 0.021384 0.029934 0.065447 0.043416 0.025824 
0.094055 0.053445 0.063474 0.052623 0.04095 0.095206 0.069722 0.045882 
0.086985 0.10047 0.046704 0.0098754 0.048019 0.18185 0.11148 0.03651 
0.051308 0.13105 0.040785 0.041607 0.029112 0.15785 0.19254 0.04095 
0.027961 0.10129 0.031414 0.022371 0.030756 0.055747 0.18826 0.045882 
0.045224 0.082711 0.04095 0.042265 0.050979 -0.026953 0.13828 0.037661 
0.030592 -0.018239 0.067749 0.017438 0.063639 -0.018075 0.057227 0.031414 
0.0069159 -0.028433 0.072024 0.045553 0.055582 0.0023123 -0.034681 0.021384 
-0.0050863 -0.047341 0.086328 0.043745 0.030756 -0.02646 -0.092226 0.028947 
0.0095465 0.0042853 0.11165 0.0065871 0.022535 -0.047834 -0.18857 0.039305 
-0.0021268 -0.0070593 0.054596 0.048841 0.035031 -0.082525 -0.32323 0.032893 
-0.0138 -0.0011404 0.029276 0.034044 0.055254 -0.056548 -0.35348 0.025166 
-0.0022913 -0.012814 0.0227 0.037661 0.037004 -0.069043 -0.16407 0.011191 
-0.0027845 -0.24266 0.030427 0.058871 0.026317 -0.035338 -0.041257 0.025001 
0.036346 -0.20748 0.050814 -0.0082102 0.0018191 -0.086471 -0.0031133 0.033222 
0.055418 0.14683 0.056898 0.039963 0.038155 -0.073647 0.052294 0.014808 
0.079422 0.3923 0.031249 0.054432 0.053938 -0.097487 0.12085 0.0026412 
0.05624 0.37372 0.020398 0.047855 0.044238 -0.095185 0.17051 0.021878 
0.036346 0.20898 0.027796 -0.023829 0.047691 -0.077757 0.23381 0.016945 
0.062159 0.12217 0.0098754 0.022371 0.050814 -0.07825 0.15982 0.04095 
0.035524 -0.0055795 0.03388 -0.008539 0.064954 -0.06296 0.14502 0.062817 
-0.0011404 -0.025309 0.047691 0.024673 0.057227 -0.073647 0.10145 0.062323 
-0.015444 0.072024 0.019576 0.046046 0.057062 -0.024158 0.084519 0.020727 
-0.055561 0.23282 -0.015773 0.045882 0.045553 0.047691 0.050157 0.026152 
-0.060329 0.27113 0.0062583 0.054267 0.028947 0.15801 0.017603 0.056569 
-0.030735 0.12661 0.037168 0.015959 0.035688 0.31881 0.0044497 0.054596 
-0.0090322 -0.020541 0.063803 0.01974 0.024015 0.39543 -0.13563 0.044402 
0.021713 -0.12001 0.058871 0.018589 0.035688 0.2902 -0.22458 0.0093821 
-0.0047575 -0.099131 0.022371 0.026974 0.0046141 0.19122 -0.14023 -0.013965 
0.034044 -0.088608 0.017603 0.023193 0.040621 0.076956 -0.024816 -0.024323 
0.070544 -0.02235 0.044073 0.037826 0.06183 -0.11607 0.047691 -0.016924 
0.078929 0.081067 0.023522 0.05624 0.036182 -0.30629 0.044567 0.030098 
0.049499 0.13138 0.0047785 0.042265 0.031085 -0.33704 -0.00031829 0.043745 
-0.0042642 0.14881 -0.0026201 0.051308 0.0324 -0.31681 0.028783 0.045718 
0.0026412 -0.12856 0.020069 0.022371 0.017274 -0.21636 0.050814 0.055089 
0.059528 -0.60552 0.11625 0.010697 0.034537 -0.099295 0.0324 0.069558 
0.071202 -0.80414 0.1465 -0.0077169 0.0074092 -0.024323 0.072188 0.072681 
0.055747 -0.30646 0.092576 0.0032988 0.0085601 0.084026 0.079258 0.053774 
0.015465 0.49259 0.01415 0.01004 0.027961 0.13812 0.078107 0.03092 
-0.021034 0.75599 -0.018897 0.021713 0.0036276 0.21342 0.093891 0.027961 
-0.044052 0.5896 -0.054082 0.058377 0.046868 0.18333 0.069393 -0.0064016 
-0.042573 0.34906 -0.049807 0.023357 0.023193 0.16738 0.088301 -0.012485 
0.013986 0.18399 -0.0078813 0.04506 0.026974 0.16985 0.076792 -0.029091 
0.052787 0.079422 0.021384 0.017438 0.027961 0.16426 0.060022 0.018589 
0.08304 0.08008 0.033715 0.01415 0.037497 0.10129 0.059364 0.044073 
0.10754 0.10721 0.072846 0.018425 0.035195 0.060022 0.056733 0.056898 
0.12431 0.024673 0.10885 0.01152 0.042758 0.08008 0.073668 0.038812 
0.054432 -0.01939 0.10869 0.045389 0.021713 0.035031 0.055582 0.026152 
0.029934 -0.037805 0.069064 0.011684 0.041443 -0.017746 0.028783 0.013492 
-0.011663 -0.00081153 0.0079024 0.042265 0.0227 -0.031228 0.058706 0.01004 
-0.0080457 -0.0055795 -0.010183 0.01826 0.035524 0.0067515 0.043087 0.005765 
0.036182 0.007738 0.031578 0.014315 0.048348 0.025988 0.047362 0.022371 
0.033222 0.080573 0.061995 0.035524 0.038319 0.033058 0.047033 0.038155 
0.040456 -0.05737 0.12743 0.023686 0.03388 0.060022 0.061172 0.031907 
0.028619 -0.2568 0.083533 0.047855 0.032236 0.053938 0.052459 0.03799 
-0.010676 -0.29807 0.12283 0.025495 0.0016547 0.076956 0.03092 0.01267 
-0.041257 -0.0070593 0.045224 0.06742 0.027468 0.052952 0.045718 0.0075736 
-0.056548 0.30385 0.028783 0.031742 0.026974 0.037826 0.06035 0.01004 
0.05624 0.31651 0.020891 0.034209 0.019905 0.029112 0.055089 0.051801 
0.13368 0.27343 0.029441 0.014643 0.015959 0.01826 0.053774 0.04654 
0.19369 0.17297 0.024837 0.024015 0.022042 0.013986 0.045718 0.032564 
0.085012 0.11017 0.024508 0.030263 0.01711 0.038319 0.033715 0.025659 
0.00083261 0.066269 0.012506 0.033222 0.035195 0.00050378 0.049828 0.012177 
0.063968 0.01152 0.02829 0.04095 0.015465 0.023851 0.015137 0.00050378 
0.077778 -0.037805 0.025824 0.013657 0.00066819 -0.011498 0.039305 0.018096 
0.021878 -0.072989 -0.0047575 0.028947 0.009711 0.029441 0.033551 0.03388 
-0.0087034 -0.042573 -0.0095255 0.039141 0.010697 -0.0013048 0.010204 0.047691 
-0.039449 -0.13103 0.036017 0.029769 0.01974 -0.0032777 0.035524 0.029112 
-0.047341 -0.27982 0.1026 0.0067515 0.011026 -0.010019 0.013821 0.038977 
-0.080552 -0.39656 0.12365 -0.0060728 0.0024767 0.0028056 0.027303 0.04506 
-0.088937 -0.12971 0.079587 0.015794 -0.0059084 -0.013307 0.020891 0.050486 
-0.038956 0.29349 0.0070803 0.007738 -0.0032777 -0.01232 0.012342 0.034537 
0.033387 0.46563 -0.03057 0.055747 0.0042853 -0.037476 0.03388 0.049992 
0.11658 0.32095 -0.042573 0.03799 0.0028056 -0.020048 -0.0080457 0.03799 
0.17725 0.13812 -0.016924 0.046704 0.017603 -0.015609 0.009711 0.038812 
0.1835 0.18876 0.00017495 0.040621 0.025659 -0.012156 0.0042853 0.020562 
0.10178 0.1659 0.03651 0.042594 0.037826 0.042429 0.0095465 0.036675 
0.069886 0.069229 0.034702 0.048677 0.032071 0.0047785 0.042265 0.025495 
0.20964 -0.029913 0.038155 0.04506 0.039305 0.012177 0.033222 0.035031 
0.29217 -0.11574 0.01004 0.081724 0.0031344 -0.020377 0.017438 0.02122 
0.20569 -0.058685 -0.027775 0.038977 0.017767 0.020727 0.019905 0.010204 
0.074161 -0.055397 -0.049642 0.052623 0.022864 -0.011827 0.024673 0.0037921 
0.073175 -0.041093 -0.02087 0.034702 0.020562 0.012835 0.042758 0.01711 
0.078272 -0.049314 -0.006566 0.027139 0.043745 -0.03353 0.025495 0.029441 
-0.066741 0.058377 -0.0049219 0.024179 0.031414 0.01711 0.014972 0.02829 
-0.20074 0.1202 0.0098754 0.02122 0.04506 0.018096 0.023686 0.013657 
-0.21143 0.058049 0.037004 0.037004 -0.00031829 0.01826 -0.00097594 0.019411 
-0.12988 -0.042737 0.076463 0.014808 0.018425 0.025659 0.021713 0.025824 
-0.10176 -0.17377 0.11428 0.034373 0.012999 0.010697 0.012835 0.014643 
-0.12527 -0.056712 0.097508 0.010369 0.014315 0.033387 0.014808 0.040128 
-0.14352 0.049006 0.072846 0.036675 0.011848 0.025659 0.024837 0.058706 
-0.066906 0.12973 0.034866 0.028947 0.018096 0.038483 0.016123 0.059528 
0.033715 0.11231 0.016945 0.027961 0.034866 0.0064227 0.03388 0.052459 
0.13039 0.12858 -0.017746 0.063968 0.052787 0.051801 0.024837 0.071859 
0.25584 0.13121 -0.023501 0.040292 0.034209 0.025988 0.0080668 0.060022 
0.25929 0.088301 0.048513 0.057391 0.094055 0.011684 0.040785 0.066598 
0.20684 0.08978 0.019083 0.0227 0.029605 0.029441 0.016945 0.013328 
0.14535 -0.0064016 0.034866 0.03536 0.046046 0.032729 0.019905 -0.0060728 
0.095699 -0.059507 0.06035 0.022206 0.025001 0.022042 0.017603 0.01711 
0.071531 0.028125 0.063639 0.026974 0.029441 0.029112 0.030263 0.014479 
-0.0013048 -0.14846 0.08304 0.026152 0.005765 0.053938 0.04506 0.0039565 
-0.046354 -0.28393 0.097179 0.016945 0.027468 0.030263 0.022535 0.0079024 
-0.094034 -0.16917 0.10935 0.038648 0.010369 0.044238 0.019411 -0.0050863 
-0.1478 0.089616 0.076463 0.01267 0.028783 0.027303 0.03651 0.016288 
-0.081374 0.23808 0.04358 0.048348 0.03799 0.047362 0.022864 0.01711 
0.0098754 0.2611 0.027961 0.04358 0.028947 0.053445 0.057227 0.0064227 
0.11576 0.33361 0.018754 0.034044 0.025495 0.04358 0.026974 0.029441 
0.094713 0.37668 0.038648 0.019576 0.036839 0.055089 0.02829 0.052623 
-0.009361 0.43439 0.044402 0.0047785 0.031742 0.059364 0.057884 0.031414 
-0.092226 0.25699 0.047526 0.050321 0.028947 0.038812 0.046704 0.009711 
-0.079401 0.031742 0.047526 0.0227 0.045224 0.042758 0.06035 0.024837 
0.012506 -0.1085 0.060022 0.057227 0.048841 0.017438 0.02122 0.031249 
0.058871 -0.15306 0.077449 0.021384 0.040292 0.028619 0.021713 0.034209 
0.068571 -0.20764 0.090274 0.020233 0.036017 0.05624 0.04095 0.0028056 
0.056898 -0.35858 0.091918 0.01004 0.040456 0.01826 0.028783 0.016781 
0.0060938 -0.27242 0.064954 0.014315 0.041772 0.034044 0.042429 0.01974 
-0.032215 -0.092883 0.043745 0.029605 0.056404 0.026481 0.032729 0.041936 
0.015465 0.14634 0.010369 0.013821 0.034044 0.046868 0.017932 0.0092177 
0.061337 0.21145 -0.0091966 0.049006 0.035031 0.033387 0.041936 0.012342 
0.081724 0.20421 0.0085601 0.019411 0.027139 0.034537 0.03388 0.030263 
0.06479 0.21605 0.0092177 0.025659 0.053609 0.03092 0.032071 0.037497 
0.035031 0.15982 0.021549 0.011191 0.021713 0.010862 0.025166 0.043745 
-0.011663 0.15094 0.014972 0.01415 0.020069 0.0014903 0.020398 0.042758 
-0.060987 0.11921 -0.012156 0.030098 0.0044497 0.023193 0.036017 0.036182 
-0.056219 0.09126 0.0088889 0.014479 0.01711 0.027961 0.034702 0.048184 
-0.068386 0.08863 0.03092 0.055582 0.019083 0.035688 0.025659 0.031085 
-0.0771 0.041936 0.032893 0.0065871 0.030756 0.031249 0.042594 0.027961 
-0.042079 0.028619 0.020562 0.015137 0.012177 0.027139 0.0085601 0.044402 
0.020069 0.014479 0.01974 0.017932 0.0062583 0.030592 0.047197 0.037826 
0.075148 0.037332 0.010204 0.017438 0.012999 0.010369 0.036017 0.0059294 
0.11872 0.057062 0.0087245 0.0028056 0.013164 0.020233 0.036346 0.0080668 
0.16738 0.065283 0.032893 0.0059294 0.0090533 0.00083261 0.031907 0.029769 
0.15028 0.029934 0.077121 0.0082312 0.02533 0.005765 -0.0021268 0.05624 
0.18333 -0.05737 0.025824 0.0016547 0.01415 0.0026412 0.034702 0.056569 
0.15209 0.0067515 0.031414 0.038155 -0.008539 -0.014293 0.045882 0.062488 
0.069229 0.15916 -0.010676 0.037332 0.022042 0.0093821 0.016781 -0.0026201 
-0.018404 0.25173 -0.0052507 0.053938 0.016781 -0.00015387 -0.0096899 0.0067515 
-0.054739 0.11888 0.00099702 0.033551 0.013328 -0.040928 -0.023007 0.048677 
-0.046847 -0.12248 0.027303 0.019905 0.0060938 -0.022679 0.023028 0.023851 
-0.03501 -0.11113 0.037168 0.063145 0.031414 -0.037476 0.03092 0.028125 
0.0042853 0.065118 -0.023336 0.042429 0.030592 -0.038462 0.044896 0.041772 
0.021384 0.25913 -0.02087 0.063145 0.032564 -0.017253 0.06331 0.023193 
0.025001 0.25354 -0.018404 0.022864 0.015465 -0.044052 0.046211 0.035688 
-0.0032777 0.16804 0.01152 0.042758 0.0092177 -0.015444 0.052623 0.023357 
-0.02794 0.065776 0.029934 0.036346 -0.01939 0.02122 0.066269 0.0227 
0.031085 0.00099702 0.00297 0.021878 0.01711 0.077449 0.094877 0.03651 
0.073339 -0.038133 -0.0049219 0.0324 0.0024767 0.11247 0.088958 0.031578 
0.10359 -0.3765 0.053938 0.026317 0.023522 0.16442 0.044731 0.03388 
0.14091 -0.86974 0.11477 0.044073 0.017932 0.22197 0.010533 0.051801 
0.16442 -0.74708 0.12036 0.022371 0.011684 0.22016 0.013986 0.080573 
0.16064 -0.030077 0.06331 0.047526 0.0074092 0.088958 -0.034188 0.044567 
0.038977 0.50838 0.01974 0.024673 -0.004593 -0.10735 -0.014622 0.037168 
-0.025638 0.61163 0.023193 0.034702 0.0021479 -0.23428 -0.039778 0.015465 
-0.071838 0.45248 0.052787 0.023357 0.0093821 -0.2522 -0.028597 0.0054362 
-0.073976 0.22328 0.070544 0.045553 0.025988 -0.17558 -0.0059084 -0.01117 
0.047691 0.14223 0.033387 0.032071 0.037497 -0.11903 -0.041257 0.023357 
0.12562 0.10803 0.050814 0.027468 0.025824 -0.027282 0.019905 0.01711 
0.065612 0.085341 0.036675 0.06035 0.031907 0.042429 0.090274 0.016288 
0.034373 -0.0062372 0.025166 0.074654 0.050814 0.12513 0.15012 0.017274 
-0.021856 -0.13218 0.021056 0.060186 0.018754 0.15982 0.17774 0.0041209 
-0.0059084 -0.14862 0.041607 0.014643 0.029276 0.1613 0.10852 0.023851 
0.0054362 -0.16966 0.039799 0.027139 0.01415 0.13319 0.07597 0.029112 
-0.014951 -0.046847 0.034702 0.032729 0.01563 0.12792 0.042594 0.038977 
-0.052273 0.043745 0.032564 0.044073 0.022371 0.16064 -0.0057439 0.015465 
-0.030899 0.055911 0.025659 0.05772 0.0421 0.16903 0.018589 0.023357 
0.051143 -0.019555 0.048184 0.03536 0.046868 0.062488 0.0044497 0.060844 
0.14963 -0.072167 0.064625 0.048348 0.017438 -0.057041 -0.0039354 0.067585 
0.15012 0.010697 0.093069 0.02533 0.01152 -0.10554 -0.0011404 0.059035 
0.051965 0.1368 0.07597 0.019411 0.010369 -0.13382 -0.0013048 0.037497 
-0.047176 0.28346 0.071202 0.019083 0.017603 -0.088444 0.029769 0.014972 
-0.036654 0.27836 0.076134 0.01711 0.0080668 -0.015773 0.025824 0.0051074 
0.0023123 0.17676 0.040128 0.050157 0.024837 0.040292 0.03799 -0.0026201 
0.012342 0.040621 -0.0091966 0.062488 0.05213 0.090603 0.0059294 -0.021692 
-0.018568 -0.15569 -0.026789 0.045224 0.019083 0.068736 -0.0091966 0.021056 
-0.0073881 -0.10225 -0.04323 -0.001798 0.029769 0.054432 -0.010348 -0.0082102 
-0.065262 0.10918 -0.06444 0.040621 0.018589 0.013328 0.030263 0.021878 
-0.056219 0.20273 -0.03616 0.055089 0.041114 0.020891 0.028783 0.012999 
0.015137 0.15045 0.012177 0.034702 0.024015 -0.032708 0.029934 0.0028056 
0.058049 0.024179 0.037826 0.050321 0.036346 -0.040928 -0.03057 0.0324 
0.11 -0.015609 0.042758 0.036017 0.034702 -0.040106 -0.02087 0.021549 
0.15423 -0.052109 0.0051074 0.037826 0.017932 -0.053917 -0.024158 0.026646 
0.13434 0.015301 0.02681 0.018754 0.0098754 -0.081868 -0.033694 0.026152 
0.13812 0.00297 0.040456 0.01826 0.0093821 -0.06296 0.0037921 0.060515 
0.1299 0.016616 0.070051 0.012999 0.012342 -0.026953 0.095699 0.071531 
0.15407 0.0093821 0.088136 0.0042853 -0.0055795 0.085341 0.21227 0.067749 
0.14174 -0.10258 0.072846 0.0087245 -0.01676 0.19731 0.2754 0.096686 
0.10359 -0.39836 0.12266 -0.046354 -0.018733 0.37224 0.20816 0.0786 
0.0018191 -0.52496 0.11181 0.02533 0.020398 0.36221 0.13615 0.011191 
-0.065591 -0.11311 0.074819 0.023522 0.061172 0.2948 0.042429 -0.074633 
-0.10324 0.39428 0.085177 0.057227 0.072517 0.15193 -0.01232 -0.051122 
-0.097322 0.64912 0.048019 0.024344 0.0689 0.038977 -0.013965 -0.017911 
-0.074798 0.53436 -0.016595 0.048184 0.046868 -0.066248 -0.024816 0.062817 
-0.062467 0.34725 -0.068879 0.034373 0.043251 -0.16851 -0.036983 0.06742 
-0.070852 0.20816 -0.098473 0.023357 0.014643 -0.24546 -0.16111 0.081231 
-0.084827 0.18054 -0.062302 0.039799 0.042758 -0.23806 -0.27242 0.031414 
-0.022843 0.31618 -0.030899 0.029276 0.048513 -0.14599 -0.16786 0.030098 
0.039305 0.23841 -0.017911 0.044402 0.047197 -0.077757 0.028619 0.01152 
0.041278 0.11559 -0.015609 0.03388 0.040292 -0.022185 0.23052 0.051801 
0.10639 -0.063782 0.048677 0.030592 0.042923 -0.00097594 0.21605 0.065283 
0.1419 -0.21521 0.069886 0.020891 0.02829 0.047691 0.16903 0.084355 
0.18794 -0.21521 0.061501 0.032564 0.046046 0.089616 0.10918 0.066105 
0.21885 -0.20107 0.075641 0.028947 0.050486 0.087643 0.048184 0.041443 
0.028619 -0.10489 0.097344 0.026974 0.065283 0.082217 0.010369 0.044731 
-0.099953 -0.083347 0.095206 0.043251 0.045389 0.064296 -0.056055 0.024673 
-0.12018 -0.0080457 0.077778 0.020727 0.037168 0.046211 -0.060987 0.005765 
-0.12774 0.016616 0.065118 0.040785 0.047691 0.029441 -0.063946 0.0028056 
-0.051287 -0.045696 0.078765 0.013164 0.038483 0.027961 -0.031392 0.011026 
0.032071 -0.0029489 0.11 0.00297 0.029112 0.010697 0.0024767 0.031085 
0.11872 0.092576 0.086657 0.0080668 0.041114 0.018754 0.059528 0.047526 
0.23315 0.19616 0.055911 0.011026 0.030427 0.037332 0.095864 0.03388 
0.23989 0.21079 0.030098 0.044567 0.053281 0.059364 0.09833 0.007738 
0.18152 0.14716 0.052952 0.0019835 0.064461 0.043745 0.070544 0.031085 
0.17544 0.043909 0.056569 0.030263 0.053938 0.039963 0.041443 0.053281 
0.049828 0.045224 0.047197 -0.026953 0.078929 0.047197 0.026974 0.023028 
-0.098802 0.023028 0.050157 0.0324 0.062323 0.0014903 -0.0070593 0.055418 
-0.21981 0.022371 0.00099702 0.038977 0.075148 0.011684 0.017274 0.004943 
-0.22573 -0.10965 -0.025967 0.071037 0.064132 0.021713 0.03388 -0.0083746 
-0.10867 -0.33654 -0.019884 0.060022 0.076956 0.014643 0.035031 -0.02087 
-0.063453 -0.21406 -0.014458 0.04358 0.078929 0.019411 0.020069 -0.020706 
-0.038462 0.12464 0.0016547 0.047033 0.049664 0.0095465 0.00017495 0.0227 
-0.0040998 0.30007 0.0060938 0.009711 0.054103 -0.030242 0.016781 0.01004 
0.015137 0.30385 0.004943 0.025988 0.053938 -0.0047575 -0.015938 0.019083 
0.12036 0.19977 0.016452 0.016781 0.05065 -0.021528 -0.028269 0.044238 
0.21095 0.1465 0.041114 0.017274 0.031578 0.011026 -0.015444 0.054267 
0.18169 0.048184 0.020562 0.015465 0.053609 -0.023501 -0.0055795 0.05476 
0.05476 -0.01232 0.03388 0.032236 0.074161 -0.00031829 0.014808 0.01563 
-0.0062372 0.0324 0.014643 0.044073 0.061501 -0.0062372 0.017603 0.0011614 
-0.042901 0.084519 0.03651 0.005765 0.05476 0.016123 0.044731 0.0088889 
-0.035667 0.12891 0.027468 0.051965 0.052294 0.0059294 0.077121 0.014972 
