0.12497 0.0059294 0.072188 0.005765 0.00017495 0.024015 0.029441 0.033551 
0.12891 0.022371 0.0018191 0.049499 0.01974 0.03799 0.054267 0.030098 
0.072024 0.078765 -0.059178 0.035853 0.028783 0.038812 0.055911 0.0092177 
0.028783 0.12283 -0.098802 0.037661 0.043745 0.020398 0.083533 -0.00097594 
0.023028 0.12168 -0.1108 0.037497 0.048019 0.03092 0.047362 0.013492 
0.025659 0.11066 -0.062467 0.021713 0.020233 0.0065871 0.025166 0.031742 
0.020233 0.090438 0.076299 0.0039565 0.016945 -0.055068 -0.042573 0.052787 
0.014808 0.038977 0.15045 0.05213 0.0059294 -0.067399 -0.059178 0.04654 
0.055911 0.032564 0.14289 0.047362 0.018096 -0.032872 -0.074962 0.036017 
0.057062 0.020727 0.12398 0.027139 -0.0070593 -0.023829 -0.051287 0.027961 
0.057555 -0.063124 0.13138 0.023357 0.0074092 0.011355 0.0018191 0.04654 
0.052459 -0.068057 0.10622 0.020891 0.014315 -0.0064016 0.051965 0.034044 
0.032071 -0.02087 0.10491 0.055747 0.037332 -0.0013048 0.055089 0.022864 
0.00017495 -0.010841 0.09981 0.09126 0.069558 0.045389 0.052459 0.023686 
-0.023172 0.024673 0.080573 -0.0077169 0.063639 0.077449 0.059857 0.0051074 
0.053938 0.0044497 0.044896 -0.0026201 0.01563 0.034209 0.046375 0.021056 
0.031249 -0.025309 -0.026296 -0.001798 0.023028 0.065118 0.042758 0.044896 
0.054103 0.070215 -0.084498 -0.055397 0.021878 -0.0047575 0.056898 0.024344 
0.06479 0.11937 -0.10439 -0.0036066 0.013821 0.043745 0.028454 0.054432 
0.037661 0.069886 -0.023007 0.061172 0.029276 0.040292 -0.0019624 0.073175 
0.051143 0.072517 -0.038627 0.02829 0.025001 0.02829 0.0080668 0.050979 
0.071695 0.057884 -0.044052 0.049828 0.038155 0.024344 -0.012978 0.063803 
0.054103 0.026646 0.027796 0.064296 0.037497 0.01415 0.022371 0.053938 
0.017274 0.0056006 0.086985 0.023522 0.033715 0.011355 0.029934 0.030098 
-0.026624 -0.00031829 0.15538 0.056404 0.051472 0.012013 0.036675 0.026974 
-0.026789 0.026481 0.10359 0.040456 0.028125 0.0083956 0.048019 0.03092 
-0.0138 0.035524 0.074819 0.012835 0.0083956 0.018589 0.034537 0.042429 
0.0056006 0.031414 0.10096 0.012506 0.018918 0.010697 0.027468 0.046375 
0.034866 0.041278 0.081395 0.016452 0.016616 0.031414 0.053116 0.023851 
0.047197 0.043251 0.069886 0.032893 0.029112 0.054596 0.041936 0.020398 
0.075312 0.019576 0.012177 0.03799 0.023357 0.054267 0.031907 0.016945 
0.09981 0.0088889 0.08156 0.050321 0.026152 0.013492 0.047362 0.038648 
0.13516 0.045389 0.075312 0.0092177 0.031742 0.0032988 0.015959 0.027303 
0.071859 0.037332 0.048019 0.027468 0.016945 -0.029091 0.011848 0.021878 
-0.019226 0.048019 0.031249 0.011848 0.012835 0.0031344 0.011191 0.027468 
-0.038298 0.037332 0.060515 -0.0073881 0.013492 0.011355 0.019411 0.021384 
-0.018075 0.01004 0.024673 0.020727 0.023193 0.037826 0.05624 -0.018568 
0.01004 0.042758 -0.0040998 0.020233 0.020891 0.075312 0.062817 -0.047669 
0.035195 0.071531 -0.020048 -0.0019624 0.011684 0.035524 0.076956 -0.035503 
0.032893 0.049828 0.0062583 0.050979 0.050814 -0.015609 0.014808 -0.06444 
-0.00097594 0.071695 0.040292 0.057227 0.054596 -0.036983 0.0082312 -0.0057439 
-0.023336 0.07597 0.039634 0.027303 0.050157 -0.065591 -0.050136 0.10014 
-0.029584 0.062159 0.033222 0.041607 0.024837 -0.023501 -0.0040998 0.16788 
0.015794 0.056569 0.024015 0.024344 0.020562 0.018754 0.020233 0.1322 
0.00033937 0.043416 -0.0047575 0.01974 0.026974 0.067256 0.087808 0.076956 
0.01152 0.033058 -0.04471 0.0592 0.017932 0.10491 0.12562 0.058871 
0.018918 0.042265 -0.01676 0.041607 0.029769 0.10178 0.15193 0.048841 
0.011191 0.053116 0.024344 0.028125 0.03947 0.10326 0.11181 0.054103 
0.013492 0.052787 0.045224 0.03651 0.038483 0.11247 0.085012 0.05772 
0.030592 0.094055 0.020727 0.025988 0.068242 0.072353 0.041936 0.022864 
0.030592 0.081395 -0.018897 0.023851 0.060844 0.078436 0.03947 -0.058356 
0.055747 0.066269 -0.028104 0.044238 0.033222 0.044731 0.0098754 -0.040764 
0.077449 0.068407 -0.0040998 -0.011334 0.0098754 0.01267 0.05476 -0.043559 
0.11066 0.03388 -0.029748 0.0023123 -0.0055795 0.012999 0.018425 -0.0083746 
0.087314 0.052459 -0.014951 0.011848 -0.025145 -0.024158 0.0227 0.00033937 
0.024344 0.066763 -0.017746 0.039963 0.032729 0.0092177 0.0032988 0.020891 
0.01152 0.027632 -0.0062372 0.027139 0.061008 0.014643 -0.004593 0.10819 
0.057884 0.052459 0.062652 0.044402 0.0060938 -0.06707 -0.065755 0.14321 
0.051143 0.050321 0.071366 0.0023123 0.010862 -0.055397 -0.035174 0.14897 
0.016123 0.0013258 0.036017 0.0052718 0.014643 -0.0091966 0.011026 0.073668 
0.01563 0.047362 0.033222 0.072188 0.040456 0.0092177 0.049499 0.075148 
-0.033365 0.054103 0.045224 0.059528 0.034209 0.047033 0.061008 0.046046 
-0.060823 0.061995 0.023851 0.047526 0.037004 0.063803 0.037826 -0.042079 
-0.029255 0.085999 -0.0036066 0.049828 0.044073 0.095699 0.0098754 -0.092554 
-0.012814 0.08567 -0.035338 0.023522 0.032564 0.12398 0.031085 -0.081868 
0.022864 0.055418 -0.018404 0.03947 0.022206 0.047033 -0.032708 -0.027447 
0.025824 0.03947 -0.019226 0.028619 0.012506 -0.0021268 -0.023501 0.024344 
0.055911 0.037497 -0.011992 0.049499 0.030756 0.014643 0.047526 0.037826 
0.0085601 0.043909 0.0080668 0.057062 0.042758 0.038155 0.10918 0.037826 
0.014972 0.066763 0.025988 0.036675 0.030263 0.063968 0.11231 0.045882 
0.062323 0.031414 0.06742 0.022535 0.0036276 0.054596 0.089945 0.052459 
0.061337 0.0037921 0.070215 0.030592 -0.013471 0.019247 0.056076 0.072681 
0.060022 0.015465 0.021713 0.036346 0.011684 0.048019 0.047197 0.072681 
0.067585 -0.011992 0.041443 0.04917 0.0227 0.046211 0.029769 0.10721 
0.11395 -0.015773 0.13236 0.058542 0.026317 0.026974 0.0021479 0.12217 
0.12612 -0.0062372 0.14946 0.021549 0.022864 -0.028269 -0.018404 0.069229 
0.11691 0.010862 0.047362 -0.0052507 0.01826 -0.054904 -0.023172 0.030756 
0.06479 0.043745 -0.012485 0.012506 -0.014293 -0.052602 -0.0036066 0.018754 
0.022042 0.062323 -0.0070593 -0.00031829 -0.015938 -0.023994 -0.021856 0.0090533 
-0.037147 0.052787 0.0085601 0.01711 0.036839 0.0056006 0.023851 0.0054362 
-0.066577 0.079422 0.021056 0.064296 0.036675 0.075805 0.02533 -0.023007 
-0.050629 0.089123 0.031249 0.052952 0.053774 0.10573 0.042265 -0.045861 
-0.012978 0.0592 0.035688 0.051143 0.049664 0.095206 0.042594 -0.042901 
0.019083 0.05476 0.072353 0.052623 0.023357 0.0421 0.055747 -0.029255 
0.13253 0.059364 0.070708 0.03388 0.010697 -0.012156 0.038812 -0.006566 
0.13565 0.01152 0.046046 0.030427 0.026317 -0.014458 0.049828 0.028947 
0.073504 0.029276 0.036675 0.037168 0.019083 -0.040928 0.01974 0.026317 
-0.0004827 0.039305 0.03388 0.018096 0.03092 -0.018239 0.073175 0.012342 
-0.024323 0.035031 0.029934 0.029934 0.020233 0.011355 0.064296 0.0079024 
-0.026624 0.066105 0.041936 0.061008 0.013328 0.021056 0.086163 0.026974 
-0.026131 0.04506 0.041936 0.013164 1.0539e-005 0.039799 0.043087 0.024179 
0.0041209 0.02122 0.08304 0.016616 0.0023123 0.030098 0.068571 0.014643 
0.027303 0.016288 0.093562 0.010204 -0.023829 0.032071 -0.043395 0.0014903 
0.038977 -0.017582 0.090274 0.0024767 0.0051074 0.0064227 0.051143 0.020233 
0.027303 0.014643 0.1322 0.050979 0.00297 -0.0019624 0.059857 0.0013258 
0.071695 0.03651 0.048677 0.029276 0.054432 0.037661 0.037332 0.029441 
0.055911 0.028454 -0.011827 0.011848 0.048677 0.1031 0.024344 0.033387 
0.060679 0.047691 -0.009361 0.053281 0.052787 0.11855 0.068407 0.015959 
0.046704 0.089945 -0.041257 0.068078 0.065447 0.099152 0.04654 -0.0019624 
-0.004593 0.078272 -0.073154 0.030098 0.039634 0.023522 0.014315 -0.0026201 
0.020069 0.068736 0.0016547 0.026974 0.024508 -0.026789 0.0075736 0.024344 
0.054103 0.04358 0.029441 0.0024767 0.012342 -0.036818 0.026481 0.045389 
0.046211 0.010533 0.045882 -0.0055795 -0.0014692 -0.050464 0.0075736 0.072353 
0.0042853 0.029769 0.061501 0.0037921 0.012506 -0.010676 0.076627 0.061995 
-0.019884 0.062652 0.11592 -0.0013048 0.019576 0.045389 0.11839 0.037168 
-0.0047575 0.047855 0.1248 0.023193 0.043251 0.074654 0.16952 -0.018239 
-0.041422 0.070708 0.093562 0.046046 0.034373 0.079094 0.12973 -0.042573 
-0.016431 0.053281 0.066763 0.034537 0.031907 0.03947 0.073832 -0.020706 
0.025166 0.034209 0.056569 0.048677 0.018754 0.038155 -0.022843 0.031907 
0.05772 0.013986 0.091753 0.062323 0.033715 0.043251 0.0067515 0.051636 
0.06035 0.00297 0.015465 0.039634 0.03651 0.0085601 -0.021199 0.084355 
0.046704 0.023686 -0.043724 0.019905 0.020727 -0.031886 -0.020212 0.064625 
0.034044 0.065447 -0.036983 0.033715 0.044731 -0.021856 -0.0078813 0.028947 
0.013492 0.060186 -0.040928 0.027468 0.06331 0.0090533 0.039799 0.022042 
-0.020048 0.088794 -0.057863 0.025166 0.058706 0.030263 0.012013 0.026152 
0.0064227 0.076627 -0.063618 0.03799 0.025001 -0.032872 -0.033201 0.023357 
-0.0011404 0.024508 -0.014458 0.019083 0.0227 -0.032215 -0.027282 0.015794 
0.0042853 0.0095465 -0.0073881 0.033387 0.034866 0.01711 0.026974 0.012835 
0.033551 0.030098 0.028619 0.057227 0.019576 0.046868 0.053609 0.023357 
0.05624 -0.0078813 0.057062 0.017603 0.0021479 0.068078 0.051472 0.017438 
0.055747 0.00083261 0.05065 0.023357 -0.0057439 0.034702 0.042758 0.035031 
0.037497 0.055911 0.036839 0.069722 0.026974 0.010369 0.040785 0.043745 
0.054596 0.059035 -0.0095255 0.065118 0.035853 0.059528 0.03947 0.040292 
0.03799 0.062323 -0.011498 0.059528 0.051308 0.019411 0.021549 0.057062 
0.041443 0.064461 0.018589 0.066763 0.028619 0.021549 -0.00015387 0.053445 
0.050486 0.045224 0.060515 0.016616 0.019905 0.01711 -0.0027845 0.042265 
0.033387 0.045224 0.10162 -0.013636 0.018918 0.0083956 0.011191 0.055911 
0.013657 0.051801 0.081724 0.017767 0.02681 0.03536 0.0023123 0.067913 
0.013821 0.031249 0.069886 0.012342 0.027961 0.004943 0.0088889 0.056076 
0.060022 0.035031 0.037168 0.030098 0.021384 -0.044874 0.010369 0.1054 
0.058871 0.05065 0.0069159 0.039799 0.018918 -0.0004827 0.009711 0.079094 
0.024179 0.041114 -0.04471 0.019411 0.043251 0.035031 0.018425 0.0032988 
-0.089266 0.080902 -0.052766 0.04917 0.017274 0.12085 0.0067515 -0.079401 
-0.12823 0.071202 -0.025802 0.038319 0.050979 0.067091 0.05624 -0.044381 
-0.063782 0.029605 -0.046683 0.011191 0.062817 0.013164 0.054596 -0.0049219 
0.016616 0.064625 0.034702 0.027961 0.016616 0.0093821 0.021384 0.0032988 
0.089287 0.0052718 0.0031344 0.031249 0.036346 -0.00064712 -0.017088 0.026152 
0.085835 0.024344 0.076792 0.026481 0.011684 -0.040928 -0.035667 0.059035 
0.047691 0.042594 0.10376 0.046868 0.020891 -0.0021268 -0.035174 0.048019 
0.071037 -0.010019 0.091753 0.033551 0.057062 -0.010019 -0.020541 0.049335 
0.059364 0.012835 0.02533 0.038812 0.037826 0.048513 0.038155 0.039141 
0.064625 0.013164 0.020233 0.059693 0.050814 0.066269 0.065118 0.016945 
0.043416 0.0070803 0.020727 0.029276 0.031414 0.065447 0.1026 0.0046141 
0.045389 0.043251 -0.017253 0.034702 0.038483 0.099316 0.10326 0.012177 
0.027303 0.10162 -0.051451 0.07301 0.035853 0.097344 0.13138 0.020398 
0.031414 0.079422 -0.0014692 0.040785 0.026974 0.070215 0.071695 0.049499 
0.075312 0.076956 0.058542 -0.004593 -0.0024557 0.022864 0.049499 0.062323 
0.053116 0.07449 0.079916 -0.0060728 -0.0095255 -0.021692 -0.020706 0.0689 
0.039141 0.056404 0.065447 -0.032215 -0.016924 -0.010348 -0.032708 0.060022 
0.021713 0.080738 0.04358 -0.012978 0.024508 -0.042901 -0.061973 0.024179 
0.022042 0.095535 0.044567 0.023028 0.045389 -0.042079 -0.038133 0.014479 
0.011355 0.045224 0.050157 0.018096 0.025001 -0.038298 -0.038956 0.041114 
0.0098754 0.0060938 0.13121 0.024344 0.028619 -0.033365 0.019905 0.042429 
0.050157 -0.0064016 0.1909 0.047855 0.013986 -0.003771 0.020398 0.041278 
0.03651 0.029605 0.1756 0.0074092 0.034044 0.026481 0.0032988 0.044896 
0.066763 0.056076 0.12414 0.010533 0.03536 0.046046 -0.018239 0.045389 
0.074161 0.047526 0.056404 0.028947 0.033222 0.051965 0.032893 0.067913 
0.068736 0.016781 0.0037921 0.042758 0.0093821 0.057391 0.072517 0.079094 
0.020069 0.041607 -0.0073881 0.085999 0.035195 0.049828 0.12792 0.033715 
-0.015609 0.037168 0.015137 0.10458 0.037497 0.06742 0.1276 0.017767 
-0.035503 0.044896 0.05772 0.03799 0.050486 0.071695 0.14009 -0.0082102 
-0.022843 0.062981 0.02829 0.009711 0.022864 0.066434 0.088958 -0.006566 
0.0088889 0.031249 0.0042853 0.013164 0.0093821 0.052294 0.043416 -0.030242 
0.045882 0.053609 0.011848 0.0028056 0.011684 0.014315 -0.0014692 -0.065097 
0.056404 0.095699 0.036839 0.0421 0.022206 0.0069159 -0.0080457 -0.04471 
0.062159 0.077778 0.081889 0.04358 0.012506 0.0064227 -0.042408 0.069886 
0.06594 0.080738 0.027632 0.0044497 0.010533 0.0070803 -0.010183 0.11148 
0.048019 0.062159 -0.078908 0.0080668 0.031907 0.021878 -0.0034422 0.070215 
0.03536 -0.00064712 -0.042901 0.046375 0.042758 0.0031344 0.025495 0.025824 
0.023357 -0.053424 0.099316 0.04506 0.041936 0.011684 0.009711 0.0079024 
0.037004 -0.014129 0.13203 0.064954 0.050979 0.023357 0.01415 0.034866 
0.031085 0.00066819 0.093233 0.069558 0.033551 -0.0014692 0.010697 0.081724 
0.039634 0.010369 0.1368 0.011848 0.013657 0.0024767 0.0054362 0.065283 
0.079587 0.019083 0.12579 0.0070803 -0.0019624 0.0070803 0.014972 0.065776 
0.0039565 0.074326 0.021549 0.0087245 -0.026624 -0.0095255 0.04358 0.031578 
0.024508 0.092082 -0.019061 0.046046 0.020562 0.019083 0.070051 1.0539e-005 
-0.014622 0.018918 0.0075736 0.043416 0.0085601 0.052623 0.066927 -0.018733 
0.038155 0.039799 0.025988 0.0088889 0.038483 0.033058 0.071695 -0.041915 
0.04358 0.046046 0.052294 0.017438 0.02681 0.020069 0.05624 -0.024816 
0.046868 0.029441 0.00033937 0.010204 0.00099702 0.011848 0.021713 0.0072447 
0.051143 0.065776 0.01267 -0.00015387 0.010533 0.016616 0.024015 0.032564 
0.013492 0.095535 0.022371 0.018918 -0.0042642 0.034866 0.04917 0.046375 
0.028125 0.062323 0.072681 0.04917 0.036182 0.036017 0.046046 0.043745 
0.020891 0.035195 0.05772 0.032729 0.050814 0.052952 0.055089 0.067256 
-0.0021268 0.048184 0.034866 0.034866 0.032071 0.027139 0.048677 0.06183 
-0.036325 0.0064227 0.035524 0.070051 0.021384 0.023028 0.024344 0.017932 
-0.059836 0.025166 0.014479 0.032236 0.044238 0.022535 -0.02794 0.023357 
-0.050793 0.071202 0.024344 0.023357 0.042594 -0.03764 -0.076442 -0.0098543 
-0.0050863 0.040456 -0.022021 0.030427 0.030427 -0.03764 -0.058521 -0.011663 
0.019083 0.026646 -0.054246 0.0051074 0.016945 0.017932 0.052787 0.0041209 
0.065283 0.021056 -0.061645 0.010369 0.031249 0.055582 0.082546 0.016123 
0.1567 -0.0082102 -0.03616 0.052952 0.028619 0.097015 0.14453 0.032071 
0.25189 0.01563 -0.04323 0.014643 0.054432 0.10967 0.12283 0.040128 
0.30401 0.033387 0.018425 0.022535 0.02533 0.087479 0.11872 0.067913 
0.24137 -0.009361 0.066434 0.0324 0.020891 0.072024 0.082382 0.046704 
0.10441 0.0062583 0.06594 0.007738 0.030756 0.031578 0.065612 0.015301 
-0.01528 0.025988 0.01711 0.015959 0.03947 0.035031 0.035688 0.0037921 
-0.073976 0.047033 -0.024816 0.038977 0.032071 0.041607 0.046046 0.015301 
-0.070523 0.076299 -0.047505 0.009711 0.027961 0.049664 0.041443 0.024344 
-0.084334 0.09274 -0.048327 0.036182 0.011191 0.061501 0.076299 0.021713 
-0.063289 0.10639 -0.041586 0.0092177 0.0060938 0.013821 0.047197 0.017274 
-0.033859 0.11806 -0.055068 -0.0055795 0.0080668 -0.028597 0.035688 0.039141 
-0.00081153 0.082711 -0.047341 -0.013636 0.012013 -0.032215 -0.030735 0.0013258 
-0.0031133 0.060844 -0.0013048 0.019576 0.019905 -0.053588 -0.024487 0.01826 
-0.0004827 0.092411 0.098494 0.010204 0.048841 0.01152 -0.058356 0.0093821 
0.016123 0.050157 0.15703 0.023193 0.049992 0.040128 -0.034352 0.014643 
0.00297 0.034044 0.18563 0.024837 0.024837 0.018754 -0.0080457 0.018754 
0.030756 0.025988 0.171 0.025659 0.016452 -0.016924 0.062488 0.026974 
0.048677 0.0014903 0.13039 0.027961 0.0072447 -0.027447 0.068571 0.041772 
0.071037 0.005765 0.07449 0.030592 0.0014903 -0.036983 0.090931 0.06183 
0.0689 0.022535 -0.023172 0.042429 0.0065871 0.023028 0.058542 0.068407 
0.047033 0.021713 -0.10752 0.067091 0.016945 0.071859 0.061172 0.073668 
0.062488 0.0037921 -0.062796 0.035524 0.024673 0.085835 0.057555 0.065447 
0.070873 0.088465 -0.034681 0.031907 0.038977 0.053281 0.050157 0.058706 
0.032236 0.08156 -0.092554 0.054267 0.0024767 0.024837 0.032729 0.037826 
0.011191 0.12677 -0.11163 0.072846 0.051308 0.056898 0.041607 0.011684 
0.01826 0.1105 -0.1279 0.033222 0.025988 0.047033 -0.017088 -0.026296 
0.038483 0.044402 -0.018239 0.034209 0.0227 0.026646 -0.014787 -0.013965 
0.01974 0.00083261 0.038155 0.016781 0.0075736 0.0018191 -0.050629 0.038483 
0.032729 0.019247 0.079258 0.0046141 0.0026412 -0.055397 -0.065262 0.038155 
0.00066819 0.047526 0.12677 0.051472 0.0070803 -0.035503 -0.046025 0.038155 
-0.0062372 0.037826 0.13565 0.030756 0.021549 -0.044381 -0.02235 0.030756 
0.005765 0.031742 0.14206 0.022042 0.04917 -0.011005 0.055254 0.016123 
-0.024816 0.030592 0.10293 0.049992 0.04506 0.03388 0.088136 -0.00064712 
-0.0031133 0.045718 0.073175 0.031414 0.046704 0.051636 0.11 -0.0049219 
0.013164 0.038977 0.069558 0.046704 0.033551 0.062817 0.068242 -0.0052507 
0.020727 0.03388 0.037332 0.077778 0.030592 0.045718 0.035195 0.0085601 
0.013821 0.058213 0.01415 0.051308 0.023686 0.0028056 -0.033694 0.03651 
0.00297 0.051636 0.0095465 0.036017 0.0075736 -0.031886 -0.10045 0.04917 
0.024344 0.048019 0.033387 0.055747 0.0095465 -0.077264 -0.076935 0.062817 
0.024015 0.059528 0.047526 0.030756 0.013328 -0.063782 -0.029748 0.050979 
-0.016102 0.047362 0.042758 0.051636 0.039634 -0.021034 0.016781 0.069064 
-0.0078813 0.030263 0.030756 0.058542 0.037168 0.017274 0.071695 0.068571 
0.030263 0.071531 0.031742 0.029934 0.030098 0.05065 0.060515 0.065118 
0.019905 0.060515 0.037168 0.021384 0.022864 0.076299 0.066434 0.076134 
0.01974 0.070873 0.024179 0.053609 0.045718 0.068078 0.068078 0.040621 
-0.0078813 0.093562 0.024837 0.045553 0.050979 0.072517 0.068571 0.014808 
-0.010676 0.05213 0.044896 0.053281 0.043251 0.063474 0.070051 -0.034188 
-0.015773 0.063145 0.077778 0.040621 0.020069 0.034373 0.05213 -0.054904 
0.016452 0.062159 0.089945 0.0074092 0.014315 0.035524 0.027468 -0.055561 
0.016945 0.035195 0.026152 0.026646 0.04095 0.043745 0.054596 -0.030406 
0.0092177 0.036346 0.00297 0.016945 0.048513 0.057391 0.054925 -0.012978 
0.016123 0.024015 0.041936 0.04095 0.056569 0.047362 0.094384 0.018425 
0.080244 0.012835 0.058706 0.03799 0.034866 0.015959 0.054432 0.028783 
0.058542 0.041607 0.054596 0.0324 0.031414 0.029276 0.064625 0.018918 
0.034209 0.046375 0.045224 0.014479 0.02533 0.013986 0.045224 0.0019835 
-0.011005 0.053281 0.049335 0.012835 0.030098 0.032893 0.026317 -0.0082102 
0.011684 0.068242 0.074326 0.013328 0.025824 0.042429 -0.014787 0.013986 
0.028125 0.026152 0.058213 0.021549 0.022371 0.021878 -0.016102 0.061995 
0.066598 -0.0034422 0.044073 0.033715 0.03388 0.00017495 -0.040271 0.078272 
0.08304 0.034702 -0.010019 0.031414 0.045718 0.0018191 0.012013 0.055089 
0.046211 0.050814 -0.01676 0.045389 0.05213 0.0095465 0.04917 0.011191 
0.024344 0.072024 0.0064227 0.036675 0.029276 -0.017911 0.098494 -0.0049219 
0.073997 0.07038 0.062488 0.027139 -0.01528 -0.093048 0.020891 -0.021528 
0.0227 0.040456 0.040621 -0.024816 -0.036654 -0.071016 0.030756 0.025495 
0.019905 0.032729 0.046868 0.034373 -0.0088678 -0.0052507 -0.0011404 0.068571 
-0.0027845 0.069393 0.014972 0.039634 0.052294 0.037497 0.035195 0.028783 
0.039799 0.033222 0.027632 0.035853 0.028947 0.051472 0.043745 0.053774 
0.048019 0.0075736 0.02681 0.042923 0.062652 0.078929 0.077285 0.0421 
0.045224 0.061666 0.0067515 0.01563 0.040785 0.076463 0.070544 0.02681 
0.09833 0.0324 0.0088889 0.0083956 0.013986 0.072846 0.076792 0.01004 
0.094384 0.02533 0.028125 0.013492 0.0028056 0.041443 0.04506 0.021056 
0.082711 0.033387 0.031249 1.0539e-005 0.0064227 0.034209 0.059035 0.047855 
0.066927 0.014479 0.041936 0.018754 0.0044497 0.067256 0.059035 0.018918 
0.058542 0.041607 0.048677 0.052294 0.051472 0.043087 0.058049 0.015794 
0.036346 0.040292 0.063474 0.020727 0.051308 0.057227 0.016945 -0.00031829 
0.016945 0.035853 0.035195 0.0098754 0.029276 0.049664 0.010369 -0.014787 
0.0079024 0.047526 0.013492 0.028947 0.028454 0.039305 0.010697 -0.060823 
-0.0039354 0.0592 -0.0138 -0.0039354 0.045389 0.030263 0.06479 -0.053588 
-0.0014692 0.051801 -0.023665 0.022042 0.036675 -0.0052507 0.031907 -0.033201 
0.042923 0.053281 -0.030406 0.028947 0.016452 -0.060658 0.039799 0.020891 
0.060022 0.018589 0.011684 0.022042 0.01004 -0.038462 0.014479 0.0592 
0.046868 0.041114 0.023028 0.029276 0.0085601 -0.035667 0.028125 0.093069 
0.048841 0.05476 0.016616 0.025495 0.0028056 -0.012978 0.028619 0.11872 
0.057227 0.029112 -0.0083746 0.031414 0.00050378 0.025824 0.017767 0.11477 
0.022206 0.01004 0.035195 0.027468 0.011191 0.040621 0.031414 0.12546 
0.030592 0.021549 0.074654 0.018425 0.028125 0.07449 0.029605 0.10293 
0.044567 -0.022679 0.10704 0.01711 0.027961 0.062817 0.031907 0.10458 
0.071037 -0.012156 0.10178 0.02533 0.015137 0.037497 0.013164 0.11099 
0.064954 0.027961 0.080573 0.010533 0.0036276 0.030756 0.0019835 0.11115 
0.054267 0.032236 0.048184 0.032236 0.026317 0.024673 0.010533 0.027139 
0.072024 0.033551 0.028783 0.056569 0.040785 0.054925 0.022042 -0.048985 
0.030427 0.028619 0.074819 0.014808 0.052623 0.039305 -0.020048 -0.080059 
0.027139 0.017932 0.0421 0.026317 0.049006 0.0079024 -0.02498 -0.035832 
0.014972 0.041278 -0.001798 0.037004 0.055089 0.0014903 -0.014458 -0.00031829 
0.00033937 0.062488 -0.02087 0.033222 0.045224 -0.0052507 0.019247 0.02533 
-0.016431 0.06479 -0.030735 0.040128 0.051308 0.029441 0.054432 0.038648 
0.013328 0.073175 0.0069159 0.040456 0.031249 0.057555 0.091425 0.049992 
0.0227 0.066927 0.023028 0.0013258 0.015301 0.039799 0.078272 0.046046 
-0.02087 0.055747 0.053445 0.027303 0.00050378 0.01563 0.055418 0.063968 
-0.020541 0.060022 0.067091 0.030756 0.0054362 0.0016547 0.010862 0.050486 
0.020069 0.033222 0.090109 -0.025145 0.0087245 -0.0014692 0.015959 0.05772 
0.049828 0.029605 0.083862 0.0011614 0.0013258 0.0095465 0.012506 0.062323 
0.11954 0.0082312 0.057555 0.070544 -0.013307 0.0062583 -0.0057439 0.086821 
0.083697 0.01267 0.010369 0.027303 0.026317 -0.026131 0.0060938 0.072681 
0.087314 0.02122 -0.042079 0.02681 0.038483 -0.011334 -0.022514 0.065283 
0.069229 0.040292 -0.04323 0.09274 0.032729 -0.0090322 -0.06296 0.021549 
0.010697 0.033058 0.020398 0.032729 0.044238 0.081724 -0.0059084 0.024508 
0.0031344 0.061666 0.070051 0.033222 0.028619 0.1054 0.025659 0.011026 
-0.016431 0.055254 0.076299 0.058542 0.027139 0.048677 0.039634 -0.001798 
-0.045532 0.050814 0.082053 0.046046 0.033715 0.00083261 0.065776 -0.014129 
-0.025309 0.089287 0.0085601 0.05213 0.028454 -0.013471 0.078929 -0.053424 
0.0044497 0.10507 -0.04471 0.093398 0.024179 0.015137 0.053609 -0.045368 
0.021384 0.052459 -0.02498 0.087972 0.020891 0.047526 0.072681 -0.011334 
0.032564 0.023686 0.022864 0.053445 0.033715 0.0072447 0.031414 0.032071 
0.037497 0.026481 0.10293 0.053116 0.055747 0.032893 0.042594 0.053116 
0.011026 0.0075736 0.13598 0.023686 0.039634 0.029769 0.034537 0.075148 
0.017767 0.054267 0.13582 0.065447 0.035688 0.041114 0.10293 0.081231 
0.0082312 0.070544 0.095864 0.030098 0.022535 0.11674 0.086657 0.016288 
0.035524 0.038483 0.060679 0.0072447 0.016123 0.097179 0.083533 -0.076606 
0.0090533 0.019411 0.083368 0.010533 0.0064227 0.081231 0.050979 -0.080881 
0.024508 0.020233 0.13056 0.020562 0.030427 0.062159 0.075476 0.012506 
0.055747 0.032071 0.045389 0.027961 0.043416 0.022371 0.026152 0.11625 
0.044731 0.068736 -0.057863 0.048184 0.046868 0.022535 0.04917 0.16196 
0.030427 0.055089 -0.1011 0.0039565 0.05624 0.020398 0.017603 0.1077 
0.025988 0.052294 -0.12955 0.041114 0.034373 -0.016431 -0.0064016 0.055254 
0.035195 0.090109 -0.16325 0.038155 0.033551 -0.045532 -0.10225 0.011684 
0.04095 0.06742 -0.15996 0.015465 0.014972 -0.059343 -0.13004 0.033551 
0.028783 0.059528 -0.11146 0.030756 0.0074092 -0.0060728 -0.092226 -0.0044286 
0.081067 0.085999 -0.076771 0.066105 0.038977 -0.00081153 0.019411 -0.02942 
0.051965 0.06479 0.0018191 0.046375 0.024179 -0.011992 0.084519 -0.04619 
0.034044 0.050814 0.10408 0.046375 0.022864 0.03388 0.14305 -0.041751 
0.0067515 0.040128 0.20503 0.048841 0.040292 0.072681 0.12562 -0.018733 
-0.0072237 -0.003771 0.24795 0.01152 0.029769 0.01711 0.094877 0.004943 
-0.0031133 -0.010019 0.25962 -0.0039354 0.026974 0.0044497 0.0421 0.012342 
0.0019835 0.026646 0.23644 0.0072447 0.019247 -0.029748 0.018096 0.022535 
0.028454 0.00066819 0.16985 -0.020706 0.022535 0.0032988 0.034702 0.03536 
-0.013307 0.007738 0.073997 0.026481 0.048677 0.053281 0.080902 0.026481 
0.0051074 0.039963 -0.037147 0.099152 0.048513 0.06331 0.083368 0.012342 
0.021384 0.05213 -0.084663 0.070873 0.069722 0.049992 0.053938 0.041443 
0.025001 0.067091 -0.10341 0.059364 0.040456 0.030098 0.0032988 0.054103 
0.042758 0.050486 -0.071345 0.042594 0.016781 -0.0059084 -0.066413 0.098494 
0.087314 0.041443 -0.045203 -0.010676 -0.011827 -0.023994 -0.041257 0.1003 
0.062817 0.070215 -0.063124 -0.020541 -0.0052507 -0.036654 0.0088889 0.17643 
0.064625 0.089287 -0.0965 0.044567 0.012835 0.027632 0.055582 0.08008 
0.016781 0.083697 -0.080223 0.044896 0.030098 0.065283 0.053774 0.030427 
0.0088889 0.10902 -0.011005 0.041936 0.035853 0.058213 0.066269 0.0023123 
0.036675 0.038812 0.097015 0.027303 0.026974 0.035688 0.029441 -0.033201 
0.056733 0.0014903 0.17248 -0.029584 -0.0031133 0.047855 0.021713 -0.072825 
0.021878 0.0037921 0.18744 -0.01939 0.019247 0.023028 0.032729 -0.056055 
0.028125 -0.043559 0.13023 0.014972 0.021878 0.00297 0.041772 0.04095 
-0.010183 -0.021034 0.10606 0.0013258 0.031907 -0.036325 0.031907 0.047526 
-0.05885 0.029112 0.06479 0.038155 0.041278 -0.010348 0.036675 0.031742 
-0.01939 0.025166 0.041936 0.059364 0.030592 -0.0026201 0.00050378 0.06479 
0.021056 0.029934 -0.001798 0.023686 0.014643 0.010697 0.03536 0.041443 
0.012013 0.076627 -0.036818 0.021878 -0.0060728 0.047526 0.040292 0.018918 
0.010204 0.11017 -0.055726 0.01563 0.0095465 0.052294 0.049664 0.013328 
0.020398 0.14815 -0.063124 0.019411 0.024837 -0.0064016 0.020562 0.024015 
-0.0078813 0.15571 -0.0965 0.054267 0.038648 0.023193 0.030098 0.019411 
-0.001798 0.11181 -0.06707 0.10425 0.058706 0.026646 0.00017495 0.045718 
0.071202 0.055747 0.053116 0.092247 0.068736 0.00297 -0.025309 0.039799 
0.099974 0.0052718 0.16114 0.0592 0.032071 -0.0049219 -0.046354 0.073997 
0.12579 -0.062631 0.18432 -0.010019 0.010697 -0.019719 0.00017495 0.060022 
0.16689 -0.078744 0.19796 -0.035338 -0.0019624 -0.010676 -0.018897 0.079258 
0.18761 -0.06148 0.17906 -0.027611 0.0041209 0.027796 0.022371 0.05624 
0.14042 -0.071181 0.13121 -0.032872 0.0039565 0.04358 0.00297 0.032893 
0.03092 -0.015773 0.027303 0.01826 0.013164 0.0090533 0.03388 0.017767 
-0.054246 0.057227 -0.037805 0.086163 0.039141 -0.034845 0.041114 0.031907 
-0.092719 0.10491 -0.090253 0.085012 0.040456 -0.028926 0.080738 0.027796 
-0.061973 0.1641 -0.11689 0.072188 0.058049 0.019083 0.071695 0.023193 
-0.021199 0.10573 -0.060658 0.038319 0.04654 0.057227 0.097672 0.0016547 
0.013986 0.078929 -0.0082102 -0.014293 0.024015 0.077121 0.050979 -0.020377 
0.060022 0.088958 0.012177 -0.014293 0.0042853 0.050157 0.060022 -0.035174 
0.036675 0.044402 0.078272 0.025495 0.0082312 0.035195 0.031742 -0.038627 
0.023357 0.027139 0.14223 0.0064227 0.020233 0.047691 0.054432 0.0227 
0.016123 0.041772 0.17873 0.012999 0.022371 0.018918 0.036346 0.056404 
0.019247 0.031907 0.18761 0.032893 0.0324 0.033387 0.046868 0.049828 
0.012013 0.071202 0.12332 0.0088889 0.053116 0.073832 0.018754 0.041278 
0.0060938 0.072353 0.036346 0.058049 0.045389 0.051801 0.0324 0.023193 
0.0036276 -0.0019624 0.0090533 0.069886 0.040785 0.054432 0.012342 0.031249 
0.027139 -0.031064 0.041114 0.037826 0.021713 0.031414 0.033222 0.044238 
0.062159 -0.0098543 0.058049 0.049006 -0.0047575 0.015794 0.019576 0.049499 
0.063474 -0.0044286 -0.01117 0.084026 0.02829 0.0011614 0.031085 0.028947 
0.067585 0.070051 -0.091897 0.055089 0.02122 0.014479 0.0046141 0.034209 
0.15489 0.064461 -0.14204 0.05624 0.040128 0.0014903 0.04358 0.047197 
0.20355 0.07038 -0.092719 0.10293 0.011684 -0.040271 0.034537 0.075148 
0.14749 0.068078 0.0037921 0.017932 0.009711 0.029441 0.018754 0.08567 
0.050814 0.038483 0.071859 0.016616 0.015301 0.0082312 0.00050378 0.08978 
-0.0070593 0.085012 0.059035 0.0069159 0.03947 0.015137 -0.0080457 0.08156 
-0.078086 0.081889 0.080738 0.024015 0.061501 0.031742 0.033058 0.027632 
-0.076771 0.0689 0.060844 0.035195 0.055418 0.048019 0.063639 -0.009361 
-0.015116 0.045718 0.066763 0.015137 0.036182 0.028947 0.0786 0.011026 
0.048841 0.053938 0.11576 0.0093821 0.0046141 0.049335 0.089123 0.033058 
0.058377 0.027632 0.086163 0.021056 0.022864 0.054267 0.064132 0.0083956 
0.086821 0.071366 0.065447 0.023193 0.012177 0.039799 0.058049 0.028454 
0.043251 0.11806 0.044567 0.017767 0.0042853 0.039799 0.036839 0.03799 
-0.11343 0.096357 0.023028 0.016945 0.021713 0.037661 0.044567 0.023028 
-0.17509 0.050321 0.027961 -0.021363 0.01004 0.010697 0.071366 0.015794 
-0.035832 0.049006 0.018096 0.017274 0.02122 0.025495 0.029276 0.023686 
0.018589 0.0042853 0.014315 0.043416 0.018096 0.004943 -0.0091966 0.024179 
0.039799 0.018589 0.013657 0.029605 0.057227 -0.047341 -0.033201 0.024015 
0.050321 0.034209 -0.0021268 0.03651 0.045718 -0.018075 -0.062631 -0.014787 
0.061172 0.040621 0.01004 0.060022 0.027796 -0.013471 -0.06855 -0.023336 
0.069886 0.037168 0.03651 0.010697 -0.0022913 -0.01528 -0.047669 -0.018404 
0.078929 0.053774 0.043745 0.018589 0.01004 -0.0057439 -0.039942 0.034209 
0.073997 0.028619 0.017603 0.022535 0.024673 -0.0064016 0.046046 0.036182 
0.017932 0.044073 0.007738 0.01974 0.036182 0.0031344 0.09274 0.023193 
-0.0059084 0.067913 -0.0047575 0.048513 0.03388 -0.00031829 0.10589 0.032729 
-0.0059084 0.04654 -0.02498 0.05624 0.021056 0.021384 0.10211 0.068078 
-0.0078813 0.074983 -0.014129 -0.0087034 -0.0050863 0.028619 0.098988 0.10803 
0.004943 0.073668 -0.05441 0.0013258 0.010862 0.034044 0.065283 0.13023 
0.068571 0.083204 -0.027611 0.01711 0.029605 0.079422 0.047691 0.12792 
0.11691 0.10836 -0.022021 0.012013 0.013164 0.067913 0.024344 0.10573 
0.056404 0.061995 -0.0039354 0.022535 0.027796 0.047033 0.029934 0.052294 
-0.034845 0.072024 0.031742 0.065447 0.03799 0.048184 0.024179 -0.009361 
-0.025145 0.080409 0.072353 0.042923 0.026317 0.0087245 -0.0042642 -0.06 
0.014808 0.036182 0.086657 0.027961 0.0014903 -0.0070593 -0.04882 -0.043724 
0.010204 0.02829 0.10852 0.044402 0.018589 0.0080668 0.011191 -0.018897 
0.030427 0.02533 0.1225 -0.0080457 0.011848 0.0046141 0.00083261 0.01711 
0.043416 -0.011992 0.10639 0.0044497 0.00099702 0.0088889 0.0067515 0.028125 
0.0031344 -0.040435 0.088794 0.03536 0.0070803 0.0072447 -0.0029489 0.0059294 
0.0098754 -0.0083746 0.072188 0.026481 0.0085601 -0.0059084 0.0044497 -0.026131 
0.021713 -0.0075525 0.038648 0.036675 0.018425 -0.023007 0.005765 -0.047012 
0.015137 0.052787 -0.026131 0.056076 0.017767 -0.087622 0.064461 -0.016266 
0.016288 0.098659 -0.064604 0.036839 0.05065 -0.029091 0.016123 0.013492 
-0.0013048 0.08715 -0.072003 0.045718 0.030756 -0.025967 0.041772 0.11017 
0.05476 0.064296 -0.060494 0.062159 0.05213 0.028454 0.049499 0.16755 
0.062488 0.020891 0.010533 0.0087245 0.034537 0.043251 0.03536 0.11888 
0.063145 0.046211 0.025659 0.0072447 0.037661 0.064625 0.013328 0.082875 
0.060186 0.033222 0.082711 0.033058 0.026317 0.02829 0.041772 0.095371 
0.052294 0.031742 0.077449 0.013657 0.024837 0.032893 0.0079024 0.058871 
0.045224 -0.0091966 0.070051 0.032893 0.026152 0.0016547 0.01004 0.023851 
0.05213 -0.0039354 0.087808 0.027961 0.037004 -0.010841 0.0052718 0.007738 
0.050979 0.034537 0.051801 0.035853 0.040128 0.04095 0.059528 -0.033201 
0.044567 0.069393 0.053116 0.044073 0.037497 0.049992 0.073997 -0.018568 
0.055582 0.10047 0.070544 0.019576 0.005765 0.058213 0.074983 0.0059294 
0.064954 0.050157 0.034044 0.036182 0.023851 0.04358 0.019576 0.025988 
0.037497 0.048019 0.0075736 0.058213 0.035524 0.0075736 0.028783 0.020727 
0.022371 0.051636 0.026317 0.045389 0.038977 0.057884 0.038319 0.012835 
0.034209 0.028619 0.038648 0.049664 0.032564 0.044238 0.04095 0.0069159 
0.029441 0.035524 0.06183 0.049664 0.028619 0.06035 0.049335 -0.019884 
0.025988 0.041607 0.041114 0.034866 0.052459 0.049006 0.044402 -0.0027845 
0.027961 0.032071 0.025001 0.011848 0.051801 0.0016547 0.013657 0.029441 
0.056569 0.0075736 0.027139 0.045718 0.033551 0.020069 0.027796 0.068571 
0.045718 0.017767 0.028125 0.043087 0.028619 0.041772 0.029934 0.088958 
0.027632 0.013164 0.027961 0.039963 0.034702 0.066269 0.051308 0.089945 
0.059528 0.007738 0.044567 0.05624 0.031085 0.082546 0.057555 0.0786 
0.042429 0.046868 0.033715 0.049006 0.040621 0.071202 0.049664 0.019905 
0.02829 0.021713 0.020727 0.041443 0.026152 0.059693 0.059528 -0.0047575 
0.01974 0.04358 0.027303 0.053281 0.024837 0.042758 0.051308 -0.016266 
0.038648 0.054432 0.028947 0.016781 0.031249 0.031578 0.059857 -0.022021 
0.027468 0.038155 0.036182 -0.011827 0.010697 0.029605 0.046211 0.024508 
0.036017 0.038812 0.050486 0.013986 0.0013258 0.018918 0.055089 0.082875 
0.065447 0.028947 0.049006 -0.0064016 0.00099702 0.034702 0.058871 0.058213 
0.037826 0.029769 0.049335 0.0082312 0.01826 0.087972 0.063639 0.03947 
0.010369 0.055911 0.042429 0.064461 0.031742 0.077285 0.076463 -0.013471 
-0.00064712 0.04654 0.01004 0.043745 0.04506 0.061501 0.075148 -0.042079 
0.011191 0.061666 -0.0078813 0.033715 0.03536 0.0024767 0.018425 -0.03912 
-0.0080457 0.076792 0.010862 0.0592 0.02533 -0.068057 -0.0044286 -0.013471 
0.0070803 0.048841 -0.0088678 0.033715 0.049664 -0.073647 -0.02794 0.015465 
0.051801 0.053281 -0.039613 0.058706 0.048019 -0.034516 -0.028104 0.015794 
0.065612 0.0592 -0.021034 0.050157 0.041772 0.020891 -0.040928 0.0023123 
0.062159 0.037826 0.0013258 0.012177 0.027961 0.032564 -0.036983 0.01711 
0.067913 0.037004 0.058542 0.013328 -0.016924 -0.061151 -0.13514 0.021878 
0.037497 0.060515 0.067749 0.013986 0.0075736 -0.061645 -0.085156 0.057062 
-0.025145 0.029605 0.10491 0.018096 -0.031392 -0.028433 -0.0091966 0.063639 
0.0018191 0.037332 0.043745 0.01415 0.013657 -0.00081153 0.075148 0.070544 
0.0083956 0.068407 0.023357 0.047526 0.038483 0.11691 0.15292 0.053609 
0.016781 0.040621 0.051143 0.025166 -0.0070593 0.16541 0.17265 0.016123 
0.015794 0.060022 0.036839 0.03092 0.048513 0.13664 0.15752 0.020069 
0.062488 0.076627 0.051965 0.016616 0.036182 0.10277 0.1299 0.00050378 
0.076463 0.025495 0.016781 0.007738 0.024837 0.024508 0.060186 0.020398 
0.076956 0.0421 0.046375 0.039305 0.02829 -0.044381 0.0060938 0.049992 
0.070873 0.055582 0.071366 0.0041209 0.0036276 -0.054082 -0.034023 0.059364 
0.082546 0.030427 0.11461 -0.0019624 -0.0026201 -0.088444 -0.035503 0.022864 
0.050979 0.047362 0.093069 -0.0068948 -0.033037 -0.071016 -0.071674 -0.017746 
0.018096 0.070873 -0.016924 -0.008539 0.0074092 -0.072496 -0.058356 -0.019555 
-0.018404 0.080902 -0.11804 0.045389 0.023193 -0.040435 -0.041751 -0.015116 
-0.0062372 0.03799 -0.10127 0.057227 0.055747 0.0088889 -0.013307 0.0034632 
-0.019061 0.0013258 0.037168 0.041278 0.036839 0.030756 0.00033937 0.01974 
0.010369 0.0085601 0.13056 0.027796 0.030592 0.036675 0.063968 0.069886 
0.055254 0.050979 0.15012 0.040456 0.00083261 0.013821 0.046868 0.11855 
0.060022 0.049992 0.11066 0.024179 0.018589 -0.021034 0.056404 0.093069 
0.024179 0.08715 0.048184 0.036182 0.02533 -0.0011404 0.042265 0.034209 
-0.0016336 0.14075 0.00297 0.094055 0.026481 -0.029091 0.054267 -0.033201 
-0.019061 0.084026 0.014808 0.047526 0.026152 -0.021528 0.021384 -0.067728 
-0.032543 0.035853 0.074654 0.014479 0.033058 0.0034632 0.043251 -0.0503 
-0.015444 0.041772 0.025988 0.041443 0.036182 0.042594 0.01563 -0.039449 
0.0054362 0.046046 -0.084991 0.019247 0.034209 0.10951 0.039963 -0.037805 
-0.0055795 0.072353 -0.091897 0.035853 0.045882 0.14305 0.054432 -0.02794 
0.0052718 0.067749 -0.014787 0.05213 0.024837 0.027468 0.040128 -0.00081153 
0.063639 -0.0091966 0.095042 -0.0080457 -0.0060728 -0.045203 0.013492 0.070215 
0.093069 -0.0095255 0.12283 0.019905 -0.0062372 -0.10324 0.0064227 0.10935 
0.089287 1.0539e-005 0.11247 0.048348 0.0088889 -0.076442 -0.040928 0.12414 
0.068242 -0.012156 0.041607 0.014479 0.011191 -0.0088678 0.012177 0.11921 
0.0421 0.035524 -0.027611 0.035031 0.024673 0.036839 0.038483 0.077943 
0.0039565 0.05476 -0.066741 0.072024 0.057884 0.06479 0.09422 0.075476 
-0.013965 0.023686 -0.016431 0.060022 0.072353 0.080573 0.078929 0.027796 
0.016616 0.0013258 0.13894 0.049499 0.054432 0.051801 0.056569 -0.0026201 
0.053774 0.031742 0.1807 0.02122 0.01974 0.03947 0.022864 -0.014458 
0.092904 0.052623 0.10244 -0.01676 0.020398 -0.006566 0.024015 0.0016547 
0.10639 0.090931 0.01267 -0.012156 0.014315 0.023193 0.019247 0.030098 
0.06479 0.10935 -0.06444 0.0013258 0.025495 0.063803 0.056569 0.050321 
-0.033037 0.098494 -0.072989 -0.015938 0.031085 0.068242 0.066434 0.032236 
-0.056712 0.096521 -0.00031829 0.046211 0.043416 0.084355 0.069393 -0.0078813 
-0.048327 -0.014293 0.020233 0.053938 0.057884 0.11937 0.084026 -0.055232 
0.01826 -0.020541 0.087808 0.034373 0.044402 0.059693 0.049006 -0.060987 
0.043416 -0.030406 0.082217 0.075641 0.010204 0.051472 0.039141 0.0016547 
0.032071 -0.069865 0.011355 0.1008 0.028783 0.029441 0.039141 0.037168 
0.025824 -0.048492 0.005765 0.061337 0.046046 0.025659 0.036346 0.082217 
0.022371 -0.02087 0.077449 0.033551 0.07449 0.043251 0.012013 0.10425 
0.0039565 -0.025145 0.13417 0.0062583 0.026974 0.069393 0.061666 0.078107 
0.040785 0.034866 0.089452 0.0036276 0.029605 0.068571 0.062159 0.024179 
0.020562 0.092411 0.009711 0.034373 0.017603 0.062817 0.067749 0.049335 
0.010533 0.069558 0.036182 0.020398 0.034866 0.072188 0.045718 0.071366 
0.069558 0.080902 0.040621 0.013821 0.035524 0.086163 0.077121 0.058871 
0.072517 0.12217 -0.0072237 0.025659 0.043087 0.06742 0.054925 0.036346 
0.041278 0.089287 -0.037969 0.0065871 0.031578 0.023028 0.053281 0.0064227 
0.047691 0.0592 0.019411 0.0018191 0.01826 0.028783 0.0085601 0.04506 
0.064461 0.06183 0.092247 0.02681 0.0069159 -0.012156 -0.0073881 0.11411 
0.021056 0.047526 0.11592 0.0098754 0.011355 0.0074092 -0.028104 0.1054 
0.020562 0.060022 0.11198 0.0041209 0.00017495 -0.0082102 -0.030899 0.035195 
-0.01117 0.077614 0.062817 0.062981 0.023522 -0.073154 -0.074469 -0.049642 
0.00033937 0.042429 0.08419 0.036346 0.042758 -0.084005 -0.056877 -0.048327 
0.009711 0.015301 0.057391 0.021549 0.0093821 -0.10143 -0.03616 0.00297 
0.069722 -0.02498 0.049828 0.028125 -0.0087034 -0.048985 0.037497 0.12694 
0.071202 -0.063453 0.043909 0.029934 0.015301 0.049828 0.076792 0.16689 
0.024673 0.0056006 0.023357 0.022535 0.02533 0.1054 0.11526 0.096193 
0.017932 0.057555 -0.044546 0.072353 0.052787 0.11428 0.1026 0.031742 
0.012835 0.076627 -0.05326 0.035195 0.046375 0.12053 0.10392 -0.026131 
0.0016547 0.071037 0.032071 0.019411 0.017438 0.040456 0.044731 -0.0026201 
-0.019719 0.041607 0.13138 0.036675 0.024015 0.043087 0.044896 -0.0052507 
0.0056006 0.024344 0.19287 0.00033937 0.031249 0.035688 0.019411 0.011026 
0.0036276 0.061995 0.17018 -0.014622 0.039963 0.069393 0.035688 0.012177 
-0.031064 0.054267 0.079916 0.010533 0.031085 0.045553 0.0011614 0.023686 
-0.0011404 0.085012 0.024344 -0.0068948 0.012013 0.00066819 0.017603 0.033551 
0.057227 0.091589 0.0079024 0.0065871 0.0075736 -0.019061 -0.020541 0.022371 
0.079587 0.068736 0.0039565 0.038155 0.011684 -0.004593 0.0041209 0.026481 
0.09126 0.087808 -0.05178 0.018589 0.031249 0.0031344 0.015137 0.025988 
0.088465 0.10376 -0.12083 0.041443 0.023357 0.013821 0.053445 0.013821 
0.066763 0.073668 -0.11212 0.11247 0.042265 0.034702 0.032729 -0.004593 
0.030427 0.088794 -0.082525 0.10293 0.059035 0.021713 0.049006 -0.0073881 
0.046046 0.11296 0.038812 0.044238 0.023357 0.030098 0.03092 0.00017495 
-0.0036066 0.054267 0.04095 0.034044 0.017767 0.012177 0.038977 -0.018404 
-0.034023 0.043251 0.14848 -0.009361 0.024179 0.0075736 0.031742 -0.014293 
-0.069043 0.040456 0.1276 0.0069159 0.034373 0.030263 0.050814 -0.011005 
-0.004593 0.033058 0.10014 -0.013471 0.0047785 -0.0077169 0.01152 0.027632 
-0.011334 0.03536 0.037826 -0.01232 -0.01939 -0.024652 0.029605 0.078436 
-0.0022913 0.031249 0.044238 0.02829 0.024344 -0.0016336 0.016452 0.049992 
0.0051074 0.029605 0.082217 0.018425 0.061995 0.035853 0.026646 0.047362 
0.020727 0.055747 0.055747 0.0026412 0.043087 0.04095 0.011848 0.017767 
0.038812 0.04654 0.010697 0.012342 0.02533 0.0074092 0.034866 0.030592 
0.094055 0.054925 -0.069372 0.012177 0.0092177 -0.029913 -0.011663 0.03388 
0.11855 0.080902 -0.084498 0.030427 0.02122 -0.01232 -0.0032777 0.038648 
0.1105 0.040292 -0.015609 0.06183 0.027303 -0.010348 0.01152 0.010369 
0.08567 0.047033 0.042429 0.04095 0.020398 -0.004593 0.029769 -0.009361 
0.025001 0.068078 0.039634 -0.00015387 -0.00081153 0.016616 0.017438 -0.006566 
0.0074092 0.073668 0.026974 0.03651 -0.0011404 -0.0075525 0.034702 -0.0070593 
-0.064604 0.10803 0.0075736 0.042265 0.0421 0.01004 0.023686 -0.011827 
-0.039778 0.10688 -0.019884 0.060679 0.056404 0.0062583 0.037168 -0.0029489 
0.0092177 0.073175 -0.021363 0.061666 0.041114 0.031578 0.044731 0.0088889 
0.07301 0.048019 -0.0088678 0.036675 0.019247 0.049992 0.044731 0.023193 
0.082053 0.04506 -0.018075 0.0324 0.030263 0.039963 0.052952 0.044567 
0.058213 0.018754 0.033058 0.034537 0.030592 0.0786 0.067091 0.038483 
0.054925 0.0047785 0.06594 0.022206 0.023686 0.10639 0.072517 0.034209 
0.057062 0.011684 0.080244 -0.0047575 -0.0019624 0.064132 0.066927 0.041114 
0.063145 -0.0016336 0.046211 0.028454 -0.0060728 0.045224 0.051965 0.044896 
0.066763 0.027961 -0.0052507 0.031742 0.023851 0.01711 0.038648 0.049664 
0.021384 0.076627 -0.087786 0.073668 0.042265 0.02122 0.048677 0.060515 
0.0090533 0.081724 -0.091897 0.10655 0.076956 0.048019 0.050979 0.030427 
0.010369 0.071859 -0.013471 0.0592 0.060186 0.023686 0.043087 0.0070803 
-0.019555 0.044731 0.071859 0.023686 0.028454 0.01004 0.026646 -0.00015387 
0.017767 -0.011992 0.11378 0.014315 -0.00015387 0.0082312 -0.021856 0.034373 
0.065283 -0.015773 0.095042 -0.017911 0.01974 0.02681 -0.034352 0.052623 
0.10951 -0.0011404 0.071202 0.0016547 0.0021479 0.012835 -0.042573 0.069229 
0.11362 0.0042853 0.067256 0.0227 0.010862 -0.0060728 -0.024652 0.053281 
0.036017 0.045224 0.022371 0.021056 0.039141 -0.0070593 0.020562 0.016452 
-0.10669 0.059528 0.017603 0.047362 0.057227 0.00099702 0.028619 -0.011663 
-0.16194 0.081724 0.049664 0.055911 0.03651 -0.028926 0.041772 0.023193 
-0.066906 0.10096 0.026974 0.012342 0.011848 0.048841 0.052623 0.035195 
0.072846 0.054103 -0.0067304 -0.0036066 -0.0088678 0.078436 0.081724 0.046375 
0.16788 0.030592 0.00017495 0.009711 0.00297 0.058542 0.07038 0.084026 
0.17363 0.0026412 0.060186 0.018096 -0.00097594 -0.0026201 0.045224 0.030592 
0.15653 0.0074092 0.060186 0.03651 0.0028056 -0.0965 0.0069159 0.032564 
0.13664 -0.0054151 0.081231 0.039141 0.016616 -0.073647 -0.0016336 1.0539e-005 
-0.02235 0.015959 0.055582 -0.017417 0.039141 0.010533 -0.043724 -0.024323 
-0.015116 0.0021479 0.053609 0.018754 0.039634 0.062981 -0.042901 0.010204 
-0.0014692 0.0021479 0.024179 0.032893 0.024179 0.04506 -0.089595 0.038319 
0.037332 0.041114 0.014315 0.046704 0.034537 0.0032988 -0.03057 0.027468 
0.026152 0.017438 0.05476 0.055254 0.034537 -0.056548 -0.0057439 0.021056 
0.01152 -0.0014692 0.073668 0.027632 0.013328 -0.066084 0.053445 0.030427 
0.018096 0.025824 0.068242 0.010204 0.025659 -0.018568 0.091753 0.044402 
-0.0060728 0.057555 0.0087245 0.032893 0.031907 0.089287 0.13434 0.0019835 
-0.043066 0.076956 -0.034023 0.033387 0.043416 0.15045 0.094548 0.036675 
-0.049642 0.063803 0.013328 0.058871 0.058377 0.1003 0.084684 0.02829 
-0.034188 0.020891 0.07038 0.071531 0.067585 0.062817 0.046046 0.03092 
-0.05326 0.048019 0.036182 0.039141 0.060515 1.0539e-005 0.037661 0.0067515 
-0.033037 0.060022 -0.019061 0.050814 0.037004 -0.017253 0.0026412 -0.013143 
0.032236 0.049499 -0.028926 0.061666 0.017438 0.0021479 -0.010512 -0.0031133 
0.073504 0.031249 0.010369 -0.00031829 -0.016595 -0.0070593 -0.039284 0.052787 
0.074983 0.0024767 0.084684 -0.0036066 -0.0049219 -0.0024557 0.0011614 0.065612 
0.054432 0.0075736 0.079258 0.005765 0.0074092 -0.0098543 0.013492 0.05476 
0.011684 0.028947 0.028947 -0.0057439 0.00297 -0.033859 0.024179 0.086821 
0.013986 0.029441 0.03092 0.015301 0.015301 0.012177 0.029605 0.05213 
0.069722 0.037168 0.046868 0.058706 0.03536 0.038812 0.055582 -0.067399 
0.13697 0.034537 0.080244 0.037332 0.043909 0.043909 0.059035 -0.12889 
0.11674 0.00050378 0.077121 0.052787 0.044238 0.05772 0.076134 -0.081703 
0.063639 0.0052718 0.085341 0.069064 0.047526 0.03799 0.052787 -0.022679 
0.028125 0.007738 0.086328 0.019247 0.045389 0.031742 0.067585 0.037004 
0.024344 -0.015609 0.11148 0.037332 0.037497 0.041936 0.034209 0.093069 
0.061995 -0.017746 0.093891 0.056898 0.016288 0.020891 0.022206 0.12973 
0.052459 0.027139 0.017438 0.027468 0.017603 0.034702 0.030592 0.10162 
0.072681 0.020233 -0.011827 0.028783 0.024179 0.013657 0.044896 0.10425 
0.12612 0.034209 0.0098754 0.063968 0.062817 0.012506 0.040621 0.13171 
0.066763 0.077943 0.011191 0.028125 0.048184 0.038155 0.029769 0.093726 
-0.0082102 0.072353 0.012835 0.055747 0.040785 0.031578 0.060844 0.021713 
-0.093541 0.1031 0.0060938 0.044238 0.036346 0.044567 0.059364 -0.0072237 
-0.10176 0.12365 0.04506 0.027139 0.032071 0.03092 0.046704 -0.024323 
-0.079072 0.092082 0.056898 0.016616 0.0032988 0.010862 0.031907 -0.00064712 
-0.016266 0.076299 0.046868 0.0087245 0.0082312 0.042594 0.048019 0.012506 
-0.0080457 0.035853 0.046211 0.025988 0.016123 0.060186 0.060022 0.022042 
0.01415 0.03092 0.042265 0.038319 0.033551 0.067913 0.083368 0.0069159 
0.083533 0.080409 0.046046 0.025659 0.088465 0.076134 0.10803 0.014315 
0.13779 0.02681 -0.037476 0.027139 0.028783 0.067256 0.087808 0.035688 
0.19912 0.0095465 -0.032379 0.038648 0.021713 0.06594 0.09685 0.016452 
0.18991 0.020727 -0.0068948 0.024673 0.041443 0.046046 0.051636 0.049006 
0.11395 0.01711 0.079094 0.021056 0.035853 0.043909 0.045224 0.032893 
0.038155 0.087808 0.14223 0.036017 -0.00064712 0.024837 0.023686 0.042923 
-0.016595 0.080902 0.099481 0.01415 0.011355 0.0032988 -0.0091966 0.045389 
0.017438 0.063639 0.078436 0.02681 0.011355 -0.038791 -0.019061 0.061995 
0.011191 0.03947 0.055911 0.041278 -0.0029489 -0.042737 -0.045368 0.060515 
-0.0042642 0.049499 0.036675 0.025166 0.021056 -0.032543 -0.038133 0.040292 
-0.013636 -0.0054151 0.031249 0.020891 0.074983 -0.027282 -0.016431 0.017932 
-0.0095255 -0.015773 0.070708 0.06183 0.052294 0.017767 0.033387 -0.014293 
-0.012978 0.045389 0.083862 0.059528 0.046704 0.020398 0.063145 -0.024652 
-0.017253 0.089452 0.014808 0.053116 0.048019 0.075312 0.068242 -0.036489 
0.039799 0.11707 -0.062796 0.055911 0.029441 0.064461 0.076134 0.010862 
0.058213 0.13368 -0.049149 0.0065871 0.024837 0.044567 0.066927 0.021713 
0.056076 0.055747 -0.023172 0.016781 0.025001 0.042758 0.038977 0.012342 
0.074161 0.073668 -0.016595 0.053609 0.0021479 0.0324 0.044567 0.068571 
0.044567 0.06331 0.010369 0.0041209 0.01563 0.031085 0.039305 0.11198 
0.00017495 0.050814 0.029934 0.00033937 0.053938 0.022864 0.050486 0.15883 
0.010862 0.049664 0.046211 0.043416 0.041443 0.0079024 0.027468 0.12266 
0.030756 0.019576 0.076299 0.026646 0.040785 0.012999 0.030263 0.072188 
0.020398 -0.0014692 0.053116 0.044731 0.030756 0.017603 0.01974 0.010369 
0.026152 0.025166 0.017932 0.071695 0.024179 0.013986 0.027796 -0.029091 
0.034044 0.048184 0.036182 0.02681 0.013328 0.028947 0.019411 -0.02794 
0.018918 0.047691 0.053774 0.016123 0.0059294 0.013986 0.061666 -0.02235 
0.0059294 0.064954 0.035688 0.017438 -0.025802 0.034537 0.04506 -0.02235 
-0.023172 0.053609 0.023522 0.01711 0.022864 0.071037 0.081231 0.0036276 
0.021056 0.037826 0.0085601 0.022042 0.057062 0.037826 0.056076 0.035195 
0.024344 0.060515 0.038648 0.042429 0.055911 0.04917 0.060022 0.037004 
0.025659 0.037826 0.037004 0.024344 0.037661 0.0072447 0.020069 0.033387 
0.018754 0.048513 0.017932 0.017603 0.011026 -0.020541 0.028454 0.020891 
0.0019835 0.091589 -0.006566 0.0227 0.026481 -0.012978 0.0046141 0.021713 
-0.011005 0.062159 -0.037147 0.024508 0.031414 -0.0090322 0.025824 0.023028 
-0.039613 0.086163 -0.019555 0.055582 0.031907 -0.0088678 -0.0027845 0.011355 
-0.02235 0.082711 0.0037921 0.050321 0.03651 0.0080668 -0.012978 0.043909 
0.015465 0.025495 0.033387 0.024673 0.015794 -0.023829 -0.087293 0.030263 
0.039141 0.016288 0.046375 0.020398 0.015465 -0.055232 -0.11015 0.046704 
0.091096 0.030263 0.087314 0.027139 0.028947 -0.078086 -0.10752 0.028947 
0.066763 0.021713 0.088465 0.024673 0.025495 -0.044381 -0.02646 0.015301 
0.068407 0.043745 0.060186 0.049335 0.029112 -0.0042642 0.013986 0.013821 
0.044073 0.06742 0.027139 0.030756 0.01711 0.058049 0.12924 0.037661 
0.078929 0.064132 -0.037147 0.10392 -0.023829 0.092411 0.11543 0.044896 
-0.00097594 0.055911 0.007738 0.047691 0.031578 0.059857 0.11444 -0.017417 
0.0013258 0.038812 0.037168 0.017767 0.027796 0.029441 0.10293 0.012177 
0.016288 0.031414 0.00033937 0.021384 0.039141 0.020562 0.076134 0.027961 
0.0090533 0.022042 0.037661 0.026152 0.048513 0.0026412 0.027139 0.081231 
0.0095465 0.018096 0.064625 -0.0042642 0.024015 0.019247 -0.0036066 0.094713 
0.03536 0.027139 -0.0036066 0.046046 0.031578 0.028454 0.0046141 0.083697 
0.026481 0.062817 -0.017911 0.093069 0.028125 0.015137 0.0014903 0.052294 
-0.0064016 0.035688 0.031085 0.064461 0.042429 0.020069 0.009711 -0.0072237 
-0.0090322 0.0059294 0.07038 0.032729 0.031249 0.017767 0.018096 -0.011498 
-0.0016336 0.033551 0.073504 0.048019 0.0032988 -0.0057439 0.035853 0.012999 
0.034044 0.049499 0.0042853 0.017438 -0.0031133 0.00297 0.022535 0.023028 
0.0786 0.054925 -0.020706 0.005765 0.031414 0.022535 0.019905 0.057062 
0.14733 0.070544 0.040621 0.056733 0.044896 0.030756 0.029441 0.056569 
0.15637 0.015959 0.1391 0.00050378 0.025166 0.04506 0.027961 0.023522 
0.12151 0.024673 0.17807 -0.023007 0.015137 0.0067515 0.011026 0.032564 
0.067913 0.049992 0.15933 0.014479 0.0080668 -0.012814 0.012013 0.04095 
0.05213 0.037661 0.069393 0.010533 0.021384 0.034702 0.029441 0.046704 
0.010369 0.042265 -0.046519 0.0047785 0.011848 0.040456 0.029605 0.020233 
0.00297 0.06035 -0.12083 0.043416 0.028454 0.035031 0.014479 0.043416 
0.035195 1.0539e-005 -0.11623 0.052459 0.018096 -0.0098543 -0.0088678 0.01826 
0.018425 -0.00081153 -0.04619 0.089616 0.042265 -0.015609 -0.023336 -0.012156 
0.0069159 0.0026412 -0.030735 0.11839 0.054267 0.038319 0.036839 -0.042408 
0.014315 -0.0088678 -0.033037 0.050157 0.046211 0.016616 0.049006 -0.01528 
0.04506 0.016123 0.029276 0.028125 0.015301 0.04654 0.05213 0.0046141 
0.04917 0.040128 0.056898 0.017274 0.005765 0.092411 0.031085 0.048184 
0.036839 0.046046 0.10425 -0.016595 -0.031557 0.090438 0.039799 0.065447 
0.031249 0.055582 0.13154 0.0041209 0.01974 0.053774 0.046868 0.059857 
0.035688 0.018425 0.14058 0.02533 0.033715 -0.025474 0.05476 0.072188 
0.053281 -0.0050863 0.13762 -0.0082102 0.035031 -0.0050863 0.066105 0.08715 
0.085506 0.007738 0.14371 0.0032988 0.027632 0.012342 0.06479 0.078272 
0.10178 0.023851 0.078272 0.033058 0.026646 -0.018239 0.040456 0.063145 
0.048184 0.051965 0.027468 -0.0068948 0.020398 -0.0083746 0.025659 0.044238 
0.041443 0.092082 -0.029091 0.031578 0.014972 0.022535 0.0011614 0.025988 
0.03799 0.084848 -0.03616 0.030263 0.02122 0.023357 0.031578 0.0039565 
0.011026 0.04917 0.013986 0.0324 0.0024767 0.067585 0.03947 -0.056219 
-0.020541 0.029934 0.053116 0.051308 0.012342 0.057555 0.062981 -0.057699 
0.031085 -0.027118 0.050979 0.05772 0.032564 0.048513 0.038155 -0.012485 
0.0018191 -0.024323 0.085012 0.041114 0.053609 0.082217 0.028783 0.01004 
0.033058 -0.003771 0.067091 0.064296 0.056569 0.011355 -0.029255 0.044567 
0.06331 -0.016431 0.047855 0.10787 0.015301 0.026317 -0.061151 0.08008 
0.095206 -0.0014692 0.0064227 0.036839 0.034209 0.0085601 -0.029748 0.084519 
0.10507 0.072517 0.0060938 0.01415 0.025988 0.027961 0.063145 0.053938 
0.039141 0.10211 -0.040764 -0.001798 0.016123 0.071531 0.099152 0.0062583 
0.010369 0.13171 -0.060658 -0.027118 0.011848 0.084848 0.12842 0.011848 
-0.0019624 0.16294 -0.098473 -0.030406 0.01826 0.06183 0.090767 -0.0077169 
-0.017253 0.12727 -0.11113 -0.034188 0.0072447 0.075148 0.09274 -0.015773 
0.0080668 0.10474 -0.095678 0.0039565 0.011355 0.02533 0.052952 -0.023172 
0.011684 0.065283 -0.013143 0.051472 0.03092 0.021549 0.040292 -0.01528 
0.021056 0.017274 0.070051 0.061008 0.037004 0.026974 -0.0024557 0.0019835 
0.01415 0.021384 0.16344 0.025001 0.035524 -0.011005 -0.0088678 0.031414 
0.043416 -0.00031829 0.22723 0.038648 0.031249 0.0046141 -0.03205 0.055254 
0.034537 0.0056006 0.20717 0.016781 0.01415 -0.015938 -0.015938 0.077943 
0.015959 0.0021479 0.17363 0.034044 0.032236 -0.02235 -0.039942 0.08863 
0.0060938 0.028125 0.070215 0.07301 0.025988 0.021878 -0.021528 0.10491 
0.010204 0.014315 0.009711 0.055747 0.050979 0.063968 0.0093821 0.07449 
0.026317 0.063639 0.01711 0.038319 0.037826 0.063803 0.064625 0.065612 
0.0016547 0.029276 0.021878 0.025166 0.053281 0.017438 0.049499 0.035031 
0.014808 0.079916 -0.019719 0.014315 0.04506 -0.018897 0.06331 0.0013258 
-0.010841 0.12792 -0.056055 0.01826 0.039799 0.010697 0.059693 -0.060165 
-0.012485 0.10885 -0.08121 0.031085 0.020233 0.0083956 0.06183 -0.099953 
-0.0049219 0.099645 -0.042079 0.0064227 -0.010676 0.009711 0.038648 -0.071181 
0.013328 0.10425 0.010697 -0.0054151 -0.0067304 0.0087245 0.04506 -0.038462 
0.036346 0.052294 0.053281 0.02829 -0.0042642 -0.012814 0.035195 -0.0091966 
0.08008 0.047526 0.095371 -0.00031829 0.00297 -0.016266 0.025988 0.024179 
0.12562 0.049335 0.091589 0.0062583 0.019411 0.010697 0.027468 0.016123 
0.058871 0.0070803 0.087643 0.037661 0.054432 0.0075736 0.0070803 0.048019 
-0.081374 0.053609 0.063639 0.033222 0.040128 0.021056 0.020727 0.083697 
-0.096665 0.072517 0.065776 0.040128 0.048513 0.040621 0.030756 0.09422 
-0.034023 0.039305 0.039799 0.048677 0.029769 0.061337 0.013821 0.10787 
0.028783 0.037661 0.02681 0.024344 0.022042 0.059693 0.0013258 0.070708 
0.050321 0.037332 0.035853 0.033058 0.017767 0.023357 0.036839 0.05065 
0.049499 0.041772 -0.0062372 0.076792 0.027961 0.024673 0.054432 0.028619 
0.046046 0.060844 -0.019884 0.084026 0.022371 0.013492 0.068571 -0.0077169 
0.027468 0.061337 0.0019835 0.059693 0.027139 -0.01528 0.065776 -0.01117 
0.045389 0.054432 0.010204 0.031742 0.050814 0.02122 0.059528 -0.01117 
0.044731 0.049006 0.022206 0.017603 0.034373 0.0054362 0.050814 0.0036276 
0.055418 0.029112 0.047855 0.011191 0.02533 0.014479 0.075312 -0.0027845 
0.038155 0.052623 0.11346 -0.041093 0.037168 0.019905 0.024344 0.032071 
0.058871 0.049992 0.021384 0.0014903 0.01974 0.0013258 0.020233 0.023357 
-0.0072237 0.043909 -0.023336 0.010204 0.046375 0.013492 -0.0087034 0.03092 
-0.0022913 0.058049 0.0324 0.042594 0.023357 0.036017 0.012999 0.029441 
0.017438 0.076299 0.066763 0.025001 -0.013143 0.02122 0.015794 0.028125 
0.012506 0.043416 0.077943 0.041278 0.014479 0.021713 -0.0062372 0.06035 
0.0044497 0.04917 0.06742 0.016288 0.031414 0.01004 0.0042853 0.1419 
0.04654 0.057555 0.055582 0.0074092 0.031085 0.012999 0.031414 0.16673 
0.074326 0.0014903 0.030263 0.025166 0.024673 0.0062583 0.0031344 0.14881 
0.07449 0.032893 -0.042901 0.030592 0.023522 0.0093821 0.036182 0.098823 
0.06331 0.041443 -0.022514 0.058871 0.048019 0.032071 0.036839 0.044402 
0.046046 0.032564 0.030427 0.098659 0.045224 0.02122 0.054596 -0.023336 
0.01563 0.043416 0.07597 0.046046 0.023193 0.026974 0.025824 -0.060823 
-0.016266 0.095699 0.086492 0.028619 0.0080668 0.044402 0.05213 -0.061645 
-0.027282 0.09126 0.069886 0.0324 0.028783 0.045882 0.059857 -0.046025 
-0.024487 0.089616 0.043087 -0.0052507 0.052952 0.064132 0.061995 -0.028433 
-0.045532 0.071366 0.03092 0.027139 0.069393 0.091096 0.040128 0.014315 
-0.050958 0.014643 0.01267 0.05772 0.056569 0.062817 0.075148 0.014315 
-0.025145 0.0067515 -0.027282 0.078272 0.040292 0.047691 0.056076 -0.022843 
-0.022021 0.026317 -0.049478 0.057227 0.027632 0.042265 0.077943 -0.016595 
0.030427 0.02122 -0.027118 0.062652 0.016123 0.021384 0.029605 -0.0064016 
0.10195 0.037168 -0.032708 0.011848 0.0034632 0.024673 0.034702 0.017603 
0.1927 0.022371 -0.013471 0.021713 0.012013 0.023686 0.0047785 0.035853 
0.29267 -0.015773 0.024015 0.052623 0.013821 0.021549 0.040128 0.075312 
0.2953 -0.049478 0.090438 0.027632 0.027468 0.026974 0.023851 0.066269 
0.20553 -0.027447 0.11839 0.028619 0.041443 0.0059294 0.035195 0.040456 
0.039305 -0.0095255 0.088136 0.051308 0.043416 -0.0040998 0.0031344 0.085177 
-0.064933 0.05065 0.078107 0.0227 0.023686 -0.010841 -0.028926 0.14617 
-0.082032 0.051472 0.10524 0.025166 0.00017495 -0.039284 -0.070359 0.13269 
-0.06707 0.034209 0.12069 0.022206 0.00066819 -0.018733 -0.003771 0.085341 
-0.052437 0.040621 0.10556 0.02829 -0.00015387 -0.0019624 0.0041209 0.038483 
-0.010183 0.043909 0.06331 0.027468 0.018589 0.026974 0.038648 0.047855 
0.037332 0.062323 0.026646 0.044238 0.016616 0.051143 -0.0098543 0.048348 
0.037661 0.066927 -0.006566 0.032071 0.027632 0.0072447 -0.022185 0.033715 
0.031249 0.049828 -0.050958 0.041443 0.045882 0.022864 -0.020706 0.00033937 
0.0421 0.049335 -0.051615 0.040785 0.034537 0.066434 0.012013 -0.027118 
0.0095465 0.049006 -0.042244 0.021384 0.030263 0.028454 0.044567 -0.033694 
-0.013471 -0.0052507 0.013986 0.029769 0.022206 0.011848 0.083533 -0.011992 
-0.024652 0.0047785 0.070873 0.0227 0.024508 0.012342 0.091918 -0.0070593 
0.0070803 0.027468 0.033222 0.061008 0.03388 -0.016102 0.11148 0.030263 
0.078107 0.023357 0.051472 0.03651 0.031085 0.072188 0.082382 -0.0026201 
0.13351 0.0062583 0.043745 0.013986 0.038812 0.04506 0.067913 0.00050378 
0.12612 0.078436 0.025166 0.0088889 0.051636 -0.038462 0.014972 -0.0090322 
0.081231 0.025166 0.054596 0.0060938 0.01826 0.0072447 0.022371 0.025659 
0.035031 0.054103 0.047033 0.026152 0.0054362 0.032729 0.026974 0.07301 
-0.0073881 0.049828 0.047362 0.0023123 0.016452 0.014972 0.010204 0.048677 
-0.012978 0.03947 0.082711 0.048513 0.033058 0.020398 -0.0406 0.0324 
-0.0052507 0.061337 0.055911 0.014808 0.023522 0.019083 0.022535 0.023522 
0.038977 0.045553 0.046868 0.013328 0.010369 -0.0016336 -0.00015387 0.043087 
0.069886 0.046704 0.028454 0.0021479 0.0052718 -0.0029489 -0.018568 0.056404 
0.029934 0.056898 0.026317 0.007738 0.009711 0.012013 0.020398 0.049006 
-0.0013048 0.0028056 0.024344 0.009711 0.029769 0.041936 0.024673 0.03092 
0.009711 0.037004 0.01004 0.049335 0.066598 -0.0062372 0.026974 0.010697 
0.0062583 0.062652 1.0539e-005 0.034866 0.054103 -0.0090322 0.0046141 -0.00081153 
-0.0057439 0.071531 0.0051074 0.054432 0.057884 -0.037969 -0.0062372 0.01563 
-0.00081153 0.080244 0.03388 0.06742 0.026646 0.0093821 0.024508 0.038483 
0.018096 0.10458 0.03799 0.0062583 0.020727 0.051143 0.064132 0.031907 
0.0074092 0.048677 0.019411 0.010204 0.0070803 0.067256 0.062159 0.021713 
0.026317 0.051965 0.0044497 0.043909 0.024673 0.0786 0.074819 0.055089 
0.011026 0.071531 0.0082312 0.037168 0.046211 0.15111 0.08567 0.011684 
0.013328 0.056898 0.0093821 0.042265 0.034866 0.12299 0.097508 0.019576 
0.0088889 0.065447 0.029769 0.030427 0.057227 0.04358 0.0592 0.03947 
-0.00064712 0.076792 0.039305 0.0069159 0.029769 -0.047176 0.036839 0.00033937 
-0.017582 0.038483 0.02829 0.012999 0.019083 -0.063618 0.025001 0.0032988 
-0.017582 0.077285 0.043087 0.026317 0.010697 -0.0059084 0.029441 0.025495 
-0.00064712 0.088958 0.036675 0.0032988 -0.0044286 -0.025474 0.0083956 0.049992 
0.0065871 0.077943 0.0047785 0.024508 0.007738 -0.046519 -0.021199 0.02829 
0.0090533 0.078107 0.024837 0.041607 0.00066819 -0.037805 -0.036983 0.024344 
0.016123 0.059857 0.043416 0.027468 0.01152 -0.024323 -0.0096899 0.035195 
0.035853 0.038812 0.042594 0.023028 0.0046141 -0.010019 0.029441 0.062817 
0.032071 0.072188 0.037497 0.01974 0.013492 0.01267 0.073339 0.08978 
-0.001798 0.04506 0.0024767 0.037168 0.047197 0.079587 0.090438 0.069064 
0.010204 0.02681 -0.028433 0.067913 0.026974 0.12431 0.10573 0.075805 
0.036182 0.040292 0.00050378 0.046868 0.027303 0.10228 0.050321 0.085177 
0.026152 -0.014787 0.055747 0.032071 0.022371 0.038483 0.024179 0.10474 
0.039963 -0.01232 0.052623 0.038648 0.026974 -0.0047575 -0.035503 0.064461 
0.062817 0.044567 0.037168 0.038812 0.035853 -0.021692 -0.037805 -0.062467 
0.069229 0.029605 0.030592 0.025659 0.0052718 -0.030899 -0.045368 -0.11163 
0.041114 0.024673 0.034537 0.021384 0.025001 -0.031228 0.025988 -0.068879 
0.072681 0.099316 0.023028 0.020891 0.05624 1.0539e-005 0.03388 -0.0055795 
0.015137 0.030592 0.045882 0.040785 0.049992 0.037661 0.070708 -0.013965 
0.021384 0.067091 0.050321 0.06594 0.050814 0.050814 0.073668 -0.010512 
0.011684 0.11198 0.012177 0.098494 0.053116 0.082382 0.091589 -0.011827 
0.040292 0.038977 0.030756 0.020891 0.029605 0.059857 0.066105 0.050486 
0.04654 -0.0026201 0.032236 0.062159 0.0074092 0.053445 0.057884 0.08304 
0.04506 0.026974 0.026974 0.012013 0.014808 0.061337 0.036675 0.057227 
0.029112 -0.0070593 0.0059294 0.044073 -0.0013048 0.066927 0.055418 0.063968 
0.023522 0.049499 -0.018404 0.033715 0.018754 0.014315 0.0023123 0.02829 
0.041936 0.058049 -0.0032777 0.012506 0.029769 0.0028056 -0.0060728 0.048513 
0.062981 0.05624 0.037332 0.044731 0.040621 -0.040106 -0.0072237 0.039963 
0.077449 0.05624 0.060186 0.044238 0.036346 -0.022843 0.0085601 0.025001 
0.056733 0.045882 0.097179 0.020398 0.027796 0.00297 -0.0039354 0.010204 
0.049499 0.021056 0.09274 0.019411 0.022206 -0.029584 0.029934 0.05772 
0.050486 0.066763 0.057227 0.061666 0.0032988 -0.006566 0.018754 0.076956 
0.052952 0.037168 0.0227 0.02829 0.012013 0.0032988 0.041936 0.08567 
0.041114 0.012177 0.023851 0.034702 0.02122 0.022206 0.038812 0.11773 
0.046211 0.024837 0.033551 0.057884 0.014972 0.066763 0.086328 0.10293 
0.04506 0.022864 0.013986 0.0028056 0.028947 0.049828 0.059693 0.017767 
0.063145 0.039305 -0.045368 -0.0021268 0.021549 0.034866 0.041114 -0.039449 
0.075641 0.064296 -0.078086 0.038648 0.029441 0.070215 0.030098 -0.059014 
0.07038 0.046211 -0.050629 0.011026 0.045882 0.054432 0.057555 -0.067235 
0.025495 0.04095 0.023357 0.020727 0.032893 0.058213 0.057391 -0.074304 
-0.015938 0.061995 0.093233 0.053609 0.021878 0.076792 0.039634 -0.035996 
0.019083 0.02681 0.1368 0.018918 0.028125 0.07449 0.01826 -0.016102 
0.021056 0.030263 0.14831 0.038812 0.030427 0.068736 0.011026 -0.010183 
0.035031 0.015465 0.19994 0.043251 0.024673 0.016616 -0.017911 0.041443 
0.036675 -0.028762 0.23775 -0.020377 0.026974 -0.0029489 -0.046354 0.082875 
0.037168 -0.044874 0.21046 -0.028104 0.020398 0.00050378 -0.010348 0.060186 
0.052952 0.01004 0.086163 -0.0029489 0.022535 0.00083261 0.061337 0.052623 
0.037497 0.045882 -0.093705 0.00099702 0.017932 0.027632 0.082546 0.011684 
0.064625 0.12102 -0.20436 0.065447 0.026646 0.01711 0.082546 0.012013 
0.074983 0.15045 -0.16966 0.084026 0.029276 0.028619 0.076299 0.082711 
0.038155 0.13105 -0.089266 0.064296 0.02122 0.047855 0.068736 0.059528 
0.046868 0.098001 0.021056 0.037497 0.0090533 0.032564 0.04358 0.041278 
0.058706 0.092576 0.044402 0.048841 0.032071 0.044567 0.049499 0.03536 
0.051308 0.060186 0.024508 0.026974 0.035031 0.069886 0.043909 0.040128 
0.01004 0.047033 -0.0026201 0.08008 0.058706 0.056898 0.038155 0.063145 
-0.0044286 0.036182 -0.024652 0.10113 0.086821 0.08304 0.013328 0.048348 
0.010697 0.0062583 -0.019555 0.11 0.063474 0.078929 0.018918 0.078929 
-0.017253 0.017767 0.019905 0.050157 0.033387 0.037826 0.083204 0.052952 
-0.016266 -0.0083746 0.10556 -0.029584 0.023686 0.025495 0.042594 0.065118 
0.016616 -0.0055795 0.16738 -0.070194 -0.032379 0.053774 0.043909 0.025659 
0.024179 0.058049 0.13697 -0.061316 0.014479 0.0088889 0.05476 -0.042408 
-0.0004827 0.052294 0.076956 -0.025145 0.031742 0.056076 0.063145 -0.048656 
-0.031557 0.026974 0.03651 0.023686 0.036839 0.040292 0.034866 -0.056877 
0.011026 0.027139 0.05624 0.038155 0.024344 0.062652 0.049499 -0.029255 
0.037168 0.020398 0.046211 0.052459 0.040785 0.028947 0.042594 -0.0057439 
0.054267 0.00033937 0.037004 0.042758 0.03536 0.0324 0.013821 0.0064227 
0.065118 0.03947 -0.068057 0.086657 0.03092 -0.0044286 -0.01528 0.018096 
0.0088889 0.043087 -0.055232 0.042923 0.047855 -0.0039354 -0.023007 0.026152 
-0.024487 0.058213 -0.014622 0.041936 0.026152 -0.030899 0.00066819 0.011026 
-0.026624 0.076299 0.058213 0.065776 0.042429 -0.011827 0.0090533 -0.006566 
-0.042573 0.091096 0.030756 0.056733 0.053281 -0.0091966 0.025988 -0.027447 
-0.0022913 0.08156 0.021056 0.066927 0.049499 0.00017495 0.032236 0.0032988 
0.094713 0.052623 0.025001 0.050979 0.016123 -0.028597 0.0060938 0.13351 
0.24334 0.0019835 0.054267 0.0090533 0.016781 -0.06 0.016781 0.16788 
0.19418 -0.031721 0.071366 0.03651 0.019411 -0.042408 0.013821 0.10737 
0.11905 -0.013143 0.070708 0.024673 -0.0011404 -0.055068 0.024179 0.060844 
0.047033 0.0019835 0.033551 0.032893 -0.0075525 -0.056712 0.0095465 0.039634 
-0.021034 0.061008 0.044731 0.028454 0.0079024 -0.024323 0.010862 0.032236 
-0.084827 0.081889 0.047197 0.054267 0.010533 -0.014787 -0.0013048 -0.01528 
-0.089431 0.08419 0.03799 0.017767 0.03388 0.027632 0.030098 0.0079024 
-0.0032777 0.072517 0.024344 0.028783 0.051308 0.041443 0.043087 0.063803 
0.071037 0.058706 0.030263 0.06479 0.073832 0.07597 0.077449 0.071202 
0.086163 0.017932 0.024673 0.027303 0.067091 0.06183 0.038648 0.057062 
0.053938 0.054432 0.016288 0.025988 0.040785 0.034537 0.015465 0.0093821 
-0.027611 0.048677 -0.0078813 0.061008 0.038155 0.034537 -0.0073881 -0.003771 
-0.02794 0.051801 -0.0091966 0.039141 0.038812 0.042265 0.043416 0.010369 
-0.0075525 0.038483 0.037332 0.038155 0.025001 0.01711 0.051636 0.025166 
0.01267 -0.016924 0.062323 0.04506 0.018589 0.011026 0.044896 0.017603 
-0.0060728 0.00083261 0.05624 0.028947 0.022864 -0.0083746 -0.016924 -0.0055795 
0.039799 0.034209 0.037168 -0.010019 -0.0014692 -0.02942 -0.011005 0.017603 
0.08567 0.014643 0.075148 -0.0019624 -0.014458 0.026646 -0.03353 0.048677 
0.10869 0.01974 0.070544 -0.033201 -0.001798 0.089123 0.046868 0.11017 
0.12118 0.064461 0.07597 -0.008539 0.0046141 0.093069 0.07301 0.13565 
0.10967 0.0421 0.052459 0.035688 0.026317 0.053774 0.098494 0.032893 
0.099645 0.069393 0.056898 0.023028 0.024508 -0.025309 0.041772 -0.01939 
-0.001798 0.076463 0.069393 0.026974 0.016452 -0.05326 0.022864 -0.047669 
-0.11294 0.056569 0.047033 0.012013 0.023686 -0.072989 -0.024158 -0.045039 
-0.094527 0.064296 -0.019226 -0.015938 0.058213 -0.06148 -0.011005 -0.031064 
-0.0096899 0.080573 -0.030899 0.025824 0.0088889 -0.087129 -0.0039354 0.023686 
0.085177 0.10228 -0.02235 -0.0031133 -0.012978 -0.054904 0.011026 0.076792 
0.087643 0.052623 0.004943 0.013821 -0.0072237 -0.010841 0.03092 0.084026 
0.058871 0.070544 -0.020212 0.055254 0.020233 0.059035 0.062488 0.041936 
-0.0067304 0.079422 -0.071674 0.00297 0.059035 0.054267 0.013164 -0.0057439 
-0.060823 0.09833 -0.040928 0.044238 0.041607 0.053938 0.01004 -0.0070593 
-0.052437 0.077121 0.0088889 0.042923 0.078929 0.065447 -0.0138 0.038155 
-0.014622 0.046211 0.052787 0.025166 0.026974 0.085341 -0.00015387 0.055418 
0.042923 0.055089 0.076627 0.0083956 0.028454 0.10787 0.037332 0.072353 
0.063803 0.020562 0.12677 0.01826 0.0075736 0.047691 0.091589 0.041607 
0.047033 0.02122 0.15275 -0.012814 0.0064227 0.026481 0.08304 0.029934 
0.013657 0.045718 0.12431 -0.0013048 0.013164 0.030098 0.085012 0.016288 
0.016452 0.022042 0.066105 0.031578 -0.0054151 0.017274 0.06035 0.0087245 
0.071859 0.019083 0.052459 0.022206 -0.014951 0.029934 0.058706 -0.014458 
0.14765 0.033715 0.076627 0.034702 0.010862 -0.0138 0.019247 -0.0022913 
0.13138 0.043087 -0.0138 0.064625 0.021713 0.0069159 0.0018191 0.015794 
0.097837 0.055089 -0.10127 0.043909 0.041278 0.068571 0.0083956 0.0044497 
0.070215 0.072353 -0.12396 0.051472 0.0592 0.091425 0.024344 0.054432 
0.02533 0.040456 -0.053424 0.10211 0.0689 0.081231 0.046868 0.059528 
0.025659 0.040128 0.018589 0.059528 0.047855 0.058706 0.051965 0.046375 
0.017767 0.063803 0.074161 0.056733 0.057884 -0.013636 0.048184 0.012835 
-0.028926 0.070051 0.084026 0.067913 0.035195 0.030756 0.037168 -0.020048 
-0.056219 0.080902 0.11855 0.0080668 0.031414 0.025988 0.028947 -0.033365 
-0.060165 0.084684 0.072188 0.021878 0.0034632 0.019905 0.013657 -0.045532 
-0.048492 -0.00097594 0.020891 0.042594 0.0011614 0.022371 0.021713 -0.003771 
-0.031228 -0.073154 0.061995 0.024837 0.0060938 0.0079024 0.033222 0.015794 
0.020398 -0.035338 0.11066 0.025824 0.047855 0.028619 0.036017 0.023686 
0.055254 0.027468 0.081889 0.048348 0.048841 0.033551 0.021549 0.079258 
0.051636 0.10524 0.0034632 0.027468 0.049006 0.025001 0.044731 0.067585 
0.030427 0.11921 -0.017746 0.026646 0.033058 0.047855 0.053116 0.056404 
0.051472 0.091425 -0.019555 0.043416 0.02122 0.038977 0.075148 -0.028104 
0.028947 0.092576 0.0065871 0.020398 0.0227 0.039305 0.081889 -0.054904 
0.051965 0.057555 -0.013636 0.049335 0.016945 0.062159 0.065283 -0.034188 
0.066105 0.016781 -0.012649 0.076627 0.020069 0.051472 0.057227 -0.0082102 
0.086163 0.018918 0.076627 0.030592 0.022864 0.045553 0.0421 0.042429 
0.06479 -0.031392 0.11329 0.024179 0.020727 0.028947 0.00297 0.042594 
0.076956 -0.018733 0.10014 0.023193 0.040456 0.0060938 0.0072447 0.06594 
0.086163 0.0046141 0.060186 0.01974 0.03388 0.048184 0.015137 0.032893 
0.068736 0.017603 0.038812 0.041278 0.021713 0.053609 0.033551 0.04506 
0.025001 0.10178 0.026974 0.041936 0.044073 -0.00064712 -0.0055795 -0.013143 
0.023357 0.070215 0.030098 0.03092 0.044073 0.0080668 -0.025145 0.024508 
0.042594 0.09126 -0.03353 0.004943 0.040785 -0.044052 -0.068714 0.043745 
0.012999 0.056076 -0.024652 0.023686 0.040128 0.0023123 -0.02235 0.08008 
0.016452 0.025166 -0.038462 0.012177 0.047197 0.020233 0.028619 0.029605 
0.065612 0.022042 -0.018568 0.050321 0.031578 0.026974 0.061501 0.031907 
0.041936 0.029112 0.057227 0.039634 0.048348 0.062323 0.099316 0.057062 
0.032893 0.064296 0.084684 0.024508 0.038155 0.046375 0.11083 0.075148 
0.015465 0.035031 0.071695 0.024837 0.034044 0.024673 0.067585 0.046704 
-0.015444 0.036182 0.063639 -0.013965 0.0070803 0.028947 0.055911 0.043087 
-0.018404 0.06479 0.062652 0.0054362 0.0079024 0.0028056 0.016945 0.028125 
-0.0095255 0.070051 0.074983 0.02533 0.020233 0.0014903 0.03092 0.01563 
0.037332 0.053445 0.054103 0.0090533 -0.0044286 0.02533 -0.019555 0.0016547 
0.064954 0.056733 0.042429 0.027961 0.016616 0.009711 0.011355 -0.028597 
0.088136 0.017932 0.015794 0.052952 0.031414 0.027632 0.011026 0.0047785 
0.064132 0.050979 -0.028104 0.038977 0.038483 0.031742 0.042429 0.02533 
-0.0011404 0.025166 -0.018239 0.059035 0.055418 0.0064227 0.029769 0.019411 
-0.0031133 0.024837 0.051472 0.055254 0.051143 0.031742 0.05065 0.0034632 
-0.022021 0.028619 0.085835 0.023851 0.04917 0.015959 0.028783 0.011026 
-0.011827 0.034209 0.03947 0.015137 0.04654 0.019905 0.033551 0.035688 
-0.028104 0.054103 -0.03912 0.046211 0.021384 0.056569 0.053281 0.03536 
-0.028926 0.08008 -0.064768 0.025659 0.026317 0.039799 0.06479 0.055911 
0.034373 0.063145 -0.038298 0.022371 0.028783 0.031907 0.02681 0.061008 
0.038812 0.043416 -0.022843 0.021713 0.043909 -0.010512 -0.0026201 0.066927 
0.0227 0.076463 -0.021199 -0.0042642 0.049006 -0.033365 -0.053917 0.094055 
0.043745 0.070215 -0.021363 0.01004 0.022371 -0.023501 -0.06707 0.098494 
0.04654 0.084026 0.020069 0.026317 0.031085 -0.051944 -0.069372 0.1003 
0.041114 0.067913 0.046211 -0.0083746 0.0087245 -0.029748 -0.017746 0.066927 
-0.011663 0.031085 0.059035 0.023522 0.021878 0.02829 0.042758 -0.023665 
0.026481 0.052623 0.049992 0.079422 0.029112 0.013492 0.069393 -0.073154 
0.030098 0.066927 0.053938 0.0092177 0.0056006 0.04654 0.052623 -0.093705 
0.025824 0.031578 0.053938 0.020562 0.0023123 0.031249 0.062981 -0.037476 
0.0324 0.0051074 0.019083 0.04095 0.033551 0.038977 0.068242 0.059528 
-0.0026201 0.033715 0.044896 0.037332 0.060515 0.066269 0.08978 0.077449 
0.012013 -0.0019624 0.095535 0.024508 0.043251 0.069064 0.083368 0.038155 
0.054432 0.0014903 0.11247 0.053774 0.030427 0.074983 0.078272 0.031578 
0.054925 0.03536 0.074654 0.017767 0.015465 0.044238 0.038648 0.026646 
0.025988 0.071859 0.022206 0.019411 0.0031344 0.0056006 0.036675 0.048677 
0.021713 0.082546 -0.036325 0.014643 0.015137 -0.016595 0.0070803 0.028619 
0.049335 0.080902 -0.057863 0.024673 0.034044 -0.011827 0.017438 0.014972 
0.016123 0.060022 0.014808 0.0016547 0.048841 -0.042737 0.055089 0.01711 
0.0011614 0.066927 0.034537 0.018918 0.048841 0.032729 0.019247 0.021713 
0.044731 0.069558 0.036182 0.03799 0.025824 0.029276 0.0060938 0.026646 
0.041772 0.051801 0.0036276 0.020562 0.034702 0.015465 -0.03501 0.071202 
0.039963 0.098494 0.028454 -0.020377 0.014808 0.031249 -0.030077 0.058213 
0.036839 0.014315 0.054267 0.035524 0.015794 -0.013636 -0.024323 0.05213 
0.030263 0.01004 0.070708 0.025988 0.0075736 0.0092177 0.032729 -0.013636 
0.025001 0.019905 0.087972 0.0036276 0.0093821 -0.012485 0.072846 -0.031721 
0.049499 0.00083261 0.065447 0.0054362 -0.0096899 0.044402 0.11773 -0.037805 
0.068242 0.018425 0.06035 0.016123 0.0014903 0.067256 0.11428 -0.0064016 
0.021384 0.053609 0.029112 0.012999 0.01415 0.075641 0.1151 0.02681 
-0.0088678 0.06183 0.013492 0.039799 0.051801 0.08567 0.076627 0.048184 
-0.036489 0.069393 0.018425 0.072024 0.052952 0.08419 0.071531 0.036182 
0.01563 0.085835 0.0052718 0.0052718 0.043087 0.034866 0.04095 0.047526 
0.042758 0.020069 0.05065 -0.011663 0.021056 0.033058 0.033551 0.10737 
0.065118 0.00050378 0.079258 0.010533 0.0014903 -0.003771 -0.0014692 0.12233 
0.098001 0.012342 0.073339 -0.049478 -0.011827 -0.058356 -0.034681 0.14091 
0.041443 0.0032988 0.046211 0.0021479 0.0046141 -0.05178 -0.068879 0.11214 
-0.0060728 0.032729 0.030263 0.055747 0.0092177 -0.06444 -0.091732 0.052623 
0.015794 0.062323 0.032564 0.028125 0.033222 -0.056055 -0.10193 -0.014129 
0.029934 0.050157 0.046046 0.020891 0.03092 -0.037476 -0.031721 -0.068714 
0.040456 0.060515 0.016123 0.035688 0.021384 -0.045203 0.025659 -0.085156 
0.018754 0.072517 0.028783 0.0060938 0.022371 0.015959 0.092082 -0.048163 
0.037497 0.04654 0.047033 0.0013258 0.011848 0.077121 0.10277 -0.014458 
0.014315 0.066105 0.046868 0.041443 0.020233 0.072846 0.10803 0.00033937 
0.028947 0.053774 0.014315 0.02681 0.0041209 0.071202 0.073175 0.042923 
0.067749 0.027303 0.0065871 0.019083 0.0044497 0.049828 0.073832 0.059693 
0.10096 0.03651 -0.019719 0.059035 0.0083956 0.044073 0.019247 0.071202 
0.055418 -0.0032777 0.016781 0.043745 0.06479 0.03651 0.030098 0.05624 
0.0070803 0.011848 0.05772 0.060022 0.063145 0.01004 0.03092 0.041607 
0.0093821 0.035853 0.069393 0.062488 0.056898 -0.0032777 0.043087 0.051308 
0.0056006 0.047691 0.027139 0.021713 0.03536 -0.0042642 0.016452 0.059528 
0.0039565 0.069229 0.0082312 0.021056 0.024015 0.046046 0.024179 0.082053 
0.045882 0.041278 0.038319 0.041936 0.033058 0.080409 -0.0078813 0.046211 
0.041772 0.021056 0.052459 0.03651 0.022042 0.058871 0.016452 -0.0021268 
0.0092177 0.049006 0.017603 0.039799 0.019247 -0.010676 0.01826 -0.045368 
0.02829 0.08567 0.016781 0.031742 0.016123 -0.023336 0.046375 -0.033859 
0.057555 0.063145 0.049006 0.026974 0.029112 -0.051451 0.025988 0.034537 
0.02533 0.063639 0.038319 0.016945 0.013821 -0.018075 0.044731 0.047033 
-0.0036066 0.09685 0.03947 0.0324 0.034702 -0.0014692 0.0083956 0.077285 
0.033222 0.04654 0.062159 0.012835 0.010862 -0.021692 -0.035996 0.08419 
0.023522 0.032564 0.10178 0.043909 0.0036276 -0.037311 -0.06707 0.04095 
0.0079024 0.061008 0.1008 0.080409 0.010369 -0.02235 0.050814 -0.05441 
0.027961 0.021384 0.038812 0.034209 0.020233 0.050486 0.049006 -0.0064016 
0.04095 0.048677 -0.03912 0.10425 0.012342 0.049828 0.11329 -0.019226 
0.020891 0.031578 -0.012978 0.067913 0.044567 0.021056 0.051308 0.01004 
0.037497 -0.030242 0.059528 0.077943 0.045389 0.039799 0.057227 0.037332 
0.023357 0.028125 0.10293 0.031249 0.052952 0.026481 0.013164 -0.016266 
0.0098754 0.074819 0.053281 0.01004 0.05065 0.018754 0.043745 0.019083 
0.00033937 0.11198 -0.039942 0.017767 0.044567 0.041443 0.026317 0.029276 
-0.025309 0.12316 -0.07266 0.038319 0.030427 0.038812 0.061995 0.035688 
-0.017911 0.078272 -0.065262 0.016781 0.039799 0.051965 0.054925 0.023357 
-0.010183 0.023357 -0.027447 0.021878 0.014643 0.063474 0.072681 0.022535 
0.0023123 0.0036276 0.068078 0.039799 0.040785 0.047526 0.048348 0.02829 
0.06331 -0.027775 0.14387 0.038155 0.042923 0.049828 0.091753 -0.0040998 
0.08978 -0.00064712 0.13203 0.053938 0.049992 0.055747 0.03536 0.038812 
0.12316 0.02829 0.023851 0.1003 0.048513 0.039799 0.034702 0.045882 
0.11905 0.0018191 -0.10949 0.092411 0.028619 0.029276 0.027961 0.056733 
0.099152 -0.018897 -0.10439 0.067913 0.024344 0.012013 0.056733 0.083204 
0.1054 -0.029255 0.029276 0.051801 0.020069 0.0051074 0.02681 0.1077 
0.10869 -0.0013048 0.1151 0.015465 0.016616 0.014479 0.023522 0.072188 
0.13647 0.03092 0.081724 0.021056 0.012506 -0.036654 -0.0049219 0.02681 
0.11083 0.094055 0.080902 0.025659 0.017932 0.0052718 0.015959 -0.0098543 
0.038812 0.088958 0.068242 0.01152 0.028619 0.028125 0.019576 -0.024323 
-0.055232 0.10672 0.035688 0.014808 0.036182 0.021384 0.050486 -0.0067304 
-0.10669 0.12299 0.032729 0.054432 0.03947 0.039141 0.049006 0.0056006 
-0.11228 0.093726 0.039963 0.010369 0.037826 0.039799 0.041114 0.028619 
-0.091568 0.071202 0.039141 -0.010841 0.023193 0.05065 0.041772 0.028783 
0.0031344 0.073668 0.036346 0.018425 -0.023172 0.058213 0.0072447 0.038483 
0.012013 0.04358 0.020891 0.0036276 0.023357 0.026646 0.045882 0.023028 
0.01563 0.022535 0.0062583 0.028454 0.0075736 -0.0027845 0.013492 0.010862 
0.053774 0.027632 0.027632 0.063145 0.016452 -0.0034422 0.01004 0.0023123 
0.035195 -0.029748 0.097837 0.046211 0.033222 0.018918 0.021713 -0.026624 
0.013492 -0.028269 0.11987 0.043416 0.032236 0.065776 0.043909 -0.033859 
0.031249 0.010369 0.068407 0.050157 0.022042 0.059857 0.04506 -0.013636 
0.099481 0.04654 -0.016431 0.016288 0.011355 0.032893 0.034702 0.016288 
0.11099 0.071202 -0.083018 0.034537 0.012999 0.0046141 0.03651 0.031742 
0.11181 0.066434 -0.06148 0.043745 0.0065871 -0.0047575 0.041114 0.089945 
0.085999 0.048019 -0.028433 0.0056006 0.0028056 0.0062583 0.046211 0.15735 
0.030427 0.04917 0.024179 0.0095465 0.0026412 0.046046 0.047855 0.16755 
0.00099702 0.063145 0.10836 0.033715 0.023686 0.021713 0.034044 0.13203 
0.029441 0.04917 0.081231 0.037826 0.03651 0.0421 0.051308 0.026974 
0.028783 0.078929 0.028454 0.085506 0.090438 0.020727 -0.022514 -0.028926 
0.011026 0.00033937 0.0079024 0.064461 0.034866 0.019905 0.034373 -0.065919 
0.059364 -0.022185 0.058049 0.057227 0.028947 -0.00015387 0.010369 -0.046025 
0.047855 -0.021034 0.076627 0.034209 0.012177 0.012177 0.016781 -0.0029489 
0.039634 -0.022514 0.074161 -0.013143 0.030756 0.057391 0.00099702 0.054596 
0.021878 0.031907 0.079751 0.0034632 0.0093821 0.060679 0.060515 0.056404 
0.027139 0.091425 0.054267 0.0013258 0.014479 0.045553 0.060515 0.057062 
0.0034632 0.087972 0.00297 -0.015609 0.03799 0.047197 0.044238 0.031085 
-0.016595 0.10655 -0.024487 0.0085601 0.061666 0.020233 0.019411 0.027632 
0.0021479 0.092904 0.010697 0.011684 0.051143 0.0031344 -0.0019624 0.035195 
0.021713 0.043745 -0.014951 0.0031344 0.031249 0.021549 -0.041257 0.070544 
0.010862 0.050321 -0.041915 0.014315 0.01974 0.009711 -0.021856 0.0786 
0.0072447 0.050814 0.013328 0.039141 0.014808 0.0034632 0.0034632 0.01563 
-0.0047575 0.047855 0.044402 0.035031 0.01415 0.009711 0.061666 -0.05441 
-0.0087034 0.060679 0.069558 0.04358 0.034702 -0.026624 0.061501 -0.066248 
-0.013636 0.086985 0.050814 0.08156 0.051143 0.01004 0.03947 -0.043724 
0.051472 0.073504 0.029769 0.058049 0.02533 0.012177 0.00033937 -0.0024557 
0.060186 0.068736 0.034866 0.039305 0.03536 0.016123 0.024015 0.072517 
0.041114 0.032236 0.077614 0.035195 0.019576 0.029276 0.0028056 0.093562 
0.0080668 0.017438 0.064625 -0.0095255 0.014479 0.025495 0.048184 0.022042 
0.023522 0.034537 0.034209 0.0032988 0.013986 0.04506 0.043251 0.015465 
0.021384 0.016616 0.025001 0.035688 0.01974 0.037661 0.06742 0.011191 
0.046375 0.014972 0.041278 0.021384 0.019411 0.027632 0.042265 0.06331 
0.084355 0.011355 0.054103 0.012177 0.021713 0.038483 0.036839 0.15916 
0.14321 0.0064227 0.010369 0.034866 0.0069159 -0.0059084 0.025659 0.15867 
0.040292 0.029441 -0.033365 0.048677 0.011848 0.035524 0.053445 0.0689 
-0.092226 0.088136 -0.020048 0.03092 0.047526 0.091589 0.017438 -0.030406 
-0.05737 0.06183 -0.00015387 0.054596 0.045389 0.059857 0.029112 -0.06 
-0.0083746 0.07597 0.024837 0.029276 0.048184 0.022864 -0.035996 -0.05737 
0.041278 0.044567 0.041278 0.013821 0.032071 0.010204 -0.025309 0.0065871 
0.067091 0.0079024 0.042429 0.028783 0.030756 -0.021692 -0.015609 0.019083 
0.070708 0.048841 0.022042 0.015137 0.039799 0.0054362 0.03388 0.024837 
0.035524 0.11674 0.0034632 0.034537 0.038977 -0.0039354 0.04506 0.025988 
0.02829 0.089452 -0.0049219 0.052952 0.02829 -0.016595 0.11543 0.0044497 
0.028619 0.069393 0.02122 0.024015 0.031742 0.065776 0.11296 0.0088889 
-0.0026201 0.048513 0.051801 0.03388 0.044073 0.05772 0.090931 0.034866 
-0.0026201 0.0421 0.034209 0.045718 0.034373 -0.01232 0.023522 0.031414 
-0.0024557 0.071531 0.038155 0.036017 0.013164 -0.054575 -0.039942 0.026974 
0.015465 0.051308 0.093398 0.018754 0.019576 -0.087129 -0.14434 0.064954 
0.058871 0.039141 0.092904 0.057884 0.030427 -0.052273 -0.15257 0.096028 
0.074819 0.009711 0.075641 0.056076 -0.01528 -0.019884 -0.12544 0.018425 
0.064625 0.040292 0.10359 0.018425 0.009711 -0.0049219 0.0067515 -0.025474 
0.018589 0.035853 0.070873 0.028454 0.025659 0.038155 0.07038 -0.025967 
0.010533 0.060186 -0.010676 0.020891 0.016123 -0.011827 0.083697 -0.029255 
0.0062583 0.032729 -0.016924 0.016945 0.025659 -0.0062372 0.11313 0.041278 
0.024508 0.029441 -0.025967 0.037661 0.037168 0.030756 0.11346 0.058706 
0.044238 0.049335 -0.022514 0.015137 0.051308 0.036346 0.10293 0.042758 
0.03388 0.049828 -0.036654 0.021713 0.034209 0.0016547 0.044073 0.025659 
0.031085 0.060844 -0.047998 0.044896 0.017438 -0.030406 0.038483 0.0092177 
0.0227 0.083533 0.0062583 0.016123 0.00297 -0.020048 0.021713 0.013328 
0.035688 0.066598 0.023686 0.030756 0.0059294 0.019411 0.030263 0.051308 
0.058377 0.029441 0.065776 0.029112 -0.0036066 0.072517 0.022864 0.10063 
0.036675 0.038977 0.077614 0.0064227 0.0065871 0.057555 0.020069 0.11083 
0.034373 -0.0014692 0.10556 0.027796 0.019247 0.019411 -0.0098543 0.075148 
0.0021479 0.028783 0.11987 0.020891 0.031742 -0.02794 -0.020706 -0.01528 
0.052952 0.03388 0.10129 0.010862 0.016288 -0.029584 -0.073318 -0.02942 
0.044238 0.040292 0.075805 0.012835 0.007738 -0.0083746 -0.03205 -0.053424 
0.019411 0.040785 0.056569 0.025166 0.033387 0.027303 0.016616 0.0023123 
0.041936 0.047526 0.01415 0.041936 0.046046 0.060844 0.061008 0.029441 
0.058706 0.031907 0.0041209 0.067749 0.034537 0.064461 0.076956 0.046375 
0.056898 0.052623 0.012177 0.051965 0.023357 0.062323 0.070215 0.037332 
0.063803 0.045882 0.027468 0.032729 0.025495 0.066763 0.054432 -0.027282 
0.040292 0.042923 0.016452 0.048348 0.051472 0.025659 0.05213 -0.0029489 
0.012342 0.056076 0.023193 0.027961 0.031742 0.033387 0.035688 0.014808 
0.0098754 0.042265 0.010862 0.0065871 0.013821 0.03536 0.052459 0.025659 
0.020398 0.01415 -0.014129 0.03947 0.017603 0.049828 0.03388 0.036017 
0.0079024 0.027796 0.014643 0.01711 0.01152 0.041936 0.056076 0.021056 
0.0093821 0.019083 0.064296 0.016781 0.013328 0.016452 0.027632 0.021713 
0.037332 -0.02235 0.089616 0.047362 0.05476 -0.00031829 0.020562 0.014972 
0.016616 0.074983 0.054925 0.02829 0.01974 0.019247 0.017767 0.014972 
0.020069 0.07449 0.039141 0.018589 0.041772 0.024179 0.037661 0.012177 
0.044567 0.047526 0.017767 0.044567 0.026317 0.01711 0.020069 0.034209 
0.087479 0.027961 0.047197 0.024179 -0.0016336 0.0024767 0.03536 0.068571 
0.084355 -0.030899 0.061501 0.019247 0.025659 0.026152 0.046046 0.1026 
0.04917 -0.044546 0.069064 0.065447 0.035031 0.081231 0.085835 0.088301 
0.052787 -0.027611 0.04654 0.067256 0.051801 0.10244 0.08304 0.074983 
0.010697 -0.025967 0.053281 0.05213 0.038812 0.12069 0.063474 0.064954 
1.0539e-005 0.034866 0.061337 0.0090533 0.069722 -0.00031829 0.064296 -0.018733 
0.010697 0.088958 0.061501 0.015301 0.013328 -0.0036066 0.041607 0.059528 
0.0054362 0.095699 0.056404 0.023028 -0.019061 -0.0032777 0.066269 0.025824 
0.045553 0.085341 0.018589 0.020891 0.031742 0.066269 0.065283 0.033058 
0.040785 0.095699 -0.0029489 0.0036276 0.052459 0.084519 0.032893 -0.062138 
0.0075736 0.052294 0.01563 0.018754 0.031742 0.12151 0.055089 -0.05441 
0.0087245 0.053281 0.039799 0.023357 0.025001 0.068242 0.056569 -0.031228 
0.023028 0.070544 0.079751 -0.0011404 0.029934 0.030427 0.071037 -0.021034 
0.024673 0.022535 0.044731 -0.0016336 0.027139 0.050157 0.03651 0.02533 
0.050979 0.016616 0.024344 0.027632 0.031085 0.013657 0.034209 0.0421 
0.007738 0.050321 0.031414 0.018096 0.020562 0.039963 0.02829 0.037004 
0.0098754 0.039799 0.032236 0.023357 0.030592 0.028125 0.028783 0.043416 
0.025001 0.076463 0.0074092 0.03799 0.041607 0.043745 -0.0078813 0.04654 
0.0031344 0.10425 -0.010841 0.044238 0.051472 0.066927 0.031085 0.029441 
0.0075736 0.095371 -0.0014692 0.051472 0.045718 0.061666 0.019247 0.040621 
0.033715 0.052952 0.075312 0.056898 0.039799 0.052459 0.069886 0.033387 
0.029934 0.035195 0.095206 0.057391 0.0014903 0.050979 0.060679 0.031249 
0.02533 0.0083956 0.07449 0.061501 0.014643 0.038155 0.097015 0.034866 
0.023357 0.035688 0.026481 0.071202 0.024344 0.055418 0.067585 0.03092 
0.030592 0.01152 -0.016266 0.060844 0.025495 0.032236 0.056733 0.0054362 
0.0044497 0.0059294 -0.019719 0.086657 0.029441 0.00083261 0.025495 0.016945 
-0.03057 0.012177 0.013986 0.054267 0.060515 -0.00081153 0.042594 0.014315 
0.0092177 -0.035338 0.052952 0.022371 0.051143 -0.018733 -0.012156 0.019905 
0.027632 -0.023994 0.040621 0.023028 0.020727 -0.0011404 0.0037921 0.049006 
0.060186 0.030098 0.023686 -0.0019624 0.0074092 -0.024652 -0.068221 0.063639 
0.068242 0.05476 0.025988 -0.0096899 0.007738 -0.036325 -0.059836 0.047362 
0.051143 0.072188 0.041278 -0.0049219 0.018754 -0.020212 -0.082032 0.040292 
0.014479 0.13236 0.070051 -0.029584 -0.0027845 0.020233 -0.01117 0.011684 
-0.006566 0.13088 0.08419 -0.025638 0.0070803 0.050486 0.022371 -0.0032777 
0.01004 0.11543 0.045553 0.057555 0.042923 0.022206 0.061337 -0.010841 
0.015794 0.10376 0.0079024 0.05772 0.073832 -0.026131 0.044567 0.00017495 
0.018589 0.053774 0.0059294 0.042923 0.058706 -0.026953 0.01711 0.021384 
0.040785 0.034209 -0.018897 0.060679 0.038483 -0.0098543 0.020727 0.005765 
0.064625 0.040292 -0.045696 0.027961 0.018425 0.0034632 0.054432 0.010204 
0.057884 0.010204 -0.026131 0.017603 0.012999 0.044238 0.064954 0.026481 
0.043909 0.043416 -0.01117 0.042758 0.01004 0.066598 0.078765 0.029605 
0.056733 0.086985 -0.055561 0.031085 0.028125 0.036839 0.061008 0.083697 
0.011684 0.08863 -0.090581 0.054267 0.04506 0.044896 0.06479 0.089287 
-0.031228 0.064461 -0.077922 0.071366 -0.00031829 0.020233 0.015959 0.064461 
0.0047785 0.044238 0.050157 0.028454 0.033387 0.00083261 0.0075736 0.062817 
0.0031344 0.022864 0.065118 0.043251 0.014315 -0.014622 -0.02942 0.042758 
0.034537 0.027796 0.095042 0.028783 0.0227 -0.0087034 -0.0073881 0.021549 
0.041114 0.033551 0.10918 0.01826 0.019905 -0.0014692 -0.017911 0.0052718 
0.076627 0.02681 0.11132 0.0028056 0.016945 0.044896 0.00050378 0.024837 
0.077285 0.03947 0.11855 0.044238 0.065118 0.094548 0.060515 -0.0068948 
-0.019226 0.028454 0.01826 0.038483 0.042265 0.094384 0.045224 -0.022514 
-0.0080457 0.036182 0.037826 0.029605 0.051143 0.057884 -0.003771 -0.010348 
0.05772 0.071366 0.059035 0.055911 0.038155 0.056076 -0.088444 0.019247 
0.065776 0.036182 0.050486 0.016288 0.02533 0.025988 -0.069701 0.057062 
0.039634 0.059364 -0.010841 0.027632 0.02829 -0.086307 -0.014787 0.043416 
0.035853 0.091425 -0.033365 0.053116 0.010369 -0.13382 0.04654 0.016616 
-0.0013048 0.048019 0.0036276 0.0042853 0.0028056 -0.1478 0.038977 0.032893 
0.0024767 0.025495 0.029769 0.033387 -0.026953 -0.11212 0.028125 0.051472 
0.022535 0.049499 0.081067 0.026317 -0.0016336 -0.051615 -0.030735 0.046046 
0.015301 0.012177 0.075476 -0.02498 -0.013471 -0.080059 -0.084334 0.072188 
0.041936 0.018425 0.059035 0.0037921 -0.01232 -0.098638 -0.084827 0.076299 
0.090109 0.043087 0.082875 0.0074092 0.036839 -0.030077 -0.004593 0.019905 
0.12875 0.010369 0.067256 0.021384 0.024344 0.014479 0.065118 -0.052766 
0.14601 0.0421 0.048348 0.03947 0.031907 0.041607 0.085177 -0.081703 
0.15752 0.010697 0.048677 0.065447 0.0047785 0.026317 0.073339 -0.025309 
0.1202 0.040292 0.017767 0.046375 0.023522 0.049664 0.0689 0.010533 
0.029112 0.066434 -0.05326 0.0689 0.032564 0.094055 0.05772 0.031414 
-0.021528 0.073504 -0.051287 0.080409 0.035688 0.096521 0.079094 0.051801 
-0.0050863 0.048513 -0.0011404 0.061501 0.050486 0.10589 0.045224 0.13746 
-0.021363 0.043745 0.071531 0.051308 0.03651 0.083368 0.046704 0.13828 
-0.042737 0.064461 0.082217 0.030098 0.033058 0.031414 0.022206 0.080409 
-0.045696 0.049664 0.054103 0.0011614 0.044731 0.027961 0.028619 0.028454 
-0.02235 0.057227 0.040292 -0.021692 0.015137 -0.0022913 0.00033937 -0.008539 
-0.0067304 0.034044 0.041443 -0.016924 0.014315 -0.011334 0.027303 -0.004593 
0.012999 0.039963 0.035031 -0.021856 0.011026 0.007738 0.025001 -0.0077169 
0.063968 0.042758 0.038319 0.0090533 0.016616 0.010204 0.028454 0.0062583 
0.070708 0.019411 0.061008 0.004943 0.0039565 0.0023123 0.017438 0.017274 
0.099645 0.0028056 0.051801 0.0227 0.014479 0.012506 0.044567 0.022371 
0.12464 0.023851 0.093891 0.041114 0.010697 -0.011498 0.0052718 0.011026 
0.093069 0.020562 0.096028 0.035524 0.03092 -0.010512 0.01563 -0.013965 
0.044567 0.029276 0.069558 0.03092 0.054925 -0.001798 -0.013965 -0.0077169 
0.0056006 0.05624 0.051308 0.042758 0.05065 -0.00097594 0.028454 0.0044497 
0.020233 0.040621 0.055747 0.03388 0.038319 0.031085 0.03092 0.025659 
0.050157 0.0227 0.019083 0.029276 0.035524 0.037168 0.080409 0.041114 
0.053281 0.064132 -0.0024557 0.048184 0.032729 0.060844 0.068736 0.030592 
-0.025145 0.091918 0.094055 0.025659 0.052623 0.059857 0.085835 0.067585 
0.038483 0.062159 -0.0049219 0.016288 0.024344 0.04654 0.056569 0.036017 
0.0039565 0.078436 0.0060938 0.044238 0.034702 0.062817 -0.0019624 0.061995 
0.0059294 0.029605 -0.0032777 0.017603 0.049828 0.050486 0.040128 0.04654 
-0.00064712 0.046375 0.014315 -0.029913 0.038483 0.010369 0.10408 0.047362 
-0.011334 0.061008 0.021878 0.050486 0.039305 0.047033 0.042758 0.047033 
-0.018239 0.05213 0.02681 0.023522 0.03092 0.023028 0.043087 0.057555 
-0.02646 0.037168 0.028454 0.045553 0.035853 0.033222 0.035031 0.065447 
-0.01939 0.073175 0.0028056 0.054103 0.038648 0.060186 0.061501 0.027303 
-0.0075525 0.064954 -0.035667 0.023686 0.045553 0.044238 0.054596 0.036182 
0.022535 0.077285 -0.052602 0.025166 0.018754 0.056733 0.058871 0.023522 
0.044402 0.085341 -0.041751 0.071859 0.024179 0.062652 0.020891 0.040456 
0.023851 0.057227 -0.0083746 0.039799 0.011191 0.033715 0.063639 0.043745 
0.011026 0.075805 0.012013 0.033551 0.038155 0.069558 0.061172 0.029934 
0.0093821 0.053116 0.022206 0.048841 0.033551 0.056404 0.1077 0.02533 
0.01974 0.018754 0.093562 0.02122 0.038483 0.086492 0.063474 0.0028056 
0.005765 0.0013258 0.14437 0.020398 0.035524 0.1493 0.082382 0.012999 
-0.0004827 -0.00031829 0.15209 0.051143 0.049335 0.10819 0.093233 -0.017746 
-0.003771 -0.011498 0.092247 0.038648 0.062652 0.10178 0.096193 -0.0098543 
-0.014293 0.011355 0.049992 0.081067 0.072681 0.067585 0.060022 0.035524 
-0.014951 -0.0070593 0.061008 0.061995 0.030263 0.04654 0.071366 0.011191 
0.0092177 0.018918 0.06594 0.046868 0.028783 0.037332 0.045882 -0.015609 
-0.0090322 0.084684 0.030427 0.041607 0.018918 0.014808 0.058706 0.0042853 
-0.040764 0.085012 -0.018075 0.043745 0.013328 0.01152 0.055747 0.013821 
-0.044381 0.070051 -0.054575 0.011026 0.025988 0.0227 0.033715 0.027632 
-0.024816 0.079258 -0.094199 0.016288 0.018754 0.0065871 -0.0036066 0.060186 
-0.014129 0.01152 -0.055561 0.026317 0.007738 0.00297 -0.018239 0.10277 
0.01004 0.049828 -0.022021 0.010369 0.0085601 -0.014787 -0.021528 0.1026 
0.076627 0.056569 0.01415 0.023357 0.0013258 -0.032708 -0.0034422 0.1128 
0.097508 0.025988 0.042923 0.028454 0.01267 -0.0054151 -0.030077 0.12891 
0.12497 0.0051074 0.10014 0.0421 0.05772 0.010533 -0.015116 0.18284 
0.15982 0.016616 0.13121 0.030756 0.039799 0.0092177 -0.003771 0.14124 
0.16656 -0.0138 0.13516 0.0087245 0.02829 0.022535 0.011355 0.045882 
0.13483 0.015959 0.083368 -0.0090322 0.0056006 0.029769 0.026152 -0.024323 
0.14091 0.061995 -0.018568 0.023028 0.0047785 0.048677 0.032071 -0.066413 
0.10441 0.048348 -0.027282 0.028125 -0.0021268 0.039634 0.042265 -0.08532 
-0.098638 0.079258 0.0059294 0.033058 0.024837 0.020727 0.037826 -0.077264 
-0.20107 0.071531 0.02122 0.038319 0.0079024 0.013164 0.041114 -0.05326 
-0.12379 0.025988 0.01974 0.012506 0.015794 0.0088889 0.026152 -0.012978 
-0.009361 0.047197 0.047526 0.018754 0.0421 -0.011005 -0.0073881 0.037168 
0.12003 0.038648 0.079258 0.039305 0.037826 0.020891 0.024508 0.12003 
0.11461 0.064954 0.013821 0.041443 0.031907 -0.0054151 -0.0087034 0.034373 
0.11592 0.1031 -0.042901 0.072681 0.020069 0.029276 -0.02794 0.0060938 
0.051965 0.023686 0.0056006 0.082217 0.039634 0.026317 0.036017 0.0072447 
0.035853 -0.028104 0.072024 0.0026412 0.016288 -0.018404 0.026974 -0.022185 
0.053445 -0.016431 0.13269 0.012999 0.0083956 0.020069 0.043251 0.0098754 
0.047855 -0.063124 0.11444 0.015465 0.01415 -0.0040998 0.042594 0.033058 
0.072846 -0.015444 0.080244 -0.014951 0.030592 0.020233 0.036675 0.06035 
0.037497 0.064625 0.0018191 0.022535 0.046046 0.029112 0.021384 0.038977 
0.052294 0.11296 -0.066413 0.028947 0.039799 0.005765 0.038648 0.074654 
0.046704 0.12908 -0.083512 0.0013258 0.0095465 -0.011498 -0.013965 0.076627 
0.08008 0.11724 -0.019884 -0.035174 -0.011498 -0.048492 -0.01939 0.084355 
0.066763 0.05065 0.039799 0.01974 -0.0068948 -0.054904 -0.019719 0.087643 
0.047362 0.0059294 0.15768 0.0041209 -0.013965 -0.037476 -0.021199 0.063639 
0.040621 -0.018568 0.18383 -0.0029489 0.00066819 -0.028269 -0.023829 0.061008 
0.05772 0.00033937 0.11461 0.036017 0.010533 -0.042244 -0.015116 0.0036276 
0.063803 0.040785 0.018589 -0.0016336 0.036675 -0.02235 -0.024323 -0.038133 
0.029112 0.074326 -0.074962 0.045389 0.042265 -0.013143 0.025495 -0.018404 
0.026974 0.045389 -0.033201 0.058542 0.059528 0.03536 0.022864 -0.0004827 
0.040128 0.02829 0.017767 0.027303 0.038155 0.033387 0.059857 0.016616 
0.027303 0.032071 0.047855 0.03092 0.030756 0.07449 0.046375 0.0028056 
0.015959 0.05065 0.03536 0.071695 0.029276 0.059035 0.070544 0.0023123 
0.01826 0.10145 0.033222 0.047691 0.03651 0.036839 0.061666 -0.011334 
0.036182 0.10244 -0.001798 0.058213 0.028125 0.024837 0.062652 -0.017746 
0.045389 0.053774 -0.0022913 0.066434 0.0028056 0.036182 0.05065 0.027796 
0.056569 0.027303 0.023193 0.014972 -0.0067304 -0.00097594 0.058049 0.038648 
0.062323 -0.013636 0.077943 0.027796 0.0051074 -0.010676 0.0095465 0.048019 
0.027303 -0.0026201 0.10376 0.033551 0.030592 0.0072447 0.019905 0.076463 
-0.0032777 0.049664 0.060022 0.007738 0.012999 -0.010676 0.012342 0.072188 
-0.0016336 0.063968 0.037661 0.0092177 0.019247 0.0069159 0.038319 0.030098 
-0.011005 0.060515 0.037661 0.027139 0.036675 -0.0021268 0.017603 -0.0034422 
-0.024487 0.1031 0.012342 0.0016547 0.023522 0.02681 0.044731 0.045553 
-0.011827 0.072846 -0.019884 0.015137 0.026317 0.040456 0.046704 0.033387 
0.0023123 0.088301 -0.033365 0.060679 0.021384 0.013164 0.050486 -0.0072237 
-0.012814 0.10343 -0.010183 0.018425 0.034209 0.045882 0.03536 -0.020048 
-0.028926 0.071695 0.0088889 0.047855 0.073339 0.075641 0.046046 -0.0073881 
0.018096 0.03388 0.039141 0.038483 0.055254 0.030263 0.025495 -0.0062372 
0.01563 0.017603 0.04095 0.018096 0.034373 0.025166 0.055418 0.022371 
0.024837 0.015959 0.028125 0.046211 0.037168 0.0018191 0.044238 0.040456 
0.05772 0.044402 0.016945 0.042429 0.012177 0.0019835 0.040456 0.070873 
0.051801 0.05476 0.01974 0.031414 -0.012485 0.015794 -0.00031829 0.091096 
0.04654 0.0421 0.06479 0.021549 0.019411 0.034537 0.052787 0.082382 
0.021713 0.049335 0.070215 0.024015 0.019576 0.037168 0.0092177 0.075476 
0.046046 0.069229 0.060186 -0.0087034 0.025495 0.066598 0.089945 0.01711 
0.040785 0.064132 -0.011663 0.087314 0.082217 0.02829 0.024015 0.040128 
-0.0064016 0.10096 -0.0062372 0.014643 0.046211 0.064625 0.059528 0.032564 
-0.0019624 0.069722 0.054432 -0.0004827 0.038155 0.062652 0.063145 0.01974 
-0.025802 0.036675 0.11609 0.037826 0.043909 0.093233 0.097672 -0.036325 
-0.044217 0.058542 0.040292 0.030263 0.034866 0.081067 0.10392 -0.039613 
-0.018075 0.039963 0.018589 0.052787 0.029934 0.066927 0.099481 -0.020212 
0.0093821 0.023522 0.032893 0.060022 0.036346 0.038977 0.055089 -0.019226 
0.0092177 0.039799 0.057884 0.037332 0.034866 0.05624 0.033715 -0.011334 
0.026974 -0.010841 0.039799 0.039963 0.032893 0.025824 0.00017495 0.0034632 
0.10178 -0.020541 0.015465 0.041278 0.023686 -0.017582 -0.034188 0.044073 
0.13088 0.015301 0.023851 0.011355 0.038319 -0.045696 -0.052766 0.11346 
0.12546 0.016616 0.042758 0.0227 0.026974 -0.0073881 -0.034516 0.19205 
0.10787 0.02829 0.028619 0.053774 0.034209 0.012177 -0.037311 0.18169 
0.056569 0.075312 -0.0406 0.035031 0.025166 -0.036983 -0.051944 0.088958 
0.013492 0.079258 -0.069701 0.050979 0.025988 -0.033037 -0.054904 -0.013307 
-0.015444 0.06183 -0.030077 0.06479 0.022535 0.033387 0.0083956 -0.010676 
0.016945 0.051143 0.021056 0.0085601 0.018096 0.064461 0.085506 -0.01676 
0.030427 0.025988 0.053938 0.025495 0.011191 0.074326 0.12135 -0.020048 
0.057227 0.045718 0.072846 0.042758 0.034209 0.063968 0.12661 -0.014787 
0.12299 0.037004 0.093069 0.031249 0.033222 0.036675 0.088301 -0.009361 
0.10787 0.02829 0.049828 0.0227 0.034866 0.051965 0.06035 -0.010676 
0.01415 0.060844 -0.027447 0.076956 0.016616 0.029934 0.038812 -0.025309 
-0.024323 0.062652 -0.012485 0.028947 0.01711 0.062488 0.0080668 0.028125 
-0.006566 0.016945 0.030756 0.024179 0.0072447 0.01826 0.016945 0.066269 
-0.0021268 0.022371 0.072353 0.029769 0.026974 -0.0072237 0.025495 0.083862 
-0.0022913 0.022864 0.083204 0.036675 0.025495 -0.0029489 0.0075736 0.07597 
0.01267 0.029441 0.11773 0.029934 0.030263 -0.03501 -0.023665 0.034537 
0.0065871 0.02533 0.092576 0.052787 0.036182 -0.031721 -0.058028 0.015465 
0.032893 0.025824 0.049992 0.033551 0.016452 -0.028926 -0.037805 0.016616 
0.053116 -0.0091966 0.029441 0.040292 0.027468 -0.037969 -0.023665 0.012177 
0.074326 -0.032215 0.067585 0.073997 0.034209 -0.019555 0.017438 0.012999 
0.05772 -0.067892 0.11806 0.054267 0.016945 0.032236 0.031907 0.037168 
0.059857 -0.022843 0.12825 0.042758 0.021713 0.016123 0.030592 0.047855 
0.076956 0.042758 0.037332 0.028454 0.0019835 0.016123 0.030098 0.02829 
0.0689 0.083368 -0.11952 -0.0070593 -0.0011404 0.031578 0.0421 0.050814 
0.04095 0.11214 -0.19679 0.0052718 -0.011663 0.042265 0.033715 0.026974 
0.0047785 0.094548 -0.17098 -0.020377 0.028947 0.055254 0.031414 0.012835 
-0.0054151 0.073339 -0.03205 -0.010183 0.029769 0.037661 0.016616 0.01152 
-0.051451 0.085506 0.037168 0.025495 0.035031 0.0093821 -0.010676 -0.008539 
-0.0072237 0.073832 0.065447 0.034044 0.027139 0.0013258 -0.032708 0.02122 
0.074326 0.020891 0.11691 0.023851 0.011191 0.010862 -0.0087034 -0.042079 
0.030427 0.031085 0.097508 0.05476 0.031907 -0.0064016 0.020727 -0.014787 
0.021056 0.046211 0.096686 0.042265 0.045882 0.020398 0.06035 0.015794 
0.062652 -0.072167 0.11888 0.072188 0.06183 0.016452 0.045553 0.035853 
0.063145 -0.063289 0.17626 0.062488 0.018918 0.031578 0.066598 0.046211 
0.035031 -0.014951 0.1835 0.027468 0.043745 0.031414 0.059528 0.031085 
0.0093821 0.01563 0.10737 -0.0019624 0.033222 0.03651 0.063474 0.03388 
0.039305 0.076627 0.01152 -0.0022913 0.025001 0.061337 0.022371 0.019247 
0.0227 0.1373 -0.073482 -0.0067304 0.021549 0.05065 0.061008 0.020727 
-0.0068948 0.10984 -0.1136 0.0098754 0.026317 0.05772 0.053445 0.031249 
0.027468 0.085012 -0.080388 0.019083 0.0031344 0.057555 0.054596 0.05624 
0.013328 0.067749 -0.040271 0.012999 0.023851 0.062488 0.042758 0.052952 
0.0098754 0.063968 -0.0090322 0.026974 0.026974 0.074983 0.035031 0.075312 
0.011848 0.041278 0.046375 0.036346 0.039141 0.038977 0.032564 0.034537 
0.02829 0.057227 0.019247 0.01826 0.046046 0.045882 0.086163 -0.023829 
0.0072447 0.046046 0.0324 0.041443 0.061501 0.0592 0.054103 -0.010019 
-0.0047575 0.057227 0.042758 0.06479 0.049006 0.030427 0.079587 -0.013471 
-0.00097594 0.043909 0.073832 0.041443 0.039305 0.055911 0.040785 0.0016547 
0.0098754 0.051636 0.06183 0.029934 0.034373 0.062817 0.055582 0.019247 
0.013657 0.039305 0.068078 0.039963 0.029276 0.054267 0.01415 0.054103 
0.040292 0.014479 0.048348 0.018589 0.0034632 0.01826 -0.021856 0.074326 
0.054432 0.01711 0.027468 0.028619 0.0047785 -0.071838 -0.087458 0.085177 
0.04358 0.033222 0.042429 0.054432 0.022371 -0.080552 -0.031228 0.05772 
0.024673 0.04654 0.015794 0.028783 0.045224 -0.021363 -0.012485 0.030756 
0.022206 0.068736 -0.023994 0.010533 0.051636 0.00050378 0.048677 0.0044497 
0.0034632 0.086328 -0.037969 0.05065 0.019905 0.010369 0.057391 -0.013636 
0.013328 0.065776 0.012013 0.0067515 0.0036276 -0.015773 0.083204 -0.017088 
0.038812 0.049335 0.028947 0.020398 0.004943 -0.008539 0.089616 -0.024652 
0.068736 0.078436 -0.0040998 0.054103 0.0227 0.061008 0.13697 -0.021528 
0.024508 0.06594 0.0075736 0.025166 0.015959 0.087314 0.090603 -0.0031133 
0.0067515 0.065447 0.049006 0.024179 0.03092 0.097015 0.10162 0.011191 
0.02122 0.094384 0.058871 0.059035 0.057391 0.08715 0.058706 0.048348 
0.01563 0.056733 0.065118 0.025659 0.043909 0.05624 0.049335 0.086163 
0.049006 0.051143 0.048841 0.0065871 0.014479 0.030427 0.012013 0.12053 
0.070708 0.057227 0.029112 0.027139 0.011848 0.0041209 0.00033937 0.099974 
0.057062 0.04358 0.014972 0.0067515 0.015465 -0.030406 -0.035667 0.096357 
0.027468 0.042265 -0.018404 0.035031 0.02533 0.014479 0.020891 0.060679 
-0.021856 0.054267 0.016616 0.05476 0.049664 0.04917 0.052952 -0.0047575 
0.05476 -0.012978 0.10622 0.037826 0.025001 0.053445 0.07449 -0.064933 
0.061501 0.028454 0.11362 0.038155 0.046868 0.05476 0.01711 -0.043066 
0.072188 0.030756 0.055582 0.048677 0.042923 0.039141 0.050814 -0.048492 
0.073339 0.061337 -0.030242 0.034702 0.024673 -0.0019624 -0.0016336 0.0069159 
0.044567 0.055418 -0.018897 0.074654 0.022042 0.0098754 0.023522 0.065283 
0.022371 0.018096 0.054103 0.030592 0.01711 -0.011498 0.0090533 0.086821 
0.035524 0.010369 0.10474 0.0024767 -0.0034422 -0.029584 0.0041209 0.10458 
0.057062 0.040621 0.066269 0.0034632 0.010204 -0.064275 0.021878 0.088301 
-0.0019624 0.053445 0.049006 -0.0072237 0.0036276 -0.024652 0.030756 0.069393 
-0.021363 0.031414 0.035195 0.010533 0.033715 -0.018897 0.032729 0.019411 
0.037004 0.069558 0.019905 0.038319 0.028783 -0.010019 0.027468 -0.012156 
0.062817 0.067585 0.044073 0.034209 0.041936 -0.017582 -0.0070593 -0.014458 
0.067749 0.031907 0.026152 0.018425 0.027139 0.019247 0.021549 -0.0088678 
0.068242 0.035195 0.02829 0.021549 0.016288 0.014643 0.020727 -0.013143 
0.057062 0.0088889 0.023193 0.0085601 0.028619 0.043251 0.043416 0.0034632 
0.030427 0.028125 0.031414 0.017274 0.019083 0.036017 0.038483 0.031249 
0.015794 0.059693 0.047033 0.030263 0.016123 0.034373 0.045718 0.051636 
0.01415 0.027303 0.051143 0.031249 0.028783 0.045389 0.039634 0.070708 
0.0088889 0.04654 0.0421 0.013821 0.02122 0.015794 0.024179 0.09833 
0.0090533 0.065612 0.031249 0.043251 0.038812 0.017767 0.02122 0.060679 
0.020562 0.046046 0.055582 0.025001 0.053774 0.084026 0.03799 0.035688 
0.023851 0.055254 0.084848 0.018425 0.060186 0.089123 0.054432 -0.010512 
0.019905 0.044896 0.08156 0.042265 0.046211 0.07038 0.053445 -0.020048 
0.053281 0.014808 0.071531 0.038648 0.027139 0.023851 0.047691 0.0095465 
0.070051 0.037661 0.071202 0.02122 0.022864 -0.0095255 0.023357 0.029112 
0.065612 0.036182 0.077943 0.02829 0.0011614 0.0070803 0.025988 0.042923 
0.033387 0.034209 0.082711 0.014315 0.015137 -0.0042642 0.004943 0.078436 
0.034373 0.041772 0.086328 0.01152 0.029605 0.012342 0.038483 0.078107 
0.023686 0.0032988 0.074983 0.059528 0.055089 0.051965 0.038812 0.038483 
0.029441 0.011684 0.012013 0.0067515 0.04917 0.079422 0.041607 -0.010183 
0.014808 0.050321 -0.068714 0.034209 0.050321 0.092082 0.032236 -0.04882 
0.033387 0.054596 -0.12988 0.070544 0.04917 0.058377 0.0093821 -0.064604 
0.0092177 0.063968 -0.13563 0.05065 0.03388 0.034702 -0.010019 -0.025309 
0.018589 0.076299 -0.074304 0.052952 0.028619 0.025824 0.015465 0.0083956 
0.038977 0.032236 0.040456 0.05476 0.0088889 -0.0014692 -0.020541 0.034209 
0.010204 0.032236 0.099645 0.012013 0.0095465 0.029605 -0.0095255 0.092247 
0.01563 0.072024 0.066927 0.014315 0.0036276 0.029441 0.0028056 0.1202 
0.032564 0.051472 0.043416 0.061337 0.039305 -0.0026201 0.057227 0.10096 
0.019247 0.053938 0.067913 0.031907 0.058377 0.013492 0.063639 0.061666 
-0.00097594 0.098823 0.069229 0.0095465 0.033058 -0.012485 0.071695 0.030427 
0.011191 0.11378 0.041278 0.034209 -0.0049219 0.0018191 0.086492 -0.066248 
0.031249 0.049664 -0.0036066 -0.014951 0.0079024 0.027961 0.060022 -0.03057 
0.03651 0.053774 0.009711 -0.0138 0.012177 -0.025474 0.053609 0.024344 
0.035524 0.029934 0.028619 0.025166 0.0037921 -0.0044286 0.04506 0.01711 
0.044073 0.06594 -0.014458 0.03651 -0.0004827 0.014643 -0.004593 0.029112 
0.025001 0.069393 0.0067515 0.047197 0.031249 0.038977 0.031742 0.005765 
-0.0098543 0.060844 0.014808 0.04095 0.038977 0.091589 0.048348 -0.012485 
-0.011663 0.061501 0.053445 0.027303 0.053774 0.071695 0.075148 0.021549 
0.00050378 0.079916 0.0070803 0.042265 0.051965 0.086985 0.058213 -0.0067304 
0.005765 0.032236 -0.020706 0.075641 0.047362 0.091096 0.033222 0.0014903 
0.016288 0.020233 0.0090533 0.047691 0.029605 0.017603 -0.0050863 0.027961 
0.029605 0.0060938 0.082053 0.017603 0.0092177 0.019247 -0.0073881 0.036182 
0.01974 -0.015773 0.089452 0.00050378 0.011684 -0.00064712 0.013492 0.036675 
-0.0052507 0.032236 0.034373 0.020398 0.0083956 0.025166 0.084848 0.03092 
0.011026 0.03947 -0.0072237 0.030098 0.0036276 0.055747 0.06742 0.071366 
0.068242 0.068407 -0.029255 0.030263 0.025824 0.0074092 0.079587 0.062159 
-0.00064712 0.096357 -0.027447 0.021549 0.053609 0.0044497 0.045553 0.060679 
-0.027447 0.092904 -0.014787 0.038155 0.046375 -0.0080457 0.024344 0.03388 
-0.03205 0.082875 -0.022514 0.03651 0.039305 -0.042408 -0.031392 0.015959 
-0.023501 0.078436 0.0031344 0.0080668 -0.00064712 -0.075949 0.029112 0.035688 
0.0079024 0.031249 0.054103 0.013821 -0.0075525 -0.037311 0.027796 0.023851 
0.046211 0.04506 0.091096 -0.0060728 0.012177 -0.0026201 0.042265 0.026152 
0.070544 0.044731 0.082546 0.019411 0.021384 0.026974 -0.00097594 0.03799 
0.089945 0.028454 0.052459 0.038812 0.031742 0.031742 -0.0059084 0.025001 
0.20027 0.004943 -0.022021 0.031085 0.027632 0.012506 -0.033694 0.044238 
0.29678 0.0044497 -0.056219 0.03799 0.024344 0.021878 -0.0073881 0.04654 
0.24811 -0.052437 -0.0049219 0.054267 0.024179 0.010533 -0.052602 0.042758 
0.10852 -0.019061 0.078765 0.032071 0.026152 0.025001 -0.032543 0.038977 
-0.064933 0.037332 0.13516 0.031414 0.037826 0.026317 -0.028104 0.013821 
-0.16177 0.053281 0.15916 0.05213 0.03388 -0.019226 0.02681 -0.028926 
-0.1741 0.070051 0.12365 0.01826 0.0016547 -0.0019624 0.034702 -0.040764 
-0.097651 0.076792 0.041772 0.01711 0.027468 0.0018191 0.066105 0.034044 
0.022042 0.045882 0.03651 0.049335 0.029934 -0.023994 0.053938 0.093562 
0.093233 0.018425 0.071531 0.019576 0.011355 -0.0064016 0.090438 0.10063 
0.13105 0.020398 0.047362 0.010204 0.016452 -0.0091966 0.074819 0.081724 
0.027303 0.027632 -0.009361 0.023686 0.037661 0.014972 0.090438 0.053609 
-0.077922 0.053774 -0.020541 0.0019835 0.025495 0.029605 0.052294 0.035524 
-0.038133 0.081889 -0.01117 0.020891 0.042265 0.0065871 0.03947 0.061995 
0.069722 0.054925 0.00083261 0.050979 0.037497 0.020398 -0.0034422 0.066598 
0.1784 0.058213 0.063145 -0.0064016 -0.0064016 -0.012649 0.0088889 0.026646 
0.12365 0.028947 0.090438 0.0324 0.062817 0.042923 -0.013965 -0.0011404 
0.10474 0.011355 0.092082 0.063474 0.01267 0.041278 -0.010841 0.022206 
0.054267 0.029112 0.090603 0.068078 0.0090533 0.0013258 -0.0070593 0.032729 
0.0083956 0.0013258 0.12151 0.053116 0.044073 0.0098754 0.013164 -0.00097594 
-0.01528 -0.022679 0.1276 0.024837 0.037826 0.040128 0.0036276 0.013657 
0.019411 0.0083956 0.077778 0.030756 0.013328 0.0080668 0.024015 0.025659 
0.024015 0.031085 0.023028 0.029441 0.030263 0.040456 0.045882 0.004943 
-0.017253 0.052294 -0.014129 0.062652 0.027139 0.026317 0.065612 0.017932 
-0.044052 0.093562 -0.018897 0.01711 0.03388 0.029112 0.059857 -0.010183 
-0.014951 0.090931 -0.033859 0.016945 0.029276 0.038977 0.028783 0.0088889 
0.013492 0.08567 -0.045696 0.045718 0.025988 0.024015 0.032564 0.034044 
0.04654 0.076134 -0.056548 0.029276 0.049006 0.026974 0.028125 0.064625 
0.075476 0.028125 -0.033859 0.023357 0.039141 0.043416 0.020562 0.061008 
0.10787 0.0095465 0.013164 0.04654 0.026317 0.029769 0.015301 0.049992 
0.10704 0.029112 0.074326 0.033715 0.034537 0.033387 0.033551 0.03651 
0.076299 0.029934 0.07301 0.021056 0.034702 0.027632 0.038483 0.025001 
0.053609 0.040621 0.08863 0.020891 0.043416 0.014479 0.055254 0.025988 
-0.0067304 0.056733 0.086328 0.0093821 0.031085 0.061666 0.047691 0.042923 
-0.03057 0.071859 0.062817 0.043745 0.028619 0.049006 0.043416 0.073504 
0.021384 0.06594 0.042429 0.025988 0.024508 0.035524 0.055089 0.060186 
0.072188 0.086163 0.023851 0.029441 0.046211 0.056569 0.063968 0.041443 
0.08978 0.050814 0.047855 0.08008 0.038977 0.086328 0.067091 0.021713 
0.036017 0.052294 0.051965 0.049992 0.053116 0.099645 0.071859 0.012835 
-0.054082 0.066763 0.014808 0.031249 0.040456 0.076134 0.073339 0.013328 
-0.078415 0.054432 -0.025802 0.03947 0.034702 0.066434 0.068571 -0.0075525 
-0.050464 0.050321 -0.043888 0.014808 0.041114 0.0592 0.034866 0.029441 
-0.011334 0.025495 -0.020212 0.016452 0.012342 0.024508 0.0421 0.029934 
-0.023172 0.043745 -0.0049219 0.027632 0.027632 0.045718 0.053938 0.019411 
0.012177 0.072681 0.01711 0.021713 0.0324 0.04654 0.073504 0.012835 
0.034373 0.085999 -0.044874 0.024344 0.054925 0.056898 0.050486 -0.0026201 
0.04095 0.10014 -0.063124 0.046211 0.053445 0.055254 0.050157 0.024673 
0.027139 0.095206 -0.020212 0.019576 0.040128 0.043745 0.030592 0.042758 
0.046046 0.071531 0.012835 -0.018239 0.019247 0.044731 0.021056 0.050157 
0.049664 0.076134 0.037661 0.028947 0.015465 0.062817 0.015465 0.020891 
0.0324 0.10195 0.047526 0.013164 0.025659 0.053445 0.038483 0.00297 
0.016945 0.081395 0.038155 0.0031344 0.020398 0.038319 0.035688 -0.004593 
0.031414 0.080409 0.038648 0.03536 0.027468 0.028619 0.060022 -0.008539 
0.03947 0.07038 0.027468 0.044731 0.039634 -0.015938 0.043251 0.0014903 
0.037826 0.041772 0.068242 0.033387 0.050321 0.0054362 0.04917 0.0037921 
0.073504 0.0072447 0.13434 0.02829 0.070873 0.0090533 0.023522 0.020398 
0.069393 0.043251 0.058706 0.0042853 0.02533 -0.0138 0.01152 0.059035 
0.0324 0.0034632 0.017438 0.014808 0.021384 0.01415 0.017932 0.038812 
0.073668 0.0090533 -0.0031133 0.059364 0.053116 0.037004 0.020891 0.055582 
0.060186 0.052952 0.028125 0.036839 0.014315 0.029769 0.0075736 0.037168 
0.033387 0.034044 0.039305 0.013164 -0.021363 0.0026412 0.0014903 0.02533 
0.048348 0.0026412 0.053609 0.059364 0.021056 0.0065871 0.00083261 0.038483 
0.058706 0.020562 0.036017 0.046046 0.045389 0.039141 0.01974 0.031249 
0.033222 0.037826 0.026974 0.066269 0.076792 0.038319 -0.0021268 0.040128 
0.0093821 0.082053 0.023522 0.072846 0.060844 0.023686 0.03388 0.037004 
-0.009361 0.069393 0.02681 0.022206 0.013986 0.015794 0.013492 0.071366 
0.0041209 0.033222 -0.00097594 0.015301 0.0014903 0.0037921 0.027961 0.05213 
-0.020048 0.027139 0.01267 0.047362 -0.0047575 0.0060938 -0.017253 0.087479 
0.0056006 0.014643 0.063474 0.038319 0.0088889 -0.0011404 0.019905 0.074161 
0.066763 -0.012649 0.080902 0.01415 -0.006566 -0.016102 0.01711 0.057884 
0.076956 0.015959 0.060022 0.0042853 -0.0016336 0.037826 0.056733 -0.010512 
0.044402 0.029112 0.070544 -0.015773 0.01974 0.035031 0.0095465 -0.045861 
-0.022021 0.061337 0.070708 0.020069 0.012506 0.023686 0.043251 -0.04323 
-0.0039354 0.064296 0.06331 0.033715 0.027468 -0.0087034 0.044238 -0.02087 
-0.0072237 0.068078 0.067585 0.041936 0.01974 -0.033037 0.04506 0.0014903 
-0.013636 0.054925 0.044567 0.02829 0.0093821 -0.051122 0.021713 0.038812 
0.021878 0.059528 0.030427 0.042594 0.021878 -0.05178 0.01004 0.051636 
0.0080668 0.023193 0.039634 0.037497 0.034702 -0.050958 0.030427 0.055254 
0.033715 0.019083 0.026481 0.049006 0.041936 0.021056 0.033058 0.049992 
0.064461 0.027468 0.03388 0.065118 0.020069 0.010862 0.020727 0.071859 
0.089123 0.018096 0.074654 0.033715 0.033387 0.01415 0.025495 0.067913 
0.066105 0.018754 0.092576 0.029769 0.041936 0.013986 0.015301 0.061995 
0.037826 0.03651 0.078436 0.024508 0.02533 0.0064227 0.029276 0.057062 
0.034702 0.032236 0.05213 0.013821 0.024508 -0.0095255 0.0019835 -0.0054151 
0.036346 0.031907 0.0060938 0.029605 0.018589 0.014808 -0.026296 -0.0055795 
0.035031 0.048348 -0.0039354 0.024179 0.013821 -0.012978 -0.028762 -0.022185 
0.039963 0.022864 0.024344 0.020562 0.012506 0.018425 0.03947 -0.013143 
0.015301 0.023357 0.07038 0.0227 0.020233 0.041114 0.064461 0.023851 
-0.016266 0.050814 0.095042 -0.0047575 -0.013307 0.030592 0.075312 0.023686 
-0.00081153 0.056898 0.066927 0.0028056 0.031742 0.051308 0.070051 0.0052718 
0.0083956 0.079258 -0.029584 0.024837 0.042265 0.032236 0.056076 -0.0011404 
0.014479 0.08715 -0.11886 0.044073 0.037826 0.0088889 0.033715 0.021878 
0.026646 0.051965 -0.094692 0.060515 0.035195 0.012342 0.024344 0.056404 
0.077778 0.014479 0.0083956 0.049664 0.023357 -0.0067304 -0.0027845 0.07597 
0.068407 -0.019061 0.13565 -0.0077169 0.0072447 -0.012156 0.018918 0.06183 
0.057227 -0.021363 0.15374 0.025495 0.019576 -0.020377 0.048348 0.024673 
0.016781 0.032071 0.14716 0.044402 0.020398 0.010862 0.012506 0.052623 
0.04095 0.01711 0.030427 0.054432 0.062323 0.050321 -0.0014692 0.048513 
-0.0078813 0.056569 -0.0016336 0.029934 0.077285 0.046704 0.012177 0.050486 
0.0060938 0.046046 0.02122 0.017603 0.033387 0.026317 -0.0090322 0.087972 
0.052294 0.0087245 0.047197 -0.0050863 0.018096 0.034537 0.035853 0.079094 
0.030263 0.017767 0.032236 0.0046141 0.024673 -0.0052507 0.0074092 0.025824 
0.028619 0.079587 -0.010019 0.026152 0.02122 -0.0024557 -0.0077169 -0.019061 
0.072353 0.093891 -0.023665 0.022206 0.020562 0.0036276 0.035524 -0.040106 
0.11888 0.10967 -0.038791 0.038977 0.034537 0.033551 0.049006 -0.0059084 
0.099481 0.13434 -0.024487 0.062817 0.023851 0.068407 0.10195 0.014479 
0.028947 0.065776 -0.0070593 0.027139 0.031742 0.047855 0.091425 0.072681 
0.016945 0.059035 0.011355 0.016288 0.048184 0.015465 0.067256 0.12464 
-0.02235 0.040128 0.047033 0.037661 0.024015 0.025495 0.051965 0.09422 
-0.0090322 -0.0024557 0.082546 0.01415 0.010697 0.025495 0.047033 0.026152 
-0.004593 0.020069 0.033222 0.039305 0.016123 0.029605 0.025001 0.0059294 
-0.00064712 0.068407 0.024508 0.072353 0.0227 0.027961 0.013328 0.0056006 
-0.011827 0.049828 0.040456 0.041772 0.047362 0.054925 0.0037921 -0.030735 
0.016123 0.027961 0.10293 0.02829 0.059528 0.077614 0.040456 -0.063946 
0.036839 0.05213 0.095699 0.055254 0.066598 0.076627 0.034866 -0.087786 
0.054103 0.0095465 0.062817 0.007738 0.033387 0.049335 0.027796 -0.0026201 
0.083697 0.0052718 0.043251 0.024673 0.023028 0.042429 0.01826 0.045389 
0.13302 0.026974 0.00083261 0.043909 0.025824 0.034537 0.030263 0.040621 
0.1881 0.013657 -0.0052507 0.023686 0.0090533 0.041443 0.034702 0.039963 
0.16311 0.013986 0.047691 0.029276 -0.006566 -0.035174 0.0324 0.090438 
0.11 0.019247 0.024508 0.041114 0.0069159 0.0032988 0.046704 0.077943 
0.042923 0.046046 0.0227 0.031907 0.0019835 0.050979 0.068571 0.036182 
-0.049807 0.088465 0.02681 0.045718 0.03651 0.037826 0.065776 -0.018404 
-0.052437 0.082711 0.029112 0.056569 0.035031 0.022371 0.059528 -0.030406 
-0.035667 0.063145 -0.013471 0.029769 0.022535 0.0095465 0.014972 -0.01528 
-0.045696 0.074983 -0.019226 0.038648 0.040785 -0.028762 0.025166 0.037168 
-0.03501 0.076299 -0.0014692 0.037661 0.037497 -0.011992 0.0065871 0.036017 
-0.0098543 0.052787 0.031414 0.020562 0.020727 0.019247 0.025988 0.035688 
-0.0042642 0.069393 -0.0029489 0.015137 0.016781 0.065447 0.043416 0.007738 
0.013657 0.0324 -0.01117 0.023357 0.0227 0.093069 0.062159 0.020891 
0.04654 0.0028056 0.040128 0.014315 0.018754 0.05065 0.043745 0.020727 
0.08419 0.025988 0.062159 0.015137 0.007738 -0.0011404 0.0060938 0.048184 
0.080244 0.025824 0.04358 0.029112 0.00050378 -0.052109 -0.073811 0.068736 
0.047691 0.04358 0.028125 0.038319 0.014972 -0.080059 -0.074304 0.027468 
0.053938 0.077285 0.0024767 0.06479 0.048841 -0.035996 -0.04619 0.0067515 
0.012835 0.014479 -0.0091966 0.1026 0.12053 -0.061809 0.036346 -0.018404 
0.031578 0.015301 0.03651 0.070708 0.042923 0.03388 0.066434 1.0539e-005 
-0.0040998 0.0074092 0.081724 0.046375 -0.012485 0.060515 0.14831 0.010533 
0.046211 -0.010348 0.16097 0.030756 0.0083956 0.058871 0.10655 -0.0090322 
0.022042 0.023522 0.14404 0.01267 0.0034632 0.050321 0.082053 0.0059294 
0.013328 0.073339 0.067256 0.0082312 0.014315 0.004943 0.056569 -0.0059084 
0.014643 0.079587 -0.014458 0.016781 0.0098754 0.0095465 0.044896 0.015465 
-0.0034422 0.09833 -0.013636 0.017767 0.048841 0.04358 0.031414 0.019247 
0.0013258 0.095042 -0.065591 0.035195 0.041114 0.05476 0.020562 0.0098754 
0.015959 0.077614 -0.080059 0.03651 0.037332 0.0062583 0.010697 0.027468 
0.030427 0.062817 -0.018404 0.025166 0.023522 0.013657 0.047033 0.047855 
0.0059294 0.085177 0.023193 0.039963 0.01267 -0.025638 0.018754 0.029769 
0.01415 0.064132 0.061995 0.0051074 0.019576 -0.0055795 0.041443 0.048677 
0.0065871 0.056076 0.056898 0.025495 0.028619 0.0083956 0.016945 0.048677 
0.016616 0.034537 0.061337 0.069722 0.028619 0.0075736 0.035688 0.07449 
0.023851 0.012506 0.04506 0.030756 0.0227 0.017603 -0.0029489 0.076792 
0.038648 0.037661 0.030756 0.01711 0.0019835 0.0028056 0.014972 0.092247 
0.048019 0.037826 0.032071 0.02122 -0.0060728 -0.014129 -0.0070593 0.082711 
0.028947 0.051965 0.024673 0.010204 0.038319 0.013657 0.031907 0.052952 
-0.012978 0.071202 0.016288 0.017274 0.042923 -0.0004827 0.013164 0.04358 
0.00297 0.063803 0.0019835 0.043416 0.025659 0.029605 0.04358 0.029934 
0.0075736 0.042594 -0.0031133 0.016288 0.023028 0.057062 0.03799 0.021056 
0.011355 0.052459 0.044567 0.019411 0.028454 0.03799 0.051308 0.049992 
