0.031578 0.077943 -0.017417 0.033715 0.068571 0.017438 -0.02235 0.00017495 
0.013657 0.093562 0.0023123 0.10113 0.096686 0.018589 -0.028104 -0.091075 
-0.0024557 0.042923 -0.008539 0.1026 0.10228 0.033551 -0.03353 -0.093705 
0.097179 -0.022514 0.0087245 0.049992 0.06479 -0.015773 -0.078744 -0.0077169 
0.14815 -0.012649 -0.009361 0.08978 0.051143 -0.14632 -0.072332 0.049499 
0.1391 0.04506 0.018918 0.074326 0.021384 -0.12988 -0.0042642 0.063803 
0.070708 0.08863 0.011191 0.0016547 -0.029091 -0.026296 0.051636 0.051143 
-0.0019624 0.12562 0.030098 -0.023007 -0.042408 0.083204 0.089452 0.029112 
-0.10998 0.16114 0.01415 0.024508 0.016945 0.15407 0.10524 0.024344 
-0.11311 0.065118 0.037332 0.041936 0.036182 0.13384 0.10096 0.010369 
0.013821 -0.018404 0.025495 0.03092 0.0098754 0.077614 0.047691 0.048019 
0.1784 -0.077264 0.095535 -0.011663 -0.019719 0.00017495 -0.023336 0.11378 
0.23101 -0.10291 0.10129 -0.027611 -0.0060728 0.0018191 -0.080552 0.10408 
0.16442 -0.034681 0.093726 0.028125 0.01711 0.03092 -0.044217 0.080902 
0.072353 0.062652 -0.038462 0.048019 0.042594 0.079587 0.027796 0.019576 
0.0023123 0.12431 -0.049971 0.054103 0.065283 0.078436 0.0786 -0.041586 
-0.01528 0.12513 -0.026131 0.059693 0.089616 0.072024 0.071202 -0.065755 
-0.049642 0.1031 0.050486 0.058213 0.043416 0.052623 0.021384 -0.068057 
-0.033037 0.097344 0.023028 0.015959 0.014643 0.050979 0.01004 -0.032543 
0.054925 0.072517 0.05772 -0.0080457 0.0044497 0.040456 0.058542 0.023028 
0.12299 -0.001798 0.091425 -0.034681 0.0016547 0.031085 0.086985 0.05213 
0.081395 -0.02235 0.13598 -0.0013048 0.033551 0.020233 0.099645 0.016288 
0.0037921 -0.043559 0.085999 0.033387 0.093562 0.019247 0.050814 -0.012485 
0.017932 -0.049642 0.042429 0.064625 0.10754 0.027468 0.0095465 -0.031721 
0.047033 0.066434 -0.031886 0.089287 0.04917 -0.045861 -0.027611 -0.018733 
0.043087 0.16015 -0.043724 0.11033 0.031249 -0.03616 -0.038791 0.040785 
0.044731 0.12365 -0.044546 0.082382 0.047033 -0.044052 -0.045368 0.077778 
0.066763 0.06479 -0.017088 0.039634 0.047362 -0.038956 -0.050629 0.11543 
0.020727 0.051143 0.049664 0.0052718 0.036346 -0.048327 -0.10308 0.10885 
0.0098754 0.047855 0.079422 0.028125 0.032236 -0.085649 -0.12593 0.1128 
0.0026412 0.016452 0.047855 -0.0070593 0.025001 -0.039613 -0.065426 0.084026 
-0.0075525 -0.00064712 0.049006 -0.003771 -0.016102 0.037168 0.03092 0.058871 
-0.011334 0.01152 0.032564 -0.023172 -0.026953 0.032893 0.053609 0.028619 
0.032893 0.037661 0.065612 -0.0070593 -0.033365 0.0093821 0.035688 -0.0050863 
0.075148 0.084684 0.028783 -0.031064 -0.020048 0.01267 0.062817 -0.024652 
0.059857 0.078929 0.0052718 -0.0088678 -0.012485 0.028619 0.10491 -0.086471 
-0.011005 0.08715 -0.025638 0.018096 -0.0011404 0.0689 0.1179 -0.059836 
-0.030899 0.081395 0.007738 0.057062 0.036017 0.071859 0.10425 -0.025309 
-0.057534 0.13795 -0.068386 0.0011614 0.077285 0.031249 0.081724 0.0018191 
-0.10653 0.094384 -0.00097594 0.042758 0.06035 0.025659 0.070051 -0.031228 
-0.10225 0.03947 0.05213 0.042758 0.025001 -0.0021268 -0.0052507 -0.021034 
-0.070194 -0.0029489 0.15505 0.02122 0.035195 0.030098 -0.014293 -0.034516 
-0.037147 -0.014129 0.1345 -0.013307 0.025495 0.042265 -0.025145 0.013492 
0.11346 0.00066819 0.17199 -0.0070593 0.029934 0.048348 -0.030735 0.10326 
0.22312 -0.023994 0.10228 0.016945 0.048841 0.042758 0.023522 0.15505 
0.27935 -0.14434 0.064625 0.0095465 0.029605 0.033715 0.046868 0.1687 
0.30303 -0.15684 0.052294 -0.010841 0.011848 0.019411 0.085835 0.11395 
0.19862 -0.072003 -0.033037 0.048348 0.036346 0.069558 0.12053 0.067913 
0.039963 0.019411 -0.11228 0.09422 0.11395 0.10672 0.11987 -0.029748 
-0.07562 0.072353 -0.0771 0.11757 0.10228 0.12316 0.10178 -0.056219 
-0.1182 0.14141 -0.031064 0.059857 0.063803 0.085835 0.037004 0.0042853 
-0.10949 0.14617 0.060844 -0.0022913 0.028783 0.034209 0.016616 0.037332 
-0.11343 0.069722 0.093891 -0.024652 0.025495 -0.0011404 0.0074092 0.057884 
-0.071345 0.051143 0.03651 0.032729 -0.027447 -0.030735 -0.027447 0.085012 
-0.058028 0.062488 -0.076277 0.03092 -0.032543 -0.00064712 -0.0022913 0.099316 
-0.041751 0.086985 -0.062796 0.036346 0.0039565 0.024508 0.030263 0.04917 
0.036675 0.057391 0.021713 0.035688 0.015301 0.042429 0.018425 0.022371 
0.077121 0.065447 0.10293 0.052952 0.0074092 0.018425 0.0044497 -0.011827 
0.061008 0.00017495 0.10359 0.025988 -0.0021268 0.014315 -0.0034422 -0.0087034 
0.048677 -0.033365 0.11411 0.00050378 0.012342 0.010533 0.032893 0.021878 
0.049006 -0.02794 0.13154 -0.034023 -0.023501 0.032729 0.084355 -0.0098543 
0.027632 0.018589 0.16393 0.0036276 -0.0059084 0.068078 0.090931 -0.0064016 
-0.01117 0.058706 0.065118 -0.0060728 0.034373 0.068407 0.065447 0.042923 
-0.0052507 0.023028 -0.0062372 0.035524 0.078436 0.065118 0.067913 0.0052718 
0.046375 -0.046025 -0.0068948 0.044731 0.065612 -0.011334 0.047033 -0.081868 
0.084684 -0.056548 0.069064 0.067585 0.067913 -0.027611 -0.012649 -0.071016 
0.11362 -0.012978 0.058049 0.06742 0.096357 -0.0090322 -0.03353 0.0227 
0.14354 0.043087 0.007738 0.080244 0.064461 0.093891 0.019247 0.11148 
0.1225 0.11724 -0.037147 0.073668 0.028454 0.13779 0.086163 0.14798 
0.06183 0.20421 -0.063453 0.081231 0.024673 0.13351 0.10885 0.11905 
0.045718 0.17807 -0.059178 0.038648 0.025659 0.1031 0.11609 0.15374 
0.017932 0.13171 -0.0138 -0.0021268 -0.013636 0.073175 0.12776 0.14765 
-0.078579 0.11921 0.0062583 -0.0052507 0.017932 0.015959 0.093233 0.095042 
-0.12774 0.094877 0.054432 0.0062583 0.011848 -0.072989 0.025988 -0.01232 
-0.08828 0.069229 0.074326 -0.028926 -0.01528 -0.13349 -0.03912 -0.051287 
0.060844 -0.018239 0.14272 -0.046847 -0.02794 -0.1182 -0.095185 0.010533 
0.19385 -0.060823 0.15801 -0.041751 -0.025802 -0.051944 -0.12083 0.10507 
0.19287 -0.036654 0.098659 0.047855 0.010697 -0.0088678 -0.11311 0.16837 
0.11165 0.069558 0.055089 0.085177 0.017932 -0.048163 -0.12429 0.10704 
-0.086636 0.022535 -0.012156 0.073504 0.026317 -0.1039 -0.077428 -0.033859 
-0.12642 0.054925 -0.034845 0.083862 0.074326 -0.054246 0.0032988 -0.076771 
-0.11459 0.080244 -0.11524 0.13927 0.085835 0.0079024 0.077614 -0.091732 
0.047526 0.098659 -0.059836 0.10688 0.049992 -0.048163 0.079751 -0.032379 
0.097344 0.1105 -0.0503 0.095371 0.038977 -0.11705 0.063474 0.015301 
0.062159 0.04095 0.0056006 0.03536 0.012835 -0.023172 0.097672 0.023686 
0.099316 -0.0072237 0.076792 0.035853 0.061666 0.13795 0.098823 0.023357 
0.039799 -0.0070593 0.094055 0.021056 0.092247 0.20471 0.093562 0.010862 
-0.018404 0.03947 0.041278 0.0032988 0.048841 0.14881 0.094055 -0.028597 
0.037497 0.096357 -0.022679 -0.017911 0.026646 0.053445 0.02681 0.031907 
0.090109 0.15259 -0.018897 -0.014787 -0.027447 0.013492 0.0019835 0.063968 
0.057062 0.16492 0.0042853 -0.011992 -0.027611 -0.019555 -0.003771 0.090274 
-0.037969 0.20076 0.022371 -0.029913 -0.013965 0.015301 -0.02498 0.081067 
-0.11771 0.21391 0.01974 -0.01232 0.019247 0.010204 -0.012485 0.049664 
-0.09239 0.18333 0.043416 0.043416 0.010369 -0.01676 0.011026 0.012506 
-0.043724 0.065612 0.047033 0.015794 0.021549 -0.037311 0.022864 0.010204 
0.017438 -0.014129 0.0324 0.031578 0.040621 -0.021692 0.0064227 -0.0077169 
0.06594 -0.09387 0.063803 0.024837 0.046211 -0.024816 0.024015 -0.027775 
0.10408 -0.083676 0.089287 0.082711 0.058213 -0.030899 0.011191 0.0080668 
0.10655 0.00017495 -0.014951 0.094384 0.067091 0.0039565 0.032729 0.044238 
0.12529 0.030263 -0.046025 0.10047 0.090931 -0.023007 -0.0088678 0.044896 
0.10688 0.0046141 -0.024652 0.051143 0.047526 -0.029255 -0.043559 0.053281 
0.086328 -0.029255 0.048184 0.027961 -0.0088678 -0.022021 -0.00015387 0.013328 
0.059035 0.013821 0.059693 -0.02235 -0.011663 0.037004 0.047362 -0.036654 
0.049006 0.066269 0.016452 -0.021692 0.0056006 0.08863 0.080573 -0.066906 
0.062159 0.095206 -0.0138 -0.010841 0.0046141 0.087479 0.061337 -0.013143 
0.03947 0.061501 -0.011827 -0.0040998 -0.0098543 0.03947 0.045224 0.045224 
-0.010676 0.062323 0.042429 0.0026412 0.022864 -0.0042642 0.019411 0.068242 
-0.038462 0.071037 0.040621 0.041278 0.040456 0.037168 0.016781 0.048019 
0.0087245 0.067091 0.028454 0.052952 0.071695 0.0786 0.08156 0.024344 
0.042429 0.03092 0.060679 0.079916 0.088958 0.14371 0.14552 0.033222 
0.033551 0.0064227 0.036182 0.063474 0.077778 0.14733 0.10277 0.014315 
0.058377 -0.0016336 0.035031 0.037661 0.032729 0.10491 0.039963 0.066105 
0.069558 0.0024767 0.016616 0.045718 0.029276 0.064296 0.0074092 0.08567 
0.065612 0.045553 0.038977 0.059693 0.0324 0.034044 -0.021692 0.082711 
0.034866 0.048348 0.027303 0.037332 -0.01117 0.01267 -0.028104 0.063145 
0.0039565 0.051965 0.029934 -0.0096899 -0.034352 -0.021692 -0.051615 0.080902 
-0.022514 0.061172 0.030098 -0.056712 -0.045039 0.018589 -0.053588 0.08304 
-0.016431 0.079587 0.053609 -0.076771 -0.044874 0.04095 -0.028762 0.047526 
0.011191 0.079587 0.022042 -0.042901 -0.030735 0.021878 0.020069 0.04917 
0.071695 0.029605 0.011848 -0.016102 0.017274 -0.023007 0.058213 0.014643 
0.14552 0.013986 0.071695 -0.0080457 0.065283 0.042758 0.055911 -0.0077169 
0.18876 -0.038298 0.071531 0.0021479 0.11625 0.055747 0.090767 -0.06707 
0.11346 -0.026624 0.078107 0.050979 0.066269 0.054925 0.077943 -0.077593 
0.04358 0.016616 0.031742 0.058213 0.042429 0.015137 0.066598 -0.06 
0.023357 0.081889 0.026317 0.062981 0.022535 0.027632 0.06035 0.0031344 
0.01711 0.061666 0.018754 0.073832 0.0080668 0.033551 0.067256 0.016452 
0.049335 0.083697 0.0013258 0.031414 -0.036325 -0.0090322 0.063968 0.016945 
0.034209 0.048184 0.0041209 0.0028056 -0.034023 -0.023501 0.10606 0.071531 
0.030427 0.03388 0.048677 -0.0072237 0.016452 0.029112 0.082217 0.1733 
0.011684 0.060022 0.060679 0.030098 0.0074092 0.080573 0.014972 0.27261 
-0.0055795 0.069393 0.029112 0.046704 0.053116 0.12727 -0.039942 0.18185 
-0.090088 0.11855 0.0093821 0.041114 0.087972 0.14733 0.016123 0.079094 
-0.12856 0.14141 -0.00097594 0.056569 0.078929 0.12743 0.063639 -0.03353 
-0.059672 0.074326 0.026152 0.071531 0.070215 0.087314 0.064954 -0.14418 
0.054925 -0.025802 0.041114 0.058542 0.061995 0.073175 0.082546 -0.17164 
0.12562 -0.079895 0.029441 0.013328 0.051965 0.077285 0.1276 -0.18052 
0.10869 -0.022679 0.068242 -0.0075525 -0.006566 0.030592 0.10458 -0.16292 
0.089452 0.022206 0.078272 -0.01528 -0.041586 -0.016102 0.038483 -0.092226 
0.057884 0.053609 0.058377 -0.0024557 -0.033694 -0.090253 -0.020212 0.025001 
0.083697 0.079422 0.047033 0.014315 0.0014903 -0.13612 -0.075949 0.089123 
0.096193 0.076956 0.047033 0.010862 0.022371 -0.14993 -0.11491 0.18925 
0.011684 0.071531 0.024344 0.063145 0.034044 -0.14171 -0.13941 0.23315 
-0.053753 0.043909 0.04506 0.061666 0.049828 -0.091897 -0.098144 0.18563 
-0.051615 0.020233 0.0034632 0.030756 0.05213 -0.061316 -0.039449 0.079751 
-0.033859 0.015959 -0.01528 0.063639 0.054925 -0.047505 0.014643 0.014972 
0.044731 0.05476 -0.019719 0.083533 0.048184 -0.09091 0.031414 0.026974 
0.097015 0.050157 -0.018404 0.073997 0.046046 -0.057534 0.027961 0.030427 
0.048677 0.053281 -0.031721 0.036675 0.026152 0.05213 0.026646 0.033387 
-0.023994 0.068242 0.030098 0.01711 0.02533 0.10721 0.021713 -0.0044286 
-0.035667 0.036346 0.076463 0.013821 0.0031344 0.08304 0.061008 -0.026296 
-0.038133 0.038977 0.063145 0.034209 -0.009361 0.040128 0.13483 -0.039942 
-0.030899 0.055747 0.036182 0.020233 -0.0047575 0.010204 0.1391 -0.077757 
-0.020212 0.050979 0.04917 0.020233 0.021384 0.072188 0.15242 -0.055397 
-0.0040998 0.041607 0.069064 0.05213 0.085012 0.12875 0.12431 -0.040271 
0.047526 0.034044 0.028783 0.10622 0.091425 0.16837 0.1054 -0.0082102 
0.039305 0.0080668 0.012177 0.10326 0.087314 0.11806 0.04654 0.024015 
0.12497 -0.031228 0.03651 0.057062 0.046704 0.020891 -0.00015387 0.028454 
0.13467 0.00297 0.063145 0.059857 0.046046 -0.041093 -0.027775 0.039799 
0.00050378 0.049828 0.048513 0.079751 0.033551 -0.060329 -0.055397 0.028947 
-0.12708 0.06035 0.0014903 0.083697 0.052952 -0.045039 -0.028926 0.062323 
-0.095843 0.08304 -0.0078813 0.058871 0.046046 1.0539e-005 -0.003771 0.074983 
-0.014129 0.046704 0.0028056 0.04506 0.0324 0.037168 0.052459 0.064954 
0.079751 0.042758 0.041772 0.061337 0.059035 0.018589 0.031414 0.016781 
0.094384 0.040785 0.049664 0.011191 0.039799 0.0070803 -0.026296 0.05213 
0.044567 0.083204 0.037826 0.014479 0.031578 -0.011663 -0.027775 0.035195 
-0.035996 0.075148 0.012999 0.014808 0.0037921 -0.006566 -0.064933 0.046868 
0.014643 0.010862 0.0421 0.013821 -0.021363 -0.011005 -0.018239 0.073175 
0.16064 -0.10669 0.020891 -0.02794 -0.013965 -0.014951 0.074654 0.047691 
0.22723 -0.14171 0.061008 0.0013258 0.010204 -0.004593 0.090109 0.014972 
0.22279 -0.060823 0.077943 0.018096 0.010533 -0.016431 0.05624 0.084848 
0.18958 0.026646 0.062488 0.051308 0.019083 -0.025638 0.00050378 0.13023 
0.13187 0.031907 0.029934 0.023193 0.038319 -0.0013048 0.0016547 0.1179 
0.011191 0.060515 0.031085 0.01267 0.0024767 0.0324 0.038155 0.034044 
-0.070194 0.11576 0.007738 0.0095465 0.030427 0.1151 0.085835 0.016123 
-0.077264 0.13401 0.00033937 0.038977 0.048841 0.15834 0.093069 0.012177 
-0.044217 0.11674 -0.011005 0.0072447 0.0074092 0.11313 0.047855 0.063145 
-0.0054151 0.078107 0.045553 0.0039565 -0.02794 0.046704 0.018096 0.099974 
-0.0059084 0.056076 0.071695 0.013821 0.020398 0.029605 0.004943 0.082217 
-0.045368 0.032564 0.07597 0.060186 0.065118 0.018918 0.011848 0.01563 
-0.066084 0.031907 0.013164 0.062323 0.08863 0.024673 0.043251 -0.013965 
-0.031228 0.051636 -0.0034422 0.08156 0.086492 0.08156 0.044567 -0.033365 
0.020233 0.038155 0.0070803 0.049992 0.06742 0.12365 0.061337 0.019247 
0.094713 0.0098754 0.049335 0.039799 0.03947 0.092247 0.037004 0.060679 
0.17511 -0.024652 0.0070803 -0.0068948 -0.0090322 0.017274 0.0421 0.087643 
0.20454 -0.037311 0.042429 -0.036654 -0.022185 -0.041586 0.045718 0.093398 
0.15587 -0.003771 0.052294 -0.033365 -0.014293 -0.046354 0.061666 0.0059294 
0.046046 0.062488 0.080902 0.031085 0.0024767 -0.0090322 0.075476 -0.053424 
-0.055726 0.097672 0.0016547 0.021056 0.044238 0.10737 0.079916 -0.097487 
-0.12116 0.11625 -0.021363 0.053774 0.068571 0.13795 0.080573 -0.068057 
-0.083512 0.11247 -0.014129 0.02533 0.073504 0.07301 0.058871 0.020727 
0.029934 0.10441 0.021878 0.038155 0.012342 -0.042737 0.0047785 0.12447 
0.1077 0.10162 0.019247 -0.008539 -0.0062372 -0.109 0.01974 0.20092 
0.074819 0.090767 0.051308 -0.020377 -0.0062372 -0.075455 0.020233 0.14108 
-0.0087034 0.059035 0.064954 -0.039613 0.017438 0.045224 0.036675 0.10622 
-0.020048 -0.031557 0.090438 -0.0087034 -0.0021268 0.087972 0.054925 0.030263 
0.055911 -0.037476 0.049499 -0.032543 -0.010019 0.064296 0.059857 0.020069 
0.07449 -0.014293 0.0324 0.0093821 0.037004 0.00297 -0.024158 -0.018897 
0.13302 -0.021363 0.043416 0.023028 0.056076 -0.021856 -0.097487 -0.06444 
0.10441 0.012342 0.035031 0.051636 0.018589 -0.046519 -0.18068 0.03092 
0.044731 0.054596 -0.01117 0.034702 0.030592 -0.09091 -0.12609 -0.01232 
-0.02646 0.16393 -0.0138 0.0075736 0.0069159 -0.15996 -0.048492 0.057884 
-0.01676 0.14354 -0.03912 0.035195 0.018425 -0.01528 0.045718 0.042923 
-0.019719 0.15735 0.0024767 0.065118 0.011026 0.058871 0.12217 -0.0019624 
-0.022843 0.1077 0.0052718 0.038155 0.059035 0.083204 0.11773 -0.021856 
-0.057205 0.081889 0.040292 0.015137 0.049006 0.089616 0.10704 0.023851 
-0.034352 0.10408 0.057227 0.02829 0.018425 0.0592 0.079916 0.087808 
0.057884 0.054432 0.098823 0.034373 0.025988 0.035031 0.046046 0.098001 
0.10902 -0.031886 0.10507 -0.0068948 0.032564 0.03799 0.042594 0.092082 
0.082875 -0.055397 0.099316 0.0060938 0.025495 0.028783 0.049006 0.022206 
0.045718 -0.026296 0.023193 0.023193 0.022042 0.015137 0.028619 -0.011992 
0.019083 0.051801 -0.0055795 0.06331 0.013164 -0.016102 0.025166 -0.056548 
0.0080668 0.076463 -0.03616 0.043087 0.039141 -0.018075 -0.011827 0.0041209 
-0.023007 0.054432 -0.0052507 0.029769 0.043909 -0.013307 -0.019226 0.0092177 
-0.03616 0.080244 -0.00015387 0.063968 0.050979 1.0539e-005 0.0021479 0.034044 
1.0539e-005 0.092247 0.027139 0.08978 0.068736 0.04506 -0.0019624 0.035195 
0.031578 0.055911 0.019247 0.067091 0.065776 0.04095 0.028125 0.036839 
0.11494 -0.021856 0.048677 0.028783 0.022042 0.016288 0.019247 0.046375 
0.20372 -0.099624 0.083697 -0.017746 -0.0029489 -0.003771 0.016781 0.011684 
0.16771 -0.1182 0.11543 0.00083261 0.012342 -0.013965 0.020069 0.0011614 
0.079422 0.015137 -0.012814 -0.0021268 0.029605 0.032071 0.05476 0.0064227 
0.01152 0.19205 -0.13448 0.039305 0.049335 0.058377 0.06183 0.014479 
0.007738 0.2103 -0.10768 0.076299 0.086985 0.06331 0.042429 0.018754 
-0.033037 0.15538 -0.0138 0.093726 0.1031 0.06479 0.029276 0.017603 
-0.066577 0.10113 0.069393 0.051143 0.011026 0.0324 0.01974 0.031742 
-0.095843 0.056404 0.15719 0.027303 -0.00064712 0.025988 0.021056 -0.0088678 
-0.082525 -0.0042642 0.19994 -0.0059084 0.0016547 0.037332 0.039634 -0.0060728 
-0.0019624 0.0013258 0.22098 0.00297 -0.016431 0.051636 0.022864 -0.0042642 
0.081889 0.0079024 0.14042 0.0013258 0.0039565 0.036182 0.0042853 0.043745 
0.094055 0.012177 0.058871 0.015301 0.031578 0.069393 0.016452 0.073832 
0.067256 0.03651 0.016616 0.039963 0.052459 0.076956 0.0051074 0.14733 
0.059035 0.040292 0.0085601 0.062817 0.022371 0.086492 0.026974 0.16031 
0.038648 0.010862 -0.0082102 0.041772 0.014479 0.041607 0.0421 0.12595 
0.062488 -0.029584 -0.01939 0.023357 0.028125 0.060679 0.044731 0.077285 
0.012342 0.018589 -0.02235 0.074819 0.050486 0.047197 0.047033 0.0059294 
0.01152 0.024344 0.032564 0.085835 0.034537 -0.027447 0.03536 0.016616 
0.018425 0.038648 0.0024767 0.049335 0.025659 -0.06855 0.013657 -0.045203 
-0.0013048 0.020562 -0.019884 0.037826 0.025659 -0.06444 -0.010512 -0.10883 
0.051308 0.044238 -0.04882 0.018589 0.01004 -0.054246 -0.011827 -0.12938 
0.038319 0.10918 -0.032379 0.12694 -0.023007 -0.054246 -0.00031829 -0.099624 
0.060515 0.068736 -0.053095 0.058871 0.020233 0.07038 0.057391 -0.086142 
-0.0011404 0.022206 0.069886 0.045389 0.037332 0.067749 0.094877 -0.025802 
0.016452 -0.018568 0.10606 0.025988 -0.0060728 0.088794 0.078436 0.097344 
0.030592 0.0011614 0.19632 0.031742 -0.0021268 0.079258 0.086328 0.23479 
0.046046 0.076792 0.12447 0.0039565 -0.0042642 0.084355 0.044073 0.2394 
0.0052718 0.065447 0.090109 -0.031557 -0.0080457 0.074654 0.039305 0.059035 
0.011848 0.10754 0.067585 -0.018075 -0.022843 0.02533 0.0090533 -0.013636 
-0.0070593 0.12858 0.05213 0.0088889 0.0095465 0.0062583 -0.025309 0.038812 
-0.016102 0.13697 -0.011663 0.055582 0.050814 -0.0026201 -0.041751 0.1128 
-0.030242 0.097015 -0.030735 0.062488 0.041607 0.019905 -0.0055795 0.096686 
-0.006566 0.040292 -0.015116 0.067091 0.043251 0.027303 0.020069 0.036675 
-0.0067304 0.035524 0.03092 0.053116 0.046211 0.013821 0.03388 -0.0078813 
-0.031557 0.033715 0.029112 0.042429 0.01415 0.018918 0.014643 -0.081539 
-0.05441 0.049335 0.05772 0.011355 0.015959 -0.0031133 0.013986 -0.089266 
0.024508 0.028125 0.047691 0.014479 -0.030242 -0.017417 0.032729 -0.075949 
0.082546 0.030263 0.037826 0.037168 0.067585 0.01267 0.065447 -0.043724 
0.11724 0.022042 -0.043888 0.069558 0.078929 0.016616 0.10967 -0.041093 
0.10573 -0.01117 -0.030899 0.038977 0.044238 0.049664 0.097837 -0.045039 
0.079916 0.0083956 -0.011663 -0.0095255 0.0018191 0.015959 0.02829 0.025001 
0.05213 0.074326 0.030263 -0.040435 -0.003771 -0.035338 -0.059178 0.066598 
-0.031721 0.14174 0.0021479 0.00083261 -0.01232 -0.05589 -0.10193 0.10655 
-0.0087034 0.14404 -0.010512 0.01267 -0.0055795 -0.020212 -0.040435 0.10836 
0.058706 0.12085 0.0098754 0.027961 0.036017 0.024508 0.034373 0.07038 
0.036839 0.069886 0.034702 0.043251 0.036017 0.098001 0.10277 0.035853 
-0.032872 0.036182 0.004943 0.048348 0.021713 0.1054 0.096193 0.065283 
0.018918 0.028454 0.053774 -0.0059084 0.011355 0.031085 0.051472 0.17758 
0.11609 -0.024652 0.069886 1.0539e-005 0.00297 -0.055726 -0.0077169 0.20651 
0.15653 -0.079401 0.088136 0.013821 -0.01676 -0.074798 0.037168 0.14502 
0.14782 -0.11245 0.050157 0.052787 0.018425 -0.041751 0.1248 -0.015609 
0.059857 -0.02498 0.023028 0.067749 0.039799 0.087972 0.18563 -0.10373 
-0.010348 0.010204 0.0069159 0.082382 0.081067 0.15357 0.20882 -0.14007 
-0.050136 0.03651 0.073175 0.07038 0.067913 0.11822 0.12135 -0.080552 
-0.016595 0.014972 0.11559 0.040128 0.06035 0.031085 -0.027775 -0.023336 
0.061008 0.00050378 0.12644 -0.034188 0.030756 -0.065262 -0.12725 0.018918 
0.183 0.037826 0.062817 -0.063124 -0.014622 -0.068386 -0.13481 0.1026 
0.16738 0.090767 -0.022514 -0.0029489 -0.025802 -0.019884 -0.062796 0.11806 
0.060022 0.14042 -0.13349 0.046046 -0.0067304 -0.020048 0.019247 0.11132 
-0.020212 0.15308 -0.10225 0.058706 0.037661 -0.034352 0.045718 0.061666 
-0.043724 0.13302 -0.027447 0.052294 0.041772 0.014808 0.031742 0.01267 
-0.010512 0.086657 0.058377 0.044402 0.055089 0.061666 0.0031344 -0.025474 
-0.010019 0.032071 0.0090533 0.053938 0.054432 0.0014903 -0.072496 -0.08532 
0.032893 0.01974 0.049335 0.051472 0.049335 -0.068879 -0.063124 -0.071345 
0.015301 0.056569 0.023686 0.00066819 0.03536 -0.10193 0.0095465 -0.017746 
0.034866 0.019247 0.083368 0.028454 0.051965 -0.0022913 0.066598 0.016781 
0.018096 0.044402 0.050157 0.052294 0.066598 0.07038 0.10622 0.063145 
0.041278 0.042923 0.03388 0.032071 0.081889 0.089287 0.11165 0.096357 
0.035031 0.027632 0.044731 -0.0082102 0.0098754 0.10392 0.10458 0.074819 
0.0037921 0.042429 0.081889 -0.012485 -0.0055795 0.11362 0.10737 0.08304 
-0.026624 0.064296 0.023193 0.022206 0.0034632 0.088794 0.097015 0.047691 
-0.032379 0.072517 0.0039565 0.020069 -0.0014692 0.061172 0.068242 0.03092 
-0.009361 0.066763 0.01415 0.019576 0.019411 0.019247 0.029441 0.024344 
0.085012 0.034373 0.070051 -0.00015387 0.020891 -0.026624 -0.016102 0.04654 
0.16196 -0.018897 0.039799 0.012013 0.009711 -0.036489 -0.029748 0.11033 
0.19698 -0.055726 0.065612 -0.01117 -0.0059084 -0.051287 -0.017417 0.12299 
0.22739 -0.045368 0.048348 -0.020048 0.012177 -0.059178 -0.021199 0.11839 
0.11378 0.052294 0.037332 0.028947 0.058377 -0.05441 -0.021199 0.037497 
-0.086471 0.13812 -0.043066 0.09274 0.071695 -0.03205 -0.00015387 -0.063453 
-0.23625 0.14453 -0.024816 0.06331 0.070708 -0.060987 0.012013 -0.080881 
-0.22622 0.12102 0.00017495 0.040128 0.056569 -0.045039 0.0064227 -0.073318 
-0.11393 0.069722 0.034209 0.021056 0.063639 0.037332 0.051636 -0.025802 
0.055911 -0.008539 0.029934 0.047362 0.023686 0.058213 0.061008 -0.036654 
0.13286 -0.027447 0.029112 0.0042853 0.0085601 0.032564 0.033715 -0.029913 
0.17018 -0.021199 0.043909 -0.0019624 0.01974 0.027632 -0.01939 0.026974 
0.14026 0.034702 0.070544 -0.0034422 0.0095465 0.041936 -0.038133 0.091753 
0.029441 0.092411 0.071202 0.057884 0.044402 0.060844 -0.020706 0.10704 
-0.023007 0.11395 0.01004 0.033222 0.054103 0.067091 0.040456 0.071859 
-0.06707 0.13286 -0.0095255 0.016945 0.074983 0.077449 0.048513 0.032893 
-0.096172 0.12381 0.0024767 0.043087 0.0324 0.04654 0.044567 -0.013965 
-0.098144 0.085835 -0.015116 0.056569 0.023028 0.038155 0.043087 -0.0039354 
-0.0047575 0.079258 0.026152 0.010862 0.018425 -0.01676 0.018918 0.024344 
0.036346 0.072681 0.042429 0.0013258 0.0016547 -0.011663 0.034702 0.065447 
0.02533 0.06331 0.071366 0.0034632 -0.0072237 0.020069 0.0092177 0.060844 
0.035031 0.037497 0.023851 0.040456 0.014479 0.013328 -0.0024557 0.047526 
0.075805 0.029934 0.0065871 0.047197 0.021056 -0.028269 -0.033365 0.072517 
0.052459 0.02829 0.040292 0.03092 0.01152 -0.054904 0.004943 0.072681 
0.025495 0.053938 0.045389 0.046211 0.043909 -0.0406 0.038648 0.069886 
0.01563 0.069558 -0.017417 0.096193 0.078436 0.0036276 0.043087 0.044896 
0.014479 0.051801 -0.030242 0.086492 0.071202 0.022535 0.052623 0.091753 
0.038977 0.021549 0.0098754 0.050321 0.037332 0.060186 0.075148 0.046046 
0.069064 0.01415 0.053281 0.011026 0.020069 0.13565 0.08863 0.009711 
0.029441 -0.00064712 0.062488 0.013821 0.033222 0.19517 0.12858 -0.039449 
-0.020377 0.051801 0.051143 0.027139 0.028783 0.10984 0.0786 -0.012485 
-0.01232 0.095206 0.036675 0.017767 0.030756 0.06479 0.029934 0.013164 
0.073504 0.077449 0.029441 0.0098754 0.035031 0.03651 0.02533 0.014479 
0.11181 0.00066819 0.031907 0.047197 0.041936 0.044567 0.068407 0.034209 
0.11658 0.02122 0.031907 0.034044 0.037497 0.10474 0.054596 -0.044052 
0.057391 0.024508 -0.00097594 0.055747 0.041443 0.13236 0.067585 0.016781 
0.047362 0.021713 0.031907 0.027961 0.042923 0.13121 0.049335 0.077449 
0.083862 0.0041209 0.024015 0.070708 -0.01117 0.077614 0.027796 0.11099 
0.10951 -0.0075525 0.040456 0.010369 -0.0057439 0.0083956 0.0039565 0.12464 
0.1026 -0.041586 0.071695 0.0070803 0.0037921 0.036182 -0.0087034 0.12135 
0.070544 -0.025638 0.10787 -0.015444 0.019247 0.031085 -0.016102 0.11296 
0.054925 0.017438 0.051143 0.041114 0.040128 0.00066819 0.031414 0.058706 
-0.021034 0.090438 -0.020541 0.076792 0.031907 -0.014951 0.090931 -0.034188 
-0.055068 0.10869 -0.037311 0.067256 0.06742 0.033715 0.11839 -0.087458 
-0.030735 0.10885 0.009711 0.056076 0.09126 0.071202 0.097508 -0.1085 
-0.030899 0.068571 0.025001 0.039963 0.044073 0.014808 -0.023172 -0.11919 
-0.066084 0.038155 0.0227 0.026481 0.040292 -0.10423 -0.13497 -0.11376 
-0.041093 0.014972 0.035524 0.025988 0.031249 -0.13316 -0.17164 -0.022679 
0.055254 0.013164 0.042758 0.037004 0.014315 -0.052437 -0.082196 0.0421 
0.088136 0.046868 1.0539e-005 0.053609 -0.0004827 0.046868 0.059693 0.090767 
0.061995 0.10507 -0.014129 0.036839 0.01826 0.10376 0.12513 0.078436 
0.023851 0.099481 0.010862 0.021878 0.050814 0.11658 0.12135 0.034209 
-0.011827 0.062981 0.060515 0.0067515 0.01267 0.048184 0.080738 -0.035503 
0.00083261 0.036182 0.037168 0.043251 0.023357 -0.0082102 0.027961 -0.001798 
-0.0040998 0.01826 0.020562 0.063474 0.048019 0.0028056 0.033387 0.030263 
0.052294 0.0023123 0.035031 0.037497 0.036346 0.031414 0.037826 0.033551 
0.11148 -0.012978 0.083368 0.0014903 -0.0016336 0.043416 0.052623 0.033551 
0.14272 -0.016102 0.05065 -0.012156 -0.035503 0.017767 0.020562 0.077778 
0.11395 0.045553 0.037004 0.0016547 -0.009361 0.0085601 0.00297 0.11313 
0.052952 0.087314 0.00017495 0.013821 0.011684 0.0056006 0.036839 0.07038 
0.0026412 0.087479 1.0539e-005 0.051801 0.061666 0.00297 0.030756 0.028454 
-0.037805 0.0082312 0.010533 0.098659 0.080738 0.024179 -0.0055795 0.021056 
-0.045039 -0.037969 0.037497 0.079422 0.075148 0.046046 -0.019555 -0.026296 
-0.01939 0.018096 0.039799 0.045224 0.044567 0.056733 -0.009361 -0.0406 
0.034866 0.041936 0.072024 0.028125 0.027468 0.009711 0.010862 -0.012978 
0.038155 0.066105 0.030098 0.058213 0.027139 -0.011498 -0.0022913 0.10277 
0.031742 0.11559 -0.029091 0.049006 -0.0042642 -0.017911 -0.00031829 0.091918 
0.032071 0.054432 -0.0026201 0.0080668 -0.0095255 -0.0095255 0.041772 0.0036276 
0.11428 -0.067728 0.09126 -0.030077 -0.033694 0.020891 0.043745 -0.041586 
0.17001 -0.099295 0.13056 -0.022843 0.01826 0.023686 0.0052718 -0.023665 
0.13795 -0.062302 0.12924 -0.017253 -0.021692 -0.040928 -0.0088678 -0.019226 
0.1179 0.024015 0.031742 -0.019555 -0.013471 -0.066741 -0.028269 0.017603 
-0.0054151 0.10507 -0.030242 0.020727 -0.026953 -0.089266 -0.006566 0.057391 
-0.031228 0.1077 -0.017253 0.012506 -0.017088 -0.072167 0.026481 0.051965 
0.0080668 0.073832 -0.0077169 0.014479 0.01152 -0.017417 0.053445 0.033387 
0.0088889 0.10162 0.00033937 0.010369 0.047691 0.064625 0.087972 -0.009361 
-0.027775 0.12447 0.0067515 0.062323 0.09981 0.10211 0.11165 0.0054362 
-0.05885 0.10162 0.0046141 0.10458 0.10935 0.10376 0.11888 -0.00097594 
1.0539e-005 0.040128 0.0324 0.067749 0.063639 0.092082 0.07449 0.042594 
0.12875 -0.026789 0.095371 0.0064227 0.021549 0.068078 0.058213 0.08978 
0.12875 -0.03353 0.09833 -0.010512 0.022535 0.023028 0.019083 0.11346 
0.051801 0.04506 0.020398 0.026974 0.007738 0.04506 0.022371 0.10852 
-0.0024557 0.10425 -0.038956 0.026974 0.020562 0.033222 -0.003771 0.088465 
0.00099702 0.10162 -0.076277 0.023028 0.038155 -0.0062372 -0.062467 0.096686 
0.019576 0.052787 0.01152 0.02829 0.035688 -0.049971 -0.092883 0.033222 
0.022371 0.03388 0.053445 0.028947 0.033222 -0.043559 -0.11376 0.033715 
-0.0011404 0.026974 0.098823 0.044073 0.043087 -0.013307 -0.054082 -0.010348 
-0.059343 0.091096 0.08567 0.018425 0.079916 0.0786 0.087972 -0.026296 
-0.029091 0.091589 0.10014 0.00066819 0.044073 0.16081 0.17692 -0.033037 
0.056404 0.048019 0.087314 0.009711 0.0080668 0.13713 0.21408 0.013328 
0.14716 0.0069159 0.07038 0.035688 0.038812 0.058706 0.1368 0.085835 
0.17528 -0.0091966 0.062488 0.047033 0.02829 -0.020048 0.044731 0.14552 
0.098659 0.012013 0.077943 0.0074092 -0.0059084 -0.042901 0.0047785 0.17429 
-0.027282 0.055911 0.034209 -0.00031829 -0.027282 -0.076771 -0.042079 0.080573 
-0.11656 0.060515 -0.012978 0.033222 0.034209 -0.070194 -0.059836 0.043909 
-0.1085 0.029605 0.021549 0.048348 0.052787 0.051801 -0.011827 -0.0013048 
0.0044497 0.037168 0.051472 0.049335 0.04917 0.10359 0.0036276 0.0060938 
0.09981 0.066269 0.022535 0.01974 0.018589 0.048513 -0.00064712 0.051308 
0.082217 0.078107 -0.025967 0.038155 0.030756 -0.027447 0.025166 0.059528 
0.069722 0.0041209 0.0031344 0.022535 0.020727 -0.047341 0.066927 0.031907 
0.1567 -0.070687 0.064625 -0.0026201 0.029605 -0.039942 0.071202 -0.033365 
0.21671 -0.062631 0.080244 0.020562 0.073339 -0.027447 0.073997 0.0051074 
0.13187 0.037168 0.009711 0.078765 0.079258 0.043251 0.046375 0.0037921 
0.025166 0.14486 -0.051451 0.12595 0.09981 0.1225 0.086657 -0.046683 
-0.088773 0.14174 -0.020212 0.10507 0.096028 0.16722 0.092904 -0.062467 
-0.12873 0.11066 0.031578 0.044731 0.064954 0.13319 0.068736 -0.017582 
-0.13152 0.090109 0.042594 0.02533 -0.010183 0.066927 0.00017495 0.063803 
-0.089759 0.11181 0.054267 0.010204 0.0042853 0.01152 -0.013636 0.074161 
-0.064604 0.11296 0.043745 -0.012978 -0.0040998 0.009711 0.045553 0.045224 
-0.0054151 0.077285 0.059857 -0.01676 -0.00031829 -0.041093 -0.035832 0.018096 
-0.0026201 0.053938 0.027303 -0.0014692 0.018096 -0.03353 -0.011498 0.04095 
-0.035832 0.090438 0.0093821 0.0087245 0.016616 0.041772 0.0047785 0.052623 
-0.06148 0.089287 0.025824 0.055418 0.05772 0.024508 0.044238 -0.023007 
-0.051944 0.086821 -0.0040998 0.059857 0.077449 0.035688 0.040785 -0.027611 
-0.10702 0.12316 -0.012649 0.095206 0.061995 0.029112 0.03799 -0.012485 
-0.15306 0.13121 -0.028926 0.057884 0.068078 0.032893 0.047033 0.007738 
-0.12166 0.05213 -0.029913 0.02122 0.063145 0.026974 0.067913 0.00050378 
0.0034632 -0.070194 0.02122 0.0082312 0.030592 0.036346 0.084684 0.044402 
0.23677 -0.13612 0.055418 -0.025638 -0.040106 0.040456 0.049828 0.10392 
0.44179 -0.10225 0.11592 -0.02646 -0.041257 -0.013636 0.0019835 0.15275 
0.39559 0.00083261 0.11083 0.0044497 -0.043066 -0.050629 -0.030899 0.15851 
0.24499 0.069393 0.032564 0.030592 0.013328 -0.012156 -0.025309 0.079094 
0.060186 0.08156 -0.038791 0.090931 0.062817 0.055582 0.03651 -0.0070593 
-0.021856 0.0324 -0.041751 0.049006 0.067913 0.06594 0.06479 -0.06855 
-0.047505 -0.028269 0.025824 0.016945 0.0034632 0.049828 0.084026 -0.093376 
-0.0503 -0.036325 0.061501 0.0092177 0.0019835 0.032893 0.097672 -0.15651 
-0.027447 -0.012485 0.10326 0.014972 -0.0016336 0.034537 0.056076 -0.18857 
-0.0082102 0.023357 0.14469 -0.036654 0.0059294 0.04506 0.011026 -0.1182 
-0.042408 0.097179 0.12497 0.0060938 0.030098 0.040128 0.022042 -0.053095 
-0.024816 0.15637 0.068078 0.037826 0.043416 0.0421 0.01563 0.041936 
-0.011005 0.15522 -0.023829 0.037497 0.034866 0.033387 0.010369 0.12233 
-0.023665 0.11148 -0.043724 0.031249 -0.0068948 -0.056383 0.018096 0.24581 
-0.017088 0.064461 -0.0054151 0.012342 -0.021692 -0.12231 0.030756 0.20619 
0.0075736 -0.016102 0.027468 0.004943 0.011355 -0.090417 0.013821 0.13549 
0.068736 -0.047998 0.025001 0.067749 0.057884 -0.015609 0.031578 0.084848 
0.05772 -0.02794 0.021878 0.054267 0.044238 0.093891 0.03388 0.040292 
0.016123 0.024015 0.041443 0.066598 0.064296 0.11839 0.053609 -0.040271 
-0.033037 0.042429 0.02829 0.022206 0.045389 0.089123 0.054267 -0.05441 
0.0085601 0.050321 0.019411 0.042429 0.011026 0.049006 0.057391 -0.035832 
0.098001 0.021878 0.033058 -0.018733 -0.033201 0.037332 0.029934 -0.03764 
0.14174 0.023193 0.01415 -0.019555 0.0036276 0.047526 0.034866 -0.019555 
0.11083 0.061172 0.022864 0.018754 0.048513 0.06479 0.036346 -0.016266 
0.12661 0.028619 0.045718 0.053609 0.065283 0.057555 0.0085601 0.0227 
0.11905 -0.0021268 0.047855 0.026646 0.030592 0.023357 0.0014903 0.044567 
0.057062 -0.00064712 0.086492 0.01415 0.042923 0.0087245 -0.012485 0.065283 
0.00099702 0.027961 0.070708 0.029441 0.037332 0.0021479 -0.0073881 0.095371 
-0.026131 0.051965 0.03388 0.060186 0.01004 -0.0026201 -0.00097594 0.11905 
-0.046519 0.092411 0.037661 0.049828 0.034209 0.010204 0.010862 0.16442 
-0.032379 0.070215 0.054925 0.054103 0.072681 0.030592 0.018425 0.13467 
-0.0014692 0.018425 0.053445 0.047197 -0.012156 0.030427 0.03092 0.078107 
0.077449 -0.034188 0.065447 0.047855 0.027632 0.027961 0.01004 0.046211 
0.12628 -0.0032777 0.1368 0.046868 0.035031 0.032236 0.0037921 0.067585 
0.13467 -0.025638 0.085177 0.0026412 0.016945 0.021384 -0.013143 0.016123 
0.04506 0.012177 0.038977 -0.025802 -0.014787 -0.00015387 0.0095465 -0.060987 
-0.0062372 0.09126 0.018754 0.0016547 -0.024323 0.036017 0.02829 -0.099789 
-0.016266 0.11757 0.010697 0.0069159 0.010862 0.051965 0.083697 -0.10735 
-0.033859 0.11296 0.03092 0.018096 0.012506 0.020891 0.084848 -0.083183 
-0.039778 0.08567 0.043745 0.032564 0.024508 0.020233 0.076956 -0.039613 
-0.032215 0.029112 0.027961 0.077449 0.0592 0.023686 0.066434 0.0039565 
0.0024767 0.025988 0.01004 0.073339 0.076627 0.014643 0.013492 0.081724 
-0.0055795 0.072517 -0.0059084 0.087972 0.059528 0.01974 -0.032543 0.16344 
-0.015773 0.1225 -0.021856 0.091753 0.085341 0.009711 -0.033365 0.19057 
-0.014458 0.051472 -0.0096899 0.063639 0.041443 -0.01232 -0.02942 0.12957 
0.0064227 0.027468 0.041607 0.0093821 0.034537 -0.048985 -0.0083746 0.072024 
0.088465 0.056569 0.065118 -0.010676 0.015959 -0.09387 -0.031886 0.055089 
0.1419 0.047362 0.05772 0.00050378 0.037168 -0.021856 -0.022843 0.086985 
0.16969 0.027468 -0.011827 0.04506 0.062981 0.11888 0.050321 0.053774 
0.14765 0.015959 -0.012485 0.039634 0.045389 0.15259 0.095371 0.061008 
0.09685 0.034537 0.01267 0.039963 0.031085 0.12168 0.12562 0.1054 
0.0090533 0.047362 0.057884 0.01267 0.033387 0.09833 0.12102 0.076956 
-0.077428 0.11543 0.01415 0.0421 0.046211 0.078436 0.11674 0.0028056 
-0.11672 0.16886 -0.032708 0.060022 0.038812 0.091753 0.11362 -0.091075 
-0.17673 0.17117 -0.033037 0.050157 0.040621 0.13006 0.076627 -0.11015 
-0.20584 0.11165 0.042758 0.024179 0.05213 0.067091 -0.016266 -0.12248 
-0.12281 0.04506 0.02829 0.00017495 0.02829 -0.00015387 -0.10078 -0.056383 
0.01563 -0.011498 0.075641 -0.0052507 -0.013471 -0.036654 -0.14747 0.013164 
0.096686 0.014479 0.069886 -0.026624 -0.014787 -0.13744 -0.17312 0.11115 
0.083533 0.043416 0.064296 -0.0014692 -0.0072237 -0.30169 -0.15191 0.15472 
0.072353 0.068571 -0.022021 0.025824 -0.013143 -0.29544 -0.050793 0.15226 
0.083533 0.085341 -0.018568 0.039963 0.021878 -0.12314 0.094055 0.023851 
0.036346 0.036346 0.01711 0.018754 0.026152 0.028947 0.16969 -0.042737 
0.065612 -0.0013048 0.073175 0.018754 0.034537 0.069886 0.16294 -0.034516 
0.08156 0.0069159 0.060515 0.023028 -0.0032777 0.05476 0.11346 0.0018191 
0.11148 -0.004593 0.044073 0.013821 1.0539e-005 0.069722 0.083368 0.056404 
0.098494 0.055747 0.029112 -0.014129 0.032071 0.11181 0.071202 0.029441 
0.11559 0.088794 0.036675 0.018589 0.057227 0.11707 0.048019 -0.024816 
0.1248 0.051472 0.018589 0.033387 0.048677 0.10063 0.059035 -0.031392 
0.059364 0.020562 0.032071 0.045389 0.063803 0.070051 0.04917 -0.033365 
-0.013143 0.047197 0.0041209 0.035524 0.085835 0.073832 0.032729 -0.0138 
-0.03616 0.081231 -0.0060728 -0.001798 0.08567 0.06035 0.018425 0.044073 
-0.067235 0.083697 0.027139 0.016452 0.0018191 0.011355 -0.0040998 0.083204 
0.018918 0.033222 0.056569 0.007738 -0.014129 -0.042737 -0.0138 0.10195 
0.035853 0.048513 0.054596 0.010369 0.015301 -0.043066 -0.011992 0.092904 
0.020398 0.041278 0.059693 0.018425 0.018754 -0.065426 -0.031721 0.055418 
0.026481 0.079587 0.01267 0.01563 0.061995 -0.010841 -0.0014692 0.01267 
0.0011614 0.10096 0.018096 0.070873 0.072353 0.011684 0.0083956 0.0065871 
-0.027775 0.065118 0.0092177 0.057884 0.06035 0.048513 0.074654 -0.0036066 
-0.03353 0.029934 0.049828 0.030756 0.031085 0.030756 0.081231 0.0067515 
-0.001798 0.0083956 0.029441 0.00083261 0.0059294 0.0018191 0.065283 0.0085601 
0.035853 -0.024652 0.063803 -0.029913 0.010862 -0.0075525 0.048348 0.028454 
0.094384 -0.056055 0.076463 -0.012649 -0.018733 0.0028056 0.015137 0.01563 
0.14387 -0.016595 0.074161 0.0042853 -0.016431 0.0024767 -0.0022913 0.011191 
0.16163 -0.0044286 0.034537 0.030263 0.0036276 0.026152 0.025659 0.0075736 
0.11115 0.037826 0.028125 0.056898 0.037332 0.04506 0.039799 -0.012485 
0.019247 0.038319 0.014808 0.073668 0.05772 0.059528 0.073175 -0.0055795 
-0.034023 0.073339 0.025001 0.045718 0.038155 0.045389 0.043745 0.0059294 
-0.011663 0.081395 0.03947 0.020727 0.033222 0.05476 0.043416 0.065118 
0.010862 0.055254 0.060679 0.013986 -0.013965 0.055089 0.035031 0.093726 
0.04917 0.064461 0.077121 -0.0052507 -0.0098543 0.056569 0.03651 0.084026 
0.050979 0.03536 0.077449 0.030592 0.031578 0.066763 0.043251 0.052459 
0.047855 0.035031 0.024837 0.052623 0.059528 0.073504 0.043909 0.035688 
0.052952 0.020727 0.012835 0.068242 0.061008 0.094055 0.044402 -0.036325 
0.052294 0.032236 0.035031 0.031085 0.063968 0.095535 0.065612 -0.083347 
0.0592 0.028619 0.066269 0.025988 0.062159 0.078929 0.10228 -0.062467 
0.01711 0.054596 0.032071 0.028454 0.04358 0.090438 0.11707 -0.03501 
-0.025145 0.09126 -0.0042642 0.02681 0.041443 0.056404 0.078272 0.027468 
-0.081374 0.090274 0.038648 0.023851 0.016616 0.035853 -0.0036066 0.037004 
-0.042079 0.036346 0.058871 0.023851 0.023357 -0.0027845 -0.058521 0.060186 
0.067913 -0.016924 0.046375 0.0069159 -0.0138 -0.022514 -0.071016 0.074819 
0.12365 -0.0091966 0.03947 0.04095 -0.0098543 -0.0049219 -0.047176 0.045553 
0.14256 0.031907 0.037826 -0.00064712 0.0093821 -0.017088 -0.043724 0.053445 
0.13236 0.041936 0.075476 0.0065871 -0.010348 -0.089102 -0.051944 0.046704 
0.025988 0.042758 0.060515 0.028454 0.024344 -0.073154 -0.012485 0.054596 
-0.081045 0.03388 0.05213 0.056898 0.034044 0.049006 0.075641 0.029934 
-0.0965 0.029112 0.057062 0.018754 0.038319 0.15883 0.12497 0.032729 
-0.071181 0.079422 0.0039565 0.048348 0.014315 0.21391 0.11642 0.0079024 
-0.039942 0.13812 -0.048163 0.073175 0.055254 0.20849 0.10852 -0.0083746 
0.021878 0.11247 -0.032379 0.094713 0.062323 0.13483 0.067256 -0.001798 
0.07038 0.00050378 0.012835 0.03947 0.06183 0.068407 0.069064 0.11428 
0.1322 -0.058028 0.06331 0.050321 0.049335 0.01152 0.007738 0.14091 
0.24564 -0.074469 0.056076 0.061666 0.038812 -0.020706 0.015959 0.12168 
0.1904 -0.063782 0.076134 0.03947 0.019247 -0.032543 0.0036276 0.082217 
0.11346 -0.017088 0.069558 -0.012814 0.0026412 -0.034352 -0.029091 0.014972 
-0.059836 0.059693 0.062159 0.011355 -0.01939 -0.084169 -0.01528 -0.069372 
-0.21685 0.19122 -0.034188 0.027468 0.011684 -0.11409 -0.0072237 -0.1062 
-0.291 0.27064 -0.078579 0.051472 0.047855 -0.089595 0.023851 -0.10489 
-0.26009 0.28675 -0.045039 0.01563 0.023522 -0.0054151 0.024179 -0.081045 
-0.083676 0.16689 0.013821 0.017767 -0.0075525 0.042429 0.063968 -0.055561 
0.18317 -0.056055 0.098494 -0.055561 -0.014129 0.031414 0.037826 0.020891 
0.37603 -0.23559 0.16623 -0.03616 -0.006566 0.03651 0.02829 0.072188 
0.3923 -0.26387 0.14289 -0.017911 0.011684 0.059693 -0.0054151 0.12776 
0.36912 -0.12281 0.085012 0.047691 0.064625 0.074654 0.010533 0.16327 
0.28313 -0.0090322 -0.02794 0.11247 0.11543 0.050979 0.0023123 0.18103 
0.12612 0.053774 -0.048656 0.12546 0.05624 0.010862 0.01152 0.10704 
-0.043559 0.036839 -0.014129 0.069558 0.0095465 -0.045039 0.004943 0.045224 
-0.16177 0.11181 0.0064227 0.031907 -0.016924 -0.014951 0.024837 -0.013636 
-0.19252 0.13565 0.0034632 0.029769 0.0051074 -0.0062372 0.01826 -0.02498 
-0.1187 0.13056 0.031742 0.032729 0.020891 -0.0034422 -0.019555 0.034866 
-0.030735 0.088794 0.04358 0.012835 0.01152 -0.019719 -0.036983 0.057555 
0.043745 0.020891 0.074161 0.005765 0.033222 -0.0091966 -0.027447 0.075476 
0.059528 0.010697 0.013328 0.010204 0.04358 0.029441 0.030098 0.059693 
0.044896 0.047691 -0.0022913 0.047691 0.053445 0.06594 0.10113 0.024015 
0.031414 0.066598 -0.010512 0.050979 0.04654 0.053281 0.10606 -0.017582 
0.062159 0.059364 0.040292 0.030263 0.056898 0.03947 0.1031 -0.027775 
0.11 0.067256 0.057884 0.017767 0.0095465 0.019905 0.11083 0.037004 
0.080738 0.044731 0.053445 0.0069159 0.00297 0.0092177 0.076956 0.044731 
-0.0024557 0.030756 0.041936 -0.0095255 0.010204 0.041772 0.085012 0.0079024 
-0.073318 0.079094 0.029441 0.0021479 0.023028 0.059693 0.077121 -0.022679 
-0.0503 0.12036 -0.0055795 0.022371 0.0036276 0.075641 0.04506 0.027468 
0.036675 0.031578 0.048677 0.038812 0.037826 0.022864 0.036675 0.11214 
0.12562 -0.071181 0.087643 0.010862 0.033715 0.018425 -0.01939 0.1756 
0.13154 -0.017911 0.064132 0.023522 0.00050378 -0.015609 0.005765 0.20717 
0.068736 0.10606 -0.034516 0.050814 0.025001 0.040128 0.02829 0.12694 
0.017932 0.13499 -0.06296 0.11165 0.0786 0.091096 0.017438 0.014315 
-0.060823 0.12677 -0.025967 0.062652 0.068407 0.057391 0.026646 -0.11261 
-0.1404 0.072517 0.022864 0.041607 0.038648 0.033222 0.023851 -0.14451 
-0.12264 0.038483 0.0016547 -0.0019624 0.0074092 0.014808 -0.040271 -0.061151 
0.055254 0.0024767 0.0689 0.0067515 0.0041209 -0.034845 -0.093376 0.058706 
0.15538 0.0085601 0.059693 -0.02235 0.026317 -0.020541 -0.087951 0.077614 
0.10902 0.017438 0.085012 0.0062583 0.033551 -0.0040998 0.010533 0.053609 
0.090109 0.042594 0.0034632 0.022206 0.059528 0.027468 0.043251 0.015959 
0.070544 0.043745 0.042758 0.078765 0.082217 0.037004 0.087808 0.0072447 
0.017274 0.056898 0.017603 0.070215 0.067749 0.044896 0.13631 0.0042853 
0.062488 0.03388 0.022371 0.10869 0.00297 -0.035667 0.10589 -0.015773 
0.11609 0.023522 0.012835 0.023686 -0.0095255 -0.037805 0.012835 0.02681 
0.12118 -0.0067304 0.00017495 -0.0044286 -0.033201 -0.012485 -0.059343 0.082217 
0.028783 0.087314 -0.021363 -0.043559 -0.041751 -0.031886 -0.049314 0.10129 
-0.091239 0.17363 -0.055232 -0.043724 -0.013965 -0.078086 -0.029748 0.069558 
-0.12412 0.16623 -0.052273 0.021384 0.027961 -0.10061 0.018918 0.029276 
-0.13366 0.1345 -0.02498 0.060515 0.03388 -0.086471 0.048184 -0.014787 
-0.11837 0.10984 0.0032988 0.063639 0.037168 -0.00081153 0.10293 -0.087622 
-0.13991 0.084355 0.062488 0.076134 0.066927 0.11987 0.14289 -0.15174 
-0.080059 0.051143 0.035853 0.077614 0.079751 0.12513 0.092904 -0.03764 
0.030756 0.036182 0.089123 0.080244 0.043251 0.10129 0.02681 0.12562 
0.13647 0.034537 0.10244 0.051801 0.047526 0.063639 -0.00031829 0.2565 
0.16886 0.020727 0.12464 0.044073 0.03536 0.048019 0.016781 0.26505 
0.11148 -0.024487 0.067913 0.014643 0.028947 0.018425 0.03536 0.15176 
0.07449 0.0036276 0.021384 0.048019 -0.012978 0.017438 0.017274 -0.0098543 
0.056898 0.056404 0.0026412 0.016781 0.015301 0.0075736 0.01563 -0.082361 
0.029769 0.063474 0.033551 -0.0014692 0.023851 -0.015938 -0.010512 -0.10258 
0.0072447 0.050157 0.055418 -0.0083746 0.014808 -0.026624 -0.028433 -0.073976 
0.034866 -0.0016336 0.090603 0.010862 0.0052718 -0.039284 -0.041751 -0.028269 
0.048019 0.004943 0.073339 -0.010841 0.00083261 -0.038627 -0.026789 0.070873 
0.015301 0.033551 0.057391 0.0052718 0.015465 -0.028926 -0.028597 0.077778 
-0.008539 0.034866 0.023193 0.0072447 0.011848 -0.020541 0.031414 0.02533 
-0.003771 0.049664 -0.02235 0.050979 0.022864 0.018754 0.071366 0.0064227 
0.035853 0.10935 -0.050629 0.078272 0.074654 0.034702 0.081395 -0.018733 
0.013328 0.072353 -0.06707 0.067585 0.038977 0.049828 0.07597 -0.027282 
0.048019 0.016123 -0.11639 0.026974 -0.0011404 0.04095 0.053774 -0.016266 
0.090931 0.025659 -0.06707 0.018918 -0.030077 0.022042 0.042923 0.034044 
0.076299 0.074161 0.013821 -0.0013048 0.013821 0.01711 0.0014903 0.059035 
0.034702 0.13368 0.081067 0.022535 0.039305 0.018589 0.02533 0.060515 
-0.014951 0.14272 0.055582 0.051308 0.062323 0.021549 0.043745 0.043416 
-0.019226 0.11165 0.050486 0.088136 0.080409 0.029605 0.050321 0.042594 
-0.028433 0.087479 0.060844 0.06479 0.072188 0.071037 0.065283 0.043251 
-0.02087 0.05213 0.1054 0.020398 0.012835 0.09981 0.05624 0.036839 
-0.022185 0.018918 0.096193 -0.022514 -0.00064712 0.096028 0.044238 0.063145 
-0.017582 -0.040764 0.1054 0.021713 0.00033937 0.09126 0.045389 0.034373 
0.0090533 -0.020541 0.11017 0.018096 0.0079024 0.076299 0.051636 0.03947 
0.00050378 -0.059672 0.1054 0.0075736 0.00050378 0.048348 0.058213 0.01267 
0.086492 -0.080388 0.084848 0.012177 0.0065871 0.042594 0.070873 0.029112 
0.17544 -0.13267 0.14305 -0.0014692 0.034702 0.054432 0.032236 0.09126 
0.21917 -0.1404 0.18613 -0.0090322 0.016123 0.095864 -0.0098543 0.099645 
0.20043 -0.1307 0.16952 -0.066741 -0.028269 0.075148 -0.052109 0.075641 
0.042923 0.038319 -0.0004827 -0.025638 0.0090533 0.017438 -0.062631 0.030098 
-0.1039 0.21737 -0.19531 0.069886 0.049992 0.01711 -0.045368 0.0011614 
-0.040106 0.27343 -0.2471 0.096521 0.052623 0.04358 -0.012649 -0.023501 
0.041114 0.18514 -0.14665 0.057227 0.045224 0.060022 0.044402 -0.033694 
0.098001 0.057227 -0.03353 0.025166 0.052459 0.050321 0.10704 -0.048656 
0.11609 -0.014293 0.064132 0.030427 0.028783 0.090931 0.12694 -0.052602 
0.16755 -0.082196 0.10145 0.03947 0.044402 0.12266 0.12398 0.013657 
0.14519 -0.023336 0.14354 0.026974 0.06183 0.14404 0.088958 0.057391 
0.046868 0.020398 0.071037 0.034866 0.072681 0.12612 0.025166 0.10096 
-0.024158 0.085012 0.020069 0.047362 0.050486 0.10606 0.010204 0.050814 
-0.085156 0.063803 -0.011663 0.065776 0.023851 0.038648 0.0082312 0.047526 
-0.045368 0.05476 -0.001798 0.084026 0.039799 -0.016102 0.01004 0.061172 
0.018754 0.019411 0.0019835 0.061995 0.034537 -0.047012 0.026974 0.089452 
0.055418 0.023028 0.072517 0.067913 0.03092 -0.08121 0.041772 0.085506 
0.054103 -0.01528 0.15012 0.046704 0.032236 -0.071181 0.024508 0.016781 
0.024673 -0.025145 0.14634 -0.010841 0.05065 0.010369 0.014972 -0.01939 
0.026152 0.016945 0.075312 -0.0087034 0.0090533 0.044731 0.0031344 0.018425 
0.019905 0.057227 -0.0027845 0.024837 0.028619 0.0227 0.0087245 0.04358 
0.027303 0.08008 -0.023336 0.039141 0.017274 0.0028056 0.018589 0.00050378 
0.054925 0.069886 0.017438 0.009711 0.015959 0.022206 0.048184 -0.046519 
0.06742 0.057227 0.012013 0.0014903 -0.0059084 0.073832 0.08978 -0.11179 
0.089452 0.036182 0.013821 0.021056 0.0069159 0.1197 0.091425 -0.11541 
0.1054 0.05476 0.032071 0.042923 0.023193 0.07597 0.076299 -0.058685 
0.039963 0.059857 0.028125 0.027303 -0.026296 0.020562 0.045718 -0.05885 
-0.0138 0.059857 0.01974 0.0039565 0.0011614 -0.033694 0.017274 0.026152 
-0.032872 0.045553 0.027303 -0.0052507 0.0062583 -0.073811 -0.0016336 0.12464 
-0.0138 0.0080668 0.058706 -0.0026201 0.0069159 -0.09239 -0.013471 0.19501 
0.035853 0.034866 0.069722 0.0054362 0.0031344 -0.086964 -0.052273 0.14552 
0.11494 0.054432 -0.0049219 0.037661 0.0069159 -0.084991 -0.1011 0.1465 
0.14042 0.053281 -0.024323 0.056569 0.03947 -0.017582 -0.086636 0.13894 
0.11181 0.032729 -0.021528 0.092247 0.06331 0.042429 -0.029913 0.079916 
0.050321 0.02533 0.0026412 0.073504 0.065776 0.013657 -0.037147 0.058213 
0.070051 0.038483 -0.015444 0.063803 0.055747 -0.039778 -0.010841 0.013657 
0.064461 0.023686 0.0032988 0.073997 0.072188 -0.010512 0.063803 -0.028762 
0.070873 0.028454 0.019576 0.034209 0.046868 0.065283 0.14404 -0.049314 
-0.018733 0.093233 0.038155 0.02122 0.012013 0.03388 0.16377 0.029769 
-0.15914 0.12414 -0.011005 -0.024652 -0.013965 0.005765 0.084519 0.027303 
-0.2157 0.14667 -0.0075525 -0.0032777 0.005765 0.0016547 0.038977 0.025495 
-0.15306 0.15867 -0.0004827 0.049992 0.054103 0.066269 0.022535 -0.032379 
-0.055561 0.097837 0.041772 0.020891 0.0052718 0.018425 0.049992 -0.038956 
0.082217 0.036839 0.0088889 -0.023336 0.0074092 -0.050793 -0.043559 0.021878 
0.1003 0.027139 0.0042853 -0.0080457 -0.0013048 -0.084005 -0.0771 0.040292 
0.095864 0.0051074 -0.0057439 0.015465 0.027468 -0.058192 -0.042408 0.045389 
0.10277 0.020727 0.06035 0.0016547 0.044238 0.027468 -0.021692 0.033715 
0.09685 0.028454 0.087808 0.0095465 0.039634 0.055254 0.032893 0.044896 
0.027961 0.010369 0.054596 0.020891 -0.001798 0.01711 0.073997 0.044567 
-0.041915 0.069393 -0.0029489 0.083862 0.018096 -0.0004827 0.11773 0.0075736 
0.016616 0.057391 -0.012485 0.068736 0.023686 -0.024323 0.12398 -0.06 
0.085506 0.037661 0.0060938 0.031249 0.019411 -0.0082102 0.090109 -0.045039 
0.086163 0.044402 0.0075736 0.017603 0.013328 0.047691 0.066598 0.060515 
0.016123 0.08156 0.023193 0.038319 0.020562 0.058542 0.023357 0.1202 
-0.060987 0.11937 0.020891 0.03651 0.057391 0.035195 0.051143 0.058706 
-0.078908 0.1008 -0.0054151 0.037004 0.019247 0.035524 0.078436 -0.047834 
-0.090088 0.086328 0.0067515 0.023357 0.024015 0.034044 0.035853 -0.085156 
-0.043066 0.020398 0.041278 0.032729 0.0070803 0.01004 0.025988 -0.05589 
0.034209 -0.017746 0.086492 -0.0077169 0.013821 0.0075736 -0.03205 0.004943 
0.088136 -0.01117 0.090438 -0.0039354 0.0079024 0.023851 -0.073976 0.12398 
0.11691 0.029441 0.024015 0.041114 0.052294 0.041936 -0.058028 0.12201 
0.10803 0.041936 0.017438 0.038977 0.030756 0.026646 -0.076113 0.12168 
0.081067 0.034866 0.025824 -0.0062372 0.012013 0.012835 -0.060165 0.045718 
0.050814 0.055747 0.01711 -0.011334 -0.00081153 0.0011614 -0.033859 0.040456 
0.022371 0.056569 0.0059294 0.01563 0.028783 -0.0078813 0.020562 0.04917 
0.026974 0.058213 0.017932 0.060022 0.057884 0.022864 0.095535 0.081889 
0.0069159 0.067585 0.02681 0.051143 0.047033 0.025824 0.13401 0.15456 
0.033387 0.041278 0.028454 0.073668 0.064132 0.062817 0.13861 0.10145 
-0.015116 0.03651 0.017932 0.052787 0.073832 0.053116 0.10573 -0.015116 
-0.068879 0.090274 0.025659 0.071366 0.038319 0.028619 0.088958 -0.13004 
-0.10965 0.1567 0.019411 0.040128 0.021878 0.0092177 0.053609 -0.12001 
-0.092554 0.21358 0.02681 0.032893 0.0092177 0.0031344 0.039634 -0.057699 
-0.087293 0.1756 0.033715 0.0032988 0.035031 0.017603 0.034209 0.0016547 
-0.030077 0.10458 0.042758 0.049664 0.013986 0.051636 0.03947 0.040785 
0.0324 -0.019061 0.075312 0.025001 -0.0075525 0.060844 0.034209 0.066269 
0.074983 -0.11639 0.053774 -0.0138 -0.0039354 0.02829 0.023686 0.088136 
0.096521 -0.13119 0.024673 0.018754 0.00033937 0.036675 -0.0083746 0.078436 
0.25452 -0.12215 0.065447 0.059035 0.0324 0.028947 -0.0057439 0.097508 
0.34479 -0.08384 0.074161 0.04654 0.057555 0.040456 -0.021692 0.065776 
0.36008 -0.06707 0.055089 0.085999 0.11017 0.063145 -0.0050863 0.049664 
0.32506 -0.086964 0.059364 0.037168 0.048677 0.07597 0.039634 0.01152 
0.1636 0.0054362 0.050157 0.053281 0.013821 0.10063 0.028619 -0.07003 
-0.047998 0.097344 0.00050378 0.065612 0.058377 0.147 0.10606 -0.1455 
-0.12527 0.17873 -0.032215 0.064296 0.096521 0.1419 0.090109 -0.13103 
-0.12642 0.13861 0.011191 0.022864 0.037826 0.13993 0.058706 -0.0050863 
-0.085978 0.10935 0.044238 0.039305 0.025001 0.10852 0.058706 0.064296 
-0.090581 0.082217 0.064132 1.0539e-005 0.039963 0.059857 0.066434 0.1054 
-0.085813 0.04358 0.079422 0.0024767 0.021549 0.06035 0.047855 0.12168 
-0.0771 0.047526 0.055911 1.0539e-005 0.014808 0.051308 0.020233 0.15982 
-0.039613 0.051308 0.0227 0.028783 0.00297 -0.037476 -0.04619 0.22493 
0.079916 0.033551 0.010533 0.0090533 -0.0029489 -0.15487 -0.07562 0.25189 
0.15423 0.070873 0.014479 -0.0021268 -0.028269 -0.16407 -0.063289 0.13499 
0.13861 0.042429 0.024508 0.0014903 -0.0070593 -0.15339 -0.037805 0.033058 
0.086328 0.036675 0.03092 0.045224 0.03799 -0.12346 -0.020541 -0.018733 
0.024179 0.061008 0.01152 0.045224 0.055089 -0.068714 -0.039942 -0.065591 
-0.014293 0.038812 0.0056006 0.049335 0.01974 -0.039284 -0.030406 -0.036654 
0.052623 -0.01117 0.0067515 0.0088889 -0.01939 0.01974 0.043745 0.0090533 
0.13121 -0.016431 0.052787 0.0059294 -0.038627 0.083862 0.094055 0.029605 
0.11872 0.017932 0.071366 0.0065871 -0.048163 0.088136 0.13253 0.024508 
0.061008 0.033387 0.070051 0.0062583 -0.019719 0.074161 0.12513 -0.0027845 
0.013164 0.021056 0.026974 0.025824 0.020727 0.072353 0.078272 0.0070803 
-0.016266 -0.01676 0.058542 0.05213 0.087314 0.10244 0.023193 -0.030077 
0.00017495 -0.016102 0.044567 0.066763 0.093726 0.10096 -0.0011404 -0.039778 
0.020398 0.023851 0.020891 0.036017 0.065612 0.033222 -0.0072237 -0.044381 
0.051308 0.074654 -0.013965 0.039141 0.032564 -0.011992 0.011848 0.021878 
0.089123 0.0092177 0.012177 0.024673 0.019576 -0.014951 0.018096 0.051965 
0.06594 0.00017495 0.035031 0.019411 0.018589 -0.016595 0.039799 0.045718 
0.046704 0.021056 0.020562 0.0324 0.060679 -0.015938 0.029605 0.019411 
0.027632 0.056733 -0.013143 0.045718 0.079916 0.01711 0.025659 -0.017911 
-0.0088678 0.06479 0.014972 0.069229 0.043251 -0.010512 0.0095465 0.0059294 
-0.015773 0.034537 0.02829 0.020727 -0.015938 -0.013307 -0.024158 0.041114 
0.010533 0.070873 0.05772 -0.015116 -0.019061 -0.014129 -0.019884 0.12513 
0.0023123 0.10425 0.036839 -0.033201 -0.0027845 -0.015773 0.027468 0.11115 
-0.032708 0.12003 0.029112 0.029441 -0.0088678 -0.028269 0.024179 0.061008 
-0.080388 0.12003 0.0098754 0.033222 0.015959 -0.025638 0.017932 0.0098754 
-0.074633 0.091753 0.018096 0.018589 0.026317 -0.0013048 0.030592 -0.010183 
-0.024323 0.053774 0.012506 0.0011614 0.0042853 0.0093821 0.0098754 -0.0013048 
0.011355 -0.0019624 0.055582 0.024015 -0.00081153 -0.012649 0.00066819 -0.019884 
0.095699 -0.0083746 0.049335 0.0083956 0.0059294 -0.01528 -0.0096899 0.089616 
0.11263 -0.036818 0.038648 1.0539e-005 -0.018733 -0.010676 -0.031064 0.11428 
0.16179 0.014972 0.036346 0.018589 0.024015 0.014972 -0.00081153 0.066434 
0.087643 0.014315 0.034209 0.049006 0.058542 0.072353 0.041607 -0.0019624 
-0.012978 0.048019 0.030427 0.070544 0.066927 0.099481 0.14733 -0.081374 
-0.01232 0.090109 0.035195 0.032071 0.045224 0.073997 0.12184 -0.072825 
-0.040271 0.075641 0.0324 0.0421 -0.0055795 0.021878 0.13499 -0.043888 
-0.061809 0.080409 0.0060938 0.034209 0.023357 0.01974 0.073668 -0.041422 
-0.083018 0.051472 0.00083261 0.047691 0.053281 0.045882 0.057884 -0.034188 
-0.065919 0.057391 -0.00015387 0.056733 0.051143 0.052787 0.056569 -0.025638 
-0.055232 0.06183 -0.0064016 0.059364 0.06331 0.06742 0.020562 -0.03912 
-0.034516 0.064954 0.0056006 0.090767 0.066598 0.030756 -0.0014692 -0.021199 
0.0028056 0.040128 0.061008 0.066598 0.071037 -0.011334 -0.043395 0.038319 
0.037004 -0.016924 0.078765 0.033387 0.066927 -0.03912 -0.043559 0.10655 
0.016945 0.024179 0.040456 0.013986 0.044402 -0.016431 -0.012978 0.14058 
-0.010841 0.041772 0.027468 0.053774 0.049992 0.08419 0.051308 0.11066 
0.026974 0.0227 0.057884 -0.0054151 0.021878 0.13023 0.074161 0.12036 
0.094384 0.088136 0.064625 -0.030077 -0.027118 0.11658 0.04358 0.092904 
0.048348 0.14913 -0.021199 -0.046025 -0.04882 0.055747 -0.0077169 0.057062 
-0.021692 0.11378 -0.0095255 0.01974 0.012013 0.040785 0.0016547 -0.050136 
0.0074092 0.0082312 0.040785 0.0090533 0.034044 0.089945 0.024837 -0.070359 
0.12842 -0.074798 0.11247 0.010862 0.08419 0.069558 0.043087 0.020069 
0.183 -0.086471 0.087808 0.039141 0.1105 0.076792 0.058213 0.10244 
0.16837 -0.059672 0.025824 0.10754 0.11378 0.0051074 0.083862 0.079916 
0.13088 0.0095465 -0.0064016 0.10178 0.074654 -0.051451 0.097344 -0.017253 
0.12464 0.01826 0.0093821 0.059693 0.03536 -0.013965 0.052459 0.0028056 
0.069229 0.061172 -0.031721 0.03388 0.015137 0.023522 0.010697 0.052623 
0.016616 0.092247 -0.0036066 0.033058 -0.0049219 0.075312 -0.0087034 0.076134 
-0.055068 0.11 0.020891 0.013164 -0.017746 0.086328 -0.0057439 0.027796 
-0.087622 0.12118 0.038155 -0.00015387 0.0028056 0.070215 0.0592 -0.034681 
-0.051615 0.10869 0.0051074 0.011191 0.049664 0.029934 0.085835 -0.061809 
0.031578 0.052623 0.069393 0.030263 0.022206 0.032236 0.085012 -0.068057 
0.017932 -0.003771 0.11395 -0.001798 0.047526 0.01974 0.061501 -0.024816 
-0.03616 -0.033037 0.11921 0.0074092 0.050157 0.051472 0.032564 0.036839 
-0.035996 -0.0060728 0.046868 0.029605 0.062652 0.091753 0.032071 0.13664 
-0.0029489 0.037497 -0.012156 0.050321 0.030592 0.050157 0.025659 0.12381 
0.028783 0.09126 -0.010512 0.022535 -0.018897 -0.0068948 0.020562 0.053281 
0.094548 0.060515 0.053609 -0.023994 -0.030077 -0.029913 -0.0044286 0.020727 
0.1641 0.021713 0.048841 -0.030406 -0.039449 -0.061151 -0.0090322 0.061008 
0.12464 0.051308 0.065118 0.054925 -0.025474 -0.0091966 -0.035996 0.13878 
0.039634 0.069722 0.01974 0.030263 0.02533 -0.013471 0.0031344 0.12266 
0.0067515 0.1031 0.01974 0.049828 0.06183 0.030427 0.013821 0.041114 
-0.017417 0.094713 -0.008539 0.04095 0.078765 0.0098754 0.023357 -0.037476 
0.00083261 0.044731 0.027468 0.082217 0.057555 0.011026 0.038155 -0.040106 
0.018589 0.0041209 0.068242 0.065283 0.050486 -0.027611 0.061337 -0.02235 
0.080244 -0.0057439 0.050814 0.045882 0.034866 -0.0055795 0.037497 0.011848 
0.13236 -0.010183 0.041443 0.012342 0.016781 0.013164 0.021384 0.10343 
0.15407 -0.018404 0.038155 0.00297 0.0044497 -0.0082102 -0.010841 0.11231 
0.12595 0.025659 0.04095 0.014315 0.0034632 0.00297 -0.01939 0.10145 
0.038319 0.09981 0.035688 -0.0013048 -0.01117 0.037168 -0.046519 0.051143 
-0.041257 0.10441 0.022206 0.0080668 0.0026412 0.027796 -0.015444 0.00297 
-0.08269 0.094055 -0.010676 0.056404 0.048841 0.036346 0.011355 -0.073811 
-0.044381 0.10145 -0.018897 0.080244 0.067091 0.038319 0.034537 -0.061151 
-0.004593 0.12332 0.0044497 0.058871 0.051143 0.017932 0.054103 -0.027282 
-0.0095255 0.14568 -0.011334 0.056733 0.058049 0.026481 0.071531 0.018096 
-0.0004827 0.11609 0.011026 0.053938 0.052459 0.041278 0.058049 0.055418 
-0.013965 0.04506 0.045882 0.040456 -0.00031829 0.012835 0.06479 0.030592 
0.039799 -0.016266 0.077285 -0.00081153 -0.011005 0.017438 0.047197 0.054596 
0.098001 -0.049478 0.066927 -0.014622 -0.0050863 0.01974 0.0034632 0.10145 
0.21556 -0.12445 0.12135 -0.040764 -0.034188 -0.022679 -0.022185 0.20684 
0.20536 -0.090746 0.11888 -0.027611 -0.035667 -0.061973 -0.043724 0.18267 
0.093726 0.057062 0.044567 -0.006566 0.015301 -0.080717 -0.024323 0.074819 
-0.017746 0.12365 -0.073976 0.071859 0.061995 -0.033859 0.020727 -0.026624 
-0.063124 0.11066 -0.089595 0.097015 0.072188 0.0098754 0.02122 -0.021692 
-0.069372 0.10737 -0.046025 0.071366 0.011191 0.048513 0.0018191 -0.022185 
-0.061809 0.1054 0.023357 0.013821 -0.0034422 0.029276 0.019905 -0.075127 
-0.025145 0.066927 0.035195 0.011355 0.012999 0.017932 0.051965 -0.1376 
-0.11212 0.088136 0.055254 0.0064227 0.010862 0.025659 0.084026 -0.13711 
-0.14911 0.12858 0.059035 0.027632 -0.009361 0.033058 0.097179 -0.056055 
-0.030735 0.036839 0.093562 -0.010183 0.0028056 0.016945 0.056569 -0.02942 
0.084684 -0.018404 0.075148 -0.025967 0.00033937 0.013657 0.095699 -0.00031829 
0.15012 -0.01232 0.053445 -0.0034422 -0.039449 0.0018191 0.056404 0.043416 
0.15916 -0.011992 0.044073 0.031414 0.010697 -0.028926 0.011684 0.077121 
0.14798 0.023028 0.041936 0.050814 0.084355 -0.048985 -0.022185 0.11313 
0.10885 0.05065 -0.027282 0.082546 0.088301 0.016945 -0.019226 0.092082 
0.053116 0.052787 -0.029913 0.098494 0.098988 0.034373 -0.0087034 0.095206 
-0.0088678 0.053774 0.0046141 0.085835 0.077614 0.052459 -0.0091966 0.10935 
-0.031392 0.045718 0.032564 0.034044 0.075641 0.0689 0.0026412 0.10162 
-0.032872 0.062488 0.034044 0.028783 0.032071 0.05772 -0.020048 0.0064227 
-0.040271 0.061995 0.036017 0.010533 0.0098754 0.051143 0.041278 0.056898 
-0.014951 0.066927 0.06594 0.0051074 -0.030242 0.019411 0.074819 0.014972 
-0.016266 0.076463 0.057227 -0.013307 -0.010841 0.013821 0.064132 -0.013307 
-0.025802 0.043251 0.027468 0.04506 -0.021856 0.080244 0.073175 -0.018897 
-0.017582 0.014808 0.016781 0.038483 0.042429 0.061666 0.063145 -0.031557 
0.021713 0.00083261 0.05476 0.029441 0.031742 -0.0036066 0.027139 -0.021199 
0.10178 0.022371 0.088136 -0.014129 -0.00081153 -0.073811 0.016945 -0.025638 
0.057227 0.027961 0.0083956 -0.014951 -0.013965 -0.061809 0.013492 -0.043724 
0.015301 0.087643 0.01826 0.0065871 0.01826 -0.037476 0.049828 -0.073811 
-0.012978 0.06479 0.022864 0.017274 0.023686 -0.0013048 0.051636 -0.16555 
-0.023501 0.05476 0.075805 0.00066819 0.012342 0.03947 0.056076 -0.12429 
-0.042901 0.028947 0.050979 0.016452 0.034866 0.077285 0.048348 -0.045203 
-0.028762 0.017603 0.033222 0.050486 0.053609 0.083862 0.028783 0.020562 
0.0051074 0.028783 0.020069 0.065118 0.034537 0.081724 -0.0016336 0.071859 
0.053116 0.067091 0.0026412 0.011191 0.0054362 0.055747 0.0075736 0.1294 
0.095535 0.06479 -0.028926 -0.012485 0.0059294 0.055254 0.02533 0.14996 
0.08419 0.1105 -0.01528 0.01267 0.01974 0.057884 0.030263 0.14486 
0.0421 0.14519 0.013164 0.038319 0.026974 0.056733 0.042265 0.1128 
-0.07003 0.1202 0.015137 0.073997 0.068242 0.060515 0.050157 0.065118 
-0.10768 0.1368 0.0023123 0.078272 0.083204 0.053609 0.059857 0.075476 
-0.033859 0.092411 0.023851 0.064461 0.087808 0.059857 0.065776 0.081889 
0.082053 0.033058 0.073668 0.059857 0.046704 0.039799 0.06594 0.062652 
0.14174 -0.067892 0.12875 -0.0057439 0.04654 0.035031 0.048513 0.0044497 
0.18037 -0.17262 0.09274 -0.011663 0.047526 -0.00064712 0.020891 0.00083261 
0.23545 -0.15109 0.0689 -0.015444 0.015959 -0.052109 -0.034023 0.017932 
0.2121 -0.036654 0.03947 0.045389 0.021713 -0.041093 -0.029255 -0.0077169 
0.069064 0.048677 0.057884 0.018425 0.038483 -0.004593 -0.015116 -0.016595 
-0.029913 0.11132 0.012835 0.017438 0.064954 0.043909 0.0095465 -0.03912 
-0.11755 0.12875 0.0023123 0.034044 0.031742 0.053445 0.024179 -0.018075 
-0.11146 0.071695 0.033222 0.05476 0.01563 0.051636 0.037168 -0.0026201 
-0.051287 0.0083956 0.092082 -0.044546 0.0087245 0.030263 0.05213 0.055089 
0.0036276 0.023686 0.053445 -0.035996 -0.0054151 0.055254 0.062488 0.11526 
0.0689 0.024344 0.054267 -0.022185 0.0047785 0.066269 0.069886 0.12694 
0.1539 -0.021692 0.04917 0.033222 0.016452 0.061337 0.026481 0.10737 
0.20865 -0.027282 0.021713 0.056404 0.035853 0.050814 0.016452 0.069393 
0.1835 0.0080668 -0.029913 0.062817 0.012342 0.064625 0.024015 0.020727 
0.092576 0.013164 0.0060938 0.045882 0.013821 0.080573 0.034537 0.00017495 
-0.011005 0.019576 0.058213 0.073832 0.030756 0.038812 0.025166 0.028454 
-0.085485 0.070051 0.077449 0.041772 0.041607 0.014808 0.032893 0.027139 
-0.047669 0.10425 0.044238 0.042429 0.027632 0.049335 0.067091 0.0082312 
0.04917 0.055254 0.034702 0.0075736 0.023357 -0.015116 0.024508 0.064461 
0.10721 -0.01528 0.072681 0.059364 0.036017 -0.023007 0.031414 0.061501 
0.13845 0.022206 0.064954 -0.013307 0.007738 -0.034681 0.0082312 0.075805 
0.11411 0.04358 0.029441 -0.0011404 -0.0022913 -0.065426 -0.0064016 0.10803 
0.063639 0.0092177 0.035688 0.04095 0.026974 -0.087293 0.017767 0.13697 
0.0019835 0.012835 0.03092 0.073997 0.06479 0.0013258 0.056733 0.047362 
0.0044497 0.0052718 0.049006 0.079422 0.077943 -0.0029489 0.079587 -0.0016336 
0.026481 0.0098754 0.018918 0.050321 0.042923 -0.018239 0.026317 0.082053 
0.043745 0.024344 0.026481 0.010697 0.034537 -0.018897 0.012999 0.081889 
0.035524 0.0060938 0.055418 0.038155 0.03388 0.048841 0.012342 0.040128 
0.027796 -0.0068948 0.075476 0.019247 0.01974 0.11165 0.0034632 1.0539e-005 
0.032564 0.044238 0.035524 0.018096 0.034702 0.1054 -0.0096899 -0.016266 
0.10869 0.083697 0.027468 0.034044 0.041114 0.072188 -0.014129 -0.047669 
0.12447 0.042265 0.045389 0.061172 -0.0064016 0.026317 -0.025967 -0.018404 
0.087808 0.018096 0.08567 0.018425 0.0021479 -0.038627 -0.040764 0.043251 
0.020562 0.0067515 0.043087 0.00083261 0.0072447 -0.020377 0.027303 0.022864 
-0.055397 0.069558 -0.0078813 0.020891 0.024508 0.01267 0.082382 0.012999 
-0.091732 0.14996 -0.050793 0.079587 0.042265 0.029769 0.095206 -0.0096899 
-0.15207 0.1807 -0.01676 0.055418 0.066927 0.047526 0.085177 -0.030077 
-0.080059 0.06479 0.013164 0.0072447 0.044567 0.038319 0.067256 -0.045039 
0.10984 -0.043395 0.071859 -0.02235 0.0041209 0.017274 0.062652 0.030098 
0.14026 -0.0080457 0.071037 0.012177 -0.00064712 0.022535 0.048019 0.050486 
0.09274 0.042923 0.076134 0.033058 0.0324 -0.011663 0.0044497 0.10408 
-0.024652 0.1396 -0.0054151 0.053445 0.074326 -0.017088 0.00099702 0.065612 
-0.07825 0.14404 -0.046025 0.087808 0.064954 0.044402 0.035524 0.0056006 
-0.064111 0.079258 -0.0067304 0.086328 0.069558 0.033551 0.020233 -0.022679 
-0.014458 0.0082312 0.067585 0.031907 0.040456 0.012177 0.009711 -0.013307 
0.016288 0.0082312 0.048677 0.00083261 0.013492 0.017603 -0.022185 0.040456 
0.071366 0.032729 0.0098754 0.0088889 0.02829 0.048513 -0.0078813 0.032729 
0.062981 0.075641 0.00033937 0.066269 0.043909 0.057062 0.0067515 0.020727 
0.0421 0.10803 -0.016431 0.041772 0.051143 0.025988 0.035195 -0.0024557 
0.082546 0.12546 -0.021034 0.031085 0.0019835 -0.0014692 0.039141 0.010369 
0.072024 0.10211 0.021549 -0.01232 -0.028762 -0.0031133 0.050321 -0.0039354 
0.029112 0.048841 0.057555 -0.010019 -0.051122 -0.0024557 0.084026 -0.010512 
0.089123 -0.021363 0.098166 -0.0062372 -0.021528 -0.01939 0.049992 -0.0024557 
0.13927 -0.071016 0.051308 0.012342 0.0037921 -0.042901 0.027468 0.026481 
0.069229 -0.026296 0.038155 0.035524 0.045224 -0.020377 0.020069 0.020398 
-0.027118 0.079094 -0.0034422 0.10573 0.070873 0.019905 0.022864 -0.0098543 
-0.096829 0.11888 0.0082312 0.085835 0.08156 0.040785 0.024344 -0.003771 
-0.12593 0.1396 -0.011334 0.053609 0.077614 0.029441 0.0037921 -0.039613 
-0.080881 0.11872 0.009711 0.0088889 0.06331 0.038648 -0.010676 -0.049807 
-0.04619 0.09685 -0.0022913 0.05772 0.069558 0.084684 0.034866 -0.038791 
-0.026624 0.06742 0.015301 0.035524 0.010862 0.044402 0.0088889 0.0056006 
0.019576 0.052294 0.065118 0.0082312 0.018918 0.051472 0.023851 0.10507 
0.056404 0.06479 0.10688 0.0018191 0.0044497 -0.00097594 0.0067515 0.20487 
0.036346 -0.0034422 0.06183 0.039305 0.0090533 -0.027447 0.017932 0.21079 
0.013821 0.016123 0.071366 0.0069159 -0.030242 -0.0004827 0.022042 0.028783 
0.061337 0.047197 0.048841 -0.017253 -0.00081153 0.016781 0.01267 -0.038133 
0.094877 0.098166 0.028947 -0.0031133 0.021713 0.044896 0.028454 -0.049149 
0.093891 0.11296 0.013164 0.048677 0.016781 0.057391 0.040621 -0.013471 
0.10589 0.069558 0.013328 0.021384 0.020398 0.020562 0.015465 0.038812 
0.08567 0.035524 -0.022679 0.027632 0.017274 -0.013143 0.012342 0.074326 
0.033058 0.04095 -0.017088 0.045389 0.034702 -0.042079 0.019247 0.085506 
-0.021363 0.047855 0.0090533 0.053609 0.03092 -0.0075525 0.03092 0.064132 
-0.031721 0.015301 0.1031 0.022206 -0.00081153 0.044731 0.039963 0.07038 
-0.026131 0.015959 0.069064 -0.003771 0.03536 0.062159 0.025988 0.080244 
0.018918 0.02681 0.061666 0.027468 0.025001 0.054267 0.0079024 0.064625 
0.047855 -0.0026201 0.050486 0.049335 0.014479 0.022864 0.0019835 0.034702 
0.032729 -0.041422 0.066105 0.048677 0.031907 0.022206 0.020069 0.024673 
-0.0011404 -0.038133 0.031907 0.037168 0.081231 0.070708 0.01152 -0.00064712 
0.036675 -0.0050863 0.032729 0.03092 0.047197 0.11198 0.034866 0.0098754 
0.073832 0.031085 0.024015 0.045553 0.036675 0.089616 0.035195 0.01152 
0.095371 0.057391 0.071859 0.009711 0.012342 0.052787 0.066105 0.0023123 
0.075312 0.064954 0.026152 -0.0014692 -0.016266 0.028125 0.098823 -0.0032777 
0.060515 0.075641 0.026646 0.045389 0.0047785 0.058706 0.10639 -0.063946 
0.051143 0.068571 0.0054362 0.078929 0.069393 0.10902 0.1225 -0.09239 
0.047855 0.034044 0.041772 0.067091 0.086492 0.12464 0.12414 -0.060987 
0.013492 0.041443 0.026317 0.026646 0.03536 0.069722 0.08419 -0.057534 
-0.018568 0.046868 0.035031 0.034373 0.011191 -0.029584 -0.016102 -0.023501 
-0.036818 0.02829 0.03536 0.072188 0.057884 -0.1353 -0.079237 -0.018568 
0.00297 0.040621 0.06183 0.053774 0.064296 -0.13974 -0.089759 0.072517 
0.026974 0.10145 -0.008539 0.021878 0.049664 -0.10357 -0.10045 0.13319 
-0.027611 0.11181 -0.03353 0.041607 0.038648 -0.02087 -0.12626 0.19073 
-0.037476 0.10293 -0.011498 0.015959 0.0088889 -0.009361 -0.10209 0.21769 
-0.010841 0.041114 0.081231 -0.0049219 -0.020212 -0.054082 -0.021692 0.17215 
0.056569 0.023357 0.050814 -0.027118 -0.031721 -0.099624 0.038648 0.11691 
0.11658 0.024015 0.042265 -0.015444 -0.029913 -0.059178 0.043251 0.061666 
0.096028 0.059857 0.021384 0.028783 0.030427 0.040456 0.045389 0.0018191 
-0.041422 0.10014 -0.00064712 0.057062 0.04095 0.13236 0.073997 -0.11755 
-0.18068 0.11378 -0.046519 0.070708 0.039141 0.12677 0.10096 -0.19038 
-0.16605 0.04358 -0.026624 0.068078 0.069229 0.040621 0.078436 -0.1889 
-0.074304 0.10359 0.0023123 0.082711 0.088136 0.097344 0.095864 -0.089102 
-0.01676 0.098001 0.019083 0.076134 0.074654 0.15505 0.084519 0.047362 
0.13253 -0.03616 0.049992 0.024015 0.065118 0.091096 0.062817 0.17166 
0.43193 -0.19038 0.083862 -0.052931 -0.021692 0.0047785 -0.00064712 0.1636 
0.60604 -0.26453 0.15818 -0.08532 -0.047012 -0.066413 -0.0026201 0.17544 
0.50542 -0.21833 0.20684 -0.087293 -0.087951 -0.079566 -0.016924 0.045718 
0.12661 -0.047176 0.081889 -0.0098543 -0.031228 -0.036818 0.02533 -0.090088 
-0.21323 0.10885 -0.017582 0.050979 0.031907 -0.026624 0.040621 -0.094692 
-0.28755 0.17626 -0.034352 0.092082 0.064954 0.024837 0.051801 -0.038956 
-0.20436 0.16146 0.0011614 0.075641 0.065612 0.067585 0.096521 0.035524 
-0.11837 0.1202 -0.0067304 0.03388 0.068571 0.06479 0.08419 0.096686 
-0.073154 0.12743 -0.012978 0.035031 0.054596 0.031249 0.032729 0.13647 
-0.013307 0.10425 -0.010676 0.063803 0.034866 0.017603 -0.0054151 0.18284 
0.05476 0.064132 0.031249 0.03799 0.029934 0.0054362 -0.015116 0.14749 
0.098823 0.048513 0.037661 0.062159 0.050814 -0.0027845 -0.0067304 0.090274 
0.054925 0.039634 0.027796 0.028783 0.028619 -0.0080457 -0.018075 0.011355 
0.030263 0.030427 0.0013258 0.050979 0.01415 -0.03501 -0.04323 0.0036276 
0.03799 0.048184 0.0088889 0.059693 0.025001 -0.075784 -0.0021268 -0.064111 
0.046704 0.048513 -0.0059084 0.025988 0.037332 -0.036818 0.076792 -0.16194 
0.06035 0.066269 0.019905 -0.0075525 -0.010512 0.032729 0.068242 -0.13958 
0.040621 0.049006 0.035688 0.0075736 -0.017088 0.026481 0.050321 -0.11837 
0.025001 0.020069 0.086163 -0.010841 -0.0080457 0.033222 0.03536 -0.023829 
0.0023123 0.01267 0.062323 -0.014458 0.0087245 0.045882 0.043251 0.030756 
0.048513 0.059693 0.034209 0.0024767 -0.0014692 0.05065 0.034209 0.06594 
0.062981 0.069064 0.022864 0.030427 0.010204 0.053116 0.033551 0.14634 
0.058706 0.069886 0.049828 0.049992 0.051965 0.093562 0.039799 0.20997 
0.019576 0.071037 0.017438 0.06035 0.045718 0.11987 0.05476 0.23266 
0.031742 -0.023829 0.049335 0.01563 0.010533 0.086328 0.025824 0.2075 
0.055254 -0.018075 0.038155 0.016123 -0.013143 0.057227 -0.0021268 0.12349 
0.066927 0.015465 0.024179 0.022371 0.00066819 0.073339 0.017274 0.041607 
0.1003 -0.0004827 0.024673 0.017767 0.00297 0.05213 0.0090533 0.004943 
0.12743 0.0052718 0.050486 0.015794 0.018096 0.037661 -0.010512 -0.023172 
0.032236 0.057062 0.0421 0.038155 0.047033 -0.039284 -0.02235 -0.038462 
-0.059507 0.099974 0.036017 0.04654 0.0227 -0.078579 0.016945 -0.065426 
-0.068879 0.090438 0.0021479 0.036017 0.021878 -0.062302 0.074654 -0.056383 
0.0016547 0.066269 0.00017495 0.050157 0.033058 -0.024652 0.069558 -0.014787 
0.067749 0.042265 0.018754 0.062159 0.065776 0.030592 0.060679 -0.00097594 
0.067749 0.0421 0.03799 0.079916 0.052459 0.056404 0.055089 0.01974 
0.035031 0.09274 0.00099702 0.03536 0.048348 0.054432 0.089452 -0.082854 
-0.03353 0.10178 0.01826 0.074326 0.092082 0.11724 0.10129 -0.019555 
-0.054575 0.10491 0.01974 0.082875 0.058213 0.15341 0.047033 -0.029091 
-0.047341 0.011191 0.085506 0.086328 0.066763 0.12809 0.022206 0.023028 
0.013492 -0.049478 0.063145 0.015301 -0.0049219 0.065283 0.018754 0.032564 
0.018918 -0.0039354 0.030592 -0.053424 -0.039778 -0.016266 -0.00015387 0.020891 
0.052623 0.094055 -0.001798 -0.047176 -0.051122 -0.03057 -0.0088678 0.047197 
0.1008 0.13845 0.032729 -0.044052 0.0052718 -0.033037 -0.010676 0.063803 
0.12233 0.094384 0.032236 -0.02498 0.013164 0.033387 0.0080668 0.084355 
0.065283 0.039963 0.050321 -0.033201 0.013328 0.04506 0.025659 0.077778 
-0.011992 0.026646 0.061337 0.022042 0.047855 0.014643 0.018754 0.069064 
0.0013258 0.038483 0.026152 0.093562 0.086821 0.016616 0.017438 0.084684 
0.0056006 0.046046 -0.015609 0.090438 0.10063 0.038483 0.0095465 0.020398 
-0.015938 0.034209 -0.027447 0.094713 0.058542 0.057884 0.059364 -0.092719 
-0.00081153 0.051143 -0.013965 0.054925 0.029605 0.056404 0.04917 -0.11639 
0.027632 0.046211 0.048184 0.057227 0.034702 0.057555 0.037826 -0.049314 
0.051143 0.035195 0.046704 0.0037921 0.012506 0.025659 0.03536 -0.022514 
0.029605 0.039634 0.056076 0.0069159 0.021713 -0.033859 0.02681 0.029112 
-0.013143 0.065283 0.036182 0.005765 0.019905 -0.02646 0.02681 0.05213 
-0.03205 0.094548 0.023522 0.058049 0.054267 0.041772 0.089945 0.10392 
-0.034845 0.088794 0.0067515 0.054267 0.052623 0.086492 0.14519 0.10852 
0.00083261 0.035688 0.02533 0.056569 0.055254 0.094877 0.12809 0.14437 
0.053116 -0.012485 0.050486 0.018918 0.021384 0.038648 0.032564 0.22361 
0.082875 0.027468 0.06331 -0.0036066 0.0052718 -0.029255 -0.063124 0.13335 
0.06742 0.05213 0.034044 -0.03501 -0.030406 -0.080552 -0.11064 0.025001 
0.091096 0.033387 0.023357 -0.0044286 0.0054362 -0.053095 -0.087129 -0.042079 
0.1659 -0.014129 0.052459 0.017603 0.015465 -0.019719 -0.037805 -0.049314 
0.14815 0.0064227 0.0592 0.037168 0.021713 0.035853 0.014972 -0.042079 
0.08419 0.031085 0.029605 -0.0016336 -0.0034422 0.042265 0.080409 -0.053588 
0.01711 0.055089 0.0034632 0.012177 -0.0083746 0.0072447 0.11247 -0.082196 
-0.027447 0.041278 0.049006 0.0070803 -0.0014692 -0.035174 0.08978 -0.036983 
0.0011614 0.036675 0.060186 0.019411 -0.0050863 -0.044052 0.038483 0.041114 
0.010697 0.028947 0.042758 0.025495 -0.0027845 0.022042 0.016452 0.075148 
-0.0073881 0.052952 -0.0047575 0.044402 0.062159 0.078765 0.057391 0.097344 
-0.015116 0.092904 -0.012156 0.055254 0.086492 0.089287 0.095535 0.036182 
0.014643 0.1179 0.0023123 0.050321 0.040292 0.056569 0.078272 0.0044497 
-0.01676 0.085506 0.035688 0.021713 0.013164 0.018589 0.044402 0.01711 
-0.063289 0.087643 0.036017 0.015301 0.036182 0.013492 0.03947 0.0019835 
-0.11409 0.088136 0.056569 0.028619 0.060515 0.051308 0.038977 -0.011663 
-0.061809 0.097344 0.042429 0.0786 0.069393 0.05772 0.038648 -0.01676 
-0.04323 0.11461 -0.021199 0.057555 0.068407 0.078272 0.052623 -0.031557 
-0.0075525 0.095206 -0.10258 0.05772 0.058213 0.020398 0.027961 -0.048492 
0.031742 -0.037969 -0.11623 -0.013143 0.028619 -0.017746 -0.009361 -0.039942 
0.256 -0.11837 0.071531 -0.025967 -0.061151 -0.026296 -0.046354 0.0047785 
0.39822 -0.11163 0.11822 -0.077428 -0.046683 -0.01117 -0.082525 0.16952 
0.30155 -0.041915 0.093891 -0.029091 -0.046847 0.0059294 -0.059672 0.27919 
0.10819 0.051308 0.086985 -0.011334 -0.018568 -0.020706 -0.031228 0.25107 
-0.084498 0.1197 0.11691 0.048348 0.0047785 0.01826 0.065612 0.14141 
-0.16687 0.084848 0.06479 0.030263 0.071037 0.067585 0.085341 0.069064 
-0.091568 0.037826 0.10639 0.00050378 0.037332 0.056569 0.096521 0.038155 
0.02829 -0.0034422 0.10556 -0.0019624 0.024344 0.054596 0.077449 -0.025967 
0.058049 0.035853 0.075312 0.05772 0.040128 -0.012814 0.010697 -0.04471 
0.049992 0.050157 0.027796 0.074983 0.055747 -0.055726 -0.028433 -0.063124 
0.0067515 0.020891 -0.03057 0.073504 0.037168 -0.086142 -0.0098543 -0.065262 
-0.00015387 0.022206 -0.032379 0.06742 0.055089 -0.066413 0.0018191 -0.065262 
0.012506 0.031249 -0.0044286 0.08304 0.060515 -0.020048 0.027468 -0.069372 
0.017274 0.062488 0.013328 0.053609 0.032893 0.007738 0.015137 -0.05441 
0.0016547 0.068571 0.015465 0.011355 -0.018404 0.0079024 0.0037921 -0.022185 
0.016452 0.046868 0.052294 -0.0024557 0.00099702 0.032236 -0.0013048 0.049006 
0.037332 0.034209 0.090438 -0.0098543 0.030098 0.050979 0.013657 0.076463 
0.030263 0.061008 0.040128 -0.0077169 -0.0075525 0.058049 0.031414 0.066105 
0.019083 0.073997 -0.022514 0.014643 0.0052718 0.042429 0.05213 0.02122 
0.013328 0.075805 -0.043395 0.034373 0.05772 0.032893 0.046704 -0.012485 
0.030098 0.035031 0.032071 0.073504 0.070051 0.012013 0.044402 0.030263 
0.083533 -0.031392 0.10277 0.051472 0.017438 0.021549 0.037497 0.048019 
0.15867 -0.045861 0.096686 0.01004 0.013492 0.009711 0.033387 0.10507 
0.12891 -0.0013048 0.042265 0.023357 0.036839 0.025166 0.060186 0.096686 
0.072846 0.024015 0.050321 0.067256 0.020233 0.028454 0.015137 0.15209 
0.041114 0.05476 0.036017 0.042758 0.0062583 0.0054362 -0.0083746 0.12677 
0.020727 0.1026 -0.010512 0.041278 0.028454 0.023357 -0.016924 0.078436 
-0.014293 0.083533 0.01563 0.061501 0.076134 0.062817 0.038319 0.018589 
-0.044874 0.055747 0.054432 0.081724 0.045224 0.095535 0.045389 -0.062302 
-0.04323 0.05065 0.054103 0.029112 0.044238 0.082053 0.044896 -0.06707 
-0.051287 0.074326 0.011191 0.027961 0.049664 0.10885 0.062488 -0.090417 
-0.049807 0.087808 0.0083956 0.061172 0.05624 0.11905 0.066598 -0.08828 
-0.027611 0.098659 0.036839 0.076299 0.040456 0.080902 0.032564 -0.034845 
0.007738 0.068242 0.067913 -0.00097594 0.011355 -0.0090322 -0.0075525 0.064461 
0.01711 0.025001 0.069886 -0.025309 0.022042 -0.028597 -0.034516 0.10211 
0.012177 0.024508 0.010369 -0.010183 0.0032988 -0.019884 0.037168 0.074326 
0.042923 -0.01676 -0.00097594 0.047855 0.023851 0.0046141 0.061008 0.053938 
0.14634 -0.067892 0.0421 0.021713 0.018096 -0.0091966 0.04506 0.084848 
0.22394 -0.047012 0.045389 -0.0014692 0.00017495 -0.084498 -0.024816 0.11543 
0.23233 0.028454 0.055747 -0.0075525 -0.019226 -0.15174 -0.080552 0.1128 
0.11329 0.088301 0.08304 0.048513 0.0067515 -0.12955 -0.062467 0.086657 
0.036839 0.080573 -0.0024557 0.062817 0.043745 -0.055397 -0.00097594 0.035524 
-0.038133 0.10606 -0.0091966 0.084355 0.043909 0.032893 0.085012 -0.023336 
-0.091897 0.11395 -0.048492 0.077778 0.07301 0.1105 0.16919 -0.13744 
-0.11228 0.11346 -0.013307 0.097508 0.082053 0.15949 0.16969 -0.13481 
-0.074798 0.11099 0.015301 0.077449 0.075148 0.13943 0.098988 -0.068386 
-0.018897 0.053445 0.00297 0.027303 0.014643 0.085999 0.042429 -0.0073881 
0.0074092 0.0014903 0.01826 -0.015773 0.02122 0.071366 0.01152 0.037661 
0.020069 0.034866 0.019411 0.013821 0.0051074 0.08715 0.030427 0.044567 
0.016616 0.052623 0.0070803 -0.009361 0.00066819 0.071859 0.024344 0.058706 
-0.019884 0.058049 0.023851 -0.043066 0.0074092 0.10129 0.0013258 0.053774 
-0.010841 0.071531 0.029112 -0.0011404 0.035853 0.10721 0.030098 0.085835 
0.031249 0.065776 0.030427 0.058049 0.051636 0.065612 0.027961 0.078929 
0.061666 0.030263 0.049992 0.013821 0.02533 0.038319 0.025166 0.052294 
0.079916 0.012013 0.047526 0.0036276 0.02122 0.037168 0.017438 0.033551 
0.066927 0.00017495 0.040456 0.010862 0.024837 0.0098754 0.023357 -0.025309 
0.073175 0.044896 0.032236 0.05624 0.028947 -0.0062372 0.0074092 -0.040764 
0.032564 0.10606 0.0421 0.049499 0.020069 -0.02087 0.010862 -0.045861 
0.027468 0.10195 0.023193 0.014972 0.016452 -0.025145 0.048513 0.0070803 
0.031578 0.057391 0.045882 -0.014129 0.042429 -0.058685 0.069393 0.037497 
0.034702 0.026646 0.054596 0.011355 0.017603 -0.049149 0.072681 0.038648 
0.02681 0.054925 0.049006 0.024837 0.010862 -0.10341 0.046868 0.023028 
-0.012156 0.087479 -0.024323 0.049664 0.015465 -0.082196 0.060186 -0.031392 
1.0539e-005 0.089452 -0.022185 0.024837 0.03947 -0.012978 -0.0031133 -0.025145 
-0.0083746 0.056569 0.03388 0.029112 0.0056006 0.048677 -0.081868 0.02681 
0.0028056 0.014808 0.044402 0.017767 -0.003771 0.026974 -0.056548 0.093562 
0.052623 0.025001 0.016452 0.020727 0.029769 -0.037311 -0.006566 0.073832 
0.032236 0.0093821 0.030756 0.026974 0.034044 0.010533 0.03799 0.066927 
0.027303 0.027139 0.055089 0.045389 0.040621 0.063474 0.069064 0.034044 
0.036182 0.070544 0.053609 0.030098 0.039141 0.044731 0.078272 0.040785 
0.020398 0.097508 0.0026412 0.025166 0.034702 0.0036276 0.0421 0.065776 
-0.0080457 0.074819 0.022042 0.018918 -0.0022913 -0.0062372 0.010697 0.075805 
-0.068221 0.055089 0.066269 0.018918 0.0062583 0.015301 0.016288 0.041772 
-0.080388 0.024179 0.080409 0.062652 0.083368 0.063639 -0.0083746 -0.018404 
-0.033037 0.014643 0.018425 0.086657 0.10441 0.10129 0.014972 -0.02498 
0.036839 0.027139 0.0031344 0.0592 0.038483 0.042923 0.035688 -0.027118 
0.07449 0.042758 0.031578 0.01267 -0.038791 0.004943 0.058213 0.021713 
0.15768 0.043416 0.072846 -0.035503 -0.023994 0.038155 0.06742 0.051965 
0.17577 0.090931 0.094384 -0.082196 -0.025309 0.056404 0.041114 0.022864 
0.06742 0.03651 0.039305 -0.015116 0.005765 0.04654 0.041443 -0.0087034 
0.0042853 -0.0091966 0.053774 0.050814 0.051308 0.038483 0.038977 -0.052602 
-0.038627 0.04654 0.013328 0.15078 0.14338 0.028947 0.069393 -0.095185 
-0.036654 0.089452 -0.020377 0.095042 0.083697 0.0069159 0.048513 -0.11623 
0.053281 0.06035 -0.0068948 0.048513 0.045718 -0.014129 -0.028269 -0.019719 
0.085012 0.007738 0.047033 0.020891 0.0065871 -0.050464 -0.034516 0.11477 
0.072188 0.011355 0.084848 0.013492 0.007738 -0.030242 -0.031721 0.2371 
0.044567 0.05772 0.03388 -0.0024557 -0.010841 -0.0062372 -0.0080457 0.27606 
0.0074092 0.063803 0.020727 0.029605 0.0069159 0.026974 0.030592 0.15374 
0.023686 0.05213 0.028454 0.047691 0.025659 0.056733 0.014972 0.13319 
0.1008 0.01563 0.068078 0.042923 0.040621 0.040128 0.0024767 0.14716 
0.12217 -0.0021268 0.024344 0.050979 0.066105 0.062652 -0.013471 0.16229 
0.065776 0.026646 0.015465 0.041772 0.054103 0.044402 -0.0060728 0.045718 
-0.0054151 0.025659 0.03947 0.059857 0.065118 0.042265 0.016616 -0.065591 
-0.045861 0.01152 0.046868 0.093069 0.059364 0.064954 0.016616 -0.14599 
-0.088773 0.0032988 0.038648 0.056733 0.067256 0.068736 0.050321 -0.1353 
-0.088608 0.063474 0.043251 0.051472 0.062817 0.075476 0.077778 -0.094363 
-0.054575 0.098166 0.030592 0.035853 0.029276 0.071859 0.079258 -0.052109 
0.01267 0.059857 0.016288 0.033715 0.022371 0.07038 0.091425 0.0069159 
0.21753 -0.031392 0.024673 -0.013471 0.0051074 0.086163 0.055254 0.049006 
0.3022 -0.047998 0.073668 -0.02498 0.0051074 0.095699 0.037826 0.13861 
0.22 0.0085601 0.069558 -0.031228 -0.031886 0.069229 0.028454 0.14486 
0.097179 0.08567 0.047691 0.041443 -0.0027845 0.032729 0.046375 0.14272 
0.055582 0.097344 0.00050378 0.033551 0.022042 0.013821 0.053445 0.094055 
-0.004593 0.097015 0.0032988 0.037497 0.037004 -0.012649 0.023522 0.029934 
-0.054246 0.083697 0.024508 0.031085 0.012506 -0.029748 0.0075736 -0.015609 
-0.081374 0.030263 0.04506 0.056733 0.03947 -0.026624 -0.022514 -0.017911 
-0.01939 -0.010019 0.026317 0.02829 0.058049 -0.0090322 0.0067515 0.013492 
0.039634 0.0087245 0.046211 0.026974 0.044402 -0.026789 0.013657 0.038977 
0.05213 0.048677 0.04917 0.015794 0.0079024 -0.023172 0.007738 0.053116 
0.013492 0.058213 0.069229 0.014315 -0.00081153 0.0085601 0.0051074 0.081067 
0.056076 0.015794 0.012342 0.0047785 0.017438 0.022535 0.016123 0.12283 
0.089945 -0.016266 0.037168 0.022371 0.023686 0.060186 0.033551 0.13861 
0.076792 -0.00015387 0.036346 0.065283 0.039305 0.081889 0.073504 0.073175 
0.041278 0.042265 0.039799 0.072681 0.092411 0.10935 0.09422 0.01152 
0.022206 0.10754 0.0016547 0.080738 0.095371 0.10606 0.08567 -0.043724 
0.026974 0.10211 -0.0042642 0.06183 0.062488 0.094877 0.084684 -0.062467 
-0.0091966 0.091753 0.023522 0.05624 0.031742 0.049828 0.043087 -0.062138 
0.0041209 0.092576 0.043416 0.039799 -0.015116 0.034373 0.0088889 -0.032543 
0.012835 0.07597 0.036839 -0.018075 -0.012978 -0.00081153 -0.016431 -0.0087034 
0.0227 0.082546 0.028619 -0.039613 -0.019226 0.012835 0.070544 -0.012485 
0.00066819 0.060515 0.058213 -0.003771 0.0018191 0.026152 0.047362 -0.054082 
0.0028056 0.020891 0.056733 -0.00031829 0.011848 0.059528 0.071366 -0.029091 
-0.0016336 0.0036276 0.037826 -0.01528 -0.0138 0.011191 0.046211 0.033715 
-0.024652 0.055911 -0.010019 0.016452 0.015959 0.0324 0.055582 0.058871 
-0.04471 0.095206 -0.018404 0.009711 0.0090533 0.033222 0.082711 0.088958 
-0.054575 0.11099 0.0023123 0.0421 0.022042 0.017767 0.01267 0.071859 
0.0070803 0.072681 -0.0060728 0.021878 0.027139 -0.033694 -0.014951 0.091096 
0.087643 0.045718 0.029934 0.0041209 0.012177 -0.061973 -0.027118 0.10803 
0.14585 0.0011614 0.054925 -0.0054151 0.041278 -0.060165 -0.016595 0.052459 
0.11543 0.0039565 0.085999 0.039799 0.02122 -0.029748 0.0082312 -0.0083746 
0.037332 0.036182 0.033551 0.0088889 0.021384 0.02681 0.033222 -0.072167 
1.0539e-005 0.049335 0.037332 0.039305 0.013986 -0.0054151 0.048184 -0.041915 
-0.052766 0.082382 0.009711 0.022371 0.014808 -0.018239 0.061172 -0.02498 
-0.021528 0.10408 0.025001 0.064461 0.012999 -0.026953 0.086492 -0.077922 
-0.023336 0.0786 0.024344 0.028454 0.012342 -0.0073881 0.058706 -0.12971 
0.0421 0.021878 0.016781 -0.0029489 0.028783 0.012013 0.01152 -0.043724 
0.062159 -0.0077169 0.047033 -0.009361 -0.0004827 -0.0016336 -0.029255 0.084848 
0.076956 -0.0095255 0.061337 0.023193 0.01152 -0.019884 -0.035667 0.13976 
0.024179 0.03536 0.021878 0.013164 0.033387 -0.035667 -0.038462 0.18152 
-0.019719 0.082382 0.0021479 0.0031344 0.037332 -0.026789 -0.015609 0.088136 
-0.052766 0.1054 -0.010348 0.030263 0.045553 0.029441 0.039634 0.023686 
-0.040106 0.093069 0.016452 0.059857 0.054103 0.073832 0.060515 -0.0031133 
-0.0087034 0.078107 -0.0027845 0.0421 0.079258 0.13499 0.08008 0.0087245 
0.016452 0.058542 0.026481 0.034373 0.027961 0.14733 0.085177 -0.0036066 
0.054432 0.010697 0.041278 0.023357 0.023357 0.086163 0.049664 0.0065871 
0.10047 0.012835 0.087643 0.034044 -0.01528 -0.011334 0.01267 0.017603 
0.096193 0.037661 0.054596 -0.0091966 0.0013258 -0.053588 0.0023123 0.012506 
0.078272 0.063803 0.017438 0.0069159 -0.006566 -0.040271 0.014479 -0.0031133 
-0.015116 0.071859 0.017438 0.035853 0.00099702 -0.016102 0.018589 -0.088773 
-0.05737 0.03388 0.034702 0.061172 0.031249 0.021549 0.035031 -0.029255 
0.010533 -0.021692 -0.0022913 0.018096 0.021549 0.021056 0.062488 0.02681 
0.06594 -0.0029489 0.012013 0.013821 0.0019835 0.02681 0.032564 0.0689 
0.069393 0.018096 0.038483 0.032729 0.027468 0.0064227 1.0539e-005 0.088136 
0.072353 0.04095 0.083368 0.046704 0.056076 0.005765 -0.019555 0.062488 
0.074654 0.031085 0.059528 0.023193 0.037332 0.0024767 -0.024487 0.01826 
0.082217 0.016945 0.056404 0.047691 0.03388 -0.0072237 -0.023336 0.026481 
0.077614 -0.020541 0.052623 0.034209 0.041443 0.0052718 0.011191 0.053445 
0.12233 -0.063946 0.090603 0.095371 0.094384 0.059035 0.042923 0.0324 
0.075476 0.030098 0.021878 0.044731 0.06479 0.070544 0.051801 0.093233 
0.069064 0.035031 -0.00031829 0.029605 0.018589 0.041607 0.03536 0.12924 
-0.004593 0.073339 0.015465 0.050486 0.047033 0.050979 0.038319 0.095371 
-0.059014 0.10425 0.005765 0.10277 0.050157 0.054267 0.020233 0.079587 
-0.051615 0.12562 -0.0091966 0.10195 0.043416 0.0011614 -0.019719 0.064296 
-0.020048 0.040785 0.0324 0.028454 0.012342 -0.047669 0.0031344 0.057391 
0.076792 0.066927 0.063639 -0.044381 -0.015773 -0.038133 -0.00064712 -0.0049219 
0.11658 0.058871 0.072681 -0.029913 -0.029584 0.00099702 -0.012978 0.01415 
0.12398 0.03651 0.037826 -0.018568 -0.0078813 0.050157 0.012506 0.061995 
0.097015 0.016616 0.047691 0.017274 0.0421 0.11329 0.062817 0.056404 
0.028125 0.032236 0.054267 0.049992 0.062488 0.097837 0.12973 -0.0031133 
-0.018404 0.025495 0.061337 0.079094 0.056898 0.088958 0.13335 -0.041257 
-0.0406 0.038155 -0.0014692 0.069886 0.058542 0.040785 0.072353 0.029441 
-0.016924 0.052459 -0.021363 0.068242 0.070873 0.026481 0.022206 0.13302 
0.05624 0.034044 0.01267 0.056404 0.036182 0.038812 -0.0067304 0.18629 
0.089616 0.034044 0.064461 0.069886 0.028619 0.02681 0.017274 0.051143 
0.032564 0.045389 0.029276 0.062159 0.0324 0.032071 0.04506 -0.031557 
0.04506 0.0083956 0.073668 0.014479 0.037004 0.029441 0.052623 -0.060658 
0.08978 -0.024323 0.13203 -0.00064712 -0.0067304 0.035853 0.031414 -0.034516 
0.082875 0.0013258 0.11411 0.01563 0.0070803 0.041443 0.031578 -0.0072237 
0.060515 0.020727 0.040621 0.03536 0.033551 0.062817 0.014643 -0.018568 
0.042758 0.071202 -0.021034 0.050321 0.033387 0.041114 0.037004 0.012999 
0.041114 0.06742 -0.00097594 0.052294 0.033551 0.028783 0.013821 0.032236 
0.058377 0.016616 0.041114 0.095371 0.050321 0.0031344 -0.01232 0.074819 
0.037332 0.062652 -0.010348 0.062488 0.051965 0.024673 0.024673 0.071859 
0.040785 0.075476 0.0065871 0.036675 0.032729 0.040292 0.025001 0.048348 
0.041278 0.059364 0.011191 0.011355 0.0074092 0.044073 0.019083 0.023522 
0.024508 0.053938 0.050321 0.00297 0.010369 0.019411 -0.0013048 0.011848 
0.0013258 0.048184 0.039963 -0.0050863 0.0052718 -0.024158 -0.0072237 0.017932 
-0.02235 0.04654 0.03092 0.0087245 0.0041209 -0.025309 0.0042853 0.019411 
-0.03764 0.020398 0.024179 0.025001 0.029934 -0.0096899 -0.010512 0.055911 
-0.0039354 0.0013258 0.079587 0.011191 0.014315 -0.0054151 0.009711 0.031085 
0.081067 -0.041915 0.090274 -0.011827 -0.017911 0.036839 0.036839 0.042594 
0.14963 -0.033365 0.065283 -0.011992 -0.0031133 0.04095 0.04506 0.037168 
0.15012 0.045882 0.019576 0.01563 0.027468 0.04654 0.051143 0.0023123 
0.076627 0.096521 0.0054362 0.059364 0.064625 0.053445 0.073668 -0.056877 
-0.030242 0.10474 -0.016102 0.052623 0.047197 0.051472 0.086985 -0.078086 
-0.10817 0.11707 -0.020048 0.051472 0.050814 0.048513 0.095042 -0.03912 
-0.055561 0.088136 -0.0077169 0.031578 0.052459 0.069229 0.084519 0.0031344 
0.10145 0.038812 0.050979 0.034209 0.039799 0.053116 0.06183 0.0032988 
0.062652 -0.02942 0.053116 -0.01939 -0.022843 0.016288 0.057884 0.032236 
0.065447 -0.040435 0.051965 -0.01117 0.0054362 0.05476 0.0014903 0.029112 
0.051472 0.025824 0.010697 -0.021528 0.02681 0.070544 -0.04471 0.040292 
0.039305 0.044073 0.022864 0.04358 0.034702 0.015137 -0.014951 0.047197 
-0.043559 0.0689 -0.0059084 0.037826 0.046211 0.055747 0.028454 0.029441 
-0.084169 0.085341 -0.021528 0.03799 0.047691 0.0051074 0.012835 -0.0019624 
-0.029584 0.0592 0.012835 0.019247 0.045553 -0.018075 0.007738 0.038977 
0.087643 0.045224 0.095864 0.0024767 -0.0004827 0.00066819 -0.0075525 0.071859 
0.090274 0.047362 0.050486 0.013986 0.00297 0.0026412 -0.020048 0.077121 
0.058213 0.033058 0.040785 0.030098 0.026317 -0.046847 -0.0040998 0.01974 
0.0083956 0.051143 0.016616 0.033058 0.01826 -0.098638 0.03388 -0.039613 
-0.0039354 0.036839 0.042265 0.04358 0.0016547 -0.13333 0.045553 -0.036325 
0.0075736 0.047855 0.0059294 0.028125 0.021878 -0.041422 0.07301 -0.039942 
-0.0054151 0.071366 -0.0039354 0.015465 0.051143 0.075148 0.083862 -0.013143 
-0.035996 0.093726 0.020069 0.046211 0.038812 0.14996 0.076299 -0.031228 
-0.024652 0.086163 0.022535 0.045224 0.046211 0.13384 0.056076 0.023193 
-0.0044286 0.10458 -0.028762 0.058377 0.035195 0.099481 0.037661 0.051965 
0.030098 0.11494 -0.0073881 0.042594 0.055747 0.086657 0.048348 0.080409 
0.067091 0.060844 0.014479 0.035195 0.023851 0.067256 0.029769 0.10277 
0.051801 0.033551 0.049499 0.020069 0.036839 0.034209 0.0095465 0.085341 
-0.019061 0.016288 0.034044 0.034044 0.027303 -0.0090322 -0.032379 0.064461 
-0.04619 0.0037921 0.063968 -0.0075525 -0.0016336 -0.042079 -0.064768 0.051308 
-0.0067304 -0.0091966 0.093069 -0.031721 -0.046354 -0.075784 -0.063782 0.085177 
0.080244 -0.028104 0.1128 -0.048492 -0.047012 -0.070359 -0.011663 0.037168 
0.11526 -0.063618 0.073175 -0.00097594 -0.0044286 0.018425 0.095864 -0.057699 
0.10918 -0.028433 0.030263 0.028454 0.048513 0.09274 0.14519 -0.085978 
0.025001 0.0421 0.0095465 0.085341 0.081395 0.090438 0.11773 -0.048656 
-0.02646 0.092082 0.022206 0.083533 0.094713 0.049664 0.043909 0.023357 
-0.039613 0.12809 -0.025802 0.079751 0.072517 0.01563 -0.015938 0.081067 
0.01267 0.15933 -0.0034422 0.040292 0.027468 -0.015116 -0.03912 0.12743 
0.060515 0.1031 0.024508 -0.0057439 0.011026 -0.014951 0.0026412 0.087643 
0.031249 0.060844 0.067913 0.014643 0.01152 0.046046 0.044731 0.011355 
0.012999 0.019905 0.014479 0.035031 0.0098754 0.045882 0.062981 -0.0078813 
0.019411 0.010697 -0.0044286 0.060022 0.030756 0.029934 0.054925 0.034373 
0.06035 -0.029091 0.034537 0.041443 0.02122 -0.081045 0.011191 0.097508 
0.097344 0.017767 0.06183 0.02829 -0.010841 -0.16539 -0.026296 0.098166 
0.06742 0.10145 -0.011663 0.046375 -0.0049219 -0.14402 -0.031886 0.036346 
-0.025638 0.1225 -0.013636 0.046375 0.016781 0.0032988 0.0082312 -0.041915 
-0.088444 0.10655 0.032564 0.02829 0.027632 0.12053 0.034702 -0.058521 
-0.076277 0.070215 0.048841 0.022864 0.02829 0.14568 0.039799 -0.080223 
-0.043888 0.020069 0.03799 0.034537 -0.0031133 0.11296 0.048184 0.00083261 
0.0421 0.020891 0.065612 0.020069 -0.0019624 0.087479 0.049992 0.096028 
0.1345 0.010697 0.071366 0.012835 -0.008539 0.048348 0.049992 0.13319 
0.09981 -0.019061 0.10392 0.013328 0.015465 0.051472 0.043745 0.073339 
0.11576 -0.0036066 0.048019 0.064132 0.044731 0.049499 0.062652 0.044896 
0.17314 -0.028433 0.047197 0.037497 0.037168 0.019905 0.04654 0.021878 
0.21638 -0.009361 0.040785 0.020398 0.038483 0.013986 -0.012814 0.0069159 
0.13483 0.018096 0.078107 0.024837 0.024344 -0.023336 -0.062138 0.030756 
-0.00015387 0.075148 0.026317 0.040785 0.053116 -0.037476 -0.038462 0.029112 
-0.02942 0.033058 0.02681 0.010204 0.070215 0.0037921 0.0036276 0.053938 
-0.038298 0.014315 0.030263 0.023522 0.048513 0.031742 0.049006 0.068736 
-0.019226 0.029276 0.045882 0.018918 0.016945 0.079258 0.086657 0.061008 
0.012013 0.054596 0.013821 0.025988 -0.0004827 0.068736 0.086821 0.065447 
0.051636 0.061995 0.0082312 -0.0027845 -0.020541 0.047855 0.053938 0.10343 
0.056733 0.091425 0.0019835 0.005765 -0.022185 0.044896 0.058213 0.067091 
0.012342 0.11148 -0.001798 0.047033 0.016288 0.053938 0.061666 -0.043559 
-0.023829 0.12151 -0.011334 0.068736 0.070873 0.032729 0.021056 -0.016102 
-0.023336 0.096686 0.0227 0.03651 0.07449 -0.010183 -0.041093 0.01267 
0.06742 -0.010348 0.094713 0.01563 0.05065 -0.065262 -0.067892 0.025824 
0.10918 -0.036654 0.098823 0.049992 0.038812 -0.027282 -0.038956 -0.045861 
0.092082 0.039305 0.038319 0.073832 0.058706 0.017274 0.055582 -0.18019 
0.044896 0.089945 -0.0021268 0.04506 0.036839 0.035195 0.09981 -0.16243 
-0.050793 0.073504 0.010369 0.0421 0.036346 0.0024767 0.075805 -0.048327 
-0.074304 0.044402 0.041936 0.013821 0.035524 -0.053917 0.031249 0.11576 
-0.02794 0.031085 0.012342 0.020562 0.036675 0.024837 0.017932 0.1733 
0.043251 0.024344 0.011191 -0.01117 0.024344 0.13927 0.050979 0.15028 
0.099152 0.050979 0.036346 0.0031344 0.049992 0.16064 0.098001 0.11642 
0.058377 0.069064 0.024837 0.029934 0.059364 0.1151 0.072846 0.02681 
0.034537 0.071037 -0.021199 0.077121 0.028454 0.050486 0.028454 0.0080668 
0.069393 0.019905 0.011355 0.035688 0.012835 0.0072447 -0.028104 0.04095 
0.091096 -0.022514 0.061666 -0.0077169 -0.0013048 -0.0077169 -0.066906 0.08978 
0.16163 -0.06707 0.11822 -0.0098543 0.0023123 0.0060938 -0.046025 0.097837 
0.16706 -0.040435 0.086821 0.022206 -0.012814 0.013657 1.0539e-005 0.059857 
0.097508 0.027796 0.03092 0.039305 0.012506 -0.011992 0.024015 0.0042853 
0.034209 0.07301 -0.00015387 0.039305 0.049499 -0.058685 0.042265 0.02681 
-0.021856 0.08978 0.017767 0.042594 0.030098 -0.02087 0.044896 0.015959 
-0.073811 0.12299 -0.043888 0.070544 0.040621 0.046704 0.0592 -0.0039354 
-0.10258 0.12546 -0.051287 0.041772 0.053774 0.096028 0.070873 -0.038133 
-0.082525 0.11691 -0.040435 0.018096 0.038483 0.081395 0.053281 -0.016924 
-0.02235 0.093233 0.026646 0.0082312 0.030592 0.035524 0.031085 0.019905 
-0.0042642 0.08419 0.025988 0.043416 0.019247 0.0092177 0.016288 0.01415 
0.033222 0.063639 0.044567 0.042923 0.035853 -0.038298 0.024673 0.035688 
0.044402 0.017767 0.049664 0.022371 0.018096 0.0047785 0.038155 -0.030242 
0.080738 -0.0004827 0.063145 0.01974 -0.041257 0.032729 0.049828 -0.022514 
0.068736 0.0080668 0.037661 0.035195 0.0079024 0.051472 0.064461 -0.033037 
0.05476 0.073504 0.018918 0.032071 0.082053 0.04506 0.081724 -0.072332 
-0.017088 0.084848 0.020069 0.040785 0.040456 0.03651 0.052787 -0.043559 
-0.066248 0.076299 0.054596 0.044896 0.049006 0.036839 0.045389 -0.024487 
-0.10735 -0.0004827 0.042265 0.064954 0.061337 0.026646 0.013821 0.07301 
-0.025145 -0.042408 0.07301 0.011355 0.0421 0.022206 -0.006566 0.12201 
0.079094 -0.043395 0.060022 0.01415 0.013821 0.015959 -0.013965 0.16064 
0.15999 -0.019226 0.076299 0.0032988 0.0036276 -0.017253 0.0047785 0.16821 
0.18317 0.048841 0.042429 0.025824 0.0067515 0.0051074 0.018425 0.12924 
0.10392 0.078436 0.013986 0.0095465 0.037826 -0.0032777 0.053281 0.079751 
-0.0021268 0.12908 -0.025638 0.01563 0.03092 0.0421 0.065612 0.00033937 
-0.040928 0.11198 -0.004593 0.0098754 0.032071 0.055254 0.017767 -0.011005 
-0.062467 0.10145 0.00033937 0.060844 0.055747 0.038812 0.025166 -0.033694 
-0.10258 0.084848 0.012999 0.079258 0.05772 0.015137 0.019247 -0.014458 
-0.1085 0.10803 0.017767 0.065283 0.046704 0.013164 0.047197 -0.036983 
-0.046354 0.071037 0.045718 0.033551 0.022864 0.038155 0.086657 -0.029748 
0.071859 0.014479 0.051636 0.032564 0.0067515 0.081231 0.073339 0.020233 
0.18185 -0.076935 0.082382 0.0227 0.0013258 0.084355 0.040456 0.041607 
0.23644 -0.10817 0.10195 -0.0047575 0.020727 0.041607 0.0011614 0.079916 
0.21309 -0.07414 0.10228 -0.004593 0.031414 0.038319 -0.0087034 0.072024 
0.11115 0.011355 0.045553 0.035524 0.033058 0.070873 0.027139 0.00099702 
0.0070803 0.072517 0.029934 0.016781 0.0075736 0.043745 0.053938 -0.052602 
0.011191 0.064296 0.032729 0.020562 0.034209 0.032564 0.0069159 -0.020048 
0.0080668 0.038977 0.033222 0.025166 0.053445 0.0083956 -0.0096899 0.038155 
-0.017417 0.036182 0.014315 0.075805 0.044567 -0.035667 -0.027447 0.11822 
0.0032988 0.018754 -0.0042642 0.059364 0.049335 -0.056877 -0.031392 0.20109 
-0.0049219 0.026646 0.034373 0.038483 0.054596 -0.0406 -0.013471 0.19287 
-0.015609 0.10639 0.043745 0.038648 0.056569 0.0074092 0.024508 0.13335 
-0.027282 0.12135 0.004943 0.10145 0.039141 0.0062583 0.067749 0.053445 
-0.04471 0.055911 0.01152 0.059035 0.059693 0.091425 0.1202 -0.033365 
-0.040764 0.028947 0.038812 0.026317 0.058213 0.080409 0.09833 -0.16868 
0.036017 -0.0091966 0.062652 -0.01528 -0.0068948 0.0028056 0.0324 -0.15059 
0.12135 0.015137 0.038319 0.0079024 -0.035832 -0.063289 -0.031886 -0.048327 
0.11757 0.076299 -0.0047575 0.036017 -0.004593 -0.068057 -0.028104 -0.0044286 
0.054267 0.085999 0.0052718 0.036675 0.03092 -0.00081153 0.067256 -0.010348 
0.0095465 0.050979 0.093891 -0.0050863 0.051472 0.077614 0.10885 -0.074304 
-0.015773 0.040128 -0.0011404 0.018096 0.0031344 0.068571 0.057555 -0.021528 
0.0024767 0.052787 0.019247 0.063803 0.035031 0.036839 0.041607 0.057391 
-0.0050863 0.060515 -0.017582 0.027632 0.02533 0.03947 0.048348 0.038812 
0.059364 -0.0034422 0.055911 0.0034632 0.0079024 0.036346 0.027139 0.05772 
0.13072 -0.023007 0.072846 -0.041093 0.031742 0.014479 -0.009361 0.11099 
0.14305 -0.0077169 0.062159 0.024015 0.019411 0.027139 -0.022185 0.14239 
0.14617 0.046868 0.035524 0.047197 0.046868 0.011355 -0.0083746 0.19501 
0.051965 0.059035 0.020562 0.059528 0.039305 0.011848 0.024673 0.18909 
0.028783 0.074326 -0.012156 0.06035 0.064461 0.0085601 0.029934 0.15999 
0.036346 0.040621 -0.0050863 0.061666 0.049499 -0.0027845 0.00066819 0.16623 
0.026974 0.072024 -0.0026201 0.03388 0.049664 -0.0047575 -0.021856 0.058213 
0.0079024 0.06035 0.022042 0.022206 0.039305 0.0026412 -0.035338 -0.01676 
-0.0021268 0.054432 0.040456 0.0092177 0.022535 -0.0059084 -0.0014692 -0.07003 
0.022864 0.021878 0.05476 0.0087245 0.0019835 -0.022185 0.027632 -0.087622 
0.048184 -0.031392 0.09685 -0.014129 -0.020048 -0.042079 0.046704 -0.12067 
0.071366 -0.01676 0.082875 0.030592 -0.0021268 -0.022679 0.062323 -0.1575 
0.045718 0.06183 0.010533 0.011355 0.0054362 0.015465 0.074819 -0.092061 
-0.018075 0.10376 -0.046519 0.048513 0.00066819 0.020398 0.047197 -0.035996 
-0.073482 0.10606 -0.025967 0.016945 0.026481 0.020069 0.034866 0.048677 
-0.04471 0.11691 0.030756 0.014315 0.031578 0.021056 0.036182 0.08156 
-0.0032777 0.095371 0.0592 0.022371 0.038648 0.061666 0.068407 0.087972 
0.00066819 0.073668 0.038648 0.049006 0.029441 0.097015 0.063145 0.11724 
0.0095465 0.082217 0.021384 0.026317 0.029605 0.08715 0.06035 0.14272 
0.032564 0.075148 0.049335 0.02681 0.035195 0.023357 0.031414 0.16722 
0.043251 0.022864 0.053445 0.0059294 0.013657 -0.017746 0.027961 0.11132 
0.063145 -0.014458 0.016616 0.027632 0.019576 -0.035338 0.0065871 0.053609 
0.037497 0.0074092 0.00297 0.041443 0.06742 0.0098754 0.0080668 -0.00015387 
0.028454 0.058213 -0.0055795 0.055911 0.046375 0.074326 0.035195 -0.02087 
0.014479 0.087314 -0.0019624 0.044896 0.037826 0.085177 0.070873 -0.04323 
0.016616 0.10277 -0.0078813 0.054432 0.023357 0.06035 0.059693 -0.049642 
0.0052718 0.08304 0.04095 -0.00015387 0.027468 0.063803 0.079258 -0.033859 
0.016616 0.047033 0.11247 0.0067515 0.026317 0.10754 0.064625 -0.028104 
0.022371 -0.011992 0.11954 -0.0026201 0.024179 0.12069 0.066105 0.022206 
0.035195 0.0083956 0.062488 0.037004 0.022864 0.094384 0.035524 0.050486 
0.027468 0.01563 0.026152 0.035853 0.016288 0.0023123 0.028619 0.12102 
0.020069 0.020891 0.028619 0.023522 0.0018191 -0.053095 0.0060938 0.099974 
0.033551 0.019576 0.042923 0.0060938 -0.020048 -0.12856 -0.030735 0.1003 
0.060022 0.022371 0.031085 0.029769 0.023193 -0.13547 -0.066906 0.071531 
0.078107 0.053609 0.028783 0.0026412 0.00099702 -0.064111 -0.085813 0.037826 
0.075476 0.087643 0.088465 0.020069 0.04506 0.025001 -0.059014 0.013164 
-0.0049219 0.045718 0.037332 0.037332 0.023193 0.011191 -0.050629 -0.019555 
-0.10949 0.083533 0.00050378 0.066434 0.05065 -0.0080457 -0.028269 -0.0088678 
-0.092554 0.09685 0.060022 0.0070803 0.035853 -0.057863 -0.024652 -0.012814 
-0.010019 0.067749 0.020727 0.023686 0.020562 -0.047834 0.062323 -0.016102 
0.067091 0.0082312 0.054103 0.028125 0.076299 0.079422 0.11477 -0.050793 
0.070051 0.0021479 0.039634 0.03799 0.065447 0.12447 0.13335 -0.021528 
0.032071 -0.0054151 0.046046 0.062159 0.042923 0.10195 0.095042 -0.040106 
-0.0013048 0.049828 0.01826 0.039963 0.06183 0.049992 0.076299 -0.066413 
0.014972 0.077614 0.022206 0.06183 0.05624 0.071695 0.056076 0.0083956 
0.055747 0.049828 0.028783 0.059857 0.012506 0.061666 0.01004 0.086492 
0.094548 -0.021363 0.054267 0.0014903 -0.010348 0.029605 0.0023123 0.12316 
0.061501 -0.011827 0.058213 -0.023501 0.014479 0.030592 0.010862 0.05624 
0.043087 0.0095465 0.05213 0.015794 0.036839 0.022371 0.0028056 0.026152 
0.028454 0.055747 0.0060938 0.067256 0.045553 0.035031 0.013821 -0.014951 
0.01152 0.070873 0.0028056 0.059364 0.037826 0.026481 0.01563 -0.019226 
0.0070803 0.085835 0.038155 0.021056 0.017767 -0.0034422 0.0011614 -0.03057 
-0.022514 0.094548 0.06035 0.0026412 -0.01232 -0.040271 -0.021363 -0.059836 
-0.032708 0.10672 0.013328 0.0074092 -0.022021 -0.064604 -0.038133 -0.013471 
-0.017253 0.074161 0.020562 -0.0057439 0.0083956 -0.048327 0.00050378 0.0018191 
0.044238 -0.01676 0.045553 0.0087245 0.07038 0.019576 0.069558 -0.0067304 
0.078929 -0.043888 0.069886 0.032236 0.084684 0.039799 0.086657 -0.021199 
0.095042 -0.059507 0.054596 0.085506 0.087314 0.060186 0.078765 0.0026412 
0.14601 -0.049314 0.019083 0.086492 0.096357 0.07301 0.035853 0.055911 
0.17725 0.010204 -0.011827 0.0592 0.080244 0.055747 -0.010019 0.12957 
0.14305 0.028125 0.0018191 0.018425 -0.0052507 0.007738 -0.028597 0.17708 
0.10359 0.047362 0.0034632 0.040621 -0.0096899 0.0034632 0.010204 0.15818 
0.0059294 0.052623 0.015301 0.037661 0.029276 0.063803 0.05213 0.13664 
-0.050629 0.085506 0.042594 0.019247 0.022042 0.073339 0.060022 0.060186 
-0.081045 0.071695 0.025001 0.036346 0.0074092 0.047526 0.057884 -0.015444 
-0.037476 0.073339 0.013492 0.03799 0.0059294 0.056076 0.046211 -0.1108 
0.010369 0.038648 0.010204 0.022864 0.026646 0.069558 -0.012978 -0.071016 
0.037332 0.07038 0.010204 -0.0019624 0.0032988 0.016123 0.0032988 -0.0075525 
0.064625 0.08008 0.030756 0.01267 0.028783 0.018754 0.029441 0.033058 
0.029605 0.10524 0.0044497 0.066105 0.040128 0.01974 0.061501 0.049006 
-0.033037 0.072024 0.018589 0.048513 0.061337 0.044731 0.067585 0.0075736 
-0.096994 0.090438 0.042265 0.043251 0.049992 0.044567 0.041114 0.010369 
-0.12593 0.094384 0.066927 0.025495 0.032071 0.050321 0.048677 0.01415 
-0.06707 0.079258 0.037661 0.049006 0.037826 0.048019 0.051143 0.065118 
0.090603 0.017932 0.030427 0.024837 -0.012485 0.031085 0.040456 0.13598 
0.23233 -0.050464 0.08978 -0.0029489 0.011026 0.022371 -0.010019 0.16541 
0.31404 -0.13497 0.13319 -0.030406 0.0014903 -0.0021268 -0.027447 0.13549 
0.24186 -0.12659 0.07038 0.018096 0.028783 0.045882 0.012835 0.10425 
0.18251 -0.020706 0.054103 0.025001 0.044567 0.050814 0.03388 0.05772 
0.093069 0.044731 0.0085601 0.039799 0.044896 0.055911 0.0082312 0.051636 
0.023028 0.08978 0.0016547 0.045389 0.068242 0.072846 0.036839 0.040621 
-0.043559 0.10819 0.022042 0.052952 0.04506 0.071695 0.093069 -0.026953 
-0.13925 0.10787 0.0065871 0.050979 0.0592 0.070544 0.11642 -0.091404 
-0.12725 0.080244 0.032236 0.035195 0.051801 0.055089 0.098823 -0.058028 
0.015301 0.023522 0.080409 -0.011992 0.031414 0.059693 0.057391 -0.023829 
0.087808 -0.0057439 0.09685 0.014643 0.012013 0.041607 0.064954 -0.017746 
0.067091 0.026974 0.029605 0.048184 0.032564 0.070708 0.094548 -0.096172 
0.023028 0.073175 0.0023123 0.041936 0.037826 0.045882 0.075476 -0.027118 
0.063474 0.020562 0.035195 0.0059294 0.01563 -0.032708 -0.0039354 0.10984 
0.10984 -0.016595 0.029276 -0.0075525 -0.043888 -0.07266 -0.045861 0.19566 
0.13565 0.0072447 0.024015 0.0062583 -0.029584 -0.045039 -0.040271 0.11773 
0.062817 0.088465 0.0067515 0.016781 0.029112 -0.0138 -0.02942 0.057555 
-0.0004827 0.11806 0.019411 0.018589 0.021384 0.018754 -0.0055795 0.065612 
-0.07825 0.13993 0.010204 0.061666 0.024673 0.039305 0.025001 0.031907 
-0.098144 0.10704 0.013492 0.047855 0.033551 0.037661 0.033715 0.020398 
-0.071345 0.067749 0.061995 0.034373 0.035031 0.047033 0.050486 -0.0019624 
-0.046025 0.067585 0.061666 0.03651 0.023522 0.013986 0.026646 0.028125 
-0.026296 0.028619 0.047855 0.060515 0.033222 -0.01528 0.0227 0.050486 
0.021384 -0.020706 0.03092 0.047855 0.046211 0.033715 0.069558 0.057555 
0.10918 -0.035503 0.045553 0.028619 0.043087 0.034044 0.033387 -0.0019624 
0.16327 0.011355 0.053938 0.0080668 0.023357 0.0074092 0.0052718 0.020727 
0.097672 0.037004 0.035524 0.0011614 0.012506 -0.032215 -0.016102 0.030756 
0.065612 0.037661 0.044567 0.0093821 0.03388 -0.023007 -0.0042642 0.007738 
0.022864 0.029441 0.03092 0.022535 0.021056 0.011848 0.035688 0.0042853 
0.010204 0.047691 0.01711 0.061008 0.039305 0.049335 0.066927 -0.050629 
0.036182 0.030427 0.0044497 0.0047785 0.025166 0.031249 0.079094 -0.020706 
0.10524 0.024673 0.054267 0.028619 0.015794 0.036346 0.060186 -0.0026201 
0.14305 0.017932 0.088301 -0.023336 -0.040764 0.0014903 0.073504 0.060844 
0.11559 0.030098 0.10359 -0.034352 -0.021034 0.00033937 0.049006 0.086821 
0.013657 0.064625 0.03947 0.0080668 -0.0078813 0.0054362 0.033058 0.08863 
-0.043395 0.06594 0.004943 0.04917 -0.0060728 1.0539e-005 0.029934 0.10195 
-0.057205 0.076627 0.0064227 0.039634 0.0070803 -0.0014692 -0.020377 0.13253 
-0.042737 0.10425 0.029769 0.03947 0.022371 0.016452 -0.020212 0.11099 
-0.042408 0.098494 0.0064227 0.041443 0.045718 0.030098 -0.006566 0.012999 
-0.047998 0.082546 0.025659 0.060844 0.054267 0.0016547 -0.00097594 -0.015444 
-0.023007 0.061008 0.015959 0.038977 0.050321 -0.032543 0.0098754 -0.038956 
-0.036983 0.082875 -0.0021268 0.048019 0.078107 -0.0042642 -0.011334 -0.055397 
-0.03501 0.099974 -0.10439 0.03651 0.069558 0.066434 0.00083261 -0.098638 
-0.038133 0.11444 -0.026624 0.069886 0.0324 0.068078 0.022371 -0.072332 
-0.014787 0.081724 0.049006 0.022864 0.038812 0.054596 -0.029091 0.0064227 
0.039141 0.059364 0.10754 0.018754 0.037497 -0.0036066 0.0044497 0.067256 
0.023522 0.041278 0.061995 -0.0095255 -0.016924 0.011191 0.044567 0.053445 
-0.0080457 0.015301 0.076134 0.038977 0.025659 0.03799 0.038977 0.0013258 
0.051143 -0.027118 0.10524 0.013986 0.031085 0.048841 0.061995 -0.010183 
0.12184 -0.056712 0.13384 0.022206 0.049828 0.04358 0.062323 0.0093821 
0.2297 0.027468 0.025495 0.044402 0.036346 0.0080668 0.051308 0.052459 
0.24417 0.024673 0.037661 0.043416 0.029276 -0.021363 0.019247 0.093069 
0.16081 0.0042853 0.066105 -0.016924 0.020233 -0.043559 -0.018239 0.085177 
0.065283 -0.014458 0.13351 0.0023123 -0.015938 -0.070359 -0.056712 0.072681 
-0.012978 0.015794 0.063145 0.0072447 -0.013965 -0.093376 -0.013471 0.089616 
-0.083512 0.06183 0.022864 0.028619 -0.0080457 -0.060987 -0.0054151 0.12792 
-0.14007 0.11313 0.0023123 0.041114 0.058706 0.055418 0.07449 0.10803 
-0.14517 0.11855 0.0069159 0.045718 0.055911 0.1516 0.14585 0.05213 
-0.14023 0.14798 -0.029913 0.025495 0.073832 0.15587 0.15308 0.0079024 
-0.063618 0.10129 -0.0016336 0.024179 0.031085 0.10935 0.07597 0.018918 
0.034702 0.039963 0.044402 -0.02087 0.01152 0.072681 0.017603 0.0067515 
0.078436 0.02829 0.042923 -0.013471 -0.011005 0.019905 -0.038298 -0.0098543 
0.12644 0.013328 0.023193 0.010697 0.012013 0.00033937 -0.0049219 -0.025474 
0.15818 0.031578 0.013164 0.035524 0.039141 -0.024487 0.032071 -0.044546 
0.099645 0.034537 0.033387 0.018589 0.031085 -0.046683 0.011191 -0.042573 
0.038483 0.036839 0.058049 0.012835 0.045718 -0.018568 0.010369 -0.010019 
-0.042737 0.057391 0.024673 0.033222 0.050321 0.0044497 0.0046141 -0.019555 
-0.091075 0.060515 0.023851 0.073668 0.069229 0.010862 0.051801 -0.073154 
-0.068386 0.039799 0.032071 0.058213 0.058377 0.017932 0.084026 -0.097158 
-0.014787 0.042265 0.060679 0.039141 0.049828 0.052952 0.11395 -0.085813 
0.050157 0.030592 0.030427 0.0044497 0.053774 0.060186 0.096521 -0.019555 
0.083697 0.010533 0.015794 0.052294 0.018918 0.040292 0.073175 0.086492 
0.13845 -0.027118 0.066434 -0.012814 -0.0026201 0.011026 0.044731 0.11395 
0.11526 0.012835 0.087314 -0.029584 -0.00064712 -0.048327 0.0227 0.051636 
0.021384 0.074161 0.023522 -0.029748 0.0098754 -0.030242 0.039305 0.016616 
-0.044546 0.080902 0.014315 0.017932 -0.011498 -0.053753 0.034044 -0.014293 
-0.014293 0.046704 0.023851 0.0085601 -0.0047575 0.0024767 -0.010348 0.05476 
0.013657 0.016945 0.062323 -0.003771 0.0080668 0.0786 -0.0004827 0.066927 
0.083204 0.0065871 0.020891 0.0072447 0.031249 0.12168 0.0032988 0.13417 
0.10408 0.066927 -0.017911 0.085835 0.061172 0.097672 0.01004 0.14913 
0.064461 0.067091 -0.0024557 0.079422 0.097179 0.085506 -0.0095255 0.18761 
0.050979 0.069558 0.036346 0.057555 0.095864 0.068242 0.048677 0.077943 
0.051472 0.064625 -0.011498 0.049006 0.013328 0.060186 0.017932 -0.012649 
0.12217 -0.03353 0.061666 0.015301 0.016452 0.0051074 0.023193 -0.035667 
0.11148 -0.035832 0.06183 0.0060938 0.023851 0.024015 0.043087 -0.084334 
0.023686 0.0080668 0.066434 0.030098 0.065612 -0.022021 0.067091 -0.094199 
-0.043066 0.01415 0.013821 0.05213 0.050979 -0.10176 0.027961 -0.066084 
0.017767 0.040128 -0.025474 0.08156 0.043745 -0.14878 0.0062583 -0.013636 
0.02533 0.10556 -0.031392 0.052952 0.034044 -0.060658 0.049992 -0.021034 
0.013164 0.12217 0.0036276 0.050321 0.026974 0.020727 0.063145 0.015137 
-0.0019624 0.10556 -0.023665 0.033551 0.0041209 0.088958 0.08008 0.013328 
0.0047785 0.070544 -0.0054151 0.041278 0.015794 0.095864 0.072681 0.044896 
0.037661 0.044567 0.020891 0.024179 0.047033 0.093233 0.038155 0.069558 
0.029769 0.018918 0.060186 0.016123 0.020069 0.1054 -0.020377 0.081724 
0.076956 0.014315 0.055747 0.0072447 0.020398 0.085506 -0.10702 0.075805 
0.15982 -0.033365 0.077121 -0.00015387 0.0079024 0.00033937 -0.13349 0.097672 
0.12579 -0.016266 0.056569 -0.0078813 0.025166 0.028947 -0.095678 0.10129 
0.013492 0.080902 0.040292 0.028125 0.02122 -0.0004827 -0.023007 0.026646 
-0.085485 0.16146 -0.046519 0.074819 0.058706 0.0056006 0.055582 0.0074092 
-0.090581 0.16771 -0.057534 0.10951 0.068078 0.00099702 0.069722 0.054267 
-0.07562 0.147 -0.040928 0.063145 0.036017 0.0036276 0.075148 0.10639 
-0.02087 0.063145 0.032564 0.03947 0.038812 0.070873 0.1128 0.10392 
0.056898 -0.039284 0.072188 -0.0090322 0.015959 0.1077 0.081395 0.073997 
0.13384 -0.088773 0.086492 -0.0096899 0.004943 0.043909 0.023851 0.086163 
0.11855 -0.05178 0.057555 -0.017582 -0.0088678 -0.0075525 -0.021034 0.046868 
0.083862 0.027303 0.032564 0.061337 0.025001 -0.00064712 0.034702 -0.036983 
0.11 0.034373 0.0026412 0.081889 0.051965 0.017932 0.047033 -0.083676 
0.14371 0.020562 0.0421 0.079587 0.055418 0.011848 0.013986 -0.032872 
0.14683 0.0085601 0.077121 0.032236 0.053938 0.027796 0.0042853 0.0021479 
0.11855 -0.0004827 0.091425 0.025659 0.026481 0.025166 -0.0031133 0.0046141 
0.043745 0.012013 0.043087 0.014972 0.0421 0.014315 -0.0075525 0.023193 
-0.030899 0.046868 0.01004 0.037168 -0.0088678 0.0013258 0.012835 0.066598 
-0.061316 0.090438 -0.0022913 0.020891 0.0024767 0.020727 0.020069 0.076299 
-0.07825 0.13203 0.014479 0.029605 0.018589 0.049335 0.023851 0.025824 
-0.11491 0.12595 -0.020212 0.045882 0.043745 0.062488 0.0095465 0.054103 
-0.11409 0.087643 0.025001 0.031907 0.010533 0.060679 0.031742 0.071859 
-0.058192 0.069886 0.062159 -0.011992 -0.0054151 0.031414 0.031742 0.056076 
0.031742 0.055911 0.097508 -0.019719 0.014808 0.014479 0.014643 0.078272 
0.070708 0.034373 0.065776 -0.027118 0.011026 0.018754 0.012342 0.066269 
0.088136 -0.00097594 0.048348 0.025495 0.012999 0.0024767 -0.0036066 0.046046 
0.082875 -0.012485 0.041772 0.082053 0.026646 0.055254 0.031907 0.0034632 
0.06594 0.050157 0.015465 0.048019 0.020891 0.053609 0.034044 0.021878 
0.045882 0.082053 -0.028269 0.038648 0.0036276 0.044402 0.076792 0.044073 
0.079587 0.02533 -0.0031133 0.061008 -0.0059084 0.062817 0.038648 0.095864 
0.12628 -0.026296 0.037497 0.037004 0.053116 0.060844 0.037661 0.10047 
0.14042 -0.008539 0.064132 0.0042853 0.041114 0.019083 0.043745 -0.0027845 
0.1373 0.015794 0.039963 -0.0021268 0.013328 0.037826 0.030756 -0.09387 
0.066105 0.040785 0.041607 0.02829 -0.011663 0.045389 0.070215 -0.16128 
-0.041751 0.093069 0.027632 0.033387 0.039634 0.02829 0.096357 -0.11705 
-0.19367 0.13417 0.03799 0.03799 0.039305 0.045718 0.12677 0.0039565 
-0.26256 0.13384 -0.0070593 0.050979 0.033058 0.079587 0.11674 0.059035 
-0.17427 0.067749 0.007738 0.056733 0.028125 0.058706 0.10836 0.049992 
0.024015 0.029605 0.040128 0.028125 0.048184 0.073175 0.020891 0.063968 
0.16607 -0.026296 0.12151 -0.0062372 0.004943 0.04654 -0.045203 0.10162 
0.24532 -0.083183 0.14338 0.0037921 0.016288 0.037168 -0.053095 0.094548 
0.20553 -0.045203 0.08715 -0.024323 0.024837 0.031085 -0.014951 0.048513 
0.076463 0.047526 0.0080668 0.03092 0.024179 0.027139 0.018754 -0.028269 
-0.011498 0.050157 -0.016102 0.049828 0.047691 0.04654 0.060844 -0.028104 
-0.027611 0.070051 0.00033937 0.03799 0.045553 0.07038 0.064625 0.041278 
-0.0054151 0.074326 0.023357 0.037497 0.040456 0.062323 0.03651 0.099481 
0.010862 0.04654 0.046375 -0.00015387 0.024837 0.0028056 -0.0087034 0.099316 
0.046211 0.045389 0.061008 0.014479 0.016616 -0.038133 -0.02087 0.081395 
0.078436 0.05772 0.0067515 0.040621 0.041772 -0.056548 -0.024652 0.046211 
0.050814 0.068407 0.0080668 0.064954 0.031414 -0.037805 -0.00015387 -0.015116 
0.039799 0.071366 0.013492 0.052952 0.034537 -0.029255 0.009711 -0.05326 
0.0067515 0.079258 0.040292 0.010697 0.010862 -0.012156 0.056898 -0.040271 
-0.0072237 0.047362 0.015465 0.022864 0.015137 0.007738 0.051801 -0.022843 
-0.016102 0.066434 0.0042853 0.049992 0.010369 0.027796 0.026646 -0.021034 
-0.034188 0.068078 0.015137 0.032236 0.051801 0.055418 0.055089 -0.027775 
0.01004 0.027961 0.036017 0.0095465 0.062652 0.037004 0.055254 -0.023994 
0.007738 0.035524 0.0079024 -0.0036066 0.040785 0.004943 0.036346 -0.041257 
0.025659 0.054267 0.034537 0.0034632 -0.021528 -0.029091 0.019083 0.036182 
0.055582 0.038812 0.053116 -0.013636 -0.017088 -0.0067304 0.0093821 0.099316 
0.080902 0.010369 0.077285 -0.0077169 0.03092 0.038483 0.0011614 0.16508 
0.13483 -0.015938 0.033387 0.0056006 0.038483 0.049335 -0.022843 0.14881 
0.087479 -0.030899 0.034044 0.055582 0.012013 -0.010841 -0.020212 0.13351 
0.048019 0.0088889 0.046704 0.034866 -0.0011404 -0.011827 -0.00064712 0.053938 
0.019905 0.070051 0.050814 0.031414 0.04358 0.0069159 0.058706 -0.03616 
0.018918 0.10441 0.00017495 0.031578 0.033715 0.017438 0.077285 -0.057534 
0.038812 0.071859 0.0074092 0.038648 0.033222 0.00050378 0.039799 -0.073482 
0.022042 0.06035 0.021384 0.047197 0.046046 0.0021479 0.044731 -0.10587 
-0.021528 0.034209 0.060844 0.029276 0.04506 0.061995 0.057884 -0.073482 
-0.012156 0.066763 0.0054362 0.025824 0.025166 0.044567 0.10063 0.010697 
-0.02942 0.066434 0.061995 0.044731 0.075312 0.037826 0.10967 0.060844 
-0.034681 0.084355 0.028619 0.030098 0.037661 0.007738 0.058213 0.050979 
-0.045368 0.060844 0.052459 0.030098 0.035688 -0.017417 0.0042853 0.07597 
-0.001798 0.011848 -0.0095255 0.034866 0.063968 0.0083956 -0.031886 0.083204 
0.059035 -0.0096899 0.013657 0.048019 0.051801 -0.021528 -0.037147 0.09274 
0.14831 -0.0040998 0.062488 0.015301 -0.022843 -0.054904 -0.059836 0.098166 
0.17182 -0.0022913 0.067749 -0.0075525 -0.05737 -0.090088 -0.073318 0.10556 
0.11987 0.055911 -0.023336 0.020562 -0.04471 -0.080223 -0.019226 0.042265 
0.049499 0.064954 -0.0078813 0.019905 -0.0064016 -0.028926 0.024837 -0.039778 
0.0062583 0.059364 0.0014903 0.032893 -0.0021268 0.024344 0.036675 -0.07266 
0.029441 0.084355 0.06331 -0.00097594 0.0065871 0.070544 0.027303 -0.043066 
0.022535 0.056733 0.022535 0.0036276 0.00083261 0.074983 0.034866 0.01974 
0.020233 0.0013258 -0.011334 0.04358 0.035853 0.084848 0.05476 0.065447 
0.017438 0.056569 0.027796 0.056404 0.050157 0.049499 0.046211 0.090438 
0.012506 0.056076 0.029769 0.038483 0.059528 0.014479 0.060844 0.051965 
-0.013307 0.056076 0.027139 0.038812 0.034866 0.0085601 0.056404 0.048841 
-0.032543 0.062159 0.026646 0.028454 0.022371 0.01152 0.052459 0.052294 
-0.018897 0.029605 0.019905 0.027468 0.029276 0.024344 0.062488 0.028947 
0.020233 0.027796 0.03388 0.010862 0.026317 0.093726 0.044402 0.007738 
0.018096 0.06035 -0.0013048 0.0095465 0.037826 0.098001 0.06183 -0.077264 
0.0036276 0.0689 -0.016431 0.024179 0.015301 0.07301 0.067913 -0.095349 
0.033058 0.036017 0.0034632 0.050157 0.016288 0.037168 0.076627 -0.11163 
0.10014 0.0064227 0.055418 0.014808 0.025988 -0.014787 0.046375 -0.042573 
0.092904 -0.0050863 0.054925 0.017603 0.018754 -0.02235 0.04358 0.037332 
0.079258 0.02533 0.054925 0.026152 0.030592 -0.023501 0.014972 0.10129 
0.030427 0.054596 0.037168 0.067913 0.032893 -0.0052507 -0.029913 0.076299 
0.037168 0.080244 0.068407 0.031414 0.069722 0.024508 -0.061151 0.10573 
0.00017495 0.092411 0.010862 0.017603 0.037168 0.038155 -0.040435 0.13335 
-0.013965 0.080902 -0.0036066 0.032236 0.038155 0.078765 0.017438 0.14437 
-0.014622 0.058871 0.0021479 0.062981 0.034044 0.047691 0.045718 0.14897 
0.041607 0.060844 0.041936 0.029769 0.04917 0.056076 0.050979 0.059528 
