0.095042 0.026481 0.005765 0.027468 -0.0032777 -0.23855 0.047197 0.0032988 
0.05476 0.01826 0.033387 0.017767 -0.20238 -0.26601 0.049335 0.00297 
-0.00064712 0.010862 0.0069159 0.015137 -0.22096 -0.25434 0.026646 0.004943 
-0.05589 0.020069 0.0070803 0.013986 -0.1598 -0.20419 -0.0044286 -0.0090322 
-0.07003 0.033222 0.0065871 0.021056 -0.1353 -0.16835 0.018589 0.033058 
-0.067728 0.016945 0.036839 0.018096 -0.096336 -0.17049 0.011191 0.063803 
-0.011827 0.038155 0.028125 0.0082312 -0.12116 -0.14319 -0.0034422 0.046375 
0.0082312 0.059528 0.021384 0.012013 -0.092061 -0.10209 -0.00097594 0.027961 
0.045553 0.041114 -0.00081153 0.013328 -0.07825 -0.066906 -0.1085 0.0079024 
-0.05326 0.036346 0.029441 0.020069 -0.059507 -0.069043 -0.13218 -0.048985 
-0.11163 0.02122 0.040128 0.0087245 -0.019226 -0.090746 -0.09091 -0.069372 
0.029112 0.02829 0.045553 0.023357 0.0056006 -0.057205 0.025495 0.0421 
0.17067 0.065447 0.014479 0.03388 0.026152 -0.06148 0.081395 0.10343 
0.12085 0.029441 0.023686 0.027961 0.0227 -0.052437 0.078765 0.047691 
-0.0078813 0.037497 0.019411 0.046046 0.019411 -0.037805 0.044567 0.012013 
-0.042244 0.021056 0.01974 0.01267 0.030098 -0.042737 0.070051 -0.021199 
-0.067892 -0.00064712 0.034209 0.0324 0.011684 -0.040435 0.055911 -0.046025 
-0.034023 0.034537 0.01563 0.014972 -0.0062372 -0.034845 0.03092 -0.041586 
0.014643 0.04358 0.01415 0.024508 -0.015444 -0.0044286 0.020233 -0.022021 
0.053938 0.045224 0.023851 0.020398 0.00050378 0.02122 0.0018191 0.033715 
0.076299 0.068571 0.034209 0.055089 0.04095 0.020233 0.019083 0.10491 
0.072024 0.069229 0.037497 0.025166 0.015137 0.073997 0.038648 0.097508 
0.057391 0.042594 0.0421 0.023357 -0.062467 0.079916 0.04358 0.056898 
0.014808 0.037332 0.013821 -0.0040998 -0.1723 0.057884 0.023357 0.091753 
0.0031344 0.0075736 0.014972 0.00066819 -0.19087 0.039141 -0.014293 0.13319 
0.017932 0.02829 0.024673 -0.0070593 -0.1815 -0.07973 -0.019061 0.089452 
0.050814 0.024837 0.022371 0.026152 -0.10324 -0.15618 0.027961 0.011684 
0.080409 -0.00064712 0.053281 0.025495 -0.00081153 -0.28738 0.0051074 -0.10834 
0.0098754 0.036017 0.043909 0.043745 0.023686 -0.52957 -0.031886 -0.34707 
-0.060494 0.031907 0.043909 0.0093821 0.1271 -0.57774 -0.081374 -0.44259 
-0.054739 0.038155 0.038977 0.043745 0.31305 -0.26897 -0.087786 -0.20255 
-0.0049219 0.074819 0.057884 0.039305 0.40661 0.25814 -0.017253 0.13795 
0.0056006 0.064625 0.056898 0.091096 0.3466 0.80087 0.046375 0.36632 
0.034702 0.078107 0.048184 0.056569 0.22378 0.98584 0.064625 0.39049 
0.015301 0.06331 0.022206 0.070544 0.013328 0.70568 0.1008 0.27524 
-0.042737 -0.00081153 -0.0072237 -0.023501 -0.0067304 0.26883 0.23003 0.19731 
-0.050629 0.018754 -0.012156 0.019411 0.041114 -0.043066 0.1853 0.1539 
0.090931 0.057227 0.019247 -0.025309 -0.051451 -0.41628 0.20487 0.17248 
0.11198 0.062981 0.026317 0.0013258 -0.15668 -0.43651 0.061501 0.057227 
-0.068386 0.10556 0.057062 0.019905 -0.076935 0.005765 0.049664 -0.10982 
0.018425 0.10639 0.069722 0.07301 0.069393 0.52745 0.079094 -0.11376 
0.46004 0.075805 0.058213 0.03799 0.049664 1.0917 0.01563 -0.00015387 
0.53304 0.029112 0.044896 0.067585 0.01563 1.1207 -0.041751 -0.19433 
0.14354 -0.016266 0.024837 0.012342 -0.058521 0.58319 -0.037969 -0.53548 
-0.14961 -0.02942 0.01267 0.020069 -0.06444 0.28461 0.032729 -0.25368 
-0.25878 0.038155 0.032236 0.00033937 0.01563 0.06742 0.028947 0.22641 
-0.29133 0.029276 0.046375 0.017603 0.067913 -0.10949 0.031414 0.41548 
-0.05737 0.07449 0.023851 0.033222 0.18991 -0.37699 0.0324 0.41581 
0.24367 0.092082 0.023193 0.072517 0.19484 -0.53351 0.050814 0.29776 
0.19418 0.047691 0.0080668 0.026317 0.13368 -0.42089 0.0092177 0.026481 
-0.017911 0.050979 0.034209 0.056404 0.13467 -0.23888 0.013821 -0.14369 
-0.09387 0.064132 0.029276 0.0324 0.073997 -0.027118 0.049006 -0.091732 
-0.004593 0.086657 0.037497 0.075641 0.047855 0.12184 0.073504 0.015959 
0.088465 0.087808 0.020891 0.039963 0.10277 0.2389 0.10047 0.019411 
0.10014 0.05213 0.027468 0.035853 0.16442 0.30944 0.16689 -0.0055795 
0.06742 0.044567 0.01826 0.034209 0.19205 0.29448 0.12102 -0.0406 
0.040292 0.061666 0.037168 0.035688 0.17577 0.26801 0.069722 -0.041915 
0.053116 0.042429 0.042594 0.034702 0.11181 0.21819 0.027961 0.025659 
0.067256 0.048513 0.034209 0.028454 0.044238 0.15275 0.022206 0.10573 
0.055418 0.047526 0.028619 0.019576 0.00017495 0.1396 0.061008 0.11313 
0.0592 0.041772 0.018589 0.015465 0.0085601 0.14075 0.040456 0.11411 
0.05213 0.06594 0.024015 0.014315 0.016616 0.14502 0.019905 0.087643 
0.06479 0.03651 0.019905 0.0041209 0.01711 0.072188 0.028125 0.06742 
0.073668 0.023357 0.01974 0.027961 0.0039565 0.00017495 -0.020212 0.087972 
0.060186 0.045718 0.020727 0.019247 0.025988 -0.0004827 -0.015609 0.10343 
0.0421 0.044402 0.035853 0.0041209 0.047362 0.0014903 -0.010019 0.083533 
0.01826 0.026481 0.023193 0.0093821 0.04358 0.048019 -0.0077169 0.014972 
0.013657 0.064954 0.031907 0.013328 0.039963 0.030427 0.0054362 0.014808 
0.0046141 0.021549 0.025166 0.0052718 0.023686 -0.046847 0.012013 0.018918 
0.039963 0.035853 0.039305 0.017767 -0.020377 -0.11903 0.0056006 0.012342 
0.03651 0.035853 0.02122 0.016452 -0.095021 -0.20995 0.035853 0.058377 
0.055254 0.022371 0.023522 0.046375 -0.12494 -0.20814 0.013986 0.0074092 
0.035688 0.049335 0.023522 0.026974 -0.10275 -0.19778 0.0082312 -0.1815 
0.011848 0.031907 0.039963 0.028619 -0.078744 -0.14961 0.023193 -0.29495 
-0.00064712 0.042594 0.029112 0.0028056 -0.12971 -0.11245 -0.0096899 -0.17377 
0.016945 0.055089 0.01826 0.016781 -0.1695 -0.1667 -0.059672 0.049992 
-0.011334 0.030427 0.017767 -0.016266 -0.09387 -0.27884 -0.017253 0.17396 
0.021878 0.033222 0.060844 0.030263 0.093891 -0.27292 0.020562 0.19188 
-0.022185 0.054267 0.032729 0.05213 0.22575 -0.23346 0.047691 0.14058 
-0.011005 0.027796 0.036346 0.077943 0.22624 -0.059507 0.035031 0.10195 
0.020069 0.048019 0.043416 0.05065 0.10326 0.055418 -0.034681 0.081067 
0.047526 0.030592 0.031742 0.066598 0.029934 0.095864 -0.036818 0.058871 
0.069229 0.034044 0.082053 0.048184 -0.08269 0.041772 -0.084663 0.04358 
0.04358 0.065776 0.039963 0.035524 -0.21636 -0.018404 -0.037805 0.04654 
0.015794 0.072681 0.032236 0.020398 -0.21258 -0.014129 -0.0027845 0.0034632 
0.0021479 0.032893 0.036182 0.045718 0.0095465 -0.06855 -0.0075525 -0.0077169 
-0.003771 0.052623 0.031907 0.036346 0.26554 -0.07266 0.01826 0.0085601 
-0.010348 0.036182 0.012999 0.018918 0.19994 -0.065755 0.036182 -0.024652 
0.040621 0.038319 0.0014903 -0.036654 0.049664 -0.03764 0.060844 -0.0098543 
0.041278 0.050157 0.0064227 0.021713 -0.052437 -0.11278 0.061995 0.028125 
0.043087 0.033551 0.02829 0.031414 -0.12823 -0.21734 0.015465 0.0067515 
0.037004 0.054925 0.043909 0.042265 -0.21718 -0.206 -0.017088 0.026152 
0.015301 0.044567 0.034209 0.016616 -0.18002 -0.12905 0.011191 0.055911 
0.02829 0.029112 0.031742 0.046868 -0.042408 -0.025638 -0.011663 0.016452 
0.023686 0.032236 0.02533 0.022535 0.069558 0.051965 0.022371 0.0064227 
0.012342 0.039141 0.035853 0.037168 0.083862 0.078272 0.029934 0.009711 
1.0539e-005 0.027961 0.028454 0.020891 0.052623 0.076134 0.01152 -0.0013048 
0.016616 0.048019 0.037661 0.054432 0.057884 0.086492 0.024508 0.01004 
0.030592 0.012835 0.033222 0.03388 0.1271 0.072188 0.01563 0.050157 
0.01415 0.035853 0.0421 0.049828 0.15785 0.088136 0.025001 0.0039565 
0.026317 0.070215 0.049828 0.034044 0.20027 0.074983 0.033551 -0.10801 
0.042758 0.062981 0.043909 0.051636 0.1932 0.068078 0.028619 -0.10653 
0.054925 0.066927 0.051801 0.046211 0.15538 0.066434 0.040292 0.047362 
0.033222 0.051308 0.043745 0.058377 0.041114 0.088465 0.090438 0.15686 
0.052459 0.029276 0.025988 0.022206 -0.011334 0.094055 0.10359 0.17347 
0.033715 0.05772 0.0098754 0.030098 0.009711 0.10655 0.098823 0.16492 
0.054267 0.023028 0.016616 -0.0022913 -0.021199 0.10639 0.10556 0.093069 
0.035688 0.02829 0.026152 0.036675 0.021713 0.1368 0.089287 0.044896 
0.028454 0.037168 0.02122 0.016945 0.065447 0.13171 0.070708 0.018096 
0.045389 0.044896 0.062652 0.061501 0.044073 0.13467 0.050814 0.0065871 
0.027961 0.053116 0.060186 0.035031 0.068736 0.053609 0.045718 0.043909 
0.05772 0.069722 0.050321 0.069722 0.1761 -0.010019 0.019083 0.089287 
0.034866 0.047526 0.058049 0.046046 0.11444 -0.091404 -0.056055 0.038155 
0.018589 0.050814 0.042429 0.051965 -0.021034 -0.098638 -0.08121 -0.069701 
0.00017495 0.029276 0.038483 -0.0072237 -0.11508 -0.079401 -0.089759 -0.16424 
0.0021479 0.023522 0.01004 0.0088889 -0.12346 -0.054082 -0.17673 -0.18265 
0.0069159 0.039305 0.024673 -0.0031133 -0.10308 0.019576 -0.16292 -0.058192 
0.07449 0.038319 0.023851 0.0039565 -0.091568 0.0098754 0.0059294 0.10162 
0.048513 0.053116 0.032729 -0.0064016 -0.059014 0.19303 0.16294 0.011684 
0.048348 0.078929 0.034209 0.031085 -0.041422 0.28708 0.21358 -0.12429 
0.059693 0.056076 0.042594 0.043087 0.029441 0.27261 0.16985 -0.057534 
0.065118 0.034702 0.050157 0.043251 -0.0075525 0.30138 0.075476 0.17215 
0.076627 0.060022 -0.0054151 0.045718 -0.07562 0.24959 0.04506 0.26094 
0.065447 -0.0032777 0.034209 0.026481 -0.12478 0.035853 0.011355 0.22312 
0.034044 0.040128 0.044238 0.021056 -0.054246 -0.093376 0.045718 0.14206 
0.028619 1.0539e-005 0.046375 0.025166 0.091096 -0.12642 0.092904 0.08863 
0.0018191 -0.003771 0.064954 0.027961 0.25469 -0.19318 0.052623 0.063474 
-0.047505 0.032236 0.046375 0.0095465 0.46859 -0.15898 0.016123 0.037661 
-0.006566 0.031742 0.066269 0.025988 0.59979 0.046046 0.033551 -0.051287 
0.024015 0.051801 0.059693 0.047033 0.48914 0.24203 0.048348 -0.15289 
0.084026 0.085012 0.081889 0.055582 0.30977 0.40694 0.016123 -0.20008 
0.097179 0.064625 0.075148 0.05213 0.11773 0.45544 -0.013307 -0.1455 
0.063474 0.060844 0.059857 0.032893 -0.015938 0.35087 0.00083261 -0.055232 
0.054432 0.03947 0.051308 0.017438 -0.21077 0.32407 -0.0064016 -0.040435 
0.045224 0.01415 0.040785 0.0080668 -0.36729 0.21605 -0.076277 -0.076277 
0.02122 0.030263 0.046375 -0.0091966 -0.40231 -0.16901 -0.075455 0.043251 
0.026481 0.03536 0.066434 0.0085601 -0.29232 -0.413 0.020398 0.31749 
0.02829 0.039799 0.05624 0.019083 -0.16572 -0.40889 0.076956 0.45116 
0.0421 0.066598 0.073504 0.03651 -0.0047575 -0.23083 0.075805 0.3096 
0.030263 0.040292 0.06183 0.037497 0.16048 -0.062467 0.046375 0.095371 
0.037004 0.050321 0.063474 0.05213 0.2731 0.065283 0.040456 -0.036983 
0.060844 0.072188 0.050321 0.042758 0.25748 0.11707 0.068571 -0.097651 
0.065283 0.034866 0.056733 0.051801 0.12809 0.12875 0.05772 -0.060823 
0.055254 0.026646 0.077449 0.021384 -0.0031133 0.087972 0.046704 -0.030242 
0.032564 0.052623 0.059035 0.037168 -0.0095255 0.11083 0.050979 -0.0004827 
-0.0059084 0.048019 0.036675 0.0018191 0.0072447 0.10392 0.0051074 -0.010183 
-0.028762 0.037826 0.059035 0.030756 -0.010348 0.10688 -0.0067304 -0.048327 
-0.0064016 0.04358 0.039634 0.011026 -0.0004827 0.078107 0.043416 0.0056006 
0.027139 0.040128 0.060679 0.030263 0.017932 0.062817 -0.012978 -0.021528 
0.046046 0.066927 0.048184 0.0082312 0.042758 0.054432 -0.047341 0.019905 
0.059857 0.045718 0.055747 0.039634 0.026481 0.040292 -0.013965 0.071366 
0.076463 0.043251 0.064132 0.034537 0.016452 0.030427 0.065776 0.028947 
0.03536 0.057227 0.062488 0.052623 0.020069 0.022535 0.12332 -0.038133 
0.018754 0.026646 0.063803 0.012177 0.037004 -0.010512 0.11592 -0.024652 
0.0082312 0.052459 0.071037 0.041443 0.047033 0.0019835 0.078107 0.080409 
0.025495 0.024508 0.030592 -0.0013048 0.048019 -0.01939 0.084848 0.13171 
0.016945 0.028783 0.057062 0.034537 -0.0070593 -0.040106 0.11691 0.078107 
0.0016547 0.061501 0.058542 0.02122 -0.020541 -0.096665 0.085341 0.034044 
0.0082312 0.054925 0.052294 0.035031 -0.010019 -0.2739 0.06479 0.024837 
0.038483 0.045224 0.064954 0.029112 0.030263 -0.5123 -0.0042642 0.056569 
0.081724 0.059364 0.05624 0.03651 0.025659 -0.62542 -0.10916 0.08978 
0.05624 0.048348 0.06183 0.014808 -0.022021 -0.44555 -0.14911 0.069064 
0.052623 0.0098754 0.048348 0.024015 -0.090581 -0.15487 -0.11031 0.079587 
0.020891 0.056076 0.039963 -0.013143 -0.097651 0.15851 0.0031344 0.057884 
0.036839 0.0421 0.036182 0.047362 -0.061316 0.40085 0.076792 0.033222 
0.041607 0.046704 0.071202 0.029112 0.017767 0.50427 0.1225 -0.034188 
0.031085 0.064132 0.086163 0.093233 0.17412 0.84609 0.22049 -0.032215 
0.050814 0.063145 0.083697 0.049664 0.19895 0.99455 0.23446 0.028783 
0.031414 0.070215 0.053281 0.048184 0.066927 0.38063 0.17117 0.10902 
0.023686 0.024015 0.038483 0.009711 -0.018568 -0.31386 0.079751 0.10606 
0.012835 0.021713 0.044238 0.044238 -0.021363 -0.70549 -0.010841 0.13105 
0.0023123 0.04506 0.03947 0.0046141 0.026152 -0.7609 -0.096665 0.087479 
-0.023501 0.03799 0.026974 0.03799 -0.00097594 -0.67787 -0.1718 0.091425 
-0.00081153 0.037168 0.023686 0.0016547 -0.075455 -0.50885 -0.14665 0.11066 
0.0026412 0.050157 0.024837 0.02122 -0.12955 -0.22145 -0.0091966 0.042923 
0.02122 0.034373 0.028619 0.013164 -0.12889 -0.0083746 0.03947 -0.18643 
0.018754 0.033222 0.053774 0.012506 -0.11475 0.17856 -0.012978 -0.61621 
0.03651 0.038483 0.039799 0.018425 -0.10209 0.2851 -0.014787 -0.53335 
0.07449 0.021878 0.058049 0.016781 -0.047669 0.32835 0.0088889 -0.010019 
0.051472 0.032564 0.070215 0.023851 -0.017746 0.32539 0.058706 0.3295 
0.01152 0.044731 0.0324 0.039305 0.0011614 0.26406 0.099316 0.36041 
-0.048327 0.039634 0.029112 0.020398 -0.0021268 0.12036 0.089123 0.22526 
-0.031392 0.034044 0.03388 0.00066819 -0.0059084 -0.015609 0.047691 0.13088 
-0.014951 0.035853 0.0082312 -0.008539 0.027468 -0.086636 0.037004 0.093891 
0.00297 0.033058 0.02829 0.013492 0.096686 -0.13497 0.023851 0.046704 
-0.0040998 0.057391 0.060679 0.0324 0.21753 -0.16506 0.058049 0.062488 
0.036017 0.025166 0.03947 0.074161 0.3096 -0.10604 0.031907 0.030098 
0.049664 0.041114 0.040456 0.073832 0.24236 -0.13547 -0.00097594 -0.0022913 
0.020891 0.052294 0.053281 0.049992 0.14223 -0.18627 -0.043395 -0.016431 
0.00066819 0.027961 0.039141 0.024015 0.061337 -0.0088678 -0.035338 0.0031344 
0.026481 0.063803 0.023522 0.0059294 -0.018404 0.21293 -0.0042642 0.038483 
0.036182 0.046704 -0.0057439 0.0074092 -0.11903 0.46826 0.035688 0.040456 
-0.023665 0.024508 0.018589 -0.010841 -0.13152 0.5651 0.015959 0.025166 
0.032893 0.081395 0.0090533 0.022371 -0.011334 0.39329 0.041278 0.034373 
0.16541 0.066269 0.020233 0.032236 0.08978 0.21671 0.078107 0.11313 
0.16459 0.022864 0.0042853 0.032071 0.063639 0.069064 0.037661 0.11395 
0.044073 0.058542 0.013986 0.029769 0.096028 -0.088115 -0.0072237 0.041443 
0.02681 0.043745 0.0067515 0.034866 0.10244 -0.13793 -0.049314 -0.056055 
0.080409 0.035524 0.0041209 0.037826 0.058706 -0.15289 -0.017582 -0.29561 
0.11362 0.061008 0.013657 0.04506 0.01974 -0.1455 0.016781 -0.34707 
0.13582 0.034209 0.0062583 0.05065 0.0041209 -0.077922 0.060022 -0.06148 
0.074819 0.04358 0.020398 0.025659 0.022042 0.032729 0.080902 0.18678 
0.015137 0.037332 0.031249 0.0088889 0.11329 0.15801 0.10721 0.2662 
-0.032543 0.037168 0.01711 0.028454 0.18892 0.15818 0.077449 0.15966 
-0.023501 0.050979 0.016288 0.025166 0.19237 0.12365 0.028947 0.016781 
-0.023172 0.03536 0.015959 0.040785 0.053116 0.086821 -0.024323 -0.085156 
-0.06707 0.036839 0.014808 0.02681 -0.046354 0.06742 -0.043559 -0.030242 
-0.10686 0.053281 0.038977 0.043251 -0.01939 0.070215 -0.0062372 0.096028 
-0.11491 0.028783 0.0069159 -0.0029489 0.04095 0.037826 -0.022679 0.13993 
-0.064768 0.015959 0.0011614 0.011355 -0.0090322 0.0090533 0.0051074 0.12497 
0.061172 0.060844 0.01711 0.0032988 -0.019719 0.0016547 0.087314 0.12694 
0.19862 0.085177 0.039141 0.058871 0.0074092 -0.025638 0.090767 0.12398 
0.20257 0.086985 0.047855 0.049499 0.062981 -0.03912 0.043909 0.033551 
0.12875 0.05772 0.039963 0.053938 1.0539e-005 -0.13316 0.033387 -0.042901 
0.048513 0.046046 0.019576 0.026317 0.037826 -0.20896 0.035195 -0.14122 
0.0072447 0.054925 0.011848 0.022206 0.0041209 -0.1815 0.031907 -0.26289 
0.0090533 0.023851 -0.023336 -0.021199 -0.18101 -0.086471 -0.0070593 -0.16358 
-0.0019624 0.015301 -0.023007 0.014643 -0.22409 0.074326 -0.040106 0.074819 
0.012835 0.044402 0.022042 0.010533 -0.13119 0.13746 0.01563 0.20454 
0.053938 0.034209 0.036017 0.066434 0.10688 0.10507 0.055418 0.20701 
0.024837 0.036346 0.028947 0.051308 0.43669 0.05476 0.096686 0.12973 
0.011848 0.042265 0.042923 0.073339 0.5674 0.051143 0.1054 0.024837 
-0.07003 0.03536 0.030756 0.034702 0.39691 0.11937 0.072681 -0.022021 
-0.2134 0.04917 0.068078 0.077778 0.22937 0.092247 0.027796 -0.013143 
-0.20205 0.055254 0.060186 0.078107 0.090931 -0.012814 -0.004593 0.0083956 
0.16031 0.075312 0.063145 0.099316 -0.076277 -0.0087034 -0.012649 0.12792 
0.49605 0.08863 0.041607 0.038648 -0.24743 0.005765 0.023193 0.13467 
0.3341 0.012835 0.0080668 0.037168 -0.26815 -0.042901 -0.034516 0.0039565 
-0.074962 -0.010676 0.0042853 -0.019226 -0.20781 -0.17082 -0.094034 -0.068386 
-0.034188 0.047362 0.013492 0.022535 -0.15618 -0.39064 -0.032215 0.064461 
0.18909 0.088301 0.0324 -0.0072237 -0.02498 -0.51411 0.043087 0.11214 
0.13335 0.064625 0.03388 0.029276 0.1738 -0.28919 0.09685 0.0031344 
-0.019226 0.027139 0.012835 0.015959 0.10803 -0.013965 0.14026 -0.081539 
-0.10982 0.0026412 0.0070803 0.019247 -0.08532 0.14174 0.052459 -0.0771 
-0.1205 0.020398 -0.0013048 0.0060938 -0.14073 0.42749 0.024179 -0.033201 
-0.063289 0.032564 0.020562 0.050979 -0.0064016 0.89508 0.089287 0.069393 
-0.0050863 0.047197 0.034044 0.02829 0.12085 1.0269 0.079422 0.079422 
0.011026 0.076463 0.039305 0.050979 0.21868 0.79166 0.095535 0.038977 
0.070544 0.041772 0.027468 0.08419 0.29069 0.54965 0.12118 -0.042901 
0.08567 0.03388 0.048184 0.071366 0.26702 0.43028 0.11937 -0.012978 
0.094055 0.018425 0.048348 0.0421 0.079587 0.038648 0.094384 0.072188 
0.044402 0.025001 0.038483 0.014972 -0.089431 -0.5613 -0.010512 0.16179 
-0.015938 0.042758 0.055582 0.013164 -0.15651 -0.85165 -0.079237 0.16344 
0.0082312 0.053116 0.028125 0.0060938 -0.086471 -0.74807 -0.11409 0.028947 
0.049499 0.040292 0.024015 0.013986 0.044238 -0.45903 -0.206 0.039634 
0.099974 0.08156 0.018589 0.019905 0.11526 -0.182 -0.24151 0.18054 
0.11494 0.061995 0.0082312 0.048019 0.10047 0.0085601 -0.10719 0.20224 
0.087808 0.05624 0.02681 0.015465 -0.043888 0.089123 0.0689 0.16475 
0.049664 0.069886 0.031085 0.032729 -0.14352 0.098494 0.20947 0.13171 
0.060844 0.060679 0.025166 0.026317 -0.073482 0.16558 0.24252 0.060515 
0.048184 0.041443 0.058377 0.037826 0.15818 0.28576 0.18728 -0.18808 
0.0079024 0.05476 0.032893 0.019576 0.26505 0.34495 0.086328 -0.38274 
0.024344 0.044402 0.013492 0.023028 0.18892 0.36106 -0.0068948 -0.24464 
0.038155 0.037004 0.01267 0.019905 -0.02498 0.2879 0.02122 0.042923 
0.041443 0.034044 0.013328 0.040785 -0.10472 0.17215 0.088794 0.1562 
0.043416 0.030098 0.014315 0.033551 -0.09239 0.13351 0.10787 0.052952 
0.073668 0.066269 0.012835 0.036017 -0.12067 0.038483 0.081395 0.020398 
0.079587 0.042758 0.0046141 0.028783 -0.075127 0.026481 0.053774 0.041607 
0.035853 0.033058 0.01711 0.037332 0.084026 -0.017911 -0.031557 -0.0080457 
-0.019061 0.042429 0.016123 0.015794 0.15966 -0.048163 -0.06444 -0.0406 
-0.10423 0.013164 0.012835 0.023686 0.082217 -0.081703 -0.052931 0.011684 
-0.15141 0.012342 0.0034632 0.0047785 -0.036983 -0.11097 -0.012485 0.092247 
-0.022514 0.044238 -0.015444 0.0046141 -0.12297 -0.055726 0.028454 0.12579 
0.085506 0.01974 0.0059294 -0.017417 -0.12823 -0.028104 0.033715 0.14963 
0.1299 0.055747 0.0083956 0.012506 -0.082854 -0.040435 0.023193 0.17034 
0.12694 0.066927 0.042429 0.0070803 -0.022679 -0.036654 0.065612 0.17018 
0.079916 0.042923 0.031742 0.048184 0.027468 -0.039613 0.01563 0.12513 
0.074983 0.051636 0.009711 0.04095 0.020398 -0.032872 0.018096 0.070873 
0.040456 0.027796 0.0051074 0.04358 0.016616 -0.081703 0.03651 0.026317 
0.020891 0.038977 0.024015 0.014479 0.0088889 -0.099624 0.055089 -0.001798 
0.014808 0.069886 0.02122 0.047691 0.0016547 -0.11064 0.046868 -0.029091 
0.0023123 0.05213 0.022371 0.01974 -0.018568 -0.15503 0.017603 -0.038462 
-0.03501 0.016288 0.0026412 0.027796 -0.023501 -0.12067 0.017274 -0.014622 
-0.011992 0.03388 0.00033937 0.009711 0.020069 -0.17213 0.046046 0.041607 
-0.0034422 0.018096 0.026974 0.035853 0.053281 -0.50869 0.026974 -0.003771 
0.00017495 0.051801 0.027139 0.045389 0.044073 -0.80447 0.037661 -0.076277 
-0.013965 0.023522 0.017767 0.054925 0.016945 -0.79263 0.050157 -0.1575 
0.015301 0.031085 0.0064227 0.026646 0.0036276 -0.45065 0.036675 -0.12478 
0.015959 0.054267 0.031742 0.04095 -0.0019624 0.10951 0.051636 -0.032708 
0.019247 0.044731 0.01152 0.030592 -0.036489 0.68726 -0.048492 0.045553 
0.015137 0.0092177 0.0074092 0.026974 -0.073976 0.98058 -0.11787 0.015137 
0.0095465 0.024673 -0.001798 0.0028056 -0.086307 1.0028 -0.027447 -0.032543 
0.0065871 0.014315 -0.013307 0.0021479 -0.06855 0.84691 0.074326 -0.015116 
0.01152 0.017603 -0.0052507 -0.026296 -0.066248 0.4505 0.14124 0.044731 
0.0037921 0.032564 -0.011663 0.020233 0.027632 -0.077757 0.18481 0.11 
0.039799 0.019083 0.039963 0.044073 0.22592 -0.48106 0.16607 0.11313 
0.051636 0.052459 0.04506 0.10869 0.42732 -0.60569 0.12924 0.056076 
0.032729 0.077943 0.047855 0.077778 0.37833 -0.50803 0.069393 -0.0080457 
0.030427 0.057227 0.0064227 0.055911 0.13878 -0.32602 0.020398 -0.014951 
0.030756 0.074819 0.036182 0.029276 -0.10982 -0.20797 0.028619 0.011355 
0.021384 0.028783 0.017438 0.020069 -0.18446 -0.11837 0.017603 0.03651 
-0.014293 0.011191 0.0088889 -0.0022913 -0.096829 -0.051451 -0.021528 0.049499 
-0.013471 0.016123 0.00099702 0.0090533 0.025166 0.039634 -0.028926 0.073175 
-0.0019624 0.017438 0.01004 0.0085601 0.096686 0.13713 -0.032379 0.1345 
0.044567 0.034702 0.0065871 0.01415 0.076299 0.1738 0.012177 0.14519 
0.089452 0.065447 0.012177 0.024179 0.023851 0.21572 0.047526 0.12316 
0.083862 0.061172 0.031742 0.047197 -0.010512 0.19106 -0.008539 0.0421 
0.093398 0.091753 0.039141 0.045224 -0.018404 0.14831 -0.077264 0.0070803 
0.056569 0.058377 0.037497 0.048348 -0.014293 0.15637 -0.077264 0.065283 
0.0064227 0.036346 0.038319 0.033058 0.012342 0.13088 -0.047341 -0.015773 
-0.0021268 0.073997 0.025659 0.022206 0.035688 0.16262 0.014479 -0.4273 
0.010697 0.050814 0.024673 0.0085601 0.060844 0.19698 0.060022 -0.66241 
0.023028 0.044073 0.023028 0.0052718 0.078272 0.20536 0.072681 -0.28377 
0.052952 0.064625 0.013164 0.02122 0.11066 0.21835 0.070873 0.18004 
0.057884 0.038483 0.00297 0.031249 0.13779 0.15111 0.059693 0.32374 
0.0324 0.049006 0.012999 0.039799 0.14305 0.11707 0.056404 0.24811 
0.019247 0.044731 0.030098 0.037661 0.092247 0.082053 0.058871 0.18646 
0.0024767 0.035688 0.030592 0.033551 0.080738 0.082053 0.042758 0.13302 
0.025495 0.050486 0.023686 0.033551 0.07597 0.08304 0.034209 0.085835 
0.02681 0.0592 0.026974 0.042923 0.085177 0.055911 0.031249 0.070215 
0.036675 0.055747 0.020398 0.022535 0.074161 0.055911 0.010862 0.053281 
0.036017 0.074654 0.024179 0.016452 0.048841 0.023851 0.020233 0.038483 
0.048677 0.054925 0.034537 0.0041209 0.019083 1.0539e-005 0.00017495 0.012999 
0.063474 0.041936 0.033222 0.014479 0.0062583 -0.028104 0.0051074 0.038977 
0.059693 0.072517 0.033387 0.029112 0.02681 -0.09239 0.027468 0.024015 
0.065776 0.034209 0.025166 0.026481 0.056569 -0.12544 0.0072447 0.0090533 
0.078765 0.039141 0.039305 0.039963 -0.03205 -0.20715 0.012013 -0.0021268 
0.046704 0.034537 0.030756 0.022535 -0.06148 -0.17591 -0.0049219 0.0034632 
0.0062583 0.010862 0.044896 0.012177 -0.066577 -0.063289 -0.0004827 0.040621 
-0.021034 0.032893 0.010204 0.01711 -0.042408 0.059364 -0.016102 0.027796 
-0.023829 0.037826 0.045718 -0.020706 -0.030242 0.35087 0.010533 0.030263 
0.028125 0.053938 0.039634 0.041936 -0.011992 0.44015 -0.019555 0.044731 
0.058049 0.10869 0.044073 0.031907 0.051801 0.23364 0.0098754 0.07449 
0.065283 0.067256 0.035524 0.061501 0.037497 -0.084498 0.070051 0.090438 
0.047691 0.0421 0.034209 0.012013 -0.0055795 -0.51 0.083533 0.081231 
0.020562 0.041443 0.027303 0.034044 -0.039449 -0.84409 0.062159 0.049828 
0.013164 0.020891 0.033551 0.028783 -0.074633 -0.81022 0.011848 0.071037 
0.014972 0.026152 0.013657 0.017767 -0.0060728 -0.46939 -0.067728 0.073504 
0.017767 0.05476 0.0088889 0.0098754 0.05624 0.0421 -0.12462 0.072353 
0.036346 0.036017 0.012506 0.041936 0.045224 0.52811 -0.11755 0.045553 
0.038319 0.052952 0.020727 0.016123 0.051143 0.82734 -0.056219 -0.1741 
0.035195 0.045718 0.01711 0.045718 0.028783 1.1039 0.0093821 -0.29429 
0.0324 0.022042 0.0085601 0.0075736 -0.032543 1.1946 0.085012 -0.064604 
0.044402 0.076792 0.00297 0.02681 -0.064275 0.70748 0.12957 0.13532 
0.052787 0.043251 0.025001 0.013657 0.057062 0.045389 0.14371 0.23233 
0.07038 0.050486 0.037168 0.0689 0.22098 -0.35578 0.10524 0.23167 
0.047526 0.055254 0.046046 0.049828 0.091425 -0.51329 0.084355 0.14272 
0.035031 0.039963 0.050157 0.084519 -0.10045 -0.52151 0.016945 0.036675 
0.037661 0.018589 0.039963 0.028125 -0.17805 -0.42549 -0.020377 0.015794 
0.047362 0.037661 0.033387 0.042429 -0.15141 -0.32569 -0.012485 -0.017582 
0.034373 0.030098 0.0095465 0.0074092 -0.091568 -0.16654 0.00017495 -0.03353 
0.026646 0.055089 0.027632 0.052787 0.037497 -0.07562 0.04506 0.0072447 
0.049992 0.051636 0.03092 0.019083 0.24285 -0.05326 0.047033 0.055911 
0.1008 0.068242 0.044402 0.081231 0.3826 0.0059294 0.083697 0.12168 
0.066434 0.077285 0.057555 0.052952 0.32802 0.082546 0.087479 0.1008 
-0.065262 0.030263 0.040128 0.029276 0.26455 0.17725 0.04095 0.046868 
-0.13382 -0.0077169 0.0056006 0.011684 0.13582 0.20931 0.019411 -0.0072237 
-0.01939 0.033715 0.024837 0.045553 -0.01939 0.21474 0.061995 0.08567 
0.086821 0.045553 0.03092 0.02533 -0.12297 0.19994 0.046046 0.12546 
0.027796 0.039634 0.027632 0.044073 -0.18709 0.13335 0.012013 -0.010348 
-0.016102 0.041443 0.01563 0.020233 -0.088444 0.093069 -0.020048 -0.071016 
0.030263 0.029934 0.01711 0.047855 0.17544 0.11066 -0.0068948 -0.066248 
0.058213 0.051965 0.023028 0.054103 0.22197 0.093726 0.042758 -0.041093 
0.073832 0.055747 0.037168 0.051308 0.089123 0.07597 0.058213 0.032564 
0.052787 0.025001 0.014808 -0.00064712 -0.12149 0.15028 0.05213 0.038977 
0.041114 0.058542 -0.00064712 0.016288 -0.20057 0.26784 0.11724 0.044402 
0.038319 0.042265 0.020727 0.028619 -0.12297 0.13812 0.09422 0.032729 
0.060186 0.057227 0.016945 0.019905 -0.036983 -0.059836 0.079422 0.041936 
0.048841 0.044238 0.0064227 0.013328 0.059693 -0.20304 0.07449 0.077449 
0.03799 0.045389 0.028125 0.018425 0.16722 -0.19235 0.016616 0.11411 
0.030098 0.033222 0.049828 0.053116 0.29135 -0.096336 -0.0064016 0.17199 
0.034209 0.064296 0.042594 0.060679 0.32423 -0.045039 0.033222 0.19846 
0.046868 0.021384 0.043251 0.05213 0.18448 -0.047669 0.017932 0.12398 
0.015465 0.06183 0.024015 0.028947 -0.0036066 -0.059836 0.016945 -0.036325 
0.012999 0.050157 0.029934 0.014315 -0.12708 -0.19926 0.038812 -0.1353 
0.0080668 0.033551 0.024837 0.015959 -0.11771 -0.2254 0.055254 -0.11935 
0.019905 0.043745 0.0083956 0.0032988 0.023522 -0.16539 0.061501 -0.034516 
-0.0088678 0.027303 0.025824 0.012506 0.083697 -0.057534 0.031578 0.028125 
-0.027282 0.030592 0.014315 0.032564 -0.010348 0.025166 -0.006566 0.031414 
-0.029748 0.039799 0.0034632 0.018096 -0.073482 0.056569 -0.018404 0.033387 
-0.011005 0.033551 0.0064227 0.015137 -0.074798 0.065118 -0.0090322 0.057555 
0.031414 0.038977 0.0046141 0.0041209 -0.053917 0.068078 0.063474 0.071531 
0.068736 0.074161 0.0093821 0.0054362 -0.049314 0.066434 0.10211 0.10228 
0.0786 0.068571 0.022206 0.017932 -0.041093 0.027961 0.077285 0.10293 
0.074654 0.065776 0.021878 0.01267 -0.076442 -0.064768 0.05624 0.055582 
0.11609 0.032729 0.034209 0.048513 -0.075949 -0.12856 0.032071 -0.049149 
0.082546 0.030756 0.044896 0.072681 -0.036983 -0.1963 -0.0039354 -0.12166 
0.0227 0.059528 0.061172 0.046704 -0.080223 -0.23083 -0.00031829 -0.13086 
-0.010348 0.037661 0.048348 0.047691 -0.14319 -0.23247 -0.028433 -0.077593 
-0.045368 0.038155 0.037332 0.037332 -0.10209 -0.18841 -0.051451 0.034866 
-0.058521 0.045224 0.02533 0.028947 -0.0098543 -0.01232 -0.0029489 0.081724 
-0.009361 0.016452 0.012506 -0.0036066 -0.027282 0.028454 0.069393 0.10392 
-0.016431 0.0054362 0.0083956 1.0539e-005 -0.048985 -0.0040998 0.12316 0.096357 
0.0023123 0.041936 0.0069159 0.0021479 0.038648 0.13203 0.18596 0.046868 
-0.0044286 0.041443 0.0028056 0.036017 0.27491 0.16623 0.20668 0.027139 
0.046375 0.042758 0.0039565 0.02829 0.47533 -0.068879 0.16262 0.024837 
0.10573 0.018425 0.023522 0.032236 0.32144 -0.24217 0.023357 0.01152 
0.1179 0.011848 0.02681 0.022371 0.03388 -0.18019 -0.090746 -0.078579 
0.056076 0.048184 0.05065 0.049828 -0.13662 0.071531 -0.12067 -0.14813 
0.019411 0.059364 0.054925 0.045389 -0.21948 0.31634 -0.31484 -0.13645 
-0.0055795 0.041443 0.015137 0.052459 -0.10587 0.4773 -0.51477 -0.0032777 
-0.01232 0.058049 0.027961 0.018754 0.039799 0.4944 -0.40856 0.10556 
0.023193 0.045553 0.038319 0.031085 0.070873 0.59437 -0.056219 0.092576 
0.051472 0.040456 0.046046 0.016123 0.039634 0.73001 0.23841 0.14141 
0.037661 0.042923 0.035853 0.070544 0.076299 0.39181 0.32391 0.1909 
0.068736 0.0592 0.050486 0.043745 0.069393 -0.14287 0.25107 0.15966 
0.12513 0.098988 0.062159 0.031249 -0.027282 -0.498 0.18054 0.052952 
0.10376 0.053609 0.039799 0.013821 -0.12971 -0.50096 0.090603 0.045389 
0.004943 -0.0011404 0.019247 0.06479 -0.091568 -0.31961 0.040456 0.07449 
-0.0036066 0.035524 0.038155 0.020891 -0.023994 -0.13053 0.059857 0.034537 
-0.038627 0.018425 0.037497 0.056898 0.0074092 -0.0019624 0.086657 0.0026412 
-0.012814 0.0059294 0.050486 0.027632 0.047197 0.067585 0.056733 -0.1473 
0.046868 0.0044497 0.073997 0.056569 0.058377 0.12233 0.036675 -0.45311 
0.06035 0.020727 0.047691 0.032564 0.065776 0.16788 -0.009361 -0.51658 
0.065118 0.058542 0.03947 0.047691 0.066763 0.15061 -0.053588 -0.19104 
0.043745 0.087479 0.052623 0.014972 0.093069 0.19681 -0.080388 0.14601 
0.054103 0.058542 0.052459 0.046046 0.085506 0.22098 -0.057041 0.30204 
0.041443 0.075312 0.028619 0.018754 0.061666 0.23512 0.012835 0.28905 
0.04917 0.047033 0.046868 0.048348 0.12102 0.22115 0.028125 0.19895 
0.00033937 0.03388 0.049499 0.044731 0.16771 0.095535 0.02829 0.14716 
0.013492 0.05624 0.038977 0.039799 0.077449 -0.17986 0.039799 0.12562 
0.0024767 0.034702 0.039305 0.024179 0.010533 -0.3839 0.0072447 0.11806 
0.03947 0.028783 0.038155 0.028454 0.012342 -0.27999 0.012835 0.075312 
0.055089 0.055747 0.042923 -0.0091966 0.084848 0.048019 0.0052718 0.055911 
0.056076 0.045882 0.049992 0.025824 0.14815 0.33722 -0.022514 0.045882 
0.041114 0.036675 0.057391 0.022042 0.21868 0.56691 -0.040764 -0.006566 
0.044073 0.059035 0.056076 0.037332 0.1904 0.55573 0.027468 -0.019884 
0.047855 0.029441 0.066434 0.046704 0.19994 0.4995 0.078272 -0.014458 
0.037004 0.066927 0.072024 0.037661 0.21194 0.33065 0.097672 -0.069701 
0.025659 0.03799 0.057555 0.0227 0.024179 -0.07973 0.053609 -0.074304 
0.014643 0.031907 0.038319 0.012342 -0.1889 -0.36154 0.022864 -0.053424 
-0.00097594 0.037661 0.031085 0.0023123 -0.24497 -0.41612 0.04506 -0.02498 
0.010369 0.014643 0.033387 -0.0095255 -0.19087 -0.34411 0.059528 0.019905 
-0.030077 0.0069159 0.063474 0.012342 -0.12248 -0.22606 0.093069 0.048348 
-0.13136 0.027961 0.019247 -0.0047575 -0.12412 -0.18479 0.08715 0.0024767 
-0.33835 0.0013258 0.024673 0.0034632 -0.10735 -0.057699 0.021549 -0.03057 
-0.18019 0.046046 0.038155 0.021713 -0.043395 0.00297 0.021878 0.066763 
0.24499 0.095371 0.0689 0.05213 -0.011005 -0.15947 0.025166 0.17544 
0.55409 0.075312 0.081395 0.053445 -0.039613 -0.24365 0.024837 0.19961 
0.43932 0.055582 0.067091 0.061172 -0.029091 -0.24365 0.042429 0.12398 
0.089616 0.010204 0.047526 0.023522 0.014972 -0.13103 0.019411 0.037661 
-0.16375 0.01004 0.040785 0.021056 0.041443 0.015465 0.040128 0.068407 
-0.23231 0.038812 0.02829 0.01152 0.096357 0.12184 0.14552 0.21621 
-0.13958 0.028783 0.012506 -0.0059084 0.10441 -0.022843 0.18103 0.30516 
-0.032215 0.035853 0.020727 -0.00097594 0.10787 -0.21307 0.18169 0.29382 
-0.00031829 0.073668 0.047362 0.04358 0.17314 0.072681 0.14206 0.13894 
-0.003771 0.10589 0.044402 0.083697 0.096193 0.3313 0.026974 -0.19827 
0.058542 0.091425 0.056898 0.065118 0.11905 0.42239 -0.021692 -0.27653 
0.056898 0.057555 0.058213 0.0032988 0.16623 0.51627 -0.011827 -0.12215 
0.066598 0.021384 0.034044 0.031249 0.0060938 0.39493 -0.035832 -0.10916 
0.05476 0.0095465 0.024015 0.0046141 -0.14106 -0.0088678 -0.0098543 -0.48912 
0.025495 0.0054362 0.023193 0.017603 -0.07414 -0.37485 -0.059507 -0.4855 
0.042265 0.038483 0.02829 0.026974 0.30434 -0.51362 -0.035503 0.0046141 
0.072517 0.056076 0.039799 0.060515 0.4219 -0.49734 0.026646 0.38408 
0.048019 0.03536 0.055747 0.036346 0.15292 -0.24891 0.039141 0.44278 
-0.018733 0.033387 0.049006 0.019576 -0.14582 0.26439 0.031578 0.40151 
-0.035338 0.07301 0.043416 0.00017495 -0.2716 0.51594 0.081067 0.25847 
-0.0021268 0.044567 0.043909 0.033715 -0.31829 0.36221 0.067749 0.19731 
0.036017 0.073832 0.06594 0.017932 -0.18052 0.30089 0.031742 0.13384 
0.051965 0.078107 0.062323 0.034866 -0.052766 0.2269 0.0227 0.047362 
0.040785 0.061666 0.06594 0.025495 0.0044497 0.0098754 0.019905 -0.011992 
0.027961 0.073504 0.074654 0.0592 0.035195 -0.24464 0.039963 -0.036983 
-0.018075 0.042594 0.069722 0.03651 0.16294 -0.32125 0.0095465 -0.07003 
0.019083 0.027796 0.070873 0.10491 0.33311 -0.24168 -0.01528 -0.06707 
0.056733 0.038977 0.047691 0.055911 0.42568 -0.14829 0.029112 -0.038133 
0.062323 -0.0013048 0.049006 0.070544 0.27787 0.021549 0.049006 -0.0039354 
0.012835 0.0051074 0.044731 -0.012649 0.13006 0.1442 0.042758 -0.004593 
-0.0080457 0.043251 0.0421 0.027796 0.056076 0.23858 0.069064 -0.017911 
0.020233 0.022864 0.060679 0.012177 -0.12198 0.11937 0.016123 -0.073154 
0.049006 0.049006 0.054267 0.049828 -0.2471 -0.19022 0.011684 -0.080388 
0.13647 0.042265 0.053281 0.011191 -0.26486 -0.30695 0.024837 -0.03912 
0.092576 -0.0040998 0.037168 0.032236 -0.15092 -0.1501 0.045882 0.0070803 
0.028619 0.04654 0.041278 -0.0062372 -0.020706 0.1373 0.038319 0.080244 
-0.035996 0.048184 0.044238 0.018589 0.054432 0.34544 -0.015116 0.069722 
0.0011614 0.043745 0.053938 0.022206 0.070708 0.34988 -0.065426 0.0016547 
0.018425 0.085341 0.067585 0.08008 0.08567 0.4145 -0.0059084 0.015794 
0.021878 0.057062 0.076463 0.079751 0.25715 0.44113 0.072353 0.032236 
0.045718 0.064296 0.098659 0.091918 0.43373 0.40513 0.082053 0.043251 
0.066269 0.061666 0.081724 0.066763 0.34824 0.29678 0.025659 0.061008 
0.037168 0.026646 0.072846 0.065776 0.091096 0.050321 -0.12034 0.085999 
0.016288 0.042265 0.08304 0.028619 -0.18545 -0.1039 -0.16818 0.076627 
-0.0011404 0.024015 0.039634 0.013164 -0.23872 -0.15076 -0.098473 0.056404 
0.00050378 0.0014903 0.051801 -0.0049219 -0.11278 -0.1695 0.0083956 0.057227 
0.042923 0.043745 0.04506 0.0034632 -0.032543 -0.15092 0.054432 0.0047785 
0.090603 0.048841 0.064954 0.0074092 -0.07003 -0.19252 0.055911 -0.0054151 
0.10129 0.072353 0.060022 0.028454 -0.080059 -0.19959 0.058213 0.0018191 
0.061337 0.053938 0.074819 0.052459 -0.013636 -0.18249 0.086163 0.0088889 
0.0083956 0.031085 0.034044 0.01826 0.031085 -0.16062 0.047362 -0.065262 
-0.031886 0.042758 0.060515 -0.0031133 0.19829 -0.17164 0.057884 -0.027775 
-0.1746 0.028454 0.051965 0.010862 0.1613 -0.16473 0.034866 -0.013143 
-0.17936 0.023193 0.051308 0.00099702 -0.032215 -0.088937 -0.0022913 0.0056006 
-0.0088678 0.032236 0.057227 0.012506 -0.15487 0.0092177 -0.018239 -0.017253 
0.12414 0.049828 0.059528 0.012506 -0.16917 0.075148 -0.043395 0.06183 
0.15028 0.031907 0.053774 0.023522 -0.081539 0.10688 -0.054246 0.18267 
0.13532 0.071037 0.063474 0.048677 0.032564 0.10803 -0.0040998 0.21556 
0.10277 0.06331 0.080902 0.055911 0.079751 -0.089266 0.012506 0.13286 
-0.017911 0.064461 0.069393 0.047526 0.011026 -0.34904 -0.021199 -0.040764 
-0.094199 0.084355 0.046704 -0.011498 -0.086307 -0.33868 -0.010348 -0.042408 
0.034537 0.024015 0.035195 0.0019835 -0.19909 -0.15158 -0.0095255 0.084026 
0.19944 0.027796 0.012835 -0.0070593 -0.21291 -0.066248 0.053281 0.14617 
0.15851 0.022535 0.041114 0.011191 -0.06296 0.23726 0.090767 0.067913 
0.086328 0.050157 0.052952 0.041278 0.083862 0.47303 0.17199 -0.090417 
0.025495 0.053774 0.035524 0.04654 0.04506 0.63761 0.26636 -0.080552 
-0.012649 0.04358 0.024015 0.010369 0.024015 0.78558 0.23233 0.13006 
-0.0503 0.016452 -0.0096899 0.0062583 0.13006 0.56132 0.067091 0.10195 
-0.01676 0.022864 0.0072447 0.014479 0.50969 0.19353 -0.014458 -0.063782 
0.0082312 0.052623 0.032564 0.078765 0.81896 0.0592 -0.0026201 -0.16128 
0.042758 0.1003 0.064132 0.12069 0.62906 -0.040435 0.053281 -0.25976 
0.054432 0.12891 0.077943 0.09274 0.057884 -0.31599 0.042758 -0.089431 
0.073668 0.075805 0.060186 0.043087 -0.36614 -0.53647 -0.10078 0.13549 
0.068407 0.062981 0.027632 0.0079024 -0.43996 -0.49816 -0.24595 0.22624 
0.10787 0.065612 0.0018191 -0.009361 -0.33539 -0.37025 -0.22261 0.21786 
0.075312 0.011355 0.0093821 0.015794 -0.24776 -0.206 -0.070852 0.20125 
0.03799 0.019083 0.010697 -0.0016336 -0.19219 -0.048163 0.095042 0.15949 
0.0075736 0.013821 0.0052718 0.01974 -0.10752 0.03092 0.14453 0.15933 
0.028783 0.031249 0.013821 0.020891 0.011848 0.042429 0.078436 0.087314 
0.058377 0.042594 0.027468 0.0324 0.082382 0.060022 0.051801 0.0047785 
0.024508 -0.0088678 0.0024767 0.031249 0.10392 0.13072 0.08304 -0.15372 
0.030263 -0.023172 0.0070803 0.048184 0.1179 0.2006 0.13713 -0.18874 
0.069393 0.058706 0.0042853 0.02829 0.12118 0.19912 0.14338 -0.12527 
0.11296 0.072188 0.013164 0.057227 0.095371 0.17182 0.10474 -0.044217 
0.093562 0.066269 0.024837 0.032893 0.10359 0.15111 0.04654 0.0018191 
0.077285 0.067256 0.035524 0.053609 0.090767 0.11937 0.032071 0.052294 
0.037168 0.042594 0.023522 0.017274 0.049335 0.10672 0.030427 0.08156 
0.042594 0.052787 0.010204 0.035195 0.021384 0.062652 0.058706 0.066763 
0.016616 0.053445 0.0074092 0.011848 0.013821 0.03947 0.044896 0.059857 
-0.028597 0.0069159 -0.023501 0.033715 0.079258 0.017603 0.050486 0.09126 
-0.01528 0.064625 0.0028056 0.022042 0.076134 0.042594 0.054596 0.024179 
0.0085601 0.071037 -0.023007 0.0786 0.086657 0.075641 0.037332 0.03947 
-0.040271 0.030756 0.0064227 0.018918 0.062159 0.034044 -0.010348 0.02681 
0.011191 0.04917 0.029769 0.049335 0.076299 0.0075736 0.012013 0.020398 
0.034866 0.025824 0.01711 0.035688 0.19303 -0.054246 0.0039565 0.020069 
0.052623 0.023028 0.023028 0.062323 0.22608 -0.13875 0.01563 0.042429 
0.070873 0.043087 0.011355 0.038319 0.063474 -0.13744 0.043416 0.080902 
0.071695 0.016616 0.010369 0.043909 -0.10012 -0.1062 0.033222 0.10704 
0.045553 0.024673 0.017274 0.0087245 -0.16966 -0.01528 0.0014903 0.092411 
0.031742 0.024344 0.010697 0.025495 -0.13744 -0.019061 -0.06 0.049664 
0.021384 0.026152 0.042265 0.024673 0.0070803 -0.17279 -0.023007 0.015465 
0.0069159 0.061172 0.027632 0.049992 -0.018075 -0.28031 0.070215 0.016616 
-0.0032777 0.030592 0.031249 0.034044 -0.10456 -0.26437 0.06035 0.0092177 
0.0034632 0.019247 0.030098 0.0421 -0.11245 -0.12511 0.061172 -0.06707 
0.0019835 0.04506 0.0083956 0.010697 -0.058356 -0.10998 0.047197 -0.25154 
-0.0080457 0.034866 0.011848 0.0047785 -0.079566 -0.020541 -0.037805 -0.44917 
0.024837 0.041936 0.0079024 -0.017417 -0.083347 0.24005 -0.0083746 -0.3377 
0.010204 0.038155 -0.0042642 -0.006566 0.044238 0.43669 0.11954 0.0079024 
0.03799 0.028783 0.0028056 0.018425 0.18004 0.6113 0.17265 0.40151 
0.041114 0.023686 -0.0090322 -0.0022913 0.17824 0.53419 0.097344 0.56395 
-0.0087034 -0.0022913 -0.00097594 0.0041209 0.12266 0.3729 -0.0054151 0.48158 
-0.050136 0.020398 0.054925 0.030098 0.16936 0.36468 0.0024767 0.31453 
-0.031721 0.060022 0.10162 0.093069 0.35876 0.19468 0.061501 0.21178 
0.025659 0.06479 0.083862 0.14387 0.52762 -0.058192 0.052623 0.24285 
0.0592 0.059693 0.072024 0.12924 0.44738 -0.27851 0.088136 0.14141 
0.043745 0.055911 0.042429 0.060515 0.19665 -0.38768 0.11444 -0.40839 
-0.013307 0.02829 0.036839 0.021384 -0.16703 -0.37173 0.040621 -0.73722 
-0.014293 -0.0077169 -0.008539 -0.009361 -0.44851 -0.35578 -0.00081153 -0.59944 
0.048513 0.0092177 0.016452 -0.033365 -0.51658 -0.27785 0.0024767 -0.20534 
0.057555 -0.0072237 0.020233 -0.027775 -0.37222 -0.10341 0.021056 0.14157 
0.032071 -0.0021268 -0.0078813 -0.023172 -0.15306 0.05476 0.042429 0.28034 
-0.0047575 0.0059294 -0.020048 -0.013307 0.049664 0.14223 0.015301 0.22937 
-0.0040998 0.017603 -0.00031829 0.02533 0.19057 0.18974 0.027468 0.16508 
0.052787 0.08419 0.014972 0.036675 0.2657 0.22246 0.070215 0.13762 
0.075312 0.063639 0.055418 0.086657 0.32259 0.23348 0.034866 0.10228 
0.064296 0.047855 0.052294 0.085012 0.22838 0.20454 0.013821 0.083697 
0.080409 0.071366 0.057227 0.074161 0.099316 0.17396 0.010533 0.090931 
0.05772 0.039305 0.03388 0.034866 0.024179 0.13976 -0.014458 0.041772 
0.020398 0.040292 0.025001 0.013492 -0.0087034 0.12464 -0.035996 0.0064227 
0.021384 0.054432 0.011026 -0.025145 0.0062583 0.10639 -0.011334 -0.013307 
0.028454 0.032071 0.011026 0.019083 0.016288 0.086821 0.013164 0.024179 
0.046375 0.034866 -0.00097594 0.038155 0.061008 0.12233 0.050979 0.011684 
0.050979 0.038483 0.021878 0.031578 0.088465 0.10425 0.054103 0.03651 
0.064132 0.018425 0.030427 0.023851 0.054925 0.069886 0.043251 0.055089 
0.055911 0.068242 0.040292 0.039963 0.024673 0.039305 0.080738 0.01563 
0.084684 0.048841 0.027632 0.019905 -0.017746 0.012835 0.055911 0.040456 
0.099974 0.038648 0.0227 0.033387 -0.061316 0.025988 0.056076 0.059857 
0.079751 0.062981 0.016452 0.010533 -0.034023 -0.03501 0.046704 0.05065 
0.060022 0.083368 0.012835 0.029441 0.02681 -0.029255 0.026152 0.065447 
0.039963 0.046704 0.0016547 0.013821 0.039634 -0.0032777 0.011848 0.046375 
0.0031344 0.056076 0.0080668 0.044731 0.035031 -0.04882 -0.020377 -0.029913 
-0.0036066 0.042594 0.024179 0.030756 0.0093821 -0.10028 -0.036983 -0.029913 
0.0014903 0.06331 0.024344 0.065118 0.020233 -0.16013 -0.015444 0.026974 
0.019411 0.04095 0.0042853 0.026317 0.091096 -0.19087 -0.017253 0.08863 
0.057391 0.055089 0.0042853 0.045389 0.13483 -0.2282 -0.028433 0.06479 
0.068407 0.069064 -0.015773 -0.0011404 -0.064604 -0.18742 -0.0062372 0.06742 
0.079422 0.038648 -0.0098543 0.037004 -0.2762 -0.041586 -0.015609 0.030098 
0.053445 0.033387 0.012013 0.0064227 -0.31928 0.12135 -0.024158 -0.036325 
0.050157 0.062652 0.047033 0.068242 -0.21685 0.27672 -0.0026201 -0.030735 
0.039799 0.06742 0.028783 0.036675 -0.059672 -0.051944 -0.012485 -0.011992 
0.017767 0.076792 0.014643 0.048677 0.12809 -0.70368 -0.0039354 0.039305 
0.025659 0.071202 0.0054362 0.015794 0.12283 -0.90887 0.024673 0.089123 
0.033715 0.061172 0.0011614 0.037168 0.043745 -0.59287 -0.017253 0.10737 
-0.0019624 0.071202 -0.0031133 0.0031344 0.21506 -0.017088 -0.02942 0.10852 
-0.013143 0.049664 0.018589 0.048841 0.47796 0.61245 -0.081374 0.090931 
-0.023007 0.043251 -0.0044286 0.0031344 0.22542 0.92912 -0.081045 0.054103 
0.012835 0.10524 0.052459 0.051801 -0.092554 1.1458 -0.013965 -0.0054151 
0.051308 0.071859 0.029441 0.0421 -0.14829 1.1567 0.069558 -0.015938 
0.046211 0.057884 0.041443 0.041936 -0.15109 0.76141 0.13121 -0.018897 
0.052623 0.039305 0.0044497 0.015794 -0.21915 -0.0406 0.13434 -0.01232 
0.043251 0.0041209 -0.016102 0.0021479 -0.22606 -0.71206 0.10408 0.0082312 
0.0059294 0.0090533 -0.0047575 0.0092177 -0.03353 -0.88305 0.087479 -0.039778 
-0.012814 0.02829 0.019247 0.030592 0.10474 -0.7073 0.067091 -0.072003 
-0.034023 0.0018191 -0.0087034 0.013986 0.031578 -0.46084 0.0046141 -0.038462 
-0.0503 0.03092 0.00033937 0.022864 -0.028269 -0.23543 -0.016924 0.020562 
-0.088115 0.015465 0.016616 0.017274 0.042758 -0.047669 -0.024652 0.080573 
-0.22392 0.041936 0.019411 0.022535 0.20487 0.1784 -0.0031133 0.14437 
-0.20025 0.088136 0.060186 0.025495 0.3466 0.27557 0.05065 0.13023 
0.18695 0.11773 0.055582 0.066598 0.31207 0.30155 0.021713 0.095535 
0.41269 0.14321 0.052459 0.10014 0.14239 0.25058 0.020891 0.03092 
0.30319 0.066763 0.030756 0.030756 0.0018191 0.15489 0.0065871 -0.032872 
0.12792 0.029605 0.032236 0.010862 -0.097322 0.11592 -0.024323 -0.016595 
-0.0082102 0.018754 0.025001 0.015465 -0.087293 0.087972 -0.02646 -0.0040998 
-0.06707 0.028619 0.027796 -0.0080457 -0.084827 0.062488 -0.0091966 -0.13168 
-0.076277 -0.015773 0.015301 -0.0070593 -0.056877 0.0098754 0.00033937 -0.1723 
-0.051287 0.043745 0.024673 0.0042853 -0.014622 -0.16868 0.058871 0.051801 
0.0037921 0.020891 0.036839 0.015959 0.049499 -0.31665 0.094548 0.21441 
0.01152 0.02681 0.035195 0.044238 0.07038 -0.2859 0.11148 0.21983 
0.014972 0.051308 0.0421 0.033551 0.087479 -0.1085 0.088136 0.091589 
-0.0013048 0.031578 0.04654 0.03799 0.10425 0.20388 0.0090533 0.01267 
0.024837 0.046704 0.040128 0.037004 0.08156 0.30303 0.0080668 0.020233 
0.033058 0.065283 0.022371 0.026152 0.0014903 0.29464 0.039141 0.020069 
0.026974 0.049335 0.030263 0.005765 -0.087786 0.39444 0.091096 0.028783 
0.024673 0.013986 0.019576 0.010697 -0.096665 0.55474 0.13171 0.015794 
0.01974 0.036182 0.009711 0.018754 -0.038956 0.36024 0.073339 -0.013965 
0.016945 0.014315 0.00297 0.014479 -0.020706 0.077778 -0.048327 -0.036654 
0.012999 0.041278 -0.0039354 0.014479 -0.034516 -0.09091 -0.056055 -0.013965 
0.034866 0.033387 0.029605 0.028619 0.024837 -0.060329 0.0046141 -0.020048 
0.023357 0.024837 0.032893 0.020727 0.21227 0.064954 0.09274 0.0046141 
0.054925 0.050814 0.010697 0.042758 0.31618 0.079751 0.12464 0.014315 
0.05065 0.0039565 0.0085601 0.027632 0.23134 -0.074304 0.099152 0.029441 
0.075476 0.015794 0.0069159 0.025495 0.074326 -0.10571 0.10113 0.046868 
0.078272 0.035524 0.021878 0.0042853 -0.10932 -0.12988 0.09833 0.062323 
0.055911 0.046211 -0.027118 0.035853 -0.13004 -0.1159 0.030098 0.051801 
0.058871 0.055418 0.022206 0.037332 -0.089102 -0.1501 -0.00015387 0.037826 
0.059528 0.064461 0.029605 0.08419 0.054596 -0.18084 -0.038298 0.047526 
0.063474 0.038648 0.042758 0.069393 0.17971 -0.11146 -0.10324 0.024015 
0.08978 0.064954 0.015301 0.066434 0.15999 0.14617 -0.10061 0.056569 
0.082875 0.039963 0.030756 0.019247 0.086821 0.27655 -0.065097 0.064625 
0.041772 0.057391 0.041772 0.065118 0.013821 0.18284 0.024179 0.013986 
0.0227 0.031742 0.018754 0.01152 -0.063782 -0.039778 0.031249 0.015794 
-0.017088 -0.010512 0.004943 0.035031 -0.1644 -0.13678 -0.043395 0.036839 
-0.0075525 -0.0087034 -0.004593 0.00017495 -0.17838 -0.17657 -0.044217 0.060186 
0.013328 0.022042 -0.0042642 0.038319 -0.11442 -0.086471 0.050814 0.074654 
0.048348 0.032564 0.023522 0.021384 -0.024652 0.025659 0.11346 0.034702 
0.041114 0.04917 0.028619 0.043251 0.024344 0.055089 0.12562 -0.020706 
0.028783 0.068078 0.022042 0.031907 0.064132 0.071695 0.073504 -0.04323 
0.055418 0.05065 0.039305 0.058213 0.12891 0.078107 0.077449 -0.031886 
0.047855 0.077285 -0.0021268 0.035524 0.13269 0.071037 0.068736 -0.039613 
0.03388 0.065118 0.0093821 0.05476 0.064461 0.069722 0.027961 -0.0082102 
0.031085 0.032729 0.012177 0.026481 -0.032543 0.0036276 0.01415 0.035031 
0.047033 0.059857 0.016288 0.055254 -0.061316 -0.012156 0.023686 0.038483 
0.0060938 0.027961 0.014479 0.020727 -0.093212 -0.037805 -0.010183 0.0060938 
-0.20041 0.020727 0.012506 0.035195 -0.097322 -0.024652 -0.01939 0.031085 
-0.27522 0.034866 0.013657 0.0059294 -0.070687 0.05065 -0.0087034 0.10622 
0.059364 0.060186 0.01415 0.024015 -0.017911 0.042594 -0.0049219 0.21539 
0.42255 0.075148 0.024344 0.037497 0.076627 0.0324 0.033058 0.22049 
0.38014 0.037497 0.019247 0.035031 0.1664 0.018425 -0.013307 0.099152 
0.13976 0.011684 -0.003771 0.020727 0.10869 0.021384 -0.029748 0.0044497 
-0.052766 0.052952 0.01267 0.043745 0.075641 0.082711 -0.0060728 -0.093541 
-0.10291 0.060679 0.032564 0.048348 0.17856 0.043745 0.034702 -0.18002 
-0.078744 0.059528 0.030592 0.057062 0.24005 0.041607 0.078436 -0.14714 
-0.032708 0.07301 0.017932 0.043416 0.24351 0.02829 0.12562 -0.17575 
-0.012978 0.064461 0.038977 0.032893 0.21161 -0.019719 0.087314 -0.2693 
0.01152 0.017603 0.020398 0.044402 0.23989 -0.048492 0.070873 -0.13514 
0.065447 0.067091 0.036675 0.059693 0.22033 -0.10505 0.058049 0.1202 
0.059035 0.066598 0.042758 0.019083 0.12316 -0.10982 0.068407 0.2657 
0.038812 0.063968 0.042923 0.030592 -0.095678 -0.10341 0.076134 0.25239 
0.0080668 0.068571 0.032564 0.012342 -0.26963 -0.11031 0.011355 0.19418 
-0.011827 0.028125 0.00050378 0.0074092 -0.30761 -0.10028 -0.023829 0.19353 
0.010204 0.0324 -0.0032777 -0.019555 -0.25795 -0.05885 -0.011992 0.13664 
0.010533 0.020398 0.02533 -0.020212 -0.16325 0.010369 -0.041257 0.028454 
0.05624 0.04917 0.048348 0.010204 -0.087951 0.064296 -0.0078813 -0.018733 
0.099481 0.091425 0.03536 0.0042853 -0.031392 0.038812 0.011191 0.056404 
0.099974 0.079094 0.042265 0.036839 0.056569 0.02533 -0.017582 0.11609 
0.035195 0.048184 0.055747 0.033715 0.1442 -0.011992 -0.075291 0.13812 
0.022206 0.051965 0.02829 0.045553 0.16706 -0.011992 -0.10834 0.1105 
0.022042 0.035853 0.0062583 0.048513 0.1442 0.025988 -0.049971 -0.10653 
0.01415 0.055089 0.024673 0.050979 0.2126 -0.016595 0.087314 -0.27752 
0.018096 0.036346 0.040292 0.037661 0.19829 0.0070803 0.1299 -0.22935 
0.014479 0.012506 0.046704 0.054267 0.13516 0.069393 0.11839 0.085835 
-0.00064712 0.051636 0.041936 0.028454 -0.11557 0.12266 0.147 0.29776 
-0.027611 0.017438 0.011848 0.00297 -0.26223 0.15818 0.11033 0.24269 
-0.021528 0.011355 0.0062583 -0.041093 -0.17821 0.096357 0.071859 -0.0503 
-0.014951 0.04358 0.0037921 0.018589 1.0539e-005 0.043416 0.035031 -0.25861 
0.010697 0.04358 0.015137 0.010369 0.067913 0.06331 0.013986 -0.13826 
0.011355 0.024673 0.036182 0.043251 0.05213 0.099974 0.015794 0.057227 
0.0093821 0.052459 0.035524 0.009711 0.06331 0.09981 -0.0073881 0.081395 
0.024673 0.073175 0.042265 0.050157 0.10244 0.00017495 -0.016102 -0.47547 
0.048513 0.08863 0.054103 0.056569 0.30434 -0.0047575 0.0324 -0.73936 
0.083204 0.074161 0.053445 0.079916 0.28856 0.0087245 0.044567 -0.12314 
0.093069 0.054925 0.046704 0.055747 0.095699 0.0047785 0.052294 0.50312 
0.071695 0.027139 0.055254 0.068242 -0.084334 -0.020377 0.064954 0.61689 
0.040292 0.036182 0.031249 0.042265 -0.14878 -0.042244 0.018918 0.43702 
-0.0062372 0.040621 0.03092 0.038155 -0.11853 -0.0047575 0.032071 0.24285 
-0.0062372 0.03092 -0.012485 -0.010348 -0.1182 -0.004593 0.03799 0.11181 
0.0059294 0.0082312 0.0067515 -0.0072237 -0.12281 -0.049807 -0.024652 -0.022679 
-0.014622 0.014808 0.0060938 -0.0073881 -0.0965 -0.031886 -0.091239 -0.12001 
-0.02087 0.032564 -0.0024557 0.020398 -0.074633 -0.0060728 -0.072332 -0.12231 
0.019247 0.024015 0.019247 0.031742 -0.010019 0.018096 -0.013636 -0.051615 
0.06594 0.074983 0.045553 0.070873 0.047691 0.10063 0.036346 0.0031344 
0.074983 0.064296 0.042923 0.043087 0.10606 0.24384 0.061501 0.034537 
0.080244 0.04917 0.028947 0.081395 0.14124 0.35005 0.074654 -0.0138 
0.029441 0.077778 0.039799 0.031414 0.11625 0.36961 0.02681 -0.09798 
-0.010676 0.056076 0.044731 0.034702 0.037332 0.38375 0.021878 -0.17032 
-0.03057 0.026974 0.015465 0.019083 -0.041586 0.25633 0.08156 -0.15405 
-0.034516 0.051636 0.026974 0.045224 -0.069865 0.10343 0.099481 -0.076935 
-0.011827 0.040128 0.028619 0.011684 -0.042901 -0.1358 0.065776 0.037004 
0.019905 0.031085 0.013986 0.031414 -0.017417 -0.34444 0.021384 0.10556 
0.039799 0.037168 0.0092177 -0.0088678 -0.06296 -0.26963 -0.025967 0.13615 
0.058542 0.020891 0.00099702 0.021878 -0.0068948 -0.07973 -0.023501 0.15209 
0.01267 0.029276 0.011355 -0.026131 0.1174 0.086163 0.0014903 0.25584 
-0.040271 0.020562 0.02533 0.047362 0.18547 0.17429 0.02533 0.42782 
0.08715 0.042758 0.038319 0.040621 0.19731 0.14437 0.075641 0.50213 
0.18399 0.063968 0.042594 0.066269 0.18613 0.13039 0.11247 0.21539 
0.10852 0.057391 0.058542 0.051472 0.13434 0.071531 0.093562 -0.097487 
0.0098754 0.062488 0.045389 0.048019 0.030263 -0.060987 0.057062 -0.21833 
0.012506 0.065447 0.044731 0.005765 -0.12642 -0.14303 0.01415 -0.20879 
0.0324 0.028454 0.0083956 0.004943 -0.24151 -0.18643 -0.028926 -0.25779 
0.028947 0.032564 0.014479 0.0051074 -0.22195 -0.088773 -0.0091966 -0.27686 
-0.022185 0.02681 0.024673 0.032564 -0.15322 0.17215 0.018918 -0.091897 
-0.03353 -0.0052507 0.033387 0.0021479 -0.095843 0.3124 0.015959 0.14009 
0.00017495 0.04095 0.030263 0.0072447 -0.016102 0.19484 0.033551 0.2948 
0.093069 0.039634 0.043416 -0.0044286 0.081889 0.02829 0.00297 0.28297 
0.095206 0.036675 0.012506 0.012342 0.16377 -0.06296 -0.0096899 0.18991 
0.043251 0.0592 0.046375 0.045553 0.3489 -0.047341 0.0062583 0.12924 
0.047855 0.04095 0.04095 0.024673 0.28724 0.007738 -0.00031829 0.086492 
0.047197 0.024179 0.025495 0.0062583 0.11132 0.0059294 0.0093821 0.0786 
0.058213 0.044402 0.018754 0.017438 0.086163 0.046868 0.032893 0.11296 
0.086328 0.023357 0.020562 0.033551 0.10803 0.045389 0.044073 0.073504 
0.10211 0.077121 0.053938 0.014643 0.024179 0.073175 0.044567 0.10622 
0.10967 0.055089 0.024015 0.026481 -0.049971 0.048019 0.065612 0.15456 
0.10228 0.07449 0.031414 0.018096 -0.13382 -0.22885 0.0074092 0.17495 
0.043087 0.071695 0.036346 0.019083 -0.14254 -0.43355 -0.016266 0.044238 
-0.021692 0.036017 0.01974 0.01415 -0.15339 -0.34065 -0.047998 0.014479 
-0.022021 0.023686 0.02829 0.0095465 -0.12379 -0.15437 -0.068714 -0.038133 
0.011191 0.067585 0.0054362 0.0044497 -0.02942 0.091589 -0.0096899 -0.056219 
0.039799 0.041772 0.042594 0.01826 0.071037 0.3101 0.0021479 -0.028597 
0.024673 0.036346 0.027139 0.016945 0.15045 0.38244 0.042758 -0.023829 
0.022042 0.052623 0.028947 0.016616 0.18004 0.46793 0.10145 -0.084334 
-0.00097594 0.028783 0.038648 0.017932 0.15834 0.43916 0.13253 -0.047012 
0.0060938 0.035688 0.036182 0.035031 0.056733 0.11313 0.16294 -0.0047575 
0.023193 0.032564 0.029769 0.015959 0.040128 -0.27538 0.12201 0.014972 
0.023851 0.004943 0.050321 0.040128 0.078107 -0.47136 0.068078 0.030263 
0.035524 0.02681 0.040456 0.041772 0.14256 -0.37633 0.055254 0.079587 
0.1003 0.041443 0.052459 0.041114 0.18152 -0.30777 0.013492 0.11083 
0.11559 0.055582 0.046046 0.030263 0.15916 -0.29922 -0.011663 0.16081 
0.098166 0.092576 0.056076 0.041772 0.11691 -0.12659 -0.017911 0.16229 
0.048019 0.086657 0.061008 0.034866 0.085177 0.063474 -0.041586 0.098001 
-0.011005 0.025659 0.05476 0.062652 0.044896 0.33574 -0.11672 0.00050378 
-0.01232 0.053281 0.064461 0.051308 0.039799 0.60308 -0.17772 -0.066084 
-0.011992 0.026152 0.059857 0.048348 -0.010019 0.59815 -0.1478 -0.10817 
-0.027611 0.029276 0.041936 0.017438 0.038155 0.33163 -0.036489 -0.28755 
-0.017582 0.025988 0.047855 0.012342 0.016616 0.018754 0.061337 -0.36548 
-0.045368 0.0028056 0.03388 -0.020212 -0.082854 -0.18134 0.11033 -0.19761 
0.0046141 0.06742 0.043416 0.020398 -0.07562 -0.28377 0.14848 0.0069159 
0.088301 0.059857 0.065283 0.020727 -0.022843 -0.26798 0.10737 0.10984 
0.16919 0.073175 0.06742 0.079422 -0.00015387 -0.22573 0.09685 0.12053 
0.1493 0.090274 0.055418 0.047691 -0.047012 -0.19811 0.080902 0.091918 
0.10343 0.070873 0.049992 0.054267 -0.12988 -0.073482 0.0095465 0.031578 
0.052459 0.048677 0.056569 0.020727 -0.14582 -0.013307 -0.071181 -0.017911 
0.05624 0.073832 0.078929 0.054267 -0.056383 0.034209 -0.050629 -0.027118 
0.012177 0.049335 0.072353 0.041607 0.10343 0.11757 0.0023123 0.020727 
0.00033937 0.061501 0.074819 0.089287 0.15308 0.17182 0.077943 0.046211 
-0.061809 0.039141 0.072846 0.043909 0.13171 0.22098 0.087643 0.012999 
-0.11179 -0.0016336 0.059035 0.066927 0.12003 0.21638 0.062159 -0.010512 
-0.12593 0.013492 0.051965 0.020398 0.10096 0.1687 0.040785 -0.031886 
-0.095843 0.020233 0.049992 0.028454 0.04654 0.074326 0.0067515 -0.020706 
-0.021528 0.042265 0.051801 0.027139 -0.071181 -0.037147 -0.0042642 0.033058 
0.023851 0.062323 0.058706 0.042429 -0.031064 -0.071181 0.032071 0.029441 
0.050979 0.042265 0.019576 0.021713 -0.03205 -0.062796 0.017274 -0.012156 
0.089452 0.025166 0.068078 0.045718 -0.028762 -0.084827 0.00297 -0.048492 
0.088136 0.047362 0.072681 0.046046 -0.064111 -0.044874 -0.0073881 -0.018568 
0.088301 0.021549 0.051801 0.05065 -0.098473 -0.03616 0.0046141 0.018589 
0.060022 0.055089 0.058377 0.011026 -0.089595 0.007738 0.010862 0.089945 
0.0421 0.061666 0.073339 0.037168 -0.030242 0.0023123 0.02829 0.11411 
0.012835 0.026481 0.056898 0.019247 0.051965 0.049664 0.066927 0.12069 
0.0065871 0.066763 0.033058 0.014315 0.10984 0.07597 0.09274 0.068407 
-0.0013048 0.035524 0.026481 0.0028056 0.13878 0.071202 0.076463 0.036346 
0.0023123 0.051308 0.026317 0.019576 0.23825 0.11148 0.071695 0.016616 
0.039634 0.074326 0.028783 0.038155 0.29283 0.066598 0.049992 -0.019555 
0.028783 0.060515 0.061995 0.05624 0.14535 -0.015609 -0.018568 -0.085813 
0.0098754 0.030592 0.058542 0.022371 -0.12725 -0.090581 -0.021034 -0.094527 
0.010204 0.06594 0.064625 0.033222 -0.28558 -0.067399 -0.021363 -0.0095255 
0.007738 0.036182 0.069558 0.034537 -0.15848 0.0023123 -0.028269 0.086328 
0.041114 0.062488 0.072024 0.065283 0.059693 0.007738 0.036017 0.2075 
0.056898 0.037004 0.073997 0.069886 0.13384 -0.10193 0.086492 0.26636 
0.065447 0.0065871 0.054432 0.060186 0.021056 -0.14813 0.079751 0.2902 
0.054596 0.048513 0.048513 0.015794 -0.12462 -0.12577 0.014479 0.25798 
0.017932 0.029605 0.03092 -0.0060728 -0.19811 -0.028762 -0.096994 0.12332 
-0.0050863 -0.028762 0.029441 -0.02087 -0.14484 0.08419 -0.1108 -0.045861 
-0.065426 0.013986 0.047362 -0.0091966 0.031742 0.12809 -0.021363 -0.14106 
-0.08269 0.038483 0.049499 0.037004 0.2805 0.034702 0.081231 -0.19663 
-0.032708 0.095206 0.069393 0.046704 0.42864 0.019247 0.17643 -0.18216 
0.010369 0.090438 0.05624 0.041772 0.39674 0.13384 0.18465 -0.25417 
0.028947 0.054432 0.077614 0.04654 0.18974 0.15242 0.13171 -0.28196 
0.0093821 0.050486 0.052459 0.034537 -0.066577 0.060844 0.045882 -0.0013048 
0.027139 0.028454 0.050321 0.036182 -0.18923 0.016616 0.00017495 0.20454 
0.066105 -0.00097594 0.059857 0.032729 -0.22902 0.03536 0.040456 0.26061 
0.1641 0.044731 0.038812 0.029769 -0.194 0.15801 0.093233 0.23808 
0.17593 0.047197 0.053609 0.010369 -0.090088 0.12184 0.025988 0.18004 
0.15308 0.048348 0.05624 0.017603 0.058706 0.012177 -0.034845 0.1562 
0.11822 0.074654 0.038812 0.031578 0.22082 -0.017253 -0.031886 0.14831 
0.087479 0.067091 0.032071 0.033551 0.4219 0.092247 -0.018733 0.1174 
0.052294 0.042265 0.042923 0.047691 0.36797 0.23282 0.013164 0.083368 
0.03536 0.05213 0.057884 0.024344 0.096521 0.21424 0.049499 0.024344 
-0.0090322 0.031414 0.034373 0.028125 -0.080552 0.10014 0.074983 -0.019226 
-0.0080457 0.053281 0.040128 0.018096 -0.11146 -0.01528 0.074326 -0.076277 
-0.0138 0.049499 0.053445 0.01711 -0.045696 -0.014951 0.043416 -0.035996 
1.0539e-005 0.03799 0.043087 0.019411 0.023193 -0.035503 0.033222 0.037168 
0.0095465 0.088465 0.051308 0.045882 0.0065871 -0.02646 0.045553 0.053774 
0.029934 0.038812 0.054432 0.01563 0.015465 -0.0029489 0.028125 0.012013 
0.035195 0.060515 0.030592 0.0324 -0.0067304 -0.0016336 0.0065871 -0.047505 
0.047197 0.052459 0.041278 0.013986 0.016616 0.037004 -0.0013048 -0.033365 
0.086163 0.031249 0.050321 0.065447 0.075805 0.10885 -0.014951 -0.0062372 
0.070708 0.039963 0.051143 0.020069 0.06742 0.069558 0.03092 0.058706 
0.058213 0.075641 0.040456 0.041443 0.037826 0.023028 0.0047785 0.037661 
0.057391 0.031414 0.026317 0.0072447 0.029605 0.014479 -0.0064016 0.021056 
0.045718 0.04506 0.03536 0.0026412 0.023028 0.048513 0.011684 0.040128 
0.030098 0.047855 0.012177 -0.018897 -0.047505 0.08715 0.017767 0.084355 
-0.012485 0.021549 0.017274 0.024015 -0.10719 0.076792 0.015794 0.08156 
-0.14336 0.040785 0.026317 -0.001798 -0.16062 -0.0036066 0.055747 0.10524 
-0.11376 0.030592 0.03388 0.022371 -0.13711 -0.046354 0.049664 0.15785 
0.21145 0.053938 0.039634 0.014972 -0.11311 -0.042408 0.077285 0.23118 
0.29349 0.061008 0.028454 0.043251 -0.019555 -0.010841 0.080573 0.17034 
0.15604 0.022042 0.020891 0.023686 0.11691 -0.078744 0.075641 0.07597 
0.036017 0.012013 0.022535 0.058213 0.26948 -0.054575 0.043745 -0.021034 
-0.014293 0.046046 0.034044 0.042594 0.25107 0.060679 0.033551 -0.20107 
-0.021528 0.049992 0.045389 0.072517 0.16294 0.11428 0.023686 -0.43158 
-0.0052507 0.065612 0.045389 0.030098 0.061172 0.25666 0.023686 -0.33572 
0.0014903 0.05213 0.037826 0.047691 0.01267 0.23266 -0.039778 -0.028269 
0.012506 0.051308 0.0324 0.03799 -0.049478 -0.0406 -0.040764 0.2902 
0.0592 0.073832 0.041114 0.031742 -0.065755 -0.41004 0.021056 0.38392 
0.054432 0.055911 0.054103 0.018754 -0.046354 -0.64531 0.047033 0.30418 
0.041114 0.037168 0.022042 0.021878 -0.050958 -0.53072 0.072024 0.18596 
0.030098 0.053281 0.015137 -0.0088678 -0.073154 -0.25911 0.027468 0.12365 
-0.014787 0.014479 -0.0049219 -0.01232 -0.067235 0.13105 -0.090417 -0.11064 
-0.015116 0.010697 0.01711 -0.010841 -0.10571 0.54192 -0.089595 -0.36301 
0.02533 0.072353 0.0064227 0.0085601 -0.10554 0.7407 0.016123 -0.16424 
0.034866 0.040621 0.039305 0.0095465 -0.11459 1.0021 0.13631 0.14519 
0.021384 0.056076 0.023028 0.022371 -0.10965 0.91793 0.19435 0.27639 
-0.012978 0.025166 0.00033937 0.020891 -0.042901 0.28395 0.15867 0.2805 
0.009711 0.03536 0.023851 0.026152 0.050814 -0.34246 0.10573 0.20602 
0.061995 0.06035 0.045882 0.046046 0.13993 -0.70056 0.051143 0.086163 
0.052623 0.029934 0.046211 0.058871 0.15538 -0.87648 0.0092177 -0.10242 
0.0046141 0.0065871 0.040785 0.050814 0.14091 -0.91939 -0.036983 -0.2185 
-0.037476 0.0072447 0.016616 0.022042 0.11707 -0.70697 -0.047834 -0.11442 
-0.03912 0.012342 0.015959 0.023686 0.17971 -0.28738 -0.080388 -0.020706 
-0.028926 0.057391 0.042265 0.076299 0.17051 0.13039 -0.10604 -0.014622 
-0.014622 0.0324 0.016288 0.00099702 0.043087 0.42354 -0.18972 -0.0138 
-0.019061 0.069393 0.050486 -0.017088 -0.055068 0.81452 -0.11853 -0.0029489 
0.025824 0.069229 0.034537 0.024673 -0.090417 0.99998 0.10474 -0.0042642 
0.088465 0.063968 0.045224 0.042594 -0.074633 0.89985 0.17133 -0.0039354 
0.079587 0.054432 0.039305 0.054103 0.053938 0.40611 0.16278 0.00083261 
0.033551 0.067091 0.055747 0.045224 0.28724 -0.13958 0.080902 0.0070803 
0.02533 0.028619 0.021713 0.056898 0.43916 -0.42434 0.00050378 -0.0019624 
0.018425 0.015465 0.033387 0.043251 0.34577 -0.42105 -0.024487 -0.009361 
-0.010841 0.04358 0.01415 0.019411 0.10935 -0.29265 -0.025474 0.0018191 
-0.039613 0.038319 0.042265 0.016288 -0.07825 -0.093212 -0.055397 -0.0027845 
-0.015116 0.034702 0.012506 0.01563 -0.11722 0.10754 0.019411 0.1179 
0.028783 0.06035 0.027139 0.027468 -0.11557 0.1174 0.070544 0.15357 
0.10145 0.051472 0.027139 0.05065 -0.15109 0.0786 0.10244 0.10885 
0.13713 0.069722 0.029605 0.037826 -0.16177 0.065776 0.10672 0.054103 
0.097179 0.053609 0.024673 0.018589 -0.1085 0.017932 0.073832 -0.010183 
0.061008 0.03651 0.014808 0.01974 -0.024652 -0.011334 0.02829 -0.039942 
0.03651 0.018096 -0.0052507 0.0069159 0.029769 -0.067235 0.01563 -0.035174 
0.029276 0.019576 -0.0024557 0.0037921 0.049499 -0.079072 0.025495 -0.0080457 
0.016288 -0.0040998 0.028619 0.040785 0.051801 -0.017582 0.028454 0.0065871 
0.028125 0.077614 0.035195 0.041936 0.16985 0.070544 0.071202 0.06035 
0.024179 0.077943 0.031085 0.076463 0.26899 0.16689 0.017932 0.057884 
-0.012156 0.055254 0.041114 0.050157 0.18218 0.18678 0.0021479 -0.011827 
-0.045039 0.05213 0.023028 0.073504 0.049335 0.092082 -0.0044286 -0.054246 
-0.034188 0.041607 0.013986 0.04358 -0.010512 0.049992 0.007738 -0.099295 
-0.0032777 0.058213 0.011191 0.062817 -0.038956 0.0021479 0.027303 -0.14139 
0.021056 0.038812 0.015137 0.016616 -0.075949 -0.028104 -0.017911 -0.11935 
0.041278 0.019905 0.0051074 0.025659 -0.070687 -0.094199 -0.086142 -0.0040998 
0.059364 0.057391 0.00099702 0.0039565 0.00033937 -0.1376 -0.049642 0.10392 
0.073339 0.047855 0.0021479 0.035031 -0.0095255 -0.16736 0.11543 0.17725 
0.066434 0.044731 0.021056 0.0227 -0.019719 -0.23806 0.19796 0.19961 
0.055911 0.044731 0.033058 0.062323 -0.035503 -0.18002 0.14272 0.1493 
0.072517 0.030592 0.020233 0.02122 -0.076113 -0.12544 0.0090533 0.13993 
0.064296 0.030756 0.0023123 0.040785 -0.065097 0.0082312 -0.031557 0.16377 
0.076299 0.058871 -0.006566 0.012999 0.058542 0.23775 -0.032543 0.12776 
0.074161 0.049006 0.01152 0.064132 0.16163 0.36452 0.015959 0.058706 
0.071037 0.071531 0.021384 0.023522 0.10408 0.31585 0.093726 0.004943 
0.051965 0.064954 0.028454 0.0421 0.022371 0.14782 0.080409 -0.028762 
0.033551 0.055747 0.013328 -0.0019624 -0.05441 -0.082854 0.039963 -0.029091 
0.013821 0.061995 0.013657 0.027303 -0.03057 -0.24924 0.0090533 -0.028269 
0.0018191 0.011026 0.0085601 0.046046 0.062323 -0.30646 0.0019835 -0.064604 
0.030592 0.041278 0.025166 0.045224 0.039963 -0.41004 0.012342 -0.099624 
0.053609 0.044567 -0.003771 0.011191 -0.12757 -0.41776 0.024673 -0.07003 
0.029769 0.034209 0.015794 0.0087245 -0.11459 -0.26519 0.012835 0.023686 
0.039634 0.03947 0.034044 0.047197 0.052952 0.0036276 0.046211 0.093891 
0.0039565 0.045389 0.038648 0.048841 0.12266 0.17117 0.048513 0.081231 
0.024344 0.026152 0.029605 0.029934 0.069393 0.35317 0.089123 0.083697 
0.0013258 0.054432 0.01152 0.016452 -0.10357 0.3387 0.067749 0.062488 
0.027303 0.044731 0.0075736 0.0018191 -0.083512 0.33262 0.046375 0.095699 
0.031578 0.03651 0.019576 0.018096 0.10195 0.3951 0.032564 0.10737 
0.073175 0.053938 0.016945 0.041607 0.1664 0.27524 0.015301 0.081067 
0.042758 0.03651 0.014643 0.016288 -0.017417 0.031414 -0.032379 0.075641 
0.018425 0.019905 0.0018191 -0.0024557 -0.10143 -0.077757 -0.00064712 0.076299 
-0.00081153 0.060186 0.012013 0.0039565 -0.020212 -0.095185 0.08863 -0.0062372 
-0.0042642 0.057555 0.048019 0.028454 0.1026 0.0052718 0.071695 -0.058685 
0.049664 0.045553 0.072188 0.022371 0.13253 -0.042573 0.0421 -0.077922 
0.096357 0.048184 0.046211 0.027139 0.033222 -0.12116 -0.00031829 -0.091732 
0.09274 0.044238 0.043416 0.012835 -0.050958 -0.16342 -0.006566 -0.060658 
0.037168 0.047855 0.033551 0.025495 -0.074304 -0.076935 -0.0013048 -0.026296 
-0.23017 0.0056006 0.03799 0.0047785 -0.074304 0.036839 -0.017088 -0.038298 
-0.40938 1.0539e-005 0.018918 -0.0011404 0.030427 0.094713 0.0093821 -0.0091966 
-0.044052 0.059857 0.018096 0.0034632 0.1054 0.2149 0.074654 0.18481 
0.4852 0.069229 0.016452 0.012506 0.060186 0.21802 0.13121 0.27968 
0.48026 0.013986 0.023357 0.0041209 0.034537 0.15045 0.15555 0.1465 
0.14683 0.0042853 0.010204 0.012342 0.11822 0.068078 0.11247 0.016452 
-0.10242 -0.0021268 0.0074092 0.015794 0.13812 -0.0016336 0.075641 -0.024816 
-0.17246 0.017274 -0.0026201 0.029934 0.18974 -0.0083746 0.087314 -0.008539 
-0.12856 0.045718 0.01974 0.020891 0.22065 -0.013636 0.031249 0.018096 
-0.055726 0.043416 0.036182 0.047691 0.15851 0.021056 -0.035832 0.065118 
-0.0054151 0.077285 0.038155 0.084355 0.17906 0.05772 -0.067564 0.12381 
0.0047785 0.044402 0.034866 0.066763 0.10359 0.048184 -0.12133 0.1659 
0.013657 0.025659 0.033551 0.032893 -0.023172 0.03092 -0.15322 0.074983 
-0.00064712 0.022042 0.013986 0.023028 -0.13744 0.020398 -0.21143 -0.025309 
-0.027611 0.024508 0.016781 0.017274 -0.18611 0.086492 -0.15224 -0.03205 
0.00066819 0.03651 0.032564 0.037826 -0.11376 0.17297 0.099316 0.022042 
0.11198 0.069229 0.0227 0.026974 -0.01117 0.13845 0.23792 0.015959 
0.12447 0.041114 0.0082312 0.031249 0.015465 -0.12642 0.24153 -0.11343 
0.089945 0.0021479 -0.0049219 0.012999 0.041278 -0.66307 0.19895 -0.28262 
0.051143 0.01152 -0.0098543 0.03388 0.08978 -0.77816 0.10244 -0.37156 
0.018096 0.040621 0.014808 0.029605 0.17988 -0.42237 0.010369 -0.16161 
0.0059294 0.13121 0.032236 0.049992 0.15127 0.057884 -0.024158 0.18218 
0.014315 0.066598 0.012013 0.021549 -0.060329 0.43143 -0.11853 0.26389 
-0.01676 0.06183 0.022042 0.039799 -0.21718 0.75697 -0.2328 0.19188 
0.049828 0.054596 -0.0036066 -0.0078813 -0.14681 0.95509 -0.19235 0.1271 
0.076627 0.025988 0.0069159 0.052952 0.10096 1.0329 -0.010183 0.1465 
0.10474 0.023522 0.023851 0.061337 0.27623 0.8571 0.15752 0.16278 
0.063968 0.048677 0.014972 0.07038 0.25304 0.2343 0.19024 0.14815 
0.037497 0.025001 0.028125 0.046211 0.17001 -0.33506 0.11855 0.085177 
0.023028 0.066269 0.020069 0.076134 0.099974 -0.53154 0.077778 0.02829 
0.0037921 0.041772 0.011026 0.029934 -0.024487 -0.51658 -0.027611 0.0075736 
0.027468 0.023193 0.013821 0.0421 -0.11294 -0.49257 -0.036983 -0.0088678 
0.044896 0.052459 0.03092 0.029769 -0.11261 -0.4028 0.027796 0.01267 
0.054432 0.054103 0.013492 0.049335 -0.08121 -0.2744 0.045224 0.031414 
0.052623 0.025001 0.012999 0.013492 -0.10456 -0.14056 0.031414 0.01004 
0.056898 0.061172 1.0539e-005 0.024344 -0.10932 0.01711 0.017767 -0.0014692 
0.030427 0.064132 0.037661 -0.0039354 -0.010348 0.13894 -0.024652 0.014315 
0.039141 0.031907 0.01974 0.038483 0.20931 0.14946 -0.021199 -0.019884 
0.047033 0.063474 0.02122 0.0098754 0.2999 0.13976 -0.010841 -0.057699 
0.031085 0.034866 0.022042 0.042594 0.11609 0.11691 0.01267 -0.043888 
0.0324 0.041607 0.011848 0.013492 -0.055397 0.13976 0.055582 -0.015938 
0.029276 0.04917 0.0070803 0.034702 -0.082032 0.12957 0.020233 -0.048492 
0.034537 0.03651 0.048348 0.016781 -0.035174 0.10359 -0.017911 -0.049478 
0.040456 0.076627 0.014479 0.03799 -0.0082102 0.063803 0.015465 0.005765 
0.048841 0.055911 0.043745 0.02829 0.024508 0.045718 0.03651 0.054596 
0.028619 0.061501 0.014479 0.049992 0.029441 0.076134 0.071859 0.079094 
0.0065871 0.080573 0.0087245 0.03388 0.05624 0.043087 0.072188 0.075148 
0.00066819 0.053116 0.0014903 0.041114 0.027303 -0.065262 0.072681 0.029769 
0.040785 0.020562 0.027796 0.028947 -0.02794 -0.14089 0.1294 0.076956 
0.060515 0.046868 0.0095465 0.0069159 -0.10916 -0.077264 0.16508 0.13154 
0.052952 0.027961 0.01004 -0.0013048 -0.1963 0.083368 0.16607 0.1054 
0.027303 0.038155 0.0037921 -0.0021268 -0.23543 0.12464 0.11148 0.07597 
0.023028 0.025988 0.01974 -0.0013048 -0.1723 0.091589 0.044402 0.052459 
0.037497 0.029276 0.0075736 0.0041209 0.05624 -0.03501 0.043416 0.044402 
0.030592 0.05772 0.017438 0.02533 0.36139 -0.19712 0.046211 -0.00097594 
0.014808 0.04358 0.036839 0.03799 0.47451 -0.060494 0.036346 0.00083261 
0.022042 0.056076 0.059857 0.065776 0.41121 0.034537 -0.0075525 0.010862 
0.033715 0.089123 0.055911 0.054596 0.24926 -0.11738 -0.085813 0.13812 
0.026481 0.055089 0.023357 0.026481 0.086821 -0.255 -0.12988 0.18267 
0.021056 0.045882 0.036839 0.0093821 0.0079024 -0.12412 0.020727 0.090438 
0.018589 0.059693 -0.0019624 0.012999 -0.15076 0.069722 0.095042 0.0095465 
0.027796 0.022042 -0.0062372 -0.033859 -0.20896 0.27524 0.10556 -0.013965 
0.022206 0.053281 -0.0049219 0.014643 -0.096172 0.48635 0.057884 -0.009361 
0.095864 0.09981 0.013492 -0.0013048 0.029112 0.32456 0.070051 0.04506 
0.017767 0.044567 0.014479 0.036182 0.10376 0.086163 0.093069 0.051472 
-0.011334 0.058213 0.013657 -0.003771 0.036346 -0.069372 0.12973 0.051308 
0.0069159 0.03947 0.015465 0.020233 -0.075127 -0.21373 0.069229 -0.0503 
0.018589 0.037168 0.043909 0.0028056 -0.13908 -0.28558 0.065118 -0.049971 
0.028783 0.069393 0.03536 0.020891 -0.12527 -0.29429 0.053938 -0.0077169 
0.039305 0.070051 0.052459 0.024673 -0.070523 -0.22704 0.043909 0.013164 
0.016123 0.045718 0.039634 0.039141 -0.015938 -0.1011 0.039305 0.089123 
0.01563 0.054925 0.036675 0.012835 0.016945 -0.03912 0.0080668 0.078272 
0.010204 0.029605 0.028125 0.033715 0.031907 0.012342 -0.047998 0.048184 
0.0090533 0.042594 0.033715 0.0019835 0.04506 0.037168 -0.0060728 0.042594 
0.0067515 0.031085 0.023028 0.033222 0.090931 0.0098754 -0.017417 0.070215 
0.021056 0.028454 0.054432 0.037168 0.12776 0.024179 0.0031344 0.061666 
0.024179 0.059528 0.05624 0.040292 0.13565 0.017603 0.010697 0.044238 
0.015301 0.03092 0.029441 0.015794 0.13746 0.11477 -0.0072237 0.038319 
0.011191 0.016452 0.023357 0.030592 0.12349 0.15949 0.020069 0.0026412 
0.026481 0.046704 0.039634 0.020727 0.10096 0.14042 0.0082312 0.027139 
0.041443 0.022535 0.036839 0.053116 0.06594 0.13105 -0.0011404 0.038812 
0.039963 0.024837 0.030427 0.03536 0.014643 0.0786 0.0036276 0.038648 
0.028947 0.05213 0.0046141 0.061008 -0.03057 0.047362 -0.043559 0.017274 
0.011191 0.025659 0.0060938 0.010862 -0.024323 0.026481 -0.06855 -0.05589 
0.011848 0.031742 0.0093821 0.045718 0.00066819 0.05213 -0.0503 -0.15158 
0.025495 0.023522 0.016123 0.0059294 -0.019226 0.1031 -0.04882 -0.15076 
0.05772 0.026152 0.022206 0.035688 -0.041257 0.057555 -0.0057439 -0.012814 
0.0041209 0.049499 0.031907 0.017438 -0.03764 0.038319 0.014643 0.096193 
-0.13316 0.044567 0.039634 0.058542 -0.00081153 0.017932 0.0036276 0.09685 
-0.11409 0.045224 0.050321 0.024179 -0.01676 -0.033037 0.064132 0.12266 
0.18284 0.07449 0.05772 0.053281 -0.066741 -0.037476 0.10277 0.15423 
0.26636 0.043745 0.056733 0.027961 -0.090746 -0.039942 0.10885 0.069558 
0.15111 0.037004 0.03947 0.056404 -0.025802 -0.053753 0.11148 0.013821 
0.028783 0.043251 0.011191 0.030263 -0.030077 -0.059672 0.081724 0.040456 
0.0018191 0.024508 0.010533 0.026317 -0.011334 -0.052273 0.063968 0.053116 
0.0032988 0.040292 1.0539e-005 0.034866 0.18251 0.0079024 0.088794 0.077121 
0.017438 0.040456 0.013492 0.053774 0.2657 0.038319 0.03947 0.10096 
0.054103 0.033387 0.022206 0.027468 0.10984 -0.055232 -0.057699 0.074326 
0.021056 0.05213 0.016945 0.029605 -0.084827 -0.20238 -0.16687 0.043909 
-0.0036066 0.013821 -0.0027845 0.0065871 -0.098309 -0.14813 -0.17493 0.0037921 
-0.004593 0.036839 0.0098754 0.032729 0.0014903 0.16048 -0.059836 -0.16703 
0.0054362 0.06594 0.0042853 0.019083 0.099974 0.41762 0.044402 -0.352 
0.029769 0.055418 0.039799 0.051965 0.25699 0.55557 0.043909 -0.15454 
0.073175 0.069393 0.048184 0.066434 0.24943 0.49621 0.11214 0.032729 
0.012835 0.068736 0.032236 0.048348 0.067091 0.29661 0.147 0.10458 
0.012342 0.042594 0.039634 0.012999 -0.099953 0.13105 0.13368 0.091589 
-0.0052507 0.029441 0.036182 0.0065871 -0.14106 -0.12905 0.11313 0.058542 
0.022864 0.027796 0.016452 -0.003771 -0.14221 -0.32619 0.018425 0.046046 
0.052459 0.028454 0.0036276 0.0062583 -0.13662 -0.38587 -0.006566 0.082217 
0.067091 0.053445 0.009711 0.012999 -0.090253 -0.27785 -0.037476 0.038812 
0.074819 0.031085 0.015959 0.041772 -0.017417 -0.10078 -0.038133 -0.010019 
0.058377 0.045389 0.026974 0.026317 0.052787 0.031907 0.005765 -0.058028 
0.040128 0.068736 0.036017 0.03651 0.10819 0.27277 0.040621 -0.0026201 
0.045718 0.037168 0.024673 0.033222 0.13582 0.35695 0.050979 0.044238 
-0.013471 0.021878 0.010697 0.016945 0.089452 0.16525 0.056733 0.088136 
0.0072447 0.028619 0.011684 0.020891 0.088958 -0.011663 0.036182 0.08567 
0.0044497 0.05772 0.025988 0.033715 0.11576 -0.096665 0.018589 0.069886 
0.041443 0.050486 0.019083 0.032564 0.1105 -0.054246 0.036346 0.068571 
0.047362 0.061008 0.024837 0.025166 0.12003 0.0023123 0.017603 0.080573 
0.057227 0.052952 0.038155 0.036346 0.088465 0.016781 0.031578 0.098494 
0.063968 0.083204 0.028619 0.027468 0.078765 0.070215 0.076134 0.11855 
0.10293 0.053281 0.035853 0.036182 0.058706 0.090274 0.090438 0.10063 
0.12875 0.031742 0.02829 0.046868 0.050814 0.064132 0.097179 0.069722 
0.084684 0.038155 0.017438 0.014643 0.011848 0.039799 0.053609 0.027796 
0.030263 0.020562 0.027468 0.039141 -0.0032777 0.038648 0.022371 -0.0011404 
-0.033201 0.034373 0.037497 0.049335 0.009711 0.086821 0.0046141 -0.073647 
-0.086142 0.071695 0.053774 0.046704 0.02681 0.072517 -0.0024557 -0.062302 
-0.10916 0.06183 0.049335 0.041607 -0.018075 0.026317 -0.006566 -0.020212 
-0.048656 0.060844 0.025824 0.0093821 -0.066577 -0.051287 0.048513 -0.027282 
-0.00097594 0.039305 0.016945 -0.006566 -0.056712 -0.11771 0.082875 -0.0073881 
0.0042853 0.032564 0.030098 0.010697 -0.033859 -0.1667 0.12677 0.012177 
0.013328 0.054103 0.048348 0.047526 -0.071674 -0.2208 0.10491 0.014972 
0.043416 0.044238 0.064461 0.052952 -0.083183 -0.1159 0.059528 0.039634 
0.12398 0.058542 0.055418 0.049006 -0.033859 0.090438 0.0095465 0.13615 
0.097508 0.08008 0.055582 0.022535 0.0079024 0.15801 -0.055232 0.19649 
0.082875 0.077449 0.059857 0.029441 -0.0032777 0.19007 -0.092883 0.22082 
0.035853 0.044567 0.039141 0.0070803 -0.0042642 0.19385 -0.038133 0.16442 
0.020891 0.048677 0.036346 0.04506 0.15883 0.19106 -0.081045 0.055254 
0.0047785 0.04358 0.049499 0.045224 0.40529 0.19106 -0.16506 -0.03057 
-0.010841 0.054267 0.053445 0.097015 0.58121 0.12595 -0.094034 0.04506 
0.021713 0.027796 0.030098 0.041607 0.25683 0.02829 0.022206 0.16212 
0.055582 0.036182 0.020891 0.015465 -0.23 -0.056055 0.12233 0.03947 
0.079258 0.06594 0.035195 0.0074092 -0.43289 0.079422 0.1738 -0.30399 
0.08567 0.062159 0.044073 0.054432 -0.31747 0.11165 0.16377 -0.46364 
0.071366 0.045389 0.045553 -0.0021268 -0.14681 -0.13021 0.10145 -0.16769 
0.062652 0.047362 0.058049 0.048677 0.14979 -0.27094 0.027632 0.20224 
0.064625 0.037332 0.061337 0.033058 0.30598 -0.28426 0.0031344 0.17955 
0.053445 0.036675 0.059528 0.064954 0.18728 -0.26354 -0.035996 0.02122 
0.049992 0.057062 0.052623 0.038812 0.080738 -0.14023 -0.041093 0.1687 
0.054432 0.044402 0.051636 0.058871 0.056898 -0.040106 -0.0042642 0.37948 
0.049992 0.074819 0.04358 0.041443 0.063474 0.00083261 0.046211 0.4385 
0.035524 0.041278 0.067749 0.054596 -0.0034422 -0.0022913 0.044238 0.20553 
-0.0078813 0.024673 0.058871 0.031578 -0.039942 0.035031 0.022206 -0.38357 
-0.045203 0.049992 0.050979 0.045553 -0.0098543 0.11625 0.031742 -0.63446 
-0.037805 0.041936 0.080409 0.0082312 0.078436 0.1276 0.017438 -0.32882 
-0.028104 0.014479 0.05065 0.053938 0.086163 0.14502 0.037168 0.038483 
-0.0031133 0.041278 0.044567 0.016781 0.055418 0.076134 0.040128 0.16229 
0.042923 0.038812 0.03651 0.045882 0.018589 -0.058028 0.050979 0.20602 
0.055911 0.025001 0.042758 0.029276 -0.0036066 -0.09387 0.067091 0.19813 
0.055254 0.041278 0.040456 0.036675 0.018918 -0.028433 0.027468 0.13467 
0.062323 0.032564 0.043416 0.030427 0.053774 0.1174 -0.03353 0.032893 
0.033058 0.049335 0.062817 0.020398 0.072681 0.17807 -0.06296 -0.05441 
0.026152 0.031249 0.06183 0.0069159 0.078929 0.2223 -0.079401 -0.078579 
0.03092 0.020398 0.051143 0.032236 0.056404 0.23085 -0.00081153 -0.023665 
0.053938 0.047033 0.058542 0.039305 0.044238 0.18942 0.042758 0.01711 
0.054925 0.03536 0.050321 0.028947 0.04654 0.10129 0.043416 0.034373 
0.033222 0.041443 0.038155 0.021549 0.036182 -0.073647 0.05476 0.017932 
0.022042 0.047197 0.03388 0.026974 0.017274 -0.17131 0.041936 -0.02087 
0.043416 0.029934 0.038648 0.015794 -0.0021268 -0.17312 0.01152 -0.0087034 
0.067091 0.02829 0.028619 0.0041209 -0.024487 -0.1256 0.043251 -0.00097594 
0.075312 0.048019 0.046704 -0.001798 -0.013143 -0.059836 0.0037921 0.016452 
0.059528 0.046046 0.031578 0.017767 0.013657 -0.031886 0.036017 0.021056 
0.035031 0.059364 0.052787 0.025495 0.01267 0.0028056 0.084519 0.018425 
-0.0072237 0.034209 0.045718 0.025001 0.01152 0.0092177 0.049499 0.0090533 
-0.031557 0.014479 0.050814 0.029934 0.042429 -0.10225 0.038977 0.0098754 
-0.022185 0.041114 0.050979 0.027303 0.055089 -0.1016 0.0095465 -0.00064712 
-0.022514 0.030756 0.051801 0.025824 0.0013258 -0.083347 0.0041209 -0.0014692 
-0.010512 0.01711 0.077943 0.041443 -0.081045 -0.085156 0.033387 0.016452 
0.033222 0.048841 0.059857 0.032893 -0.13645 -0.11689 0.015794 0.13023 
0.041278 0.03651 0.053445 0.0042853 -0.16934 -0.035174 0.015301 0.21572 
0.022042 0.020233 0.037004 -0.0029489 -0.16029 0.18498 -0.0027845 0.10392 
0.009711 0.029441 0.045224 -0.037476 -0.12774 0.30878 -0.0078813 -0.015938 
-0.013965 0.024508 0.02681 -0.0034422 -0.0055795 0.27573 0.0095465 -0.015444 
-0.035667 0.0041209 0.06331 -0.014622 0.083862 0.22115 0.11247 0.03947 
-0.034845 0.041936 0.064461 0.025659 0.19336 0.23874 0.15801 0.0085601 
-0.061316 0.071366 0.066927 0.043087 0.41433 0.2953 0.17824 -0.047834 
-0.022843 0.097508 0.043251 0.064954 0.37701 0.17889 0.13499 -0.07003 
0.077449 0.056569 0.038812 0.027961 0.07301 0.00066819 0.017767 -0.049149 
-0.00081153 -0.0027845 0.019247 0.014808 -0.17164 -0.10637 -0.036983 0.025988 
-0.008539 0.020398 0.039634 0.0016547 -0.2106 -0.19614 -0.045039 0.15275 
0.097837 0.026646 0.065776 0.043087 -0.039942 -0.21323 -0.012814 0.2052 
0.10211 0.055254 0.062817 0.046046 0.057391 -0.24299 -0.042244 0.13878 
0.025166 0.072188 0.050157 0.066927 -0.12741 -0.26881 -0.15158 0.073339 
-0.0044286 0.053116 0.043745 0.0021479 -0.25384 -0.21817 -0.13021 0.095535 
-0.069372 0.051143 0.035031 -0.016595 -0.32092 -0.066577 0.018096 0.10606 
-0.21011 0.0072447 0.027303 -0.036983 -0.31221 0.098659 0.092576 0.0421 
-0.18512 0.015465 0.047526 0.015794 -0.17838 0.2121 0.12529 0.041772 
0.22296 0.084519 0.06331 0.041772 0.069558 0.27902 0.16064 0.16936 
0.51857 0.066598 0.063639 0.096357 0.46629 0.13434 0.17725 0.19254 
0.43653 0.045718 0.063803 0.078436 0.7573 -0.090088 0.14256 0.12168 
0.15949 0.049335 0.071366 0.10672 0.55178 -0.099131 0.054267 0.032564 
-0.048985 0.030756 0.056898 0.040292 0.19369 -0.075784 -0.014458 0.017767 
-0.10324 0.022535 0.035688 0.013164 -0.025638 0.036839 -0.010183 0.038977 
-0.08384 0.035853 0.0324 -0.0096899 -0.1524 0.01826 -0.026789 0.031907 
-0.090088 0.022371 0.041936 0.021878 -0.20748 -0.033201 -0.017088 0.024179 
-0.069536 0.053938 0.055747 0.010204 -0.21044 0.10408 -0.0014692 -0.012485 
-0.037476 0.041772 0.050979 0.048677 -0.22228 0.20487 -0.069701 -0.082854 
-0.020048 0.019411 0.013657 0.01267 -0.157 0.25288 -0.090088 -0.099295 
0.0026412 0.051801 0.029605 0.010369 -0.10834 0.32358 -0.020048 -0.17312 
0.019083 0.04917 0.053445 -0.0088678 0.020398 0.35268 0.093069 -0.18364 
0.054103 0.055747 0.076463 0.07301 0.20569 0.31601 0.1784 -0.027611 
0.071531 0.072188 0.048841 0.087479 0.33706 -0.16687 0.14733 0.10162 
0.060679 0.031249 0.075805 0.094713 0.3923 -0.7119 0.11954 0.11198 
0.056733 0.023028 0.055089 0.064625 0.38112 -0.74692 0.031414 0.08419 
0.079094 0.025001 0.030756 0.058871 0.23693 -0.37469 -0.070359 0.055089 
0.085999 0.02829 0.023686 0.0095465 0.078929 0.23118 -0.099131 0.049992 
0.097837 0.064461 0.038648 0.028619 -0.012978 0.76684 -0.03501 0.0786 
0.082711 0.054267 0.042265 -0.0013048 -0.1187 1.0559 -0.011005 0.10556 
0.087972 0.056733 0.05065 0.027468 -0.11672 1.1317 0.093398 0.058049 
0.090274 0.080409 0.058706 0.02681 -0.0059084 0.86138 0.15045 0.044731 
0.10293 0.038648 0.031742 0.062159 0.091918 0.27672 0.13499 0.049828 
0.027468 0.0227 0.045718 0.035195 0.1687 -0.3571 0.090603 0.044073 
0.022206 0.043909 0.039634 0.034209 0.14535 -0.72341 0.0074092 0.022864 
0.040292 0.022535 0.024837 0.0095465 0.029276 -0.69743 -0.034188 -0.0055795 
0.049828 0.03947 0.025824 0.030427 -0.039449 -0.50507 0.024344 0.016452 
0.058377 0.03388 0.03947 0.030263 0.0026412 -0.24316 0.030098 -0.038298 
0.014972 0.017274 0.047691 0.022535 0.0024767 -0.09387 0.012013 -0.073482 
-0.013965 0.055582 0.041278 0.019905 0.039963 0.02122 0.0039565 -0.076935 
-0.035338 0.037332 0.038812 0.02122 0.010369 0.12184 -0.0049219 -0.059178 
-0.012485 0.05476 0.037497 0.019905 0.059364 0.12464 -0.003771 -0.031392 
-0.020048 0.073997 0.064461 0.012835 0.021878 0.11362 0.0036276 0.0082312 
0.0072447 0.055911 0.030263 0.032071 -0.041257 0.1128 0.02122 -0.014951 
0.03388 0.041443 0.045389 0.033551 -0.029748 0.11 0.049992 -0.017417 
0.024508 0.06331 0.027468 0.011355 -0.025474 0.12842 0.057062 0.072517 
0.030098 0.038648 0.047033 0.0080668 0.0051074 0.1391 0.041772 0.17396 
0.049335 0.060186 0.024179 0.021713 0.0098754 0.11444 0.054925 0.20224 
0.053774 0.059693 0.035853 0.026317 0.01563 0.09685 0.0085601 0.091918 
0.023851 0.028619 0.00297 -0.0040998 0.010204 0.069064 -0.0050863 -0.025309 
0.018754 0.052623 0.0016547 -0.0021268 0.0047785 0.054267 -0.014787 -0.073154 
0.043745 0.019905 0.0044497 0.01415 0.016288 0.024344 -0.023994 -0.064111 
0.033551 0.04654 0.014972 0.027303 0.0028056 -0.011498 0.0092177 -0.08269 
0.032729 0.074161 0.015794 0.035688 -0.013965 -0.040435 0.014808 -0.10012 
0.015301 0.036017 0.028454 0.037497 -0.023994 -0.066577 0.0098754 -0.20271 
0.0082312 0.022206 0.020562 0.027796 -0.027118 -0.042079 0.051636 -0.33063 
0.0085601 0.042429 0.023686 0.024179 -0.031721 -0.037805 0.073997 -0.1187 
-0.028597 0.0054362 0.023193 0.023193 -0.059836 -0.019226 0.064954 0.1687 
-0.096994 -0.014129 0.036017 0.0069159 -0.052602 -0.012649 0.035195 0.26833 
-0.097816 -0.001798 0.041114 0.0024767 -0.056877 -0.080388 0.028454 0.29431 
-0.02087 -0.001798 -0.0077169 -0.019555 -0.080059 -0.23263 0.061666 0.30253 
0.049828 0.067091 -0.0087034 -0.0054151 -0.081045 -0.42171 0.084684 0.2292 
0.078272 0.073504 1.0539e-005 -0.0073881 -0.062302 -0.47235 0.083862 0.079587 
0.094877 0.074161 0.050321 0.03536 -0.025802 -0.35956 0.07301 -0.016266 
0.078765 0.071531 0.031249 0.030427 0.019411 -0.18528 0.013821 -0.042079 
0.058377 0.037826 0.040292 0.04506 0.13319 0.030592 -0.0057439 -0.038627 
0.056076 0.038155 0.026317 0.038483 0.14124 0.19961 0.03536 -0.00064712 
0.042429 0.045882 0.032893 0.048841 0.053116 0.29168 0.036182 0.0083956 
0.029441 0.029934 0.033222 0.029441 0.031578 0.47237 -0.027447 0.0085601 
0.037661 0.046704 0.0082312 0.067749 0.018425 0.43242 -0.13316 0.023522 
0.035031 0.049828 0.0044497 0.023028 -0.072989 0.096357 -0.24414 0.052294 
0.048677 0.047526 0.031907 0.026646 -0.11804 -0.3104 -0.25319 0.1031 
0.025988 0.050979 0.036017 0.0054362 -0.12642 -0.43552 -0.086307 0.14864 
0.024837 0.047855 0.015794 0.025659 -0.098802 -0.35792 0.12579 0.19649 
-0.0062372 0.022042 0.027632 0.014972 -0.041915 -0.24201 0.23808 0.19961 
0.0060938 0.0324 0.00033937 0.028947 0.042265 -0.15684 0.13023 0.18662 
-0.00015387 0.016781 0.0019835 0.03651 0.12316 -0.15618 0.0051074 0.12924 
0.0037921 0.018425 0.026481 0.060844 0.1567 -0.084498 -0.010348 0.058377 
0.038648 0.053445 0.016452 0.0421 0.20832 0.17478 0.062652 0.021056 
0.080409 0.043416 0.017274 0.052459 0.051965 0.28938 0.10293 -0.13152 
0.081889 0.070708 0.041278 -0.0062372 -0.1039 0.20043 0.063803 -0.53121 
0.076299 0.072681 0.032893 0.06479 -0.097816 0.054925 -0.025967 -0.83274 
0.065447 0.064625 0.021878 0.081724 0.12891 0.040621 -0.05885 -0.60832 
0.034209 0.094384 0.028454 0.091425 0.36452 0.11378 -0.033694 -0.11689 
0.037332 0.03388 0.028125 0.044402 0.33755 0.13631 0.067091 0.33854 
0.010862 0.03651 0.016288 0.047362 0.1978 0.13927 0.13351 0.52515 
-0.035174 0.046375 0.045224 0.011684 0.026152 0.12562 0.12546 0.51101 
-0.049807 0.029769 0.015465 0.017767 -0.06444 -0.022514 0.059035 0.40924 
-0.01232 0.030756 0.0013258 0.03651 0.010204 -0.11968 0.031578 0.25008 
0.033222 0.056076 0.017767 0.060022 0.044402 -0.094034 0.028947 0.055747 
0.076956 0.041936 0.042265 0.047033 -0.057534 0.042594 0.057062 0.019905 
0.1031 0.05772 0.013657 0.055747 -0.073482 0.15637 0.058542 0.051801 
0.054267 0.042758 -0.0019624 0.01267 -0.038298 0.22082 0.010697 0.082711 
-0.074304 0.0070803 -0.0077169 0.027303 -0.003771 0.29678 -0.028433 0.1031 
-0.21307 0.015465 0.0014903 0.022042 0.083204 0.3484 -0.053588 0.028125 
-0.16753 0.018754 -0.0083746 0.067913 0.18925 0.34857 -0.069536 -0.098638 
0.0016547 0.027468 0.02122 0.045389 0.22016 0.18152 -0.021692 -0.15569 
0.12562 0.069722 0.017767 0.046704 0.15242 0.028454 0.0052718 -0.12297 
0.16673 0.080902 0.041278 0.057555 0.10573 -0.020048 0.035853 -0.037147 
0.17034 0.10195 0.033715 0.051965 0.06035 -0.047669 0.089452 0.032236 
0.16952 0.12003 0.029769 0.038977 0.02829 -0.04882 0.10096 0.062323 
0.14798 0.097672 0.023357 0.032564 0.041443 -0.028269 0.080902 0.073997 
0.1031 0.081724 0.017438 0.022042 0.10573 0.00297 0.08156 0.013986 
0.02681 0.029605 0.027961 0.0082312 0.12529 0.049335 0.07301 -0.01528 
-0.13892 0.0056006 0.033551 0.031578 0.092247 0.045389 0.045389 -0.012649 
-0.25088 0.010697 0.012999 0.039634 0.037826 0.06742 0.038483 -0.0503 
-0.014951 0.032729 0.012506 0.02829 0.012506 0.058213 0.028947 0.099974 
0.28017 0.04654 0.010369 0.046046 0.036017 0.046868 0.067091 0.17067 
0.24137 0.04095 0.018589 0.035195 0.022042 0.043745 0.03799 0.094055 
0.10507 0.0093821 0.019411 0.012177 -0.016266 0.044567 0.036017 0.044731 
0.0013258 0.009711 0.022864 -0.0040998 -0.081703 0.034537 0.07038 0.086821 
-0.040764 0.055089 0.0083956 0.013492 -0.099624 0.0016547 0.064954 0.092576 
-0.047834 0.01974 -0.0036066 0.012999 -0.074633 0.019411 0.007738 0.10014 
-0.027775 0.044402 0.0082312 -0.023665 -0.091404 -0.062467 0.013821 0.084684 
-0.00015387 0.051308 0.0093821 0.032893 -0.12856 -0.17049 -0.006566 0.035853 
0.012999 0.048513 0.040128 0.012835 -0.12544 -0.26831 0.020727 -0.02498 
-0.0083746 0.076792 0.025495 0.044896 -0.055726 -0.22425 0.051308 -0.040435 
-0.004593 0.034209 0.019083 0.018425 0.12644 -0.073154 0.041443 -0.039613 
-0.034352 0.0075736 0.0069159 0.0421 0.27096 0.090109 0.040128 -0.040764 
-0.01528 0.029112 0.037004 0.017603 0.072681 0.12612 0.040128 -0.0078813 
0.023522 0.026152 0.064461 0.041278 -0.26979 0.19139 0.047691 0.043251 
0.02829 0.0062583 0.023193 -0.0077169 -0.48813 0.24663 0.040128 0.064461 
0.023851 0.00050378 0.0072447 -0.043559 -0.49208 -0.074633 0.023028 0.12792 
0.078272 0.00099702 -0.010841 -0.042573 -0.16473 -0.48435 0.015137 0.14897 
0.1128 0.046868 0.0034632 0.0092177 0.20619 -0.59122 0.0098754 0.12891 
0.065283 0.080409 0.031085 0.046868 0.366 -0.19005 -0.0027845 0.040785 
0.083862 0.057391 0.041278 0.065776 0.38162 0.22937 -0.059014 0.065612 
0.16558 0.086492 0.022206 0.039963 0.40069 0.64073 -0.14023 0.087808 
0.21605 0.054596 0.02681 0.044731 0.42075 1.0135 -0.018568 0.10935 
0.14223 0.058871 0.024508 0.022535 0.35514 0.93191 0.16081 0.13878 
0.085012 0.080409 0.048019 0.039963 0.10589 0.58911 0.19632 0.11625 
0.086657 0.062488 0.037497 0.00017495 -0.11738 0.28954 0.15571 0.085999 
0.074654 0.037332 0.027139 0.013164 -0.21751 -0.1279 0.10014 0.073832 
0.027468 0.027796 0.02122 -0.031886 -0.24382 -0.54765 0.052787 -0.0022913 
-0.031228 0.01004 0.0064227 0.0067515 -0.218 -0.64745 -0.062467 -0.40593 
-0.073976 0.025824 -0.00031829 -0.016595 -0.11245 -0.40527 -0.063453 -0.69381 
-0.012485 0.058049 0.016123 0.041278 -0.041751 -0.20633 -0.035503 -0.32767 
0.05213 0.06331 0.012013 0.01826 -0.054904 -0.090746 0.0046141 0.13828 
0.030756 0.05213 0.013328 0.043909 -0.047669 -0.02942 0.019576 0.31174 
0.014808 0.0044497 0.0085601 0.0041209 0.0059294 -0.052437 0.020562 0.27836 
-0.02794 -0.0027845 -0.0013048 0.02681 0.088136 -0.0013048 0.013821 0.15686 
0.011848 0.037661 -0.0088678 0.03092 0.1978 0.056733 0.023851 0.084026 
0.025824 0.027468 0.028619 0.079258 0.22608 0.10967 0.0087245 0.073832 
0.037826 0.038648 0.043745 0.081067 0.20997 0.1687 0.0098754 0.068242 
0.048019 0.0592 0.036017 0.077943 0.17725 0.20734 -0.012978 0.013328 
0.032729 0.045882 0.034373 0.022371 0.11494 0.24022 0.023028 -0.0090322 
0.023028 0.058049 0.0087245 0.042265 0.065118 0.19057 0.027961 -0.0090322 
0.0227 0.04917 0.0059294 0.0056006 0.029605 0.14141 0.051472 0.017438 
0.014972 0.037497 0.0079024 0.033551 0.012013 0.13927 0.086657 0.03388 
0.017274 0.066598 0.01563 0.027632 0.032564 0.12776 0.092576 -0.0031133 
0.0065871 0.039799 0.0083956 0.036017 0.048513 0.12266 0.089616 -0.024816 
0.023851 0.041607 0.010369 0.019083 0.060186 0.089452 0.063639 0.0051074 
0.046211 0.073832 0.01826 0.051308 0.05065 0.032893 -0.011827 -0.033694 
0.04917 0.065776 0.013492 0.038155 0.023028 0.035853 -0.065755 -0.0096899 
0.024508 0.079916 0.065118 0.0032988 0.013164 0.0093821 -0.019719 -0.0040998 
0.0098754 0.081231 0.026481 0.03947 0.0052718 -0.016924 0.018425 -0.016266 
-0.0064016 0.046704 -0.013636 0.055582 0.029112 -0.050136 0.0227 -0.0026201 
-0.10883 0.049828 0.019247 0.047033 0.03092 -0.082032 0.034209 -0.018404 
-0.11245 0.017274 0.012342 0.023028 0.074654 -0.065262 0.0080668 -0.006566 
0.1008 0.03536 0.019576 0.019083 0.030263 -0.082196 0.045718 0.11559 
0.1641 0.056898 0.023851 0.039963 0.0085601 -0.091239 0.0026412 0.11115 
0.068078 0.037004 -0.0034422 0.017603 -0.026789 -0.10867 0.012999 0.031414 
-0.012649 0.0069159 -0.0080457 0.013821 -0.047176 -0.11228 0.031249 0.0011614 
-0.035174 0.047033 0.0092177 0.0093821 -0.066248 -0.086964 0.01826 0.0080668 
0.0088889 0.026974 0.019247 0.023028 -0.06 -0.099789 0.020727 0.03536 
-0.0039354 0.037826 0.011191 0.030098 -0.032543 -0.11524 0.047362 0.063145 
-0.011005 0.044402 0.0021479 0.014643 -0.040435 -0.096829 0.064954 0.10293 
-0.042737 0.0037921 0.00297 0.01415 -0.046683 -0.10686 0.041278 0.076792 
-0.069043 0.03092 -0.0044286 0.0059294 -0.023665 -0.072496 0.0028056 0.024837 
-0.05737 0.045553 0.03799 0.040456 -0.0070593 -0.079072 -0.00064712 0.031249 
0.033387 0.047691 0.041607 0.040292 -0.0036066 -0.10176 0.056404 0.082546 
0.061666 0.051472 0.036839 0.046046 -0.0078813 -0.28031 0.00033937 0.10277 
0.015301 0.010697 0.023357 0.034209 -0.016102 -0.36992 -0.021528 0.10836 
-0.0060728 0.037332 0.025659 0.027961 -0.04471 -0.28147 -0.01939 -0.015938 
-0.0068948 0.047197 0.0079024 0.020891 -0.14369 -0.29758 -0.018733 -0.19696 
0.0031344 0.048184 0.0098754 0.02533 -0.27275 -0.33852 -0.012156 -0.17904 
0.035195 0.047197 0.015301 -0.0083746 -0.35644 -0.28377 0.021056 -0.010183 
0.054925 0.046211 0.0088889 0.0051074 -0.25302 -0.066741 0.045389 0.095371 
0.11148 0.023357 -0.0044286 -0.03912 -0.1547 0.29431 0.045882 0.15801 
0.10556 0.055254 0.00033937 -0.029748 -0.13382 0.56527 -0.020212 0.12118 
0.054267 0.040128 0.022864 -0.031886 -0.16506 0.53271 -0.071016 0.071531 
0.048184 0.055418 0.056569 0.030263 0.1442 0.48454 0.019083 0.0689 
0.068078 0.094055 0.06331 0.073997 0.6968 0.49457 0.14141 0.044238 
0.081889 0.081395 0.089452 0.1276 1.058 0.44968 0.21506 -0.067399 
0.095371 0.056898 0.066598 0.11872 1.0608 0.30779 0.22049 -0.083676 
0.055582 0.049828 0.044402 0.088958 0.47073 0.009711 0.15423 -0.0014692 
0.032729 0.019576 0.012835 0.0052718 -0.20304 -0.37058 0.06742 0.10063 
0.019083 0.020069 0.0042853 0.0074092 -0.43749 -0.42533 -0.010183 0.092576 
0.0072447 0.057391 0.014479 -0.01117 -0.30876 -0.17591 -0.11064 -0.0040998 
0.024179 0.057884 0.033715 0.056898 -0.16769 -0.08828 -0.19844 -0.047176 
0.011684 0.060022 0.028619 0.040128 -0.14171 -0.10406 -0.20978 0.0026412 
0.013657 0.046375 0.015301 0.038319 -0.14319 -0.032379 -0.080388 0.07301 
0.023357 0.020069 -0.0098543 -0.031721 -0.19005 -0.0019624 0.073997 0.055911 
0.022535 0.066269 0.01004 0.026646 -0.14763 0.068736 0.097508 0.016452 
0.061501 0.061501 -0.014458 0.021878 -0.037805 0.090438 0.084848 0.071531 
0.073832 0.034866 0.021384 0.038483 0.13121 0.13878 0.083862 0.078765 
0.08567 0.041607 0.0070803 0.019576 0.19698 0.17939 0.024344 0.05213 
0.08567 0.037004 0.0227 0.040292 0.20339 0.20569 0.050814 0.018754 
0.053938 0.07301 0.019905 0.022864 0.19796 0.25387 0.10951 0.020562 
0.069393 0.063968 0.039799 0.058377 0.20586 0.23578 0.10244 0.0065871 
0.080902 0.06035 0.039963 0.039799 0.14437 0.20191 0.10918 0.031578 
0.058377 0.058049 0.032564 0.050321 0.085341 0.18876 0.056898 0.023522 
0.052787 0.026646 0.027303 0.027303 0.055254 0.17347 0.018425 0.012835 
0.043909 0.037497 0.029276 0.058213 0.085999 0.14765 0.019411 0.012013 
0.04358 0.061995 0.031907 0.028619 0.10737 0.13253 -0.00015387 0.034866 
0.041936 0.043416 0.036346 0.066598 0.11724 0.10458 0.0088889 0.015465 
0.025824 0.061501 0.048348 0.032236 0.13335 0.090438 0.039141 0.014315 
0.021384 0.05213 0.022371 0.037168 0.13417 0.06183 0.023028 0.042265 
0.0092177 0.050157 0.018589 0.0032988 0.13697 0.090438 0.039799 0.042594 
0.022206 0.055582 0.019576 0.037004 0.13072 0.086492 0.054925 0.053938 
0.033387 0.057227 0.037004 0.049828 0.14667 0.022864 0.037661 0.072681 
0.04095 0.051965 0.038155 0.029112 0.12924 0.011355 0.047526 0.06479 
0.026481 0.061172 0.046046 0.030263 0.026646 -0.019555 0.013821 0.013328 
0.011026 0.02829 0.046704 0.038483 -0.066906 -0.027611 -0.018733 -0.0059084 
0.03651 0.01152 0.0421 0.015137 -0.091404 -0.083183 0.029112 -0.025967 
0.023686 0.038648 0.026974 0.027303 -0.06855 -0.050958 0.012999 0.01267 
0.038319 0.024344 0.029769 0.011355 -0.06296 -0.0070593 0.021549 0.050157 
0.013328 0.019411 0.0044497 0.018425 -0.055068 -0.021528 0.060515 0.067091 
-0.03057 0.026481 0.00033937 0.0064227 -0.056877 -0.058192 0.015465 0.021056 
-0.060329 0.00099702 0.004943 0.014315 -0.016595 -0.13267 0.039634 -0.043395 
-0.017417 0.015301 0.01974 0.017932 0.014315 -0.20222 0.062323 -0.070359 
0.020398 0.055254 0.029112 0.040456 -0.065919 -0.24234 0.051308 0.077943 
0.070215 0.055089 0.01711 0.036346 -0.12198 -0.18956 0.041607 0.15735 
0.072024 0.07038 0.0324 0.053445 -0.12248 -0.006566 0.0065871 0.14864 
0.044402 0.030263 0.042594 0.021878 -0.1085 0.063968 -0.051287 0.10129 
0.035853 -0.00064712 0.043416 0.024344 -0.12988 0.16738 -0.11228 0.092576 
0.028619 0.024837 0.034209 0.018425 -0.21291 0.12529 -0.062796 0.11477 
0.0059294 0.036839 0.042265 0.014315 -0.22014 0.024673 0.072024 0.10885 
0.012342 0.052787 0.044731 0.021878 -0.047176 0.16459 0.16771 0.11263 
-0.0014692 0.051143 0.036839 0.033222 0.1179 0.16574 0.12266 0.11855 
-0.0083746 0.024837 0.038648 0.022042 0.15949 -0.053917 0.02681 0.080244 
-0.003771 0.029276 0.014808 0.004943 0.12908 -0.29643 -0.021528 0.044073 
-0.0073881 -0.0050863 0.083204 -0.014129 0.033058 -0.64285 -0.018733 -0.14763 
-0.010348 0.029934 0.018425 0.018754 -0.008539 -0.7438 0.070051 -0.38735 
-0.013143 0.078436 0.047033 0.029112 -0.0022913 -0.6098 0.08419 -0.52562 
0.0014903 0.052623 0.035853 0.025824 -0.050136 -0.3668 0.057391 -0.43207 
-0.0083746 0.047526 0.028947 0.039141 -0.04323 0.12266 0.033222 -0.16506 
0.033387 0.054103 0.023522 0.022864 0.088958 0.61591 0.026646 0.073504 
0.041443 0.062488 0.049992 0.044567 0.25929 0.90791 -0.014293 0.18563 
0.025824 0.062159 0.043909 0.045882 0.29628 0.98206 0.01563 0.21572 
0.028125 0.053938 0.03092 0.042758 0.22657 0.97926 -0.031228 0.30911 
0.031249 0.033058 0.023686 0.025001 0.099152 0.74678 -0.047505 0.32621 
0.035195 0.04506 0.040292 0.041936 -0.036983 0.27327 -0.11409 0.23003 
0.011355 0.048348 0.0098754 0.022535 -0.16342 -0.19992 -0.1815 0.045882 
0.019247 0.047855 0.037497 0.030098 -0.21767 -0.45706 -0.10735 -0.034681 
0.0044497 0.063474 0.024673 0.011191 -0.16292 -0.35463 0.032071 0.026317 
0.0044497 0.03092 0.04506 0.023851 -0.094856 -0.14763 0.16821 0.093891 
0.038648 0.035688 0.032729 0.023851 0.015301 -0.069865 0.19862 0.11658 
0.022535 0.061008 0.03651 0.035688 0.21145 -0.10637 0.10967 0.06594 
0.044567 0.058706 0.04917 0.056404 0.30714 -0.19498 0.050321 0.034373 
0.05213 0.042758 0.038483 0.048841 0.21523 -0.11705 0.10819 0.033222 
0.03388 0.030756 0.048184 0.015465 0.0082312 -0.0011404 0.094384 0.055254 
0.03388 0.027139 0.027796 0.026152 -0.08384 0.043087 0.051965 0.0059294 
0.02533 0.044073 0.029934 0.028125 -0.075784 0.08419 -0.021692 -0.12412 
0.038319 0.044731 0.040621 0.037332 -0.010348 0.044567 -0.059836 -0.22787 
0.058377 0.029441 0.031085 0.015959 0.10672 0.0324 -0.035338 -0.21554 
0.047033 0.071859 0.049006 0.059857 0.16853 0.11461 -0.00097594 -0.085156 
0.022535 0.063474 0.0421 0.024179 0.19402 0.19698 0.045882 0.038977 
0.038812 0.050979 0.029605 0.057391 0.20471 0.23381 0.029112 0.081889 
0.055089 0.071695 0.03799 0.020727 0.12102 0.18481 0.018425 0.13565 
0.05213 0.054432 0.036839 0.047362 0.0041209 0.15111 0.01004 0.11707 
0.026317 0.058706 0.047033 0.049664 -0.022021 0.14305 0.025001 0.14338 
0.0036276 0.067749 0.036182 0.044896 0.0041209 0.13878 0.032236 0.12151 
-0.028433 0.043745 0.036182 0.01563 0.023522 0.11444 0.06035 0.092411 
-0.07414 0.034866 0.016452 0.044731 0.0054362 0.064296 0.064132 0.051308 
-0.066741 0.026974 0.024344 0.016288 0.010862 -0.0095255 0.042429 0.034044 
-0.026624 0.031414 0.035524 0.053116 0.01004 -0.050629 0.036839 0.051143 
0.039634 0.052787 0.044567 0.030263 0.00050378 -0.077922 0.0014903 0.055254 
0.080738 0.033551 0.038319 0.049828 -0.00031829 -0.05885 -0.012978 0.076956 
0.091753 0.038319 0.034866 0.016288 -0.013471 -0.097651 0.029276 0.071366 
0.11839 0.061008 0.019411 0.028783 0.029934 -0.15602 0.059857 0.056733 
0.10244 0.05213 0.016616 0.023357 0.012506 -0.19318 0.092411 0.048184 
0.089452 0.051801 0.055089 0.020398 -0.014951 -0.18939 0.081395 0.04095 
0.075476 0.0689 0.01826 0.0098754 -0.080717 -0.11837 0.058377 0.01152 
0.03799 0.047197 0.011684 0.0037921 -0.11738 -0.097158 0.045718 -0.0029489 
0.064625 0.062652 0.031085 0.0031344 -0.1085 -0.27094 0.056404 0.041607 
0.099316 0.088301 0.043087 0.0026412 -0.023665 -0.41678 0.068242 0.035031 
0.064296 0.048019 0.039141 0.021878 -0.034516 -0.44374 0.081067 0.030427 
-0.0088678 0.077121 0.070708 0.036839 -0.10867 -0.31386 0.0031344 0.043416 
-0.071016 0.037661 0.065118 0.037168 -0.12166 -0.19992 -0.14319 0.054925 
-0.059836 0.02829 0.04358 0.037332 -0.033037 -0.2471 -0.19285 0.04506 
-0.060165 0.033058 0.025495 0.015301 0.13072 -0.20353 -0.093705 0.084848 
-0.072989 0.026317 0.048677 0.0083956 0.20503 0.007738 0.081067 0.08715 
-0.13251 0.019083 0.045882 0.0087245 0.19764 0.27064 0.071366 0.03651 
-0.081045 0.048019 0.040785 0.024508 0.18218 0.28708 -0.080881 0.049006 
0.19665 0.042594 0.041278 0.017767 0.060186 0.47977 -0.15174 0.13368 
0.293 0.054267 0.052623 0.049335 0.13598 0.87289 -0.074304 0.11428 
0.2417 0.039141 0.05213 0.063968 0.20569 0.89755 0.12529 0.098166 
0.14601 0.034044 0.018918 0.036182 0.024344 0.74135 0.2851 0.056898 
0.075148 0.073339 0.024508 0.024179 -0.10456 0.22493 0.24466 0.00297 
0.060186 0.092082 0.044567 0.015465 -0.0027845 -0.40839 0.20931 -0.039449 
0.024837 0.10326 0.048841 0.03388 0.10376 -0.68231 0.20898 -0.036489 
0.041772 0.10787 0.041114 0.024508 0.10819 -0.632 0.14749 -0.043559 
0.029276 0.08008 0.045882 0.034537 0.064132 -0.43355 0.055911 -0.14566 
0.030756 0.054267 0.050486 0.019411 0.058049 -0.27768 -0.0068948 -0.16358 
0.012835 0.055911 0.049499 0.016945 -0.055561 -0.13004 -0.063124 -0.087293 
-0.013471 0.028125 0.050321 -0.0026201 -0.15947 -0.019226 -0.074469 0.038483 
-0.032708 0.024837 0.034044 0.0046141 -0.14287 0.066927 -0.08532 0.11346 
-0.058028 0.010204 0.046046 0.015137 -0.090746 0.15176 -0.084991 0.13582 
-0.0098543 0.0054362 0.049664 0.026646 0.0062583 0.17495 -0.030735 0.15982 
0.022371 0.03651 0.057391 0.022535 0.069558 0.22016 -0.035996 0.15933 
0.064461 0.028454 0.04917 0.021384 0.096028 0.25518 -0.023172 0.17215 
0.055582 0.042265 0.040785 0.028454 0.10359 0.25107 0.0088889 0.14996 
0.082217 0.046046 0.04917 0.036675 0.15242 0.24482 0.01974 0.13647 
0.070873 0.038812 0.053281 0.028947 0.13549 0.2001 0.036675 0.08567 
0.071037 0.03536 0.071695 0.042265 0.15144 0.19895 0.03799 -0.19268 
0.032893 0.056898 0.057227 0.027796 0.12661 0.18563 0.0051074 -0.62493 
0.035524 0.066269 0.044238 0.047526 0.085177 0.16952 0.045882 -0.4878 
0.052459 0.085506 0.048677 0.024837 0.042758 0.17445 0.069558 -0.011005 
0.038812 0.040456 0.070215 0.043909 0.041607 0.15522 0.04917 0.2486 
0.045389 0.0227 0.069886 0.01826 0.050979 0.13384 0.070873 0.27771 
0.032236 0.065447 0.058706 0.040456 0.059857 0.10606 0.058871 0.17396 
0.030427 0.038319 0.066763 0.028619 0.058377 0.048348 0.020233 0.042923 
0.02829 0.041278 0.057391 0.042923 0.050814 0.038977 0.065118 0.012835 
0.075641 0.053774 0.020727 0.027796 0.066434 0.0079024 0.053281 -0.068221 
0.035524 0.062323 0.049664 0.029605 0.064132 -0.019719 0.059528 -0.021363 
0.038155 0.086985 0.061995 0.041772 0.092576 -0.003771 0.04095 0.021549 
0.03388 0.049499 0.063474 0.072517 0.11494 0.029276 0.023028 0.032893 
0.024344 0.0032988 0.047855 0.0095465 0.037497 0.034209 0.023193 0.050979 
0.011191 0.043251 0.073175 0.048348 -0.087293 -0.043724 0.013492 0.040128 
-0.010348 0.046375 0.062981 0.0074092 -0.20797 -0.12149 0.0031344 0.014808 
-0.0049219 0.012177 0.050979 0.04095 -0.21866 -0.16934 0.0021479 -0.0034422 
-0.0024557 0.038483 0.034866 -0.004593 -0.20863 -0.16884 -0.0042642 -0.0021268 
-0.023172 0.01711 0.04095 0.02533 -0.12856 -0.10406 0.04917 -0.0083746 
-0.0022913 0.044402 0.057227 0.012999 -0.089266 -0.073154 0.10918 -0.03353 
0.013986 0.053774 0.060679 0.050979 -0.047834 -0.03353 0.18218 -0.0024557 
0.019576 0.032729 0.057062 0.040128 0.055418 -0.021528 0.1373 0.0072447 
-0.013636 0.054432 0.054925 0.049335 0.06742 -0.04619 0.077285 0.011848 
0.0079024 0.062652 0.078272 0.037168 0.17281 -0.00015387 0.010533 0.036675 
0.025988 0.048019 0.068736 0.059857 0.23003 0.0051074 -0.011827 0.073668 
0.0072447 0.04506 0.051308 0.032071 0.12924 -0.036325 -0.078744 0.054267 
0.011026 0.0069159 0.06183 0.036839 0.060186 -0.037476 -0.17838 0.046046 
0.0036276 -0.012156 0.047526 0.028125 0.096357 -0.032872 -0.24184 0.040785 
0.012835 0.038812 0.030263 0.041443 0.10754 0.016123 -0.24924 -0.060987 
0.0036276 0.016123 0.03651 -0.0024557 -0.0021268 -0.01117 -0.11343 -0.14188 
0.031907 0.036182 0.052459 0.010697 -0.16769 -0.034023 0.078436 -0.08269 
0.042429 0.055254 0.07301 0.0019835 -0.22113 -0.030735 0.15752 0.031085 
0.055747 0.054925 0.078272 0.057391 -0.1473 -0.052602 0.16837 0.11543 
0.0421 0.057884 0.085506 0.047855 -0.038627 -0.066084 0.11165 0.14354 
0.044731 0.076627 0.070708 0.064296 0.043745 -0.071016 0.10704 0.15193 
0.060186 0.049006 0.056569 0.027139 0.087808 -0.020541 0.099481 0.10392 
0.057884 0.070708 0.046704 -0.00031829 0.065118 0.07301 0.071695 0.078929 
0.02122 0.038648 0.030592 -0.011498 -0.016266 0.092576 0.067585 0.067749 
-0.030735 0.012506 0.022206 0.0060938 -0.084827 0.016781 0.048841 0.12776 
-0.050958 0.028454 0.040621 0.0014903 -0.06855 -0.12297 -0.08384 0.1271 
-0.13432 -0.0013048 0.052952 0.013492 0.0075736 -0.17361 -0.12577 0.045389 
-0.14385 0.018589 0.042594 0.014315 0.084519 -0.2305 -0.049478 0.037168 
0.095864 0.059528 0.044073 0.029605 0.058049 -0.34411 -0.013307 0.18448 
0.26685 0.071695 0.079094 0.017603 0.064461 -0.48287 0.035524 0.31305 
0.14469 0.080244 0.073668 0.020562 0.15587 -0.49109 0.037661 0.18744 
0.0056006 0.08304 0.074654 0.028619 0.38162 -0.19285 -0.011498 -0.19235 
-0.015609 0.054267 0.053116 0.036182 0.40151 0.35646 -0.0036066 -0.46775 
0.019905 0.099974 0.044402 0.03092 0.15834 0.81435 -0.035503 -0.32767 
0.10359 0.074819 0.050814 0.0067515 -0.036983 1.2287 -0.033694 -0.098473 
0.13335 0.082382 0.03536 0.041443 -0.10209 1.3316 0.097344 0.047691 
0.083204 0.06742 0.042758 0.030592 -0.030242 0.97104 0.15933 0.17692 
0.057391 0.064296 0.062488 0.034702 0.079916 0.32555 0.16114 0.20224 
0.088794 0.026152 0.069064 0.063474 0.14157 -0.32224 0.098988 0.082875 
0.13615 0.034209 0.051472 0.051801 0.10787 -0.59944 0.044567 0.00099702 
0.21917 0.035031 0.072681 0.050321 0.097672 -0.60668 0.01974 0.086492 
0.17889 0.06331 0.074983 0.0421 0.095699 -0.50688 0.0070803 0.16525 
0.042429 0.072024 0.062981 0.032071 0.048677 -0.44341 0.0023123 0.17018 
-0.066084 0.020891 0.029276 0.018754 -0.065262 -0.36893 -0.012156 0.10819 
-0.24858 0.019083 0.024015 -0.027775 -0.15569 -0.19893 -0.023336 -0.009361 
-0.41744 -0.00081153 -0.0026201 -0.019884 -0.19383 0.052623 0.0014903 -0.077922 
-0.32964 0.01711 -0.0019624 -0.015609 -0.15668 0.26603 0.028125 -0.0098543 
0.14864 0.08304 0.015794 0.029605 -0.094692 0.49999 0.023522 0.09981 
0.44508 0.076627 0.045553 0.023851 -0.020541 0.49671 0.019576 0.059035 
0.37537 0.039634 0.031414 0.032236 0.013657 0.36616 0.07449 -0.0080457 
0.18596 0.069393 0.033058 0.037497 0.078272 0.16163 0.089287 -0.0062372 
0.041607 0.054103 0.046704 0.034702 0.20388 -0.023501 0.14239 -0.0054151 
-0.016102 0.054596 0.052623 0.0421 0.31059 -0.060987 0.11905 -0.034516 
-0.033037 0.051801 0.031085 0.062817 0.22953 -0.047012 0.086492 -0.015773 
-0.056383 0.019576 0.038483 0.043087 0.13171 0.12414 0.077449 0.011684 
-0.0075525 0.04358 0.025001 0.054925 0.11017 0.20734 0.058871 0.025166 
0.0052718 0.041936 0.038977 0.041607 0.048348 0.21013 0.05213 0.054103 
0.01826 0.034866 0.02533 0.039634 -0.078579 0.17955 0.050157 0.032564 
0.050814 0.049828 0.038155 -0.004593 -0.16259 0.096193 0.033715 0.044073 
0.057391 0.023028 0.0011614 0.028783 -0.15552 0.034044 0.024179 0.028454 
0.068571 0.018918 -0.010183 0.022206 -0.078744 -0.040106 0.034373 0.031414 
0.029112 0.035688 0.0051074 0.045553 -0.0011404 -0.061151 0.028125 0.047033 
0.063474 0.020398 0.012506 0.0098754 -0.0004827 -0.055561 0.028947 0.044731 
0.039634 0.044896 0.019083 0.021549 -0.024652 -0.061809 0.025988 0.07038 
0.048841 0.057884 0.021549 -0.00097594 0.017438 -0.025309 0.01415 0.00050378 
0.052623 0.0324 0.0047785 0.051472 0.072517 -0.00015387 0.013328 0.0080668 
0.041772 0.061501 0.018589 0.018589 0.11691 0.0028056 0.031742 0.025495 
0.019905 0.029769 0.033058 0.064296 0.11592 -0.07003 0.078929 0.027961 
0.0011614 0.017767 0.020233 0.040292 0.043745 -0.19268 0.089945 0.053116 
0.0031344 0.043416 0.0062583 0.049499 -0.034845 -0.22704 0.029112 0.052952 
-0.010348 0.040785 0.022371 0.025001 -0.043066 -0.18528 0.005765 0.038483 
-0.0039354 0.028125 0.023193 0.048841 -0.045861 -0.034188 -0.01676 0.022206 
-0.014129 0.036346 0.012999 0.010697 -0.10225 0.064461 -0.048492 0.034702 
-0.0044286 0.046375 -0.00064712 0.020069 -0.14007 0.092082 0.019905 0.023686 
-0.0078813 0.027961 0.0018191 0.0062583 -0.13168 0.1248 0.028125 0.020398 
-0.0031133 0.039634 -0.012978 0.011848 -0.033037 0.11526 0.076463 0.0074092 
0.023851 0.040456 -0.019884 0.012177 0.13943 0.077285 0.059035 -0.030077 
0.03651 0.06183 0.012999 0.037826 0.3244 -0.00097594 -0.0098543 0.0056006 
0.034373 0.051801 0.0085601 0.0227 0.38869 -0.049642 -0.033201 0.038155 
-0.0013048 0.012506 0.032893 0.072024 0.27228 -0.090417 -0.0054151 0.0592 
0.0021479 0.054925 0.023522 0.033058 0.043087 -0.11689 0.0075736 0.057227 
0.039141 0.0421 0.0021479 0.05476 -0.17098 -0.088773 0.024015 0.062323 
0.045224 0.048677 0.01415 0.024015 -0.25779 -0.070523 0.0019835 0.0044497 
0.030263 0.050157 0.010862 0.035688 -0.20616 -0.0067304 -0.0091966 -0.014129 
0.027796 0.043745 0.0039565 0.015465 -0.10143 0.078436 0.03947 -0.009361 
0.031578 0.047691 0.0023123 0.022206 -0.046354 -0.01117 -0.0064016 -0.031392 
0.023522 0.053281 -0.0082102 0.013328 -0.047669 -0.15684 -0.0019624 -0.033859 
0.025166 0.034209 0.0054362 0.025166 -0.0026201 -0.14862 0.049664 -0.052109 
0.0036276 0.066269 0.02681 0.034702 0.094713 -0.083183 0.030427 -0.026296 
0.0034632 0.030263 0.0088889 0.0088889 0.20865 -0.0054151 0.060022 0.071859 
0.007738 0.037661 0.0054362 -0.0022913 0.14601 0.0036276 0.073175 0.1396 
0.015137 0.057227 0.020562 0.0052718 -0.064933 0.033222 0.0037921 0.1544 
0.023851 0.025495 0.049499 0.0072447 -0.098473 0.084848 -0.026131 0.12316 
0.020233 0.031578 0.020727 0.0075736 0.02829 0.15472 -0.037969 0.12858 
0.020398 0.038977 0.020069 0.012835 0.076792 0.11543 -0.088444 0.07038 
0.017932 0.030592 0.017767 0.0051074 0.080244 0.014479 -0.1187 0.025659 
0.017603 0.05065 0.0036276 0.035853 0.15028 -0.05441 -0.14665 -0.0073881 
0.015794 0.046046 0.022206 0.052952 0.14897 0.00066819 -0.066577 -0.20616 
0.055747 0.033387 0.0032988 0.046375 0.079751 0.061337 0.078272 -0.39261 
0.072024 0.075641 0.028619 0.031414 0.08156 0.055911 0.15719 -0.16769 
0.12431 0.06331 0.044731 0.038319 0.098494 0.020233 0.19616 0.15308 
0.1003 0.056076 0.045882 0.035853 0.067913 0.046868 0.19287 0.2759 
0.0786 0.054925 0.039141 0.036675 0.056569 0.11477 0.14453 0.30007 
0.020562 0.012177 0.025824 0.049664 0.13976 0.065283 0.069886 0.22444 
-0.0039354 0.01152 0.03799 0.051308 0.0592 0.039634 -0.0026201 0.10556 
0.018589 0.039963 0.047855 0.041772 -0.11031 -0.0022913 -0.043395 0.024837 
0.0065871 0.020727 0.033715 0.014808 -0.20518 -0.0044286 -0.008539 -0.0077169 
0.005765 0.033058 0.01152 -0.0014692 -0.22162 -0.058192 -0.027282 -0.023994 
0.0074092 0.032893 0.0024767 0.00050378 -0.10308 -0.24677 0.0047785 0.036017 
0.045389 0.041936 0.0013258 0.016945 0.084519 -0.26848 0.039141 0.061008 
0.07038 0.070544 0.046704 0.050321 0.30039 -0.11311 0.025824 -0.0032777 
0.064625 0.048513 0.041772 0.045718 0.3101 0.10869 -0.034188 -0.12281 
0.016616 0.042594 0.035195 0.055747 0.17955 0.36517 -0.07973 -0.23822 
0.014479 0.092247 0.02533 0.00099702 0.11148 0.44146 -0.11672 -0.14829 
0.058213 0.061995 0.046375 0.055418 0.035853 0.4117 0.022535 0.037332 
0.10524 0.074161 0.051143 0.080902 0.037497 0.4482 0.098166 0.18218 
0.084026 0.073832 0.030756 0.046868 0.047362 0.44261 0.15209 0.18103 
0.058871 0.058871 0.026481 -0.0059084 0.072188 0.15308 0.11411 0.14338 
0.045882 0.038319 0.017274 0.032236 0.00033937 -0.23428 0.046868 0.093726 
0.037168 0.018589 0.030098 0.0036276 -0.060494 -0.37929 0.010533 0.056076 
0.026481 0.0080668 0.020891 0.038812 -0.071181 -0.33145 0.010862 0.016123 
0.011355 0.046211 0.017603 0.018425 0.0014903 -0.19761 0.0014903 0.029112 
0.013328 0.035031 0.032893 0.057062 0.016781 -0.073976 0.0032988 0.037332 
0.02829 0.016123 0.031085 0.029605 -0.0406 -0.046519 0.007738 0.029934 
0.029112 0.085835 0.03388 0.041443 -0.10094 -0.0059084 0.033551 0.061172 
0.049499 0.059528 0.028619 0.013986 -0.076935 0.020233 0.052294 0.078107 
0.025824 0.060515 0.027139 0.056733 -0.033859 0.050157 0.028454 0.041936 
0.053116 0.053938 0.016123 0.019576 0.012999 0.1151 -0.012978 -0.0049219 
0.027961 0.041443 0.0060938 0.024015 0.066434 0.093891 0.00033937 -0.032543 
0.012013 0.034044 -0.0042642 0.01563 0.10589 0.044402 -0.0016336 -0.07414 
-0.014951 0.025988 0.0069159 0.06183 0.12628 -0.13021 0.056733 -0.098473 
-0.031886 0.029934 0.0047785 0.030263 0.09685 -0.31731 0.11987 -0.10719 
-0.010019 0.064954 0.023193 0.060679 0.18284 -0.24612 0.11592 -0.10982 
0.011684 0.084355 0.034373 0.038319 0.29661 -0.0503 0.099152 -0.02794 
0.052459 0.066269 0.047855 0.077121 0.25222 0.33229 0.075312 0.076627 
0.057555 0.080244 0.056733 0.035031 0.035524 0.58417 0.01974 0.10655 
0.049828 0.038155 0.04654 0.041607 -0.15865 0.4265 0.0067515 0.10425 
0.020562 0.029934 0.023028 0.014643 -0.2083 -0.11261 -0.004593 0.064132 
0.019576 0.050157 0.0032988 0.036839 -0.16934 -0.58382 -0.05885 0.04654 
0.020562 0.021878 -0.015444 -0.0036066 -0.13744 -0.71765 -0.12971 0.15226 
0.021056 0.029441 -0.030735 0.0014903 -0.1524 -0.53828 -0.23576 0.18596 
0.02681 0.014479 -0.023172 -0.011827 -0.18479 -0.086471 -0.19778 0.059035 
0.029276 0.027632 -0.0013048 0.018589 -0.054904 0.42782 -0.012814 -0.067399 
0.029276 0.048677 0.014315 0.024179 0.095535 0.79002 0.074983 -0.057205 
0.048348 0.064132 0.026481 0.038319 0.24729 0.93076 0.16788 -0.022185 
0.081889 0.066105 0.031249 0.034209 0.18366 0.82257 0.19944 0.013492 
0.10063 0.069064 0.025659 0.037826 -0.040106 0.45527 0.13779 0.079916 
0.080573 0.029112 0.013164 0.016452 -0.17936 0.055089 0.0592 0.14815 
0.024673 0.020069 -0.011005 -0.017088 -0.09091 -0.15552 0.012177 0.10852 
-0.057534 0.040785 -0.014293 -0.01232 0.25419 -0.030406 -0.0060728 0.013657 
-0.21718 0.024673 0.0039565 0.021878 0.42699 0.19764 0.028783 -0.066084 
-0.18874 0.059857 0.037497 0.06183 0.28198 0.061172 0.030592 -0.056055 
0.17412 0.097508 0.045224 0.063968 0.073668 -0.21307 0.037661 0.055254 
0.31914 0.041607 0.063968 0.05213 -0.070359 -0.33112 0.046704 0.057391 
0.18004 0.053116 0.014315 0.030756 -0.022514 -0.3742 0.024673 -0.021363 
0.026152 0.018589 0.023522 -0.0042642 1.0539e-005 -0.35167 0.019905 -0.014129 
0.0026412 0.01415 0.0041209 -0.0036066 -0.12166 -0.27275 0.0098754 0.027468 
-0.0090322 0.054432 0.0062583 0.0065871 -0.24201 -0.2887 -0.02498 0.058049 
-0.0057439 0.028619 0.01711 0.010533 -0.23 -0.38949 -0.020377 0.14979 
0.016123 0.035524 0.0052718 0.029112 -0.1547 -0.40313 -0.019061 0.21687 
0.030756 0.047197 -0.003771 0.016781 -0.1912 -0.34674 -0.024158 0.19632 
0.03799 0.029112 -0.0083746 -0.00031829 -0.22639 0.0054362 -0.025145 0.2029 
0.034537 0.039634 0.010697 -0.014458 -0.10867 0.54093 -0.029913 0.25222 
0.029769 0.048184 0.02681 0.0085601 0.079422 0.7961 0.028783 0.1784 
0.017603 0.030263 0.010533 0.026152 0.27688 0.95394 0.13384 0.15275 
-0.012156 0.079422 0.036346 0.044731 0.37307 0.74892 0.14848 0.08156 
-0.019884 0.034866 0.016452 0.047526 0.40661 0.33722 0.14239 -0.14336 
0.034537 0.042265 0.042265 0.091425 0.42601 0.086163 0.093398 -0.34592 
0.048841 0.055582 0.051472 0.070708 0.40003 -0.00031829 0.07597 -0.28821 
0.04506 0.033551 0.016945 0.047362 0.31256 0.084026 -0.012814 -0.47712 
0.051308 0.040128 0.0092177 0.018096 0.16623 0.232 -0.060165 -0.48238 
0.058706 0.045224 0.010204 0.031249 -0.047176 0.15144 -0.029913 -0.12231 
0.056076 0.062159 0.028125 0.0046141 -0.20386 0.11378 0.034209 0.17297 
0.050321 0.066763 0.01563 0.028454 -0.22704 0.027139 0.018589 0.30237 
0.052294 0.046046 0.020891 0.015301 -0.14007 -0.13004 0.051801 0.32752 
0.035853 0.040785 0.028125 0.026646 -0.079895 -0.32816 0.065118 0.28609 
0.02122 0.058049 0.022371 0.026481 -0.049971 -0.39573 0.0689 0.19944 
-0.0034422 0.027632 0.01267 0.026317 -0.043559 -0.3492 0.053281 0.12908 
0.0014903 0.011191 0.0069159 0.01711 -0.031064 -0.2647 0.046868 0.087808 
-0.0049219 0.030427 0.014479 0.046046 -0.0077169 -0.15487 0.053281 0.019411 
0.0082312 0.02681 0.025166 0.023686 0.028454 -0.10653 0.026974 -0.021363 
0.034702 0.011684 0.020398 0.039141 0.055582 -0.054904 -0.00097594 -0.0075525 
0.053774 0.065447 0.03651 0.01711 0.0324 0.012835 0.011684 -0.03353 
0.063639 0.067585 0.01826 0.050979 0.029934 0.021056 0.051801 -0.049807 
0.058706 0.062323 0.028619 0.030756 0.03651 0.059693 0.029112 -0.047341 
0.03947 0.037004 0.024673 0.045389 0.052952 0.061172 0.034537 -0.045039 
-0.01528 -0.00081153 0.011684 0.0041209 -0.023007 0.061337 0.022042 -0.045039 
-0.041915 0.01974 0.00050378 0.043909 -0.0039354 0.076463 -0.0067304 -0.023665 
-0.0068948 0.016452 0.027961 0.020233 0.07038 0.016616 0.032564 -0.015444 
0.06035 0.056898 0.030592 0.071531 0.14453 -0.036489 0.039141 -0.010512 
0.085012 0.089123 0.0592 0.033222 0.1835 -0.065919 0.013164 -0.11508 
0.069229 0.05213 0.055089 0.071695 0.10524 -0.04471 0.018754 -0.19268 
0.034373 0.044238 0.035524 0.013657 -0.017746 -0.011663 -0.01232 -0.09946 
-0.020212 0.038977 0.021384 0.020727 -0.072496 -0.038956 0.0072447 0.016616 
-0.038133 0.018589 0.029769 0.016288 -0.09387 -0.035338 0.03388 0.097015 
-0.060987 0.028783 0.012506 -0.0004827 -0.090253 -0.0096899 0.057555 0.12628 
0.01974 0.023851 0.023193 0.013657 -0.11755 0.0082312 0.056076 0.13549 
0.016781 0.025166 0.020398 0.027632 -0.10242 0.023522 0.038483 0.12875 
0.030098 0.033387 0.012999 0.0056006 -0.086964 -0.010183 -0.0021268 0.083697 
0.020562 0.00033937 0.020562 0.042429 0.00066819 -0.014458 -0.00031829 0.087643 
0.010862 0.0085601 0.025495 0.044238 0.070051 -0.044381 -0.03057 0.056076 
0.0018191 0.062817 0.050157 0.053609 0.082053 -0.0771 -0.0022913 -0.011498 
0.038155 0.057555 0.054925 0.019411 0.017274 -0.099789 0.013986 -0.0075525 
0.10967 0.03388 0.030592 0.05065 0.034044 -0.1011 0.013164 0.012835 
0.13368 0.023686 0.041772 0.026317 0.034866 -0.061809 0.024837 0.017932 
0.092576 0.022371 0.018096 0.026974 -0.026296 -0.067399 0.041443 0.043909 
0.031414 0.036839 0.028947 0.016452 -0.093212 -0.078415 0.0042853 0.050321 
-0.042408 0.038648 0.022535 0.015959 -0.072003 0.011026 -0.0036066 0.057062 
-0.017253 0.077449 0.023357 0.02122 0.15111 -0.0034422 0.05065 0.080573 
0.060515 0.090274 0.040128 0.044402 0.22328 -0.14813 0.067091 0.10277 
0.066763 0.055254 0.011684 0.041607 0.12957 -0.42894 0.061008 0.1031 
0.031578 0.015301 0.027961 0.029605 0.0024767 -0.50293 0.050814 0.10326 
-0.046683 0.018589 0.013821 0.022864 -0.0021268 -0.2471 0.018589 0.10704 
-0.086142 0.0044497 0.010204 1.0539e-005 0.01415 0.10195 -0.070194 0.037661 
