0.030263 0.032893 0.050486 0.034537 0.023193 0.028947 0.025495 0.033715 
0.026317 0.038483 0.065118 0.027796 0.025001 0.016288 0.029276 0.034044 
0.021549 0.060679 0.054596 0.019247 0.019247 0.0072447 0.0324 0.022535 
0.023193 0.058542 0.054103 0.024015 0.03536 0.023028 0.016945 0.041772 
0.021384 0.059364 0.070051 0.037168 0.036839 -0.0070593 0.036182 0.037497 
0.021056 0.035853 0.057062 0.022535 0.010533 0.034866 0.020233 0.014643 
0.023522 0.018754 0.045882 0.02122 0.013821 0.0095465 0.0028056 0.023357 
0.034537 0.039799 0.039141 0.025659 0.023522 0.023522 0.037826 0.0227 
0.034209 0.016616 0.069229 0.034702 0.028947 0.040292 0.016781 0.037497 
0.031085 0.04095 0.068407 0.048348 0.034373 0.03536 0.027303 0.022535 
0.041607 0.065776 0.080244 0.027796 0.024015 0.046046 0.045389 0.030756 
0.021713 0.049335 0.067091 0.043087 0.021056 0.026317 0.02829 0.032729 
0.028783 0.044073 0.065612 0.018918 0.033387 0.0070803 0.041772 0.033222 
0.028125 0.036182 0.062488 0.039141 0.025166 0.027796 0.041114 0.033058 
0.022371 0.040292 0.048841 0.021549 0.021056 0.025166 0.017767 0.023028 
0.013821 0.064461 0.061501 0.028454 0.036346 0.03651 0.031907 0.017767 
0.038155 0.040128 0.045224 0.017438 0.028619 0.024015 0.019905 0.033387 
0.050814 0.024508 0.043251 0.055254 0.048841 0.02533 0.023193 0.047526 
0.035688 0.044731 0.048019 0.024015 0.041114 0.036017 0.048841 0.02533 
0.019411 0.040292 0.05624 0.038977 0.040128 0.040621 0.04506 0.019905 
0.018096 0.037661 0.049828 0.027632 0.040456 0.035688 0.014972 0.039634 
0.012999 0.063474 0.056733 0.063145 0.044731 0.011684 0.0227 0.020727 
0.010697 0.030098 0.052459 0.029112 0.032236 0.016123 0.020069 0.027139 
0.014479 0.032564 0.073668 0.071695 0.023193 0.027796 0.029276 0.019905 
0.030098 0.038483 0.065283 0.027961 0.031907 0.018918 0.035688 0.014972 
0.045882 0.029605 0.09422 0.051472 0.025824 0.042758 0.021878 0.024015 
0.05213 0.047033 0.062323 0.018589 0.051472 0.028454 0.044731 0.038319 
0.026317 0.033551 0.062652 0.044896 0.046704 0.017932 0.033715 0.0083956 
0.019411 0.039963 0.068571 0.020398 0.023193 0.03092 0.022535 0.017274 
0.027468 0.08304 0.03947 0.032236 0.020069 0.018589 0.046375 0.035031 
0.056898 0.035688 0.048841 0.018425 0.039305 0.019411 0.029441 0.015137 
0.065118 0.016288 0.036675 0.044567 0.016945 0.016288 0.029112 0.030263 
0.055747 0.049499 0.037332 0.021713 0.021713 0.037332 0.051965 0.034537 
0.013657 0.03536 0.044896 0.04917 0.0054362 0.048513 0.028619 0.022206 
-0.03764 0.047691 0.038977 0.049006 0.032071 0.053938 0.019576 -0.0016336 
-0.088444 0.045224 0.049335 0.048348 0.018096 0.025659 0.037826 0.020727 
-0.021199 0.044567 0.081231 0.0016547 -0.031886 0.041443 0.023851 0.051308 
0.028783 0.06331 0.049828 0.050486 0.01152 0.01152 0.031249 0.018425 
0.062488 0.046868 0.055089 0.024015 0.019247 0.032564 0.018754 0.012177 
0.073339 0.030098 0.046046 0.054432 0.015794 0.016616 0.029276 0.031414 
0.074326 0.040621 0.047855 0.021056 0.01152 0.03092 0.050321 0.027139 
0.06479 0.040292 0.043251 0.037826 0.020233 0.019576 0.035195 0.03799 
0.035524 0.03947 0.053116 0.013492 0.032893 0.033387 0.021056 0.031907 
0.040128 0.065447 0.045718 0.038977 0.022864 0.029276 0.04654 0.023851 
0.045553 0.045224 0.038812 0.016616 0.038483 0.009711 0.026974 0.037332 
0.034866 0.038483 0.028454 0.052294 0.0070803 0.018425 0.018918 0.011355 
0.026481 0.051308 0.034537 0.033222 0.035524 0.0019835 0.041443 0.0079024 
0.030427 0.031249 0.022206 0.032071 0.020398 0.0092177 0.021713 0.030592 
0.030098 0.069722 0.045224 0.00050378 0.03651 0.029441 0.011191 0.034373 
0.023522 0.039141 0.034373 0.038319 0.033058 0.0082312 0.022206 0.02829 
0.024179 0.037332 0.010369 0.036017 0.021549 0.015465 0.012177 0.030592 
0.022206 0.048348 0.019083 0.028947 0.023193 0.015301 0.019576 0.04095 
0.025659 0.037332 0.028783 0.027796 0.036017 0.0092177 0.030756 0.032729 
0.023851 0.041936 0.013657 0.0093821 0.031907 0.035195 0.0023123 0.028454 
0.025824 0.052623 0.037497 0.02533 0.042265 0.0046141 0.043087 0.024015 
0.024344 0.062323 0.023193 0.025495 0.03092 0.039634 0.029441 0.017274 
0.033551 0.03799 0.035195 0.018589 0.036346 0.016288 0.024508 0.020233 
0.041772 0.051308 0.033551 0.017767 0.06183 0.030263 0.053445 0.023028 
0.026317 0.032071 0.030263 0.021384 0.049992 0.025001 0.029276 0.014479 
0.061008 0.047691 0.027468 0.025659 0.054103 0.020233 0.032564 0.024179 
0.035688 0.039799 0.027632 0.020727 0.042594 0.028454 0.045882 0.044896 
0.0324 0.053938 0.026152 0.0014903 0.038483 0.033551 0.019083 0.010697 
0.051801 0.054267 0.024179 0.028783 0.029934 0.014972 0.031578 0.023193 
0.041114 0.039305 0.034866 0.029605 0.025824 0.039305 0.036182 0.0227 
0.029112 0.043251 0.034702 0.036675 0.015301 0.01152 0.019083 0.019576 
0.017438 0.062488 0.035853 0.02122 0.019247 0.022864 0.046046 0.030098 
0.02122 0.046211 0.020233 0.012999 0.018096 0.028783 0.023357 0.053116 
0.039799 0.036017 0.026974 0.015465 0.024673 0.019247 0.017932 0.037168 
0.02122 0.037497 0.025001 0.031578 0.0080668 0.029605 0.047855 0.026481 
0.043087 0.035524 0.026481 0.02829 0.016781 0.0227 0.030756 0.043416 
0.051143 0.058871 0.015959 0.018918 0.023357 0.036675 0.016123 0.019083 
0.049664 0.050157 0.014479 0.0088889 0.027632 0.018918 0.048019 0.036675 
0.038155 0.05213 0.0051074 0.037826 0.009711 0.020398 0.044896 0.041607 
0.038319 0.067913 0.013164 0.017274 0.0095465 0.029276 0.029769 0.025495 
0.047691 0.047033 0.039799 0.031742 0.031249 0.040456 0.047855 0.029934 
0.036182 0.035195 0.024837 0.035853 0.036839 0.035688 0.017438 0.028454 
0.0069159 0.051472 0.015465 0.034702 0.017603 0.025001 0.030756 0.021878 
0.032564 0.040128 0.024837 0.036839 0.01563 0.01826 0.019083 0.020398 
0.041114 0.043745 0.035031 0.030263 0.013164 0.034209 0.016781 0.0227 
0.046868 0.044402 0.020891 0.015301 0.023851 0.014479 0.03092 0.0021479 
0.04358 0.025988 0.023357 0.027303 0.035688 0.023851 0.031907 0.033222 
0.024508 0.043087 0.024179 0.017767 0.024508 0.029276 0.0069159 0.04095 
0.044731 0.049828 0.022042 0.044731 0.042758 0.023357 0.012835 0.044896 
0.030592 0.041936 0.019083 0.019247 0.023357 0.030756 0.03092 0.027303 
0.022371 0.06035 0.0421 0.027468 0.048677 0.010697 0.029112 0.023522 
0.019247 0.034209 0.041936 0.0079024 0.022864 0.0227 0.029605 0.035031 
0.010697 0.0080668 0.049335 0.037497 0.058049 0.022371 -0.0024557 0.044238 
0.023686 0.066105 0.037004 0.013492 0.034373 0.0085601 0.038812 0.028454 
0.041772 0.052787 0.033222 0.032893 0.037004 0.033715 0.036182 0.042429 
0.038977 0.03799 0.026317 0.011191 0.024015 0.018589 0.018425 0.029605 
0.047526 0.049499 0.04358 0.036182 0.033715 0.03092 0.048513 0.045882 
0.037004 0.036675 0.029276 0.014643 0.049499 0.033058 0.029112 0.046046 
0.019905 0.05476 0.040621 0.044567 0.036017 0.022042 0.012342 0.030427 
0.012177 0.052459 0.05624 0.036346 0.055747 0.046211 0.025988 0.049499 
0.028454 0.034866 0.041443 0.046046 0.021878 0.021056 0.023193 0.029934 
0.052294 0.067585 0.042429 0.019083 0.032071 0.030592 0.033387 0.017767 
0.026152 0.051472 0.022535 0.040456 0.025988 0.040456 0.041936 0.034702 
0.040292 0.042265 0.043416 0.016452 0.044567 0.037168 0.017274 0.036346 
0.038319 0.044402 0.036182 0.051308 0.024344 0.036346 0.019247 0.028125 
0.040621 0.052294 0.015301 0.018918 -0.0022913 0.035524 0.019576 0.01152 
0.023357 0.048841 0.025659 0.041936 -0.00064712 0.0051074 0.0037921 0.04095 
-0.012978 0.038812 0.043251 0.038977 0.010697 0.028783 0.027796 0.025495 
0.019576 0.027468 0.038155 0.059364 0.0227 0.022864 0.023028 0.029769 
0.015465 0.057062 0.038155 0.032729 0.016452 0.031907 0.0034632 0.024673 
0.029441 0.034702 0.026317 0.047855 0.020398 0.026152 0.029112 0.025824 
0.016616 0.036675 0.035195 0.021056 0.018589 0.021713 0.013821 0.037826 
0.036675 0.071531 0.025001 0.041607 0.025988 0.024837 0.016452 0.040785 
0.031907 0.030098 0.02533 0.021549 0.01974 0.010369 0.033551 0.018425 
0.025659 0.03651 0.023028 0.057555 0.017274 0.030427 0.015137 0.029276 
0.016781 0.05476 0.016616 0.032071 0.016123 0.016288 0.028947 0.041607 
0.027468 0.034702 0.012506 0.049335 0.023193 0.012177 0.027961 0.039141 
0.028947 0.055418 0.013821 0.019411 0.032564 0.032071 0.020069 0.023357 
0.0324 0.050321 0.017767 0.047855 0.031742 0.016781 0.018589 0.039634 
0.025988 0.047033 0.028783 0.017767 0.039634 0.036839 0.015959 0.032236 
0.044896 0.036839 0.012177 0.042923 0.042594 0.025166 0.011355 0.038812 
0.045553 0.034702 0.029605 0.027303 0.022864 0.01415 0.044238 0.033222 
0.02533 0.010204 0.029441 0.020233 0.038319 0.0085601 0.016945 -0.015773 
0.03947 0.052623 0.022535 0.024344 0.011848 0.021384 0.022042 0.016945 
0.01004 0.013657 0.02533 0.030098 0.04095 0.044238 0.046211 0.027468 
0.0227 0.033715 0.017438 0.013986 0.023522 0.018096 0.029769 0.031578 
0.012506 0.050486 0.032893 0.034866 0.015959 0.025166 0.028947 0.023686 
0.011848 0.019905 0.018096 0.015301 0.036346 0.029605 0.017438 0.026974 
0.024837 0.037168 0.029769 0.015301 0.044238 0.021056 0.029441 0.029112 
0.021713 0.04506 0.013328 0.020891 0.06183 0.021713 0.034866 0.019247 
0.037004 0.034209 0.023028 0.036675 0.061995 0.015137 0.031742 0.024179 
0.033715 0.04358 0.012506 0.014315 0.035524 0.025166 0.025495 0.018589 
0.028619 0.042758 0.017274 0.025988 0.021056 0.024837 0.021713 0.032729 
0.028783 0.041772 0.023851 0.0074092 0.02681 0.012506 0.016616 0.027139 
0.0092177 0.063474 0.040621 0.021549 0.032729 0.032564 0.015301 0.031742 
0.028783 0.038155 0.014643 0.025001 0.025988 0.01711 0.040128 0.013164 
0.019576 0.030592 0.021549 0.026481 0.027468 0.010533 0.021549 0.024673 
0.025659 0.040621 0.022371 0.022206 0.01974 0.022371 0.026974 0.031085 
0.034044 0.022206 0.012506 0.01267 0.029769 0.019411 0.022864 0.013328 
0.037168 0.0095465 0.020562 0.014479 0.040292 0.031578 0.0042853 0.014315 
0.043251 0.038648 0.014479 0.020562 0.027961 0.015959 0.015465 0.041114 
0.035853 0.020891 0.016288 0.025988 0.010369 0.011355 0.013492 0.009711 
0.019247 0.052459 -0.0080457 0.01004 0.0062583 0.028619 0.017438 0.032236 
0.017274 0.046046 0.007738 0.034044 0.0093821 0.019083 0.051801 0.048348 
0.019576 0.031414 0.015137 0.016616 0.023028 0.031742 0.026317 0.027468 
0.027961 0.057884 0.0079024 0.028619 0.0042853 0.035853 0.031414 0.03799 
0.046868 0.049828 0.0082312 0.026481 0.0324 0.01415 0.04095 0.050321 
0.041443 0.027796 0.024673 0.037168 0.033715 0.012506 0.030263 0.033715 
0.022371 0.050979 0.024837 0.023028 0.0083956 0.012013 0.014808 0.009711 
0.023193 0.028783 0.027468 0.041443 0.024508 0.046211 0.026481 0.021384 
0.028454 0.03388 0.014808 0.0028056 0.016452 0.0083956 0.038483 0.010204 
0.043416 0.065118 0.020069 0.029934 0.035853 0.023357 0.027468 0.023851 
0.027468 0.051143 0.012835 0.019905 0.024015 0.027468 0.027139 0.041114 
0.013492 0.043745 0.01415 0.041936 0.029112 0.020069 0.022535 0.0227 
0.0093821 0.0421 0.025824 0.018589 0.022042 0.039634 0.034373 0.044731 
0.024673 0.035688 0.024508 0.033222 0.02681 0.029112 0.027468 0.059035 
0.051801 0.05213 0.028947 0.0041209 0.029112 0.013821 -0.0073881 0.034537 
0.050814 0.061172 0.032893 0.030263 0.030098 0.035031 0.037497 0.028619 
0.058706 0.047855 0.026646 0.0026412 0.021713 0.026481 0.026481 0.019411 
0.042265 0.068736 0.017274 0.053938 0.041936 0.037168 0.01974 0.029934 
0.036346 0.068242 0.0080668 0.0087245 0.025659 -0.0054151 0.043251 0.033715 
0.017274 0.0421 0.02122 0.044731 0.043087 0.0088889 0.016945 0.041278 
0.014643 0.070051 0.01004 0.014643 0.026317 0.040621 0.037332 0.033551 
0.01711 0.023028 0.034537 0.049992 0.038648 0.010533 0.042923 0.037004 
-0.016595 0.039634 0.030263 0.03536 0.035524 0.028947 0.03651 0.032071 
0.03388 0.035853 0.026317 0.051143 0.026974 0.02829 0.03947 0.044238 
0.053445 0.010204 0.029934 0.049664 0.0059294 0.035524 0.040456 0.016288 
0.020398 0.074326 0.024673 0.043416 0.030592 0.03536 0.024179 -0.0011404 
0.033387 0.080409 -0.0073881 0.025001 0.028125 0.0075736 0.055582 -0.0022913 
0.026974 0.071037 0.026646 0.044731 0.018918 0.039634 0.019247 0.023851 
0.020233 0.08978 0.050321 0.013164 0.030427 0.040621 0.043745 0.055089 
0.023851 0.042265 0.030098 0.037497 0.022042 0.014315 0.042594 0.03799 
0.029112 0.041443 0.036346 0.025659 0.036017 0.036346 0.025824 0.045224 
0.020233 0.060515 0.020398 0.04506 0.025001 0.029769 0.017932 0.047197 
0.048348 0.055089 0.020727 0.033551 0.023193 0.026317 0.040456 0.038977 
0.042758 0.047691 0.032729 0.039305 0.01004 0.036017 1.0539e-005 0.025495 
0.036346 0.034866 0.025988 0.022206 0.017932 0.017438 0.037661 0.024015 
0.036017 0.0098754 0.030263 0.044402 0.01152 0.01267 0.03799 0.017932 
0.02829 0.057391 0.033058 0.025988 0.017274 0.0083956 0.033715 0.0093821 
0.029605 0.05065 0.037168 0.028454 0.012342 0.025166 0.030427 0.025166 
0.013492 0.026317 0.034373 0.01415 0.020727 0.025001 0.022371 0.025824 
0.016123 0.055089 0.025495 0.015137 0.028619 0.010369 0.029769 0.030098 
0.020233 0.037661 0.017767 0.031085 0.025659 0.026317 0.034373 0.043087 
0.031907 0.040128 0.027468 0.031085 0.039634 0.025166 0.023522 0.049006 
0.034044 0.037004 0.021056 0.03536 0.021713 0.013657 0.015137 0.021384 
0.042429 0.039963 0.033387 0.018589 0.019905 0.021384 0.03799 0.026152 
0.041114 0.049992 0.022042 0.017767 0.019247 0.024837 0.023686 0.047033 
0.046868 0.054432 0.030427 0.034373 0.0064227 0.054103 0.0069159 0.045224 
0.033222 0.024837 0.02829 0.040292 0.016288 0.022864 0.027796 0.017603 
0.04506 0.044896 0.03947 0.027796 0.0021479 0.017767 0.024179 0.029112 
0.02681 0.037497 0.024344 0.027796 0.0064227 0.014315 0.023522 0.0064227 
0.035195 0.027796 0.01711 0.029441 0.023028 0.034373 0.016781 0.019411 
0.050157 0.056898 0.019247 0.037168 0.026646 0.027303 0.014643 0.038977 
0.053774 0.038155 0.01267 0.023193 0.044073 0.0026412 0.02829 0.033715 
0.052787 0.044238 0.025166 0.03092 0.023686 0.01563 0.031578 0.021878 
0.047197 0.053116 0.028947 0.02122 0.036839 0.005765 0.018096 0.033058 
0.029112 0.037332 0.083533 0.040785 0.069229 0.016781 0.038812 0.036675 
0.023193 0.04917 0.042429 0.033387 0.039305 0.03947 0.014643 0.032893 
0.020727 0.051636 0.041114 0.066105 0.039963 0.0072447 0.0087245 0.0060938 
0.034537 0.036839 0.028783 0.028619 0.057884 0.024344 0.028619 0.022371 
0.044731 0.086163 -0.001798 0.034702 0.028619 0.039141 0.025495 0.035853 
0.0093821 0.03947 0.020727 0.028783 0.01267 0.010204 0.026152 0.040292 
-0.004593 0.0018191 -0.0068948 0.065118 0.0019835 0.01711 0.02533 -0.012649 
-0.026953 0.01974 0.0026412 0.023357 0.043416 0.016288 0.026646 0.011191 
-0.0082102 0.01974 0.018425 0.046211 0.038483 0.014315 0.046046 0.021549 
0.025495 0.036839 0.0064227 0.025659 0.0227 0.026974 0.015137 0.010204 
0.043416 0.054925 0.0039565 0.038648 0.0019835 -0.0057439 0.01974 0.025495 
0.051636 0.026317 0.0047785 0.024837 0.02829 0.029934 0.019247 0.027139 
0.033551 0.064461 0.0098754 0.033551 0.011848 0.017603 0.031085 0.016616 
0.037004 0.054925 0.0088889 0.0079024 0.029934 0.020398 0.016123 0.02681 
0.032564 0.049499 0.023357 0.036182 0.035688 0.016945 0.034209 0.033058 
0.056404 0.056898 0.027961 0.020069 0.02533 0.011355 0.019905 0.01563 
0.052294 0.063474 0.039305 0.030592 0.015465 0.027796 0.018918 0.017274 
0.038812 0.039141 0.026974 0.020727 0.027796 0.0067515 0.022535 0.025988 
0.037661 0.079587 0.0095465 0.057227 0.036839 0.014808 0.035688 0.019905 
0.041772 0.037497 0.027303 0.020398 0.02829 0.024508 0.042758 -0.0070593 
0.015465 0.017603 0.027796 0.054596 0.027961 0.01415 0.013492 0.033715 
0.012506 0.030756 0.016945 0.030263 0.025988 0.048513 0.010697 0.055911 
0.010204 0.040621 0.024837 0.049828 0.024344 -0.0031133 0.046868 0.034209 
-0.0052507 0.045882 0.02829 0.010697 0.02681 0.0026412 0.0324 0.024508 
0.032236 0.04095 0.025988 0.039963 0.023686 0.015137 0.025001 0.026974 
0.060679 0.022371 0.016452 0.0065871 0.029605 0.011684 0.025824 0.0034632 
0.049335 0.055747 0.018425 0.040785 0.045718 0.033387 0.0056006 0.034537 
0.039963 0.031742 0.027632 0.015794 0.038483 0.017603 0.0051074 0.02681 
0.034373 0.041772 0.026481 0.048513 0.030263 0.0060938 0.025988 0.019083 
0.031249 0.061666 0.026974 0.034702 0.037168 0.020233 -0.0013048 0.013657 
0.014315 0.041443 0.020233 0.053609 0.052787 0.015959 0.01267 0.037168 
0.0019835 0.051472 0.026317 0.019576 0.038977 0.039305 0.02829 0.022535 
0.013986 0.048019 0.010533 0.051143 0.026152 0.01267 0.026481 0.015465 
0.030427 0.033551 0.032564 0.032893 0.032564 0.0021479 0.040785 0.023193 
0.037168 0.041772 0.014972 0.038155 0.032893 0.021549 0.030756 0.010862 
0.017932 0.042923 0.023357 -0.0031133 0.039141 0.020069 0.027468 0.035195 
0.016781 0.026646 0.0074092 0.030756 0.029276 0.050979 0.043909 0.042265 
0.030098 0.063968 0.0072447 0.004943 0.023522 0.034866 0.02533 0.011191 
0.015794 0.059528 0.0028056 0.035524 0.016781 0.027139 0.0090533 0.020069 
0.024179 0.062817 0.015465 0.02533 0.027468 0.027468 0.039141 0.042265 
0.017603 0.071366 0.081067 0.039799 0.00050378 -0.011992 -0.0014692 0.032729 
0.036182 0.08715 0.024673 0.014315 0.016781 0.052952 0.0074092 0.031085 
0.049499 0.089452 0.035195 0.0059294 -0.01117 0.014643 0.040621 0.048184 
0.057062 0.076627 0.039799 0.016288 0.020562 0.0090533 0.016781 0.034373 
0.024837 0.034702 0.053281 0.057884 0.009711 0.03536 0.056404 0.048513 
0.035195 0.042265 0.027468 0.022535 0.015959 0.0016547 0.03651 0.050157 
-0.0032777 0.049335 0.016123 0.032564 0.0085601 0.03092 0.04358 0.04506 
0.044731 0.029934 0.027468 0.03536 0.014315 0.022864 0.041936 0.027468 
0.040785 0.055089 0.024179 0.03092 0.025001 -0.008539 0.033387 0.018754 
0.031578 0.055582 0.012835 0.032893 0.020562 0.012506 0.011355 0.021549 
0.017932 0.054267 0.020233 0.0095465 0.029769 0.020069 0.032564 0.032564 
0.045389 0.053445 -0.0029489 0.020398 0.016288 0.047855 0.016123 0.026481 
0.064954 0.026974 0.0023123 0.023686 0.02681 0.04506 0.024015 0.042758 
0.052294 0.026481 0.0069159 0.015794 0.0088889 0.034044 0.041443 0.037826 
0.038648 0.044402 0.035195 0.020069 0.016616 0.027468 0.019576 0.04506 
0.00050378 0.025495 0.022864 0.027303 0.022206 0.011191 0.026646 0.033222 
-0.059672 0.0072447 0.023357 0.025495 0.013657 0.028454 0.026481 0.014972 
-0.082196 0.038648 0.033058 0.033715 0.027961 0.01711 0.022535 0.027796 
-0.029255 0.052952 0.033058 0.023522 0.023193 0.026152 0.057884 0.026152 
0.040456 0.087479 0.032236 0.049992 0.052623 0.027796 0.013328 0.035853 
0.08567 0.069064 0.048184 0.028947 0.047197 0.011684 0.028783 0.023028 
0.085835 0.039141 0.050157 0.02681 0.016452 0.023851 0.05213 0.044073 
0.059364 0.058542 0.041936 0.013492 0.029441 0.027139 0.027303 0.018096 
0.049992 0.018754 0.049828 0.03092 0.01974 0.023028 0.025988 0.01415 
0.037497 0.010204 0.039963 0.0098754 0.033387 0.023193 0.034209 0.027468 
0.03651 0.048841 0.021549 0.03092 0.04095 0.018754 0.018096 0.03536 
0.038483 0.028783 0.023357 0.020891 0.046211 0.042265 0.022042 0.037004 
0.050979 0.049828 0.034537 0.042429 0.037332 0.0014903 0.020891 0.039634 
0.025824 0.057884 0.02533 0.02533 0.030756 0.0079024 0.022864 0.029769 
0.032071 0.049664 0.0085601 0.031742 0.014808 0.02122 0.032564 0.038319 
0.036346 0.085012 0.022864 0.0092177 0.026646 0.021549 0.023686 0.044731 
0.029605 0.048841 0.010533 0.026481 0.035853 0.020562 0.031085 0.041607 
0.037661 0.031414 0.037168 0.0227 0.012342 0.025659 0.044896 0.030427 
0.024015 0.047526 0.019905 0.052459 0.0052718 0.01826 0.033222 0.038977 
0.01711 0.02533 0.021878 0.026646 0.017438 0.026481 0.019083 0.021384 
0.019905 0.038155 0.024015 0.042429 0.025001 0.017932 0.031085 0.038977 
0.023522 0.035853 0.025988 -0.006566 0.020233 0.030427 0.018096 0.035031 
0.034866 0.0072447 0.039963 0.037826 0.013986 0.030592 0.017438 0.009711 
0.036346 -0.0040998 0.037332 0.0088889 0.024015 0.0046141 0.02681 0.01152 
0.044567 0.0074092 0.021878 0.040785 0.024837 0.026317 0.012835 0.035524 
0.026481 -0.0080457 0.00050378 0.01563 0.045553 -0.017253 0.019905 0.016452 
0.037826 0.04095 0.029769 0.039634 0.029112 0.029441 0.032893 0.033058 
0.026974 0.05624 0.012342 0.023522 0.024508 0.025166 0.0082312 0.0088889 
0.016123 0.057062 0.017767 0.0421 0.023522 0.029441 0.035853 0.017767 
0.067749 0.096028 0.027139 0.023193 -0.025967 0.054925 0.024179 0.024673 
0.033715 0.063474 0.052952 0.04358 0.013164 0.0064227 0.013986 0.039799 
0.017274 0.051472 0.069558 0.02829 0.032893 0.023686 0.027961 0.016616 
0.053116 0.067749 0.041936 0.035853 0.01711 0.020233 0.021384 0.0046141 
0.057884 0.048513 0.054267 0.022371 0.011848 0.019083 0.01267 0.037826 
0.05772 0.028454 0.041772 0.044896 0.029112 0.026152 0.019083 0.018096 
0.037332 0.03092 0.050814 0.023357 0.041278 0.013821 0.027139 0.026152 
0.027796 0.023028 0.031578 0.034702 0.035688 0.029276 0.035853 0.041936 
1.0539e-005 0.042429 0.016123 0.0047785 0.047362 0.01826 0.040621 0.0065871 
0.027303 0.041114 0.020727 0.01267 0.039634 0.0095465 0.024837 0.019411 
0.016781 0.036675 0.034702 0.025988 0.031742 0.040785 0.046704 0.026152 
0.025166 0.05065 0.030756 0.029441 0.034209 0.028619 0.011355 0.017274 
0.019247 0.031742 0.029112 0.027303 0.033551 0.024673 0.0088889 0.015794 
0.045718 0.02829 0.030592 0.019576 0.033222 0.035031 0.0592 0.022535 
0.034209 0.050157 0.050157 0.034702 0.039799 0.027796 0.022535 0.034866 
0.038319 0.0056006 0.068571 0.0092177 0.049664 0.047197 0.047855 0.026646 
0.034537 0.020891 0.045389 0.0070803 0.031085 0.018425 0.05213 0.030263 
0.038648 0.053609 0.050486 0.017438 0.0087245 0.038648 0.040128 0.021056 
0.021713 0.024344 0.034702 0.028125 0.03947 0.010204 0.0227 0.012342 
0.040456 0.03536 0.044731 0.0090533 0.043087 0.012999 0.025166 0.015301 
0.017274 0.03536 0.038648 0.033551 0.022371 0.039963 0.023028 0.020233 
0.034209 0.046046 0.044731 0.018754 0.013164 0.020562 0.029276 0.018096 
0.035195 0.067585 0.048841 0.029769 0.024179 0.019411 0.016288 0.04358 
0.048019 0.053774 0.05065 0.019247 0.028125 0.026152 -0.0016336 0.048019 
0.031414 0.049006 0.042923 0.024673 0.022371 0.019905 0.037332 0.023028 
0.047526 0.062817 0.035031 0.019083 0.033551 0.011191 0.029276 0.035195 
0.025001 0.04095 0.033715 0.033222 0.032236 0.015137 0.030592 0.042594 
0.0054362 0.025495 0.045389 0.017767 0.021056 0.029276 0.030756 0.024673 
0.020727 0.045718 0.055089 0.032729 0.012177 0.0034632 0.018918 0.022371 
0.0042853 0.025824 0.048677 0.025988 -0.0021268 0.0227 0.016123 0.025001 
0.03536 0.053609 0.051801 0.043745 0.019905 0.024015 0.024673 0.0069159 
0.034702 0.064954 0.048019 0.035524 0.017767 0.0074092 0.022864 0.022864 
0.035195 0.04095 0.040456 0.063968 0.018754 0.026646 0.028619 0.054267 
0.026974 0.059693 0.049992 0.052459 0.018425 0.021056 0.02681 0.023522 
0.019576 0.029112 0.041443 0.049828 0.014643 0.0087245 0.020233 0.02122 
0.024508 0.024344 0.040621 0.024015 0.018096 0.024837 0.034044 0.045389 
0.016781 0.042594 0.045718 -0.016431 0.05772 0.016781 0.076627 0.035524 
0.014808 0.047197 0.039634 0.034702 0.021056 0.023028 0.029934 0.029769 
0.053938 0.046046 0.039634 0.039305 0.034537 0.015465 0.061501 0.053774 
0.060679 0.074161 0.038648 0.034373 0.041443 0.034373 0.017438 0.026481 
0.046704 0.055418 0.063803 0.041936 0.033058 0.0083956 0.0080668 0.020233 
0.042594 0.053609 0.043909 0.040128 0.033715 0.0074092 0.031742 0.029605 
-0.0055795 0.042265 0.029769 0.049335 0.011684 0.029934 0.020727 0.016945 
0.023193 0.029112 0.023357 0.03092 0.024179 0.018589 0.019905 0.021878 
0.028125 0.047526 0.028783 0.04358 0.032236 0.0092177 0.035195 0.030263 
0.035031 0.046375 0.032236 0.028947 0.027303 0.024673 0.02533 0.033715 
0.031085 0.036017 0.028947 0.043087 0.036675 -0.0034422 0.046375 0.034209 
0.015137 0.063474 0.01826 0.017767 0.024508 0.015959 0.02829 0.034537 
0.049006 0.066434 0.024179 0.047526 0.018096 0.023193 0.034209 0.029934 
0.050979 0.058213 0.028619 0.014808 0.020727 0.020233 0.0324 0.024344 
0.049828 0.068242 0.040785 0.025824 0.037661 0.035195 0.027139 0.037661 
0.023686 0.043251 0.044073 0.016123 0.029605 0.012999 0.02829 0.011684 
0.016781 0.04506 0.038155 0.04506 0.037497 0.010369 0.047362 0.0079024 
0.019083 0.049006 0.024673 0.026481 0.020562 0.014643 0.034702 0.04506 
0.017438 0.052459 0.037332 0.052294 0.01563 0.028619 0.033222 0.042429 
0.01415 0.080409 0.069886 0.012177 0.030263 0.019576 0.046868 0.038648 
0.022864 0.046211 0.045882 0.030263 0.017603 0.019576 0.024673 0.040292 
0.04095 0.019411 0.037497 0.02533 0.0082312 0.01004 0.019905 0.031249 
0.057227 0.055582 0.038977 0.042594 0.01974 0.018096 0.013164 0.033715 
0.04506 0.040128 0.049499 0.022371 0.0079024 -0.0024557 0.018096 0.017767 
0.02122 0.024344 0.048513 0.039141 0.019411 0.036675 0.025001 -0.010019 
0.028619 0.043087 0.034537 0.028125 0.033715 0.023686 0.01974 -0.0098543 
0.033387 0.045389 0.033222 0.034702 0.018918 0.021878 0.0075736 0.032729 
0.03092 0.052623 0.044567 0.021056 0.032071 0.030592 0.056076 0.059528 
0.024015 0.043251 0.048513 0.029605 0.013164 0.012177 0.02533 0.030427 
0.0421 0.037168 0.072188 0.02122 0.045389 0.038319 0.016945 0.050321 
0.029934 0.060186 0.045553 0.013492 0.027468 0.020069 0.033551 0.035524 
0.035524 0.034373 0.05624 0.030427 0.017767 0.019905 0.027796 0.020233 
0.033715 0.023028 0.049006 0.018589 0.013164 0.026152 0.036017 0.012999 
0.034209 0.028783 0.044731 0.025988 0.015465 0.0064227 0.02122 0.025001 
0.032236 0.018425 0.044567 0.023851 0.014479 0.034866 0.01563 0.021713 
0.031742 0.017438 0.041278 0.01004 0.0324 0.022864 0.040128 0.023028 
0.019905 0.050814 0.036182 0.017932 0.021056 0.012342 0.030098 0.034373 
0.026317 0.029934 0.050486 0.034209 0.026646 0.036346 0.014808 0.020398 
0.020727 0.037497 0.06479 0.004943 0.038483 0.01974 0.047033 0.036017 
0.018425 0.053774 0.058542 0.033058 0.034209 0.033387 0.027632 0.03947 
0.011191 0.053609 0.031578 0.011684 0.07449 0.0074092 -0.00097594 0.0034632 
0.040292 0.07301 0.056569 0.025824 0.053938 0.014643 0.032071 0.01974 
0.060186 0.056733 0.048348 0.024837 0.044073 0.027961 0.030263 0.05213 
0.049335 0.057884 0.042594 0.012013 0.054267 0.012506 0.02533 0.039963 
0.071859 0.085835 0.050486 0.01711 0.04506 0.0032988 0.042429 0.029605 
0.00066819 0.03947 0.076956 0.024015 0.052623 0.021384 0.028783 0.026152 
-0.0070593 0.019083 0.063145 0.028619 0.045224 0.037168 0.047855 0.024015 
0.010862 0.026317 0.081231 0.034373 0.024344 0.016781 0.034702 0.020398 
0.036346 0.032236 0.062488 0.054103 0.058706 0.015137 0.024837 0.015465 
0.035688 0.042594 0.07449 0.036675 0.037168 0.045718 0.041278 0.016123 
0.043416 0.04917 0.068242 0.0051074 0.032729 0.023028 0.0421 0.03536 
0.033551 0.028619 0.047033 0.028125 0.010369 0.0028056 0.019411 0.031578 
0.054925 0.07301 0.063968 0.031085 0.029276 0.031578 0.033715 0.033222 
0.045718 0.037168 0.061337 0.01152 0.030263 0.01826 0.03092 0.03799 
0.035853 0.0082312 0.072024 0.0028056 0.029441 0.033387 0.034702 0.025659 
0.058213 0.041936 0.064461 0.025495 0.026974 0.013986 0.046046 0.007738 
0.061501 0.041443 0.057555 0.014315 0.027796 0.019576 0.033222 0.019576 
0.035195 0.037004 0.041607 0.031249 0.042758 0.030098 0.031742 0.039305 
-0.001798 0.047197 0.053609 0.020891 0.01974 0.020562 0.036346 0.025824 
-0.044546 0.022535 0.048019 0.036182 -0.0027845 0.032729 0.01152 0.0026412 
-0.00015387 0.023686 0.062323 0.024673 0.018918 0.011848 0.042429 0.035195 
0.028619 0.040785 0.079587 0.045553 0.0079024 0.033387 0.029934 0.047033 
0.025166 0.057884 0.0592 0.016123 0.012506 0.02122 0.015465 0.020562 
0.034537 0.076627 0.062981 0.044073 0.021384 0.032893 0.027632 0.014808 
0.021384 0.041607 0.06035 0.021384 0.019411 0.038648 0.028454 0.010204 
0.03947 0.040128 0.043416 0.043416 0.028454 0.051308 0.034373 0.027139 
0.050486 0.076134 0.045718 0.0087245 0.032071 0.02829 0.041607 0.031085 
0.060022 0.058049 0.025166 0.030427 0.035688 0.035031 0.0085601 0.041772 
0.045224 0.024179 0.030427 0.014315 0.023357 0.0090533 0.020069 0.034044 
0.046868 0.023851 0.033715 0.043416 0.029276 0.034866 0.036675 0.032071 
0.0421 0.036839 0.023357 0.017767 0.029769 0.01711 0.021878 0.036017 
0.031085 0.041772 0.039141 0.054432 0.01974 0.034866 0.038483 0.024673 
0.012999 0.041772 0.041936 0.024344 0.02829 0.014808 0.024015 0.025988 
0.01415 0.016781 0.065612 0.051801 0.03388 0.014643 0.026646 0.022371 
0.030098 0.057227 0.055418 0.02533 0.027796 0.03092 0.041936 0.0037921 
0.035853 0.044073 0.042429 0.054596 0.032236 0.015959 0.030592 0.013986 
0.029112 0.040621 0.03536 0.032564 0.042594 0.019083 0.03947 0.052459 
0.027139 0.059528 0.030427 0.062488 0.048841 0.025824 0.041936 0.023851 
0.0227 0.02829 0.031578 0.033222 0.032071 0.0062583 0.030756 0.032893 
0.022042 0.028454 0.028783 0.047362 0.039963 0.044238 0.01415 0.034537 
0.0072447 0.043087 0.052294 0.044896 1.0539e-005 0.1008 0.10819 0.030263 
0.026317 0.028947 0.033058 0.046211 0.032893 0.035853 0.032729 0.03092 
0.044073 0.028783 0.061501 0.00297 0.027139 0.03947 0.043251 0.014315 
0.044731 0.05772 0.022864 0.038483 0.015794 0.02829 0.023028 0.014479 
0.08156 0.017274 0.016945 -0.0049219 0.018918 0.031578 -0.00031829 0.027468 
0.040785 0.057884 0.028783 0.044073 0.044567 0.015137 0.031578 0.039799 
0.033715 0.028619 0.012177 0.027468 0.017603 0.028619 0.041607 0.016945 
0.028947 0.040621 0.017274 0.03388 0.0098754 0.044238 0.012342 0.020562 
0.030263 0.066269 0.020562 0.04506 0.015794 0.018425 0.036017 0.031414 
0.032071 0.053445 0.032729 0.030592 0.0070803 0.03651 0.0095465 0.021878 
0.043909 0.049335 0.023193 0.012177 0.027632 0.0069159 -0.0019624 0.013657 
0.0075736 0.06035 0.0227 0.026481 0.0062583 0.005765 0.016452 0.030098 
0.032071 0.055089 0.00033937 0.028619 0.025988 0.027468 0.017767 0.027303 
0.037661 0.057555 0.011026 0.025988 0.032236 0.025495 0.035688 0.026317 
0.042758 0.055089 0.015137 0.038812 0.027139 0.02533 0.044402 0.036346 
0.025988 0.03536 0.020069 0.038977 0.022042 0.009711 0.027468 0.015959 
0.023357 0.057391 0.0069159 0.037332 0.020069 0.010697 0.033222 0.015137 
0.0227 0.049664 0.017603 0.01415 0.031578 0.034702 0.026974 0.041607 
0.024179 0.051308 0.012999 0.034373 0.031414 0.02122 0.009711 0.02122 
0.04358 0.047362 0.01826 0.02829 0.019411 0.044896 0.025166 0.035031 
0.024508 0.041936 0.024837 0.043251 0.015794 0.017932 0.0080668 0.030427 
0.0090533 0.0421 0.035195 0.031742 0.029441 1.0539e-005 0.03388 -0.0026201 
0.041772 0.051472 0.017932 0.034537 0.025824 0.031578 0.035853 0.012999 
0.043251 0.055747 0.011684 0.024837 0.021384 0.032564 0.011355 0.020562 
0.044731 0.044238 0.025988 0.026481 0.017932 0.032564 0.025166 0.041278 
0.011355 0.05772 0.032893 0.014643 0.021056 0.013164 0.035031 0.027796 
0.025988 0.044731 0.00017495 0.015959 0.042923 0.0047785 0.0032988 0.04095 
0.031085 0.078765 0.017767 0.019905 0.034866 0.028783 0.0324 0.046046 
0.018918 0.051636 0.020069 0.031414 0.035195 0.011355 0.020891 0.017274 
0.0083956 0.049992 0.013328 0.020727 0.066598 0.016452 0.021384 0.0421 
0.023357 0.061666 0.004943 0.030098 0.041936 0.034044 0.031414 0.028783 
0.041443 0.026646 0.016945 0.02681 0.041278 0.029441 0.035853 0.030427 
0.02829 0.031578 0.023851 0.050486 0.049006 0.027632 0.017932 0.019411 
0.021878 0.035524 0.0324 0.029441 0.04506 0.014643 0.042429 0.038812 
0.022371 0.03651 0.025988 0.048677 0.025166 0.017438 0.011191 0.0060938 
0.024015 0.047526 0.01711 0.021056 0.031907 0.016288 0.016123 0.018754 
0.036346 0.066598 0.016616 0.026974 0.024344 0.0051074 0.034537 0.048019 
0.027303 0.041278 0.020069 0.017767 0.019083 0.032564 0.018425 0.034044 
0.014808 0.062817 -0.0039354 0.018754 0.041278 0.02829 0.033551 0.018918 
0.018096 0.040456 0.015301 0.013821 0.02533 0.023851 0.030098 0.037004 
0.059528 0.047691 0.022206 0.034044 0.058706 0.04917 0.023522 0.017603 
0.048019 0.067913 0.0080668 0.017274 0.029112 0.021384 0.037004 0.030098 
0.039141 0.038483 -0.00097594 0.063474 0.026152 0.0014903 0.038319 0.058871 
0.027632 0.053281 0.0080668 0.0090533 0.029769 0.012177 0.0069159 0.027303 
0.010204 0.080244 0.01152 0.032893 0.045389 0.0098754 0.034537 0.036346 
0.030592 0.040621 0.02829 0.016288 0.01711 0.024673 0.020398 0.045553 
0.052459 0.028454 0.055254 0.05476 0.0070803 0.021713 0.01004 0.032236 
0.026481 0.044402 0.032564 0.024015 0.0052718 0.036675 0.028947 0.037168 
0.026481 0.028454 0.019083 0.066598 0.024179 0.02533 0.023028 0.04917 
0.03651 0.039634 0.024344 0.017438 0.024015 0.018425 0.040621 0.017932 
0.051965 0.023193 0.039141 0.04358 0.033058 0.032893 0.034702 0.02681 
0.029934 0.017274 0.038483 0.022535 0.024179 0.014479 0.030756 0.024344 
0.027632 0.052459 0.029112 0.051143 0.022864 0.034866 0.044073 0.017274 
0.021878 0.048184 0.019576 0.005765 0.029769 0.016616 0.014972 0.026152 
0.0227 0.038155 0.019905 0.038648 0.03536 0.010862 0.0052718 0.032893 
0.022371 0.0421 0.025166 0.02122 0.029441 0.022371 0.040292 0.013986 
0.018425 0.017603 0.01563 0.048348 0.027139 0.013986 0.024015 0.028454 
0.018754 0.012506 0.016781 0.0095465 0.014643 0.031578 0.034537 0.040621 
0.045882 0.022864 0.020727 0.037497 0.031249 0.0083956 0.047197 0.024179 
0.025495 0.013657 0.035524 0.0042853 0.041772 0.017603 0.045882 0.023686 
0.027303 0.058542 0.018589 0.047362 0.039141 0.019411 0.037826 0.027139 
0.017274 0.063639 0.0080668 0.028619 0.011026 -0.0026201 0.040292 0.022042 
0.020069 0.05476 0.01267 0.049006 0.042758 0.032564 0.02122 0.037168 
0.028125 0.054596 0.030592 0.01415 0.052459 0.0060938 0.041443 0.051308 
0.026646 0.035853 0.013821 0.038483 0.045224 0.014315 0.043909 0.036017 
0.013821 0.023522 0.0085601 0.0037921 0.040785 0.01974 0.029112 0.01415 
0.029441 0.056733 0.020398 0.035853 0.027303 0.020727 0.049335 0.034537 
0.058542 0.046868 0.027632 0.025824 0.034537 0.037004 0.034209 0.024673 
0.046868 0.013821 0.037168 0.034537 0.01563 0.02122 0.0044497 0.022864 
0.021056 0.038648 0.020562 -0.014787 0.026646 0.029605 0.018589 0.038648 
0.027632 0.034866 0.0047785 0.018754 0.031414 0.024508 0.018754 0.027632 
0.052459 0.022371 -0.010676 0.021384 0.030098 -0.0019624 0.012835 0.014643 
0.037661 0.025001 0.016288 0.038977 0.017603 0.024344 0.025659 0.026317 
0.051965 0.009711 0.028783 0.033387 0.01711 0.0075736 0.022206 0.025166 
0.043251 0.019905 0.010369 0.026646 0.020727 0.029276 0.023193 0.00099702 
0.042265 0.017932 0.015794 0.036346 0.019576 0.012177 0.03651 0.018589 
0.057227 0.0046141 0.0051074 0.023851 0.023193 0.00033937 0.037004 0.034209 
0.051472 0.014479 -0.017088 0.030592 0.019411 0.035688 0.049006 0.016781 
0.0324 0.017438 -0.0055795 0.048677 0.027796 0.011026 0.02829 0.015137 
0.019247 0.041278 0.018589 0.034866 0.018096 0.011355 0.029112 0.025166 
-0.027282 0.053445 0.028454 0.019083 0.038812 0.029934 0.084684 0.057062 
-0.077428 0.04506 0.041443 0.020398 0.034044 0.015465 0.031578 0.019905 
-0.033201 0.076627 0.034373 0.044731 -0.0016336 0.056898 0.024015 0.06035 
0.0080668 0.072024 0.031578 0.011026 0.028454 0.020727 0.0421 0.034044 
0.084519 0.070708 0.051965 0.026481 0.015301 0.025495 0.027303 0.05213 
0.099645 0.073175 0.037332 0.024015 0.038155 0.0080668 0.023522 0.032564 
0.051472 0.039963 0.016288 0.0032988 0.022042 -0.0077169 0.034702 -0.011663 
0.052459 0.037661 0.02829 0.046375 0.023686 0.032729 0.013821 0.018425 
0.050157 0.045389 0.017438 0.0090533 0.019411 0.027796 0.026481 0.066927 
0.030427 0.035688 0.014479 0.032071 0.033715 0.0054362 0.027468 0.026974 
0.011355 0.0074092 0.02681 0.026317 0.019247 0.020233 0.034209 0.0098754 
0.039963 0.035688 0.013821 0.035524 0.026481 0.023028 0.04095 0.04358 
0.032893 0.038483 0.021056 0.018096 0.033387 0.034702 0.015465 0.029276 
0.053116 0.058706 0.0021479 0.038155 0.041443 0.020891 0.0088889 0.027796 
0.061008 0.055747 0.025495 0.027303 0.040785 0.011684 0.034702 0.033715 
0.04917 0.047855 0.032564 0.040456 0.03536 0.018425 0.011848 0.024344 
0.025659 0.062817 0.031414 0.014972 0.038483 0.012835 0.023686 0.01974 
0.0046141 0.052952 0.0227 0.040128 0.053609 0.010533 0.03388 0.034702 
0.017603 0.057555 0.029276 0.026317 0.028454 0.016288 0.0065871 0.02681 
0.02122 0.077943 0.041443 0.037332 0.007738 0.011355 0.014972 0.024837 
0.013986 0.041607 0.03536 0.027468 0.01004 0.022535 0.018918 0.027139 
0.0047785 0.044567 0.032564 0.038483 0.023028 0.0014903 0.011848 0.021384 
0.01974 0.062323 0.011848 0.025988 0.023686 0.040621 0.042758 0.0227 
0.071531 0.059857 0.026974 0.03092 0.015465 0.023851 0.038812 0.040292 
0.05772 0.058706 0.049006 0.018918 0.025659 0.01152 0.025659 0.030592 
0.038977 0.048348 0.03947 0.056733 0.0021479 0.024015 0.036017 0.021056 
0.022371 0.038812 0.024344 0.015301 0.019411 0.019576 0.019411 0.028947 
0.0082312 0.0592 0.0093821 0.038977 0.01267 0.045718 0.0056006 0.040621 
0.0082312 0.052294 0.023028 0.028619 0.023851 0.023522 0.025988 0.028947 
0.022206 0.044402 0.047033 0.048348 0.017438 0.0067515 0.017603 0.018918 
0.013986 0.073997 0.034866 0.017767 0.020233 0.029769 0.020233 0.035031 
0.010697 0.043251 0.038648 0.035688 -0.0073881 0.035524 0.023357 0.020727 
0.057062 0.0421 0.038319 0.019247 0.014808 0.029441 0.014808 0.031249 
0.050157 0.04095 0.048348 0.051965 0.016616 0.026152 0.04095 0.035031 
0.04506 0.023686 0.037497 0.026317 0.009711 0.017603 0.026974 0.023851 
0.032236 0.05772 0.038483 0.040456 0.023522 0.041278 0.016288 0.021713 
0.037004 0.04506 0.023686 0.022371 0.026646 0.037168 0.047033 0.037661 
0.0421 0.036675 0.028947 0.031907 0.019247 0.028125 0.021549 0.0067515 
0.034866 0.073668 0.0039565 0.028947 0.016945 0.01563 -0.0021268 0.026152 
0.03651 0.059857 0.020069 0.046375 0.0098754 0.018754 0.036346 0.026646 
0.027632 0.05065 0.01974 0.031907 0.018754 0.04506 0.020891 -0.0083746 
0.055582 0.079258 0.017767 0.046211 0.030098 0.018589 0.011026 0.035688 
0.033715 0.048841 0.042265 0.020233 0.024837 0.021056 0.013821 0.048348 
0.01563 0.047362 0.022864 0.040785 0.038319 0.031414 0.0016547 0.035688 
-0.01232 0.071366 0.033058 0.0018191 0.045882 0.0034632 0.031578 0.051636 
0.012999 0.037332 0.021384 0.045553 0.049499 0.033387 0.017603 0.0324 
0.011684 0.04917 0.023686 -0.00064712 0.044073 0.034702 0.0070803 0.038483 
0.0079024 0.047855 0.011684 0.054596 0.034702 0.035688 0.018096 0.0087245 
0.023851 0.042758 0.016781 0.030427 0.025824 0.036017 -0.0070593 0.024179 
0.019083 0.049499 0.012177 0.035524 0.034044 0.022864 0.0082312 0.010533 
0.054103 0.0047785 0.028947 0.014808 0.031578 0.062323 0.031742 0.017438 
0.048841 0.015137 0.027632 0.034537 0.024508 0.021384 0.0083956 0.035524 
0.037168 0.06331 0.015959 0.016123 0.037332 0.03536 0.014479 0.032564 
-0.00081153 0.045882 0.012177 0.012013 0.028125 0.027303 0.040621 0.034866 
-0.0406 0.037332 0.0059294 1.0539e-005 0.026646 0.026152 0.017603 0.025659 
-0.037805 0.037332 0.01152 -0.01232 0.02122 0.045224 0.011355 0.015794 
0.00050378 0.014315 0.01563 0.0014903 0.011684 0.0227 0.044567 0.0093821 
0.0083956 0.0075736 0.007738 0.027139 0.020069 0.018918 0.016616 0.030263 
0.036346 0.047691 -0.0052507 0.029441 0.037826 0.010369 0.037497 0.026974 
0.068242 0.044238 -0.0022913 -0.013307 0.039141 0.023851 0.021056 0.015301 
0.066927 0.039963 0.0085601 0.011026 0.021878 0.042923 0.021878 0.025824 
0.067585 0.018918 0.015959 0.010369 0.0052718 0.029605 0.032729 0.025001 
0.034373 0.019905 0.012013 0.021549 0.007738 0.044402 0.028125 0.022864 
0.025495 0.038483 0.031907 0.026317 0.023357 0.016452 0.03388 0.028454 
0.026974 0.018589 0.029605 0.033058 0.017603 0.019576 0.052952 0.030592 
0.017767 0.012999 0.014808 0.022371 0.029934 0.024344 0.032071 0.023357 
0.023686 0.032071 0.019905 0.025001 0.024015 0.0054362 0.01826 0.036839 
0.036182 0.011848 0.012013 0.021056 0.026317 0.032071 0.028619 0.037004 
0.039634 0.022042 1.0539e-005 0.020891 0.0044497 0.018589 0.010533 0.021878 
0.066598 0.034209 -0.0040998 0.0056006 0.024837 0.022042 0.031578 0.036839 
0.033222 0.031578 0.00033937 0.030592 0.030098 0.026974 0.032564 0.047526 
0.027139 0.060515 0.0011614 0.029934 0.00033937 0.016781 0.035524 0.029605 
0.017932 0.03651 0.023357 0.028454 0.017767 0.026481 0.054432 0.023686 
0.0080668 0.019576 0.026974 0.035853 0.024344 0.0039565 0.027796 0.043909 
-0.0014692 0.042923 0.013986 0.043087 0.025659 0.023522 0.020398 0.023522 
0.013492 0.025659 0.012342 0.032071 0.037332 0.025988 0.046046 0.02533 
0.022206 0.024837 0.0042853 0.038155 0.033715 0.0023123 0.018754 0.028947 
0.051636 0.050157 0.023851 0.031414 0.040292 0.015137 0.018589 0.019411 
0.0421 0.029934 0.053774 0.041772 0.030592 0.01711 0.025495 0.014972 
0.047691 0.046046 0.023522 0.019411 0.031742 0.010533 0.032729 0.030427 
0.045718 0.052623 0.020069 0.020233 0.020398 0.057555 0.04506 0.02681 
0.037826 0.0421 0.013328 0.020398 0.035524 0.013821 0.022042 0.047033 
0.034866 0.079422 0.019247 0.020727 0.040292 0.0069159 0.007738 0.044238 
0.048184 0.057884 0.038155 0.027632 0.040128 0.01974 0.029605 0.018096 
0.01004 0.064461 0.047362 0.083204 0.023193 0.033387 0.01415 0.017767 
0.038977 0.070873 0.036839 0.025824 0.043909 0.038812 0.012999 0.038648 
0.031907 0.044238 0.03388 0.061172 0.047033 0.029276 0.045553 0.020562 
0.040292 0.0227 0.031414 0.027632 0.01974 0.016945 0.013821 0.021549 
0.047526 0.062652 0.036346 0.049828 0.0067515 0.022535 0.00017495 0.049006 
0.030427 0.038155 0.038812 0.0064227 0.010533 -0.0050863 0.03388 0.021713 
0.025988 0.045553 0.034044 0.023686 0.023357 0.017274 0.032236 0.028619 
0.016616 0.03947 0.031578 0.024015 0.017932 0.013492 0.017932 0.036839 
0.020727 0.042923 0.033387 0.031085 0.015794 0.024673 0.023851 0.019411 
0.035688 0.081231 0.028947 0.012177 0.027303 0.027796 0.0079024 0.047362 
0.049664 0.055582 0.027139 0.050157 0.027796 0.017767 0.036675 0.049006 
0.058871 0.040456 0.028125 0.021549 0.018918 0.028783 0.023028 0.033058 
0.050979 0.062323 0.02829 0.049664 0.013986 0.0098754 0.014479 0.020891 
0.03388 0.044238 0.035853 0.013164 0.040621 0.012506 0.044567 0.062159 
0.043909 0.047855 0.029441 0.034537 0.039634 0.025495 0.040128 0.049992 
0.055747 0.066105 0.016945 0.015301 0.027139 -0.0067304 0.037004 0.023028 
0.035031 0.037826 0.037661 0.058377 0.015959 0.03092 0.033222 -0.0059084 
0.010533 0.044896 0.057884 0.040621 0.032729 0.020562 0.0070803 -0.023994 
0.013657 0.047362 0.038977 0.048677 0.015959 0.0092177 0.02681 -0.020048 
0.027632 0.020233 0.024179 0.02122 0.018589 0.013986 0.047855 0.033222 
0.03651 0.055254 0.023028 0.044073 0.017932 0.018918 0.0421 0.031907 
0.039799 0.04095 0.019905 0.018754 0.026481 0.017767 0.029605 0.034702 
0.047033 0.043087 0.02533 0.038812 0.03092 -0.0011404 0.037004 0.051801 
0.015959 0.068736 0.034044 0.020727 0.04654 0.020233 0.013657 0.03799 
0.037004 0.060186 0.032564 0.034209 0.038977 0.031414 0.042923 0.023851 
0.012999 0.058213 0.0324 0.0062583 0.03536 0.012506 0.025988 0.039305 
0.023522 0.05772 0.034373 0.031085 0.034702 0.032236 0.027303 0.03536 
0.0065871 0.035195 0.036675 0.035688 0.04358 0.019576 0.051636 0.013164 
0.015137 0.038483 0.034702 0.028783 0.026646 0.013328 0.033715 0.018589 
0.037004 0.033551 0.037497 0.027796 0.028783 0.028454 0.03388 0.037168 
0.030592 0.024508 0.0324 0.046868 0.030427 0.039963 0.012506 0.041278 
0.041772 0.065118 0.027632 0.040128 0.042594 0.048841 0.0227 0.040128 
0.029769 0.050321 0.034866 0.05065 0.038812 0.010862 0.041114 0.047526 
0.034044 0.048348 0.03388 0.035524 0.03388 0.0093821 0.027961 0.020398 
0.033551 0.05772 0.038812 0.030592 0.0324 0.0079024 0.025166 0.014972 
0.00050378 0.031249 0.033387 0.024837 0.024508 0.014972 0.036346 0.034373 
0.012506 0.016452 0.01826 0.025824 0.027468 0.031907 0.02122 0.069393 
0.0098754 0.058377 0.029441 0.017932 0.017438 0.017438 0.026974 0.038155 
0.014479 0.035524 0.026974 -0.023665 0.028947 0.051801 0.033222 0.019905 
0.024179 0.041114 0.025166 0.022042 0.024344 0.033222 0.031742 0.026152 
0.030592 0.0592 0.014643 0.0054362 0.054267 0.019576 0.018918 0.0024767 
0.020069 0.028454 0.02681 0.027139 0.020233 0.049664 0.03536 0.042923 
0.0031344 0.027303 0.035688 0.022206 0.02122 -0.0059084 0.043251 0.021384 
0.0075736 0.028125 0.034537 0.022206 0.01563 0.017438 0.02533 0.024179 
0.023851 0.025824 0.032236 0.028619 0.0060938 0.031578 0.026317 0.027632 
0.021056 0.064132 0.039799 0.041114 0.017603 0.004943 0.024673 0.020069 
0.017932 0.04506 0.034044 0.025988 0.010862 0.036017 0.029112 0.028783 
0.035524 0.038812 0.031907 0.026974 0.013821 0.021056 0.013164 0.038648 
0.037168 0.072846 0.038977 0.021056 0.026481 0.019576 0.029441 0.038483 
0.030098 0.054267 0.037168 0.030098 0.028947 0.035688 0.032893 0.048348 
0.028619 0.052623 0.03947 0.036182 0.024344 0.021878 0.032236 0.042265 
0.028125 0.052787 0.035524 0.053116 0.016616 0.055911 0.033551 0.010862 
0.034537 0.029605 0.040621 0.029769 0.026481 0.022864 0.035524 0.020069 
-0.0027845 0.066269 0.029769 0.029934 0.026646 0.024015 0.016288 0.042758 
0.029605 0.053774 0.036017 0.018918 0.026317 0.023357 0.038319 0.032236 
0.019576 0.038319 0.034373 0.040292 0.038483 0.04095 0.02122 0.024015 
0.031085 0.066105 0.034373 0.02829 0.039305 0.03651 0.023522 0.019247 
0.050157 0.048513 0.049006 0.040292 0.035853 0.019905 0.041278 0.021384 
0.025001 0.049992 0.043745 0.011684 0.022535 0.004943 0.019083 0.017274 
0.028783 0.058213 0.046704 0.034866 0.016452 0.029605 0.0013258 0.024837 
0.0098754 0.028619 0.038812 0.02681 0.038977 0.025166 0.036675 0.013657 
0.015959 0.023028 0.048513 0.058706 0.021384 0.034702 0.00297 0.01826 
0.026974 0.049006 0.041278 0.011848 0.037661 0.017767 0.018425 0.031742 
0.0324 0.044073 0.050321 0.029605 0.025166 0.0079024 0.039634 0.032564 
0.032893 0.060679 0.045224 0.0064227 0.025988 0.035031 0.031578 0.022864 
0.045224 0.033058 0.056076 0.056898 0.059857 0.046375 0.0227 0.038319 
0.049664 0.044731 0.026317 0.034209 0.052459 0.044567 0.021384 0.03536 
0.022864 0.053609 0.052623 0.056076 0.047033 0.023522 0.01004 0.026152 
0.030592 0.02829 0.057555 0.020233 0.026646 0.017932 0.029769 0.013986 
0.023522 0.025824 0.058213 0.051636 0.014643 0.021713 0.017932 0.027796 
0.029934 0.061008 0.042758 0.016781 0.0024767 0.022864 0.022206 0.016945 
0.023522 0.038319 0.046868 0.046704 0.024179 0.043251 0.0421 0.027961 
0.036675 0.031578 0.035031 0.0065871 0.029605 0.017438 0.029934 0.032564 
0.042758 0.044896 0.038155 0.051472 0.014479 0.018425 0.024179 0.013821 
0.041772 0.027961 0.044402 0.0082312 0.010369 0.01974 0.030592 0.022535 
0.056733 0.051965 0.046375 0.038648 0.021384 0.017932 0.0092177 0.033551 
0.062652 0.047855 0.045389 0.0069159 0.023686 0.023851 0.021549 0.031085 
0.03947 0.041607 0.054596 0.058049 0.034209 0.026317 0.032729 0.039963 
0.0028056 0.053116 0.026974 -0.011005 0.054103 0.027303 0.018754 0.022371 
0.030263 0.039963 0.047362 0.033387 0.028454 0.028619 0.01711 0.033715 
0.021713 0.023028 0.037168 0.038648 0.050157 0.033222 0.021384 0.037004 
0.032893 0.065283 0.054925 0.044731 0.017932 0.028947 0.0032988 0.041936 
0.062323 0.040785 0.052294 0.029441 0.0016547 0.020562 0.044238 0.011191 
0.048677 0.025824 0.049992 0.038319 0.022864 0.007738 0.022371 0.015301 
0.027303 0.037168 0.030756 0.034044 0.025495 0.017603 0.016452 0.061666 
0.025495 0.023686 0.043087 0.03092 0.031085 0.026646 0.038648 0.027961 
0.020069 0.056404 0.047362 0.017603 0.029769 0.023686 0.027632 0.031085 
0.025495 0.034373 0.053445 0.035031 0.019905 0.0095465 0.0065871 0.028619 
0.020398 0.020069 0.05065 0.0080668 0.026481 0.013657 0.029605 0.014808 
0.025824 0.057227 0.055911 0.0082312 0.017603 0.026152 0.042923 0.019083 
0.028454 0.04358 0.056076 0.0082312 0.039963 0.021878 0.023028 0.055911 
0.045389 0.029934 0.059693 0.017438 0.023028 0.016123 0.024344 0.038977 
0.049499 0.052294 0.060186 0.02533 0.046704 0.014479 0.032893 0.030263 
0.031907 0.036675 0.0786 0.0227 0.03388 0.012999 0.037826 0.034044 
0.018589 0.039634 0.057062 0.041936 0.034537 0.011026 0.01974 0.024344 
0.013986 0.042594 0.037497 0.023357 0.034209 0.030592 0.0092177 0.012013 
0.02122 0.01826 0.041114 0.035853 0.03388 0.034866 0.033058 0.036675 
0.0037921 0.035524 0.04654 0.029441 0.049992 0.029276 0.027303 0.039141 
0.018425 0.030427 0.052623 0.028947 0.043909 0.016781 0.011684 0.038812 
0.023028 0.025824 0.070215 0.026317 0.050979 0.043416 0.018918 0.023193 
0.025824 0.037497 0.051965 0.033387 0.037826 0.0098754 0.0067515 0.01563 
0.039963 0.022042 0.040785 0.023686 0.032071 0.019083 0.0072447 0.031907 
0.048513 0.031249 0.046375 0.0227 0.028783 0.020727 0.024837 0.030263 
0.054267 0.051965 0.042429 0.031414 0.038319 0.0062583 0.030592 0.041607 
0.032893 0.03947 0.043909 0.029769 0.020233 0.025001 0.028783 0.0095465 
0.02533 0.049828 0.035524 0.02681 0.0227 0.015959 0.027303 0.029934 
0.038483 0.058542 0.038977 0.020891 0.032071 0.023522 0.026974 0.04358 
0.033222 0.04917 0.04917 0.029769 0.02829 0.031907 0.043745 0.026152 
0.034209 0.042758 0.059528 0.037661 0.027796 0.032236 0.01563 0.044073 
0.044731 0.040785 0.073504 0.033715 0.029441 0.034702 0.018096 0.028783 
0.051143 0.041443 0.086492 0.035031 0.017438 0.0062583 0.041772 0.015794 
0.055582 0.054596 0.077943 0.025824 0.013492 0.0095465 0.012177 0.035688 
0.041114 0.01974 0.074161 0.032071 0.015959 0.0051074 0.004943 0.022535 
0.020727 0.029605 0.078107 0.033387 0.032893 0.00033937 0.020069 0.0051074 
-0.0044286 0.047362 0.058871 0.050814 0.025659 0.01974 -0.014293 0.023357 
-0.075127 0.033222 0.059693 0.029934 0.01974 0.011191 0.027139 0.023357 
-0.092226 0.053445 0.059528 0.044731 0.040456 0.0046141 0.038648 0.033058 
-0.014129 0.072517 0.046375 0.043745 0.038483 0.023522 0.012835 0.037332 
0.072681 0.080409 0.016616 0.028125 0.03799 0.038812 0.0090533 0.037826 
0.12546 0.056404 0.055747 0.027468 0.01974 0.04654 0.03092 0.039634 
0.099152 0.057227 0.060679 0.038155 0.034537 0.037826 0.046704 0.019905 
0.064461 0.042923 0.075148 0.011848 0.031414 0.01711 0.043745 0.038319 
0.01563 0.048513 0.075641 0.021056 0.027632 0.0082312 0.025659 0.017932 
-0.0062372 0.042758 0.044402 0.0324 0.025001 0.011355 0.009711 0.0059294 
0.036346 0.037826 0.011355 0.041936 0.031742 0.039799 0.039799 0.02681 
0.039963 0.074983 0.029605 0.024508 0.049335 0.025001 0.019411 0.015959 
0.043251 0.055582 0.034044 0.044402 0.030427 0.025988 0.037332 0.01004 
0.048184 0.035524 0.040456 0.029276 0.027796 0.015465 0.032729 0.0060938 
0.050321 0.061008 0.046868 0.049006 0.054432 0.022864 0.022864 0.025824 
0.041114 0.050321 0.039634 0.036182 0.043087 0.051801 0.048677 0.017603 
0.02829 0.064132 0.039141 0.047033 0.05624 0.022371 0.030263 0.051308 
-0.0062372 0.046211 0.041443 -0.030899 0.039963 0.040785 0.021384 0.025659 
-0.0040998 0.033058 0.045553 0.034044 0.035524 0.023028 0.049006 0.021878 
0.0064227 0.070544 0.043909 -0.008539 0.041772 0.0023123 0.038812 0.013986 
-0.00015387 0.025988 0.02681 0.038977 0.020727 0.018425 0.02681 0.018754 
-0.0042642 -0.023007 0.03388 0.032236 -0.0021268 0.021384 0.047691 0.021384 
-0.00081153 0.019083 0.032071 0.049992 0.012013 0.019083 0.024508 0.02681 
0.020398 0.030592 0.044731 0.037826 0.027303 0.027961 0.0059294 0.025495 
0.025166 0.037497 0.029276 0.059035 0.014808 0.017932 0.035195 0.016781 
0.012999 0.057227 0.028947 0.029112 0.023522 0.034537 0.031907 0.031742 
0.026974 0.027303 0.044073 0.037332 0.014972 0.010369 0.059693 0.01826 
0.030756 0.029934 0.041443 0.028947 0.025659 0.023522 0.054925 0.028619 
0.033551 0.054432 0.049664 0.037826 0.022042 0.035688 0.026481 0.022371 
0.02829 0.064954 0.049664 0.013164 0.032236 0.027139 0.042429 0.036346 
0.012177 0.07597 0.021384 0.031249 0.014479 0.01974 0.018425 0.020233 
0.037497 0.040292 0.034702 0.027632 0.022535 0.010369 0.025495 0.023686 
0.042758 0.054925 0.021878 0.020069 0.032071 0.013328 0.031742 0.035688 
0.057555 0.062159 0.031578 0.016616 0.028619 0.033222 0.027961 0.021878 
0.017932 0.036182 0.02681 0.023028 0.032236 0.0047785 0.010369 0.01974 
0.019247 0.025988 0.023357 0.032564 0.012999 0.027303 0.035853 0.025166 
0.0092177 0.043251 -0.0064016 0.044896 0.026481 0.005765 0.0047785 0.012506 
0.033222 0.035195 0.030756 0.028619 0.021713 0.01152 0.028454 0.034373 
0.035688 0.059693 0.016288 0.047362 0.027796 0.01415 0.033551 0.035853 
0.030427 0.043909 0.033222 0.024179 0.019905 0.011848 0.013821 0.022042 
0.041772 0.01974 0.02122 0.022206 0.027961 0.024673 0.043251 0.01974 
0.036182 0.037332 0.021549 0.023851 0.018918 0.016945 0.021384 0.038483 
0.029441 0.035031 0.013821 0.025166 0.028619 0.0088889 0.048019 0.018425 
0.022206 0.040456 0.013986 0.01415 0.039963 0.027468 0.034044 0.056898 
0.018425 0.10343 0.020891 0.00033937 0.013492 -0.00015387 0.0023123 0.020891 
0.016781 0.055089 0.023686 0.022206 0.035195 0.025166 0.0075736 0.017274 
0.0060938 0.049006 0.01415 0.031414 0.083862 0.031578 0.032071 -0.0040998 
0.023357 0.061666 0.016945 0.022042 0.041936 0.014972 0.016616 0.03536 
0.023193 0.019905 0.041114 0.027139 0.016781 0.02533 0.019083 0.03536 
0.038648 0.027468 0.0069159 0.022864 0.032564 0.01152 0.0324 0.017767 
0.021713 0.04654 0.029934 0.033551 0.043745 0.015465 0.016945 0.046375 
0.034044 0.027796 0.0227 0.020891 0.029934 0.01711 0.048513 0.024837 
0.027303 0.049335 0.026646 0.014808 0.022206 0.013328 0.024015 0.016616 
0.042265 0.025824 0.028125 0.026974 0.013164 0.035031 -0.0011404 0.012506 
0.04095 0.038483 0.036675 0.016288 0.020069 0.017603 0.034866 0.0227 
0.044402 0.081395 0.033222 -0.00081153 0.0051074 0.056733 0.027961 0.0082312 
0.03388 0.036675 0.038977 0.0227 0.030427 0.030756 0.0051074 0.043251 
0.031085 0.061337 0.043745 0.031907 0.010697 0.024673 0.028619 0.036017 
0.039963 0.053609 0.047197 0.021056 0.022206 0.022371 0.020233 0.023028 
0.064625 0.052623 0.040456 0.04654 0.038648 -0.0047575 0.0067515 0.031742 
0.055582 0.059693 0.017603 0.028783 0.034537 0.043745 0.037004 0.031578 
0.053281 0.061666 0.014315 0.027468 0.045553 0.043416 0.036839 0.0227 
0.038483 0.03536 0.024344 0.033715 0.01974 0.019905 0.031085 0.03092 
0.045389 0.05624 0.045389 0.052952 0.021549 0.033551 0.016452 0.017932 
0.016452 0.035688 0.031249 0.034537 0.011684 0.01974 0.024673 0.025988 
0.018754 0.037826 0.020233 0.045553 0.014315 0.029934 0.055254 0.037826 
0.01563 0.046211 0.010204 0.021549 0.030263 0.034702 0.024179 0.025824 
0.034537 0.036839 0.017438 0.03536 0.018425 -0.0013048 -0.0022913 0.026974 
0.046211 0.038483 0.031414 0.016288 0.024837 0.02681 0.024344 0.040456 
0.060844 0.049335 0.043087 0.047033 0.014643 0.043416 0.018918 0.034866 
0.049499 0.022535 0.048019 0.0088889 0.028125 0.038648 0.01415 0.032729 
0.035524 0.035195 0.040292 0.048513 0.029605 0.027796 0.034866 0.036346 
0.02829 0.051636 0.04506 0.02533 0.041443 0.017932 -0.0090322 0.035524 
0.040292 0.06331 0.050814 0.045718 0.039634 0.050979 0.043087 0.026481 
0.028454 0.061501 0.057884 -0.013471 0.041443 0.0054362 0.03388 0.027961 
0.019576 0.049335 0.044402 0.052623 0.022206 0.023686 0.02533 0.022864 
0.0324 0.051472 0.047526 0.023522 0.032564 0.017438 0.035688 0.027632 
0.052623 0.1008 0.074161 0.051472 0.050321 0.010533 0.014643 0.025824 
0.035524 0.093233 0.10984 0.027632 0.045718 0.039305 0.014315 0.045553 
0.030592 0.082382 0.089452 0.052459 0.053116 0.017274 0.03799 0.014808 
0.036182 0.096193 0.043416 0.032729 0.041607 0.039799 0.026646 0.015794 
0.018425 0.058049 0.016616 0.043745 0.028454 0.016123 0.026481 0.039799 
1.0539e-005 0.059857 -0.0082102 0.034044 0.053609 0.023686 0.044073 0.031907 
0.012177 0.037661 -0.0029489 0.031742 0.05476 0.036017 0.026152 0.019411 
-0.014129 0.0075736 -0.015773 -0.0055795 0.057062 0.0039565 0.061172 0.045389 
0.01415 0.041936 -0.0032777 0.040128 0.034537 0.028619 0.038812 0.021056 
0.024673 0.021549 -0.014293 0.033222 0.044731 0.031249 0.010369 0.017274 
0.039963 -0.0057439 0.0056006 0.038319 0.024344 0.022535 0.063145 0.035195 
0.020398 0.023028 0.029112 0.037332 0.01711 0.026974 0.03947 0.004943 
0.015301 0.0065871 0.011191 0.054925 0.036675 0.009711 0.034209 0.020069 
0.018918 0.029605 0.011355 0.039634 0.047526 0.043251 0.049992 0.036675 
0.0088889 0.046375 0.01826 0.051801 0.029441 0.036675 0.024673 0.0227 
0.020562 0.0079024 0.01152 0.01267 0.0062583 0.020562 0.023851 0.025001 
0.012013 0.0024767 0.0011614 0.023357 0.027796 0.031907 0.038648 0.044073 
0.034702 0.021384 0.011848 -0.0049219 0.017767 0.017603 0.019411 0.0075736 
0.06479 0.0087245 0.023522 0.0039565 0.027468 0.034537 0.028619 0.022864 
0.04506 0.039634 0.014479 0.013821 0.032729 0.018096 0.027468 0.033058 
0.043909 0.04358 0.036675 0.019247 0.029934 0.015465 0.02533 0.027468 
0.033551 0.066105 0.031249 0.032236 0.026481 0.020069 0.037168 0.022206 
0.021384 0.12579 0.051472 0.053609 0.040456 0.029769 0.025988 0.043909 
-0.0050863 0.087972 0.048841 0.026974 0.029605 0.021056 0.019411 0.02829 
0.018918 0.077285 0.051143 0.046046 0.017932 0.016616 0.031907 0.024508 
0.019905 0.062981 0.035688 0.025495 0.016616 0.0070803 0.020727 0.033387 
0.032564 0.027139 0.044567 0.04654 0.0046141 0.042429 0.014808 0.034373 
0.043909 0.018096 0.013986 0.034866 0.012835 0.02122 0.052294 0.022535 
0.046046 0.033387 -0.011498 0.034537 0.028125 0.0227 0.024673 0.035195 
0.035524 0.026974 -0.01528 0.027303 0.018754 0.019247 0.016781 0.036346 
0.039799 0.036675 -0.015116 0.009711 0.020233 0.042429 0.036839 0.023357 
0.036346 0.018754 -0.025309 0.024673 0.025166 0.032071 0.010697 0.035524 
0.038648 0.0065871 -0.00015387 0.014315 0.031742 0.0039565 0.034537 0.041607 
0.041443 0.01004 -0.00097594 0.022371 0.028619 0.016288 0.026974 0.036675 
0.045718 0.00066819 -0.01232 0.011026 0.036182 0.013164 0.023522 0.033222 
0.054925 0.017603 -0.0047575 0.031578 0.020069 0.014479 0.042594 0.04506 
0.050486 0.045553 -0.011498 0.027961 0.046375 0.035853 0.01711 0.032564 
0.047033 0.01267 -0.0014692 0.040128 0.02829 0.029769 0.027468 0.034537 
0.030263 0.013492 0.021384 0.039141 0.025495 0.016781 0.041936 0.039799 
0.023686 0.035853 0.02681 0.047197 0.033058 0.023357 0.01711 0.0227 
0.01415 0.035524 0.023686 0.030263 0.042758 0.016945 0.027139 0.025824 
0.017274 0.03092 0.00083261 0.018754 0.048184 0.040292 0.046375 0.035688 
0.0087245 0.03536 0.019083 0.0023123 0.031578 0.01267 0.014479 0.020398 
0.025988 0.025659 0.0011614 0.027796 0.029276 0.020562 0.037004 0.04358 
0.033058 0.047362 0.0227 0.015465 0.013657 0.029605 0.026152 0.047033 
0.054103 0.031907 0.015465 0.018754 0.01415 0.038812 0.016781 0.036017 
0.032729 0.042429 0.0056006 0.010204 0.014972 0.021549 0.027139 0.019247 
0.079751 0.038319 0.017603 0.034866 0.015137 0.030756 0.0082312 0.01563 
0.029276 0.042265 0.0046141 0.020727 0.023357 -0.0095255 0.022371 0.044238 
0.01004 0.0018191 0.018096 0.029441 0.0051074 0.010204 0.079587 0.01415 
0.023028 0.04095 0.028783 0.018589 0.014479 0.013164 0.027961 0.025166 
0.032564 0.031414 0.01826 0.037661 0.0016547 0.023357 0.030263 0.021384 
0.032564 0.062323 0.031907 0.018425 0.01563 0.012177 0.034702 0.020233 
0.024673 0.067913 0.039305 0.03536 0.02681 0.01826 0.024673 0.029112 
0.056569 0.05624 0.031742 0.032893 0.047362 0.021056 0.019247 0.0047785 
0.056404 0.091589 0.040456 0.049992 0.022371 0.020069 0.029605 0.016452 
0.028783 0.062488 -0.0014692 0.047691 0.026646 0.013657 0.037168 0.040128 
0.041443 0.061337 0.025824 0.041607 0.025166 0.015301 0.038977 0.031742 
0.019083 0.064625 0.027796 0.005765 0.030263 0.026974 0.027139 0.037826 
0.037661 0.049664 0.012835 0.037826 0.016781 0.03536 0.024837 0.037168 
0.035195 0.048348 0.0052718 0.046046 0.018425 0.019247 0.05065 0.0085601 
0.017438 0.053774 0.010862 0.049006 0.043745 0.040456 0.033715 0.023851 
0.025001 0.067091 0.038319 0.039963 0.032564 -0.0011404 0.024837 0.038483 
0.0421 0.053938 0.020891 0.042265 0.034702 0.0067515 0.029276 0.026974 
0.045389 0.051636 0.033551 0.036182 0.039305 0.032071 -0.00081153 0.029112 
0.022371 0.028947 0.012999 0.048677 0.036017 0.015959 0.024015 0.024179 
0.015137 0.082053 0.033222 0.023522 0.031742 0.0028056 0.023686 0.028783 
0.01004 0.060515 0.024344 0.039963 0.046375 0.025001 0.020398 0.019576 
0.027961 0.051308 0.036346 0.01415 0.043087 0.023686 0.036675 0.037497 
0.0046141 0.052294 0.030592 0.048513 0.030263 0.011191 0.023686 0.017438 
0.025495 0.027961 0.049992 0.03388 0.038319 0.0041209 0.019083 0.014972 
0.030756 0.045882 0.031907 0.046868 0.04095 0.03536 0.03799 0.017767 
0.040456 0.069722 0.018918 0.023357 0.046375 0.018589 0.043416 0.022371 
0.03536 0.043251 0.0093821 0.043251 0.029112 0.02533 0.0032988 0.023522 
0.02533 0.070708 0.01826 0.030098 0.031578 0.037004 0.043745 0.033387 
0.019247 0.051801 1.0539e-005 0.044402 0.031742 0.021713 0.0059294 0.0421 
0.0324 0.058706 0.0093821 0.026152 0.016452 0.021713 0.015137 0.028947 
-0.0044286 0.069064 0.044402 0.054432 0.030592 0.0082312 0.029441 0.040128 
0.01267 0.035195 0.037826 0.01974 0.0082312 0.031414 0.0070803 0.04358 
0.025001 0.03536 0.036839 0.032729 0.0065871 0.029934 0.0046141 0.029934 
0.042594 0.057884 0.020069 0.011355 0.013492 0.020069 0.02829 0.034537 
0.037004 0.051636 0.026152 0.029605 0.03388 0.035524 0.017438 0.037168 
0.028454 0.040621 0.019083 0.036346 0.023686 0.017932 0.027796 -0.017911 
0.036182 0.047362 0.012835 0.042923 0.029276 0.025001 0.020233 0.0085601 
0.019411 0.039141 0.012177 0.037661 0.023686 0.027632 0.009711 0.038319 
0.023851 0.055911 0.022371 0.0079024 0.030756 0.015137 0.038319 0.068571 
0.015137 0.058213 0.012177 0.016616 0.022371 0.026646 0.020398 0.052294 
0.088465 0.051472 -0.0059084 -0.010183 0.023686 0.0064227 0.012999 0.056569 
0.026152 0.075312 0.014315 0.0227 0.021713 0.018096 0.018425 0.026974 
0.050979 0.034702 0.010862 0.037168 0.029112 0.030756 0.023028 0.034702 
0.024508 0.051965 0.013821 0.030592 0.013328 0.01004 0.024673 0.03651 
0.042429 0.036182 0.012342 0.035031 0.035688 0.025001 0.026974 0.019083 
0.024344 0.025659 0.022371 0.030098 0.030756 0.029112 0.01563 -0.00015387 
0.030592 0.036182 0.036017 0.023357 0.016452 0.012506 0.034373 0.028125 
0.038155 0.04654 0.035524 0.047526 0.040128 0.0074092 0.033551 0.0092177 
0.028619 0.034537 0.017767 0.024673 0.0060938 0.0092177 0.010862 -0.0021268 
0.0031344 0.042429 0.026481 0.040621 0.028454 0.03799 0.022371 0.025495 
-0.025309 0.03799 0.020069 0.014808 0.031578 0.015465 0.017603 0.035853 
-0.017746 0.033551 0.028783 0.02681 0.032564 0.015301 0.0042853 0.026317 
0.01711 0.064625 0.033058 0.014808 0.036839 0.034044 0.028947 0.034373 
0.066598 0.029934 0.048677 0.038812 0.032729 0.049335 0.01152 0.0090533 
0.058049 0.03799 0.031907 0.011191 0.025824 0.012177 0.035688 0.045224 
0.057391 0.058213 0.027632 0.025659 0.047362 0.015794 0.019576 0.029605 
0.06035 0.044402 0.030756 0.022864 0.052294 0.011684 0.013986 0.0082312 
0.051636 0.079258 0.026646 0.059035 0.038977 0.020727 0.045718 0.011848 
0.041772 0.055582 0.027796 0.026317 0.046704 0.03092 0.031249 0.012835 
0.047691 0.055418 0.014315 0.023522 0.030756 0.029276 0.019411 0.029769 
0.061172 0.034209 0.019411 0.016288 0.025988 0.010862 0.034044 0.034702 
0.078107 0.036675 0.007738 0.0227 0.01711 0.009711 0.029112 0.050157 
0.047855 0.01152 0.027139 0.024015 0.015465 0.015301 0.007738 0.030263 
0.010204 0.065283 0.040292 0.036839 0.01711 0.010697 0.03651 0.019905 
-0.010183 0.032564 0.042923 0.019083 0.019247 0.037661 0.02122 -0.0040998 
-0.035503 0.041772 0.055911 0.035524 0.036017 0.037826 0.007738 0.029769 
-0.088937 0.059035 0.06035 0.029934 0.055089 0.020069 0.025495 0.0098754 
-0.083347 0.054596 0.052952 0.04358 0.026481 0.046046 0.026317 0.035195 
0.010533 0.061501 0.023522 0.038483 0.047855 0.03947 0.034537 0.028783 
0.075148 0.069064 0.0067515 0.040292 0.021878 0.042265 0.025495 0.019083 
0.11428 0.029112 0.0026412 0.044238 0.03947 0.038155 0.024508 0.0052718 
0.097344 0.023522 0.015794 0.056733 0.013492 0.012013 0.037004 0.016616 
0.082382 0.010369 0.0093821 0.01974 -0.0013048 0.0026412 0.03092 0.026974 
0.082875 0.01974 0.010369 0.047197 0.016945 0.0085601 0.01267 0.034866 
0.084355 0.039963 0.022864 0.027632 0.017438 0.031578 0.024508 0.055911 
0.08978 0.043416 0.024015 0.058871 0.026646 0.021713 0.01974 0.022864 
0.075476 0.04095 0.021878 0.024508 0.03388 0.017767 0.01826 0.046704 
0.066598 0.071531 0.01711 0.053774 0.040785 0.039963 0.042923 0.05213 
0.071202 0.063968 0.040785 0.01152 0.026317 0.031085 0.017274 0.047691 
0.074983 0.049828 0.039634 0.042758 0.020891 0.034373 0.036839 0.055582 
0.048841 0.059528 0.04358 0.009711 0.013328 0.049992 0.032236 0.038483 
0.0087245 0.058213 0.014643 0.044238 0.033715 0.017274 0.018096 0.030427 
0.00066819 0.10967 0.0079024 0.012177 0.032729 0.052294 0.034866 0.035031 
0.0092177 0.072846 0.018754 0.022535 0.027796 0.027139 0.025495 0.03388 
0.0023123 0.034866 0.016288 0.015465 0.040785 0.015959 0.014972 0.024344 
-0.006566 0.042758 0.0095465 0.044731 0.02533 0.016452 0.051143 0.0070803 
0.019905 0.022535 0.01711 0.015465 0.025988 0.0092177 0.028783 0.037004 
0.029441 0.021713 0.02681 0.029769 0.043909 0.036182 0.04506 0.018096 
0.03947 0.02122 0.029769 0.035195 0.036839 0.010204 0.034866 0.03092 
0.034702 -0.029913 0.024179 0.042758 0.041936 0.013164 0.022864 0.037332 
0.025495 -0.0088678 0.0227 0.018918 0.038648 0.0227 0.028125 0.029112 
0.03799 0.026481 0.023357 0.015465 0.052952 0.018754 0.032236 0.038319 
0.024015 0.028947 0.020069 0.025988 0.05213 0.037332 0.01152 0.037168 
0.037168 0.046704 0.038977 0.050486 0.055582 0.0042853 0.053609 0.04506 
0.039634 0.030592 0.028619 0.027961 0.020891 0.026974 0.032729 0.023522 
0.038648 0.062488 0.021056 0.018589 0.030098 0.016945 0.051965 0.035853 
0.03388 0.059857 0.0069159 0.01004 0.014479 0.016288 0.057062 0.016781 
0.021056 0.0072447 -0.0054151 0.027468 0.019576 0.032236 0.030098 0.024015 
0.016945 0.013986 0.0059294 0.023193 0.014643 0.016288 0.012013 0.020727 
0.025988 0.03947 -0.0036066 0.048841 0.021056 0.007738 0.037497 0.010862 
0.047691 0.037497 0.026974 0.030756 0.033387 0.027303 0.0227 0.028125 
0.049499 0.067256 0.052294 0.041607 0.038319 0.0036276 0.022371 0.046211 
0.026974 0.10589 0.047362 0.021384 0.035195 0.029276 0.037168 0.029441 
0.010369 0.084684 0.013492 0.013821 0.02829 0.017767 0.023357 0.029276 
-0.0026201 0.065776 -0.0040998 0.020727 0.017274 -0.013471 0.020891 0.018918 
-0.016102 0.046211 -0.023829 0.0067515 0.017438 0.010533 0.034209 0.037826 
-0.0073881 0.010697 -0.011498 -0.0087034 0.026974 0.037004 0.029441 0.046046 
0.012177 0.021878 -0.00064712 -0.012649 0.024673 0.025495 0.039799 0.025495 
0.028619 0.023193 0.010204 0.0069159 0.019905 0.019576 0.038155 0.025166 
0.031907 0.024673 0.040292 0.00297 0.015465 0.020398 0.030098 0.026974 
0.024673 0.05624 0.066927 0.023357 0.024015 0.025001 0.036182 0.049992 
0.022371 0.037004 0.095371 0.039634 0.0065871 0.013492 0.017767 0.030756 
0.033551 0.042758 0.079587 0.040128 0.005765 0.029605 0.031578 -0.013307 
0.050814 0.034373 0.066105 0.029441 0.01826 0.023028 0.047855 0.022042 
0.089123 0.0079024 0.04654 0.048019 0.03799 -0.0047575 0.024508 0.038155 
0.1003 0.0032988 0.050814 0.034702 0.031907 0.019576 0.017767 0.011026 
0.081067 0.014972 0.016945 0.050157 0.023028 0.018096 0.030427 0.027303 
0.016288 -0.0016336 0.014643 0.0227 0.029276 0.023193 0.025495 0.037332 
-0.011005 0.039963 0.025001 0.027303 0.031249 0.019905 0.057391 0.031414 
-0.011827 0.047362 0.073832 0.037826 0.041114 0.014643 0.026646 0.025001 
0.016616 0.065118 0.11642 0.07301 0.096028 0.024015 0.016781 0.050321 
0.0227 0.11609 0.099974 0.071859 0.06183 0.030592 0.025659 0.023522 
0.027632 0.10047 0.12102 0.083697 0.053774 0.028783 0.027796 0.018589 
0.0092177 0.073504 0.039305 0.085835 0.057227 0.018754 0.023193 0.024508 
0.0046141 0.056733 0.00083261 0.083533 0.061995 0.017603 0.040456 0.0082312 
-0.019061 0.014972 -0.062796 0.024179 0.045718 0.04506 0.013164 0.018589 
-0.017746 0.019411 -0.043066 -0.00015387 0.037004 0.02122 0.011026 0.032564 
0.0060938 0.0060938 -0.018897 -0.072825 0.031414 0.015301 0.016781 0.026317 
0.03799 0.011191 0.030592 -0.0054151 0.0074092 0.0047785 0.01563 0.02829 
0.077121 0.068736 0.049006 -0.0138 0.0070803 -0.03057 0.021384 0.027139 
0.078929 0.07038 0.086328 0.020727 -0.0032777 0.034209 0.01974 0.034373 
0.090274 0.099152 0.091425 0.015959 0.0026412 0.037168 0.026481 0.066434 
0.094877 0.13795 0.092904 0.045389 0.0324 0.032564 0.026152 0.044402 
0.098659 0.072846 0.080244 0.047855 0.046375 0.004943 0.0087245 0.0032988 
0.083204 0.079258 0.059035 0.060022 0.021878 0.012013 0.019905 0.0026412 
0.05772 0.11115 0.043087 0.030098 0.021384 0.023686 0.041772 0.022864 
0.0093821 0.087479 0.038648 0.053938 0.020891 0.011191 0.012013 0.022206 
-0.021856 0.040621 0.057227 0.032729 0.052294 0.033551 0.02533 0.041443 
-0.026953 0.0090533 0.035195 0.052623 0.029112 0.014643 0.019576 0.030098 
0.0092177 -0.017746 0.047362 0.030756 0.023851 0.0019835 0.013164 0.028783 
0.0072447 -0.018075 0.04506 0.063474 0.02681 0.05624 0.046046 0.014972 
0.034209 0.0059294 0.060679 0.057227 0.036182 0.032729 0.027468 0.036675 
0.040128 0.015794 0.042265 0.066105 0.026646 0.016781 0.0227 0.033222 
0.035031 0.062981 0.048513 0.024837 0.026646 0.023686 0.039305 0.029112 
0.026152 -0.0027845 0.030592 0.037661 0.045718 0.012342 0.013164 0.032236 
0.0062583 -0.05737 0.021713 0.025988 0.033387 0.033222 -0.0019624 0.03092 
0.012177 -0.086307 -0.008539 0.055418 0.034209 0.00083261 0.026481 0.024015 
0.0085601 -0.025145 0.0041209 0.011191 0.032893 0.019247 0.012013 0.034537 
0.0070803 0.061501 0.019905 0.026317 0.037497 0.025659 0.035688 0.060515 
0.007738 0.11806 0.029441 0.025166 0.029276 0.033551 0.025659 0.046868 
0.040456 0.090767 0.031742 0.022371 0.027961 0.032236 0.033551 0.036182 
0.048841 0.12135 0.037826 0.016452 0.023028 0.0079024 0.018754 0.042429 
0.041772 0.086821 0.023028 0.036839 0.024508 0.014479 0.0046141 0.018754 
0.045882 0.071859 0.018425 0.0036276 0.022042 0.024344 0.015465 0.022535 
0.031907 0.064461 0.016945 -0.0060728 0.052952 0.029769 0.055254 0.037661 
0.024837 0.050486 0.032236 0.0028056 0.035688 0.037168 0.03092 0.0082312 
0.035031 0.04506 0.043909 0.0065871 0.03651 0.0095465 0.0088889 0.028783 
0.019905 0.044402 0.047197 0.0069159 0.036839 0.0090533 0.034373 0.034537 
0.029112 0.031085 0.062323 0.011026 0.039141 0.032729 0.009711 0.029769 
0.033387 0.04917 0.035853 0.019411 0.041443 0.027468 0.0098754 0.047033 
0.03799 0.037004 0.030427 0.024837 0.045224 0.037332 0.030592 0.05772 
0.019411 0.018096 0.021384 0.012506 0.013657 0.019576 0.022042 0.041443 
0.011355 0.028619 0.023851 0.012835 0.0082312 0.016781 0.034866 0.042594 
0.021549 0.024344 0.042265 0.0085601 0.0070803 0.016452 0.022864 0.077778 
0.029276 0.014808 0.041114 0.011684 0.017603 0.026646 0.01415 0.029112 
0.034537 0.031742 0.035688 0.030263 0.017603 0.026481 0.020069 0.0227 
0.023028 0.0085601 0.028947 -0.0011404 0.027632 0.020069 0.025659 0.034209 
0.02122 0.013821 0.038648 0.01415 0.038977 0.02533 0.019083 0.01974 
0.033551 0.051965 0.049992 0.012342 0.0098754 0.023686 0.031085 0.020233 
0.039634 0.024508 0.071531 0.025659 0.012013 0.022535 0.0036276 0.036675 
0.035524 0.043745 0.051801 0.014643 0.022206 0.035524 0.01974 0.023851 
0.05476 0.078436 0.044731 0.030592 0.013657 0.022864 0.057227 0.045882 
0.047526 0.048184 0.045389 0.019576 0.019247 0.011191 0.033058 0.051308 
0.055747 0.077614 0.06183 0.033222 0.0069159 0.024015 0.040128 0.01152 
0.046704 0.057884 0.053281 0.010533 0.025659 0.013328 0.020233 0.037497 
0.031578 0.038155 0.066434 0.052787 0.018589 0.041443 -0.0078813 0.052459 
0.046868 0.073175 0.0421 0.01563 0.036017 0.028783 0.02681 0.036017 
0.038977 0.05624 0.042594 0.047197 0.043251 0.043251 0.032729 0.05213 
0.045389 0.055254 0.063639 0.03388 0.019576 0.024179 0.0065871 0.027796 
0.039799 0.072188 0.078107 0.051472 0.016945 0.0064227 0.023851 0.024508 
0.035688 0.049828 0.071531 0.018425 0.024673 0.037661 0.01267 0.011684 
0.020233 0.048348 0.063639 0.049664 0.033387 0.01826 0.026152 0.022535 
0.04095 0.072517 0.055254 0.029112 0.02829 0.011026 0.04506 0.047691 
0.044238 0.056076 0.058706 0.057062 0.028454 0.025001 0.025001 0.023193 
0.030098 0.062817 0.045224 0.027632 0.034866 0.012835 0.024015 0.028783 
0.03947 0.0592 0.057555 0.040456 0.027961 0.029934 0.030756 0.03092 
0.048184 0.036017 0.056076 0.033387 0.049992 0.029934 0.037826 0.0046141 
0.039305 0.038319 0.06594 0.051472 0.055582 0.025824 0.033222 0.040456 
0.040292 0.031249 0.049499 0.02681 0.070873 0.038648 0.041607 0.058706 
0.030263 0.023028 0.059035 0.055911 0.051801 0.022371 0.011355 0.018096 
0.029276 0.018096 0.085506 0.028125 0.0324 0.026974 0.058049 0.021878 
0.020891 0.012177 0.066763 0.069558 0.025824 0.019247 0.027961 0.015959 
0.02829 0.027139 0.072517 0.02122 0.032236 -0.00031829 0.020398 -0.0019624 
0.012999 0.061172 0.053774 0.05213 0.022535 0.03536 0.0324 0.022206 
0.022206 0.081231 0.044567 0.039305 0.030427 0.030756 0.015465 0.026974 
0.016781 0.088794 0.049335 0.035524 0.011355 0.028619 0.018096 0.0062583 
0.020069 0.08008 0.054267 0.037004 0.017438 0.021384 0.039634 0.011684 
0.039963 0.068078 0.064132 0.066763 0.013492 0.031249 0.0227 0.021056 
0.048513 0.08156 0.080902 0.032729 0.017603 0.025659 0.04506 0.024837 
0.052952 0.066269 0.062488 0.041278 0.028454 0.017932 0.041443 0.029769 
0.058213 0.030427 0.03388 0.0080668 0.024179 0.027303 0.026646 0.035524 
0.041936 0.056569 0.06035 0.052952 0.02681 0.024673 0.024673 0.057884 
0.047197 0.032236 0.059528 0.032071 0.021878 0.024508 0.016123 0.024508 
0.017603 0.016452 0.057062 0.053116 0.049992 0.020398 0.025166 0.014808 
0.039305 0.01004 0.0592 0.035195 0.016781 0.027303 0.03651 0.011026 
0.032071 -0.022021 0.058706 0.049664 0.016123 0.03799 0.025001 0.014479 
0.012999 -0.0080457 0.049992 0.037497 0.021878 0.020727 0.033222 0.0324 
0.0018191 -0.086471 0.059035 0.045224 0.042923 0.02681 0.035524 0.034373 
-0.021528 -0.081539 0.044731 0.019905 0.020727 0.032071 0.023851 0.024508 
-0.006566 -0.0055795 0.048513 0.053116 0.021713 0.028619 0.012506 0.033387 
0.015465 0.058706 0.048184 0.032893 0.035853 0.025659 0.041607 0.018096 
0.028619 0.11658 0.034373 0.031578 0.048019 0.016781 0.024837 0.015301 
0.015959 0.1179 0.046046 0.018754 0.01826 0.014808 0.060515 0.023028 
0.030263 0.086492 0.052294 0.024508 0.037826 0.022535 0.042758 0.0018191 
0.043087 0.037826 0.056076 0.021878 0.022535 0.0062583 0.021384 0.020233 
0.044896 0.062652 0.048184 0.023851 0.017274 0.015301 0.028619 0.045224 
0.052459 0.0421 0.034209 0.01826 0.025001 0.01826 0.0075736 0.033222 
0.059364 0.063145 0.048841 0.013164 0.016945 0.037168 0.023193 0.017603 
0.028125 0.042594 0.039634 0.037168 0.038977 0.038977 0.029934 0.028454 
0.036675 0.031414 0.027632 0.034044 0.034537 0.018918 0.028454 0.02681 
0.026481 0.051143 0.03651 0.03536 0.031578 -0.0021268 0.027139 0.01415 
0.062817 0.03092 0.053774 0.014972 0.048513 0.018096 0.030592 0.014479 
0.042429 0.010204 0.06742 0.035688 0.03651 0.025166 0.030263 0.0037921 
0.035031 0.041114 0.07449 0.020233 0.040292 0.035853 0.048019 0.014643 
0.020562 0.048841 0.054267 0.016123 0.039963 0.019411 0.032729 0.024015 
-0.063453 0.03092 0.041607 0.013821 0.043087 0.0082312 0.026481 0.03799 
-0.078415 0.045882 0.019411 0.033551 0.031907 0.019576 0.036675 0.027632 
-0.00031829 0.04506 0.024344 0.020891 0.037661 0.009711 0.020562 0.034537 
0.028454 0.057555 0.012506 0.038648 0.047197 0.056569 0.00050378 0.059857 
0.087314 0.05213 0.023193 0.020891 0.033715 0.018425 0.02829 0.028783 
0.08304 0.013657 0.037004 0.072681 0.032071 0.010204 0.026317 0.043909 
0.049992 0.052623 0.040128 0.040621 0.016452 0.024673 0.026481 0.025659 
0.05772 0.052787 0.055747 0.056404 0.01711 0.018589 0.029769 0.023028 
0.03651 0.052623 0.037004 0.026974 0.028454 0.03388 0.028619 0.024179 
0.053938 0.071859 0.035688 0.031742 0.020891 0.016781 0.036839 0.046046 
0.031085 0.053281 0.028454 0.012177 0.027961 0.004943 0.021056 0.022371 
0.022535 0.038483 0.011026 0.034044 0.025166 0.039634 0.01974 0.014808 
0.015959 0.064132 0.018918 0.016781 0.01563 -0.0016336 0.039799 0.023686 
0.0034632 0.039634 0.035031 0.036182 0.014808 0.046375 0.023522 0.026317 
0.017274 0.053445 0.036017 0.013986 0.023193 0.020069 0.01974 0.029276 
0.017603 0.055911 0.02681 0.047033 0.023522 0.0095465 0.053116 0.041607 
0.045389 0.054103 0.027632 0.013821 0.024179 0.023851 0.022535 0.054596 
0.038483 0.083204 0.013986 0.031742 0.023028 0.010862 0.018918 0.038483 
0.03651 0.074983 0.016945 0.00066819 0.03651 0.021713 0.027139 0.027796 
0.034537 0.061501 0.024508 0.031414 0.029769 0.017438 0.014643 0.020069 
0.020891 0.075476 0.015137 0.050157 0.023686 0.012506 0.011684 -0.0040998 
0.029441 0.065776 0.022864 0.038812 0.021056 0.035031 0.020398 0.024508 
0.049664 0.05476 0.009711 0.023686 0.032236 0.011355 0.0069159 0.0088889 
0.023851 0.072517 0.021878 0.044731 0.024673 0.040456 0.041936 0.0227 
0.032236 0.039963 0.041607 0.03536 0.0046141 0.032729 0.042265 0.02533 
0.062817 0.058377 0.016945 0.0421 0.024015 0.010369 0.0074092 0.026317 
0.028947 0.064954 -0.0036066 0.014643 0.038319 0.022371 0.036839 0.028619 
0.041114 0.04506 0.013492 0.044567 0.047033 0.016452 0.023357 0.036346 
0.049006 0.069886 0.024015 0.01267 0.021549 0.045882 0.0052718 0.03092 
0.035524 0.045224 0.026481 0.039141 0.03947 0.021549 0.028454 0.030427 
0.03799 0.022371 0.015465 0.027303 0.050157 0.012013 0.027632 0.055911 
0.043909 0.061666 0.0060938 0.037004 0.036182 0.026317 0.032729 0.029276 
0.045718 0.046375 0.012342 0.0088889 0.044896 -0.0052507 0.039305 0.032893 
0.04095 0.045553 0.020562 0.043251 0.026646 0.030756 0.015137 0.019576 
0.053609 0.062159 0.024344 0.020398 0.038648 0.0227 0.029934 0.0088889 
0.034537 0.054267 0.036839 0.040785 0.031085 0.026646 0.032893 0.0227 
0.03536 0.075148 0.029276 0.017603 0.020233 0.038648 0.035031 0.025988 
0.026481 0.053116 0.030263 0.057391 0.0069159 0.01826 0.019905 0.023522 
0.026317 0.013164 0.020069 0.039634 0.022042 0.022371 0.026481 0.021384 
0.017932 0.017932 -0.0032777 0.03536 0.031414 0.033387 0.022535 0.025988 
0.016945 0.024015 0.021384 0.012013 0.028947 0.018096 0.028947 0.041607 
0.022042 0.009711 0.037332 0.02829 0.029934 0.046704 0.031742 0.044402 
0.035031 0.014315 0.033551 0.018096 0.023193 0.025495 0.0324 0.04506 
0.055418 -0.0022913 0.012999 0.049335 0.02533 0.044567 0.056404 0.064461 
0.045553 -0.0039354 0.022042 0.028619 0.0324 0.030592 0.018918 0.050814 
0.045389 0.0070803 0.012506 0.046046 0.029112 0.0046141 0.011684 0.027139 
0.034373 -0.02498 0.041607 0.020562 0.031907 0.033387 0.013492 -0.0016336 
0.032893 -0.039613 0.044073 0.031742 0.030592 0.028454 -0.00097594 -0.011827 
0.024179 0.00083261 0.026152 0.021713 0.020891 0.026481 0.033222 0.010369 
0.018425 0.0083956 0.028125 0.010369 0.034537 0.035195 0.027632 0.060186 
0.0093821 0.026481 0.011848 0.0095465 0.023028 0.012177 0.033058 0.026317 
0.017603 0.045553 -0.0036066 0.01974 0.0028056 0.043745 0.06331 0.042758 
0.018589 0.061501 -0.0013048 0.018589 0.025495 0.032236 0.028619 0.052294 
0.032236 0.097672 0.0083956 0.036346 0.02681 0.032564 0.033715 0.031414 
0.01974 0.076956 0.017274 0.031907 0.023028 0.03388 0.034537 0.03536 
0.04654 0.069558 0.035031 0.018425 0.0227 0.025001 0.023193 0.036675 
0.024837 0.082217 0.031578 0.021713 0.022371 0.0052718 0.050814 0.031085 
0.0227 0.077121 0.035853 0.020398 0.033715 0.023028 0.028454 0.016452 
0.018918 0.074983 0.027961 0.029769 0.049335 0.024179 0.025824 0.0019835 
0.020398 0.078272 0.022864 0.016616 0.036017 0.021384 0.0324 -0.010019 
0.060515 0.073339 0.0047785 0.010533 0.025824 -0.020048 0.038648 0.0013258 
0.076299 0.065118 0.0088889 0.013164 0.044896 0.039305 0.017603 0.024015 
0.062981 0.01974 -0.0068948 0.0083956 0.041607 -0.0036066 0.033551 0.0088889 
0.045224 -0.0055795 0.0044497 0.0075736 0.037661 0.010533 0.024015 0.017932 
0.023028 -0.004593 0.0032988 0.013492 0.025495 0.041772 0.027632 0.02681 
0.027303 -0.029255 0.032236 0.027139 0.039305 0.027632 0.03799 0.040456 
0.030098 -0.022843 0.048019 0.051965 0.048841 0.043909 0.012999 0.049335 
0.015959 0.044073 0.055418 0.024673 0.034702 0.01563 0.03651 0.049006 
0.0018191 0.051472 0.034866 0.027468 0.027303 0.043087 0.037497 0.009711 
-0.0013048 0.065118 0.043909 0.023357 0.015794 0.014808 0.032893 0.017603 
0.0014903 0.066269 0.037332 0.033058 -0.0024557 0.021713 0.035853 0.020891 
0.021713 0.033715 0.020233 0.018918 0.004943 0.027632 0.024344 0.023357 
0.014972 0.053281 0.022371 0.048019 0.020891 0.03388 0.029276 0.016123 
0.023522 0.019576 0.021549 0.024508 0.016945 0.019083 0.037332 0.032071 
0.023851 0.01974 0.025001 0.061172 0.020891 0.015465 0.021056 0.013164 
-0.0027845 0.034866 0.014972 0.044567 0.0031344 0.0065871 0.047197 0.048348 
-0.0078813 0.056898 0.018425 0.048184 0.016288 0.019576 0.038319 0.035031 
0.031742 0.062323 0.01711 0.009711 0.020233 -0.013636 0.027468 0.016452 
0.10359 0.11905 0.039305 0.039634 0.019083 0.0087245 0.0079024 0.032236 
0.1105 0.11526 0.04095 0.01974 0.020891 0.017438 0.01004 0.039963 
0.11905 0.073997 0.036346 0.046375 0.026481 0.0079024 0.01974 0.046704 
0.090438 0.066927 0.031578 0.020562 0.047197 0.022371 0.031085 0.051636 
0.053281 0.042265 0.034866 0.037826 0.031414 -0.0004827 0.017603 0.031578 
0.016452 0.070708 0.036839 0.018918 0.030427 0.0074092 -0.012814 0.026974 
0.0044497 0.0592 0.026152 0.061995 0.03388 0.024015 0.047855 0.017603 
0.009711 0.04917 0.057227 0.0324 0.037168 0.028454 0.046375 0.023522 
-0.013143 0.040621 0.045718 0.06742 0.0034632 0.024015 0.025495 0.023357 
0.0082312 -0.013143 0.049335 0.034537 0.016452 0.005765 0.061501 0.020727 
-0.0022913 0.0037921 0.01711 0.06183 0.026481 0.018918 0.010369 0.028947 
0.0013258 0.034373 0.014808 0.014643 0.03388 0.0080668 -0.0029489 0.036675 
0.0088889 0.051636 0.0044497 0.041772 0.03388 0.011191 0.022371 0.009711 
0.016781 0.0786 0.030098 0.015465 0.040456 0.009711 0.010697 0.024344 
0.023522 0.098659 0.032893 0.037661 0.049006 0.010697 0.023357 0.040785 
0.015301 0.043251 0.028454 0.033058 0.033387 0.0021479 0.016616 0.043745 
0.036017 0.015137 0.01711 0.058542 0.026974 0.022535 0.026646 0.040621 
0.029441 -0.0091966 0.016288 0.035031 0.035853 0.02533 0.055747 0.058377 
0.048348 -0.012156 0.030427 0.065612 0.021056 0.014315 0.034537 0.052623 
0.077285 0.018425 0.020398 0.024837 0.052952 0.015137 0.025495 0.031085 
0.071366 -0.0077169 -0.037311 0.047691 0.051308 -0.026131 0.036182 0.073339 
0.027468 0.012013 0.022206 0.015959 0.025824 0.021713 0.016945 0.024344 
-0.011334 0.0087245 0.027468 0.019411 0.0083956 0.0051074 0.033551 0.028947 
-0.016595 -0.044381 0.023028 0.026481 0.020891 0.029112 0.023028 0.035524 
-0.001798 -0.052931 0.029605 -0.0052507 0.026974 0.029441 0.0082312 -0.0082102 
-0.0004827 -0.050629 0.047526 0.018754 0.011026 0.0014903 0.0085601 0.028947 
0.013328 0.01711 0.037661 0.011026 0.020069 0.047033 0.020891 0.045718 
0.053938 0.083533 -0.0049219 0.015301 0.019576 0.024837 0.018096 0.021713 
0.05065 0.10474 -0.011827 0.017932 0.024508 0.025824 0.046046 0.039963 
0.07301 0.10951 -0.015938 0.015137 0.020891 0.022535 0.030756 0.040128 
0.079258 0.15982 -0.014951 0.031249 0.030756 0.027632 0.026317 0.032564 
0.075805 0.14617 0.007738 0.034866 0.025824 0.025001 0.046046 0.026481 
0.058213 0.11609 -0.0014692 0.024673 0.027796 0.023522 0.018589 0.037168 
0.0083956 0.10343 -0.014622 0.033222 0.025824 0.012999 0.010533 0.027961 
-0.012814 0.038977 -0.020212 0.0064227 0.02533 0.01826 0.016123 0.01152 
0.033551 0.023193 -0.014787 0.01974 0.018425 0.017767 0.017438 0.033387 
0.041772 0.011355 0.016781 0.026646 0.0060938 0.024673 0.027139 0.032236 
0.025988 -0.038956 0.037497 0.042923 0.0028056 0.011848 0.04506 0.02533 
-0.010183 -0.024487 0.039141 0.035688 0.020233 0.027139 0.025495 0.027796 
-0.041422 -0.0047575 0.018918 0.05624 0.027961 0.024673 0.036346 0.014643 
-0.0042642 0.0044497 0.036017 0.051143 0.036346 0.019247 0.030263 0.012999 
0.020069 0.058871 -0.017253 0.045882 0.044731 0.041607 0.026646 0.028619 
0.0085601 0.053938 -0.0090322 0.033222 0.025495 0.025001 0.045389 0.021384 
0.013164 0.053281 -0.022843 0.029112 0.034209 0.030756 0.029934 0.029769 
0.02533 0.078436 -0.021692 -0.0057439 0.036839 0.022206 0.031249 0.027139 
0.082053 0.038155 -0.0004827 0.0019835 0.047526 0.01267 0.025988 0.030427 
0.08008 0.055418 0.031578 -0.00015387 0.035031 0.041936 0.034044 0.024837 
0.10277 0.096521 0.067091 0.012999 0.027961 0.010369 0.034044 0.025988 
0.068736 0.073175 0.057884 0.0046141 0.021878 0.025659 0.0421 0.020398 
0.038319 0.064296 0.052787 0.050157 0.0324 0.026646 0.020562 0.021713 
0.0090533 -0.012649 0.022042 0.0421 0.030756 0.02533 0.035688 0.026974 
0.032236 0.049006 0.02122 0.061337 0.040785 0.052459 0.030263 0.023193 
0.037168 0.11444 0.019247 0.024015 0.046704 0.022042 0.031742 0.013492 
0.065447 0.13039 -0.0087034 0.053116 0.036346 0.042758 0.055911 0.019905 
0.068078 0.18383 0.0034632 -0.00031829 0.027632 0.036839 0.031414 0.024508 
0.070708 0.23759 0.0016547 0.032893 0.024179 0.016123 0.02533 0.029112 
0.054925 0.15834 0.0072447 0.018918 -0.0040998 0.051308 0.051143 0.042594 
0.060844 0.070873 0.017603 0.044731 0.02122 0.036017 0.039963 0.050814 
0.035688 -0.011992 0.055747 0.047691 0.005765 0.020891 0.0421 0.076299 
-0.0072237 -0.092061 0.025001 0.045224 0.031578 0.035195 0.016288 0.033222 
-0.017746 -0.12807 0.031907 0.021384 0.013657 0.0039565 0.057884 0.024179 
-0.0087034 -0.11294 0.024837 0.035688 0.016945 0.022864 0.026481 0.024673 
0.026152 -0.083183 0.011355 -0.0062372 0.0065871 0.013492 0.026646 0.012013 
0.052294 0.043909 0.028454 0.051801 0.02829 0.01267 0.033387 0.044238 
0.067256 0.095535 0.056404 0.020069 0.031249 0.050157 0.05624 0.038648 
0.07301 0.088958 0.054267 0.051143 0.015959 0.030592 0.027961 0.023851 
0.068242 0.10507 0.059693 0.0065871 0.0044497 0.040456 0.030592 0.021713 
0.035031 0.049992 0.016452 0.043251 0.025659 0.017274 0.041443 0.016452 
0.015137 0.039141 0.029934 0.013986 0.034209 0.018096 0.033222 0.038648 
-0.048163 0.078929 0.025166 0.043745 0.03388 0.033715 0.0059294 0.043745 
-0.073647 0.10935 0.028454 0.0037921 0.017438 0.018589 0.01826 0.012342 
-0.11196 0.14058 0.028454 0.031578 0.022042 0.028454 0.017932 0.004943 
-0.028926 0.10441 0.034373 0.016123 0.029934 0.026646 0.023193 0.033551 
0.034209 -0.0029489 0.042923 0.034537 0.035688 0.0070803 0.023851 0.019247 
0.077943 -0.046025 0.055911 0.0018191 0.037661 0.031742 0.024837 0.030098 
0.05476 -0.091075 0.063968 0.039799 0.030756 0.012999 0.044896 0.049006 
0.044896 -0.059672 0.061337 0.026974 0.019411 0.017274 0.020562 0.016452 
0.039305 0.004943 0.04358 0.021713 0.029605 0.024673 0.044238 0.035853 
0.055089 0.048677 0.017274 0.020727 0.039963 0.025824 0.050814 0.033058 
0.06594 0.047033 -0.0034422 0.016452 0.041114 0.043745 0.014479 0.005765 
0.048513 0.10507 0.019411 0.0227 0.033551 0.016123 0.016616 0.022371 
0.049992 0.099316 0.035688 0.030427 0.046868 0.019083 0.04095 0.0324 
0.021384 0.10918 0.020562 0.026974 0.038483 0.020891 0.01563 0.018425 
-0.0031133 0.087314 0.02829 0.027796 0.036839 -0.010183 -0.0044286 0.022206 
0.0036276 0.0021479 0.017438 0.014315 0.036017 0.023851 0.024179 0.021878 
0.0018191 -0.019226 0.034044 0.037168 0.053774 0.0037921 0.029276 0.065283 
0.01974 -0.064933 0.015959 0.015959 0.033715 0.018918 0.041607 0.028947 
-0.013965 -0.033037 0.029276 0.031907 0.007738 0.0044497 0.040292 0.022371 
-0.028597 0.024673 0.013164 0.026646 0.0074092 0.0011614 0.020398 0.033551 
-0.020212 0.03651 0.031742 0.026646 -0.009361 0.018918 0.055911 0.027303 
0.055254 0.052952 0.023851 0.034866 0.028619 0.0090533 0.024344 0.03799 
0.065283 0.093891 0.024344 0.020398 0.032729 0.037497 0.028125 0.048841 
0.058871 0.074326 0.043251 0.025824 0.013657 0.029605 0.038812 0.023686 
0.039305 0.066105 0.054925 0.026974 0.023686 0.024015 0.019576 0.040456 
0.020233 0.058706 0.033387 0.019247 0.0090533 0.020727 0.020233 0.034866 
0.016781 0.029934 0.043416 0.024673 0.01415 1.0539e-005 0.021384 0.035031 
0.0072447 0.048184 0.0324 0.028454 0.033551 0.040292 0.056404 0.062981 
0.024015 0.038319 0.0039565 0.010697 0.027139 0.012342 0.038155 0.043087 
0.078436 0.072681 -0.0050863 0.049992 0.046868 -0.0090322 0.043745 0.03799 
0.073504 0.080573 -0.0055795 0.019083 0.011848 0.031414 0.012999 0.025824 
0.05065 0.053774 -0.03205 0.0036276 0.023193 0.016452 0.029276 0.049335 
0.052952 0.1128 0.0013258 0.018589 0.0036276 0.020562 0.012013 0.0079024 
0.024673 0.16574 0.038483 0.05772 0.0074092 -0.00081153 0.016781 0.010369 
0.046868 0.11855 0.041443 0.033551 0.025988 -0.0042642 0.028454 0.039305 
0.049992 0.064625 0.03947 0.059035 0.035853 0.031907 0.015301 0.037826 
0.040456 0.030592 0.058706 0.049664 0.03092 0.00033937 0.013986 0.025824 
0.059364 0.0023123 0.060515 0.046046 0.035031 0.034866 0.023522 0.0324 
0.036675 0.061337 0.048348 0.010533 0.020398 0.036182 0.015137 0.028619 
0.073339 0.061501 0.033715 0.028783 0.030756 0.026974 0.032071 0.019247 
0.067585 0.048184 0.021549 0.0093821 0.038319 0.016123 0.025166 0.047197 
0.075148 0.06035 0.044073 0.043745 0.035031 0.018096 0.013986 0.027961 
0.04506 0.041114 0.055582 0.02122 0.038648 0.021713 0.028125 0.013328 
0.019247 0.0067515 0.055089 0.049664 0.052294 0.020398 0.020891 0.028619 
-0.021856 0.017767 0.040621 0.02681 0.0421 0.012835 0.013328 0.016616 
0.0056006 -0.003771 0.036182 0.057884 0.048348 0.028619 0.03651 0.032071 
0.031085 0.053938 0.019905 0.043745 0.042429 0.024837 0.018425 0.016452 
0.044402 0.092247 -0.012814 0.05065 0.03092 0.018918 0.020069 0.014972 
0.072681 0.078272 -0.036983 0.0034632 0.039305 0.010862 0.040785 0.033222 
0.063803 0.064625 -0.020706 0.036182 0.04917 0.019576 0.028619 0.023851 
0.02829 0.022042 0.01267 0.014643 0.057555 0.023193 0.022864 0.010369 
0.027961 -0.0050863 0.030427 0.073504 0.024015 0.022042 0.032071 0.018754 
0.034209 0.028783 0.032564 0.034702 0.0421 0.022371 0.045718 0.048841 
0.023522 0.0079024 0.012342 0.05213 0.045718 0.042429 0.041607 0.034866 
0.022371 0.040621 0.02122 0.028947 0.044238 0.026317 0.024837 0.029112 
0.043251 0.14502 0.058213 0.049828 0.019411 0.029276 0.0085601 0.028125 
0.054925 0.18761 0.082711 -0.0073881 0.016452 0.025166 0.029441 0.038155 
0.068736 0.20388 0.056898 0.055254 0.033222 0.014315 0.0227 0.028947 
0.059857 0.18646 0.059035 0.029605 0.030427 0.044402 0.02533 0.012342 
0.043251 0.11214 0.029441 0.043745 0.013492 0.021713 0.038155 0.009711 
0.022864 0.041936 0.031085 0.01974 0.028454 0.028619 0.017438 0.0011614 
0.023028 -0.066413 0.039141 0.051636 0.020069 0.031249 0.028125 0.016123 
0.020233 -0.16161 0.026646 0.019576 0.031907 0.012999 0.038319 0.030592 
-0.0059084 -0.14895 0.023193 0.03799 0.014972 0.030427 0.031249 0.0041209 
-0.006566 -0.15059 0.036017 0.018425 0.013821 0.0032988 0.032729 0.015137 
-0.021363 -0.12363 0.034044 0.048184 0.017274 0.035195 0.032564 0.03947 
0.011848 -0.071509 0.030263 0.014479 0.025001 0.020891 0.023686 0.007738 
0.027632 -0.093541 0.04506 0.0227 0.027303 0.014479 0.048348 0.033387 
0.030427 -0.085649 0.092247 0.016945 0.029112 0.033387 0.018589 0.027303 
0.015959 -0.12001 0.050321 0.056076 0.037497 0.014972 -0.006566 0.014479 
0.01711 -0.10258 0.011684 0.019411 0.03388 0.027468 0.052952 0.039141 
0.012506 -0.025802 -0.004593 0.033387 0.015959 0.026481 0.027632 0.056898 
0.0036276 0.094713 -0.010676 0.023193 0.01267 0.013492 0.017438 0.026646 
0.0087245 0.14601 0.021056 0.023028 0.02122 0.046375 0.0227 0.020233 
0.036346 0.20816 0.029276 0.014315 0.015465 0.01267 0.0085601 0.039634 
0.060515 0.21095 0.021878 0.027468 0.012177 0.021056 0.020069 0.029769 
0.044073 0.17265 0.03092 0.019083 0.026974 0.0069159 0.024179 0.023357 
0.041772 0.14371 0.029441 -0.017746 0.021878 0.013492 0.036182 0.041443 
0.034209 0.087972 0.040128 0.0082312 0.033222 0.021056 0.034537 0.02533 
0.014315 0.059528 0.062488 -0.0016336 0.042758 0.016288 0.026974 0.02829 
0.017932 0.020891 0.049664 0.010369 0.051965 0.039141 0.020562 0.047197 
-0.0011404 -0.019884 0.059035 0.033387 0.067913 0.0037921 0.04095 0.025166 
0.021384 -0.018239 0.036017 0.015137 0.03799 0.012835 0.025988 0.025659 
0.023851 -0.026624 0.043087 0.012177 0.041114 0.025001 0.015465 0.040292 
0.034866 -0.024652 0.026317 0.017767 0.019905 0.020891 0.030592 0.030756 
0.048348 -0.012978 0.031742 0.026152 0.041607 0.036017 0.0227 0.025988 
0.026152 -0.027282 0.04917 0.048348 0.03799 0.035031 0.020727 0.032236 
0.026152 -0.028433 0.021878 0.041607 0.022206 0.031742 0.033058 0.02829 
0.018589 0.016945 0.036182 -0.00031829 -0.014787 0.016123 0.0072447 0.015137 
-0.0022913 0.01974 0.0090533 0.0051074 -0.0083746 0.011191 0.033551 0.028619 
0.01563 0.029441 0.0092177 0.01711 0.012013 0.038977 0.029769 0.010533 
0.00017495 0.030427 0.025988 0.00017495 0.01004 0.020562 0.025659 0.020398 
0.02681 0.037168 0.019411 0.037826 0.041114 0.016781 0.038812 0.038977 
0.049664 0.088465 0.029605 0.012013 0.037661 0.020562 0.022042 0.038648 
0.063474 0.080738 0.046211 0.034044 0.027468 0.019576 0.0072447 0.020069 
0.031578 0.09422 0.042758 0.020398 0.029605 0.036017 0.035524 0.03651 
0.029276 0.10474 0.037826 0.035524 0.01974 0.04095 0.032893 0.0054362 
0.026646 0.10277 0.045718 0.015959 0.028454 0.0011614 0.020562 0.025824 
0.032071 0.10967 0.055089 0.045389 0.037826 0.015301 0.047691 0.026317 
0.032564 0.10836 0.053774 0.031742 0.013492 -0.0016336 0.019247 0.026152 
0.028947 0.1054 0.041772 0.029934 -0.0026201 0.026317 0.02122 0.023686 
0.022535 0.11822 0.045553 0.030756 0.023522 0.023851 0.022864 0.031249 
0.033715 0.12644 0.0786 0.047526 0.025166 0.021878 0.046375 0.03799 
0.019576 0.10425 0.046704 0.025001 0.020398 0.032236 0.057884 0.023522 
0.01563 0.12825 0.063145 0.047526 0.021384 0.013164 0.024015 0.021878 
0.027468 0.12332 0.082053 0.0056006 0.021384 0.017603 0.01152 0.046046 
0.036182 0.12924 0.081889 0.029605 0.0324 0.021384 0.028783 0.020727 
-0.00031829 0.15653 0.012342 0.014643 -0.0032777 0.04654 0.011848 0.018589 
0.043416 0.14437 0.046704 0.045389 0.042758 0.017932 0.027632 0.04654 
0.074654 0.088958 0.037497 0.036839 0.067091 0.048677 0.0079024 0.037661 
0.052623 0.10918 0.01415 0.054925 0.048348 0.02681 0.021056 0.037004 
0.077614 0.081067 0.015301 0.0056006 0.04095 0.024015 -0.0062372 0.049335 
0.063803 0.063803 0.03536 0.054925 0.027961 0.016452 0.025495 0.025166 
0.061172 0.059693 0.038483 0.0082312 0.037332 0.020727 -0.0024557 0.024837 
0.044896 0.060844 0.028125 0.046375 0.037661 0.0087245 0.027139 0.033551 
0.036839 0.089452 0.022371 0.034702 0.043251 0.0052718 0.043745 0.042594 
0.030427 0.079751 0.022371 0.047033 0.039305 0.020727 0.026974 0.024179 
0.032893 0.066269 0.05065 0.042594 0.025166 0.0062583 0.051143 0.035031 
0.021713 0.049992 0.034044 0.048677 0.033551 0.037826 0.020562 0.016945 
0.044238 -0.0040998 0.053281 0.020398 0.009711 0.022371 0.015794 0.038648 
0.072353 -0.023994 0.034866 0.050979 0.03388 0.027303 0.029769 0.033387 
0.063639 -0.028433 0.061172 0.016123 0.018589 0.012177 0.028125 0.023522 
0.026646 -0.063782 0.053938 0.052952 0.015137 0.019083 0.023851 0.016616 
-0.01232 -0.076442 0.046046 0.042923 0.015959 0.041607 0.04506 0.043087 
-0.031886 -0.056219 0.076956 0.058377 0.031249 0.010204 0.024179 0.0082312 
-0.020212 0.0052718 0.1003 0.017603 0.047362 0.015301 0.03947 0.050157 
0.012342 0.11428 0.098659 0.022042 0.037168 0.010369 0.033387 0.069229 
0.047691 0.1322 0.10441 -0.00064712 0.011355 -0.0034422 0.033715 0.028783 
0.026646 0.14469 0.049499 0.047362 0.0052718 0.022535 0.037497 -0.01117 
0.065118 0.16492 0.06479 0.01974 0.037004 0.01826 0.016452 -0.010019 
0.061008 0.13483 0.049664 0.06183 0.015301 0.04358 -0.0078813 0.012177 
0.037661 0.12316 0.029934 0.031249 0.022864 0.023686 0.027468 0.032236 
0.024673 0.12365 0.030592 0.064296 0.03092 0.010533 0.030592 0.044402 
0.020562 0.031907 0.05065 0.0088889 0.020398 0.046868 0.028947 0.041936 
0.018425 -0.039942 0.06331 0.011026 0.016781 0.01267 0.035524 0.040128 
0.0011614 -0.11409 0.041772 0.0098754 0.022206 0.015794 0.023851 0.030098 
-0.0011404 -0.18463 0.023193 0.0013258 0.036017 0.021549 0.037826 0.034866 
0.0098754 -0.16391 0.025824 -0.0062372 0.031578 0.01563 0.031907 0.019411 
0.0014903 -0.14846 0.020891 0.03388 0.024015 0.039799 0.011026 0.0044497 
-0.015444 -0.19087 0.0019835 0.0098754 0.021713 0.0067515 0.025495 0.013657 
0.0064227 -0.20353 -0.0096899 0.015959 0.026974 -0.0016336 0.0079024 0.00066819 
0.037497 -0.21356 1.0539e-005 0.012177 0.023522 0.0064227 0.00099702 0.010862 
0.047033 -0.065426 0.033058 0.007738 0.03651 0.014972 0.027632 0.034866 
0.029605 0.13467 0.065776 0.027303 0.042594 0.045718 0.027139 0.033387 
0.027468 0.22394 0.089945 0.023357 0.036017 0.041772 0.026974 0.027632 
0.047362 0.25436 0.10819 0.02829 0.030427 0.022371 0.04654 0.041443 
0.078929 0.23529 0.10063 0.034209 0.033222 0.035688 0.021549 0.020891 
0.11148 0.16377 0.077285 0.040128 0.018589 0.018425 0.0042853 0.050979 
0.098166 0.14617 0.12497 0.043416 0.059857 0.051308 0.031414 0.048019 
0.094548 0.065447 0.10819 0.028454 0.027468 0.015794 -0.0021268 0.014808 
0.032236 0.056076 0.071695 0.022042 0.023851 0.016616 0.033551 0.045553 
0.034209 0.044731 0.076299 0.023028 0.030427 0.026152 0.03092 0.036675 
0.0041209 -0.030242 0.072681 0.013328 0.010204 0.027632 0.0083956 0.01004 
0.010697 -0.06855 0.080244 0.022864 0.0093821 0.037004 0.041114 0.020891 
-0.0098543 -0.089595 0.068078 0.022206 0.018096 0.016945 0.029769 0.027632 
-0.060823 -0.15026 0.047526 0.021549 0.015794 0.016288 0.015794 0.0065871 
-0.07825 -0.18282 0.045224 0.01711 0.005765 0.016288 0.0227 -0.011498 
-0.028433 -0.10357 0.058871 0.016781 0.023028 0.0039565 0.028947 0.01415 
0.040456 -0.01939 0.053445 0.029441 0.0092177 0.038319 0.0072447 0.02533 
0.088136 0.081395 0.050814 0.027303 0.03388 0.023193 0.029276 0.037826 
0.10047 0.085835 0.055747 0.019083 0.027632 0.025166 0.0093821 0.044073 
0.037332 0.046211 0.051636 0.038319 0.02122 0.018754 0.02533 0.029934 
0.0014903 0.067585 0.043087 0.026481 0.014643 0.029605 0.01415 0.014479 
0.01267 0.099152 0.050486 0.044731 0.01711 0.045389 0.025495 0.030098 
0.05065 0.15292 0.038812 0.023686 0.023522 0.044567 0.035688 -0.0067304 
0.073175 0.17824 0.049992 0.038648 0.024015 0.028947 0.023193 0.024508 
0.05213 0.13845 0.056569 0.041114 0.030592 0.036017 0.025988 0.025495 
0.033551 0.13516 0.049828 0.060186 0.024837 0.025166 0.046868 0.0227 
0.041278 0.15867 0.082053 0.03651 0.032236 0.019411 0.017274 0.04095 
0.047197 0.096357 0.067749 0.055747 0.022371 0.024179 0.024344 0.041936 
0.031578 0.086821 0.024015 0.053774 0.01004 0.021878 0.048348 0.022206 
0.042265 0.054596 0.022042 0.042923 0.027468 0.016945 0.016288 0.01152 
0.036346 0.055582 0.034866 0.022042 0.036675 -0.012156 0.018096 0.036675 
0.044238 0.1276 0.02533 0.038812 0.040621 0.018754 0.02681 0.019083 
0.044402 0.13319 0.038483 0.011026 0.047526 -0.004593 0.020727 0.028783 
0.031249 0.1248 0.024344 0.046046 0.038155 0.024673 0.052459 0.030263 
0.041936 0.13351 0.027632 0.03092 0.021056 0.0324 0.049006 0.057227 
0.025988 0.074983 0.026646 0.048019 0.043909 0.012342 0.026974 0.039799 
0.016945 0.053281 0.020398 0.053445 0.020891 0.027139 0.047691 0.02681 
0.0062583 0.04917 0.04358 0.055911 0.044238 0.02681 0.025988 0.02829 
0.025001 0.034044 0.031414 0.049992 0.027303 0.030756 0.024508 0.018918 
0.041278 0.052623 0.011848 0.043745 0.031907 0.025166 0.033715 0.031907 
0.038483 0.052623 0.0087245 0.032564 0.037497 0.0023123 0.023686 0.03947 
0.044073 0.059693 0.0069159 0.0592 0.044073 0.026317 0.0075736 0.037661 
0.039634 0.11674 0.01826 0.01826 0.035195 -0.0013048 0.043251 0.027303 
0.023522 0.12677 0.026974 0.046211 0.024179 -0.0022913 0.027468 0.013986 
-0.0057439 0.054267 0.0051074 0.018918 0.019905 0.009711 0.035195 0.0087245 
-0.047505 -0.061316 -0.025638 0.050814 0.025988 0.017932 0.0031344 0.022371 
-0.001798 -0.055561 0.010204 0.018425 0.021713 0.025824 0.024179 0.039305 
0.047197 -0.003771 0.040456 0.072517 -0.0068948 0.012506 0.052623 0.030427 
0.038648 0.082217 0.014315 0.015137 0.035853 0.01267 0.033387 0.048677 
0.042594 0.14963 0.045224 0.041278 0.024179 0.025659 0.009711 0.03388 
0.047033 0.22608 0.013328 0.023028 0.012835 0.0085601 0.034537 0.023851 
0.044238 0.2172 -0.022679 0.03536 0.027303 0.0085601 0.020069 0.01267 
0.050979 0.11888 -0.0026201 0.019905 0.01974 0.012835 0.023028 0.041114 
0.066598 0.055254 0.014315 0.019576 0.023028 0.015794 0.049664 0.035524 
0.067913 -0.030735 0.022864 0.020398 0.015959 0.024837 0.016945 0.031249 
0.056404 -0.060658 0.029769 0.030427 0.022042 -0.00081153 0.043251 0.037826 
0.059693 -0.073318 0.012013 0.024344 0.036182 0.017438 0.028783 0.031085 
0.024508 -0.073647 0.012999 0.031085 0.018096 0.038155 0.019905 0.021713 
0.041936 -0.067728 0.00297 0.027303 0.033058 0.005765 0.06479 0.038483 
0.049664 -0.030077 0.00050378 0.021713 0.022864 0.032729 0.02533 0.0227 
-0.04619 -0.049807 0.017932 0.0026412 0.024344 0.016616 0.028454 0.0088889 
-0.084334 -0.023007 0.0074092 0.0069159 0.030427 0.025988 0.045553 0.024837 
-0.035174 0.0095465 -0.006566 0.015137 0.02681 0.033058 0.019576 0.014315 
0.036346 0.034537 -0.0004827 0.0082312 0.026481 0.0016547 0.034209 0.028619 
0.052294 0.12349 0.0036276 0.01152 0.018918 0.0032988 0.030592 0.025824 
0.086657 0.15555 0.029934 0.013657 0.02533 0.017932 0.023028 0.0036276 
0.073997 0.11691 0.063145 0.031907 0.041607 0.020562 0.0421 0.007738 
0.067913 0.075805 0.059364 0.021549 0.038483 0.023193 0.042758 0.030263 
0.057555 0.026481 0.067256 0.025001 0.045553 0.016781 0.0098754 0.041772 
0.012177 -0.014951 0.03799 0.021056 0.042265 0.03799 0.034209 0.030756 
0.0051074 -0.032215 0.020891 0.020069 0.055254 0.0227 0.012835 0.03536 
0.012013 -0.046025 0.032564 0.007738 0.036182 0.032236 0.026317 0.035688 
0.014479 -0.037969 0.029112 0.013821 0.048513 0.018754 0.046375 0.04095 
0.023686 -0.011005 0.033222 0.018754 0.028783 0.027796 0.024344 0.03651 
0.030263 -0.022843 0.030756 0.024673 -0.0059084 0.050979 -0.0026201 0.027961 
0.031085 -0.016431 0.037826 0.01415 0.018425 0.018425 0.034209 0.016452 
0.027468 -0.08121 0.028783 0.02122 0.015959 0.032893 0.02829 0.034702 
0.042758 -0.06444 0.061008 0.0227 0.012506 0.019576 0.026481 0.036675 
0.030756 0.0019835 0.067091 0.034537 0.0014903 0.013328 0.027139 0.015959 
0.032071 0.025166 0.046868 0.020069 0.018918 0.031414 0.011026 0.023357 
0.027961 0.046046 0.014808 0.030263 0.015794 0.035853 0.025001 0.03799 
0.036182 0.062981 0.022535 0.015794 0.0085601 0.057555 0.0064227 0.01004 
0.015301 0.069229 0.013657 0.022371 0.015137 0.035853 0.0095465 0.027961 
0.0064227 0.09126 0.027468 0.038155 0.024837 0.016288 0.034209 0.040456 
0.031907 0.10047 0.033222 0.046868 0.014315 0.031907 0.015959 0.023193 
0.030263 0.072188 0.048513 0.024837 0.023851 0.023357 0.026481 0.012013 
0.029605 0.10129 0.026152 0.031414 0.016123 0.040128 0.040785 0.041607 
0.043909 0.12595 0.039141 0.037661 0.028783 0.028783 0.021056 0.035031 
0.03947 0.10408 0.031907 0.031414 0.012506 0.041772 0.016616 0.031414 
0.02829 0.13236 0.016123 0.019905 0.020398 0.076956 0.049664 0.0227 
0.043909 0.11543 0.023686 0.034866 0.0082312 0.018918 0.0085601 0.01415 
0.016616 0.087314 0.0028056 0.051801 0.0227 0.0421 0.038483 0.0054362 
0.025824 0.091589 0.018754 0.034702 0.012506 0.029769 0.019576 0.017603 
0.01563 0.027632 0.012835 0.004943 0.0075736 0.018918 0.016452 0.02533 
0.030592 -0.0014692 0.032071 0.043087 0.020727 0.029441 0.025988 0.032564 
0.0324 -0.016266 0.016616 0.016781 0.0062583 0.013164 0.044238 0.048677 
0.030756 0.023686 0.023028 0.050157 0.013164 0.03536 0.021713 0.044238 
0.043251 0.07301 0.040292 0.010697 0.050814 0.043909 0.024179 0.034866 
0.042758 0.072188 0.0067515 0.05213 0.038483 0.03536 0.010533 0.05065 
0.054267 0.095864 -0.0062372 0.035195 0.040621 0.037332 0.010697 0.029769 
0.041772 0.094548 0.03536 0.06331 0.037004 0.010204 0.0037921 0.0046141 
0.031085 0.074819 0.048677 0.01974 0.047362 0.01711 0.0227 0.043251 
0.030098 0.049992 0.062323 0.059364 0.033715 0.045718 0.0036276 0.034209 
0.042429 0.046375 0.063639 0.021878 0.046704 0.031085 0.017932 0.027468 
0.0592 0.039634 0.052459 0.043909 0.027468 0.048184 0.012506 0.027632 
0.039141 0.067585 0.056733 0.049335 0.038812 0.030098 0.037497 0.0082312 
0.022864 0.075641 0.051636 0.0786 0.056569 0.041607 0.033715 0.0011614 
0.033058 0.079916 0.021056 0.031249 0.025659 0.034044 0.020891 0.033715 
0.025659 0.085341 0.0062583 0.027303 0.0064227 0.027303 0.052459 0.038483 
0.018754 0.064296 -0.018733 0.0092177 0.021549 0.033387 0.026152 0.021384 
0.039799 0.059364 -0.034188 0.024508 0.026974 0.025001 0.027468 0.025495 
0.038648 0.051472 -0.02087 0.016945 0.028125 0.020562 0.042594 0.053445 
0.029441 0.027139 -0.0055795 0.033551 0.029441 0.038155 0.044731 0.037332 
0.061337 0.025988 0.013492 0.024837 0.016123 0.011191 0.025659 0.044402 
0.09274 0.08978 -0.016924 0.046868 0.027632 0.023357 0.030592 0.06742 
0.050814 0.089452 0.012177 0.025659 0.031742 0.02122 0.018754 0.039963 
0.034209 0.10852 0.012177 0.034373 0.035031 0.0016547 0.042594 0.053774 
0.025659 0.091589 0.041278 0.015137 0.025824 0.031085 0.034044 0.029276 
0.024508 0.055254 0.030263 0.032564 0.012013 0.015301 0.012999 0.015465 
0.020398 0.043745 0.027796 0.018918 0.015465 0.024179 0.026481 0.031414 
0.033551 -0.015444 0.03388 0.03651 0.034044 0.031085 0.032893 0.053938 
0.046211 -0.064768 0.03536 0.040128 0.030756 0.028125 0.03947 0.029112 
0.058706 -0.099131 0.047197 0.039141 0.024673 0.025166 0.036182 0.029112 
0.026974 -0.095843 0.068736 0.047197 0.026152 -0.012485 0.035524 0.025824 
0.0023123 -0.092554 0.066927 0.039634 0.033387 0.022042 0.036839 0.019247 
-0.0082102 -0.076771 0.066434 0.061172 0.0064227 -0.023665 0.043745 0.041114 
-0.029255 -0.10209 0.0047785 0.036675 0.028783 0.014315 0.025166 0.032236 
-0.03764 -0.025802 -0.047012 0.019905 0.03536 0.017438 0.053116 0.015794 
-0.0016336 0.10491 -0.056383 0.0021479 0.036675 0.0028056 0.041114 0.036182 
-0.0039354 0.18678 -0.047834 0.017274 0.035688 0.014972 0.017767 0.050979 
0.01267 0.24351 -0.031886 -0.0032777 0.028947 0.0065871 0.047526 0.028125 
0.0085601 0.18103 -0.003771 0.0036276 0.047362 -0.017746 0.032564 0.012999 
0.0065871 0.084026 -0.013143 -0.0075525 0.023028 0.011848 0.022535 0.022535 
0.024508 0.0075736 0.011191 0.01415 0.012999 -0.0088678 0.01004 -0.014458 
0.010204 -0.07414 0.0047785 0.0026412 0.027303 0.018589 0.012177 0.010533 
0.0064227 -0.031886 0.021056 -0.0055795 0.023357 0.00033937 -0.0027845 0.037826 
0.025659 0.058049 0.028619 -0.0022913 0.046375 0.010697 0.030263 0.01711 
0.056404 0.060679 0.039634 0.017438 0.055911 0.0421 0.021384 0.038483 
0.060022 0.052623 0.041772 0.031249 0.056404 0.015465 0.037332 0.050979 
0.056733 0.045224 0.068736 0.047691 0.044731 0.03651 0.036346 0.035195 
0.05624 -0.0050863 0.024179 0.048348 0.037497 0.017767 0.017603 0.036839 
0.052294 -0.008539 0.012342 0.041114 0.028454 0.0080668 0.043251 0.037661 
0.0227 -0.035832 0.0026412 -0.0072237 0.046046 0.018754 0.0079024 0.025988 
0.0036276 -0.05441 -0.001798 0.027468 0.012013 0.011848 0.013821 0.016616 
0.026152 -0.018075 -0.0070593 -0.00031829 0.010204 0.021056 0.025495 0.030427 
-0.0090322 0.014972 -0.02498 0.032071 0.0069159 0.021056 0.010204 0.013821 
-0.018733 0.088958 -0.019555 0.014972 0.0031344 -0.0052507 0.00099702 0.017767 
-0.027447 0.11378 0.0075736 0.024015 0.01415 0.019083 0.030592 0.019905 
-0.017582 0.055089 0.016452 0.027303 0.0085601 0.0041209 0.0054362 0.011191 
0.017603 0.029276 0.033551 0.046211 0.017438 0.039305 0.017767 0.011026 
0.047855 0.017603 0.043251 0.022371 0.032893 0.017603 0.034373 0.04358 
0.069722 0.024179 0.023357 0.060679 0.043251 0.026646 0.017438 0.047855 
0.061666 0.076463 -0.02498 0.026646 0.047691 0.04506 0.0421 0.038319 
0.029605 0.074326 -0.032872 0.035524 0.026481 0.027468 0.038977 0.029605 
0.013986 0.082053 -0.032379 -0.0026201 0.029934 0.026481 0.023193 0.03092 
0.028619 0.069886 0.004943 0.016452 0.0098754 0.025659 0.042758 0.0085601 
0.027303 0.033387 0.02829 -0.018733 0.027961 0.007738 0.009711 0.014808 
0.045553 0.068407 0.031742 0.031414 0.0092177 0.0088889 0.024508 0.027961 
0.056076 0.099152 0.0054362 -0.0029489 0.01415 0.0064227 0.029441 0.013986 
0.035688 0.03536 -0.057041 0.030098 0.012342 0.020233 0.020233 0.0092177 
0.026974 -0.0096899 -0.063618 0.0075736 0.016945 0.016616 0.011191 0.023851 
-0.00064712 -0.060329 -0.037805 0.038319 0.022864 0.0016547 0.0044497 0.004943 
0.0074092 -0.072989 0.0011614 0.033058 0.034209 0.031578 0.020727 0.010204 
0.025659 0.059857 0.027632 0.072846 0.030263 0.037168 0.029934 0.046704 
0.036675 0.15357 0.046868 0.041278 0.038977 0.034702 0.039963 0.034044 
0.03947 0.11674 0.055254 0.074983 0.074654 0.024837 0.0051074 0.042429 
0.060515 0.16853 0.077449 0.039799 0.055418 0.027139 0.035853 0.046375 
0.058542 0.14963 0.12825 0.055254 0.040621 0.043745 0.027468 0.044731 
0.046868 0.11296 0.075476 0.031742 0.052952 0.013657 0.019411 0.029605 
0.052459 0.038483 0.036675 0.058049 0.068407 0.049006 0.058871 0.02533 
0.040292 -0.080388 0.032729 0.03651 0.04095 0.01267 0.019083 0.025166 
0.029112 -0.14106 0.035853 0.0227 0.035853 0.0031344 0.04358 -0.0004827 
0.015794 -0.1284 0.014643 0.020069 0.032071 0.035524 0.044073 0.030592 
1.0539e-005 -0.13415 0.0088889 0.041607 0.020069 0.014315 0.012013 0.00066819 
-0.0088678 -0.094527 0.01004 0.012177 0.016616 0.03536 0.024015 0.012506 
0.024673 0.020562 0.01974 0.033387 -0.016431 0.019247 0.04917 0.034373 
0.055089 0.17067 0.019411 0.01415 0.0032988 0.036017 0.021878 0.031742 
0.079094 0.28017 0.0093821 0.013821 0.010533 0.037004 0.038812 0.053445 
0.078765 0.23841 0.017274 0.024015 0.010204 0.026646 0.030098 0.054103 
0.067585 0.17659 0.019905 0.036346 0.033058 0.046211 0.028619 0.032236 
0.047362 0.11 0.025001 0.046211 0.020398 0.03536 0.038319 0.037497 
0.053116 0.071037 0.038812 0.041114 0.018918 0.02533 0.011026 0.041114 
0.050486 0.067749 0.067256 0.0070803 0.021384 0.047033 0.021056 0.034044 
0.012342 0.061995 0.065118 0.021713 0.022042 0.019083 0.031085 0.020891 
0.010697 0.045882 0.032729 0.027796 0.025495 0.028619 0.030427 0.016288 
-0.0042642 0.035853 0.044238 0.029934 0.0095465 0.0044497 0.0227 0.018918 
-0.0029489 0.071202 0.039963 0.027961 0.024015 -0.02646 0.025001 0.030098 
0.017767 0.086163 0.064461 0.014479 0.015137 0.017767 0.018589 0.030098 
0.028783 0.10145 0.073339 0.034373 0.032564 0.021549 0.041443 0.023193 
0.017767 0.044896 0.068242 0.034044 0.027796 0.02533 0.032236 0.027632 
0.015959 -0.011992 0.073339 0.045882 0.03651 0.019083 -0.0052507 0.029112 
0.013164 -0.029091 0.056404 0.01826 0.026152 0.015959 0.037332 0.041443 
0.022535 -0.068057 0.073175 0.040785 0.015794 0.040785 0.040785 0.040292 
0.051965 -0.036983 0.073832 0.030756 0.020891 0.015465 0.031249 0.040456 
0.047362 0.031742 0.060844 0.015465 0.031742 0.032236 0.047033 0.051636 
0.035195 0.021549 0.033387 0.01152 0.030427 0.023357 0.018096 0.041607 
0.030592 0.062652 0.040456 0.0065871 0.047691 -0.0016336 0.017274 0.02681 
0.03388 0.078272 0.037497 0.0056006 0.013492 0.028783 0.030098 0.01826 
0.041772 0.10918 0.032564 0.023357 0.026481 0.010533 0.017767 0.0047785 
0.0069159 0.15111 0.019905 0.017932 0.035031 0.019576 0.027961 0.019247 
0.0044497 0.17791 0.035195 0.0421 0.036182 0.022206 0.033715 0.027303 
0.0019835 0.19073 0.052952 0.025824 0.026481 0.01415 0.032071 0.015794 
0.064461 0.19665 0.062323 0.050486 0.045882 0.025988 0.04654 0.035524 
0.086492 0.16426 0.061501 0.028454 0.064296 0.0088889 0.012013 0.050814 
0.071531 0.12562 0.045224 0.042429 0.044073 0.0087245 0.013657 0.035524 
0.055254 0.12184 0.012342 0.053938 0.049335 0.023028 0.035031 0.042758 
0.012835 0.040456 0.031578 0.028125 0.043087 0.013657 0.0031344 0.046375 
-0.039284 -0.026789 0.0088889 -0.0024557 0.083204 0.041443 -0.01939 -0.026789 
-0.0021268 -0.087951 0.0036276 0.033222 0.025824 0.027796 0.029605 -0.0019624 
0.0024767 -0.12494 0.0011614 0.036839 0.024179 0.016452 0.017767 0.036346 
0.013986 -0.10357 0.005765 0.041936 0.023028 0.028783 0.033387 0.024673 
0.017603 -0.08828 0.012013 0.031742 0.044567 -0.010019 0.016781 0.049335 
0.03092 -0.041422 0.012013 0.03799 0.0080668 0.017603 0.016616 0.028619 
0.044073 0.056404 -0.0050863 0.0098754 -0.018568 0.010697 0.047855 0.01826 
0.06331 0.093069 0.019083 0.033715 0.018918 0.0072447 0.01563 0.031085 
0.08156 0.1197 0.027139 0.015137 0.005765 0.026481 0.023193 0.046868 
0.037497 0.18366 0.037661 0.057555 0.030427 0.036839 0.037332 0.039799 
0.011026 0.1761 0.025824 0.041772 0.042265 0.05476 0.043251 0.026317 
0.0056006 0.18251 0.040456 0.054596 0.043745 0.020891 0.021713 0.025495 
0.0039565 0.14831 0.041607 0.031578 0.041278 0.029605 0.039141 0.012013 
0.021713 0.083533 0.03651 0.046211 0.033058 0.029605 0.034866 0.012506 
0.059364 0.065118 0.029769 0.03388 0.043416 0.021384 0.0092177 0.009711 
0.031578 0.038977 0.024508 0.048184 0.019411 0.029441 0.019083 0.04358 
0.013986 0.021713 0.022864 0.0227 0.036346 0.028947 0.018425 0.025001 
0.01711 0.069064 0.020233 0.040785 0.029112 0.034209 0.046704 0.030756 
0.033715 0.078107 0.041607 0.020233 0.013164 0.023193 0.040292 0.013657 
0.033387 0.026152 0.032564 0.062323 0.010533 0.016452 0.01415 0.015301 
0.040128 -0.10176 0.026317 0.024508 0.026317 0.045389 0.034209 0.029605 
0.043087 -0.21998 0.01267 0.062159 0.036839 0.026317 0.007738 0.023522 
0.043745 -0.21011 0.0067515 0.015794 0.02829 0.029605 0.020562 0.026646 
0.044567 -0.15684 -0.011663 0.029276 0.03092 0.039305 0.047362 0.027961 
0.013657 -0.13958 -0.0082102 0.0028056 0.042429 0.019411 0.035524 0.04358 
-0.032379 -0.14188 0.00033937 0.039634 0.049499 0.027796 0.037497 0.056898 
-0.010512 -0.13645 -0.0026201 0.012177 0.03536 0.00066819 0.039634 0.066598 
-0.045368 -0.10341 0.0082312 0.040621 0.035853 0.012177 0.014643 0.019083 
-0.014458 -0.032543 0.017274 0.025166 0.047691 0.033715 0.037004 -0.022021 
0.0080668 0.018918 0.01415 0.048184 0.049828 0.016945 0.039799 0.0031344 
0.010533 0.090931 0.011848 0.028125 0.0324 0.033387 0.032071 0.0072447 
0.041443 0.20734 0.0095465 0.026974 0.031085 0.013821 0.050321 0.017767 
0.044238 0.19649 0.0087245 0.010862 0.026317 0.0079024 0.030427 0.023851 
0.032236 0.14321 0.030098 0.040128 0.03536 0.037168 0.024837 0.05065 
0.038319 0.11526 0.04917 0.033387 0.025495 0.032893 0.048348 0.0227 
0.066434 0.13434 0.068078 0.045882 0.019083 0.041772 0.040128 0.023028 
0.08008 0.15555 0.066105 0.037168 0.017274 0.036017 0.0054362 0.03651 
0.052294 0.09126 0.056733 0.033387 0.014808 0.011355 0.032564 0.033222 
0.021878 -0.0077169 0.027303 -0.00097594 0.0074092 0.0014903 -0.014951 0.043416 
0.026974 -0.026624 0.027303 0.028125 0.040128 0.023357 0.0227 0.031249 
0.034209 -0.074798 0.03799 0.0060938 0.039963 0.029441 0.060022 0.041772 
0.063968 -0.043724 0.032071 0.026152 0.01711 0.023357 0.023193 0.036839 
0.061172 -0.035667 0.034866 0.029934 0.036675 0.022371 0.036346 0.060515 
0.025824 -0.0073881 0.040785 0.026152 0.016288 0.029441 0.034866 0.048184 
0.015794 0.034044 0.04917 0.023357 0.018096 0.0093821 0.048677 0.037332 
0.041772 0.046211 0.047526 0.032893 0.010533 0.033387 0.063639 0.041278 
0.039305 0.034044 0.08863 0.035195 0.025659 0.020398 0.031249 0.0082312 
0.030263 0.039305 0.058049 0.0083956 0.014808 0.013821 0.036182 0.016452 
0.030263 0.027961 0.067091 0.022864 0.026974 0.028619 0.082217 0.029605 
0.017438 0.1026 0.038155 -0.0016336 0.013821 0.0031344 0.035524 0.021384 
0.034702 0.21539 0.029112 0.0093821 0.023522 0.036675 0.0067515 0.034044 
0.037004 0.18218 0.038155 0.016452 0.030592 0.024344 -0.035667 0.03799 
0.031085 0.11609 0.035688 0.042923 0.020891 0.017932 -0.07825 0.013821 
0.048184 0.093562 0.040128 0.010204 0.024837 0.027961 -0.048163 0.044073 
0.045718 0.050486 0.043416 0.041443 0.031414 -0.0027845 0.020069 0.046868 
0.033387 0.044073 0.069886 0.019905 0.028947 0.031085 0.068407 0.040128 
0.027796 0.029934 0.057227 0.034537 0.022206 0.029934 0.073339 0.041278 
0.0021479 0.025495 0.04095 0.0421 0.011684 0.037826 0.050157 0.039799 
0.024015 0.056898 0.059857 0.040456 0.024344 0.039141 0.044567 0.03947 
0.026646 0.090438 0.060844 0.026152 0.04654 0.016945 0.043087 0.038648 
0.037332 0.1105 0.064296 0.049828 0.044402 0.020727 0.026974 0.032729 
0.048348 0.098823 0.046375 0.013986 0.04506 0.0088889 0.0047785 0.025495 
0.040292 0.044402 0.029769 0.046211 0.029112 -0.0049219 0.026974 0.021713 
0.021056 0.0059294 0.036017 -0.015609 0.025001 0.024015 0.021056 0.030756 
0.03947 0.084848 0.035031 0.014972 0.025495 0.024344 0.01004 0.034537 
0.061666 0.090109 0.051636 -0.0019624 0.031578 0.023028 0.037332 0.029769 
0.026974 0.08008 0.055254 0.035524 0.017603 -0.008539 0.049335 0.020727 
0.029934 0.061172 0.080244 0.040621 0.039799 -0.00081153 0.068242 0.039634 
0.058542 0.054925 0.057555 0.055911 0.036675 0.02533 0.043909 0.033715 
0.052787 0.12135 0.071695 0.066763 0.026974 0.05213 0.01711 0.038977 
0.054267 0.11609 0.068571 0.053281 0.020727 0.050486 0.031414 0.02122 
0.040128 0.08863 0.08715 0.043416 0.023522 0.044567 0.0021479 0.0065871 
0.0019835 0.093233 0.04917 0.051636 0.009711 0.038155 0.0039565 0.021056 
-0.0019624 0.05624 0.036017 0.023686 0.016452 0.053281 -0.0016336 0.019083 
0.012013 0.007738 0.031742 0.042758 0.0059294 0.019083 -0.037805 -0.0064016 
0.033551 -0.012814 0.059857 0.027632 0.0067515 0.015465 -0.046354 0.022864 
0.046211 -0.058192 0.054103 0.054925 0.024015 0.012177 0.055911 0.075312 
0.055582 0.0019835 0.048184 0.018754 0.026974 -0.001798 0.082217 0.076956 
0.042758 0.075476 0.048677 0.038648 0.017603 0.045389 0.093726 0.077778 
0.037661 0.14174 0.058542 0.024015 0.03799 0.0083956 0.055418 0.073668 
0.039799 0.13861 0.07597 0.048184 0.0098754 0.0052718 0.00033937 0.023522 
0.023686 0.005765 0.062981 0.023193 0.010533 0.016452 0.03947 0.01152 
0.0067515 -0.094199 0.097508 0.058871 0.035688 -0.0075525 0.038812 0.0093821 
0.021549 -0.13678 0.071859 0.017932 0.026974 0.023522 0.029934 -0.010676 
0.026152 -0.14714 0.098988 0.056569 0.032236 0.026481 0.012835 0.023522 
0.027139 -0.10867 0.047362 0.011355 0.031249 0.0021479 0.0013258 0.043909 
0.032729 -0.056712 0.045224 0.041114 0.044731 0.03947 0.010862 0.032071 
0.048513 -0.051615 0.04654 0.032564 0.037826 0.033715 0.038483 0.0051074 
0.053774 -0.028762 0.052952 0.052623 0.041443 0.05772 0.052294 0.016616 
0.037332 0.0054362 0.051308 0.038319 0.036839 0.03651 0.058871 0.0098754 
0.020233 0.078929 0.0324 0.041278 0.047362 0.022535 0.035195 0.0082312 
-0.0044286 0.16656 0.03799 0.018589 0.05772 0.018589 0.016781 0.024015 
-0.024158 0.1687 0.041607 0.039799 0.05065 0.010697 0.026974 0.0065871 
-0.039284 0.12973 0.029276 0.014972 0.034373 0.042265 -0.011498 0.01004 
-0.00015387 0.10524 0.030592 0.020069 0.051143 0.025001 -0.0004827 0.021713 
0.04917 0.12513 0.049664 0.0041209 0.060679 -0.0062372 0.049664 0.037004 
0.085506 0.14634 0.061008 0.030098 0.0324 0.033058 0.023686 0.021713 
0.060022 0.12579 0.076299 0.012999 0.043745 0.015465 0.022206 0.028783 
0.038977 0.038319 0.063474 0.02122 0.040621 0.044402 0.031578 0.019083 
0.027632 0.038319 0.073339 0.037497 0.025824 0.022371 0.0069159 0.031249 
0.0075736 0.049992 0.076627 0.021713 0.0227 0.028454 0.00033937 0.037826 
0.028783 0.033058 0.061995 0.029934 0.025001 0.028125 0.027961 0.035195 
0.0047785 -0.014787 0.058706 0.016123 0.014972 0.01974 0.052952 0.0080668 
0.00017495 -0.083676 0.039141 0.0227 0.031249 0.01974 0.057062 0.021056 
0.009711 -0.08532 0.023193 0.0037921 0.023522 0.01267 0.022042 0.020562 
0.01826 -0.066413 0.040785 0.035688 0.026974 0.021549 0.038155 0.022042 
