0.030263 0.10425 0.068736 0.020891 0.0090533 0.060515 0.077943 0.053445 
-0.066741 -0.087786 0.04654 0.013164 -0.0067304 0.020727 -0.0013048 0.0092177 
-0.17213 -0.046519 0.022864 0.011191 0.015959 -0.0004827 -0.067564 -0.080881 
-0.18907 0.050321 0.034537 0.038648 0.014315 -0.0088678 -0.12083 -0.12166 
-0.11738 0.082382 0.054103 0.039963 0.0095465 0.020891 -0.048492 -0.11985 
-0.0090322 0.097179 0.085835 0.082711 0.028619 0.041278 0.076134 -0.053753 
0.037004 0.015301 0.020727 0.042594 0.04095 0.046868 0.10376 0.004943 
0.076956 -0.0771 -0.040106 0.016452 -0.0039354 0.039963 0.088136 0.031578 
0.07301 -0.12231 -0.018404 0.010697 0.01826 0.051636 0.078107 0.047526 
0.085835 -0.06855 0.044238 0.060515 0.036675 0.028125 0.032729 0.1077 
0.13088 0.062817 0.078107 0.041772 0.051636 0.0227 -0.042244 0.086821 
0.16673 0.16229 0.087643 0.039634 0.034044 0.036182 -0.11064 0.020398 
0.18563 0.14733 0.073997 0.025988 0.013492 0.01563 -0.13119 -0.026789 
0.1567 0.11214 0.071695 0.04506 0.0041209 0.0042853 -0.043066 0.0034632 
0.12513 0.11461 0.0087245 0.009711 0.013821 0.020727 0.050486 0.029112 
0.07597 0.10228 -0.053753 -0.02087 -0.00064712 0.04917 0.12283 0.083368 
-0.036325 0.065447 -0.066577 -0.016431 0.010369 0.048513 0.17412 0.13713 
-0.15766 0.059035 -0.024158 0.021384 0.010697 0.02533 0.15719 0.12727 
-0.23872 0.096521 -0.010512 0.019083 0.034373 0.0069159 0.093562 0.015959 
-0.17493 0.05772 0.036839 0.02681 0.016452 -0.020048 0.009711 -0.056383 
-0.022679 -0.021856 0.042923 0.02533 0.03388 -0.028104 -0.010676 -0.031557 
0.12398 -0.089595 0.028783 0.056076 0.027796 -0.032215 0.012342 0.11 
0.22986 -0.07825 0.024344 0.04654 0.04654 -0.00031829 0.0064227 0.14223 
0.26587 0.035688 0.059693 0.07597 0.038977 0.0098754 0.024179 0.1396 
0.23677 0.12447 0.098166 0.085506 0.051308 0.061995 0.081724 0.088301 
0.1978 0.19846 0.1105 0.11559 0.070708 0.085835 0.054925 0.010862 
0.14749 0.16146 0.068078 0.050979 0.055582 0.033387 -0.081374 -0.10028 
0.10819 0.10047 0.047033 0.042758 0.036839 -0.0011404 -0.19811 -0.12675 
0.051965 0.066434 0.0421 0.073997 0.038155 -0.0068948 -0.19942 -0.12231 
0.081395 0.12743 0.079587 0.03092 0.028454 -0.00081153 -0.12593 -0.063946 
0.057555 0.096193 0.053774 0.0011614 0.012506 -0.0072237 0.029441 -0.018733 
0.040785 0.13779 0.039963 -0.029091 -0.017911 0.010369 0.17495 0.10918 
0.037661 0.20684 0.026974 0.01415 0.010697 0.044567 0.27573 0.25584 
0.025988 0.044073 0.032236 0.046046 0.0421 0.11724 0.27886 0.27688 
0.0092177 -0.15059 0.062323 0.08304 0.080902 0.13976 0.20931 0.10063 
0.021384 -0.20633 0.013492 0.053774 0.059364 0.047362 0.06479 0.040128 
0.04358 -0.072825 0.0042853 0.05624 0.019083 0.0090533 -0.022514 0.00297 
0.098001 0.0021479 -0.044217 0.016616 0.009711 -0.00015387 0.047033 0.0041209 
0.12694 0.044402 -0.020048 0.027632 0.024837 0.043909 0.047033 -0.051122 
0.099645 0.038812 0.0041209 0.02533 0.021549 0.007738 -0.038791 0.0023123 
0.099316 0.055582 0.058706 0.028125 -0.011992 -0.049314 -0.078415 0.11 
0.11806 0.14568 0.088794 0.021713 0.0041209 -0.038956 -0.042244 0.14535 
0.074161 0.12069 0.1003 0.020233 0.018589 -0.034845 -0.022514 0.078929 
-0.057534 -0.021528 0.0324 0.013657 0.013821 0.00297 -0.0091966 0.01415 
-0.16128 -0.11311 0.026152 0.040128 0.018918 0.026317 0.035195 -0.039942 
-0.17673 -0.13843 0.038319 0.03947 0.038319 0.030263 0.068736 -0.017253 
-0.041257 -0.056219 0.055089 0.058213 0.071202 0.040456 0.056898 -0.0070593 
0.058377 0.01415 0.029605 0.079751 0.037497 0.046704 0.092082 0.018589 
0.060844 0.05624 0.0060938 0.089945 0.053281 0.069722 0.11362 0.010697 
0.0421 0.098166 0.0085601 0.031085 0.030098 0.030263 0.10556 0.0080668 
-0.052437 0.034702 0.025824 -0.0073881 0.020398 0.0046141 0.14141 0.0036276 
-0.23822 -0.12462 -0.015444 -0.032215 -0.024158 0.0065871 0.16163 0.05213 
-0.36318 -0.24793 -0.029091 -0.023172 -0.0078813 0.013328 0.15292 -0.0024557 
-0.24924 -0.19137 -0.010019 -0.010512 0.018754 0.034373 0.058706 0.0083956 
0.08863 0.1761 0.075641 0.028947 0.071366 0.035688 -0.018897 0.043416 
0.39559 0.52827 0.08304 0.066598 0.066105 0.03651 -0.011663 0.08419 
0.48585 0.53321 0.009711 0.026317 0.0031344 0.014972 0.019083 0.078272 
0.37931 0.33689 1.0539e-005 0.0014903 -0.0011404 -0.0019624 -0.097322 0.065118 
0.080244 0.089287 0.026481 -0.0077169 -0.02235 -0.030406 -0.2231 -0.0087034 
-0.2157 -0.22425 -0.0034422 0.011355 -0.015444 -0.047505 -0.22984 -0.10308 
-0.3742 -0.45229 -0.064604 0.020398 0.0011614 -0.026789 -0.085813 -0.10965 
-0.29297 -0.36121 -0.059014 0.069558 0.034044 -0.0057439 0.14108 -0.039284 
-0.1381 -0.13103 -0.008539 0.074983 0.051472 0.047033 0.1636 0.046704 
0.10047 0.11691 0.079916 0.068078 0.062817 0.068571 0.22476 0.12316 
0.27376 0.30648 0.12677 0.045718 0.032893 0.070215 0.21934 0.16212 
0.20783 0.23496 0.13154 0.045553 0.043087 0.065447 0.12924 0.11461 
0.084848 0.097344 0.11181 0.033222 0.041114 0.042429 0.057884 0.045882 
-0.049149 -0.021034 0.053938 0.023028 0.00297 0.038648 0.037168 0.02829 
-0.14714 -0.13563 -0.028597 -0.040928 -0.004593 0.00066819 -0.031721 -0.0078813 
-0.31188 -0.26091 -0.089595 -0.050136 -0.0078813 -0.0080457 -0.089595 -0.072332 
-0.30465 -0.21718 -0.06148 -0.032708 0.01267 -0.02235 -0.12922 -0.10604 
-0.087293 0.058213 0.025824 0.042429 0.040128 -0.019719 -0.09387 -0.068714 
0.12924 0.32637 0.075312 0.042758 0.036346 -0.0095255 -0.066248 -0.026624 
0.21342 0.46892 0.12924 0.060515 0.046868 0.010533 -0.026953 0.020233 
0.14881 0.36978 0.11822 0.047691 0.05065 0.048513 0.025166 0.024179 
0.087314 0.15719 0.070708 0.052787 0.051472 0.064132 0.077614 0.0095465 
0.089945 -0.047834 -0.014622 0.0095465 0.024508 0.034537 0.09274 0.035853 
0.10359 -0.10143 -0.058192 -0.0044286 0.015465 0.014972 0.081067 0.09981 
0.071202 -0.099953 -0.049478 0.0039565 0.02533 0.012999 0.03388 0.1271 
0.06183 -0.10225 0.010369 0.04358 0.037004 0.044731 0.053281 0.14289 
0.1322 -0.13563 0.020233 0.038648 0.060844 0.042758 0.066927 0.12398 
0.14733 -0.048656 0.039305 0.032729 0.037168 0.04095 0.012835 0.028619 
0.12365 0.0082312 0.024179 0.041772 0.051636 0.013986 -0.061316 -0.078908 
0.088465 0.089945 0.032236 0.046375 0.06479 0.014643 -0.058521 -0.071674 
-0.001798 0.050157 0.020233 0.043087 0.03651 0.071695 0.093069 0.033387 
-0.066248 0.0059294 0.024837 0.01267 0.023686 0.072353 0.23068 0.14996 
-0.013307 0.056898 0.055089 0.01711 0.010533 0.039634 0.21819 0.20125 
0.055254 0.21227 0.12842 0.015465 0.0052718 -0.016595 0.049992 0.0786 
0.014808 0.34824 0.097179 0.01152 -0.017417 -0.046354 -0.080881 -0.09239 
-0.062467 0.068242 0.015301 -0.0064016 -0.026789 -0.04882 -0.14319 -0.21011 
-0.091075 -0.26059 -0.05737 0.011684 0.010369 -0.052602 -0.25828 -0.11919 
-0.0067304 -0.21586 -0.091897 0.010697 0.031907 -0.071181 -0.32849 -0.00015387 
-0.0054151 0.06479 -0.083183 0.026481 0.023686 -0.050629 -0.26618 0.11461 
-0.041751 0.1276 -0.027118 0.095371 0.078272 0.042758 0.0042853 0.14716 
-0.015773 0.02681 0.0072447 0.12299 0.099152 0.11691 0.15275 0.13154 
0.079751 0.15407 0.074326 0.089945 0.087643 0.080902 0.13845 0.022371 
0.14733 0.25123 0.10951 0.059364 0.038648 0.058706 0.10458 -0.026953 
0.20602 0.29135 0.16804 0.022535 0.0042853 0.037661 0.13647 0.0074092 
0.18333 0.20224 0.1493 0.047197 0.0095465 0.015301 0.15949 0.073504 
0.13006 0.10458 0.1391 0.0065871 0.0074092 0.028619 0.17297 0.093069 
0.11559 0.078929 0.091918 -0.0064016 -0.010348 0.024837 0.17659 0.15193 
0.1442 0.12431 0.041278 0.0039565 -0.014458 0.012013 0.13384 0.15407 
0.11263 0.2075 0.036017 0.0421 0.033551 -0.026131 0.075805 0.031249 
0.025166 0.16886 0.03536 0.015137 0.023357 -0.038627 -0.079895 -0.041093 
-0.014293 0.047691 -0.0026201 0.023686 0.00033937 0.009711 -0.052109 -0.049478 
0.007738 -0.022679 -0.026296 0.007738 0.025495 0.018425 -0.02087 -0.095514 
-0.027282 -0.10801 -0.023501 0.020069 0.032071 0.04358 0.082875 -0.040435 
-0.0027845 -0.18463 0.011191 0.03092 0.048348 0.01004 0.085999 0.044567 
0.090274 -0.12774 0.02533 0.0067515 0.031742 0.039799 0.13845 0.15176 
0.12661 0.007738 0.039799 0.05624 0.05213 0.10195 0.26768 0.21885 
0.11773 0.079751 0.055418 0.053938 0.053774 0.098823 0.27409 0.17774 
0.082875 0.083204 0.075476 0.037168 0.0689 0.02829 0.047691 0.032236 
0.047691 0.1031 0.070215 0.011684 0.0080668 -0.07003 -0.22951 -0.083676 
-0.043395 0.082382 0.063968 0.0047785 -0.050958 -0.091404 -0.23477 -0.17164 
-0.10784 0.15308 0.070873 0.017438 -0.011498 -0.0077169 -0.05441 -0.11426 
-0.081374 0.24005 0.10195 -0.0070593 0.0014903 0.0082312 -0.021199 -0.061151 
-0.052437 0.28132 0.10655 -0.0138 -0.031886 -0.068221 -0.20008 -0.064111 
0.037826 0.45478 0.093069 0.032236 -0.027611 -0.12593 -0.33885 -0.16375 
0.11395 0.43406 0.12151 0.062159 0.01152 -0.049971 -0.22573 -0.047669 
0.12283 0.20487 0.11148 0.059693 0.062323 0.048513 0.056404 0.16031 
0.05065 0.050157 0.048348 0.0072447 -0.011005 0.055911 0.24203 0.28247 
-0.083183 -0.10209 -0.10193 -0.010348 -0.043724 -0.0138 0.25502 0.22082 
-0.21899 -0.34065 -0.14615 -0.044874 -0.037147 -0.037476 0.20734 0.054925 
-0.24529 -0.63693 -0.17427 -0.016102 0.019905 0.011355 0.17495 -0.075455 
-0.15996 -0.81334 -0.16375 0.017438 0.020398 0.090767 0.17856 -0.055397 
0.0067515 -0.75646 -0.18512 0.061008 0.048019 0.092247 0.13664 0.011191 
0.21687 -0.41727 -0.05885 0.058049 0.086492 0.091096 0.082711 0.051472 
0.35547 0.015137 0.045882 0.057062 0.078107 0.076299 0.048019 0.034537 
0.38178 0.43094 0.15587 0.0689 0.068571 0.072517 0.048677 0.069886 
0.33706 0.73396 0.19024 0.10688 0.045553 0.083533 0.036017 0.036017 
0.20092 0.75286 0.16804 0.072681 0.055911 0.047197 0.035688 0.017274 
0.026974 0.4579 0.12168 0.028619 0.027796 0.0324 0.012013 -0.0077169 
-0.088444 0.21326 0.1151 0.020233 -0.021363 -0.0054151 -0.031557 -0.03057 
-0.095349 0.069229 0.08304 0.01152 -0.0088678 -0.011827 -0.03764 -0.062467 
-0.10604 -0.0036066 0.072353 -0.01528 -0.0077169 -0.0075525 -0.037805 -0.014458 
-0.21011 0.0016547 0.049828 -0.026131 -0.00015387 -0.010841 -0.045203 -0.033694 
-0.19202 0.037004 0.034866 -0.033694 -0.010676 -0.0077169 0.026152 0.0074092 
0.0037921 0.13154 0.021384 -0.012485 -0.018075 0.0016547 0.032071 0.012342 
0.08304 0.087314 0.033715 0.009711 0.0031344 0.013492 0.035195 0.044073 
0.058049 -0.0052507 0.010697 0.065612 0.068242 0.058871 0.04358 0.058542 
0.073832 -0.10505 0.0016547 0.11181 0.069393 0.091589 0.055747 0.053774 
0.11855 -0.066248 0.012177 0.19205 0.09685 0.085999 0.086657 0.021878 
0.10721 -0.076277 -0.089431 0.026481 0.049992 0.075641 0.084684 0.036182 
0.059857 -0.21389 -0.15322 0.00017495 0.025001 0.05772 0.031578 -0.012978 
0.013657 -0.26963 -0.083512 0.024673 0.036675 0.055089 0.0085601 0.014643 
0.086328 -0.19794 -0.017088 0.057555 0.058542 0.084848 0.019083 0.047691 
0.097015 -0.15174 0.05065 0.04095 0.038648 0.052294 -0.0072237 0.081231 
0.11477 -0.08384 0.076792 0.029769 0.048019 0.0026412 -0.065755 0.053774 
0.11313 0.045882 0.11592 0.055911 0.044073 -0.030242 -0.079895 0.011848 
0.071859 0.1641 0.1179 0.059693 0.043909 0.013328 0.0039565 0.034044 
0.036675 0.17281 0.078272 0.01711 0.045553 0.038319 0.089945 0.076627 
-0.14023 -0.13415 0.0075736 0.0018191 0.050814 0.045224 0.094055 0.048348 
-0.35068 -0.45607 -0.056055 -0.0004827 0.018589 0.048677 0.068571 0.00033937 
-0.40543 -0.41004 -0.10258 -0.032543 -0.0044286 0.018754 0.019411 -0.020377 
-0.21554 -0.015609 -0.062631 -0.026296 0.021713 0.037004 0.023686 -0.0087034 
0.011355 0.32736 0.03092 0.018096 0.079258 0.067256 0.058213 0.030756 
0.17889 0.50624 0.11181 0.08567 0.068736 0.071859 0.13647 0.12809 
0.21046 0.63514 0.16459 0.087314 0.047197 0.063803 0.22608 0.18662 
0.22756 0.73412 0.15818 0.072517 0.058377 0.05065 0.13746 0.11181 
0.22033 0.62857 0.15045 0.054103 0.073504 0.027632 0.036017 0.0074092 
0.15933 0.35087 0.12875 0.067256 0.02829 0.041936 0.023357 -0.070194 
0.075805 -0.052766 0.041607 0.0082312 0.033222 0.049335 0.04358 -0.066248 
-0.0034422 -0.45624 -0.067235 -0.03057 0.01563 0.024673 0.0032988 -0.042079 
-0.061809 -0.63841 -0.10686 -0.0068948 0.025495 -0.004593 -0.061151 -0.063289 
-0.109 -0.73607 -0.11705 -0.0082102 0.0051074 0.019083 -0.1085 -0.0406 
-0.12264 -0.59352 -0.061645 0.030098 0.041443 0.035524 -0.11903 0.04506 
-0.089924 -0.18956 -0.023172 0.046211 0.038319 0.0080668 -0.1381 0.10145 
-0.066741 0.069886 0.023522 0.072024 0.027139 -0.074798 -0.17443 0.086985 
-0.029091 0.26965 0.062323 0.03799 -0.03205 -0.083347 -0.081045 0.048184 
0.071037 0.39839 0.097179 -0.0031133 -0.016431 -0.050629 0.12168 0.062981 
0.18629 0.45083 0.096357 0.028947 0.018589 0.01974 0.20191 0.10737 
0.23003 0.44574 0.12727 0.066927 0.048513 0.015794 0.13598 0.11378 
0.16574 0.30204 0.15456 0.062488 0.04506 0.03651 0.11346 0.085835 
0.096357 0.2029 0.15719 0.064461 0.048019 0.061501 0.13861 0.064296 
0.077449 0.159 0.085341 0.06183 0.056898 0.08419 0.13187 0.065118 
0.087314 0.08304 0.0056006 0.048019 0.05772 0.067913 0.091918 0.055582 
0.048019 -0.069208 0.0098754 0.020069 0.047033 0.047033 0.081067 0.015465 
-0.012978 -0.20025 0.030592 0.016452 0.025988 0.043251 0.066105 0.012506 
-0.053424 -0.071674 0.037004 0.0054362 0.01563 -0.0004827 0.0095465 -0.043559 
-0.03057 0.099316 0.028454 0.026481 0.018589 -0.03616 -0.11672 -0.097816 
0.041772 0.19649 -0.0088678 -0.025309 -0.010841 -0.046847 -0.21981 -0.18084 
0.025988 0.14798 -0.035338 -0.040106 -0.0073881 -0.045039 -0.22326 -0.17443 
-0.0055795 0.13253 -0.025309 0.0032988 0.012013 -0.01232 -0.14451 -0.086307 
-0.0047575 0.13302 0.030427 0.053281 0.042758 -0.0095255 -0.050629 0.039305 
0.1128 0.20701 0.099974 0.062488 0.032564 0.026317 0.031249 0.048513 
0.14141 0.24877 0.12628 0.021713 0.013657 0.073832 0.10836 0.049664 
0.030592 0.090767 0.051965 0.012342 -0.011498 0.016123 0.18136 0.096686 
-0.07973 -0.10916 -0.0029489 0.0026412 -0.0083746 -0.015609 0.28609 0.19846 
-0.12297 -0.22178 -0.082032 -0.01232 -0.010183 0.0014903 0.29579 0.28658 
-0.073482 -0.21258 -0.064111 0.00066819 0.0082312 -0.010841 0.19501 0.38753 
0.034209 -0.11771 -0.071838 0.013821 0.019247 0.011684 0.08008 0.36715 
0.1003 -0.068714 -0.043395 0.01974 0.020891 -0.0019624 -0.050629 0.18777 
0.046868 -0.13974 -0.012814 0.034209 0.0026412 0.0070803 -0.14303 -0.12462 
0.074983 -0.16835 0.041443 0.040621 0.052952 0.0028056 -0.18676 -0.24694 
0.18728 0.090274 0.06594 0.080738 0.073175 0.069722 -0.048327 -0.27325 
0.29316 0.33426 0.086985 0.076792 0.085177 0.13828 0.1345 -0.21537 
0.26192 0.45955 0.12233 0.055582 0.066763 0.13319 0.24318 -0.11903 
0.19796 0.5143 0.18103 0.070544 0.036182 0.082711 0.15604 0.015137 
0.16952 0.57842 0.21967 0.10787 0.043745 0.012013 -0.0060728 0.040785 
0.13598 0.57595 0.20865 0.087972 0.041936 -0.029748 -0.14385 0.072024 
0.12891 0.45544 0.14256 0.030756 0.0018191 -0.13251 -0.35381 -0.0064016 
0.060186 0.14338 0.026481 -0.055561 -0.085649 -0.27555 -0.55209 -0.064768 
-0.023829 -0.23313 -0.091404 -0.080552 -0.12429 -0.29314 -0.40609 -0.03353 
-0.025967 -0.41234 -0.15207 -0.065591 -0.040271 -0.11771 0.094548 0.20076 
-0.0013048 -0.37452 -0.061645 0.018589 0.046868 0.10129 0.49128 0.40644 
0.018918 -0.27094 -0.0077169 0.069064 0.087479 0.21901 0.5577 0.47139 
0.13319 -0.17279 0.0060938 0.098494 0.10228 0.1932 0.40365 0.3655 
0.23923 -0.017088 -0.040435 0.07301 0.10967 0.14453 0.21802 0.19912 
0.13302 0.081889 -0.0050863 0.067749 0.074983 0.14239 0.062652 -0.032543 
-0.10916 0.032564 0.0070803 0.052294 0.070544 0.093562 -0.08532 -0.18249 
-0.37074 -0.13234 0.015137 0.061995 0.045224 0.062981 -0.11113 -0.30333 
-0.47876 -0.18627 0.0067515 0.034702 0.031907 0.041607 -0.081045 -0.26174 
-0.36926 0.0080668 0.01563 0.0044497 -0.0036066 -0.00031829 -0.023829 -0.16391 
-0.14402 0.21375 0.015137 -0.020212 -0.015116 -0.031557 0.038812 -0.018733 
0.10951 0.35021 0.0013258 -0.0072237 -0.020212 -0.017746 -0.00015387 0.0324 
0.1294 0.3096 0.0095465 -0.017746 0.01004 0.028125 -0.01117 0.058542 
-0.0090322 0.11658 0.077121 0.013164 0.02681 0.048184 -0.012814 0.01004 
-0.10702 -0.071345 0.10129 0.066598 0.023686 0.027632 -0.055068 0.0092177 
-0.13251 -0.18167 0.071531 0.073504 0.035853 -0.00015387 -0.11048 -0.059836 
-0.12938 -0.26864 -0.038133 0.013164 0.012177 -0.047012 -0.13711 -0.11524 
0.036839 -0.17427 -0.042901 -0.0044286 -0.019884 -0.025474 -0.033859 -0.10719 
0.2759 0.064132 -0.012156 0.013821 -0.015773 -0.0029489 0.048841 0.027303 
0.36682 0.26537 0.044896 0.014479 -0.034188 -0.023336 -0.0044286 0.11773 
0.29727 0.26965 0.082711 0.02681 0.027303 -0.024158 0.028619 0.21095 
0.23989 0.22164 0.043909 0.056898 0.020398 0.037661 0.19961 0.25633 
0.11543 0.054596 0.0039565 0.086328 0.028125 0.063639 0.26965 0.24811 
-0.042244 -0.14681 0.0021479 0.054267 0.031578 0.063968 0.21671 0.17429 
-0.20797 -0.38669 -0.024487 0.041114 0.042758 0.041772 0.11937 0.10655 
-0.24168 -0.4033 0.0098754 0.027468 0.024508 0.018918 0.017932 0.038319 
-0.21652 -0.2665 0.027796 0.044402 0.018754 0.023686 -0.031392 -0.065919 
-0.23691 -0.23987 0.033222 0.0092177 0.022206 0.077285 -0.071345 -0.15618 
-0.18923 -0.19235 0.043251 0.0054362 0.045224 0.069886 -0.11771 -0.19614 
-0.041093 -0.10423 0.035195 0.030756 0.011026 0.03388 -0.23033 -0.25121 
0.042265 0.046375 0.048677 0.038648 0.012177 -0.011005 -0.2374 -0.19005 
0.066763 0.17182 0.077285 0.016123 0.012835 -0.0016336 -0.069865 -0.054739 
0.06742 0.16344 0.047033 0.01826 0.036017 0.064132 0.06479 0.029112 
0.0075736 0.053445 -0.021363 0.027632 0.0074092 0.079587 0.084026 0.072024 
-0.068386 0.044567 -0.08121 0.013986 0.0062583 0.063639 0.068736 0.084519 
-0.11261 0.13368 -0.047012 0.0041209 0.0054362 0.032729 0.025166 0.060844 
-0.063124 0.26159 0.034044 0.030756 0.026481 0.019411 0.0018191 -0.0047575 
0.049499 0.35991 0.10343 0.063145 0.027796 0.041443 0.066927 -0.012978 
0.18859 0.51956 0.13401 0.05624 0.028783 0.040785 0.10836 0.01267 
0.25765 0.51167 0.15637 0.017274 -0.0062372 0.022535 0.15719 0.030098 
0.2103 0.24762 0.13713 0.016288 0.0054362 0.045224 0.13434 0.08715 
0.080573 -0.094692 0.081724 0.060186 0.020233 0.056733 0.1197 0.10606 
0.032893 -0.2448 0.030263 0.041607 0.027139 0.046046 0.098659 0.090274 
0.1054 -0.17624 0.0056006 0.02122 0.024508 0.052952 0.01152 0.011355 
0.18695 -0.14303 -0.027118 -0.0077169 0.040785 0.040621 -0.0049219 -0.057699 
0.20865 -0.064275 0.0016547 0.042429 0.024508 0.031578 -0.034352 -0.092554 
0.17248 -0.052602 0.021713 0.021713 0.023522 0.007738 -0.047176 -0.045203 
0.081889 -0.23494 -0.021692 -0.018897 0.0016547 0.013164 -0.0024557 0.046375 
0.071202 -0.19005 -0.02942 -0.0078813 0.016452 0.049664 0.038812 0.16903 
0.097179 -0.026296 -0.02498 0.041443 0.0324 0.046211 0.055911 0.21375 
0.13401 0.10293 0.080409 0.066434 0.064461 0.056076 0.059035 0.16673 
0.17758 0.20158 0.14239 0.070873 0.054103 0.03092 0.033058 0.049499 
0.20224 0.28609 0.14256 0.058049 0.064625 0.039305 0.043416 -0.0047575 
0.21424 0.38934 0.084684 0.074161 0.043251 0.076134 0.050979 -0.0014692 
0.20339 0.3193 0.060844 0.045718 0.038648 0.059035 0.058377 0.012177 
0.12529 0.14946 0.031578 0.032729 0.046868 0.06035 0.043416 0.012342 
0.08008 0.073668 0.044731 0.025659 0.047197 -0.0027845 0.021878 -0.021692 
0.021384 0.094548 0.00297 0.049664 0.0093821 -0.038133 -0.031886 -0.02646 
0.0062583 0.096193 -0.0060728 0.014315 0.021713 0.007738 0.031742 0.01152 
-0.013143 0.13072 0.057555 0.0080668 0.040621 0.041443 0.12858 0.044238 
-0.14484 0.073668 0.089123 0.045389 0.04358 0.031085 0.10885 0.020727 
-0.3326 0.1003 -0.0098543 0.043909 0.059693 -0.00031829 0.055911 -0.045532 
-0.33194 0.14371 -0.011334 -0.016431 -0.022021 -0.01939 -0.088608 -0.019061 
-0.11541 0.36304 0.0052718 -0.060658 -0.026953 -0.0083746 -0.061973 0.063803 
0.023357 0.42913 0.046704 -0.015444 0.0062583 -0.0055795 -0.020706 0.047691 
0.10359 0.20553 -0.0072237 0.011191 0.0095465 -0.035996 -0.039613 0.0083956 
0.1567 -0.063124 0.025495 0.0051074 -0.0044286 -0.055726 -0.049642 -0.066248 
0.21753 -0.32388 0.045224 0.02681 0.017767 -0.029255 0.00083261 -0.031228 
0.23298 -0.42747 0.034044 0.036839 0.058706 0.046868 0.10228 0.026646 
0.23348 -0.31402 0.017932 0.054432 0.070215 0.070708 0.19846 0.093069 
0.1927 -0.096665 -0.02498 0.047033 0.066927 0.030098 0.19994 0.13828 
0.11707 0.0044497 -0.031886 0.023028 0.040456 -0.010348 0.1197 0.14437 
0.047691 0.012999 0.019247 0.034702 0.056569 -0.010019 0.09685 0.11099 
0.020233 0.04506 0.016616 0.043251 0.057062 0.013164 0.12924 0.22328 
0.043416 0.17265 0.040785 0.025988 0.048677 0.028125 0.15785 0.25847 
0.034537 0.27343 0.084684 0.05213 0.04654 0.051636 0.08978 0.18087 
0.077121 0.29941 0.073668 0.043251 0.044567 0.013657 -0.045532 0.053116 
-0.01232 0.21046 0.029276 0.0083956 0.047526 -0.0095255 -0.11541 -0.10176 
-0.27867 0.10244 -0.0039354 0.0054362 0.022535 -0.0050863 -0.12445 -0.255 
-0.43158 0.090274 0.049335 0.0016547 0.039305 0.010862 0.013821 -0.22096 
-0.34871 0.24745 0.10984 0.084684 0.069064 0.036182 0.12332 -0.069208 
-0.12807 0.32571 0.12036 0.067585 0.050814 0.03536 0.12595 0.076299 
-0.0039354 0.17199 0.071366 0.020233 0.020891 -0.011992 0.029934 0.067091 
-0.036325 -0.14566 -0.0064016 -0.0032777 -0.020706 -0.057534 -0.069865 0.030756 
-0.079072 -0.35677 -0.033694 -0.0036066 -0.019719 -0.079072 -0.059672 -0.022021 
-0.025309 -0.41102 -0.043888 -0.036325 -0.0019624 -0.054904 0.041278 0.010697 
0.11428 -0.39557 -0.13727 -0.03616 0.004943 -0.0044286 0.15966 0.1807 
0.14108 -0.36301 -0.19548 -0.047998 0.026152 0.026317 0.15851 0.25962 
0.085999 -0.18052 -0.12593 -0.0027845 0.037661 0.051801 0.021878 0.15127 
0.048677 0.089945 0.055582 0.023028 0.055089 0.019083 -0.11311 -0.023336 
0.0080668 0.18317 0.11263 0.059364 0.043745 -0.013471 -0.15816 -0.099295 
-0.032379 0.10737 0.17117 0.11494 0.073175 -0.014293 -0.10784 -0.087129 
-0.0098543 0.021878 0.16837 0.11461 0.10195 0.04358 0.055582 -0.001798 
0.099645 0.035524 0.14108 0.089123 0.072024 0.088794 0.18037 0.086328 
0.19829 0.1179 0.085012 0.054432 0.037661 0.067256 0.1636 0.11329 
0.27754 0.21145 0.031249 0.021878 0.032236 0.025495 0.11658 0.1396 
0.27162 0.29497 0.047197 0.035524 0.038977 0.026974 0.070215 0.11609 
0.20372 0.3581 0.097015 0.039634 0.064954 0.035195 0.060186 0.11214 
0.13434 0.39181 0.13417 0.029934 0.01563 0.070544 0.11428 0.082546 
0.058871 0.37652 0.10195 0.060186 0.019083 0.041114 0.031085 0.087972 
-0.036818 0.31996 0.10178 0.020891 0.01152 0.0069159 -0.0087034 0.013492 
-0.16292 0.087314 0.10211 0.024344 0.033715 0.00033937 -0.068879 -0.017746 
-0.22145 -0.20732 -0.023007 0.0037921 0.0021479 -0.015773 -0.082196 -0.052931 
-0.17049 -0.36959 -0.098638 0.033551 -0.0055795 0.01004 -0.090746 0.00033937 
-0.089759 -0.22326 -0.11755 -0.015938 0.0031344 0.0056006 -0.046025 0.019905 
-0.14977 -0.17279 -0.063782 -0.041915 0.016288 0.0024767 -0.01939 0.03947 
-0.18841 -0.17246 -0.064111 -0.017417 0.0047785 0.017767 0.062981 0.062159 
-0.018897 -0.024816 0.019576 0.053609 0.033551 0.049335 0.078765 0.034209 
0.18662 0.18185 0.071366 0.065447 0.053938 0.058871 0.0044497 -0.093541 
0.40907 0.29234 0.083204 0.05065 0.062159 0.043087 -0.029584 -0.050629 
0.45708 0.12644 -0.013471 0.005765 0.0069159 0.014315 -0.046025 0.0018191 
0.23479 -0.10275 -0.031886 0.013821 -0.0078813 0.0031344 -0.022514 -0.023665 
-0.015116 -0.23559 0.015301 0.019905 -0.033365 0.0227 0.029112 -0.074633 
-0.12215 -0.26091 0.075805 0.041936 0.024508 0.0087245 -0.003771 -0.032543 
-0.10291 -0.21373 0.075805 0.033058 0.021056 0.004943 -0.025638 0.062817 
0.0095465 -0.089924 0.023028 0.067091 0.026481 0.034044 -0.001798 0.15522 
0.037826 0.064296 -0.0022913 0.033551 0.03947 0.06594 0.072353 0.19813 
0.042758 0.10852 0.017932 0.044402 0.055747 0.11017 0.1419 0.18678 
0.013657 0.084519 0.034866 0.029934 0.054103 0.12414 0.13203 0.1174 
0.075641 0.19714 0.071531 0.085835 0.041772 0.094384 0.058542 0.017603 
0.13187 0.25452 0.10556 0.071037 0.040128 0.071695 0.036675 -0.02794 
0.095371 0.23085 0.12677 0.044896 0.047197 0.037168 0.036346 -0.011663 
0.044731 0.19944 0.097837 0.021713 -0.0078813 -0.010348 0.08567 -0.013471 
-0.053917 0.21819 0.021549 -0.031886 -0.084991 -0.044381 0.085835 -0.024652 
-0.11376 0.26209 -0.032215 -0.059178 -0.055068 -0.05441 0.013492 -0.068057 
-0.061645 0.21539 -0.071345 -0.060987 -0.040435 -0.044381 -0.07414 -0.061973 
-0.047505 0.037497 -0.05178 -0.017417 -0.018404 -0.0052507 -0.12577 -0.083347 
-0.062796 -0.13958 -0.043724 0.0021479 0.025166 0.064461 -0.11064 -0.05326 
-0.011827 -0.13612 -0.021856 0.014479 0.00017495 0.03799 -0.089266 -0.073976 
0.047691 -0.13859 0.0032988 0.020891 0.015794 0.049828 -0.062467 -0.057041 
0.12661 -0.043724 0.045553 0.047691 -0.00097594 0.045224 0.045389 0.0034632 
0.16015 0.11526 0.02681 0.068407 0.013328 0.071202 0.16327 0.050979 
0.074983 0.11395 0.029769 0.03947 0.031249 0.055911 0.17067 0.05065 
-0.083347 -0.1233 -0.0024557 0.023193 0.023686 0.0023123 0.066105 -0.042244 
-0.25812 -0.38981 -0.029913 0.041443 -0.0073881 -0.021856 0.0047785 -0.096665 
-0.25631 -0.31632 -0.043888 0.017932 -0.011992 -0.016431 0.037661 0.017438 
-0.090746 -0.0054151 0.019083 0.01563 0.0090533 0.025824 0.049664 0.078107 
0.01826 0.27162 0.090931 0.042923 0.052459 0.031907 0.032071 0.08419 
0.049499 0.3392 0.13615 0.032236 0.044073 0.048677 -0.014129 0.025001 
0.02533 0.26209 0.071695 0.058542 0.033551 0.028619 -0.014951 0.042594 
0.087972 0.10556 0.023357 0.040621 0.043251 0.01711 -0.0042642 0.092247 
0.12842 -0.0052507 -0.00081153 0.014972 0.016123 0.013821 0.059857 0.10047 
0.17873 -0.16769 0.033715 0.062488 0.025659 0.013986 0.092904 0.12529 
0.1345 -0.24102 -0.020377 0.0021479 0.016616 0.042758 0.11954 0.082217 
0.12168 -0.052437 0.005765 0.026481 0.032893 0.066105 0.10787 0.066598 
0.11987 0.15259 0.092411 0.03536 0.042594 0.040292 0.086492 0.080738 
0.15505 0.20602 0.14387 0.063474 0.034702 0.037826 0.069558 0.066105 
0.17955 0.22624 0.1008 0.057062 0.0324 0.029441 0.059035 0.068242 
0.15012 0.30697 0.098166 0.064625 0.033222 0.026152 0.0064227 0.03799 
0.097672 0.45346 0.082546 0.058706 0.052787 0.0042853 -0.048492 0.00017495 
0.11822 0.60916 0.10639 0.044073 0.012342 0.00083261 -0.052766 -0.008539 
0.15374 0.74546 0.082382 0.015301 0.0072447 0.018425 0.037826 0.024837 
0.13894 0.75714 0.088301 -0.009361 0.023851 0.02122 0.10819 0.069886 
0.15292 0.70452 0.11395 0.036839 0.029605 -0.00031829 0.055911 0.075805 
0.11724 0.41762 0.098659 0.037826 0.01563 0.019905 -0.032708 0.044238 
0.017603 0.0031344 0.015465 0.025495 0.009711 -0.011827 -0.039942 -0.043066 
-0.11459 -0.28475 -0.024652 0.0051074 0.018918 -0.0052507 -0.0021268 -0.13464 
-0.27094 -0.53532 -0.033201 0.038319 0.049992 0.032071 0.076792 -0.1912 
-0.33605 -0.75892 -0.015938 0.029605 0.039141 0.026974 0.043745 -0.058685 
-0.24184 -0.81367 -0.047012 0.025001 0.045389 0.026317 -0.0034422 0.10573 
-0.16802 -0.70795 -0.067235 0.034373 0.047855 0.021713 0.031578 0.17396 
-0.18676 -0.68625 -0.015773 0.053609 0.061666 0.024508 0.052952 0.14305 
-0.13859 -0.59911 0.028783 0.030592 0.033387 0.025166 0.10524 0.088794 
0.049335 -0.26453 0.021549 0.028619 0.034702 0.026646 0.070544 0.017932 
0.27507 0.14091 0.023522 0.0080668 0.050814 0.063968 0.0062583 -0.032215 
0.42009 0.63942 0.06594 0.0324 0.048019 0.012835 -0.11968 -0.064275 
0.30533 0.84082 0.097672 0.045882 0.031249 -0.056548 -0.26256 -0.026624 
0.08978 0.78032 0.11132 0.036182 0.014808 -0.072332 -0.23247 -0.03912 
0.022206 0.75615 0.12825 0.063968 0.020891 -0.018568 0.0090533 0.092247 
0.1197 0.75089 0.14848 0.068242 0.065118 0.043416 0.16212 0.17692 
0.099645 0.36139 0.13779 0.050321 0.070873 0.061172 0.15357 0.13088 
-0.11656 -0.36713 0.042265 0.047362 0.032893 0.0079024 -0.023994 -0.0059084 
-0.2351 -0.82091 -0.090417 -0.00015387 0.011684 -0.076935 -0.14139 -0.030406 
-0.1478 -0.82008 -0.12988 0.017767 0.038977 -0.042408 -0.027447 0.00297 
0.053445 -0.57346 -0.10308 0.0011614 0.043087 0.038648 0.15867 0.073997 
0.091096 -0.35299 -0.040435 0.0028056 0.03092 0.083533 0.18218 0.060186 
0.049335 -0.2203 -0.012485 0.023357 0.035195 0.067913 0.093233 0.047362 
0.029605 -0.07825 0.033551 0.054103 0.066434 0.037826 0.027961 0.049499 
-0.0062372 -0.0070593 0.047691 0.03799 0.049828 0.033222 0.050157 0.091425 
0.0016547 0.081395 0.036182 -0.0039354 0.037168 0.048677 0.037661 0.03388 
0.027632 0.22855 0.023686 0.015794 0.013821 0.030098 -0.011827 -0.021199 
0.13532 0.32243 0.067913 0.024673 0.026317 0.039141 0.0052718 -0.094692 
0.27491 0.50065 0.10967 0.04917 0.0028056 0.027961 -0.041915 -0.031064 
0.43489 0.56214 0.11625 0.065118 0.037826 0.026974 -0.1136 0.0093821 
0.41927 0.43735 0.073668 0.066927 0.056404 0.031414 -0.10061 0.098659 
0.26587 0.24844 0.063145 0.072024 0.047691 -0.018897 -0.083512 0.095371 
-0.0042642 0.01004 0.037826 0.022206 0.0324 -0.023829 0.026152 0.11428 
-0.30152 -0.25204 -0.0064016 0.015959 -0.0057439 -0.02087 0.10491 0.08978 
-0.49964 -0.50014 -0.063782 -0.010512 -0.028433 -0.022843 0.073997 0.07449 
-0.6172 -0.52513 -0.050629 -0.017582 0.00083261 -0.0013048 -0.00031829 -0.038627 
-0.55258 -0.42615 -0.028104 -0.010348 0.0041209 0.029441 -0.019884 -0.037147 
-0.43371 -0.44308 -0.036325 0.03947 -0.013636 0.025001 0.037497 -0.0138 
-0.27982 -0.55341 -0.13563 -0.0031133 -0.0044286 0.032071 0.074326 -0.032379 
0.012177 -0.53417 -0.13415 -0.038133 0.0018191 0.018589 0.10885 -0.051944 
0.2514 -0.26387 -0.074633 -0.042573 -0.010512 0.085341 0.24005 0.085835 
0.36139 0.044402 0.082382 0.049499 0.013164 0.080902 0.33607 0.25485 
0.43735 0.33969 0.14371 0.13417 0.060515 0.071695 0.26143 0.30829 
0.51759 0.64698 0.21178 0.12546 0.1248 0.054925 0.11165 0.25765 
0.51052 0.81633 0.18596 0.12184 0.095535 0.047197 0.020891 0.16738 
0.35038 0.75138 0.1641 0.073668 0.042429 0.021056 -0.058521 0.037332 
0.10162 0.51397 0.071366 0.029605 -0.004593 -0.047669 -0.16934 -0.073482 
-0.071838 0.13351 -0.0060728 -0.040271 -0.043888 -0.086307 -0.17246 -0.089102 
-0.12379 -0.066084 -0.044381 -0.06296 -0.049314 -0.028597 -0.013471 -0.0062372 
-0.040271 0.10688 -0.0095255 -0.023172 0.01267 0.036839 0.11987 0.040456 
0.019905 0.41762 0.022371 0.056733 0.042594 0.07301 0.049499 0.024015 
-0.0075525 0.40611 0.08156 0.079422 0.054596 0.036675 -0.090253 -0.033201 
-0.04619 0.12497 0.084355 0.078929 0.0052718 0.023028 -0.089266 -0.015773 
-0.074962 -0.1672 0.072188 0.033715 0.016945 0.037004 0.03092 -0.015938 
-0.087951 -0.26354 0.028125 0.022864 0.013657 0.015959 0.088465 0.0047785 
-0.046354 -0.19153 0.0059294 -0.003771 0.022042 0.038648 0.090438 0.018096 
0.021384 -0.041422 0.0060938 0.011684 0.0052718 0.033222 0.078765 0.026974 
0.021056 0.051143 0.01004 0.036675 0.016781 0.025824 0.048513 0.0070803 
-0.07973 -0.0042642 0.0023123 0.030756 0.037497 0.035688 0.055089 0.00050378 
-0.11639 -0.045368 0.0019835 0.0324 0.050814 0.066434 0.10376 0.0024767 
0.046704 0.11083 0.088465 0.048677 0.055254 0.091918 0.12973 0.079422 
0.19221 0.26061 0.15785 0.077449 0.045553 0.090274 0.14716 0.077943 
0.2611 0.33558 0.13187 0.055254 0.029112 0.052294 0.15883 0.12858 
0.22887 0.15374 0.033058 0.026317 0.018589 0.0014903 0.16426 0.12151 
0.12118 -0.058356 -0.049149 -0.036983 -0.015938 -0.038956 0.088301 0.026481 
0.020727 0.0026412 -0.063618 -0.064275 -0.030077 -0.017746 -0.07003 -0.076771 
-0.10127 0.147 -0.0072237 -0.0011404 -0.0095255 1.0539e-005 -0.072989 -0.093376 
-0.061809 0.43176 0.06594 0.086821 0.022206 0.063803 -0.02646 -0.043395 
0.086163 0.70732 0.18481 0.088794 0.055911 0.080738 0.04358 0.05213 
0.23035 0.78986 0.23874 0.12398 0.044567 0.031249 0.016452 0.099645 
0.29431 0.55639 0.17676 0.067091 0.023686 -0.051122 -0.075949 0.039634 
0.21654 0.19747 0.062817 0.01826 0.0044497 -0.056712 -0.14139 -0.099624 
0.06183 -0.034845 0.035688 -0.01676 -0.0050863 -0.081539 -0.092226 -0.14023 
-0.054246 -0.17147 0.02122 0.019083 -0.006566 -0.10752 -0.1473 -0.15717 
-0.18249 -0.33539 0.0054362 0.013986 0.017767 -0.061973 -0.15273 -0.17279 
-0.22737 -0.51 -0.099953 0.012999 0.051472 0.059693 -0.05178 -0.085156 
-0.16161 -0.60026 -0.17164 -0.013965 0.038977 0.12036 0.058049 0.01267 
-0.010512 -0.4878 -0.13464 -0.014787 0.014972 0.098166 0.1128 0.12299 
0.14864 -0.13711 0.026974 0.01152 0.04506 0.070873 0.12102 0.11642 
0.1396 0.23233 0.10063 0.041114 0.048513 0.042923 0.15374 0.095371 
0.07449 0.63991 0.18218 0.043745 0.046704 0.045553 0.17051 0.12233 
0.11773 0.80021 0.1756 0.059857 0.0069159 0.049992 0.14009 0.15259 
0.069558 0.48289 0.12349 0.010204 0.0031344 0.045224 0.037332 0.096357 
-0.069372 -0.16851 -0.060165 -0.0090322 0.012506 0.025824 0.028947 0.069229 
-0.18265 -0.71798 -0.11722 0.0051074 0.028454 0.014972 -0.013965 0.047526 
-0.19285 -0.88684 -0.082361 0.055747 0.03536 0.016123 -0.06707 -0.067728 
-0.061316 -0.6024 -0.011827 0.040621 0.0324 0.027468 -0.086964 -0.12462 
0.14009 -0.026624 0.0023123 0.040128 0.034702 0.020891 -0.073811 -0.10094 
0.19879 0.36616 0.018589 0.049335 0.015137 0.0062583 -0.0080457 -0.078415 
0.099974 0.42732 0.031907 0.031742 0.015137 0.019576 0.040456 0.024673 
0.055747 0.37323 0.069064 0.016781 0.027632 0.036346 0.097015 0.095371 
0.16771 0.33805 0.073339 0.043251 0.040785 0.081067 0.14963 0.14157 
0.27162 0.26521 0.12332 0.094384 0.045224 0.072846 0.14897 0.10376 
0.28346 0.17429 0.12792 0.086821 0.033715 0.052787 0.068736 0.057555 
0.22657 0.064132 0.10359 0.023851 0.013657 0.018096 -0.045203 -0.010841 
-0.0078813 -0.2185 -0.028104 -0.017746 0.017274 -0.0138 -0.096665 -0.081374 
-0.31583 -0.55423 -0.14402 -0.01676 0.0034632 0.0023123 -0.087129 -0.11196 
-0.51987 -0.70927 -0.18545 -0.052766 -0.0049219 -0.033365 -0.05589 0.012177 
-0.52841 -0.67195 -0.13547 -0.0036066 0.01974 -0.02498 0.057391 0.17544 
-0.32109 -0.43651 -0.047834 0.03092 0.052459 0.030592 0.18843 0.22772 
0.065776 0.053281 0.087479 0.087808 0.064625 0.088794 0.23381 0.17199 
0.37783 0.48026 0.16212 0.0786 0.047362 0.059857 0.12644 0.1419 
0.44261 0.50969 0.15785 0.048513 0.016616 -0.0067304 -0.067235 0.021549 
0.29924 0.27688 0.10672 0.012506 0.026974 -0.031557 -0.18726 -0.096665 
0.13713 0.071366 0.027961 0.044896 0.026974 -0.0052507 -0.18035 -0.16292 
0.0041209 -0.099789 -0.032872 0.037004 0.031578 0.020398 -0.11853 -0.10357 
-0.14418 -0.16769 -0.045368 0.01826 0.020069 0.044402 -0.051944 -0.027282 
-0.1672 -0.25335 -0.035832 0.024179 0.0088889 0.082382 0.074819 0.058706 
-0.16276 -0.2277 -0.043724 0.033222 0.033715 0.08978 0.21885 0.15012 
-0.093212 -0.12955 -0.031228 0.018754 0.01415 0.06594 0.21786 0.22427 
-0.040271 -0.094527 0.005765 -0.015938 0.0036276 0.0013258 0.08304 0.16081 
0.0018191 -0.033859 0.046375 0.01563 0.0080668 -0.021034 -0.084498 0.11313 
0.11773 0.14831 0.045224 0.04506 0.020069 -0.034188 -0.14698 0.0070803 
0.26784 0.33344 0.076134 0.041936 0.014315 -0.034188 -0.088115 -0.022514 
0.26307 0.28182 0.031249 0.016781 0.029276 -0.021034 0.0047785 -0.029584 
0.1664 0.072846 0.036182 0.041278 0.041278 -0.00031829 0.10096 0.045718 
0.03388 -0.046354 0.021878 0.050157 0.06331 0.021384 0.057391 0.051308 
-0.12182 -0.10719 0.054267 0.0592 0.030592 0.012999 -0.0047575 0.019905 
-0.22441 -0.16276 0.032893 0.051636 0.034702 0.0087245 0.050979 0.018754 
-0.22737 -0.10225 0.021878 0.047197 0.024015 0.042758 0.12464 0.069886 
-0.16703 0.060022 -0.0070593 0.025495 0.0060938 0.061995 0.15735 0.064954 
-0.016595 0.22526 -0.0060728 0.019247 0.020562 0.050486 0.11362 0.071695 
0.2662 0.43324 0.071531 0.0092177 0.044073 0.07301 0.032564 0.056898 
0.43702 0.55885 0.14881 0.087643 0.065283 0.038648 0.014479 0.09422 
0.37389 0.48684 0.11888 0.072517 0.060844 0.047362 0.035688 0.049499 
0.26883 0.33903 0.14683 0.069722 0.039141 0.024179 0.05624 0.05772 
0.22411 0.2708 0.12464 0.075805 0.058542 0.030427 0.05476 0.049499 
0.17133 0.18004 0.12809 0.08715 0.062488 0.016616 -0.018568 0.018754 
0.068407 0.03388 0.074654 0.019576 0.022206 -0.018733 -0.083018 -0.030077 
0.021384 0.0079024 0.03651 -0.030899 -0.03057 -0.089759 -0.096007 -0.02087 
-0.041257 -0.077922 -0.03912 -0.040764 -0.021034 -0.05589 -0.026789 0.011848 
-0.14796 -0.29232 -0.1085 -0.025967 0.0039565 0.0026412 0.066105 0.023193 
-0.26174 -0.35216 -0.14089 -0.02646 0.039634 0.048348 0.091753 -0.027775 
-0.3127 -0.21143 -0.10439 -0.028433 0.051965 0.066434 0.075312 -0.047998 
-0.33704 -0.0091966 -0.047341 0.0092177 0.023357 0.030098 0.027139 -0.082525 
-0.26026 0.27902 0.067091 0.065447 0.025824 0.028783 0.051472 -0.027775 
-0.015773 0.51512 0.14881 0.044896 0.038319 0.031085 0.17084 0.030756 
0.21342 0.53732 0.14272 0.045553 0.017767 0.028619 0.24088 0.13976 
0.30993 0.31075 0.072188 0.035853 0.013986 0.0064227 0.22098 0.17314 
0.30418 0.01563 0.04654 0.027961 0.021384 0.038648 0.17971 0.10408 
0.28658 -0.059507 0.10145 0.032564 0.05624 0.042923 0.16081 0.089452 
0.22493 -0.1108 0.099152 0.057062 0.03092 0.040785 0.084026 0.13845 
0.10606 -0.16786 0.038977 0.051965 0.027139 -0.016102 -0.12757 0.13236 
-0.061151 -0.16079 -0.033201 0.043251 0.020069 -0.093212 -0.37551 0.0072447 
-0.12297 0.080902 -0.0049219 -0.012485 0.034537 -0.07003 -0.33375 -0.14829 
-0.023829 0.54915 0.058871 0.031414 0.031907 0.022371 -0.054575 -0.17394 
0.093233 0.75878 0.10819 0.051308 0.058049 0.11263 0.13039 -0.13234 
0.11872 0.76322 0.14404 0.035524 0.023357 0.073504 0.12595 -0.025638 
0.17199 0.62725 0.16393 0.024179 0.051308 0.050814 0.015465 0.023522 
0.14174 0.19813 0.036675 -0.0044286 -0.0027845 -0.0050863 -0.10094 0.072681 
-0.029748 -0.28706 -0.018568 0.019411 0.0070803 -0.0032777 -0.076935 0.058871 
-0.16473 -0.69677 -0.059343 0.0075736 0.012999 0.026317 -0.00064712 0.069886 
-0.18808 -0.71371 -0.010019 0.017274 0.035688 0.046211 0.11362 0.036346 
-0.055561 -0.32783 0.011191 0.050486 0.0036276 0.052459 0.16656 0.047855 
0.051472 0.029605 0.093233 0.072353 0.030592 0.049828 0.16294 0.024015 
0.060186 0.082546 0.10162 0.045389 0.041607 0.038648 0.085341 -0.011334 
0.0083956 -0.017911 0.068736 0.0098754 0.034373 0.01974 -0.012978 -0.0503 
0.024508 -0.13267 -0.035996 0.004943 -0.025967 -0.0014692 -0.080717 -0.065426 
0.1391 -0.24332 -0.091075 0.00033937 -0.020048 -0.028762 -0.05737 -0.029748 
0.25025 -0.28623 -0.071181 0.0023123 0.0051074 -0.031886 -0.03912 0.020891 
0.22213 -0.11311 0.0082312 0.027796 0.01974 -0.01117 -0.028104 0.028783 
0.16804 0.21572 0.041936 0.07597 0.045553 0.031578 0.046046 0.049828 
0.14091 0.51676 0.071202 0.090438 0.057555 0.054103 0.087972 0.059693 
0.1493 0.56855 0.076956 0.067913 0.051308 0.063803 0.1174 0.090603 
0.093233 0.47665 0.091589 0.025495 0.057884 0.043416 0.049499 0.091753 
-0.023829 0.30714 0.066105 0.044238 0.020562 0.026152 -0.014293 0.065612 
-0.23494 0.077943 0.042758 0.018589 0.012177 0.015137 -0.050958 0.024015 
-0.45114 -0.22425 0.018918 -0.022185 -0.0040998 0.0067515 -0.066084 -0.016595 
-0.44736 -0.42303 0.02829 -0.019719 -0.0044286 -0.020212 -0.095678 -0.079566 
-0.27867 -0.4176 0.0013258 0.022042 0.00083261 -0.012814 -0.040435 -0.088444 
-0.15224 -0.4421 -0.031721 0.01826 0.0021479 0.0036276 -0.030735 -0.10653 
0.061008 -0.34427 -0.03912 0.0085601 -0.0021268 0.034044 -0.012485 -0.064604 
0.34791 -0.064604 0.0044497 0.024344 0.045389 0.071037 0.0044497 -0.030242 
0.45971 0.2708 0.055911 0.064954 0.020562 0.081724 0.023851 0.023851 
0.43669 0.40907 0.1054 0.070873 0.0324 0.054432 -0.011827 0.0070803 
0.30977 0.28642 0.10145 0.064625 0.048348 0.014808 -0.10883 0.0098754 
0.19764 0.13943 0.12085 0.025001 0.047033 -0.0096899 -0.1016 0.032564 
0.15505 0.046375 0.060679 0.032071 0.013986 0.024015 0.064461 0.074161 
0.00050378 -0.15092 -0.072496 -0.014787 0.020891 0.046046 0.20619 0.076792 
-0.22129 -0.37469 -0.15964 -0.034188 0.032564 0.032071 0.2491 0.075312 
-0.32652 -0.47893 -0.18857 -0.048327 0.035853 0.01267 0.22986 0.10935 
-0.3035 -0.48863 -0.1575 0.013492 0.021549 0.046211 0.26784 0.2126 
-0.20962 -0.45147 -0.10653 0.05476 0.052623 0.076792 0.19665 0.27836 
-0.10752 -0.30613 -0.028269 0.077943 0.039634 0.0047785 -0.090746 0.13549 
0.014479 -0.019884 0.048019 0.093726 0.024673 -0.096665 -0.35216 -0.074962 
0.12365 0.18119 0.10819 0.057227 -0.0032777 -0.11393 -0.30514 -0.11113 
0.083204 0.14913 0.075148 0.018589 0.065447 -0.041257 -0.026296 -0.065426 
0.062488 0.16278 0.054103 0.01004 0.036017 0.091589 0.18678 0.0034632 
0.086821 0.31075 0.1031 0.05213 0.016781 0.089616 0.24334 0.11231 
0.069886 0.41187 0.093398 0.039141 0.040292 0.075148 0.1641 0.12546 
0.037004 0.27392 0.048348 -0.012156 0.049664 0.075148 0.079587 0.049499 
-0.071674 0.069886 0.0067515 0.0046141 0.02533 0.03388 0.022371 -0.054246 
-0.11048 0.02533 -0.0032777 0.026481 0.035524 0.034702 0.0090533 -0.05737 
-0.076113 0.10639 0.031907 0.01711 0.0011614 0.0011614 0.0028056 -0.039778 
-0.033201 0.18498 0.024015 -0.012485 -0.00015387 -0.017253 0.024344 -0.0068948 
-0.020706 0.13121 0.029112 -0.0021268 0.014315 -0.026296 0.047691 0.021384 
0.042265 -0.026953 -0.021034 0.025166 0.016288 -0.01232 -0.0060728 0.036839 
0.095206 -0.19235 -0.033037 0.019083 0.013164 0.010533 -0.068221 0.031085 
0.12085 -0.23773 -0.076771 0.021713 0.010862 0.033551 -0.038791 0.074326 
0.16245 -0.068386 -0.0050863 0.043909 0.059857 0.036017 0.038977 0.12464 
0.20323 0.15111 0.063145 0.076134 0.071531 0.038648 0.092082 0.19139 
0.093562 0.10408 0.12661 0.081231 0.050486 0.012835 0.10162 0.15604 
-0.0057439 -0.016595 0.081724 0.050814 0.039799 0.036182 0.090109 0.12858 
0.0018191 0.027961 0.045718 0.042594 0.049992 0.048348 0.081067 0.07449 
0.013821 0.12414 0.0090533 0.056076 0.067091 0.022864 0.049006 0.0093821 
-0.015116 0.16262 0.028454 0.026481 0.044567 0.021878 0.020562 -0.050793 
-0.044381 0.12151 0.031414 0.048841 0.045882 0.021384 0.034866 -0.035996 
-0.0013048 0.1128 0.050321 0.042594 0.03536 0.0085601 0.031249 -0.018733 
0.043087 0.14026 0.035688 0.023357 0.031907 0.0014903 0.018918 0.060186 
0.063968 0.17873 0.040621 0.0018191 0.0051074 -0.010676 0.0013258 0.055747 
0.06479 0.26373 0.021056 -0.00097594 0.010862 0.011026 -0.052437 0.047197 
0.1151 0.42601 0.052787 0.037661 0.016288 0.015137 -0.020048 0.011026 
0.21013 0.55754 0.11083 0.078107 0.04095 0.036346 -0.026296 0.033387 
0.26554 0.51528 0.12283 0.053774 0.03388 0.05476 0.027139 0.082711 
0.22805 0.2366 0.092904 0.043087 0.029934 0.080573 0.099316 0.15604 
0.11099 -0.12396 0.042758 0.033058 0.034702 0.073997 0.13401 0.1105 
0.065776 -0.34345 0.041278 0.060679 0.05624 0.063803 0.13154 0.087972 
0.042265 -0.42451 0.049664 0.0024767 0.042429 0.04654 0.057555 0.01152 
0.017274 -0.35578 0.037661 0.037004 0.023522 0.025824 -0.095021 -0.049314 
-0.010348 -0.12609 0.051801 0.034866 0.017932 -0.015116 -0.16868 -0.13612 
-0.090746 0.12957 0.080244 0.057227 0.025659 -0.053917 -0.13349 -0.16769 
-0.13185 0.23825 0.10129 0.011026 0.0064227 -0.047012 -0.02498 -0.1256 
-0.035667 0.36731 0.091918 0.0093821 -0.0036066 -0.014293 0.066598 -0.010841 
0.063639 0.55984 0.085506 0.020562 0.011684 0.04506 0.10622 0.086492 
0.14042 0.74957 0.12036 0.049335 0.046375 0.047691 0.08715 0.14996 
0.27721 0.86861 0.13319 0.040128 0.043909 0.035524 -0.021199 0.12908 
0.34248 0.78295 0.1054 0.010533 0.014643 0.022864 -0.029913 0.059035 
0.2269 0.55573 0.092082 0.032564 0.010697 0.032564 -0.0060728 -0.017417 
0.046375 0.3438 0.083368 0.029441 0.027632 0.039141 0.0013258 -0.063453 
-0.1358 -0.064275 0.03651 0.0065871 0.01415 0.048841 0.028619 -0.071181 
-0.22195 -0.60059 -0.039778 -0.019719 -0.010676 0.031085 0.077778 -0.064768 
-0.20057 -1.0746 -0.17624 0.005765 0.0092177 0.037168 0.069393 -0.039284 
-0.052437 -1.1534 -0.13941 0.068078 0.074654 0.068571 0.029112 0.049006 
0.014808 -0.83126 0.0098754 0.076956 0.063968 0.086163 0.048184 0.085999 
-0.06444 -0.4199 0.10606 0.054267 0.057227 0.054432 -0.025145 0.10293 
-0.19761 -0.21258 0.028947 0.053445 0.012013 -0.022021 -0.10702 -0.006566 
-0.22145 -0.08269 -0.0095255 -0.010183 -0.00097594 -0.049478 -0.11738 -0.046025 
-0.092226 0.28872 0.028947 -0.019061 -0.02498 -0.026624 0.058542 -0.021692 
0.12053 0.78706 0.083862 -0.026624 -0.01676 0.035853 0.23249 0.075312 
0.32128 0.90741 0.11757 0.026481 -0.004593 0.04654 0.29744 0.10918 
0.36008 0.68743 0.14387 0.042429 0.018589 0.073175 0.29004 0.12957 
0.17314 0.30155 0.12957 0.042758 0.014972 0.072681 0.091753 0.063803 
-0.030406 0.042429 0.12414 0.038155 0.020562 0.017767 -0.082196 -0.0014692 
-0.1307 -0.044546 0.062981 0.052459 -0.0016336 -0.0014692 -0.14254 -0.025967 
-0.10012 -0.062138 0.024344 0.023522 0.01974 -0.0031133 -0.10028 0.0024767 
0.00099702 -0.024323 0.01004 0.028783 0.019905 0.00050378 -0.057699 0.0034632 
0.04917 0.056733 0.031085 0.0031344 0.0021479 0.012506 -0.032543 0.015301 
0.025166 -0.028597 -0.016924 0.011355 -0.0027845 0.005765 -0.014787 0.020727 
-0.010512 -0.14961 -0.035338 -0.025474 0.014315 0.023028 -0.0021268 0.030263 
-0.032379 -0.27736 -0.051944 -0.017088 0.0075736 0.0060938 0.0059294 0.00033937 
-0.075127 -0.29988 -0.023665 0.035524 0.014479 0.019247 0.041114 0.037826 
-0.043559 -0.21471 -0.041422 0.060515 0.038319 0.036839 0.082217 0.06742 
-0.029091 -0.065262 -0.038791 0.057884 0.061501 0.0324 0.10458 0.041772 
0.00099702 -0.0077169 0.0028056 0.062981 0.052952 0.075148 0.066434 -0.012814 
0.0069159 0.0026412 0.0070803 0.054925 0.016781 0.037826 0.0080668 -0.033365 
-0.017746 -0.062631 -0.038956 0.010533 0.016945 0.029605 -0.0029489 -0.048492 
-0.043066 -0.14993 -0.030077 -0.016595 0.029441 0.036839 0.084848 -0.021528 
-0.0036066 -0.1187 -0.039613 -0.01528 0.0227 0.030592 0.11987 -0.029748 
0.035524 -0.17065 -0.0032777 0.010533 0.024508 0.048841 0.24564 0.012013 
-0.018404 -0.18956 -0.068714 -0.014129 0.0036276 0.032729 0.36287 0.13121 
-0.06444 -0.16259 -0.062631 0.012835 0.020398 0.01826 0.31421 0.20553 
-0.0771 -0.077757 0.017767 0.028454 0.029441 0.033387 0.20668 0.19237 
0.028947 0.031742 0.082875 0.082382 0.043909 -0.0047575 0.01004 0.16722 
0.18152 0.063639 0.09422 0.063639 0.035524 -0.019061 -0.30695 0.019576 
0.22411 0.089287 0.063968 0.059035 0.04917 -0.060987 -0.5539 -0.18841 
0.20405 0.15242 0.086492 0.10228 0.03092 -0.018075 -0.44489 -0.26815 
0.22164 0.24285 0.10343 0.10918 0.055747 0.025824 -0.19597 -0.073811 
0.24071 0.3752 0.045224 0.055747 0.029934 0.090274 0.016452 0.16656 
0.21375 0.2297 0.034044 0.022371 0.040128 0.079422 0.17626 0.35136 
0.074983 -0.010841 0.0011614 0.025495 0.045553 0.057391 0.21539 0.36353 
-0.0868 -0.28525 -0.032215 0.03388 0.030098 0.020069 0.24236 0.1858 
-0.20929 -0.37304 -0.025145 0.0037921 0.018918 -0.0039354 0.17495 0.033387 
-0.18265 -0.1598 -0.013636 0.0059294 0.018754 -0.0022913 0.07449 -0.055232 
-0.12215 0.16541 0.059528 0.0013258 0.024508 0.010204 0.052459 -0.098967 
-0.014129 0.37011 0.069393 0.028619 0.0095465 0.028619 -0.0034422 -0.19515 
0.13401 0.41318 0.040128 0.0013258 0.0044497 0.0054362 -0.0039354 -0.2397 
0.26998 0.27491 -0.0078813 0.013657 0.027303 0.032071 -0.0040998 -0.15996 
0.27376 0.13516 -0.037311 0.011191 0.031907 0.040292 0.11329 0.0062583 
0.16541 0.017932 -0.023501 0.01267 0.026974 0.0421 0.147 0.13006 
0.080409 -0.020541 0.022535 0.02122 0.025659 -0.0049219 0.051965 0.19764 
0.066105 -0.086142 0.027139 0.010862 0.038155 -0.025474 0.021056 0.19829 
0.05624 -0.18463 0.026317 0.036675 0.031414 -0.004593 0.016123 0.18563 
0.026317 -0.36334 -0.01117 0.025495 0.032893 0.021549 0.052459 0.18498 
-0.072989 -0.35331 0.036675 0.046211 0.04917 0.040785 0.048019 0.10606 
-0.10373 -0.087951 0.068407 0.061172 0.058377 0.046375 0.049335 -0.0068948 
-0.049807 0.13664 0.084684 0.063968 0.025495 -0.018404 -0.086142 -0.1108 
-0.0024557 0.22394 0.099481 0.053445 0.0067515 -0.11343 -0.3663 -0.15931 
0.082711 0.29464 0.11198 0.049006 0.012835 -0.14648 -0.57577 -0.12149 
0.12908 0.36896 0.032071 0.024179 0.024508 -0.078908 -0.40099 -0.064933 
0.13631 0.3119 -0.026624 0.05065 0.01711 0.016781 -0.055232 0.053609 
0.072024 0.19599 -0.028269 0.020398 0.018096 0.034044 0.13351 0.07301 
0.058049 0.19172 0.040292 -0.0039354 0.036182 0.045389 0.17692 0.088958 
0.04654 0.23479 0.06035 0.01152 0.038812 0.067749 0.19106 0.031742 
0.022864 0.23742 0.10918 0.068242 0.022042 0.066598 0.21128 0.027303 
-0.00015387 0.1225 0.096521 0.020233 0.011026 0.058213 0.22296 0.041936 
0.0065871 -0.098473 0.095864 0.01826 0.026646 0.025659 0.2223 0.061008 
0.036839 -0.21784 0.015301 -0.0031133 0.028619 0.038483 0.27425 0.12579 
0.041936 -0.20682 -0.024323 0.022371 0.018589 0.044402 0.24597 0.16886 
0.0065871 -0.090088 0.00297 -0.0014692 0.0093821 0.040292 0.13335 0.1105 
-0.076935 -0.009361 0.04917 -0.012814 0.0059294 0.00050378 -0.049149 -0.028433 
-0.1598 0.10589 0.0227 -0.008539 0.0032988 -0.039284 -0.20255 -0.21373 
-0.11475 0.28658 0.068407 0.018754 0.0023123 -0.048492 -0.27193 -0.20879 
-0.017253 0.39033 0.10392 0.044402 0.02681 -0.019884 -0.24135 -0.1284 
-0.028926 0.31486 0.097344 0.034866 0.031742 0.025824 -0.17591 0.012999 
-0.01232 0.25913 0.055418 0.0095465 0.020727 0.05772 -0.045532 0.074819 
0.092247 0.17741 0.026152 0.043416 0.034537 0.033715 0.031249 0.11411 
0.13927 0.11198 0.016616 0.026974 0.026646 0.031414 0.03536 0.053445 
0.071695 -0.008539 0.043087 0.033058 -0.019719 -0.0042642 0.072353 0.051472 
0.083697 -0.071509 0.070215 0.052459 0.037497 0.035853 0.1008 0.034209 
0.076956 -0.017582 0.016452 0.042923 0.023851 0.038483 0.13121 0.057391 
0.055418 -0.03764 -0.0095255 0.024837 0.018425 0.053938 0.1276 0.052787 
-0.047505 -0.16506 -0.018897 0.025988 0.023522 0.038483 0.10293 0.042923 
-0.13662 -0.20781 0.0098754 0.049335 0.049828 0.029934 0.078272 -0.0050863 
-0.084005 -0.057534 0.032564 0.045553 0.054103 0.046211 0.052952 0.023028 
0.035195 0.20783 0.087314 0.04506 0.027468 0.058213 0.033058 0.0095465 
0.11757 0.39691 0.11214 0.034702 0.034209 0.047362 0.024673 0.017438 
0.14913 0.39049 0.12233 0.052623 0.044567 0.032071 0.026646 0.00083261 
0.14272 0.25617 0.058377 0.025824 0.020069 0.020398 0.015959 0.012177 
0.097508 0.11757 0.03799 -0.024487 0.016781 0.0021479 0.047033 0.014808 
0.075805 0.052787 0.072353 0.019905 0.026646 0.019905 0.039963 0.040621 
0.067256 0.087808 0.10129 0.022535 0.059364 0.029934 0.035853 0.043087 
0.082382 0.085999 0.05476 0.024673 0.049828 0.063474 0.040128 0.01711 
0.029276 0.028125 0.036346 -0.018075 0.016288 0.057884 0.038812 1.0539e-005 
-0.046683 -0.033365 0.019247 0.011848 0.022042 0.0095465 0.049499 0.029276 
-0.053917 -0.095185 0.015465 0.037826 0.023851 0.018425 0.073668 0.031085 
-0.050958 -0.080881 -0.049478 0.02122 0.027139 0.012506 0.082546 0.052787 
-0.044217 -0.080059 -0.06148 0.014315 0.0083956 0.036675 0.09833 0.12842 
-0.07003 -0.084498 -0.063618 0.0046141 0.012177 0.023193 0.12316 0.1853 
-0.18397 -0.1284 -0.038462 0.025659 0.035524 0.025495 0.090931 0.088794 
-0.24776 -0.24645 -0.029091 0.026974 0.066269 0.056898 -0.0039354 -0.045368 
-0.098638 -0.22573 -0.014622 0.03092 0.064296 0.031249 -0.062138 -0.11048 
0.12628 -0.098144 0.049664 0.056404 0.05772 0.005765 -0.041422 -0.048492 
0.35942 0.15851 0.11674 0.082546 0.062159 0.041278 -0.0059084 -0.008539 
0.40792 0.3221 0.12431 0.034209 0.045882 0.066269 0.028125 0.062652 
0.30549 0.29086 0.054596 0.028783 0.0083956 0.04358 0.047855 0.044731 
0.16837 0.21654 0.01826 0.020233 0.027303 0.027961 0.061337 0.084355 
0.044402 0.14404 0.03799 0.016123 0.029441 0.043251 0.081067 0.09126 
-0.018568 0.15752 0.023357 0.025988 0.042429 0.041443 0.10622 0.075148 
-0.044381 0.13664 -0.0032777 -0.0011404 0.0028056 0.020891 0.080573 0.023028 
-0.080388 0.03536 -0.0034422 0.018425 0.0069159 0.009711 0.064296 -0.036818 
-0.13875 -0.1381 0.025659 -0.0042642 0.0021479 -0.014951 0.060515 -0.057699 
-0.15832 -0.27785 0.013492 0.0026412 0.017274 0.00066819 0.062488 -0.028597 
-0.085156 -0.31616 -0.012814 -0.00015387 -0.012978 0.0079024 0.017438 0.0051074 
0.045882 -0.25943 -0.015938 0.041607 0.019411 0.011848 0.019905 0.10836 
0.15226 -0.086307 0.023851 0.049664 0.10458 0.022535 -0.004593 0.17182 
0.13384 0.11674 0.029769 0.040621 0.051308 0.0062583 0.00066819 0.085012 
0.013821 0.21885 0.011684 0.091096 -0.0019624 -0.060165 -0.051451 -0.017746 
-0.056055 0.24729 0.048184 0.083533 0.031907 -0.020706 -0.023007 -0.010841 
-0.12823 0.21967 0.04917 0.042429 0.036182 0.010533 0.086492 -0.027611 
-0.10439 0.033715 0.019576 0.023851 0.042758 0.069229 0.12431 0.024837 
-0.024158 -0.21932 -0.029091 0.027961 0.042429 0.03947 0.095042 0.03799 
0.067749 -0.24858 -0.042737 0.048019 0.059035 0.019247 0.029112 0.049006 
0.19533 -0.061809 0.014643 0.031907 0.032071 0.046868 0.036182 0.043416 
0.25222 0.096357 0.062159 0.025988 0.0324 0.050486 0.01826 0.069229 
0.17971 0.13236 0.052787 0.02122 0.01267 0.048841 -0.014293 0.038648 
0.06479 0.017438 0.039305 0.011191 -0.016266 0.0039565 -0.072825 -0.031886 
0.009711 -0.12462 -0.00064712 -0.018075 -0.014293 -0.0054151 -0.076442 -0.019555 
0.0054362 -0.21998 -0.025145 0.01152 -0.008539 -0.0057439 -0.018733 0.0092177 
-0.045039 -0.21044 -0.036654 0.042429 0.0051074 0.016452 0.067913 0.058049 
-0.016431 0.035031 0.03388 0.052294 0.01004 0.044073 0.15292 0.043745 
0.0064227 0.21112 0.076627 0.03799 0.013328 0.035524 0.17462 0.019576 
-0.045039 0.19566 0.10441 0.041772 0.031907 0.011355 0.089123 -0.020212 
-0.088444 0.14174 0.049828 0.034044 -0.012156 -0.032215 -0.0055795 -0.039942 
-0.13267 0.024179 -0.0078813 0.030427 0.025495 -0.021856 -0.10669 -0.042901 
-0.1358 -0.10554 -0.054739 0.013328 0.038319 -0.034681 -0.1427 0.025495 
0.018425 -0.10373 -0.023336 0.027303 0.044073 -0.052273 -0.18545 0.069229 
0.18004 0.024837 0.00083261 0.059528 0.046375 -0.0090322 -0.10521 0.08978 
0.23759 0.16558 0.038648 0.047197 0.03947 0.050321 0.049499 0.09126 
0.23693 0.27113 0.095371 0.042594 0.048184 0.072353 0.12118 0.09274 
0.22312 0.37619 0.13812 0.030592 0.052952 0.078929 0.063145 0.029276 
0.24236 0.40677 0.11872 0.058213 0.0052718 0.050979 0.03651 0.0095465 
0.16985 0.3221 0.077943 0.024015 0.007738 0.030263 0.054267 -0.0024557 
0.015959 0.14223 0.023522 0.017603 -0.0019624 0.01826 0.047362 0.0051074 
-0.084334 -0.01117 0.00066819 -0.00064712 0.014808 0.0082312 0.074983 -0.0004827 
-0.12642 0.012999 0.01826 0.051636 0.010862 0.034702 0.075312 0.039305 
-0.10242 -0.00015387 0.020727 0.034866 0.0324 0.021056 0.07038 0.045553 
-0.1889 -0.11985 0.050321 0.050321 0.040785 0.0067515 0.014643 0.016781 
-0.21882 -0.16917 0.047526 0.067091 0.046704 0.0054362 -0.087293 -0.021034 
-0.14089 -0.089595 0.016945 0.064296 0.033222 0.0031344 -0.11015 -0.028597 
-0.0052507 -0.033037 0.0023123 0.01711 0.012999 0.022206 -0.073482 -0.032379 
0.12858 -0.064111 0.022206 0.01004 0.037661 0.062981 0.012506 0.049006 
0.20964 -0.0042642 0.075148 0.029934 0.043251 0.086328 0.083533 0.077285 
0.21737 0.244 0.10376 0.054432 0.033387 0.081067 0.071366 0.024837 
0.17824 0.47533 0.090767 0.037497 0.021384 0.026974 0.027139 -0.019719 
0.13812 0.45264 0.063803 0.011355 -0.0055795 -0.011992 0.088958 0.18185 
0.10441 0.29875 0.094713 0.013986 0.0031344 -0.0078813 0.232 0.27179 
0.12217 0.15604 0.069229 0.0037921 0.043745 0.047197 0.1687 0.28264 
0.14815 0.09274 0.047033 0.0036276 0.01415 0.026152 -0.0062372 0.069558 
0.073997 -0.055397 -0.0055795 0.022371 0.041936 -0.0059084 -0.22343 -0.080223 
-0.017253 -0.21077 -0.040764 0.058377 0.086163 0.014643 -0.2596 -0.1284 
-0.11886 -0.31057 -0.047012 0.049828 0.029769 0.034866 -0.10998 -0.050136 
-0.11837 -0.2813 -0.026789 0.052459 0.034044 0.016288 0.012177 -0.018568 
-0.030242 -0.14632 0.041607 0.066763 0.043087 -0.016431 0.070708 0.053609 
0.020069 0.13236 0.10507 0.063145 0.038977 -0.006566 0.046704 0.051308 
0.060186 0.29365 0.10704 0.00066819 -0.0068948 0.0072447 -0.0013048 0.05213 
0.020069 0.21326 -0.0052507 -0.013636 -0.0138 0.021713 0.026481 -0.013471 
0.029441 0.14519 0.0046141 -0.0021268 0.01152 0.060679 0.11658 0.012506 
0.055582 0.10704 0.06035 0.063803 0.052952 0.11378 0.22082 0.0079024 
-0.096829 -0.011663 0.077449 0.030756 0.030098 0.10425 0.26389 -0.0060728 
-0.25697 -0.13843 -0.0070593 -0.021692 0.0024767 0.088136 0.21062 -0.010019 
-0.19959 0.014315 0.023522 0.0060938 0.0047785 0.053281 0.10326 0.016123 
0.0047785 0.21572 0.067091 0.049006 0.0088889 -0.027282 -0.058521 0.062323 
0.16163 0.22016 0.10326 0.012342 -0.00031829 -0.08384 -0.21438 0.11855 
0.22493 0.11198 0.044731 -0.021199 0.0072447 -0.090253 -0.17279 0.11296 
0.27705 0.026481 -0.0067304 0.0095465 0.026481 -0.036983 -0.07414 0.14683 
0.27491 0.035688 0.0227 0.056076 0.071695 0.049006 0.059364 0.15966 
0.1659 0.020562 0.05065 0.055254 0.060186 0.072846 0.1054 0.1054 
-0.041586 -0.063782 0.012835 0.030427 0.044402 0.06594 0.056569 -0.0027845 
-0.22063 -0.1575 0.00066819 0.031907 0.044238 0.040128 1.0539e-005 -0.055397 
-0.27538 -0.2009 0.03536 0.048019 0.05772 0.029769 -0.008539 -0.076935 
-0.18052 -0.21751 0.058377 0.055582 0.027303 0.025659 -0.050958 -0.065919 
-0.033365 -0.21817 0.017932 0.026481 0.0095465 -0.0032777 -0.069865 -0.078579 
0.047855 -0.14089 0.042429 0.046375 0.01004 0.0090533 -0.037805 -0.023007 
0.092411 0.036017 0.027796 0.019411 0.021549 0.0026412 -0.018075 -0.01939 
0.16574 0.19977 0.057391 -0.00031829 0.01415 0.0014903 -0.069043 0.014808 
0.19418 0.23035 0.040785 0.029276 0.044567 0.021056 -0.1016 0.029605 
0.15982 0.23101 0.058871 0.071202 0.057227 0.01004 -0.064111 0.057555 
0.056404 0.20701 0.045553 0.051801 0.059693 0.0083956 0.0046141 0.054596 
-0.035667 0.01826 0.010204 0.016288 0.021878 0.032893 0.12661 0.04095 
-0.025638 -0.16095 -0.053588 -0.0052507 -0.0014692 0.040785 0.27031 -0.011827 
0.019083 -0.24858 -0.047669 0.026646 0.012342 0.042923 0.29776 0.016123 
0.040128 -0.26256 -0.036654 -0.011005 0.0032988 0.022535 0.25748 0.020233 
-0.011827 -0.20978 0.015794 -0.028104 -0.014293 -0.023829 0.15883 -0.021528 
-0.031064 -0.038956 0.0024767 -0.013471 -0.022514 -0.025967 0.14141 0.041607 
-0.0044286 0.18103 0.0074092 0.020398 -0.0004827 -0.0016336 0.11954 0.19747 
0.048677 0.30993 0.048677 0.03092 0.040292 0.090274 0.034537 0.24417 
0.026152 0.20158 0.078272 0.043909 0.038812 0.056404 -0.028269 0.10902 
0.020891 0.10425 0.065283 -0.0013048 0.04506 0.032893 -0.12527 -0.038956 
0.010204 0.24729 0.061501 0.026152 0.00066819 -0.028104 -0.16046 -0.069536 
0.070873 0.46168 0.11296 0.0021479 0.011355 -0.056877 -0.20452 -0.089924 
0.15653 0.51052 0.14963 0.042923 -0.0019624 0.063968 -0.09387 -0.093048 
0.15341 0.28198 0.10573 0.048513 0.048348 0.096193 0.097672 -0.021528 
0.093233 0.0016547 -0.013307 0.041443 0.064625 0.12513 0.17067 0.10376 
-0.069208 -0.31714 -0.10143 -0.0042642 0.044238 0.051308 0.11083 0.14009 
-0.29939 -0.4878 -0.14089 -0.012156 0.015959 -0.022843 -0.018568 0.031907 
-0.3303 -0.41612 -0.10012 0.03092 0.022042 -0.0064016 -0.086307 -0.066413 
-0.10324 -0.10817 -0.017417 0.076627 0.040128 -0.014458 -0.064275 -0.027611 
0.12858 0.088465 0.047362 0.04358 0.034373 -0.031064 -0.02498 0.004943 
0.1932 0.17643 0.10639 0.0032988 -0.022679 -0.03912 0.090767 0.022864 
0.13023 0.20142 0.12398 0.01711 -0.019226 -0.0047575 0.21523 0.028947 
0.098001 0.22559 0.096028 0.020069 0.0090533 0.049499 0.23611 0.042758 
0.12497 0.20339 0.055911 0.005765 0.034537 0.060022 0.15226 0.03388 
0.13878 0.13286 0.016452 0.01563 0.026317 0.035853 0.089123 0.09685 
0.15028 0.084355 0.00033937 0.053445 0.019576 0.021878 0.049992 0.10359 
0.13351 0.097344 -0.015773 0.02681 0.040128 0.050979 0.017438 0.091425 
0.13203 0.095864 -0.00015387 0.015465 0.075148 0.073832 0.064461 0.10737 
0.10869 0.10277 0.033222 0.032071 0.051143 0.087643 0.18267 0.10688 
0.076299 0.1345 0.081067 0.053609 0.052294 0.070708 0.17626 0.098494 
0.037661 0.089616 0.044896 0.030427 0.040621 0.046375 0.093562 0.031249 
-0.013636 -0.066413 0.045224 0.041114 0.043745 0.011684 0.027303 0.0041209 
-0.058028 -0.13991 0.01826 0.021878 0.013986 0.053281 -0.0055795 -0.055726 
-0.044381 0.087479 0.072517 0.051801 0.0227 0.049335 -0.082032 -0.11886 
0.0054362 0.34183 0.076956 0.022371 0.036017 0.015794 -0.15552 -0.1501 
0.027468 0.36468 0.05476 0.011848 -0.001798 -0.035503 -0.15076 -0.13251 
0.033058 0.16229 0.048841 -0.025474 -0.028762 -0.026624 -0.092883 -0.10045 
0.0034632 -0.032215 0.052294 0.014808 -0.034352 -0.0095255 0.0036276 0.033551 
-0.010019 -0.025309 0.033715 0.018589 0.012177 0.014643 0.0054362 0.18547 
0.023357 0.094384 0.034044 0.036675 0.022371 -0.03501 -0.096994 0.24795 
0.12973 0.18218 0.038155 0.061501 0.034044 -0.029913 -0.1016 0.25091 
0.17528 0.22608 0.068078 0.084355 0.051801 0.012999 0.014315 0.17281 
0.16525 0.17593 0.0227 0.045389 0.060022 0.066105 0.15423 0.083862 
0.093233 0.041278 0.0047785 0.051308 0.047033 0.082546 0.18596 0.024344 
0.034866 -0.088444 -0.0082102 0.054103 0.040292 0.058542 0.14881 -0.026789 
-0.044052 -0.19318 0.0069159 0.031085 -0.0042642 0.036346 0.07449 -0.039942 
-0.095678 -0.27374 -0.03616 0.024837 0.021384 0.056898 0.038155 -0.058685 
-0.061809 -0.20912 -0.014787 0.02829 0.021384 0.050486 0.0051074 0.0036276 
-0.085813 -0.092883 -0.021034 0.033715 0.0052718 0.039963 -0.025474 -0.046354 
-0.095185 -0.012978 -0.0039354 0.0088889 -0.037476 -0.028926 -0.061973 -0.0024557 
-0.013307 0.05772 0.017274 0.0088889 0.010204 -0.010512 -0.095185 -0.028597 
0.057062 0.20273 0.058706 0.018918 0.0421 0.0075736 -0.13103 -0.030899 
0.081231 0.32966 0.08156 0.062323 0.033715 0.0079024 -0.12856 -0.075784 
0.085177 0.2565 0.11 0.056733 0.030592 0.048513 -0.077428 -0.040928 
0.11231 0.041607 0.071859 0.043087 0.013821 0.0039565 -0.040271 0.0064227 
0.14552 -0.064111 0.075476 0.046211 0.032071 0.031578 0.0013258 0.073832 
0.14486 -0.0040998 0.068736 0.056898 0.026974 0.05476 0.059035 0.11329 
0.09274 0.12546 0.08008 0.037497 0.03799 0.051636 0.082711 0.12102 
0.06479 0.2468 0.043909 0.033058 0.052952 0.067091 0.042758 0.078107 
0.090931 0.19977 0.04654 0.047526 0.052459 0.026481 0.0018191 0.091096 
0.085506 0.096357 0.017438 0.061008 0.029934 -0.0034422 -0.010676 0.038812 
-0.0021268 0.0098754 0.00033937 0.01152 0.015465 -0.0022913 -0.017088 0.0070803 
-0.0044286 -0.075455 -0.013471 0.0092177 0.016288 0.027468 0.030427 -0.031392 
-0.017253 -0.049149 -0.010348 0.015137 0.038812 0.03947 0.021713 -0.01117 
0.0088889 -0.027611 0.01267 0.055418 0.033222 0.028783 0.027796 -0.0054151 
-0.027775 -0.024323 0.015301 0.025824 0.033387 0.033551 0.063803 0.019576 
-0.089759 -0.056055 0.019247 0.0019835 0.019411 0.034209 0.061501 0.0095465 
-0.12166 -0.109 -0.029091 0.010697 0.027303 0.033715 0.0065871 -0.0088678 
-0.1552 -0.26782 -0.020706 0.045718 0.01711 0.030756 0.02829 -0.0047575 
-0.10045 -0.39228 0.025824 0.046375 -0.0040998 -0.019555 0.012835 0.064132 
0.026152 -0.40543 0.033222 0.035031 0.01563 0.0016547 0.02829 0.04506 
0.097508 -0.29215 -0.00015387 0.01563 0.030263 0.025988 0.022371 0.034702 
0.11954 -0.075291 0.037004 0.057555 0.045882 0.022864 0.016288 0.023686 
0.1271 0.20471 0.10178 0.028454 0.037497 0.042594 0.029276 0.064954 
0.11428 0.38014 0.13549 0.030263 0.019247 0.032071 0.044073 0.021878 
0.03092 0.34594 0.13105 0.043909 0.046375 0.026481 0.061995 0.011026 
-0.0040998 0.32111 0.10589 0.022864 0.019411 0.021384 0.072846 0.034209 
-0.0049219 0.34199 0.082053 -0.015609 0.0014903 0.009711 0.067749 0.069064 
-0.056548 0.30648 0.067091 -0.018075 0.0014903 0.030592 0.068736 -0.013307 
-0.15092 0.28346 0.027796 0.0014903 0.019411 0.025495 0.055911 -0.034188 
-0.10669 0.2246 0.010697 0.02122 0.024179 0.035031 0.065118 -0.032215 
0.054103 0.0037921 0.025166 0.042265 0.046046 0.035853 0.11543 0.0059294 
0.16179 -0.29544 0.0082312 0.051965 0.062981 0.054596 0.095042 0.050157 
0.21885 -0.41102 -0.069865 0.078107 0.071037 0.049664 0.06035 0.1179 
0.17133 -0.38209 -0.093376 0.033222 0.032236 -0.0011404 -0.0013048 0.098166 
0.095864 -0.23954 -0.047834 0.024344 0.027796 -0.041751 -0.030735 0.063803 
-0.0021268 -0.10242 0.046375 0.0074092 0.013986 -0.013965 0.060515 0.055747 
-0.020212 0.041607 0.082875 0.029605 0.039799 -0.0082102 0.051636 0.037004 
-0.025474 0.026481 0.025001 -0.01117 -0.011827 0.028125 0.064625 0.032071 
-0.023829 -0.041422 -0.0068948 0.0032988 -0.011334 0.027796 0.14157 0.08008 
-0.082525 -0.024816 0.015301 0.0093821 -0.014129 0.047197 0.16574 0.065118 
-0.15339 0.058871 0.037661 0.030756 0.032564 0.053445 0.14206 0.026317 
-0.17986 0.093891 0.052952 0.042429 0.038977 0.046211 0.066105 -0.010676 
-0.089102 0.15686 0.067091 0.062159 0.020069 0.020069 -0.091897 -0.034516 
0.070708 0.2297 0.06479 0.049992 0.034866 -0.0059084 -0.16868 -0.023501 
0.15472 0.22131 0.015794 0.043416 0.047033 -0.041093 -0.13711 0.022371 
0.19583 0.23101 0.031907 0.023851 0.033715 0.0051074 0.0042853 0.032564 
0.24745 0.31042 0.057227 0.063474 0.026974 0.039634 0.14009 0.083533 
0.22493 0.22756 0.058213 0.050979 0.032729 0.058871 0.18021 0.1026 
0.15209 0.087808 0.010533 0.042923 0.025495 0.048019 0.13762 0.13286 
0.030263 -0.10193 0.0051074 0.0011614 0.0047785 0.019905 0.095699 0.10211 
-0.034352 -0.25368 0.014643 -0.0072237 -0.010841 0.0072447 0.031085 0.052459 
-0.049807 -0.24825 0.014479 0.0024767 -0.0064016 -0.00081153 0.0059294 0.033551 
-0.061645 -0.13399 -0.022021 0.0060938 0.023686 0.014808 0.0034632 0.01152 
-0.11508 -0.058028 -0.047505 0.011684 0.014972 0.00099702 0.022042 -0.011992 
-0.13399 0.061666 -0.024652 0.0060938 0.01711 0.0056006 0.0046141 -0.039284 
-0.072167 0.26916 0.011191 0.025166 0.0227 0.0074092 -0.0067304 -0.052437 
0.039799 0.44442 0.028947 0.010697 0.020891 -0.0042642 -0.040106 -0.0406 
0.14486 0.44311 0.060679 0.030263 0.030263 0.0059294 -0.051451 -0.0044286 
0.17166 0.3512 0.10211 0.034866 0.019411 0.005765 -0.04882 0.045224 
0.16508 0.25683 0.10622 0.077121 0.020727 0.027139 -0.0080457 0.086328 
0.095864 0.22213 0.090438 0.03536 0.027961 0.0092177 0.031578 0.053281 
0.050814 0.13417 0.044567 0.025495 0.014479 0.01711 0.048841 0.051801 
0.0082312 0.047362 0.033058 0.027303 0.039799 0.034209 0.052459 0.022535 
-0.011663 -0.080059 0.038812 0.065118 0.029112 0.024344 -0.0095255 -0.032708 
-0.021199 -0.22885 0.041936 0.055089 0.046868 0.035031 0.026646 -0.025802 
0.041114 -0.1621 -0.01676 0.027139 0.037497 0.050979 0.039634 0.0047785 
0.14585 -0.0036066 -0.0098543 0.043745 0.04506 0.077449 0.093726 0.065283 
0.20125 0.13384 0.033387 0.064461 0.056898 0.10556 0.17199 0.1105 
0.18448 0.17725 0.080409 0.030592 0.063639 0.10885 0.086163 0.10573 
0.15604 0.159 0.04917 0.034537 0.03536 0.027139 -0.017253 0.053938 
0.1026 0.099316 0.044238 0.019083 0.0052718 -0.03057 0.0064227 0.02533 
-0.032215 -0.079895 -0.0027845 0.0021479 -0.030242 -0.076442 0.091096 0.019576 
-0.041586 -0.14007 0.0056006 -0.011498 -0.018404 -0.033859 0.17133 -0.022843 
0.010533 -0.080717 0.019576 0.010697 0.020398 0.053938 0.19517 -0.052766 
0.045882 0.07038 0.070708 0.063145 0.03651 0.085177 0.11855 0.045553 
0.0065871 0.29119 0.10359 0.062817 0.047197 0.035031 -0.087951 0.054925 
0.03092 0.37471 0.10047 0.027632 0.037004 -0.030242 -0.28492 0.027468 
0.041278 0.15472 -0.056219 -0.023501 -0.032708 -0.068057 -0.28508 0.027303 
0.074983 -0.14599 -0.10538 -0.030242 -0.026789 -0.049149 -0.24645 -0.063289 
0.064132 -0.28179 -0.07003 -0.041257 -0.019719 -0.05441 -0.066906 -0.02087 
-0.039284 -0.22984 0.0067515 -0.0049219 -0.008539 -0.03057 0.058706 0.027303 
-0.15602 -0.0029489 0.055747 0.053774 0.01826 0.020398 0.14913 0.061995 
-0.17542 0.24581 0.11609 0.079422 0.018754 0.052459 0.19073 0.08156 
-0.073647 0.30894 0.11691 0.065776 0.061666 0.095042 0.16229 0.090767 
0.063968 0.2223 0.11165 0.072681 0.073997 0.073832 0.099152 0.048184 
0.1756 0.11691 0.051472 0.04917 0.061501 0.070873 0.029441 0.0013258 
0.1567 0.00297 0.028454 0.03092 0.026646 0.070873 -0.012649 -0.02235 
0.045718 -0.088444 0.049664 0.017932 0.021056 0.058377 -0.0082102 -0.014293 
-0.021034 -0.13793 0.062159 0.025988 0.047197 0.05213 0.028783 -0.026953 
-0.046847 -0.18397 0.037661 0.023522 0.030427 0.023686 0.051801 -0.0019624 
-0.0064016 -0.1501 0.00099702 0.038319 0.0087245 0.0051074 0.068407 0.011191 
0.048513 -0.090581 0.0067515 0.033551 0.050486 0.045553 0.064954 0.01711 
0.10852 0.011191 0.042923 0.053938 0.058706 0.080409 0.047691 -0.010841 
0.055911 0.050157 0.047197 0.043087 0.043416 0.05065 0.035688 0.031085 
-0.0138 0.010369 -0.0013048 0.027796 0.011684 0.0067515 0.040456 0.048184 
0.0021479 0.077943 -0.01232 -0.017911 -0.023172 -0.041915 -0.0068948 0.039634 
0.1248 0.22115 0.056898 -0.0024557 0.013986 -0.028104 -0.021363 0.0062583 
0.16081 0.33706 0.10326 0.027961 0.04506 0.0092177 0.067091 0.11296 
0.20635 0.2925 0.080409 0.036017 0.0060938 0.046375 0.1733 0.22411 
0.19944 0.1373 0.087314 0.0227 -0.003771 0.043909 0.16558 0.18498 
0.19879 -0.040928 0.083204 0.011848 0.0047785 0.0070803 0.034702 0.12365 
0.20684 -0.085156 0.048513 0.0079024 0.00033937 -0.069865 -0.15569 0.11115 
0.11148 -0.052602 0.0016547 0.0095465 -0.0067304 -0.072825 -0.21077 0.0324 
-0.02235 0.052459 0.0067515 0.023851 0.034866 -0.012156 -0.09798 0.017932 
-0.23888 0.077285 0.013986 0.060022 0.055254 0.070215 0.053281 -0.02646 
-0.41464 -0.022679 0.040621 0.094384 0.075312 0.098494 0.20536 0.014808 
-0.46758 -0.17328 -0.024652 0.061666 0.025495 0.064461 0.22033 -0.034188 
-0.44259 -0.26502 -0.017746 0.03536 0.0095465 0.023193 0.18152 -0.0073881 
-0.3834 -0.28196 -0.0027845 0.0059294 0.011355 0.030427 0.1003 -0.014787 
-0.26749 -0.27736 0.041772 0.046868 0.018918 0.0047785 -0.072167 -0.088773 
-0.10373 -0.27538 -0.019884 0.0054362 0.011684 -0.026624 -0.19104 -0.2014 
0.056733 -0.22162 -0.06148 -0.017911 0.0082312 -0.004593 -0.20008 -0.19301 
0.21095 -0.16111 -0.087786 -0.0077169 0.037332 0.034044 -0.087458 -0.12626 
0.28149 -0.13136 -0.067399 0.029769 0.053281 0.03947 -0.0013048 0.0095465 
0.29234 0.11329 -0.010512 0.02829 0.044731 0.0065871 0.028783 0.14502 
0.29678 0.43357 0.085341 0.041278 0.041936 0.021549 0.088136 0.26817 
0.32029 0.61048 0.15324 0.057391 0.075805 0.037661 0.13105 0.23003 
0.28642 0.52202 0.14058 0.070873 0.051472 0.054596 0.10096 0.14996 
0.12381 0.28658 0.080244 0.02829 0.02681 0.060844 0.061666 0.059035 
0.034373 0.16031 0.050979 0.028619 -0.0022913 0.038977 0.046704 0.021056 
0.00066819 0.10145 0.077614 0.043251 0.027468 0.018425 0.058213 0.0227 
0.049499 0.13351 0.095864 0.055418 0.070215 0.013986 0.060844 0.027468 
0.031742 0.14404 0.057227 0.053774 0.037497 0.024179 0.065776 0.011355 
-0.015773 0.13121 0.066269 0.047691 0.050486 0.050321 0.06331 0.012013 
-0.05326 0.051636 0.004943 0.038155 0.037004 0.021713 0.07597 0.032729 
-0.11475 -0.13497 -0.025309 0.036675 0.05624 0.012013 0.083533 0.062488 
-0.16457 -0.26782 -0.059507 0.02533 0.026646 0.0072447 0.028947 0.012999 
-0.11409 -0.18134 -0.045039 0.021878 0.024837 0.0016547 -0.06855 -0.00097594 
-0.028926 -0.084498 -0.0095255 0.026481 0.027468 0.019905 -0.074962 0.037168 
0.025166 0.036839 0.031249 0.013821 0.024015 0.0079024 -0.028269 0.060679 
0.037661 0.12299 0.042265 0.00017495 -0.0052507 -0.0013048 -0.003771 -0.020541 
0.021384 0.1003 -0.0060728 0.027139 0.03388 0.0324 0.049992 -0.043724 
-0.0039354 -0.05589 -0.0024557 0.072353 0.065612 0.056404 0.071202 -0.06296 
0.082217 -0.049971 0.07038 0.057884 0.05476 0.040785 0.089123 -0.038956 
0.14996 0.090109 0.082546 0.031907 0.0075736 -0.014293 0.036839 -0.044381 
0.16788 0.18761 0.052294 -0.011005 -0.014622 -0.078415 -0.10423 -0.11163 
0.18547 0.20208 0.0088889 0.0065871 -0.013471 -0.10982 -0.22852 -0.12971 
0.12266 0.067091 -0.024487 -0.017417 0.0095465 -0.09091 -0.18035 0.0054362 
0.11625 -0.03353 -0.026789 0.025988 0.020233 0.049006 0.10852 0.21934 
0.12957 0.013492 -0.020706 0.031578 0.052623 0.12546 0.2754 0.30746 
0.072846 0.095699 0.0056006 0.073668 0.054925 0.11231 0.18481 0.18547 
-0.030735 0.13434 0.071037 0.030592 0.059035 0.049828 0.061008 0.04095 
-0.083512 0.12612 0.09685 0.04917 0.024837 0.019411 0.020233 -0.018075 
-0.13349 0.037497 0.04654 0.0082312 0.00033937 0.019083 -0.025145 -0.066577 
-0.21718 -0.10489 -0.025638 0.0088889 0.00017495 0.016781 -0.014787 -0.14303 
-0.20419 -0.20699 -0.030242 -0.0039354 0.03799 0.017438 -0.0013048 -0.095678 
0.015137 -0.09091 0.046211 0.031249 0.034537 0.035031 0.016123 -0.029913 
0.17429 0.050321 0.055911 0.037168 0.034537 0.010369 -0.015116 0.026974 
0.21276 0.25748 0.08008 0.053609 0.025659 0.0021479 -0.078744 0.02533 
0.22246 0.4482 0.10606 0.027632 0.055747 0.0056006 -0.073976 0.041936 
0.24269 0.55441 0.12118 0.013492 0.022535 0.03092 0.047033 0.076134 
0.2172 0.46382 0.077943 0.037497 0.023357 0.047197 0.13894 0.087972 
0.11674 0.25025 0.065118 0.047033 0.01826 0.017767 0.08008 0.040785 
0.031249 0.11757 0.054925 0.01415 0.025001 0.0090533 0.069393 0.041607 
0.0079024 0.042265 0.061666 0.0087245 0.011684 -0.0075525 0.063474 0.027961 
0.063145 0.01711 0.009711 0.022206 -0.01232 0.005765 0.082382 0.047526 
0.064296 -0.062796 -0.019719 0.012013 0.029934 0.039305 0.08304 0.052294 
0.064954 -0.21915 0.0011614 0.025988 0.043416 0.046704 0.062159 0.053609 
0.040292 -0.30399 0.014643 0.0034632 0.025824 0.063145 0.0031344 0.034702 
0.03536 -0.21521 0.016123 0.063803 0.029441 0.022042 0.0034632 0.011848 
0.056569 0.039799 0.0421 0.044567 0.027303 0.012506 0.005765 0.03536 
0.05065 0.24005 0.053445 0.029112 0.02681 0.00066819 -0.010183 -0.0031133 
0.040128 0.29349 0.053938 -0.011005 -0.012649 -0.025802 -0.030242 -0.012978 
-0.0032777 0.29661 0.021056 0.0093821 -0.0004827 0.0051074 0.018754 -0.0029489 
-0.031064 0.26258 0.0028056 -0.0072237 0.007738 0.0227 0.053116 0.033387 
-0.071016 0.11642 0.01415 0.0037921 0.0074092 0.048677 0.074654 0.050157 
-0.10209 -0.094034 0.041114 0.048513 0.027632 0.065118 0.1128 0.09274 
-0.092883 -0.20567 0.013492 0.091918 0.063474 0.086657 0.19632 0.096028 
-0.052109 -0.23263 0.025001 0.069722 0.064954 0.10047 0.1493 0.068407 
-0.013636 -0.39064 0.0026412 0.037661 0.053281 0.1197 0.057227 0.0036276 
-0.012649 -0.42977 0.016123 0.0070803 0.025001 0.036017 -0.071181 -0.063289 
0.025495 -0.13316 0.0093821 0.032729 0.022042 -0.018733 -0.14632 -0.12346 
0.031414 0.15308 0.019411 -0.0047575 0.0021479 -0.033037 -0.098967 -0.092883 
-0.0029489 0.23035 0.0054362 -0.034516 0.0023123 -0.02942 0.015465 0.044731 
-0.0098543 0.16706 0.035688 -0.027775 -0.023665 -0.055561 0.020233 0.17297 
0.13203 0.1738 0.02681 0.039141 0.012999 -0.030077 0.080902 0.25354 
0.28806 0.30138 0.069064 0.039305 0.073175 0.076134 0.13236 0.21868 
0.36616 0.46234 0.10622 0.065118 0.088465 0.096357 0.092904 0.084848 
0.30483 0.49868 0.12562 0.051801 0.06594 0.047855 -0.0067304 -0.019061 
0.14601 0.39016 0.090438 0.051965 0.019576 0.00017495 -0.046683 -0.062138 
-0.022021 0.15752 0.060022 0.026646 -0.0024557 -0.01117 -0.013307 -0.020541 
-0.15848 -0.077428 0.033058 0.03388 0.043909 0.0092177 -0.0080457 -0.010183 
-0.20764 -0.28771 0.025988 0.049499 0.037004 0.043745 0.074161 0.1271 
-0.20518 -0.45525 -0.0098543 0.036675 0.029276 0.061501 0.11411 0.22723 
-0.26338 -0.49192 -0.049642 0.018918 0.03947 0.079916 0.05213 0.12464 
-0.364 -0.41398 -0.06148 0.011848 0.044073 0.036675 -0.041915 -0.065919 
-0.36943 -0.31566 -0.061973 0.0039565 0.016123 -0.026624 -0.086307 -0.18479 
-0.14418 -0.1552 -0.046025 -0.0077169 -0.003771 -0.017253 -0.044217 -0.15536 
0.18415 0.086163 0.01267 0.038319 0.041114 0.023851 0.027139 -0.028597 
0.37981 0.28445 0.096028 0.066763 0.061995 0.061501 0.075805 0.060844 
0.43242 0.32917 0.14963 0.082546 0.048184 0.066434 0.10589 0.1202 
0.40578 0.23545 0.13105 0.05213 0.02533 0.029112 0.10803 0.11806 
0.20175 -0.033201 0.014643 0.0075736 0.018096 0.015959 0.039799 0.11757 
-0.077593 -0.2716 -0.06707 0.0028056 0.010204 0.00050378 0.032564 0.080244 
-0.27818 -0.32536 -0.10061 -0.00064712 -0.01676 0.018754 0.012177 0.061008 
-0.32027 -0.19466 -0.070194 -0.02646 0.0075736 0.024837 0.0098754 0.030098 
-0.23527 0.004943 -0.065591 0.023522 0.028783 0.038812 -0.0032777 -0.022843 
-0.10012 0.18662 0.037168 0.055089 0.061172 0.016288 0.0036276 -0.0083746 
0.019411 0.13845 0.075148 0.086328 0.066763 0.038319 -0.028926 0.038812 
0.077943 0.11378 0.13335 0.06331 0.01826 0.02829 -0.016431 0.01004 
0.095042 0.23364 0.12201 0.059528 0.011191 -0.028433 -0.047341 0.034866 
0.13598 0.27886 0.11872 0.029934 0.025824 -0.026296 -0.039449 0.014972 
0.14042 0.18728 0.10392 0.038319 -0.0029489 -0.030242 -0.039778 0.023522 
0.10803 0.23545 0.13434 0.019576 0.00297 0.0083956 -0.013636 0.025988 
0.092904 0.40332 0.12201 0.037168 0.03092 0.053116 0.059528 0.074326 
0.058542 0.4385 0.077285 0.038483 0.050157 0.039799 0.096028 0.046375 
-0.055232 0.1026 0.0088889 0.036182 0.0044497 0.011026 0.085341 -0.020706 
-0.10012 -0.24727 -0.011334 0.013821 0.011026 0.020398 0.045718 -0.088773 
-0.066248 -0.44374 -0.036489 0.027961 0.024344 0.043745 0.055254 -0.024158 
-0.062631 -0.35118 0.0036276 0.051308 0.039141 0.068407 0.044073 0.016781 
-0.05326 -0.25138 -0.015938 0.01711 0.0083956 0.05772 0.0023123 -0.019719 
-0.0064016 -0.157 -0.015444 -0.015938 0.0024767 0.037004 0.018918 -0.033365 
0.057227 -0.11294 -0.092719 -0.0078813 -0.0060728 0.012999 0.037332 -0.0016336 
0.1105 -0.15339 -0.096007 0.00066819 0.013821 0.0056006 0.030098 0.0046141 
0.12579 -0.093376 -0.066906 0.011684 1.0539e-005 -0.018239 0.007738 0.13335 
0.13746 0.0026412 0.055911 0.015301 0.0024767 -0.076113 -0.05589 0.18136 
0.072188 0.14469 0.068571 0.038812 0.00017495 -0.069372 -0.053917 0.054103 
0.0054362 0.27047 0.10178 0.077285 0.038483 -0.034681 0.022864 -0.083347 
0.021056 0.31848 0.12414 0.051472 0.013657 -0.01232 0.12464 -0.016431 
0.10458 0.33541 0.12579 0.042265 0.02829 0.027961 0.14009 0.050979 
0.14881 0.33574 0.094055 0.033387 0.048348 0.073668 0.13499 0.11576 
0.16985 0.42338 0.055911 0.062159 0.06594 0.087314 0.086163 0.073668 
0.16311 0.36698 0.089452 0.04095 0.041772 0.079587 0.056076 0.037661 
0.13417 0.17807 0.1054 0.044073 0.033387 0.061995 0.0062583 0.005765 
0.1105 -0.0050863 0.043909 0.029934 0.049499 0.029276 -0.0011404 0.013821 
0.090109 -0.083676 0.029276 0.054432 0.046704 0.034702 0.0014903 0.015137 
0.067585 -0.067892 0.0421 0.00297 0.027468 0.0051074 0.020069 0.01974 
0.081724 -0.0036066 0.057391 0.01974 0.016288 0.011026 0.031085 0.014808 
0.093562 0.042594 0.072024 -0.00015387 0.03092 0.03092 0.061008 0.02681 
0.084519 0.066763 0.042594 0.041607 0.031414 0.0014903 0.034373 0.030263 
0.0039565 0.0016547 0.021056 0.013328 0.012835 0.015465 0.029276 0.031249 
-0.051615 -0.042737 -0.0027845 -0.011005 -0.011005 -0.0078813 0.0014903 1.0539e-005 
-0.02087 -0.0082102 -0.035996 -0.01528 -0.0075525 -0.003771 0.011191 -0.018404 
0.057555 0.010862 -0.038791 0.0072447 0.012506 0.0092177 0.036675 0.017932 
0.069886 0.054925 0.015959 0.035688 0.025001 0.0070803 0.031249 0.05213 
-0.040928 -0.068386 0.029769 0.0011614 -0.0029489 0.07301 0.056404 0.055911 
-0.09798 -0.26979 0.032236 0.055418 0.041443 0.047197 0.033058 0.029934 
-0.060165 -0.26683 -0.045203 0.10589 0.040621 0.052952 0.021384 0.013164 
0.03651 -0.073318 -0.0049219 0.019247 0.027961 0.039305 0.035031 -0.010676 
0.067256 0.1225 0.0047785 0.047362 0.0085601 0.065776 0.071859 0.016945 
0.13269 0.2292 0.061008 0.051143 0.049335 0.084026 0.12842 0.072024 
0.14289 0.29004 0.06594 0.038648 0.062488 0.063474 0.11444 0.11888 
0.039963 0.14864 0.03536 0.022371 0.039141 0.01826 0.045389 0.1271 
-0.080388 -0.077757 0.0227 0.034866 0.044402 0.021549 0.011026 0.092904 
-0.065591 0.00033937 0.068736 0.069393 0.02829 -0.031886 -0.040106 0.021713 
0.11214 0.45231 0.082217 0.025659 0.022371 -0.019884 -0.094199 -0.0096899 
0.29678 0.78953 0.1493 0.025166 -0.016595 -0.078415 -0.09946 -0.0026201 
0.27771 0.7139 0.19402 0.02829 0.0013258 -0.060823 -0.067728 -0.039613 
0.11263 0.41203 0.18909 0.068736 0.018754 -0.0032777 0.011355 -0.045039 
-0.072496 0.10244 0.06742 0.0064227 0.018754 0.036839 0.16212 -0.03353 
-0.21833 -0.11179 -0.066413 -0.053095 0.0011614 0.087808 0.20076 0.041114 
-0.29495 -0.39524 -0.19515 -0.053753 0.0052718 0.074654 0.13647 0.060186 
-0.35808 -0.73689 -0.21455 0.0079024 0.048841 0.076299 0.047362 0.054596 
-0.31895 -0.77224 -0.15536 0.041278 0.11132 0.073504 -0.059672 0.073504 
-0.14418 -0.40889 -0.023007 0.10935 0.10113 0.04358 -0.15799 0.033222 
0.00297 -0.04619 0.058377 0.1202 0.086492 0.011684 -0.22063 -0.008539 
0.12908 0.13121 0.076792 0.088136 0.058871 -0.011498 -0.13514 0.0083956 
0.15719 0.21227 0.048184 0.0026412 0.038319 0.0036276 0.020727 0.035195 
0.14897 0.16442 0.0592 -0.014458 -0.0090322 0.012177 0.13039 0.047526 
0.035031 0.01711 0.053116 0.0013258 -0.0049219 0.018096 0.16936 0.038483 
-0.06855 -0.081374 0.041936 0.012342 0.0013258 0.036839 0.090767 -0.009361 
-0.090746 -0.058521 0.00017495 -0.0022913 0.012506 0.015465 -0.03353 -0.025145 
-0.041422 0.019247 -0.018568 0.005765 0.0042853 0.0098754 -0.068057 -0.03057 
0.04506 0.10014 -0.0013048 0.0088889 0.0075736 0.014315 -0.018733 -0.022185 
0.12299 0.19435 0.04358 0.031578 0.024344 0.027632 0.049499 0.0088889 
0.17084 0.33196 0.070544 0.040456 0.05624 0.042429 0.1077 0.065447 
0.17117 0.42305 0.069722 0.058049 0.031742 0.028125 0.079094 0.065447 
0.183 0.43439 0.10787 0.047197 0.03651 0.024508 0.028947 0.090767 
0.17824 0.35909 0.10491 0.035524 0.048348 0.017274 0.029934 0.093891 
0.031578 0.19961 0.072024 0.02122 0.048677 0.027632 0.073339 0.12233 
-0.095843 0.016781 0.023686 0.018754 0.04095 0.055254 0.086821 0.11444 
-0.14517 -0.081374 0.031578 0.045389 0.02681 0.01826 0.0056006 0.047033 
-0.22836 -0.034516 0.027303 0.051636 0.014808 -0.026624 -0.10587 -0.083183 
-0.28952 -0.054082 0.0047785 0.0059294 0.01826 -0.05441 -0.18693 -0.16457 
-0.26864 -0.18348 -0.071509 -0.0055795 -0.041422 -0.061645 -0.12938 -0.23543 
-0.13366 -0.31188 -0.079566 0.012013 -0.036325 -0.023336 -0.0060728 -0.14204 
0.03799 -0.3908 -0.045861 0.01826 0.0042853 0.010369 0.1031 -0.014129 
0.20701 -0.2647 -0.012649 0.031742 0.019905 0.034866 0.15423 0.17363 
0.27557 -0.069043 0.041936 0.040785 0.035688 0.060022 0.078929 0.19616 
0.24252 -0.10127 0.016452 0.059528 0.043416 0.027468 0.0098754 0.18596 
0.1419 -0.27785 -0.024652 0.0051074 0.033222 0.050321 0.040785 0.085012 
0.11905 -0.39343 -0.027282 0.0092177 0.053774 0.04095 0.1442 0.03536 
0.11674 -0.20173 -0.060494 0.029605 0.041772 0.052623 0.14486 0.065447 
0.090931 0.23019 -0.0083746 0.059528 0.029112 0.063639 0.1419 0.11526 
0.06035 0.48848 0.062323 0.016945 0.021056 0.025988 0.088465 0.071202 
0.019247 0.48733 0.081889 0.010533 0.019576 0.00017495 -0.10801 0.009711 
-0.0087034 0.43637 0.088794 0.028947 -0.0082102 -0.048492 -0.30991 -0.077264 
-0.011334 0.36896 0.13516 0.076792 -0.0032777 -0.082361 -0.31747 -0.04882 
0.048841 0.32917 0.12809 0.060515 0.026974 -0.036654 -0.10324 -0.018239 
0.084519 0.20471 0.17988 0.042758 0.036182 0.048677 0.19977 0.042758 
0.16525 0.14354 0.12825 0.02681 0.014643 0.10343 0.38014 0.080573 
0.16492 0.11609 0.10754 0.04358 0.0036276 0.064296 0.35005 0.079587 
0.15851 0.0064227 0.076299 0.026152 0.021384 0.047526 0.20684 0.065776 
0.099974 -0.1039 0.06183 0.020398 0.035524 -0.00064712 0.025166 0.01004 
0.053774 -0.15421 -0.034681 0.028619 -0.0095255 -0.069865 -0.15273 -0.044052 
0.050814 -0.21932 -0.048327 0.017438 -0.019719 -0.080717 -0.18101 0.056733 
0.098659 -0.22836 -0.067399 0.020233 0.0013258 -0.018568 -0.050136 0.19698 
0.1345 -0.13316 -0.042737 0.0080668 0.042923 0.059364 0.10228 0.28214 
0.14354 0.03799 -0.019061 0.04095 0.045224 0.081889 0.11165 0.16722 
0.14437 0.22361 0.025824 0.04358 0.016616 0.085341 0.030756 -0.0027845 
0.10195 0.28445 0.073668 0.0421 0.036182 0.066269 -0.021856 -0.1284 
0.033715 0.21046 0.078765 0.04095 0.027796 0.060844 0.069558 -0.11376 
-0.015773 0.089452 0.058377 0.050321 -0.0088678 0.015301 0.12891 -0.052273 
-0.091404 -0.060823 0.041443 0.0092177 -0.0077169 -0.031064 0.10326 0.0060938 
-0.1182 -0.050136 0.010862 0.011191 -0.0022913 0.011355 0.11921 0.024344 
-0.058192 -0.0055795 0.030756 0.023522 0.013986 0.045553 0.18152 0.056404 
0.079094 0.074654 0.044402 0.06479 0.017767 0.054596 0.15292 0.022371 
0.16146 0.10573 0.055254 0.041443 0.013821 0.038977 0.096357 0.049499 
0.13549 0.055582 0.053938 0.043909 0.03651 0.010697 0.036182 0.097179 
0.1151 -0.011663 0.053445 0.02829 0.040292 -0.012814 -0.048163 0.1368 
0.14009 0.0014903 0.064954 0.052294 0.024673 -0.024323 -0.11146 0.088136 
0.14749 0.15259 0.042594 0.022864 0.016616 -0.0024557 -0.083347 0.10869 
0.11247 0.26389 0.047362 0.0098754 0.034044 0.022535 0.03536 0.11707 
-0.10028 0.1396 0.03947 0.012342 0.0324 0.012013 0.058706 0.071366 
-0.34805 -0.090581 -0.011827 -0.027447 0.00099702 0.048184 -0.086471 -0.065097 
-0.44687 -0.25565 -0.049149 0.011026 0.021549 0.0087245 -0.13925 -0.1062 
-0.27292 -0.18693 0.0013258 -0.025309 0.059528 0.029769 -0.15224 -0.1182 
0.031578 0.1562 0.023522 0.029934 0.027303 0.0042853 -0.13053 -0.13875 
0.25271 0.43538 0.056733 0.018589 0.018096 0.007738 -0.034188 -0.10505 
0.25748 0.40661 0.054596 0.032893 0.027468 0.060022 0.16294 -0.045039 
0.19616 0.2075 0.085999 0.05213 0.052787 0.095371 0.27935 0.056569 
0.17807 0.16212 0.12957 0.078107 0.05772 0.071695 0.25058 0.13976 
0.1562 0.25058 0.15078 0.072681 0.038977 0.053445 0.20257 0.17084 
0.089945 0.31256 0.098166 0.032071 0.0032988 -0.022185 0.14453 0.1835 
0.012342 0.21539 0.050979 -0.0082102 0.020727 -0.048327 -0.0070593 0.063145 
-0.037476 0.041114 -0.017911 -0.022021 0.015959 -0.075784 -0.12659 0.0090533 
-0.083183 -0.11607 -0.028269 -0.019226 0.0031344 -0.0049219 -0.055726 0.060022 
-0.12527 -0.18183 -0.041915 0.0056006 0.0064227 0.051143 0.06183 0.15982 
-0.13711 -0.26683 -0.045039 0.039799 0.069722 0.10129 0.076956 0.14174 
-0.082525 -0.2744 -0.027282 0.08419 0.093726 0.12053 0.10672 0.08715 
-0.02794 -0.25417 -0.021363 0.06479 0.077285 0.069229 0.014643 -0.032708 
-0.054082 -0.3104 -0.086307 -0.00081153 0.018754 0.023851 -0.039284 -0.10965 
-0.18824 -0.35364 -0.081045 -0.025802 -0.027611 -0.06 -0.1376 -0.18594 
-0.15602 -0.13464 -0.022843 -0.0011404 -0.031064 -0.084334 -0.18841 -0.20748 
-0.024652 0.15555 0.064296 0.015794 0.00033937 -0.066413 -0.083676 -0.16062 
0.040292 0.31947 0.068736 0.022864 0.012999 0.013328 0.0039565 -0.054739 
0.071366 0.31305 0.076299 0.02122 0.03947 0.08715 0.088794 0.14683 
0.11822 0.24499 0.08567 0.090274 0.074161 0.097179 0.11822 0.24943 
0.10277 0.19698 0.11066 0.061337 0.094548 0.074819 0.071366 0.21885 
0.044731 0.11231 0.05213 0.048019 0.053609 0.042923 0.015794 0.070873 
0.00050378 0.0065871 0.021549 0.026481 0.048019 0.021878 -0.0029489 -0.011827 
-0.0075525 -0.067235 0.0023123 0.048184 0.040785 0.035524 -0.03764 -0.058192 
0.0069159 -0.096829 0.01711 0.019083 0.047691 0.027303 -0.010348 -0.034516 
0.032893 -0.0503 0.0018191 -0.013965 0.018096 0.012999 0.016452 -0.018897 
0.085999 0.034373 0.021713 0.015465 0.022206 0.012835 0.056076 0.010697 
0.13417 0.08008 0.062159 0.045224 0.040785 0.0070803 0.058049 0.0067515 
0.17199 0.043909 0.097672 0.052294 0.038319 0.035524 0.019247 0.033551 
0.14469 0.023851 0.042758 0.027796 0.01563 0.012177 -0.022185 0.013657 
0.071366 0.071202 0.030263 0.045553 0.018425 0.0034632 -0.027611 0.018589 
0.0072447 0.048513 0.019411 0.027632 0.034866 0.012177 -0.012156 0.012506 
-0.014951 0.035688 0.021384 -0.00015387 0.028454 -0.0062372 0.020398 0.0044497 
-0.018568 0.04506 -0.0067304 -0.008539 0.0059294 0.022535 0.033387 -0.02794 
-0.056383 0.017767 -0.05441 0.0087245 -0.0019624 -0.00097594 0.027632 -0.034845 
-0.14402 0.049006 -0.036818 0.023686 0.022864 0.013164 0.04506 -0.0083746 
-0.17082 0.073997 -0.036983 -0.015773 0.038483 0.036346 0.11247 0.050157 
-0.13908 -0.0080457 0.016288 0.01826 0.015301 0.054925 0.11296 0.004943 
-0.021034 -0.063124 0.016781 0.027468 0.009711 0.045718 0.042758 -0.028104 
0.16722 0.01004 0.043251 0.066434 0.04095 0.044238 -0.027447 -0.0027845 
0.23216 0.084519 0.054267 0.047691 0.064132 0.050321 -0.048985 0.052623 
0.24795 0.022371 0.051143 0.03536 0.01152 -0.013636 -0.093541 0.12562 
0.18629 0.023357 0.025824 0.058049 0.016288 -0.039449 -0.099295 0.20355 
0.18761 0.055911 0.062817 0.019247 0.0075736 -0.029913 -0.0096899 0.17939 
0.19714 0.12908 0.091096 0.02122 0.026152 0.010697 0.038483 0.085506 
0.19254 0.1516 0.10556 0.052623 0.044731 0.048348 0.0592 -0.023829 
0.16475 0.037004 0.058871 0.067256 0.055582 0.062652 0.051965 -0.0083746 
0.10458 -0.14862 0.038155 0.033058 0.029276 0.056569 0.067585 0.051143 
0.053445 -0.17427 0.040456 0.037826 0.031085 0.072188 0.12628 0.1419 
0.00297 -0.0077169 0.034702 0.062981 0.02681 0.061501 0.11428 0.085177 
-0.052109 0.14042 0.014315 0.043087 0.023686 0.039305 0.093398 0.030592 
-0.14813 0.13023 0.0042853 0.021384 0.048348 0.012835 0.050321 -0.053917 
-0.18052 0.11444 0.0054362 -0.0042642 0.029769 -0.010676 -0.022514 -0.10012 
-0.194 0.20536 0.059693 0.0023123 0.011191 -0.029255 -0.062302 -0.14665 
-0.10637 0.30993 0.055089 0.013821 -0.0049219 -0.01939 -0.056383 -0.091075 
0.03651 0.29957 0.089123 0.011355 0.024015 0.013328 0.011191 -0.028597 
0.22016 0.21819 0.072846 0.024179 0.040128 0.027632 0.086163 0.095206 
0.28921 0.12053 0.084848 0.037332 0.021056 0.032564 0.085012 0.11526 
0.20717 0.076956 0.0324 0.017274 0.0047785 0.051636 0.087314 0.1294 
0.079751 0.10145 0.030756 0.016123 0.018589 0.063803 0.096686 0.093562 
-0.021692 0.033058 0.054596 0.026317 0.045882 0.065118 0.072353 0.12677 
-0.072989 -0.056877 0.093891 0.068242 0.047362 0.036346 0.044073 0.097672 
-0.17887 -0.16687 0.018425 0.050157 0.023193 0.02829 -0.02498 0.059528 
-0.2864 -0.23592 -0.011663 -0.00015387 -0.0062372 -0.026953 -0.046354 -0.019884 
-0.23313 -0.20222 -0.027118 -0.0031133 -0.0068948 -0.075291 -0.086636 -0.033365 
-0.080552 -0.20551 -0.019719 0.015301 -0.018733 -0.082854 -0.090581 -0.068714 
0.027303 -0.2208 -0.066577 -0.010183 0.0092177 -0.0073881 0.013328 -0.02794 
0.075312 -0.26618 -0.086471 0.013164 0.025166 0.046704 0.14453 0.025166 
0.095371 -0.15273 -0.06 -0.0087034 0.035031 0.069558 0.15407 0.07449 
0.13943 0.13351 -0.03764 0.011684 0.022206 0.059857 0.10803 0.06035 
0.16673 0.36879 0.024837 0.044567 0.043251 0.054925 0.09685 0.091918 
0.17199 0.52909 0.1174 0.084848 0.066434 0.052623 0.05624 0.06742 
0.17873 0.59502 0.19599 0.091918 0.073997 0.0083956 -0.028104 0.062488 
0.12562 0.43883 0.21161 0.093398 0.051308 -0.028269 -0.084827 0.038483 
0.076463 0.17001 0.12151 0.044238 0.03388 -0.0027845 -0.081868 0.03947 
0.0080668 -0.066741 0.054103 0.022864 0.039799 0.010204 0.036017 0.057555 
-0.0083746 -0.037476 0.036182 0.021713 0.049006 0.030098 0.093069 0.047526 
-0.030242 0.015301 0.055089 0.029605 0.031249 0.01711 0.10672 -0.012649 
-0.1205 -0.11919 -0.017911 -0.013143 0.0014903 0.013821 0.061337 -0.01676 
-0.17098 -0.34378 -0.046519 0.0041209 0.0098754 0.022206 0.032729 -0.037476 
-0.22145 -0.45821 -0.063782 -0.0057439 0.016452 0.025659 0.049992 -0.0022913 
-0.14582 -0.31994 -0.058192 0.0037921 0.0072447 0.0079024 0.028947 0.018918 
0.0024767 0.027468 -0.1039 0.00297 0.01415 -0.010512 0.02533 0.038977 
0.10458 0.3216 -0.0067304 0.011848 0.023851 0.005765 0.010204 0.018918 
0.065612 0.487 0.099645 0.051472 0.037168 0.026646 -0.024652 0.012177 
0.068242 0.44163 0.13943 0.048019 0.028125 0.00066819 0.040621 -0.0044286 
0.096028 0.18728 0.12825 0.030263 0.019411 -0.0059084 0.098659 0.051965 
0.09981 -0.044217 0.055254 0.021713 0.026317 0.0059294 0.1054 0.07301 
0.1151 -0.10078 0.01711 0.031085 0.030263 0.04917 0.076627 0.11313 
0.13927 -0.057534 0.027796 0.031907 0.027632 0.067585 0.0689 0.11099 
0.11905 -0.081539 0.0019835 0.041607 0.031907 0.061337 0.039141 0.069229 
0.069393 -0.14681 0.0036276 0.030756 0.022371 0.032729 -0.060658 -0.045039 
0.03651 -0.12396 0.0065871 0.066434 0.049664 0.015465 -0.10176 -0.087951 
0.014808 -0.12363 -0.011334 0.042758 0.03092 0.0026412 -0.032543 -0.090417 
0.029276 -0.12363 -0.032708 0.032071 0.04654 0.029605 0.011355 -0.012485 
0.092576 0.03536 -0.0047575 0.039634 0.053938 0.036017 0.066434 0.045553 
0.1202 0.22707 0.041278 0.064296 0.058542 0.04506 0.095535 0.10507 
0.10014 0.32604 0.10162 0.018589 0.026317 0.0034632 0.087314 0.12398 
0.08978 0.33541 0.12644 0.016945 0.021713 0.019411 0.082217 0.086657 
0.054103 0.25255 0.083862 0.021384 0.021713 0.039634 0.042594 0.06479 
-0.0062372 0.015137 0.043909 0.036346 0.033058 0.029934 0.0036276 0.032071 
-0.087951 -0.28179 0.013492 0.021878 0.025166 0.022371 0.010204 0.010533 
-0.046025 -0.35677 0.010533 0.02829 0.023357 0.03947 0.019247 0.021713 
0.039634 -0.24316 0.0095465 0.046375 0.027139 0.035688 0.042594 0.035524 
0.00066819 -0.050958 0.019083 0.089287 0.038812 0.045224 0.065612 0.020562 
-0.0044286 0.14239 0.040128 0.014808 0.020727 0.044238 0.063639 -0.014951 
0.027632 0.28412 0.039799 0.01415 0.0227 0.047691 0.0024767 -0.0047575 
0.078436 0.29365 0.018589 0.017438 0.02533 0.015794 -0.0098543 0.015301 
0.062159 0.23364 0.045224 0.066269 0.0421 0.0041209 -0.038462 0.013821 
-0.0019624 0.22115 0.0786 0.030098 0.018425 0.0011614 -0.084663 -0.029091 
-0.012814 0.29727 0.10819 0.016616 0.004943 -0.017746 -0.070852 -0.043888 
-0.011827 0.18613 0.051801 0.0069159 -0.0138 -0.033037 -0.055561 -0.084498 
0.033551 0.043745 0.049499 0.0095465 0.050321 0.020727 0.053445 -0.045532 
0.10211 -0.046683 0.055747 0.023686 0.041278 0.045882 0.11658 0.022864 
0.16146 -0.11985 0.046211 0.023357 0.038483 0.070873 0.15571 0.13203 
0.11033 -0.14665 -0.045696 0.041607 0.031742 0.063145 0.061008 0.15966 
0.032564 -0.065919 -0.010348 0.024837 0.018425 -0.0031133 -0.097816 0.11083 
-0.065919 0.0059294 -0.042573 -0.01528 -0.023007 -0.062631 -0.22195 0.032071 
-0.12314 0.011848 -0.017911 -0.0068948 -0.011334 -0.063946 -0.15618 -0.051451 
-0.1353 -0.013143 -0.041586 0.0088889 0.028947 -0.0072237 0.036017 -0.0078813 
-0.067399 -0.046847 0.0028056 0.057555 0.043416 0.077285 0.27343 0.11707 
0.054103 -0.0083746 0.028947 0.056404 0.033058 0.097344 0.38836 0.27623 
0.1031 0.027468 0.06479 0.070708 0.053774 0.078929 0.28856 0.27031 
0.10869 0.048677 0.054432 0.10162 0.060186 0.046868 0.098494 0.14371 
0.083862 0.046046 0.061008 0.059857 0.06479 0.033715 -0.077264 -0.051615 
0.083204 0.071202 0.086821 0.045553 0.040621 0.056404 -0.14089 -0.17114 
0.092247 0.12414 0.09422 0.031578 0.033551 0.052623 -0.13021 -0.19909 
0.070708 0.17807 0.060022 0.042758 0.029934 0.033222 -0.075949 -0.12889 
0.045718 0.15768 0.0421 0.014479 0.020891 0.01711 -0.012649 -0.030899 
-0.039449 0.13286 0.016123 0.012835 -0.0068948 1.0539e-005 0.024673 0.043909 
-0.076935 0.11658 -0.0082102 -0.0078813 0.0059294 -0.02942 -0.026953 0.061337 
-0.078908 0.20438 -0.018404 0.00297 -0.029584 -0.094692 -0.14862 0.0060938 
-0.0080457 0.36731 -0.015609 -0.019061 -0.0032777 -0.085813 -0.14928 -0.0068948 
0.063803 0.30303 0.0031344 0.0087245 0.004943 -0.01939 0.0070803 0.04095 
0.089123 0.14338 0.013492 0.0075736 0.031085 0.054596 0.12316 0.078765 
0.051308 -0.011992 0.028947 0.039305 0.051801 0.056569 0.10935 0.093233 
-0.048327 -0.11837 0.032564 0.036346 0.047362 0.042265 0.10014 0.12184 
-0.067235 -0.1547 0.045718 0.037661 0.0031344 0.029769 0.078929 0.15801 
0.0051074 -0.12725 0.05772 0.048348 0.030427 0.056404 0.018096 0.084519 
0.12858 -0.041257 0.087808 0.04506 0.037004 0.079094 0.018754 0.030756 
0.20882 0.12102 0.063639 0.033387 0.054596 0.063803 0.049335 0.011848 
0.19862 0.23216 0.044567 0.036839 -0.0070593 0.033551 0.11559 0.031907 
0.12135 0.22312 -0.0073881 0.028783 -0.0078813 0.0056006 0.20257 0.052952 
0.011355 -0.033365 -0.059507 -0.0068948 0.0023123 -0.020541 0.24252 0.11461 
-0.1085 -0.20847 -0.10176 -0.0083746 0.027303 -0.015773 0.20569 0.12283 
-0.12527 -0.12462 -0.045203 0.04654 0.047526 0.016945 0.0421 0.063803 
-0.078908 -0.035338 0.016123 0.076792 0.054267 0.025001 -0.18397 -0.084991 
-0.025638 0.1419 0.089287 0.062159 0.058871 -0.003771 -0.27341 -0.10998 
0.029276 0.24976 0.10343 0.043416 0.052623 -0.019555 -0.20222 -0.088115 
0.068078 0.31371 0.099152 0.033222 0.012999 -0.00097594 -0.029255 0.013657 
0.13269 0.30944 0.12316 0.048513 0.014479 0.031414 0.10162 0.047033 
0.147 0.18465 0.094713 0.031578 0.034537 0.052459 0.11937 0.059857 
0.1128 -0.087129 -0.00081153 0.018096 0.054103 0.047033 0.095042 0.039634 
0.10096 -0.21882 -0.009361 0.013164 0.029934 0.049664 0.10293 0.023357 
0.084026 -0.06707 0.015301 0.042265 0.037332 0.057884 0.070215 -0.037311 
0.038812 0.074819 0.055911 0.0092177 0.026974 0.045718 -0.0090322 -0.078744 
0.035688 0.076299 0.050321 0.016781 0.068407 0.0069159 -0.08384 -0.14944 
-0.049642 -0.058028 0.012506 0.031249 0.013986 0.0019835 -0.076771 -0.12215 
-0.092226 -0.2448 -0.044874 0.038812 0.015301 -0.014458 0.010697 0.011684 
-0.099953 -0.47268 -0.06855 -0.026624 -0.015773 -0.028762 0.1008 0.19517 
-0.11672 -0.55045 -0.12166 -0.021528 0.0070803 0.0018191 0.08567 0.29612 
-0.084334 -0.3395 -0.086964 0.0088889 0.0031344 -0.020212 0.058871 0.25222 
0.009711 0.043416 0.039141 0.055089 0.027139 -0.060987 -0.12955 0.13171 
0.18876 0.35383 0.12398 0.024015 0.071037 -0.073318 -0.21669 0.020069 
0.28214 0.46826 0.10885 0.036346 0.067256 -0.017088 -0.077428 0.031578 
0.23775 0.3387 0.034044 0.047855 0.025824 0.027632 0.13039 0.08863 
0.16245 0.13434 0.041772 0.042594 0.029441 0.10096 0.24104 0.066927 
0.019083 0.06035 0.0592 0.035853 0.025659 0.084848 0.21523 0.011848 
-0.10719 -0.034516 0.086657 0.037332 0.04358 0.063803 0.11707 -0.076771 
-0.15191 -0.12116 0.064625 0.052459 0.02122 0.051472 0.058049 -0.080223 
-0.14944 -0.13695 -0.001798 0.033222 0.0044497 0.020233 -0.021856 -0.078744 
-0.1307 0.0028056 0.0024767 0.0062583 0.021384 0.012342 -0.022021 -0.052273 
-0.10867 0.072188 0.029934 -0.048985 0.020233 -0.010676 -0.034352 -0.05589 
-0.037147 0.026481 -0.0060728 0.030592 -0.004593 -0.012156 -0.035503 -0.020706 
0.13713 0.10211 0.053281 0.013164 -0.016431 -0.0027845 -0.034516 0.026974 
0.2468 0.099481 0.096686 0.028783 0.028947 0.030263 -0.0068948 0.052623 
0.1909 0.034702 0.071695 0.0013258 0.041114 0.0421 0.039141 0.055418 
0.10178 -0.01117 0.042923 0.038812 0.017603 0.028947 0.026317 0.053281 
0.031414 -0.0082102 0.013821 0.0051074 0.020891 0.0032988 -0.013471 0.043909 
0.017767 -0.011663 -0.018568 0.010369 0.036182 0.011684 -0.0014692 0.086492 
0.023357 0.050486 0.025988 0.043909 0.036182 -0.012814 0.01974 0.0689 
-0.070359 0.064132 -0.0047575 0.062488 0.015301 -0.034516 -0.069208 0.025166 
-0.16161 0.043087 0.005765 0.027796 0.0044497 -0.042573 -0.064111 -0.017088 
-0.061151 0.047197 0.051308 -0.008539 0.015137 -0.0032777 0.039963 0.0016547 
0.11494 0.058213 0.13549 0.050814 0.053609 0.056898 0.073997 -0.0075525 
0.17593 -0.029091 0.10606 0.095206 0.033058 0.05624 -0.048492 -0.066741 
0.14864 -0.038791 0.077121 0.045224 0.033387 0.066105 -0.057699 -0.12314 
0.041772 -0.10702 0.058871 0.039305 0.024673 0.044731 0.042594 -0.067399 
-0.031557 -0.18479 0.025988 0.0019835 0.027632 0.027468 0.17856 0.031085 
-0.032215 -0.14007 -0.061645 -0.013143 0.0093821 0.025495 0.25666 0.081724 
-0.099789 -0.019226 -0.075455 -0.023501 -0.0029489 0.030592 0.23627 0.13006 
-0.11196 0.077943 -0.039284 -0.017417 0.018425 0.06331 0.20964 0.22082 
-0.029091 0.15045 0.025824 0.012177 0.038319 0.058706 0.14009 0.18267 
0.079422 0.22624 0.021056 0.025001 0.010862 0.026152 0.039799 0.077121 
0.12858 0.25535 0.029769 0.0087245 -0.023994 -0.051944 -0.06855 -0.062467 
0.16327 0.36583 0.09981 0.03651 0.023686 -0.0062372 -0.065591 -0.11048 
0.22246 0.45938 0.18432 0.11592 0.051143 0.11099 -0.051944 -0.028433 
0.21687 0.49046 0.17922 0.088958 0.052623 0.076627 0.037168 -0.011663 
0.11148 0.29349 0.080244 0.044896 0.014315 0.080902 0.03799 0.055582 
-0.13168 -0.087129 -0.012978 0.0039565 0.0041209 0.015794 0.040621 0.060515 
-0.21537 -0.3589 -0.035503 -0.0095255 0.025495 -0.024816 0.0075736 0.03536 
-0.13727 -0.43141 -0.089595 0.0026412 0.022535 0.045718 0.017767 -0.0052507 
0.044073 -0.22836 -0.083512 0.048184 0.0227 0.047526 0.043251 -0.011498 
0.183 0.093726 -0.021363 0.045718 0.02681 0.049006 0.052952 -0.0083746 
0.19501 0.29168 0.091425 0.077614 0.044731 0.044567 0.049992 -0.051451 
0.087314 0.32226 0.13319 0.05065 0.021713 0.036182 0.018096 -0.06148 
0.0786 0.28412 0.13056 0.038483 0.024344 0.062488 0.027796 -0.0029489 
0.082053 0.1756 0.054596 0.01152 0.03092 0.041772 0.085012 0.11905 
0.099974 0.057884 -0.00081153 0.0060938 0.01974 0.043745 0.10014 0.18925 
0.027796 -0.12248 -0.043395 -0.010183 0.0064227 0.0095465 0.078929 0.1641 
-0.1205 -0.23543 -0.050958 0.012177 0.012013 0.012342 0.03388 0.046046 
-0.22228 -0.22688 -0.0054151 0.011026 0.039799 0.028619 0.027632 -0.042737 
-0.2037 -0.12856 0.056569 0.061666 0.039963 0.019905 0.050157 -0.042408 
-0.042901 -0.0029489 0.095042 0.058871 0.045389 0.029605 0.098166 0.030756 
0.14568 0.1761 0.079258 0.046211 0.042265 0.040456 0.12184 0.080409 
0.2537 0.30862 0.077121 0.041607 0.040456 0.029934 0.083697 0.1026 
0.22674 0.28461 0.059528 0.039963 0.04095 0.019083 -0.0078813 0.10014 
0.13532 0.16262 0.043087 -0.0060728 0.011355 -0.0029489 -0.095514 0.016123 
0.031907 0.1271 -0.039613 -0.0087034 -0.00064712 -0.018239 -0.10291 -0.032708 
0.020727 0.11132 1.0539e-005 0.010533 0.0083956 -0.013636 -0.091897 -0.033201 
0.085835 0.16985 0.015301 0.0072447 0.020891 0.013164 -0.061151 0.082382 
0.18744 0.17133 0.05476 0.021384 0.029605 0.019576 -0.0026201 0.1442 
0.232 0.1368 0.036346 0.024673 0.034209 0.046704 0.06183 0.17462 
0.1636 0.1008 0.039799 0.061666 0.040621 0.03536 0.020891 0.072846 
-0.055561 0.007738 0.051801 0.03799 0.032729 -0.011992 -0.045203 0.0047785 
-0.12494 0.048019 0.061501 0.025001 0.045882 -0.033859 -0.048985 -0.00031829 
-0.0036066 0.19057 0.056076 0.024015 0.039141 0.021713 -0.0406 0.033551 
0.046211 0.30072 0.068736 0.048841 0.040785 0.031414 -0.063618 0.016288 
0.075148 0.35251 0.10589 0.046704 0.043909 0.0018191 -0.015444 1.0539e-005 
0.030592 0.30697 0.11691 -0.0064016 0.0013258 -0.031064 0.065447 -0.011498 
-0.22261 -0.03764 0.031578 -0.02087 -0.029913 -0.040435 0.11362 0.0087245 
-0.4273 -0.50408 -0.042244 -0.010676 -0.029584 -0.00064712 0.099974 -0.0096899 
-0.36433 -0.75432 -0.072496 -0.017911 0.0095465 0.019905 0.032893 -0.0059084 
-0.12215 -0.71568 -0.070687 0.015959 0.018918 0.028783 -0.020212 0.013164 
0.085012 -0.5248 -0.10012 0.045553 0.029441 0.019083 -0.034681 0.051472 
0.26866 -0.20945 -0.044874 0.098001 0.056569 0.013328 -0.011005 0.063968 
0.29612 0.0039565 0.0069159 0.073175 0.063474 0.0054362 0.048513 0.13697 
0.17511 0.038483 0.027139 0.027961 0.062652 0.017438 0.047362 0.12858 
0.11066 0.15094 0.052623 0.03388 0.038483 0.0085601 -0.02646 0.1174 
0.08715 0.23019 0.087808 0.062159 0.047197 0.0072447 -0.084334 -0.00097594 
0.077285 0.32193 0.13384 0.060844 0.047526 -0.0072237 -0.060494 -0.049314 
0.11313 0.45544 0.12677 0.057227 0.058377 0.0031344 -0.08269 -0.052931 
0.11263 0.52005 0.089945 0.020398 0.013492 0.03388 -0.050464 0.0090533 
0.082711 0.53715 0.06742 -0.0004827 -0.003771 -0.044052 -0.052931 -0.019884 
0.016123 0.49424 0.011848 -0.018404 -0.025309 -0.059836 -0.052602 0.011191 
-0.13777 0.232 -0.009361 -0.055726 -0.014129 -0.046847 -0.022021 -0.035832 
-0.26798 -0.044546 -0.05326 -0.015609 -0.020541 0.00017495 0.06594 -0.031557 
-0.21603 -0.20041 -0.023172 0.010697 0.0067515 0.030427 0.11839 0.00050378 
-0.020377 -0.25713 0.040621 0.054596 0.041114 0.039305 0.12201 0.064954 
0.049006 -0.30103 0.064461 0.06331 0.052787 0.04358 0.075312 0.034537 
0.039141 -0.27505 0.0090533 0.058542 0.025001 0.036182 0.04654 0.05772 
0.0042853 -0.15668 -0.019719 0.022371 0.03388 0.019247 0.055418 0.037332 
0.045553 -0.095514 -0.032379 0.011355 0.046211 0.03536 0.040785 0.05065 
0.12924 -0.12067 0.025659 0.048677 0.071037 0.046211 0.046211 0.031249 
0.17511 -0.0503 0.071037 0.08008 0.051308 0.049499 0.055911 0.05065 
0.13236 0.031249 0.065118 0.077121 0.028125 0.024344 0.066598 0.025495 
0.069722 0.035031 0.060679 0.049335 0.032236 0.025001 0.055418 0.040621 
0.055582 0.038977 0.076299 0.010533 0.047526 0.036182 0.072681 0.054925 
0.086657 0.12809 0.097179 0.056076 0.024015 0.043909 0.056404 0.06035 
0.088301 0.23249 0.086821 0.048841 0.017274 0.03536 0.046211 0.05624 
0.047691 0.29201 0.063968 0.01826 0.01711 -0.0026201 0.027139 0.018918 
-0.071674 0.10885 0.014808 0.00066819 0.013657 -0.0027845 0.013986 -0.023829 
-0.20584 -0.1427 -0.063453 -0.01676 -0.030077 0.03651 0.041607 -0.069043 
-0.15898 -0.072003 -0.053753 -0.0034422 -0.0050863 0.014972 0.0032988 -0.070687 
-0.02646 0.17314 -0.029584 0.0051074 0.029112 0.029934 -0.011005 -0.052766 
-0.0052507 0.18777 -0.02646 0.0039565 0.041114 0.04095 0.025659 -0.035174 
0.0044497 0.0227 -0.019226 0.022206 0.037497 0.073832 0.069722 0.033058 
0.087972 -0.087622 -0.017911 0.0067515 0.023357 0.051472 0.046375 0.051801 
0.1567 -0.020541 0.032564 0.022206 0.036675 0.026152 -0.018239 0.064296 
0.21539 0.13187 0.11017 0.045553 0.049992 0.024673 0.014315 0.077449 
0.23167 0.19287 0.16377 0.060022 0.029605 0.030098 0.10836 0.074326 
0.14174 0.16377 0.090109 0.033715 0.025824 0.0227 0.16015 0.07038 
0.077943 0.1276 0.053445 0.024344 0.025659 0.041114 0.18087 0.080409 
0.021549 0.063803 0.04506 0.036182 0.058542 0.042594 0.1368 0.06742 
0.016616 0.035688 0.064954 0.049828 0.03536 0.032236 0.0592 0.098659 
0.051472 0.096028 0.049006 0.05065 0.024344 0.016945 0.024673 0.1174 
0.068242 0.13121 0.041114 0.032893 0.026481 -0.0054151 0.028454 0.11773 
0.058542 0.11559 0.044073 0.055747 0.018425 0.033715 0.12891 0.11872 
0.086492 0.053774 0.012999 0.022042 0.024179 0.099316 0.16656 0.061501 
0.027303 -0.074798 -0.066248 0.015959 0.015465 0.085835 0.12677 0.01004 
0.0079024 -0.1478 -0.026953 0.010862 0.030756 0.049828 -0.053917 -0.091404 
-0.040271 -0.12248 0.0028056 0.05624 0.06035 0.035031 -0.082196 -0.1136 
-0.0022913 -0.031721 0.075312 0.04095 0.02122 0.049335 -0.053095 -0.058521 
0.043087 0.10047 0.063145 0.036346 0.017438 0.041278 0.011191 -0.0083746 
0.087972 0.21013 0.058213 0.040785 0.03651 0.041443 0.020069 0.038812 
0.1738 0.33969 0.085999 0.067913 0.048513 0.040621 0.059364 0.072846 
0.18432 0.35334 0.10589 0.051472 0.0087245 0.040292 0.068736 0.10589 
0.11428 0.24269 0.057062 0.025988 0.018425 0.029276 0.04358 0.066269 
0.064461 0.15719 0.065118 0.042758 0.028619 0.022535 0.027468 0.047033 
0.053938 0.055747 0.036182 0.03536 0.019247 0.020069 0.046375 0.029934 
0.030263 -0.0054151 0.01267 0.0024767 -0.0054151 -0.024323 0.057227 0.032893 
-0.068057 -0.035667 -0.044217 -0.028926 -0.01232 -0.025145 0.04358 -0.014951 
-0.25236 -0.092883 -0.041751 0.020398 -0.0070593 -0.013307 0.049499 -0.0013048 
-0.4301 -0.24266 0.01004 0.06035 0.036017 0.032893 0.052459 -0.032543 
-0.49422 -0.46035 0.010369 0.036346 0.022371 0.046868 0.10902 0.0023123 
-0.3275 -0.56722 -0.077922 0.004943 0.015465 0.012999 0.045882 0.019411 
-0.054904 -0.47942 -0.092719 0.010697 0.037497 0.033551 -0.003771 0.047526 
0.19517 -0.11639 -0.030242 0.037661 0.048841 0.010369 -0.078908 0.019247 
0.36221 0.13171 0.048677 0.044402 0.040785 0.015794 -0.097651 0.010204 
0.38079 0.21983 0.074654 0.014315 0.027796 -0.025309 -0.12823 -0.04471 
0.32555 0.28231 0.074326 0.03799 -0.01232 -0.065591 -0.1187 -0.074633 
0.23907 0.341 0.088136 0.046211 0.015465 -0.046519 0.047033 0.045389 
0.183 0.33492 0.10359 0.041114 0.029112 0.041443 0.1613 0.1932 
0.16442 0.28067 0.090109 0.067585 0.016945 0.093398 0.18892 0.27721 
0.089287 0.20191 0.033222 0.060022 0.044567 0.071037 0.029112 0.20668 
-0.0050863 0.13434 0.049335 0.047033 0.056569 0.037826 -0.10883 0.0039565 
-0.12905 0.090109 0.074161 0.034702 0.041114 0.025166 -0.13678 -0.13497 
-0.23329 0.090109 0.054596 0.040785 0.014808 -0.020048 -0.11113 -0.15914 
-0.2933 -0.0024557 -0.0087034 0.032564 -0.0091966 -0.066248 -0.079895 -0.10242 
-0.18693 -0.1205 -0.01528 -0.019555 -0.01232 -0.067728 0.013164 -0.042244 
-0.08269 -0.14615 -0.0080457 -0.0098543 -0.015938 -0.0050863 0.12332 -0.0034422 
0.027632 -0.069701 0.031578 0.014643 0.017274 0.045882 0.1345 0.024015 
0.1276 0.057884 0.0093821 0.067585 0.044238 0.051472 0.070544 0.0227 
0.12069 0.09685 0.0074092 0.05624 0.073339 0.061172 -0.0138 0.0069159 
0.059364 0.079916 0.028947 0.039799 0.050486 0.027796 -0.034516 -0.017088 
-0.0011404 0.011355 0.041278 0.029769 0.028619 0.0042853 -0.013143 0.0056006 
-0.049478 -0.037311 -0.033365 0.033222 0.041772 0.024508 -0.010512 0.027961 
-0.097322 -0.13958 0.011191 0.0021479 0.036675 0.0011614 -0.048985 0.028125 
-0.1113 -0.16325 -0.0091966 -0.013307 0.0014903 0.013986 -0.025638 0.015465 
0.016781 0.0034632 -0.019226 0.04358 -0.033365 0.0014903 -0.023007 0.03536 
0.10145 0.14897 0.0036276 0.033715 0.015959 0.012177 1.0539e-005 0.068571 
0.10622 0.19731 0.037168 0.015959 0.037168 0.015465 -0.017746 0.039963 
0.1105 0.18547 0.071531 0.037826 0.033551 -0.0052507 -0.019719 -0.021692 
0.074326 0.12908 0.099152 0.040785 0.023357 0.020233 0.038977 -0.015609 
0.066763 0.085341 0.031085 0.044731 0.04358 0.027632 0.087479 -0.032215 
0.085835 0.044567 0.014315 0.013986 0.048513 0.02122 0.061501 0.11707 
0.090109 0.013492 0.0065871 -0.0011404 0.025495 0.030756 0.047362 0.22148 
0.085999 0.04358 0.023193 0.017767 0.047362 0.029112 -0.034845 0.2292 
-0.027447 0.035853 -0.021363 0.038155 0.039963 0.034537 -0.040764 0.17626 
-0.052602 0.057884 -0.0059084 0.024508 0.056898 0.029276 0.041114 0.14174 
-0.0034422 0.026152 0.018754 -0.0072237 0.037168 0.033058 0.11411 0.033222 
0.06183 0.026974 0.034209 0.031414 0.0016547 -0.017088 0.040621 -0.049314 
0.077614 -0.0083746 0.014972 0.034866 0.014479 -0.0406 -0.042901 -0.032872 
0.05476 -0.073318 0.016288 0.039305 0.036182 -0.014458 -0.010348 0.011026 
0.0421 -0.060494 0.014808 0.037497 0.037497 0.054432 0.066105 -0.0062372 
0.065447 0.051965 0.071531 0.067256 0.049992 0.10162 0.14552 -0.019061 
0.081067 0.12283 0.084848 0.05065 0.078436 0.07597 0.14749 0.0047785 
0.034373 0.069229 0.080738 0.052459 0.06035 0.039634 0.066927 0.042265 
0.051308 0.079422 0.085835 0.057391 0.032729 1.0539e-005 -0.036489 0.045389 
0.12414 0.22098 0.11395 0.058706 0.04095 0.016945 -0.088773 0.072681 
0.17248 0.33558 0.082546 0.018754 0.020727 0.01974 -0.06444 0.050321 
0.11543 0.33591 0.04654 -0.0057439 0.021384 0.021878 -0.016924 0.071366 
0.044731 0.18235 -0.020541 -0.016595 -0.012156 -0.0080457 0.047691 0.030756 
0.030756 0.061172 0.0028056 0.015959 -0.0055795 -0.0011404 0.047526 0.005765 
0.012177 0.009711 -0.0072237 0.005765 0.029934 0.022042 0.096686 -0.020541 
-0.052602 -0.053424 -0.0042642 0.032071 0.065447 0.053281 0.13993 0.014479 
-0.095349 -0.10784 -0.032708 0.03092 0.043087 0.072024 0.1299 0.038812 
-0.089759 -0.14319 -0.00064712 0.049664 0.058213 0.057391 0.12546 0.11296 
-0.031064 -0.095843 0.013821 0.033387 0.035524 0.043087 0.099152 0.09833 
0.013821 -0.031721 0.031578 0.01152 0.041114 0.023851 0.078107 0.088465 
0.041114 0.020727 0.023193 0.020398 0.013328 0.016781 0.042594 0.028783 
0.060186 0.04095 0.03536 0.027303 0.005765 0.0098754 0.0039565 0.019411 
0.067091 -0.013636 0.035031 -0.011498 0.015465 0.012999 -0.012485 0.017603 
0.083368 0.029934 0.058377 0.028783 0.047362 0.026974 -0.0004827 0.015959 
0.12973 0.20964 0.12003 0.070051 0.029934 0.04917 -0.025474 -0.0026201 
0.21112 0.38556 0.14897 0.075312 0.03536 0.032071 -0.016924 0.0023123 
0.23742 0.48273 0.094548 0.0062583 0.018589 0.023028 -0.050629 0.0018191 
0.23742 0.41992 0.086492 0.017767 0.019247 0.018918 -0.0021268 0.029934 
0.13779 0.23923 0.02829 0.017274 0.033551 0.0034632 0.02681 0.012835 
-0.0047575 0.15719 0.033058 0.013657 -0.019226 0.027303 0.039634 -0.028269 
-0.044546 0.13549 0.023686 -0.0082102 0.017274 0.012506 0.043745 -0.073482 
-0.063618 0.0047785 -0.02087 0.0023123 0.036675 0.021384 0.040292 -0.018568 
-0.015938 -0.17131 -0.058192 0.027139 -0.00097594 0.015301 0.053938 0.044731 
-0.021363 -0.30498 -0.065426 -0.018733 -0.0078813 0.047691 0.079587 0.12102 
-0.073811 -0.35348 -0.017746 0.0023123 0.027139 0.049828 0.079916 0.097179 
-0.16572 -0.35266 -0.072989 0.007738 0.056569 0.025001 0.052459 0.050321 
-0.22672 -0.30202 -0.055397 0.03651 0.014315 0.010697 0.0054362 -0.066577 
-0.15783 -0.11541 0.020233 0.056076 0.039141 -0.0019624 0.01004 -0.077264 
0.0021479 0.12447 0.098494 0.04506 0.037497 0.010862 -0.0055795 -0.05441 
0.13154 0.34413 0.11987 0.02681 0.043251 0.04506 0.0052718 0.0018191 
0.19764 0.41499 0.12102 0.066434 0.0064227 0.017603 0.013492 0.013164 
0.21506 0.39296 0.10524 0.056569 0.026481 0.019083 0.075148 0.061995 
0.20865 0.26653 0.11658 0.044567 0.030098 0.028947 0.11066 0.082546 
0.21885 0.19122 0.086821 0.052459 0.055418 0.037826 0.10606 0.081067 
0.17314 0.17363 0.081724 0.071202 0.03092 0.034866 0.068407 0.073175 
0.12431 0.099645 0.058049 0.032236 0.040456 0.037004 0.039634 0.057227 
0.017932 -0.084498 0.019576 0.025659 0.0026412 0.016123 -0.0060728 -0.004593 
-0.10965 -0.25121 -0.063124 -0.03057 0.011684 -0.017911 -0.047176 -0.034516 
-0.23839 -0.38505 -0.12478 -0.021363 -0.0044286 -0.038627 -0.028762 -0.044546 
-0.32832 -0.3566 -0.064933 -0.023007 -0.0044286 -0.023336 0.012835 0.018425 
-0.24431 -0.19482 0.020233 0.019083 0.018918 -0.0014692 0.041936 0.081231 
-0.036489 0.027139 0.033222 0.028125 0.035195 0.021549 0.036839 0.096357 
0.11806 0.14798 0.016288 0.032893 0.019411 0.01974 -0.011992 0.039963 
0.19977 0.15966 0.023851 0.016288 0.026152 0.00017495 -0.047998 0.010697 
0.15686 0.075805 0.062488 0.026974 0.040456 0.025659 -0.022514 -0.0067304 
0.038648 -0.051122 0.08419 0.073504 0.084848 0.038155 0.013328 -0.0054151 
-0.045532 -0.030406 0.083204 0.059528 0.028783 0.0093821 0.017274 -0.012156 
-0.068879 0.072188 0.074983 0.031085 0.034866 -0.0024557 0.037497 -0.012814 
-0.070194 -0.018239 0.027139 0.013328 0.022535 0.0098754 0.026317 -0.014129 
-0.083347 -0.20847 -0.024487 0.035031 0.055418 0.031742 0.034702 -0.021528 
-0.090581 -0.28064 -0.091897 0.024015 0.045224 0.035853 0.048348 -0.016595 
-0.060987 -0.17838 -0.079895 0.020562 0.044731 0.043909 0.047691 0.023522 
-0.017582 0.015301 -0.033365 0.0088889 0.041936 0.016945 0.0324 0.057062 
0.063968 0.15982 0.0227 0.04095 0.049992 -0.0042642 0.020727 0.078272 
0.15242 0.20224 0.052459 0.042594 0.045718 0.033058 0.04358 0.087808 
0.24762 0.24762 0.10491 0.051308 0.039141 0.02829 0.0592 0.10803 
0.26011 0.2828 0.12003 0.048677 0.050979 0.020233 0.072517 0.073339 
0.16673 0.29201 0.16229 0.083697 0.053774 0.0098754 0.0092177 0.056076 
0.089287 0.35712 0.081231 0.0786 -0.0022913 -0.05178 -0.011334 0.013328 
0.0013258 0.42502 0.075312 0.018425 0.0031344 -0.004593 0.0092177 -0.00097594 
-0.13053 0.25666 0.01152 0.023357 0.0060938 0.0082312 0.014972 0.0024767 
-0.20189 -0.22704 0.039305 0.059528 0.045553 0.055418 0.085835 0.0069159 
-0.25121 -0.72653 -0.023007 0.022535 0.027632 0.034209 0.064132 0.012835 
-0.25993 -0.96888 -0.076277 -0.0014692 -0.0049219 -0.0042642 0.033058 -0.015609 
-0.2106 -0.6777 -0.093705 -0.032215 -0.0077169 0.010862 -0.013471 -0.049314 
-0.15618 -0.17706 -0.040764 -0.018075 -0.017417 -0.0067304 -0.069043 -0.11508 
-0.010183 0.15489 -0.01528 -0.030406 -0.016595 -0.035174 -0.043724 -0.062631 
0.11987 0.26077 -0.0021268 0.0085601 0.0064227 -0.03616 -0.021692 0.065776 
0.24005 0.27146 0.0592 0.043251 0.025166 -0.014622 -0.055726 0.11346 
0.2856 0.256 0.14782 0.066434 0.040292 -0.003771 -0.11837 0.10014 
0.32078 0.22608 0.10474 0.060186 0.040456 -0.001798 -0.1182 0.12529 
0.31601 0.3193 0.11526 0.068407 0.045882 -0.00081153 0.020891 0.14683 
0.25469 0.37734 0.081395 0.069393 0.04654 0.039799 0.14502 0.14256 
0.16294 0.3438 0.080244 0.060022 0.036346 0.087314 0.1687 0.052787 
0.074161 0.29974 0.061008 0.043745 0.028947 0.090438 0.12168 0.0069159 
0.013164 0.19928 0.064296 0.050157 0.037497 0.072517 0.086985 -0.028104 
-0.045532 0.21638 0.073175 0.058706 0.035195 0.050321 0.016781 -0.0057439 
-0.078744 0.24088 0.085177 0.030263 0.048513 0.034866 0.027303 0.020233 
-0.13086 0.28116 0.068242 0.025495 0.019411 0.040785 0.097179 0.029112 
-0.17986 0.1927 0.027468 0.013657 0.017438 0.047855 0.12053 0.012506 
-0.18084 -0.022185 -0.045203 0.041772 0.023522 0.034209 0.070708 -0.0031133 
-0.13152 -0.28212 -0.043888 -0.01117 0.0018191 0.0080668 0.054432 -0.038627 
-0.096007 -0.44687 -0.066248 0.014479 0.012506 0.013821 0.0067515 -0.059672 
0.058871 -0.37222 -0.037147 0.011848 0.022371 -0.0032777 -0.060165 -0.057534 
0.24729 -0.16276 -0.018897 0.03536 0.038977 -0.035996 -0.13004 -0.013471 
0.34955 0.075312 -0.016595 0.0064227 0.035524 -0.029091 -0.15388 0.015137 
0.43702 0.25058 0.033551 0.013492 0.020562 0.028947 0.011355 0.10967 
0.44376 0.37898 0.076463 0.048184 0.060679 0.12546 0.16755 0.15703 
0.3928 0.46695 0.13105 0.096357 0.05213 0.13664 0.16064 0.13565 
0.25337 0.44031 0.12776 0.057555 0.067091 0.11592 0.076792 0.060186 
0.063968 0.24647 0.08567 0.032893 0.039799 0.097015 0.0011614 0.020727 
-0.1718 0.018589 0.0028056 0.023357 -0.0014692 -0.017582 -0.083183 -0.01939 
-0.27686 -0.062302 -0.0050863 -0.008539 -0.043888 -0.11048 -0.10176 0.038155 
-0.27538 0.010369 0.034702 -0.023665 -0.045368 -0.14402 -0.098802 0.10211 
-0.1723 0.13072 0.077285 -0.0042642 -0.00097594 -0.096665 0.010862 0.13023 
-0.011005 0.16804 0.053774 0.023028 0.021549 0.031742 0.13697 0.16985 
0.076956 0.078272 0.018425 0.038319 0.038812 0.092247 0.18909 0.15374 
0.15127 0.051308 -0.017582 0.0092177 0.062488 0.082217 0.13993 0.029112 
0.11346 0.091425 0.011355 0.021549 0.033387 0.042265 0.020398 -0.029255 
0.22723 0.26883 0.047691 0.091425 0.068078 0.050157 0.0018191 -0.076277 
0.18218 0.34561 0.11083 0.091425 0.047362 0.091918 0.0016547 -0.051287 
0.066598 0.22904 0.11329 0.068078 0.05476 0.086657 0.019083 -0.051451 
-0.086307 0.05772 0.067091 0.036346 0.020398 0.059035 0.037826 -0.059836 
-0.17887 -0.049478 -0.042901 0.0065871 0.0023123 0.012177 -0.0026201 -0.085156 
-0.20271 -0.051287 -0.049314 0.0064227 0.01004 -0.001798 -0.0036066 -0.05885 
-0.14763 -0.13399 -0.025802 0.021056 0.0421 0.041443 0.010369 -0.019719 
-0.026789 -0.21636 0.038483 0.030592 0.058377 0.057884 0.087643 0.036182 
0.11247 -0.20205 0.03651 0.066105 0.043745 0.052294 0.11592 0.056898 
0.22707 -0.13481 -0.0077169 0.043745 0.010369 0.05624 0.17149 0.15045 
0.18136 -0.12346 -0.018075 0.012177 0.0227 0.036017 0.20997 0.16245 
0.058871 -0.13875 -0.0057439 0.0075736 0.019905 0.016616 0.08567 0.062817 
-0.01676 -0.12675 -0.028926 0.031085 0.0051074 -0.038956 -0.075127 0.010697 
0.023193 -0.011005 0.010862 0.017767 0.00066819 -0.074469 -0.10735 0.074819 
0.07038 0.18136 0.0592 0.025166 0.0041209 -0.025474 -0.048985 0.098988 
0.076792 0.2657 0.085506 0.042594 0.036182 0.024673 -0.011334 0.06331 
0.0093821 0.2583 0.03092 0.064296 0.02829 0.03388 -0.010183 0.0082312 
-0.035503 0.1858 0.021384 0.031085 0.023851 0.021549 -0.018075 0.018589 
-0.035667 0.083533 0.02533 0.034537 0.018589 0.0019835 -0.017417 -0.0039354 
-0.011498 -0.00064712 0.036182 0.028947 0.022864 0.012177 0.026481 0.023357 
0.021713 -0.09946 0.0088889 0.055254 0.030592 0.032729 0.10507 0.054267 
-0.011498 -0.12133 0.026974 0.028619 0.017932 0.061172 0.16229 0.050157 
-0.14089 -0.11837 0.060844 0.017932 0.044402 0.054267 0.13828 -0.0036066 
-0.20847 -0.15684 0.07597 0.047033 0.056569 0.028783 0.095699 -0.044874 
-0.17295 -0.13267 0.057227 0.055582 0.042758 0.0051074 0.059693 -0.073482 
-0.10193 -0.11968 0.018425 0.02829 0.012177 0.013492 0.046704 -0.055232 
-0.059014 -0.11228 -0.019061 0.0014903 0.0036276 0.02681 -0.049807 -0.10127 
-0.018897 -0.12116 -0.040271 0.0227 0.018589 -0.00015387 -0.11179 -0.087786 
0.12135 -0.02087 -0.02498 0.025824 0.011848 -0.0036066 -0.022185 0.060022 
