0.047362 0.053774 0.013328 0.0067515 0.048184 0.061501 0.074326 0.21934 
-0.018404 0.035853 0.01152 -0.0088678 -0.0026201 0.06331 -0.072496 0.04654 
-0.021528 0.031414 0.033715 0.019905 0.0059294 0.049664 -0.084663 -0.052273 
-0.017253 0.033551 0.056076 0.037661 0.071859 0.059528 -0.041915 -0.086471 
-0.03353 0.043416 0.062159 0.046704 0.083862 0.056404 0.01267 -0.075455 
-0.011663 0.052459 0.040785 0.029441 0.079094 0.068571 0.0079024 -0.055232 
0.077285 0.041114 0.057391 0.060515 0.1419 0.05772 0.031742 -0.023829 
0.089452 0.037332 0.069064 0.10211 0.18794 0.056898 0.076299 -0.040435 
0.067256 0.023686 0.030098 0.084519 0.19468 0.024344 0.064132 -0.049807 
0.0018191 -0.0034422 -0.017417 0.050814 0.10195 0.014808 0.065776 -0.0049219 
-0.025638 -0.014951 -0.04471 0.034702 0.028125 -0.011663 0.082382 0.092247 
-0.0073881 -0.01528 -0.0098543 -0.01939 -0.016102 -0.015773 0.098494 0.13582 
0.0019835 0.0069159 -0.013143 -0.0013048 -0.0062372 0.016288 0.049664 0.12365 
0.015137 0.043909 0.02533 0.025495 0.03947 0.021384 0.0062583 0.041114 
0.012013 0.078272 0.053281 0.027632 0.054596 0.027139 0.0034632 -0.0022913 
0.036346 0.067585 0.092411 0.029934 -0.004593 -0.0067304 -0.024158 -0.050136 
0.056569 0.061501 0.064954 0.032729 -0.020212 -0.021363 -0.061973 -0.070359 
0.041772 0.033058 0.053609 0.029934 -0.03616 -0.037147 -0.024487 -0.019555 
0.053116 -0.0052507 0.025824 0.0227 -0.034516 -0.05178 0.035031 0.056898 
0.0421 0.0065871 0.0227 0.012177 -0.028104 -0.037969 0.096193 0.1276 
0.021384 0.010862 0.025659 0.013492 -0.011005 0.01711 0.15703 0.20997 
0.0088889 0.024508 0.013821 0.03092 0.016781 0.02533 0.093233 0.16706 
0.024673 0.041607 0.022042 0.016616 0.026646 0.019247 -0.0040998 0.076463 
0.088301 0.092082 0.069064 0.019247 0.0092177 0.016288 -0.053753 -0.052109 
0.096193 0.1248 0.082053 0.025166 0.047197 0.048348 0.027303 -0.080552 
0.074983 0.10326 0.05624 0.048184 0.064461 0.06594 0.10589 -0.025967 
0.027468 0.032236 0.024837 0.016452 0.068736 0.06594 0.08419 -0.0052507 
-0.0067304 -0.029748 0.015301 -0.0098543 0.032893 0.032893 0.031085 0.024508 
-0.051287 -0.023336 0.04095 0.0087245 0.01563 -0.0032777 -0.071181 -0.045696 
-0.084991 -0.015773 -0.0039354 0.020069 -0.041751 -0.032543 -0.080552 -0.038298 
-0.056219 0.020891 -0.0034422 0.0090533 -0.082032 -0.046025 0.005765 -0.024323 
0.065447 0.018918 0.023851 -0.017582 -0.065097 -0.038791 0.13105 0.040785 
0.16081 0.054432 0.049006 0.021878 -0.0004827 0.012013 0.1761 0.051143 
0.10047 0.078929 0.036182 0.0042853 0.042594 0.072188 0.12036 0.015794 
0.073504 0.071037 0.019083 0.010204 0.020398 0.079587 0.029276 -0.03057 
0.062981 0.042429 0.018754 -0.012156 0.0060938 0.052952 -0.033037 -0.0004827 
0.096028 0.042429 0.055418 0.065283 0.054925 0.038155 -0.087951 0.061337 
0.088136 0.057555 0.07597 0.085835 0.1368 0.048677 -0.038956 0.14831 
0.070215 0.10343 0.066434 0.14272 0.21326 0.12924 0.11658 0.21145 
0.099316 0.097344 0.073175 0.14108 0.21802 0.17922 0.1784 0.232 
0.075641 0.055418 0.064132 0.094384 0.1271 0.10195 0.14716 0.15653 
0.035853 0.025659 0.078272 0.046704 0.081724 0.027632 0.047691 0.066763 
-0.0054151 0.020562 0.015465 0.020069 -0.010512 -0.015444 -0.042408 -0.046025 
-0.023007 0.045389 0.0044497 -0.0055795 -0.054246 -0.014787 -0.053424 -0.10489 
-0.015116 0.013986 0.022206 -0.018897 -0.070359 0.023357 -0.034516 -0.13349 
-0.021363 0.0034632 0.066269 -0.01232 -0.068386 0.02533 0.013164 -0.091568 
-0.017417 0.051143 0.051965 -0.021856 -0.071181 0.0070803 0.051143 -0.05885 
0.045882 0.09274 0.049335 -0.015444 -0.047669 0.024673 0.094055 -0.011498 
0.048513 0.094055 0.046704 -0.017088 -0.025309 0.060679 0.076627 -0.015938 
0.022535 0.061995 0.044238 -0.0044286 -0.023829 0.039634 0.030263 0.015465 
0.046046 0.035853 -0.0098543 -0.00064712 -0.026131 0.013328 0.037168 0.11526 
0.045882 0.040128 -0.0011404 0.061337 0.0064227 0.063639 0.1105 0.2371 
0.031085 0.067091 0.0087245 0.041114 0.0074092 0.074819 0.033551 0.16196 
0.0024767 0.034373 0.040128 0.039141 0.023193 0.051965 -0.088937 0.020891 
0.037168 0.050321 0.055254 0.056898 0.036182 0.041443 -0.079072 -0.060329 
0.073504 0.079916 0.057884 0.11231 0.060022 0.052787 0.012177 -0.03912 
0.069064 0.095371 0.062981 0.09685 0.078436 0.048841 0.078436 -0.021692 
0.048184 0.10162 0.059857 0.035031 0.037497 0.04506 0.061995 -0.0042642 
0.013492 0.044073 0.04917 0.024344 0.01004 0.030592 0.069886 0.034209 
0.017274 0.029605 0.024179 0.039141 0.044402 0.014315 -0.012156 0.048677 
0.033715 0.029934 0.047362 0.04358 0.070873 -0.073976 -0.13086 0.044731 
0.044402 0.052952 0.022864 -0.0040998 0.0044497 -0.13103 -0.12494 0.022206 
0.043087 0.062817 0.038319 -0.0077169 -0.016431 -0.062138 -0.017911 0.0036276 
-0.0004827 0.046868 0.015794 -0.0050863 0.011684 0.057884 0.090931 0.030263 
-0.065919 0.017438 -0.00081153 0.030756 0.086492 0.10655 0.1151 0.027303 
-0.06707 -0.015609 -0.012978 0.031249 0.10622 0.099481 0.11083 0.059364 
0.00297 0.027468 0.030263 0.084848 0.087479 0.08156 0.093726 0.10951 
0.05476 0.029934 0.016452 0.05624 0.0093821 0.088136 0.098659 0.10984 
0.063474 0.037661 0.053445 0.10359 0.15719 0.10178 0.054596 0.0075736 
0.088958 0.086821 0.03799 0.20635 0.34594 0.14601 0.076299 -0.067728 
0.049992 0.077121 0.07449 0.16475 0.29283 0.10902 0.083533 -0.036818 
0.030427 0.099152 0.027468 0.036839 0.00050378 -0.015444 0.064461 -0.0014692 
0.045224 0.083368 0.034537 -0.049971 -0.18232 -0.10587 -0.013965 0.01004 
0.030427 0.061008 0.03092 -0.056383 -0.18084 -0.1062 -0.067728 -0.00015387 
0.053609 0.06035 0.047362 -0.0087034 -0.087293 -0.056055 -0.10554 0.031907 
0.058706 0.070708 0.03651 0.014315 0.00297 -0.021856 -0.054904 0.053938 
0.021878 0.058706 0.026646 0.0083956 0.058049 0.055747 0.015959 0.046704 
-0.027611 0.020233 0.021384 0.019247 0.031742 0.082053 0.073668 -0.0022913 
-0.055068 0.0087245 0.053774 0.010533 -0.044217 0.072024 0.057062 0.025166 
-0.025802 0.01711 0.057555 0.0092177 -0.064933 0.028947 0.034866 0.048019 
0.00083261 0.04358 0.0069159 0.029934 -0.003771 0.018754 0.063803 0.10392 
0.027139 0.033058 -0.024652 0.062323 0.067091 0.025495 0.056404 0.049828 
-0.027118 0.012835 0.020398 0.05065 0.095535 0.023357 0.019083 -0.018075 
-0.014129 0.039963 0.065612 0.044238 0.061008 0.0054362 -0.067235 -0.069536 
0.039634 0.042923 0.029112 0.040621 0.024837 -0.00081153 -0.07003 -0.013307 
0.051801 0.082382 0.039305 0.049006 -0.03764 -0.0047575 -0.063124 -0.0004827 
0.074326 0.050814 0.0072447 0.016452 -0.025802 -0.023665 -0.03501 0.052787 
0.062323 0.01004 -0.0138 0.032564 0.00066819 -0.008539 0.10984 0.09274 
0.034209 -0.0040998 -0.03764 0.03388 0.031907 0.058213 0.15587 0.043909 
-0.011334 -0.012485 -0.011827 0.037497 -0.024652 -0.0064016 0.10162 -0.026131 
-0.052273 0.012506 0.007738 -0.020706 -0.071674 -0.066084 0.069064 -0.058521 
-0.012978 0.025495 0.053445 -0.039942 -0.098638 -0.072167 0.13023 -0.02235 
0.016288 0.047033 0.044567 -0.02646 -0.099953 -0.10127 0.1174 0.072681 
0.057062 0.046375 0.032236 0.026646 0.015465 -0.10406 -0.047012 0.10145 
0.075641 0.055418 0.025001 0.069229 0.11526 -0.029255 -0.16194 0.14371 
0.059528 0.06035 0.038977 0.091425 0.1151 0.06594 -0.16901 0.066269 
0.037826 0.034537 0.031907 0.075805 0.097344 0.094384 -0.12248 -0.00064712 
0.030592 0.035853 0.023357 0.087643 0.16311 0.10326 -0.037476 -0.034352 
0.031578 0.0019835 0.040456 0.099481 0.2833 0.16262 0.031742 -0.042573 
-0.0024557 0.043251 0.045389 0.096357 0.38836 0.19122 0.076299 -0.021199 
-0.012156 0.062159 0.058213 0.08156 0.19731 0.091425 0.077121 -0.0064016 
0.0075736 0.05624 0.010697 -0.013471 -0.096994 -0.05326 0.028619 -0.061645 
0.069064 0.038155 0.025495 -0.034023 -0.19482 -0.094199 0.063968 -0.0082102 
0.11362 0.051143 0.034209 -0.031064 -0.11935 -0.031228 0.11313 0.083368 
0.12283 0.10096 0.042265 0.0047785 -0.085813 -0.0088678 0.074326 0.11872 
0.091096 0.05476 0.013328 -0.031886 -0.12659 0.0026412 0.018096 0.069393 
0.035195 0.020891 0.027139 -0.026789 -0.11459 -0.017417 -0.0029489 0.054103 
-0.0049219 0.034537 0.01004 -0.0503 -0.1233 0.014808 0.028783 0.11855 
-0.0082102 0.031578 0.022042 -0.0054151 -0.094692 0.043745 0.083368 0.09833 
0.0093821 0.0090533 -0.010348 -0.00081153 0.0056006 0.031085 0.025659 0.016123 
-0.0062372 0.016616 0.00066819 0.039141 0.060844 -0.0054151 -0.061151 -0.028762 
-0.02235 -0.0019624 -0.0083746 0.032893 0.10869 -0.07003 -0.12264 -0.074304 
0.049335 0.02122 0.055418 0.078272 0.098659 -0.065426 -0.080059 -0.021199 
0.10063 0.10376 0.06742 0.052952 0.1539 0.028947 0.02681 0.031742 
0.088465 0.079258 0.021056 0.061008 0.1932 0.077121 0.092082 0.081395 
0.065612 0.064625 0.00297 0.060022 0.14683 0.076956 0.12957 0.10984 
0.051472 0.046375 0.031907 0.00297 0.031742 0.036182 0.11494 0.077614 
0.04358 0.082546 0.0421 -0.023336 -0.06 0.014808 0.083204 0.048184 
0.020069 0.078765 0.013164 -0.047834 -0.076277 0.0046141 0.043909 0.019905 
0.014643 0.061008 0.023028 -0.030242 -0.081539 -0.03616 0.00297 0.029605 
0.059035 0.041936 0.038319 -0.034352 -0.073811 -0.055068 -0.019884 0.0075736 
0.082053 0.044731 0.062817 -0.0026201 -0.030899 -0.024487 -0.026131 -0.0062372 
0.032071 0.03536 0.00033937 0.040128 0.044731 -0.0016336 0.039963 0.0013258 
-0.010019 0.024344 0.00033937 0.069722 0.083697 0.06183 0.13417 0.031578 
-0.039449 0.029276 0.023851 0.075312 0.085177 0.071202 0.23085 0.01267 
-0.029913 0.053774 0.049499 0.098823 0.12332 0.10787 0.24301 0.08156 
-0.034023 0.063145 0.039305 0.12349 0.22871 0.12529 0.17215 0.14239 
-0.026789 0.066927 0.024344 0.13023 0.24729 0.13351 -0.025474 0.089287 
0.021713 0.079094 0.050321 0.043745 0.14535 0.027303 -0.25845 -0.070194 
0.084026 0.046375 0.059857 -0.038298 -0.026624 -0.08828 -0.35348 -0.065097 
0.10655 0.038977 0.029276 -0.052766 -0.084991 -0.10012 -0.19909 0.0018191 
0.10606 0.061995 0.034209 0.0052718 -0.046847 -0.047341 0.038977 0.070873 
0.10162 0.098166 0.041278 0.0083956 -0.041422 -0.020048 0.10918 0.074161 
0.049992 0.06479 0.03799 0.0079024 -0.083183 -0.017582 0.084519 0.073339 
0.034373 0.03388 0.025824 0.022371 -0.077593 0.0056006 0.091918 0.026646 
-0.0052507 0.024837 0.0092177 -0.0073881 -0.015609 0.049006 0.1026 0.0087245 
-0.025638 0.022864 0.015959 0.012835 -0.013143 0.072353 0.10688 -0.036489 
-0.0503 0.01152 0.022206 0.012177 -0.011663 0.10178 0.12595 0.0054362 
-0.07003 -0.038133 0.01267 0.032071 0.0036276 0.071202 0.11905 0.0065871 
-0.042408 -0.037476 -0.0091966 -0.016431 0.071531 0.061008 0.089452 0.032729 
0.033551 0.0064227 -0.011005 0.02533 0.16146 0.061172 0.14354 0.044402 
0.078436 0.061172 0.018096 0.047691 0.094877 0.012999 0.17528 0.040785 
0.10211 0.083204 0.043909 0.0592 -0.020377 -0.012156 0.083697 -0.024487 
0.088794 0.077614 0.02681 0.024179 -0.079566 -0.039613 -0.031886 -0.057699 
0.049335 0.049006 0.041936 0.016781 -0.051944 -0.060823 -0.11771 -0.1233 
0.038977 0.066269 0.044238 0.039799 0.02533 -0.034352 -0.12346 -0.063946 
0.083862 0.070051 0.10047 0.083862 0.086163 0.0227 -0.066906 0.0082312 
0.071202 0.072681 0.055254 0.069393 0.09126 0.012013 -0.06855 0.11099 
0.07449 0.047197 0.063968 0.085506 0.073339 0.019083 -0.090581 0.076956 
0.0592 0.045718 0.037168 0.091425 0.10113 0.050486 -0.0080457 0.054596 
0.033551 0.0014903 0.06594 0.057391 0.069229 0.034537 -0.0067304 0.047691 
-0.017088 0.033058 -0.0098543 0.0032988 -0.04323 0.034373 0.020233 0.06479 
-0.02646 0.025988 -0.00031829 -0.021692 -0.085156 0.037332 0.049335 0.075805 
-0.014622 -0.030406 -0.012978 0.0072447 -0.078579 0.034044 0.10359 0.10063 
0.0028056 -0.014458 -0.0049219 0.00066819 -0.009361 0.031907 0.14519 0.088301 
-0.0072237 -0.01676 0.023686 0.020562 0.04654 0.038812 0.16114 -0.0036066 
-0.018897 0.028783 0.0324 0.076956 0.17593 0.08156 0.11937 -0.043888 
-0.016595 0.032071 0.027468 0.12332 0.19533 0.1179 0.10606 -0.029091 
0.025495 0.054267 0.032236 0.048348 0.10721 0.077778 0.077449 0.019905 
0.050979 0.048348 0.016123 -0.013307 0.0013258 0.021056 0.035524 0.055254 
0.060515 0.055582 0.021056 -0.032543 -0.043066 -0.019719 -0.01676 0.071531 
0.038812 0.083862 0.052952 -0.016595 -0.072989 -0.0013048 -0.059836 0.027468 
0.042758 0.071531 0.058213 -0.0049219 -0.065097 0.012177 -0.061973 0.0083956 
0.06183 0.085341 0.071366 0.028619 -0.055068 0.0074092 -0.083183 -0.027447 
0.044073 0.035195 0.044238 0.032564 -0.025474 -0.014129 -0.088608 -0.037147 
0.025988 0.0028056 -0.0049219 0.037168 -0.026789 -0.041586 -0.10193 -0.056548 
-0.0062372 -0.024816 -0.015938 -0.00097594 -0.054082 -0.021528 -0.059178 -0.0034422 
-0.033859 -0.032215 0.042265 0.037168 0.069229 0.058213 0.10606 0.019247 
-0.020541 0.015959 0.027632 0.089287 0.19879 0.092082 0.18909 0.10359 
0.014808 0.041443 0.049828 0.073175 0.14864 0.045553 0.16393 0.15028 
0.065447 0.086163 0.045389 0.040621 0.017438 -0.0004827 0.077614 0.14568 
0.07038 0.081395 0.065447 0.0087245 -0.024323 0.0070803 -0.0011404 0.053116 
0.056569 0.095371 0.060844 0.046375 -0.0019624 0.067256 -0.039449 -0.0039354 
0.04506 0.087643 0.062323 0.035031 0.023522 0.057062 -0.038627 -0.055068 
0.064296 0.090767 0.062159 0.029276 0.050321 0.075476 -0.0034422 -0.0049219 
0.075641 0.086163 0.044731 0.007738 0.057227 0.059528 0.03651 0.00050378 
0.042923 0.060844 0.02533 0.021713 0.063803 0.037004 0.050321 0.073175 
0.024179 0.013657 0.036346 0.026646 0.089452 0.066763 0.018754 0.070215 
-0.0062372 -0.0096899 0.048841 0.044238 0.066763 0.060022 0.015794 0.084848 
-0.012156 -0.0077169 0.050486 0.010204 -0.041751 -0.011498 0.030427 0.12825 
-0.021034 0.042594 0.052787 -0.0088678 -0.092061 -0.041751 0.042594 0.12217 
0.021384 0.048348 0.036017 -0.04619 -0.020212 -0.037969 0.014808 0.011355 
0.077943 0.036017 0.021549 0.016616 0.046211 0.024344 0.014315 -0.018897 
0.097179 0.0421 0.040128 0.06742 0.10392 0.07597 0.03388 0.0039565 
0.1003 0.075476 0.073668 0.082053 0.12233 0.089616 0.10918 0.033387 
0.10195 0.091753 0.039634 0.062323 0.15374 0.09274 0.12349 0.016288 
0.0592 0.12316 0.057884 0.065118 0.15012 0.10359 0.085341 0.039141 
0.040456 0.094877 0.063474 0.10458 0.14617 0.047362 -0.0072237 0.049828 
0.01711 0.043745 0.044896 0.038812 0.029769 0.010862 -0.024158 0.028454 
0.009711 0.084684 0.023851 -0.0011404 -0.053095 -0.02235 -0.010348 -0.021692 
-0.021692 0.059035 0.012177 0.015301 -0.051944 -0.022843 0.0056006 -0.025802 
-0.025967 0.02829 0.020891 0.005765 -0.080552 -0.053095 -0.084498 -0.035174 
-0.0098543 0.0014903 0.020398 -0.03353 -0.051615 -0.049478 -0.17904 -0.03616 
0.005765 0.014808 0.054596 -0.027775 -0.042737 -0.03205 -0.12018 0.020891 
0.049006 0.073339 0.017438 -0.028269 -0.10932 -0.011827 0.042594 0.10606 
0.053609 0.071366 0.021549 -0.043395 -0.15092 0.023357 0.11724 0.11625 
0.047197 0.082382 0.042923 -0.050958 -0.15668 0.041607 0.16377 0.12135 
0.024673 0.04917 0.056898 -0.037311 -0.073482 0.063145 0.13023 0.050486 
0.018754 0.063968 0.0093821 0.010204 -0.011334 0.025495 0.077614 0.026646 
0.013821 0.053938 0.030592 0.070544 0.039141 0.030263 0.075476 0.0079024 
0.052459 0.054103 0.060844 0.11066 0.14667 0.06479 0.097179 0.02122 
0.054267 0.049664 0.066105 0.12513 0.27014 0.084519 0.087808 -0.027611 
0.062817 0.065776 0.041114 0.20569 0.36616 0.15374 0.1008 -0.023829 
0.028125 0.057884 0.063474 0.20273 0.41532 0.18103 0.19402 -0.026296 
0.036675 0.067091 0.04917 0.18415 0.41253 0.15078 0.083697 0.0095465 
0.043909 0.059693 0.056569 0.1128 0.30303 0.036839 -0.1376 0.021878 
0.042265 0.04917 0.017932 -0.00031829 -0.012814 -0.12346 -0.29429 -0.0047575 
0.061172 0.042429 0.0044497 -0.13185 -0.29889 -0.20238 -0.27127 0.089452 
0.030098 0.048348 0.0014903 -0.14319 -0.4056 -0.18052 -0.1159 0.1151 
-0.012978 0.015959 0.048677 -0.097816 -0.32224 -0.12083 -0.003771 0.057227 
-0.009361 0.012835 0.052459 -0.0070593 -0.15191 -0.049807 0.12562 0.052787 
0.0037921 0.028947 0.016781 0.01711 -0.018075 0.041607 0.24893 0.14667 
0.025824 0.042265 0.015137 0.045553 0.029934 0.076627 0.21227 0.14157 
0.055747 0.04917 0.020233 0.045224 -0.04471 0.073668 0.17544 0.077778 
0.054596 0.010369 0.032729 0.013821 -0.14434 0.049335 0.15867 -0.011827 
0.055254 0.0021479 -0.012156 -0.013307 -0.13201 0.012999 0.062488 -0.049478 
0.026481 -0.00097594 -0.012978 0.017767 -0.0004827 0.01711 -0.081374 -0.23822 
-0.029748 0.02829 0.0079024 0.067256 0.10392 0.021056 -0.097322 -0.18479 
-0.0042642 0.033387 0.037332 0.070051 0.078272 -0.045532 -0.10489 -0.043066 
0.020891 0.048513 0.025988 0.020069 -0.021856 -0.1113 -0.1478 0.02681 
0.058706 0.10277 0.055418 0.021056 0.051965 -0.11245 -0.093705 0.019247 
0.098494 0.11017 0.051472 0.10063 0.28741 0.044567 0.02829 0.080244 
0.10606 0.097344 0.076299 0.15785 0.45034 0.17544 0.10376 0.19024 
0.088136 0.074326 0.043745 0.16426 0.39806 0.17281 0.13302 0.30516 
0.02829 0.039141 0.025166 0.12858 0.27524 0.10606 0.059693 0.17741 
-0.034681 0.020891 0.014808 0.082546 0.080244 0.030427 0.013328 -0.014458 
-0.05178 0.01415 0.025659 -0.0029489 -0.17706 -0.02942 0.0028056 -0.16095 
-0.0096899 0.052623 0.030098 -0.043395 -0.13859 -0.018239 0.057391 -0.11968 
0.037332 0.012013 0.012342 0.014315 0.044731 0.047197 0.042429 -0.030406 
0.015137 -0.024158 -0.015773 0.050157 0.1054 0.0088889 -0.00015387 0.033551 
-0.013143 -0.0055795 0.013328 -0.0064016 -0.041422 -0.09239 -0.04882 0.051801 
-0.034023 0.022371 0.039634 -0.10061 -0.21258 -0.10801 0.017767 0.076792 
0.0052718 0.034866 0.0016547 -0.081374 -0.16638 -0.05885 0.059693 0.048019 
-0.001798 0.041443 -0.00031829 -0.03764 -0.050958 -0.031064 0.054432 0.015137 
0.02681 0.037497 0.01152 -0.014129 -0.014951 0.011684 0.069064 -0.0082102 
0.041772 0.053281 0.039141 0.014643 0.040128 0.050486 0.079258 0.018096 
0.037661 0.082053 0.023357 0.057227 0.10195 0.10047 0.079751 0.012342 
0.065776 0.091918 0.034702 0.060679 0.12875 0.070215 0.11313 0.072353 
0.066105 0.062817 0.064296 0.05772 0.13598 0.047033 0.098988 0.055582 
0.056569 0.042923 0.075476 0.084848 0.095042 -0.004593 0.08715 0.040785 
0.041278 0.009711 0.0051074 0.082875 0.030592 0.016288 0.058871 -0.027282 
0.0093821 0.017932 0.0074092 0.0064227 -0.026953 0.036675 -0.060823 -0.10324 
0.013492 0.020069 0.022864 -0.029748 -0.020212 0.0013258 -0.1667 -0.15224 
0.029769 0.048184 0.062817 0.015301 0.077121 0.025988 -0.097816 0.012999 
0.048677 0.022206 0.073668 0.053938 0.097179 0.024673 0.004943 0.19254 
0.010533 0.033715 0.027468 0.015794 0.051801 0.055418 0.0054362 0.21243 
0.020233 0.04506 0.025824 0.019411 0.096686 0.082382 -0.0087034 0.15538 
0.041772 0.016781 0.028454 0.041278 0.11329 0.091918 0.024015 0.063474 
0.042594 0.020069 0.032564 0.078272 0.10984 0.084355 0.10392 0.029441 
0.026152 0.041443 0.070708 0.12677 0.12283 0.041936 0.079094 -0.027282 
0.02533 0.077121 0.051472 0.06331 0.0034632 -0.05885 -0.039942 -0.077922 
0.034044 0.077943 0.069558 -0.028926 -0.094199 -0.109 -0.13103 -0.090581 
0.048184 0.10113 0.055254 -0.069372 -0.15996 -0.12363 -0.039778 -0.041915 
0.096686 0.091425 0.020069 -0.072989 -0.12494 -0.077428 0.16837 0.016781 
0.072517 0.050814 0.014479 -0.052109 -0.10637 -0.037969 0.33969 0.10425 
0.046868 0.042758 0.017274 -0.0095255 -0.15536 -0.012156 0.35646 0.12217 
0.013164 0.017767 0.049499 0.0044497 -0.12445 0.030592 0.1493 0.076956 
0.048513 0.0087245 0.029112 0.038483 0.053609 0.11247 -0.082196 0.0067515 
0.063145 0.0083956 0.024344 0.046375 0.092576 0.14305 -0.16966 -0.041915 
0.035853 0.025988 0.0014903 0.027303 -0.0096899 0.12776 -0.080223 -0.13037 
-0.013636 0.016616 -0.02235 0.0059294 -0.031228 0.12266 0.075312 -0.049642 
-0.062796 -0.06148 -0.038298 0.069558 0.20323 0.20454 0.19879 0.037826 
-0.10225 -0.10357 0.021384 0.19714 0.40217 0.22822 0.34429 0.10721 
-0.095514 -0.040928 0.053774 0.24762 0.46892 0.19451 0.25633 0.057391 
-0.055397 0.045224 0.079258 0.13499 0.29596 0.062652 -0.065097 0.0047785 
0.033551 0.085999 0.047691 -0.0068948 -0.0039354 -0.10784 -0.26765 -0.032215 
0.10819 0.11083 0.086328 -0.080881 -0.27637 -0.20353 -0.2665 -0.016924 
0.11822 0.12727 0.064954 -0.11261 -0.35381 -0.19466 -0.21882 0.025166 
0.15357 0.095371 0.057227 -0.12067 -0.3058 -0.15257 -0.073154 0.11773 
0.1077 0.13861 0.066105 -0.036489 -0.13925 -0.059507 0.046046 0.12891 
0.035031 0.1197 0.039799 0.050157 -0.0027845 0.057391 0.091425 0.032071 
-0.0039354 0.076134 0.056076 0.060515 0.025001 0.088301 0.1202 0.036182 
-0.003771 0.029112 0.048677 0.018425 -0.0036066 0.069064 0.16179 0.096357 
0.011684 -0.0068948 0.037168 0.016452 0.0021479 0.053938 0.16064 0.13516 
0.044567 -0.0031133 -0.031886 -0.011334 -0.0082102 0.034044 0.10178 0.084026 
0.047855 -0.03501 -0.026131 -0.058685 -0.1279 -0.012814 0.11395 0.014479 
-0.004593 -0.033037 -0.012978 -0.047176 -0.13267 -0.033694 0.011684 -0.089431 
-0.0868 0.023193 0.024179 -0.0062372 -0.045861 -0.076935 -0.079072 -0.21455 
-0.076771 0.059035 0.0042853 0.06479 0.011191 -0.0503 -0.0095255 -0.12297 
0.0016547 0.085506 0.02829 0.089287 0.059364 -0.011827 0.062652 -0.012814 
0.061008 0.082382 0.065118 0.092411 0.076463 0.023193 0.10836 0.15423 
0.088958 0.075641 0.090603 0.13878 0.14535 0.11181 0.15522 0.26488 
0.13088 0.068242 0.036346 0.15111 0.31733 0.1738 0.025495 0.25995 
0.11411 0.056404 -0.0055795 0.11888 0.32325 0.13647 -0.080388 0.15275 
0.061337 0.033058 0.0079024 0.12381 0.23693 0.075312 -0.079566 0.079916 
0.073175 0.037497 0.044238 0.095206 0.11576 -0.0014692 -0.083018 0.027468 
0.069722 0.050486 0.028125 0.053774 0.097179 0.057391 -0.011663 0.010862 
0.074983 0.076299 0.01826 0.0036276 0.13861 0.14404 0.10441 -0.017253 
0.084026 0.096028 0.0069159 -0.023994 0.034537 0.12431 0.11263 -0.045368 
0.037497 0.015959 -0.026953 -0.06296 -0.16424 0.064132 0.10047 -0.17887 
-0.073647 -0.050464 -0.027118 -0.095021 -0.24201 0.0074092 -0.072167 -0.33243 
-0.18907 -0.079895 -0.045861 -0.089595 -0.22704 -0.091404 -0.33523 -0.37584 
-0.18528 -0.053917 -0.033201 -0.060987 -0.11837 -0.16259 -0.36038 -0.16523 
-0.05441 0.027139 0.015301 0.0088889 -0.03501 -0.11278 -0.019719 0.23529 
0.096357 0.050979 0.076134 0.022042 0.060186 -0.015609 0.32374 0.62413 
0.1442 0.060844 0.024673 0.042265 0.066434 -0.0098543 0.2468 0.59585 
0.16755 0.096193 0.053445 0.066927 0.095042 0.028454 0.027139 0.18514 
0.17462 0.12661 0.074819 0.18202 0.23381 0.11494 -0.049807 -0.042573 
0.16459 0.14996 0.12332 0.16969 0.30566 0.16196 0.077449 -0.086471 
0.14108 0.14535 0.069229 0.12858 0.28461 0.095206 0.14601 0.012506 
0.076792 0.099974 0.069064 0.059528 0.16081 -0.027775 0.10573 -0.011498 
-0.035338 0.042758 0.037661 -0.028433 -0.045532 -0.036325 0.13664 0.039305 
-0.076771 0.019411 0.034373 -0.085156 -0.15043 0.0037921 0.14371 0.053116 
-0.070194 0.018096 -0.010841 -0.066577 -0.1501 0.046868 0.062817 0.059693 
-0.071674 0.029276 -0.025474 -0.029748 -0.10587 0.024344 -0.043888 -0.019719 
-0.037969 0.02681 -0.013636 -0.01528 -0.085485 0.0047785 -0.16276 -0.050136 
-0.02646 0.0018191 0.052294 0.038319 -0.074798 -0.023994 -0.27061 -0.10834 
0.0060938 0.022042 0.030756 0.051965 0.022864 -0.014622 -0.157 -0.055068 
0.076463 0.01974 0.01152 0.048841 0.013986 0.024673 0.033058 0.034537 
0.085999 0.032071 0.0082312 -0.010348 -0.0021268 0.048841 0.11954 0.054925 
0.06479 0.058706 0.047362 0.0031344 -0.032379 0.02533 0.09833 0.051143 
0.040128 0.054596 0.053116 0.0047785 -0.033859 -0.041915 0.061666 0.085177 
0.046046 0.074819 0.028783 0.0065871 -0.10061 -0.11689 0.034866 0.09685 
0.04506 0.069393 0.036017 0.0080668 -0.12905 -0.10406 0.11181 0.16821 
0.11017 0.10326 0.056733 0.0324 -0.039778 0.029605 0.13713 0.16048 
0.085999 0.083368 0.079916 0.040128 0.056898 0.13286 0.042594 0.035031 
0.018918 0.076627 0.04358 0.042923 0.086328 0.090438 -0.13514 -0.109 
-0.035174 0.037497 0.023686 0.041607 0.18366 0.095864 -0.12725 -0.10308 
-0.028433 0.023686 0.026481 0.078272 0.21802 0.087314 -0.034681 -0.018568 
-0.024652 0.018589 0.041936 0.052294 0.14354 0.020233 -0.076113 0.055254 
-0.023007 -0.01676 0.00099702 0.013986 0.11017 0.027796 -0.10883 0.0092177 
0.034537 0.0227 0.024837 0.016452 0.22526 0.12809 0.073504 -0.0091966 
0.093562 0.097672 0.08156 0.092576 0.22164 0.13467 0.20668 0.014808 
0.1567 0.13417 0.13039 0.18613 0.14881 0.020727 0.1368 0.074654 
0.14519 0.11855 0.10819 0.18498 0.17232 -0.035996 0.11855 0.098988 
0.10113 0.063803 0.06594 0.098659 0.08156 -0.049478 0.092904 0.044073 
0.0039565 0.049664 0.012013 0.0042853 -0.052931 -0.048492 0.042594 -0.027611 
-0.087458 0.013657 -0.0029489 -0.026296 -0.13711 -0.030406 0.060186 0.025495 
-0.042244 -0.004593 -0.027775 -0.10439 -0.21175 -0.011827 0.074983 0.075476 
0.044402 0.0019835 -0.028926 -0.10275 -0.22113 -0.027775 0.028125 0.089123 
0.039305 0.018589 -0.013143 -0.099953 -0.25335 -0.024487 -0.021199 0.0082312 
0.036839 0.0074092 0.020069 -0.048327 -0.26733 -0.015773 0.053609 0.033387 
0.063639 0.023851 0.071695 -0.01676 -0.17262 0.0051074 0.16738 0.033551 
0.052787 0.046375 0.062817 0.036182 -0.049642 0.037332 0.16031 -0.018404 
-0.023172 0.040292 0.047033 0.034702 -0.040764 0.0062583 0.045389 -0.073647 
-0.030735 0.048841 0.018918 0.046211 0.019083 0.01711 -0.064604 -0.11903 
-0.008539 0.066105 0.061501 0.090438 0.27244 0.095206 -0.22869 -0.094034 
0.054432 0.069558 0.061995 0.15703 0.48388 0.094384 -0.43125 -0.063618 
0.075641 0.079751 0.080573 0.16969 0.43439 0.061666 -0.38784 0.0052718 
0.097344 0.090603 0.061337 0.14535 0.35071 0.13171 -0.075127 0.088794 
0.087643 0.087314 0.061666 0.049499 0.18169 0.15259 0.25189 0.17511 
0.057227 0.044073 -0.0019624 -0.014129 0.029605 0.068571 0.36485 0.20536 
0.054596 0.018918 0.0039565 -0.00097594 0.0067515 0.038977 0.30862 0.19698 
0.050321 -0.0088678 0.026481 0.025166 0.015959 0.036839 0.17511 0.086328 
0.01974 -0.0064016 0.017274 0.015301 -0.065097 0.0072447 0.064132 0.027632 
-0.020377 0.022206 0.012177 -0.0080457 -0.18578 -0.0406 -0.004593 -0.062302 
-0.033859 0.042429 0.0013258 -0.023336 -0.24299 -0.089431 -0.041093 -0.15372 
0.0090533 0.034209 0.033058 -0.044052 -0.1746 -0.057699 0.015137 -0.19564 
0.010369 0.033387 0.031578 0.038483 0.026481 0.06331 0.069722 -0.11311 
-0.015444 0.045389 0.033551 0.092576 0.11148 0.085835 0.048019 0.0018191 
-0.072167 0.011191 -0.0067304 0.069722 0.025659 0.0018191 -0.11163 0.023028 
-0.12346 -0.010019 -0.023007 -0.0062372 -0.029091 -0.038627 -0.047012 -0.008539 
-0.07825 0.0016547 0.012342 0.018589 0.092904 0.065447 0.17659 -0.06707 
0.020891 0.053116 0.071531 0.13878 0.34742 0.11937 0.14864 -0.15799 
0.090274 0.10113 0.056076 0.22148 0.44278 0.14371 0.12727 0.049006 
0.13615 0.074161 0.015301 0.1174 0.22904 0.071366 0.12858 0.28576 
0.11033 0.019083 0.0075736 -0.012156 0.032071 0.0031344 -0.14188 0.35531 
0.084684 -0.0036066 0.028619 -0.012978 -0.053095 -0.089431 -0.39672 0.30056 
0.069229 0.01711 -0.0029489 -0.075127 -0.15158 -0.093212 -0.16572 0.29201 
0.057391 0.013986 0.0052718 -0.08269 -0.18019 -0.028269 0.17593 0.20027 
0.025824 -0.031557 -0.010841 -0.041586 -0.082854 -0.011498 0.30894 0.12431 
-0.028926 -0.047505 0.0019835 -0.0032777 -0.10505 -0.044052 0.19221 -0.011334 
-0.024652 -0.006566 0.011191 -0.013143 -0.1455 -0.077264 0.034537 -0.11639 
0.027961 0.042265 0.0093821 0.03388 -0.075784 -0.012649 -0.030899 -0.16835 
0.072024 0.092576 0.034866 0.10458 0.1202 0.0786 -0.047834 -0.15059 
0.076956 0.084026 0.047033 0.095042 0.13088 0.10869 -0.010841 -0.10012 
0.049335 0.069886 0.065447 0.041772 0.045882 0.084519 0.014479 -0.039284 
0.035524 0.060186 0.028783 0.036182 -0.0032777 0.03799 -0.030077 0.00050378 
0.031085 0.059528 0.020398 0.044896 0.0016547 -0.013965 -0.068386 0.03651 
0.020727 0.055254 0.042594 0.10458 0.12102 0.019083 -0.059507 0.063639 
-0.02794 0.03092 0.061008 0.095371 0.24367 0.073832 -0.031886 0.05772 
-0.030899 0.01267 0.01826 0.060679 0.18777 0.065776 0.11839 0.016781 
-0.019719 0.032729 0.0016547 0.0056006 0.017767 0.055418 0.26883 0.0227 
0.026317 0.053774 0.014972 -0.030077 -0.10587 0.012177 0.31552 0.024508 
0.036182 0.058049 0.040128 -0.048985 -0.10604 -0.016102 0.2297 0.10556 
0.05772 0.072353 0.025659 -0.03501 -0.10143 -0.065755 0.13368 0.14338 
0.058871 0.081067 0.042429 0.0034632 -0.022843 -0.057863 0.041443 0.13434 
0.076299 0.065447 0.021549 -0.0088678 -0.015609 0.00083261 -0.021199 0.03388 
0.067091 0.039141 0.030756 -0.0021268 -0.051122 0.050321 -0.13612 -0.035174 
0.042923 -0.017746 0.0065871 -0.014458 -0.087129 0.044402 -0.27719 -0.10439 
0.026974 1.0539e-005 -0.02942 0.012177 -0.10308 -0.052602 -0.30465 -0.02942 
0.061337 -0.0082102 -0.0075525 0.010369 -0.095021 -0.14204 -0.206 0.1442 
0.077943 0.036675 0.05476 0.045389 0.0080668 -0.15931 -0.16342 0.14009 
0.058213 0.065612 0.10885 0.059693 0.027796 -0.10521 -0.079895 0.010862 
0.0088889 0.091589 0.055582 0.044731 0.02533 0.037332 0.21095 -0.029255 
-0.042408 0.10721 0.049335 -0.039284 -0.052766 0.11576 0.36205 0.014643 
-0.021363 0.070051 0.047362 -0.089266 -0.12922 0.069558 0.23298 0.042265 
0.020891 0.035524 0.028619 -0.065591 -0.11064 0.023851 0.2343 0.18892 
0.042429 -0.0082102 0.0044497 0.039141 0.065612 0.085999 0.30319 0.26653 
0.025824 0.023851 0.03388 0.071531 0.24285 0.17232 0.077614 0.073668 
-0.0031133 0.029112 0.021056 0.061337 0.12381 0.12924 -0.2134 -0.20074 
0.020069 0.072517 0.066927 0.084848 0.025988 -0.018404 -0.36515 -0.27719 
0.090109 0.11181 0.0421 0.10458 0.09981 -0.079072 -0.35266 -0.18232 
0.1026 0.075148 0.033387 0.11576 0.17955 -0.028433 -0.34509 -0.092061 
0.063968 0.050157 0.048513 0.060679 0.15012 0.031249 -0.19153 -0.063289 
0.022535 0.015137 0.05624 0.025824 0.015301 -0.011827 0.020562 0.1008 
0.05476 0.033222 0.025659 -0.011005 -0.013143 0.01004 0.21901 0.26702 
0.10967 0.086985 0.0093821 0.0080668 0.086328 0.079258 0.34791 0.30763 
0.10852 0.11165 0.049006 0.038319 0.17051 0.11987 0.31371 0.10343 
0.091753 0.12349 0.093233 0.12102 0.22772 0.091425 0.13006 -0.083183 
0.056076 0.11691 0.070708 0.056569 0.034373 0.01563 0.1003 -0.17361 
0.054267 0.095371 0.028783 -0.031392 -0.18117 -0.017253 0.17856 -0.063782 
0.041772 0.048677 0.0028056 -0.059672 -0.27325 -0.037476 0.13861 0.082382 
0.04917 0.014479 0.0014903 -0.070523 -0.25319 -0.030077 0.024508 0.15999 
0.061337 0.012342 0.034209 -0.05737 -0.19548 0.020398 -0.099295 0.044073 
0.009711 -0.011827 0.020891 -0.013307 -0.083018 0.032071 -0.048327 -0.034352 
0.004943 0.039634 0.04506 0.020891 -0.0062372 -0.0059084 -0.00031829 -0.049149 
-0.014622 0.023851 0.064625 0.045718 0.06479 -0.060329 -0.0039354 0.084519 
-0.0095255 0.007738 0.072353 0.043416 0.094055 -0.015938 -0.0021268 0.17215 
-0.024158 -0.0014692 0.015959 0.0421 0.11806 0.020891 0.011026 0.085177 
-0.070687 -0.00064712 0.02681 0.09685 0.18103 0.10376 0.08304 0.086163 
-0.014951 0.055418 0.049828 0.11181 0.232 0.16097 0.04917 0.12266 
0.027796 0.098823 0.077778 0.11378 0.2463 0.1368 -0.036983 0.014808 
-0.0019624 0.10145 0.035195 0.046375 0.16952 0.069064 -0.037805 -0.050464 
0.025495 0.066105 0.032236 0.00050378 -0.033037 -0.012156 0.0093821 -0.12396 
0.043251 0.068571 0.013821 -0.044381 -0.02498 -0.020706 0.048348 -0.16046 
0.033222 0.058871 0.037661 0.031907 0.073504 -0.014951 0.029934 -0.14319 
0.056569 0.023686 0.034537 0.071366 0.15176 -0.019719 -0.062302 -0.031557 
0.066763 0.007738 0.014479 0.10096 0.13105 0.029769 -0.017088 0.17314 
0.033222 -0.017746 -0.0080457 0.078929 0.076299 0.087643 0.12727 0.29168 
0.01004 0.0090533 0.012177 0.052623 -0.010841 0.10918 0.21753 0.2052 
0.023357 0.040785 0.042758 0.11 0.10967 0.13401 0.23233 0.039305 
0.043087 0.046868 0.043909 0.11428 0.17528 0.1248 0.27491 -0.043724 
0.063145 0.068736 0.064461 0.03092 0.15604 0.07597 0.16015 -0.081539 
0.08419 0.060186 0.085506 0.016945 0.19944 0.013164 -0.052602 -0.11015 
0.041443 0.11592 0.097344 0.096028 0.27425 0.030098 -0.21323 -0.095349 
-0.080552 0.042758 0.030098 0.094384 0.23019 0.024015 -0.22409 -0.0077169 
-0.13284 0.0067515 0.031249 0.017603 0.011026 -0.035832 -0.086964 0.18004 
-0.029913 0.04654 0.02681 -0.023994 -0.22261 -0.063946 0.0054362 0.22296 
0.083368 0.043745 0.054432 -0.033037 -0.29561 -0.14829 -0.027611 0.10359 
0.10524 0.056404 -0.014622 -0.022185 -0.17049 -0.121 0.090931 0.036839 
0.1299 0.076792 -0.0095255 0.017932 -0.060494 0.020891 0.29382 0.061995 
0.16015 0.070544 -0.0004827 0.030592 0.0065871 0.064954 0.39263 0.18909 
0.085506 0.029112 0.03388 0.033058 -0.049807 0.081067 0.3387 0.19632 
0.030427 0.049335 0.015301 -0.016924 -0.066413 0.050321 0.12299 0.035195 
-0.024487 0.01152 0.017274 -0.012978 -0.053753 0.030756 -0.10932 -0.17246 
-0.048985 -0.0044286 0.0083956 0.0059294 0.016781 0.027139 -0.21274 -0.20468 
-0.055726 -0.021199 0.038977 0.074161 0.073832 0.038977 -0.30448 -0.14944 
-0.060823 -0.013965 0.026152 0.023357 0.032729 -0.028104 -0.27949 -0.035667 
-0.013636 0.036182 0.0082312 -0.044052 -0.12067 -0.15733 -0.14698 0.073339 
0.046704 0.050979 0.0034632 -0.061645 -0.16358 -0.18808 -0.010183 0.14272 
0.098001 0.067749 0.029112 -0.03353 -0.070523 -0.063453 0.28938 0.25271 
0.096521 0.060515 0.03092 -0.015938 -0.0032777 0.10343 0.46366 0.27327 
0.077285 0.053445 0.0026412 0.005765 -0.035832 0.17856 0.42469 0.066927 
0.012835 0.048348 0.01826 0.040456 0.025166 0.24532 0.32802 -0.15125 
-0.026131 0.03536 0.05624 0.10359 0.25288 0.22246 0.069558 -0.19268 
-0.014951 0.056404 0.12299 0.21967 0.58746 0.1641 -0.29215 -0.25023 
0.018589 0.079587 0.079916 0.28872 0.65224 0.044402 -0.486 -0.25911 
0.015301 0.099974 0.04654 0.21802 0.39987 -0.072496 -0.62525 -0.13645 
0.046046 0.065612 0.025495 0.054267 0.17593 -0.15043 -0.43667 0.069558 
0.08715 0.048184 0.039305 -0.051944 -0.036654 -0.071016 0.053774 0.33032 
0.095699 0.058377 0.018754 -0.10982 -0.24776 0.012506 0.33048 0.43012 
0.11806 0.06183 0.029112 -0.084169 -0.31912 -0.050464 0.11461 0.27409 
0.087972 0.061995 0.0064227 -0.054904 -0.24694 -0.076771 -0.14681 -0.0044286 
0.079751 0.041278 0.0044497 0.016452 -0.11048 0.013492 -0.015773 -0.087458 
0.0421 0.034866 -0.0067304 0.021878 -0.085485 0.084355 0.14404 -0.080059 
-0.052766 -0.0067304 -0.034845 -0.0077169 -0.20419 0.061008 0.18185 -0.042079 
-0.095514 -0.091568 -0.056712 -0.1136 -0.28854 0.025001 0.22592 0.011355 
-0.10521 -0.069208 -0.021692 -0.16621 -0.35249 -0.053588 0.17001 0.076792 
-0.053095 -0.032215 -0.022514 -0.10653 -0.31057 -0.071345 0.14256 0.052623 
0.021384 0.048348 0.018425 -0.043888 -0.23017 -0.066741 0.066434 0.033715 
0.079094 0.049335 0.038812 -0.0075525 -0.12922 -0.079566 -0.11294 -0.033694 
0.12053 0.05772 0.049664 0.037168 -0.012649 -0.062631 -0.25713 -0.020541 
0.088958 0.062159 0.037826 0.08978 0.094384 -0.041422 -0.26552 0.028783 
0.036017 0.055089 -0.001798 0.10195 0.22131 0.025001 -0.1552 0.15259 
0.030592 0.063474 0.044238 0.17018 0.43045 0.12694 -0.035174 0.15982 
0.043909 0.044731 0.065447 0.19517 0.56757 0.18087 -0.010019 -0.0047575 
0.0039565 0.089123 0.08008 0.2856 0.61771 0.23545 0.21358 -0.19383 
0.025988 0.086985 0.037004 0.1835 0.53863 0.28691 0.57858 -0.20814 
0.022371 0.070708 0.03947 0.095535 0.25978 0.17528 0.47747 -0.2185 
-0.011334 0.071202 0.045389 0.060844 -0.009361 0.027632 0.1197 -0.17673 
0.0023123 0.009711 0.057884 -0.012978 -0.15651 0.027468 0.015465 -0.09946 
0.030592 0.020727 0.01974 -0.060823 -0.17082 0.08156 0.067749 0.18942 
0.11526 0.065447 0.0074092 -0.038298 -0.1672 0.047362 -0.0049219 0.52614 
0.14256 0.077778 0.036182 -0.087622 -0.33802 -0.08121 -0.28393 0.46366 
0.1003 0.050814 0.039305 -0.12149 -0.42352 -0.21932 -0.51806 0.11707 
0.015794 0.021878 -0.006566 -0.063946 -0.21488 -0.14829 -0.48123 -0.30333 
-0.04471 0.036675 0.014315 0.037168 0.021384 0.0083956 -0.099624 -0.37732 
-0.020706 0.045224 0.032071 0.070873 -0.031721 0.027961 0.28954 0.016616 
0.018754 0.019411 0.055747 0.033715 -0.084169 -0.03501 0.51265 0.49966 
0.017603 -0.03353 0.035031 -0.01528 -0.08532 -0.077593 0.50821 0.51298 
-0.017417 -0.057699 -0.015444 0.029441 0.15456 -0.015116 0.28954 0.11921 
-0.0087034 0.012342 0.035853 0.21375 0.66243 0.24449 0.080738 -0.21734 
0.037497 0.047526 0.091918 0.2976 0.85907 0.31897 -0.0073881 -0.24414 
0.064296 0.062981 0.090931 0.18119 0.39296 0.13203 -0.12363 -0.13612 
0.046704 0.051308 0.044731 -0.004593 -0.16687 -0.083183 -0.31533 -0.044217 
0.0013258 0.10096 0.055418 -0.091568 -0.43766 -0.18479 -0.32767 -0.072332 
-0.038298 0.1225 0.090109 -0.11672 -0.42204 -0.12938 -0.22014 -0.11196 
-0.021363 0.13023 0.085012 -0.062138 -0.20682 -0.049971 -0.059836 -0.025802 
0.035195 0.096357 0.044073 0.035853 0.0067515 0.052294 0.24301 0.19353 
0.05065 0.082217 0.031578 0.059035 0.028783 0.17478 0.44738 0.18892 
0.095206 0.096193 0.023851 0.012013 -0.025145 0.22476 0.47648 0.014315 
0.098001 0.057391 0.051636 0.063145 0.015137 0.22312 0.33591 -0.079566 
0.085341 0.052952 0.031907 0.12053 0.18037 0.088136 0.10228 0.052294 
0.055254 0.017274 0.040785 0.13269 0.16903 -0.09387 -0.13152 0.16623 
0.025659 -0.0091966 0.037332 0.01267 0.020891 -0.13349 -0.016924 0.22756 
-0.036325 -0.028762 0.011191 -0.09091 -0.14122 -0.15585 -0.046025 0.22115 
-0.11755 -0.079237 -0.035996 -0.099131 -0.21011 -0.21702 -0.30383 0.025659 
-0.1182 -0.076277 -0.043724 -0.043724 -0.14796 -0.12116 -0.21998 -0.19515 
-0.034188 -0.032379 -0.0064016 0.07597 0.13056 0.17544 0.17034 -0.17706 
0.052459 0.041772 0.055582 0.147 0.39691 0.3267 0.40743 0.035688 
0.16426 0.056404 0.078436 0.16821 0.3198 0.18777 0.11872 0.1955 
0.18284 0.073504 0.050157 0.090767 0.16426 0.0060938 -0.27949 0.075312 
0.13516 0.093398 0.059693 0.070544 0.01415 -0.047505 -0.21471 -0.00015387 
0.077449 0.13532 0.10096 0.048348 0.034373 -0.0059084 -0.024652 0.0070803 
0.062159 0.16771 0.15489 0.090931 0.069558 -0.030899 0.023028 0.040621 
0.067585 0.13812 0.073668 0.036675 0.051472 -0.068879 -0.10965 -0.0042642 
0.058871 0.11 0.023851 0.027632 0.022042 -0.044052 -0.29791 -0.065262 
0.034373 0.059857 0.01152 0.024508 0.045882 -0.026953 -0.25236 -0.14993 
0.033715 0.076627 0.029934 0.0019835 0.085341 0.080573 0.11444 -0.076113 
0.0592 0.053774 -0.015773 -0.053424 -0.077757 0.012835 0.33295 0.11296 
0.065447 -0.0098543 -0.060165 -0.10916 -0.27719 -0.036818 0.33459 0.27031 
0.05213 -0.031228 -0.05326 -0.097651 -0.34 -0.08121 0.17873 0.27672 
-0.010183 0.00017495 -0.018239 -0.069208 -0.24283 -0.079566 0.047033 0.14256 
-0.038462 0.033387 0.0042853 -0.046354 -0.15898 -0.10291 -0.062138 -0.050793 
-0.057534 0.031742 0.0044497 -0.044381 -0.1455 -0.096994 -0.07003 -0.14961 
-0.060494 0.0085601 0.010862 0.026481 -0.0054151 0.026974 0.0080668 -0.07825 
0.0082312 0.04917 0.03536 0.093891 0.30187 0.2052 0.049335 0.073504 
0.041443 0.036839 0.07449 0.16969 0.45363 0.22674 -0.1649 0.040785 
0.04654 0.059528 0.037168 0.12595 0.30598 0.16508 -0.31139 -0.11705 
0.071531 0.068736 0.03947 0.11247 0.18974 0.19205 -0.059014 -0.19679 
0.090603 0.082053 0.039963 0.073668 0.17149 0.21654 0.19418 -0.16046 
0.12546 0.093891 0.045718 0.061172 0.19698 0.2223 0.44179 -0.054246 
0.10589 0.030263 -0.030242 0.033387 0.047855 0.018918 0.26636 0.065776 
0.047691 -0.036654 -0.080881 -0.074798 -0.24793 -0.25253 -0.085156 0.11395 
-0.070194 -0.091239 -0.073811 -0.1427 -0.37732 -0.32964 -0.23773 0.060515 
-0.14434 -0.080552 -0.0040998 -0.10867 -0.32487 -0.27653 -0.14089 0.053774 
-0.16917 -0.018404 -0.01232 -0.01232 -0.13678 -0.20847 -0.20222 -0.1478 
-0.14139 0.047197 0.021384 0.065612 0.2098 -0.051122 -0.1741 -0.33227 
-0.040764 0.08567 0.01004 0.13976 0.34002 0.090603 0.10376 -0.060658 
0.047691 0.087808 0.06479 0.10672 0.20882 0.16936 0.39773 0.38375 
0.10211 0.071202 0.067091 0.094055 0.080902 0.19353 0.34429 0.62676 
0.18711 0.083533 0.047197 0.10326 0.22871 0.21046 0.10047 0.56444 
0.21852 0.13056 0.074654 0.12727 0.26685 0.18087 0.11543 0.37356 
0.18218 0.12513 0.078765 0.047197 0.056569 0.077778 0.13253 0.13516 
0.08863 0.10754 0.064625 -0.014293 -0.14451 -0.062467 0.024673 -0.19137 
0.015959 0.073668 0.02533 -0.064933 -0.20962 -0.093705 -0.10373 -0.41628 
0.012835 0.050979 0.018425 -0.064275 -0.1547 -0.062138 -0.12725 -0.44802 
0.043745 0.046375 0.025659 -0.0070593 -0.029748 0.0065871 0.0031344 -0.27177 
0.015465 0.0092177 0.027796 0.033058 0.036675 0.08156 0.16459 -0.058521 
-0.02646 -0.025474 -0.017253 0.021384 0.029605 0.1345 0.23463 0.069064 
-0.059672 -0.051615 -0.011498 0.016616 0.017932 0.1322 0.086163 -0.053588 
-0.091239 -0.055232 -0.008539 0.01711 -0.0070593 0.077121 -0.049971 -0.11574 
-0.020706 0.024344 0.025659 0.020891 0.021384 0.086985 0.183 0.081067 
0.055254 0.10458 0.071037 0.059035 0.070708 0.18629 0.31963 0.27409 
0.056733 0.13861 0.089123 0.051143 0.062652 0.15209 0.10754 0.28839 
0.025001 0.11625 0.070544 -0.050958 -0.049314 -0.10784 -0.3007 0.22772 
-0.010676 0.064625 0.021056 -0.10719 -0.21685 -0.39787 -0.53433 0.13056 
0.06479 0.08863 0.0059294 -0.099295 -0.20353 -0.36203 -0.20978 0.12529 
0.11428 0.049006 0.0028056 -0.0095255 -0.057863 -0.085649 0.32473 -0.02087 
0.074326 0.024508 0.03651 0.075476 0.06742 0.013328 0.3609 -0.17805 
0.0039565 -0.0036066 0.041607 0.1562 0.21885 0.12003 0.25321 -0.23214 
-0.0064016 0.019083 0.091589 0.18613 0.33821 0.21819 0.27557 -0.029584 
-0.0083746 0.018918 0.10935 0.14091 0.26603 0.18251 0.183 0.19155 
-0.046683 -0.0067304 0.048513 0.047033 0.016452 -0.019226 -0.078086 0.19681 
-0.059672 -0.075949 0.023028 -0.10291 -0.1912 -0.20173 -0.24612 0.13812 
-0.023007 -0.066741 0.03947 -0.083018 -0.16884 -0.053917 -0.15207 0.07301 
0.079751 0.049992 0.009711 0.052787 0.067913 0.14009 -0.028104 0.035195 
0.13779 0.12661 0.057227 0.10918 0.093891 0.16623 -0.085813 0.029769 
0.10556 0.12513 0.078929 0.045224 -0.0054151 0.083862 -0.15865 -0.0075525 
0.026481 0.099152 0.072681 0.02829 -0.0022913 0.049992 -0.16029 -0.049642 
-0.0027845 0.097344 0.029441 0.087643 0.16492 0.19928 0.30911 0.015794 
0.03388 0.11839 0.024673 0.09981 0.30122 0.28806 0.80465 0.16377 
0.072353 0.081231 0.028947 0.06035 0.23282 0.26472 0.85546 0.19188 
0.041443 -0.00031829 0.029934 0.018918 0.14535 0.15341 0.50887 -0.028762 
-0.031228 -0.042079 -0.0042642 0.037004 0.15851 -0.051944 -0.19318 -0.22622 
-0.08384 -0.049807 -0.03616 0.033058 0.10113 -0.2762 -1.0703 -0.35858 
-0.078086 -0.022679 -0.0073881 -0.041257 -0.10045 -0.37091 -1.1558 -0.28377 
0.051472 0.06331 0.06183 -0.076442 -0.24513 -0.16473 -0.33342 0.14864 
0.21145 0.13828 0.096686 -0.056383 -0.23938 -0.044217 0.26011 0.58072 
0.24778 0.16245 0.11543 -0.025802 -0.18183 -0.031392 0.26685 0.53863 
0.16771 0.14634 0.072188 -0.025474 -0.16802 -0.023994 0.074983 0.16706 
0.068736 0.074819 0.021878 -0.0036066 -0.12001 -0.015444 0.01826 -0.16342 
-0.0096899 -0.037969 0.019576 0.068242 -0.018568 0.037826 0.098659 -0.23148 
-0.076113 -0.17772 -0.05737 0.099152 0.061995 0.065612 0.076299 -0.16407 
-0.13366 -0.22935 -0.045368 0.16311 0.15324 0.04917 0.044731 -0.020212 
-0.099295 -0.083347 0.049499 0.20783 0.25535 0.083204 0.08715 0.0047785 
0.009711 0.093069 0.14897 0.25535 0.37948 0.20438 0.15061 -0.026953 
0.1031 0.19649 0.16623 0.21572 0.45198 0.27392 0.12299 -0.10998 
0.13269 0.2006 0.13351 0.061995 0.25337 0.18876 0.20619 0.0080668 
0.14552 0.18695 0.040785 -0.0771 -0.049149 0.072681 0.25732 0.10852 
0.14881 0.091918 -0.010183 -0.15569 -0.18989 -0.023172 0.0023123 0.10425 
0.085341 -0.038627 -0.075455 -0.10028 -0.045861 -0.10028 -0.37781 0.022864 
-0.0036066 -0.067728 -0.059672 -0.0027845 0.099152 -0.15931 -0.58448 -0.035174 
-0.071181 -0.052273 -0.033037 0.077121 0.16558 -0.16013 -0.53105 -0.031557 
-0.04471 -0.00031829 0.052787 0.076627 0.079916 -0.050958 -0.15043 0.17741 
-0.040764 0.030592 0.0324 0.11987 0.048513 0.068407 0.23923 0.21917 
0.048019 0.019083 0.044896 0.050814 0.040456 0.11559 0.37997 0.056898 
0.086328 0.0016547 0.016781 0.034044 -0.0054151 0.033715 0.35268 -0.15602 
0.12431 0.091425 0.054925 -0.014622 -0.10719 0.019411 0.20767 -0.15405 
0.10606 0.15308 0.011355 -0.071345 -0.084169 0.039305 0.095206 -0.11163 
0.023686 0.10556 0.029934 -0.016266 -0.021363 0.098001 0.22937 0.07301 
-0.0044286 0.04358 0.022042 0.03536 0.0044497 0.057884 0.26833 0.24236 
-0.0021268 -0.00031829 0.047362 0.05624 -0.057699 -0.013965 0.16804 0.40118 
0.08567 0.042265 0.082546 0.090931 -0.053588 -0.047834 -0.16654 0.35761 
0.11691 0.1151 0.073997 0.10606 -0.049971 -0.15816 -0.76336 0.018754 
0.12102 0.14387 0.078929 0.053281 -0.0036066 -0.15832 -0.94537 -0.26881 
0.074161 0.14946 0.063803 0.034537 0.091753 0.041607 -0.36828 -0.32701 
0.004943 0.09422 0.029934 0.0059294 0.1835 0.18087 0.41499 -0.14582 
-0.099131 -0.0072237 -0.075455 -0.0016336 0.14305 0.16031 0.68447 0.053445 
-0.17164 -0.12642 -0.071181 -0.052766 -0.0138 -0.032215 0.2976 -0.035503 
-0.18972 -0.19054 -0.037311 -0.025474 -0.059343 -0.071674 -0.027611 -0.13037 
-0.10341 -0.092883 0.025824 0.055747 0.067091 0.032236 -0.029091 -0.14139 
0.019576 0.041772 0.012506 0.069229 -0.00031829 0.082546 0.17774 0.040456 
0.17445 0.16048 0.030263 -0.048985 -0.23642 0.071859 0.63531 0.49966 
0.22805 0.15637 0.042594 -0.13333 -0.42829 0.020233 0.87075 0.79775 
0.14338 0.072188 0.039799 -0.1649 -0.38094 0.013821 0.61048 0.61508 
0.026152 0.017438 0.014643 -0.13596 -0.28952 -0.018239 -0.003771 0.094877 
-0.054082 -0.0096899 -0.0052507 -0.13859 -0.32832 -0.16473 -0.75974 -0.41645 
-0.065262 0.021056 -0.025638 -0.1307 -0.34148 -0.30268 -1.1994 -0.77651 
-0.045039 0.035853 0.0034632 0.0098754 -0.10817 -0.37222 -1.0108 -0.64761 
0.058542 0.088136 0.050814 0.22756 0.43637 -0.066248 -0.1501 -0.1182 
0.075805 0.1128 0.10721 0.414 1.0051 0.37898 0.60357 0.32588 
0.037826 0.10113 0.11066 0.43045 1.134 0.52844 0.71521 0.45001 
0.00066819 0.08008 0.11806 0.31996 0.71817 0.39608 0.45001 0.42502 
-0.046025 0.038977 0.067749 0.15604 0.23627 0.17215 0.10573 0.26472 
-0.074304 -0.012978 -0.016924 -0.0073881 -0.12018 -0.083676 -0.14418 0.13532 
-0.019226 -0.036818 -0.040106 -0.15783 -0.4398 -0.25236 -0.21044 -0.0060728 
0.076627 0.018754 0.0090533 -0.1649 -0.53187 -0.21521 -0.10028 -0.092226 
0.14979 0.079751 0.079751 -0.091568 -0.35282 -0.041751 0.077285 -0.13152 
0.17988 0.13203 0.075312 -0.0138 -0.14681 0.12283 0.22723 -0.016595 
0.1567 0.11576 0.053609 0.010204 -0.065262 0.14026 0.10754 -0.036325 
0.11181 0.060186 0.012177 -0.020212 -0.12034 0.057555 0.031742 -0.052273 
0.085341 0.1003 0.018425 -0.029584 -0.035832 0.12069 0.062159 -0.031064 
-0.0088678 0.11642 0.030756 0.064461 0.14749 0.16771 -0.098967 -0.063453 
-0.088608 0.12447 0.057227 0.085177 0.11609 0.028783 -0.34559 -0.17476 
-0.060658 0.077778 0.034044 -0.010019 -0.068879 -0.049314 -0.04882 -0.031064 
0.030756 0.010697 0.0052718 -0.087458 -0.13267 -0.040764 0.60768 0.25337 
-0.017253 -0.053095 -0.073976 -0.074633 -0.10291 -0.12116 0.7864 0.27639 
-0.17986 -0.10143 -0.13201 0.0019835 -0.030899 -0.20945 0.47204 0.061008 
-0.13464 -0.062302 -0.068221 0.076627 0.26685 -0.1547 -0.054575 -0.074798 
0.0075736 -0.0032777 0.020562 0.22115 0.60637 0.024508 -0.37008 0.039963 
0.15883 0.080902 0.097344 0.29842 0.633 0.17495 -0.28114 0.26751 
0.18925 0.18054 0.13878 0.26801 0.36369 0.20668 -0.23296 0.29776 
0.13351 0.20849 0.16081 0.14798 0.08715 0.1733 -0.35627 0.0026412 
0.1128 0.18974 0.14009 0.074819 -0.025145 0.11888 -0.42648 -0.27999 
0.097015 0.1128 0.095206 0.01826 -0.045039 0.056404 -0.30383 -0.28558 
0.01004 0.0070803 0.011684 -0.0042642 -0.039613 0.013657 0.026152 -0.15273 
-0.087129 -0.081868 0.0093821 -0.060329 -0.10357 0.019083 0.26126 -0.0073881 
-0.1256 -0.12248 -0.013965 -0.08121 -0.16062 -0.027775 0.24762 0.011026 
-0.061809 -0.098144 -0.027118 -0.037476 -0.12116 -0.032872 0.20076 0.075476 
0.04917 -0.023336 -0.05885 0.034537 0.058871 0.10228 0.33459 0.14535 
0.14601 0.11247 -0.016595 0.064954 0.14486 0.19139 0.45626 0.097508 
0.16229 0.1567 -0.0050863 0.029605 0.049664 0.16722 0.34331 0.015465 
0.15374 0.12792 0.03092 0.01711 -0.06296 0.053774 -0.072167 -0.049971 
0.11247 0.046375 -0.006566 -0.018239 -0.063289 0.037497 -0.12462 -0.15207 
0.038648 -0.054246 -0.027611 -0.03912 -0.10078 0.015959 0.15489 -0.057534 
-0.011334 -0.065262 -0.0052507 -0.0096899 -0.15454 -0.036818 0.31273 0.23035 
-0.089102 -0.036489 0.05065 0.054267 -0.1353 -0.10209 0.26044 0.48306 
-0.13103 -0.0022913 0.067913 0.072024 0.01267 -0.078415 -0.084005 0.27984 
-0.11623 0.033222 0.053938 0.10819 0.3244 0.014643 -0.48928 -0.25138 
-0.084827 0.079258 0.035031 0.10376 0.40759 -0.063289 -0.64992 -0.76501 
-0.016431 0.084848 0.0026412 0.072681 0.15851 -0.087293 -0.063124 -0.63923 
0.09422 0.074983 0.012013 -0.010019 0.0090533 0.012835 0.60571 0.047691 
0.14963 0.041114 -0.02646 -0.037476 -0.14763 -0.01939 0.29119 0.46843 
0.13713 0.052459 -0.0024557 -0.11886 -0.30777 -0.20304 -0.6994 0.30993 
0.1539 0.083862 -0.0088678 -0.11623 -0.33819 -0.157 -0.76369 0.25387 
0.10622 0.037004 0.048019 -0.076113 -0.15552 0.08978 -0.058521 0.32884 
0.057227 0.01267 0.040128 0.042594 0.049335 0.23414 0.30385 0.18087 
0.068736 0.00099702 0.041607 0.11395 0.17034 0.24005 0.20997 0.029934 
0.038483 0.010862 0.040785 0.12809 0.24696 0.22756 0.044567 -0.088937 
0.048677 0.0421 0.063474 0.10491 0.23315 0.19007 0.052623 -0.17443 
-0.03205 0.040785 0.038155 0.071531 0.10721 0.13039 0.15867 -0.182 
-0.12182 0.022371 0.0060938 0.00099702 -0.095021 -0.031557 0.16459 -0.2134 
-0.1376 1.0539e-005 -0.022021 -0.10867 -0.30415 -0.24266 0.12546 -0.16259 
-0.094199 0.0039565 -0.022843 -0.16161 -0.39836 -0.22918 0.25206 0.067256 
-0.028433 0.020727 -0.010512 -0.13119 -0.29725 0.025001 0.76865 0.41335 
0.055418 -0.00097594 -0.0026201 -0.03353 -0.18479 0.25863 0.90971 0.4944 
0.081395 0.017274 0.016616 -0.036489 -0.059672 0.14683 0.232 0.14256 
-0.00064712 -0.013143 0.01004 -0.067399 -0.055561 -0.10686 -0.39244 -0.18364 
-0.067728 -0.019555 0.0013258 -0.025638 0.039963 -0.17262 -0.58612 -0.45805 
-0.068714 -0.03764 -0.014458 0.12069 0.28395 -0.11639 -0.56689 -0.46166 
0.067585 0.028947 0.030098 0.23266 0.53567 -0.059178 -0.46528 0.01152 
0.2583 0.11181 0.096357 0.23183 0.48569 -0.001798 -0.33589 0.48585 
0.24466 0.17643 0.16508 0.18498 0.2708 0.045553 -0.12675 0.4339 
0.10491 0.20175 0.14519 0.098988 -0.0090322 -0.014293 -0.21718 0.15703 
-0.039778 0.13762 0.089616 -0.0073881 -0.23477 -0.16588 -0.39656 -0.078908 
-0.10406 0.10343 0.066927 -0.10193 -0.33704 -0.11048 -0.17312 -0.14171 
-0.092554 0.068736 0.060022 -0.1307 -0.26042 0.10458 0.28379 -0.074798 
-0.070852 0.051801 0.012835 -0.096336 -0.19679 0.23019 0.51348 0.066763 
-0.014293 0.07449 0.024837 -0.039613 -0.11541 0.24581 0.49457 0.08419 
0.03651 0.023357 0.027303 0.030098 0.071366 0.17462 0.3438 0.19912 
0.097344 0.024015 0.083368 0.14831 0.32128 0.11395 0.16377 0.26801 
0.14913 0.022042 0.061172 0.17593 0.41828 0.10425 -0.03057 0.24712 
0.17676 0.068571 0.044402 0.16048 0.34314 0.036017 -0.17936 0.24449 
0.14963 0.11411 0.079916 0.1396 0.28247 -0.053424 -0.29626 0.1756 
0.12529 0.10606 0.094548 0.087972 0.12217 -0.13432 -0.26963 -0.050629 
0.11757 0.1031 0.066598 0.014808 -0.011498 -0.063289 0.13943 -0.23395 
0.098001 0.11921 0.03092 0.0087245 -0.022021 0.046868 0.58138 -0.31468 
0.068571 0.089616 0.013821 -0.0034422 -0.024816 0.025824 0.52614 -0.19761 
0.062981 0.066269 0.037168 -0.0044286 -0.053424 -0.0138 0.1271 -0.1473 
0.028783 0.029934 0.037497 -0.03205 -0.016431 -0.066906 -0.092554 -0.14089 
-0.055561 0.01415 0.015959 -0.043395 -0.09091 -0.060165 -0.049807 0.050321 
-0.18528 -0.047998 -0.0042642 -0.071345 -0.10209 0.022206 0.098988 0.31601 
-0.24661 -0.054739 -0.035832 -0.088115 -0.014951 0.10918 -0.015609 0.23529 
-0.12642 0.013164 0.032071 -0.03764 0.012835 0.087808 -0.22606 0.10704 
0.018096 0.070544 0.026317 0.042429 -0.052437 0.019576 -0.21833 0.055582 
0.10721 0.070215 0.08008 0.14256 0.024344 -0.068714 -0.22244 0.087314 
0.13039 0.088301 0.1128 0.22756 0.19402 -0.095185 -0.22507 0.045718 
0.14108 0.14058 0.13828 0.25091 0.36369 -0.0024557 0.0019835 -0.029913 
0.11954 0.15522 0.10458 0.20339 0.38162 0.098166 0.22493 -0.02646 
0.097837 0.1031 0.043087 0.1225 0.26209 0.097837 0.42091 0.087643 
0.082711 -0.018733 0.005765 -0.01676 0.14765 0.08978 0.4122 0.12973 
0.016288 -0.072167 -0.02794 -0.068714 0.010533 0.023522 0.23397 0.063968 
-0.041422 -0.11343 -0.040106 -0.086471 -0.14665 -0.063782 -0.067235 -0.024816 
-0.070359 -0.1376 -0.05326 -0.071674 -0.28262 -0.096172 -0.21159 -0.00031829 
-0.06296 -0.11212 -0.024816 -0.054082 -0.2619 -0.022679 -0.075455 0.065776 
0.040785 -0.04323 0.026317 -0.011663 -0.19202 0.056404 -0.014293 0.087972 
0.11 0.077449 0.088958 0.033058 -0.15585 -0.012814 -0.157 -0.016924 
0.099481 0.15982 0.07038 0.0042853 -0.14188 -0.026624 -0.16227 -0.10012 
0.077121 0.17001 0.073997 0.0227 0.061172 0.03536 0.029934 -0.074798 
0.01826 0.11395 0.084848 0.063474 0.31371 0.16607 0.41762 -0.03057 
-0.012156 0.075476 0.06594 0.14272 0.37718 0.19237 0.66539 0.0059294 
0.00033937 0.12842 0.044896 0.15637 0.4265 0.2121 0.60456 -0.012814 
0.026152 0.049664 0.0069159 0.085999 0.28412 0.10178 0.20339 -0.055561 
0.0018191 0.011026 -0.015116 -0.0771 -0.063782 -0.067564 -0.18709 -0.12133 
-0.025474 -0.028926 0.0013258 -0.046354 -0.23954 -0.12379 -0.29856 -0.03353 
-0.043724 -0.044874 -0.018568 0.009711 -0.18298 -0.083183 -0.3857 0.058542 
-0.014951 -0.049807 -0.01232 0.06183 -0.028926 -0.026953 -0.39524 0.14256 
0.069393 -0.027775 0.01152 0.05476 0.018754 0.018754 -0.2665 0.18218 
0.11609 -0.050793 0.029934 0.033222 0.01563 0.0031344 -0.042244 0.22065 
0.097837 -0.029255 0.033058 -0.03353 -0.051451 0.017603 0.16015 0.17741 
0.07038 0.017603 0.023851 -0.042737 -0.069043 -0.012485 0.17084 0.054103 
0.038812 0.038483 0.043251 -0.040764 -0.18249 -0.0004827 0.10441 -0.1039 
0.024179 0.069064 0.069229 -0.055561 -0.2397 0.1003 0.32719 -0.028104 
0.081889 0.10228 0.059035 -0.046025 -0.19646 0.23118 0.8155 0.14338 
0.11477 0.13319 0.031249 -0.0075525 -0.11853 0.2269 0.88834 0.14617 
0.081724 0.1562 0.023851 0.06331 -0.0031133 0.091425 0.34758 -0.11228 
0.01152 0.13532 0.021384 0.070051 0.11115 0.019411 -0.53762 -0.51822 
0.023686 0.11658 0.047526 0.058377 0.28017 -0.0050863 -1.2666 -0.62098 
0.12924 0.077943 0.026152 0.070215 0.378 0.080902 -1.0009 -0.021692 
0.22674 0.054103 -0.0014692 0.040621 0.22542 0.11872 -0.021363 0.59026 
0.13121 -0.034516 -0.054575 -0.081703 -0.091075 -0.13366 0.20947 0.54948 
-0.08384 -0.13727 -0.055232 -0.15717 -0.39294 -0.40313 -0.13645 0.13072 
-0.19646 -0.15125 -0.051287 -0.14303 -0.41744 -0.37058 -0.28508 -0.090088 
-0.18463 -0.096336 0.013492 -0.0032777 -0.29429 -0.047341 0.29892 0.0087245 
-0.098638 0.024344 0.043416 0.082217 -0.029584 0.30007 1.1305 0.11559 
-0.029584 0.10244 0.087972 0.1659 0.14568 0.44343 1.2686 0.069722 
0.035031 0.13532 0.094548 0.23496 0.34248 0.31634 0.74842 -0.016924 
0.074983 0.15703 0.09981 0.32555 0.68858 0.25913 -0.001798 -0.10357 
0.095699 0.15456 0.070708 0.2657 0.72952 0.070051 -1.0304 -0.23231 
0.085341 0.13664 0.058871 0.14157 0.41713 -0.22014 -1.4261 -0.17427 
0.099481 0.080573 0.024015 0.048348 0.10819 -0.098473 -0.62591 0.21769 
0.11806 0.049335 -0.0049219 -0.045861 -0.11557 0.13746 0.083697 0.40726 
0.08419 0.081231 0.016123 -0.12955 -0.23576 0.14585 0.08715 0.16031 
0.080573 0.1271 0.058377 -0.12248 -0.25088 0.061501 -0.20633 -0.14484 
0.068078 0.1978 0.077285 -0.10686 -0.23165 -0.0091966 -0.1621 -0.17213 
0.10622 0.10359 0.030098 -0.097158 -0.22063 -0.004593 0.17906 0.14272 
0.10836 0.058213 -0.0057439 -0.094034 -0.17821 0.061995 0.47254 0.38589 
0.048841 0.039799 0.016452 -0.025474 -0.15799 -0.022679 0.42584 0.21802 
-0.055561 0.057062 0.072517 0.055911 -0.086964 -0.13826 -0.070852 -0.27719 
-0.075949 0.11198 0.058871 0.051636 0.038977 -0.17838 -0.24497 -0.4615 
-0.026624 0.13154 0.060679 0.035195 0.12168 -0.1917 -0.040764 -0.27982 
-0.055397 -0.0026201 -0.0062372 0.038977 0.15768 -0.076935 0.0074092 0.00099702 
-0.059507 -0.12182 -0.050793 0.062488 0.11247 0.070051 -0.10291 0.19435 
-0.077593 -0.17723 -0.109 0.034044 0.063145 0.14486 -0.3737 0.23134 
-0.10291 -0.15454 -0.064768 0.056076 0.065283 0.19468 -0.32947 0.10556 
-0.054246 -0.1062 0.015465 0.18267 0.29678 0.34775 0.1248 0.27179 
0.037168 -0.043066 0.10211 0.28658 0.55409 0.366 0.37274 0.34347 
0.051636 0.032893 0.11346 0.19977 0.4533 0.19747 0.27475 0.2662 
0.041443 0.14289 0.065612 0.048513 0.16278 0.01415 0.16821 0.13927 
0.031907 0.1835 0.050157 0.00017495 0.014479 -0.05885 -0.03912 -0.0049219 
0.062981 0.17347 0.074326 0.0088889 -0.013965 -0.056877 -0.21619 -0.29478 
0.069064 0.12431 0.080244 0.043087 0.047362 -0.026624 -0.17098 -0.24316 
0.09126 0.11198 0.0592 -0.0016336 -0.060494 -0.048492 0.014808 0.078107 
0.14009 0.10573 0.049006 -0.031557 -0.25204 -0.10028 0.095206 0.2759 
0.11362 0.048677 0.029276 -0.079072 -0.34033 -0.078908 0.04917 0.15785 
0.048841 0.004943 0.032236 -0.06707 -0.28064 -0.031228 0.0021479 0.0060938 
0.012013 0.0072447 0.0021479 -0.048656 -0.17608 -0.025474 0.10047 -0.09239 
-0.025309 0.015301 0.0095465 0.009711 -0.0083746 0.032071 0.20734 -0.13152 
-0.082361 0.016288 0.01826 0.051308 0.1562 0.074161 0.17659 -0.10357 
-0.086636 -0.031721 0.034209 0.088136 0.27162 0.089945 0.032729 -0.041422 
-0.082032 -0.049807 -0.0050863 0.11132 0.40595 0.17314 0.10474 0.055911 
-0.010348 -0.0036066 0.018918 0.11658 0.41351 0.23134 0.25074 0.19813 
0.058706 0.045718 0.046211 0.024673 0.098166 0.18004 0.22559 0.16081 
0.048513 0.083697 0.077449 -0.013143 -0.16572 0.03536 0.025166 0.016616 
0.079258 0.099316 0.044402 -0.051451 -0.3007 -0.14648 -0.27505 -0.078744 
0.083368 0.080244 0.039799 -0.068386 -0.33457 -0.27884 -0.37683 -0.065755 
0.074326 0.043416 0.035688 -0.088444 -0.32125 -0.23757 -0.1284 0.0044497 
0.08715 0.049006 0.058542 -0.044052 -0.19877 -0.095678 0.075641 0.036182 
0.070873 0.019411 -0.0026201 0.034866 -0.044381 0.038812 0.31207 0.07449 
0.047855 -0.0406 -0.022514 0.064461 0.061501 0.18054 0.53288 0.11921 
0.024344 -0.039942 0.0047785 0.10178 0.15719 0.31289 0.67214 0.11642 
-0.0024557 -0.010183 0.025001 0.094055 0.24466 0.31042 0.63284 0.16393 
-0.056219 -0.015444 0.01004 0.11691 0.27738 0.1539 0.3461 0.18317 
-0.097322 -0.028104 -0.013636 0.088794 0.30089 -0.017088 -0.096829 0.0072447 
-0.055232 0.018096 -0.0080457 -0.009361 0.077449 -0.16424 -0.47432 -0.24118 
0.033715 0.023193 -0.0091966 -0.17394 -0.23411 -0.17608 -0.42253 -0.49159 
0.0060938 0.045882 0.015137 -0.13333 -0.22869 -0.09387 -0.15207 -0.95359 
0.03799 0.11165 0.035195 -0.089595 -0.23921 -0.062138 0.16738 -0.63726 
0.072024 0.13828 0.039799 -0.062467 -0.31435 -0.18019 0.14354 0.4043 
0.16886 0.17856 0.083533 -0.022021 -0.19992 -0.14763 0.060679 0.90445 
0.25255 0.15883 0.12201 0.085999 0.014315 -0.00015387 0.29497 0.89064 
0.28067 0.18004 0.093562 0.12809 0.17906 0.094384 0.22328 0.51101 
0.21589 0.10885 0.080738 0.11461 0.16525 0.011191 -0.19071 0.09833 
0.052459 0.017603 0.062488 0.071859 0.15275 -0.082525 -0.41941 -0.23839 
-0.03501 -0.0022913 0.09422 0.12891 0.31486 0.012342 -0.19498 -0.33424 
-0.072167 -0.0026201 0.038812 0.15456 0.3923 0.21737 0.2851 -0.28443 
-0.014787 0.092411 0.028454 0.11461 0.24005 0.22033 0.44508 -0.17213 
0.00297 0.039634 -0.031228 0.023686 0.011848 0.0090533 0.25699 -0.056219 
-0.028433 0.010862 -0.021692 -0.06 -0.028104 -0.17098 0.037497 0.086985 
-0.045039 0.0013258 -0.0075525 -0.057699 -0.012814 -0.15996 0.089945 0.17939 
-0.020377 0.051801 0.0026412 -0.063453 -0.11508 -0.01676 0.30319 0.29102 
0.0014903 0.045882 0.01004 -0.051944 -0.35364 -0.038627 -0.0138 0.20536 
0.030427 0.0079024 0.0082312 -0.12363 -0.51871 -0.27949 -0.5054 0.031085 
0.013821 -0.03501 0.023686 -0.12774 -0.49964 -0.40741 -0.53499 -0.21258 
-0.0032777 0.0034632 0.025824 -0.063946 -0.39968 -0.31797 -0.24431 -0.3931 
0.0092177 0.045389 0.0082312 -0.0075525 -0.25993 -0.067892 0.17182 -0.37584 
0.060515 0.10704 0.023851 0.0421 0.060515 0.093726 0.13993 -0.26371 
0.12283 0.17955 0.062323 0.1248 0.4048 0.10655 -0.12626 -0.025638 
0.16755 0.22065 0.079258 0.21753 0.60423 0.030263 -0.15618 0.45757 
0.16114 0.21835 0.071202 0.25765 0.61574 0.10244 0.027303 0.51907 
0.062981 0.15324 0.055418 0.23331 0.65553 0.22345 0.067749 0.2948 
-0.014787 -0.011498 0.020562 0.22082 0.69367 0.24581 -0.10702 0.13812 
-0.051615 -0.15487 -0.055561 0.18695 0.59914 0.16886 -0.28229 -0.0080457 
-0.10291 -0.2328 -0.060329 0.07449 0.1368 -0.08269 -0.26683 -0.06855 
-0.12642 -0.19005 -0.030899 -0.059507 -0.3377 -0.2425 -0.024158 0.048677 
-0.12725 -0.08384 0.036182 -0.1353 -0.51625 -0.23116 0.21408 0.041114 
-0.085485 0.068407 0.04506 -0.093376 -0.38406 -0.11541 0.3221 -0.013636 
0.020562 0.16886 0.058542 -0.081045 -0.16703 0.019247 0.23118 -0.051451 
0.095535 0.21901 0.091096 0.010862 0.03388 -0.013143 0.048348 -0.056219 
0.1493 0.21983 0.089945 0.062159 0.14716 -0.013307 -0.038791 -0.038298 
0.16097 0.15505 0.073997 0.10918 0.21737 0.08008 -0.034023 0.051472 
0.12891 0.034373 -0.020541 0.063474 0.20109 0.10376 -0.069372 0.1105 
0.077943 -0.045203 -0.053095 0.083204 0.18202 0.056898 -0.10867 0.31108 
-0.019061 -0.10357 -0.023172 0.12891 0.19237 0.071202 -0.051287 0.26669 
-0.042573 -0.02942 0.020891 0.11428 0.18498 0.11987 0.0056006 0.10014 
-0.020706 -0.042244 -0.00031829 -0.016595 0.021549 0.024015 -0.0072237 -0.050793 
-0.011827 -0.011005 -0.023501 -0.097487 -0.19186 -0.055397 -0.040106 -0.13662 
-0.031557 0.051472 0.0044497 -0.038133 -0.22392 -0.033037 -0.04471 -0.19877 
-0.008539 0.10343 0.093726 0.014808 -0.095021 0.049828 -0.0138 -0.043066 
0.086163 0.12661 0.063803 0.042594 0.018425 0.10524 0.12727 0.18432 
0.14979 0.12513 0.047855 0.11773 0.22345 0.1807 0.31338 0.28724 
0.18267 0.10458 0.048019 0.18218 0.39937 0.24236 0.33459 0.18711 
0.13861 0.096028 0.069722 0.10408 0.20898 0.1465 0.04506 -0.086471 
0.058213 0.069558 0.034044 -0.0062372 -0.047669 -0.031886 -0.24645 -0.29873 
0.014972 0.074983 0.027632 -0.046025 -0.18643 -0.17739 -0.38965 -0.21225 
0.042594 0.065283 0.04095 -0.019719 -0.12494 -0.18101 -0.23346 0.16475 
0.029276 0.028125 0.033715 -0.011005 -0.0060728 -0.034023 0.1276 0.3147 
0.010862 -0.025802 0.018096 -0.00031829 -0.0054151 0.11592 0.49161 0.23414 
-0.0040998 -0.066084 -0.034188 -0.0050863 -0.11985 0.072353 0.38638 -0.0036066 
-0.13974 -0.087951 -0.066577 -0.045039 -0.18972 -0.017417 0.038319 -0.17805 
-0.27292 -0.18874 -0.088773 -0.1427 -0.21471 -0.094692 -0.20501 -0.1644 
-0.23592 -0.19663 -0.060987 -0.13399 -0.19285 -0.03912 -0.17082 0.015465 
-0.023994 -0.08121 -0.0080457 -0.042573 -0.13991 0.11921 0.079587 0.14404 
0.11822 0.087972 0.053938 0.031414 -0.085156 0.18152 0.2759 0.16903 
0.24005 0.1909 0.11313 0.097015 0.026974 0.24466 0.28165 0.1105 
0.23825 0.20257 0.14996 0.17297 0.35087 0.32522 0.22378 0.075312 
0.20799 0.18415 0.1202 0.32752 0.76108 0.45182 0.040128 -0.0011404 
0.057555 0.12595 0.083533 0.31667 0.76306 0.34923 -0.015938 -0.078908 
-0.026131 0.10063 0.052952 0.11148 0.26801 0.13138 0.082711 -0.07562 
-0.031886 0.080409 0.067749 -0.091568 -0.25204 -0.080552 0.088136 0.027468 
0.0031344 0.087643 0.050979 -0.13481 -0.40428 -0.17936 0.0087245 0.067749 
0.029769 0.062323 0.013328 -0.12873 -0.32602 -0.14566 -0.03764 0.040128 
-0.0072237 0.026481 -0.00015387 -0.097158 -0.24184 -0.08384 -0.025145 -0.029584 
-0.028762 0.010204 0.013492 -0.035996 -0.1552 -0.006566 0.024837 -0.046683 
0.034866 0.03092 0.016945 -0.0016336 -0.16473 0.023028 0.068242 -0.021856 
0.08978 0.034044 0.0041209 -0.019061 -0.14188 0.037332 0.078272 0.038483 
0.095042 0.055089 0.054596 -0.044217 -0.17213 0.047526 0.071366 -0.0032777 
0.095535 0.10343 0.076956 -0.041751 -0.13201 0.069722 0.20717 0.037004 
0.086985 0.10195 0.061008 -0.0049219 -0.084827 0.11165 0.37109 0.058049 
0.022864 0.013821 0.013821 0.03388 0.072353 0.12661 0.37142 0.057227 
-0.10094 -0.096829 -0.010512 0.061337 0.15587 0.047691 0.0421 0.0032988 
-0.12823 -0.076277 -0.00031829 0.090931 0.10376 -0.098473 -0.51904 -0.11886 
-0.056712 0.072846 0.076627 0.079587 -0.02087 -0.1478 -0.5391 -0.074798 
0.089287 0.14733 0.064625 0.019411 -0.091897 -0.010183 0.0047785 0.16771 
0.21243 0.15209 0.018918 0.010204 -0.063124 0.14667 0.51857 0.36106 
0.1465 0.073339 0.0093821 -0.020377 -0.018075 0.17955 0.43324 0.13664 
-0.047669 -0.028762 0.034702 0.0098754 0.049006 0.10244 0.14913 -0.11327 
-0.08384 0.0060938 0.035688 0.07038 0.21687 -0.013965 -0.35397 -0.1108 
-0.05326 0.037004 0.080409 0.13203 0.2754 -0.05326 -0.52661 -0.10258 
0.0092177 0.063474 0.095042 0.13532 0.1784 -0.003771 -0.25927 -0.051451 
0.073668 0.053445 0.064954 0.045553 0.0042853 0.020398 -0.15914 -0.13777 
0.043909 0.0092177 -0.015938 -0.028269 -0.15881 -0.06 -0.10587 -0.1256 
0.049992 0.038483 -0.031886 -0.047012 -0.1667 -0.11689 0.050321 0.12529 
0.05065 0.086163 -0.0091966 0.014808 -0.063453 -0.11113 0.11329 0.25337 
0.062159 0.12628 0.080573 0.040785 0.031249 -0.0055795 0.087972 0.10852 
0.097837 0.17511 0.1105 0.09685 0.16607 0.19862 0.076299 -0.010676 
0.11247 0.18267 0.10935 0.12727 0.33887 0.24926 0.048677 -0.035996 
0.076792 0.14009 0.073997 0.11477 0.19846 0.12743 0.18843 0.014643 
0.047033 0.031578 0.035195 -0.023172 -0.11607 -0.035667 0.27179 0.10458 
-0.0029489 -0.031392 -0.0052507 -0.10324 -0.25352 -0.10669 0.29727 0.13203 
0.03799 -0.064604 -0.057863 -0.049807 -0.16588 -0.07414 0.2366 0.086492 
0.025824 -0.041915 -0.038956 -0.02235 -0.066577 -0.015773 0.13845 0.077449 
-0.022514 -0.043395 0.00083261 0.0075736 -0.078744 -0.0067304 0.12431 0.089123 
-0.047341 -0.0011404 0.058542 0.026152 -0.10604 -0.017417 0.10803 0.061008 
0.027961 0.065118 0.035688 0.079258 -0.037311 1.0539e-005 -0.032708 0.13532 
0.08715 0.12612 0.062652 0.02681 0.0037921 0.049828 -0.15733 0.12316 
0.054925 0.12069 0.036346 -0.042573 -0.057863 -0.037476 -0.42122 0.01267 
-0.019061 0.051308 0.023851 0.0062583 0.023028 -0.19186 -0.76698 -0.1718 
-0.051944 -0.018568 -0.016431 0.13203 0.31338 -0.1062 -0.58958 -0.16703 
-0.15339 -0.081868 -0.0026201 0.16969 0.46695 0.031414 -0.0016336 -0.045861 
-0.083183 0.016945 0.041443 0.25403 0.6478 0.12381 0.36731 0.17643 
0.11724 0.11395 0.12809 0.38984 0.91021 0.27327 0.46037 0.2736 
0.19731 0.12661 0.12809 0.35728 0.71916 0.20619 0.26242 0.24926 
0.15226 0.10622 0.078765 0.10589 0.10754 0.009711 -0.0070593 0.066105 
0.069722 0.043087 0.01711 -0.096007 -0.28936 -0.056055 -0.084663 -0.19712 
-0.033694 -0.028433 -0.023007 -0.20551 -0.44785 0.021384 0.12036 -0.41875 
-0.058028 -0.076606 -0.038627 -0.18759 -0.41596 0.081889 0.3729 -0.29725 
-0.012485 -0.05589 -0.060494 -0.11804 -0.27423 -0.014458 0.16377 0.044567 
0.032729 -0.0021268 -0.051615 -0.073976 -0.12807 -0.15092 -0.30021 0.256 
0.026646 0.054925 -0.001798 0.018918 -0.043724 -0.072332 -0.29889 0.047526 
0.046046 0.093726 0.027303 0.01974 -0.01939 0.015959 0.12069 0.19714 
0.13401 0.073339 0.016288 0.048184 0.015794 0.08863 0.48059 0.53288 
0.14815 0.060515 0.047197 0.089452 0.090603 0.092411 0.36041 0.36682 
0.06742 0.062652 0.089452 0.14321 0.17856 -0.006566 -0.14961 -0.11031 
0.00297 0.083533 0.10589 0.090438 0.071695 -0.12774 -0.42319 -0.26897 
0.0085601 0.11181 0.032893 -0.030406 -0.11705 -0.16227 -0.25582 -0.13284 
0.062817 0.085506 0.041607 -0.046519 -0.2157 -0.14533 0.0021479 0.042923 
0.050321 0.044073 0.030427 -0.021692 -0.16309 -0.070687 0.15407 0.10704 
-0.0090322 0.0082312 0.0095465 0.0070803 -0.064275 0.069886 0.097672 0.11625 
-0.032215 0.0062583 -0.010183 0.060844 0.19287 0.2029 0.033387 0.013657 
-0.057205 -0.01232 -0.033365 0.15242 0.47237 0.27672 0.030098 -0.003771 
-0.048656 -0.024652 -0.024816 0.23331 0.60736 0.25765 0.14009 -0.028269 
-0.037805 0.063639 0.032071 0.22822 0.5679 0.1927 0.2246 0.014808 
0.065612 0.089945 0.066105 0.14716 0.5041 0.22723 0.22444 0.024344 
0.064296 0.10507 0.065612 0.09274 0.3313 0.23792 0.17856 0.010204 
0.075641 0.076627 0.039141 -0.011005 -0.060823 0.089287 0.0072447 -0.053095 
0.076956 0.06331 0.024015 -0.083676 -0.2887 -0.067235 -0.14944 -0.017582 
0.031907 0.023193 0.020562 -0.082032 -0.31862 -0.10735 -0.07003 0.03799 
0.0031344 -0.013965 0.0067515 -0.059507 -0.29692 -0.11146 0.048348 0.058049 
0.025659 -0.0026201 0.022042 -0.056712 -0.14615 -0.066906 0.056404 0.054267 
0.029441 0.017274 0.038648 -0.00081153 0.051636 -0.009361 0.0037921 0.037332 
-0.010512 0.027961 0.037168 0.037661 0.073175 -0.037147 -0.083183 0.009711 
-0.046683 0.028947 0.020233 0.018096 -0.090253 -0.056548 -0.036489 0.015301 
-0.0095255 0.085835 0.041936 -0.043559 -0.17657 -0.031228 0.049006 0.10918 
0.051472 0.10951 0.022371 -0.081868 -0.24036 -0.048163 0.12217 0.13187 
-0.0049219 0.0689 0.040456 -0.063453 -0.25072 -0.054739 0.061995 0.051308 
-0.064933 -0.0027845 0.00017495 -0.033859 -0.20353 -0.030735 -0.047669 -0.088608 
-0.025309 -0.004593 0.029769 -0.036983 -0.16177 -0.029913 -0.099131 -0.12067 
0.084355 0.029441 0.024673 -0.028433 -0.088608 0.085506 0.046868 -0.13645 
0.12464 0.029276 0.06331 0.022864 0.025001 0.23923 0.45281 -0.041257 
0.0689 0.028783 0.047691 0.042265 0.10376 0.28889 0.69104 0.064954 
0.022371 0.042923 0.054432 0.07597 0.14371 0.1807 0.46382 0.045389 
0.030756 0.034373 0.047362 0.10852 0.18235 -0.0044286 -0.15043 -0.053424 
0.10803 0.03536 0.033387 0.17774 0.31618 -0.18035 -0.85971 -0.042573 
0.12973 0.026974 0.031085 0.1396 0.37307 -0.18101 -1.0116 -0.0049219 
0.12135 0.00297 -0.0022913 0.034537 0.14585 -0.05441 -0.38833 0.096193 
0.053609 0.040456 0.026646 -0.088115 -0.2185 -0.025474 0.13746 0.20438 
-0.04882 0.078272 0.02829 -0.2134 -0.57708 -0.09946 0.22937 0.1562 
-0.090088 0.090274 0.036346 -0.30794 -0.67507 -0.10949 0.18547 0.010697 
-0.05589 0.068242 0.0046141 -0.2374 -0.52743 -0.083018 0.16689 -0.11903 
0.026646 0.059693 0.021549 -0.051287 -0.18052 0.083862 0.29004 -0.18594 
0.057884 0.053609 0.068242 0.14683 0.17215 0.24976 0.29283 -0.094199 
0.067585 0.11296 0.10787 0.23266 0.52581 0.28724 0.17117 0.10458 
0.064132 0.1345 0.07597 0.23446 0.65323 0.16459 -0.14484 0.12595 
0.063968 0.066598 0.037497 0.21441 0.51874 0.049499 -0.16161 0.032564 
0.041772 0.015301 0.0070803 0.15818 0.2583 0.066927 0.12201 0.042265 
0.056404 -0.021034 -0.0011404 0.013986 0.13401 0.066269 0.15209 -0.053095 
0.11526 0.018918 -0.039942 0.039634 0.11954 0.031249 0.02122 -0.087786 
0.072353 0.034537 0.026152 0.089452 0.15785 0.074654 0.09833 0.099316 
-0.0052507 -0.014129 0.033058 0.088465 0.035688 0.038155 0.11477 0.23134 
-0.037311 0.047526 0.10096 -0.00031829 -0.14632 -0.056712 -0.056219 0.1128 
-0.004593 0.12579 0.078436 -0.05178 -0.26585 -0.15207 -0.21981 -0.033365 
0.068736 0.15735 0.073832 -0.041751 -0.24562 -0.16523 -0.26042 -0.046519 
0.060022 0.090438 0.042923 -0.038956 -0.18726 -0.07414 -0.096007 0.1419 
0.035688 0.00066819 -0.013471 -0.042573 -0.11393 -0.017253 -0.0078813 0.18843 
0.0087245 -0.069043 -0.063453 -0.045696 -0.048656 0.055089 -0.0047575 0.068407 
-0.0096899 -0.057699 -0.06444 0.0042853 0.032893 0.029441 0.00297 -0.047341 
-0.01117 0.0037921 -0.011498 0.046211 0.069722 -0.0036066 -0.00031829 -0.091404 
0.017932 0.055911 0.031578 0.062488 0.08008 -0.01528 0.13615 -0.077922 
-0.018239 0.089452 0.076134 0.06183 0.11296 0.014315 0.22476 -0.069865 
-0.023665 0.11165 0.082053 0.091425 0.10408 0.0069159 0.18037 -0.0044286 
0.04654 0.13203 0.074161 0.064954 0.10178 -0.03764 -0.0039354 0.069393 
0.1003 0.12464 0.060186 0.060679 0.045882 -0.058356 -0.23017 0.058871 
0.072353 0.082546 0.06331 0.049992 0.039141 -0.043066 -0.23329 0.058049 
0.053609 0.067256 0.020398 0.0044497 -0.0011404 0.0047785 -0.016266 0.12118 
0.070051 0.058706 0.033551 -0.028597 -0.014787 0.029441 0.12809 0.15949 
0.11247 0.11083 0.066598 0.050814 0.099974 0.067585 0.20158 0.17922 
0.12825 0.14321 0.087643 0.096686 0.1396 0.071859 0.25485 0.12727 
0.11083 0.12201 0.046704 0.040456 -0.015609 -0.015444 0.17166 0.097015 
0.059528 0.05213 -0.010512 0.019905 -0.10834 -0.017746 0.24384 0.12908 
0.048019 0.0059294 -0.0055795 0.050979 0.021384 0.061501 0.038155 0.075312 
-0.016431 -0.056219 -0.018075 0.066763 0.054432 -0.019884 -0.37074 -0.12083 
-0.16128 -0.13744 -0.049642 -0.044546 0.0021479 -0.016266 -0.4273 -0.2522 
-0.22984 -0.14533 -0.076935 -0.055068 0.0016547 0.0070803 -0.19942 -0.22688 
-0.15651 -0.055232 -0.035832 0.00033937 0.09422 0.11148 0.099645 -0.07266 
0.068736 0.066105 0.036182 0.084026 0.26702 0.2366 0.32933 0.084026 
0.183 0.1373 0.087808 0.14075 0.33821 0.1562 0.29842 0.10524 
0.14437 0.10096 0.071202 0.21572 0.36665 0.03651 0.20323 0.091753 
0.093398 0.076956 0.043909 0.18284 0.33163 -0.041093 0.14026 0.14765 
0.040292 0.053938 0.047033 0.086492 0.071531 -0.0503 0.099152 0.21852 
0.072353 0.073504 0.093069 -0.056877 -0.15996 -0.049807 0.083697 0.33903 
0.063968 0.076792 0.041607 -0.12478 -0.27851 -0.086636 0.043909 0.22328 
0.02533 0.062817 0.044896 -0.10735 -0.36449 -0.090417 0.055418 -0.0016336 
-0.0083746 0.019905 0.030263 -0.06148 -0.28952 -0.034188 0.074161 -0.14648 
-0.0078813 0.056404 0.030263 -0.0013048 -0.1667 0.029112 0.08419 -0.097158 
0.073339 0.034044 0.004943 -0.0011404 -0.08828 0.041772 0.071037 -0.04882 
0.10458 0.045718 0.025166 0.042758 -0.12757 -0.0022913 -0.025145 -0.017911 
0.065612 0.031578 0.0085601 0.020233 -0.001798 -0.0024557 -0.13004 -0.11146 
0.077449 0.067913 0.052952 0.050979 0.081889 0.061172 -0.081703 -0.063618 
0.068736 0.11674 0.068571 0.021713 0.049664 0.11806 0.093069 -0.025309 
-0.010841 0.047362 -0.0057439 0.0062583 -0.016431 0.13631 0.30714 0.018589 
-0.16983 -0.049478 -0.047341 -0.035503 0.0067515 0.071037 0.28576 -0.02087 
-0.29659 -0.12429 -0.032872 0.015959 0.099645 -0.024158 0.036182 -0.11278 
-0.25319 -0.121 0.0032988 0.085999 0.20964 -0.064111 -0.29643 -0.1279 
-0.08384 -0.020212 0.0039565 0.11411 0.23874 -0.048163 -0.42697 -0.050629 
0.11757 0.072846 0.049335 0.19944 0.38211 0.093562 -0.15224 0.08419 
0.19172 0.14042 0.11198 0.30056 0.53403 0.256 0.25978 0.27392 
0.18794 0.10754 0.13713 0.22098 0.41137 0.24877 0.3313 0.35925 
0.14798 0.067256 0.068407 0.053116 0.049664 0.08304 0.17791 0.34232 
0.13565 0.075805 0.007738 -0.10423 -0.22622 -0.032708 -0.020541 0.17971 
0.087808 0.029112 -0.021692 -0.16375 -0.28278 -0.056712 -0.13021 -0.037805 
0.035031 0.01826 0.0088889 -0.093705 -0.21603 -0.057863 -0.14434 -0.1547 
-0.00097594 0.031085 0.015794 -0.026624 -0.157 -0.0090322 0.033715 -0.15273 
-0.0011404 0.057555 0.026481 -0.0047575 -0.1478 0.023522 0.17051 -0.10686 
0.007738 0.053609 0.068078 0.01711 -0.16572 -0.028269 0.15489 -0.13399 
0.059857 0.042594 0.071202 0.024344 -0.15141 -0.041586 0.13976 -0.20764 
0.060186 0.0082312 0.044402 -0.0049219 -0.059343 0.026481 0.067749 -0.14418 
0.055418 0.012342 0.011026 -0.0095255 -0.032872 -0.0057439 -0.063124 0.11905 
0.029276 0.010533 -0.0072237 -0.012485 -0.034188 -0.062631 -0.12412 0.28856 
-0.031557 -0.026624 0.0039565 0.031578 0.075805 0.023193 -0.10143 0.24088 
-0.054739 -0.017088 0.043087 0.079751 0.32259 0.11099 -0.073154 0.21276 
0.018754 0.050486 0.04654 0.13647 0.47369 0.10129 -0.2208 0.098988 
0.13976 0.13549 0.080409 0.14437 0.42502 0.13812 -0.11722 -0.018568 
0.18054 0.23167 0.10967 0.1299 0.26324 0.16508 0.29168 -0.064111 
0.18202 0.25436 0.11461 0.00017495 -0.034681 0.13088 0.56905 -0.093541 
0.13105 0.17297 0.04654 -0.058028 -0.2545 -0.015116 0.34133 -0.081539 
0.11066 0.04917 0.01563 -0.028104 -0.20649 -0.10686 -0.1912 -0.059343 
-0.011992 -0.08269 -0.020541 -0.0026201 -0.10686 -0.21208 -0.71091 -0.0073881 
-0.15668 -0.13152 -0.0050863 0.054267 -0.011663 -0.18331 -0.56426 0.0324 
-0.22293 -0.20518 -0.0031133 0.062159 0.063639 -0.0057439 -0.020212 0.017603 
-0.19942 -0.16884 0.015959 0.1248 0.11592 0.11855 0.31799 -0.048163 
-0.035832 -0.025474 0.017932 0.088958 0.1174 0.1391 0.40134 -0.031064 
0.079751 0.068078 0.018754 -0.0049219 -0.010019 0.091918 0.31059 0.08715 
0.11806 0.10491 -0.010512 -0.084169 -0.17723 -0.0062372 0.095699 0.21112 
0.072188 0.088794 -0.0078813 -0.098144 -0.25056 -0.13711 -0.32931 0.15867 
0.087643 0.11198 0.045553 -0.10949 -0.26453 -0.17295 -0.46249 0.08419 
0.082711 0.13384 0.063803 -0.074304 -0.1256 -0.076606 -0.22688 0.030263 
0.17314 0.18399 0.10162 0.030427 -0.018239 1.0539e-005 0.032071 0.061995 
0.17791 0.17462 0.08156 0.13236 0.11477 0.074819 0.14042 0.1202 
0.071695 0.1562 0.076956 0.10376 0.21243 0.10885 0.1054 0.079094 
-0.0036066 0.072681 0.043251 0.1345 0.27738 0.060679 0.02122 -0.00031829 
-0.017911 0.041607 0.034044 0.1179 0.2588 0.024837 0.012506 -0.0013048 
0.039141 0.05213 -0.0047575 0.11148 0.27096 0.047033 0.037168 0.012342 
0.048348 -0.025638 -0.012978 0.057391 0.11132 0.036839 0.067913 0.050979 
-0.029748 -0.066084 0.010862 -0.0022913 -0.042408 0.03947 0.15061 -0.012649 
-0.084005 -0.068714 0.069886 0.023686 -0.12379 0.067585 0.34692 -0.095349 
-0.039449 -0.033037 0.025166 -0.028597 -0.1256 0.076299 0.42371 -0.11393 
0.011191 -0.011498 -0.013143 -0.017746 -0.031557 0.039963 0.32276 -0.14862 
-0.0073881 -0.027282 -0.008539 -0.051287 -0.0021268 -0.0044286 0.090438 -0.16161 
-0.020706 0.031578 0.05476 0.024837 -0.0138 -0.060165 -0.22852 -0.059836 
-0.0068948 0.10672 0.043251 0.037332 0.011684 -0.083512 -0.29643 0.070708 
0.046868 0.15012 0.038319 0.081395 0.0592 -0.1062 -0.091897 0.28149 
0.11576 0.15078 0.039141 0.097508 0.13532 -0.040764 0.18383 0.6677 
0.19369 0.11872 0.042265 0.10343 0.15851 0.025824 0.14239 0.61015 
0.1493 0.027303 -0.0059084 0.014479 0.029605 -0.0080457 -0.38932 0.038155 
0.044896 -0.0014692 -0.015609 -0.027611 -0.083018 -0.045696 -0.65699 -0.35923 
0.012999 0.050979 0.01974 -0.049971 -0.15076 0.014479 -0.41941 -0.52447 
0.03536 0.1026 0.085012 -0.027282 -0.15931 0.028783 -0.012649 -0.35233 
0.022864 0.067256 0.10918 -0.063946 -0.22343 -0.031064 0.244 -0.065755 
-0.063618 0.025495 0.047526 -0.054904 -0.17805 -0.008539 0.42025 0.032893 
-0.16753 -0.031228 0.012013 -0.019061 -0.0771 0.08008 0.56609 0.0019835 
-0.13037 -0.016266 -0.014622 0.037826 0.080244 0.095042 0.58039 0.053445 
-0.030077 -0.0060728 0.023522 0.14469 0.40513 0.14272 0.35235 0.18974 
0.060679 0.0092177 0.040785 0.25041 0.71192 0.25913 0.15604 0.1853 
0.083368 -0.0042642 0.038483 0.22739 0.5771 0.20125 -0.072003 0.053609 
0.049828 -0.059672 -0.023994 0.05772 0.15127 0.034866 -0.17443 0.040456 
0.044238 -0.063124 -0.016924 -0.050793 -0.11837 -0.091239 -0.19186 0.052459 
0.041114 0.012999 -0.001798 -0.057863 -0.18693 -0.1792 -0.20814 0.059857 
0.036346 0.11 0.052623 -0.03764 -0.24842 -0.1843 -0.11245 0.013821 
0.024179 0.14272 0.089452 -0.060165 -0.26289 -0.091075 0.076299 0.043909 
0.068736 0.15094 0.099481 -0.045696 -0.22047 -0.021034 0.08008 0.094548 
0.08419 0.1151 0.061337 -0.042737 -0.18265 -0.0031133 0.016945 0.055911 
0.05065 0.078107 0.035853 -0.01528 -0.12412 0.073832 0.073668 -0.0013048 
0.051965 0.064296 0.036346 0.049006 0.033222 0.15275 0.18909 -0.047341 
0.049664 0.047033 0.047855 0.097179 0.18547 0.21704 0.20372 -0.016924 
0.051472 0.097344 0.036017 0.078765 0.21062 0.22739 0.10195 0.007738 
0.028125 0.021713 0.0011614 0.009711 0.17643 0.13615 0.033715 -0.02087 
0.0044497 -0.017088 -0.034516 -0.02646 0.0039565 -0.05589 -0.096994 -0.037147 
0.059857 0.0070803 -0.0052507 -0.060987 -0.18841 -0.18561 -0.078415 0.10178 
0.10803 0.071695 0.063968 -0.019884 -0.24809 -0.16983 0.032893 0.22624 
0.05624 0.090274 0.082217 0.026152 -0.12955 -0.060329 0.050979 0.26636 
0.014972 0.072517 0.085341 0.099152 0.086821 0.10129 0.037497 0.098166 
-0.049807 0.0046141 0.049828 0.14371 0.16393 0.13467 -0.019555 -0.18627 
-0.11541 -0.034516 0.039634 0.074819 0.17067 0.10145 -0.1011 -0.45985 
-0.091075 -0.013636 -0.00031829 0.034209 0.26192 0.047691 0.0024767 -0.291 
0.083697 0.056076 0.020069 0.16064 0.54652 0.18892 0.23989 0.15193 
0.21358 0.10244 0.042923 0.26061 0.65816 0.34298 0.48635 0.57151 
0.1733 0.049335 0.032236 0.14157 0.35975 0.24334 0.27212 0.44919 
0.044402 -0.03353 -0.014787 -0.0050863 -0.013965 0.027796 -0.21685 0.039799 
0.02122 0.011684 0.031414 -0.0042642 -0.18907 -0.14895 -0.45574 -0.19844 
0.059693 0.074654 0.064625 -0.0075525 -0.24645 -0.15816 -0.34065 -0.16046 
0.056733 0.084848 0.084026 -0.049642 -0.29922 -0.0965 -0.1307 -0.056877 
0.024508 0.064132 0.041278 -0.11639 -0.25269 -0.042573 0.096521 0.031414 
0.027632 0.049992 0.039305 -0.094199 -0.11179 0.01563 0.19435 0.15456 
0.047362 0.097837 0.056404 0.023028 -0.030735 0.033222 0.16936 0.17922 
0.05213 0.067749 0.046046 0.041114 0.051308 0.012013 0.10852 0.11115 
0.033222 0.01711 0.0088889 0.050814 0.14585 0.036346 0.065776 0.052459 
0.04095 -0.014951 -0.033859 0.066269 0.18037 0.058706 0.11329 0.095535 
0.04917 0.012013 0.0080668 0.10672 0.11921 0.08715 0.15653 0.093726 
0.029605 0.067256 0.053116 0.08978 0.080244 0.14601 0.24367 0.041114 
0.053774 0.10721 0.054432 0.042429 0.082546 0.16492 0.28017 -0.079401 
0.058049 0.12201 0.048513 0.018918 0.057227 0.14733 0.33574 -0.12412 
0.05065 0.076792 0.025166 0.011848 -0.0011404 0.06742 0.1613 -0.071674 
0.030592 0.051965 0.013492 -0.027118 -0.021856 -0.085485 -0.43388 -0.093376 
-0.0098543 -0.027118 0.023522 -0.019226 0.050486 -0.14467 -0.56048 -0.054904 
-0.036818 -0.034023 0.00297 0.034044 0.052623 -0.15865 -0.42927 0.060515 
-0.030077 -0.030735 0.035524 0.085012 -0.0013048 -0.19334 -0.49093 0.14782 
-0.011005 0.01267 0.054596 0.041936 -0.0057439 -0.087951 -0.25565 0.13647 
0.0088889 0.080244 0.069722 0.048841 0.012013 0.087479 0.11543 0.08715 
0.025659 0.1031 0.031414 0.069558 0.088465 0.11066 0.16804 0.033551 
0.024673 0.059364 0.013492 0.1003 0.06742 0.052459 0.13203 -0.10193 
-0.02942 -0.025145 -0.0024557 0.035524 0.0069159 0.027632 0.21539 -0.10883 
-0.025802 -0.024652 0.0227 0.031907 0.10047 0.091918 0.31404 0.026317 
0.022864 0.032729 0.017274 0.056733 0.20569 0.10935 0.23414 0.14272 
0.049828 0.069393 0.011684 0.029605 0.11526 0.051965 0.094548 0.098001 
0.036839 0.07301 0.014972 -0.029913 -0.087458 0.00017495 0.040785 0.12233 
0.034044 0.058542 0.027632 -0.077757 -0.19877 -0.04471 0.028454 0.10293 
0.029276 0.039963 -0.0082102 -0.049971 -0.18989 -0.012814 0.014479 0.052952 
0.043416 0.038648 -0.0039354 -0.033037 -0.15783 -0.037147 -0.064275 -0.0077169 
0.048019 0.04358 0.005765 -0.013636 -0.15043 -0.038791 -0.077428 -0.071016 
0.048677 0.057227 0.038155 0.012013 -0.072332 -0.038462 -0.084827 -0.13366 
0.019411 0.062488 0.071037 0.079094 -0.04619 -0.055561 -0.075784 -0.13448 
0.028947 0.083204 0.025988 0.005765 -0.0027845 -0.0771 0.0039565 0.0075736 
0.033551 0.070051 0.011848 0.025659 0.035853 -0.04619 0.095371 0.25008 
0.037661 0.071202 0.025495 0.055418 0.073504 -0.04882 0.088136 0.29974 
0.029441 0.071695 0.05213 0.056898 0.047855 -0.037311 -0.060494 0.14354 
-0.028433 0.032893 -0.029748 0.0075736 -0.030406 -0.042737 -0.19482 -0.13859 
-0.12248 0.021713 -0.015773 -0.045532 -0.14073 -0.059836 -0.25828 -0.23855 
-0.14813 -0.017911 -0.017253 -0.048492 -0.1695 -0.02646 -0.12346 -0.19301 
-0.051122 -0.026789 0.027796 0.00033937 -0.092061 0.026974 0.057884 0.034866 
0.067913 0.043745 0.06742 0.051472 0.035853 0.10672 0.16673 0.13335 
0.1271 0.099974 0.082875 0.11921 0.12299 0.1539 0.18843 0.14091 
0.12431 0.1174 0.076956 0.091589 0.1738 0.17643 0.17396 0.090438 
0.11954 0.059857 0.03536 0.042923 0.17758 0.096521 0.12924 0.032236 
0.1202 0.0324 0.01004 0.033387 0.10622 -0.010841 0.068407 -0.0095255 
0.046704 0.013164 -0.0083746 -0.012649 -0.0057439 -0.0771 0.0082312 -0.030735 
-0.0014692 0.015959 0.011355 -0.0073881 -0.12757 -0.11935 -0.0032777 -0.009361 
-0.0039354 0.046046 0.021056 -0.03764 -0.15996 -0.089924 0.01415 0.01415 
0.0011614 0.048513 0.048513 -0.029091 -0.092883 -0.032215 0.090767 0.023028 
0.0054362 0.014972 -0.033694 0.017603 0.050979 0.062159 0.23479 0.11132 
0.051308 0.044402 0.0062583 0.046375 0.055582 0.11707 0.27228 0.16689 
0.054596 0.091425 0.023357 0.047855 0.10573 0.12464 0.14864 0.14667 
0.025001 0.079094 0.10145 0.073504 0.17314 0.096686 -0.12823 0.029112 
-0.0057439 0.062652 0.068736 0.054596 0.1276 0.053281 -0.38472 -0.10341 
-0.029091 0.046046 0.042429 0.03651 -0.017746 0.036017 -0.35512 -0.22014 
-0.011992 0.011191 0.016288 -0.018404 -0.098967 0.081724 0.010369 -0.11048 
0.039305 -0.0032777 0.0087245 -0.046354 -0.062302 -0.001798 0.1128 0.016452 
0.067256 0.030263 0.016288 -0.02794 -0.018897 -0.10604 0.084355 0.055254 
0.068407 0.055089 0.025001 -0.018897 -0.067235 -0.079566 0.24581 0.14519 
0.024837 0.0051074 0.016781 0.020069 0.077449 0.089616 0.40858 0.22953 
0.013164 -0.0019624 0.038483 0.098659 0.25091 0.16163 0.4145 0.08156 
0.03651 0.022042 0.024344 0.13845 0.19731 0.12332 0.38934 -0.0082102 
0.013821 0.058213 0.0592 0.13319 0.11214 0.0070803 0.079587 -0.013965 
0.0088889 0.065612 0.083533 0.17659 0.18876 -0.11623 -0.39705 -0.099953 
0.0056006 0.048348 0.097179 0.19385 0.18498 -0.14402 -0.5077 -0.048492 
0.054596 0.07301 0.092576 0.087972 0.072188 -0.055561 -0.15322 0.067913 
0.055582 -0.0098543 -0.028597 -0.021528 -0.038462 0.049828 0.078107 0.16607 
0.011848 -0.021199 -0.050464 -0.068879 -0.022185 0.19287 0.14552 0.049335 
-0.021199 -0.013636 -0.046354 -0.016924 0.087479 0.25584 0.15144 0.0064227 
0.0080668 -0.021034 0.039799 0.046375 0.12085 0.19237 0.12151 0.0080668 
0.049335 0.0059294 0.039634 0.0062583 -0.0036066 0.045882 0.048019 0.078272 
0.050814 0.011684 0.017932 -0.0032777 -0.046354 0.004943 0.039634 0.047526 
0.046868 0.032729 0.059528 0.022371 0.031249 0.024179 0.05213 0.018425 
0.097179 0.07301 0.098001 0.077614 0.16558 0.019411 0.054267 0.0034632 
0.098659 0.11214 0.064461 0.070215 0.11411 0.00066819 0.053445 0.044402 
0.10376 0.13088 0.073175 0.029605 -0.037969 -0.017417 0.076627 0.055418 
0.048841 0.090274 0.033222 -0.0014692 -0.13333 -0.033037 0.10688 0.060844 
-0.021199 0.051636 0.033551 0.0028056 -0.094692 0.0047785 0.099645 0.029769 
-0.0073881 0.021056 0.028125 0.030098 0.039141 0.014315 -0.0034422 0.0090533 
0.021878 0.034866 0.0064227 0.049828 0.16146 -0.074469 -0.20929 -0.041422 
0.045718 0.033058 0.0070803 0.13154 0.20931 -0.10834 -0.26848 -0.0090322 
0.065447 0.056733 0.062817 0.1636 0.27343 -0.0067304 -0.040271 0.055089 
0.086163 0.06035 0.08567 0.1664 0.27425 0.14174 0.19484 0.14733 
0.10573 0.077943 0.061995 0.095371 0.1391 0.13286 0.12957 0.10935 
0.07038 0.10507 0.061995 0.017603 -0.06 0.082382 0.022206 0.15111 
0.089945 0.068571 0.038483 -0.050958 -0.14993 0.12316 0.22361 0.23266 
0.023851 0.014808 0.020233 -0.08121 -0.14204 0.16689 0.48503 0.27524 
-0.041422 -0.057205 -0.027118 -0.041422 -0.046519 0.22033 0.45445 0.044567 
-0.14451 -0.050629 -0.025802 -0.0138 -0.020048 0.12283 0.12809 -0.3571 
-0.10143 0.040785 -0.0064016 -0.053917 -0.051122 -0.072332 -0.22902 -0.50589 
0.022864 0.10474 0.053609 -0.057205 -0.065262 -0.29347 -0.61325 -0.14188 
0.16097 0.14321 0.049664 0.0098754 0.027796 -0.37584 -0.77816 0.18465 
0.159 0.14305 0.10425 0.11132 0.17084 -0.23346 -0.41185 0.24828 
0.056569 0.11674 0.11773 0.18021 0.26143 0.0075736 0.056404 0.1396 
0.03536 0.064132 0.12233 0.1659 0.28757 0.1345 0.32374 0.10293 
0.066598 -0.00031829 0.078765 0.14256 0.1567 0.15275 0.40151 0.10129 
0.042429 -0.05441 -0.0016336 -0.0029489 -0.03353 0.10721 0.32374 0.092904 
-0.03764 -0.066248 -0.026953 -0.06444 -0.046847 0.11658 0.18826 -0.0039354 
-0.079895 0.017932 0.012013 -0.0082102 0.072024 0.13171 0.047033 -0.073318 
-0.06444 0.033551 0.029276 0.063474 0.075148 0.10754 -0.034352 -0.098967 
-0.12971 0.007738 -0.015116 0.017438 -0.052273 0.028947 -0.031886 -0.064768 
-0.066906 0.053281 0.011191 0.007738 -0.061809 0.0056006 -0.021363 -0.035503 
0.059528 0.081395 0.06331 0.0324 -0.026624 0.033551 -0.044381 -0.014622 
0.15686 0.15522 0.089452 0.010862 -0.072989 0.0082312 -0.039449 0.013492 
0.21062 0.17281 0.049664 -0.06444 -0.12018 -0.0057439 0.014479 0.095864 
0.19484 0.13056 0.0421 -0.063289 -0.086964 0.0019835 0.061337 0.10639 
0.091589 0.058542 0.02829 -0.052109 -0.034188 0.064132 -0.025802 0.020233 
-0.001798 0.053116 0.064132 0.026481 -0.0024557 0.015959 0.021878 -0.0026201 
-0.017911 0.082875 0.035688 0.053281 -0.019884 -0.027118 0.013328 -0.008539 
-0.015444 0.026646 0.024344 0.03092 -0.041751 -0.030406 -0.017417 -0.015609 
0.01415 -0.033201 0.0083956 0.0072447 -0.09091 0.00083261 -0.0077169 -0.017417 
0.012999 -0.022514 0.043745 -0.018075 -0.095843 -0.025474 0.013164 0.01004 
0.01004 0.027796 0.0088889 -0.014293 -0.041586 -0.034188 0.016616 0.046704 
-0.013965 0.036017 0.0051074 -0.034516 -0.01528 -0.033365 0.05624 0.10967 
-0.014293 0.040785 0.036675 0.0079024 0.024673 0.018425 0.11477 0.16492 
0.015465 0.042923 0.048677 0.022535 0.095371 0.082053 0.10376 0.032564 
0.0324 0.043416 0.012177 0.0786 0.21358 0.16903 0.037497 -0.072989 
0.053774 0.053609 0.0023123 0.084848 0.256 0.1465 -0.11491 -0.12494 
0.01826 0.020069 -0.0024557 0.047691 0.14453 0.015137 -0.16128 -0.14319 
-0.023172 -0.023007 0.0079024 -0.045861 0.0074092 -0.0013048 -0.042408 -0.10686 
-0.028762 0.0082312 0.035524 -0.0075525 -0.064604 0.038319 0.019905 -0.018733 
0.0087245 0.0421 0.037004 0.020727 -0.065426 0.085999 0.065776 0.21145 
0.043909 0.076627 0.040292 0.016452 -0.038298 0.030592 0.040785 0.2583 
0.020233 0.059035 0.020069 0.00297 -0.02087 -0.012156 0.092082 0.19566 
0.03388 0.029112 0.042758 0.029441 0.013328 -0.041093 0.0047785 0.02681 
-0.0095255 0.056898 0.048019 0.094548 0.095042 -0.016431 -0.12741 -0.14303 
-0.014458 0.076463 0.019247 0.047197 0.067585 -0.013143 -0.031886 -0.22178 
0.021713 0.074654 0.024673 -0.060165 -0.081374 -0.011005 0.13631 -0.05885 
0.059528 0.019083 0.036182 -0.10735 -0.21882 -0.037805 0.18876 0.11707 
0.063968 0.0088889 0.0087245 -0.060987 -0.20699 -0.068057 0.12036 0.18267 
0.0786 0.0024767 0.0059294 -0.051122 -0.14056 -0.051944 0.062488 0.13269 
0.031414 0.034044 0.028947 -0.019555 -0.080059 0.005765 0.033387 0.092082 
0.019247 0.033387 0.026317 0.0087245 -0.02498 0.051636 0.019411 0.069886 
0.024344 0.043745 -0.019226 0.067749 0.070708 0.1008 -0.0062372 0.021056 
0.033222 0.023028 -0.008539 0.08419 0.17889 0.1322 -0.0022913 0.0019835 
0.053938 1.0539e-005 0.0046141 0.088794 0.19764 0.19073 0.12316 0.058542 
0.062159 0.027961 0.055911 0.097508 0.13812 0.21983 0.05624 -0.076442 
0.058542 0.056076 0.056569 0.10935 0.16015 0.18251 -0.076277 -0.12856 
0.070873 0.094055 0.072024 0.12792 0.23118 0.10211 -0.013471 0.055747 
0.057391 0.092904 0.044896 0.081724 0.16048 -0.004593 0.094055 0.19994 
0.01267 0.058871 0.029112 0.043909 0.066927 -0.071016 0.11625 0.08567 
0.0074092 0.039799 0.020562 0.023851 0.0062583 -0.068221 -0.032215 -0.082196 
0.033551 0.033222 0.019247 -0.0024557 -0.096336 -0.11442 -0.13316 -0.16095 
0.056898 0.040128 0.030592 -0.0406 -0.18989 -0.15881 -0.16375 -0.047176 
0.078107 0.040456 0.033058 -0.0027845 -0.16128 -0.11048 -0.11409 0.099152 
0.09274 0.081231 0.064625 0.048184 -0.059672 -0.023665 -0.045696 0.16952 
0.086163 0.072681 0.020562 -0.046025 -0.049642 0.0070803 0.062817 0.21128 
0.084848 0.042594 -0.013471 -0.053424 -0.092061 -0.026296 0.13203 0.20257 
0.037332 0.080738 0.018589 0.065118 0.10178 0.00297 0.1659 0.09833 
0.042265 0.092411 0.080244 0.1197 0.2583 0.091753 0.21901 0.071366 
0.047526 0.06594 0.034209 0.12825 0.24663 0.17347 0.27129 0.079916 
0.075312 0.012177 0.012342 0.12365 0.15209 0.16771 0.30138 0.10787 
0.034537 -0.036983 0.026974 0.13269 0.13664 0.16936 0.20586 0.047362 
-0.026131 -0.061973 0.038977 0.10967 0.21786 0.11411 -0.16654 -0.20271 
-0.073482 -0.046519 0.0047785 0.066598 0.24367 0.05065 -0.45147 -0.39754 
-0.070359 0.026481 0.011191 0.023193 0.084684 -0.030242 -0.38192 -0.26338 
-0.02235 0.054432 0.019083 0.035688 -0.018897 -0.041093 -0.044381 0.057227 
0.026152 0.075312 0.043745 0.04358 -0.024323 -0.028104 0.27064 0.23085 
0.061337 0.072024 0.037497 0.030756 -0.0098543 0.016781 0.34396 0.19566 
0.080902 0.062323 0.025166 0.08567 0.0056006 -0.018733 0.12151 0.13384 
0.078436 0.080738 0.05624 0.049664 0.021549 -0.028762 -0.21422 0.089616 
0.11822 0.06035 0.048841 -0.011827 -0.065262 0.0070803 -0.3007 0.041607 
0.13631 0.097179 0.081231 -0.02235 0.0090533 0.091096 -0.031064 0.016781 
0.054596 0.098988 0.06331 0.030427 0.048677 0.067749 0.095206 -0.017746 
-0.056877 0.10211 0.047691 0.0072447 -0.0050863 -0.058685 0.16673 -0.0075525 
-0.062467 0.059364 0.039634 -0.010841 -0.077264 -0.076113 0.18777 0.0324 
-0.020048 0.051965 0.032236 0.019576 -0.059507 -0.028597 0.14765 0.046211 
0.033551 -0.0057439 -0.031228 0.067256 -0.016102 0.035688 0.13845 0.048019 
0.062981 -0.035338 -0.035832 0.031742 0.016781 -0.011663 0.051801 0.15818 
0.032729 -0.013965 0.014643 0.013657 -0.049971 -0.060494 -0.0072237 0.17232 
-0.024652 -0.0022913 0.056569 -0.011334 -0.14796 -0.097158 -0.031721 0.0047785 
-0.074633 0.019247 0.041114 -0.02087 -0.10965 -0.086307 -0.090581 -0.13021 
-0.091075 -0.021363 0.012177 -0.028926 0.12069 -0.043066 -0.12659 -0.095349 
-0.055068 -0.013636 -0.024816 0.063639 0.3678 0.072846 0.011684 -0.02794 
0.0227 0.031578 0.022535 0.14617 0.48421 0.22476 0.17774 0.050486 
0.096028 0.078272 0.064954 0.17906 0.3946 0.22723 0.26094 0.12644 
0.078272 0.091589 0.093562 0.16081 0.293 0.13812 0.13828 0.14042 
0.038483 0.10293 0.080409 0.13434 0.2149 0.10803 -0.048163 -0.038462 
0.04095 0.083204 0.057555 0.061501 0.046868 0.044896 -0.14303 -0.12642 
0.038648 0.091096 0.019576 -0.038791 -0.16621 -0.038956 -0.19318 -0.050136 
0.031249 0.040785 0.010862 -0.070194 -0.25121 -0.074304 -0.098967 0.12201 
0.044402 0.022535 0.012013 -0.054739 -0.24003 -0.044381 0.012013 0.13532 
0.074983 0.024673 0.020891 -0.021034 -0.16621 -0.033694 -0.014787 0.013821 
0.1054 0.068078 0.05476 -0.014293 -0.049642 0.0013258 0.047033 -0.099789 
0.10458 0.079094 0.033715 -0.042244 0.058542 0.058049 0.099974 -0.063289 
0.07038 0.020891 0.03092 0.0024767 0.016945 0.010533 0.12727 -0.006566 
-0.0138 0.0095465 0.017767 -0.0032777 -0.094199 -0.058356 0.17511 -0.053753 
-0.088937 0.0021479 0.029112 -0.01939 -0.094527 0.0013258 0.32933 -0.13645 
-0.11097 0.022371 -0.0044286 -0.031392 -0.1016 0.023028 0.34216 -0.013143 
-0.13793 -0.017253 0.0014903 -0.00081153 -0.16736 -0.13053 -0.061645 0.11181 
-0.060987 0.018918 0.026646 -0.026296 -0.15914 -0.23675 -0.54223 0.11543 
0.00017495 0.059693 0.12069 0.024673 0.015465 -0.08384 -0.31731 0.1128 
0.095535 0.098166 0.071202 0.074983 0.18333 0.077449 0.11033 0.16722 
0.091918 0.11395 0.056733 0.10556 0.19895 0.10211 0.25058 0.14585 
0.11378 0.07301 0.03536 0.051965 0.15933 0.097344 0.06742 0.015959 
0.10902 0.070215 0.066598 0.069064 0.25584 0.14749 -0.039778 -0.1011 
0.084684 0.048513 0.043909 0.095042 0.31519 0.15538 -0.012485 -0.063124 
0.044731 0.048019 0.045882 0.12644 0.19254 0.12233 0.08567 0.029605 
0.033715 0.049828 0.049664 0.052459 -0.029584 0.054103 0.15703 0.042429 
0.018589 0.081724 0.065776 -0.011663 -0.12577 0.054432 0.17347 0.096193 
0.044073 0.11658 0.080244 -0.0075525 -0.095021 0.099481 0.14683 0.093726 
0.071695 0.094877 0.041772 0.027303 -0.025802 0.061172 0.068078 0.0085601 
0.050486 0.076792 0.024673 0.0011614 -0.031064 0.042594 0.046211 -0.05178 
0.020562 0.05065 0.0079024 -0.022679 -0.061151 0.026974 0.048184 -0.11524 
-0.052931 0.016123 0.0324 -0.0062372 -0.0868 0.00099702 -0.0067304 -0.15059 
-0.075455 -0.0098543 -0.0078813 -0.013636 -0.10686 -0.0062372 0.0095465 -0.0027845 
-0.039284 -0.021363 -0.023829 -0.041257 -0.13662 -0.086307 -0.078579 0.16903 
-0.04882 -0.029748 -0.031228 -0.080881 -0.17098 -0.19926 -0.33013 0.1197 
-0.021199 -0.062302 0.013986 -0.036983 -0.1575 -0.14139 -0.27177 -0.055068 
0.030756 0.0064227 0.041607 0.010862 -0.029913 -0.006566 -0.026131 -0.11409 
0.06594 0.092411 0.097015 0.095206 0.078107 0.095371 0.17182 -0.12281 
0.12464 0.15785 0.090931 0.097508 0.10984 0.14009 0.31733 -0.088773 
0.15045 0.15061 0.074326 0.095042 0.087479 0.13319 0.34331 0.013986 
0.092904 0.060844 -0.021692 0.043416 0.13697 0.11313 0.2029 0.026152 
-0.027611 -0.006566 -0.058028 0.03947 0.22345 0.1368 0.12233 -0.10308 
-0.062302 -0.0016336 -0.00015387 0.069886 0.28889 0.16722 0.3678 0.21046 
0.04358 0.028619 0.049006 0.1197 0.2468 0.12546 0.54077 0.78164 
0.1179 0.072024 0.070544 0.072024 0.1636 0.061008 0.0036276 0.7088 
0.13187 0.11346 0.043416 0.015137 -0.014458 -0.060494 -0.66866 0.073668 
0.1026 0.10556 0.066598 -0.038627 -0.1672 -0.22655 -0.94915 -0.33013 
0.062981 0.082382 0.062323 -0.047012 -0.28262 -0.28623 -0.6514 -0.37173 
0.051801 0.043745 0.017767 -0.095185 -0.30744 -0.23313 -0.12363 -0.17443 
0.028783 -0.025802 -0.067564 -0.08532 -0.25763 -0.16325 0.20997 0.024015 
0.029112 -0.033694 -0.031557 -0.030077 -0.17525 -0.011827 0.32687 0.085177 
-0.001798 0.056569 0.034702 0.0031344 -0.056383 0.16442 0.35202 0.076792 
-0.0032777 0.082217 0.096028 0.051143 0.06594 0.23282 0.32111 0.0088889 
-0.0083746 0.12562 0.055254 0.13056 0.20092 0.24022 0.25255 -0.004593 
0.057884 0.11609 0.071037 0.18794 0.34725 0.31125 0.22772 0.083697 
0.071366 0.089287 0.055254 0.16969 0.46843 0.30007 0.19501 0.21276 
0.055254 -0.0021268 0.032071 0.13516 0.43505 0.20109 0.077614 0.23364 
0.005765 -0.06148 -0.031228 0.089287 0.29497 0.075148 -0.083512 0.10721 
-0.033365 -0.060658 -0.029255 0.027303 0.011026 -0.082525 -0.22968 -0.071674 
-0.075127 -0.071509 -0.025967 -0.060823 -0.23132 -0.19252 -0.21586 -0.17904 
-0.1182 -0.046683 0.026317 -0.084169 -0.30892 -0.17756 -0.10012 -0.13053 
-0.084498 0.028619 0.034537 -0.11886 -0.31205 -0.16555 0.020233 0.0083956 
0.051801 0.083862 -0.0049219 -0.10653 -0.4033 -0.1552 0.077943 0.14749 
0.15292 0.10672 -0.012485 -0.11574 -0.35874 -0.13678 0.045224 0.19073 
0.15653 0.0421 -0.017746 -0.058521 -0.26996 -0.10373 -0.0014692 0.1641 
0.07301 0.012835 0.024508 0.029112 -0.063946 -0.062631 -0.042408 0.051308 
-0.02087 0.0592 0.042923 0.15916 0.21983 0.042429 -0.063946 -0.004593 
-0.061973 0.09685 0.066434 0.22739 0.4556 0.13927 -0.024158 -0.0044286 
-0.017417 0.087314 0.052294 0.30187 0.67789 0.22739 0.078436 0.066763 
0.08156 0.059693 0.10754 0.38145 0.97499 0.36156 0.17396 0.055089 
0.10507 0.0592 0.099152 0.33328 0.94901 0.43669 0.24992 -0.0078813 
0.076956 0.044238 0.071037 0.14913 0.46843 0.3119 0.22855 -0.10258 
0.015794 0.049006 0.039963 -0.049149 -0.10357 0.093726 0.069886 -0.059672 
0.0087245 0.047033 0.041114 -0.10406 -0.37847 -0.10587 -0.11656 0.030263 
0.0074092 0.019083 0.0036276 -0.13333 -0.4513 -0.12807 -0.015609 0.057062 
0.029769 0.027632 0.0079024 -0.11442 -0.37107 -0.13875 0.040785 0.084355 
0.062488 0.067256 0.010204 -0.083183 -0.2813 -0.13448 -0.048327 0.14601 
0.088465 0.067749 0.037004 -0.027775 -0.1667 -0.087951 -0.034845 0.14864 
0.0087245 -0.0034422 0.01826 -0.020706 -0.074469 -0.068221 -0.031228 0.099645 
-0.068386 -0.071016 -0.006566 0.0069159 -0.02794 -0.084498 -0.14993 -0.0138 
-0.11327 -0.079401 -0.013307 0.023686 0.0023123 -0.077593 -0.13974 -0.16753 
-0.089266 -0.0016336 0.0067515 0.062323 0.044073 -0.0070593 -0.067728 -0.31057 
-0.0098543 0.061172 0.050321 0.054267 0.072353 0.037168 0.035031 -0.26009 
0.098166 0.090603 0.047033 0.078107 0.11165 0.14601 0.28872 0.038648 
0.13483 0.089616 0.043416 0.06742 0.13762 0.23118 0.39987 0.16541 
0.1174 0.078272 0.045389 0.047362 0.067585 0.2024 0.33246 0.17692 
0.081724 0.079916 0.068078 0.02122 0.017274 0.14354 0.16804 0.075312 
0.058213 0.079587 0.060844 0.027468 0.0087245 0.028783 -0.133 -0.012649 
0.04095 0.061008 0.049992 0.053116 0.0072447 -0.031886 -0.2864 -0.059178 
-0.0032777 0.031907 0.030592 -0.0047575 -0.057863 -0.085156 -0.29248 -0.063289 
-0.0014692 0.032893 0.029605 -0.020048 -0.051287 -0.27571 -0.48583 -0.095514 
-0.023501 0.057227 0.0046141 -0.0082102 -0.0091966 -0.27999 -0.37255 -0.023172 
-0.029584 0.024344 0.0018191 0.031907 0.0592 -0.091404 0.14963 0.10293 
0.04654 0.049006 0.029934 0.038812 0.17906 0.12546 0.47287 0.20421 
0.064461 0.071366 0.080573 0.053774 0.17297 0.17396 0.39345 0.1442 
0.072681 0.092247 0.049664 0.053445 0.053445 0.12875 0.16821 0.071695 
0.077449 0.096028 0.048019 0.10885 -0.012485 0.16673 0.08419 0.010697 
0.076134 0.087314 0.051472 0.037168 -0.023172 0.23183 0.25387 0.11905 
0.084026 0.079751 0.045553 -0.029255 0.0011614 0.22213 0.42042 0.1687 
0.060844 0.1077 0.094055 -0.017088 0.12661 0.12069 0.19566 0.1008 
0.045718 0.14321 0.10589 0.082053 0.36534 -0.026624 -0.22672 -0.078415 
0.043416 0.10589 0.065776 0.11576 0.43965 -0.14846 -0.49586 -0.13316 
0.034702 0.037004 0.039634 0.091425 0.27425 -0.17082 -0.43618 -0.052766 
-0.03353 -0.05885 0.0092177 0.035524 0.040621 -0.047341 -0.010019 0.022371 
-0.086471 -0.13448 -0.082854 -0.060494 -0.27653 0.00099702 0.12628 0.0023123 
-0.059014 -0.17164 -0.096172 -0.15552 -0.47926 -0.12412 -0.047012 -0.027282 
-0.028597 -0.12478 -0.074962 -0.12675 -0.42368 -0.1667 -0.0503 -0.017088 
0.057062 -0.0049219 0.037004 -0.017253 -0.26733 -0.058356 0.12414 0.026152 
0.077449 0.09981 0.055747 0.018918 -0.10061 0.0064227 0.20602 0.062159 
0.085999 0.147 0.061666 0.011355 -0.016924 0.011848 0.13401 0.15111 
0.092247 0.11395 0.05624 0.013328 0.024344 0.0011614 0.037332 0.20125 
0.080902 0.07038 0.081889 0.051965 0.0095465 0.03799 0.018754 0.20273 
0.07301 0.068078 0.045224 0.041607 0.013821 0.033715 -0.0138 0.070051 
0.060186 0.088465 0.039141 0.047197 0.024508 0.026646 -0.032543 -0.0095255 
0.052623 0.12414 0.053938 0.029441 0.057555 0.01004 -0.06148 -0.043395 
0.051801 0.098659 0.057062 0.04506 0.074819 0.029112 -0.058356 0.0031344 
0.046868 0.068242 0.047855 0.015301 0.012835 0.062488 -0.021199 0.032893 
0.057062 0.049992 0.0046141 -0.021528 0.016945 0.043909 0.069064 0.022535 
0.048184 0.024508 0.010697 0.013164 0.09126 0.074654 0.28987 0.0044497 
0.024015 0.014315 0.036839 0.01004 0.13269 0.10228 0.37619 -0.026624 
0.00050378 -0.011498 0.02533 -0.023007 0.0054362 -0.035338 0.26143 -0.035503 
-0.0073881 -0.0070593 -0.021856 -0.061809 -0.16901 -0.12248 -0.0016336 -0.010019 
0.0067515 -0.014129 -0.017253 0.011684 -0.15421 -0.19318 -0.3908 -0.014787 
0.0056006 0.02829 0.0092177 0.11707 0.12168 -0.06855 -0.36844 -0.057205 
0.04095 0.086163 0.077943 0.20208 0.36024 0.159 -0.065426 -0.018239 
0.032236 0.11625 0.057062 0.19484 0.34561 0.24581 0.025824 0.082382 
0.038319 0.06035 0.059857 0.15653 0.30286 0.27623 0.018589 0.19237 
0.039963 0.017438 0.050814 0.10145 0.30204 0.22707 0.12151 0.20832 
0.036839 -0.0022913 0.039141 0.026974 0.17692 0.13516 0.28691 0.12644 
0.010533 -0.020541 -0.0098543 -0.052273 -0.047341 -0.013307 0.29694 -0.096007 
-0.019555 -0.051122 -0.054246 -0.099953 -0.27489 -0.077757 0.19237 -0.19811 
0.0069159 -0.043559 -0.054246 -0.1381 -0.28788 -0.093048 0.061172 -0.13037 
0.05772 0.01826 0.027303 -0.090581 -0.24645 -0.15289 0.0039565 0.054432 
0.013821 0.032729 0.0082312 -0.031557 -0.14533 -0.11853 0.01004 0.17922 
-0.062631 0.017767 0.079258 0.014643 -0.01117 -0.013143 0.11806 0.20651 
-0.021363 0.065118 0.055418 0.080244 0.08863 0.046704 -0.017253 0.1613 
0.057884 0.09126 0.071695 0.053281 0.049664 0.018918 -0.14155 0.026317 
0.11231 0.10704 0.076134 0.083697 0.011026 -0.0022913 -0.17246 -0.12626 
0.11115 0.11247 0.038483 0.0421 -0.023994 -0.0070593 -0.061645 -0.1473 
0.010862 0.078272 0.027961 0.014315 -0.073154 -0.018404 0.029441 -0.12034 
-0.051944 0.053445 0.036839 -0.035174 -0.13875 -0.012485 0.063968 -0.063453 
-0.080223 -0.0039354 0.045718 -0.0080457 -0.094856 0.025495 0.057062 -0.00031829 
-0.044546 0.020069 -0.01232 -0.034188 -0.055068 0.040128 0.082382 0.13253 
0.0054362 0.06742 -0.022843 -0.043559 -0.036654 0.048184 0.089287 0.17034 
0.031085 0.033222 -0.016595 0.021713 0.1419 0.11362 0.081395 0.10688 
0.028947 0.0085601 0.047033 0.1368 0.4048 0.16574 0.028783 0.00050378 
0.025824 0.025824 0.059035 0.1442 0.45757 0.20355 -0.0026201 -0.065262 
0.055582 0.073832 0.059693 0.11707 0.3022 0.1641 0.0088889 -0.077922 
0.093891 0.074654 0.045718 0.07449 0.12266 0.10655 0.03536 -0.034188 
0.11526 0.059035 0.066269 0.088958 0.14124 0.10441 0.14124 0.047691 
0.086492 0.018589 0.01974 0.052952 0.081395 0.063639 0.19106 0.15999 
0.042429 -0.00031829 0.037661 0.0090533 -0.0406 0.015465 0.19435 0.26077 
-0.014129 0.071037 0.044238 -0.017417 -0.14681 -0.087786 0.10145 0.23874 
-0.048656 0.089287 0.059035 -0.052273 -0.25417 -0.19301 -0.13053 -0.034188 
-0.085813 0.022864 -0.0029489 -0.085485 -0.28295 -0.21406 -0.15355 -0.31468 
-0.10768 0.038319 0.0039565 -0.1011 -0.2203 -0.11952 -0.16227 -0.45278 
-0.064275 0.041772 0.004943 -0.053095 -0.19975 -0.1108 -0.2351 -0.26404 
0.035688 0.08863 0.044402 -0.020377 -0.15947 -0.099789 -0.21438 0.021713 
0.13762 0.11543 0.062652 0.052787 -0.0034422 0.041772 -0.028926 0.25436 
0.20635 0.076627 0.037004 0.11428 0.18317 0.15193 0.18514 0.43341 
0.19632 0.018754 0.033222 0.2149 0.38523 0.22739 0.24844 0.45445 
0.13384 0.029934 0.041936 0.23134 0.46366 0.24071 0.18859 0.25633 
0.093562 0.033387 0.084519 0.24038 0.50328 0.25288 0.13598 0.075312 
0.054925 0.00297 0.03799 0.14206 0.30171 0.12217 0.037661 -0.064604 
-0.017911 -0.0047575 0.015137 -0.016266 -0.0054151 -0.017582 -0.089266 -0.16818 
-0.045696 0.0036276 0.012177 -0.13612 -0.24168 -0.097158 -0.083347 -0.18117 
-0.046519 0.070544 0.013164 -0.16029 -0.32783 -0.12083 0.023028 -0.12001 
-0.020377 0.024344 0.0018191 -0.11672 -0.33474 -0.080552 0.183 -0.041093 
-0.046354 0.0051074 -0.0070593 -0.096172 -0.31024 -0.1159 0.28527 0.05065 
-0.060987 0.03092 0.038319 -0.032872 -0.12692 -0.064275 0.20569 0.06331 
-0.017911 0.088958 0.093069 0.094713 0.24696 0.080902 0.029276 0.055911 
0.02533 0.11346 0.07301 0.22526 0.44393 0.11263 -0.12346 0.06183 
0.0037921 0.10408 0.027961 0.14585 0.29053 0.0689 -0.22524 0.060515 
-0.0075525 0.014315 0.013986 0.045224 0.064625 0.030098 -0.23724 0.015959 
0.00017495 0.019411 0.025824 0.052294 0.17824 0.093726 -0.17673 -0.073154 
0.12661 0.083697 0.04917 0.17939 0.35909 0.16755 -0.05589 0.039634 
0.10524 0.097344 0.051636 0.18021 0.34676 0.12891 0.0079024 0.17067 
0.067913 0.047855 0.050979 0.09422 0.09274 0.049992 0.15292 0.16558 
0.050486 0.025824 0.040621 -0.017417 -0.19285 -0.012156 0.17988 0.048184 
0.068736 0.065776 0.057227 -0.057534 -0.30777 -0.024487 0.10787 0.023028 
0.1031 0.10721 0.053445 -0.07266 -0.24776 -0.022843 0.14157 0.01004 
0.11674 0.14749 0.061008 -0.038298 -0.17986 -0.035338 0.033387 -0.044052 
0.10589 0.14124 0.039634 -0.020706 -0.10538 -0.043559 0.12299 -0.11541 
0.083862 0.085012 0.023522 -0.0070593 0.0037921 0.0087245 0.39132 0.0093821 
0.060186 0.029934 -0.031228 0.020398 0.13171 0.053445 0.56527 0.16015 
-0.00031829 -0.071345 -0.034681 0.019411 0.13072 0.030098 0.2805 0.28494 
-0.094856 -0.16638 -0.0098543 0.071695 0.090274 -0.079895 -0.48221 0.097015 
-0.13777 -0.15289 0.059693 0.095371 0.063968 -0.13448 -0.8819 -0.012649 
-0.071509 -0.052109 0.057391 0.08419 -0.02087 -0.081539 -0.65156 -0.05326 
0.019247 -0.00081153 0.028947 0.027632 -0.12166 -0.060165 -0.2864 -0.06707 
0.12414 0.12447 0.028947 0.029276 -0.023829 0.038812 0.069064 -0.081703 
0.15094 0.13483 0.07301 0.071202 0.13598 0.13286 0.36616 -0.016595 
0.13056 0.11444 0.064132 0.11576 0.22312 0.11954 0.39214 0.063474 
0.090274 0.092082 0.048348 0.10145 0.19517 0.02829 0.26537 0.10096 
0.046704 0.072681 0.029934 0.070051 0.078436 0.018589 0.086492 0.018425 
0.034537 0.041114 0.026974 -0.018239 -0.018075 0.03536 0.024673 -0.01939 
0.020069 0.014479 0.021384 -0.048492 -0.044217 0.038155 0.031907 -0.042573 
0.019083 0.040292 -0.0014692 -0.011498 -0.021199 0.12825 0.17265 0.040785 
0.046704 0.029441 -0.0096899 -0.045861 -0.10127 0.1174 0.13943 0.059528 
0.021549 0.033551 0.0072447 -0.059014 -0.090417 0.031249 -0.12396 -0.00081153 
0.00066819 0.049335 0.0421 -0.012649 -0.028269 0.019247 -0.17098 -0.052931 
-0.010676 0.0046141 0.030263 0.069558 0.022371 0.007738 -0.035174 0.039305 
-0.034188 0.0011614 0.03947 0.08863 0.088958 0.037004 0.049499 0.093398 
0.016781 0.014643 0.046046 0.09422 0.13302 0.03947 0.018096 0.0037921 
-0.025967 0.037497 0.043909 0.02533 0.06594 -0.041915 -0.13201 -0.1843 
-0.041422 0.034373 0.015137 0.03947 0.12677 -0.042079 -0.078908 -0.14188 
0.014808 0.037004 0.021713 0.040292 0.083533 -0.028762 0.13565 0.11691 
0.09126 0.017932 0.035031 0.0036276 -0.024652 -0.024323 0.13368 0.26702 
0.096686 0.045718 0.041114 -0.04471 -0.064111 -0.065426 0.035031 0.22608 
0.05624 0.045389 0.0018191 0.00033937 -0.045696 -0.032872 0.0016547 0.17741 
0.036182 0.053281 -0.0067304 -0.02942 -0.068386 0.00083261 0.07597 0.11296 
0.058871 0.091753 0.035524 0.011191 -0.016266 0.019411 0.10195 0.035853 
0.11477 0.09981 0.084355 0.085177 0.073832 0.055582 0.071695 -0.031228 
0.11033 0.099316 0.11773 0.11806 0.11888 0.0080668 0.025659 -0.14106 
-0.0031133 0.043909 0.063474 0.019083 0.011026 0.036675 0.036017 -0.048492 
-0.078908 -0.016266 0.019083 -0.027775 -0.11689 0.00017495 0.062159 0.044073 
-0.037311 -0.010676 0.012506 -0.034681 -0.19975 -0.014293 0.03651 0.049828 
0.0064227 -0.0138 0.016616 -0.013143 -0.22557 -0.066248 0.0011614 -0.063453 
-0.017253 0.0046141 -0.024816 -0.040764 -0.18298 -0.06444 -0.095349 -0.074962 
-0.018733 0.00017495 -0.053095 -0.018075 -0.064933 -0.0064016 -0.057534 -0.076277 
-0.0078813 -0.0024557 -0.027447 -0.0054151 0.028947 0.033387 0.033551 -0.0049219 
0.055254 0.064625 0.02829 -0.021528 0.088136 0.051308 0.13039 0.024344 
0.073832 0.13253 0.03947 0.00297 0.19287 0.10441 0.19566 0.080244 
0.10277 0.21227 0.093069 0.11461 0.37422 0.13664 0.11872 0.053116 
0.10211 0.20273 0.10918 0.1853 0.3392 0.087479 -0.026624 0.08863 
0.058213 0.14223 0.11165 0.10967 0.20405 0.042429 -0.060823 0.049499 
-0.021363 0.079751 0.039141 0.045553 0.079916 0.0786 0.097015 0.10096 
-0.019719 -0.010841 -0.0059084 -0.0067304 -0.040928 0.048677 0.18629 0.045718 
0.02122 -0.023501 -0.021856 -0.021199 -0.086307 -0.03764 0.12316 0.057227 
-0.0031133 -0.099789 -0.013636 -0.018404 -0.039284 -0.038791 0.049499 0.081724 
0.01152 -0.0965 -0.018239 -0.013143 0.017767 0.03092 0.025659 0.13615 
0.01152 -0.068879 0.010862 0.035688 -0.038298 0.098166 0.0059294 0.03651 
0.041772 0.022535 0.056569 0.026481 -0.072989 0.11707 0.075148 -0.024652 
0.073339 0.10622 0.0689 -0.0087034 -0.13777 0.030592 0.15012 -0.0078813 
0.088465 0.10836 0.065447 -0.041751 -0.15109 -0.069043 0.17758 0.022042 
0.090438 0.098988 0.037168 -0.012485 -0.1741 -0.12067 0.024015 -0.042408 
0.043909 0.091096 0.02681 -0.030077 -0.11886 -0.15109 -0.065919 -0.050793 
-0.036818 0.11494 0.031742 0.0026412 0.013986 -0.1039 -0.09091 -0.052273 
-0.056219 0.099481 0.063968 0.063803 0.18037 -0.031392 -0.11903 0.0041209 
-0.045861 0.061501 0.054267 0.075805 0.15308 0.047362 -0.11804 0.059035 
-0.026624 0.051965 0.038483 0.054925 0.17232 0.083533 -0.16884 0.15061 
0.06331 0.051965 0.038319 0.038812 0.1294 0.10639 -0.1473 0.22033 
0.10277 0.071695 0.041607 -0.0088678 0.040456 0.076956 0.007738 0.18596 
0.10589 0.042923 0.017274 0.017932 -0.082196 -0.026131 0.17939 0.0023123 
0.065776 0.016288 -0.018733 0.027961 0.024837 0.015959 0.4071 -0.14796 
0.054267 0.022206 0.0031344 0.11954 0.19237 0.14453 0.57612 -0.1455 
0.034044 0.03536 0.041278 0.18136 0.26406 0.18646 0.43932 0.0083956 
-0.037969 0.040456 0.066269 0.12233 0.12085 0.10935 0.14469 0.096521 
-0.028762 0.042429 0.049006 0.0056006 0.026317 -0.0091966 -0.18446 0.13746 
0.074161 0.11099 0.076956 -0.0055795 0.0032988 -0.031557 -0.31353 0.081395 
0.10902 0.099645 0.071531 0.0087245 -0.014293 -0.021692 -0.26535 -0.020048 
0.079587 0.084519 0.038155 -0.033365 -0.15026 -0.03764 -0.29002 -0.11919 
0.022206 0.02122 -0.062796 -0.052273 -0.16424 -0.090088 -0.32257 -0.15158 
-0.051451 -0.041257 -0.036983 -0.0031133 -0.065755 -0.065426 -0.13382 -0.05441 
-0.084498 -0.065919 -0.0029489 0.13516 0.045718 0.010204 0.076134 0.033222 
-0.064604 -0.026296 0.062817 0.13647 0.1391 0.032893 0.1179 0.08008 
-0.019226 0.0093821 0.020891 0.0592 0.06183 0.025659 0.11954 0.062323 
0.012506 -0.045532 -0.0078813 -0.040435 -0.093048 0.016781 0.073832 0.017767 
0.045718 -0.034516 0.0090533 -0.043888 -0.13974 -0.0049219 0.08304 0.051636 
0.078107 0.017603 0.06035 -0.046354 -0.121 0.018754 0.061666 0.058213 
0.08008 0.040785 0.046211 -0.0068948 -0.056712 0.017438 0.013164 0.019905 
0.073339 0.08567 0.037004 -0.00081153 0.0037921 -0.0039354 -0.0406 -0.020212 
0.056898 0.086328 0.025166 0.075805 0.11839 0.0098754 -0.032215 -0.055232 
0.026152 0.11148 0.077614 0.18481 0.40529 0.10326 0.043745 -0.022843 
0.012177 0.13434 0.072846 0.24926 0.49292 0.14634 0.089123 0.054103 
0.019905 0.11526 0.027303 0.16607 0.29744 0.093562 0.075312 0.11198 
0.075641 0.040456 -0.029913 0.035195 0.050321 0.010697 0.025824 0.11691 
0.090603 -0.006566 -0.014787 -0.048327 -0.076606 0.0098754 -0.026131 0.10967 
0.035031 -0.01939 -0.0004827 -0.1085 -0.20353 -0.006566 -0.051451 0.049006 
-0.0029489 0.016123 0.023357 -0.06444 -0.21998 -0.016431 -0.044217 0.029605 
0.02122 0.085012 0.066434 -0.059178 -0.15405 0.0037921 -0.034352 0.00033937 
0.054596 0.098494 0.08008 0.027632 -0.0052507 0.0592 0.020233 -0.014129 
0.086492 0.11115 0.13138 0.10819 0.21408 0.14371 0.053116 -0.030406 
0.055418 0.08863 0.089945 0.22641 0.40019 0.21128 0.096686 -0.02942 
0.044567 0.05476 0.049499 0.17955 0.33805 0.17544 0.091589 -0.010183 
0.028125 0.0013258 0.013821 0.083204 0.1225 0.070708 0.047855 0.025495 
-0.0057439 -0.036325 -0.0034422 -0.0070593 -0.066906 -0.017911 -0.00081153 0.046046 
-0.041751 -0.022021 -0.046025 -0.029748 -0.13415 -0.069701 -0.074469 0.052952 
-0.043395 0.0021479 -0.0080457 -0.050629 -0.17509 -0.091239 -0.067235 0.035031 
-0.051287 0.01563 0.0065871 -0.058521 -0.22425 -0.10982 -0.003771 0.0046141 
-0.075949 0.0023123 0.035524 -0.045861 -0.22688 -0.096829 0.0056006 -0.017582 
-0.032543 -0.0059084 0.016616 0.012506 -0.14352 -0.033201 0.032893 0.0324 
0.020069 -0.015773 0.013821 -0.020377 0.0042853 0.019576 0.015794 0.082382 
0.036839 -0.017582 0.034044 0.01415 0.19024 0.13878 0.053281 0.12053 
0.081231 0.070544 0.062817 0.067913 0.2537 0.16969 0.063968 0.10277 
0.10688 0.089452 0.040621 0.097179 0.26948 0.20076 0.010369 0.10721 
0.13927 0.074326 0.032564 0.1151 0.34446 0.19139 -0.030406 0.082217 
0.13187 0.050486 0.057391 0.13319 0.28214 0.088958 -0.058685 0.055582 
0.074161 0.046375 0.056569 0.11543 0.098659 0.053774 0.097344 0.050321 
0.009711 0.054267 0.042923 0.031414 -0.071838 0.057555 0.35301 0.05213 
-0.041422 0.02681 0.01152 0.0054362 -0.089266 0.058871 0.45215 -0.019884 
-0.06707 0.038155 0.020398 -0.014622 -0.039449 0.039799 0.37027 -0.05441 
-0.031557 0.083862 0.036182 -0.031392 -0.1016 -0.02794 0.29892 -0.13744 
0.041936 0.11099 0.065612 -0.10439 -0.27949 -0.06296 0.25715 -0.10094 
0.084684 0.17807 0.009711 -0.1427 -0.32964 -0.094856 0.020069 -0.0021268 
0.079587 0.085012 0.022535 -0.073318 -0.24562 -0.1113 -0.30679 -0.023336 
0.033551 0.072353 0.0227 -0.024158 -0.16309 -0.084169 -0.47334 -0.014293 
0.049335 0.026974 0.015794 -0.077922 -0.12281 -0.15766 -0.66159 0.13943 
-0.031886 -0.044381 -0.096172 -0.10308 -0.1279 -0.20781 -0.59467 0.19813 
-0.1039 -0.081374 -0.059507 0.027632 0.12266 -0.052437 -0.14566 0.1544 
-0.055397 -0.015609 0.0592 0.27047 0.61492 0.24269 0.25436 0.12332 
0.085506 0.073997 0.15966 0.38688 0.94572 0.41696 0.39099 0.183 
0.16492 0.11691 0.13335 0.3466 0.82257 0.36205 0.33048 0.16278 
0.15834 0.1368 0.059528 0.17248 0.20914 0.15867 0.20816 0.012342 
0.097508 0.1003 0.0067515 -0.050793 -0.26765 -0.041915 0.083204 -0.083183 
0.051636 0.082053 0.018754 -0.14369 -0.33243 -0.093212 0.050979 -0.13185 
0.080244 0.10408 0.020727 -0.12938 -0.2813 -0.14106 0.07449 -0.075784 
0.099645 0.073832 0.0082312 -0.12182 -0.39129 -0.16687 0.19649 0.046868 
0.076463 0.07301 -0.0075525 -0.15026 -0.40478 -0.12198 0.27261 0.10047 
0.034209 0.013986 0.019576 -0.13037 -0.30547 -0.075291 0.19254 0.041936 
0.010369 -0.055726 0.0227 -0.054082 -0.19137 -0.072003 0.039963 0.085177 
-0.018897 -0.065426 0.020727 0.0028056 -0.03912 -0.095185 -0.15388 0.050157 
-0.039942 0.02533 0.033715 0.045224 0.045553 -0.11015 -0.20978 0.01826 
-0.0070593 0.086821 0.030427 0.063639 0.12365 -0.05326 -0.11804 0.08978 
0.010862 0.092411 0.061172 0.11099 0.27162 0.074983 -0.055068 0.14486 
0.03092 0.057391 0.038483 0.13664 0.37553 0.1784 -0.039942 0.014808 
0.015794 0.03092 -0.0075525 0.097837 0.36797 0.19632 -0.051615 -0.059178 
0.026481 0.050321 0.023193 0.056898 0.1927 0.1613 0.037661 -0.062302 
0.0421 0.047197 0.055582 0.040456 -0.038956 0.075148 0.064296 -0.0054151 
0.075805 0.025001 0.011848 -0.0014692 -0.092061 -0.066741 -0.094692 -0.0062372 
0.12217 0.05772 -0.0019624 0.081395 0.096193 -0.11574 -0.24908 -0.032872 
0.077943 0.032564 0.024015 0.15144 0.232 0.0028056 -0.060165 -0.089431 
0.034866 0.031249 0.050486 0.14831 0.17429 0.097179 0.17018 -0.073976 
-0.032872 0.0062583 0.0037921 0.036346 0.037168 0.08978 0.21638 -0.094692 
-0.13695 -0.022679 -0.0087034 -0.048985 -0.10242 -0.041586 0.035688 -0.0965 
-0.1986 -0.013965 -0.017582 -0.10686 -0.19794 -0.19466 -0.036983 0.041278 
-0.053095 0.02829 0.035195 -0.094527 -0.21882 -0.23099 -0.027118 0.27212 
0.13253 0.086657 0.045882 -0.063782 -0.089266 -0.093212 0.10376 0.40447 
0.24745 0.097344 0.052952 0.009711 0.056404 0.067913 0.20372 0.40134 
0.24811 0.12233 0.087972 0.13253 0.19616 0.13713 0.1567 0.25798 
0.21621 0.11362 0.10458 0.12628 0.08978 0.11494 0.06035 0.068078 
0.091918 0.11099 0.058706 0.016452 -0.11245 0.013164 -0.10752 -0.24973 
0.0056006 0.069558 -0.0024557 -0.056055 -0.18101 -0.06444 -0.29906 -0.60848 
-0.10357 -0.020048 -0.045368 -0.0078813 -0.045368 -0.040435 -0.14993 -0.46857 
-0.096665 -0.053917 -0.028926 0.085999 0.20372 0.094877 0.20783 0.055582 
-0.091568 -0.014293 0.0024767 0.15604 0.35449 0.16903 0.22855 0.33229 
-0.099624 -0.004593 0.023851 0.079587 0.19632 0.12694 0.086657 0.30335 
0.031085 -0.0032777 0.031085 0.077778 0.033058 0.054925 -0.045696 0.19977 
0.086821 -0.006566 0.022206 0.040456 -0.010348 0.034209 -0.009361 0.07301 
0.05476 0.022042 0.067091 0.090603 0.062323 0.054925 0.036839 -0.01232 
0.033715 0.016452 0.087479 0.041443 0.088301 0.023028 0.075805 -0.090088 
0.021878 0.082711 0.095371 0.05624 0.0032988 -0.019719 0.056733 -0.082525 
0.042265 0.10458 0.095699 0.017603 -0.18232 -0.024323 0.064461 -0.036983 
0.08304 0.11987 0.08978 -0.057534 -0.23296 -0.031228 0.041443 -0.021528 
0.066763 0.071037 0.0037921 -0.083347 -0.21208 -0.030406 0.04506 0.016945 
-0.014293 0.013986 -0.0075525 -0.084991 -0.14287 -0.042079 0.067091 0.085177 
-0.060658 0.027961 -0.0070593 -0.077428 -0.10094 -0.024158 0.11559 0.12201 
-0.042244 0.038319 0.026974 -0.024323 0.020398 0.077449 0.12661 0.040128 
0.0014903 0.051636 0.03536 0.094548 0.23726 0.20849 0.11477 0.011026 
0.048348 0.075476 0.059364 0.14256 0.41992 0.26242 0.00083261 -0.001798 
0.080573 0.11329 0.076299 0.19517 0.45133 0.19566 -0.099789 0.0093821 
0.071859 0.10507 0.070873 0.17412 0.29678 0.10474 -0.10669 -0.030242 
0.03092 0.051472 0.062323 0.085835 0.08567 0.046046 -0.03353 -0.040764 
-0.069208 -0.0040998 -0.010676 -0.039284 -0.11919 -0.021034 0.0421 -0.020706 
-0.12264 -0.035174 -0.035174 -0.11179 -0.23921 -0.091568 0.059857 0.0062583 
-0.096994 0.011848 -0.0031133 -0.1062 -0.22211 -0.11146 0.025659 0.066269 
0.023028 0.061337 0.065447 -0.012649 -0.14895 -0.096172 0.016452 0.047691 
0.10935 0.099152 0.031907 0.0024767 -0.04619 -0.016924 0.080573 0.075641 
0.16245 0.072517 0.059035 0.023357 -0.017746 0.039141 0.084848 0.034537 
0.17626 0.062652 0.051965 0.041278 0.012835 0.044238 0.034866 0.00066819 
0.17149 0.086657 0.058542 0.047362 0.028454 0.048184 -0.0036066 -0.029913 
0.097672 0.0592 0.024344 0.02533 0.029605 0.042923 0.015301 -0.013965 
-0.042244 0.031907 0.034537 0.027303 0.0026412 0.019576 0.028783 -0.025638 
-0.16029 0.0067515 0.048019 0.011848 -0.052273 -0.017253 0.015959 0.0037921 
