-0.059836 0.0051074 0.089287 0.013164 -0.018897 0.022371 0.053281 0.053774 
-0.072989 0.034373 0.11033 0.036839 -0.01117 0.016288 0.015137 0.10721 
-0.020048 0.049006 0.10277 0.07301 -0.0068948 0.032071 0.018096 0.23989 
0.029605 0.039141 0.11066 0.023686 0.011684 0.020727 0.023357 0.27425 
0.12118 0.09422 0.13187 0.043251 0.0085601 0.025001 0.093726 0.29382 
0.24104 0.14897 0.1248 0.060679 0.022042 0.038483 0.10507 0.18333 
0.33081 0.15916 0.12513 0.083533 0.015301 0.038648 0.079587 -0.032379 
0.32867 0.089616 0.12529 0.027632 -0.012814 0.0034632 0.024344 -0.3155 
0.19451 0.095535 0.16212 0.044402 -0.0059084 0.0023123 -0.029748 -0.51362 
-0.0026201 0.077121 0.15061 0.05624 -0.018404 -0.049149 -0.11903 -0.52891 
-0.13892 0.033715 0.077121 0.031249 -0.0077169 -0.10242 -0.15914 -0.3589 
-0.20304 0.018918 0.064132 0.079587 0.073668 -0.055068 -0.094856 0.092411 
-0.17706 0.017932 0.083533 0.13713 0.17462 0.048019 0.014479 0.46875 
-0.1039 0.051143 0.11855 0.1562 0.15982 0.10195 0.095699 0.62413 
-0.039284 0.038977 0.12414 0.080244 0.11329 0.10162 0.11609 0.37405 
-0.053588 0.030427 0.12184 0.068407 0.097015 0.1054 0.078107 0.12266 
0.044896 0.050321 0.14157 0.10935 0.10672 0.10819 0.093726 0.14617 
0.18284 0.11346 0.14502 0.081231 0.072681 0.13532 0.11543 0.19205 
0.30319 0.13647 0.11773 0.065447 0.025001 0.06183 0.081067 0.046704 
0.23956 0.12546 0.055418 0.062652 0.0059294 -0.011992 0.033387 -0.19959 
0.2149 0.10145 0.093069 0.057884 -0.0098543 -0.014622 0.0031344 -0.24431 
0.29892 0.091096 0.12924 0.054925 0.015465 0.012835 0.026481 -0.036489 
0.27277 0.083697 0.10293 0.053774 -0.028762 -0.0031133 0.0227 0.049499 
0.13631 0.029934 0.042594 0.041607 -0.026789 -0.012485 0.023686 0.022535 
-0.017746 0.022042 0.0090533 -0.027282 -0.019884 0.00083261 0.050486 0.079422 
-0.11952 0.048677 0.055254 0.0023123 0.023357 0.026317 0.074983 0.086328 
-0.11459 0.10063 0.066927 0.046704 0.016945 0.046704 0.10063 0.10704 
-0.11179 0.1008 0.12891 0.056898 0.032564 0.06035 0.057391 0.012177 
-0.17049 0.071202 0.068407 0.050979 0.014808 0.059364 0.044073 -0.031557 
-0.2402 0.01711 0.048513 0.012999 -0.0055795 -0.0075525 -0.010348 -0.008539 
-0.32553 -0.037805 0.0028056 -0.020541 -0.035832 -0.038791 -0.055232 -0.042573 
-0.30728 -0.045039 -0.064933 -0.10209 -0.083018 -0.059343 -0.091239 -0.10258 
-0.21817 -0.0091966 -0.018404 -0.051451 -0.037147 0.0059294 -0.080388 -0.13284 
-0.085978 0.034702 -0.018239 -0.010348 0.010369 0.029441 0.007738 -0.15109 
0.19566 0.035853 0.026152 0.011026 0.060186 0.022042 0.013164 -0.056383 
0.31289 0.072188 0.043909 0.064954 0.079258 0.031414 0.013821 -0.004593 
0.25962 0.10211 0.060186 0.099481 0.12447 0.025001 0.0227 0.05772 
0.22657 0.06479 0.01711 0.089945 0.12398 0.013328 -0.025145 0.10655 
0.17281 0.030263 -0.041751 0.052294 0.14881 0.031578 0.038812 0.079751 
0.066105 0.0324 -0.047505 0.076134 0.16278 0.09685 0.073832 0.083533 
0.045718 -0.013636 -0.03353 0.093233 0.12957 0.11313 0.093726 0.060844 
0.0093821 0.012177 -0.01528 0.053281 0.084519 0.09126 0.10145 0.0056006 
-0.034516 0.023193 -0.014951 -0.001798 0.025001 0.041936 0.069229 -0.1478 
-0.00015387 0.05624 -0.043888 -0.056548 -0.044381 -0.026296 -0.0067304 -0.2522 
-0.024487 0.031085 -0.029091 -0.088608 -0.11853 -0.053753 -0.046683 -0.2134 
-0.11672 0.018589 0.034373 -0.07003 -0.10225 -0.011498 -0.019719 -0.060658 
-0.18545 0.028125 0.13549 0.010862 -0.033365 0.01711 0.025824 0.10014 
-0.16621 0.061172 0.16788 0.11296 0.032564 0.037497 0.075312 0.23973 
-0.089431 0.085835 0.11691 0.080573 0.013328 0.02122 0.069558 0.26965 
-0.022021 0.066598 0.023193 0.039141 0.0016547 0.030098 0.055418 0.23134 
-0.087293 0.014315 -0.048492 0.0014903 -0.006566 -0.0004827 0.01826 0.11247 
-0.13086 -0.025638 -0.036654 -0.01117 -0.0067304 -0.017582 0.013986 0.038977 
-0.1136 -0.0014692 -0.059507 -0.024652 0.035524 0.0046141 0.057884 0.22855 
-0.069208 -0.0040998 -0.058028 -0.017417 0.016781 0.026974 0.044567 0.34133 
-0.02794 0.013164 -0.019061 0.032236 0.024837 0.045389 0.044238 0.33262 
0.029112 0.045718 0.029441 0.025495 0.0083956 0.014643 0.057391 0.14157 
-0.022514 0.04654 0.045553 0.025166 0.06035 -0.023172 0.076627 -0.037969 
-0.02646 0.018918 -0.036654 0.009711 0.031578 -0.010348 0.038812 -0.17953 
0.057391 0.00099702 -0.02235 0.083862 0.091096 0.09274 0.044896 -0.12609 
0.13483 0.056569 -0.024652 0.04358 0.056733 0.11543 0.077285 -0.21208 
0.16903 0.090767 0.0021479 0.064625 0.060679 0.058377 0.025001 -0.36219 
0.085177 0.050486 -0.0044286 0.059364 0.061008 -0.0087034 -0.074633 -0.63759 
0.012506 0.025824 -0.026789 0.029276 0.047362 -0.0091966 -0.091239 -0.60914 
0.10507 0.042758 0.011191 0.025001 0.052623 -0.010348 -0.061809 -0.10143 
0.18103 0.072188 0.043416 0.062488 0.039305 -0.026624 -0.013307 0.35235 
0.11674 0.067091 0.073832 0.034866 0.03799 -0.044546 -0.0031133 0.45248 
0.062817 0.039963 0.047033 0.0098754 0.017438 -0.029748 0.025659 0.37175 
-0.01939 0.032893 0.031414 0.0070803 0.014315 0.016288 0.03388 0.30253 
-0.05737 0.01974 0.012506 0.033222 -0.011827 0.071695 0.091589 0.2685 
0.021384 0.029769 0.044238 0.015465 -0.020706 0.08419 0.14387 0.32391 
0.16015 0.045718 0.097672 0.025495 -0.025474 0.0786 0.14798 0.25403 
0.17363 0.059364 0.085012 0.040785 -0.027611 0.020398 0.12168 0.12973 
0.032071 0.074819 0.074326 0.024179 -0.026624 0.0019835 -0.011827 -0.033365 
-0.075784 0.044896 0.041278 -0.0080457 -0.013636 0.010697 -0.047341 -0.079401 
-0.087458 -0.0026201 0.025659 -0.011498 0.01826 0.0026412 -0.0050863 -0.10423 
-0.10045 -0.0064016 0.035031 0.06479 0.05624 0.0031344 0.01974 -0.088937 
-0.11163 0.009711 0.044567 0.038648 0.049664 -0.0138 -0.024652 -0.18446 
-0.018239 0.026974 0.029276 0.039799 0.056076 -0.030242 -0.07414 -0.16046 
0.12908 0.057391 0.02122 0.0689 0.1026 -0.013307 -0.045203 -0.093705 
0.25551 0.055582 0.07038 0.073504 0.1294 0.0037921 -0.021199 -0.047176 
0.17001 0.057227 0.0786 0.093233 0.14437 0.045553 0.071366 -0.093048 
0.08567 0.078929 0.015794 0.090438 0.12365 0.11806 0.11329 -0.069208 
0.15571 0.10885 -0.044381 0.037826 0.081724 0.14996 0.10721 0.075805 
0.15752 0.074161 -0.079895 -0.053095 0.016616 0.086492 0.05476 0.087479 
0.088794 0.020398 -0.056219 -0.042573 -0.036654 0.038319 0.028454 0.046704 
0.096193 0.023686 -0.046354 0.0034632 -0.025967 0.023851 0.033058 0.097837 
0.12497 0.081889 -0.02235 0.0070803 -0.024487 0.051636 0.020891 0.30418 
0.11181 0.0592 0.0026412 0.011355 -0.008539 0.012342 0.043087 0.41581 
0.077614 0.0037921 0.029769 0.02533 -0.010183 -0.0060728 0.047197 0.42568 
0.068078 0.0051074 0.062159 0.051143 -0.0016336 -0.031064 0.067749 0.32752 
0.13943 0.053445 0.025001 0.032071 0.0016547 0.016616 0.069393 0.22361 
0.23545 0.079258 -0.023501 -0.027611 -0.012649 0.01826 0.065447 0.10721 
0.15226 0.013657 -0.04323 -0.022185 -0.0503 -0.027282 0.014315 -0.02794 
-0.067235 -0.03912 -0.04619 -0.050464 -0.093048 -0.079401 -0.056055 -0.25549 
-0.21307 -0.054575 -0.059343 -0.050464 -0.076113 -0.069372 -0.071345 -0.50244 
-0.30695 -0.0014692 -0.041257 -0.0034422 -0.016595 0.017767 -0.087622 -0.59665 
-0.26206 0.029934 0.046704 0.064461 0.021713 0.044896 -0.070194 -0.45262 
-0.11097 0.032564 0.095535 0.076792 0.011355 0.031907 -0.062138 -0.13185 
0.10639 0.022864 0.075805 0.01826 0.028619 0.017603 -0.020706 0.07597 
0.23348 0.085506 0.062159 0.031578 0.064132 0.017603 0.072024 0.15341 
0.18859 0.08156 0.077449 0.073339 0.1054 0.062159 0.026317 0.17412 
0.20865 0.10721 0.12447 0.13894 0.15144 0.054267 0.061337 0.25863 
0.20734 0.094877 0.14157 0.15423 0.15752 0.04358 0.076134 0.22476 
0.13203 0.096028 0.1003 0.093398 0.14831 0.070544 0.09126 0.24778 
0.020069 0.055418 0.021549 0.044238 0.11526 0.086492 0.07301 0.19418 
-0.16588 0.017932 -0.0052507 0.017438 0.073175 0.03092 0.039799 0.11165 
-0.28525 -0.0026201 -0.020706 0.073175 0.059857 0.016452 0.010204 -0.014787 
-0.34394 -0.0088678 -0.003771 0.020891 0.041443 -0.0026201 0.036839 -0.050136 
-0.25023 0.020562 -0.068879 -0.03764 -0.022021 0.00017495 0.069229 0.0085601 
-0.13563 0.047033 -0.0503 -0.03616 -0.041093 0.034702 0.056076 -0.036983 
-0.060329 0.14733 0.028947 0.024179 -0.022679 0.036017 0.037826 -0.084169 
0.12036 0.16492 0.095371 0.066598 -0.0014692 0.063639 0.015301 -0.07825 
0.26028 0.12398 0.09422 0.054596 -0.0090322 0.037826 -0.0077169 0.032564 
0.28543 0.028783 -0.0031133 0.029605 -0.035667 -0.0067304 -0.0055795 0.072024 
0.18892 -0.020706 -0.037476 -0.01676 -0.013636 -0.012814 -0.0060728 0.11198 
0.088136 -0.02498 -0.021034 0.00033937 -0.023172 -0.047341 0.012177 0.074161 
0.030756 0.024673 0.066269 0.038648 -0.012649 -0.045368 0.013821 0.074983 
-0.049642 0.052787 0.11296 0.016781 -0.0077169 0.013492 0.055582 0.040292 
-0.037311 0.051801 0.10639 0.011684 0.0067515 0.056898 0.064625 0.01974 
-0.058521 0.036346 0.12036 0.04095 0.0042853 0.062981 0.037004 -0.040764 
-0.071181 0.040456 0.11099 0.049828 -0.0064016 0.025659 -0.0014692 -0.095021 
-0.091732 0.06594 0.10606 0.035688 0.01974 -0.024158 -0.0039354 -0.1912 
-0.065755 0.060679 0.087808 0.046211 0.036675 -0.050136 -0.038462 -0.14204 
-0.018897 0.084355 0.021549 0.10507 0.082711 -0.065097 -0.027447 0.012999 
0.022535 0.065776 0.040128 0.098988 0.097837 -0.054575 -0.023007 0.19353 
0.026646 0.1054 0.1299 0.1373 0.16985 0.022864 0.037826 0.24351 
-0.0098543 0.062981 0.1613 0.11214 0.15966 0.10063 0.099316 0.14601 
-0.076606 0.021384 0.063803 0.070051 0.12973 0.13549 0.099316 -0.042408 
-0.0771 0.0018191 -0.028269 -0.0011404 0.045718 0.10639 0.080573 -0.10489 
-0.08384 0.031414 -0.097487 -0.05589 0.01152 0.069393 0.061337 -0.05589 
-0.070359 0.02829 -0.10604 -0.052273 -0.035338 0.024837 0.022206 -0.15289 
-0.032543 0.045553 -0.034023 -0.060987 -0.091075 -0.049642 -0.050629 -0.18841 
0.077778 0.053609 0.034373 -0.036489 -0.10028 -0.074304 -0.013307 -0.09091 
0.19106 0.073832 0.12776 -0.01117 -0.090253 -0.096665 -0.0072237 0.081889 
0.26209 0.081724 0.14881 0.017767 -0.063618 -0.060823 0.032893 0.27836 
0.25535 0.0227 0.12431 -0.008539 0.0093821 0.010862 0.10524 0.36501 
0.19665 -0.013636 0.16064 0.027632 0.065776 0.10145 0.13516 0.26833 
0.1835 0.043087 0.11346 0.092576 0.12727 0.084684 0.11263 0.1978 
0.039305 0.080902 0.10639 0.034373 0.11592 0.072846 0.048841 0.090603 
-0.061316 0.05476 0.053774 0.029605 0.075476 0.039634 0.029769 0.015137 
-0.095349 -0.0013048 0.045718 0.045224 0.075312 0.012342 -0.024158 -0.094199 
-0.068386 -0.034352 0.0059294 0.065612 0.051308 -0.0019624 -0.020541 -0.22063 
-0.08828 -0.039449 0.012835 0.050321 0.00297 -0.013143 -0.0503 -0.2693 
-0.17246 -0.043724 -0.01117 0.037497 -0.033694 -0.0034422 -0.012649 -0.2277 
-0.088773 0.033387 0.0098754 0.036346 -0.011334 0.049006 0.049992 -0.0088678 
0.080409 0.085506 0.018096 0.0026412 0.00033937 0.071202 0.072517 0.13187 
0.1955 0.08715 -0.0078813 -0.0090322 -0.035338 0.085999 0.087479 0.21605 
0.18909 0.097344 0.024344 0.017603 -0.011827 0.074326 0.091425 0.25255 
0.11083 0.086492 -0.021692 -0.013307 0.0070803 0.080902 0.096686 0.2269 
0.1202 0.034537 -0.071674 -0.06855 -0.022021 0.055418 0.08978 0.10293 
0.16541 0.034537 -0.079401 -0.10982 -0.083512 0.012835 0.068078 -0.0031133 
0.1733 0.0689 -0.019555 -0.051287 -0.12823 -0.030242 0.064296 -0.0064016 
0.11247 0.032729 0.012506 -0.029748 -0.10291 -0.006566 0.035688 -0.0083746 
0.078436 0.015959 0.057062 -0.0044286 -0.035832 0.032071 0.025166 0.02533 
0.068078 0.032893 0.10819 0.052294 0.094713 0.072353 -0.020377 0.0059294 
0.017603 0.068078 0.12579 0.070051 0.12908 0.038155 -0.10719 -0.094363 
-0.071345 0.035524 0.12414 0.095042 0.15818 -0.023007 -0.14467 -0.25368 
0.0324 0.055089 0.20717 0.20043 0.25222 0.046868 -0.064604 -0.15388 
0.096193 0.086657 0.26061 0.28428 0.33837 0.12135 0.051308 0.038483 
0.039305 0.10622 0.21638 0.20931 0.27803 0.093233 0.082382 0.25189 
-0.0019624 0.041607 0.079587 0.090603 0.15078 0.049335 0.090767 0.3119 
0.048513 -0.017253 0.00033937 0.027961 0.073175 0.067749 0.060022 0.22822 
0.056898 -0.062796 -0.052931 0.0039565 0.024344 0.083204 0.083697 0.15867 
-0.02087 -0.05589 -0.13152 -0.0096899 -0.02794 0.079094 0.085835 0.22345 
-0.082361 -0.039942 -0.18298 -0.030242 -0.077593 0.079587 0.086492 0.22213 
0.014479 -0.003771 -0.21389 -0.013965 -0.042573 0.053774 0.077121 0.19796 
0.19451 0.02829 -0.1792 -0.053917 -0.033365 0.041114 0.049992 0.22526 
0.32719 0.077285 -0.14829 -0.047505 -0.047998 0.0082312 0.059364 0.28198 
0.28264 0.12809 -0.063618 -0.011663 -0.046354 -0.0013048 0.043416 0.13039 
0.12053 0.11461 -0.00064712 -0.015938 -0.072003 -0.02087 -0.024487 -0.17772 
0.069558 0.050157 0.0016547 -0.0059084 -0.067564 -0.051615 -0.097158 -0.42483 
0.025495 0.023193 0.034866 0.019247 -0.015444 -0.057041 -0.14484 -0.63923 
-0.02646 0.037497 0.077943 0.058542 0.044896 -0.016266 -0.1085 -0.80381 
-0.027447 0.061501 0.15111 0.093398 0.060186 0.053445 -0.023336 -0.6971 
0.030263 0.087972 0.15686 0.11214 0.076627 0.069722 0.084026 -0.0067304 
0.080573 0.074326 0.18119 0.14502 0.10803 0.06479 0.13319 0.45034 
0.039963 0.074654 0.12694 0.079751 0.093891 0.073175 0.10326 0.48043 
-0.047834 0.063968 0.11148 0.075148 0.061995 0.08863 0.11559 0.35087 
-0.20584 0.035195 0.11576 0.072517 0.00050378 0.098823 0.036346 0.10096 
-0.17049 0.062159 0.0060938 0.012835 -0.0138 0.037332 -0.028926 -0.085978 
0.10458 0.072681 -0.042737 -0.012485 0.016123 -0.0060728 -0.0039354 0.059857 
0.29382 0.10474 -0.1062 -0.032543 0.031085 0.011684 0.019576 0.29382 
0.2149 0.055254 -0.13201 -0.042573 -0.0049219 0.031742 -0.014622 0.34216 
0.04095 -0.00015387 -0.1552 -0.051451 -0.031557 0.028783 0.034702 0.30072 
-0.10061 -0.014622 -0.15437 0.010697 -0.020048 0.027139 0.094877 0.25123 
-0.091239 0.0075736 -0.048985 0.060844 0.014315 -0.00081153 0.082053 0.23627 
-0.035174 -0.0075525 -0.0062372 0.044731 -0.027282 -0.089431 0.0044497 0.092904 
-0.038956 -0.023336 0.027468 -0.0072237 -0.031557 -0.19449 -0.14846 -0.19153 
-0.12396 0.0046141 0.021384 0.0037921 -0.025638 -0.25713 -0.21734 -0.52414 
-0.24398 0.039799 0.077121 0.10458 0.10754 -0.1838 -0.16786 -0.55489 
-0.16884 0.046211 0.14239 0.15818 0.26028 -0.0082102 -0.02646 -0.23576 
0.043087 0.054925 0.2001 0.14174 0.28938 0.13993 0.13121 0.10754 
0.12644 0.038648 0.17363 0.095535 0.20043 0.18876 0.18202 0.21457 
0.09833 0.017603 0.028454 -0.040435 0.026152 0.15308 0.16064 0.14815 
0.073504 0.059857 0.0085601 -0.060823 -0.058192 0.11757 0.10359 0.052623 
0.091096 0.092411 0.043745 -0.0073881 -0.096172 0.070708 0.071531 -0.014458 
0.14782 0.1202 0.074983 0.043745 -0.1011 0.065776 0.054267 -0.05589 
0.14782 0.10228 0.061172 0.049828 -0.093048 0.0069159 0.046868 -0.061316 
0.089945 0.10852 0.049006 0.034537 -0.082854 -0.03912 0.045553 -0.043559 
-0.0014692 0.092082 0.068571 0.047197 -0.09091 -0.03353 0.011355 0.016288 
-0.090417 0.046375 0.053281 0.0065871 -0.075291 -0.053588 0.0051074 0.050979 
-0.10867 0.040292 0.05213 0.0011614 -0.042901 -0.055726 0.0070803 0.06331 
-0.12281 0.021713 -0.0078813 -0.023829 -0.034845 -0.045861 0.0085601 0.071366 
-0.15799 0.0056006 -0.027118 -0.038133 -0.038462 -0.050793 0.020891 0.075805 
-0.20715 -0.034352 -0.014787 -0.043888 -0.057205 -0.041093 0.01267 0.053116 
-0.21422 -0.071674 -0.051451 -0.045368 -0.050136 -0.014129 0.017603 -0.010019 
-0.09387 -0.032215 -0.10686 0.0044497 -0.030242 0.046375 0.046211 -0.03353 
0.025166 0.021056 -0.11623 -0.035503 -0.0050863 0.028454 0.086985 -0.071181 
0.035031 0.04506 -0.11853 -0.049314 -0.0049219 0.013328 0.038319 -0.098144 
0.11477 0.044896 -0.080223 -0.018733 0.04095 -0.018733 0.011026 1.0539e-005 
0.15522 0.099974 0.028783 0.064625 0.073339 -0.01117 0.029605 0.09685 
0.11576 0.13368 0.15292 0.15259 0.15818 -0.02235 -0.01232 0.074819 
0.026317 0.087479 0.20503 0.17856 0.21934 0.0093821 0.0085601 0.081889 
0.049335 0.038812 0.17396 0.16821 0.22559 0.04917 0.039305 0.15061 
0.10655 0.031742 0.13039 0.04917 0.18876 0.082217 0.086821 0.18596 
0.1807 0.037661 0.097179 0.0060938 0.11083 0.07597 0.078107 0.20734 
0.19731 0.1225 0.14174 0.043745 0.053938 0.0059294 0.093398 0.17741 
0.19385 0.12562 0.19862 0.033387 -0.0034422 -0.00097594 0.062323 0.18087 
0.11461 0.11806 0.23693 0.063803 -0.016431 -0.0026201 0.038483 0.13943 
-0.023665 0.064461 0.22674 0.039141 0.010697 0.01267 0.01004 0.022042 
-0.13136 0.043416 0.24532 0.095699 -0.012649 0.035031 -0.017911 -0.14566 
-0.10867 0.046211 0.12283 0.098166 -0.012978 0.062817 0.032236 -0.18972 
-0.051451 0.060186 -0.064604 0.074983 0.009711 0.033058 0.065447 -0.17147 
-0.041915 0.054103 -0.22803 0.032236 0.00297 0.020398 0.055582 -0.13481 
0.0092177 0.057555 -0.26946 -0.048327 0.0044497 0.034702 0.040292 -0.019719 
0.061501 0.0019835 -0.20419 -0.067728 0.032236 0.011848 0.014315 0.14913 
0.10556 -0.017911 -0.16309 -0.07973 0.0095465 -0.0042642 0.016616 0.21539 
0.11362 0.01974 -0.044381 -0.0098543 0.0093821 0.028125 0.017767 0.2024 
0.10606 0.052952 0.039799 0.015959 0.078436 0.056733 0.01563 0.15768 
0.14568 0.079094 0.10606 0.020891 0.097837 0.087808 0.034866 0.15176 
0.21802 0.047197 0.12118 0.07301 0.071531 0.068407 0.040456 0.21967 
0.22904 0.051472 0.10113 0.02533 0.05772 0.066105 0.075641 0.23052 
0.090274 0.059528 0.11494 0.017274 0.025659 0.044402 0.034866 0.10425 
-0.012156 0.045553 0.12332 0.027139 -0.014293 0.015301 -0.0077169 -0.03057 
-0.038133 0.028619 0.16525 0.059857 -0.038627 -0.042079 -0.022843 -0.062631 
0.027139 0.049992 0.11477 0.070873 -0.046519 -0.030406 -0.034845 -0.069043 
0.029112 0.046704 0.047197 0.059528 -0.030406 -0.00031829 0.010697 -0.052766 
0.061666 0.041607 -0.022679 0.057062 -0.0016336 0.040785 0.041114 -0.055726 
0.064296 0.017438 -0.031721 0.029112 0.033551 0.072188 0.037661 -0.079895 
0.0070803 -0.0034422 0.015301 0.060844 0.026974 0.058706 0.026317 -0.20699 
-0.02235 0.03799 0.0046141 0.12184 0.039963 0.073504 0.058213 -0.21011 
-0.016102 0.097015 -0.029255 0.086821 0.036839 0.032564 0.034209 -0.067564 
0.036017 0.086985 -0.089102 -0.00064712 -0.012485 -0.00081153 -0.012814 0.10211 
0.062323 0.045882 -0.10784 -0.056055 0.021878 -0.0067304 -0.03057 0.14585 
0.055418 0.06331 -0.020541 -0.016431 0.049664 0.0044497 -0.048163 0.092904 
0.085506 0.089945 0.030427 -0.017746 0.089945 -0.016102 -0.041257 0.19501 
0.1105 0.078929 0.081395 -0.026953 0.072681 -0.0091966 -0.023172 0.20438 
0.095371 0.020398 0.13779 0.013492 0.086821 -0.0011404 0.00050378 0.15061 
0.028947 0.0016547 0.171 0.063803 0.13795 0.033551 0.0011614 0.042923 
-0.034845 -0.024323 0.12677 0.11165 0.15587 0.042923 -0.014293 1.0539e-005 
-0.13448 -0.016595 0.027632 0.065118 0.083204 0.026317 0.023357 -0.065262 
-0.13629 -0.071509 -0.087458 0.033387 -0.0019624 0.016452 0.055911 -0.062138 
-0.076277 -0.094199 -0.14106 -0.050464 -0.089595 0.058213 0.086328 -0.01232 
-0.01939 -0.056219 -0.078086 -0.049971 -0.2009 0.018425 0.075641 -0.051944 
-0.029748 0.049992 0.03536 -0.0080457 -0.18413 -0.017746 0.018425 -0.23477 
-0.083183 0.10063 0.0689 -0.0050863 -0.091732 -0.02235 -0.028433 -0.24546 
-0.12807 0.084519 0.0031344 -0.018404 -0.016924 -0.010348 -0.065919 -0.19137 
-0.12725 0.034866 -0.036983 0.0041209 0.052623 0.00099702 -0.065426 -0.067564 
-0.013307 0.066763 0.066763 0.11674 0.18843 0.033551 -0.022185 0.095206 
0.10655 0.068736 0.13138 0.1904 0.27902 0.12151 0.075148 0.17001 
0.1807 0.090767 0.15555 0.17939 0.28757 0.15752 0.12003 0.28083 
0.18826 0.12299 0.16048 0.16969 0.23858 0.19007 0.10162 0.19205 
0.14913 0.11099 0.19122 0.057227 0.086163 0.06183 0.026481 0.13171 
0.1105 0.099316 0.083368 -0.013636 -0.087458 -0.027611 0.0085601 0.064461 
0.1031 0.057884 0.024673 -0.070359 -0.20863 -0.045696 0.037661 0.12924 
0.051472 0.020398 -0.061973 -0.12314 -0.20584 -0.031064 0.048184 0.13746 
0.0092177 -0.0034422 -0.091404 -0.1136 -0.13086 0.0036276 0.069393 0.12266 
-0.023007 0.0083956 -0.042737 -0.038791 -0.019719 0.03388 0.050486 0.055747 
-0.037147 0.016288 -0.039449 0.042429 0.069558 0.0098754 0.012999 -0.06296 
-0.10982 0.0087245 -0.03912 0.00066819 0.092411 -0.023172 -0.046025 -0.3224 
-0.10045 0.015137 -0.048492 -0.0059084 0.12924 -0.037311 -0.090088 -0.51773 
-0.063618 0.052787 -0.020212 0.022371 0.18925 -0.027775 -0.11886 -0.50984 
-0.010841 0.083533 0.048348 0.083368 0.22115 0.0074092 -0.055232 -0.29807 
-0.035667 0.06183 0.042758 0.088958 0.1853 0.07038 0.048019 -0.045039 
-0.047012 0.078929 0.10902 0.13072 0.16936 0.12085 0.074983 0.18547 
0.017438 0.11214 0.16706 0.19057 0.15193 0.11017 0.088794 0.31125 
0.05065 0.078436 0.15423 0.15078 0.080409 0.069722 0.069886 0.30779 
0.018425 -0.0014692 0.078765 0.055911 0.028619 0.027961 0.03651 0.27491 
0.017274 -0.017088 0.0095465 0.025824 0.047362 0.037332 0.07301 0.25781 
0.019411 -0.02235 -0.023336 0.0039565 0.030263 0.079422 0.087808 0.26505 
-0.00064712 -0.010841 -0.062302 -0.037476 -0.024816 0.097179 0.09833 0.22986 
-0.028597 -0.017253 0.017603 -0.028762 -0.063289 0.048841 0.075148 0.2001 
-0.01528 0.01826 0.085506 0.052623 -0.06855 -0.0036066 0.03651 0.15423 
0.027468 0.049992 0.1539 0.081395 -0.070687 -0.083512 -0.0021268 0.13154 
0.084519 0.073997 0.16097 0.095535 -0.039613 -0.073318 -0.046354 0.07301 
0.12776 0.1026 0.10819 0.089123 0.005765 -0.029091 -0.023172 -0.035667 
0.079094 0.094548 0.068736 0.054596 0.074819 0.040785 0.027468 -0.19877 
0.039305 0.078765 -0.034352 0.012835 0.099645 0.06742 0.051965 -0.24151 
0.052787 0.057391 -0.071674 0.0090533 0.10047 0.087479 0.077121 -0.14813 
0.083697 0.065118 -0.036325 0.0085601 0.062817 0.079258 0.080902 -0.045696 
0.11642 0.079422 0.056404 0.0070803 0.012342 0.053774 0.077285 0.05624 
0.10688 0.06035 0.081724 0.010533 -0.016924 0.0031344 0.034209 0.0592 
0.051965 0.022371 0.015301 0.0083956 -0.041586 -0.041586 0.019083 0.10096 
0.0074092 0.012999 -0.048985 -0.0013048 -0.05737 -0.039449 0.0065871 0.079422 
0.007738 0.0054362 -0.068879 0.0037921 -0.025309 -0.025802 0.037004 0.11346 
0.031578 0.024508 -0.046847 0.019905 0.0014903 0.013492 0.068078 0.15834 
0.086657 0.045553 -0.037969 0.061501 0.036839 0.044731 0.075805 0.22871 
0.14223 0.094548 -0.015609 0.086328 0.047033 0.075641 0.10589 0.23627 
0.1174 0.066598 0.020398 0.04917 0.030427 0.049828 0.066434 0.17856 
0.058871 0.040128 0.069229 0.063968 -0.012156 0.01267 0.060022 0.047855 
0.0019835 0.01415 0.056733 0.0079024 -0.053917 -0.018733 0.03799 0.0013258 
-0.031228 0.036675 0.026974 -0.015444 -0.087622 -0.059178 0.01711 -0.035832 
-0.042408 0.025988 0.023357 -0.0082102 -0.10176 -0.045368 0.023522 -0.065426 
-0.06296 0.038483 0.022206 0.0054362 -0.098967 -0.037147 0.013492 -0.041257 
-0.052602 0.013164 0.04095 -0.013143 -0.096172 -0.038462 -0.027282 -0.058521 
-0.031721 -0.0044286 0.023357 -0.021528 -0.074304 -0.034845 -0.019226 0.015465 
0.019411 -0.0049219 -0.042244 -0.011827 -0.074469 -0.011663 0.010697 -0.003771 
0.077943 0.010369 -0.03764 -0.056055 -0.062631 -0.0073881 0.029769 0.041607 
0.081724 0.03799 -0.01528 -0.034516 -0.036654 -0.017582 0.024508 0.087314 
0.065283 0.028454 0.025824 -0.0083746 0.030263 -0.017417 1.0539e-005 0.065283 
0.026152 0.016452 -0.022843 -0.0029489 0.083368 -0.024323 0.0070803 0.013821 
0.0064227 -0.011663 0.0083956 -0.019061 0.076299 0.059528 0.057227 -0.00015387 
0.0079024 0.029605 0.025166 0.009711 0.072846 0.094877 0.070873 0.0023123 
0.019247 0.069722 0.03947 0.068571 0.036839 0.073504 0.056076 0.030427 
0.14486 0.12233 0.093398 0.040621 0.0088889 0.037168 0.02829 0.062817 
0.1858 0.089452 0.058542 0.032564 -0.021363 -0.039613 0.025659 0.10162 
0.18004 0.06742 0.085999 0.079751 0.0018191 -0.011663 0.029441 0.089123 
0.13713 0.056733 0.056733 0.056569 0.0059294 0.0087245 0.049499 0.030098 
0.097508 0.049499 0.0075736 -0.0059084 -0.014622 0.0090533 0.049335 -0.026953 
0.040292 0.045389 -0.026296 -0.021692 -0.028926 -0.0060728 0.033715 -0.028762 
0.011848 0.029934 -0.063289 -0.02235 -0.064768 0.012835 0.053609 -0.028104 
-0.0077169 0.013492 -0.06 -0.076113 -0.10834 0.025659 0.030756 -0.044052 
-0.015938 0.020562 -0.064933 -0.12412 -0.11607 0.025495 0.0093821 -0.065919 
-0.011498 0.040456 -0.052602 -0.11097 -0.071674 0.0080668 -0.018239 -0.06707 
0.017767 0.016452 -0.030899 -0.076277 -0.0026201 0.0059294 -0.013307 -0.038298 
0.027796 0.0042853 -0.089595 -0.039613 0.097837 0.035853 -0.035338 -0.031228 
0.0047785 -0.0040998 -0.11804 0.0064227 0.14749 -0.0011404 -0.033201 0.0021479 
-0.067235 0.011684 -0.042244 0.088465 0.19205 -0.034188 -0.022514 0.016288 
-0.11672 0.00066819 0.1197 0.067585 0.20142 -0.0088678 -0.010348 0.02681 
-0.094527 0.00083261 0.17149 0.05476 0.17034 0.037168 0.011026 1.0539e-005 
0.035195 0.041114 0.26554 0.14749 0.13171 0.096686 0.042923 -0.058685 
0.19303 0.18909 0.39312 0.19188 0.10162 0.14782 0.064954 -0.11722 
0.26505 0.27721 0.43817 0.20043 0.087314 0.11313 0.064461 -0.15651 
0.22394 0.23151 0.38901 0.16426 0.027468 0.013986 0.0090533 -0.045532 
0.12612 0.14453 0.19977 0.1179 -0.013143 -0.024323 0.00066819 0.10376 
0.050979 0.072353 0.063474 0.058213 -0.0004827 -0.017253 0.037826 0.21358 
-0.017253 0.040785 0.015137 0.07597 0.044896 -0.0072237 0.021713 0.19879 
-0.069536 -0.020212 0.016616 0.090931 0.13697 0.057227 0.025988 0.083204 
-0.10373 -0.063946 -0.046025 0.018918 0.19994 0.076463 0.029769 -0.10078 
-0.046683 -0.0406 -0.098638 0.03947 0.18284 0.09422 -0.001798 -0.091568 
0.010697 0.047526 -0.064768 0.10556 0.17544 0.077614 -0.0096899 -0.0064016 
0.037826 0.079916 -0.027611 0.11609 0.14108 0.058213 0.019083 0.057555 
0.08978 0.11461 0.014479 0.059035 0.064461 0.0080668 -0.0062372 0.081067 
0.10721 0.056898 -0.02235 0.0028056 0.028454 0.064954 0.042923 0.041114 
0.11477 0.016781 -0.037969 -0.016102 0.040785 0.099974 0.034209 0.034209 
0.09981 -0.0019624 -0.026296 -0.066084 0.023193 0.058542 0.0046141 0.03092 
0.02829 -0.018404 0.06742 -0.033201 0.0065871 0.042594 0.0069159 0.04506 
1.0539e-005 0.026974 0.19517 0.054267 0.041772 0.021549 0.024508 0.043087 
-0.01528 0.097837 0.20569 0.13812 0.059035 0.032564 0.023851 0.079258 
0.0098754 0.1197 0.15768 0.14223 0.084684 0.013986 0.023028 0.048513 
0.0031344 0.088465 0.12299 0.097837 0.07597 -0.0059084 0.019083 0.04654 
0.051636 0.08567 0.14009 0.088958 0.046704 -0.031064 -0.0078813 0.045224 
0.10589 0.1031 0.17314 0.10277 0.038155 -0.0075525 -0.0016336 0.072024 
0.10458 0.11592 0.14206 0.11724 0.033715 0.040621 0.053609 0.064461 
0.06331 0.069064 0.10688 0.086985 0.063639 0.077614 0.076792 0.046046 
0.027632 0.021384 0.029605 0.030756 0.039305 0.091589 0.079587 0.015794 
-0.022021 0.0031344 -0.013143 -0.017911 -0.03057 0.075312 0.075312 0.027303 
-0.033365 -0.0034422 -0.067728 -0.04619 -0.10193 0.057227 0.028947 0.042429 
0.019247 0.0056006 -0.069865 -0.022514 -0.080388 0.0069159 -0.0060728 0.090109 
0.047691 -0.028269 -0.012814 0.0024767 0.00050378 -0.025309 -0.020048 0.11181 
0.055254 0.0087245 0.051143 0.077943 0.045718 -0.073647 -0.037805 0.09422 
0.083204 0.068242 0.19714 0.19106 0.10129 -0.071674 -0.047341 0.079751 
0.13187 0.15028 0.26126 0.23463 0.14831 -0.026789 -0.0080457 0.10113 
0.15456 0.12151 0.17182 0.20372 0.17084 0.014315 0.046046 0.096193 
0.11313 0.061008 0.01415 0.11115 0.076956 0.056898 0.087643 0.070873 
0.0082312 0.020398 -0.089266 -0.012649 -0.056877 0.10376 0.087643 0.005765 
-0.076606 0.014643 -0.11343 -0.14352 -0.12856 0.14141 0.07449 -0.017417 
-0.20518 -0.022679 -0.15026 -0.20025 -0.13777 0.094384 0.062981 -0.051122 
-0.27505 -0.053753 -0.14336 -0.15141 -0.14878 0.0090533 0.015959 -0.16161 
-0.32816 -0.05326 -0.16818 -0.11639 -0.071509 -0.05589 -0.05178 -0.19531 
-0.1986 0.032893 -0.14089 -0.041915 0.071037 -0.031228 -0.05589 -0.16227 
0.078107 0.063968 -0.10965 0.0092177 0.11658 -0.024158 -0.045532 -0.027611 
0.30812 0.058049 -0.081539 0.058213 0.082217 -0.065426 0.016616 0.11461 
0.33048 0.0592 -0.067399 0.034866 0.059035 0.0018191 0.088136 0.24252 
0.25206 0.030427 -0.09798 -0.024158 0.0098754 0.072681 0.13713 0.28182 
0.10935 -0.011005 -0.15109 -0.060165 0.0092177 0.077285 0.096193 0.22756 
-0.0024557 -0.053424 -0.182 -0.050464 -0.008539 0.053938 0.042429 0.10951 
-0.027282 -0.026953 -0.12182 -0.042408 -0.046519 -0.0021268 -0.0047575 0.0056006 
-0.0052507 0.037497 -0.023336 0.011191 -0.045039 -0.044217 -0.060987 -0.092226 
0.054432 0.082711 0.074161 0.034537 -0.042573 -0.044546 -0.090581 -0.10489 
0.058377 0.069229 0.1664 0.097508 0.0051074 -0.030242 -0.017582 0.0037921 
0.076299 0.12727 0.22164 0.11494 0.023357 -0.028269 0.011191 0.077121 
0.071859 0.087479 0.21638 0.11132 0.021384 -0.0080457 0.056404 0.11017 
0.062323 0.090603 0.16212 0.051801 0.047526 0.0044497 0.022864 0.078272 
-0.020706 0.042265 0.049499 0.0019835 0.018918 0.0042853 0.020398 0.055089 
-0.095349 -0.021692 -0.09798 -0.081703 0.0093821 0.020398 0.036182 -0.0032777 
-0.13448 -0.075127 -0.17608 -0.10094 -0.027447 0.010697 0.056569 -0.036818 
-0.096829 -0.031721 -0.13612 -0.088444 -0.06444 -0.0057439 0.013328 -0.1473 
-0.014458 0.072846 -0.03616 0.0026412 -0.030735 -0.0027845 -0.022514 -0.22557 
0.11888 0.11132 0.076792 0.059528 0.017767 0.01267 0.013657 -0.18315 
0.15686 0.095206 0.067585 0.05772 0.01152 0.053281 0.025495 -0.045039 
0.12069 0.069558 0.0026412 0.040292 -0.041915 0.0064227 0.06479 0.10113 
0.085012 0.069393 0.0059294 0.049828 -0.0406 -0.008539 0.032893 0.1927 
0.080409 0.055254 0.029112 0.036017 0.00297 0.0018191 0.066105 0.23003 
0.067913 0.02533 0.041443 0.011684 0.05065 0.021056 0.05772 0.21161 
0.056898 -0.019226 -0.037147 -0.021034 0.036839 0.036675 0.054925 0.16311 
0.047033 -0.032872 -0.025967 0.0016547 0.017274 0.047691 0.072353 0.084355 
0.060515 -0.025474 0.0041209 -0.00081153 0.0085601 0.027632 0.069722 0.10162 
0.078272 0.00297 0.071531 0.032564 0.028783 0.016452 0.060679 0.072188 
0.1248 0.047855 0.071695 0.044073 -0.041093 0.010204 0.03651 0.045882 
0.12398 0.078436 0.059528 0.01004 -0.10784 -0.01528 -0.019226 -0.0036066 
0.08156 0.11428 0.082875 0.0088889 -0.030077 -0.018568 -0.050136 -0.16013 
-0.049971 0.077285 0.068242 0.023193 0.066434 0.0090533 -0.059014 -0.35036 
-0.11459 0.06594 0.064296 0.066598 0.15456 0.023851 -0.051615 -0.39458 
-0.17953 0.044402 0.055911 0.062652 0.19928 0.019083 -0.039613 -0.29972 
-0.26634 0.073997 0.080738 0.10047 0.23512 0.020727 0.023522 -0.19942 
-0.28097 0.061501 0.097179 0.15653 0.24564 0.012177 0.069064 -0.089595 
-0.20929 0.028454 0.11214 0.11674 0.18152 0.0024767 0.085506 0.069558 
0.0085601 0.020069 0.13812 0.04506 0.083368 0.084355 0.11691 0.31733 
0.1932 0.08156 0.09981 0.038155 0.017438 0.12628 0.1396 0.43505 
0.19336 0.055911 0.070708 0.013821 -0.079895 0.12464 0.15078 0.45938 
0.16245 0.0039565 0.009711 -0.053753 -0.17739 0.068242 0.10819 0.40036 
0.11083 -0.056712 -0.025474 -0.07562 -0.2328 0.01415 0.038812 0.35514 
0.10803 -0.069372 -0.03057 -0.073482 -0.22918 -0.043066 0.0060938 0.26044 
0.15768 -0.0040998 -0.00097594 -0.055397 -0.13941 -0.052931 -0.012814 0.1003 
0.13368 0.074819 0.10704 0.057227 0.030098 -0.027282 -0.057534 -0.1575 
0.01974 0.13894 0.14848 0.15176 0.12085 -0.059672 -0.057699 -0.28755 
0.028454 0.2098 0.20421 0.22098 0.21128 0.014808 -0.032543 -0.28969 
0.13976 0.23562 0.13976 0.18909 0.2394 0.16722 0.095206 -0.15816 
0.21309 0.1008 -0.0054151 0.087643 0.18958 0.13582 0.11296 0.017274 
0.12332 0.0023123 -0.16227 -0.0088678 0.089452 0.11526 0.097015 0.045389 
0.0072447 0.0026412 -0.21833 -0.087129 -0.025638 0.0227 0.052294 -0.025145 
-0.096829 0.043416 -0.14303 -0.12116 -0.14139 -0.039613 0.0028056 -0.075127 
-0.17624 -0.017417 -0.10324 -0.10489 -0.1473 -0.083018 -0.060165 -0.055397 
-0.20764 -0.023994 0.012177 -0.089266 -0.1644 -0.076277 -0.054246 -0.0091966 
-0.15865 -0.016595 0.12085 -0.059343 -0.1113 -0.035338 -0.0080457 0.074819 
-0.070359 0.015465 0.17741 -0.008539 -0.037805 0.035853 -0.00031829 0.13253 
-0.014458 0.033387 0.21391 0.066269 0.053938 0.050321 -0.011827 0.10704 
-0.0016336 0.071531 0.22937 0.11214 0.19484 0.079094 -0.00015387 0.045389 
0.0072447 0.10211 0.24269 0.11148 0.32012 0.097672 0.024179 0.088794 
0.014315 0.075476 0.17708 0.16064 0.36369 0.10441 0.067585 0.12529 
0.01974 0.068407 0.14042 0.13582 0.38704 0.14305 0.092904 0.15456 
0.041772 0.068407 0.13286 0.10885 0.27212 0.13779 0.11724 0.12595 
0.055254 0.072846 0.093233 0.10129 0.084519 0.18662 0.17117 0.10951 
0.081889 0.052459 0.037826 0.053609 -0.0406 0.19188 0.17676 0.10524 
0.13861 0.087972 -0.068221 0.0095465 -0.084334 0.15012 0.10524 0.079751 
0.13351 0.082217 -0.15618 -0.043066 -0.14073 -0.022185 -0.017253 -0.0062372 
0.086985 0.046868 -0.25697 -0.045861 -0.1621 -0.1695 -0.13612 -0.088444 
0.067749 0.06035 -0.14714 0.037168 -0.036489 -0.21586 -0.15306 -0.070359 
0.079751 0.08715 0.0021479 0.13138 0.10343 -0.14106 -0.10127 -0.018733 
0.090603 0.061172 0.05476 0.16574 0.23726 -0.040928 -0.02498 0.052623 
0.031742 0.038483 0.084848 0.11461 0.26537 0.044731 0.022042 0.095864 
0.033222 0.019905 0.069229 0.077943 0.25715 0.083862 0.080244 0.1419 
0.06183 0.090767 0.1544 0.093726 0.24005 0.13384 0.12694 0.13269 
0.040128 0.12414 0.21408 0.12431 0.15982 0.14568 0.15637 0.061995 
-0.045532 0.099974 0.1927 0.043251 0.027139 0.099974 0.060679 -0.05589 
-0.048163 0.017932 0.10803 -0.013471 -0.10423 0.0042853 0.01974 -0.065262 
-0.012978 0.0013258 0.049006 -0.037969 -0.17345 -0.050958 -0.0016336 -0.12757 
0.023522 0.03388 0.065612 -0.044381 -0.18709 -0.0503 0.012835 -0.21422 
0.076792 0.082875 0.1516 -0.00097594 -0.11376 0.0067515 0.023522 -0.23428 
0.14404 0.13631 0.21737 0.062488 -0.045861 0.037332 0.019247 -0.097158 
0.1738 0.13006 0.19369 0.11888 0.0051074 0.061501 0.053938 0.13417 
0.14667 0.10359 0.13894 0.071531 -0.00064712 0.026974 0.052459 0.26373 
0.036839 0.039963 0.11806 0.048841 -0.0070593 0.0028056 0.060515 0.22476 
-0.063124 0.0019835 0.070215 0.033058 0.0011614 0.0037921 0.01004 0.12792 
-0.10456 -0.017582 0.023357 0.021878 0.030592 0.00033937 -0.00031829 0.063803 
-0.092226 0.021713 -0.084169 0.0041209 0.053774 -0.0059084 -0.022514 -0.070852 
-0.06444 0.038977 -0.15898 0.00050378 0.027796 -0.018897 0.013821 -0.13136 
-0.02087 0.026152 -0.15355 0.01826 0.015301 0.03799 0.032893 -0.16062 
-0.015773 0.0024767 -0.11771 -0.027447 0.0026412 0.05772 0.053116 -0.07266 
0.093233 0.043416 -0.098638 -0.041751 0.027961 0.031249 0.058706 0.077121 
0.13171 0.032729 -0.14073 0.0047785 0.033058 -0.011005 0.020727 0.1276 
0.076463 -0.012978 -0.072003 0.0075736 0.026646 -0.030077 0.012013 0.037826 
0.019576 -0.032379 0.030098 0.10047 0.067256 -0.028433 -0.032543 -0.0091966 
0.017932 -0.01232 0.11313 0.16804 0.063639 -0.029255 -0.021034 0.0093821 
0.053445 0.025495 0.11526 0.19599 0.094384 0.019905 0.026646 0.080244 
0.06742 0.013492 0.054925 0.12694 0.051801 0.023522 0.063474 0.11839 
0.05476 0.020727 -0.028597 0.029276 -0.023829 0.0016547 0.063803 0.065776 
0.030263 0.031907 -0.062796 -0.021692 -0.12281 0.0021479 0.033387 0.051636 
-0.056383 0.037497 -0.010841 -0.093048 -0.16966 -0.011663 0.018096 -0.011334 
-0.16013 -0.0080457 0.024673 -0.15043 -0.21274 -0.0077169 0.019411 -0.049807 
-0.18167 -0.0059084 0.0085601 -0.14385 -0.17591 -0.013471 -0.0013048 -0.10554 
-0.041257 0.052952 0.02829 -0.025309 -0.1187 -0.018733 0.022371 -0.032543 
0.10195 0.076627 0.058049 -0.025145 -0.12182 -0.079566 -0.033694 0.028947 
0.13713 0.061995 0.079916 0.0095465 -0.062302 -0.093048 -0.036983 0.053609 
0.10885 0.041772 0.078929 0.076134 -0.042408 -0.11508 -0.047012 -0.014129 
0.071859 0.027961 0.10869 0.082546 0.051801 -0.067564 -0.017088 -0.072989 
0.04654 0.051308 0.063474 0.077614 0.12497 0.07301 0.037168 -0.032543 
0.052623 0.035031 0.022042 0.05065 0.13023 0.096686 0.068078 0.09981 
0.062159 -0.018568 -0.025967 0.041772 0.0786 0.08008 0.047855 0.17856 
0.045224 -0.016924 -0.12971 -0.0044286 0.0079024 0.07038 0.071859 0.16163 
0.019576 -0.014787 -0.18167 -0.068879 -0.055232 0.074161 0.083862 0.11313 
-0.037969 -0.0039354 -0.18298 -0.096994 -0.14122 0.060022 0.072846 0.058049 
-0.043724 -0.034188 -0.16029 -0.14073 -0.27193 -0.009361 0.045553 0.059528 
-0.027611 -0.069208 -0.1552 -0.13251 -0.35068 -0.082196 0.03388 0.079916 
-0.042901 -0.089431 -0.1182 -0.10505 -0.34986 -0.095349 0.018425 0.02829 
-0.10489 -0.051944 -0.10472 -0.10834 -0.35693 -0.08828 0.013821 -0.056219 
-0.10258 -0.0096899 -0.067235 -0.12034 -0.26009 -0.11228 -0.028433 -0.0082102 
-0.051944 -0.014293 -0.055232 -0.067399 -0.091732 -0.14747 -0.09091 0.0080668 
-0.03501 0.047362 -0.035996 0.059857 0.14256 -0.14254 -0.12001 0.031742 
-0.030242 0.1054 0.053116 0.15653 0.38342 -0.056383 -0.097322 -0.0091966 
0.025659 0.18103 0.14897 0.24762 0.55376 0.084519 -0.018075 0.0046141 
0.1516 0.16294 0.20191 0.30253 0.63547 0.1909 0.066269 0.068407 
0.19977 0.1197 0.15423 0.26554 0.60538 0.19879 0.061172 0.048841 
0.20355 0.068242 0.032893 0.099645 0.50377 0.22411 0.044238 -0.076935 
0.14913 0.042923 0.005765 -0.0044286 0.45971 0.29201 0.086328 -0.12971 
0.045389 -0.0031133 0.0059294 0.036182 0.38589 0.31338 0.15176 -0.052602 
0.061337 0.04654 0.088465 0.013986 0.21737 0.26094 0.12595 0.11707 
0.080573 0.032071 0.030756 0.071202 0.0098754 0.12677 0.10622 0.22033 
0.058706 0.052952 0.067585 0.040456 -0.18413 0.0074092 0.048677 0.13976 
0.076299 0.086657 0.12858 0.0060938 -0.32158 -0.13037 0.013492 0.11165 
0.097672 0.05476 0.12053 -0.032543 -0.35496 -0.13843 -0.0039354 0.10392 
0.056569 0.067749 0.043909 -0.037805 -0.26733 -0.10357 0.021056 0.11132 
0.01826 0.05624 -0.038462 -0.0091966 -0.12396 -0.032215 0.027468 0.079587 
-0.011663 0.034537 -0.080881 -0.0059084 0.020069 0.040456 0.021713 0.03651 
-0.011005 -0.0055795 -0.10669 0.012506 0.11247 0.03536 0.0056006 -0.0026201 
0.016452 -0.0050863 -0.075291 0.042923 0.1391 -0.015938 -0.010512 -0.013143 
0.020562 0.0065871 -0.13284 0.032071 0.15028 -0.044546 0.0037921 -0.0059084 
0.054432 0.049664 -0.17114 -0.0013048 0.1202 0.01267 0.038155 0.03947 
0.047033 0.055911 -0.12774 -0.018239 0.088958 0.10639 0.070544 0.053609 
0.048513 0.068407 -0.028104 0.011355 0.043416 0.13993 0.062323 0.026317 
0.030098 0.10852 0.059528 0.023028 0.070708 0.13467 0.039305 0.011848 
0.036346 0.12036 0.076627 0.032893 0.15324 0.084355 -0.0034422 0.011355 
0.062488 0.10014 0.1955 0.12349 0.24795 0.076627 -0.0067304 0.053938 
0.091918 0.11428 0.26176 0.14831 0.33328 0.079916 0.04506 0.070051 
0.1077 0.11839 0.27261 0.17182 0.33246 0.11296 0.094713 0.14946 
0.13615 0.11625 0.26751 0.20471 0.27951 0.064132 0.080902 0.10392 
0.1151 0.099152 0.18218 0.14535 0.18119 0.036675 0.023028 -0.023172 
0.016452 0.051801 0.17462 0.046046 0.077285 0.032729 -0.040106 -0.15191 
-0.038956 0.03092 0.29135 0.080409 0.043087 0.058542 0.0032988 -0.10341 
-0.035174 0.089616 0.42913 0.22098 0.067585 0.10129 0.059693 -0.0014692 
-0.0060728 0.17051 0.45445 0.23364 0.032893 0.11 0.077449 0.030098 
0.046211 0.18563 0.31421 0.16952 -0.0077169 0.052787 0.081724 -0.0096899 
0.10195 0.12858 0.055582 0.045224 -0.065755 -0.011663 0.063968 -0.056055 
0.12151 0.035195 -0.20814 -0.080223 -0.10965 -0.064933 0.017438 -0.010019 
0.080902 -0.018404 -0.31797 -0.16523 -0.13563 -0.11196 -0.032872 0.067091 
0.0070803 -0.042901 -0.30662 -0.1695 -0.12527 -0.092061 -0.021199 0.13631 
-0.011827 -0.073318 -0.19646 -0.10982 -0.11623 -0.033365 0.034209 0.17692 
0.030263 -0.020048 0.036839 -0.016266 -0.12248 0.0064227 0.077778 0.21112 
0.15324 0.073504 0.21276 0.071531 -0.14928 0.011684 0.047691 0.17676 
0.23627 0.15735 0.25978 0.11247 -0.14369 -0.036489 -0.0032777 0.12562 
0.19764 0.15045 0.17445 0.14815 -0.11903 -0.082196 -0.0032777 0.059364 
0.04654 0.11576 0.10178 0.093562 -0.076935 -0.057534 0.025988 0.0090533 
-0.1039 0.10803 0.06594 0.089616 -0.048327 -0.032215 0.075148 -0.056055 
-0.13514 0.09981 0.11099 0.046375 -0.023501 -0.012485 0.06331 -0.031721 
-0.059836 0.041936 0.079094 -0.021856 -0.0042642 0.012835 0.033551 0.0019835 
0.020891 -0.0024557 0.0046141 -0.061973 -0.0050863 -0.010183 -0.019226 -0.056055 
0.00017495 -0.0026201 0.041772 -0.028762 0.010862 -0.008539 -0.0406 -0.13448 
-0.07003 0.030263 0.093726 0.012999 0.016288 0.044238 -0.0096899 -0.22622 
-0.04471 0.05213 0.14585 0.067585 0.057391 0.012835 0.03092 -0.16934 
0.068571 0.027961 0.08008 0.061501 0.035688 0.034537 0.031578 -0.034352 
0.13615 0.019083 0.041772 0.052459 -0.05178 0.030263 0.044567 0.09833 
0.11658 0.030756 0.028947 -0.0096899 -0.12462 -0.0013048 0.071202 0.11428 
0.045224 0.014479 0.023357 0.013821 -0.094034 -0.048492 0.037168 0.083204 
-0.0087034 -0.0021268 0.043909 0.036346 -0.11574 -0.095514 0.0095465 0.021549 
-0.078086 0.042758 0.040292 0.045224 -0.14369 -0.095678 -0.00031829 0.073668 
-0.1792 0.051801 -0.0013048 0.0079024 -0.17509 -0.060329 0.015137 0.067256 
-0.18216 0.049006 -0.08384 -0.079072 -0.25927 -0.05441 0.061172 0.086985 
-0.068221 0.025001 -0.11163 -0.16325 -0.31057 -0.044874 0.055582 0.10228 
0.034044 -0.020212 -0.13908 -0.22672 -0.28196 -0.010183 0.04358 0.12447 
0.066105 -0.07973 -0.16079 -0.22902 -0.28673 0.0051074 0.01152 0.066763 
0.071859 -0.047998 -0.17131 -0.13596 -0.2254 -0.0090322 -0.049807 -0.0044286 
0.043251 -0.02646 -0.10587 -0.041915 -0.062302 -0.046683 -0.069701 -0.096665 
0.049006 0.037497 0.016288 0.051308 0.18448 -0.045696 -0.089431 -0.17525 
0.075476 0.095699 0.085835 0.15374 0.44722 0.046868 -0.066906 -0.23625 
0.13993 0.13878 0.08156 0.25567 0.62396 0.18136 -0.022185 -0.18775 
0.11822 0.089945 0.085835 0.24729 0.71423 0.22838 0.072517 -0.025802 
0.050814 0.055418 0.092576 0.20701 0.60604 0.18974 0.1276 0.11346 
0.095535 0.044073 0.092082 0.16623 0.34577 0.086328 0.088136 0.20684 
0.1322 0.030427 0.025166 0.08715 0.049664 0.01004 0.050814 0.21737 
0.11444 0.01563 -0.027282 0.035195 -0.074962 0.013492 0.065612 0.19155 
0.065612 0.0098754 -0.14467 0.014479 -0.050464 0.06331 0.13417 0.16804 
-0.020541 -0.010676 -0.22014 -0.03057 0.012177 0.11674 0.10935 0.12677 
-0.066248 -0.041257 -0.25187 -0.096829 0.0019835 0.10967 0.06594 0.070051 
-0.073811 -0.042573 -0.24941 -0.10373 -0.069865 0.064461 0.0083956 -0.0068948 
-0.041586 -0.018239 -0.10258 -0.040271 -0.11524 0.01004 -0.013965 -0.058028 
0.038319 0.040128 0.041278 -0.034023 -0.10571 -0.022843 0.010369 -0.010183 
0.14058 0.088958 0.14815 -0.024652 -0.025967 0.013164 0.031742 0.015794 
0.14897 0.10704 0.088465 -0.0059084 0.071037 0.071037 0.022371 -0.016102 
0.084355 0.072024 -0.043395 -0.012649 0.1105 0.1003 -0.00015387 -0.044217 
0.017767 0.059364 0.01267 -0.010019 0.086821 0.071202 -0.024652 -0.024323 
-0.0091966 0.0324 0.073997 0.01152 0.057884 0.027303 0.0065871 0.024673 
0.0039565 0.033222 0.11625 0.043251 0.017438 -0.0036066 0.018425 0.046868 
0.024673 0.034537 0.08567 0.040785 -0.02235 -0.024487 0.027796 0.060679 
0.069722 0.039305 0.054596 0.043251 -0.041422 -0.031557 0.02681 -0.022843 
0.074326 0.024344 0.005765 0.039799 -0.095678 -0.078908 0.04506 -0.035174 
-0.019226 0.011848 -0.07266 -0.017911 -0.15224 -0.086964 0.056898 0.015465 
-0.145 0.02122 -0.058356 -0.062467 -0.20534 -0.038627 0.053445 0.095535 
-0.20436 -0.0022913 -0.072003 -0.043888 -0.071181 0.050979 0.0592 0.096193 
-0.078579 0.01826 -0.0098543 -0.0034422 0.0032988 0.052623 0.018918 0.13664 
0.10524 0.064954 0.0227 0.011026 0.056569 -0.014787 -0.065426 0.12118 
0.171 0.093891 0.12085 0.096357 0.1322 -0.07266 -0.14615 0.088136 
0.14617 0.097508 0.17396 0.19796 0.28116 -0.028762 -0.10916 0.042758 
0.066763 0.099152 0.19451 0.26455 0.42683 0.077285 -0.056712 0.011355 
0.035031 0.08008 0.159 0.29431 0.5845 0.1738 0.04654 -0.11327 
0.014479 0.076627 0.12201 0.24351 0.58615 0.1955 0.092082 -0.14188 
-0.0059084 0.067913 0.10688 0.17084 0.47698 0.18876 0.077778 -0.061151 
0.12809 0.052294 0.074654 0.13105 0.49144 0.22049 0.079751 0.091425 
0.21358 0.084355 0.082053 0.12365 0.37767 0.24696 0.15324 0.26324 
0.17939 0.10244 0.11362 0.12381 0.12562 0.19665 0.24022 0.30812 
0.10704 0.090109 0.12546 0.031907 -0.21175 0.012506 0.14716 0.1927 
0.00033937 0.073668 0.12644 -0.061809 -0.35841 -0.12774 0.029769 0.061337 
-0.02498 0.054925 0.038483 -0.1062 -0.40001 -0.15141 -0.019555 -0.040928 
-0.039778 0.012506 -0.068714 -0.12429 -0.32043 -0.19186 -0.087129 -0.15109 
-0.084827 -0.02087 -0.18611 -0.13612 -0.19038 -0.1381 -0.095185 -0.2134 
-0.11787 -0.056548 -0.14533 -0.094034 -0.078744 -0.054246 -0.0771 -0.16013 
-0.089759 -0.046519 -0.055561 0.0060938 0.0034632 0.044731 -0.010183 0.020398 
-0.047505 0.004943 0.040128 0.011026 0.0021479 0.083368 0.036346 0.15768 
0.024508 0.073997 0.14075 -0.0014692 -0.087458 0.034373 0.044731 0.16393 
0.086985 0.087808 0.16673 0.0085601 -0.17082 -0.055561 0.033387 0.1202 
0.086328 0.061501 0.16853 0.032236 -0.16177 -0.10784 0.0067515 0.062323 
0.027632 0.048348 0.13171 0.0324 -0.096994 -0.0771 0.014643 -0.018897 
-0.008539 0.079094 0.12973 0.071695 -0.014951 -0.049971 -0.00097594 -0.047176 
-0.033859 0.070708 0.1391 0.12497 0.048513 -0.018733 0.022206 -0.0044286 
-0.060494 0.051965 0.19468 0.10376 0.062159 -0.010512 0.044402 0.01152 
-0.078086 0.06331 0.2759 0.11773 0.086492 0.01826 0.030592 0.020562 
-0.091404 0.10228 0.32423 0.17791 0.086492 0.029441 0.028783 0.05213 
-0.040435 0.14568 0.24597 0.1419 0.049499 0.024344 0.044896 0.097837 
0.049664 0.060844 0.027796 0.05213 -0.0503 0.010862 0.07301 0.1008 
0.11691 -0.0055795 -0.18117 -0.031392 -0.079401 0.048841 0.092411 0.16114 
0.14913 -0.050793 -0.25467 -0.073976 -0.064275 0.061008 0.081231 0.19862 
0.12283 -0.040106 -0.30284 -0.13892 -0.049971 0.044567 0.073339 0.18974 
0.042594 -0.044217 -0.29659 -0.15043 -0.071345 -0.043559 -0.00081153 0.061172 
-0.0067304 -0.028433 -0.21291 -0.11294 -0.10554 -0.13596 -0.041257 -0.065755 
-0.047998 -0.0059084 -0.10735 -0.11228 -0.22672 -0.20436 -0.073647 -0.15437 
-0.03764 0.005765 -0.023007 -0.1279 -0.29478 -0.10521 -0.024652 -0.1039 
-0.072496 0.023686 0.077943 -0.10801 -0.21225 0.066927 0.06035 -0.028104 
-0.10341 0.068242 0.27968 0.081724 0.015465 0.15456 0.082217 0.00033937 
-0.020706 0.097179 0.35794 0.2001 0.25058 0.14404 0.041278 -0.031228 
0.094055 0.10359 0.35334 0.21671 0.31338 0.047033 -0.09798 -0.15816 
0.092576 0.15226 0.23151 0.21786 0.33854 -0.03616 -0.13596 -0.11886 
0.10129 0.12069 0.23085 0.21112 0.3313 -0.0021268 -0.017911 0.096028 
0.10145 0.096686 0.24828 0.26981 0.37948 0.11625 0.19665 0.2948 
0.027303 0.065283 0.21802 0.1179 0.22855 0.16245 0.20717 0.27639 
-0.043888 0.085177 0.11592 0.052294 0.12102 0.17149 0.14338 0.1858 
0.029112 0.099316 0.047033 0.035853 0.19583 0.21161 0.14913 0.099316 
0.1687 0.14716 -0.022185 0.086492 0.20208 0.20651 0.11346 0.03799 
0.2075 0.094055 -0.1695 0.044896 0.084355 0.12644 0.063639 -0.058685 
0.21852 0.042429 -0.24513 -0.076113 -0.14582 -0.0060728 0.019905 -0.1159 
0.1054 -0.012649 -0.22261 -0.12231 -0.34296 -0.10686 -0.013143 -0.12412 
-0.0019624 -0.040764 -0.18479 -0.10291 -0.4398 -0.13234 -0.02235 -0.073976 
-0.045696 -0.033037 -0.14484 -0.10932 -0.40132 -0.16128 -0.024652 -0.011827 
-0.040106 -0.013143 -0.086142 -0.11557 -0.31797 -0.12166 -0.014129 0.024015 
-0.048492 0.0065871 -0.020212 -0.1039 -0.21011 -0.074798 -0.041751 0.029441 
-0.1256 -0.0057439 0.0062583 -0.017088 -0.08121 -0.050958 -0.028926 0.013986 
-0.1427 -0.013471 0.025824 0.015137 -0.0067304 -0.024816 -0.0057439 0.051636 
-0.14056 0.0065871 0.02533 0.014808 0.021878 -0.011663 -0.0013048 0.025659 
-0.11771 0.075148 0.077943 0.060186 -0.025802 0.016781 0.0324 0.038319 
-0.0019624 0.091425 0.15078 0.061666 -0.045368 0.063803 0.089287 0.067913 
0.060844 0.082546 0.046046 -0.024487 -0.025309 0.11115 0.12677 0.068242 
0.010862 0.00050378 -0.087951 -0.09387 0.024344 0.097015 0.071202 -0.031064 
-0.029584 -0.011663 -0.13284 -0.08121 0.055418 -0.011498 -0.038298 -0.10176 
0.028947 0.023193 -0.0068948 -0.00097594 0.17445 -0.042244 -0.12675 -0.13547 
0.18613 0.10951 0.16574 0.14765 0.31125 0.017274 -0.080388 -0.050136 
0.26209 0.1738 0.18498 0.305 0.48092 0.1299 0.00083261 -0.003771 
0.22739 0.16229 0.063803 0.32752 0.56691 0.22444 0.029934 -0.051615 
0.1202 0.11247 -0.074633 0.24433 0.48635 0.30631 0.072188 -0.088608 
0.051801 0.062488 -0.049478 0.15522 0.37274 0.2736 0.091753 -0.031392 
0.015301 0.024344 -0.062467 0.1322 0.29086 0.22131 0.12168 0.11905 
0.031907 0.028454 -0.068221 0.033551 0.21375 0.18826 0.11231 0.18251 
0.0039565 0.040292 -0.056548 -0.031557 0.14239 0.1008 0.057227 0.14996 
-0.043888 0.028619 0.0028056 -0.0014692 0.025495 -0.028597 0.01152 0.082382 
0.022864 0.0054362 0.086328 0.015465 -0.079072 -0.13793 -0.00081153 0.098988 
0.056076 0.050486 0.03947 0.010862 -0.1358 -0.14139 -0.013636 0.051308 
0.077614 0.094055 -0.028104 -0.015116 -0.121 -0.079401 0.0069159 -0.0036066 
0.13927 0.037497 -0.11212 -0.044874 -0.15602 -0.049314 0.010369 -0.063289 
0.0786 -0.062138 -0.12955 -0.093541 -0.19811 -0.01676 0.02829 -0.051122 
-0.035996 -0.05737 0.013657 -0.08532 -0.18249 0.0052718 0.053774 0.028454 
-0.14944 -0.034352 0.12792 -0.018239 -0.14878 0.0065871 0.046868 -0.0022913 
-0.22688 -0.016102 0.10507 0.011191 -0.11294 -0.030899 -0.022843 -0.092883 
-0.25943 0.00297 0.064132 0.013492 -0.060987 -0.03501 -0.036489 -0.12922 
-0.10127 0.080409 0.14601 0.090109 0.023686 -0.004593 -0.02235 -0.043724 
0.082382 0.11214 0.20684 0.12562 0.071037 -0.014458 0.010204 0.023028 
0.21589 0.12431 0.19484 0.095371 0.074326 -0.008539 0.026974 0.090931 
0.21293 0.074654 0.1539 0.071037 0.10606 0.066269 0.055582 0.16064 
0.16821 0.095042 0.1733 0.14157 0.14091 0.1391 0.10967 0.14979 
0.12694 0.12973 0.17873 0.14996 0.11444 0.12891 0.093726 0.09685 
0.098166 0.15966 0.0054362 0.08156 0.056569 0.091589 0.06331 0.08978 
0.098659 0.074654 -0.12215 -0.024652 -0.049971 0.028619 0.042758 0.084519 
0.1197 -0.040435 -0.18232 -0.086471 -0.083676 -0.037805 0.020398 0.15505 
0.073504 -0.069536 -0.16818 -0.09387 -0.075784 -0.072989 0.025495 0.15357 
-0.030077 -0.033365 -0.048492 -0.06148 -0.063289 -0.10176 -0.018404 0.12151 
-0.084005 -0.0064016 0.035195 0.017932 -0.088444 -0.14582 -0.036489 0.09685 
0.014643 0.021056 0.093726 0.021549 -0.12133 -0.121 -0.024487 0.077778 
0.069393 0.041607 0.10951 0.063803 -0.076606 -0.05737 -0.0047575 0.010862 
0.014479 0.06742 0.081889 0.0072447 -0.092061 -0.015609 0.009711 -0.15783 
-0.058521 0.050321 -0.012978 -0.038627 -0.13793 -0.012978 0.0054362 -0.19252 
-0.075291 0.0083956 -0.059507 -0.051944 -0.17098 -0.038791 0.0054362 -0.15043 
-0.011334 0.0092177 0.005765 -0.030735 -0.18249 -0.11163 -0.03616 -0.06148 
0.037004 0.0044497 0.086163 0.01415 -0.15618 -0.14533 -0.027775 0.0014903 
0.017438 0.031907 0.20092 0.026481 -0.041586 -0.089266 -0.012978 0.10984 
-0.010512 0.024508 0.19188 0.1026 0.16196 0.016123 0.030756 0.15522 
-0.033037 0.0098754 0.12776 0.13483 0.25715 0.11115 0.058871 0.1738 
-0.066413 -0.022185 0.073339 0.11148 0.21457 0.13861 0.072846 0.14371 
0.039141 0.017767 0.050979 0.035688 0.13417 0.11937 0.096028 0.1562 
0.2006 0.12579 0.14206 0.12069 0.18333 0.12398 0.12842 0.18991 
0.22444 0.2149 0.20947 0.1516 0.25535 0.1539 0.16212 0.15242 
0.15324 0.17001 0.16459 0.091918 0.29661 0.18695 0.099152 -0.015116 
0.18152 0.064954 0.055089 0.073504 0.34479 0.22476 0.076792 -0.07562 
0.18021 0.031249 0.020398 0.094548 0.30566 0.20668 0.079094 0.0052718 
0.15933 0.08008 0.0083956 0.085835 0.13565 0.12595 0.064954 0.070544 
0.083533 0.070215 -0.10916 -0.017417 -0.097487 -0.031228 0.036017 0.063968 
-0.0087034 -0.001798 -0.21455 -0.12462 -0.26897 -0.12757 -0.026131 0.020069 
-0.084663 -0.035338 -0.19942 -0.133 -0.25532 -0.12314 -0.043066 -0.043559 
-0.13958 -0.057863 -0.10209 -0.10998 -0.1085 -0.070852 -0.053588 -0.12429 
-0.14698 -0.065919 -0.052766 -0.059343 -0.010512 -0.034352 -0.056219 -0.052109 
-0.082854 -0.032379 -0.0064016 -0.037147 -0.069043 -0.065919 -0.055561 -0.0024557 
0.038155 -0.0091966 -0.019555 -0.061316 -0.15092 -0.056219 0.0041209 0.1641 
0.13565 -0.0060728 -0.077757 -0.052437 -0.18167 -0.048327 0.066927 0.20602 
0.18432 0.032236 -0.015773 -0.05885 -0.14434 -0.028104 0.048841 0.090767 
0.11691 0.032071 -0.028104 -0.030899 -0.067399 -0.021528 0.031249 -0.069372 
-0.034516 0.070051 -0.023172 -0.010019 -0.001798 0.01826 0.0072447 -0.14303 
-0.066413 0.083533 0.017932 0.037661 0.085506 0.033551 0.023193 -0.15865 
-0.096172 0.075312 0.01974 0.072188 0.16146 0.09422 0.055747 -0.14221 
-0.067235 0.065776 -0.019555 0.081231 0.19122 0.1641 0.059857 -0.028269 
0.032236 0.057555 -0.089102 0.086821 0.2218 0.19977 0.069064 0.12381 
0.1738 0.07449 -0.093541 0.073832 0.21605 0.2006 0.082546 0.17659 
0.18498 0.04917 -0.056219 0.11346 0.26718 0.14091 0.042594 0.12743 
0.21293 0.033058 0.075805 0.071202 0.24581 0.057555 0.018589 0.14321 
0.19632 0.023193 0.17297 0.068571 0.1853 0.082875 0.066434 0.18777 
0.18678 0.055089 0.15916 0.15209 0.20092 0.15111 0.15883 0.28149 
0.095864 0.045882 0.096686 0.10589 0.19122 0.11362 0.1419 0.22526 
-0.026296 0.019411 0.031742 -0.038627 0.13861 -0.0072237 0.0046141 0.09685 
-0.14122 0.013821 0.031414 -0.074633 0.047855 -0.09239 -0.11508 -0.037476 
-0.10538 0.043416 -0.0021268 -0.0019624 0.067585 -0.091568 -0.1182 -0.11541 
0.016288 0.043909 0.035195 0.077285 0.13434 -0.018404 -0.074304 -0.16539 
0.056898 0.050321 0.11066 0.17692 0.19665 0.014643 -0.0042642 -0.15914 
0.056076 0.12168 0.2075 0.23249 0.18826 0.065612 0.085835 -0.11689 
0.059364 0.19402 0.27343 0.22444 0.14469 0.17297 0.11674 -0.13843 
0.064296 0.20208 0.20569 0.13697 0.0036276 0.1904 0.09981 -0.16276 
0.023851 0.10507 0.077943 0.044073 -0.1963 0.081889 0.028125 -0.10341 
-0.014129 0.034373 -0.015116 -0.040435 -0.36351 -0.083512 -0.0049219 0.05065 
0.038319 0.028125 -0.00081153 -0.10604 -0.40872 -0.16818 -0.023007 0.15357 
0.096357 0.065612 0.0047785 -0.096829 -0.32931 -0.18068 -0.041586 0.16673 
0.13878 0.054432 0.0044497 -0.018404 -0.18315 -0.11771 -0.028269 0.20175 
0.066269 0.017767 -0.018404 -0.035338 -0.079895 -0.066741 -0.032872 0.22065 
-0.1205 -0.0014692 -0.00097594 -0.035832 -0.034188 -0.086636 -0.018897 0.11362 
-0.24398 -0.0044286 0.013164 -0.0055795 0.00033937 -0.059836 -0.017911 -0.027282 
-0.14221 -0.038133 -0.065262 0.010533 -0.0011404 -0.046683 0.0064227 -0.046354 
0.078765 -0.012978 -0.053753 0.00083261 0.10129 0.03799 0.027139 0.0088889 
0.18415 0.029934 0.011026 0.060186 0.25452 0.10836 0.053774 -0.033201 
0.2006 0.080573 0.097672 0.13417 0.39181 0.20388 0.067091 -0.16194 
0.058706 0.09833 0.13598 0.12201 0.31914 0.20306 0.066434 -0.22968 
-0.089924 0.072353 0.096028 0.079916 0.11181 0.097508 0.046211 -0.13004 
-0.19548 0.080244 0.10359 0.0786 -0.059178 0.0044497 0.022535 -0.053588 
-0.25549 0.068407 0.12414 0.071695 -0.19285 -0.11952 -0.001798 -0.018404 
-0.15043 0.086657 0.12217 0.037497 -0.27982 -0.25088 -0.021692 0.034044 
0.0098754 0.080409 0.065118 -0.01232 -0.35364 -0.25565 -0.023007 0.080738 
0.12809 0.060022 0.0421 -0.0016336 -0.35759 -0.19696 -0.0087034 0.12217 
0.23035 0.053281 0.02829 -0.05885 -0.30711 -0.10982 0.027303 0.14716 
0.28214 0.087643 -0.0016336 -0.056383 -0.2642 -0.041586 0.058377 0.14486 
0.23874 0.082053 0.018918 -0.060165 -0.15668 0.072353 0.075476 0.042429 
0.1271 0.038155 -0.042408 -0.094034 -0.089595 0.14387 0.063145 -0.044217 
0.059857 0.017438 -0.0868 -0.084827 0.0047785 0.17166 0.034209 -0.028597 
-0.010676 0.0092177 -0.042244 -0.062467 0.0592 0.095699 -0.0039354 -0.010019 
-0.10719 -0.00015387 0.063803 0.063803 0.19188 -0.042079 -0.09387 -0.050629 
-0.16457 0.031578 0.16048 0.19007 0.44623 -0.086142 -0.1552 -0.068221 
-0.16605 0.10063 0.19172 0.29102 0.78114 0.17676 -0.055397 -0.032872 
-0.11804 0.1373 0.22739 0.41664 0.96183 0.46711 0.12036 0.058706 
-0.054575 0.14469 0.17363 0.33295 0.8035 0.54587 0.21885 0.092247 
-0.076771 0.050486 0.075476 0.14437 0.37948 0.3877 0.22427 0.073175 
-0.066084 -0.013965 -0.060823 -0.020706 -0.057534 0.10852 0.11707 0.0592 
0.034044 -0.025967 -0.15898 -0.16703 -0.39705 -0.10768 0.049992 0.063803 
0.11263 -0.017911 -0.2083 -0.29084 -0.5345 -0.24661 -0.017746 0.079587 
0.12743 -0.02235 -0.15635 -0.25039 -0.47482 -0.28492 -0.040928 0.053445 
0.17067 0.020562 -0.068386 -0.092554 -0.3109 -0.20173 -0.012156 0.068571 
0.2121 0.013164 -0.060823 -0.035667 -0.15717 -0.09798 -0.00015387 0.019247 
0.19155 0.045224 -0.062796 -0.025145 -0.094034 -0.017088 0.030756 0.010204 
0.13878 0.049335 -0.058028 -0.0077169 -0.030242 0.031578 0.042758 0.033551 
0.085012 0.040128 -0.034023 -0.0057439 -0.013965 0.050979 0.05624 0.070708 
0.0227 0.0075736 -0.024652 -0.035832 0.014315 0.065612 0.056404 0.074819 
-0.01117 -0.014951 -0.06296 -0.023501 0.038648 0.10376 0.071037 0.052623 
-0.0087034 -0.0087034 -0.070852 0.021878 0.086657 0.091096 0.055582 0.073668 
0.014479 0.010862 -0.065426 0.031907 0.13236 0.10655 0.062323 0.073832 
0.021549 0.049335 -0.043888 0.029276 0.16081 0.080573 0.074654 0.042758 
0.078107 0.10425 -0.028269 0.042429 0.16245 0.088465 0.054596 0.027632 
0.069393 0.10425 -0.021856 0.026481 0.1391 0.071531 0.027303 0.046046 
0.033387 0.029934 -0.01232 0.0069159 0.15949 0.067749 0.018589 0.046375 
-0.02794 -0.038462 0.082711 0.03651 0.17462 0.072846 0.031742 0.10491 
-0.066248 -0.037805 0.17117 0.096028 0.12891 0.066927 0.035853 0.11905 
-0.081703 -0.019061 0.069722 0.044073 0.034866 0.052294 0.04654 0.12595 
-0.041093 -0.022843 -0.054575 -0.022843 -0.099789 0.04506 0.063803 0.062981 
0.051636 -0.0087034 -0.12445 -0.087786 -0.19893 0.025659 0.090438 0.055747 
0.087314 -0.0054151 -0.069701 -0.10423 -0.20403 0.004943 0.079751 0.080409 
0.045389 0.0093821 0.085341 -0.10571 -0.19498 -0.062631 -0.017417 0.098494 
-0.029255 0.022371 0.13203 -0.094034 -0.18676 -0.1649 -0.11705 0.038812 
0.013492 0.059857 0.16755 -0.018568 -0.16621 -0.20896 -0.099295 -0.018075 
0.13713 0.14733 0.23118 0.15735 0.10606 -0.14336 -0.080552 -0.056877 
0.21769 0.23907 0.26274 0.27754 0.30122 -0.018568 0.03536 -0.013307 
0.20684 0.1659 0.13088 0.21983 0.40907 0.10852 0.07597 -0.010019 
0.16706 0.054103 0.029276 0.17084 0.41532 0.1465 0.020727 -0.031064 
0.08419 -0.025474 0.044402 0.17084 0.32687 0.088136 1.0539e-005 -0.018897 
0.018589 0.0041209 0.14963 0.20273 0.28461 0.10803 0.044073 0.0080668 
-0.050793 0.10902 0.31667 0.24121 0.17626 0.090438 0.073339 0.07449 
-0.076935 0.1544 0.31273 0.25699 0.075312 0.071695 0.10228 0.12069 
-0.082361 0.097015 0.18366 0.19188 -0.053753 0.045718 0.094877 0.1853 
-0.051287 0.03536 0.080244 0.088136 -0.1912 -0.014787 0.074819 0.11165 
-0.037476 0.045389 0.03799 -0.074633 -0.27407 -0.045039 0.058706 0.050486 
0.041772 0.084355 0.028619 -0.17213 -0.29002 -0.050629 0.042594 -0.0503 
0.099316 0.055254 -0.022679 -0.20205 -0.29281 -0.077264 -0.0096899 -0.08384 
0.14601 -0.00015387 0.012506 -0.15552 -0.27851 -0.12412 -0.025309 -0.07562 
0.13236 -0.023007 0.043416 -0.10949 -0.19498 -0.11212 -0.026953 0.016781 
0.10655 0.033715 0.037826 -0.034023 -0.072989 -0.072003 -0.0078813 0.05772 
0.067913 0.044073 0.023686 0.057391 -0.0080457 -0.02235 0.0074092 0.049664 
0.014808 0.047526 -0.022843 0.049006 0.013657 -0.03353 -0.016431 0.052459 
-0.0073881 0.057227 -0.021692 0.045882 0.01563 -0.01939 -0.014458 0.028125 
-0.035174 0.053445 0.020398 0.049664 0.027961 -0.010019 -0.018075 -0.0096899 
-0.039449 0.033715 0.071037 0.081889 0.044567 0.015465 0.033387 -0.035832 
-0.044217 0.059693 0.11757 0.098659 0.09274 0.027139 0.0092177 -0.064768 
-0.0082102 0.071366 0.12529 0.1248 0.073504 0.032236 0.013986 -0.07414 
0.034209 0.10113 0.12118 0.13187 0.013328 0.040128 0.01415 -0.050136 
0.06594 0.10721 0.095206 0.069393 -0.040435 0.040621 0.044402 0.033387 
0.048841 0.10935 0.086821 0.044402 0.00066819 0.059528 0.062488 0.10622 
0.1031 0.072353 0.044896 0.054432 0.042923 0.021549 0.057391 0.058706 
0.080902 0.039963 -0.0026201 0.032564 0.043251 0.009711 0.051472 0.040456 
0.037332 0.051801 -0.036325 -0.008539 0.018754 0.018425 0.034373 0.095864 
-0.001798 0.017274 -0.054082 -0.015609 0.042758 0.068242 0.090274 0.038977 
-0.063124 0.01415 -0.027775 0.021056 0.090109 0.079094 0.050157 -0.11837 
-0.15832 -0.01232 -0.075455 -0.040764 0.069886 0.040128 -0.0087034 -0.16227 
-0.21521 0.022371 -0.10538 -0.098309 0.066763 0.013164 -0.057863 -0.086307 
-0.13021 0.046704 -0.074469 -0.0078813 0.20619 0.018096 -0.063782 0.033715 
0.021056 0.099974 0.0019835 0.12661 0.37339 0.1151 0.0059294 0.13828 
0.17692 0.1322 0.039963 0.15472 0.32012 0.14601 0.082546 0.086163 
0.19418 0.11543 -0.044217 0.022371 0.12069 0.15703 0.057227 0.0036276 
0.13976 0.0080668 -0.1085 -0.065591 -0.070852 0.095699 0.026317 0.00066819 
0.097344 -0.066413 -0.060494 -0.066084 -0.18824 0.075312 0.051801 0.13351 
0.10425 -0.0064016 0.036017 0.01563 -0.2767 0.029934 0.085341 0.20684 
0.055089 0.038648 -0.0060728 -0.031392 -0.39886 -0.0771 0.031578 0.18465 
0.041607 0.068242 -0.075784 -0.13234 -0.36121 -0.14023 -0.052437 0.059857 
-0.037805 0.0421 -0.056055 -0.099789 -0.14352 -0.14878 -0.096007 -0.070687 
-0.089266 0.0093821 -0.07266 -0.040271 0.094877 -0.13119 -0.12725 -0.20041 
0.034373 0.00066819 -0.042408 0.030263 0.28214 -0.07003 -0.097651 -0.16457 
0.12414 0.053281 -0.021034 0.1031 0.43258 0.081889 0.015794 -0.074304 
0.094713 0.058706 0.078436 0.18284 0.50756 0.27886 0.18284 0.049499 
-0.07414 0.012506 0.037168 0.17396 0.46333 0.38096 0.22263 0.094548 
-0.2522 -0.0019624 -0.030899 0.099152 0.27475 0.33821 0.20503 0.096521 
-0.33243 0.0037921 -0.075291 0.0024767 0.041278 0.21424 0.13088 0.029276 
-0.31238 0.035195 -0.086307 -0.055068 -0.084498 0.083368 0.055254 -0.030406 
-0.28985 0.039799 -0.076606 -0.074798 -0.17197 -0.052602 -0.01528 -0.070523 
-0.2203 -0.0096899 -0.042901 -0.09091 -0.2014 -0.1136 -0.066084 -0.033037 
-0.014129 0.0069159 0.00033937 -0.075455 -0.20485 -0.15585 -0.036983 0.098659 
0.16229 0.0016547 -0.0064016 -0.031228 -0.17575 -0.15355 -0.036325 0.15341 
0.28428 0.013164 -0.039449 -0.026296 -0.10719 -0.12412 -0.041093 0.15719 
0.3563 0.028125 -0.075784 -0.034681 -0.021034 -0.068714 -0.028433 0.1391 
0.32128 0.028619 -0.05589 0.014808 0.099152 0.035853 0.016123 0.1733 
0.23381 0.063968 0.056569 0.077285 0.14683 0.082382 0.063474 0.10376 
0.14174 0.063639 0.090438 0.08978 0.1077 0.09274 0.077449 0.034044 
0.058542 0.082217 0.091425 0.07597 -0.0014692 0.036182 0.054432 -0.03205 
0.049828 0.053938 0.051472 0.042265 -0.096994 -0.00031829 0.036839 -0.023336 
-0.00081153 0.020398 0.0075736 -0.013636 -0.15306 -0.015609 0.071202 0.0067515 
-0.085978 -0.027282 0.027139 -0.030406 -0.093541 -0.027118 0.05476 0.041772 
-0.1644 -0.010676 0.012177 0.015301 0.047362 0.057884 0.069886 0.048348 
-0.27374 -0.096007 0.042923 0.054103 0.10507 0.099645 0.084848 -0.031228 
-0.28919 -0.092883 0.099974 0.041443 0.12365 0.086163 0.044238 -0.054739 
-0.2014 -0.019884 0.26653 0.080573 0.11954 0.017438 -0.014787 -0.062796 
-0.0088678 0.074819 0.32571 0.13269 0.23381 0.012013 -0.026789 0.05065 
0.082217 0.12365 0.23874 0.15407 0.30763 0.076134 0.0085601 0.082875 
0.075312 0.1294 0.17593 0.20931 0.43834 0.13088 0.052623 0.092411 
0.067749 0.13056 0.17265 0.27475 0.5776 0.26998 0.11214 0.035688 
0.10672 0.13762 0.23956 0.26998 0.55688 0.30303 0.16344 -0.00064712 
0.15028 0.14831 0.22674 0.19336 0.30582 0.21095 0.10935 -0.018568 
0.25041 0.1562 0.22 0.12661 -0.0049219 0.062323 0.06479 0.067749 
0.29332 0.147 0.10392 0.087808 -0.20863 -0.072825 0.0087245 0.093726 
0.25337 0.051636 -0.081045 -0.037311 -0.33605 -0.14319 -0.027118 0.017767 
0.14206 0.013164 -0.12067 -0.097651 -0.32323 -0.18282 -0.02646 -0.11672 
0.04917 0.016781 -0.055726 -0.027611 -0.22425 -0.11722 -0.017582 -0.11409 
0.033715 0.079587 0.099481 0.004943 -0.096829 -0.023172 0.049499 0.014808 
0.11724 0.062817 0.12694 0.020069 -0.0868 0.03536 0.060022 0.20734 
0.20043 0.046046 0.12118 -0.069865 -0.093705 0.00099702 0.11691 0.31453 
0.17971 0.022206 -0.0029489 -0.043395 -0.13941 -0.011663 0.076956 0.28626 
0.13582 0.0018191 -0.0088678 -0.10456 -0.1478 -0.024816 0.055911 0.20799 
0.069393 -0.023994 -0.018404 -0.07825 -0.13399 -0.03616 0.020727 0.1493 
-0.035338 -0.038791 0.030427 -0.056548 -0.12149 -0.016431 0.029112 0.10902 
-0.1279 -0.039449 0.10096 -0.016595 -0.11015 -0.0096899 0.017274 -0.032215 
-0.15898 0.049499 0.1105 0.0032988 -0.056219 -0.0029489 0.0018191 -0.13892 
-0.21603 0.14535 0.10474 0.058213 0.011684 -0.0080457 -0.027611 -0.17887 
-0.15454 0.16985 0.057884 0.086492 0.072846 0.0054362 -0.026131 -0.15898 
0.027632 0.14009 0.032729 0.078765 0.14223 0.046704 -0.01528 -0.1473 
0.23249 0.10096 0.01974 0.05476 0.15637 0.05213 0.039141 -0.0014692 
0.30089 0.10672 -0.001798 0.073668 0.12546 0.035688 0.043251 0.18481 
0.26998 0.060515 0.0227 0.033058 0.085506 0.027632 0.05772 0.18185 
0.17199 0.02681 0.040128 0.016781 0.10014 0.057884 0.02122 0.055089 
0.11526 0.039963 0.035524 0.033387 0.11674 0.026974 0.044567 0.028783 
0.12151 0.079751 0.058213 0.10885 0.17133 0.034373 0.056898 0.078929 
0.093069 0.12316 0.03799 0.097672 0.18843 0.029769 0.028619 0.031085 
0.10754 0.12118 0.049006 0.063474 0.05476 0.0090533 -0.012156 -0.078415 
0.090603 0.058377 0.015465 0.030592 -0.11837 0.0085601 -0.032543 -0.22392 
0.071531 0.012342 -0.023994 -0.078744 -0.31386 0.0051074 -0.014458 -0.25483 
0.055418 0.01152 -0.057205 -0.13481 -0.41678 -0.062796 -0.049478 -0.15092 
0.074326 0.0072447 -0.078086 -0.14714 -0.44621 -0.050464 -0.055561 0.0067515 
0.051472 -0.017746 -0.085156 -0.16555 -0.35364 -0.063453 -0.043724 0.11362 
-0.016595 -0.029748 -0.10834 -0.18348 -0.17443 -0.081539 -0.01528 0.1881 
-0.075455 0.013492 -0.096336 -0.11245 0.084355 -0.051287 0.034209 0.18152 
-0.093541 -0.0011404 -0.14188 -0.0098543 0.32999 -0.035503 0.01004 0.084026 
-0.069536 0.025495 -0.056055 0.1105 0.56346 0.028619 0.0062583 0.04506 
-0.014458 0.075312 0.060679 0.26751 0.62067 0.051965 -0.020377 0.017274 
-0.038462 0.048513 0.072024 0.27228 0.48717 -0.012156 -0.050464 -0.035174 
-0.064111 0.0060938 0.10688 0.21572 0.33361 0.0095465 -0.0060728 -0.063782 
0.017438 0.0074092 0.13598 0.19336 0.17034 0.1294 0.1202 0.020727 
0.097015 0.031907 0.11658 0.094384 -0.0026201 0.19205 0.14272 0.029112 
0.15423 0.061995 0.044073 -0.02235 -0.18117 0.10754 0.10425 0.072846 
0.20767 0.069722 -0.018568 -0.11639 -0.30317 -0.0052507 0.10211 0.069558 
0.30582 0.0592 -0.037969 -0.15059 -0.34542 -0.023501 0.091589 0.12612 
0.317 0.047526 -0.043888 -0.083018 -0.27719 -0.030899 0.064132 0.1299 
0.16673 0.026646 -0.055561 -0.08384 -0.2305 -0.054739 0.00083261 0.068242 
0.054267 0.062817 -0.082361 -0.10834 -0.17969 -0.06444 -0.01676 0.058213 
0.019083 0.04917 -0.098638 -0.083347 -0.10686 -0.039778 0.0031344 0.046375 
-0.057041 0.034866 -0.17443 -0.095021 -0.057699 -0.044874 0.0051074 0.037497 
-0.22491 0.00050378 -0.10982 -0.098638 -0.066084 -0.025145 -0.019555 -0.02942 
-0.31945 0.017438 -0.059178 -0.040435 0.044567 0.020398 -0.004593 -0.10061 
-0.3035 -0.022679 -0.015609 0.056898 0.21934 0.038812 -0.028762 -0.16539 
-0.3839 -0.030735 0.016781 0.13927 0.37224 0.0227 -0.06148 -0.36597 
-0.47432 -0.019061 0.051801 0.15834 0.35646 -0.028762 -0.11327 -0.50951 
-0.29429 0.019905 0.077449 0.15028 0.23759 -0.064768 -0.073811 -0.3132 
0.11905 0.03092 0.097672 0.15752 0.16673 0.022864 0.0324 0.029276 
0.43045 0.036839 0.12266 0.079587 0.14289 0.16081 0.18267 0.36863 
0.52482 0.053445 0.1128 0.023686 0.11839 0.27507 0.23973 0.50049 
0.4362 0.11839 0.091753 0.045389 0.071037 0.24499 0.18021 0.42979 
0.22164 0.15012 0.084519 0.06331 0.0786 0.13302 0.050486 0.2657 
0.020069 0.068242 0.09833 0.061501 0.12957 0.017932 -0.020377 0.159 
-0.11705 -0.048656 0.091096 0.079751 0.15604 -0.025474 -0.042573 0.081231 
-0.17131 -0.028597 0.079422 0.090931 0.19336 -0.012814 -0.040435 0.04506 
-0.14747 0.075641 0.11559 0.1636 0.31371 0.12497 0.018589 0.044567 
-0.02942 0.10951 0.17462 0.21178 0.36534 0.17412 0.091918 0.083204 
0.067091 0.11378 0.17511 0.17906 0.22411 0.13302 0.11773 0.15933 
0.038812 0.083697 0.13368 0.061337 -0.047505 0.071366 0.15719 0.14946 
-0.024158 0.044567 0.023851 -0.008539 -0.18791 0.021713 0.12135 0.10524 
-0.063782 0.019905 -0.047341 -0.064111 -0.2476 -0.010512 0.055582 -0.0091966 
-0.11755 -0.031228 -0.077757 -0.10571 -0.31846 -0.092226 -0.048327 -0.17049 
-0.15273 -0.030406 -0.062796 -0.13284 -0.40609 -0.17608 -0.1085 -0.29413 
-0.1113 0.02829 -0.035832 -0.13284 -0.42434 -0.19893 -0.12363 -0.24316 
0.024508 0.12957 -0.026131 -0.075455 -0.34131 -0.15881 -0.090417 -0.12741 
0.21391 0.17034 0.0039565 -0.034023 -0.18019 -0.12264 -0.051287 -0.0044286 
0.24252 0.17429 0.037497 0.026646 0.023357 -0.040928 0.0044497 0.097508 
0.16919 0.088301 0.057555 0.079751 0.18054 0.045718 0.068407 0.21474 
0.12069 -0.0055795 0.0028056 0.14124 0.39543 0.17758 0.08156 0.23529 
0.054596 -0.059836 0.055089 0.21293 0.50147 0.23627 0.11757 0.24153 
-0.042573 -0.03912 0.075312 0.24548 0.41285 0.19501 0.11773 0.1978 
-0.046683 -0.012978 0.12513 0.2246 0.27113 0.095042 0.089616 0.12694 
0.031907 0.086985 0.17971 0.12447 0.15571 0.040128 0.061995 0.029934 
0.034209 0.1493 0.1613 0.056733 0.12546 0.067749 0.022371 -0.12149 
0.02829 0.12908 0.14634 0.062488 0.079587 0.12694 0.01004 -0.16227 
0.025659 0.082382 0.14716 0.062323 -0.0064016 0.067091 0.024344 -0.14287 
0.053445 0.078107 0.1391 0.016781 -0.145 0.0047785 0.024837 -0.06148 
0.13006 0.064625 0.053938 -0.055726 -0.23658 -0.049478 0.038483 0.083533 
0.15555 -0.0011404 -0.099953 -0.099295 -0.27752 -0.069536 0.028619 0.17791 
0.05772 -0.031721 -0.20123 -0.14237 -0.25384 -0.051615 0.017274 0.14519 
-0.070194 -0.087951 -0.13974 -0.10883 -0.21899 -0.07825 -0.0044286 0.050321 
-0.077428 -0.071509 -0.031392 -0.025309 -0.18611 -0.091732 -0.025967 -0.0016336 
-0.043724 0.0041209 -0.0034422 0.025495 -0.12609 -0.075127 0.00017495 0.042758 
0.014972 0.056733 0.013492 -0.0019624 -0.084498 -0.020212 -0.017088 -0.0095255 
-0.00081153 0.024015 0.029769 0.023357 -0.0026201 0.011684 -0.013307 -0.069372 
-0.059507 0.009711 0.058706 0.062323 0.087314 0.044238 -0.0050863 -0.094527 
-0.034352 0.024344 0.098823 0.064132 0.12727 0.033387 0.020727 -0.11393 
0.091753 0.071859 0.080738 0.073339 0.076792 -0.032215 -0.0138 -0.045861 
0.20849 0.12266 0.14108 0.13384 0.077614 -0.033859 0.01152 0.033551 
0.25847 0.11954 0.11526 0.04654 0.057555 0.041607 0.054267 0.12414 
0.25206 0.13746 0.12102 0.025988 0.046868 0.10606 0.093726 0.1391 
0.21885 0.11083 0.1294 0.043087 0.039963 0.11822 0.10589 0.1322 
0.13039 0.075805 0.029276 0.071202 0.011191 0.074161 0.077778 0.072681 
0.099481 0.058213 -0.052273 0.038155 -0.091075 0.027961 0.055418 0.055254 
0.083697 0.084355 -0.11952 -0.024816 -0.11705 -0.0022913 0.039305 0.051143 
0.11346 0.016781 -0.19367 -0.039778 -0.097651 -0.061316 0.013657 0.018096 
0.070873 -0.027447 -0.21734 -0.089595 -0.04882 -0.063782 0.0092177 -0.016102 
-0.045861 -0.027775 -0.16769 -0.086964 0.029112 -0.033859 0.012342 -0.039284 
-0.13645 -0.011498 -0.14418 -0.098802 0.042429 -0.017088 0.020398 -0.12018 
-0.18495 -0.057041 -0.11837 -0.13251 -0.031064 -0.0031133 0.013657 -0.14517 
-0.21504 -0.064933 -0.035174 -0.14402 -0.057863 0.078765 0.044567 -0.06296 
-0.2254 -0.022185 0.037497 -0.051451 0.079422 0.16771 0.062652 0.094384 
-0.15322 0.033387 0.14289 0.11017 0.21835 0.18136 0.01152 0.10951 
-0.038298 0.094384 0.23298 0.14601 0.20092 0.11313 -0.030406 0.010533 
0.031742 0.12546 0.28132 0.18481 0.088301 -0.0068948 -0.066577 -0.046519 
0.023686 0.10606 0.33492 0.20701 0.10211 -0.091897 -0.035338 -0.0027845 
0.055747 0.066598 0.38655 0.28576 0.17363 -0.12001 -0.013307 0.14091 
0.063803 0.031907 0.43225 0.2657 0.21605 -0.10225 0.013164 0.16015 
0.030263 -0.017582 0.41992 0.20125 0.18383 -0.02646 0.01563 0.09274 
0.03947 0.073504 0.28478 0.14026 0.14091 0.10524 0.057391 -0.084169 
0.13384 0.19188 0.20142 0.1003 0.12398 0.20092 0.11773 -0.17098 
0.23249 0.29596 0.058542 0.11 0.095371 0.22657 0.1179 -0.060987 
0.25419 0.26669 -0.10258 0.032071 1.0539e-005 0.16738 0.093562 0.11806 
0.23019 0.16755 -0.16375 -0.069701 -0.13875 0.035031 0.076792 0.22756 
0.1003 0.050321 -0.23675 -0.157 -0.18693 -0.044217 0.050486 0.19369 
-0.030899 0.010862 -0.32372 -0.17706 -0.12757 -0.070523 0.01415 0.084684 
-0.14188 -0.018075 -0.31205 -0.15996 -0.052109 -0.05589 -0.015116 0.0324 
-0.10456 -0.025967 -0.23773 -0.13777 0.0067515 -0.0082102 0.0019835 0.054925 
-0.021034 -0.013471 -0.14287 -0.091075 0.067256 0.047855 0.016616 0.1738 
0.090603 0.021549 -0.048327 0.0083956 0.13828 0.075641 0.060022 0.13072 
0.092247 0.035688 -0.015444 0.055254 0.14404 0.047197 0.051636 0.11592 
0.065283 0.047362 0.06183 0.081724 0.11494 0.040785 0.013821 0.095042 
0.010697 0.06479 0.10244 0.11658 0.17643 0.072353 0.0075736 0.048019 
0.040292 -0.015773 0.089452 0.10277 0.16623 0.081231 0.034373 0.071695 
0.12151 -0.025802 0.05213 0.041772 0.069886 0.094384 0.083204 0.077285 
0.25041 -0.069865 0.042923 0.0095465 -0.092554 0.022535 0.071695 0.07449 
0.27623 0.016781 0.20536 0.038648 -0.15766 0.027468 0.073504 -0.0026201 
0.082546 0.089616 0.29102 0.059364 -0.18331 -0.043066 0.0324 -0.049642 
-0.23461 0.11987 0.28428 0.042923 -0.10686 -0.12346 -0.067728 -0.074962 
-0.48041 0.05476 0.094055 0.013164 -0.092061 -0.18561 -0.16818 -0.15733 
-0.47383 0.037332 -0.077264 1.0539e-005 -0.03912 -0.23263 -0.21669 -0.21192 
-0.24677 0.055254 -0.11245 0.026317 0.11165 -0.10982 -0.1113 -0.11837 
-0.032872 0.049828 -0.094692 0.022206 0.26242 0.062652 0.015301 -0.016266 
-0.011498 0.074654 -0.012649 0.059693 0.32637 0.17445 0.058542 -0.05737 
-0.17706 0.050321 0.013821 0.1225 0.36353 0.18383 0.04358 -0.14402 
-0.27982 0.019247 0.033387 0.21753 0.38605 0.095042 0.022535 -0.071838 
-0.20403 -0.0032777 0.073668 0.24384 0.33032 0.038812 0.043745 0.13483 
0.066598 0.0786 0.1391 0.25995 0.24433 0.033551 0.056404 0.17067 
0.3198 0.14387 0.21802 0.21983 0.11 0.11395 0.11724 0.18284 
0.46547 0.1539 0.20191 0.089945 -0.047012 0.11378 0.14321 0.083368 
0.4413 0.086657 0.062488 -0.030242 -0.182 0.06594 0.10145 0.088958 
0.34528 -0.0019624 -0.082854 -0.19038 -0.24003 0.035853 0.071202 0.18267 
0.21375 -0.034845 -0.15405 -0.22869 -0.26733 -0.004593 0.084684 0.21589 
0.070873 -0.032543 -0.22277 -0.19383 -0.25647 -0.036489 0.062652 0.11148 
-0.074304 -0.0068948 -0.2111 -0.14303 -0.20288 -0.072167 0.0064227 -0.028269 
-0.17049 0.025659 -0.15355 -0.11179 -0.12445 -0.073154 -0.016924 -0.10456 
-0.18101 0.017932 -0.12198 -0.069701 0.027139 0.011355 0.0060938 -0.064111 
-0.13086 -0.00015387 -0.084334 0.021056 0.17791 0.10178 0.048184 -0.014951 
-0.083512 -0.033859 -0.098144 0.017932 0.1368 0.047197 0.026646 -0.013636 
-0.10735 -0.084334 -0.067892 0.01004 -0.11623 -0.10423 -0.028269 -0.022185 
-0.13234 -0.1205 -0.06 -0.031392 -0.30843 -0.21159 -0.061973 -0.065919 
-0.17295 -0.14533 -0.050629 -0.068386 -0.37929 -0.20912 -0.086471 -0.048492 
-0.19614 -0.14813 -0.0090322 -0.045039 -0.27884 -0.12215 -0.037476 -0.067728 
-0.18874 -0.086636 -0.0050863 0.019083 -0.089102 -0.037311 -0.011334 -0.044217 
-0.11031 0.023686 0.041278 0.069393 0.066434 0.037168 0.0013258 -0.029255 
-0.027118 0.053938 0.057555 0.056569 0.13598 0.080409 0.013657 0.021878 
0.058377 0.087314 0.079258 0.034209 0.14437 0.11378 0.045224 0.037497 
0.098494 0.10951 0.067256 0.058377 0.20898 0.11198 0.06742 0.045389 
0.11428 0.10918 0.041936 0.051636 0.30352 0.14174 0.070873 0.039305 
0.11724 0.098166 0.08156 0.10211 0.54751 0.23594 0.11115 0.082546 
0.13927 0.083204 0.085999 0.16738 0.52811 0.2976 0.14552 0.11954 
0.12908 0.085999 0.12447 0.1784 0.40217 0.28905 0.14058 0.11231 
0.029934 0.073175 0.039305 0.11642 0.16574 0.15374 0.079094 0.088136 
0.067256 0.081724 0.017932 0.0031344 -0.2014 -0.062138 0.029605 0.031907 
0.11313 0.050157 -0.016924 -0.029091 -0.47136 -0.28015 0.011026 0.016781 
0.12102 0.033715 0.0067515 -0.077428 -0.56672 -0.33178 -0.031228 -0.021856 
0.080409 0.0087245 0.040785 -0.088608 -0.50671 -0.24645 0.020233 0.012177 
0.053938 0.033551 -0.049149 -0.15092 -0.39919 -0.17098 -0.02087 0.02829 
0.048348 0.0083956 -0.069208 -0.15733 -0.28064 -0.099131 -0.05326 0.06035 
0.061501 0.004943 -0.011005 -0.063453 -0.062467 -0.0078813 -0.062796 0.056569 
0.14535 0.068242 0.095535 0.13565 0.26455 0.10704 -0.055232 0.082382 
0.23183 0.11017 0.13647 0.28708 0.53436 0.18596 0.037332 0.066598 
0.20175 0.13927 0.16179 0.28823 0.71801 0.28626 0.11428 0.0060938 
0.18876 0.11477 0.1567 0.23759 0.80646 0.48322 0.19139 -0.029748 
0.16689 0.074983 0.096686 0.14913 0.68907 0.49013 0.2075 0.021056 
0.11165 0.054925 -0.0004827 0.066927 0.38162 0.33328 0.17412 0.090931 
0.029605 0.072846 -0.069865 0.043745 0.15012 0.147 0.11017 0.21556 
0.014315 0.0013258 -0.048656 -0.010348 -0.062302 -0.00064712 0.069886 0.31305 
0.087643 0.032893 0.0023123 0.021056 -0.2665 -0.12856 0.012999 0.33755 
0.15423 0.023357 0.044896 -0.050464 -0.38159 -0.22096 -0.018568 0.25452 
0.21687 0.0786 0.059693 -0.076442 -0.37831 -0.21159 -0.0088678 0.11642 
0.14404 0.11954 0.033222 -0.063618 -0.29528 -0.13251 -0.0078813 -0.014129 
0.058542 0.076134 0.023028 -0.09387 -0.25384 -0.097487 -0.01232 -0.11228 
0.076463 0.0080668 0.0024767 -0.11409 -0.17854 -0.042244 0.0088889 -0.083347 
0.075312 0.017767 0.0044497 -0.082525 -0.1381 0.014479 0.033715 -0.065426 
0.05772 0.026152 0.016288 -0.027282 -0.07003 0.032729 0.053281 -0.0406 
0.084026 0.045718 1.0539e-005 -0.0070593 -0.017746 0.031414 0.00066819 -0.10505 
0.068571 0.10458 0.035031 0.058706 0.080738 -0.0011404 -0.060658 -0.11508 
0.033715 0.12727 0.059857 0.12184 0.1544 -0.039778 -0.13218 -0.10324 
0.051472 0.14798 0.12168 0.15324 0.21342 -0.062138 -0.086964 0.00033937 
0.088794 0.12891 0.11592 0.16015 0.24663 -0.031721 -0.019884 0.096357 
0.088958 0.080409 0.13203 0.1345 0.21391 0.028947 0.03092 0.15209 
0.096686 0.049828 0.10376 0.10392 0.082875 0.13154 0.1174 0.171 
0.10737 0.082053 0.085835 0.016452 -0.038462 0.17643 0.13088 0.13286 
0.086328 0.071859 0.093726 -0.0138 -0.06296 0.10885 0.093891 0.071037 
0.020891 0.05065 0.080738 0.0023123 -0.085978 -0.016102 -0.0068948 -0.029913 
-0.044874 0.052294 0.14963 0.090274 0.016288 -0.11228 -0.056219 -0.04323 
-0.071181 0.096193 0.19665 0.1687 0.15818 -0.10932 -0.066084 -0.026296 
-0.1016 0.077285 0.17971 0.12957 0.2389 -0.025145 -0.073976 -0.073811 
-0.12708 0.04358 0.11296 0.095699 0.25896 0.040456 0.00017495 -0.095021 
-0.13333 0.023522 0.059035 0.055089 0.16278 0.032893 0.0069159 -0.03764 
-0.052109 -0.018568 -0.026953 -0.036654 0.030263 0.01415 0.01974 0.0014903 
-0.033365 -0.049478 -0.025309 -0.0080457 -0.0057439 0.078929 0.014972 0.0019835 
0.0092177 -0.008539 0.076792 -0.0060728 0.044073 0.1368 0.040292 -0.033859 
0.11395 0.058542 0.090603 0.022371 -0.031886 0.159 0.13927 0.16853 
0.25337 0.20421 0.1179 -0.038133 -0.2009 0.13516 0.17692 0.24663 
0.38951 0.2389 0.10376 -0.054575 -0.29791 0.064296 0.16623 0.23364 
0.40611 0.12957 -0.0016336 -0.12757 -0.28212 -0.010019 0.048677 0.2075 
0.21474 0.020562 -0.049807 -0.11508 -0.23411 -0.15141 -0.019884 0.20454 
-0.056219 -0.029913 -0.023172 -0.0064016 -0.12609 -0.21126 -0.064275 0.15982 
-0.21751 0.061172 0.081231 0.086492 0.02829 -0.26963 -0.14599 -0.059178 
-0.24447 0.095864 0.1835 0.19172 0.17906 -0.21998 -0.14862 -0.25631 
-0.21817 0.046211 0.17265 0.22279 0.2588 -0.061316 -0.066577 -0.37107 
-0.1963 -0.028926 0.063474 0.15686 0.20405 0.092247 -0.004593 -0.44736 
-0.24645 0.02533 -0.024652 0.077943 0.14585 0.17034 -0.011005 -0.58727 
-0.31599 0.065118 -0.025802 0.063968 0.1202 0.16442 0.005765 -0.42862 
-0.40691 -0.0075525 -0.086964 0.064132 0.06594 0.13401 0.042758 -0.23313 
-0.30728 -0.074798 -0.15454 -0.044052 -0.029584 0.044073 0.032236 -0.012649 
0.013821 -0.16523 -0.21471 -0.0965 -0.12905 -0.014951 0.051472 0.14387 
0.29431 -0.17394 -0.18528 -0.10653 -0.12708 -0.043724 0.048677 0.30746 
0.27212 -0.080223 -0.020706 -0.060494 -0.094363 -0.0068948 0.056404 0.40694 
0.14174 0.03388 0.18596 0.019083 -0.030735 0.021056 0.065283 0.40085 
0.058213 0.088301 0.31075 0.050157 -0.019719 0.00017495 0.025166 0.30582 
0.018096 0.13828 0.22953 0.072846 -0.0080457 -0.0022913 0.036346 0.13746 
-0.038627 0.11198 0.12003 0.00297 0.011026 0.038812 0.0227 0.035031 
-0.057534 0.056569 0.10014 -0.027611 0.018096 0.055911 0.01826 -0.075455 
1.0539e-005 0.025824 0.15374 0.033551 0.010697 0.058377 0.022042 -0.14303 
0.047691 0.035524 0.16788 0.036839 -0.037969 0.037661 0.050157 -0.10982 
0.074819 0.045553 0.089123 0.0227 -0.057534 0.0062583 0.067256 -0.029255 
-0.054904 0.051801 -0.018239 0.0075736 -0.02235 -0.026131 0.017767 -0.050793 
-0.13793 0.0095465 -0.14648 0.041443 0.031742 -0.041751 -0.061151 -0.098638 
-0.14237 0.0028056 -0.21307 -0.0067304 0.074326 -0.087458 -0.11409 -0.12379 
-0.075949 0.014479 -0.18413 0.053938 0.19336 -0.03912 -0.068221 -0.076771 
0.064132 0.02122 -0.067235 0.17774 0.31108 0.066434 0.033551 0.017438 
0.19583 0.0021479 -0.041422 0.17215 0.34429 0.12184 0.063968 0.10885 
0.3027 0.016616 -0.11196 0.07038 0.27212 0.10803 0.069064 0.19303 
0.26718 0.061501 -0.17624 -0.017417 0.11395 0.095535 0.073339 0.13878 
0.084026 0.049006 -0.15207 -0.052602 -0.019719 0.10885 0.08567 0.0227 
-0.062467 0.022535 -0.03205 -0.085649 -0.080881 0.1396 0.081395 -0.03616 
-0.089595 0.01004 0.08978 -0.0771 -0.052931 0.1465 0.054925 0.00297 
-0.025309 0.073175 0.19385 -0.014951 -0.038791 0.053281 0.00099702 -0.026624 
0.042429 0.13253 0.33706 0.10408 0.016288 -0.026789 0.019411 -0.010183 
0.1419 0.12332 0.37487 0.21605 0.025001 -0.078908 0.0227 0.064296 
0.25403 0.0085601 0.18728 0.1373 0.037332 -0.10604 0.00297 0.18547 
0.10622 -0.064275 0.034537 0.027961 0.014315 -0.086307 0.010533 0.22657 
-0.0055795 -0.051122 0.024015 -0.032872 -0.0022913 -0.012978 0.020233 0.19435 
-0.071345 0.013164 0.16081 -0.0036066 0.0024767 0.08156 0.059857 0.14141 
-0.13399 -0.020706 0.20257 0.052459 0.0023123 0.075476 0.059857 0.096193 
-0.17197 -0.10127 0.068736 0.031907 -0.041915 0.045882 0.044238 0.057391 
-0.11903 -0.082854 -0.088773 0.020562 -0.10242 -0.030406 0.011026 0.0421 
-0.0059084 0.025988 -0.12856 0.0054362 -0.13136 -0.032379 0.019576 0.047197 
0.11477 0.13713 -0.14402 -0.062138 -0.10949 -0.046519 0.044402 0.058706 
0.18481 0.16492 -0.07003 -0.074798 -0.047998 -0.024323 0.047033 0.060844 
0.1955 0.20273 0.024673 -0.054904 0.00033937 0.01826 0.044896 0.042923 
0.2223 0.15867 0.098001 0.052294 0.060022 0.048841 0.036346 0.030592 
0.20684 0.10326 0.090767 0.10162 0.10293 0.061666 0.083204 0.062159 
0.12743 0.037004 0.056898 0.1179 0.10376 0.084684 0.080902 0.095206 
0.08715 0.0090533 0.068571 0.081067 0.0421 0.097508 0.046868 0.079258 
0.041772 0.039634 0.059035 0.03947 0.00050378 0.041607 0.019411 0.085506 
0.041772 0.052623 0.058871 -0.003771 -0.019719 0.00050378 0.026646 0.079916 
0.046046 0.059528 0.011355 -0.018733 0.0046141 -0.0004827 0.04095 0.11757 
0.086985 0.049992 -0.021199 -0.0004827 0.039634 0.011191 0.072681 0.16311 
0.14141 0.068078 -0.025474 -0.025309 0.020727 0.022042 0.078765 0.21013 
0.14289 0.0592 -0.035174 -0.030406 -0.012649 0.0072447 0.073175 0.2269 
0.13598 0.048513 -0.030735 -0.048163 -0.02235 0.051472 0.085999 0.21013 
0.1419 0.037004 -0.031886 -0.033859 0.023357 0.088465 0.12151 0.17412 
0.085835 0.081067 -0.020541 -0.013143 0.048019 0.075805 0.082053 0.062159 
0.052623 0.072517 0.019083 0.026481 0.093562 0.055582 0.026974 -0.051287 
0.053774 0.099481 0.056733 0.1299 0.12053 0.018425 -0.042573 -0.17065 
-0.026789 0.068078 0.080573 0.11839 0.10063 -0.060329 -0.07414 -0.22902 
-0.041257 0.070873 0.042594 0.12431 0.14124 -0.094692 -0.066084 -0.21537 
-0.042737 0.057884 -0.018075 0.12349 0.14733 -0.084991 -0.074469 -0.19054 
-0.084005 0.040456 -0.059836 0.039141 0.1562 0.0062583 -0.017582 -0.17854 
-0.097322 0.05772 -0.05326 -0.023501 0.10211 0.085177 0.045389 -0.010512 
-0.060329 0.064954 -0.029748 -0.016924 0.066269 0.10737 0.092904 0.13236 
0.043251 0.048348 -0.034188 -0.0059084 0.033058 0.099152 0.11444 0.22328 
0.10803 0.071531 -0.01676 -0.016431 0.041936 0.11395 0.10737 0.18267 
0.16558 0.092411 -0.0067304 -0.028597 0.031249 0.12497 0.11428 0.077121 
0.22378 0.14437 0.04506 0.031578 0.08008 0.15259 0.086492 0.035195 
0.19221 0.15061 0.044896 0.037497 0.10589 0.095371 0.086492 0.020562 
0.11231 0.060515 0.025166 0.022206 0.023028 -0.0067304 0.038648 0.02122 
0.10293 -0.031557 0.02122 -0.030899 -0.10735 -0.10784 0.02681 0.070215 
0.092082 -0.027611 -0.0019624 -0.03057 -0.15717 -0.081539 -0.019719 0.049992 
0.16031 0.040292 0.055254 -0.016102 -0.13136 -0.061645 0.022371 -0.0049219 
0.1003 0.021056 -0.0868 0.0072447 -0.10587 0.020398 0.054432 0.0037921 
-0.043888 -0.097651 -0.20781 -0.034516 -0.12725 0.10458 0.063474 -0.076935 
-0.17295 -0.11853 -0.23181 -0.11261 -0.1524 0.07038 0.043251 -0.11327 
-0.21143 -0.084169 -0.11853 -0.081539 -0.2134 0.010369 0.014808 -0.09798 
-0.27818 0.015959 -0.025802 -0.064933 -0.20501 -0.09946 -0.076606 -0.23905 
-0.38258 0.063803 -0.028433 -0.034516 -0.12873 -0.16999 -0.15503 -0.41628 
-0.37633 0.12727 -0.0049219 -0.019061 -0.039449 -0.22293 -0.24562 -0.31451 
-0.12281 0.17939 0.070873 0.05213 0.11839 -0.19581 -0.1866 -0.099295 
0.15489 0.20651 0.18202 0.1664 0.33953 -0.056877 -0.057205 -0.023665 
0.19353 0.15538 0.19764 0.22476 0.51084 0.12924 0.03536 -0.048492 
-0.02646 0.1322 0.15703 0.25107 0.57908 0.15144 0.026646 -0.076113 
-0.17427 0.061172 0.18399 0.26455 0.43406 0.093726 0.011355 0.021878 
0.03092 0.07038 0.19188 0.20799 0.21589 0.04095 0.0056006 0.15045 
0.3313 0.034866 0.15818 0.14996 0.10228 0.09685 0.068571 0.25995 
0.41203 -0.022021 0.0227 0.061172 0.085835 0.24203 0.16804 0.25288 
0.2851 -0.051944 -0.031557 -0.038298 -0.018897 0.26866 0.17939 0.15555 
0.17741 -0.03616 -0.02942 -0.13053 -0.10932 0.17889 0.10211 0.013986 
0.051636 -0.049149 0.0023123 -0.089266 -0.12166 0.049828 0.038155 -0.039284 
-0.11015 -0.079072 0.0052718 -0.071016 -0.17739 -0.025802 0.014643 -0.013636 
-0.23461 -0.093376 -0.05737 -0.12396 -0.26667 -0.0088678 0.038319 0.02533 
-0.30021 -0.088608 -0.084498 -0.14287 -0.25861 -0.024816 0.025001 0.033387 
-0.29429 -0.072003 -0.057699 -0.082525 -0.13201 -0.022843 -0.022021 0.028454 
-0.27374 -0.06148 0.02533 0.0082312 0.043745 -0.021528 -0.064768 -0.033201 
-0.20616 -0.055068 0.088465 0.044567 0.080573 -0.0083746 -0.072989 -0.071509 
-0.14615 0.0227 0.071037 0.10491 0.10951 -0.043066 -0.073976 -0.14237 
-0.0082102 0.14831 0.12233 0.16771 0.055089 -0.12462 -0.08269 -0.17279 
0.1807 0.19106 0.19566 0.19533 0.086163 -0.13021 -0.026789 -0.12281 
0.26801 0.20405 0.33032 0.21687 0.19336 0.026317 0.038319 -0.01939 
0.19057 0.21769 0.32259 0.2172 0.33278 0.17001 0.067585 0.08304 
0.10145 0.18103 0.27524 0.18136 0.28198 0.1955 0.065776 0.14963 
0.05624 0.068736 0.16278 0.11247 0.17593 0.1516 0.035195 0.16771 
-0.00081153 -0.0077169 0.096193 0.031085 0.059035 0.09274 0.017438 0.14404 
-0.025145 -0.033365 0.13647 0.0054362 -0.047505 0.039963 0.0011614 0.20388 
0.032564 0.013492 0.11411 -0.0024557 -0.027775 0.040292 0.036839 0.23841 
0.06479 0.034702 0.033222 0.053774 0.045718 0.047197 0.040292 0.23298 
0.050814 0.0011614 -0.073154 0.0082312 0.070544 0.05476 0.076134 0.20257 
0.077778 -0.0060728 -0.042737 0.045718 0.071202 0.15324 0.10113 0.21605 
0.12957 0.019083 -0.036818 0.010533 0.03536 0.16722 0.11773 0.17988 
0.075805 0.011684 -0.10242 -0.068221 -0.1381 0.060679 0.10211 0.1294 
-0.036325 -0.013307 -0.11903 -0.0965 -0.279 -0.033694 0.061995 0.067585 
-0.096994 -0.070852 -0.055561 -0.1108 -0.25236 -0.084991 0.029112 0.056404 
-0.003771 -0.004593 0.076956 0.00066819 -0.070194 -0.070687 0.00017495 0.042758 
0.081724 0.11181 0.12349 0.095042 0.06479 -0.051451 0.013657 0.052787 
0.093398 0.13795 0.14519 0.11609 0.12365 -0.045203 -0.038462 0.0034632 
0.10491 0.11707 0.15555 0.096357 0.23775 -0.011827 -0.045532 0.0046141 
0.13401 0.085341 0.16574 0.13351 0.28445 0.058049 0.010697 0.08008 
0.19385 0.12644 0.19435 0.19994 0.28461 0.1322 0.10162 0.14486 
0.20158 0.14354 0.13105 0.14733 0.18267 0.1562 0.15785 0.17462 
0.19007 0.11543 0.11411 0.091425 -0.00081153 0.094384 0.13746 0.15949 
0.15094 0.048513 0.092247 0.024673 -0.18183 0.030592 0.062159 0.1128 
0.058049 -0.0054151 -0.0034422 -0.03057 -0.25352 -0.031064 0.021384 0.012013 
-0.02087 -0.0049219 -0.070359 -0.06707 -0.22228 -0.049807 -0.021528 -0.00081153 
0.0026412 0.037168 -0.11508 -0.065591 -0.16407 -0.092226 0.02829 0.075312 
0.075641 0.078929 -0.11524 -0.041257 -0.099295 -0.092061 0.030427 0.15028 
0.065118 0.039305 -0.077264 -0.051944 -0.072989 -0.087786 0.0039565 0.11642 
0.0051074 0.035524 -0.0026201 -0.038462 -0.013471 -0.066084 0.023851 0.075641 
-0.046519 -0.015444 0.0051074 0.0059294 -0.0060728 -0.0060728 0.030427 0.017438 
-0.010183 -0.0080457 0.029769 -0.0064016 0.12168 0.089287 0.075312 0.020562 
0.064132 0.053445 0.076956 0.034373 0.23397 0.16853 0.085506 0.083533 
0.12349 0.14157 0.11066 0.08978 0.2902 0.17511 0.10113 0.089452 
0.12644 0.15456 0.1026 0.13549 0.26439 0.18678 0.055418 0.034209 
0.098166 0.093726 -0.00031829 0.068736 0.15522 0.12809 0.043087 -0.11804 
0.07597 0.029605 -0.087293 0.0013258 -0.037805 -0.004593 0.0065871 -0.16407 
0.018918 -0.00064712 -0.11837 -0.03353 -0.18512 -0.083018 -0.028926 -0.20337 
-0.084169 0.030098 -0.045861 -0.053424 -0.20156 -0.10834 -0.044052 -0.15651 
-0.0965 0.027303 0.016945 -0.050136 -0.19696 -0.11097 -0.036818 -0.032543 
-0.0047575 0.0052718 -0.037476 -0.070359 -0.22688 -0.15602 -0.014951 0.083204 
0.037168 0.00066819 -0.063782 -0.080717 -0.25861 -0.1838 -0.013965 0.091918 
0.061995 0.046211 -0.057699 -0.060658 -0.20468 -0.13366 0.0083956 0.083204 
0.034537 0.016781 -0.0098543 -0.030735 -0.094034 -0.064933 0.021713 0.020398 
0.016123 -0.0049219 0.0016547 0.0087245 -0.054739 -0.021528 0.023357 0.0092177 
0.050486 -0.010512 -0.025802 -0.025638 -0.025802 0.0095465 0.045224 0.0075736 
0.073668 0.033715 -0.036489 -0.03057 0.032236 0.028783 0.007738 -0.011498 
0.032893 0.042265 0.033551 -0.0070593 0.085012 0.028783 0.023851 -0.02942 
0.018918 0.078765 0.18169 0.06742 0.12694 0.034537 0.0090533 -0.014458 
0.0039565 0.12299 0.23858 0.15999 0.16623 0.0088889 0.043087 -0.0011404 
0.018754 0.081724 0.20536 0.19106 0.15867 -0.030077 0.01267 0.007738 
0.058377 0.0092177 0.099152 0.2052 0.21539 0.0023123 -0.01939 0.0080668 
-0.028926 -0.041915 -0.025145 0.07301 0.21375 0.1174 0.082875 -0.039613 
-0.12429 -0.023829 -0.060658 -0.019884 0.1544 0.23693 0.12644 -0.037805 
-0.18265 -0.043395 -0.14171 -0.091404 0.011355 0.19139 0.15472 -0.11393 
-0.074469 -0.051287 -0.17361 -0.16128 -0.13563 0.11494 0.069886 -0.15059 
0.032071 -0.040106 -0.16325 -0.16835 -0.2014 -0.031064 -0.046683 -0.28886 
0.095371 0.020562 -0.11738 -0.12478 -0.17657 -0.12182 -0.12067 -0.28344 
0.11198 0.069558 -0.12494 -0.062631 -0.088937 -0.14648 -0.16276 -0.16917 
0.09833 0.10392 -0.095678 -0.016595 0.035031 -0.10916 -0.10308 0.026974 
0.07597 0.11543 0.033551 0.1202 0.20355 -0.034681 -0.024487 0.18826 
0.035031 0.099316 0.13417 0.23545 0.26948 0.065283 0.050814 0.22345 
-0.078086 0.007738 0.14535 0.20586 0.244 0.094384 0.066598 0.1567 
-0.17279 -0.052766 0.082053 0.08419 0.1299 0.069722 0.066105 0.087479 
-0.14073 -0.0057439 0.090767 0.069886 0.057391 0.057884 0.077121 0.018754 
-0.099624 0.048841 0.16163 0.056404 -0.014129 0.039634 0.040621 -0.070359 
-0.048327 0.080573 0.20536 0.0014903 -0.10867 0.036675 0.031249 -0.11787 
0.010697 0.096521 0.20832 -0.028762 -0.16572 0.01152 0.034866 -0.079401 
0.10195 0.13056 0.13039 -0.0016336 -0.16687 0.010369 0.073832 0.045224 
0.21474 0.11921 0.09422 0.0080668 -0.11261 -0.0034422 0.06331 0.1225 
0.2292 0.10491 0.10343 0.054596 0.0090533 -0.0088678 0.062652 0.18333 
0.13269 0.042265 0.12497 0.079258 0.096686 0.028454 0.039963 0.14256 
0.021384 0.025988 0.072353 0.1003 0.14568 -0.00097594 -0.013965 0.053445 
-0.027611 -0.0032777 -0.022679 0.047362 0.16097 -0.035174 -0.047834 -0.052437 
0.0080668 0.045718 -0.052602 0.09422 0.18152 0.0032988 -0.039449 -0.069208 
0.058213 0.062323 -0.030406 0.20191 0.23627 0.076956 0.020398 -0.0088678 
0.034702 0.094877 0.01415 0.17528 0.28313 0.16919 0.039305 -0.025309 
0.0060938 0.070215 -0.015116 0.091753 0.19533 0.1756 0.070708 -0.037311 
0.032729 0.024673 -0.0016336 0.0014903 0.077449 0.12743 0.068078 -0.03501 
0.0072447 -0.0047575 0.0052718 -0.0082102 -0.018733 0.052459 0.024837 0.0026412 
-0.12511 0.015465 -0.010512 -0.026789 -0.089266 0.013328 0.042265 0.005765 
-0.097322 0.055582 -0.062302 -0.060658 -0.218 -0.013307 0.062323 0.11609 
0.11707 0.063639 -0.17493 -0.08269 -0.24069 -0.0059084 0.09274 0.17117 
0.29217 0.053938 -0.18002 -0.13826 -0.25204 0.0032988 0.09422 0.19764 
0.30418 0.066105 -0.11524 -0.18232 -0.31188 -0.026296 0.066105 0.18942 
0.20734 0.090438 -0.024158 -0.19498 -0.34624 -0.071345 0.025659 0.2098 
0.076134 0.058871 0.10145 -0.13547 -0.24431 -0.084334 -0.044217 0.18169 
0.0042853 0.050157 0.22953 0.0019835 -0.056548 -0.098638 -0.075127 0.067091 
-0.03501 0.067913 0.38145 0.19994 0.14157 -0.1404 -0.14566 -0.033201 
-0.051287 0.11263 0.35432 0.29119 0.41187 -0.098802 -0.15684 -0.064275 
-0.049314 0.097179 0.32259 0.33443 0.65849 0.018754 -0.093705 -0.17361 
-0.092061 0.086492 0.30648 0.37257 0.81846 0.21408 -0.017088 -0.29807 
-0.10916 0.082875 0.35531 0.37816 0.78575 0.33098 0.11395 -0.25088 
0.097015 0.13499 0.3119 0.35449 0.63827 0.40743 0.2006 0.059035 
0.23907 0.13615 0.19813 0.32966 0.4117 0.4145 0.27672 0.29004 
0.30007 0.026646 0.010533 0.21128 0.17758 0.24219 0.21605 0.31174 
0.26751 -0.10489 -0.22458 0.052952 -0.14319 0.035524 0.11198 0.19616 
0.16821 -0.13678 -0.31994 -0.17262 -0.43996 -0.11278 0.051965 0.10918 
0.049992 -0.10801 -0.29182 -0.26206 -0.53137 -0.17345 0.023028 0.051472 
0.018918 -0.076771 -0.2231 -0.26535 -0.50408 -0.14747 0.010369 -0.00064712 
0.063968 0.01152 -0.14352 -0.21356 -0.35792 -0.11196 0.00050378 0.01826 
0.071695 0.087479 -0.063618 -0.16407 -0.18874 -0.062631 0.031907 -0.0034422 
-0.01939 0.13812 -0.013471 -0.059672 -0.025638 -0.018239 -0.0080457 -0.12166 
-0.12462 0.087479 0.030592 0.0031344 0.054267 0.02122 -0.023336 -0.18364 
-0.10752 0.068571 0.053281 0.026646 0.11231 0.054596 -0.010841 -0.052931 
-0.048985 0.096193 0.068242 0.073997 0.19879 0.092411 0.036182 0.17215 
0.015465 0.090438 0.049828 0.093069 0.23446 0.12233 0.073668 0.3022 
0.053938 0.031249 0.053609 0.071366 0.23298 0.1202 0.06479 0.29185 
0.10836 -0.0059084 0.058049 0.044073 0.14354 0.082875 0.03947 0.21621 
0.1442 0.014972 0.080738 0.027632 0.058213 0.023193 0.031249 0.18514 
0.21227 0.06742 0.075641 0.078929 0.023028 -0.0029489 0.03388 0.13549 
0.27277 0.10244 0.067585 0.047033 -0.0068948 -0.0050863 0.064461 0.16377 
0.183 0.026317 0.022864 0.017767 -0.066906 -0.0096899 0.044073 0.1419 
0.074161 -0.025474 0.022371 0.016616 -0.10784 -0.023336 0.032236 0.028454 
-0.021856 -0.090417 0.024508 -0.012156 -0.11426 -0.031886 0.042429 -0.098144 
-0.042737 -0.060823 -0.10061 -0.082361 -0.12083 -0.0032777 0.061337 -0.14336 
-0.023501 -0.049149 -0.20057 -0.11196 -0.12198 0.017603 0.073504 -0.10587 
-0.055232 -0.045039 -0.25697 -0.13201 -0.095678 0.01152 0.03651 -0.083347 
-0.1547 -0.05178 -0.22984 -0.16013 -0.0068948 -0.0013048 -0.080881 -0.10456 
-0.25417 -0.056383 -0.17657 -0.082525 0.10211 -0.093705 -0.16358 -0.19268 
-0.33983 -0.044381 -0.086142 0.065612 0.21474 -0.19614 -0.22704 -0.20666 
-0.33523 0.011026 0.09126 0.17708 0.33344 -0.10571 -0.1695 -0.16868 
-0.17591 0.13286 0.27688 0.2856 0.52794 0.18185 0.019411 -0.035503 
0.049828 0.16146 0.34577 0.30533 0.55376 0.37816 0.18678 0.053938 
0.21161 0.11609 0.2297 0.17347 0.341 0.32111 0.19681 0.1664 
0.23496 0.08567 0.076956 0.014479 0.024508 0.16327 0.15587 0.18169 
0.25255 0.10918 0.06183 -0.043724 -0.20551 0.05065 0.11395 0.20503 
0.27425 0.15604 0.11724 0.054267 -0.29133 -0.017253 0.090109 0.2006 
0.19336 0.20586 0.20717 0.063474 -0.31764 -0.059836 0.077778 0.19353 
0.15111 0.16278 0.22707 0.00017495 -0.3571 -0.11639 0.054596 0.21589 
0.099316 0.13056 0.1396 -0.012649 -0.36482 -0.14911 0.030592 0.19681 
0.086985 0.094548 0.014479 -0.034188 -0.35595 -0.10817 -0.0067304 0.15949 
0.07301 0.093891 -0.097651 -0.069208 -0.26831 -0.14566 -0.01528 0.13565 
0.049664 0.11905 -0.15026 -0.070523 -0.16934 -0.070523 0.015465 0.067913 
-0.0073881 0.035524 -0.17246 -0.082854 -0.07562 -0.044217 0.014479 -0.028104 
-0.090253 0.026481 -0.17279 -0.13333 -0.014622 -0.0075525 -0.011663 -0.13021 
-0.1039 0.0047785 -0.12001 -0.1113 0.019411 -0.021199 -0.037311 -0.1376 
-0.11097 -0.012978 -0.067728 -0.067564 0.084684 -0.01117 -0.043395 -0.078579 
-0.13612 -0.059507 0.0034632 -0.013965 0.13171 -0.01117 -0.038133 -0.16654 
-0.20682 -0.035832 0.042923 0.050321 0.12053 0.01974 -0.0062372 -0.19071 
-0.19893 0.028619 0.097508 0.10688 0.13023 0.080244 0.0090533 -0.16276 
-0.08121 0.0421 0.08419 0.14272 0.12595 0.13187 0.023357 -0.12198 
0.078272 -0.0064016 0.067749 0.092411 0.086328 0.15538 0.037004 -0.09239 
0.14321 -0.061151 -0.028433 0.039799 -0.13596 0.053938 0.038319 0.023193 
0.20553 -0.044546 0.0046141 0.01711 -0.30432 -0.092554 0.012013 0.1008 
0.2218 0.11806 0.099152 -0.014622 -0.30531 -0.17295 -0.033365 0.099316 
0.14552 0.18119 0.21704 0.019576 -0.14533 -0.14073 -0.023501 0.1026 
0.021878 0.17084 0.29135 0.08567 0.054596 -0.015938 0.021384 0.1003 
0.01974 0.14617 0.2486 0.15933 0.16229 0.0592 0.059857 0.13335 
0.060022 0.11346 0.26094 0.16969 0.23496 0.092576 0.094384 0.19139 
0.11872 0.096193 0.19287 0.099316 0.09685 0.078107 0.11083 0.23989 
0.052623 0.058871 0.049335 -0.056712 -0.026953 0.1516 0.14289 0.2149 
-0.080552 0.015301 -0.047176 -0.087458 0.10984 0.2565 0.13582 0.11888 
-0.2476 -0.031557 -0.098473 -0.021363 0.43817 0.27277 0.097508 -0.0027845 
-0.40247 -0.043395 -0.028597 0.11362 0.47171 0.088301 -0.050136 -0.096665 
-0.35512 -0.0026201 0.038812 0.21802 0.32851 -0.098638 -0.15816 -0.21027 
0.0031344 0.028947 0.07301 0.19172 0.24104 -0.12725 -0.13612 -0.15865 
0.23101 0.063803 0.081395 0.19829 0.29415 -0.049314 -0.032543 -0.066084 
0.21737 0.026974 0.027303 0.15407 0.24482 0.11 0.073668 0.037826 
0.19944 -0.030899 -0.023007 0.013657 0.16969 0.25699 0.16426 0.11181 
0.1909 -0.052109 -0.021034 -0.040764 0.096028 0.28182 0.18744 0.078436 
0.13582 -0.018404 0.024344 -0.039284 -0.044381 0.13779 0.12053 0.0046141 
0.075641 0.019905 0.017274 -0.049478 -0.23675 -0.037147 0.020891 -0.070523 
0.058706 0.022371 0.067749 -0.018733 -0.21981 -0.14829 -0.034352 -0.072167 
0.010204 0.0014903 0.071531 0.039963 -0.088115 -0.15552 -0.053753 -0.014293 
-0.095021 -0.018897 0.06331 0.092411 0.060515 -0.098473 -0.01528 0.018096 
-0.11031 0.02829 0.070708 0.044567 0.033058 -0.00064712 0.015794 -0.087786 
-0.070194 0.1031 0.076792 0.010369 0.00099702 0.085999 0.01563 -0.11705 
0.065612 0.093726 0.039305 0.0065871 0.062323 0.10343 -0.0039354 -0.069701 
0.076463 0.10129 0.069393 0.0098754 0.064625 0.072681 0.022864 0.10376 
0.055911 0.088301 0.042265 -0.08828 0.032564 0.035195 0.00066819 0.2223 
0.094877 0.05476 -0.090253 -0.065919 -0.024487 0.00099702 0.034209 0.28626 
0.14486 -0.0059084 -0.10998 0.0083956 0.051472 0.048019 0.098659 0.21671 
0.043416 -0.023829 -0.071509 0.017932 0.17001 0.0689 0.03947 0.15193 
-0.043888 -0.057041 -0.011005 0.046046 0.1853 0.057555 0.043416 0.11099 
-0.097487 -0.013471 0.029934 0.067091 0.13631 0.030592 0.06331 0.09126 
-0.06296 0.069722 -0.011663 0.067091 0.070544 0.037497 0.062323 -0.0036066 
-0.018897 0.097179 -0.019226 0.047197 0.0090533 0.032236 0.040785 -0.060165 
0.036182 0.073668 -0.0039354 0.012013 -0.0091966 -0.0068948 0.022042 -0.0055795 
0.16525 0.057227 0.00017495 -0.0011404 -0.079237 -0.021528 0.03388 0.016781 
0.27623 0.07597 0.032236 -0.041093 -0.11722 -0.024652 0.027632 -0.019226 
0.25436 0.062323 -0.0060728 -0.027611 -0.12873 -0.0032777 0.03799 -0.032708 
0.14634 0.049499 0.007738 -0.042079 -0.18643 -0.021363 0.056898 0.021878 
0.01004 0.020727 -0.010676 -0.099295 -0.27292 -0.095678 0.033222 -0.019555 
-0.080717 0.031085 -0.061645 -0.16128 -0.26272 -0.11541 -0.0096899 -0.10061 
-0.14122 0.014972 -0.080388 -0.14911 -0.0059084 -0.041915 -0.057534 -0.20025 
-0.12001 0.058377 -0.010183 0.036346 0.27096 0.019083 -0.054739 -0.18709 
-0.041093 0.19764 0.15423 0.17314 0.34972 -0.10752 -0.11146 -0.16523 
0.024508 0.22526 0.22986 0.27803 0.27195 -0.20682 -0.18627 -0.1547 
0.087643 0.1904 0.27672 0.38852 0.36402 -0.072825 -0.13974 -0.076442 
0.14009 0.13516 0.22427 0.33854 0.45363 0.19188 0.0011614 0.1054 
0.21654 0.089945 0.19599 0.26044 0.31256 0.28165 0.18662 0.22328 
0.19665 0.095371 0.15867 0.18942 0.051965 0.24893 0.24647 0.2657 
0.087314 0.025824 0.027796 0.043745 -0.16013 0.097672 0.17824 0.19024 
0.053116 -0.0088678 -0.10669 -0.157 -0.29643 -0.049314 0.085506 0.10458 
0.068736 0.019576 -0.18939 -0.26765 -0.3349 -0.11031 0.047691 0.09126 
0.05624 0.042758 -0.14204 -0.23395 -0.27604 -0.021692 0.082875 0.11165 
0.06594 0.077121 -0.1011 -0.17328 -0.17953 0.10047 0.11 0.071366 
0.07301 0.0786 -0.042573 -0.093705 -0.15388 0.053445 0.066598 -0.0055795 
0.068078 0.06331 -0.043559 -0.066741 -0.24168 -0.068221 -0.0062372 -0.013636 
0.059364 0.055747 -0.051944 -0.010183 -0.24414 -0.14977 -0.021363 -0.039449 
0.079587 0.065612 -0.027447 -0.013636 -0.19778 -0.1455 -0.037147 -0.018239 
0.062981 0.053774 0.0083956 0.011848 -0.145 -0.10669 -0.041586 -0.0059084 
0.039305 0.031414 0.018425 0.035524 -0.087786 -0.097651 -0.026953 0.038977 
0.0014903 -0.023665 -0.0064016 0.034373 0.0088889 -0.033365 -0.016102 0.056569 
-0.010841 -0.023501 0.021878 0.054432 0.08567 0.032729 0.037004 0.089616 
-0.01117 0.012013 0.078107 0.084684 0.1465 0.067256 0.043087 0.066598 
0.021549 0.05065 0.087479 0.064954 0.15637 0.10211 0.038319 0.013657 
0.045882 0.093398 0.03536 0.035688 0.16163 0.09274 0.029276 -0.056877 
-0.021692 0.057227 -0.037476 0.037661 0.18514 0.098001 0.042594 -0.13875 
-0.066248 0.076299 -0.026789 0.078765 0.12349 0.062159 0.042758 -0.12034 
-0.16243 0.017932 -0.042573 0.047526 0.086821 0.04506 -0.0070593 -0.13349 
-0.2157 -0.017911 -0.017088 0.020233 0.051965 0.041936 -0.0029489 0.043251 
-0.18084 -0.031392 -0.031721 0.026152 0.044567 0.034044 -0.0068948 0.232 
-0.023007 0.037661 0.00033937 0.014479 0.03536 0.0070803 0.0082312 0.33081 
0.11198 0.06594 0.029934 0.022206 0.042923 0.026974 0.041114 0.2371 
0.15061 0.072188 0.036182 0.0016547 0.012342 0.089452 0.069722 0.14749 
0.13549 0.017274 0.01004 -0.0021268 -0.077428 0.14206 0.1276 0.11642 
0.090931 -0.037311 -0.083347 -0.13432 -0.26618 0.13993 0.13861 0.16722 
0.032236 -0.12018 -0.084827 -0.20912 -0.437 0.076792 0.1567 0.18695 
-0.018568 -0.15026 -0.0034422 -0.16868 -0.43158 -0.040928 0.077614 0.1756 
0.0056006 -0.10078 0.11543 -0.088608 -0.20567 -0.16309 -0.060987 0.027468 
0.090931 0.020069 0.22164 0.038648 0.11329 -0.21044 -0.20238 -0.19416 
0.004943 0.03651 0.18399 0.17166 0.34742 -0.22672 -0.26091 -0.38225 
-0.19301 0.083697 0.2463 0.34347 0.56444 -0.18808 -0.19975 -0.38784 
-0.16342 0.1978 0.34396 0.49572 0.81518 -0.029913 -0.082361 -0.16703 
-0.019719 0.20865 0.26932 0.47911 0.88489 0.27524 0.072681 0.11132 
0.067585 0.1197 0.15292 0.28823 0.68512 0.4995 0.19829 0.3461 
0.16475 0.047197 0.045718 0.12381 0.41565 0.54817 0.27869 0.3928 
0.17445 0.038155 -0.0064016 0.0036276 0.11937 0.42206 0.25271 0.28182 
-0.016102 0.065118 -0.030242 -0.10225 -0.2157 0.16788 0.1539 0.065447 
-0.21603 0.071366 -0.073976 -0.13201 -0.44752 -0.022843 0.029276 -0.12807 
-0.30563 -0.00097594 -0.091404 -0.19153 -0.55719 -0.1478 -0.086307 -0.27851 
-0.25878 -0.05589 -0.1113 -0.20748 -0.52365 -0.2009 -0.13744 -0.23362 
-0.028269 -0.062631 -0.11163 -0.15059 -0.35414 -0.18463 -0.10028 -0.065591 
0.22526 -0.061973 -0.071016 -0.10834 -0.17723 -0.11771 -0.052766 0.13384 
0.29267 -0.054082 -0.0082102 -0.043724 -0.08121 -0.065097 -0.0016336 0.24943 
0.26751 -0.037969 0.02533 0.011355 -0.015938 -0.03764 0.029769 0.27162 
0.19501 -0.047012 0.06035 0.086163 0.062159 -0.00031829 0.03947 0.20142 
0.14667 0.025988 0.13302 0.10639 0.12644 0.028619 0.036839 0.095042 
0.063639 0.096521 0.16196 0.10162 0.14848 0.062159 0.060022 0.039963 
0.019576 0.1151 0.16081 0.1077 0.11263 0.060186 0.048184 -0.014951 
-0.027611 0.1026 0.0786 0.049006 0.10885 0.048348 0.01415 -0.059507 
-0.053424 0.047691 0.038812 0.032236 0.095206 0.030263 0.019576 -0.087786 
-0.060329 0.0067515 0.013821 0.055418 0.10737 0.0036276 -0.017746 -0.14961 
-0.12412 -0.010512 0.042594 0.091918 0.13976 0.0041209 -0.031557 -0.20879 
-0.20304 -0.012814 0.01415 0.043909 0.074983 -0.010676 -0.061151 -0.21373 
-0.19597 -0.027447 -0.080552 0.00017495 0.049664 -0.00031829 -0.020048 -0.1404 
-0.083512 0.027303 -0.094692 0.013657 0.09685 0.050321 0.13417 0.1225 
0.084355 0.075641 -0.091239 -0.03353 0.012999 0.12447 0.12661 0.11198 
0.22213 0.039634 -0.042244 -0.13382 -0.21077 0.089452 0.10047 0.18678 
0.26357 0.056404 -0.023172 -0.1769 -0.34986 0.028454 0.097015 0.22378 
0.20027 0.10129 0.028125 -0.10045 -0.20271 0.01711 0.072024 0.17051 
0.097344 0.11411 0.11033 0.010204 0.016781 -0.089431 -0.091075 0.028619 
-0.019884 0.04917 0.11329 0.03947 0.10589 -0.1552 -0.19811 -0.061151 
-0.022021 0.03092 0.232 0.16114 0.1955 -0.19877 -0.19942 -0.11919 
0.12875 0.17807 0.42551 0.3775 0.51561 -0.038956 -0.061809 -0.093376 
0.27623 0.32851 0.55951 0.57382 0.75878 0.18826 0.10524 0.090767 
0.24318 0.32259 0.37142 0.44903 0.68907 0.32522 0.16278 0.15883 
0.13828 0.18942 0.055418 0.23151 0.49818 0.38145 0.19566 0.11346 
0.0090533 0.082382 -0.15158 0.1202 0.39904 0.36221 0.19681 -0.054739 
-0.014787 0.042594 -0.27308 0.019083 0.25551 0.28576 0.19632 -0.14204 
0.086985 0.0056006 -0.32257 -0.0868 0.035853 0.16212 0.1641 -0.051944 
0.1733 -0.020377 -0.24776 -0.20288 -0.26026 0.050814 0.10392 0.12546 
0.17149 0.026974 -0.14846 -0.22129 -0.43618 -0.10982 0.052787 0.21769 
0.16262 0.083368 -0.10735 -0.16999 -0.51937 -0.21685 -0.027611 0.25617 
0.17708 0.08567 -0.04882 -0.17279 -0.52562 -0.25911 -0.029091 0.19484 
0.10162 0.10063 0.081889 -0.12478 -0.41546 -0.20962 -0.01528 0.10359 
0.03536 0.1003 0.1807 -0.05885 -0.28229 -0.10143 0.0069159 0.053116 
0.018754 0.097672 0.19057 -0.0055795 -0.15881 -0.086636 -0.003771 -0.012156 
0.018425 0.058542 0.083368 -0.0032777 -0.068386 -0.063618 -0.017417 -0.05589 
-0.040928 -0.065919 0.072024 0.017932 0.013328 -0.010841 0.021878 -0.050793 
-0.048985 -0.13448 0.17347 0.10984 0.055089 0.010204 0.01415 0.0059294 
-0.058192 -0.10768 0.26587 0.14009 0.1225 0.040785 0.0018191 0.035195 
-0.035667 0.024015 0.28921 0.1539 0.16377 0.0689 -0.028762 0.057884 
-0.038462 0.04506 0.17133 0.1636 0.17478 0.06331 0.004943 0.036839 
-0.049971 0.0041209 -0.051122 0.10343 0.14009 0.056898 0.031085 0.013986 
-0.065097 -0.034352 -0.21126 -0.00031829 0.10639 0.041607 0.010204 -0.039284 
-0.013307 -0.0087034 -0.21274 -0.034023 0.081067 -0.0088678 -0.0029489 -0.059014 
0.058377 0.042265 -0.15158 0.012835 0.10622 -0.0073881 -0.014129 -0.034023 
0.046211 0.12003 -0.017746 0.043251 0.14552 0.028947 0.050814 0.055089 
0.086657 0.19977 0.10639 0.099152 0.15045 0.086163 0.089123 0.10573 
0.13927 0.21424 0.16919 0.12464 0.12661 0.13302 0.085999 0.10967 
0.15571 0.17067 0.14535 0.1105 0.099316 0.13203 0.091425 0.079422 
0.14683 0.074654 0.059035 0.032729 0.022206 0.077449 0.06183 0.042265 
0.12464 0.021056 -0.0042642 -0.036818 -0.17443 -0.017417 0.067913 0.049335 
0.05624 -0.0031133 -0.079895 -0.11426 -0.45476 -0.10406 0.075148 0.050979 
-0.010512 -0.0095255 -0.10242 -0.20501 -0.61736 -0.15026 0.069064 0.067585 
-0.035338 -0.035667 -0.081868 -0.20633 -0.57412 -0.14944 0.02829 0.020891 
-0.022843 -0.029748 -0.060823 -0.080388 -0.37189 -0.15191 -0.021034 -0.02087 
-0.00064712 -0.0026201 0.045553 -0.049314 -0.26831 -0.20057 -0.077428 -0.032543 
0.017932 0.014479 0.074654 -0.014129 -0.15964 -0.16177 -0.12873 0.022206 
0.030592 -0.0073881 0.068407 0.030263 0.033222 -0.14862 -0.10735 0.071202 
0.0689 -0.02942 0.11674 0.19188 0.33969 -0.014787 -0.0075525 0.14831 
0.0069159 -0.050793 0.0689 0.19698 0.51117 0.076627 0.046704 0.11313 
-0.060823 -0.069701 0.0013258 0.13598 0.75484 0.30862 0.054925 0.0019835 
0.014479 -0.045203 0.01004 0.2121 1.0496 0.53616 0.11526 -0.13547 
0.14141 0.0023123 0.091096 0.27573 1.1586 0.6404 0.17676 -0.062631 
0.26094 0.083368 0.12266 0.28034 0.76371 0.47681 0.20701 0.066598 
0.17774 0.14305 0.045718 0.11855 0.0021479 0.13631 0.15489 0.00297 
0.063639 0.11987 -0.072989 -0.06 -0.46216 -0.078415 0.049828 -0.090417 
0.034702 0.11066 -0.13793 -0.18676 -0.55702 -0.14747 0.0056006 -0.17377 
-0.13514 0.097508 -0.11787 -0.18824 -0.57198 -0.17279 -0.024487 -0.24924 
-0.35167 -0.00031829 -0.11771 -0.20255 -0.54962 -0.21636 -0.072825 -0.17493 
-0.2961 -0.04619 -0.052766 -0.19663 -0.47728 -0.22869 -0.077593 0.005765 
-0.17789 -0.054246 -0.008539 -0.13843 -0.33506 -0.18726 -0.057699 0.15752 
-0.050136 -0.026953 0.025988 -0.060658 -0.18824 -0.10686 -0.021034 0.24564 
0.080573 -0.03501 0.0083956 -0.0088678 -0.097816 -0.035503 -0.0068948 0.21802 
0.11362 -0.025802 -0.081045 -0.015609 -0.0052507 -0.015116 -0.045532 0.095206 
-0.085485 -0.037311 -0.081868 -0.03353 -0.015444 -0.024323 -0.071181 -0.078086 
-0.17871 -0.055068 -0.035996 0.014315 -0.021034 -0.03501 -0.043066 -0.04882 
-0.069208 0.018096 0.033058 0.02533 0.066927 0.028125 0.041114 0.13154 
0.21885 0.082217 0.030756 0.073175 0.19583 0.10885 0.097508 0.18925 
0.36485 0.15604 0.019905 0.13417 0.32473 0.1641 0.12809 0.18761 
0.33706 0.16886 0.033715 0.14026 0.317 0.14963 0.12102 0.040785 
0.24301 0.17297 0.069393 0.094548 0.22296 0.046704 0.062981 -0.057699 
0.12792 0.15308 0.084848 0.068407 0.15061 0.012835 0.017932 -0.14221 
0.067749 0.12792 0.051965 0.071037 0.20355 0.067091 0.022042 -0.07414 
0.03092 0.10096 0.045224 0.090109 0.31651 0.16294 0.069393 0.039799 
0.032729 0.061008 -0.0024557 0.085835 0.28609 0.18629 0.1077 0.13878 
0.022371 0.012342 -0.090581 -0.0052507 0.14897 0.17445 0.14009 0.13927 
0.0042853 -0.011992 -0.15733 -0.082525 -0.13382 0.12085 0.1077 0.029605 
-0.050464 0.0041209 -0.15898 -0.20205 -0.42385 -0.0019624 0.047197 -0.07825 
-0.082854 -0.015444 -0.078744 -0.19942 -0.45229 -0.11738 -0.059178 -0.15224 
-0.11738 0.019411 0.073997 -0.076113 -0.25368 -0.21537 -0.2328 -0.21833 
-0.15865 0.087314 0.24417 0.09274 0.06742 -0.30333 -0.34049 -0.30481 
-0.28147 0.13286 0.31667 0.24548 0.44968 -0.23083 -0.28706 -0.27719 
-0.30662 0.11625 0.39641 0.4265 0.70864 0.048184 -0.042901 -0.081539 
-0.23592 0.09126 0.39444 0.4288 0.76256 0.38063 0.18136 0.17988 
-0.016102 0.061172 0.26209 0.3267 0.67904 0.42338 0.27261 0.2611 
0.10474 0.012506 0.089123 0.11954 0.38014 0.40661 0.24926 0.31667 
0.13812 -0.012978 -0.029091 -0.001798 0.01974 0.25567 0.21408 0.30681 
0.1636 0.051801 0.028454 -0.022021 -0.16473 0.14716 0.18432 0.29908 
0.19254 0.082875 0.13631 0.028619 -0.20847 -0.021034 0.12792 0.24466 
0.22131 0.10754 0.11165 0.066763 -0.32504 -0.14829 0.035031 0.19188 
0.19977 0.093726 0.053938 -0.032708 -0.42533 -0.24924 -0.049478 0.049335 
0.17939 0.11181 -0.025967 -0.094856 -0.44424 -0.22918 -0.079401 -0.084334 
0.099974 0.14223 -0.026131 -0.089431 -0.35759 -0.18495 -0.043888 -0.10554 
0.02681 0.050321 -0.075127 -0.086964 -0.25565 -0.1404 -0.027611 -0.093048 
0.02122 0.027139 -0.10078 -0.11771 -0.15026 -0.10291 -0.046683 -0.089431 
-0.04323 0.025988 -0.099624 -0.06 -0.02498 -0.037147 -0.022679 -0.041093 
-0.027118 0.032236 -0.042079 0.012999 0.077449 0.013328 0.0083956 0.051143 
0.029605 -0.011498 -0.0070593 0.017767 0.084026 0.0082312 0.02122 0.13269 
-0.0036066 -0.03501 0.018096 -0.0027845 0.038648 -0.037476 -0.0075525 0.16031 
-0.038298 -0.036654 0.10589 0.0014903 0.0074092 -0.016595 0.0039565 0.14601 
-0.020541 -0.0073881 0.13795 0.077943 0.058213 0.038155 0.022535 0.14946 
-0.052766 0.02829 0.17708 0.13499 0.12398 0.10063 0.051143 0.062488 
-0.05885 0.054103 0.15292 0.11905 0.16081 0.10047 0.074819 -0.02646 
0.026974 0.038812 0.10819 0.12431 0.12661 0.1077 0.03651 -0.086307 
-0.027282 0.020233 0.040621 0.040456 0.069722 0.04358 0.014479 -0.053095 
-0.18923 0.046868 -0.031721 0.01004 0.026646 0.022206 0.022042 -0.020048 
-0.19005 0.093069 0.0083956 0.031742 0.10326 0.066434 0.050814 0.01267 
-0.019884 0.11428 0.048184 0.086163 0.095699 0.059528 0.035524 0.017438 
0.03651 0.071531 0.070873 0.036346 -0.052109 0.0059294 0.016123 -0.09387 
0.1054 0.050486 0.052952 0.0036276 -0.15257 -0.024158 0.012506 -0.20271 
0.19665 0.077778 0.059528 0.054103 -0.13497 0.025166 0.039799 -0.12922 
0.23611 0.10885 0.0324 0.026646 -0.038791 0.038812 0.058871 0.0074092 
0.244 0.072024 0.025659 -0.00081153 0.031085 0.024344 0.025166 0.1465 
0.29349 0.056076 0.059364 0.019083 0.089123 0.0088889 0.014479 0.25387 
0.27771 0.037004 0.071202 0.029934 0.063639 -0.020377 0.044567 0.26225 
0.21145 0.050321 0.038319 -0.01232 -0.018568 -0.030406 0.054925 0.2006 
0.15522 0.061008 0.016945 0.0070803 -0.098802 -0.024652 0.080902 0.084519 
0.094548 0.066927 0.072681 0.093069 -0.021692 0.012835 0.052623 0.058706 
0.01974 0.014972 0.13269 0.11954 0.062159 0.0095465 0.0072447 0.043745 
-0.074798 -0.060823 0.047362 0.063145 0.069722 -0.036818 -0.069208 0.040456 
-0.24266 -0.13021 -0.034352 0.016616 0.063803 -0.067399 -0.072332 -0.0070593 
-0.3571 -0.059343 -0.053588 -0.0052507 0.10639 -0.031721 -0.011992 -0.04882 
-0.31797 0.067091 -0.03353 0.020891 0.15242 0.05772 0.077778 -0.049478 
-0.12988 0.12858 -0.055561 -0.010512 0.099645 0.16327 0.12957 0.016616 
0.090931 0.13417 -0.10143 -0.017253 0.10359 0.19369 0.11625 -0.031064 
0.13565 0.070544 -0.16375 -0.049642 0.042594 0.15637 0.068078 -0.092226 
0.10244 -0.072825 -0.24891 -0.090417 -0.08828 0.045224 -0.001798 -0.098144 
0.15555 -0.11968 -0.28837 -0.094199 -0.20353 -0.090746 -0.016431 -0.029584 
0.22509 -0.029091 -0.26091 -0.15059 -0.25368 -0.10587 -0.028433 0.09981 
0.1881 0.030592 -0.12494 -0.11031 -0.25467 -0.11426 0.012177 0.15916 
0.076627 0.040128 -0.031721 -0.096829 -0.1552 -0.062796 0.033222 0.15571 
0.051636 0.0098754 0.042758 -0.052109 -0.07973 -0.046519 0.0044497 0.053938 
0.11888 -0.024816 0.1197 -0.034681 -0.0064016 -0.034188 -0.035667 -0.0098543 
0.14733 -0.058521 0.13845 0.046211 0.061337 -0.027282 -0.060823 0.0036276 
-0.063946 -0.037311 0.16081 0.13039 0.13532 0.0016547 -0.00081153 0.019576 
-0.32142 0.023522 0.11329 0.13121 0.19402 0.047691 0.047855 0.037004 
-0.31599 0.071695 0.16212 0.12003 0.2172 0.096028 0.058706 0.071037 
-0.10423 0.13417 0.27951 0.19566 0.26094 0.17495 0.085506 0.012177 
0.078929 0.17774 0.26028 0.19928 0.22016 0.16459 0.085999 -0.087293 
0.19944 0.13319 0.060679 0.10688 0.12332 0.12036 0.097837 -0.022843 
0.21901 0.025659 -0.11903 0.036017 0.037004 0.073175 0.085341 0.13582 
0.17659 0.00099702 -0.17789 -0.012156 -0.059014 0.068571 0.086163 0.23233 
0.12217 0.035031 -0.20666 -0.080717 -0.15125 0.053938 0.075805 0.16196 
0.11378 0.058706 -0.12314 -0.083676 -0.16358 -0.029255 -0.0073881 -0.011663 
0.08715 0.07449 -0.022514 -0.080881 -0.10078 -0.073976 -0.04323 -0.13711 
-0.024816 0.10951 0.045553 -0.033037 -0.0080457 -0.076606 -0.039778 -0.16917 
-0.058521 0.095206 0.17067 0.026481 0.10113 0.0042853 0.023193 -0.18249 
0.0041209 0.054267 0.22542 0.077614 0.15571 0.0092177 0.036839 -0.14287 
0.021549 0.037661 0.26521 0.12381 0.16294 -0.015609 0.0324 -0.13744 
-0.017253 0.017274 0.29678 0.085341 0.12891 0.024673 0.0093821 -0.14846 
-0.042901 0.025988 0.30253 0.097837 0.12118 0.034537 -0.025309 -0.016924 
-0.037311 -0.011827 0.20914 0.092247 0.12842 0.016781 -0.046354 0.24844 
-0.0055795 -0.0052507 0.061995 0.1322 0.14075 -0.026789 -0.042408 0.40085 
0.004943 0.028454 0.041443 0.17741 0.14437 -0.04471 -0.0138 0.38162 
0.049006 0.098001 0.071037 0.21243 0.092247 -0.00097594 0.060515 0.29053 
0.053774 0.11181 0.075476 0.20832 0.051801 0.098001 0.11987 0.21227 
-0.038133 0.088136 -0.034352 0.05772 -0.02235 0.13302 0.13335 0.10885 
-0.077428 0.07597 -0.11689 -0.11376 -0.15684 0.16623 0.14371 0.022042 
-0.076442 0.062817 -0.15865 -0.19186 -0.14763 0.24449 0.15555 -0.071838 
-0.019719 0.030098 -0.099953 -0.19202 -0.062138 0.22887 0.097837 -0.14204 
0.032236 -0.0031133 0.044073 -0.16079 -0.1108 0.021384 -0.023172 -0.16835 
0.023522 -0.006566 0.064132 -0.095185 -0.16029 -0.18117 -0.12462 -0.20156 
-0.0027845 -0.0078813 0.066434 -0.015609 -0.0057439 -0.23921 -0.16111 -0.18117 
0.077943 0.0037921 0.13253 0.20257 0.35712 -0.1062 -0.036325 -0.072496 
0.35925 0.11576 0.24795 0.34807 0.66474 0.11855 0.1026 0.20701 
0.54504 0.19566 0.26603 0.37224 0.54011 0.25288 0.20355 0.24351 
0.38638 0.24926 0.18465 0.28313 0.26981 0.25863 0.18021 0.19977 
0.11231 0.23397 0.14634 0.19796 0.09274 0.10704 0.072353 0.065283 
-0.081045 0.1179 0.11083 0.080409 -0.034845 -0.069208 -0.00015387 0.040292 
-0.2379 -0.025474 0.074654 0.0039565 -0.20501 -0.12675 -0.068057 -0.020212 
-0.29922 -0.045696 0.076956 -0.056383 -0.279 -0.13678 -0.025802 -0.065097 
-0.26124 0.0052718 0.011355 -0.087951 -0.31122 -0.083676 -0.0060728 -0.10834 
-0.19893 0.055911 -0.027611 -0.077922 -0.30021 -0.05326 0.037004 -0.17049 
-0.13497 0.081231 -0.060165 -0.068386 -0.30498 -0.075291 0.010369 -0.18561 
-0.12692 0.0786 -0.060658 -0.069372 -0.29626 -0.056548 -0.027118 -0.16424 
-0.24184 0.051636 -0.10094 -0.085156 -0.20797 -0.058356 -0.050464 -0.051287 
-0.1547 0.034537 -0.11113 -0.095678 -0.11163 -0.043395 -0.064275 0.071859 
0.12842 0.028619 -0.099953 -0.11639 0.00099702 -0.03616 -0.018075 0.18004 
0.317 0.042265 -0.054739 -0.031721 0.11987 -0.013143 -0.012814 0.20421 
0.30072 0.030427 0.0067515 0.15045 0.39789 0.12694 0.025988 0.22526 
0.23134 0.0062583 -0.014951 0.22444 0.71357 0.28724 0.096357 0.24055 
0.16426 -0.10834 -0.018568 0.22213 0.71242 0.37619 0.15423 0.21391 
0.049992 -0.17065 -0.03205 0.14502 0.41713 0.34972 0.14815 0.073175 
-0.084334 -0.13892 -0.03205 0.058871 0.17067 0.17873 0.076134 -0.026296 
-0.08384 -0.046025 -0.030735 0.021384 0.081231 0.062981 0.05065 -0.034845 
-0.021528 0.038977 -0.042079 -0.02794 -0.02942 -0.017582 0.034866 -0.0021268 
0.022535 0.1271 -0.022185 -0.031064 -0.12083 -0.059836 0.026317 -0.013307 
0.042758 0.18415 0.018589 -0.047998 -0.12626 -0.084005 0.019905 -0.030406 
0.089287 0.19862 0.0036276 0.016288 0.028947 0.010533 0.0064227 -0.035996 
0.12924 0.17955 -0.051944 0.079094 0.23825 0.13631 0.040785 -0.0064016 
0.1105 0.09833 -0.071345 0.058542 0.23463 0.18054 0.01711 0.0087245 
0.086985 0.058542 -0.04619 0.0019835 0.062817 0.099974 0.018096 0.00083261 
0.081889 0.024837 -0.037805 -0.027282 -0.13497 -0.026296 -0.022185 0.01415 
0.071859 0.029605 -0.015938 -0.006566 -0.18643 -0.076771 -0.041751 0.0064227 
0.093891 0.0067515 -0.0052507 -0.0062372 -0.13941 -0.041257 -0.0022913 0.038319 
0.080244 -0.014951 -0.033694 -0.031064 -0.087786 0.013657 0.014479 0.060515 
0.029934 -0.037147 -0.043559 -0.0060728 -0.073647 0.034702 0.058542 0.06742 
0.0011614 0.028125 -0.0052507 0.024179 -0.049971 0.030592 0.070051 0.047197 
0.00017495 0.012835 -0.026624 0.0013258 -0.074962 -0.010841 0.049335 0.053116 
-0.0036066 -0.032708 -0.090088 -0.031721 -0.093048 -0.021363 0.034373 0.048513 
0.016288 -0.056383 -0.099295 -0.036489 -0.10637 0.0039565 0.023851 0.045553 
0.026317 -0.04323 -0.063289 -0.096172 -0.10653 -0.0096899 0.035031 0.04506 
0.0023123 -0.051122 0.0075736 -0.10669 -0.12593 -0.03205 0.014808 0.046704 
-0.0022913 -0.052109 0.013328 -0.075127 -0.071345 -0.055232 0.014808 0.091425 
0.13713 -0.0004827 0.07449 -0.016431 0.056898 -0.048985 -0.0024557 0.13795 
0.29069 0.05772 0.14864 0.06035 0.12792 -0.08121 -0.031886 0.20586 
0.31832 0.11921 0.13828 0.070051 0.20783 0.066269 0.018589 0.21474 
0.27984 0.12151 0.13434 0.080244 0.22115 0.16804 0.054596 0.20027 
