0.052623 0.053445 0.11526 0.056898 0.014479 0.019411 -0.00081153 0.01711 
0.071366 0.045553 0.14321 0.039963 0.017603 0.014479 0.03536 0.036346 
0.040621 0.054596 0.18185 0.025988 -0.011334 0.019083 0.022206 0.0098754 
0.026974 -0.0087034 0.22526 0.02829 0.0074092 0.032564 0.047526 0.071695 
0.041772 0.022371 0.31388 0.10113 -0.0052507 0.047362 0.058377 0.12661 
0.066763 0.060844 0.51611 0.12644 0.049828 0.023851 0.069722 0.14206 
0.056076 0.21178 0.7573 0.16245 0.055747 0.036839 0.080573 0.12694 
0.062159 0.27047 0.74694 0.19764 0.083204 0.043251 0.060515 0.11395 
0.030592 0.21227 0.38046 0.14552 0.069064 0.031907 0.035195 0.089452 
0.047855 0.08863 -0.092883 0.038155 0.047691 0.022206 0.0079024 0.10836 
0.061172 0.0019835 -0.41859 -0.085978 0.0067515 0.014479 0.031414 0.12381 
0.11707 -0.045696 -0.59007 -0.12083 -0.0032777 0.020069 0.018589 0.11017 
0.14174 -0.11475 -0.64761 -0.10916 -0.023336 0.0075736 0.010862 0.06035 
0.10967 -0.1598 -0.57609 -0.14188 0.0080668 0.016781 -0.0016336 -0.12396 
0.032071 -0.11919 -0.45065 -0.076935 0.0044497 0.0031344 -0.037147 -0.25927 
-0.0036066 -0.01676 -0.21488 -0.039778 0.0083956 0.0013258 -0.018404 -0.16539 
0.017603 0.019247 -0.11179 0.020398 0.023028 -0.010348 0.0060938 0.022864 
0.01004 0.043087 -0.017417 -0.010183 0.036675 0.017932 0.0044497 0.093069 
-0.023172 0.03799 -0.013636 -0.0070593 0.037661 0.024344 0.0079024 0.10145 
-0.099953 0.058542 0.062652 0.01711 0.025001 0.02122 0.052952 0.097015 
-0.026953 0.089287 0.097344 0.033387 0.017438 0.01415 0.068078 0.13565 
0.11822 0.10376 0.1077 0.012013 0.038483 0.043745 0.066763 0.12332 
0.17232 0.037661 0.0592 0.018754 0.041443 0.04654 0.052294 0.12973 
0.12431 0.011191 -0.048163 0.030756 0.0056006 0.040785 0.043416 0.093398 
0.069886 0.071202 -0.076935 0.013492 0.027796 0.023686 0.02122 0.057555 
0.036346 0.10145 -0.032379 0.024508 0.027961 0.017438 0.042923 0.015794 
-0.010512 0.10819 0.021878 0.046375 0.062817 0.016945 0.03651 0.0080668 
-0.017582 0.083204 0.011191 0.019905 0.051472 0.042758 0.023028 -0.0047575 
-0.057041 0.078272 0.013164 0.0059294 0.013986 0.026152 0.016288 -0.037147 
-0.035832 0.058377 0.053774 0.022371 0.012177 0.012835 0.00050378 -0.074798 
-0.0077169 0.053281 0.071859 0.043416 0.024344 0.012506 0.0039565 -0.10341 
0.047691 0.03388 0.076792 0.022535 0.041936 0.036675 0.0051074 0.0067515 
0.11477 0.043909 -0.025967 -0.0052507 0.02122 0.037661 0.039305 0.063474 
0.1687 0.043416 -0.030406 0.018754 0.025495 0.035524 0.041936 0.12102 
0.14815 -0.004593 0.051801 0.011848 0.034537 0.048348 0.060022 0.028125 
0.063803 -0.0052507 0.1105 0.029769 0.037168 0.016288 0.016781 -0.039613 
-0.018075 0.015794 0.10359 0.03799 0.055089 0.040456 0.016288 -0.067892 
-0.09387 -0.013143 -0.014293 0.03536 0.016288 0.028454 0.013164 -0.0096899 
-0.13004 -0.086307 -0.16736 -0.006566 0.011684 0.015301 0.025659 0.062323 
-0.12593 -0.09387 -0.27686 -0.071345 -0.0027845 0.0024767 0.055911 0.13532 
-0.014787 -0.034023 -0.24382 -0.00081153 0.03092 0.036839 0.058706 0.16492 
0.038319 0.012835 -0.20518 0.0011614 0.0034632 -0.022843 0.092247 0.18218 
0.083204 -0.015116 -0.18331 -0.016102 0.016616 0.022042 0.028619 0.074654 
0.072517 -0.050958 -0.13432 -0.024158 0.0098754 -0.0062372 0.060186 0.021056 
0.053938 0.0044497 -0.060987 0.037004 0.038155 0.014479 0.043416 -0.018075 
0.051308 0.066434 -0.011663 0.030263 0.047197 0.048348 0.022206 -0.050958 
0.016616 0.092904 -0.0060728 0.0064227 0.035688 0.011026 0.0060938 -0.11442 
0.020562 0.090767 0.097015 0.014643 0.023522 0.007738 -0.01676 -0.19564 
0.012506 0.099974 0.19057 0.054596 0.02533 0.0013258 -0.011005 -0.22507 
0.019411 0.13056 0.28576 0.070708 0.058213 0.017767 0.016781 -0.15109 
0.021878 0.13812 0.31749 0.091753 0.035031 0.032071 0.0021479 -0.058028 
0.038319 0.094877 0.22394 0.087479 0.043745 0.01826 0.020562 0.08715 
-0.011663 0.053609 0.10787 0.044073 0.035688 0.020398 0.04506 0.20914 
-0.056219 0.024508 -0.011827 0.011191 0.049664 0.033222 0.062981 0.21605 
-0.02794 0.016945 -0.07414 0.025495 0.031578 0.032729 0.047033 0.14042 
-0.063782 0.03651 -0.097651 0.012342 0.025824 0.01267 0.029112 0.037168 
-0.030242 0.05213 0.017438 0.025824 0.040621 0.01974 0.03092 0.0062583 
0.010204 0.098166 0.10737 0.032236 0.041772 0.017767 0.0062583 -0.0062372 
0.077778 0.078436 0.1008 0.065447 0.032729 0.022535 0.045389 0.034866 
0.13631 0.017438 -0.0036066 0.024837 0.011355 0.018589 0.0324 0.061008 
0.16475 -0.03764 -0.088444 0.021713 0.013821 0.0032988 0.034866 0.084026 
0.095371 -0.028269 -0.038462 0.037497 0.029441 0.0014903 0.013657 0.025988 
0.034537 0.016123 0.04506 0.040456 0.041936 0.0098754 0.012342 -0.050629 
-0.024816 0.034702 0.099974 0.027303 0.015959 0.023357 0.051308 -0.066577 
-0.00015387 0.01415 0.061501 0.01415 0.015794 0.022042 0.030098 -0.036325 
0.027303 -0.022021 0.055582 0.021384 0.018589 -0.0034422 -0.0022913 0.018096 
-0.0047575 -0.03353 0.11839 0.022535 0.034537 0.0072447 0.0041209 0.02533 
-0.022514 0.072681 0.26932 0.11017 0.026152 0.013492 0.033715 0.057884 
0.017274 0.12349 0.34018 0.12743 0.037661 0.038648 0.049828 0.082711 
0.082053 0.12891 0.27655 0.11526 0.039799 0.047855 0.032893 0.10935 
0.054596 0.099316 0.20125 0.07597 0.04095 0.013328 0.021713 0.062323 
-0.01117 0.12118 0.20454 0.056569 0.041278 0.0028056 0.0041209 0.038319 
-0.062631 0.20142 0.34248 0.095535 0.017767 0.0036276 0.016288 0.025495 
-0.0039354 0.28182 0.44261 0.087479 0.040785 0.03092 0.059693 0.039305 
0.029441 0.26702 0.27935 0.04506 0.030263 0.026974 0.033715 0.024344 
0.041936 0.15735 0.095206 0.01974 0.023357 0.0014903 0.014643 0.016945 
0.0227 0.043087 0.0044497 0.034044 -0.016266 -0.012156 -0.017746 0.019083 
0.057062 0.033551 0.13795 0.073175 -0.0019624 0.0067515 0.013492 0.013986 
0.11576 0.09981 0.19385 0.11 0.017603 0.025824 0.028454 0.028454 
0.16179 0.082217 0.043745 0.088136 0.027796 0.013492 0.024344 0.032236 
0.099152 0.01267 -0.030242 0.021878 0.027961 0.0079024 0.024837 0.089616 
0.041607 -0.045532 0.055254 0.017767 0.023522 0.022371 0.035524 0.14124 
-0.0060728 -0.10489 0.17117 0.039141 0.0051074 0.089945 0.06479 0.13253 
0.038319 -0.064275 0.027303 0.05213 0.024344 0.04506 0.045718 0.1567 
0.05772 -0.026131 -0.051122 0.041443 0.051801 0.060515 0.055089 0.14585 
0.095042 0.079258 0.0085601 0.064625 0.044896 0.05065 0.065283 0.15209 
0.069886 0.12151 0.14206 0.11033 0.0421 0.048348 0.095042 0.19139 
0.032236 0.11888 0.24219 0.069393 0.021384 0.056404 0.079422 0.12003 
-0.028269 0.12825 0.2468 0.0227 0.012999 0.011684 0.015137 -0.04882 
-0.12741 0.079751 0.21375 0.024344 -0.018239 -0.017253 -0.073976 -0.43256 
-0.19268 0.029276 0.11658 0.017932 -0.039284 -0.047998 -0.1256 -0.60191 
-0.20189 0.030098 0.017438 -0.003771 0.00099702 -0.044052 -0.090746 -0.36532 
-0.1062 0.037826 -0.028762 -0.0073881 0.0088889 -0.023336 -0.014787 0.02122 
0.0079024 0.073339 0.0062583 0.017932 0.028454 -0.017746 0.027961 0.26718 
0.090767 0.066598 -0.010348 0.0019835 0.022535 0.016781 0.059528 0.30319 
0.070708 0.010862 -0.05441 -0.0013048 0.01711 -0.0016336 0.068571 0.28067 
0.071695 -0.0029489 -0.071345 -0.00081153 0.030756 0.035688 0.088301 0.22246 
0.13615 0.024179 -0.053424 0.0324 0.032236 0.032071 0.10343 0.19172 
0.18251 0.042429 -0.029913 0.018754 0.0060938 0.033222 0.069393 0.13286 
0.14815 0.028947 0.0019835 -0.0027845 0.025659 0.019411 0.05476 0.10754 
0.094055 0.016452 0.020727 0.040621 0.022371 0.039963 0.033058 0.056569 
0.066763 0.00033937 -0.0072237 0.046868 0.024837 0.039634 0.036182 0.012999 
0.029112 0.029276 -0.049642 0.022206 0.0092177 0.0013258 0.034373 -0.027611 
0.0051074 0.018425 -0.062302 0.02533 0.0062583 0.013821 0.0098754 -0.038956 
-0.022679 0.035195 -0.075127 0.034373 0.019576 0.02829 0.0013258 -0.041422 
0.0019835 -0.0022913 -0.067892 0.0095465 0.02533 0.025166 0.0041209 -0.03205 
0.014972 0.020398 -0.11705 0.0028056 0.021384 0.015465 0.026317 -0.038133 
0.010862 0.027468 -0.11886 -0.0059084 0.011191 0.018589 0.024837 -0.018897 
-0.011498 0.014643 -0.09798 -0.010512 0.010369 0.016781 0.013986 -0.0088678 
-0.014458 -0.015116 -0.078908 -0.0060728 0.01415 0.01152 0.019083 -0.023994 
-0.011498 0.0085601 -0.06707 0.0042853 0.048513 0.018425 0.036839 -0.0057439 
-0.0091966 0.016123 -0.14007 0.014479 0.0098754 0.0090533 0.026646 -0.01528 
-0.012814 0.0064227 -0.15257 -0.0013048 -0.0027845 0.010697 0.015794 -0.0014692 
-0.0021268 -0.0087034 -0.12725 -0.028926 0.0080668 -0.0078813 0.01152 -0.019555 
0.017767 -0.011005 -0.0771 -0.0031133 0.021384 0.028125 0.0037921 0.005765 
0.022535 0.036182 -0.094363 -0.0082102 0.015137 0.020069 0.026317 -0.0052507 
0.042594 0.014643 -0.16473 -0.021856 0.00297 0.014315 0.025166 0.04095 
0.073832 0.00050378 -0.1843 -0.015773 0.026646 0.0016547 0.023686 0.043745 
0.0786 -0.0090322 -0.17049 0.0056006 0.024673 0.0092177 0.020727 0.060679 
0.0786 0.015794 -0.12462 -0.011663 0.053281 0.036346 0.047691 0.039799 
0.054103 0.019411 -0.1381 -0.015444 0.018425 0.019411 0.047197 0.010862 
0.028783 -0.004593 -0.12675 0.0098754 0.0095465 -0.0064016 0.045718 -0.014622 
0.035195 0.017274 -0.097158 0.0014903 0.031907 0.01711 0.019411 0.012999 
0.036839 0.019247 -0.013636 0.017274 0.044238 0.027303 0.044402 -0.02498 
0.029605 0.035688 -0.050793 0.0065871 0.047691 0.037168 0.028783 0.004943 
0.030263 0.040128 -0.059836 0.030098 0.040456 0.028454 0.023686 0.023357 
0.048841 0.030592 -0.037476 0.013986 0.024015 0.029112 0.027961 0.035524 
0.05624 0.027468 -0.008539 0.016616 0.034537 0.018754 0.035853 0.04358 
0.034702 0.060186 0.027139 0.019576 0.069886 0.028454 -0.0082102 0.045553 
0.017603 0.057062 0.016945 0.0227 0.031249 0.028619 0.033222 0.075312 
-0.0024557 0.047691 0.029441 0.019411 0.040456 0.033222 0.023851 0.073997 
-0.013143 0.042265 0.034537 0.017767 0.029934 0.0047785 0.0019835 0.048348 
0.022042 0.058377 0.079751 0.039305 0.039634 0.018918 -0.010183 0.026646 
0.073504 0.079916 0.095371 0.031414 0.036346 0.02681 -0.012978 0.019247 
0.092411 0.056733 0.072353 0.023357 0.034537 0.030427 0.010204 0.041772 
0.11444 0.051472 0.07597 0.065118 0.032071 0.015301 0.0324 0.047362 
0.10129 0.052952 0.10376 0.049335 0.041772 0.014315 0.03651 0.047526 
0.083862 0.091425 0.1128 0.047691 0.060186 0.028947 0.0324 0.0421 
0.051143 0.06742 0.12365 0.073339 0.030098 0.022206 0.034373 0.00050378 
0.020069 0.063474 0.11576 0.076792 0.037826 0.037826 0.053609 0.018918 
0.025495 0.060844 0.10491 0.05624 0.035195 0.037332 0.036017 0.020891 
0.0227 0.080738 0.11526 0.056076 0.032893 0.058542 0.01563 0.026152 
0.034373 0.061172 0.14141 0.065447 0.040785 0.058871 0.024508 0.038319 
0.032071 0.05476 0.11773 0.058213 0.036182 0.037168 0.027303 0.031085 
0.034702 0.058871 0.11411 0.051143 0.035524 0.030427 0.041936 0.038155 
0.019411 0.051965 0.12085 0.059528 0.039634 0.0018191 0.025659 0.018096 
0.034373 0.071531 0.13631 0.069886 0.044567 0.033222 0.019905 0.021713 
0.042594 0.073997 0.1613 0.06479 0.035031 0.031249 0.024508 0.015959 
0.036346 0.060515 0.13335 0.055911 0.028454 0.025659 0.032893 0.038155 
0.045224 0.053281 0.13532 0.081231 0.039634 0.028454 0.027139 0.032564 
0.047526 0.085835 0.12217 0.072024 0.062652 0.039141 0.018589 0.018589 
0.034537 0.073997 0.13105 0.056569 0.051801 0.046211 0.012506 0.015137 
0.035031 0.057555 0.13171 0.036182 0.027632 0.041936 0.013164 0.022864 
0.026481 0.063639 0.10655 0.071531 0.032729 0.018589 0.044073 0.0088889 
0.023028 0.080409 0.10293 0.050979 0.033551 0.036675 0.031907 0.026481 
0.033715 0.082546 0.10737 0.030756 0.031249 0.047033 0.019247 0.013821 
0.02533 0.06742 0.14733 0.055582 0.033715 0.045389 0.010204 0.016616 
0.040128 0.05476 0.095206 0.059857 0.019247 0.045224 0.017438 0.03536 
0.063968 0.068736 0.088301 0.035853 0.037168 0.037497 0.045718 0.030756 
0.037826 0.069722 0.086163 0.043745 0.043416 0.018096 0.03092 0.036839 
0.013328 0.061172 0.094548 0.064625 0.037826 0.038319 0.01152 0.030592 
0.018754 0.05624 0.11806 0.052459 0.025988 0.047033 0.015794 0.031414 
0.073175 0.072517 0.066763 0.029276 0.030427 0.018589 0.052623 0.058871 
0.010697 0.067585 0.086328 0.029934 0.051801 0.019083 0.027961 0.01152 
0.043416 0.020891 0.084684 0.053116 0.012342 0.054596 0.0032988 -0.019555 
0.027139 0.029276 0.043745 0.024015 0.0069159 0.054925 0.025166 0.019576 
0.077285 0.018918 -0.059836 0.018425 0.0092177 0.03947 0.011684 0.018096 
0.06742 -0.0052507 -0.12527 0.020233 0.030263 0.025988 0.027632 -0.00064712 
0.069393 -0.035338 -0.23362 -0.01232 0.030756 0.034209 0.035524 -0.014293 
0.018589 0.0047785 -0.27571 -0.067235 0.0037921 0.03388 0.03092 0.00017495 
0.020233 0.019083 -0.21389 -0.033201 0.0060938 0.023851 0.01974 0.024179 
0.00297 0.022535 -0.17838 -0.0083746 0.015465 0.03799 0.016781 0.076792 
0.014643 0.019083 -0.10521 -0.0031133 0.046868 0.034044 0.052952 0.080902 
0.011191 0.028619 -0.021692 0.0056006 0.01711 0.056898 0.0421 0.078436 
-0.051944 0.033387 0.061501 0.042923 0.016616 0.049335 0.015137 0.059693 
-0.016595 0.053445 0.14979 0.058377 0.021713 0.043251 -0.0040998 0.056733 
0.0069159 0.098001 0.23298 0.047526 0.037661 0.02533 0.018425 0.054103 
-0.012814 0.060186 0.30451 0.088794 0.024344 0.016123 0.03388 0.050157 
-0.014458 0.011848 0.3609 0.095699 -0.00097594 0.022206 0.010697 0.05065 
0.031249 0.16212 0.64139 0.10754 0.033715 0.036017 0.027632 0.053938 
0.098988 0.34923 0.84789 0.17593 0.053774 0.032893 0.044238 0.074654 
0.13171 0.35317 0.68644 0.21145 0.087643 0.044238 0.046211 0.057391 
0.061995 0.17363 0.16311 0.13121 0.080902 0.03651 0.060679 0.019411 
0.017438 -0.023501 -0.22704 -0.00031829 0.02533 0.033222 0.037168 -0.0098543 
-0.091239 -0.072825 -0.41102 -0.065919 0.031249 0.025001 0.027796 -0.022185 
-0.13201 -0.066741 -0.58563 -0.076442 0.021549 0.024508 0.023522 -0.042079 
-0.072496 -0.084827 -0.68839 -0.11245 -0.008539 0.033715 0.023686 -0.03764 
-0.023336 -0.1159 -0.67014 -0.12462 -0.014458 -0.00097594 0.024673 -0.021199 
-0.029913 -0.12741 -0.4952 -0.089431 -0.019226 -0.017582 -0.009361 0.01974 
-0.079566 -0.18282 -0.29577 -0.07825 -0.022021 -0.044546 -0.031557 0.0079024 
-0.055397 -0.1404 -0.10324 -0.05885 -0.0013048 -0.055726 -0.0047575 0.009711 
0.070708 -0.032215 0.05624 0.026646 0.013328 -0.00031829 0.041936 0.053116 
0.14798 -0.016266 0.11773 0.079422 0.03947 0.023357 0.060515 0.033222 
0.084026 -0.071016 0.23907 0.069558 0.052623 0.040456 0.03799 0.027303 
0.040292 -0.082525 0.36912 0.096193 0.048019 0.00297 0.035688 0.046375 
0.064296 0.041607 0.42962 0.16278 0.043909 -0.00064712 0.058213 0.09274 
0.019083 0.18103 0.5235 0.2075 0.057062 0.0032988 0.061172 0.10721 
-0.042408 0.26406 0.54274 0.16541 0.069393 0.012013 0.041772 0.11625 
0.007738 0.27803 0.46201 0.086163 0.066269 0.0082312 0.034373 0.070708 
0.073339 0.20947 0.25929 0.048184 0.043745 -0.00031829 0.013986 0.027632 
0.047855 0.14371 0.081724 -0.03764 0.013492 -0.014622 0.0090533 -0.026953 
0.035524 0.16623 0.032236 -0.065097 0.037826 -0.00097594 0.0028056 0.017932 
-0.028926 0.22115 0.16771 0.044238 0.035524 0.0042853 0.025166 -0.0054151 
-0.011334 0.18678 0.15324 0.066598 0.021056 0.013492 0.018096 0.0069159 
-0.013143 0.09126 0.011191 0.040292 0.018096 0.0056006 0.029769 0.029276 
0.017438 -0.0026201 0.047691 0.020562 0.0095465 0.00297 0.028454 0.034866 
0.045718 0.016616 0.23101 0.050979 0.019411 0.0065871 0.019411 0.08863 
0.050157 0.0011614 0.24153 0.05624 0.041607 -0.0032777 0.059035 0.11066 
0.08008 -0.027118 0.065447 0.062652 0.028947 0.017274 0.047033 0.15653 
0.16097 -0.012649 0.0087245 0.085999 0.041936 0.0088889 0.049499 0.087479 
0.17281 0.028619 0.076134 0.066434 0.028454 0.0064227 0.073997 0.040621 
0.076134 0.028619 -0.05178 0.015465 0.031414 0.0065871 0.031249 -0.064768 
-0.058356 -0.087129 -0.25779 -0.056219 0.027303 -0.017088 -0.037476 -0.13103 
-0.14747 -0.18134 -0.4347 -0.069536 -0.011827 -0.037805 -0.047834 -0.2522 
-0.10357 -0.17641 -0.38028 -0.092226 -0.011005 -0.052437 -0.052602 -0.27012 
0.068407 -0.11097 -0.22343 -0.042244 0.012342 -0.034845 -0.0034422 -0.096829 
0.17265 -0.028104 -0.037969 0.02681 0.033387 0.036839 0.018754 0.12908 
0.15226 0.027139 0.042758 0.061008 0.018918 -0.00031829 0.031085 0.2006 
0.10507 0.087972 0.038155 0.049992 0.0069159 -0.010348 0.028783 0.18037 
0.035853 0.098988 0.039634 0.011355 0.0054362 -0.015609 0.038155 0.11839 
-0.07003 0.11411 0.092411 0.035853 0.029769 0.0028056 0.03799 0.073668 
-0.063618 0.14716 0.21934 0.023193 0.022535 0.013164 0.041936 0.067256 
0.034044 0.22263 0.21621 0.037332 0.038483 0.032729 0.037497 0.087479 
0.073339 0.24334 0.1978 0.07038 0.040785 0.017438 0.038648 0.1031 
0.091096 0.21194 0.16163 0.044402 0.041607 0.029276 0.047691 0.062652 
0.15374 0.048184 -0.018404 -0.0004827 0.046868 0.045718 0.03536 0.069393 
0.19681 -0.12001 -0.29511 -0.043559 -0.0052507 0.020233 0.021713 0.047855 
0.15259 -0.15668 -0.37633 -0.02646 0.0047785 0.021878 0.031907 0.031907 
0.067913 -0.09387 -0.2185 -0.028269 0.0054362 0.026974 0.01974 -0.0050863 
0.048348 -0.071838 -0.15783 -0.023829 0.017603 0.013492 0.035853 -0.0073881 
0.02681 -0.069701 -0.27242 -0.02087 0.0039565 0.035688 0.0064227 -0.039284 
0.015301 -0.069701 -0.38998 -0.030899 0.011684 0.014643 -0.0087034 -0.04471 
0.01826 -0.070359 -0.47909 -0.10357 0.041443 0.052294 -0.0057439 -0.06148 
0.054103 -0.083347 -0.53828 -0.07973 0.024837 0.021056 0.0041209 -0.027775 
0.08567 -0.031721 -0.47021 -0.048985 0.012835 0.021384 0.0060938 -0.022514 
0.048677 0.093069 -0.20403 -0.060658 0.0036276 0.037826 0.0032988 0.0042853 
0.03799 0.2782 0.062323 -0.051615 0.021878 0.058871 0.029441 0.034866 
0.038812 0.42223 0.08567 0.0019835 0.041278 0.074819 0.033387 0.069229 
0.004943 0.37619 -0.03353 0.010862 0.036346 0.062159 0.059857 0.08419 
-0.059178 0.16311 -0.0083746 -0.012485 0.0047785 0.089616 0.045389 0.08567 
-0.15273 -0.0080457 0.16327 0.015465 -0.0019624 0.067585 0.013821 0.085999 
-0.10834 0.029441 0.38803 0.1128 0.012177 0.058377 0.0047785 0.038977 
0.07038 0.10524 0.50443 0.1151 0.026974 0.074326 0.0014903 0.023851 
0.19698 0.091096 0.45034 0.11839 0.044238 0.11165 0.033715 -0.026953 
0.19912 -0.059507 0.29365 0.084026 0.029276 0.10195 0.015465 0.0028056 
0.054925 -0.17065 0.14634 0.10211 0.0075736 0.083368 0.038812 0.018918 
-0.1085 -0.21784 0.0074092 0.060186 0.050486 0.091096 0.044073 0.062488 
-0.16424 -0.20682 -0.16523 0.060186 0.046046 0.079094 0.048184 0.087314 
-0.13316 -0.14352 -0.30974 0.052952 0.02681 0.095699 0.0689 0.067256 
-0.12314 -0.096336 -0.41283 -0.0014692 0.025988 0.072353 0.039305 0.039305 
-0.037147 0.022371 -0.40017 -0.040764 0.01415 0.081067 0.018425 0.010862 
0.088794 0.12135 -0.27867 -0.04323 0.03651 0.063968 -0.0068948 -0.034188 
0.14387 0.18662 -0.10127 -0.0031133 0.013657 0.070215 0.014808 0.0079024 
0.1179 0.23562 0.024344 -0.019226 0.0059294 0.099152 0.019247 0.021384 
0.11165 0.21671 0.012999 -0.0138 0.0075736 0.05772 0.0087245 0.049006 
0.10984 0.16936 -0.01676 0.011355 0.013164 0.055911 0.019576 0.13582 
0.079422 0.16294 0.042594 -0.0050863 0.01415 0.042758 0.03388 0.16393 
0.069722 0.14486 0.15456 0.017603 0.0095465 0.067256 0.067091 0.18152 
-0.0062372 0.12003 0.2657 0.079422 0.0324 0.073997 0.09833 0.11954 
-0.18512 0.10113 0.32292 0.087479 0.037168 0.072024 0.051965 0.097837 
-0.20995 0.12891 0.3854 0.083533 0.061995 0.078765 0.047362 0.065612 
-0.060165 0.16821 0.2754 0.1054 0.066927 0.093398 0.057227 0.084026 
0.079094 0.045882 0.11724 0.12464 0.065118 0.092411 0.064132 0.018425 
0.086985 -0.062631 0.024837 0.092904 0.043087 0.050157 0.016452 -0.12297 
0.03799 -0.20732 -0.043888 0.065612 0.034537 0.021549 -0.035832 -0.24003 
0.025659 -0.2471 -0.072825 0.030263 0.016288 -0.0014692 -0.049807 -0.23165 
0.094713 -0.13793 -0.010348 0.071531 0.017767 0.021549 -0.023336 -0.12494 
0.18432 0.01974 0.032236 0.074819 0.049664 0.058542 0.064296 0.10819 
0.21835 -0.023829 -0.014787 0.079751 0.060186 0.048184 0.06594 0.17692 
0.11198 -0.098802 0.11231 0.073668 0.036839 -0.0082102 0.010862 0.074654 
-0.029584 0.030756 0.62889 0.12431 0.013986 -0.021692 -0.019226 -0.060658 
-0.075127 0.26537 1.0141 0.1927 0.043251 -0.0077169 -0.040928 -0.13021 
-0.050629 0.37076 0.85316 0.1904 0.059857 -0.012485 0.020562 -0.060494 
-0.080388 0.2126 0.26505 0.11592 0.062159 -0.018075 0.047855 0.029605 
-0.11903 0.13713 0.079916 0.00083261 0.034702 -0.0064016 0.062817 0.14239 
-0.063618 0.24762 0.42042 0.026481 0.012177 -0.04471 0.061501 0.12003 
-0.015444 0.32095 0.83606 0.12431 0.035688 -0.012814 0.034373 0.062159 
0.079587 0.23677 0.87963 0.16952 0.062159 -0.02235 0.039799 0.031414 
0.16525 0.10228 0.41565 0.14782 0.070544 -0.030242 0.040456 0.049664 
0.12464 -0.010841 -0.053753 0.036182 0.025495 -0.027118 0.051472 0.06742 
0.054103 -0.12873 -0.41185 -0.017417 0.017438 -0.010183 0.056898 0.081889 
0.047855 -0.13875 -0.48665 -0.09091 0.019576 -0.019226 0.06035 0.087643 
0.13894 -0.16227 -0.48731 -0.073976 0.025824 -0.035338 0.062652 0.061008 
0.2075 -0.10209 -0.42187 -0.045861 0.004943 -0.048492 0.030263 0.044238 
0.18383 -0.021692 -0.20962 -0.01676 0.010697 -0.036818 -0.0059084 -0.01676 
0.046375 0.03092 -0.067235 -0.012156 -0.006566 -0.049807 -0.009361 -0.064604 
-0.099624 -0.0042642 -0.0052507 -0.010183 0.021713 -0.092226 0.011355 -0.065591 
-0.15273 -0.017582 -0.0078813 0.035195 0.0026412 -0.074304 0.0052718 -0.049478 
-0.059836 -0.071838 -0.059014 0.022535 0.011355 -0.06444 -0.020706 -0.016266 
0.054432 -0.023829 0.0016547 0.042265 0.012342 -0.047505 0.0028056 0.041443 
0.17232 0.036675 0.075805 0.081231 0.024508 -0.037969 0.019411 0.065776 
0.17133 0.06594 0.085999 0.085341 0.055089 -0.036654 0.049992 0.036017 
0.020891 0.062817 -0.0004827 0.057227 0.03947 -0.053917 0.034702 0.031907 
-0.0039354 0.068078 -0.073154 -0.035667 0.0092177 -0.054575 0.020562 0.071859 
0.12233 0.049006 -0.07414 -0.027775 0.00066819 -0.042408 0.019247 0.092576 
0.16508 -0.014129 -0.023994 -0.062302 0.0046141 -0.061151 0.026317 0.067091 
0.098988 -0.054739 -0.14615 -0.063782 -0.0024557 -0.059672 0.034209 0.0065871 
0.022864 0.031414 -0.291 -0.043724 -0.0087034 -0.074798 0.0079024 -0.03616 
0.084684 0.094877 -0.21948 -0.031392 0.00083261 -0.043888 0.0036276 -0.0138 
0.1544 0.076463 -0.090746 -0.047505 0.028619 -0.010512 0.0059294 0.022535 
0.073832 0.0021479 -0.040928 -0.0080457 0.028783 -0.030077 0.025988 -0.00081153 
-0.098638 0.0092177 0.040456 0.040621 0.030756 -0.032215 0.02829 -0.014951 
-0.20057 0.21934 0.49013 0.097344 0.026317 -0.021856 0.012177 0.016123 
-0.092883 0.36304 0.79331 0.13565 0.068736 0.015959 0.020398 0.057391 
0.032893 0.23841 0.51808 0.13845 0.066105 -0.00097594 0.048019 0.14634 
-0.0050863 0.0592 0.11822 0.076956 0.01711 -0.00031829 0.053774 0.1567 
-0.097487 -0.008539 0.072681 0.062159 0.025166 0.0016547 0.045882 0.14437 
-0.063453 0.13072 0.4704 0.12825 0.052787 0.042429 0.054103 0.16212 
0.084355 0.20997 0.56938 0.17215 0.082546 0.069229 0.060186 0.20076 
0.2218 0.060515 0.0023123 0.044567 0.055911 0.065447 0.079916 0.20471 
0.21079 -0.087458 -0.6338 -0.085813 0.0019835 0.036675 0.08863 0.17034 
0.16673 -0.14698 -0.85823 -0.14566 -0.0022913 0.019247 0.058049 0.071366 
0.15341 -0.15668 -0.73492 -0.15388 -0.019884 0.013986 0.028783 -0.035503 
0.082875 -0.13185 -0.51181 -0.14763 -0.0062372 0.0051074 -0.016924 -0.1621 
-0.028926 -0.061973 -0.3589 -0.11343 -0.033859 -0.011827 -0.004593 -0.19778 
-0.081045 -0.0087034 -0.35825 -0.074962 -0.028762 0.0074092 -0.026953 -0.15996 
-0.078579 0.013492 -0.3275 -0.071016 -0.015938 -0.00031829 -0.0138 0.0056006 
-0.065919 0.083368 -0.16769 -0.041422 0.0046141 0.026481 0.0051074 0.13236 
-0.014458 0.1248 0.0074092 0.012177 0.017274 0.031085 0.02122 0.14963 
0.058377 0.14486 0.041278 0.047197 0.013328 0.03947 0.04095 0.079751 
0.16656 0.10162 0.023686 0.043745 0.0083956 0.030756 0.028125 0.050321 
0.15127 0.079751 0.007738 0.017767 0.022042 0.029112 0.0082312 0.066927 
0.019083 0.055747 0.04654 0.049006 0.042429 0.071202 0.014479 0.025166 
-0.1473 0.063145 0.12776 0.025166 0.0069159 0.076792 0.025659 -0.061151 
-0.22211 0.058377 0.12217 0.026317 0.025166 0.049664 0.025824 -0.086471 
-0.19054 0.019411 0.091753 0.032729 0.021384 0.042758 0.016123 -0.15191 
-0.076277 0.0013258 -0.0026201 0.05213 0.052294 0.056898 0.0098754 -0.18841 
-0.016266 -0.036654 -0.29281 -0.0078813 0.050157 0.072681 0.064625 -0.089431 
0.2195 -0.024816 -0.49389 -0.042244 0.039634 0.069558 0.062981 0.065447 
0.45264 -0.01676 -0.51987 -0.02235 0.03947 0.063639 0.083533 0.18021 
0.37718 -0.077264 -0.39162 -0.029584 0.029605 0.051801 0.038155 0.12644 
0.092082 -0.1621 -0.22968 -0.031557 0.014643 0.064296 0.027632 0.0689 
-0.057863 -0.20271 0.015301 0.022206 0.0044497 0.049828 0.011026 0.030592 
-0.047341 -0.15832 0.15357 0.1031 0.024673 0.04506 0.027961 0.010862 
-0.10834 -0.038627 0.23644 0.094713 0.042429 0.056076 0.020562 -0.029584 
-0.19482 0.11757 0.3124 0.079094 0.055747 0.066598 0.011355 -0.072332 
-0.40839 0.32325 0.69565 0.10819 0.041114 0.065283 -0.0070593 -0.13267 
-0.44259 0.76536 1.6412 0.25058 0.054103 0.048841 -0.010348 -0.15059 
-0.20995 0.98485 2.0379 0.33903 0.11674 0.051472 0.019576 -0.053424 
-0.0044286 0.81419 1.4648 0.34512 0.11017 0.061337 0.036182 0.028947 
0.17708 0.38162 0.59963 0.26554 0.10014 0.086657 0.068078 0.15341 
0.25683 0.020562 -0.078579 0.093069 0.065283 0.077778 0.076463 0.1858 
0.24466 -0.26568 -0.63791 -0.033037 0.040785 0.079094 0.073504 0.17412 
0.1853 -0.52151 -1.1583 -0.17131 0.01152 0.021878 0.064954 0.080244 
0.071531 -0.67409 -1.2561 -0.19498 -0.008539 0.0023123 0.01415 0.0021479 
0.044731 -0.54075 -0.92925 -0.14073 -0.015444 0.020398 -0.011663 -0.072825 
0.091918 -0.25845 -0.3862 -0.025474 -0.016924 0.015137 -0.0091966 -0.07266 
0.18119 -0.053095 -0.10209 0.027961 0.028454 0.0064227 -0.013307 -0.04323 
0.12891 0.049992 0.1225 0.010533 0.046046 -0.018239 0.012835 -0.02235 
-0.025967 0.10293 0.31174 0.032236 0.024837 -0.0024557 0.017438 -0.0091966 
-0.11952 0.15094 0.29892 0.052294 0.024344 0.0056006 0.0064227 -0.021199 
-0.047669 0.053774 0.20191 0.041772 0.055582 0.0054362 0.0067515 0.0080668 
0.063803 -0.080223 -0.040928 0.019576 0.036675 -0.00031829 0.027303 0.041936 
0.1299 -0.12346 -0.25713 -0.014951 0.030427 -0.0087034 0.072024 0.071695 
0.041607 -0.052602 -0.2744 -0.013965 0.017274 1.0539e-005 0.057391 0.070873 
-0.035832 0.1345 -0.20649 -0.018075 0.041443 -0.0055795 0.044896 0.094548 
-0.04619 0.23726 -0.26486 -0.00097594 0.052952 -0.00015387 0.039963 0.084519 
0.0092177 0.18481 -0.25335 0.051965 0.066763 0.0032988 0.047197 0.11822 
0.051143 0.027139 -0.19087 0.059035 0.016452 0.010204 0.045224 0.076792 
0.11773 -0.07825 -0.24858 -0.010512 0.01415 0.0044497 0.018754 0.083533 
0.16804 0.069722 -0.18084 -0.018897 0.0065871 -0.016924 0.014643 0.05065 
0.17544 0.32259 0.16031 0.052952 0.032893 -0.0039354 0.00050378 0.093398 
0.078929 0.44607 0.78575 0.1202 0.025988 0.030592 0.021056 0.020398 
-0.05737 0.54027 1.5404 0.21802 0.053281 -0.0075525 0.0085601 -0.014787 
0.052787 0.49621 2.0573 0.25946 0.062981 0.016616 0.0028056 -0.046354 
0.21227 0.31667 1.9181 0.31881 0.10113 0.019247 0.020233 0.017603 
0.15966 -0.0052507 1.1218 0.23463 0.085999 -0.00031829 0.028125 0.041936 
-0.19449 -0.3377 0.094548 0.094877 0.046868 -0.0067304 0.036675 -0.017417 
-0.55028 -0.4763 -0.2009 0.031742 0.029112 0.0051074 0.0026412 -0.039449 
-0.40691 -0.25878 0.2001 0.093398 0.058871 0.029769 0.051801 0.025824 
0.14634 -0.053917 0.35038 0.16311 0.1225 0.063145 0.097837 0.18366 
0.33739 -0.021856 -0.22589 0.10639 0.10014 0.063639 0.098988 0.21276 
0.26653 -0.053753 -0.84886 -0.022185 0.042429 0.049499 0.077285 0.17034 
0.183 -0.041093 -1.1004 -0.17525 -0.02087 0.01826 0.024179 0.048513 
0.11313 0.01711 -0.96608 -0.21471 -0.037311 -0.01939 -0.011663 0.040456 
0.010369 0.014972 -0.76566 -0.17887 -0.038956 -0.044217 -0.037147 -0.0073881 
-0.044217 0.0064227 -0.52694 -0.15141 -0.030242 -0.026953 -0.011334 0.031414 
0.0083956 0.0072447 -0.26798 -0.090417 -0.018568 0.0034632 0.029276 0.061995 
0.062323 0.077285 -0.046683 -0.040764 0.0093821 0.015465 0.018754 0.053281 
0.0085601 0.075148 0.089287 0.032564 0.013164 0.028783 0.0052718 -0.016266 
0.01267 0.081067 0.08715 0.035031 0.011848 0.018589 -0.0059084 -0.026131 
0.13105 0.056076 0.14601 0.012177 -0.0036066 0.034866 0.029441 0.021056 
0.24137 0.099316 0.31141 0.076627 0.014643 0.051472 0.034044 0.11231 
0.25551 0.091425 0.31174 0.070215 0.027468 0.035031 0.027796 0.11526 
0.16706 0.070215 0.16344 0.029769 0.016288 0.039799 0.02122 0.075476 
0.086163 0.026152 0.062323 0.015959 0.0085601 0.053609 0.017932 0.060022 
0.05476 -0.037969 0.0421 0.033222 0.009711 0.073339 0.033551 0.00066819 
0.019411 -0.073976 -0.052931 -0.0075525 0.031907 0.08863 0.024837 -0.016924 
0.021384 -0.048327 -0.14878 -0.0039354 0.04654 0.09422 0.021056 -0.030242 
0.1904 0.017438 -0.23822 -0.00031829 0.028619 0.06594 0.025659 0.04358 
0.073997 -0.077264 -0.32438 -0.069701 0.00099702 0.071037 0.0060938 -0.00015387 
-0.30843 -0.20567 -0.48813 -0.092061 -0.0027845 0.050814 -0.015609 -0.095185 
-0.16062 -0.15224 -0.58629 -0.10028 0.0074092 0.051801 -0.044217 -0.18495 
-0.25302 0.014972 -0.72604 -0.089595 -0.024652 0.025988 -0.056712 -0.19811 
-0.35578 0.086328 -0.814 -0.11639 -0.017088 0.032236 -0.037805 -0.14139 
-0.11672 0.13795 -0.49356 -0.052273 0.0028056 0.068571 -0.025802 -0.081045 
0.04095 0.19007 0.11362 0.083204 0.059857 0.093233 0.02681 -0.091239 
0.031578 0.23792 0.80794 0.19418 0.083368 0.10655 0.025824 0.0011614 
0.15226 0.17001 0.88439 0.21753 0.076299 0.11477 0.057555 0.18596 
0.27146 -0.015773 0.72014 0.16837 0.050321 0.091753 0.073504 0.22476 
0.21605 -0.1427 0.76536 0.16311 0.057884 0.11346 0.061666 0.20076 
0.0019835 -0.11113 0.75993 0.13582 0.027632 0.068571 0.012342 0.0592 
-0.17854 0.073504 0.68266 0.088794 0.0051074 0.069064 0.021713 0.046704 
-0.255 0.32259 0.58943 0.094548 0.025001 0.082382 -0.0034422 -0.0014692 
-0.051287 0.47221 0.38277 0.09422 0.038319 0.098659 0.029276 0.061008 
0.19846 0.38819 -0.017582 0.076299 0.057555 0.11757 0.082546 0.11987 
0.29234 0.13138 -0.57593 -0.053424 0.012506 0.076627 0.057884 0.11806 
0.21326 -0.12462 -1.0335 -0.14829 -0.023994 0.010204 0.020398 0.11017 
0.1562 -0.20419 -1.1931 -0.24858 -0.046519 0.015465 0.027961 0.084355 
0.18284 -0.1815 -1.036 -0.19367 -0.013636 0.048184 0.031578 0.030098 
0.26899 -0.17838 -0.73738 -0.11623 0.01267 0.065447 0.069229 -0.024158 
0.26094 -0.1501 -0.34674 -0.030242 0.032729 0.059364 0.030263 -0.14829 
-0.10308 -0.098473 -0.099624 0.02829 0.014972 0.033387 -0.04323 -0.27325 
-0.3446 0.036839 0.15489 0.05772 0.013164 0.018589 -0.045696 -0.23675 
-0.18512 0.17018 0.35399 0.090109 0.0074092 0.021384 -0.032708 -0.068714 
-0.050464 0.25666 0.512 0.071037 0.0083956 0.02122 0.031578 0.09126 
-0.22869 0.17182 0.45544 0.053445 0.0092177 0.0079024 0.015794 0.095535 
-0.29626 0.046375 0.10852 0.055089 0.013164 0.01152 0.0023123 0.11198 
-0.0077169 -0.033201 -0.16835 0.031742 0.022206 0.0036276 0.027303 0.10343 
0.23348 -0.021034 -0.29824 -0.0026201 0.0067515 -0.014458 -0.0004827 0.053116 
0.31404 0.007738 -0.30136 -0.013143 -0.03912 -0.013143 -0.015116 -0.024816 
0.1858 0.076134 -0.1621 0.042265 0.012835 -0.021856 0.010369 0.03092 
0.026317 0.079751 0.14354 0.06331 0.064296 0.022042 0.043745 0.085999 
-0.12494 0.12365 0.51693 0.11543 0.08304 0.047362 0.088301 0.022042 
-0.27999 0.15538 0.79956 0.20734 0.085177 0.0324 0.095206 -0.095185 
-0.23362 0.17347 0.94145 0.23825 0.097672 0.021384 0.068736 -0.11952 
0.038155 0.3581 1.1407 0.24038 0.098823 0.034209 0.081889 -0.00081153 
0.21243 0.40398 1.3824 0.24844 0.086328 0.048513 0.10277 0.10408 
0.2172 0.23397 1.1545 0.22148 0.043745 0.0067515 0.062159 0.12727 
0.090438 -0.065426 0.48125 0.10145 0.019576 -0.01232 0.053116 0.094548 
-0.013636 -0.14944 -0.048163 0.044238 0.0093821 -0.033201 0.044238 0.11526 
0.0041209 -0.071016 -0.303 0.0072447 0.033551 -0.025967 0.061172 0.15982 
0.032893 0.027632 -0.43486 -0.0019624 0.044896 -0.0055795 0.058871 0.16804 
0.10622 0.15078 -0.46216 -0.018568 0.029276 0.013492 0.061172 0.12776 
0.14042 0.089945 -0.5687 -0.06444 0.0079024 -0.0047575 0.087643 0.10869 
0.20355 -0.086636 -0.65452 -0.060494 0.020727 -0.051451 0.053609 0.093398 
0.29842 -0.15174 -0.56722 -0.081045 0.023686 -0.03057 0.041114 0.085012 
0.34512 -0.20041 -0.56837 -0.082032 0.00297 -0.013965 0.041278 0.055089 
0.1955 -0.2596 -0.73393 -0.12626 -0.021856 -0.038133 0.025166 -0.0088678 
0.026974 -0.076935 -0.64614 -0.092226 -0.022514 -0.065426 0.014808 -0.11491 
-0.061645 0.16508 -0.2568 -0.03353 -0.010019 -0.065426 -0.0075525 -0.20962 
-0.22343 0.22378 0.010697 0.021713 0.01415 -0.041093 -0.013471 -0.29692 
-0.44456 0.081395 0.15801 0.069886 -0.0036066 -0.049642 -0.066906 -0.30251 
-0.25598 -0.0052507 0.20882 0.038812 0.012013 -0.048656 -0.014787 -0.11557 
0.014643 -0.17936 0.13993 0.032071 0.022042 -0.039778 0.018754 0.14404 
0.04917 -0.27916 0.30911 0.01974 -0.001798 -0.037147 0.044402 0.21128 
0.041443 -0.017088 1.1093 0.15801 0.027796 -0.036818 0.046211 0.16689 
0.18646 0.46185 1.9475 0.32062 0.08008 0.026317 0.052623 0.13582 
0.2634 0.59815 1.7155 0.3101 0.12184 0.044567 0.078107 0.14058 
0.15883 0.30286 0.56954 0.17363 0.10573 0.018918 0.088136 0.1516 
0.04358 0.030592 -0.43848 -0.02498 0.044238 0.018754 0.069229 0.10145 
-0.030735 -0.012156 -0.8653 -0.092226 0.0051074 0.0098754 0.056733 0.083368 
-0.040435 0.021384 -0.90311 -0.10784 0.0082312 -0.0014692 0.040456 0.083697 
-0.044874 0.011684 -0.68707 -0.074962 0.010533 0.015794 0.031907 0.072681 
-0.05441 -0.022679 -0.58218 -0.084005 0.0059294 -0.013965 0.015301 0.011684 
0.039141 -0.050629 -0.37617 -0.065426 0.0054362 -0.010512 0.023851 -0.014622 
0.14502 -0.04619 -0.13021 0.0095465 0.0018191 0.01152 0.024508 -0.035338 
0.14486 -0.11508 0.0047785 0.0036276 0.023193 0.013164 0.0092177 0.00099702 
-0.0031133 -0.15125 0.016616 -0.012649 0.039634 0.014479 0.029276 0.017932 
-0.023665 -0.15503 0.11 0.027303 0.019083 0.027796 0.028947 0.055089 
0.014315 -0.059178 0.25847 0.11296 0.052294 0.04654 0.021056 0.014808 
0.014808 0.089287 0.34775 0.11231 0.067091 0.044896 0.023851 -0.024816 
0.0026412 0.18662 0.37142 0.090438 0.041607 0.036182 0.038483 -0.018075 
0.038648 0.20997 0.23858 0.076627 0.019905 0.028947 0.04654 0.025495 
0.076299 0.11674 0.031085 -0.0047575 0.0083956 0.026481 0.024673 0.049499 
0.097672 0.015137 -0.17756 -0.040106 0.005765 0.030756 -0.0024557 0.057555 
0.16574 -0.044381 -0.23494 -0.052437 0.0060938 0.015137 0.032729 0.081889 
0.17873 -0.0067304 -0.16638 0.0090533 0.014972 0.019905 0.0324 0.076134 
0.057062 -0.017911 -0.16555 -0.014622 0.0014903 0.018754 -0.0004827 0.057062 
-0.1815 -0.095514 -0.2282 -0.039942 -0.011663 0.019905 -0.0138 0.018425 
-0.28508 -0.15043 -0.40264 -0.054575 0.0059294 0.023193 -0.018568 0.047526 
-0.10916 -0.13432 -0.53631 -0.096665 0.011848 0.016616 -0.017746 0.011848 
0.17626 -0.015938 -0.65896 -0.12741 0.0072447 0.012342 0.01415 -0.0138 
0.27705 0.14453 -0.54107 -0.10373 -0.0078813 0.034373 0.017438 -0.013307 
0.16492 0.18876 -0.30711 -0.0080457 0.018754 0.060186 0.0090533 -0.011992 
0.026152 0.10573 -0.0027845 0.038977 0.025495 0.048513 -0.0077169 -0.022679 
-0.051287 0.036675 0.38836 0.10326 0.034866 0.054267 -0.0031133 0.019576 
-0.078579 -0.12149 0.50279 0.13417 0.019083 0.058377 0.036182 -0.017088 
-0.157 -0.13086 0.62692 0.1276 0.01152 0.035524 -0.0029489 0.010369 
-0.019884 0.10836 0.99077 0.13253 0.02122 0.041772 -0.009361 0.0042853 
0.055089 0.38523 1.4429 0.24055 0.072517 0.05624 0.012013 0.028783 
0.076134 0.54044 1.5534 0.33821 0.18152 0.17232 0.10425 0.12217 
0.055911 0.51463 1.0024 0.31437 0.12414 0.13236 0.11609 0.12135 
-0.023007 0.43949 0.40611 0.1105 0.054103 0.13401 0.061172 0.11411 
-0.023007 0.32456 -0.0096899 -0.0016336 0.044073 0.082382 0.037661 0.075312 
-0.035832 0.16081 -0.46446 -0.058028 -0.0050863 0.071366 0.032564 0.1151 
-0.083018 -0.087622 -0.85987 -0.12379 -0.012978 0.034866 0.04506 0.049006 
-0.038956 -0.25088 -1.0659 -0.19581 -0.027611 0.028619 0.038648 0.06742 
0.084026 -0.29347 -0.95145 -0.15454 -0.038791 0.033551 0.01563 0.061337 
0.24778 -0.17789 -0.62558 -0.10752 -0.011334 0.032236 0.013164 0.086328 
0.3364 -0.145 -0.42056 -0.06296 -0.00015387 0.049335 0.03092 0.077778 
0.29086 -0.16654 -0.3936 -0.035174 0.00066819 0.025495 0.025495 0.05624 
0.20914 -0.092226 -0.29314 -0.054082 -0.0029489 0.017438 -0.019555 0.0072447 
0.16245 0.10655 -0.16966 -0.028597 0.0059294 0.015959 -0.041422 -0.065919 
0.071531 0.12036 0.020727 0.01152 -0.014622 0.020891 -0.046519 -0.12116 
-0.19745 0.033058 0.16245 0.044567 0.0023123 0.017274 -0.024652 -0.13218 
-0.31945 -0.016595 0.21835 0.039305 0.0087245 0.0080668 -0.020048 -0.079237 
-0.11738 -0.076442 0.13499 0.05476 0.030263 0.039634 0.011026 -0.010676 
0.04917 -0.073811 -0.018075 0.034702 0.025824 0.026152 0.03388 0.083697 
0.076792 0.068736 -0.13415 -0.006566 0.010369 0.037826 0.048677 0.079751 
0.19172 0.37405 -0.17295 -0.0062372 0.04095 0.023193 0.032236 0.091425 
0.26192 0.43883 -0.10932 0.021713 0.041443 0.031249 0.029934 0.037661 
0.14387 0.28839 -0.041586 0.044402 0.034044 -0.0011404 0.0023123 0.039634 
-0.13744 0.03388 0.21194 0.037826 0.012835 0.0079024 0.00066819 0.068571 
-0.49487 -0.18693 0.39855 0.074654 0.041114 0.01826 0.036182 0.073339 
-0.61325 -0.17936 0.5748 0.147 0.056404 0.011848 0.056569 0.04506 
-0.39902 -0.098473 1.0176 0.15505 0.077943 0.040292 0.068407 0.058542 
-0.067235 0.22822 1.7354 0.2366 0.090274 0.029441 0.064132 0.073504 
0.44031 0.77966 2.5167 0.47846 0.14091 0.083204 0.091425 0.13894 
0.84921 0.82718 2.0401 0.56675 0.19007 0.094384 0.075805 0.14404 
0.65898 0.44787 0.55293 0.31092 0.14141 0.086657 0.070215 0.049006 
0.10655 0.17232 -0.52694 0.01152 0.085341 0.056569 0.038319 -0.049478 
-0.3594 -0.15487 -1.0907 -0.16901 -0.0067304 -0.0083746 0.0019835 -0.18134 
-0.39672 -0.47367 -1.1525 -0.18791 -0.014293 -0.019061 -0.011334 -0.16818 
-0.27801 -0.5197 -0.95392 -0.15964 -0.0068948 -0.010183 0.027632 -0.052109 
-0.014293 -0.43355 -0.77421 -0.14648 0.029276 0.01974 0.057391 0.066105 
0.07449 -0.46117 -0.84688 -0.15684 -0.016595 -0.015938 0.015465 -0.098967 
-0.044874 -0.33424 -0.68839 -0.16605 -0.023829 -0.045532 -0.068221 -0.26733 
-0.046683 -0.067892 -0.2767 -0.086142 -0.0014692 -0.056548 -0.093376 -0.24266 
0.046375 0.18481 -0.063289 0.0034632 0.044238 -0.030406 -0.043066 -0.022514 
0.17182 0.27771 -0.012649 0.027796 0.0227 -0.015116 0.015465 0.14289 
0.24795 0.22 -0.025967 -0.011827 -0.0004827 -0.022185 0.033387 0.22608 
0.15226 0.053938 -0.062796 -0.056877 -0.031886 -0.0503 0.042594 0.11132 
-0.054904 -0.15651 -0.11409 -0.025638 -0.0029489 -0.04619 0.022042 -0.03912 
-0.16062 -0.30794 -0.21882 -0.040764 -0.010841 -0.010676 0.059693 -0.038791 
-0.083183 -0.40083 -0.41908 -0.05885 -0.0077169 -0.015444 0.053774 0.034209 
0.077285 -0.26765 -0.51756 -0.030406 -0.0078813 -0.015938 0.030427 0.090274 
0.11543 -0.15816 -0.43569 0.0034632 0.021878 -0.02646 0.027139 0.090438 
0.14453 0.0075736 -0.30054 0.020069 0.03947 -0.021199 0.042758 0.11362 
0.17988 0.18218 -0.1085 0.036017 0.027961 0.010369 0.053445 0.12201 
0.10573 0.25321 0.026152 0.067256 0.032236 -0.0049219 0.046704 0.095371 
-0.23691 0.29365 0.34446 0.055747 0.032236 -0.029091 0.031414 0.0065871 
-0.4758 0.3295 0.9689 0.1151 0.066763 -0.013636 0.016781 -0.010019 
-0.26552 0.40513 1.6502 0.25025 0.10014 0.019247 0.029441 0.033058 
0.082711 0.38836 1.8411 0.39954 0.12168 0.052459 0.061666 0.024015 
0.11083 0.26192 1.46 0.32736 0.10737 0.051636 0.052623 -0.081045 
0.041114 0.12644 0.60325 0.15176 0.089452 0.018425 0.041772 -0.096994 
0.244 0.090767 -0.29824 0.026317 0.069558 0.032564 0.054925 -0.03912 
0.42519 0.0064227 -0.64745 -0.049314 0.01563 0.042594 0.055089 -0.026789 
0.33591 -0.054739 -0.72374 -0.077264 0.024344 0.014808 0.040785 -0.10472 
0.19402 -0.11574 -0.84688 -0.10883 -0.010512 -0.017746 -0.016431 -0.11048 
0.21572 -0.17591 -0.90903 -0.16802 -0.0073881 -0.042901 -0.029584 -0.049642 
0.26126 -0.17608 -0.80956 -0.20518 -0.076113 -0.042079 -0.036818 0.045553 
0.097179 -0.13481 -0.35693 -0.14023 -0.063453 -0.048327 0.0024767 0.10129 
-0.35512 0.036839 0.25337 0.023357 0.0021479 -0.028762 0.044567 0.088136 
-0.44325 0.27507 0.50049 0.13878 0.072024 0.026974 0.075641 0.14206 
-0.17673 0.30681 0.090767 0.096357 0.10902 0.05624 0.10606 0.20372 
0.18366 0.18119 -0.4689 -0.040106 0.031249 0.056898 0.090438 0.21539 
0.2999 0.041443 -0.60898 -0.11459 -0.046025 0.035524 0.051472 0.1465 
0.23266 -0.079895 -0.51674 -0.15585 -0.055397 -0.025802 0.0075736 0.053774 
0.15587 -0.11787 -0.29774 -0.1136 -0.028433 -0.025309 -0.06444 -0.0026201 
0.03388 -0.20879 -0.14139 -0.02794 -0.035996 -0.033365 -0.034516 0.040785 
0.015794 -0.29034 -0.11163 -0.011498 0.013821 0.01152 -0.0039354 0.0689 
-0.043888 -0.18446 0.15505 0.042758 0.03799 0.029769 0.070708 0.078436 
-0.026789 0.20043 0.69022 0.15226 0.089616 0.061995 0.076463 0.061995 
0.23611 0.42749 0.69696 0.20142 0.099152 0.087479 0.075641 0.089945 
0.39164 0.39543 0.27919 0.11411 0.061501 0.072846 0.077285 0.095371 
0.28806 0.21572 -0.061316 0.021056 0.03799 0.049828 0.049335 0.062159 
-0.038791 -0.034845 -0.13826 -0.010183 0.011026 0.015137 0.043416 0.043909 
-0.016266 -0.24908 -0.30728 -0.075127 0.0047785 0.012177 0.044896 0.10885 
0.34216 -0.10094 -0.42253 -0.069865 0.0067515 0.019905 0.041443 0.19632 
0.42864 0.17478 -0.37091 -0.036489 0.0023123 -0.0090322 0.032564 0.21079 
0.17873 0.20882 -0.60191 -0.037969 0.0046141 0.022535 0.038648 0.13549 
-0.083512 0.21178 -0.65962 -0.053095 -0.0029489 0.023686 0.0079024 -0.010348 
-0.19334 0.42617 -0.13892 -0.0068948 -0.0031133 0.0085601 -0.034845 -0.12001 
-0.31649 0.42371 0.1761 0.035031 -0.016102 0.0024767 -0.039778 -0.14352 
-0.36367 0.024344 0.13187 -0.019884 -0.026624 0.0034632 -0.04323 -0.11212 
-0.24908 -0.0050863 0.6626 0.025166 0.024837 0.034373 0.015137 -0.059672 
-0.0050863 0.21441 1.5243 0.23068 0.11576 0.039799 0.061995 0.0032988 
-0.17361 0.060022 1.6894 0.34857 0.11 0.082875 0.064132 -0.0049219 
-0.24727 -0.2961 1.1471 0.29892 0.12398 0.10524 0.095371 0.10096 
0.054103 -0.33161 0.44261 0.21917 0.093562 0.098494 0.099645 0.22822 
0.2856 -0.28114 -0.29774 0.12349 0.069393 0.10918 0.11017 0.25995 
0.025988 -0.28245 -0.82518 -0.056219 -0.0022913 0.048348 0.038977 0.095864 
-0.25483 -0.11228 -0.89637 -0.17657 -0.067564 -0.022679 -0.042244 -0.020377 
0.023851 0.31026 -0.35331 -0.11903 -0.067235 -0.029255 -0.056877 -0.028597 
0.44985 0.74481 0.28231 0.079258 -0.01117 -0.0004827 -0.0060728 0.068078 
0.56428 0.6118 0.3683 0.077285 0.040785 0.026481 0.064461 0.12497 
0.23792 0.12447 -0.096336 -0.042901 0.014808 0.047691 0.031249 0.039963 
-0.182 -0.12412 -0.5876 -0.13991 -0.03057 0.023522 -0.013307 -0.020212 
-0.34526 0.06742 -0.35414 -0.10406 -0.0011404 0.025001 -0.019226 -0.10127 
-0.15865 0.21112 0.11066 0.01711 0.05624 0.026646 0.015301 -0.12034 
-0.01232 0.016123 0.2297 0.10014 0.048513 0.063968 0.023686 -0.12297 
-0.01939 -0.26585 0.12431 0.12036 0.030427 0.065283 0.027796 -0.053424 
0.0085601 -0.23905 0.058706 0.073175 0.024179 0.069558 0.028947 0.005765 
-0.068057 -0.15158 0.33163 0.085012 0.053609 0.046211 0.011026 0.0080668 
-0.27555 -0.16523 0.63366 0.13351 0.03388 0.019905 0.0095465 -0.038956 
-0.19827 -0.018897 0.84115 0.20076 0.044896 0.036346 0.011684 0.019905 
0.0227 0.15949 0.58401 0.15949 0.055254 0.0421 0.030756 0.075148 
0.021549 0.18925 0.17149 0.079751 0.042923 0.04506 0.027139 0.094713 
-0.157 0.12957 -0.081045 0.025988 0.035853 0.043416 0.0013258 0.0689 
-0.10291 0.075476 -0.064275 0.0098754 0.015794 0.042923 0.035524 0.074654 
0.040292 -0.085978 -0.12116 -0.020048 -0.0070593 0.023522 0.0090533 0.033387 
-0.0027845 -0.1889 -0.59385 -0.09091 -0.015773 0.010533 -0.014622 -0.0083746 
-0.087786 -0.069043 -0.98318 -0.13136 0.0074092 0.0062583 -0.0049219 -0.015938 
0.074654 0.26176 -0.74034 -0.083676 0.00083261 -0.0026201 0.0079024 0.015794 
0.37487 0.44179 -0.16654 0.0021479 0.029276 0.024179 0.03947 0.031907 
0.24844 0.31125 0.20355 0.082711 0.041278 0.02533 0.028619 -0.055397 
-0.089924 0.12579 0.23167 0.051636 0.042594 0.046704 -0.0021268 -0.13349 
-0.13234 0.040785 0.26307 0.030263 0.012506 0.024344 -0.017253 -0.14747 
0.1077 -0.075291 0.53271 0.04506 0.020891 -0.0047575 -0.0032777 -0.098638 
0.41812 -0.13234 1.2016 0.21917 0.057062 0.025659 0.019083 0.0054362 
0.52778 -0.194 1.3651 0.34676 0.09422 0.054925 0.024015 0.034702 
0.2394 -0.12544 1.0312 0.30796 0.13795 0.10852 0.062652 -0.017417 
-0.34888 0.10951 0.71751 0.22427 0.049992 0.077121 0.021549 -0.054082 
-0.47498 0.27606 0.56938 0.087808 0.021056 0.020398 0.030263 0.041114 
-0.062796 0.52285 0.43012 0.14585 0.040621 0.031085 0.050157 0.15407 
0.07038 0.51791 -0.14237 0.13203 0.10145 0.052294 0.048184 0.2001 
-0.00031829 0.33772 -0.79148 1.0539e-005 0.038648 0.057884 0.052952 0.086821 
-0.063946 0.12332 -1.0825 -0.13678 -0.0067304 0.027961 0.016123 0.032893 
-0.19778 -0.19581 -1.0807 -0.23 -0.054246 -0.016431 0.010697 0.020233 
-0.16588 -0.48008 -0.82946 -0.18709 -0.048985 -0.018897 0.023193 0.06594 
0.023851 -0.50737 -0.30728 -0.094692 0.0065871 0.023193 0.051636 0.095699 
0.232 -0.30465 0.23035 0.0060938 0.022535 0.033387 0.054267 0.11822 
0.36567 -0.12905 0.46662 0.072024 0.042429 0.021384 0.056569 0.11411 
0.53732 0.0023123 0.32062 0.10063 0.050157 0.036839 0.091096 0.1391 
0.63728 0.077285 0.099316 0.073175 0.049828 0.03651 0.076956 0.096357 
0.46629 0.13894 -0.1912 -0.0032777 0.018918 0.036675 0.037004 0.055582 
0.17593 0.07597 -0.45887 -0.069043 -0.012814 -0.0078813 -0.00097594 -0.003771 
0.030098 -0.0078813 -0.49389 -0.14402 -0.0024557 -0.012156 0.0051074 -0.010348 
-0.11672 -0.23822 -0.54469 -0.13316 -0.0027845 -0.011827 -0.013471 -0.11722 
-0.56755 -0.45805 -0.62049 -0.10998 -0.0042642 -0.014129 -0.049807 -0.21521 
-0.57725 -0.39656 -0.55521 -0.019719 1.0539e-005 -0.0070593 -0.047341 -0.24529 
-0.096994 -0.13432 -0.33802 0.033222 0.015465 0.023686 0.032236 -0.037147 
0.17215 -0.054246 -0.14993 0.061501 0.025495 0.040292 0.087643 0.14157 
-0.027611 -0.12478 -0.14467 0.0028056 0.0090533 0.013164 0.069722 0.20454 
-0.29528 -0.0027845 -0.04882 -0.090746 -0.034188 0.011191 0.017767 0.2024 
-0.16555 0.4025 0.18942 -0.032708 0.0098754 0.016123 0.024837 0.16673 
-0.047998 0.80761 0.42469 0.11937 0.087314 0.048348 0.056404 0.15916 
0.10425 1.0644 0.78591 0.26554 0.13943 0.093233 0.085506 0.14815 
0.34216 1.0197 0.79725 0.22033 0.10573 0.083533 0.076299 0.16508 
0.28182 0.40841 0.27557 0.055911 0.02122 0.015301 0.02829 0.089616 
0.039305 -0.15273 -0.07003 -0.017253 -0.018733 -0.01528 0.016123 0.0324 
-0.019061 -0.25467 0.32341 0.11148 0.042265 0.027468 0.040292 -0.041586 
0.14815 -0.052602 0.91563 0.3027 0.11855 0.060844 0.073832 -0.13234 
0.27162 -0.096994 0.75105 0.27935 0.097015 0.064625 0.032729 -0.21274 
0.17758 -0.37732 -0.01528 -0.010183 0.013986 0.0052718 -0.02498 -0.29002 
0.0056006 -0.58662 -0.87007 -0.2568 -0.058521 -0.049971 -0.070523 -0.27209 
-0.15043 -0.58711 -1.2872 -0.31681 -0.06855 -0.07003 -0.040764 -0.079895 
-0.10045 -0.33046 -1.0841 -0.18857 -0.046354 -0.027775 0.045553 0.1077 
0.097015 0.084519 -0.27177 -0.031721 0.0093821 0.015465 0.051143 0.24203 
-0.0096899 0.30533 0.15423 0.086492 0.056569 0.034209 0.073175 0.24318 
-0.21899 0.1373 0.045553 0.040621 0.048513 0.025988 0.042594 0.16886 
-0.26881 0.13845 -0.016595 0.077449 0.05065 -0.00015387 1.0539e-005 0.1248 
-0.29445 0.13056 0.051801 0.019576 0.0095465 0.029934 0.022535 0.048019 
-0.20978 0.10967 -0.022021 -0.0060728 -0.0067304 0.004943 0.01415 0.038155 
0.059364 0.069229 -0.29445 -0.080388 -0.010019 -0.0016336 -0.00097594 -0.0077169 
0.42058 0.21276 -0.44999 -0.10653 0.031085 0.0016547 0.033551 0.013657 
0.56132 0.30944 -0.57248 -0.079072 0.037826 0.03536 0.10211 0.013328 
0.55606 0.18695 -0.56344 -0.047669 0.036839 0.059693 0.063968 -0.022843 
0.6118 0.030427 -0.25006 0.011684 0.035524 0.0041209 -0.0077169 -0.02646 
0.51545 -0.15799 0.1026 0.015959 0.012506 -0.026296 -0.052273 -0.037805 
-0.010183 -0.42237 0.29661 0.011191 -0.034845 -0.039449 -0.065591 -0.082361 
-0.53992 -0.29758 0.9061 0.12825 -0.013965 -0.011498 -0.032708 -0.080717 
-0.6269 0.38326 1.861 0.39822 0.079916 0.034044 0.00033937 -0.021199 
-0.45739 0.89459 2.2173 0.56346 0.19007 0.089287 0.053281 0.055747 
-0.27308 0.75566 1.4408 0.43045 0.17067 0.10573 0.07301 0.044567 
-0.066084 0.34709 0.37931 0.23775 0.11033 0.086163 0.062159 0.026974 
0.12677 0.21835 -0.23066 0.031578 0.057227 0.070051 0.075476 0.016945 
0.23266 0.037004 -0.49931 -0.084498 0.0083956 0.028947 0.01826 -0.020541 
0.29217 -0.19745 -0.67162 -0.14533 -0.022021 0.015137 0.004943 0.033551 
0.25847 -0.31764 -0.75366 -0.17706 -0.073647 -0.011992 -0.028597 0.05213 
0.23331 -0.26815 -0.75432 -0.21833 -0.058356 -0.00081153 0.0032988 0.12924 
0.28691 -0.18824 -0.71354 -0.15651 -0.042408 -0.0049219 0.038483 0.13384 
0.305 -0.089595 -0.57248 -0.053588 0.0056006 -0.011663 0.027468 0.12562 
0.23446 0.10392 -0.3423 -0.023501 0.030427 -0.023994 0.013657 0.02122 
0.244 0.30056 -0.10637 -0.011827 0.029112 0.014972 0.031742 0.045553 
0.30829 0.27195 0.0016547 -0.0055795 0.034702 0.039305 0.032729 0.053116 
0.20175 -0.010019 0.083368 -0.0052507 0.018425 0.014808 0.013164 0.013657 
-0.31829 -0.37633 -0.074304 -0.064933 0.015959 -0.014458 -0.022679 -0.053588 
-0.45147 -0.48238 -0.21077 -0.075291 -0.01676 -0.010841 -0.032379 -0.021528 
-0.0044286 -0.089102 -0.013636 0.0072447 -0.00031829 0.016616 -0.015773 0.047197 
0.16048 0.19961 0.43735 0.064132 0.022042 0.016945 0.032071 0.083533 
0.20767 0.21441 0.67049 0.12118 0.050486 0.021878 0.046211 0.12529 
0.067585 0.21786 0.61623 0.19944 0.043416 0.019247 0.038483 0.09833 
-0.20764 0.22805 0.57398 0.25058 0.058049 0.015301 0.015959 0.0018191 
-0.41267 0.1687 0.49671 0.18267 0.063639 0.037168 0.010369 -0.04882 
-0.43437 0.19649 0.7573 0.17511 0.073504 0.04506 0.048019 0.033058 
-0.18611 0.31766 0.89541 0.21013 0.074654 0.055747 0.049006 0.079258 
0.069229 0.15916 0.43587 0.12825 0.043909 0.050321 0.035195 0.064296 
0.11378 0.0046141 -0.037147 0.045224 0.025166 0.005765 0.072024 0.0088889 
0.08978 0.031907 -0.077264 0.041443 0.04358 0.049335 0.037497 0.066763 
0.10096 0.04095 0.061995 0.073832 0.11461 0.063474 0.079258 0.11576 
0.039305 0.024508 0.24203 0.060844 0.048513 0.046375 0.073175 0.087972 
-0.088115 0.038648 0.52531 0.082217 0.050321 0.0324 0.030427 0.049335 
-0.10982 0.046046 0.52055 0.13532 0.036017 0.034373 0.019247 0.065776 
-0.028597 0.01415 -0.041915 0.029441 0.049664 0.048677 0.059857 0.056404 
0.047526 -0.072332 -0.7974 -0.14747 -0.01117 0.018754 0.043251 0.02533 
0.13039 0.03092 -1.0802 -0.29133 -0.065426 -0.021692 0.0074092 0.044731 
0.33903 0.16146 -0.80414 -0.26585 -0.061645 -0.017417 0.013328 0.092082 
0.3193 0.058213 -0.50227 -0.22145 -0.056712 -0.025638 -0.036983 0.0421 
0.1276 -0.18019 -0.30974 -0.10291 -0.049642 -0.038791 -0.019061 -0.022185 
-0.03353 -0.19285 -0.091732 0.022535 -0.034188 -0.023665 -0.03057 -0.044874 
-0.11557 0.076627 0.28214 0.12316 0.0082312 0.016945 0.00083261 -0.0027845 
-0.11376 0.15587 0.48059 0.13779 0.045718 0.010697 -0.010841 0.0054362 
-0.17657 -0.038791 0.2731 0.10688 0.042429 0.023686 -0.011005 -0.0088678 
-0.18331 -0.26848 -0.20074 0.018096 0.0062583 0.0080668 0.024673 -0.0055795 
-0.077264 -0.31238 -0.63315 -0.065262 -0.012649 0.013492 0.020233 -0.0050863 
0.081067 -0.19893 -0.71946 -0.10768 0.01267 0.0062583 0.0069159 0.023686 
0.17577 -0.072825 -0.6121 -0.026624 0.016452 0.03092 0.030592 0.055254 
0.09274 -0.018733 -0.46791 0.01563 0.050979 0.044073 0.045882 0.056569 
-0.17772 -0.094034 -0.35644 -0.0013048 0.011684 0.023851 0.036182 -0.014787 
-0.36893 -0.10489 -0.066741 -0.04323 -0.0029489 0.0083956 -0.0091966 -0.051615 
-0.23444 0.043745 0.7379 0.050321 0.017767 0.0087245 -0.0047575 -0.03057 
0.081067 0.38721 1.5179 0.20421 0.090767 0.06331 0.029605 0.03536 
0.25419 0.66704 1.7499 0.30434 0.1026 0.066269 0.0592 0.04654 
0.08863 0.67625 1.4008 0.30253 0.10622 0.063474 0.064296 0.0227 
-0.21471 0.32029 0.56609 0.12513 0.047526 0.025001 0.037168 -0.0042642 
-0.0042642 0.010369 -0.02942 -0.024158 0.040456 0.027139 0.052787 0.031414 
0.26192 -0.17295 -0.30991 -0.027118 0.044073 0.082053 0.089616 0.074654 
0.21079 -0.33079 -0.44818 0.044073 0.044896 0.076299 0.099152 0.062817 
0.16574 -0.28804 -0.32964 0.048513 0.062981 0.054432 0.072353 0.079422 
0.16788 -0.098802 -0.21718 0.093398 0.058871 0.034537 0.026646 0.024344 
-0.021363 -0.052273 -0.38718 0.071037 0.046375 0.059035 0.012342 -0.0078813 
0.050814 0.098494 -0.46857 -0.10521 -0.0090322 0.045718 0.013657 -0.028597 
0.23529 0.57201 -0.23395 -0.12988 -0.0096899 0.040621 0.020891 0.019905 
0.21605 0.73461 -0.13234 -0.11015 -0.0095255 0.0093821 0.037826 -0.0042642 
0.1664 0.44179 -0.34 -0.091075 0.0034632 -0.018897 0.042429 0.024837 
0.23003 0.010533 -0.61407 -0.13612 -0.020212 0.016616 0.015959 0.0041209 
0.1271 -0.45459 -0.75974 -0.13727 -0.016266 0.01826 0.0044497 -0.018239 
-0.046025 -1.0499 -0.76303 -0.080717 -0.015773 0.010369 0.016288 -0.010841 
-0.28048 -1.3876 -0.3862 0.0034632 0.01711 0.024179 0.0085601 -0.0039354 
-0.41086 -1.1239 0.11362 0.05065 0.034209 0.019083 0.032236 0.028619 
0.00050378 -0.48254 0.031414 0.059857 0.039634 0.046868 0.062488 0.079751 
0.3392 0.15489 -0.43371 0.034866 0.04358 0.079916 0.11017 0.08978 
0.31815 0.52696 -0.66932 -0.10521 0.027632 0.036839 0.073997 0.073504 
0.11214 0.53156 -0.6246 -0.13136 0.040128 0.012177 0.027796 0.021384 
-0.036489 0.35794 -0.36038 -0.02498 0.01004 0.011848 -0.017417 -0.065919 
-0.17739 0.41762 0.37257 0.13072 0.046868 0.004943 -0.011827 -0.038462 
-0.099295 0.59338 1.3134 0.2463 0.062323 0.023686 0.019411 0.0064227 
0.17297 0.83606 2.0947 0.30007 0.13516 0.035853 0.057391 0.068736 
0.091425 1.0819 2.4781 0.39181 0.10606 0.054267 0.068078 0.049006 
-0.13185 1.0062 2.2951 0.48536 0.14223 0.11461 0.061501 0.067091 
-0.29692 0.42831 1.1406 0.41516 0.1636 0.11444 0.09274 0.058706 
-0.18463 -0.19992 -0.3839 0.14601 0.11411 0.087972 0.10935 0.10902 
-0.020212 -0.49076 -1.2632 -0.080223 0.028619 0.043416 0.063639 0.11855 
0.2583 -0.43618 -1.2666 -0.17197 -0.023829 0.0019835 0.019411 0.096357 
0.41959 -0.24168 -0.7604 -0.1667 -0.057534 -0.031721 -0.017417 0.037826 
0.48158 -0.050136 -0.49175 -0.11212 -0.039942 -0.033201 -0.029091 0.018096 
0.38392 -0.013307 -0.47268 -0.11278 -0.0019624 -0.011498 0.020562 -0.017088 
0.15555 -0.067564 -0.50951 -0.1159 0.0054362 0.0075736 0.022042 -0.067399 
-0.24891 -0.13448 -0.47728 -0.096829 -0.013636 -0.0021268 -0.012649 -0.090417 
-0.79033 -0.28689 -0.24645 -0.066577 -0.025309 -0.018075 -0.046847 -0.13333 
-0.61292 -0.25088 0.34939 0.0044497 0.026974 -0.013636 -0.011663 -0.038298 
0.073504 0.046704 1.0136 0.17001 0.069886 0.016288 0.051472 0.094877 
0.50509 0.33459 1.0697 0.25173 0.078107 0.034373 0.085341 0.18136 
0.46678 0.34347 0.62643 0.16179 0.062652 0.05476 0.082546 0.14042 
0.33821 0.1562 0.038812 0.080409 0.059035 0.02681 0.054925 0.080738 
0.24992 0.0074092 -0.51658 -0.036489 0.03092 0.016616 0.039634 0.031085 
0.1881 -0.065426 -0.96575 -0.12429 -0.018733 -0.015938 0.032236 0.041772 
0.21835 -0.0080457 -0.92366 -0.14451 -0.038791 -0.0070593 0.021878 0.047362 
0.16525 0.28116 0.043251 0.023522 0.012999 0.019905 0.030756 0.06594 
-0.079401 0.47878 0.86614 0.22098 0.075312 0.029276 0.026317 0.069064 
-0.51148 0.19205 0.61854 0.1516 0.017438 -0.035174 -0.015938 -0.045532 
-0.71256 -0.19087 -0.001798 -0.029748 -0.036654 -0.080717 -0.096829 -0.13547 
-0.4878 -0.21044 -0.10193 -0.043395 -0.037311 -0.070523 -0.08532 -0.08532 
-0.076606 0.18481 0.26258 0.057227 0.022206 -0.024816 -0.012485 0.032729 
-0.065591 0.47139 0.29349 0.085835 0.042594 0.0064227 0.012506 0.025166 
-0.11393 0.32473 -0.041257 0.069393 0.016945 0.014479 0.0592 0.047362 
0.15226 0.1105 -0.041915 0.066927 0.032071 0.028454 0.074819 0.10704 
0.23216 -0.062467 0.28099 0.014479 0.061172 0.022864 0.08304 0.15292 
0.058871 -0.29149 0.40776 -0.0052507 0.014808 -0.0083746 0.0098754 0.04095 
0.062652 -0.3566 0.55935 0.0031344 -0.0055795 -0.042244 -0.015609 -0.0077169 
0.3295 -0.10686 0.63202 0.096521 0.0018191 -0.03616 0.0067515 -0.031228 
0.62182 0.16212 0.37931 0.12875 0.085835 0.076792 0.099316 0.070544 
0.72573 0.26768 -0.15635 0.057227 0.11378 0.098166 0.16738 0.054103 
0.43275 0.20684 -0.72522 -0.014787 0.052294 0.066927 0.10343 0.012177 
-0.19844 -0.022021 -0.97513 -0.15306 -0.029255 -0.037805 0.022206 -0.059178 
-0.57741 -0.22754 -0.86974 -0.19268 -0.070687 -0.089595 -0.040764 -0.051287 
-0.352 -0.2642 -0.74117 -0.14418 -0.020377 -0.029913 -0.030242 0.054103 
-0.13021 -0.20025 -0.74363 -0.11228 -0.023829 -0.023007 1.0539e-005 0.11724 
-0.24447 -0.10193 -0.74643 -0.1575 -0.054246 -0.02794 -0.0004827 0.12069 
-0.35068 -0.18315 -0.52907 -0.10637 -0.033365 -0.017746 0.015137 0.1054 
-0.18989 -0.27588 -0.27423 0.01974 0.013821 0.013986 0.0324 0.14223 
0.08978 -0.16391 -0.097158 0.017767 0.042923 0.0085601 0.035524 0.1442 
0.27014 -0.20551 0.061337 0.022371 0.02829 0.021056 0.045718 0.1493 
0.38852 -0.35036 0.19172 0.05624 0.041772 0.039963 0.018589 0.033222 
0.36616 -0.2961 0.32752 0.027303 0.017767 0.0075736 -0.0083746 -0.14451 
0.24252 -0.17525 0.38819 0.0075736 0.0072447 -0.015609 -0.041915 -0.25713 
0.15209 0.1927 0.87782 0.11115 0.022042 -0.0078813 -0.040435 -0.11935 
0.25008 0.88308 1.5744 0.32259 0.071037 0.037168 0.023028 0.088465 
0.31042 1.2136 1.7255 0.34528 0.10639 0.078272 0.08863 0.1881 
0.058049 0.80531 0.81583 0.21062 0.11329 0.076792 0.089616 0.11263 
-0.29149 0.1613 -0.42599 0.038483 0.090438 0.073175 0.043087 -0.013307 
-0.32701 -0.02235 -0.76484 0.004943 0.062817 0.044402 0.028947 -0.0072237 
-0.2836 -0.028269 -0.93945 -0.077757 0.041607 0.046375 0.020398 0.031249 
-0.28443 -0.1353 -1.2821 -0.1917 0.0041209 0.019411 0.015137 0.01563 
-0.21603 -0.2642 -1.1312 -0.19761 -0.017746 -0.013636 0.011191 -0.035338 
-0.075784 -0.2032 0.066269 -0.0087034 0.010862 0.0069159 0.0023123 -0.062302 
0.15111 0.025824 1.6777 0.30401 0.097508 0.025824 0.045718 -0.05885 
0.24581 0.3803 2.5565 0.52564 0.15916 0.076627 0.046868 -0.01232 
0.25699 0.42288 2.0702 0.42749 0.16097 0.090603 0.095371 0.083862 
0.44311 0.26324 0.86713 0.15275 0.08419 0.088301 0.11296 0.19106 
0.57316 0.063474 -0.13892 -0.064275 0.018754 0.037661 0.085177 0.24976 
0.36994 -0.24053 -0.85428 -0.1723 -0.018568 0.020562 0.064296 0.2024 
0.023851 -0.33687 -1.1491 -0.18084 -0.018568 -0.0057439 0.0421 0.0786 
-0.13432 -0.19745 -1.0465 -0.14829 0.0090533 0.014808 0.01267 -0.0091966 
-0.074962 0.021056 -0.75432 -0.11459 -0.020706 0.017932 -0.013143 -0.050793 
-0.22376 0.08567 -0.44818 -0.069701 -0.033201 -0.026624 -0.035174 -0.067235 
-0.29889 0.10244 -0.13021 -0.012156 0.013986 -0.0067304 -0.028104 -0.069372 
-0.1205 0.14239 0.14009 0.034866 0.054103 0.0067515 0.012013 -0.053588 
-0.089759 0.16771 0.24548 0.088465 0.032893 0.04654 0.025495 -0.0091966 
-0.16654 0.24499 0.35991 0.14881 0.031249 0.0421 0.021056 -0.010676 
-0.13629 0.22871 0.5041 0.12694 0.047197 0.058377 0.040292 0.0054362 
0.03947 0.17429 0.51611 0.10935 0.057555 0.055582 0.07038 0.018096 
0.26521 0.086985 0.41417 0.13664 0.076463 0.057391 0.054267 0.07301 
0.34775 0.055747 0.31355 0.097672 0.018096 0.056898 0.063474 0.062159 
0.16722 -0.037147 0.064132 0.043087 0.041443 0.038648 0.044402 0.0592 
0.017603 -0.06855 -0.24135 -0.0077169 0.029441 0.047033 0.033387 0.038977 
0.13236 0.023686 -0.40116 -0.056548 0.026974 0.028454 0.03947 0.11296 
0.24005 0.10047 -0.46791 -0.083512 0.014808 0.037004 0.048513 0.055911 
0.13943 -0.042408 -0.55817 -0.11541 -0.021692 -0.00097594 0.021713 0.012177 
-0.0026201 -0.2379 -0.57938 -0.045696 -0.0075525 0.0059294 0.021878 -0.0032777 
-0.038462 -0.26404 -0.45328 -0.009361 0.0082312 0.029441 0.022206 0.06331 
-0.013143 -0.14089 -0.18824 0.049499 0.031578 0.025495 0.045224 0.11165 
0.098659 0.065118 0.17347 0.14272 0.078107 0.044896 0.083862 0.14387 
0.147 0.12529 0.35991 0.20323 0.065283 0.04654 0.042429 0.062159 
-0.031886 0.085177 0.25551 0.11526 0.038977 -0.0055795 0.012177 -0.070194 
-0.38636 -0.094199 0.12973 -0.014951 0.016123 -0.017582 -0.047341 -0.22984 
-0.41398 0.0023123 0.4117 -0.015773 -0.023007 -0.032215 -0.086964 -0.26289 
-0.032872 0.25732 0.83507 0.04506 -0.0072237 -0.012485 0.00083261 -0.063782 
0.30023 0.28593 0.85233 0.16771 0.053445 0.042429 0.079422 0.18563 
0.26077 0.20208 0.43406 0.18021 0.088301 0.065118 0.097179 0.29875 
-0.20468 0.056076 -0.05326 0.093726 0.066763 0.049006 0.058049 0.1738 
-0.3298 -0.022679 -0.39705 0.019083 0.015465 0.032564 0.037168 0.1077 
0.05476 0.3193 -0.45476 0.022042 0.0095465 0.039141 0.06479 0.1026 
0.1927 0.57398 -0.30876 0.0067515 0.0085601 0.056569 0.065118 0.13187 
0.15801 0.30812 -0.39787 -0.121 0.0011614 0.030098 0.049992 0.088794 
0.24384 -0.22458 -0.70993 -0.19926 -0.058521 -0.0029489 -0.016102 -0.065426 
0.34544 -0.66784 -0.98844 -0.20863 -0.069208 -0.03501 -0.064604 -0.22129 
0.33903 -0.79148 -0.91018 -0.14846 -0.087458 -0.061151 -0.10439 -0.28755 
-0.27275 -0.57626 -0.36548 -0.1376 -0.057041 -0.065591 -0.11623 -0.34279 
-0.57889 -0.28196 0.1978 -0.045203 0.0037921 -0.012814 -0.073647 -0.21702 
-0.45361 -0.035338 0.51841 0.086492 0.029276 -0.0027845 -0.035832 -0.059507 
-0.28738 0.26998 0.53896 0.12102 0.075148 0.036839 0.0070803 0.049992 
-0.078086 0.34972 0.18383 0.085012 0.095042 0.057555 0.064954 0.13121 
0.14289 0.22723 -0.23822 0.022206 0.08567 0.061337 0.092576 0.19501 
0.24367 0.00066819 -0.38373 -0.025474 0.0080668 0.030592 0.070873 0.19895 
-0.024158 -0.19416 -0.33885 -0.014293 -0.0014692 0.025824 0.021384 0.1465 
-0.068386 -0.091404 0.0052718 0.094548 0.029112 0.014479 0.046211 0.18711 
0.29102 0.30105 0.50887 0.23052 0.076956 0.047362 0.074326 0.15127 
0.4505 0.55277 0.83096 0.22033 0.089123 0.081395 0.087643 0.038977 
0.28034 0.48125 0.71011 0.14864 0.059693 0.040785 0.032564 -0.046354 
0.086985 0.3392 0.32391 0.034702 0.047197 0.018918 0.044567 0.00050378 
0.0026412 0.24022 0.14963 0.053116 0.050157 0.03536 0.047197 0.013986 
-0.0096899 0.19698 0.11313 0.01826 0.066434 0.01563 0.038977 0.01267 
-0.0138 -0.061316 -0.21258 -0.071345 -0.0016336 0.020233 0.011355 0.027632 
0.038977 -0.3663 -0.81417 -0.14763 -0.02235 0.0095465 0.011355 0.053445 
0.052952 -0.34904 -1.2206 -0.26075 -0.047341 0.0026412 -0.0090322 0.019576 
-0.076771 -0.022843 -1.0409 -0.26437 -0.013471 -0.0095255 -0.0090322 -0.027118 
-0.060658 0.28297 -0.30383 -0.073811 -0.0095255 -0.033201 -0.02498 -0.022514 
0.10376 0.35876 0.38507 0.15127 0.038812 -0.011498 -0.017911 -0.045696 
-0.032215 0.0064227 0.60341 0.12825 0.032893 0.0070803 -0.036654 -0.16062 
-0.31024 -0.27012 1.0482 0.16179 0.060515 0.026152 -0.0095255 -0.157 
-0.37765 -0.20353 1.922 0.3341 0.089452 0.051472 0.034702 -0.054575 
-0.10965 -0.080717 2.3418 0.43965 0.14453 0.089452 0.087972 0.1174 
0.256 0.1031 1.4621 0.32802 0.13105 0.090109 0.096686 0.24038 
0.44196 0.32522 -0.2014 0.059857 0.0689 0.073997 0.090274 0.23348 
0.41039 0.4607 -1.4735 -0.19367 -0.017088 0.014643 0.079422 0.17659 
0.26751 0.42157 -1.7147 -0.30235 -0.056055 -0.025967 0.038812 0.097015 
0.10507 0.25403 -1.0397 -0.21323 -0.051122 -0.036983 0.0056006 0.05065 
-0.19614 -0.20715 -0.46676 -0.12807 -0.02794 -0.026789 -0.023501 -0.04323 
-0.49964 -0.60437 -0.18972 -0.10998 -0.018239 -0.040928 -0.046025 -0.072332 
-0.58234 -0.44292 0.38507 0.048348 0.012013 -0.0044286 0.026152 -0.0073881 
-0.086471 0.20487 1.2862 0.30911 0.088794 0.053445 0.080902 0.13483 
0.39016 0.59207 1.5983 0.4436 0.15012 0.079422 0.094713 0.18284 
0.40134 0.51578 1.0023 0.31716 0.14617 0.1202 0.12677 0.17988 
0.27639 0.21835 0.10228 0.13549 0.069886 0.1003 0.13516 0.17429 
0.030263 -0.11623 -0.68477 -0.065097 0.019576 0.051308 0.1054 0.12431 
-0.24349 -0.26223 -0.96658 -0.18446 -0.032543 0.0069159 0.027632 0.042923 
-0.027775 -0.21537 -0.81482 -0.19235 -0.038791 0.0041209 0.0052718 0.012506 
0.25337 -0.083347 -0.52628 -0.12577 -0.0075525 0.034209 0.023028 0.034044 
0.26242 -0.0406 -0.24102 -0.026953 -0.015444 -0.0039354 0.03947 -0.016102 
0.15308 -0.024816 -0.035503 -0.014129 -0.015938 0.00297 0.014315 0.0083956 
0.15045 0.031742 0.14387 0.041278 0.0088889 0.0088889 0.0075736 0.059857 
0.27507 0.052787 0.25978 0.079587 0.047526 0.043909 0.026646 0.12381 
0.17281 -0.054575 0.17347 0.056733 0.021384 0.020233 0.0098754 0.10326 
-0.13284 -0.16638 0.1516 0.040785 0.023522 0.018425 0.028454 0.060515 
-0.23839 -0.15289 0.20684 0.048019 0.028783 0.018589 0.02533 0.047197 
-0.1187 0.019576 0.23266 0.087808 0.019247 0.00297 0.027961 0.029934 
0.072681 0.10474 -0.055561 0.020233 0.039963 -0.035174 0.014808 -0.0026201 
0.2851 0.19681 -0.33227 -0.069208 -0.010019 0.00066819 0.027303 -0.074469 
0.22213 0.098659 -0.64219 -0.13218 0.0046141 -0.017417 0.056076 -0.074962 
0.15094 -0.031064 -0.85856 -0.14517 0.00017495 0.0059294 0.036017 -0.069043 
0.21589 0.13039 -0.74577 -0.052109 0.043087 0.033058 0.043087 0.057884 
0.27935 0.34068 -0.27209 0.048019 0.02122 0.017767 0.037661 0.15324 
0.098988 0.35186 0.47402 0.17807 0.029605 -0.016595 0.033222 0.088794 
-0.16407 -0.05326 0.83556 0.21457 0.047691 -0.010841 0.009711 0.0079024 
-0.35792 -0.26437 1.1863 0.27228 0.061172 -0.015938 -0.021199 -0.030077 
-0.35364 0.14913 2.0371 0.41532 0.11888 0.049828 0.0087245 0.012342 
-0.10078 0.76503 2.6575 0.52285 0.18152 0.098988 0.094384 0.15045 
0.074654 0.88785 2.0121 0.37175 0.13993 0.097179 0.11165 0.15242 
0.12644 0.40973 0.39115 0.094877 0.061501 0.050321 0.076299 0.064132 
-0.014293 -0.050958 -1.1007 -0.086964 -0.0077169 -0.0073881 -0.042901 -0.10193 
-0.34657 -0.27505 -1.6278 -0.24365 -0.06148 -0.034188 -0.080388 -0.14517 
-0.36154 -0.19745 -1.31 -0.26141 -0.05441 -0.04323 -0.039284 -0.075784 
-0.11491 -0.13612 -0.99551 -0.18709 -0.038462 0.0018191 0.043087 0.083697 
0.36402 -0.24875 -0.93419 -0.15306 -0.0087034 0.016616 0.06331 0.055089 
0.41318 -0.50342 -0.8186 -0.1912 -0.058356 0.0052718 -0.02087 -0.17706 
0.072517 -0.51822 -0.39442 -0.17789 -0.065426 -0.038462 -0.096336 -0.35989 
0.072517 -0.074304 0.34133 0.025824 -0.012485 -0.031228 -0.064604 -0.31862 
0.12233 0.2588 0.59009 0.10754 0.046046 0.0042853 -0.01117 -0.16753 
0.011684 0.26521 0.1756 0.060186 0.040456 0.014643 0.0024767 -0.030899 
0.10047 0.12349 -0.25467 0.016781 0.019247 0.020727 0.021056 0.08978 
0.21983 0.041278 -0.33852 -0.0011404 0.030756 0.0044497 0.018425 0.12546 
0.047033 0.039141 -0.17871 0.032729 0.044731 0.01152 0.024015 0.13121 
-0.12396 0.090931 0.035195 0.090931 0.080902 0.032236 0.036017 0.13697 
-0.15405 0.064132 0.20125 0.12513 0.041936 0.056898 0.050321 0.14765 
-0.037311 0.030098 0.25814 0.07301 0.031742 0.04917 0.045389 0.14963 
0.048841 0.047033 0.2754 0.072188 0.034044 0.049499 0.024015 0.11642 
0.092904 0.060844 0.27886 0.067585 0.042923 0.038648 0.00083261 0.059693 
0.023522 0.046046 0.25469 0.060679 0.038648 0.015137 0.02122 0.010204 
-0.12757 0.0087245 0.22164 0.043251 0.026317 0.044073 0.0067515 -0.069865 
-0.34 -0.042737 0.18267 0.032893 0.0227 0.023686 -0.03057 -0.16588 
-0.54551 -0.048492 0.14124 0.065447 0.05476 0.048019 -0.0034422 -0.1108 
-0.41481 -0.0032777 0.079751 0.040292 0.064954 0.047855 0.053281 -0.0068948 
-0.11541 -0.0088678 -0.11787 -0.038956 0.016616 0.040785 0.037497 0.0092177 
0.25666 0.14453 -0.43306 -0.10768 -0.024487 0.0067515 -0.0072237 -0.033037 
0.47319 0.3632 -0.52348 -0.11376 -0.033694 -0.011663 -0.020212 0.0046141 
0.73017 0.31289 -0.58777 -0.16572 -0.038956 -0.037311 -0.010183 0.071202 
0.85447 -0.12314 -0.83965 -0.20551 -0.067235 -0.011663 0.022864 0.15637 
0.50542 -0.61786 -1.104 -0.19975 -0.063618 -0.010512 0.007738 0.091589 
-0.0771 -0.82304 -0.94339 -0.13678 -0.03764 -0.010348 -0.019555 0.036346 
-0.11705 -0.60043 -0.24332 0.024673 0.014479 0.024837 0.0041209 0.060515 
-0.0060728 -0.32142 0.32588 0.15127 0.070215 0.056898 0.029441 0.09833 
-0.26535 -0.30679 0.12497 0.16459 0.073832 0.06035 0.043745 0.061501 
-0.49093 -0.11886 0.027303 0.039963 0.046868 0.043087 0.00066819 -0.026296 
-0.39097 0.62692 0.99965 0.22739 0.088794 0.038648 0.032236 -0.04323 
-0.10423 1.5419 2.4574 0.57825 0.20651 0.12283 0.099481 -0.041751 
0.22509 1.9345 3.041 0.70831 0.244 0.17676 0.15308 0.053774 
0.24351 1.4584 1.9467 0.43982 0.17084 0.12809 0.1322 0.083862 
-0.14698 0.5023 0.39493 0.056404 0.035524 0.042923 0.072188 0.060844 
-0.22195 -0.26618 -0.51592 -0.14221 -0.020706 0.00066819 0.047033 0.051143 
0.11658 -0.78112 -0.90673 -0.19038 -0.031064 -0.0087034 0.033715 0.099316 
0.20914 -0.99995 -1.1731 -0.18101 -0.038627 0.012177 0.037004 0.035688 
0.075805 -0.93254 -1.4005 -0.19318 -0.047341 0.0046141 0.027796 0.055747 
0.14404 -0.62197 -1.4475 -0.25187 -0.069536 -0.017088 0.015959 0.068407 
0.31651 -0.27637 -1.2543 -0.24431 -0.05326 -0.008539 0.019083 0.15571 
0.37257 -0.071016 -0.94668 -0.19334 -0.05441 0.0051074 0.038977 0.18383 
0.30171 0.094384 -0.56228 -0.068879 -0.018404 0.0227 0.072024 0.1761 
0.16541 0.21227 -0.1256 -0.008539 0.016123 0.024508 0.067091 0.11362 
0.051965 0.28543 0.26751 0.075805 0.055254 0.018918 0.048184 0.10902 
0.024344 0.23611 0.52301 0.15916 0.058542 0.030756 0.055747 0.090274 
0.020398 0.16673 0.56773 0.183 0.053445 0.057884 0.01826 0.061337 
0.040292 0.071531 0.60061 0.16525 0.061501 0.02681 0.038483 -0.0014692 
0.051143 0.032236 0.61377 0.15028 0.05476 0.0056006 0.0018191 -0.073811 
0.052787 0.077943 0.68595 0.16837 0.033551 -0.0011404 0.0070803 -0.081703 
0.079422 0.054267 0.58763 0.089616 0.0070803 -0.0036066 1.0539e-005 0.0019835 
-0.044874 0.033551 0.27129 0.02829 0.0062583 0.0047785 0.031249 0.046211 
-0.1187 0.18974 -0.10225 0.015794 0.030263 0.03651 0.058871 0.060844 
-0.16753 0.43275 -0.28607 0.0079024 0.049664 0.025001 0.036839 0.059528 
-0.10127 0.43571 -0.32306 -0.034516 0.031742 0.025001 0.05476 0.080738 
-0.0096899 0.34923 -0.25647 -0.071345 0.013657 0.0082312 0.062488 0.11198 
-0.045039 0.3364 -0.20962 -0.019719 0.029934 0.032564 0.077778 0.10688 
-0.094692 0.21342 -0.0771 0.013657 0.041114 0.021549 0.048184 0.081395 
-0.13464 -0.090417 0.17297 0.05624 0.026646 0.019083 0.027303 0.057884 
0.019905 -0.28952 0.38721 0.1128 0.030427 0.046375 0.038155 0.053116 
0.15883 -0.38718 0.25584 0.13138 0.054432 0.042758 0.044896 0.017767 
0.17676 -0.36745 0.060515 0.083862 0.064954 0.027961 0.028619 -0.072003 
0.23512 -0.37699 -0.022843 0.014479 0.0324 0.0018191 -0.0072237 -0.14303 
0.3803 -0.32043 0.23085 -0.07562 0.049335 -0.05326 -0.047012 -0.11212 
-0.0080457 -0.26223 0.39099 0.009711 0.010369 -0.011334 -0.038627 -0.10719 
-0.83603 -0.02235 0.77374 0.056569 0.037004 -0.012814 0.0085601 -0.11179 
-0.78671 0.56954 1.4358 0.26472 0.063639 0.024015 0.018918 -0.05178 
-0.11738 1.0334 1.853 0.41647 0.1077 0.097179 0.030263 0.085506 
0.23775 0.74546 0.99537 0.25699 0.095371 0.05476 0.055582 0.15801 
0.3022 0.22756 -0.34838 -0.011663 0.052459 0.059857 0.073339 0.16673 
0.28231 -0.0040998 -1.0688 -0.12297 0.029934 0.061172 0.066763 0.12825 
0.034866 -0.065426 -1.0166 -0.13333 0.014479 0.053281 0.085012 0.05476 
0.11329 -0.11031 -0.64959 -0.070359 0.0046141 0.014808 0.067585 0.092082 
0.24104 -0.23263 -0.54913 -0.054082 0.0018191 -0.018897 -0.0042642 0.077121 
0.062652 -0.30991 -0.57807 -0.089924 -0.02942 -0.028926 -0.041586 0.043745 
-0.12577 -0.2841 -0.55604 -0.14467 -0.019555 -0.037476 -0.051122 0.04095 
-0.13563 -0.20567 -0.49882 -0.13514 -0.03501 -0.017582 -0.013636 0.10639 
-0.14204 -0.19433 -0.36729 -0.080223 -0.019226 -0.010183 0.011355 0.11198 
-0.028269 -0.11376 -0.21965 -0.048163 -0.0042642 -0.0083746 0.015794 0.12217 
0.1687 0.029934 -0.016102 -0.0095255 0.017274 0.018096 0.0046141 0.044567 
0.16081 0.14765 0.17429 0.064954 0.016288 0.023193 -0.013143 -0.059343 
0.037168 0.12875 0.26176 0.10606 0.033058 0.017767 -0.010676 -0.16144 
-0.092554 0.012013 0.29152 0.064461 0.030427 0.013328 -0.023172 -0.18775 
-0.194 -0.12922 0.13828 -0.015444 -0.0004827 -0.010183 -0.05178 -0.13547 
-0.37584 -0.14106 -0.00081153 -0.020048 0.010697 0.0028056 -0.029255 0.0060938 
-0.014951 -0.049971 -0.069865 -0.0064016 0.024673 0.021713 0.073504 0.25567 
0.62018 0.015794 -0.19729 -0.0088678 0.058213 0.05065 0.092411 0.26044 
0.69713 0.029605 -0.51214 -0.042244 0.035524 0.04506 0.028947 0.10195 
0.26406 -0.094199 -0.54946 -0.0088678 0.033551 -0.0026201 -0.034023 -0.12708 
-0.17558 -0.03205 -0.083347 0.081067 0.038648 -0.021363 -0.05885 -0.23181 
-0.31928 0.36879 0.52022 0.1978 0.068407 0.021878 0.0067515 -0.20485 
-0.25121 0.44196 0.32637 0.19879 0.073668 0.051636 0.045389 -0.073154 
-0.17558 0.25502 -0.32421 -0.0034422 0.019411 0.019083 0.043745 -0.036983 
-0.11935 0.31092 0.044731 -0.020541 0.014808 0.027468 0.03092 0.023028 
0.037332 0.597 1.1235 0.17495 0.053609 0.051965 0.061337 0.029112 
0.21194 0.51972 1.4904 0.2708 0.08304 0.079422 0.093891 0.11839 
0.34281 -0.07266 1.0059 0.14765 0.069886 0.057227 0.069886 0.21095 
0.47139 -0.32915 0.94276 0.12036 0.071202 0.058706 0.078436 0.28889 
0.38934 0.16064 1.6136 0.29711 0.095699 0.086163 0.071366 0.26324 
-0.0036066 0.51413 1.4732 0.33344 0.12036 0.091589 0.079258 0.1516 
-0.17312 0.42897 0.17051 0.12118 0.069393 0.070544 0.076956 0.041443 
-0.14648 0.15883 -1.1136 -0.14467 -0.0098543 0.024179 0.039141 -0.073811 
-0.11935 -0.094034 -1.6463 -0.28656 -0.06707 -0.025802 -0.0049219 -0.11212 
-0.065919 -0.22211 -1.5065 -0.29445 -0.1011 -0.056383 -0.042079 -0.14763 
-0.0024557 -0.22113 -1.1177 -0.23872 -0.11557 -0.060329 -0.054246 -0.11952 
0.01267 -0.21965 -0.88717 -0.18627 -0.077428 -0.074304 -0.077428 -0.10982 
-0.06 -0.22409 -0.69234 -0.19581 -0.045203 -0.037805 -0.049971 -0.054575 
-0.059672 -0.24875 -0.47728 -0.14533 -0.042573 -0.0032777 -0.027118 -0.02087 
0.053116 -0.23165 -0.2933 -0.038133 0.005765 0.027468 0.024508 0.054267 
0.11411 -0.11064 -0.069865 0.083368 0.056076 0.063803 0.082875 0.10935 
0.10935 -0.022185 0.13187 0.098001 0.091918 0.055254 0.08715 0.16525 
0.067585 0.099974 0.27754 0.10984 0.052294 0.046704 0.076792 0.18843 
0.031742 0.25403 0.38885 0.14798 0.046704 0.062488 0.091425 0.15209 
0.082217 0.37241 0.37685 0.099974 0.050321 0.04358 0.072024 -0.019719 
0.097015 0.32588 0.34725 0.045224 0.045718 0.028783 0.03947 -0.16144 
0.10655 0.20882 0.29201 0.024179 0.046868 0.029441 0.048513 -0.058685 
0.17265 0.050814 0.18103 0.030592 0.024344 0.038483 0.060679 0.075641 
0.16656 -0.20649 -0.0024557 0.0067515 0.023028 0.0098754 0.058049 0.13138 
0.076134 -0.4199 -0.076935 -0.01117 0.0067515 -0.006566 0.01826 0.073504 
-0.052437 -0.47778 -0.091075 0.0019835 0.023193 -0.021034 0.011026 0.020398 
-0.068221 -0.49948 -0.25302 -0.027282 -0.023336 -0.0034422 -0.0034422 0.019247 
-0.064768 -0.58612 -0.67014 -0.16407 -0.026953 0.035688 0.020562 -0.011827 
-0.14813 -0.56771 -1.1242 -0.26733 -0.051944 0.015794 -0.011334 -0.20189 
-0.24414 -0.12577 -1.0092 -0.19663 -0.037476 -0.0096899 -0.011005 -0.27012 
-0.24102 0.6963 -0.43256 -0.071509 -0.018075 -0.0075525 0.038483 -0.13695 
-0.089431 1.193 0.19254 0.15127 0.066598 0.041114 0.052459 0.06479 
0.032071 0.91317 0.26948 0.24121 0.072024 0.060515 0.06594 0.1733 
0.0085601 0.14256 0.14765 0.13565 0.055582 0.0052718 0.010533 0.059364 
-0.14615 -0.11064 0.87206 0.20553 0.059035 -0.038462 -0.034352 -0.095349 
0.018918 0.40529 2.736 0.51068 0.13697 0.041936 0.011355 -0.011827 
0.47434 0.70485 3.6385 0.743 0.22542 0.16804 0.11378 0.18974 
0.60374 0.1733 2.1106 0.48273 0.2052 0.15801 0.14108 0.30746 
0.39641 -0.44029 -0.023501 0.072681 0.09685 0.08978 0.10047 0.23594 
-0.004593 -0.28031 -0.82091 -0.094363 0.007738 0.028947 0.067585 0.084684 
-0.18035 0.15818 -0.59632 -0.12889 -0.0078813 0.012177 0.045389 0.063474 
-0.24382 0.10474 -0.65534 -0.19663 -0.028762 0.027632 0.034373 -0.010183 
-0.34657 -0.26683 -0.96691 -0.24266 -0.027118 0.0042853 -0.0027845 -0.06148 
-0.18611 -0.49981 -1.2755 -0.24957 -0.074633 -0.016431 -0.028762 -0.14073 
0.020069 -0.47038 -1.3235 -0.27226 -0.082525 -0.068386 -0.061809 -0.1718 
0.16755 -0.24299 -0.96789 -0.19712 -0.061316 -0.049971 -0.08269 -0.14582 
0.20454 0.02122 -0.46413 -0.077757 -0.013143 -0.021199 -0.025145 -0.018404 
0.13401 0.12447 -0.1353 -0.0024557 0.022371 0.013164 0.032564 0.1271 
0.057884 0.13878 0.049006 0.05065 0.011191 0.012835 0.06479 0.16525 
0.027632 0.19155 0.1299 0.10721 0.030756 0.0069159 0.039141 0.15587 
0.053938 0.2297 0.34972 0.16706 0.049664 0.039141 0.015137 0.095864 
0.13828 0.22559 0.43752 0.16377 0.053938 0.042758 0.0028056 0.096357 
0.17067 0.16492 0.47352 0.14683 0.058377 0.029605 0.040456 0.094384 
0.11461 0.075805 0.44623 0.13368 -0.00081153 0.0085601 0.053609 0.08156 
0.24614 0.11707 0.48536 0.12464 0.031578 0.043416 0.048677 0.061008 
0.34347 0.16459 0.59996 0.13861 0.070544 0.066434 0.055582 0.0786 
0.24844 0.20257 0.53616 0.11921 0.088301 0.061666 0.029605 0.052787 
0.097672 0.19714 0.32933 0.097672 0.061666 0.041772 0.030756 0.065283 
-0.094692 0.18777 0.18646 0.041607 0.051965 0.035195 0.059528 0.058871 
-0.31829 0.19714 0.17971 0.010533 0.036839 0.030756 0.039305 0.097179 
-0.45328 0.13269 0.10787 0.03092 0.036017 0.0054362 0.0021479 0.051472 
-0.074633 0.091918 -0.12314 -0.017746 -0.0016336 -0.0073881 -0.001798 0.081395 
-0.0064016 -0.043559 -0.51904 -0.099295 -0.011334 -0.0044286 0.0065871 0.074161 
-0.085649 -0.079566 -0.78622 -0.15947 -0.035174 -0.017253 0.0026412 0.081231 
0.14042 -0.027282 -0.70417 -0.13793 -0.0031133 -0.0034422 0.013328 0.091589 
0.36649 -0.21586 -0.74149 -0.14895 -0.016431 -0.013471 -0.0029489 0.090438 
0.2149 -0.44226 -0.77931 -0.13711 -0.010512 -0.013143 -0.012814 0.020891 
0.183 -0.36926 -0.47531 -0.024323 0.019905 0.0062583 0.009711 -0.057534 
0.48898 -0.09387 0.19895 0.13302 0.058706 0.045882 0.032236 -0.014787 
0.54899 -0.048985 0.80679 0.23035 0.099316 0.044402 0.058049 0.0059294 
0.039141 0.25863 1.2709 0.27886 0.092411 0.032071 0.029276 -0.021856 
-0.36334 0.69614 1.3166 0.31569 0.10376 0.065776 0.046868 -0.012978 
-0.49142 0.84789 1.0807 0.24038 0.095371 0.05624 0.096521 0.082711 
-0.55801 0.84395 1.1226 0.18728 0.076134 0.06594 0.054596 0.030756 
-0.35068 0.87256 0.91037 0.14848 0.050814 0.046046 0.0072447 -0.0029489 
0.10211 0.67888 0.087314 0.041607 0.033387 0.027468 0.012342 0.0028056 
0.40973 0.3216 -0.79805 -0.16983 -0.0064016 0.00099702 0.0059294 0.10441 
0.20158 -0.31106 -1.2056 -0.30021 -0.050464 -0.036325 -0.017911 0.083204 
-0.036325 -0.97085 -1.1098 -0.26667 -0.056712 -0.044217 -0.051451 0.076463 
-0.075127 -1.3373 -0.86941 -0.18101 -0.031721 -0.026624 -0.034188 0.034373 
-0.16851 -1.3186 -0.56097 -0.037311 0.0056006 0.010862 0.004943 0.01267 
-0.036489 -0.89111 -0.26091 0.049006 0.04358 0.034044 0.063639 0.084848 
0.16558 -0.2744 -0.17723 0.04654 0.077778 0.067091 0.088465 0.14634 
0.24614 0.22115 -0.25828 -0.0019624 0.026481 0.062817 0.077614 0.12069 
0.32867 0.53386 -0.28689 0.032071 0.024837 0.071695 0.073997 -0.043559 
0.3313 0.53715 -0.16111 0.054103 0.047526 0.067913 0.073997 -0.11886 
0.23627 0.30862 -0.088773 0.020891 0.045224 0.041443 0.073832 -0.095185 
0.1641 0.083533 0.031249 0.027796 0.026481 0.027796 0.051472 -0.0064016 
0.043087 -0.10784 0.15407 0.051965 0.012999 0.019083 -0.014787 -0.029255 
-0.44999 -0.16835 0.19944 0.041772 -0.01117 -0.022514 -0.06855 -0.087951 
-0.77339 -0.026624 0.20767 0.028783 0.013164 -0.0004827 -0.035996 -0.070852 
-0.22047 0.17149 0.34216 0.10063 0.052952 0.047362 0.040785 0.13006 
0.20816 0.2172 0.38934 0.14617 0.053774 0.14437 0.083862 0.14256 
-0.054575 0.039305 0.025001 0.028947 0.046211 0.058213 0.019247 0.076956 
-0.29856 -0.31895 -0.46068 -0.11442 0.0090533 -0.0044286 -0.020377 0.027468 
-0.19663 -0.42056 -0.46051 -0.10275 0.016288 -0.0032777 -0.013143 0.039141 
0.20076 -0.24875 -0.29445 -0.018733 0.018918 0.018425 0.005765 -0.015444 
0.49555 0.056076 -0.54699 -0.034516 -0.0064016 -0.0054151 -0.023336 -0.066248 
0.38014 0.10573 -0.96132 -0.10998 -0.036654 -0.047669 -0.069372 -0.11672 
0.16952 0.42042 -0.31205 -0.0024557 -0.03205 -0.069043 -0.085813 -0.11985 
0.0098754 1.1179 1.2364 0.20454 0.023028 -0.02087 -0.048327 -0.075455 
-0.15947 1.2053 2.0679 0.34824 0.061337 0.086328 0.045553 0.0092177 
-0.11113 0.38984 1.8188 0.33607 0.10474 0.10441 0.12217 0.053281 
0.041443 -0.21619 1.9641 0.42732 0.19435 0.13894 0.15719 0.06594 
0.15785 -0.062302 2.3091 0.55705 0.25913 0.16064 0.13384 0.058542 
0.13138 0.28034 1.6433 0.4852 0.21769 0.15818 0.11148 0.041772 
-0.10094 0.1128 -0.076606 0.10573 0.063803 0.078272 0.070215 0.052952 
-0.32208 -0.33901 -1.6241 -0.29002 -0.04323 0.0059294 0.033715 0.043087 
-0.34575 -0.5562 -2.0067 -0.4513 -0.092883 -0.010676 0.0051074 0.057555 
-0.13645 -0.47005 -1.6083 -0.39787 -0.10653 -0.046354 -0.021692 0.079258 
0.12217 -0.24743 -0.9674 -0.20386 -0.086471 -0.0019624 0.023522 0.12102 
0.20701 -0.051287 -0.51099 -0.085813 -0.023994 0.0023123 0.027632 0.13121 
-0.00081153 0.0592 -0.27111 -0.050958 -0.0064016 -0.023665 0.0087245 0.074161 
-0.025802 0.092904 -0.14139 0.0092177 -0.015773 -0.033365 -0.0062372 0.0067515 
0.14667 0.19024 0.15028 0.036346 -0.026624 -0.019061 -0.0042642 0.005765 
0.17741 0.28182 0.39904 0.08304 0.0014903 -0.0054151 0.009711 -0.0088678 
0.0056006 0.14174 0.30253 0.084684 0.014479 0.0034632 -0.00064712 -0.047341 
0.005765 -0.0042642 0.088794 0.058213 0.015137 0.009711 -0.0016336 -0.133 
0.10918 0.042594 -0.04471 -0.01528 0.0034632 0.00017495 0.0070803 -0.14188 
0.10885 0.19468 -0.014787 -0.0064016 0.0037921 0.029934 0.016288 -0.096665 
0.053116 0.29744 0.049335 0.030427 0.0059294 0.01415 0.049664 -0.045368 
-0.069701 0.32588 0.087972 0.018918 0.026317 0.026152 0.010862 0.028947 
-0.13366 0.31256 0.13368 0.038977 0.02681 0.015465 0.029276 0.02829 
-0.15602 0.24482 0.20602 0.073339 0.020398 0.033715 0.012177 0.024837 
-0.17756 0.12891 0.27096 0.089123 0.029276 0.033715 0.059364 0.022864 
-0.056383 0.048019 0.32243 0.072517 0.069558 0.039305 0.087314 0.095042 
0.19073 0.029276 0.39049 0.084519 0.097179 0.045553 0.089945 0.1128 
0.20471 0.0093821 0.42798 0.12332 0.085012 0.050321 0.076463 0.078929 
0.25535 -0.0054151 0.42305 0.10935 0.056569 0.068736 0.06742 0.093398 
0.38573 -0.056383 0.25995 0.03092 0.061337 0.013328 0.081889 0.036839 
0.23644 -0.15816 -0.24135 -0.10637 -0.014951 -0.013636 0.022042 0.064625 
0.074983 -0.24513 -0.85938 -0.21718 -0.10489 -0.057534 -0.024323 0.022371 
0.13269 -0.32504 -1.4282 -0.32208 -0.11196 -0.052766 -0.026624 0.11346 
0.48651 -0.1547 -1.7002 -0.3303 -0.097487 -0.031557 0.0013258 0.19073 
0.46168 0.060022 -1.724 -0.25417 -0.045203 -0.054904 0.017932 0.098823 
-0.1547 0.049664 -1.3903 -0.16144 0.0031344 -0.022185 0.0060938 -0.075784 
-0.63101 -0.0077169 -0.65156 -0.023172 0.01974 -0.045532 -0.030735 -0.18167 
-0.74166 -0.1062 0.15324 0.035195 0.050814 0.010533 -0.042901 -0.29051 
-0.50573 -0.055068 1.5472 0.2371 0.12151 0.060844 0.00099702 -0.15799 
-0.10587 0.43275 3.0496 0.52104 0.19846 0.091589 0.088958 -0.0032777 
0.067256 0.77489 3.4833 0.68052 0.18202 0.068736 0.088958 0.08156 
-0.021692 0.52466 2.3447 0.5771 0.15176 0.079422 0.087643 0.12973 
0.13582 0.10047 0.74267 0.30418 0.084026 0.077943 0.068571 0.17643 
0.548 0.11625 0.025988 0.099974 0.066598 0.057062 0.10211 0.12858 
0.65273 0.38244 -0.1649 0.035031 0.071531 0.066269 0.094877 0.07449 
0.44426 0.30582 -0.78079 -0.046025 0.046046 0.075476 0.065776 -0.025802 
0.21737 -0.13037 -1.6088 -0.27242 -0.020706 0.024015 0.0056006 -0.039778 
-0.071838 -0.53499 -1.9741 -0.42878 -0.081703 -0.047012 -0.047669 0.020398 
-0.12905 -0.64663 -1.7212 -0.39771 -0.087622 -0.074962 -0.02646 0.12661 
0.36632 -0.437 -1.1515 -0.27061 -0.056877 -0.050136 0.0088889 0.24236 
0.40036 -0.27867 -0.63035 -0.14385 -0.027118 -0.021528 0.032564 0.2223 
0.017438 -0.18989 -0.17756 -0.024323 0.012835 0.018918 0.011684 0.07597 
-0.20945 -0.034188 0.25502 0.090931 0.046868 0.030263 0.0098754 -0.053095 
-0.19811 0.11839 0.55129 0.12694 0.047362 0.018096 0.028619 -0.06444 
-0.10012 0.26274 0.62906 0.15127 0.035524 0.014315 0.01267 -0.063124 
-0.12922 0.16146 0.50509 0.14502 0.027468 0.0072447 -0.0029489 -0.018733 
-0.25746 0.0070803 0.32752 0.10524 0.041936 0.029605 -0.00097594 -0.023172 
-0.22968 0.043416 0.27639 0.092411 0.058377 0.041607 -0.00097594 -0.011334 
0.053609 0.14979 0.28576 0.10836 0.051965 0.029605 0.045553 0.056898 
0.45396 0.2121 0.33098 0.15653 0.07449 0.033551 0.042594 0.096357 
0.54784 0.1955 0.35695 0.13384 0.089452 0.075641 0.052787 0.083204 
0.21523 0.16114 0.32654 0.11231 0.075641 0.037332 0.038319 0.062488 
-0.2231 0.14108 0.31453 0.12217 0.034209 0.027796 0.040292 0.0083956 
-0.30892 0.10639 0.35284 0.12612 0.039799 0.0092177 0.048348 0.048184 
-0.036489 0.044073 0.19632 0.068571 0.014808 0.013821 0.038812 0.083368 
0.12513 -0.053917 -0.17953 -0.01528 0.015137 0.012013 0.0087245 0.051636 
0.099316 -0.097651 -0.47087 -0.043724 0.0016547 0.018754 0.0018191 0.059035 
0.10836 0.10047 -0.46446 -0.066084 -0.0022913 0.0067515 0.040785 0.076956 
0.15949 0.1442 -0.16818 -0.0080457 0.0034632 0.031742 0.056733 0.11921 
0.073504 -0.090417 -0.1644 0.029276 0.011191 0.03536 0.043416 0.12694 
0.051143 -0.43717 -0.54765 -0.039942 0.0039565 0.049664 0.060679 0.10507 
0.10655 -0.44341 -0.64663 -0.21027 -0.060823 0.0011614 0.011355 -0.0083746 
0.017603 -0.049314 -0.22507 -0.17525 -0.053588 -0.018897 -0.0083746 -0.053753 
-0.10768 0.51117 0.40036 -0.034352 -0.020541 -0.027118 -0.008539 -0.017253 
-0.11245 0.65849 0.27475 0.043087 0.022371 0.0037921 -0.03764 0.039141 
-0.083512 0.39016 -0.26502 0.021713 0.0051074 0.030263 -0.020048 -0.031064 
-0.11426 -0.11738 -0.48106 -0.025309 0.01711 0.019247 -0.024652 -0.15684 
-0.10916 -0.46429 0.15933 0.091753 0.063968 0.045224 -0.036654 -0.22047 
0.045224 -0.12264 1.5375 0.39296 0.15999 0.085012 0.034702 -0.10686 
0.16771 0.55869 2.652 0.64155 0.24285 0.14815 0.10589 0.060186 
0.012342 0.82915 2.6482 0.67016 0.2172 0.13253 0.11888 0.13056 
-0.25861 0.47204 1.5013 0.40184 0.12727 0.071366 0.077778 0.057391 
-0.39097 -0.009361 -0.14714 -0.0016336 -0.0070593 0.0031344 0.0037921 -0.068714 
-0.12067 -0.2938 -1.4161 -0.28689 -0.069208 -0.034352 -0.024158 -0.071181 
0.16837 -0.34279 -1.8332 -0.39162 -0.099624 -0.0083746 -0.0138 0.0021479 
0.23512 -0.15076 -1.3871 -0.33786 -0.084005 -0.023994 -0.011663 0.14881 
0.16377 -0.11097 -0.80611 -0.23411 -0.047669 0.0095465 0.0088889 0.18728 
0.021878 -0.27193 -0.52233 -0.14796 -0.040106 -0.017417 0.023686 0.16985 
-0.074962 -0.38274 -0.46627 -0.093705 -0.013965 -0.0022913 0.0082312 0.083862 
-0.064111 -0.3497 -0.39919 -0.050793 -0.0055795 0.030427 0.010862 0.034702 
0.078272 -0.16621 -0.30152 -0.0082102 0.020233 0.033551 0.014643 -0.0090322 
0.082382 0.12102 -0.050629 0.025659 0.033551 0.019411 0.023357 0.018096 
0.11165 0.36879 0.22739 0.055911 0.073668 0.020727 0.044896 0.02122 
0.13631 0.46596 0.45182 0.1345 0.065612 0.041114 0.016288 -0.0055795 
0.14502 0.42946 0.54702 0.14864 0.067913 0.044073 0.038155 -0.0044286 
0.16508 0.32095 0.48717 0.1516 0.059364 0.04095 0.014479 -0.00031829 
0.10984 0.098659 0.39033 0.10145 0.058377 0.027303 0.033058 -0.059672 
-0.10719 -0.097651 0.29332 0.072681 0.031907 -0.0060728 -0.0034422 -0.0868 
-0.0040998 -0.077757 0.26521 0.070051 0.013492 0.016123 -0.00081153 0.0044497 
0.33459 -0.038462 0.19961 0.011355 0.024344 0.020069 0.023851 0.076627 
0.37964 -0.052437 0.097508 -0.0050863 0.025166 0.0031344 0.012835 0.10458 
0.12085 -0.13234 -0.045861 0.027303 0.021384 0.017767 0.031578 0.064954 
0.016123 -0.23576 -0.31386 -0.010841 0.007738 0.021549 0.030592 0.050321 
-0.34641 -0.2693 -0.66965 -0.073811 0.00066819 0.025001 0.0056006 -0.063124 
-0.63232 -0.091404 -0.81515 -0.12314 0.010533 0.014972 0.0092177 -0.11886 
-0.4712 0.10984 -0.44259 -0.0078813 0.044567 0.016452 0.04095 -0.060165 
-0.10998 0.25584 0.15357 0.1276 0.094713 0.059035 0.083862 0.06035 
0.10819 0.4071 0.70518 0.28872 0.13795 0.10754 0.098494 0.17199 
0.18119 0.55409 0.86894 0.23315 0.11822 0.07301 0.09274 0.18843 
0.35219 0.65454 0.90149 0.1276 0.12513 0.093891 0.024344 0.13861 
0.51479 0.53962 0.73182 0.077449 0.038319 0.025495 0.040785 0.14239 
0.57908 0.18136 0.19632 0.053938 0.027632 0.030427 0.0421 0.081395 
0.42371 -0.2568 -0.32421 0.011026 -0.021856 0.011848 -0.030899 -0.088773 
-0.32553 -0.43651 -0.50688 -0.12938 -0.027775 -0.056712 -0.10094 -0.1963 
-0.73837 -0.40576 -0.34115 -0.18479 -0.060329 -0.074633 -0.084005 -0.16457 
-0.10061 -0.25368 -0.11656 -0.07266 -0.03205 -0.036983 -0.010512 -0.047669 
0.076299 0.014315 0.36731 0.12513 0.055582 0.034209 0.049828 0.016616 
0.00099702 0.3849 0.85184 0.24433 0.11543 0.091096 0.080409 0.047362 
-0.0072237 0.35087 0.62446 0.21589 0.12694 0.097015 0.11921 0.046046 
0.01152 0.091589 -0.087458 0.10145 0.056404 0.054103 0.082382 0.11411 
0.089452 -0.03205 -0.61407 -0.056548 0.0046141 0.028125 0.061008 0.147 
0.13434 -0.039613 -0.76106 -0.14961 -0.038627 0.009711 0.063145 0.1853 
0.19369 -0.13415 -0.69447 -0.16375 -0.027447 0.0067515 0.062981 0.22378 
0.18958 -0.3104 -0.71091 -0.10505 -0.032872 -0.019719 0.0592 0.19172 
0.14321 -0.37683 -0.60388 -0.097158 -0.045368 -0.032872 0.03799 0.14667 
0.093398 -0.21027 -0.28459 -0.042573 -0.036983 0.0054362 0.0227 0.1442 
0.12727 0.038483 0.10491 0.073175 0.030427 0.03092 0.037004 0.14798 
0.12398 0.23414 0.21967 0.1054 0.081889 0.06479 0.035195 0.077121 
0.044073 0.33426 0.2514 0.083697 0.03092 0.024015 0.0042853 -0.014787 
-0.086307 0.30335 0.22657 0.028619 0.025495 0.0034632 -0.0047575 -0.10209 
-0.1376 0.16738 0.19451 0.033222 0.025495 0.032893 0.019083 -0.12675 
0.014808 0.07301 0.22148 0.047362 0.067749 0.052459 0.05213 -0.035667 
0.074983 0.073175 0.20602 0.066105 0.053281 0.051143 0.047855 -0.024487 
-0.09091 -0.017911 0.18202 0.082546 0.029769 0.045553 0.039141 -0.10916 
-0.15651 -0.16325 0.12694 0.0028056 -0.0068948 0.019411 0.029276 -0.11048 
-0.084169 -0.33046 -0.13086 -0.070687 -0.0027845 0.0028056 0.0085601 -0.12593 
-0.19679 -0.36236 -0.60618 -0.14763 -0.018733 -0.017582 -0.013307 -0.055232 
-0.31797 -0.13645 -0.91413 -0.13793 -0.030406 -0.02646 -0.015609 0.00083261 
0.0421 0.21293 -0.7604 -0.11459 -0.022514 -0.006566 -0.020706 0.12644 
0.58089 0.3831 -0.44752 -0.012814 0.0092177 0.030098 0.067749 0.24712 
0.88834 0.21358 -0.26157 0.062817 0.031742 0.037168 0.089616 0.27623 
0.62429 0.0080668 -0.02087 0.057884 -0.00031829 -0.0057439 0.022206 0.14815 
-0.11952 -0.15717 0.74004 0.08567 -0.041586 -0.074962 -0.049149 -0.030242 
-0.91627 0.093726 2.1721 0.26866 0.01563 -0.031228 -0.044546 -0.10998 
-1.3597 0.49983 2.9228 0.45922 0.10787 0.091918 0.027632 -0.043888 
-0.71519 0.45626 1.8283 0.3951 0.12875 0.10885 0.079916 0.071366 
0.19665 0.17528 -0.019719 0.084355 0.063145 0.064296 0.073504 0.032071 
0.3928 0.25469 -0.68938 -0.075784 0.0016547 0.021549 0.00033937 -0.10193 
0.57973 0.55639 -0.2254 -0.035174 0.018754 0.052294 0.026481 -0.048985 
0.63268 0.31108 -0.089266 0.010533 0.059364 0.078436 0.080244 0.06594 
0.36008 -0.30909 -0.6782 -0.093541 -0.0087034 0.029112 0.040128 0.065447 
-0.043395 -0.64482 -1.0353 -0.14254 -0.053424 -0.035338 1.0539e-005 -0.079566 
-0.14714 -0.279 -0.55242 -0.10275 -0.034352 -0.0004827 -0.031886 -0.20732 
-0.1843 0.14371 0.042923 0.053445 0.022864 0.047526 0.0083956 -0.19466 
-0.27916 0.092082 0.052787 0.10918 0.049664 0.044238 0.024179 -0.13037 
-0.26174 -0.056548 -0.24858 0.03651 0.011026 0.029605 0.0056006 -0.065591 
-0.16818 0.0018191 -0.39376 -0.035996 0.0067515 0.021878 0.024015 -0.014622 
0.0047785 0.12727 -0.31698 -0.06444 0.0014903 0.024837 0.013328 0.085341 
0.24121 0.16821 -0.17098 -0.085978 -0.0039354 0.0047785 0.028783 0.1345 
0.38063 0.066105 -0.052931 -0.068386 -0.027447 -0.012485 0.058049 0.16541 
0.29859 -0.038133 0.0075736 -0.038956 -0.010512 -0.00064712 0.033058 0.16064 
0.073997 -0.098309 0.097672 0.0095465 0.0052718 0.030592 0.043087 0.11115 
-0.070523 0.0054362 0.17462 0.051308 0.044073 0.047197 0.02533 0.073339 
0.081231 0.1368 0.25485 0.069558 0.040456 0.054103 0.067749 0.067913 
0.19829 0.19813 0.31108 0.091589 0.012835 0.044238 0.07449 0.088958 
0.13187 0.22016 0.30648 0.11839 0.052787 0.037004 0.04506 0.068736 
-0.029913 0.21474 0.32621 0.10491 0.036839 0.0065871 0.029112 0.035524 
-0.1358 0.29727 0.29628 0.079094 0.05213 0.022371 0.022371 0.020727 
-0.098144 0.36435 0.2394 0.066269 0.052294 0.030263 0.040456 0.025824 
-0.0087034 0.33722 0.16097 0.064132 0.035195 0.023357 0.033551 0.036346 
0.1054 0.183 0.087972 0.037168 0.042758 0.016781 0.022042 0.040292 
0.15867 0.072681 0.036839 0.010369 0.039305 0.0324 0.016945 0.0031344 
0.015465 -0.087951 0.026646 0.058871 0.031249 0.02829 0.01415 -0.031557 
-0.15832 -0.10916 0.066434 0.047362 0.037826 0.028619 0.035195 -0.033365 
-0.043724 0.034866 0.18711 0.072846 0.065447 0.038977 0.056733 0.025988 
0.12628 0.047362 0.06183 0.048019 0.07597 0.040456 0.051472 0.056733 
0.10211 -0.0042642 -0.30563 -0.047998 0.027961 0.027303 0.046046 0.035524 
0.16196 -0.020377 -0.75892 -0.17575 -0.033859 -0.0049219 0.049006 0.068736 
0.34512 -0.023172 -1.3122 -0.20255 -0.013471 0.0024767 0.066763 0.1465 
0.44524 0.13187 -1.4271 -0.18232 0.013328 0.024508 0.076134 0.21079 
0.451 0.22 -1.1266 -0.12346 0.04917 0.047033 0.073997 0.16936 
0.25633 -0.11919 -0.66225 -0.06148 0.014479 0.038483 0.030427 0.069886 
0.2583 -0.49915 -0.10604 -0.027282 -0.0060728 -0.030406 -0.051615 -0.10752 
0.14568 -0.65633 0.41285 0.01563 -0.023829 -0.072825 -0.10472 -0.17871 
-0.38439 -0.49734 1.3924 0.15357 0.035524 -0.045861 -0.10143 -0.24168 
-0.64975 -0.093705 2.4814 0.42782 0.10556 0.054596 -0.0026201 -0.13037 
-0.42007 -0.074304 2.3031 0.53008 0.18777 0.1128 0.078107 0.044567 
-0.080552 -0.34526 0.76536 0.34643 0.17708 0.10918 0.14354 0.20553 
0.15489 -0.45558 -0.88059 0.023193 0.096357 0.076134 0.10836 0.1904 
0.20076 -0.13481 -0.98055 -0.13185 0.02122 0.024344 0.047526 0.089123 
0.15472 0.54143 0.4168 0.04358 0.024508 0.0032988 0.042923 -0.019555 
0.12644 0.91728 1.3137 0.19649 0.071037 0.040621 0.034373 -0.036325 
0.15933 0.71324 0.61032 0.12349 0.062652 0.025659 0.04506 -0.033365 
0.16936 0.4505 -0.37732 -0.015938 0.031414 0.010369 0.0072447 0.0014903 
0.11346 0.10359 -0.96888 -0.15109 -0.0059084 0.016288 -0.0039354 0.032729 
-0.041586 -0.24628 -1.0835 -0.16588 -0.04323 -0.015116 -0.006566 0.070051 
-0.1205 -0.37748 -0.95096 -0.17262 -0.03912 -0.033694 0.02122 0.10425 
-0.047669 -0.29955 -0.71568 -0.076442 0.0034632 -0.011498 0.037826 0.097015 
0.07597 -0.16835 -0.38981 -0.040435 0.0069159 -0.013471 0.035853 0.086657 
0.12858 -0.12396 -0.067892 -0.0096899 -0.0039354 0.0019835 -0.00015387 0.0072447 
0.092082 -0.15289 0.20701 0.076956 0.0062583 -0.013965 0.0018191 -0.014787 
-0.08384 -0.14303 0.37504 0.089945 0.026152 0.0067515 0.016616 0.0069159 
-0.22852 -0.092554 0.45856 0.13023 0.065118 0.02122 0.013164 0.047197 
-0.18627 -0.090581 0.46497 0.11822 0.047197 0.0046141 0.032729 -0.0016336 
-0.27867 -0.11097 0.48848 0.14881 0.052787 0.055911 0.026317 0.0079024 
-0.25976 -0.10817 0.4487 0.12283 0.043909 0.064132 0.052294 -0.036654 
0.091589 0.033058 0.36287 0.10852 0.064625 0.05065 0.054432 -0.046025 
0.40167 0.11559 0.30237 0.090767 0.031907 0.017932 -0.0027845 -0.091239 
0.39806 0.19402 0.26389 0.036675 -0.0078813 0.0034632 -0.0503 -0.10357 
0.43012 0.30187 0.24269 0.024179 0.0024767 -0.0014692 -0.027775 -0.0406 
0.5309 0.40776 0.1784 0.031742 0.011026 0.019411 0.012506 0.01267 
0.42371 0.39904 -0.10258 0.016616 0.012506 0.0087245 0.035853 0.049992 
0.18826 0.31108 -0.29972 -0.05589 -0.0060728 0.017932 0.031742 0.071695 
0.15094 0.15555 -0.26437 -0.080881 -0.0072237 0.02533 0.031907 0.09422 
0.029934 -0.11031 -0.27604 -0.042901 0.0083956 0.0067515 -0.006566 0.02829 
-0.12478 -0.19268 -0.51049 -0.084169 0.00050378 -0.018075 0.013986 0.093726 
-0.1547 -0.22655 -0.54913 -0.10998 -0.042244 -0.049478 -0.0024557 0.074654 
-0.65945 -0.31172 -0.23263 -0.061151 -0.050136 -0.030406 -0.028597 0.045224 
-1.262 -0.079401 0.39625 0.10721 0.014479 0.010533 -0.023336 -0.042901 
-1.0524 0.54702 1.034 0.25863 0.079916 0.049828 0.019905 -0.014293 
-0.38932 0.88933 1.3461 0.28198 0.092576 0.081724 0.076299 0.029605 
0.032729 0.88505 1.4577 0.26554 0.068571 0.054596 0.061501 0.069393 
0.34002 0.62643 1.1299 0.21539 0.074161 0.083862 0.087972 0.1202 
0.61459 0.42223 0.48174 0.16574 0.086328 0.08419 0.10326 0.12217 
0.70157 0.27507 -0.18364 0.094713 0.082711 0.071202 0.076956 0.16393 
0.60407 0.089452 -0.77257 -0.054246 0.034702 0.049499 0.098659 0.16788 
0.4579 -0.12445 -1.2051 -0.21389 -0.026953 0.019576 0.070215 0.14552 
0.20832 -0.31205 -1.4314 -0.30843 -0.086471 -0.018568 0.0093821 0.009711 
-0.14451 -0.47893 -1.3845 -0.32076 -0.095678 -0.072003 -0.055561 -0.070687 
-0.24924 -0.52019 -1.1313 -0.19794 -0.073482 -0.053588 -0.042079 -0.080223 
-0.0016336 -0.31681 -0.64104 -0.15996 -0.047176 -0.038462 -0.0004827 -0.025145 
0.065283 -0.0868 -0.11294 -0.071016 -0.017911 0.0044497 0.014972 -0.068714 
0.015794 0.18333 0.39247 0.071695 0.020398 0.015301 -0.011334 -0.087293 
0.0047785 0.4094 0.75763 0.14733 0.072681 0.032564 0.048348 -0.018075 
0.052787 0.40628 0.71899 0.14124 0.047691 0.047197 0.05065 0.14996 
0.080409 0.45626 0.58697 0.16788 0.05624 0.069558 0.11609 0.24301 
0.038155 0.35547 0.25304 0.1128 0.069558 0.074983 0.10425 0.23282 
-0.032215 -0.0078813 -0.13563 0.0032988 0.039799 0.060186 0.067749 0.16031 
-0.049642 -0.30284 -0.31336 -0.05326 -0.0013048 0.018096 0.044402 0.159 
0.10704 -0.2887 -0.36055 -0.018075 -0.0091966 0.0065871 0.073175 0.16936 
0.19616 0.063803 -0.31632 -0.038956 0.013657 0.0093821 0.038977 0.11839 
0.18432 0.4293 -0.12938 -0.028104 0.028125 0.033551 0.017438 0.074654 
0.076792 0.56329 -0.012156 -0.0138 -0.017746 0.020891 0.012835 -0.021856 
-0.090417 0.38819 -0.133 -0.016102 0.011355 0.018425 -0.0047575 -0.15125 
-0.36811 0.0054362 -0.19038 -0.030735 0.0023123 -0.013307 -0.031228 -0.34115 
-0.43684 -0.29873 0.03092 0.022535 0.025988 0.0088889 -0.047176 -0.37222 
-0.2716 -0.41727 0.46399 0.1271 0.069722 0.042758 0.015137 -0.24431 
-0.083018 -0.49027 0.76454 0.15785 0.082053 0.049992 0.022371 -0.121 
0.034866 -0.35627 0.88357 0.15982 0.087808 0.013821 0.011191 -0.039942 
0.083533 -0.14451 0.70041 0.17955 0.065118 -0.001798 -0.0080457 0.035524 
-0.11607 -0.033201 0.2782 0.18744 0.079258 0.033058 0.0072447 0.20832 
0.081067 -0.091239 -0.21077 0.10162 0.052952 0.053774 0.049006 0.35317 
0.59716 -0.093705 -0.40806 0.031414 0.049828 0.050814 0.11954 0.40332 
0.63136 -0.010183 -0.32257 -0.02087 0.038977 0.050157 0.098001 0.28741 
0.20257 -0.11903 -0.44424 -0.1256 -0.0031133 0.020233 0.05772 0.086328 
-0.11113 -0.22589 -0.68181 -0.20534 -0.010019 0.0028056 0.00297 -0.067564 
-0.028269 0.040292 -0.64827 -0.21619 -0.014293 0.015301 -0.0062372 -0.11179 
-0.12198 0.1909 -0.48961 -0.11738 -0.0078813 0.0018191 -0.028269 -0.12692 
-0.33539 0.12644 -0.27736 -0.013965 0.017438 0.0018191 -0.014951 -0.11376 
-0.41481 -0.017746 0.08419 0.093069 0.064132 0.034373 0.0039565 -0.099624 
-0.32504 -0.052273 0.68923 0.25255 0.055582 0.028783 0.026481 -0.062138 
0.041443 0.0083956 1.3191 0.30993 0.067256 0.036182 0.019905 -0.030406 
0.31864 0.058377 1.5631 0.31519 0.080738 0.028619 0.01267 -0.0026201 
0.24828 0.054432 1.263 0.28149 0.093233 0.045553 0.0098754 -0.029913 
0.11329 -0.015938 0.48109 0.17363 0.074161 0.048184 0.018918 -0.054575 
0.15637 -0.04619 -0.26963 0.010862 0.038155 0.042594 0.038648 -0.026953 
0.16459 -0.076935 -0.65386 -0.091732 0.0098754 0.031249 0.0062583 -0.010841 
0.070708 -0.084663 -0.76731 -0.1062 -0.0011404 0.00033937 -0.011827 -0.074798 
-0.029255 -0.070523 -0.72653 -0.14698 -0.023501 -0.011005 -0.013471 -0.10949 
-0.066248 0.0044497 -0.57889 -0.14681 -0.053753 -0.014951 -0.036325 -0.044052 
-0.090746 0.05476 -0.39935 -0.13464 -0.070852 -0.019061 0.0080668 0.084519 
0.024837 0.070215 -0.2014 -0.019555 -0.011663 0.01974 0.041772 0.24581 
0.24614 -0.033201 -0.023829 0.053116 0.058706 0.041772 0.090767 0.27573 
0.27771 -0.11393 0.094877 0.05772 0.031414 0.055911 0.07038 0.23035 
0.20257 -0.096829 0.19073 0.079916 0.050814 0.043087 0.014808 0.10047 
0.092411 0.05624 0.29941 0.081231 0.039141 0.020233 0.021878 -0.012156 
-0.037805 0.13056 0.22756 0.068242 0.053116 0.00050378 0.0016547 -0.088937 
-0.37173 0.11313 0.029276 0.027139 0.0324 0.029441 0.009711 -0.07825 
-0.31994 0.14124 0.021384 0.058213 0.043251 0.045389 0.036182 -0.063782 
0.11839 0.26011 0.22772 0.10047 0.075805 0.02122 0.060022 -0.043724 
0.44672 0.33936 0.24515 0.1151 0.086657 0.047033 0.053938 -0.076113 
0.31519 0.16015 0.13647 0.10639 0.044238 0.0028056 0.0041209 -0.1381 
-0.0067304 0.14437 0.3341 0.079258 0.00033937 -0.0039354 -0.025145 -0.17525 
-0.078908 0.3147 0.73248 0.074654 0.0079024 -0.00081153 -0.011663 -0.063618 
-0.076606 0.2948 0.59831 0.057391 0.018096 0.0098754 -0.012156 0.056569 
-0.23181 0.051801 0.036017 0.0024767 0.034702 0.0032988 0.025001 0.12151 
-0.40593 -0.13218 -0.43207 -0.099789 0.0014903 0.005765 0.0039565 0.12973 
-0.29199 0.015465 -0.65682 -0.14566 0.0018191 0.0064227 0.027468 0.14617 
0.02681 0.20043 -0.66455 -0.10028 0.014643 0.025495 0.058871 0.19155 
0.29579 0.16952 -0.76451 -0.09798 0.031414 0.038319 0.084848 0.22033 
0.45462 0.016616 -0.74396 -0.078086 0.015137 0.017767 0.065776 0.2103 
0.60407 -0.0021268 -0.40231 -0.016266 -0.0044286 0.032893 0.053116 0.21046 
0.56313 0.016288 -0.012814 0.076463 0.022042 0.0018191 0.090931 0.19122 
0.16163 0.026974 0.28872 0.10885 0.03536 0.01004 0.054103 0.097015 
-0.4227 0.050979 0.67378 0.18432 0.06183 0.022206 -0.0091966 -0.041257 
-0.87171 0.28724 1.2997 0.31799 0.078765 0.039634 0.005765 -0.21307 
-0.49159 0.69351 1.6994 0.34183 0.11329 0.062981 0.017603 -0.16638 
0.25633 0.95608 1.5235 0.27244 0.099481 0.066763 0.062323 -0.024323 
0.45314 0.5947 0.56033 0.057062 0.066269 0.056733 0.072353 0.073668 
0.28231 -0.035667 -0.66751 -0.09239 0.022206 0.029112 0.060515 0.055747 
0.10145 -0.34986 -1.3174 -0.22458 -0.025638 0.0042853 0.024673 -0.025145 
-0.11343 -0.43486 -1.2888 -0.27325 -0.051122 -0.021856 -0.025145 -0.11886 
-0.033365 -0.29709 -0.85757 -0.16851 -0.043724 -0.035832 -0.033365 -0.059507 
-0.16259 -0.027118 -0.25088 -0.061645 0.0042853 -0.032543 -0.018075 0.021549 
-0.37567 0.090109 0.15785 -0.0014692 -0.0039354 -0.014129 -0.001798 0.093726 
-0.056877 0.17659 0.47336 0.065283 0.026152 0.01826 0.072846 0.19533 
0.34199 0.29908 0.71275 0.14026 0.063145 0.05772 0.11296 0.23068 
0.37241 -0.015116 0.49358 0.12184 0.077449 0.04358 0.094384 0.17692 
0.14387 -0.41628 -0.027447 0.046375 0.014808 -0.00064712 0.011026 0.02681 
-0.03501 -0.49866 -0.27308 0.025001 -0.03057 -0.035832 -0.038791 -0.096994 
-0.056877 -0.20978 -0.3058 -0.022679 0.016945 0.0052718 -0.035174 -0.083676 
0.23644 0.064296 -0.13875 -0.037805 -0.00081153 -0.017253 0.059035 0.036675 
0.19435 0.084684 0.021878 0.020398 0.035853 0.01974 0.062817 0.11378 
0.022864 0.13105 0.10376 0.10244 0.040456 0.013821 0.047362 0.14601 
-0.014951 0.19714 0.16426 0.062488 0.053609 0.049006 0.06479 0.11148 
0.051472 0.23266 0.25814 0.090931 0.057227 0.042265 0.10129 0.12102 
0.022535 0.16015 0.31552 0.086821 0.06035 0.040128 0.10145 0.10162 
-0.059178 0.061172 0.2218 0.049335 0.038155 0.024508 0.071366 0.071366 
-0.15224 -0.047012 0.034537 0.034537 0.051801 0.01711 0.051143 0.017932 
-0.10176 -0.023172 -0.078908 0.036675 0.041772 0.036182 0.037004 0.033222 
0.12743 0.025988 -0.10554 0.041936 0.020398 0.017603 0.042923 0.052787 
0.23463 0.036839 -0.09387 -0.03764 1.0539e-005 -0.0067304 0.0047785 0.040621 
0.2218 -0.027282 -0.17756 -0.083018 -0.025145 -0.017417 -0.02794 0.038977 
-0.00015387 -0.23247 -0.18183 -0.087951 -0.054082 -0.034023 -0.024487 -0.023994 
-0.078744 -0.37896 -0.046519 -0.044874 -0.02498 -0.025309 1.0539e-005 -0.0073881 
0.11411 -0.34411 0.23775 0.026152 0.042923 0.032893 0.051308 0.031085 
0.32111 -0.17476 0.43637 0.11378 0.037168 0.064132 0.070051 0.040456 
0.32358 -0.038462 0.2685 0.11313 0.044402 0.047691 0.025988 -0.085649 
0.24499 -0.10505 -0.3423 0.024508 0.031742 0.07449 0.0064227 -0.15405 
0.096028 -0.28706 -0.98302 -0.048985 0.054267 0.048019 0.0095465 -0.1182 
-0.02794 -0.091732 -1.0605 -0.070523 0.02122 0.0093821 0.0095465 -0.0044286 
-0.10686 0.21917 -0.63643 -0.064933 -0.031392 -0.023829 -0.063782 0.043745 
-0.073318 0.36863 0.02533 -0.069536 -0.044874 -0.061151 -0.061151 0.069722 
-0.016102 0.2514 0.18843 -0.075291 -0.040764 -0.035174 -0.052931 0.071859 
0.043745 0.099645 0.024179 -0.066413 -0.031392 -0.017911 -0.022679 0.066598 
0.14321 0.27951 0.42206 -0.018075 -0.0138 0.016616 0.068078 0.073668 
0.24005 0.79577 1.3549 0.24976 0.086821 0.084848 0.13384 0.13532 
0.1641 0.68595 1.4136 0.35778 0.14716 0.12332 0.15275 0.11609 
0.093398 0.023357 0.54636 0.21079 0.12825 0.094384 0.088958 0.043416 
0.063968 -0.24793 0.19912 0.095206 0.072188 0.051636 0.054925 0.06331 
-0.16243 -0.11541 0.40151 0.097179 0.05213 0.028947 0.018754 0.0023123 
-0.33408 -0.12741 0.20388 0.065118 0.021384 0.019247 0.0011614 0.014808 
-0.27423 -0.3469 -0.28722 -0.006566 0.026974 0.028454 0.0087245 -0.0096899 
-0.027611 -0.38176 -0.56491 -0.011827 0.037661 0.038977 0.03092 0.039141 
0.23085 -0.21521 -0.66093 0.0041209 0.013328 0.037661 0.093562 0.034866 
0.32835 0.058213 -0.6685 -0.004593 0.012013 0.018096 0.048348 0.090438 
0.21589 0.14256 -0.56853 -0.049971 -0.0021268 -0.018239 0.01004 -0.00031829 
0.078436 0.046046 -0.46577 -0.10439 -0.023336 -0.019884 -0.027775 -0.046683 
0.014479 -0.12149 -0.34838 -0.073318 -0.042079 -0.023007 -0.032872 -0.047341 
-0.022679 -0.12462 -0.24266 -0.08384 -0.031228 -0.0090322 -0.023336 -0.054739 
-0.081703 0.033222 -0.071838 -0.044546 -0.03616 0.018096 -0.03501 -0.083183 
-0.16111 0.28856 0.28067 0.061172 0.025659 0.030592 -0.017746 -0.060823 
-0.17969 0.50575 0.5217 0.17511 0.031249 0.035031 -0.009361 0.014315 
-0.14928 0.52581 0.46464 0.13894 0.064296 0.063145 0.041443 -0.003771 
-0.023007 0.4385 0.35843 0.09833 0.049664 0.056898 0.058542 0.0047785 
0.097179 0.41795 0.39411 0.1909 0.091425 0.078107 0.062817 -0.0011404 
0.22772 0.32752 0.57283 0.24581 0.14239 0.10162 0.075312 0.076463 
0.23693 0.17232 0.44196 0.16262 0.10178 0.082053 0.06479 0.10195 
0.13483 0.12908 0.2537 0.046046 0.058871 0.060186 0.062159 0.11921 
-0.11672 0.039963 0.45938 0.053609 0.029769 -0.0044286 0.047197 0.093562 
-0.47761 -0.0060728 0.8525 0.076134 0.0080668 -0.010183 -0.031392 0.035524 
-0.2647 -0.054575 0.92073 0.10688 0.0011614 -0.021856 -0.068714 -0.035174 
0.097344 -0.22622 0.38869 0.082382 -0.0022913 -0.0062372 -0.053753 0.020233 
0.29365 -0.40987 -0.29725 -0.0054151 -0.019719 0.01415 0.010369 0.031085 
0.1641 -0.22409 -0.51641 -0.029091 0.012342 0.01974 0.033551 0.011684 
0.036839 0.18366 -0.44358 -0.0096899 0.013657 0.010369 0.058542 0.0011614 
0.059035 0.44491 -0.43404 0.013164 0.0069159 0.040621 0.077121 -0.018897 
0.17412 0.46168 -0.37535 0.023193 0.011848 0.052294 0.087314 -0.081868 
0.1465 0.19139 -0.30021 0.023028 0.034209 0.036017 0.053116 -0.14698 
-0.19745 -0.10489 -0.1718 0.03536 0.033715 0.0075736 -0.015116 -0.16473 
-0.54782 -0.28344 -0.10719 0.0042853 -0.0036066 0.0026412 -0.07414 -0.099624 
-0.56952 -0.13399 0.034866 -0.01528 -0.023829 -0.023007 -0.054246 0.015465 
-0.1912 0.052623 0.26768 0.032564 -0.014622 -0.036818 -0.010512 0.11346 
0.23167 0.17856 0.43768 0.1026 0.042429 0.011848 0.049335 0.15867 
0.36353 0.090109 0.43489 0.10836 0.062981 0.061995 0.085506 0.073339 
0.36468 -0.081045 0.14321 0.016452 0.048348 0.082382 0.066434 -0.040271 
0.22476 -0.24677 -0.19383 -0.026624 0.029441 0.034702 0.038977 -0.19909 
-0.021856 -0.44604 -0.45278 -0.087293 -0.0087034 -0.0026201 -0.026131 -0.17476 
-0.145 -0.49027 -0.48583 -0.086964 -0.0068948 -0.021856 -0.020212 -0.00097594 
-0.049971 -0.27588 -0.22096 -0.012814 0.0080668 0.025659 0.038155 0.2417 
0.22789 0.087643 0.10573 0.080244 0.041114 0.06331 0.11411 0.42535 
0.30746 0.19994 0.11198 0.047362 0.053609 0.051965 0.11444 0.35893 
0.3267 0.26472 -0.065591 -0.0036066 0.023851 0.020069 0.082053 0.19714 
0.25107 0.24926 -0.17295 -0.047176 -0.01232 -0.026296 0.02829 0.040621 
-0.12577 0.14437 -0.20584 -0.079401 -0.056548 -0.03616 -0.064275 -0.16983 
-0.70335 0.10129 -0.15388 -0.086471 -0.059507 -0.080059 -0.10571 -0.29133 
-0.68592 0.15999 0.017932 -0.071181 -0.027118 -0.056219 -0.075127 -0.2573 
-0.18117 0.077285 0.022535 0.0037921 -0.019555 -0.025638 -0.015609 -0.16243 
0.17791 -0.10308 -0.038133 0.0011614 0.012177 0.038155 0.046704 -0.00081153 
0.43061 -0.21027 -0.22573 0.027139 0.026646 0.066434 0.076792 0.13647 
0.53962 -0.2739 -0.33885 0.0011614 0.042923 0.032564 0.092247 0.24071 
0.4995 -0.20797 -0.218 -0.017582 0.0082312 0.039963 0.048513 0.16196 
0.18826 -0.13382 -0.14287 -0.031886 0.01711 0.016452 0.058377 0.072024 
-0.19235 -0.14007 -0.32849 -0.026624 -0.013143 -0.0088678 -0.013636 -0.040435 
-0.48402 -0.24349 -0.33276 -0.072825 -0.017417 -0.020377 -0.048163 -0.14813 
-0.51082 -0.087458 0.13499 -0.044052 0.035195 -0.017746 -0.014622 -0.077264 
-0.15651 0.081724 0.33591 0.0088889 0.040456 0.037004 0.049828 0.096357 
0.42568 0.21326 0.10869 0.04095 0.051636 0.036346 0.088301 0.20421 
0.57875 0.26389 -0.087458 0.085341 0.041607 0.039141 0.070215 0.19829 
0.32637 0.2468 -0.20123 0.1026 0.035524 0.012506 0.036675 0.15144 
0.06479 0.27491 -0.14944 0.10392 0.039799 0.029934 0.026974 0.12825 
0.0093821 0.51019 0.18794 0.13286 0.040292 0.035853 0.053281 0.12875 
-0.034352 0.54866 0.51068 0.16245 0.08567 0.058049 0.081889 0.1054 
-0.084169 0.31322 0.66063 0.1978 0.10622 0.091425 0.10819 0.11231 
-0.02087 0.0042853 0.57677 0.14963 0.1225 0.058542 0.11329 0.071695 
0.02681 -0.25911 0.05065 -0.021692 0.040621 0.0054362 0.022371 0.056898 
0.10343 -0.4467 -0.60207 -0.15076 -0.038956 -0.045532 -0.029913 0.0032988 
0.1391 -0.46331 -0.65616 -0.16917 -0.020048 -0.019884 -0.023994 0.0064227 
0.01826 -0.26765 -0.31303 -0.079566 0.0090533 -0.016924 -0.0073881 0.0041209 
-0.10784 -0.080059 0.09422 -0.017088 0.012999 0.0085601 0.0098754 0.0070803 
-0.13432 0.19106 0.57266 0.095864 0.023686 -0.012978 -0.0087034 -0.011334 
-0.0031133 0.53304 1.2675 0.22871 0.056076 0.010204 0.034866 0.040292 
0.092247 0.52844 1.483 0.305 0.085835 0.034537 0.039634 0.098988 
0.18678 0.40644 1.1335 0.23364 0.11017 0.058542 0.05772 0.12562 
0.2486 0.4191 0.53468 0.14552 0.082546 0.057884 0.079094 0.12546 
0.26702 0.41861 -0.029584 0.047526 0.066269 0.049664 0.091425 0.11148 
0.16837 0.29661 -0.41546 -0.047669 0.024015 0.063474 0.07449 0.10129 
0.065776 0.1853 -0.63463 -0.082854 0.02122 0.03388 0.031742 0.04095 
0.0036276 0.048513 -0.61605 -0.064111 0.010204 0.013821 0.0013258 0.047855 
-0.17394 -0.05589 -0.38653 -0.00097594 0.00066819 0.014972 -0.013471 0.041114 
-0.25088 -0.13251 -0.11245 0.041936 0.013492 0.0034632 0.016452 0.064954 
-0.10801 -0.14319 0.11888 0.092082 0.047526 0.030427 0.050321 0.071531 
0.11937 -0.094363 0.2731 0.16262 0.097179 0.050486 0.080902 0.10392 
0.25403 -0.033037 0.42814 0.16442 0.078929 0.055089 0.072353 0.099316 
0.22312 -0.0075525 0.43949 0.1659 0.081067 0.052294 0.065283 0.053609 
0.086985 0.045389 0.33377 0.093069 0.056898 0.049499 0.044567 -0.028597 
0.01415 0.10343 0.20224 0.049499 0.039634 0.027139 0.020727 -0.01117 
0.00297 0.074654 0.031578 -0.031557 -0.013965 -0.0064016 -0.0049219 0.039634 
-0.091897 0.18942 -0.1667 -0.021034 -0.041422 0.017274 -0.011992 0.06742 
0.028125 0.31371 -0.25911 -0.0082102 0.00017495 0.013657 0.012013 0.093562 
0.10507 0.31223 -0.28377 -0.02942 0.070051 0.031249 0.041936 0.071695 
-0.095843 0.13154 -0.18528 -0.027611 0.026152 0.027632 0.034209 0.0067515 
-0.41941 -0.10176 -0.194 -0.016924 0.017603 0.03947 0.014643 -0.19054 
-0.26338 -0.19696 -0.17575 -0.0040998 0.032236 0.03092 -0.041915 -0.29709 
0.10244 -0.1062 0.13499 0.01974 0.02533 0.0088889 -0.07414 -0.35792 
0.4219 0.019083 0.64813 0.10573 0.069722 0.0072447 -0.006566 -0.29709 
0.49572 -0.045039 0.66194 0.14206 0.042758 0.015794 -0.0016336 -0.19252 
0.11576 -0.24908 0.3974 0.12628 0.030098 0.0013258 -0.010676 -0.1011 
-0.17854 -0.33737 0.12529 0.064132 0.025166 -0.0014692 -0.0026201 0.0018191 
-0.19663 0.014315 0.15111 0.034866 0.031907 0.026974 0.04506 0.14667 
-0.090417 0.41894 0.41055 0.1299 0.050157 0.067256 0.098001 0.22904 
-0.041586 0.52679 0.41236 0.14634 0.058871 0.072517 0.099481 0.27244 
0.0060938 0.20224 -0.096665 0.063639 0.039305 0.04917 0.062323 0.22526 
0.00017495 -0.19202 -0.86727 -0.12922 -0.0088678 0.0065871 0.01563 0.147 
0.022535 -0.28985 -1.2706 -0.28475 -0.056712 -0.0078813 0.0069159 0.064132 
0.12858 -0.11919 -1.1072 -0.25615 -0.047505 -0.0090322 0.026481 0.016616 
0.16393 0.068242 -0.70647 -0.14977 -0.022021 -0.0031133 0.020069 0.018425 
0.14765 0.051143 -0.46216 -0.067728 0.0052718 0.016288 0.0093821 0.013328 
0.074654 -0.14385 -0.2647 -0.03353 0.014315 0.030427 -0.00031829 0.028125 
-0.14533 -0.34953 0.058706 0.037168 0.013492 0.027961 0.031085 0.0070803 
-0.28459 -0.42122 0.48964 0.13286 0.020562 0.029112 0.019247 -0.033201 
-0.22524 -0.21702 0.7333 0.14206 0.034537 0.022371 0.0056006 -0.16029 
-0.048163 0.057884 0.58204 0.12497 0.043416 0.033058 -0.0042642 -0.13908 
0.0082312 0.12513 0.074819 0.076956 0.053116 0.048184 -0.003771 -0.0868 
0.043745 0.069722 -0.37765 0.034209 0.029605 0.047197 0.02829 -0.037476 
0.22296 0.092411 -0.50507 -0.059672 0.0080668 0.029276 0.03388 -0.058192 
0.39641 0.18876 -0.4324 -0.074304 0.016288 0.047197 0.02681 -0.062631 
0.51249 0.24762 -0.35989 -0.023665 0.037004 0.039634 0.050814 -0.013636 
0.33624 0.18942 -0.31928 -0.057534 -0.0083746 0.042594 0.048348 0.046868 
0.060679 -0.028926 -0.29084 -0.10637 -0.037805 -0.016595 0.011355 0.01826 
-0.2938 -0.16818 -0.098473 -0.049807 -0.040435 -0.050958 -0.040928 -0.057699 
-0.61572 -0.063289 0.11033 0.066763 0.0046141 -0.03353 -0.059507 -0.11393 
-0.73081 0.14815 0.24153 0.086163 0.020233 0.022535 -0.0098543 -0.059014 
-0.1723 0.28231 0.18514 0.099152 0.030263 0.074819 0.049499 0.082875 
0.74218 0.27787 0.11905 0.084848 0.027961 0.066269 0.10556 0.19879 
1.0707 0.036346 -0.03912 0.013821 0.0016547 0.037826 0.063803 0.25452 
0.67608 -0.26667 -0.0088678 -0.021199 -0.0070593 0.004943 0.031085 0.20553 
0.017274 -0.33523 0.20865 0.017274 0.012835 0.0070803 -0.00097594 0.098166 
-0.69595 -0.18298 0.41927 0.12135 0.038812 0.0026412 -0.01676 -0.063946 
-0.82403 0.3461 0.79134 0.18481 0.050979 0.017767 0.031578 -0.071181 
-0.20288 0.73543 0.76552 0.17528 0.086821 0.042594 0.060679 0.066434 
0.38573 0.56099 0.27705 0.086657 -0.001798 0.024344 0.099481 0.16377 
0.39099 0.19435 -0.15816 0.00050378 -0.0034422 0.025988 0.037661 0.11757 
0.21753 -0.098802 -0.15651 -0.064111 -0.0138 0.01974 0.043416 0.092082 
0.098166 -0.17641 0.19665 0.027796 0.052623 0.058871 0.051636 0.028947 
0.15456 -0.18676 0.35054 0.16722 0.087808 0.074161 0.061008 0.11066 
0.26258 -0.26897 0.068571 0.1322 0.11757 0.10014 0.091425 0.17889 
0.34331 -0.14254 -0.36926 0.0079024 0.034537 0.065118 0.097179 0.17593 
0.3295 0.10277 -0.61029 -0.092061 -0.021199 0.024015 0.07301 0.13187 
0.072517 0.25041 -0.59484 -0.16358 -0.045861 -0.050629 -0.014129 0.036346 
-0.17361 0.28921 -0.52529 -0.17394 -0.045532 -0.071345 -0.044874 0.021878 
-0.33638 0.23249 -0.36088 -0.10143 -0.026953 -0.022679 -0.027282 0.021878 
-0.37732 0.18185 -0.074962 0.0065871 0.011191 -0.011498 -0.0067304 -0.008539 
-0.27111 0.17462 0.43291 0.066105 0.042429 -0.013307 -0.010841 -0.18479 
-0.15454 0.15916 0.91054 0.2126 0.079587 0.040456 -0.025309 -0.29363 
-0.092883 0.024344 1.0787 0.29957 0.11313 0.055911 -0.016924 -0.30859 
0.035195 -0.13958 0.86302 0.30714 0.10491 0.06594 0.015301 -0.1547 
0.31651 -0.12281 0.71653 0.24038 0.090603 0.057884 0.055254 0.068407 
0.4533 0.036675 0.64221 0.21145 0.10606 0.056898 0.11198 0.21095 
0.21983 -0.0036066 0.20471 0.099645 0.028947 0.040785 0.1026 0.26077 
-0.032708 -0.10965 -0.30843 -0.083676 0.019905 0.026974 0.073504 0.21769 
-0.12725 -0.11985 -0.51378 -0.12609 0.012506 0.018754 0.042758 0.147 
-0.15651 0.071037 -0.25943 -0.02794 0.019576 -0.0080457 0.030592 0.073997 
-0.0503 0.26159 0.023686 0.034537 0.032236 -0.0050863 0.026481 0.027139 
0.015465 0.22871 0.055254 0.023028 0.0065871 0.00050378 0.027303 0.070873 
0.031578 0.032071 -0.043888 -0.0029489 0.0011614 0.025988 0.033551 0.083862 
0.004943 -0.18035 -0.12248 -0.0077169 0.005765 0.022535 0.03536 0.08156 
0.015959 -0.29758 -0.16605 -0.042737 0.016616 0.00297 0.05624 0.08008 
-0.04619 -0.28886 -0.21044 -0.034681 -0.0080457 0.00033937 0.024344 0.010533 
-0.11524 -0.10012 -0.22211 -0.015444 0.0039565 0.0067515 0.01826 -0.026624 
-0.1353 0.15176 -0.24562 0.0087245 0.023193 -0.019555 0.040456 -0.06855 
-0.0077169 0.2491 -0.2009 -0.016924 0.028783 -0.0040998 0.01004 0.019247 
0.095699 0.1858 -0.14303 -0.041257 0.0065871 0.0074092 0.041278 0.037004 
0.11954 0.053445 -0.19646 -0.015444 -0.0014692 0.0016547 0.010204 0.04654 
0.10277 -0.054904 -0.22409 -0.071509 -0.011005 0.0046141 -0.0075525 0.033551 
0.1391 -0.11886 -0.18084 -0.082032 -0.0014692 -0.0019624 0.00066819 0.050321 
0.28708 -0.00081153 -0.067564 -0.029584 0.0082312 0.024179 0.048513 0.081889 
0.30878 0.090109 -0.13448 0.042594 0.042429 0.023357 0.060022 0.052787 
0.04654 0.04506 -0.28821 0.052294 0.076299 0.028947 0.03651 -0.049971 
-0.18397 -0.024652 -0.10752 0.043251 0.05624 0.020398 -0.03501 -0.17032 
-0.2379 -0.083676 0.52433 0.14387 0.076463 0.01974 -0.031228 -0.1552 
-0.21208 0.053116 1.2478 0.26011 0.097344 0.045389 0.023522 -0.015444 
-0.092719 0.53419 2.0245 0.41055 0.14453 0.076956 0.088465 0.147 
-0.027282 0.90626 2.2318 0.44442 0.12529 0.10556 0.073339 0.21408 
0.039963 0.82586 1.437 0.28231 0.10425 0.068242 0.060679 0.17511 
-0.035996 0.34117 0.27294 0.034702 0.031742 0.0062583 0.024508 0.083533 
-0.11278 -0.15585 -0.79345 -0.16572 -0.029255 -0.018568 0.028783 0.030592 
-0.056712 -0.44769 -1.4799 -0.23362 -0.049478 -0.020048 0.040785 -0.012814 
0.013821 -0.49816 -1.5481 -0.22935 -0.012485 0.023193 0.039634 0.020727 
0.23693 -0.30859 -1.2231 -0.19318 -0.0096899 0.0087245 0.031085 0.00297 
0.366 -0.094527 -0.82666 -0.16934 -0.047505 -0.020706 -0.022021 0.016781 
0.32522 0.0047785 -0.51987 -0.10817 -0.035338 -0.018897 0.0023123 0.029276 
0.18761 0.023193 -0.15158 -0.03616 -0.0040998 0.0011614 0.011191 0.08156 
0.12809 0.046046 0.20438 0.068078 0.037497 0.029441 0.018096 0.10491 
0.056898 0.093398 0.34084 0.1225 0.018754 0.022535 0.0023123 0.061172 
-0.026296 0.14716 0.33311 0.093398 0.024344 0.018425 -0.0070593 0.0065871 
-0.33589 0.074326 0.20849 0.026481 0.025001 0.011355 -0.023336 -0.097322 
-0.52447 0.010697 0.11066 -0.0091966 0.0087245 0.00099702 -0.03616 -0.10883 
-0.15125 0.087314 0.19665 0.042758 0.049335 0.024508 -0.0021268 0.049664 
0.28543 0.23298 0.34199 0.088301 0.055747 0.063145 0.084026 0.15259 
0.47993 0.31388 0.25091 0.071037 0.058706 0.065776 0.086657 0.066927 
0.42338 0.30023 0.1105 0.042923 0.026646 0.03092 0.051636 -0.03501 
0.25551 0.27195 0.18777 0.032071 0.0421 0.01974 -0.0057439 -0.0965 
-0.0080457 0.17758 0.28872 0.03799 0.015794 0.0074092 -0.026624 -0.092554 
-0.15076 -0.054082 0.33344 0.066105 0.013657 0.022042 -0.016102 -0.065919 
-0.20616 -0.23938 0.21983 0.10063 0.026317 0.017438 0.016123 0.021384 
